2.7203e-010,2.3441e-009,-5.595e-011,1.2251e-009,9.1642e-010,7.4105e-009,3.6483e-009,1.7344e-009,2.9518e-010,-2.5949e-009,1.7962e-009,-4.7403e-009,-1.2639e-008,-2.2193e-008,6.5403e-010,-7.6767e-009,1.1016e-009,2.4058e-009,-1.2367e-009,-6.4265e-009,9.4536e-011,6.087e-009,7.8523e-010,-1.0746e-009
7.8259e-009,6.4907e-008,-1.3609e-009,3.4159e-008,2.5544e-008,2.0472e-007,1.0103e-007,4.7624e-008,7.9911e-009,-7.1221e-008,4.9894e-008,-1.3004e-007,-3.4609e-007,-6.1446e-007,1.717e-008,-2.1063e-007,3.0238e-008,6.6556e-008,-3.5289e-008,-1.7711e-007,3.0021e-009,1.6771e-007,2.1463e-008,-2.9622e-008
1.0932e-007,8.7326e-007,-1.5775e-008,4.6288e-007,3.4618e-007,2.7495e-006,1.3601e-006,6.3498e-007,1.0466e-007,-9.4978e-007,6.7428e-007,-1.7323e-006,-4.6013e-006,-8.2715e-006,2.1709e-007,-2.8053e-006,4.0301e-007,8.949e-007,-4.9097e-007,-2.3725e-006,4.5588e-008,2.2456e-006,2.8509e-007,-3.9687e-007
9.8775e-007,7.605e-006,-1.1573e-007,4.0606e-006,3.0391e-006,2.3915e-005,1.1859e-005,5.4759e-006,8.8273e-007,-8.1985e-006,5.9074e-006,-1.4926e-005,-3.9562e-005,-7.2124e-005,1.7558e-006,-2.4154e-005,3.4742e-006,7.7917e-006,-4.4383e-006,-2.0581e-005,4.4264e-007,1.9468e-005,2.4516e-006,-3.4425e-006
6.4876e-006,4.8182e-005,-6.0196e-007,2.5913e-005,1.9423e-005,0.00015142,7.5269e-005,3.4316e-005,5.3842e-006,-5.1479e-005,3.7716e-005,-9.345e-005,-0.00024716,-0.00045784,1.0164e-005,-0.00015101,2.1767e-005,4.9376e-005,-2.9308e-005,-0.00012996,3.0966e-006,0.00012281,1.5342e-005,-2.1725e-005
3.3e-005,0.00023661,-2.3592e-006,0.00012814,9.6278e-005,0.00074358,0.00037049,0.00016643,2.5272e-005,-0.00025048,0.00018701,-0.00045274,-0.0011949,-0.0022544,4.4542e-005,-0.00072991,0.00010558,0.00024264,-0.00015067,-0.00063641,1.6663e-005,0.0006006,7.4458e-005,-0.00010625
0.00013521,0.00093679,-7.2547e-006,0.00051054,0.00038503,0.0029457,0.0014711,0.00064942,9.4789e-005,-0.00098219,0.00074933,-0.0017641,-0.0046466,-0.0089556,0.00015177,-0.0028338,0.00041226,0.00096181,-0.00062743,-0.0025144,7.1857e-005,0.0023683,0.00029159,-0.00041873
0.00045821,0.0030705,-1.8189e-005,0.0016822,0.0012754,0.0096664,0.0048377,0.0020913,0.00029106,-0.0031858,0.0024922,-0.0056706,-0.014912,-0.029471,0.00040272,-0.0090583,0.00133,0.0031578,-0.0021734,-0.0082302,0.00025532,0.0077302,0.00094669,-0.001365
0.0013083,0.0084873,-3.9414e-005,0.0046663,0.0035637,0.026763,0.01342,0.0056536,0.00074278,-0.0087025,0.007012,-0.015292,-0.040173,-0.081817,0.0007996,-0.024223,0.0036091,0.008747,-0.0063787,-0.022736,0.00076227,0.02127,0.0025976,-0.0037471
0.0031884,0.020044,-8.1557e-005,0.01103,0.0085084,0.063336,0.03181,0.012969,0.0015883,-0.020266,0.016919,-0.034957,-0.09186,-0.19409,0.00098369,-0.054678,0.0083387,0.020707,-0.016064,-0.053705,0.0019395,0.049959,0.0061114,-0.0087698
0.0066936,0.040813,-0.00017996,0.022386,0.017508,0.12925,0.064993,0.025376,0.0028486,-0.040543,0.035351,-0.068062,-0.17928,-0.39673,-0.00029697,-0.1044,0.016532,0.042261,-0.034991,-0.10944,0.0042487,0.101,0.012466,-0.017642
0.012175,0.072058,-0.00042861,0.039137,0.031208,0.22871,0.11506,0.042295,0.0042515,-0.069913,0.064393,-0.11265,-0.29861,-0.70203,-0.0057133,-0.16743,0.028235,0.074748,-0.066152,-0.19336,0.008068,0.17655,0.022245,-0.030642
0.019239,0.11063,-0.0010057,0.058851,0.048278,0.35167,0.17684,0.059395,0.0051561,-0.10378,0.10264,-0.15661,-0.42097,-1.0761,-0.019203,-0.22037,0.041545,0.11478,-0.10831,-0.29664,0.013336,0.26694,0.035014,-0.046016
0.02641,0.14768,-0.0021364,0.075485,0.064708,0.46945,0.2356,0.068112,0.0047702,-0.1316,0.14332,-0.17696,-0.49075,-1.4227,-0.044321,-0.22301,0.052453,0.15272,-0.15195,-0.39364,0.019218,0.3476,0.049036,-0.059658
0.031388,0.17096,-0.0039571,0.080908,0.074741,0.54158,0.27066,0.058152,0.0026706,-0.13994,0.17493,-0.14765,-0.44467,-1.6031,-0.080963,-0.13481,0.056355,0.17494,-0.17755,-0.44643,0.02411,0.38535,0.061798,-0.066581
0.032092,0.17095,-0.0063446,0.069,0.073716,0.53549,0.26567,0.022885,-0.00072423,-0.1197,0.18543,-0.05522,-0.24926,-1.499,-0.12188,0.055034,0.050982,0.17041,-0.15976,-0.42,0.026199,0.35482,0.071276,-0.064053
0.028002,0.14755,-0.0088961,0.040277,0.061445,0.449,0.22046,-0.035206,-0.0042944,-0.07373,0.16851,0.086627,0.064825,-1.0909,-0.15184,0.30181,0.038927,0.13841,-0.078507,-0.30158,0.024379,0.25652,0.077166,-0.054484
0.02083,0.11225,-0.011222,0.0035005,0.043511,0.31841,0.15545,-0.10327,-0.0072061,-0.018591,0.12782,0.23615,0.40151,-0.49632,-0.15205,0.5087,0.027288,0.091633,0.066851,-0.11163,0.018895,0.12249,0.081053,-0.045269
0.013753,0.082454,-0.013452,-0.028094,0.028575,0.20099,0.10243,-0.16337,-0.010167,0.023192,0.075687,0.34268,0.64387,0.074967,-0.10924,0.57101,0.023576,0.050449,0.24913,0.10338,0.011137,0.00074586,0.085204,-0.044328
0.0094565,0.070751,-0.016524,-0.044382,0.022727,0.1396,0.085249,-0.20169,-0.01577,0.037062,0.026101,0.37648,0.72159,0.43278,-0.025168,0.44167,0.03011,0.030713,0.41875,0.29372,0.0026269,-0.074167,0.090825,-0.053636
0.0083586,0.076695,-0.021796,-0.044602,0.024808,0.13446,0.10377,-0.21566,-0.027159,0.027053,-0.013425,0.34857,0.65302,0.51428,0.080173,0.17311,0.041222,0.033318,0.52387,0.4307,-0.0059687,-0.10344,0.097183,-0.065729
0.0084465,0.087878,-0.030014,-0.037303,0.026763,0.14544,0.13388,-0.21356,-0.045639,0.014073,-0.045009,0.30329,0.5263,0.40735,0.17535,-0.1026,0.046241,0.043954,0.53526,0.51625,-0.014853,-0.12018,0.10229,-0.066983
0.0070038,0.089885,-0.040355,-0.033637,0.019521,0.12513,0.14498,-0.20703,-0.069037,0.021354,-0.075869,0.28657,0.43061,0.27102,0.23174,-0.25125,0.036778,0.044058,0.46036,0.57283,-0.024079,-0.16015,0.10447,-0.046414
0.0029199,0.07724,-0.050443,-0.039099,0.00021237,0.057099,0.12222,-0.20259,-0.092282,0.057065,-0.10966,0.31341,0.39095,0.21646,0.23709,-0.22032,0.012923,0.024665,0.33636,0.62198,-0.032534,-0.22977,0.10333,-0.0037335
-0.0022955,0.056423,-0.057603,-0.050212,-0.025101,-0.032148,0.076163,-0.19871,-0.1099,0.10745,-0.14102,0.36,0.35898,0.24237,0.1998,-0.067446,-0.016762,-0.0079544,0.20605,0.6662,-0.038148,-0.29826,0.099422,0.049865
-0.0056631,0.038829,-0.060491,-0.058502,-0.045721,-0.096948,0.032961,-0.19004,-0.11847,0.14642,-0.15826,0.38647,0.26524,0.26956,0.14174,0.088516,-0.041659,-0.039207,0.093371,0.68318,-0.039444,-0.32134,0.093174,0.099267
-0.0051516,0.030317,-0.05974,-0.057939,-0.054327,-0.11085,0.013787,-0.17431,-0.11715,0.15453,-0.15261,0.37033,0.085882,0.23253,0.084938,0.15477,-0.056722,-0.059078,-0.0045159,0.63265,-0.03709,-0.27731,0.084302,0.13558
-0.0014336,0.026675,-0.056996,-0.049377,-0.052127,-0.086413,0.0207,-0.15547,-0.10659,0.1328,-0.12624,0.32205,-0.13305,0.14134,0.041531,0.12157,-0.064975,-0.069501,-0.1044,0.47161,-0.033829,-0.18561,0.072445,0.1609
0.0023983,0.018578,-0.05314,-0.038683,-0.046869,-0.060852,0.038977,-0.14079,-0.087757,0.10066,-0.092322,0.2709,-0.31088,0.062531,0.012587,0.047915,-0.073062,-0.080177,-0.21561,0.17461,-0.032551,-0.093195,0.058263,0.18431
0.0029398,0.00093087,-0.047385,-0.031049,-0.045595,-0.062274,0.051357,-0.13483,-0.062194,0.080414,-0.066496,0.23582,-0.39222,0.046692,-0.0057444,-0.0035613,-0.084157,-0.097747,-0.3281,-0.24462,-0.034049,-0.041553,0.043741,0.21287
-0.0011492,-0.022121,-0.038239,-0.027051,-0.048543,-0.087261,0.050481,-0.1359,-0.033102,0.080779,-0.056366,0.20853,-0.37955,0.077148,-0.015802,-0.02144,-0.094772,-0.11912,-0.41868,-0.71968,-0.036498,-0.041813,0.031179,0.24532
-0.008178,-0.040752,-0.025583,-0.023675,-0.049527,-0.10802,0.039802,-0.13743,-0.0053347,0.09227,-0.057217,0.16384,-0.31663,0.08721,-0.017433,-0.043471,-0.09826,-0.13514,-0.46804,-1.1399,-0.037166,-0.075759,0.02169,0.27298
-0.014503,-0.047893,-0.011872,-0.018498,-0.042248,-0.099983,0.02523,-0.13278,0.016502,0.096775,-0.056977,0.086223,-0.24577,0.024588,-0.012037,-0.10599,-0.09153,-0.14041,-0.47275,-1.3881,-0.034859,-0.11697,0.014559,0.28629
-0.016904,-0.044841,-0.0010569,-0.012393,-0.026702,-0.063693,0.0077812,-0.11925,0.030379,0.082465,-0.046029,-0.012541,-0.18004,-0.10139,-0.0060099,-0.19664,-0.078513,-0.13895,-0.44261,-1.3949,-0.030869,-0.15087,0.0080911,0.28103
-0.014682,-0.039513,0.0041557,-0.0081491,-0.009816,-0.022529,-0.015422,-0.098989,0.037328,0.051979,-0.024066,-0.10068,-0.10993,-0.23226,-0.0086251,-0.25617,-0.067034,-0.14003,-0.38832,-1.1781,-0.027621,-0.17784,0.0011799,0.25952
-0.010095,-0.039589,0.0044738,-0.0068286,0.00024393,-0.00085081,-0.044215,-0.076951,0.039521,0.018586,0.00082172,-0.1515,-0.029052,-0.3149,-0.025168,-0.2276,-0.061884,-0.14798,-0.31346,-0.83623,-0.026379,-0.20154,-0.0058208,0.22726
-0.0068163,-0.046856,0.0037205,-0.0059687,0.00092458,-0.0037258,-0.071245,-0.058081,0.037992,-0.0050327,0.019071,-0.16343,0.050719,-0.3425,-0.051359,-0.10744,-0.060478,-0.15657,-0.21923,-0.49361,-0.026181,-0.21789,-0.01167,0.18873
-0.0074562,-0.057192,0.0062643,-0.0017353,-0.0028589,-0.015545,-0.086224,-0.045434,0.032465,-0.015791,0.026557,-0.15814,0.10822,-0.34531,-0.074579,0.04677,-0.055123,-0.15363,-0.11665,-0.22762,-0.024924,-0.21617,-0.015652,0.14586
-0.011847,-0.065219,0.014245,0.0070549,-0.0034175,-0.016285,-0.085233,-0.039417,0.0234,-0.02074,0.026387,-0.16024,0.1332,-0.34713,-0.08147,0.15835,-0.039934,-0.13218,-0.031268,-0.02883,-0.021433,-0.18981,-0.018516,0.099534
-0.01733,-0.068944,0.026633,0.017156,0.002818,0.00091667,-0.076051,-0.037719,0.013751,-0.030385,0.025268,-0.1775,0.13571,-0.3357,-0.065873,0.18585,-0.01633,-0.097721,0.0088939,0.17812,-0.016454,-0.1447,-0.02217,0.051529
-0.020786,-0.070542,0.040381,0.023351,0.012368,0.026123,-0.073645,-0.035818,0.0080641,-0.05102,0.028216,-0.19825,0.13581,-0.27753,-0.031119,0.14548,0.0075707,-0.065041,-0.0047145,0.46648,-0.011683,-0.096338,-0.028621,0.0049571
-0.020844,-0.073445,0.052271,0.023003,0.018118,0.044035,-0.088736,-0.028505,0.0094243,-0.081351,0.035836,-0.2057,0.14535,-0.16107,0.01381,0.087909,0.022916,-0.04722,-0.047985,0.84124,-0.0079257,-0.058794,-0.039174,-0.037065
-0.018536,-0.079025,0.06,0.018459,0.015709,0.048545,-0.11865,-0.012491,0.017319,-0.11399,0.045504,-0.19443,0.15919,-0.022924,0.059461,0.054567,0.026222,-0.046553,-0.074366,1.2228,-0.0043401,-0.036262,-0.054335,-0.072707
-0.016012,-0.085859,0.062371,0.01507,0.0071551,0.047617,-0.14785,0.010915,0.02878,-0.13879,0.054545,-0.17464,0.16215,0.07118,0.097732,0.05176,0.020773,-0.054647,-0.044581,1.4918,0.00043139,-0.024017,-0.07386,-0.1014
-0.014492,-0.091667,0.059401,0.016654,-0.0011578,0.055903,-0.1576,0.035015,0.041758,-0.14528,0.062454,-0.16217,0.1424,0.075612,0.1205,0.060429,0.012819,-0.060538,0.045249,1.5639,0.0063632,-0.015821,-0.096284,-0.12289
-0.01328,-0.095575,0.052756,0.02253,-0.0037525,0.083108,-0.13738,0.0502,0.057154,-0.12439,0.070677,-0.1655,0.098165,0.0010689,0.11933,0.066872,0.0063865,-0.059096,0.15896,1.4404,0.011356,-0.0090903,-0.11824,-0.13689
-0.010628,-0.098465,0.0458,0.028602,0.00027919,0.12797,-0.090121,0.049038,0.077147,-0.07133,0.080699,-0.18152,0.03388,-0.092799,0.089224,0.083849,0.00098452,-0.05291,0.24366,1.2037,0.012627,-0.0031004,-0.13484,-0.14397
-0.0055604,-0.1014,0.042325,0.031245,0.0079701,0.18093,-0.028951,0.03096,0.10129,0.010028,0.092431,-0.20238,-0.046472,-0.1398,0.034372,0.14313,-0.0065437,-0.04758,0.26394,0.962,0.0090939,0.0059277,-0.14172,-0.14676
0.0010099,-0.10403,0.044306,0.030381,0.015934,0.23093,0.030586,0.0029973,0.12449,0.10432,0.1043,-0.22525,-0.13977,-0.10772,-0.030004,0.26644,-0.018288,-0.045977,0.22218,0.7854,0.0026891,0.025474,-0.13776,-0.14961
0.0068487,-0.10478,0.050388,0.029262,0.022811,0.26972,0.076966,-0.024598,0.13941,0.18738,0.1149,-0.2552,-0.23725,-0.0063385,-0.083098,0.43892,-0.032904,-0.046671,0.15193,0.67409,-0.0025721,0.060876,-0.12608,-0.15602
0.010001,-0.10267,0.056705,0.03164,0.028707,0.29202,0.1046,-0.04499,0.14175,0.23561,0.12476,-0.2994,-0.31959,0.13599,-0.10872,0.60613,-0.046102,-0.046727,0.092315,0.57463,-0.0030763,0.10887,-0.11192,-0.16565
0.0099162,-0.098921,0.059699,0.039036,0.033112,0.29423,0.11224,-0.058434,0.13376,0.23754,0.13667,-0.35901,-0.36169,0.30043,-0.10344,0.69694,-0.053066,-0.04489,0.064483,0.42545,0.0022774,0.15817,-0.098918,-0.17366
0.0072164,-0.096804,0.058776,0.050111,0.034238,0.27543,0.10091,-0.069614,0.12275,0.20007,0.15408,-0.4262,-0.34647,0.4851,-0.077269,0.65816,-0.050906,-0.041715,0.065684,0.19721,0.011901,0.19806,-0.086799,-0.17367
0.0026522,-0.099495,0.056642,0.061897,0.030847,0.24017,0.073244,-0.080588,0.11578,0.14424,0.17852,-0.48798,-0.27737,0.69007,-0.047207,0.48111,-0.039885,-0.037196,0.080563,-0.095815,0.023303,0.22707,-0.07278,-0.16261
-0.0034345,-0.10765,0.057104,0.071259,0.024566,0.199,0.033863,-0.085641,0.11512,0.092572,0.20789,-0.53217,-0.17892,0.89946,-0.028358,0.20779,-0.023292,-0.029328,0.096045,-0.412,0.035415,0.25329,-0.055475,-0.14362
-0.010545,-0.11845,0.062159,0.075625,0.019823,0.16421,-0.010411,-0.073502,0.11777,0.05655,0.23657,-0.55074,-0.083132,1.0802,-0.027768,-0.084786,-0.0063647,-0.015877,0.10706,-0.70662,0.049653,0.28537,-0.037716,-0.12462
-0.017144,-0.12677,0.070514,0.073317,0.020717,0.14262,-0.051492,-0.036375,0.11908,0.032901,0.2574,-0.54042,-0.011037,1.1996,-0.043064,-0.31442,0.0054498,0.0020967,0.11179,-0.94487,0.068796,0.32293,-0.025419,-0.1132
-0.02081,-0.12775,0.078346,0.064182,0.027305,0.13147,-0.081689,0.021014,0.11658,0.011071,0.2642,-0.50346,0.037837,1.2459,-0.06507,-0.4254,0.0085532,0.018782,0.10529,-1.1003,0.094283,0.35548,-0.023183,-0.11193
-0.019776,-0.1193,0.08152,0.050216,0.034677,0.12178,-0.095337,0.080033,0.11083,-0.014606,0.25362,-0.4498,0.080533,1.2349,-0.082601,-0.40903,0.0028763,0.02648,0.08032,-1.1493,0.12377,0.37074,-0.030414,-0.11724
-0.014669,-0.10332,0.077866,0.035134,0.036063,0.10733,-0.089838,0.11653,0.10346,-0.038164,0.22587,-0.39704,0.13436,1.1982,-0.087824,-0.30357,-0.0078129,0.021108,0.035045,-1.075,0.15085,0.36369,-0.041464,-0.1226
-0.0087213,-0.08509,0.068519,0.022511,0.027829,0.092112,-0.06603,0.11362,0.09492,-0.046354,0.18441,-0.36472,0.20112,1.1635,-0.08034,-0.17283,-0.017509,0.0059516,-0.020592,-0.88015,0.16751,0.3378,-0.049785,-0.12313
-0.0059021,-0.07086,0.057767,0.013679,0.012624,0.089444,-0.027986,0.070567,0.084438,-0.030432,0.13522,-0.36417,0.26306,1.1409,-0.067748,-0.073706,-0.020875,-0.0096544,-0.067562,-0.59779,0.16832,0.29826,-0.052592,-0.11815
-0.0082223,-0.064773,0.051267,0.0072634,-0.0017085,0.11276,0.0177,0.0024264,0.071824,0.0047515,0.08554,-0.39091,0.29307,1.1236,-0.061414,-0.030389,-0.015866,-0.01609,-0.088826,-0.28616,0.1536,0.24548,-0.052092,-0.11035
-0.014315,-0.066631,0.053079,0.00090425,-0.00674,0.16478,0.06302,-0.067916,0.058692,0.042511,0.042109,-0.42602,0.27166,1.097,-0.069029,-0.029508,-0.0044939,-0.0095441,-0.080457,-0.0062254,0.12965,0.17643,-0.052427,-0.1029
-0.020423,-0.072058,0.063016,-0.00635,0.0015253,0.23346,0.099747,-0.11988,0.047538,0.065975,0.0093426,-0.44566,0.19918,1.0494,-0.088413,-0.037778,0.0086737,0.0059596,-0.054361,0.20457,0.10559,0.092205,-0.055251,-0.097155
-0.023051,-0.075214,0.076279,-0.01326,0.020496,0.298,0.12046,-0.14205,0.039551,0.070201,-0.011892,-0.43118,0.095289,0.97612,-0.10718,-0.028939,0.019233,0.021928,-0.031061,0.34367,0.088756,0.0031532,-0.057999,-0.092398
-0.021305,-0.072518,0.086227,-0.017958,0.042923,0.34014,0.11931,-0.13375,0.033558,0.064682,-0.024172,-0.37291,-0.012773,0.87804,-0.10934,-0.0014274,0.02511,0.031557,-0.02825,0.43184,0.081343,-0.075372,-0.056407,-0.087244
-0.017277,-0.064899,0.088748,-0.020197,0.061466,0.35304,0.09279,-0.10226,0.027283,0.064291,-0.032107,-0.2679,-0.10421,0.75896,-0.085241,0.024069,0.026954,0.034222,-0.052557,0.4883,0.080237,-0.13336,-0.049004,-0.080845
-0.014398,-0.056931,0.084984,-0.021878,0.072792,0.34202,0.040627,-0.057904,0.019531,0.076489,-0.040296,-0.11815,-0.17121,0.62423,-0.038445,0.022991,0.026899,0.0353,-0.098128,0.51275,0.079638,-0.17287,-0.03948,-0.072837
-0.015086,-0.053383,0.080012,-0.025122,0.078504,0.31829,-0.03355,-0.0089437,0.010837,0.095701,-0.051696,0.066359,-0.21475,0.48179,0.014765,-0.013761,0.026912,0.041827,-0.15086,0.48851,0.074491,-0.20473,-0.034594,-0.06248
-0.019389,-0.055685,0.078309,-0.029807,0.082455,0.29093,-0.12242,0.041749,0.0018246,0.10932,-0.06719,0.26332,-0.23552,0.34259,0.053308,-0.073477,0.027992,0.057361,-0.1951,0.40307,0.062598,-0.23901,-0.039162,-0.048494
-0.025369,-0.060895,0.079663,-0.033188,0.086578,0.26242,-0.21665,0.096842,-0.0088205,0.10958,-0.086596,0.4407,-0.22953,0.21827,0.062149,-0.13117,0.030524,0.079604,-0.22012,0.26759,0.044683,-0.27879,-0.052238,-0.030416
-0.03066,-0.063937,0.079067,-0.032323,0.088605,0.22944,-0.30766,0.1614,-0.024146,0.10056,-0.11058,0.56942,-0.19325,0.11571,0.040017,-0.16615,0.035008,0.10205,-0.22438,0.11776,0.023256,-0.32283,-0.06775,-0.010573
-0.033895,-0.061365,0.070907,-0.02707,0.083581,0.18698,-0.3901,0.23821,-0.04614,0.094105,-0.14215,0.63859,-0.13287,0.031541,-0.00020781,-0.17308,0.042152,0.11807,-0.21548,-0.0058998,0.0015141,-0.37206,-0.079155,0.0054601
-0.035027,-0.053801,0.054117,-0.020639,0.068033,0.13307,-0.46256,0.3243,-0.072909,0.098547,-0.18607,0.66012,-0.067245,-0.048967,-0.038691,-0.16099,0.05211,0.12451,-0.20462,-0.082707,-0.017299,-0.43061,-0.084379,0.011147
-0.034643,-0.045282,0.034007,-0.016862,0.043285,0.071449,-0.52597,0.41086,-0.098851,0.11034,-0.24565,0.65701,-0.018008,-0.14574,-0.059535,-0.14337,0.0637,0.12285,-0.19801,-0.12154,-0.030575,-0.498,-0.086955,0.002962
-0.033177,-0.040194,0.019089,-0.016596,0.015032,0.01119,-0.58052,0.48642,-0.11816,0.11608,-0.31818,0.64378,0.0067848,-0.27153,-0.059245,-0.12811,0.074659,0.11783,-0.19114,-0.1479,-0.037499,-0.55973,-0.092412,-0.016832
-0.030787,-0.040195,0.015141,-0.016724,-0.010463,-0.037035,-0.62318,0.54158,-0.12872,0.1031,-0.39252,0.6156,0.02122,-0.41934,-0.047784,-0.11457,0.08303,0.11472,-0.17164,-0.17921,-0.040091,-0.58776,-0.10282,-0.04091
-0.027814,-0.043382,0.020925,-0.012886,-0.030026,-0.066244,-0.64748,0.5728,-0.13306,0.069521,-0.45186,0.55623,0.052282,-0.55791,-0.041443,-0.098063,0.088484,0.1168,-0.1304,-0.20891,-0.042949,-0.55451,-0.11397,-0.06082
-0.025028,-0.046012,0.028722,-0.0035113,-0.043625,-0.076934,-0.64599,0.58372,-0.13549,0.025301,-0.48154,0.4581,0.11787,-0.6405,-0.051841,-0.076667,0.092183,0.12407,-0.072774,-0.2128,-0.051187,-0.45165,-0.11758,-0.071428
-0.023157,-0.045243,0.029284,0.0086349,-0.050798,-0.076316,-0.61457,0.58329,-0.13834,-0.015765,-0.47765,0.33673,0.20955,-0.6254,-0.077842,-0.054252,0.095032,0.13339,-0.019573,-0.17324,-0.067567,-0.29928,-0.10686,-0.072987
-0.022132,-0.040856,0.017679,0.018881,-0.047203,-0.072849,-0.556,0.5817,-0.14058,-0.045987,-0.45015,0.22535,0.29521,-0.49828,-0.10519,-0.037909,0.095945,0.14021,0.0057733,-0.10255,-0.090739,-0.1377,-0.081224,-0.06991
-0.021022,-0.034998,-0.0039688,0.024811,-0.025397,-0.069717,-0.48055,0.58621,-0.13966,-0.067379,-0.41719,0.15244,0.34022,-0.2841,-0.11367,-0.032779,0.092052,0.14095,-0.0040295,-0.04687,-0.11576,-0.0069639,-0.04681,-0.067573
-0.019032,-0.030486,-0.028428,0.028219,0.019743,-0.062379,-0.40243,0.59872,-0.13458,-0.087098,-0.39336,0.11932,0.32978,-0.040304,-0.087125,-0.039318,0.081134,0.13497,-0.029951,-0.065288,-0.13641,0.071856,-0.012696,-0.069191
-0.016625,-0.028938,-0.04825,0.032998,0.085155,-0.042635,-0.33357,0.61646,-0.12697,-0.10989,-0.37963,0.095376,0.27372,0.16607,-0.020867,-0.05542,0.06429,0.12476,-0.034734,-0.19689,-0.14778,0.10232,0.01416,-0.074131
-0.015378,-0.029742,-0.059986,0.040926,0.15857,-0.0065537,-0.2784,0.63434,-0.11961,-0.13444,-0.36206,0.03568,0.19126,0.28589,0.076512,-0.081119,0.046202,0.11427,0.014416,-0.43612,-0.14768,0.10395,0.031792,-0.078086
-0.016292,-0.030133,-0.065033,0.049307,0.22397,0.039621,-0.23315,0.64699,-0.11399,-0.15587,-0.32105,-0.090592,0.090996,0.3054,0.18666,-0.1209,0.032322,0.10619,0.12394,-0.73141,-0.13683,0.097546,0.042594,-0.075081
-0.018055,-0.026229,-0.067184,0.052717,0.2699,0.080244,-0.19049,0.64889,-0.10938,-0.17079,-0.24524,-0.27865,-0.034285,0.24585,0.28803,-0.18058,0.025107,0.099896,0.26847,-1.007,-0.11826,0.094674,0.050435,-0.060859
-0.017255,-0.014794,-0.069299,0.047313,0.29444,0.097602,-0.14586,0.63366,-0.10392,-0.17978,-0.14087,-0.48552,-0.19305,0.14849,0.36286,-0.26059,0.022481,0.091164,0.40577,-1.194,-0.09621,0.096393,0.057991,-0.03623
-0.010932,0.0047426,-0.07172,0.03395,0.30366,0.081171,-0.1007,0.5945,-0.096199,-0.18556,-0.030117,-0.64653,-0.37511,0.055983,0.40217,-0.35149,0.019784,0.074124,0.50132,-1.2543,-0.074852,0.098788,0.065911,-0.0081698
0.00058655,0.028944,-0.073139,0.017512,0.30527,0.033089,-0.059678,0.52686,-0.085818,-0.18958,0.060655,-0.70133,-0.54678,-2.8372e-005,0.40684,-0.43587,0.013359,0.044629,0.54563,-1.1874,-0.056801,0.098966,0.073732,0.012828
0.013282,0.050955,-0.072492,0.0033089,0.30292,-0.033267,-0.02423,0.43209,-0.072946,-0.19056,0.11524,-0.61806,-0.6682,-0.002924,0.38436,-0.49603,0.002665,0.0036656,0.55409,-1.0221,-0.042343,0.096699,0.081179,0.018193
0.022245,0.063503,-0.069996,-0.0062728,0.29527,-0.10041,0.012386,0.31906,-0.057947,-0.18591,0.13522,-0.40648,-0.71911,0.048508,0.34315,-0.5217,-0.010521,-0.041257,0.55249,-0.80317,-0.03013,0.091741,0.088468,0.0061699
0.025388,0.063044,-0.066679,-0.012297,0.27963,-0.15514,0.063897,0.20205,-0.04183,-0.17406,0.13634,-0.11644,-0.71132,0.13938,0.28839,-0.5124,-0.024326,-0.078415,0.5603,-0.5787,-0.019132,0.080691,0.095278,-0.017168
0.024771,0.052327,-0.063385,-0.017155,0.25638,-0.19345,0.14403,0.095525,-0.026701,-0.15579,0.13679,0.17827,-0.67737,0.23984,0.22213,-0.47379,-0.037776,-0.097769,0.58211,-0.39118,-0.010353,0.05735,0.099341,-0.041304
0.02433,0.039112,-0.060432,-0.022057,0.23011,-0.21931,0.2585,0.0084572,-0.014985,-0.13444,0.14556,0.40512,-0.64654,0.31359,0.14732,-0.41241,-0.049676,-0.09734,0.6085,-0.26817,-0.0065713,0.01704,0.096215,-0.056254
0.026174,0.031407,-0.058006,-0.02621,0.2065,-0.23915,0.40144,-0.059024,-0.0074942,-0.116,0.15875,0.51827,-0.62889,0.33401,0.071472,-0.33392,-0.057169,-0.085262,0.62069,-0.21306,-0.0098824,-0.038371,0.081196,-0.055532
0.028963,0.03246,-0.056408,-0.027936,0.18784,-0.25636,0.55827,-0.11532,-0.0021336,-0.10846,0.16514,0.5131,-0.61877,0.29876,0.005975,-0.24578,-0.056449,-0.074734,0.59456,-0.20084,-0.018889,-0.098841,0.052675,-0.035894
0.029787,0.039267,-0.055597,-0.026412,0.17097,-0.26989,0.71207,-0.17352,0.0049913,-0.11909,0.15611,0.42252,-0.60969,0.23014,-0.039359,-0.1603,-0.045845,-0.074536,0.50593,-0.18596,-0.028158,-0.14946,0.014744,0.0040513
0.027531,0.045737,-0.054699,-0.02268,0.14993,-0.27769,0.84868,-0.24516,0.016468,-0.14973,0.13229,0.2964,-0.60297,0.15822,-0.062338,-0.092861,-0.028559,-0.082305,0.34134,-0.12237,-0.030982,-0.17658,-0.023291,0.06338
0.024301,0.047895,-0.052581,-0.019471,0.12158,-0.2811,0.95776,-0.33402,0.031109,-0.1935,0.10286,0.1751,-0.60159,0.097941,-0.06991,-0.054605,-0.011835,-0.086642,0.11301,0.013472,-0.023723,-0.17278,-0.050936,0.13618
0.023533,0.046926,-0.049453,-0.020188,0.089872,-0.28589,1.0316,-0.43283,0.044661,-0.23704,0.079239,0.07196,-0.59843,0.038753,-0.073601,-0.044511,-0.0022919,-0.077075,-0.13349,0.21117,-0.0084197,-0.13807,-0.061796,0.20986
0.026777,0.047801,-0.047878,-0.027488,0.064851,-0.29829,1.0656,-0.52538,0.053503,-0.26847,0.06861,-0.024643,-0.57507,-0.044464,-0.08225,-0.048326,-0.00089722,-0.053748,-0.3311,0.43454,0.0085245,-0.077329,-0.056539,0.26846
0.032464,0.054979,-0.051591,-0.041828,0.056528,-0.31959,1.0613,-0.59367,0.058161,-0.28493,0.071463,-0.1321,-0.51682,-0.16789,-0.097466,-0.047306,-0.0020393,-0.028214,-0.42352,0.6438,0.020699,0.003162,-0.041343,0.30124
0.037808,0.06881,-0.062486,-0.060527,0.067746,-0.34448,1.0312,-0.62628,0.063265,-0.29238,0.083435,-0.25058,-0.43127,-0.32181,-0.11467,-0.031775,0.0019695,-0.014229,-0.3996,0.81625,0.025735,0.097517,-0.023092,0.31153
0.041729,0.085265,-0.078287,-0.078096,0.091538,-0.36518,0.99598,-0.62276,0.073605,-0.29649,0.098527,-0.35285,-0.352,-0.47303,-0.12803,-0.0094222,0.014348,-0.016348,-0.30418,0.95103,0.026006,0.19922,-0.0051084,0.31813
0.045611,0.098606,-0.093315,-0.088301,0.11517,-0.37856,0.97477,-0.59098,0.089587,-0.29256,0.11096,-0.39437,-0.32055,-0.58252,-0.13493,-0.0009655,0.030754,-0.026267,-0.21236,1.0563,0.02572,0.29891,0.013275,0.34577
0.05103,0.10458,-0.10216,-0.087297,0.12775,-0.39046,0.97045,-0.53967,0.10625,-0.2649,0.1154,-0.33699,-0.35973,-0.62269,-0.13689,-0.025153,0.042509,-0.029946,-0.1816,1.1312,0.027129,0.38387,0.033308,0.40891
0.056915,0.10208,-0.10333,-0.076067,0.12564,-0.41354,0.96183,-0.47153,0.117,-0.19878,0.10688,-0.17007,-0.4589,-0.58258,-0.1372,-0.083703,0.043704,-0.019043,-0.21519,1.1581,0.029044,0.44096,0.052864,0.49968
0.059455,0.092869,-0.0998,-0.060388,0.11184,-0.4602,0.91088,-0.38173,0.1189,-0.096092,0.081655,0.084822,-0.58167,-0.4625,-0.13771,-0.15747,0.036304,0.003214,-0.26483,1.1127,0.028597,0.46177,0.065593,0.58921
0.055405,0.080605,-0.09615,-0.047879,0.091174,-0.53578,0.78408,-0.26205,0.11476,0.019146,0.038196,0.38624,-0.68785,-0.26947,-0.13715,-0.21677,0.028876,0.02607,-0.27071,0.98515,0.024257,0.44662,0.064104,0.64263
0.045809,0.069631,-0.09503,-0.043764,0.06616,-0.6362,0.57477,-0.10729,0.11013,0.11162,-0.022548,0.69094,-0.75189,-0.0208,-0.1317,-0.23818,0.029827,0.040581,-0.20827,0.79487,0.01718,0.40393,0.044703,0.6379
0.036269,0.063666,-0.095927,-0.047985,0.037262,-0.75077,0.31079,0.080022,0.10781,0.15438,-0.097997,0.96363,-0.76689,0.24943,-0.11696,-0.21595,0.040644,0.045643,-0.10582,0.58808,0.0098148,0.34538,0.010023,0.57559
0.032843,0.064138,-0.096867,-0.055566,0.0062788,-0.86702,0.040901,0.28782,0.10502,0.14236,-0.18465,1.174,-0.73759,0.49318,-0.090435,-0.16133,0.054589,0.046129,-0.021169,0.41739,0.0033712,0.28039,-0.032302,0.47358
0.0369,0.068926,-0.096838,-0.059911,-0.021577,-0.97426,-0.1912,0.49492,0.096161,0.090628,-0.2776,1.2892,-0.67348,0.66653,-0.053698,-0.093077,0.061819,0.046222,0.0022279,0.31612,-0.0032807,0.21423,-0.073768,0.35252
0.043577,0.072933,-0.096454,-0.056779,-0.040045,-1.0648,-0.36709,0.67354,0.078592,0.021288,-0.3693,1.2741,-0.58812,0.75381,-0.01332,-0.027521,0.056697,0.044903,-0.035708,0.28272,-0.012308,0.15028,-0.10896,0.22462
0.045571,0.071067,-0.096624,-0.04636,-0.04719,-1.1345,-0.49477,0.79492,0.056105,-0.048481,-0.44947,1.1059,-0.49992,0.77881,0.020469,0.025473,0.041558,0.037661,-0.097554,0.28422,-0.024676,0.092762,-0.13695,0.093905
0.039187,0.062072,-0.097201,-0.032424,-0.049094,-1.1832,-0.59294,0.83881,0.036538,-0.10907,-0.5074,0.79402,-0.42663,0.79084,0.037695,0.0613,0.024381,0.022148,-0.13995,0.2761,-0.039241,0.045502,-0.15978,-0.034518
0.027421,0.050167,-0.097354,-0.019542,-0.058223,-1.2152,-0.67328,0.8032,0.025409,-0.15434,-0.53608,0.38969,-0.37372,0.83265,0.033637,0.078653,0.012789,0.0019371,-0.14273,0.22688,-0.053885,0.0058803,-0.17934,-0.14767
0.017396,0.042505,-0.097128,-0.010519,-0.087117,-1.2382,-0.7352,0.70793,0.021293,-0.1797,-0.53562,-0.026584,-0.32682,0.91277,0.011889,0.079405,0.0093508,-0.015315,-0.11389,0.13363,-0.067141,-0.040884,-0.19485,-0.22908
0.014422,0.043744,-0.098015,-0.0055638,-0.14168,-1.2588,-0.77501,0.58715,0.017196,-0.18647,-0.51335,-0.37704,-0.25869,1.0032,-0.017045,0.068681,0.011441,-0.023603,-0.072077,0.020394,-0.078314,-0.11995,-0.20232,-0.27239
0.017881,0.051881,-0.10131,-0.0032474,-0.2183,-1.2782,-0.79801,0.47289,0.00679,-0.18655,-0.47999,-0.62044,-0.14897,1.0643,-0.041483,0.052414,0.014782,-0.023029,-0.026414,-0.078529,-0.085897,-0.25462,-0.19638,-0.29171
0.022366,0.059123,-0.1057,-0.0020889,-0.30594,-1.2905,-0.82002,0.3798,-0.010078,-0.19817,-0.44389,-0.76722,-0.0019746,1.0772,-0.055209,0.0331,0.016954,-0.01923,0.027268,-0.13941,-0.086391,-0.44879,-0.1734,-0.31706
0.022711,0.057648,-0.10697,-0.0015235,-0.39075,-1.2862,-0.85579,0.30178,-0.027476,-0.2314,-0.40654,-0.86623,0.15326,1.0568,-0.060509,0.0080337,0.01788,-0.018612,0.092852,-0.16067,-0.075731,-0.67505,-0.13408,-0.37469
0.018233,0.04581,-0.10085,-0.0018789,-0.46006,-1.2593,-0.90461,0.22346,-0.038768,-0.27452,-0.36229,-0.97145,0.28216,1.0363,-0.065237,-0.026903,0.017599,-0.023754,0.15846,-0.15874,-0.053088,-0.87828,-0.08381,-0.46585
0.012545,0.029583,-0.086796,-0.0038795,-0.50417,-1.2131,-0.94728,0.13748,-0.042257,-0.29535,-0.30255,-1.11,0.36866,1.0347,-0.075799,-0.070324,0.014263,-0.032696,0.19597,-0.15347,-0.023934,-0.99612,-0.030415,-0.56113
0.0095377,0.017816,-0.069135,-0.0083978,-0.5169,-1.1599,-0.95882,0.053552,-0.042067,-0.26129,-0.22247,-1.2713,0.42565,1.0363,-0.091161,-0.11197,0.0048485,-0.041981,0.17831,-0.15579,0.0010044,-0.98718,0.019356,-0.61731
0.0096123,0.015129,-0.053967,-0.016638,-0.49665,-1.1153,-0.9277,-0.0087346,-0.043789,-0.16504,-0.12598,-1.4221,0.48489,0.99843,-0.10256,-0.13751,-0.011817,-0.050105,0.10113,-0.16681,0.011293,-0.85176,0.062258,-0.60587
0.0096242,0.018408,-0.044482,-0.030265,-0.44841,-1.0901,-0.86614,-0.037385,-0.049205,-0.036018,-0.025889,-1.5345,0.57524,0.88433,-0.09947,-0.13881,-0.03272,-0.058181,-0.0091573,-0.18589,0.0033082,-0.63284,0.098414,-0.53261
0.0063153,0.019831,-0.038943,-0.050858,-0.38517,-1.086,-0.80333,-0.040266,-0.05494,0.073404,0.061428,-1.6038,0.70533,0.69403,-0.077516,-0.12142,-0.051633,-0.067773,-0.10838,-0.21584,-0.017051,-0.39546,0.12903,-0.4335
-0.00029299,0.013809,-0.033273,-0.078623,-0.3262,-1.0963,-0.76684,-0.039997,-0.05605,0.11843,0.12387,-1.6439,0.86041,0.46986,-0.042179,-0.1023,-0.063033,-0.078617,-0.15992,-0.25632,-0.037633,-0.19564,0.15401,-0.34997
-0.0067936,0.0019476,-0.025739,-0.1111,-0.29144,-1.112,-0.76675,-0.054016,-0.050979,0.087861,0.15911,-1.6651,1.0123,0.27086,-0.005197,-0.098613,-0.065736,-0.088694,-0.15465,-0.29038,-0.047087,-0.056414,0.17137,-0.30275
-0.0095103,-0.0081294,-0.019047,-0.14291,-0.2939,-1.1267,-0.79366,-0.076206,-0.043244,0.0080192,0.17456,-1.6544,1.1341,0.1346,0.023581,-0.11586,-0.063145,-0.096374,-0.11276,-0.28014,-0.040966,0.034961,0.17881,-0.28322
-0.0077331,-0.0090181,-0.017619,-0.16727,-0.33445,-1.1385,-0.82994,-0.076935,-0.03846,-0.076333,0.18216,-1.578,1.2128,0.053387,0.042271,-0.14424,-0.059996,-0.10207,-0.067921,-0.18389,-0.023233,0.10834,0.17582,-0.26655
-0.0040713,0.00040367,-0.022553,-0.17866,-0.402,-1.1464,-0.86355,-0.024116,-0.039548,-0.12885,0.19194,-1.4065,1.2547,-0.020027,0.055932,-0.1658,-0.058581,-0.10741,-0.04622,0.011417,-0.0029985,0.18431,0.1645,-0.23316
-0.0018544,0.014016,-0.029284,-0.17538,-0.47903,-1.1469,-0.8929,0.089783,-0.044437,-0.13808,0.20817,-1.1431,1.2817,-0.14376,0.069592,-0.16673,-0.057706,-0.11273,-0.053424,0.26514,0.010752,0.25899,0.14837,-0.18067
-0.0022751,0.023171,-0.030595,-0.16038,-0.54916,-1.1336,-0.92088,0.2359,-0.048052,-0.1159,0.22987,-0.83191,1.32,-0.35543,0.081821,-0.14606,-0.054911,-0.11554,-0.076695,0.48822,0.013245,0.31047,0.13041,-0.11914
-0.0039412,0.023044,-0.022546,-0.13957,-0.60231,-1.1004,-0.94526,0.3625,-0.046514,-0.084385,0.25385,-0.53672,1.3831,-0.65553,0.08499,-0.11494,-0.049429,-0.1118,-0.096524,0.58107,0.0051031,0.32066,0.11191,-0.058056
-0.0049306,0.015538,-0.0079256,-0.11856,-0.63546,-1.046,-0.95519,0.42496,-0.039797,-0.062976,0.27761,-0.30399,1.4606,-1.0094,0.072279,-0.087884,-0.04296,-0.09922,-0.099452,0.48249,-0.0091066,0.29424,0.092971,0.00069197
-0.005005,0.0068166,0.0060754,-0.099837,-0.6499,-0.97489,-0.93647,0.4111,-0.030917,-0.063112,0.30045,-0.13748,1.5208,-1.3601,0.045132,-0.072301,-0.037718,-0.079405,-0.084025,0.19857,-0.023595,0.25905,0.073992,0.058452
-0.0056984,0.0020361,0.013943,-0.082178,-0.64779,-0.89371,-0.88016,0.34511,-0.02293,-0.088606,0.32293,-0.0022839,1.5294,-1.6429,0.014215,-0.063633,-0.033946,-0.057055,-0.058289,-0.20477,-0.033768,0.24749,0.056601,0.1113
-0.0083267,0.0018356,0.016123,-0.062837,-0.63025,-0.80654,-0.78664,0.26918,-0.016656,-0.13628,0.34587,0.14616,1.4728,-1.8005,-0.0073273,-0.049329,-0.029471,-0.036822,-0.032513,-0.63719,-0.037259,0.27471,0.043307,0.14884
-0.012117,0.0031518,0.017642,-0.040686,-0.59736,-0.7137,-0.66249,0.21672,-0.010837,-0.1949,0.36937,0.33072,1.3689,-1.7966,-0.012695,-0.019121,-0.02176,-0.020668,-0.012547,-1.0218,-0.033478,0.33168,0.036173,0.16318
-0.014505,0.0029496,0.022553,-0.017933,-0.54943,-0.61536,-0.51486,0.19425,-0.0039813,-0.24532,0.392,0.54142,1.2561,-1.6289,-0.0051797,0.025234,-0.01046,-0.0077352,0.0024579,-1.3139,-0.022613,0.39856,0.03559,0.15888
-0.013412,0.0011482,0.029631,0.0010038,-0.48827,-0.51612,-0.34907,0.18039,0.0042017,-0.26522,0.41074,0.74957,1.1689,-1.3314,0.005407,0.067846,0.0019232,0.0036894,0.017595,-1.4982,-0.0054679,0.46516,0.039948,0.1525
-0.0093031,0.00026071,0.033481,0.012531,-0.41823,-0.42527,-0.17073,0.13875,0.012956,-0.23724,0.42236,0.93235,1.1204,-0.96448,0.0095563,0.086929,0.011785,0.014345,0.037522,-1.5769,0.015446,0.53969,0.046284,0.15995
-0.0049537,0.0026139,0.029938,0.016326,-0.34634,-0.35163,0.011908,0.035331,0.021573,-0.15552,0.42647,1.0869,1.1052,-0.59395,0.0022601,0.06941,0.016967,0.023825,0.062939,-1.5625,0.034877,0.63755,0.051465,0.18225
-0.0030731,0.0081608,0.020509,0.015172,-0.2814,-0.29735,0.18961,-0.14766,0.029889,-0.026648,0.4282,1.2234,1.1197,-0.27391,-0.01734,0.022957,0.017963,0.031512,0.090272,-1.4772,0.045951,0.76044,0.053412,0.20302
-0.003974,0.014897,0.011578,0.01248,-0.23134,-0.25678,0.35693,-0.40526,0.037489,0.13377,0.43743,1.3469,1.1759,-0.039814,-0.047816,-0.023055,0.01702,0.037004,0.11401,-1.3485,0.044022,0.88556,0.051952,0.20079
-0.0054766,0.020996,0.009214,0.0098247,-0.19958,-0.22165,0.51493,-0.71097,0.042514,0.30477,0.4632,1.4443,1.294,0.089507,-0.085115,-0.030096,0.016206,0.039473,0.12924,-1.195,0.030897,0.97512,0.048986,0.16604
-0.0051675,0.026087,0.014532,0.006688,-0.18163,-0.18815,0.66798,-1.0253,0.041569,0.46185,0.50596,1.4924,1.4757,0.11069,-0.12034,0.029127,0.016104,0.037191,0.13241,-1.0094,0.015544,0.9988,0.047772,0.10873
-0.0029488,0.030338,0.023711,0.0024511,-0.16456,-0.15934,0.81688,-1.3092,0.031266,0.57934,0.55337,1.4802,1.6832,0.04042,-0.13988,0.15328,0.015908,0.028658,0.1204,-0.75723,0.0094057,0.95055,0.051476,0.050836
-0.0015156,0.032707,0.032096,-0.0015263,-0.13085,-0.14079,0.95489,-1.536,0.010342,0.63693,0.58363,1.4281,1.8463,-0.081447,-0.1311,0.30797,0.014411,0.014821,0.09061,-0.40121,0.018881,0.84776,0.061641,0.010997
-0.0042348,0.030875,0.038048,-0.0020126,-0.066199,-0.13377,1.0705,-1.6968,-0.019406,0.6295,0.5751,1.3873,1.8974,-0.20246,-0.090919,0.43771,0.010862,5.7639e-005,0.043672,0.061673,0.040569,0.71709,0.077296,-0.0059538
-0.012202,0.023505,0.043015,0.0036465,0.032128,-0.13218,1.1542,-1.7935,-0.054172,0.57362,0.51587,1.415,1.8098,-0.28368,-0.030315,0.48973,0.0052259,-0.0098564,-0.01253,0.57838,0.063295,0.58195,0.095099,-0.0076545
-0.022998,0.012683,0.048428,0.0149,0.1514,-0.12649,1.2017,-1.8288,-0.090257,0.5034,0.40721,1.5411,1.6095,-0.32527,0.030411,0.43837,-0.0019037,-0.011718,-0.061801,1.0552,0.075658,0.46166,0.11028,-0.0049554
-0.032214,0.0036398,0.053124,0.027659,0.26748,-0.11149,1.2113,-1.7998,-0.12542,0.45497,0.26036,1.7457,1.3533,-0.36894,0.073243,0.29797,-0.0093817,-0.0074673,-0.08503,1.4035,0.073296,0.37789,0.11799,-0.0040411
-0.036491,0.0013237,0.054033,0.036777,0.35562,-0.091868,1.178,-1.7037,-0.15844,0.44814,0.09085,1.964,1.0909,-0.46899,0.092058,0.11703,-0.015626,-0.0028215,-0.070387,1.5828,0.060406,0.35492,0.11466,-0.005559
-0.035626,0.0066378,0.049251,0.039385,0.40196,-0.081489,1.0943,-1.5497,-0.18756,0.47695,-0.084578,2.1138,0.8423,-0.64928,0.092718,-0.044167,-0.019138,-0.0028362,-0.021583,1.6099,0.045038,0.40656,0.099203,-0.0085739
-0.032194,0.015734,0.040234,0.036459,0.40867,-0.096605,0.95962,-1.3644,-0.20955,0.51544,-0.24815,2.1311,0.60285,-0.87761,0.084333,-0.14044,-0.019408,-0.0080669,0.042638,1.5291,0.0328,0.51834,0.073493,-0.013313
-0.029292,0.023044,0.030911,0.03149,0.38952,-0.14722,0.79266,-1.1842,-0.22039,0.53434,-0.38178,1.996,0.36573,-1.0777,0.07024,-0.15821,-0.017559,-0.014495,0.098576,1.3726,0.024321,0.64226,0.041527,-0.01978
-0.028408,0.025338,0.02468,0.027578,0.35958,-0.23117,0.63277,-1.0367,-0.21721,0.51736,-0.47114,1.7347,0.13762,-1.1714,0.047084,-0.11277,-0.015904,-0.017036,0.13052,1.1427,0.017668,0.71457,0.0073583,-0.025079
-0.029003,0.023384,0.022161,0.025395,0.32644,-0.33368,0.52513,-0.92773,-0.19985,0.46753,-0.51145,1.4033,-0.065252,-1.121,0.012305,-0.030532,-0.016417,-0.013395,0.13754,0.82905,0.012231,0.68826,-0.027007,-0.0241
-0.029693,0.020278,0.021527,0.023556,0.28853,-0.43208,0.49684,-0.84367,-0.17102,0.40206,-0.50994,1.0629,-0.23315,-0.94638,-0.028053,0.069769,-0.019137,-0.0050342,0.13002,0.43828,0.0096675,0.55878,-0.061952,-0.01428
-0.029604,0.018517,0.020685,0.020764,0.24025,-0.50366,0.54076,-0.76829,-0.13529,0.34204,-0.48185,0.76132,-0.37264,-0.70822,-0.059768,0.18315,-0.021834,0.0050856,0.12022,0.0084258,0.011146,0.36493,-0.098156,2.7132e-005
-0.028746,0.018445,0.019072,0.017605,0.17875,-0.53309,0.62007,-0.69853,-0.097787,0.30442,-0.4423,0.52671,-0.5002,-0.47342,-0.069744,0.30953,-0.021347,0.015454,0.11449,-0.40439,0.014309,0.16553,-0.13359,0.0087017
-0.027497,0.018807,0.017634,0.016282,0.1071,-0.51653,0.69087,-0.64619,-0.063101,0.29885,-0.39976,0.36959,-0.62642,-0.28415,-0.056243,0.44052,-0.015657,0.026805,0.11221,-0.7513,0.013951,0.0088992,-0.16244,0.0026634
-0.02616,0.018083,0.017498,0.018504,0.032396,-0.46088,0.72641,-0.62463,-0.034018,0.32724,-0.35517,0.28483,-0.74608,-0.14466,-0.030958,0.55573,-0.0051858,0.040358,0.10944,-1.0042,0.0067085,-0.0855,-0.1776,-0.019181
-0.025128,0.01521,0.018899,0.023483,-0.038547,-0.37922,0.72601,-0.63279,-0.010184,0.38265,-0.30577,0.25115,-0.84255,-0.028894,-0.011113,0.63346,0.0075133,0.055641,0.10186,-1.1493,-0.0042931,-0.12599,-0.17539,-0.048978
-0.025213,0.0097416,0.021255,0.028027,-0.10228,-0.28545,0.70535,-0.65064,0.012406,0.44824,-0.24932,0.23291,-0.90093,0.096551,-0.0082191,0.66621,0.019238,0.070276,0.08458,-1.1734,-0.0095617,-0.13549,-0.15875,-0.075807
-0.027373,0.0022256,0.023971,0.028871,-0.15862,-0.19122,0.67969,-0.64979,0.039659,0.49986,-0.18586,0.19066,-0.91771,0.24442,-0.022099,0.66617,0.027642,0.081847,0.051013,-1.065,0.00092878,-0.13777,-0.13612,-0.093136
-0.031852,-0.0051819,0.026915,0.02542,-0.2082,-0.1056,0.65538,-0.60993,0.075326,0.5146,-0.1179,0.098798,-0.90027,0.38817,-0.043364,0.6538,0.031923,0.089794,-0.0048379,-0.83146,0.030262,-0.14929,-0.11619,-0.10137
-0.037615,-0.0090432,0.030105,0.020579,-0.24991,-0.03526,0.6341,-0.52834,0.11701,0.48205,-0.050839,-0.041404,-0.85992,0.46648,-0.060618,0.63871,0.032663,0.095317,-0.08239,-0.51789,0.071311,-0.17536,-0.10254,-0.10385
-0.042869,-0.006654,0.033167,0.018919,-0.28006,0.01731,0.62066,-0.41679,0.15558,0.41049,0.0063469,-0.20567,-0.80709,0.41402,-0.066461,0.61025,0.031297,0.09955,-0.16964,-0.20331,0.11046,-0.20899,-0.091932,-0.10087
-0.046318,0.0013959,0.035389,0.023654,-0.29409,0.05684,0.62198,-0.29075,0.17949,0.32243,0.042898,-0.36603,-0.75206,0.20298,-0.059442,0.54778,0.029553,0.10219,-0.24536,0.030284,0.13572,-0.23448,-0.077414,-0.087737
-0.047977,0.010566,0.036532,0.034821,-0.28989,0.095348,0.63539,-0.16029,0.18167,0.24126,0.052019,-0.50926,-0.70711,-0.13252,-0.043045,0.44295,0.028936,0.10227,-0.28922,0.13879,0.1433,-0.23775,-0.053774,-0.058977
-0.048717,0.014933,0.037566,0.049925,-0.27067,0.14552,0.63854,-0.027939,0.16403,0.17797,0.037167,-0.63749,-0.68406,-0.50944,-0.023765,0.31422,0.030188,0.10014,-0.29346,0.1387,0.13812,-0.21948,-0.021319,-0.014865
-0.049034,0.011441,0.040315,0.066223,-0.24503,0.20942,0.59474,0.10853,0.13613,0.12739,0.012482,-0.75063,-0.68668,-0.84003,-0.0088644,0.19945,0.032914,0.098244,-0.26772,0.09512,0.1287,-0.20039,0.014254,0.035732
-0.048327,0.0023826,0.04588,0.082523,-0.22357,0.27108,0.47478,0.25365,0.10856,0.075754,-0.0058463,-0.82988,-0.7046,-1.0763,-0.003517,0.13129,0.035628,0.098999,-0.233,0.082518,0.12066,-0.21112,0.045278,0.078743
-0.045429,-0.0061721,0.053016,0.099095,-0.21351,0.30166,0.27897,0.41438,0.086207,0.013332,-0.012352,-0.84269,-0.71617,-1.2232,-0.0082212,0.11548,0.036281,0.10145,-0.20887,0.14322,0.1141,-0.27189,0.066405,0.10184
-0.039856,-0.0089845,0.058065,0.11607,-0.2148,0.2774,0.039868,0.60053,0.066376,-0.057664,-0.018824,-0.76907,-0.70018,-1.3149,-0.018508,0.1296,0.032922,0.10005,-0.20328,0.26834,0.10584,-0.37781,0.077361,0.099736
-0.032516,-0.0056357,0.056957,0.13205,-0.22057,0.1992,-0.19882,0.82117,0.042998,-0.12453,-0.047551,-0.6265,-0.64879,-1.3786,-0.027793,0.14221,0.024057,0.087455,-0.21185,0.41001,0.094091,-0.5029,0.083012,0.074844
-0.025245,-0.00068355,0.048014,0.14434,-0.22191,0.09832,-0.41112,1.0769,0.013251,-0.17213,-0.11482,-0.46815,-0.57155,-1.4181,-0.031385,0.13529,0.0085866,0.059783,-0.22576,0.5141,0.080906,-0.61953,0.090754,0.034272
-0.019668,0.00011905,0.033319,0.15054,-0.21403,0.02144,-0.60186,1.3522,-0.018997,-0.19085,-0.21694,-0.3522,-0.48745,-1.4278,-0.028335,0.11194,-0.014191,0.020085,-0.24062,0.55223,0.070524,-0.7156,0.10627,-0.013322
-0.016432,-0.0054792,0.017399,0.15006,-0.19971,0.0041813,-0.79353,1.6143,-0.045549,-0.17988,-0.3297,-0.30672,-0.4114,-1.4178,-0.019936,0.086091,-0.043934,-0.022795,-0.25814,0.53426,0.065219,-0.79357,0.1297,-0.058914
-0.015264,-0.014246,0.0041561,0.14389,-0.18788,0.052105,-0.99924,1.8218,-0.059818,-0.14628,-0.42143,-0.31927,-0.34546,-1.4205,-0.0072155,0.066967,-0.078046,-0.059256,-0.27898,0.49596,0.062547,-0.85346,0.15462,-0.092963
-0.015363,-0.01958,-0.0055009,0.13288,-0.18828,0.14306,-1.2054,1.9388,-0.061337,-0.1024,-0.46918,-0.35843,-0.28096,-1.4688,0.0091998,0.053078,-0.11097,-0.084057,-0.29406,0.47145,0.056602,-0.87836,0.17146,-0.10605
-0.015417,-0.015969,-0.0134,0.11609,-0.2057,0.24771,-1.3783,1.9501,-0.055441,-0.063065,-0.46637,-0.40593,-0.20852,-1.5653,0.026389,0.039098,-0.13533,-0.097937,-0.28378,0.46958,0.042439,-0.83943,0.17365,-0.091325
-0.013316,-0.0024768,-0.021568,0.091163,-0.23732,0.35048,-1.4873,1.8651,-0.04896,-0.041448,-0.41883,-0.46967,-0.12715,-1.6715,0.037021,0.025661,-0.14509,-0.10517,-0.22912,0.47036,0.019962,-0.71919,0.16258,-0.047543
-0.0063778,0.016983,-0.029664,0.057032,-0.27499,0.4541,-1.5236,1.7108,-0.045795,-0.043491,-0.33596,-0.56692,-0.045283,-1.7296,0.031691,0.020539,-0.13897,-0.10951,-0.12734,0.4439,-0.0061105,-0.53314,0.14723,0.019696
0.0072174,0.036295,-0.034655,0.017064,-0.31127,0.56594,-1.5004,1.5156,-0.045623,-0.063803,-0.22599,-0.69463,0.026438,-1.6987,0.0054663,0.030022,-0.12156,-0.11165,0.00037089,0.37779,-0.030384,-0.32988,0.13819,0.099668
0.026407,0.050454,-0.033001,-0.020291,-0.34568,0.68068,-1.4385,1.2953,-0.045802,-0.08737,-0.097905,-0.81497,0.083845,-1.5758,-0.036438,0.050348,-0.10082,-0.10971,0.11734,0.29155,-0.051625,-0.16726,0.14019,0.18036
0.046323,0.057392,-0.023554,-0.044794,-0.38691,0.77609,-1.3542,1.0524,-0.044057,-0.098081,0.034735,-0.87047,0.13222,-1.386,-0.079558,0.069315,-0.083745,-0.10173,0.19116,0.22574,-0.073961,-0.081839,0.14879,0.2522
0.059912,0.057731,-0.0087771,-0.050098,-0.44857,0.82593,-1.2613,0.78906,-0.039746,-0.089244,0.15422,-0.81726,0.18139,-1.1547,-0.10835,0.077594,-0.073339,-0.088267,0.21027,0.21363,-0.10291,-0.072965,0.15389,0.30978
0.061697,0.053546,0.006656,-0.037924,-0.54,0.81825,-1.1798,0.52393,-0.033631,-0.068345,0.24411,-0.65103,0.23742,-0.89069,-0.11587,0.078676,-0.069191,-0.073471,0.18489,0.25835,-0.13907,-0.11002,0.14708,0.35122
0.05138,0.047403,0.018718,-0.017366,-0.6575,0.76336,-1.1356,0.29605,-0.027483,-0.051968,0.29501,-0.40837,0.29807,-0.59349,-0.10732,0.086788,-0.07043,-0.064002,0.13265,0.33457,-0.17475,-0.15422,0.12733,0.37603
0.034604,0.041996,0.026173,0.00066255,-0.78251,0.68632,-1.1418,0.14739,-0.024196,-0.054418,0.30622,-0.14656,0.3555,-0.2757,-0.094538,0.11342,-0.077804,-0.066071,0.062024,0.41257,-0.19698,-0.17944,0.10087,0.38315
0.019993,0.039727,0.030554,0.010175,-0.88898,0.61207,-1.1762,0.093982,-0.027588,-0.078621,0.28265,0.081035,0.40357,0.026555,-0.086002,0.15468,-0.092535,-0.081768,-0.032327,0.4819,-0.19536,-0.18156,0.076164,0.37
0.01425,0.041725,0.034314,0.013299,-0.95598,0.55582,-1.1785,0.10866,-0.040743,-0.11588,0.231,0.23904,0.44293,0.26855,-0.080888,0.19214,-0.11299,-0.10661,-0.15895,0.55234,-0.16941,-0.17546,0.05812,0.33344
0.018571,0.046848,0.038735,0.017795,-0.97711,0.52301,-1.0802,0.13332,-0.063365,-0.15368,0.15863,0.31134,0.4792,0.42605,-0.071661,0.20805,-0.1327,-0.13039,-0.31403,0.63126,-0.12997,-0.18453,0.045521,0.27184
0.028731,0.051848,0.043074,0.03098,-0.9599,0.5135,-0.8537,0.11585,-0.090277,-0.18439,0.075133,0.29694,0.51543,0.51225,-0.052229,0.20271,-0.14225,-0.14187,-0.47518,0.7008,-0.093421,-0.2274,0.032716,0.18739
0.038545,0.053256,0.045224,0.054584,-0.91613,0.52287,-0.54105,0.045064,-0.11291,-0.20804,-0.0058477,0.20705,0.54543,0.56654,-0.023789,0.19872,-0.13437,-0.13489,-0.61049,0.72009,-0.072759,-0.30664,0.013599,0.087371
0.044049,0.049986,0.043084,0.083893,-0.85166,0.54094,-0.23735,-0.044659,-0.12327,-0.22786,-0.067113,0.063247,0.55414,0.62406,0.006746,0.22707,-0.10835,-0.11189,-0.69543,0.65452,-0.071289,-0.40449,-0.014736,-0.016386
0.045419,0.044608,0.035672,0.11109,-0.76474,0.55364,-0.034085,-0.10421,-0.11759,-0.24411,-0.091447,-0.10593,0.52569,0.69178,0.033422,0.30471,-0.070691,-0.081895,-0.72432,0.50622,-0.082568,-0.48982,-0.050244,-0.10948
0.0455,0.041937,0.023608,0.12979,-0.65459,0.55135,0.036595,-0.11168,-0.097102,-0.25223,-0.067313,-0.27017,0.45339,0.74965,0.05581,0.41985,-0.031498,-0.054272,-0.70844,0.31538,-0.095677,-0.53479,-0.086447,-0.17755
0.046479,0.045582,0.0091441,0.13767,-0.53201,0.53795,0.01493,-0.090914,-0.065798,-0.24718,0.0052165,-0.40145,0.34408,0.77272,0.076839,0.53519,0.00058053,-0.033219,-0.66411,0.12703,-0.10172,-0.53131,-0.11492,-0.20896
0.047473,0.054823,-0.0042031,0.13611,-0.42061,0.5305,-0.025011,-0.091167,-0.027594,-0.22938,0.11128,-0.47589,0.21366,0.75317,0.096651,0.60607,0.021592,-0.017256,-0.60172,-0.0493,-0.097531,-0.49526,-0.12913,-0.19765
0.044987,0.064244,-0.012639,0.12807,-0.34465,0.54658,-0.033338,-0.14449,0.01464,-0.20658,0.22409,-0.47698,0.07738,0.70449,0.10973,0.60179,0.032146,-0.0037636,-0.52375,-0.24931,-0.085263,-0.4537,-0.12806,-0.14559
0.035754,0.066697,-0.013752,0.11609,-0.31161,0.58895,-0.015497,-0.23589,0.058062,-0.18923,0.31491,-0.40283,-0.057263,0.64782,0.10939,0.51838,0.034988,0.0061428,-0.43118,-0.51927,-0.069321,-0.42383,-0.11762,-0.063871
0.019595,0.057875,-0.0080616,0.10145,-0.304,0.64193,-0.01511,-0.30973,0.098853,-0.18334,0.36671,-0.27406,-0.1896,0.59601,0.095781,0.37845,0.03267,0.0075183,-0.33065,-0.86174,-0.053381,-0.39977,-0.10816,0.02947
-0.00011331,0.039497,0.00088353,0.084267,-0.2891,0.68433,-0.068648,-0.30552,0.13307,-0.18652,0.38327,-0.13231,-0.31811,0.54981,0.079147,0.221,0.027082,-0.0029691,-0.23502,-1.2062,-0.039266,-0.35812,-0.10889,0.11476
-0.018769,0.018813,0.0084846,0.064055,-0.24044,0.70799,-0.17386,-0.19331,0.15887,-0.19008,0.38704,-0.02383,-0.43329,0.50701,0.073765,0.086369,0.020726,-0.020755,-0.15668,-1.4326,-0.027698,-0.27865,-0.12248,0.17707
-0.033741,0.0043796,0.012071,0.040289,-0.15467,0.72445,-0.29754,0.016997,0.1779,-0.18421,0.40541,0.025219,-0.51844,0.4732,0.087018,0.0019768,0.017883,-0.032519,-0.099641,-1.4375,-0.01971,-0.16385,-0.14341,0.20984
-0.045654,0.00055127,0.012587,0.013074,-0.050559,0.75235,-0.41012,0.29299,0.19385,-0.16141,0.45361,0.02506,-0.55985,0.46188,0.113,-0.026526,0.023752,-0.023017,-0.057249,-1.1969,-0.017301,-0.042035,-0.16162,0.21386
-0.056536,0.0043827,0.01344,-0.016257,0.048523,0.79694,-0.5108,0.60201,0.20918,-0.11597,0.52539,0.017892,-0.5598,0.48267,0.13658,-0.014679,0.041339,0.014563,-0.017222,-0.78575,-0.022736,0.049339,-0.16907,0.19294
-0.066371,0.007471,0.017311,-0.044942,0.1334,0.84102,-0.6181,0.9172,0.22258,-0.042757,0.59692,0.055941,-0.54219,0.52738,0.14474,0.011293,0.06826,0.072441,0.030247,-0.33896,-0.036911,0.088515,-0.16478,0.15051
-0.071302,0.0019578,0.023621,-0.069285,0.21331,0.85709,-0.73619,1.207,0.2293,0.060257,0.64036,0.17799,-0.54425,0.56653,0.13601,0.029813,0.096499,0.13149,0.087822,0.017099,-0.057913,0.085013,-0.15471,0.090001
-0.065701,-0.013445,0.0289,-0.085753,0.30254,0.83084,-0.83213,1.4272,0.22401,0.18575,0.63722,0.3981,-0.59724,0.5612,0.12092,0.034921,0.11638,0.17226,0.15282,0.22045,-0.080972,0.074956,-0.14673,0.017931
-0.047088,-0.032159,0.029798,-0.092202,0.40213,0.77483,-0.85029,1.5332,0.20391,0.31298,0.58343,0.70599,-0.70737,0.48401,0.11427,0.03585,0.12257,0.18624,0.22288,0.28566,-0.10025,0.098698,-0.14453,-0.054297
-0.020064,-0.04463,0.026091,-0.08875,0.49305,0.72019,-0.75569,1.5067,0.16995,0.41285,0.48542,1.0686,-0.84999,0.3362,0.126,0.046066,0.1176,0.1795,0.29972,0.27334,-0.11164,0.17489,-0.14507,-0.11327
0.0044464,-0.045807,0.021096,-0.078071,0.54776,0.69335,-0.56942,1.3747,0.12616,0.46177,0.35309,1.4275,-0.98232,0.14949,0.15685,0.070445,0.11006,0.16671,0.38726,0.24432,-0.11472,0.2875,-0.14159,-0.14972
0.014918,-0.039177,0.019144,-0.065015,0.55088,0.69826,-0.36386,1.1972,0.078467,0.45531,0.19622,1.6997,-1.0682,-0.029227,0.19962,0.10032,0.10836,0.16032,0.48499,0.2291,-0.11222,0.3944,-0.12985,-0.16284
0.0062128,-0.033949,0.022269,-0.0555,0.51287,0.71819,-0.21823,1.0309,0.033889,0.41029,0.026438,1.798,-1.099,-0.16297,0.24276,0.11961,0.11494,0.16316,0.58209,0.22598,-0.10716,0.45269,-0.11263,-0.15845
-0.017141,-0.037803,0.028784,-0.054638,0.46598,0.73366,-0.1682,0.89514,-0.00030988,0.35213,-0.13899,1.6686,-1.0962,-0.2459,0.27332,0.11656,0.12522,0.16901,0.65771,0.21877,-0.099798,0.44496,-0.09872,-0.14219
-0.04373,-0.051348,0.034719,-0.064518,0.44589,0.73959,-0.18759,0.76918,-0.018612,0.29699,-0.27732,1.3255,-1.093,-0.30888,0.27942,0.091614,0.13166,0.1695,0.6889,0.19508,-0.087214,0.38943,-0.096652,-0.11385
-0.061984,-0.06866,0.036874,-0.082632,0.47216,0.74762,-0.21353,0.62127,-0.020259,0.24279,-0.36676,0.85262,-1.1075,-0.40428,0.25382,0.055726,0.12926,0.16105,0.66259,0.15289,-0.066391,0.32684,-0.1079,-0.068505
-0.066106,-0.08266,0.035189,-0.10214,0.54003,0.77435,-0.19262,0.44331,-0.011296,0.17646,-0.39611,0.36285,-1.1273,-0.57595,0.19796,0.020721,0.11816,0.14644,0.58403,0.09716,-0.038397,0.29267,-0.12478,-0.0041693
-0.057481,-0.090047,0.032844,-0.1144,0.6269,0.82779,-0.1125,0.2608,-0.0032355,0.090542,-0.37065,-0.061534,-1.1176,-0.82927,0.12334,-0.010726,0.10194,0.13103,0.47621,0.035277,-0.009882,0.29318,-0.1347,0.070957
-0.041499,-0.091658,0.0341,-0.11292,0.70679,0.90327,0.0011274,0.11128,-0.0078546,-0.0053002,-0.30913,-0.40817,-1.0495,-1.1188,0.047651,-0.048037,0.084168,0.11773,0.36957,-0.023774,0.01014,0.30164,-0.12763,0.13883
-0.022822,-0.089043,0.041293,-0.096513,0.76277,0.98891,0.11307,0.012901,-0.03067,-0.088227,-0.23275,-0.72587,-0.92741,-1.3635,-0.012975,-0.10596,0.066417,0.10522,0.28804,-0.069846,0.016248,0.27657,-0.10097,0.18024
-0.002578,-0.081569,0.052873,-0.069832,0.7905,1.0731,0.20698,-0.048306,-0.067267,-0.13835,-0.15321,-1.0764,-0.79584,-1.4846,-0.050768,-0.19182,0.048778,0.090337,0.23965,-0.096591,0.010571,0.18867,-0.058764,0.18504
0.021109,-0.067304,0.063829,-0.040646,0.79345,1.1475,0.29269,-0.1035,-0.1053,-0.15402,-0.068368,-1.4824,-0.71694,-1.4442,-0.06768,-0.29468,0.031475,0.071802,0.21726,-0.10911,0.0013078,0.037703,-0.0067742,0.15574
0.050446,-0.046569,0.068504,-0.015556,0.77579,1.2064,0.39163,-0.17512,-0.13136,-0.15433,0.03104,-1.9058,-0.73351,-1.2617,-0.071274,-0.38379,0.015481,0.051697,0.20756,-0.12548,-0.003256,-0.1507,0.05185,0.10223
0.085478,-0.02408,0.064189,0.0031065,0.73907,1.248,0.5159,-0.26425,-0.13854,-0.16742,0.14872,-2.2666,-0.84253,-0.99783,-0.06899,-0.41928,0.0017826,0.033698,0.20064,-0.16575,-0.00046817,-0.34273,0.11664,0.033613
0.12344,-0.0068681,0.053119,0.017219,0.68491,1.2783,0.65823,-0.35929,-0.12992,-0.21378,0.27375,-2.4837,-0.9976,-0.71774,-0.064863,-0.37162,-0.0095282,0.019919,0.19264,-0.23374,0.0057735,-0.51317,0.18629,-0.045179
0.16005,0.00063681,0.041293,0.03001,0.61977,1.3142,0.79828,-0.45232,-0.1158,-0.29583,0.38235,-2.5103,-1.1386,-0.45785,-0.059642,-0.24066,-0.01928,0.0091466,0.18009,-0.30595,0.0093018,-0.64908,0.25532,-0.12997
0.19163,4.8803e-005,0.034691,0.042965,0.55602,1.3768,0.9181,-0.54398,-0.10684,-0.39909,0.44902,-2.3477,-1.2269,-0.2173,-0.052321,-0.063591,-0.028606,-0.0023535,0.15252,-0.33892,0.0071833,-0.74107,0.31442,-0.21255
0.21679,-0.0022164,0.035494,0.055102,0.50633,1.4795,1.0135,-0.633,-0.10777,-0.50153,0.45866,-2.0385,-1.2621,0.025074,-0.041049,0.095213,-0.038627,-0.018391,0.091881,-0.2914,0.0016964,-0.77453,0.35407,-0.28129
0.23676,3.1191e-006,0.041024,0.064976,0.47514,1.6155,1.0935,-0.70479,-0.11587,-0.58348,0.41138,-1.6477,-1.2705,0.28404,-0.023395,0.17087,-0.050644,-0.04049,-0.017645,-0.14585,-0.0025695,-0.73267,0.36824,-0.32799
0.25423,0.0079488,0.046109,0.073211,0.45461,1.7581,1.1693,-0.73533,-0.12473,-0.63236,0.31831,-1.2421,-1.2769,0.55107,0.0028807,0.12953,-0.065989,-0.0668,-0.17532,0.084685,-0.0034928,-0.61212,0.35467,-0.35392
0.27135,0.017466,0.046883,0.082778,0.42955,1.8723,1.2428,-0.71028,-0.12955,-0.64202,0.19449,-0.87285,-1.2837,0.79564,0.038314,-0.012331,-0.084858,-0.092572,-0.35598,0.36489,-0.003639,-0.4382,0.31213,-0.36776
0.28776,0.022852,0.043041,0.096486,0.38839,1.9327,1.3044,-0.64188,-0.12982,-0.6108,0.055461,-0.56661,-1.2704,0.97996,0.080934,-0.1943,-0.10481,-0.11215,-0.51655,0.64992,-0.0080473,-0.26416,0.23806,-0.3756
0.29979,0.021551,0.037004,0.11408,0.3315,1.9336,1.3415,-0.56584,-0.12762,-0.54196,-0.081144,-0.33036,-1.2137,1.0759,0.12744,-0.34318,-0.12075,-0.12195,-0.61471,0.89377,-0.019717,-0.14921,0.1303,-0.37148
0.30154,0.015807,0.031094,0.1321,0.27012,1.8903,1.3511,-0.51887,-0.12384,-0.44682,-0.19424,-0.16698,-1.1076,1.0763,0.17559,-0.41233,-0.12739,-0.12311,-0.62841,1.0545,-0.036771,-0.12678,-0.0072069,-0.33869
0.28751,0.010318,0.025398,0.14728,0.21713,1.8302,1.345,-0.51577,-0.11656,-0.34642,-0.26405,-0.08979,-0.97008,0.99702,0.2252,-0.40518,-0.12288,-0.12163,-0.56401,1.1027,-0.053533,-0.18408,-0.1593,-0.26301
0.25563,0.0083796,0.018152,0.16059,0.17793,1.7827,1.3432,-0.54517,-0.10321,-0.26719,-0.28237,-0.12111,-0.83147,0.87171,0.27636,-0.36783,-0.1107,-0.12506,-0.44875,1.0331,-0.064303,-0.2684,-0.30057,-0.14838
0.20902,0.0099259,0.0080876,0.17797,0.14913,1.7707,1.3582,-0.58597,-0.084632,-0.23069,-0.2607,-0.27203,-0.71571,0.7396,0.326,-0.35611,-0.09799,-0.13719,-0.31397,0.86724,-0.066487,-0.31762,-0.40382,-0.021834
0.15529,0.01273,-0.0035954,0.20631,0.12512,1.8033,1.3862,-0.62719,-0.066759,-0.24323,-0.22744,-0.51877,-0.62898,0.6321,0.36664,-0.39982,-0.09087,-0.15469,-0.18087,0.63878,-0.060653,-0.29551,-0.45121,0.078927
0.10351,0.015084,-0.013588,0.24751,0.10557,1.8713,1.4096,-0.67317,-0.0577,-0.29376,-0.21278,-0.79927,-0.56212,0.56347,0.38905,-0.48757,-0.090338,-0.16869,-0.056834,0.36898,-0.047922,-0.20892,-0.44088,0.12857
0.0604,0.017298,-0.018987,0.29567,0.096421,1.9491,1.4118,-0.73116,-0.062308,-0.36259,-0.23011,-1.0389,-0.50223,0.53038,0.38747,-0.57977,-0.091508,-0.1704,0.058652,0.054693,-0.02737,-0.09683,-0.38461,0.13226
0.027934,0.020859,-0.019747,0.33986,0.10397,2.0068,1.389,-0.79562,-0.078618,-0.43499,-0.26703,-1.188,-0.44346,0.51974,0.36308,-0.63664,-0.086709,-0.15633,0.16586,-0.31259,0.0039762,-0.00091596,-0.29909,0.12534
0.0035984,0.026386,-0.01882,0.3704,0.12811,2.0266,1.3502,-0.84574,-0.099157,-0.50842,-0.29304,-1.2406,-0.39005,0.51907,0.32267,-0.64016,-0.070086,-0.12912,0.26135,-0.70664,0.0482,0.060735,-0.19785,0.15302
-0.01692,0.03239,-0.019707,0.38337,0.16131,2.0129,1.3042,-0.85864,-0.11592,-0.58716,-0.27958,-1.2157,-0.35169,0.52316,0.27355,-0.59776,-0.0407,-0.093936,0.34001,-1.0414,0.10284,0.099604,-0.089104,0.24263
-0.036565,0.035874,-0.023507,0.38,0.19407,1.9872,1.2476,-0.82599,-0.12487,-0.66891,-0.21908,-1.1202,-0.33621,0.53507,0.21903,-0.53153,-0.0027241,-0.054767,0.39804,-1.1943,0.15966,0.1414,0.020518,0.38689
-0.055343,0.034216,-0.028113,0.3621,0.22118,1.9683,1.1655,-0.75905,-0.12657,-0.73574,-0.13055,-0.92577,-0.34429,0.56364,0.15797,-0.46556,0.036545,-0.014196,0.43248,-1.0751,0.20739,0.2035,0.12181,0.55029
-0.071181,0.026945,-0.030393,0.32832,0.24308,1.9553,1.0462,-0.67924,-0.12333,-0.7586,-0.048915,-0.58828,-0.36832,0.62012,0.088151,-0.41911,0.069174,0.023633,0.43787,-0.69365,0.23718,0.28218,0.20286,0.69429
-0.082204,0.016344,-0.029482,0.27486,0.26211,1.9284,0.89628,-0.60394,-0.11636,-0.71331,-0.006349,-0.094975,-0.39488,0.71356,0.0098953,-0.40364,0.088537,0.051026,0.40461,-0.17209,0.24714,0.35701,0.25307,0.8034
-0.0885,0.0065954,-0.028099,0.20002,0.27854,1.868,0.74248,-0.53955,-0.10585,-0.59632,-0.018008,0.49935,-0.40963,0.8443,-0.073412,-0.41808,0.090726,0.059176,0.323,0.31914,0.24271,0.40632,0.26754,0.89213
-0.092097,0.0018719,-0.030381,0.10822,0.29143,1.7763,0.61548,-0.4849,-0.093538,-0.42922,-0.079828,1.0815,-0.40296,0.99785,-0.15745,-0.44321,0.075806,0.044009,0.19113,0.65957,0.23251,0.42124,0.24809,0.98706
-0.09548,0.0042183,-0.037843,0.0096871,0.30352,1.6806,0.52949,-0.43779,-0.084191,-0.24991,-0.17641,1.5318,-0.37427,1.1444,-0.23838,-0.44349,0.048632,0.010647,0.020657,0.84029,0.22232,0.40909,0.20113,1.0971
-0.1001,0.012384,-0.047031,-0.083721,0.32471,1.6149,0.47419,-0.39655,-0.083148,-0.097633,-0.2906,1.7815,-0.33219,1.2472,-0.31109,-0.3827,0.018272,-0.027625,-0.16479,0.94196,0.21144,0.3859,0.13491,1.1953
-0.10603,0.022476,-0.051309,-0.16306,0.36889,1.5937,0.4266,-0.35634,-0.091053,-0.00030049,-0.40745,1.836,-0.28968,1.2763,-0.36635,-0.24758,-0.0046472,-0.055571,-0.33771,1.0481,0.19381,0.36514,0.058392,1.228
-0.11277,0.030254,-0.045794,-0.22386,0.44483,1.6025,0.37315,-0.30697,-0.10054,0.031565,-0.51216,1.7506,-0.25607,1.218,-0.39143,-0.062555,-0.012022,-0.063046,-0.4751,1.1648,0.16264,0.35026,-0.018846,1.1452
-0.12005,0.033598,-0.031496,-0.26473,0.54797,1.6136,0.32345,-0.23758,-0.098946,0.0050074,-0.58759,1.5866,-0.23107,1.0761,-0.37689,0.11853,-0.0017504,-0.048405,-0.56152,1.2141,0.1154,0.33495,-0.087316,0.93232
-0.1279,0.033263,-0.015073,-0.28584,0.65987,1.6129,0.3041,-0.1456,-0.076247,-0.059858,-0.61699,1.3799,-0.20526,0.86543,-0.32567,0.24132,0.021578,-0.017167,-0.58704,1.105,0.055849,0.30895,-0.13957,0.61882
-0.13603,0.03132,-0.0040667,-0.28906,0.75645,1.6131,0.33685,-0.041077,-0.03226,-0.13836,-0.59182,1.144,-0.16787,0.60659,-0.25659,0.28142,0.049409,0.021893,-0.5456,0.82252,-0.0076199,0.26482,-0.17184,0.26203
-0.14342,0.028688,-0.0013377,-0.27907,0.81941,1.6409,0.41723,0.058912,0.022807,-0.21147,-0.51829,0.89246,-0.1171,0.32697,-0.19692,0.25539,0.073844,0.060429,-0.43768,0.45768,-0.065515,0.20151,-0.18374,-0.08195
-0.14874,0.024126,-0.0032493,-0.26269,0.84292,1.7085,0.50868,0.14132,0.075283,-0.27184,-0.41638,0.65686,-0.065159,0.062634,-0.16744,0.20565,0.091408,0.0929,-0.27525,0.15093,-0.11023,0.12399,-0.17633,-0.37877
-0.15101,0.015793,-0.0031128,-0.24583,0.83222,1.7943,0.55606,0.20282,0.11691,-0.32025,-0.31044,0.48132,-0.033176,-0.14649,-0.17024,0.172,0.10387,0.11795,-0.082202,-0.0047335,-0.13723,0.040996,-0.15054,-0.6171
-0.14985,0.0040069,0.0029979,-0.23027,0.7971,1.8523,0.51008,0.2438,0.14853,-0.35367,-0.21803,0.3996,-0.037557,-0.27015,-0.18877,0.17003,0.11596,0.13887,0.11306,-0.02355,-0.14484,-0.036968,-0.10752,-0.79649
-0.14491,-0.0075343,0.012967,-0.21367,0.74659,1.8419,0.34962,0.2558,0.17618,-0.35495,-0.14452,0.41285,-0.076562,-0.30106,-0.20027,0.18899,0.1318,0.16213,0.28917,-0.0053165,-0.13391,-0.098991,-0.050521,-0.91608
-0.13544,-0.013682,0.020628,-0.1932,0.68866,1.7557,0.092045,0.21582,0.2035,-0.29552,-0.086341,0.48427,-0.12713,-0.25519,-0.19123,0.20581,0.15216,0.19366,0.43882,-0.057081,-0.10799,-0.13599,0.013991,-0.97414
-0.12067,-0.011637,0.021231,-0.16965,0.6333,1.6229,-0.21197,0.096449,0.22759,-0.15256,-0.038189,0.55347,-0.1561,-0.15681,-0.1645,0.20211,0.17404,0.23416,0.56672,-0.22583,-0.073601,-0.14455,0.077322,-0.97609
-0.10104,-0.0034664,0.015667,-0.14799,0.5941,1.4872,-0.49631,-0.11272,0.24138,0.07121,0.0026476,0.56233,-0.1399,-0.020175,-0.13393,0.17259,0.19223,0.27694,0.68143,-0.49059,-0.039544,-0.13063,0.13113,-0.94052
-0.07906,0.0049697,0.0098974,-0.13366,0.58496,1.3802,-0.70282,-0.3884,0.23977,0.34129,0.037535,0.48042,-0.079867,0.15478,-0.11234,0.12265,0.20165,0.31033,0.78782,-0.80324,-0.014691,-0.10952,0.16956,-0.89427
-0.05855,0.0079461,0.01019,-0.12783,0.61331,1.3096,-0.80053,-0.67613,0.22348,0.60538,0.069514,0.3206,-0.0020317,0.36784,-0.1031,0.061105,0.19913,0.32355,0.88342,-1.1266,-0.0046225,-0.10012,0.1896,-0.85817
-0.042624,0.0035392,0.018309,-0.12612,0.67447,1.267,-0.7918,-0.91277,0.19759,0.81764,0.10251,0.13788,0.059432,0.5983,-0.10068,-0.0047155,0.18379,0.3123,0.9572,-1.4324,-0.0088111,-0.11592,0.19012,-0.83364
-0.03188,-0.0057557,0.030579,-0.122,0.75115,1.2425,-0.70266,-1.0549,0.16692,0.95581,0.13594,0.0087038,0.084521,0.7997,-0.097612,-0.069201,0.15688,0.28047,0.99,-1.6737,-0.020279,-0.15812,0.17134,-0.80119
-0.024376,-0.015534,0.041237,-0.11187,0.81911,1.2309,-0.56344,-1.0951,0.13342,1.0207,0.16021,-0.0045904,0.080329,0.9179,-0.090367,-0.12689,0.12165,0.23746,0.95954,-1.7789,-0.028632,-0.21521,0.13573,-0.73335
-0.017405,-0.022679,0.046934,-0.09745,0.85636,1.2251,-0.39223,-1.0571,0.098048,1.0226,0.15985,0.11138,0.075777,0.91956,-0.07965,-0.17333,0.083539,0.19365,0.85307,-1.694,-0.025276,-0.26904,0.089543,-0.61379
-0.0095466,-0.026716,0.048608,-0.083699,0.85205,1.2118,-0.19226,-0.97713,0.064752,0.96916,0.12432,0.30761,0.10177,0.80826,-0.066814,-0.20867,0.049776,0.15709,0.68234,-1.44,-0.0078444,-0.30275,0.043061,-0.44989
-0.0013731,-0.028834,0.049596,-0.074461,0.8114,1.1765,0.036191,-0.88462,0.041657,0.86372,0.058827,0.49332,0.17032,0.61688,-0.051411,-0.23955,0.027147,0.13205,0.48769,-1.1268,0.019094,-0.30548,0.0082998,-0.27088
0.0055494,-0.030207,0.052146,-0.069599,0.75437,1.1185,0.27978,-0.79446,0.03719,0.71216,-0.014568,0.58275,0.26665,0.3863,-0.032609,-0.27394,0.018407,0.11879,0.32188,-0.89076,0.047573,-0.27245,-0.0052096,-0.11377
0.010211,-0.031306,0.055542,-0.06573,0.70752,1.0572,0.50742,-0.71081,0.053745,0.5289,-0.067981,0.54065,0.3592,0.15105,-0.012294,-0.30969,0.019741,0.11378,0.22169,-0.80031,0.07142,-0.20302,0.0059067,-0.0073041
0.012846,-0.032392,0.057216,-0.059365,0.69186,1.0201,0.68421,-0.63646,0.084207,0.33539,-0.08323,0.39645,0.42033,-0.05841,0.0044004,-0.32586,0.022003,0.11056,0.18944,-0.80799,0.089202,-0.10095,0.037968,0.036931
0.014379,-0.033981,0.055421,-0.049591,0.71223,1.0193,0.79671,-0.58059,0.11456,0.1535,-0.060357,0.2166,0.44366,-0.20758,0.012594,-0.28856,0.015908,0.10209,0.20137,-0.79714,0.10291,0.022177,0.082383,0.024151
0.015526,-0.03634,0.0508,-0.038396,0.75465,1.0363,0.87064,-0.56169,0.13111,0.00075257,-0.013465,0.053526,0.44658,-0.26302,0.012092,-0.17451,-0.002221,0.08363,0.2353,-0.68441,0.11399,0.14384,0.12899,-0.028887
0.016643,-0.038499,0.045505,-0.028989,0.79427,1.0322,0.96421,-0.60518,0.12749,-0.10955,0.041318,-0.092993,0.45714,-0.21517,0.008215,0.0010896,-0.028691,0.054383,0.28858,-0.48548,0.12062,0.23368,0.16835,-0.098858
0.01842,-0.038157,0.040941,-0.023793,0.80977,0.97655,1.1362,-0.73556,0.10705,-0.16685,0.095534,-0.27454,0.49515,-0.10017,0.0076375,0.17552,-0.056136,0.016463,0.36384,-0.28126,0.11881,0.26547,0.19237,-0.15969
0.022319,-0.033171,0.036498,-0.023437,0.79514,0.87112,1.4068,-0.96322,0.079907,-0.16564,0.14933,-0.55356,0.56104,0.0048552,0.01258,0.26367,-0.079376,-0.027575,0.43219,-0.11474,0.10633,0.23333,0.19475,-0.18783
0.029708,-0.023664,0.030613,-0.026879,0.76097,0.74779,1.7383,-1.2704,0.056834,-0.11089,0.20596,-0.95181,0.63967,0.018991,0.018478,0.20821,-0.098137,-0.075943,0.41299,0.080772,0.085721,0.16143,0.17264,-0.16982
0.04006,-0.012887,0.023177,-0.032082,0.72475,0.6419,2.0496,-1.6055,0.04414,-0.020297,0.26703,-1.4225,0.71489,-0.096607,0.017391,0.022115,-0.11439,-0.12615,0.20443,0.44262,0.063392,0.09806,0.12936,-0.10873
0.049995,-0.0057267,0.016841,-0.036847,0.69769,0.56431,2.2583,-1.8938,0.042,0.081833,0.33251,-1.8629,0.78259,-0.31894,0.0045221,-0.2098,-0.12738,-0.17248,-0.24263,1.0496,0.045555,0.093765,0.07531,-0.0236
0.054806,-0.0056488,0.015632,-0.039724,0.67786,0.49639,2.3229,-2.0664,0.046529,0.17628,0.40304,-2.1582,0.85119,-0.58377,-0.0175,-0.37767,-0.13164,-0.20578,-0.8598,1.8132,0.034455,0.17567,0.024879,0.059777
0.051879,-0.012235,0.021724,-0.040778,0.65385,0.41124,2.2588,-2.092,0.053585,0.25641,0.47948,-2.2282,0.92889,-0.82678,-0.040176,-0.41266,-0.1205,-0.21733,-1.4634,2.4954,0.028025,0.33391,-0.01022,0.12155
0.043257,-0.021235,0.033126,-0.041639,0.61528,0.30143,2.1208,-1.9941,0.061487,0.32481,0.55872,-2.0569,1.0082,-1.01,-0.055457,-0.3263,-0.092021,-0.20455,-1.8383,2.8552,0.022871,0.52893,-0.027115,0.15561
0.034627,-0.027258,0.044522,-0.044402,0.5618,0.18888,1.9674,-1.8389,0.070976,0.38251,0.63066,-1.6939,1.0614,-1.1169,-0.061944,-0.19512,-0.05221,-0.17417,-1.857,2.8147,0.017615,0.71392,-0.03292,0.16804
0.030876,-0.027315,0.050906,-0.049856,0.50469,0.10926,1.8314,-1.7003,0.083003,0.42261,0.68144,-1.2372,1.0534,-1.1319,-0.06611,-0.10286,-0.013008,-0.14014,-1.5535,2.5095,0.013656,0.85686,-0.039491,0.16907
0.031731,-0.022731,0.051118,-0.056375,0.46091,0.085297,1.7156,-1.6213,0.096614,0.43596,0.70168,-0.80333,0.96234,-1.0365,-0.077562,-0.084249,0.012856,-0.11718,-1.1018,2.18,0.013029,0.9484,-0.0551,0.16623
0.031462,-0.018044,0.048302,-0.060577,0.44403,0.11141,1.6069,-1.5968,0.10887,0.42422,0.69306,-0.49245,0.79525,-0.83081,-0.10189,-0.1113,0.016159,-0.11468,-0.71035,1.9872,0.015596,0.99378,-0.07869,0.16322
0.02336,-0.017582,0.046788,-0.059519,0.45726,0.16017,1.4941,-1.584,0.11662,0.4062,0.66673,-0.35533,0.58409,-0.5597,-0.13639,-0.12788,-0.0071199,-0.13425,-0.50194,1.8978,0.018057,0.99835,-0.10058,0.16255
0.0053635,-0.022072,0.048,-0.052781,0.49179,0.20236,1.3734,-1.5329,0.11808,0.40781,0.63521,-0.3747,0.36751,-0.30639,-0.17141,-0.10029,-0.055452,-0.17136,-0.45861,1.7244,0.015393,0.95865,-0.10896,0.16659
-0.018041,-0.027714,0.048912,-0.042779,0.53097,0.22325,1.2434,-1.4146,0.11262,0.4414,0.60516,-0.47466,0.17149,-0.14873,-0.19573,-0.041881,-0.12125,-0.21849,-0.46011,1.2816,0.0034534,0.86493,-0.097468,0.17446
-0.03934,-0.02853,0.04445,-0.033045,0.55867,0.22431,1.0984,-1.2321,0.099056,0.49223,0.57706,-0.55936,0.0036485,-0.10914,-0.20163,0.0051604,-0.19109,-0.26731,-0.3825,0.53147,-0.019089,0.71121,-0.069017,0.17839
-0.053739,-0.020531,0.031887,-0.025872,0.56759,0.21345,0.93064,-1.0114,0.074893,0.52601,0.55038,-0.56199,-0.13652,-0.14268,-0.18671,0.01035,-0.24904,-0.30952,-0.18471,-0.39011,-0.050135,0.5049,-0.033522,0.16563
-0.062087,-0.0048941,0.01359,-0.021083,0.56288,0.19512,0.7403,-0.78504,0.037939,0.51347,0.52714,-0.47377,-0.24232,-0.17511,-0.15267,-0.019391,-0.28318,-0.33797,0.072831,-1.2709,-0.08462,0.26903,-0.0016975,0.12678
-0.068717,0.0121,-0.0040887,-0.016569,0.55817,0.16813,0.54118,-0.57984,-0.010779,0.4524,0.50925,-0.33376,-0.29401,-0.15733,-0.10391,-0.049698,-0.29157,-0.34864,0.28014,-1.955,-0.11555,0.036331,0.020975,0.064436
-0.076668,0.022462,-0.014771,-0.0098448,0.56609,0.13026,0.35626,-0.41385,-0.065619,0.3683,0.4927,-0.18885,-0.26813,-0.088157,-0.047426,-0.051689,-0.28251,-0.34239,0.35375,-2.4075,-0.13547,-0.16138,0.036576,-0.0066909
-0.084908,0.021115,-0.01577,0.00060509,0.59035,0.082488,0.20429,-0.29842,-0.11824,0.29323,0.46616,-0.056022,-0.155,0.0099705,0.0069651,-0.025592,-0.26782,-0.32408,0.28098,-2.679,-0.13846,-0.30311,0.052662,-0.070416
-0.089815,0.0088839,-0.0090258,0.01477,0.62539,0.028277,0.087853,-0.23836,-0.16161,0.24091,0.41822,0.08391,0.028723,0.1302,0.048287,0.0060753,-0.25341,-0.29894,0.10876,-2.8188,-0.12212,-0.38383,0.077597,-0.12316
-0.088955,-0.0078344,0.00080793,0.031228,0.66392,-0.030541,-0.008527,-0.22901,-0.19276,0.19903,0.34818,0.25894,0.2414,0.28933,0.068349,0.026785,-0.23472,-0.26837,-0.10197,-2.8198,-0.088761,-0.41359,0.11608,-0.17961
-0.083291,-0.020431,0.0092289,0.0477,0.70505,-0.0962,-0.10972,-0.25478,-0.21213,0.14391,0.2707,0.47117,0.43106,0.49344,0.065641,0.046137,-0.20075,-0.22925,-0.31498,-2.6323,-0.045063,-0.41201,0.16678,-0.26396
-0.075932,-0.022617,0.013755,0.06199,0.75505,-0.17272,-0.2372,-0.29415,-0.22036,0.062741,0.20826,0.68587,0.55582,0.69822,0.046223,0.090497,-0.14407,-0.17796,-0.52399,-2.2225,-7.4048e-005,-0.40077,0.2225,-0.39177
-0.069163,-0.013894,0.01419,0.073038,0.81929,-0.26126,-0.39951,-0.33005,-0.21604,-0.036437,0.17624,0.85367,0.60083,0.81334,0.020929,0.17197,-0.069379,-0.11673,-0.73095,-1.6207,0.037533,-0.39676,0.27253,-0.55521
-0.062941,-0.00016454,0.01185,0.081245,0.89266,-0.35824,-0.58968,-0.35856,-0.19642,-0.13436,0.17179,0.94713,0.58495,0.76023,0.0010679,0.26627,0.006025,-0.056823,-0.92343,-0.92226,0.062047,-0.4076,0.30604,-0.72189
-0.056164,0.0091806,0.0084476,0.087394,0.95785,-0.45894,-0.78909,-0.3889,-0.16052,-0.21824,0.17598,0.98212,0.55357,0.53901,-0.0047692,0.32417,0.060522,-0.014822,-1.0714,-0.25269,0.072314,-0.43048,0.31545,-0.84778
-0.048975,0.0067034,0.0050557,0.090752,0.99432,-0.56363,-0.97544,-0.4334,-0.11136,-0.28957,0.16811,1.0088,0.55846,0.24495,0.0078318,0.31121,0.079957,-0.0034949,-1.1418,0.27353,0.071857,-0.45505,0.29871,-0.89558
-0.043408,-0.0080544,0.001489,0.088335,0.99098,-0.67992,-1.1319,-0.49324,-0.055034,-0.35481,0.14118,1.0814,0.63232,0.01428,0.038146,0.24216,0.065191,-0.023389,-1.1157,0.57797,0.067307,-0.46936,0.25947,-0.84816
-0.041677,-0.027549,-0.0034082,0.076931,0.95217,-0.81755,-1.2544,-0.54843,0.0026256,-0.40892,0.10663,1.2304,0.77091,-0.06118,0.079358,0.17789,0.030529,-0.061909,-0.99453,0.63023,0.065418,-0.46698,0.20548,-0.71218
-0.044005,-0.040793,-0.010456,0.056966,0.89228,-0.97841,-1.3533,-0.55793,0.058674,-0.429,0.084586,1.4532,0.93459,0.013935,0.11933,0.18208,-0.0058913,-0.10136,-0.79932,0.45872,0.069819,-0.4511,0.14605,-0.51362
-0.048363,-0.040959,-0.018683,0.034818,0.82435,-1.1499,-1.4497,-0.47187,0.11262,-0.38643,0.086985,1.7237,1.0706,0.15454,0.14512,0.27086,-0.033234,-0.13034,-0.56744,0.15978,0.079158,-0.43276,0.089593,-0.29019
-0.052371,-0.030473,-0.025172,0.020525,0.7526,-1.3081,-1.5678,-0.2527,0.16337,-0.26926,0.10654,2.01,1.1429,0.25846,0.15022,0.39634,-0.053009,-0.14984,-0.35008,-0.1119,0.087918,-0.42333,0.041934,-0.083613
-0.055297,-0.019274,-0.02685,0.021541,0.67439,-1.4305,-1.7262,0.10249,0.2068,-0.097638,0.11942,2.2854,1.1497,0.26435,0.13913,0.47931,-0.074639,-0.16917,-0.20224,-0.18626,0.089638,-0.42601,0.0053017,0.068529
-0.058025,-0.017211,-0.023049,0.03711,0.5885,-1.5089,-1.9294,0.55058,0.23671,0.079745,0.099222,2.5317,1.1165,0.16691,0.12453,0.46608,-0.10511,-0.19535,-0.16047,0.053418,0.080731,-0.43244,-0.021841,0.14297
-0.061122,-0.026527,-0.016634,0.058158,0.50113,-1.5532,-2.1614,1.0119,0.249,0.20654,0.031606,2.7357,1.0715,-0.0058992,0.11733,0.36491,-0.14086,-0.225,-0.2177,0.60878,0.062671,-0.42753,-0.043647,0.1416
-0.063253,-0.040559,-0.012411,0.073333,0.42402,-1.583,-2.3844,1.4007,0.24585,0.24411,-0.08058,2.8852,1.0217,-0.22046,0.11724,0.23452,-0.16848,-0.24567,-0.31504,1.3497,0.041458,-0.39939,-0.064296,0.097131
-0.061891,-0.049571,-0.013815,0.076583,0.36664,-1.6151,-2.5458,1.6612,0.23592,0.18772,-0.22383,2.9664,0.95045,-0.44469,0.11233,0.1365,-0.17373,-0.24505,-0.36397,2.0601,0.024845,-0.3474,-0.085007,0.065986
-0.055854,-0.048671,-0.020446,0.070223,0.32926,-1.6544,-2.5966,1.7875,0.22959,0.066902,-0.38574,2.9627,0.83534,-0.6392,0.089155,0.091721,-0.1517,-0.21985,-0.29031,2.5289,0.018845,-0.28265,-0.10263,0.10545
-0.047192,-0.041209,-0.028335,0.061304,0.30255,-1.6961,-2.5133,1.8136,0.23235,-0.068669,-0.5628,2.8574,0.67263,-0.75553,0.045352,0.074367,-0.11005,-0.17664,-0.072062,2.6419,0.025024,-0.2207,-0.11118,0.24264
-0.040331,-0.035193,-0.032616,0.054856,0.27307,-1.7333,-2.3104,1.7825,0.24082,-0.17089,-0.75893,2.6394,0.4863,-0.75534,-0.0066286,0.044154,-0.063192,-0.12505,0.2542,2.4278,0.039675,-0.17185,-0.1055,0.45304
-0.038888,-0.036231,-0.030512,0.050006,0.22969,-1.7645,-2.0339,1.7191,0.24466,-0.21378,-0.97655,2.3104,0.31488,-0.6385,-0.048771,-0.01438,-0.022752,-0.070704,0.62059,2.0355,0.055435,-0.13497,-0.084254,0.66619
-0.042735,-0.043023,-0.022631,0.041974,0.16643,-1.7938,-1.7385,1.6268,0.23302,-0.2037,-1.2064,1.886,0.18737,-0.45364,-0.072337,-0.079158,0.0077951,-0.014776,0.96659,1.6557,0.065129,-0.09803,-0.049771,0.80211
-0.04784,-0.048805,-0.012138,0.027464,0.082067,-1.8282,-1.4655,1.5091,0.20142,-0.17317,-1.4225,1.3903,0.10808,-0.27674,-0.085162,-0.11253,0.031001,0.040299,1.2618,1.4296,0.066312,-0.044079,-0.0050404,0.81974
-0.049127,-0.04702,-0.0028348,0.0081353,-0.020575,-1.8724,-1.2339,1.3916,0.15469,-0.1598,-1.5855,0.84422,0.061767,-0.17057,-0.1044,-0.096034,0.049304,0.086196,1.5021,1.3913,0.063786,0.04072,0.049356,0.74515
-0.044177,-0.036336,0.0024912,-0.010953,-0.13362,-1.9276,-1.05,1.3224,0.10418,-0.18159,-1.6547,0.25812,0.032531,-0.15474,-0.14057,-0.047636,0.061368,0.11142,1.6907,1.4698,0.0678,0.16052,0.11518,0.65664
-0.034939,-0.02124,0.0027947,-0.026079,-0.24338,-1.9912,-0.91904,1.3479,0.061574,-0.22494,-1.6038,-0.36399,0.018763,-0.20686,-0.18672,-0.0088883,0.064004,0.11002,1.8238,1.5445,0.088126,0.3071,0.19303,0.63264
-0.026214,-0.008304,-0.0012698,-0.038008,-0.33342,-2.0577,-0.84818,1.4829,0.033066,-0.2549,-1.4345,-1.0116,0.031405,-0.28938,-0.22269,-0.015087,0.056921,0.088418,1.8894,1.5172,0.1274,0.46197,0.27817,0.69789
-0.022123,-0.0015075,-0.0077642,-0.050537,-0.39211,-2.1198,-0.83807,1.7004,0.01738,-0.24183,-1.1784,-1.6559,0.078395,-0.37677,-0.23082,-0.072678,0.045025,0.06329,1.8739,1.3625,0.17826,0.60229,0.35938,0.80703
-0.02327,-0.00023011,-0.014039,-0.06596,-0.42007,-2.1721,-0.87398,1.9469,0.0084342,-0.18486,-0.88643,-2.2495,0.15047,-0.4613,-0.20992,-0.15793,0.035906,0.051806,1.7678,1.1296,0.22657,0.7077,0.42182,0.87881
-0.026674,-0.00094362,-0.017476,-0.081922,-0.43109,-2.2145,-0.92761,2.1716,0.00064258,-0.11378,-0.60718,-2.7351,0.22173,-0.53778,-0.17539,-0.23223,0.035099,0.061861,1.5697,0.90231,0.25862,0.76478,0.4519,0.85516
-0.028372,-0.00060284,-0.016409,-0.092795,-0.4444,-2.2536,-0.96859,2.3465,-0.0065795,-0.067509,-0.36823,-3.0572,0.26494,-0.58648,-0.1459,-0.25987,0.043566,0.089784,1.2937,0.74385,0.26747,0.76749,0.44101,0.73984
-0.026588,0.0013086,-0.010991,-0.094379,-0.47323,-2.2993,-0.97486,2.4669,-0.00799,-0.066131,-0.17034,-3.1708,0.26878,-0.57395,-0.12861,-0.21889,0.059124,0.12594,0.98113,0.6624,0.25439,0.71525,0.38683,0.58791
-0.022945,0.0035114,-0.0035337,-0.08761,-0.51808,-2.3558,-0.93415,2.5406,0.0040458,-0.099297,0.0023743,-3.0485,0.24332,-0.47313,-0.11562,-0.10594,0.079497,0.16236,0.70403,0.6165,0.22548,0.61152,0.29352,0.45618
-0.020899,0.0052238,0.0021821,-0.077807,-0.56948,-2.4143,-0.84027,2.5768,0.034042,-0.13936,0.16479,-2.693,0.21025,-0.28613,-0.094257,0.060905,0.10354,0.19625,0.54517,0.55067,0.18693,0.46492,0.17242,0.35511
-0.022791,0.007506,0.0026821,-0.070046,-0.61714,-2.4541,-0.69412,2.5816,0.079501,-0.16658,0.31826,-2.1509,0.18719,-0.049812,-0.061085,0.24256,0.12991,0.22837,0.55592,0.43141,0.14282,0.2915,0.042832,0.24011
-0.027982,0.012309,-0.0031374,-0.064651,-0.65744,-2.4526,-0.51221,2.5581,0.13143,-0.18388,0.45055,-1.5141,0.17859,0.18129,-0.027106,0.38846,0.15557,0.25985,0.71705,0.2566,0.096317,0.11485,-0.069712,0.047879
-0.033512,0.020302,-0.013057,-0.056691,-0.69376,-2.4005,-0.33249,2.5048,0.17904,-0.209,0.54522,-0.8976,0.17886,0.3625,-0.0094544,0.45662,0.17677,0.29075,0.93545,0.036843,0.052111,-0.038342,-0.13985,-0.2505
-0.036543,0.029798,-0.022743,-0.039928,-0.73113,-2.3117,-0.20432,2.4142,0.21535,-0.25318,0.59161,-0.40204,0.18254,0.47713,-0.017235,0.43498,0.19195,0.32052,1.0882,-0.22693,0.01703,-0.14647,-0.15184,-0.61827
-0.036445,0.037982,-0.028709,-0.012024,-0.77108,-2.2194,-0.16249,2.2758,0.23951,-0.30709,0.58928,-0.082935,0.19072,0.53416,-0.043872,0.34858,0.20334,0.34813,1.0888,-0.54263,-0.0021147,-0.20032,-0.10696,-0.96359
-0.03488,0.04323,-0.031018,0.023024,-0.81085,-2.1612,-0.20297,2.0868,0.2547,-0.34702,0.54733,0.053111,0.20794,0.54976,-0.072121,0.24473,0.21474,0.3709,0.92972,-0.90126,-0.0018402,-0.20521,-0.023776,-1.1828
-0.03408,0.046164,-0.033497,0.056906,-0.84597,-2.1607,-0.2817,1.8618,0.26385,-0.35433,0.48272,0.027859,0.23288,0.52838,-0.086764,0.16432,0.22705,0.38399,0.67354,-1.254,0.016052,-0.17655,0.070053,-1.2086
-0.034967,0.048355,-0.040922,0.081802,-0.87266,-2.2157,-0.3411,1.6318,0.2679,-0.32868,0.41894,-0.13078,0.25242,0.45784,-0.083919,0.11923,0.23588,0.3824,0.40286,-1.5234,0.045141,-0.13218,0.1501,-1.0388
-0.036621,0.050053,-0.055105,0.094559,-0.88859,-2.3028,-0.34575,1.4301,0.26873,-0.28244,0.38201,-0.39289,0.24606,0.32212,-0.069948,0.091607,0.23404,0.36479,0.17171,-1.6504,0.077012,-0.086794,0.20475,-0.73314
-0.037237,0.049414,-0.072923,0.097676,-0.89376,-2.391,-0.30064,1.2735,0.27415,-0.22289,0.3913,-0.71517,0.19874,0.12256,-0.052554,0.054139,0.21743,0.3356,-0.0068762,-1.6416,0.1042,-0.051049,0.23693,-0.38564
-0.035502,0.044244,-0.087984,0.096953,-0.8929,-2.4592,-0.23962,1.1539,0.29924,-0.14149,0.44859,-1.0348,0.1122,-0.10817,-0.033067,-0.005412,0.18876,0.30258,-0.13771,-1.5726,0.12212,-0.033123,0.25801,-0.085655
-0.031286,0.034719,-0.094783,0.097709,-0.89697,-2.5051,-0.19663,1.0475,0.35988,-0.023029,0.53395,-1.2841,0.0054401,-0.31138,-0.0066524,-0.074447,0.15545,0.27108,-0.21643,-1.5361,0.12956,-0.038492,0.27845,0.11426
-0.025428,0.024461,-0.092258,0.10198,-0.91967,-2.5419,-0.18425,0.93328,0.4609,0.13295,0.6142,-1.4177,-0.097313,-0.42706,0.030803,-0.12663,0.12303,0.23969,-0.22889,-1.5719,0.12778,-0.066375,0.30109,0.20975
-0.019151,0.018737,-0.08419,0.10818,-0.9686,-2.5858,-0.19459,0.80892,0.58689,0.29924,0.66051,-1.4296,-0.18263,-0.42515,0.076461,-0.14343,0.090169,0.20108,-0.176,-1.6366,0.11879,-0.10668,0.32056,0.23152
-0.013637,0.021087,-0.076406,0.11308,-1.0373,-2.6434,-0.21622,0.6909,0.70406,0.43194,0.66282,-1.3439,-0.25626,-0.32489,0.12118,-0.12858,0.050402,0.14776,-0.094699,-1.6402,0.1038,-0.1429,0.32792,0.21749
-0.0097739,0.030919,-0.073055,0.11466,-1.1062,-2.7054,-0.24812,0.60085,0.7746,0.49885,0.63094,-1.1919,-0.33793,-0.18881,0.15656,-0.10533,-0.00019084,0.078307,-0.046873,-1.5203,0.082734,-0.16162,0.31652,0.18971
-0.0078612,0.043669,-0.074611,0.11384,-1.1536,-2.7505,-0.29782,0.54847,0.77605,0.50296,0.58254,-0.99605,-0.4465,-0.09262,0.18206,-0.10056,-0.055871,-0.0002777,-0.078359,-1.2918,0.055349,-0.16218,0.28485,0.15087
-0.0073203,0.053232,-0.078574,0.11369,-1.1686,-2.755,-0.3677,0.52334,0.71298,0.48102,0.5291,-0.77736,-0.58642,-0.086555,0.20577,-0.12918,-0.10144,-0.075551,-0.18036,-1.0294,0.022773,-0.15817,0.23494,0.099469
-0.0067929,0.055077,-0.081803,0.11656,-1.154,-2.7038,-0.44455,0.50047,0.61278,0.47792,0.47139,-0.57145,-0.74402,-0.16965,0.23822,-0.18993,-0.12071,-0.1352,-0.2873,-0.79771,-0.012246,-0.16852,0.16834,0.046106
-0.0048126,0.048489,-0.082517,0.1209,-1.1183,-2.5951,-0.50318,0.45526,0.50801,0.51674,0.40642,-0.43162,-0.89479,-0.29111,0.28393,-0.27269,-0.1072,-0.17158,-0.31652,-0.59367,-0.047238,-0.20557,0.083816,0.012865
-0.00066272,0.036919,-0.080727,0.12037,-1.0644,-2.4384,-0.52118,0.3778,0.41734,0.58672,0.33738,-0.40713,-1.0145,-0.37726,0.33741,-0.3679,-0.068815,-0.18337,-0.22158,-0.35598,-0.082649,-0.2697,-0.020927,0.014283
0.0052562,0.026098,-0.077264,0.10648,-0.98804,-2.2495,-0.49266,0.27782,0.33816,0.6553,0.27607,-0.50998,-1.0869,-0.36828,0.38613,-0.46888,-0.023016,-0.17465,-0.020626,-0.038674,-0.12246,-0.35365,-0.14453,0.037564
0.011824,0.02054,-0.072569,0.07354,-0.889,-2.0445,-0.4306,0.17779,0.25468,0.69189,0.23575,-0.6958,-1.1053,-0.24467,0.41783,-0.56633,0.013601,-0.15315,0.21823,0.31451,-0.17131,-0.44955,-0.27822,0.043322
0.017934,0.020333,-0.066281,0.02282,-0.78276,-1.839,-0.35775,0.099055,0.15428,0.68438,0.22159,-0.87471,-1.0712,-0.03159,0.42649,-0.64311,0.033473,-0.12828,0.42037,0.56584,-0.22971,-0.54939,-0.40659,-0.0087574
0.022901,0.02079,-0.057813,-0.036978,-0.69836,-1.6479,-0.29365,0.049529,0.038551,0.63881,0.22755,-0.94664,-0.99464,0.2173,0.4133,-0.67841,0.038764,-0.1087,0.54442,0.56495,-0.29111,-0.63786,-0.51304,-0.12762
0.026353,0.015968,-0.047252,-0.093476,-0.66015,-1.4843,-0.24602,0.0202,-0.078907,0.56769,0.24173,-0.84126,-0.89414,0.44456,0.38285,-0.66174,0.035887,-0.099508,0.59369,0.25834,-0.34361,-0.68698,-0.58647,-0.27812
0.028033,0.0039511,-0.035711,-0.13628,-0.66771,-1.3567,-0.20939,-0.0084093,-0.18482,0.47955,0.25432,-0.54386,-0.79399,0.60959,0.33822,-0.60645,0.029622,-0.10038,0.59786,-0.25927,-0.3755,-0.66325,-0.62474,-0.39941
0.027938,-0.010514,-0.024819,-0.16107,-0.69271,-1.2646,-0.16982,-0.054667,-0.27751,0.37714,0.26104,-0.098925,-0.71449,0.6984,0.27878,-0.5499,0.021504,-0.10639,0.5836,-0.79464,-0.38088,-0.54736,-0.63327,-0.44179
0.026642,-0.018976,-0.015797,-0.16998,-0.69786,-1.1978,-0.11277,-0.12643,-0.36735,0.26208,0.26028,0.40643,-0.66053,0.72285,0.2022,-0.53547,0.012215,-0.11161,0.5552,-1.1707,-0.36192,-0.3528,-0.6205,-0.39535
0.025257,-0.01615,-0.0088556,-0.16861,-0.66311,-1.1408,-0.031582,-0.21856,-0.46646,0.13804,0.24862,0.87127,-0.61747,0.71212,0.1087,-0.58552,0.0040408,-0.11293,0.49529,-1.3206,-0.32669,-0.1269,-0.59392,-0.29163
0.024812,-0.0050706,-0.0033009,-0.16224,-0.59773,-1.0794,0.067425,-0.31716,-0.57691,0.0077604,0.21979,1.2105,-0.56,0.69941,0.0046053,-0.68251,0.00026956,-0.11099,0.38136,-1.2949,-0.28464,0.069993,-0.55858,-0.18024
0.025554,0.0042804,0.0018842,-0.15349,-0.52919,-1.0047,0.16753,-0.40679,-0.68799,-0.13352,0.16814,1.3732,-0.46924,0.7068,-0.097448,-0.77164,0.0023475,-0.10718,0.2059,-1.1896,-0.24243,0.19452,-0.51768,-0.098508
0.02693,0.0023497,0.0074944,-0.14255,-0.48024,-0.91273,0.2529,-0.47663,-0.78464,-0.30065,0.093996,1.3425,-0.34538,0.7341,-0.18225,-0.785,0.0083904,-0.09955,-0.011602,-1.0606,-0.20173,0.23934,-0.47311,-0.05333
0.028358,-0.012498,0.013806,-0.12899,-0.45466,-0.80264,0.32259,-0.52357,-0.85975,-0.51202,0.0073895,1.123,-0.20588,0.75874,-0.23819,-0.67485,0.015302,-0.081941,-0.22738,-0.89241,-0.15967,0.22959,-0.42549,-0.022352
0.030028,-0.032587,0.020419,-0.11358,-0.44185,-0.67749,0.39586,-0.55177,-0.91926,-0.77484,-0.071666,0.72906,-0.071431,0.74958,-0.263,-0.43896,0.022842,-0.047751,-0.39106,-0.6359,-0.11138,0.20213,-0.37457,0.030352
0.032791,-0.046754,0.026183,-0.098646,-0.43235,-0.54784,0.50107,-0.56915,-0.97562,-1.0706,-0.11771,0.19063,0.047558,0.68911,-0.2659,-0.12593,0.035523,0.004378,-0.47104,-0.27125,-0.054272,0.18393,-0.32125,0.13433
0.037138,-0.048527,0.02949,-0.086878,-0.42696,-0.43323,0.65267,-0.58173,-1.0354,-1.3512,-0.10974,-0.42838,0.15275,0.59054,-0.26389,0.18161,0.0598,0.067972,-0.4744,0.16078,0.0080981,0.18308,-0.27003,0.2969
0.042259,-0.040149,0.029165,-0.079423,-0.43102,-0.35625,0.83276,-0.5889,-1.0921,-1.5519,-0.044239,-1.0179,0.24815,0.49678,-0.2731,0.39931,0.098208,0.13162,-0.44699,0.57823,0.065425,0.19392,-0.22929,0.49648
0.046246,-0.029819,0.025596,-0.074752,-0.44143,-0.33022,0.99422,-0.58347,-1.1299,-1.6181,0.056345,-1.4396,0.33029,0.45889,-0.29947,0.47634,0.14508,0.18496,-0.44823,0.90145,0.10501,0.20782,-0.2076,0.68808
0.047435,-0.025112,0.021113,-0.069448,-0.44224,-0.34915,1.087,-0.55816,-1.1365,-1.532,0.14903,-1.578,0.38881,0.50563,-0.3346,0.41827,0.18755,0.22299,-0.51173,1.0802,0.11932,0.22022,-0.20786,0.82035
0.04572,-0.028057,0.018916,-0.060668,-0.41584,-0.38938,1.0905,-0.5154,-1.1125,-1.3236,0.19206,-1.4011,0.41644,0.62377,-0.36031,0.28493,0.21173,0.24587,-0.61682,1.0902,0.1114,0.23121,-0.22387,0.85766
0.042613,-0.035076,0.020959,-0.048609,-0.36095,-0.42392,1.0278,-0.47218,-1.0705,-1.0581,0.172,-0.9906,0.41742,0.7635,-0.35975,0.16108,0.21022,0.25588,-0.69475,0.92011,0.093646,0.2424,-0.24259,0.79572
0.039996,-0.040723,0.026311,-0.0369,-0.29996,-0.43922,0.94903,-0.45365,-1.0247,-0.80625,0.11612,-0.51465,0.40449,0.86711,-0.32819,0.11292,0.18614,0.25502,-0.6719,0.57367,0.079715,0.25377,-0.25126,0.66079
0.038738,-0.041618,0.031386,-0.030231,-0.26657,-0.44128,0.89718,-0.47711,-0.97918,-0.61524,0.07702,-0.14932,0.3871,0.90258,-0.27606,0.15485,0.15136,0.24513,-0.5239,0.089465,0.075807,0.26217,-0.2442,0.49309
0.038431,-0.037846,0.032171,-0.030724,-0.28187,-0.44606,0.88132,-0.53722,-0.92491,-0.49698,0.096355,0.0093868,0.36308,0.87955,-0.22225,0.24765,0.11965,0.22896,-0.3012,-0.44865,0.077955,0.26096,-0.22438,0.32649
0.038349,-0.031791,0.027009,-0.0359,-0.33826,-0.46219,0.87688,-0.60457,-0.84587,-0.43619,0.17345,-0.0084095,0.32352,0.83724,-0.18267,0.32995,0.099058,0.20975,-0.10261,-0.93305,0.077434,0.24147,-0.19862,0.17936
0.038497,-0.026186,0.01802,-0.040046,-0.40477,-0.48098,0.84961,-0.6409,-0.73,-0.40854,0.26378,-0.072297,0.26779,0.81379,-0.16202,0.36167,0.087961,0.18914,-0.011019,-1.2778,0.069399,0.19724,-0.17064,0.061271
0.039607,-0.022985,0.010113,-0.038115,-0.45019,-0.48219,0.78137,-0.62114,-0.57657,-0.39385,0.31071,-0.035651,0.21477,0.81959,-0.15376,0.34939,0.077438,0.16584,-0.036232,-1.4531,0.05729,0.12999,-0.13737,-0.014219
0.04206,-0.023246,0.0081297,-0.029084,-0.46523,-0.45073,0.67762,-0.54666,-0.39692,-0.37787,0.28699,0.1734,0.19863,0.83317,-0.14673,0.33665,0.058569,0.13728,-0.10853,-1.4789,0.049605,0.053132,-0.091661,-0.026096
0.044923,-0.027272,0.013858,-0.01611,-0.46625,-0.39018,0.5545,-0.44053,-0.21008,-0.34715,0.21335,0.51191,0.25058,0.82017,-0.13232,0.36866,0.029613,0.10322,-0.12972,-1.3881,0.052495,-0.01119,-0.029419,0.041553
0.046219,-0.034457,0.024797,-0.0035051,-0.47885,-0.32193,0.42155,-0.33039,-0.037206,-0.28683,0.13887,0.85858,0.37975,0.75837,-0.10773,0.45837,-0.0022602,0.067941,-0.044808,-1.1953,0.064931,-0.041376,0.043912,0.18027
0.04438,-0.043087,0.035518,0.0066941,-0.51562,-0.27091,0.27665,-0.23338,0.10341,-0.18627,0.099055,1.101,0.56661,0.64928,-0.074907,0.57771,-0.026201,0.038275,0.11898,-0.90485,0.080236,-0.026152,0.11263,0.34871
0.03956,-0.050727,0.040868,0.015595,-0.56667,-0.24953,0.11562,-0.15392,0.20071,-0.047647,0.08618,1.2121,0.77217,0.50964,-0.038358,0.67693,-0.035998,0.018913,0.27341,-0.55076,0.091643,0.031923,0.15703,0.48519
0.033554,-0.05537,0.039068,0.025175,-0.6094,-0.25188,-0.056463,-0.092354,0.25429,0.11148,0.056991,1.2624,0.95514,0.35402,-0.0037223,0.71439,-0.034856,0.0090424,0.33187,-0.22164,0.096302,0.12096,0.1631,0.53498
0.028297,-0.056667,0.032661,0.035215,-0.62761,-0.2609,-0.22595,-0.052608,0.27505,0.26617,-0.028497,1.3584,1.0865,0.18661,0.02346,0.67527,-0.032687,0.0032842,0.26451,-0.034667,0.094483,0.22728,0.1296,0.47466
0.024292,-0.056203,0.026589,0.042487,-0.62356,-0.26127,-0.38352,-0.039744,0.28065,0.39784,-0.16962,1.5542,1.1553,0.010759,0.040145,0.56992,-0.038053,-0.0039646,0.10712,-0.064795,0.08594,0.33924,0.067761,0.31863
0.020404,-0.056369,0.024616,0.0431,-0.61402,-0.24764,-0.53589,-0.050439,0.2867,0.50353,-0.32108,1.8017,1.1663,-0.15263,0.04837,0.41971,-0.051255,-0.014487,-0.075474,-0.2831,0.06817,0.44551,-0.0061657,0.10735
0.015242,-0.058482,0.026588,0.035913,-0.61572,-0.22404,-0.70234,-0.068331,0.29827,0.59391,-0.42626,1.9775,1.1336,-0.2573,0.054855,0.2452,-0.063985,-0.025498,-0.23607,-0.55882,0.039038,0.53254,-0.079999,-0.11139
0.0088646,-0.061526,0.028539,0.023903,-0.63348,-0.19816,-0.89581,-0.07279,0.30784,0.6822,-0.46053,1.9669,1.0728,-0.24757,0.066034,0.0655,-0.065339,-0.032011,-0.36389,-0.73193,0.0014528,0.58733,-0.14955,-0.296
0.0032177,-0.062572,0.02566,0.012137,-0.66032,-0.17704,-1.1038,-0.056633,0.30178,0.77328,-0.44847,1.7434,0.99577,-0.092137,0.081531,-0.094648,-0.049083,-0.029788,-0.46655,-0.70565,-0.034777,0.60563,-0.21441,-0.41667
0.0008225,-0.058747,0.016025,0.0040592,-0.68733,-0.16679,-1.2867,-0.038055,0.27153,0.86129,-0.44173,1.3863,0.90887,0.18734,0.09205,-0.20144,-0.01681,-0.016768,-0.53941,-0.49289,-0.056638,0.59876,-0.26942,-0.45867
0.0027755,-0.049476,0.0023496,-0.00070226,-0.71408,-0.17377,-1.3976,-0.054713,0.22147,0.93659,-0.47702,1.0267,0.8144,0.51684,0.085084,-0.2211,0.024273,0.0070501,-0.55509,-0.18897,-0.055095,0.59105,-0.29971,-0.42872
0.0077112,-0.037485,-0.0095074,-0.0051956,-0.75134,-0.20321,-1.4119,-0.14158,0.16794,0.99488,-0.54989,0.76631,0.71342,0.80475,0.055196,-0.13958,0.0659,0.04,-0.48463,0.097662,-0.030686,0.6075,-0.2852,-0.36083
0.012532,-0.027776,-0.014213,-0.011796,-0.81576,-0.25472,-1.3435,-0.30702,0.12982,1.0396,-0.62433,0.62862,0.60779,0.99047,0.010966,0.019591,0.10189,0.078762,-0.33089,0.2988,0.0063478,0.65967,-0.21308,-0.31168
0.014266,-0.024973,-0.010199,-0.019703,-0.92133,-0.31879,-1.236,-0.52275,0.1172,1.0745,-0.66724,0.57074,0.50055,1.0737,-0.02746,0.19482,0.1287,0.11865,-0.14152,0.39096,0.041158,0.74011,-0.089893,-0.33981
0.01167,-0.030427,-0.00034354,-0.025493,-1.0723,-0.3781,-1.1359,-0.73329,0.12591,1.0931,-0.67659,0.53462,0.39578,1.1031,-0.039296,0.30957,0.14492,0.15496,0.014786,0.36812,0.06105,0.82836,0.056256,-0.47577
0.0056522,-0.040773,0.010083,-0.02619,-1.2589,-0.41374,-1.065,-0.87773,0.14092,1.0746,-0.68034,0.49001,0.29869,1.1337,-0.015291,0.3099,0.15138,0.18504,0.093181,0.22486,0.060077,0.90267,0.18633,-0.7013
-0.0013971,-0.04918,0.016575,-0.022031,-1.4562,-0.41209,-1.0128,-0.91199,0.14589,0.99292,-0.71023,0.43857,0.21523,1.1836,0.036655,0.19449,0.15173,0.20933,0.10286,-0.028459,0.039937,0.94804,0.2682,-0.95339
-0.0067531,-0.049173,0.017595,-0.016414,-1.6279,-0.36805,-0.95172,-0.82297,0.13223,0.8346,-0.77554,0.38806,0.14964,1.2243,0.095365,0.016501,0.1516,0.23022,0.096602,-0.33947,0.0079444,0.95655,0.29076,-1.1537
-0.0085037,-0.039112,0.0148,-0.013056,-1.7368,-0.28402,-0.86415,-0.63283,0.10216,0.61339,-0.85932,0.32908,0.10049,1.2084,0.13672,-0.14645,0.15575,0.24938,0.12625,-0.61642,-0.026307,0.92434,0.26601,-1.2468
-0.0065025,-0.024275,0.011638,-0.012909,-1.7604,-0.16773,-0.7595,-0.39377,0.06498,0.37048,-0.93707,0.23696,0.058934,1.1105,0.14437,-0.2364,0.16461,0.26574,0.19956,-0.77429,-0.054415,0.85168,0.21897,-1.2241
-0.0027883,-0.014325,0.011342,-0.013648,-1.7035,-0.031594,-0.66917,-0.17408,0.0298,0.15964,-0.99812,0.091972,0.012706,0.94967,0.1157,-0.24448,0.17307,0.27597,0.27366,-0.79329,-0.071903,0.74786,0.17307,-1.1212
-0.00089036,-0.017006,0.015299,-0.012232,-1.5973,0.10697,-0.62215,-0.036832,0.00016179,0.026422,-1.0493,-0.10594,-0.044748,0.77588,0.061027,-0.20697,0.17315,0.27718,0.29067,-0.73816,-0.079242,0.63516,0.14028,-0.9923
-0.0038554,-0.032204,0.022389,-0.0082167,-1.4828,0.22724,-0.61815,-0.017812,-0.02628,-0.0071453,-1.0989,-0.34148,-0.10623,0.63557,-0.0027541,-0.17371,0.15908,0.26936,0.22598,-0.71423,-0.080317,0.5448,0.12091,-0.87991
-0.01197,-0.051122,0.029555,-0.0046497,-1.3866,0.31084,-0.61766,-0.11338,-0.053517,0.052606,-1.1366,-0.59806,-0.15123,0.54285,-0.060256,-0.174,0.13157,0.25551,0.10939,-0.78933,-0.078822,0.50373,0.11057,-0.79557
-0.021976,-0.061944,0.03343,-0.0054999,-1.3065,0.34875,-0.55796,-0.28624,-0.082162,0.17418,-1.1319,-0.86221,-0.157,0.47488,-0.10335,-0.20507,0.098041,0.23952,0.0023846,-0.94219,-0.074774,0.52039,0.10741,-0.72106
-0.028877,-0.058182,0.032248,-0.011769,-1.2179,0.3447,-0.38737,-0.48625,-0.10774,0.30822,-1.0523,-1.1125,-0.114,0.38909,-0.13187,-0.24738,0.068742,0.22377,-0.048034,-1.0793,-0.063878,0.58012,0.11376,-0.62558
-0.029432,-0.043305,0.026854,-0.019897,-1.0974,0.31176,-0.097856,-0.67308,-0.12358,0.39906,-0.89121,-1.3082,-0.034866,0.24653,-0.14987,-0.28909,0.051134,0.20888,-0.040084,-1.1079,-0.040708,0.65508,0.13182,-0.48804
-0.024689,-0.027892,0.020104,-0.024238,-0.94514,0.26432,0.26433,-0.8262,-0.12598,0.40229,-0.68063,-1.3978,0.050192,0.028864,-0.16089,-0.33588,0.046184,0.19521,-0.0089407,-1.0085,-0.0037714,0.72195,0.15814,-0.31171
-0.019345,-0.021582,0.015036,-0.021745,-0.7875,0.21144,0.61827,-0.93909,-0.11732,0.3048,-0.47807,-1.3493,0.10899,-0.25362,-0.16573,-0.39791,0.048679,0.1841,0.0096669,-0.85336,0.041282,0.77419,0.18285,-0.12348
-0.018189,-0.026331,0.013146,-0.014757,-0.65616,0.15619,0.88851,-1.0074,-0.10473,0.13593,-0.3357,-1.1804,0.12331,-0.5608,-0.16379,-0.46753,0.05109,0.17705,0.010182,-0.76067,0.082984,0.81933,0.19506,0.041325
-0.022404,-0.036197,0.013957,-0.0092398,-0.55989,0.10026,1.0425,-1.0248,-0.095448,-0.041879,-0.27197,-0.96085,0.094531,-0.83002,-0.1556,-0.51024,0.048397,0.17339,0.016506,-0.82062,0.10936,0.86414,0.19033,0.15895
-0.028783,-0.043183,0.015961,-0.0098296,-0.47302,0.048565,1.1033,-0.99021,-0.092789,-0.16294,-0.26438,-0.7778,0.037185,-0.9956,-0.14377,-0.48036,0.040826,0.16943,0.053887,-1.0457,0.11377,0.90136,0.17341,0.22883
-0.032539,-0.043736,0.017936,-0.015969,-0.35248,0.0092865,1.1296,-0.91777,-0.095702,-0.19312,-0.26645,-0.68866,-0.032232,-1.0175,-0.13126,-0.35132,0.032939,0.16044,0.12106,-1.3717,0.097567,0.91087,0.15338,0.26919
-0.031326,-0.040482,0.01957,-0.022542,-0.17143,-0.010808,1.1776,-0.83516,-0.10182,-0.14838,-0.23569,-0.69515,-0.10113,-0.90433,-0.11927,-0.13797,0.029847,0.14439,0.18737,-1.6974,0.068101,0.87604,0.13541,0.30072
-0.027045,-0.038403,0.021094,-0.02437,0.056945,-0.011496,1.2687,-0.76823,-0.11086,-0.0854,-0.15435,-0.75861,-0.1583,-0.71252,-0.10718,0.10595,0.033123,0.12374,0.21519,-1.9306,0.033956,0.80141,0.11687,0.33116
-0.023933,-0.039517,0.022523,-0.020471,0.28519,-0.00040845,1.384,-0.72263,-0.12515,-0.070794,-0.032016,-0.84215,-0.18881,-0.51855,-0.09482,0.31396,0.039182,0.10339,0.18584,-2.0144,0.00076138,0.7145,0.092259,0.35211
-0.024623,-0.040944,0.023247,-0.014349,0.46203,0.010053,1.4836,-0.67903,-0.1471,-0.14739,0.10661,-0.94362,-0.17496,-0.37999,-0.084716,0.43893,0.041248,0.086289,0.10704,-1.9328,-0.030095,0.64639,0.062514,0.34872
-0.027656,-0.037811,0.022295,-0.010304,0.56311,0.0072782,1.5343,-0.60726,-0.17565,-0.31469,0.23722,-1.0907,-0.10517,-0.31249,-0.081275,0.47149,0.033595,0.070804,-0.00030404,-1.7059,-0.060016,0.60367,0.039198,0.31245
-0.028625,-0.028032,0.019036,-0.0094064,0.59851,-0.018594,1.5227,-0.48807,-0.2049,-0.52993,0.34453,-1.3015,0.015952,-0.2965,-0.086849,0.43594,0.015222,0.052287,-0.11975,-1.3837,-0.091002,0.55338,0.03732,0.24631
-0.023968,-0.014597,0.013799,-0.0088566,0.59472,-0.073792,1.4512,-0.32465,-0.22588,-0.72577,0.42232,-1.5435,0.16608,-0.30433,-0.097856,0.36942,-0.0094415,0.027611,-0.24377,-1.0356,-0.1245,0.4347,0.061033,0.16022
-0.01417,-0.0034121,0.0080062,-0.0051286,0.57005,-0.16042,1.324,-0.13509,-0.2301,-0.83591,0.4703,-1.7294,0.31494,-0.3227,-0.10496,0.29902,-0.03314,-0.0015594,-0.36415,-0.72942,-0.16141,0.19233,0.094571,0.063033
-0.0036085,0.0013208,0.0035848,0.0022764,0.52537,-0.27507,1.1434,0.065074,-0.21275,-0.81956,0.49302,-1.7593,0.4388,-0.35355,-0.098363,0.23048,-0.049763,-0.029699,-0.46268,-0.5035,-0.20205,-0.18906,0.10835,-0.041198
0.0027696,0.00020565,0.0018322,0.010091,0.45506,-0.40752,0.9177,0.27344,-0.17409,-0.6763,0.50071,-1.5827,0.52904,-0.39809,-0.074771,0.15417,-0.057106,-0.051621,-0.51623,-0.35106,-0.24538,-0.67034,0.077956,-0.15086
0.0031313,-0.0022522,0.0023695,0.014246,0.36368,-0.54166,0.67253,0.49508,-0.11922,-0.44435,0.50765,-1.2358,0.58975,-0.44413,-0.040475,0.063274,-0.057026,-0.066032,-0.51432,-0.23143,-0.28809,-1.1714,0.0020875,-0.2626
-0.00019618,-0.0015832,0.003044,0.01375,0.2699,-0.65988,0.45036,0.72752,-0.056742,-0.18206,0.52527,-0.82492,0.62811,-0.47219,-0.0073447,-0.028711,-0.053573,-0.075392,-0.47271,-0.10555,-0.32469,-1.6039,-0.095126,-0.36927
-0.0029669,0.0031467,0.0011959,0.011847,0.19383,-0.74915,0.2956,0.95201,0.0034638,0.058327,0.55339,-0.46487,0.6461,-0.47453,0.015939,-0.0853,-0.050767,-0.082652,-0.42819,0.029741,-0.34912,-1.9038,-0.17967,-0.45977
-0.0024526,0.0091777,-0.0043821,0.01332,0.14087,-0.80519,0.23593,1.1401,0.053304,0.24897,0.57732,-0.21784,0.63931,-0.46692,0.030833,-0.065435,-0.05124,-0.088361,-0.41661,0.13817,-0.3565,-2.0494,-0.22869,-0.51852
0.00080221,0.013139,-0.012329,0.020264,0.098934,-0.83176,0.27275,1.2695,0.089616,0.38626,0.57561,-0.074205,0.60174,-0.47831,0.048212,0.045086,-0.055813,-0.09093,-0.4518,0.1789,-0.34375,-2.0568,-0.24035,-0.52528
0.004137,0.01446,-0.019593,0.029981,0.051808,-0.83543,0.38376,1.3362,0.11534,0.47572,0.53544,0.014532,0.53114,-0.5249,0.079847,0.20956,-0.063402,-0.08939,-0.52238,0.15415,-0.30901,-1.9619,-0.22581,-0.46026
0.0055847,0.015996,-0.023807,0.036779,-0.0041413,-0.81966,0.53071,1.3518,0.13719,0.51754,0.4649,0.083092,0.4312,-0.59231,0.12824,0.34458,-0.071086,-0.085336,-0.60634,0.12852,-0.25178,-1.801,-0.19276,-0.31729
0.0058564,0.021333,-0.025201,0.03612,-0.056254,-0.78311,0.66625,1.3326,0.16077,0.50649,0.39251,0.12718,0.31073,-0.64404,0.18259,0.358,-0.074814,-0.081732,-0.68716,0.19634,-0.17484,-1.6015,-0.13657,-0.11962
0.0079135,0.031226,-0.026263,0.02774,-0.088491,-0.72443,0.74218,1.2884,0.18687,0.44493,0.35286,0.1278,0.18252,-0.65193,0.22405,0.2029,-0.071143,-0.079839,-0.75585,0.41461,-0.086948,-1.3836,-0.047546,0.075274
0.014576,0.04246,-0.029399,0.01537,-0.098976,-0.65042,0.72442,1.2225,0.2124,0.35361,0.3668,0.10227,0.063169,-0.62315,0.23632,-0.085411,-0.059428,-0.077883,-0.80014,0.75106,-0.0031246,-1.1646,0.073031,0.19293
0.026094,0.050256,-0.034733,0.003616,-0.1059,-0.58099,0.61065,1.1379,0.23547,0.26604,0.42907,0.13205,-0.028609,-0.59962,0.21416,-0.39661,-0.042944,-0.073416,-0.7979,1.0911,0.059823,-0.95756,0.20439,0.17788
0.039526,0.052172,-0.040163,-0.0052799,-0.13607,-0.54511,0.4356,1.0426,0.25975,0.20857,0.51068,0.33331,-0.077659,-0.62741,0.16512,-0.59819,-0.027807,-0.067185,-0.72881,1.3046,0.091113,-0.76324,0.31479,0.028217
0.050339,0.050056,-0.043532,-0.012252,-0.20543,-0.56802,0.25246,0.94695,0.29268,0.18374,0.5738,0.78362,-0.081226,-0.71825,0.10535,-0.6056,-0.020027,-0.064165,-0.59839,1.3259,0.092299,-0.56589,0.38101,-0.19566
0.055127,0.048271,-0.044716,-0.019487,-0.30721,-0.6569,0.098867,0.85672,0.33759,0.1732,0.58955,1.459,-0.055079,-0.83187,0.053714,-0.42819,-0.022598,-0.069907,-0.45026,1.1882,0.077164,-0.34296,0.40229,-0.39873
0.05358,0.04973,-0.045462,-0.027688,-0.41622,-0.79428,-0.025982,0.76806,0.38632,0.15854,0.54869,2.233,-0.03038,-0.89215,0.026681,-0.16297,-0.034539,-0.085275,-0.34792,0.98812,0.064392,-0.087203,0.39681,-0.50072
0.048445,0.053232,-0.047213,-0.034968,-0.50474,-0.9442,-0.15161,0.67234,0.42025,0.14062,0.4615,2.9417,-0.040093,-0.827,0.033638,0.059731,-0.052305,-0.10488,-0.33296,0.81191,0.067303,0.1753,0.38403,-0.47601
0.04357,0.054587,-0.0493,-0.038268,-0.55766,-1.0681,-0.30026,0.56724,0.42134,0.1382,0.34948,3.4691,-0.10171,-0.60764,0.071882,0.14534,-0.072124,-0.1212,-0.39161,0.68414,0.087181,0.38916,0.36841,-0.35828
0.041471,0.050677,-0.049646,-0.036099,-0.57688,-1.141,-0.45691,0.46496,0.38558,0.16603,0.2352,3.7877,-0.20719,-0.26655,0.12416,0.078239,-0.091355,-0.1308,-0.45908,0.57729,0.11417,0.49829,0.33766,-0.20888
0.042191,0.042927,-0.047537,-0.030301,-0.57472,-1.1599,-0.57457,0.38898,0.32787,0.21254,0.13501,3.9342,-0.32711,0.11302,0.16339,-0.082646,-0.10818,-0.13657,-0.46234,0.46614,0.13443,0.48043,0.27532,-0.074127
0.044186,0.036943,-0.045628,-0.02533,-0.56338,-1.1395,-0.61268,0.35947,0.27306,0.23923,0.056068,3.9493,-0.42709,0.43001,0.16545,-0.24668,-0.1207,-0.14396,-0.36953,0.37245,0.13806,0.36124,0.17543,0.03777
0.046325,0.038322,-0.048694,-0.025443,-0.54816,-1.1009,-0.57473,0.37749,0.23964,0.20498,-0.0031512,3.8441,-0.48621,0.60719,0.12326,-0.34198,-0.12697,-0.1548,-0.20817,0.35707,0.12293,0.19657,0.046985,0.14728
0.049086,0.047978,-0.059562,-0.031768,-0.52701,-1.0593,-0.51045,0.42005,0.22836,0.096001,-0.050108,3.6156,-0.50674,0.62555,0.051207,-0.34383,-0.12648,-0.16507,-0.040037,0.46745,0.093009,0.03687,-0.093211,0.27528
0.053816,0.060992,-0.07556,-0.041344,-0.49408,-1.0192,-0.4795,0.45092,0.22436,-0.063483,-0.093626,3.2891,-0.50999,0.53572,-0.02494,-0.27121,-0.12167,-0.16919,0.084423,0.68997,0.054521,-0.097828,-0.23045,0.42194
0.060777,0.070062,-0.088946,-0.048835,-0.44357,-0.97766,-0.50792,0.44033,0.2102,-0.22826,-0.13865,2.9309,-0.52191,0.43766,-0.085816,-0.16297,-0.11771,-0.16663,0.1552,0.95127,0.013768,-0.21434,-0.35548,0.56798
0.068018,0.07078,-0.091762,-0.049829,-0.37233,-0.9347,-0.57472,0.37994,0.17863,-0.36174,-0.18307,2.612,-0.55695,0.43365,-0.12924,-0.054038,-0.12021,-0.16476,0.1959,1.1656,-0.022258,-0.3208,-0.46032,0.69086
0.072469,0.064415,-0.081787,-0.043525,-0.2815,-0.90057,-0.63744,0.28384,0.13574,-0.45373,-0.21951,2.3552,-0.60879,0.5759,-0.1647,0.036088,-0.1323,-0.17468,0.23287,1.2829,-0.044863,-0.40429,-0.53366,0.77716
0.07247,0.05613,-0.064906,-0.033062,-0.17683,-0.89581,-0.67134,0.17709,0.093892,-0.51425,-0.24229,2.1215,-0.65275,0.83777,-0.19686,0.10286,-0.1533,-0.20333,0.27011,1.2943,-0.045505,-0.43229,-0.56283,0.82043
0.069425,0.050438,-0.051567,-0.023324,-0.06687,-0.94163,-0.68729,0.08209,0.062262,-0.5533,-0.25445,1.8551,-0.65892,1.1269,-0.21444,0.15172,-0.17983,-0.24822,0.28975,1.1971,-0.020892,-0.37695,-0.54165,0.81215
0.066855,0.047886,-0.049499,-0.017786,0.041006,-1.047,-0.71638,0.012478,0.043028,-0.56762,-0.26801,1.5452,-0.60953,1.3349,-0.1967,0.19312,-0.20806,-0.29865,0.27345,0.96387,0.022117,-0.24137,-0.47738,0.74128
0.067528,0.045523,-0.058028,-0.016575,0.14412,-1.2013,-0.7799,-0.024303,0.034188,-0.54629,-0.29466,1.2416,-0.5108,1.3943,-0.1334,0.23698,-0.23517,-0.34183,0.22251,0.55418,0.066525,-0.065972,-0.38988,0.60709
0.07119,0.040238,-0.068522,-0.016997,0.24402,-1.3777,-0.87373,-0.02243,0.033716,-0.48722,-0.33285,1.0015,-0.39055,1.3111,-0.040081,0.2857,-0.25879,-0.36927,0.15839,-0.033209,0.091864,0.090388,-0.30318,0.43216
0.074889,0.031764,-0.070948,-0.015904,0.34162,-1.5458,-0.97851,0.021932,0.039808,-0.40555,-0.36232,0.81712,-0.28071,1.1534,0.047407,0.32988,-0.27583,-0.37922,0.10464,-0.71716,0.084354,0.18123,-0.23502,0.25832
0.075551,0.022834,-0.061647,-0.011965,0.43206,-1.6846,-1.0808,0.10518,0.047712,-0.32337,-0.35314,0.59684,-0.19482,1.0069,0.097238,0.35289,-0.28235,-0.37524,0.067312,-1.3451,0.044252,0.19454,-0.19088,0.12306
0.072452,0.016728,-0.046181,-0.0061091,0.50507,-1.788,-1.1821,0.21193,0.048262,-0.24953,-0.28454,0.22679,-0.11706,0.92384,0.10572,0.34433,-0.27542,-0.36297,0.031263,-1.7576,-0.014517,0.15391,-0.16483,0.034545
0.067499,0.014642,-0.034911,-9.2812e-005,0.5516,-1.8613,-1.2886,0.31734,0.031762,-0.16964,-0.15961,-0.33512,-0.014128,0.89489,0.10067,0.31246,-0.25559,-0.34753,-0.024364,-1.8599,-0.072364,0.10069,-0.14521,-0.032016
0.063363,0.015019,-0.034787,0.0053034,0.57091,-1.9121,-1.3937,0.39519,-0.0051104,-0.057967,-0.0036733,-1.0158,0.13562,0.85744,0.12041,0.2828,-0.22738,-0.33192,-0.10414,-1.6499,-0.11458,0.069266,-0.12149,-0.11156
0.061336,0.015013,-0.043983,0.010805,0.571,-1.9427,-1.4743,0.42541,-0.055689,0.09738,0.15256,-1.6732,0.31713,0.73427,0.18509,0.28008,-0.19682,-0.31613,-0.18594,-1.1924,-0.13783,0.069189,-0.089136,-0.21888
0.060733,0.012465,-0.053611,0.01762,0.56093,-1.9485,-1.5056,0.39646,-0.10682,0.27804,0.29163,-2.1918,0.47998,0.47954,0.28273,0.30627,-0.16775,-0.29727,-0.23143,-0.57272,-0.14896,0.082546,-0.050819,-0.33705
0.060002,0.0068097,-0.054888,0.026042,0.54242,-1.9202,-1.4795,0.30463,-0.1467,0.44306,0.41476,-2.5452,0.56952,0.10589,0.37937,0.33435,-0.13988,-0.27126,-0.21133,0.13149,-0.15796,0.076949,-0.013396,-0.43365
0.058201,-0.001263,-0.045803,0.035061,0.50933,-1.8498,-1.4098,0.15595,-0.17035,0.55496,0.53099,-2.7787,0.56608,-0.32303,0.4432,0.32618,-0.11052,-0.23624,-0.12822,0.84933,-0.17027,0.026619,0.01756,-0.48831
0.055555,-0.010425,-0.032084,0.043195,0.45676,-1.7355,-1.3179,-0.027813,-0.1785,0.6025,0.64091,-2.9397,0.50101,-0.72895,0.46251,0.26252,-0.0785,-0.19541,-0.020794,1.5095,-0.18379,-0.070451,0.042156,-0.50549
0.052935,-0.018876,-0.022209,0.049614,0.39097,-1.584,-1.2149,-0.20605,-0.1724,0.6022,0.73019,-3.0298,0.43436,-1.0596,0.44558,0.16059,-0.046676,-0.15672,0.054607,2.0476,-0.19169,-0.18939,0.065892,-0.50174
0.051105,-0.02443,-0.02091,0.054494,0.32966,-1.4093,-1.0962,-0.32881,-0.15092,0.57963,0.77851,-3.0212,0.41046,-1.3051,0.4066,0.062971,-0.020696,-0.1288,0.054464,2.4247,-0.1882,-0.29113,0.094334,-0.48257
0.050392,-0.025364,-0.02628,0.058488,0.29008,-1.2276,-0.95367,-0.36,-0.11315,0.54876,0.77505,-2.9162,0.42709,-1.4795,0.35205,0.0048835,-0.0050295,-0.11558,-0.027752,2.635,-0.17276,-0.34244,0.1268,-0.43396
0.050749,-0.021917,-0.032149,0.062001,0.27462,-1.0515,-0.79177,-0.30121,-0.063525,0.50683,0.72592,-2.7797,0.44387,-1.5862,0.27821,-0.014051,0.00011564,-0.11383,-0.15792,2.692,-0.14986,-0.33035,0.1547,-0.33857
0.05173,-0.017033,-0.033164,0.06488,0.26698,-0.88646,-0.63211,-0.19654,-0.012883,0.44679,0.64687,-2.7039,0.42275,-1.5996,0.17924,-0.029917,-0.0017296,-0.11568,-0.27976,2.6101,-0.12552,-0.26337,0.16664,-0.2003
0.05237,-0.014992,-0.028361,0.066548,0.24387,-0.7317,-0.50078,-0.1095,0.027517,0.373,0.54864,-2.7301,0.36589,-1.4863,0.056644,-0.084932,-0.0066134,-0.11404,-0.34416,2.4052,-0.10365,-0.16215,0.15673,-0.049969
0.051415,-0.018347,-0.020934,0.066254,0.19345,-0.58485,-0.41027,-0.084034,0.054546,0.30492,0.42893,-2.799,0.31816,-1.2525,-0.077623,-0.19099,-0.012848,-0.10659,-0.33277,2.1165,-0.084868,-0.049485,0.129,0.077904
0.048181,-0.025571,-0.015153,0.063356,0.12523,-0.44659,-0.35196,-0.11703,0.076475,0.26595,0.27848,-2.7778,0.33147,-0.97751,-0.20495,-0.31533,-0.0205,-0.095399,-0.26341,1.8218,-0.067722,0.053114,0.093998,0.17817
0.043484,-0.031713,-0.013322,0.057758,0.062664,-0.32193,-0.30506,-0.16334,0.10702,0.26856,0.094928,-2.5493,0.42105,-0.79738,-0.30637,-0.40031,-0.028656,-0.083437,-0.17572,1.6131,-0.05062,0.12317,0.060364,0.28589
0.039592,-0.031955,-0.01497,0.050391,0.023969,-0.21779,-0.25342,-0.1707,0.15444,0.30848,-0.10936,-2.0932,0.55042,-0.83853,-0.36736,-0.4029,-0.033922,-0.071665,-0.1061,1.5401,-0.032617,0.13631,0.02834,0.45017
0.038738,-0.025306,-0.018203,0.043236,0.0065281,-0.13905,-0.19554,-0.11824,0.21468,0.37085,-0.31297,-1.4987,0.65724,-1.1416,-0.38113,-0.32446,-0.032479,-0.059504,-0.066954,1.5649,-0.013144,0.071498,-0.0089862,0.68987
0.041167,-0.015428,-0.021446,0.038468,-0.012403,-0.085915,-0.14111,-0.02962,0.27417,0.43999,-0.49874,-0.90696,0.69816,-1.6274,-0.35125,-0.20953,-0.024125,-0.047552,-0.042771,1.574,0.0081644,-0.079961,-0.057812,0.96801
0.044386,-0.0079884,-0.024015,0.03714,-0.059112,-0.053719,-0.099536,0.048133,0.31986,0.50319,-0.66156,-0.4338,0.67612,-2.1284,-0.29258,-0.1159,-0.014182,-0.039162,-0.0056634,1.4503,0.030867,-0.30799,-0.11576,1.2076
0.044614,-0.0068452,-0.02547,0.038467,-0.14391,-0.034437,-0.071754,0.081397,0.34797,0.54745,-0.80335,-0.12858,0.63008,-2.4646,-0.2271,-0.079204,-0.010558,-0.038687,0.059852,1.1541,0.053065,-0.5844,-0.17064,1.3369
0.039537,-0.012035,-0.024953,0.040465,-0.25359,-0.018824,-0.051409,0.072711,0.3649,0.55671,-0.92146,0.016823,0.59927,-2.5163,-0.17399,-0.096314,-0.017709,-0.047729,0.14065,0.75236,0.07194,-0.86913,-0.20685,1.329
0.030235,-0.020623,-0.021525,0.041532,-0.36091,0.0010764,-0.031756,0.053026,0.38024,0.51636,-1.0037,0.036722,0.59351,-2.2575,-0.1391,-0.13555,-0.032502,-0.062866,0.20105,0.37625,0.085622,-1.1175,-0.21448,1.2078
0.020634,-0.029077,-0.015234,0.041596,-0.44302,0.02935,-0.01029,0.052859,0.39839,0.42285,-1.0368,-0.028132,0.59336,-1.745,-0.11198,-0.16122,-0.0458,-0.077072,0.20906,0.1401,0.094887,-1.286,-0.19431,1.0235
0.014788,-0.035143,-0.0076553,0.041807,-0.49452,0.064785,0.012783,0.077812,0.41501,0.28871,-1.022,-0.13185,0.57636,-1.0851,-0.07497,-0.1528,-0.048866,-0.083719,0.16425,0.08186,0.10289,-1.3387,-0.15598,0.82267
0.014042,-0.038371,-0.0010889,0.043096,-0.52656,0.10222,0.03871,0.1076,0.42009,0.13627,-0.98229,-0.22428,0.54415,-0.40073,-0.018628,-0.10802,-0.039497,-0.079975,0.10453,0.15847,0.11272,-1.2554,-0.11149,0.6367
0.016199,-0.039766,0.0030486,0.045008,-0.55472,0.13652,0.070729,0.11629,0.4043,-0.0156,-0.95367,-0.26485,0.52659,0.19577,0.048578,-0.034646,-0.023012,-0.067368,0.083695,0.28526,0.12483,-1.0404,-0.069212,0.4885
0.017237,-0.041167,0.005136,0.045974,-0.58683,0.16639,0.10933,0.094376,0.36386,-0.15977,-0.96528,-0.23864,0.55999,0.62803,0.10529,0.056997,-0.0075551,-0.049909,0.13445,0.3825,0.13652,-0.72598,-0.031877,0.39979
0.01421,-0.044278,0.0066217,0.044779,-0.62018,0.19446,0.14723,0.054771,0.30152,-0.29593,-1.0234,-0.15293,0.6581,0.87757,0.13393,0.15411,0.0021138,-0.031791,0.2446,0.40082,0.14422,-0.36746,0.0013008,0.38494
0.007231,-0.04926,0.0082711,0.04178,-0.64818,0.22364,0.17092,0.02071,0.22481,-0.41766,-1.1096,-0.011585,0.79897,0.98784,0.13532,0.23796,0.0072346,-0.016154,0.36506,0.32394,0.14626,-0.027467,0.030875,0.43624
-0.00078846,-0.053703,0.0090629,0.038593,-0.66869,0.25352,0.16983,0.0087461,0.14348,-0.50552,-1.1923,0.20596,0.93631,1.0376,0.12825,0.28539,0.012315,-0.0048704,0.44372,0.16317,0.14377,0.24338,0.054567,0.51828
-0.0062544,-0.053351,0.0068866,0.036465,-0.68559,0.28158,0.14663,0.020985,0.067816,-0.53596,-1.2407,0.5299,1.0249,1.0921,0.13361,0.2784,0.019902,0.001399,0.45895,-0.046267,0.13865,0.4222,0.067486,0.58224
-0.0072638,-0.044902,0.00054395,0.034863,-0.7027,0.30923,0.11914,0.049466,0.0072887,-0.50051,-1.2335,0.95166,1.0406,1.1631,0.15645,0.21559,0.027551,0.0030857,0.42815,-0.25069,0.13096,0.51805,0.065261,0.59099
-0.0046107,-0.029116,-0.0086816,0.031732,-0.71687,0.34702,0.11045,0.084494,-0.031064,-0.41852,-1.1601,1.3843,0.98342,1.2081,0.18151,0.11579,0.029523,0.0012345,0.38773,-0.39374,0.11838,0.56162,0.048559,0.53475
-0.00093827,-0.011506,-0.017303,0.025346,-0.71767,0.41246,0.13333,0.11813,-0.044797,-0.3306,-1.0214,1.6797,0.8658,1.1695,0.18664,0.00958,0.021695,-0.0032838,0.36384,-0.44078,0.098788,0.5843,0.026122,0.42529
0.0010927,0.00052392,-0.021617,0.016115,-0.69417,0.51985,0.18109,0.14211,-0.037586,-0.27607,-0.83009,1.7056,0.70006,1.0255,0.16247,-0.076032,0.0056967,-0.010068,0.35779,-0.39747,0.073578,0.59804,0.013306,0.27728
0.00020076,0.0023009,-0.019894,0.006699,-0.6425,0.66911,0.23287,0.14605,-0.018726,-0.27134,-0.60957,1.4334,0.49556,0.81252,0.1217,-0.12956,-0.010909,-0.018367,0.35486,-0.30678,0.048719,0.58925,0.025211,0.096768
-0.0033546,-0.0052125,-0.013193,0.00026361,-0.5669,0.84259,0.2705,0.12037,-8.9812e-005,-0.30561,-0.38614,0.96668,0.26523,0.60732,0.090275,-0.15651,-0.018536,-0.0258,0.34425,-0.22281,0.032032,0.53235,0.067376,-0.11152
-0.0085053,-0.016432,-0.0044153,-0.0016325,-0.47429,1.0128,0.29379,0.061275,0.0083206,-0.35513,-0.17883,0.48797,0.031233,0.48506,0.088468,-0.17138,-0.010951,-0.028257,0.33034,-0.17827,0.028644,0.41471,0.12997,-0.32705
-0.014074,-0.025204,0.0035244,0.00017848,-0.36892,1.1557,0.32142,-0.02771,0.0019209,-0.40251,0.005303,0.16238,-0.17993,0.48651,0.11747,-0.18704,0.011221,-0.021895,0.32631,-0.16923,0.038042,0.25431,0.19037,-0.50775
-0.018959,-0.028775,0.0091284,0.003419,-0.253,1.2603,0.37518,-0.13955,-0.017705,-0.44559,0.16494,0.067575,-0.35198,0.60976,0.16123,-0.20819,0.040718,-0.0061067,0.33838,-0.16832,0.05475,0.095068,0.22374,-0.60758
-0.022161,-0.028902,0.012605,0.0059733,-0.13216,1.329,0.45945,-0.26836,-0.044977,-0.49121,0.29312,0.19127,-0.49011,0.81988,0.19979,-0.23093,0.067211,0.015041,0.3574,-0.15537,0.071744,-0.01863,0.21531,-0.60712
-0.023233,-0.029716,0.015161,0.0068236,-0.017785,1.3718,0.55298,-0.40979,-0.073689,-0.54293,0.37393,0.47762,-0.61628,1.0613,0.22184,-0.24591,0.082137,0.034473,0.36559,-0.13905,0.0839,-0.069345,0.16678,-0.53154
-0.022942,-0.034248,0.017953,0.0059592,0.078485,1.3991,0.62155,-0.5572,-0.099404,-0.59554,0.3946,0.86982,-0.74899,1.2676,0.22759,-0.24184,0.082374,0.045969,0.35156,-0.14977,0.089441,-0.074566,0.093128,-0.43797
-0.023223,-0.042147,0.021305,0.0039122,0.1544,1.4197,0.64326,-0.69938,-0.12001,-0.64107,0.3644,1.315,-0.88377,1.374,0.22298,-0.20866,0.071177,0.047579,0.31911,-0.20767,0.089345,-0.069259,0.013691,-0.3789
-0.025841,-0.049929,0.024545,0.0015836,0.22061,1.442,0.62662,-0.82375,-0.13529,-0.67945,0.32124,1.7445,-0.99339,1.3373,0.21309,-0.14154,0.05622,0.042385,0.28201,-0.29242,0.085919,-0.077591,-0.055826,-0.36855
-0.030621,-0.053336,0.026438,0.0002378,0.29244,1.4745,0.60585,-0.92263,-0.14679,-0.7222,0.31423,2.0701,-1.0508,1.1533,0.20066,-0.046193,0.045835,0.036498,0.25069,-0.34327,0.081566,-0.096561,-0.10561,-0.37844
-0.035011,-0.050107,0.02597,0.0010857,0.37572,1.5258,0.61544,-0.99617,-0.15827,-0.78397,0.37151,2.2194,-1.0566,0.85748,0.18848,0.057692,0.045208,0.03577,0.22367,-0.29495,0.077862,-0.10328,-0.12971,-0.36541
-0.035904,-0.041486,0.023052,0.0043696,0.45963,1.6024,0.66335,-1.0495,-0.17538,-0.86751,0.47804,2.1865,-1.0463,0.50617,0.18007,0.13929,0.054215,0.042939,0.19097,-0.12472,0.074922,-0.077825,-0.12472,-0.30976
-0.03245,-0.031621,0.01873,0.0087281,0.52447,1.708,0.72452,-1.0883,-0.20349,-0.95437,0.58241,2.0499,-1.0675,0.15206,0.17663,0.16757,0.067856,0.056258,0.14501,0.12626,0.071409,-0.022321,-0.092269,-0.23395
-0.027313,-0.025305,0.014719,0.011709,0.55849,1.8432,0.76054,-1.1191,-0.24429,-1.0093,0.62947,1.9314,-1.1438,-0.16776,0.17344,0.1259,0.079086,0.070162,0.087682,0.37551,0.065578,0.037226,-0.043294,-0.18779
-0.024924,-0.025409,0.012524,0.01129,0.56924,2.0047,0.75067,-1.1532,-0.2935,-0.99614,0.59453,1.9172,-1.2546,-0.42667,0.16136,0.02158,0.082596,0.078018,0.027341,0.5504,0.056822,0.064687,0.0014911,-0.21201
-0.028061,-0.031401,0.01268,0.0071739,0.57874,2.1843,0.7096,-1.2077,-0.34187,-0.89364,0.49555,1.9996,-1.3471,-0.60045,0.13368,-0.11647,0.077409,0.075944,-0.030227,0.62965,0.04625,0.031256,0.018239,-0.30735
-0.035725,-0.039707,0.014634,0.00069844,0.6064,2.3686,0.67814,-1.2955,-0.37927,-0.70238,0.37813,2.0834,-1.3727,-0.6723,0.092557,-0.25091,0.066719,0.065413,-0.086955,0.64547,0.035358,-0.0734,-0.0087838,-0.42982
-0.04414,-0.045648,0.017323,-0.0064699,0.6542,2.5407,0.69402,-1.4108,-0.39903,-0.44008,0.28887,2.0519,-1.3187,-0.6494,0.048441,-0.35162,0.055114,0.05238,-0.14833,0.64864,0.023674,-0.23794,-0.078561,-0.51267
-0.049805,-0.045947,0.020023,-0.013469,0.70681,2.6868,0.76512,-1.523,-0.39973,-0.13291,0.25667,1.8413,-1.2138,-0.57182,0.011761,-0.40402,0.045215,0.042947,-0.21409,0.66677,0.0076664,-0.43139,-0.17356,-0.49845
-0.05176,-0.040525,0.022751,-0.020055,0.74592,2.8018,0.86441,-1.59,-0.38363,0.18972,0.2893,1.4689,-1.106,-0.49705,-0.015921,-0.40683,0.036219,0.038624,-0.27352,0.68834,-0.017516,-0.61009,-0.26909,-0.36233
-0.051263,-0.032556,0.025869,-0.025498,0.76609,2.8913,0.94844,-1.5855,-0.35405,0.49557,0.37836,1.0023,-1.0322,-0.46698,-0.043278,-0.36438,0.025323,0.035138,-0.31084,0.68072,-0.054451,-0.73222,-0.34569,-0.11915
-0.049751,-0.026516,0.029205,-0.028112,0.77868,2.9668,0.98423,-1.5183,-0.31415,0.75076,0.50303,0.50246,-0.99999,-0.48479,-0.081655,-0.28179,0.010629,0.026083,-0.31713,0.62264,-0.10087,-0.77784,-0.39691,0.18226
-0.047426,-0.025149,0.031554,-0.026384,0.80169,3.0379,0.96564,-1.4266,-0.2676,0.92687,0.63158,-0.0072517,-0.99047,-0.52376,-0.13532,-0.16711,-0.0070573,0.0084495,-0.29867,0.52301,-0.15038,-0.76407,-0.42833,0.47114
-0.043763,-0.027251,0.031183,-0.020838,0.84475,3.1052,0.91026,-1.3496,-0.21936,1.0123,0.72739,-0.52318,-0.97466,-0.56106,-0.19803,-0.036701,-0.02504,-0.014763,-0.27443,0.41304,-0.19584,-0.74097,-0.45012,0.672
-0.038953,-0.0281,0.027128,-0.014642,0.90229,3.1601,0.84309,-1.2978,-0.17476,1.0194,0.76281,-1.0166,-0.93124,-0.60413,-0.25806,0.08398,-0.041241,-0.037192,-0.26399,0.32243,-0.23261,-0.76384,-0.46878,0.72763
-0.034344,-0.02269,0.020181,-0.011911,0.95984,3.1917,0.78035,-1.2464,-0.13674,0.97945,0.73392,-1.4088,-0.85547,-0.68242,-0.30596,0.1681,-0.055978,-0.054683,-0.27493,0.26097,-0.25905,-0.85542,-0.48314,0.62373
-0.031241,-0.0096835,0.012627,-0.014883,1.0072,3.1948,0.72363,-1.1576,-0.10391,0.92753,0.66298,-1.5949,-0.75775,-0.80987,-0.33743,0.19993,-0.07136,-0.068775,-0.29892,0.21898,-0.2744,-0.98335,-0.48569,0.40227
-0.029416,0.0070189,0.0067964,-0.022355,1.0463,3.1744,0.66508,-1.0114,-0.071512,0.88704,0.58299,-1.5066,-0.65528,-0.95414,-0.34996,0.18334,-0.088907,-0.084952,-0.31903,0.18186,-0.27672,-1.0719,-0.46727,0.15062
-0.027143,0.020641,0.003655,-0.030713,1.0875,3.1429,0.59676,-0.82077,-0.035477,0.86415,0.51365,-1.168,-0.56221,-1.0451,-0.33878,0.13994,-0.10764,-0.10721,-0.32271,0.14347,-0.26347,-1.0452,-0.42223,-0.034029
-0.022994,0.026242,0.00258,-0.036605,1.1354,3.1102,0.51664,-0.6197,0.003263,0.85375,0.44706,-0.70357,-0.48364,-1.0207,-0.29878,0.098511,-0.12442,-0.13376,-0.31091,0.10722,-0.23455,-0.87549,-0.35214,-0.08807
-0.017609,0.024117,0.0023872,-0.03894,1.1784,3.0762,0.42838,-0.43779,0.037539,0.84913,0.35481,-0.28936,-0.41674,-0.87323,-0.23189,0.083518,-0.13616,-0.15782,-0.29732,0.077,-0.19534,-0.60626,-0.26722,-0.0076759
-0.013488,0.019195,0.0024638,-0.038804,1.1904,3.0288,0.33708,-0.28279,0.057236,0.84583,0.21157,-0.076402,-0.35836,-0.65598,-0.15231,0.10937,-0.14204,-0.17292,-0.29882,0.049382,-0.15628,-0.33227,-0.18461,0.15713
-0.012703,0.017106,0.0028825,-0.037879,1.1458,2.9514,0.24545,-0.14339,0.05531,0.83814,0.017578,-0.13067,-0.31336,-0.44525,-0.082127,0.18039,-0.14379,-0.17829,-0.3241,0.015966,-0.12862,-0.14919,-0.12284,0.33466
-0.014597,0.02032,0.0035161,-0.037098,1.0383,2.8342,0.15328,-0.0055058,0.032659,0.81481,-0.19585,-0.42112,-0.29621,-0.28851,-0.038221,0.29062,-0.14379,-0.17957,-0.36823,-0.025762,-0.11871,-0.10456,-0.093984,0.46808
-0.015763,0.027403,0.003257,-0.036571,0.88788,2.6838,0.059538,0.13401,-0.0015044,0.76157,-0.38012,-0.85509,-0.32284,-0.18128,-0.020458,0.41981,-0.14275,-0.18394,-0.41641,-0.063549,-0.12508,-0.18125,-0.09757,0.53497
-0.012625,0.035389,0.00033891,-0.036297,0.73066,2.5228,-0.035577,0.26568,-0.034327,0.67088,-0.49147,-1.3331,-0.3975,-0.088254,-0.01146,0.53027,-0.13881,-0.19353,-0.45358,-0.072975,-0.14006,-0.32142,-0.12083,0.54439
-0.0045317,0.042558,-0.0063815,-0.036488,0.59715,2.3798,-0.13051,0.37476,-0.056211,0.55088,-0.50785,-1.7879,-0.50522,0.012742,0.010602,0.57432,-0.12874,-0.20258,-0.47307,-0.031492,-0.15463,-0.47017,-0.14675,0.52139
0.0053911,0.049041,-0.016301,-0.037102,0.49547,2.2759,-0.22379,0.44854,-0.065434,0.42463,-0.43371,-2.1882,-0.61676,0.10226,0.055803,0.51626,-0.11055,-0.20111,-0.47862,0.065889,-0.16274,-0.60495,-0.16522,0.49344
0.012525,0.055264,-0.02709,-0.037348,0.41145,2.2151,-0.31497,0.47959,-0.067346,0.31843,-0.29462,-2.5137,-0.70362,0.12881,0.11532,0.35799,-0.085263,-0.18252,-0.47916,0.2009,-0.16227,-0.73008,-0.17931,0.48473
0.014382,0.060466,-0.035857,-0.036118,0.32478,2.1853,-0.40327,0.46754,-0.068695,0.24704,-0.12694,-2.7286,-0.7519,0.047571,0.16831,0.14765,-0.056747,-0.1491,-0.48059,0.34052,-0.15328,-0.84612,-0.20156,0.51391
0.012519,0.063156,-0.040615,-0.033267,0.22732,2.1684,-0.48529,0.42257,-0.071232,0.20649,0.033745,-2.7802,-0.76491,-0.14222,0.19643,-0.042014,-0.029514,-0.11098,-0.48084,0.45326,-0.13639,-0.92533,-0.24313,0.58845
0.011098,0.062936,-0.041171,-0.030482,0.12817,2.1513,-0.55442,0.36747,-0.069521,0.1787,0.16319,-2.6278,-0.7538,-0.38781,0.19433,-0.15608,-0.0063341,-0.079152,-0.47188,0.52202,-0.11344,-0.91915,-0.30412,0.69652
0.013302,0.061467,-0.03906,-0.030579,0.042129,2.1307,-0.60412,0.33158,-0.054862,0.1437,0.25479,-2.2815,-0.72573,-0.6064,0.1693,-0.19177,0.012574,-0.058241,-0.44691,0.54603,-0.089239,-0.79414,-0.37266,0.80429
0.018664,0.061182,-0.036648,-0.035402,-0.026917,2.1079,-0.63373,0.33557,-0.02268,0.090174,0.31734,-1.8156,-0.68018,-0.72478,0.13264,-0.19717,0.02824,-0.044799,-0.40761,0.53384,-0.071319,-0.56545,-0.43249,0.86607
0.023582,0.062817,-0.035777,-0.043976,-0.091789,2.0801,-0.65195,0.37617,0.022046,0.018426,0.36336,-1.3395,-0.61572,-0.71117,0.091318,-0.23231,0.040861,-0.032108,-0.36542,0.49558,-0.06588,-0.29651,-0.47229,0.84508
0.024488,0.064299,-0.036611,-0.052622,-0.17066,2.0355,-0.67372,0.42408,0.065398,-0.063612,0.39443,-0.93938,-0.53902,-0.58417,0.046248,-0.32008,0.049013,-0.017031,-0.33566,0.44083,-0.072468,-0.061456,-0.48943,0.73296
0.020915,0.062404,-0.037487,-0.05725,-0.26842,1.9577,-0.71071,0.43947,0.090889,-0.14592,0.39426,-0.63163,-0.46561,-0.39788,-0.0035289,-0.42374,0.051014,-0.0029248,-0.32823,0.38128,-0.082366,0.10086,-0.48709,0.55516
0.015871,0.055975,-0.036238,-0.056218,-0.36759,1.8376,-0.76176,0.39561,0.08735,-0.21918,0.33663,-0.36359,-0.40975,-0.21411,-0.056127,-0.46864,0.047183,0.0036221,-0.34148,0.33172,-0.083561,0.20489,-0.46934,0.35824
0.013371,0.047833,-0.032394,-0.051497,-0.43752,1.6815,-0.81139,0.29389,0.053419,-0.27469,0.20409,-0.063981,-0.37167,-0.075759,-0.10567,-0.3927,0.040608,-0.0010748,-0.36337,0.30498,-0.069638,0.29544,-0.43933,0.18612
0.015399,0.043424,-0.028527,-0.047166,-0.45402,1.5106,-0.83984,0.16095,-0.0033811,-0.30459,0.0042969,0.29433,-0.3345,0.0075522,-0.1444,-0.19019,0.035258,-0.014284,-0.37858,0.30366,-0.045885,0.40484,-0.40097,0.059136
0.020794,0.046946,-0.029122,-0.046345,-0.41294,1.35,-0.83846,0.032675,-0.071229,-0.30443,-0.22869,0.66866,-0.27541,0.05697,-0.16518,0.080617,0.032794,-0.028712,-0.37623,0.31684,-0.027285,0.52545,-0.36012,-0.033128
0.026671,0.057863,-0.037159,-0.048941,-0.32792,1.2153,-0.81875,-0.061569,-0.13854,-0.27699,-0.44979,0.97995,-0.18378,0.10761,-0.16291,0.32846,0.03097,-0.037614,-0.35333,0.32686,-0.029188,0.61756,-0.3227,-0.12202
0.030772,0.070634,-0.050829,-0.051961,-0.21816,1.1049,-0.8062,-0.10587,-0.1959,-0.23353,-0.62373,1.1801,-0.07245,0.18651,-0.136,0.47653,0.025324,-0.038692,-0.31332,0.32268,-0.057243,0.64181,-0.29118,-0.23914
0.032685,0.078152,-0.063437,-0.052094,-0.10009,1.0042,-0.82212,-0.096931,-0.23574,-0.19027,-0.73686,1.2976,0.026962,0.29698,-0.088777,0.49702,0.012925,-0.034127,-0.26267,0.30903,-0.10368,0.58791,-0.26357,-0.39644
0.033247,0.076578,-0.067405,-0.048429,0.0096913,0.89758,-0.86664,-0.041651,-0.25189,-0.16192,-0.79328,1.4207,0.081557,0.41784,-0.03265,0.41563,-0.0050404,-0.027831,-0.20873,0.3029,-0.15208,0.47903,-0.23648,-0.5784
0.033197,0.068049,-0.059818,-0.043114,0.088362,0.78048,-0.91668,0.044879,-0.2409,-0.15681,-0.80191,1.6262,0.074988,0.51734,0.017287,0.28921,-0.024172,-0.022868,-0.15888,0.31882,-0.18645,0.35487,-0.20894,-0.75093
