4.1866e-010,5.595e-011,-2.2187e-010,5.6143e-010,-2.4329e-009,1.0744e-008,4.8368e-009,-1.5467e-008,-2.1029e-010,-1.2859e-008,1.3833e-009,1.2508e-008,6.0291e-009,-1.1016e-009,7.2349e-010,-3.2354e-009,6.9262e-010,8.6626e-010,3.0927e-009,4.065e-009,-2.8342e-009,5.0567e-009,-5.7879e-012,1.4026e-009
1.1419e-008,1.6426e-009,-6.3703e-009,1.5348e-008,-6.687e-008,2.9808e-007,1.337e-007,-4.2771e-007,-6.3668e-009,-3.5593e-007,3.7566e-008,3.4532e-007,1.6845e-007,-3.0442e-008,1.9086e-008,-8.899e-008,1.9487e-008,2.4058e-008,8.6234e-008,1.1172e-007,-7.821e-008,1.4022e-007,-1.5608e-010,3.9295e-008
1.513e-007,2.3281e-008,-8.8964e-008,2.0381e-007,-8.9271e-007,4.0218e-006,1.7968e-006,-5.7498e-006,-9.3392e-008,-4.7903e-006,4.9419e-007,4.6334e-006,2.2911e-006,-4.0947e-007,2.4268e-007,-1.1877e-006,2.6664e-007,3.2471e-007,1.1704e-006,1.4912e-006,-1.0491e-006,1.89e-006,-1.9339e-009,5.3604e-007
1.2977e-006,2.1234e-007,-8.0512e-007,1.7513e-006,-7.7103e-006,3.5159e-005,1.5639e-005,-5.0063e-005,-8.851e-007,-4.1763e-005,4.192e-006,4.025e-005,2.0214e-005,-3.5724e-006,1.977e-006,-1.0243e-005,2.3637e-006,2.8381e-006,1.0303e-005,1.2874e-005,-9.1119e-006,1.6495e-005,-1.3476e-008,4.7434e-006
8.0971e-006,1.4012e-006,-5.3067e-006,1.0945e-005,-4.8413e-005,0.00022386,9.908e-005,-0.00031731,-6.0974e-006,-0.00026509,2.5739e-005,0.00025442,0.00013006,-2.2725e-005,1.1562e-005,-6.4106e-005,1.5256e-005,1.8055e-005,6.6155e-005,8.0776e-005,-5.7599e-005,0.00010475,-4.3342e-008,3.0602e-005
3.9165e-005,7.1289e-006,-2.7141e-005,5.3003e-005,-0.00023538,0.0011061,0.00048679,-0.0015599,-3.2564e-005,-0.0013053,0.00012166,0.0012466,0.00065045,-0.0001123,5.1493e-005,-0.00030989,7.637e-005,8.9083e-005,0.0003302,0.00039217,-0.00028231,0.00051556,1.5441e-007,0.00015334
0.00015278,2.9093e-005,-0.00011203,0.00020688,-0.00092146,0.0044123,0.001929,-0.0061868,-0.00014041,-0.0051857,0.00045927,0.0049244,0.0026314,-0.00044835,0.00018046,-0.0012019,0.00030836,0.00035463,0.0013335,0.0015312,-0.0011159,0.0020449,3.035e-006,0.0006206
0.00049366,9.7779e-005,-0.00038315,0.00066827,-0.0029807,0.014592,0.0063296,-0.020327,-0.00050258,-0.017068,0.0014161,0.016101,0.0088474,-0.001484,0.0005056,-0.0038328,0.0010308,0.0011697,0.0044769,0.0049295,-0.0036518,0.006708,2.265e-005,0.0020822
0.0013463,0.00027566,-0.0011056,0.0018195,-0.0081096,0.04076,0.017512,-0.056351,-0.0015236,-0.047398,0.0036079,0.044373,0.025203,-0.0041418,0.0011327,-0.010205,0.0029044,0.0032562,0.01274,0.0133,-0.010077,0.01852,0.00011732,0.0058948
0.0031418,0.00066022,-0.0027257,0.0042304,-0.01878,0.097447,0.041366,-0.13353,-0.0039711,-0.1125,0.0076012,0.10438,0.061695,-0.009849,0.001982,-0.022872,0.0069813,0.0077515,0.031169,0.030351,-0.023742,0.043535,0.0004757,0.014247
0.006336,0.0013546,-0.0057873,0.0084729,-0.037291,0.20124,0.084103,-0.27284,-0.0090022,-0.23018,0.013033,0.21135,0.13115,-0.020025,0.0024945,-0.043196,0.014422,0.015922,0.066259,0.058706,-0.048162,0.087705,0.0015882,0.029596
0.011122,0.0023912,-0.010627,0.0147,-0.063677,0.36115,0.14778,-0.48324,-0.017909,-0.40806,0.017199,0.36999,0.244,-0.034635,0.0015193,-0.06813,0.025678,0.02838,0.12335,0.09551,-0.08449,0.15162,0.0044892,0.052914
0.017081,0.0036309,-0.016872,0.022149,-0.093334,0.56498,0.22441,-0.74318,-0.031482,-0.62772,0.013934,0.56045,0.39964,-0.049895,-0.0020719,-0.087309,0.03931,0.044015,0.20225,0.12721,-0.12822,0.22369,0.010936,0.080971
0.023037,0.0047106,-0.023036,0.028983,-0.11644,0.77079,0.2929,-0.99041,-0.04917,-0.83597,-0.0056808,0.7317,0.57885,-0.056246,-0.0077086,-0.084138,0.051211,0.059418,0.29331,0.12768,-0.16748,0.27679,0.023237,0.10416
0.027382,0.005118,-0.026682,0.032882,-0.12124,0.91512,0.32415,-1.1355,-0.068505,-0.95693,-0.049639,0.81486,0.74438,-0.038682,-0.011072,-0.043939,0.055363,0.069772,0.37747,0.064447,-0.18579,0.2748,0.043431,0.10739
0.02882,0.0044018,-0.02549,0.032331,-0.10098,0.94183,0.29572,-1.1034,-0.085403,-0.92865,-0.11915,0.75765,0.85387,0.018624,-0.0036616,0.03272,0.046675,0.071474,0.43244,-0.086061,-0.16978,0.19058,0.07181,0.075753
0.0271,0.0023996,-0.018889,0.027856,-0.060245,0.8384,0.20916,-0.88224,-0.095505,-0.7468,-0.20396,0.56257,0.88046,0.12352,0.023899,0.1204,0.024873,0.065289,0.44307,-0.32085,-0.11818,0.027567,0.10541,0.0035384
0.023132,-0.00068537,-0.0091663,0.022133,-0.015159,0.6533,0.097515,-0.54408,-0.096049,-0.48288,-0.28313,0.29901,0.82771,0.26655,0.075002,0.17417,-0.0031443,0.057562,0.40921,-0.60242,-0.045555,-0.17062,0.13762,-0.098468
0.018308,-0.0044217,-0.00084343,0.01851,0.015318,0.47461,0.013144,-0.2116,-0.087225,-0.25326,-0.33284,0.071201,0.72615,0.41719,0.1406,0.15338,-0.025009,0.057616,0.34493,-0.87003,0.023803,-0.33483,0.15991,-0.20348
0.013555,-0.0083733,0.0019149,0.018771,0.022435,0.3772,-0.00049862,0.015253,-0.072097,-0.15059,-0.3379,-0.043407,0.61178,0.53092,0.19909,0.051757,-0.028818,0.072046,0.26859,-1.068,0.069233,-0.40553,0.16558,-0.27907
0.0089627,-0.01219,-0.001615,0.021831,0.015355,0.3746,0.064264,0.12156,-0.055003,-0.18365,-0.29996,-0.042197,0.5023,0.56677,0.22554,-0.088576,-0.010086,0.099603,0.19155,-1.1751,0.085384,-0.36698,0.1536,-0.30241
0.0043606,-0.015493,-0.0075765,0.02459,0.016058,0.41362,0.17373,0.17872,-0.039267,-0.27394,-0.23693,0.0070751,0.3913,0.50775,0.20616,-0.19526,0.025107,0.13099,0.11546,-1.2154,0.08342,-0.25559,0.13014,-0.27109
0.00022041,-0.017742,-0.0098251,0.024399,0.043539,0.41883,0.27436,0.28011,-0.025518,-0.31595,-0.17369,0.022356,0.26603,0.37252,0.14825,-0.20867,0.06358,0.15475,0.040439,-1.2407,0.080756,-0.13426,0.10591,-0.20208
-0.0021749,-0.01835,-0.0045052,0.021154,0.098838,0.35221,0.32693,0.46212,-0.01159,-0.25601,-0.1303,-0.029153,0.13262,0.20943,0.077294,-0.12061,0.093266,0.16555,-0.024519,-1.295,0.087582,-0.050556,0.09053,-0.11997
-0.0017477,-0.017086,0.0065382,0.017183,0.16302,0.23944,0.32837,0.67605,0.005893,-0.12644,-0.11502,-0.11143,0.023428,0.073838,0.021632,0.02048,0.11051,0.16828,-0.062197,-1.3831,0.10085,-0.0098227,0.087187,-0.043011
0.00099032,-0.014467,0.016648,0.015027,0.21039,0.14225,0.30595,0.83378,0.029054,-0.0087488,-0.12492,-0.15774,-0.024127,0.00022695,-0.0048785,0.14265,0.12107,0.17419,-0.062637,-1.4647,0.10966,0.017543,0.09148,0.023397
0.0036334,-0.011727,0.019417,0.015092,0.22686,0.10341,0.29012,0.88526,0.056795,0.040022,-0.15112,-0.1307,-0.0012357,-0.014752,-0.0099382,0.19591,0.13409,0.19137,-0.041293,-1.4774,0.10623,0.063355,0.095322,0.082809
0.0033136,-0.010282,0.014045,0.015336,0.21887,0.11349,0.28885,0.85837,0.084483,0.032857,-0.18313,-0.052413,0.056144,-0.0076661,-0.014795,0.17575,0.15373,0.21704,-0.04012,-1.3754,0.092377,0.13214,0.093052,0.13883
-0.0011006,-0.011006,0.006305,0.013264,0.20644,0.12706,0.28354,0.82685,0.10557,0.033479,-0.20979,0.015844,0.085873,-0.024409,-0.03783,0.11078,0.17497,0.23842,-0.10301,-1.1575,0.076709,0.1988,0.084963,0.18943
-0.0079404,-0.013822,0.0038496,0.0084061,0.20671,0.10936,0.24852,0.83771,0.11421,0.095246,-0.21847,0.018725,0.040444,-0.091604,-0.082149,0.032597,0.18707,0.24203,-0.23982,-0.86991,0.066215,0.23277,0.075515,0.22866
-0.01391,-0.017812,0.009618,0.002953,0.22164,0.068084,0.17726,0.86545,0.10744,0.21752,-0.19651,-0.066706,-0.082115,-0.20111,-0.13534,-0.04179,0.18194,0.22427,-0.40795,-0.58084,0.060647,0.22538,0.068125,0.25263
-0.016656,-0.021659,0.019167,-2.9779e-005,0.23875,0.041001,0.094037,0.83428,0.085846,0.3583,-0.13617,-0.2404,-0.24107,-0.317,-0.17949,-0.10197,0.16079,0.19484,-0.53123,-0.34644,0.054285,0.19678,0.061552,0.26389
-0.016551,-0.024147,0.024583,0.00078771,0.24257,0.053754,0.042015,0.68728,0.052899,0.48581,-0.040327,-0.5021,-0.38479,-0.39969,-0.20254,-0.12709,0.13377,0.16984,-0.54756,-0.18645,0.042408,0.17781,0.051482,0.27013
-0.016119,-0.024524,0.021685,0.0039006,0.22614,0.089802,0.056126,0.44038,0.013969,0.61466,0.075718,-0.85282,-0.48399,-0.43117,-0.20275,-0.086913,0.11243,0.15983,-0.45208,-0.083341,0.025886,0.18426,0.035759,0.27918
-0.017615,-0.022736,0.013977,0.0062757,0.19406,0.10164,0.13954,0.17592,-0.024356,0.78872,0.18892,-1.2674,-0.54116,-0.42543,-0.18536,0.031763,0.10065,0.1617,-0.30297,-0.00059206,0.0099537,0.20543,0.017772,0.29458
-0.020956,-0.019488,0.009553,0.0058066,0.15695,0.052525,0.2589,-0.014941,-0.054909,1.0261,0.27788,-1.6685,-0.57434,-0.41877,-0.15643,0.19677,0.090959,0.16016,-0.18495,0.095882,-0.00080642,0.21485,0.0038373,0.31501
-0.023912,-0.016011,0.01365,0.0027748,0.12393,-0.050453,0.36085,-0.08971,-0.071351,1.2799,0.33206,-1.9407,-0.59485,-0.44734,-0.11957,0.33324,0.069088,0.13716,-0.15748,0.2284,-0.0060825,0.19234,-0.0035445,0.33692
-0.024363,-0.01354,0.023718,-0.00073729,0.099615,-0.16197,0.39933,-0.068016,-0.070427,1.4562,0.35604,-1.9889,-0.59982,-0.52647,-0.076996,0.36569,0.023823,0.082288,-0.22531,0.41198,-0.0089427,0.13878,-0.0098396,0.3576
-0.022472,-0.012787,0.031703,-0.0026668,0.085708,-0.23635,0.3577,-0.00025848,-0.053781,1.4769,0.36649,-1.8045,-0.58211,-0.64311,-0.032032,0.2706,-0.045076,-0.0024412,-0.34909,0.65962,-0.011985,0.073904,-0.024828,0.37661
-0.02071,-0.013763,0.03147,-0.0023448,0.082854,-0.26258,0.25389,0.072421,-0.027678,1.3363,0.38352,-1.4844,-0.5436,-0.76395,0.010508,0.096602,-0.1264,-0.10494,-0.4809,0.97323,-0.014546,0.02161,-0.053221,0.39557
-0.021612,-0.016015,0.024459,-0.00050778,0.089574,-0.26647,0.12688,0.13272,-0.0001233,1.103,0.42028,-1.1812,-0.49639,-0.85235,0.046662,-0.066795,-0.2045,-0.20943,-0.59281,1.3204,-0.013333,-0.0044753,-0.087927,0.41757
-0.025338,-0.018898,0.01829,0.0016052,0.099957,-0.28102,0.013812,0.17418,0.023048,0.86904,0.47591,-1.0151,-0.45153,-0.88336,0.075973,-0.14845,-0.26827,-0.30234,-0.67792,1.6177,-0.0053692,-0.0058666,-0.11309,0.44629
-0.029324,-0.021528,0.019658,0.0030517,0.10462,-0.31475,-0.06838,0.18543,0.040603,0.6891,0.5356,-1.0074,-0.40847,-0.84864,0.10168,-0.13721,-0.31568,-0.37534,-0.73237,1.7476,0.0096568,0.0058117,-0.11565,0.48404
-0.03046,-0.022608,0.028191,0.0034142,0.096577,-0.34617,-0.12668,0.15306,0.055281,0.55937,0.5784,-1.0807,-0.35727,-0.75113,0.12785,-0.076794,-0.35132,-0.42594,-0.74351,1.6159,0.029276,0.017722,-0.096207,0.5282
-0.027906,-0.020722,0.036903,0.0027323,0.077813,-0.34733,-0.18081,0.078682,0.070721,0.44479,0.58901,-1.1205,-0.29159,-0.59688,0.1554,-0.024819,-0.38022,-0.45686,-0.7003,1.2239,0.049679,0.022647,-0.069685,0.56785
-0.02397,-0.015374,0.038617,0.0014746,0.060047,-0.31282,-0.24638,-0.012525,0.088219,0.32365,0.56694,-1.0508,-0.21869,-0.39355,0.17971,-0.013497,-0.40332,-0.47456,-0.61522,0.70447,0.067031,0.02148,-0.055266,0.58393
-0.022165,-0.0080023,0.03229,0.00041406,0.057202,-0.26818,-0.32435,-0.086038,0.10551,0.20869,0.52751,-0.87183,-0.15511,-0.15865,0.19134,-0.041304,-0.41776,-0.48639,-0.53127,0.28544,0.077956,0.021885,-0.063861,0.55517
-0.024014,-0.0017058,0.023564,0.00013324,0.074721,-0.25199,-0.40234,-0.12396,0.11829,0.13124,0.49351,-0.63971,-0.11163,0.07015,0.17963,-0.09309,-0.42007,-0.49662,-0.49873,0.1859,0.079806,0.034177,-0.093439,0.46792
-0.027415,0.00073175,0.019434,0.00039134,0.10446,-0.2882,-0.46463,-0.13746,0.12338,0.10947,0.48273,-0.41341,-0.082619,0.23654,0.13751,-0.16196,-0.40836,-0.50326,-0.53604,0.5025,0.071429,0.065592,-0.13497,0.32429
-0.028145,-0.00083588,0.022227,7.7433e-005,0.12984,-0.37164,-0.50229,-0.15245,0.12157,0.13228,0.49908,-0.21222,-0.051452,0.28686,0.065485,-0.25042,-0.38161,-0.49823,-0.60797,1.157,0.054103,0.11518,-0.18228,0.14308
-0.023442,-0.0034436,0.02821,-0.0018739,0.13738,-0.47529,-0.5169,-0.18143,0.11817,0.17081,0.53225,-0.012484,-0.0077099,0.20298,-0.026937,-0.3529,-0.33812,-0.47181,-0.64344,1.9413,0.031557,0.17245,-0.23624,-0.047636
-0.014728,-0.0032728,0.031508,-0.0052508,0.12535,-0.5703,-0.51783,-0.20843,0.12076,0.20223,0.56511,0.22176,0.040373,0.024497,-0.12321,-0.44112,-0.27623,-0.41894,-0.58237,2.6298,0.0085025,0.22151,-0.29976,-0.22163
-0.0070772,0.0010525,0.029261,-0.008259,0.10292,-0.64183,-0.51696,-0.20141,0.1349,0.22203,0.58281,0.50414,0.071326,-0.16044,-0.20461,-0.47012,-0.19807,-0.34349,-0.41527,3.0843,-0.011562,0.24876,-0.36918,-0.36277
-0.0056235,0.0071533,0.023443,-0.008731,0.081743,-0.69163,-0.52414,-0.14021,0.16042,0.2358,0.57773,0.81473,0.069698,-0.25698,-0.25624,-0.40267,-0.11279,-0.25744,-0.18472,3.2833,-0.027773,0.24926,-0.43093,-0.46649
-0.011604,0.011034,0.018356,-0.0059986,0.067857,-0.73004,-0.54399,-0.034038,0.19048,0.24328,0.5485,1.1172,0.04112,-0.21483,-0.27143,-0.23346,-0.035195,-0.17547,0.050043,3.2726,-0.041554,0.22765,-0.46769,-0.53602
-0.021158,0.010872,0.016712,-0.0017588,0.060425,-0.76624,-0.57313,0.086386,0.21465,0.23336,0.49592,1.3858,0.00812,-0.055271,-0.25292,0.0043256,0.020731,-0.10856,0.25381,3.0926,-0.054817,0.19364,-0.46903,-0.57787
-0.027883,0.0088299,0.01787,0.0010108,0.056864,-0.80343,-0.59918,0.19258,0.22429,0.19576,0.4203,1.62,-0.010429,0.14535,-0.21015,0.25272,0.049237,-0.060365,0.42801,2.7474,-0.068038,0.15601,-0.43768,-0.59979
-0.027266,0.0089365,0.019219,0.00031661,0.057748,-0.83926,-0.60389,0.27489,0.21696,0.13658,0.32277,1.8346,-0.017271,0.30488,-0.1548,0.45261,0.055529,-0.027954,0.58899,2.2357,-0.079481,0.11964,-0.38601,-0.61044
-0.01966,0.012889,0.018826,-0.00332,0.065906,-0.86856,-0.57133,0.33848,0.19709,0.080257,0.20902,2.0391,-0.034764,0.38415,-0.096945,0.56459,0.051671,-0.0053768,0.73647,1.5993,-0.086033,0.086647,-0.32632,-0.61818
-0.0096621,0.017915,0.016832,-0.0074219,0.080631,-0.886,-0.49744,0.38714,0.17273,0.053413,0.092037,2.2221,-0.083866,0.40338,-0.043896,0.57991,0.048662,0.012386,0.84338,0.93406,-0.085102,0.058968,-0.26337,-0.6283
-0.0025623,0.019113,0.014766,-0.0097276,0.093476,-0.88828,-0.39508,0.41489,0.15077,0.063637,-0.0096052,2.3548,-0.16316,0.41955,-0.001209,0.51999,0.050343,0.026932,0.87643,0.34487,-0.076436,0.038842,-0.19538,-0.64119
-0.00067645,0.014376,0.013846,-0.010018,0.09118,-0.87571,-0.29072,0.41583,0.13386,0.091914,-0.077996,2.4075,-0.24753,0.48483,0.026158,0.42504,0.052857,0.035918,0.82743,-0.11408,-0.06271,0.026609,-0.12128,-0.65423
-0.0022727,0.0071953,0.01386,-0.0099275,0.064612,-0.85272,-0.21434,0.40234,0.12068,0.10593,-0.10406,2.3641,-0.30821,0.61613,0.034606,0.33489,0.049061,0.034387,0.72636,-0.45687,-0.048357,0.018399,-0.046687,-0.66671
-0.0035904,0.0043237,0.013359,-0.010951,0.016523,-0.82638,-0.18836,0.41059,0.10853,0.083717,-0.092774,2.2232,-0.33611,0.79203,0.024444,0.27038,0.034165,0.017716,0.62447,-0.72596,-0.037162,0.0069096,0.017694,-0.68293
-0.0020295,0.01007,0.010742,-0.012628,-0.038771,-0.80341,-0.22056,0.48264,0.096002,0.028913,-0.061825,1.9869,-0.34745,0.9713,0.0017695,0.22676,0.0090124,-0.014573,0.56302,-0.93642,-0.030052,-0.014569,0.063592,-0.70905
0.0021022,0.022355,0.0053761,-0.012827,-0.084068,-0.78702,-0.30273,0.63581,0.083863,-0.033505,-0.033666,1.6534,-0.36663,1.1148,-0.022918,0.18464,-0.020166,-0.056014,0.5544,-1.0616,-0.024641,-0.048227,0.091525,-0.74463
0.006444,0.03426,-0.0019115,-0.010031,-0.10966,-0.77536,-0.41358,0.84355,0.073788,-0.075936,-0.025451,1.2228,-0.4026,1.1964,-0.039482,0.13104,-0.044419,-0.0937,0.58797,-1.076,-0.017079,-0.091791,0.10962,-0.77612
0.0089758,0.039775,-0.0091714,-0.0054218,-0.11752,-0.76227,-0.52395,1.0448,0.066401,-0.086013,-0.043021,0.71443,-0.43997,1.2034,-0.043189,0.07257,-0.055379,-0.11297,0.64922,-1.0097,-0.0051362,-0.14302,0.12575,-0.77969
0.0097621,0.038503,-0.014288,-0.0024821,-0.11684,-0.74,-0.60363,1.1762,0.06015,-0.071224,-0.082576,0.17825,-0.45262,1.1323,-0.036171,0.02793,-0.048007,-0.10424,0.73007,-0.95483,0.0096679,-0.20483,0.14023,-0.73412
0.010654,0.035165,-0.01606,-0.0041231,-0.11548,-0.70292,-0.62924,1.2051,0.051944,-0.049965,-0.138,-0.31329,-0.42692,0.98815,-0.024137,0.0053362,-0.022232,-0.067977,0.82101,-1.0022,0.022622,-0.28603,0.14565,-0.6355
0.013399,0.034663,-0.014825,-0.0099031,-0.1146,-0.65064,-0.59114,1.1393,0.039133,-0.038581,-0.20737,-0.69371,-0.37354,0.78571,-0.011258,-0.013724,0.01693,-0.014328,0.89721,-1.1594,0.028996,-0.39598,0.13432,-0.50247
0.017911,0.037674,-0.012263,-0.016132,-0.10998,-0.58904,-0.49629,1.0118,0.021397,-0.044331,-0.293,-0.93164,-0.31831,0.54826,0.0022191,-0.065548,0.061047,0.042263,0.91932,-1.3231,0.027699,-0.53658,0.10654,-0.36709
0.022166,0.040975,-0.010493,-0.01906,-0.097714,-0.52828,-0.36488,0.85341,0.0010756,-0.066824,-0.39466,-1.0396,-0.2815,0.30196,0.017538,-0.17274,0.10126,0.089981,0.85515,-1.3398,0.022688,-0.69721,0.07248,-0.25721
0.023782,0.041832,-0.010984,-0.018274,-0.078898,-0.47859,-0.22226,0.67614,-0.018483,-0.10327,-0.50251,-1.056,-0.26462,0.067867,0.032748,-0.31489,0.13116,0.1236,0.70552,-1.1151,0.020804,-0.85624,0.046009,-0.18273
0.021947,0.041705,-0.013892,-0.017,-0.059856,-0.44596,-0.090104,0.47555,-0.035406,-0.15181,-0.59691,-1.0152,-0.25528,-0.14411,0.040819,-0.42818,0.14806,0.14354,0.50903,-0.68811,0.027315,-0.98733,0.035662,-0.1352
0.018124,0.04521,-0.018156,-0.018857,-0.048974,-0.43034,0.018776,0.24629,-0.05066,-0.21131,-0.65769,-0.92928,-0.2435,-0.33663,0.033344,-0.43954,0.15201,0.15191,0.31751,-0.21304,0.042302,-1.0661,0.040086,-0.099156
0.015,0.055212,-0.022262,-0.024106,-0.053545,-0.42703,0.10062,-0.003912,-0.067127,-0.28013,-0.67732,-0.79383,-0.2329,-0.52143,0.0074029,-0.31316,0.14402,0.14917,0.16049,0.13799,0.060545,-1.0738,0.051107,-0.065313
0.01453,0.069067,-0.02522,-0.029116,-0.078794,-0.42981,0.15763,-0.25201,-0.087124,-0.35622,-0.66807,-0.61005,-0.23629,-0.71213,-0.030316,-0.076718,0.12515,0.13416,0.028704,0.2785,0.075042,-1.0001,0.061073,-0.035321
0.016638,0.080154,-0.02718,-0.029725,-0.12822,-0.43324,0.19472,-0.46821,-0.11048,-0.43783,-0.65666,-0.40139,-0.2609,-0.91548,-0.066302,0.19054,0.09745,0.10708,-0.10977,0.2453,0.081487,-0.84614,0.06811,-0.01628
0.019596,0.083704,-0.029311,-0.025393,-0.20315,-0.4329,0.2177,-0.62778,-0.13478,-0.52249,-0.66853,-0.21028,-0.29803,-1.1243,-0.08842,0.39885,0.065614,0.072369,-0.27621,0.15291,0.080435,-0.63171,0.075478,-0.011668
0.021731,0.081501,-0.032973,-0.020121,-0.30078,-0.42472,0.23248,-0.7193,-0.1574,-0.60407,-0.71149,-0.079184,-0.32732,-1.3159,-0.093309,0.4906,0.037275,0.038671,-0.46144,0.10886,0.075867,-0.39786,0.086675,-0.017257
0.022997,0.080715,-0.038699,-0.019166,-0.4128,-0.40541,0.24382,-0.74677,-0.17724,-0.6709,-0.76973,-0.033373,-0.33211,-1.4578,-0.087276,0.46019,0.020625,0.015176,-0.63602,0.15296,0.071896,-0.19928,0.10129,-0.024809
0.025021,0.087576,-0.04569,-0.024534,-0.52666,-0.37448,0.25319,-0.72703,-0.19445,-0.70869,-0.81211,-0.078842,-0.31209,-1.52,-0.080283,0.34488,0.020415,0.0065081,-0.77764,0.25437,0.070568,-0.083644,0.11523,-0.029076
0.029502,0.10144,-0.052236,-0.033337,-0.62973,-0.33619,0.25728,-0.68363,-0.2084,-0.70795,-0.80966,-0.21194,-0.28258,-1.4866,-0.078237,0.19837,0.035016,0.009801,-0.88663,0.35214,0.072132,-0.067606,0.12451,-0.031407
0.036294,0.11462,-0.056781,-0.040343,-0.7133,-0.29891,0.24912,-0.63838,-0.21592,-0.67087,-0.751,-0.42501,-0.26183,-1.3628,-0.079828,0.064855,0.056939,0.016363,-0.97394,0.40033,0.076485,-0.12563,0.12866,-0.0373
0.042899,0.11817,-0.05885,-0.042194,-0.77335,-0.27134,0.22183,-0.60338,-0.21209,-0.61173,-0.64629,-0.69794,-0.2574,-1.173,-0.079876,-0.034279,0.076863,0.017277,-1.0353,0.38894,0.083462,-0.20274,0.13053,-0.050851
0.046006,0.10846,-0.059113,-0.039562,-0.80784,-0.25735,0.17319,-0.57779,-0.19321,-0.5497,-0.51831,-0.98325,-0.26258,-0.95228,-0.075417,-0.099132,0.088665,0.0092892,-1.0415,0.3397,0.091419,-0.2457,0.13289,-0.070868
0.043948,0.089188,-0.058562,-0.035742,-0.81393,-0.25276,0.10767,-0.55243,-0.1602,-0.49905,-0.38709,-1.2051,-0.26406,-0.73396,-0.068474,-0.14051,0.092115,-0.0032262,-0.96024,0.29092,0.096086,-0.23273,0.13542,-0.090677
0.038032,0.067492,-0.05753,-0.033533,-0.78893,-0.24618,0.034406,-0.51983,-0.11937,-0.46376,-0.25873,-1.2847,-0.25313,-0.5382,-0.062672,-0.16754,0.091585,-0.011857,-0.79204,0.28256,0.092016,-0.18121,0.13476,-0.10011
0.031572,0.048453,-0.055392,-0.033395,-0.73496,-0.22368,-0.037562,-0.48224,-0.079973,-0.4396,-0.12546,-1.1821,-0.2312,-0.36544,-0.056781,-0.18065,0.091998,-0.010775,-0.5855,0.3412,0.076441,-0.1289,0.12787,-0.087653
0.027367,0.032747,-0.051263,-0.034084,-0.66309,-0.17512,-0.10372,-0.45086,-0.049819,-0.42047,0.023657,-0.92604,-0.20648,-0.20012,-0.041761,-0.17369,0.095171,-0.0013239,-0.41253,0.46468,0.052358,-0.10382,0.11528,-0.042934
0.025749,0.018827,-0.04511,-0.0345,-0.59156,-0.099593,-0.16558,-0.43636,-0.032001,-0.4032,0.18901,-0.60717,-0.18648,-0.025575,-0.0055573,-0.14327,0.099112,0.0091578,-0.3196,0.61488,0.027603,-0.10533,0.1014,0.03882
0.024862,0.0064442,-0.038348,-0.03468,-0.53735,-0.0073256,-0.22891,-0.43906,-0.024772,-0.38739,0.35332,-0.33473,-0.17324,0.15671,0.05666,-0.097859,0.1004,0.013524,-0.29463,0.73123,0.009926,-0.1088,0.091556,0.15097
0.022808,-0.0024529,-0.033325,-0.03529,-0.50648,0.083418,-0.30006,-0.44812,-0.024365,-0.3721,0.48628,-0.18198,-0.16465,0.31739,0.13477,-0.058391,0.09744,0.011067,-0.27746,0.76452,0.0017779,-0.087053,0.088313,0.27264
0.019626,-0.0062091,-0.031973,-0.036635,-0.49046,0.15423,-0.38211,-0.45169,-0.028458,-0.35342,0.55833,-0.15334,-0.15956,0.41027,0.20574,-0.047558,0.091872,0.0085554,-0.206,0.70997,-0.0010519,-0.029927,0.090168,0.37368
0.017194,-0.006301,-0.034499,-0.038426,-0.47212,0.19613,-0.47192,-0.44938,-0.037659,-0.3254,0.55548,-0.19024,-0.1611,0.40157,0.24573,-0.074772,0.087234,0.01482,-0.061508,0.61159,-0.0059785,0.051872,0.093313,0.42774
0.017148,-0.0070711,-0.039064,-0.040287,-0.43654,0.21534,-0.55864,-0.45535,-0.054025,-0.28315,0.48683,-0.2077,-0.17504,0.29905,0.24407,-0.12878,0.086036,0.032942,0.12041,0.52862,-0.018323,0.13772,0.094516,0.42595
0.01886,-0.012185,-0.042712,-0.04205,-0.37893,0.23066,-0.62534,-0.48743,-0.077964,-0.2252,0.38154,-0.13753,-0.2043,0.15905,0.20887,-0.18503,0.087606,0.056289,0.27794,0.48708,-0.03821,0.21048,0.092457,0.3816
0.019538,-0.021192,-0.043025,-0.043343,-0.30453,0.26255,-0.65462,-0.55049,-0.10606,-0.1534,0.2774,0.045208,-0.24475,0.062855,0.15982,-0.22273,0.088249,0.071923,0.36572,0.45623,-0.061335,0.26143,0.08669,0.32117
0.016536,-0.029714,-0.039471,-0.043147,-0.22257,0.32016,-0.63729,-0.62838,-0.13167,-0.071352,0.2071,0.32154,-0.2862,0.076365,0.11389,-0.23786,0.083534,0.069212,0.3809,0.37284,-0.082004,0.28624,0.075921,0.2677
0.0097834,-0.03336,-0.03363,-0.040332,-0.14102,0.39498,-0.57966,-0.6925,-0.14813,0.016617,0.18757,0.64761,-0.31838,0.2186,0.075093,-0.24122,0.071169,0.047424,0.35837,0.19714,-0.095741,0.28026,0.057906,0.22878
0.0020341,-0.031799,-0.028168,-0.035016,-0.066325,0.46559,-0.50385,-0.72102,-0.15238,0.105,0.2158,0.97872,-0.33707,0.45782,0.036042,-0.2439,0.05265,0.016701,0.34382,-0.044216,-0.1002,0.24008,0.031564,0.19803
-0.003345,-0.029256,-0.025211,-0.029326,-0.0062444,0.51044,-0.4389,-0.71313,-0.14686,0.18611,0.27175,1.2849,-0.34537,0.73377,-0.011095,-0.24388,0.032774,-0.008318,0.36484,-0.26421,-0.095128,0.16975,-0.00055187,0.16757
-0.0050053,-0.03097,-0.025129,-0.02628,0.029894,0.51973,-0.40651,-0.68669,-0.1383,0.2503,0.32675,1.5521,-0.34863,0.98844,-0.063954,-0.2266,0.017324,-0.017602,0.41707,-0.36751,-0.082426,0.083946,-0.032064,0.13961
-0.0042654,-0.03885,-0.026449,-0.027375,0.036664,0.49937,-0.41017,-0.66188,-0.13421,0.28811,0.35431,1.7729,-0.34728,1.1865,-0.10866,-0.17942,0.01022,-0.01121,0.46965,-0.30907,-0.06629,0.0026488,-0.05583,0.12636
-0.0033474,-0.050087,-0.026895,-0.030996,0.020111,0.46602,-0.43434,-0.64529,-0.13925,0.29348,0.33901,1.9369,-0.33387,1.3183,-0.12847,-0.10688,0.011651,0.0022916,0.48453,-0.11694,-0.052321,-0.05964,-0.068558,0.13862
-0.0031168,-0.059576,-0.024845,-0.033377,-8.5783e-005,0.43826,-0.45409,-0.62789,-0.15353,0.26628,0.27986,2.0299,-0.29739,1.3904,-0.11496,-0.032329,0.018199,0.012678,0.4384,0.13166,-0.045277,-0.10146,-0.073769,0.1741
-0.0026043,-0.063662,-0.020266,-0.031548,0.0017537,0.42938,-0.44806,-0.59737,-0.17381,0.21264,0.18678,2.0404,-0.23197,1.4144,-0.072919,0.016441,0.02493,0.014877,0.3368,0.35552,-0.046681,-0.13263,-0.080728,0.21722
-0.00064078,-0.062003,-0.014556,-0.025766,0.043431,0.44393,-0.40662,-0.55227,-0.19666,0.14324,0.072807,1.9672,-0.14327,1.3999,-0.016229,0.025935,0.028376,0.011193,0.21354,0.50011,-0.054177,-0.16531,-0.099357,0.25084
0.0023033,-0.056576,-0.0094812,-0.019275,0.12412,0.47703,-0.33125,-0.50467,-0.2214,0.070453,-0.0536,1.8207,-0.047525,1.3533,0.040675,0.0050004,0.028707,0.008279,0.11608,0.53852,-0.063284,-0.20566,-0.1337,0.26843
0.0041726,-0.049586,-0.0060289,-0.015654,0.22456,0.51558,-0.22857,-0.46951,-0.25075,0.0053639,-0.19181,1.6175,0.036243,1.2792,0.088816,-0.023191,0.029696,0.012001,0.084464,0.45639,-0.070229,-0.2524,-0.17764,0.27414
0.003321,-0.042499,-0.0040155,-0.01612,0.31825,0.54252,-0.10498,-0.45124,-0.28882,-0.044719,-0.34673,1.3761,0.095342,1.1829,0.12499,-0.037355,0.036245,0.024133,0.13519,0.24471,-0.073692,-0.30128,-0.21595,0.27007
0.00034771,-0.036641,-0.0025965,-0.019022,0.38574,0.54473,0.034113,-0.44058,-0.33778,-0.077923,-0.52281,1.1176,0.12797,1.0718,0.14877,-0.029593,0.05081,0.042527,0.25782,-0.090289,-0.074351,-0.34937,-0.23081,0.24429
-0.0022622,-0.033797,-0.0010814,-0.021631,0.42283,0.52171,0.18183,-0.42347,-0.3956,-0.097782,-0.71767,0.87222,0.1413,0.9544,0.16059,-0.0056834,0.071062,0.063463,0.42426,-0.51232,-0.073019,-0.3942,-0.21114,0.1744
-0.0024947,-0.035419,0.00072006,-0.022318,0.4383,0.48865,0.32826,-0.39296,-0.45606,-0.11077,-0.91799,0.67843,0.14576,0.83784,0.16227,0.022061,0.090584,0.083697,0.60311,-0.95498,-0.069195,-0.42919,-0.15927,0.047562
-0.00084871,-0.040948,0.0027848,-0.021243,0.44487,0.46965,0.46217,-0.35261,-0.51046,-0.12197,-1.0989,0.57021,0.15005,0.72561,0.15778,0.041436,0.10241,0.10095,0.77044,-1.3433,-0.061228,-0.44099,-0.090768,-0.11928
2.081e-005,-0.047254,0.0052337,-0.019415,0.45049,0.48385,0.57447,-0.30919,-0.54961,-0.13142,-1.2277,0.55536,0.15937,0.61709,0.15147,0.042767,0.10305,0.1134,0.91275,-1.6246,-0.047843,-0.41339,-0.026877,-0.27914
-0.0022147,-0.0504,0.0081515,-0.017488,0.45548,0.53341,0.65992,-0.26302,-0.56494,-0.13388,-1.2726,0.59949,0.17626,0.50851,0.14431,0.019639,0.093993,0.11936,1.0239,-1.7878,-0.029717,-0.33612,0.015948,-0.37974
-0.0073115,-0.048538,0.011002,-0.015537,0.45566,0.60232,0.71517,-0.20629,-0.54945,-0.12287,-1.2146,0.63051,0.20154,0.3936,0.1321,-0.028466,0.079649,0.11786,1.1003,-1.8594,-0.0098124,-0.21207,0.033106,-0.3963
-0.012542,-0.043312,0.012459,-0.013671,0.4475,0.66662,0.7354,-0.13091,-0.49938,-0.095777,-1.0584,0.56628,0.23397,0.2633,0.10857,-0.092654,0.063287,0.10925,1.1383,-1.8813,0.0078538,-0.057431,0.031559,-0.34704
-0.014931,-0.03829,0.011231,-0.01243,0.43072,0.70789,0.71369,-0.038066,-0.41695,-0.05607,-0.83546,0.35262,0.26943,0.10641,0.071621,-0.15508,0.04464,0.095445,1.1331,-1.8853,0.020271,0.10556,0.023461,-0.27844
-0.013508,-0.035779,0.0073941,-0.012327,0.40714,0.72003,0.64514,0.060388,-0.31233,-0.010858,-0.59372,-0.00978,0.30178,-0.085883,0.027214,-0.19605,0.02135,0.079306,1.0799,-1.8811,0.02699,0.25801,0.018813,-0.23184
-0.0096477,-0.034983,0.002952,-0.01307,0.3778,0.70589,0.53357,0.15021,-0.20251,0.033146,-0.37728,-0.4654,0.32593,-0.31207,-0.013159,-0.20396,-0.0067957,0.063879,0.97716,-1.8621,0.030114,0.39032,0.021801,-0.21703
-0.0055996,-0.033187,0.00076147,-0.013487,0.34154,0.66947,0.39564,0.22518,-0.10574,0.070652,-0.20736,-0.93092,0.34149,-0.55442,-0.039805,-0.18045,-0.034784,0.051532,0.83077,-1.824,0.032695,0.50263,0.031817,-0.2119
-0.0028551,-0.02872,0.0024341,-0.012417,0.29687,0.61222,0.25843,0.28984,-0.033716,0.094549,-0.077258,-1.3322,0.35362,-0.78139,-0.050789,-0.13702,-0.053936,0.043083,0.65832,-1.7803,0.036667,0.60171,0.046582,-0.18537
-0.0017629,-0.02273,0.0068849,-0.0097757,0.24573,0.53629,0.15072,0.35208,0.014078,0.092598,0.03431,-1.6292,0.36973,-0.95974,-0.051515,-0.086485,-0.057867,0.037072,0.48892,-1.765,0.041857,0.69683,0.06432,-0.12316
-0.0021985,-0.018108,0.010849,-0.0067156,0.1958,0.44957,0.092561,0.41235,0.049749,0.050001,0.14118,-1.8157,0.39398,-1.0697,-0.048885,-0.037118,-0.048415,0.029948,0.35474,-1.8151,0.046862,0.79537,0.084012,-0.036754
-0.0040705,-0.016741,0.011103,-0.0047034,0.15874,0.36538,0.088339,0.45919,0.089698,-0.041215,0.23608,-1.8997,0.42364,-1.1123,-0.045942,0.0064198,-0.036219,0.017858,0.27582,-1.9421,0.050997,0.89779,0.10486,0.0484
-0.0070051,-0.017881,0.0067348,-0.0043285,0.14463,0.29491,0.12634,0.47487,0.14488,-0.17264,0.29659,-1.8824,0.4501,-1.1036,-0.041907,0.03833,-0.034353,-0.00048067,0.24645,-2.1107,0.055566,0.99292,0.12619,0.11262
-0.0098467,-0.01913,-0.00018476,-0.004869,0.1559,0.23891,0.18431,0.4461,0.21491,-0.31892,0.30579,-1.7547,0.46353,-1.0597,-0.036655,0.049695,-0.049112,-0.021789,0.23403,-2.2432,0.063164,1.0571,0.14777,0.15316
-0.011038,-0.018896,-0.0058855,-0.004904,0.18459,0.18664,0.2381,0.37085,0.28967,-0.44895,0.27017,-1.5136,0.45716,-0.98426,-0.033867,0.032435,-0.074893,-0.039127,0.1956,-2.2547,0.075402,1.0605,0.16945,0.18024
-0.0099259,-0.017776,-0.007083,-0.0033899,0.2149,0.12416,0.27002,0.25685,0.35685,-0.54158,0.2193,-1.1854,0.42857,-0.86795,-0.038384,-0.01419,-0.097441,-0.045696,0.1048,-2.1037,0.090902,0.98064,0.18995,0.20453
-0.0077649,-0.017584,-0.0026178,-0.00037351,0.22952,0.045832,0.27411,0.11481,0.40931,-0.59341,0.18717,-0.83485,0.37865,-0.70089,-0.049697,-0.080922,-0.10329,-0.039059,-0.028137,-1.8246,0.1053,0.81604,0.20598,0.22788
-0.0071342,-0.019181,0.0062173,0.0030686,0.21599,-0.040327,0.2569,-0.046502,0.44714,-0.61295,0.19058,-0.54647,0.31159,-0.48709,-0.05854,-0.15268,-0.088407,-0.022649,-0.15933,-1.5173,0.11339,0.59181,0.21281,0.24378
-0.0099418,-0.021321,0.016469,0.0055097,0.16992,-0.11748,0.23352,-0.2195,0.47374,-0.6067,0.22203,-0.38808,0.23746,-0.25026,-0.051814,-0.2163,-0.05997,-0.0035318,-0.23911,-1.2938,0.1117,0.35185,0.20626,0.24499
-0.015658,-0.021602,0.024782,0.0060327,0.094533,-0.17074,0.22074,-0.3936,0.4905,-0.57017,0.26124,-0.37668,0.17414,-0.026447,-0.023539,-0.26569,-0.030832,0.011476,-0.24844,-1.2133,0.099776,0.14046,0.1845,0.23075
-0.021439,-0.018458,0.028588,0.0048251,-0.0019433,-0.19549,0.22971,-0.55387,0.49531,-0.49209,0.29367,-0.47002,0.14415,0.1507,0.017116,-0.30066,-0.011961,0.018127,-0.21867,-1.2506,0.079408,-0.016385,0.14857,0.20817
-0.024214,-0.012345,0.026986,0.0031773,-0.1092,-0.19777,0.26145,-0.68537,0.48603,-0.36812,0.31935,-0.58898,0.16465,0.26184,0.048686,-0.32181,-0.0085106,0.014246,-0.21864,-1.3211,0.052992,-0.11895,0.10157,0.18835
-0.023093,-0.0052585,0.02113,0.0027646,-0.21707,-0.18784,0.3065,-0.78056,0.4651,-0.21161,0.34602,-0.65587,0.23648,0.30494,0.050639,-0.32666,-0.020791,-0.0016425,-0.31433,-1.3433,0.022562,-0.18651,0.048043,0.18102
-0.020122,0.00067158,0.013889,0.0045168,-0.3171,-0.17271,0.34892,-0.84309,0.44014,-0.051356,0.37561,-0.62572,0.34066,0.29135,0.017447,-0.311,-0.046638,-0.029698,-0.52665,-1.2946,-0.0099908,-0.24063,-0.0059262,0.19142
-0.018734,0.0042112,0.0087164,0.0078108,-0.40344,-0.15298,0.37291,-0.88406,0.41933,0.082995,0.3985,-0.49564,0.44692,0.2412,-0.037478,-0.27414,-0.081437,-0.065769,-0.81567,-1.2161,-0.04236,-0.29063,-0.053014,0.21973
-0.021073,0.0051522,0.00806,0.01072,-0.47269,-0.12503,0.36931,-0.91282,0.40547,0.17709,0.40167,-0.29457,0.52971,0.18176,-0.091095,-0.22328,-0.1161,-0.099191,-1.1028,-1.1657,-0.07208,-0.33038,-0.086421,0.26183
-0.026216,0.0039671,0.012136,0.011348,-0.52288,-0.085891,0.33945,-0.92914,0.39415,0.23779,0.38239,-0.065664,0.58107,0.14574,-0.12574,-0.17226,-0.13715,-0.1152,-1.3159,-1.1577,-0.09767,-0.34687,-0.10264,0.3104
-0.030678,0.0015465,0.018858,0.0093232,-0.55273,-0.03712,0.29401,-0.92252,0.37762,0.2851,0.35347,0.14862,0.61174,0.1646,-0.13797,-0.13416,-0.13182,-0.10213,-1.4273,-1.1411,-0.11951,-0.33252,-0.10278,0.35664
-0.030888,-0.00097678,0.025071,0.0062083,-0.56245,0.014851,0.24714,-0.87932,0.35092,0.33646,0.33367,0.31756,0.64053,0.25625,-0.13542,-0.11278,-0.09598,-0.058773,-1.4588,-1.0316,-0.13922,-0.29193,-0.090684,0.39267
-0.025919,-0.0026482,0.028349,0.0043784,-0.55583,0.061776,0.20885,-0.79278,0.315,0.3937,0.33123,0.43173,0.68014,0.41405,-0.12638,-0.099248,-0.038368,0.0041385,-1.4544,-0.77245,-0.15771,-0.2392,-0.069182,0.41381
-0.018407,-0.003326,0.02815,0.0052463,-0.54143,0.097897,0.1803,-0.67008,0.27448,0.44032,0.33496,0.50875,0.72893,0.60569,-0.11261,-0.077306,0.023437,0.069927,-1.4431,-0.37247,-0.17364,-0.18961,-0.038262,0.41901
-0.012829,-0.0039601,0.025591,0.0083307,-0.53062,0.12247,0.15551,-0.53282,0.23289,0.44932,0.32082,0.58734,0.77291,0.78482,-0.091596,-0.034304,0.073009,0.12507,-1.4209,0.10228,-0.18378,-0.15217,0.0023098,0.40923
-0.012235,-0.006002,0.022202,0.011945,-0.53225,0.13862,0.12863,-0.41096,0.18969,0.39687,0.26842,0.70602,0.79486,0.90852,-0.064212,0.029639,0.10346,0.1644,-1.3627,0.56995,-0.18557,-0.12683,0.048054,0.38542
-0.015841,-0.010185,0.018813,0.014815,-0.5474,0.14935,0.10161,-0.3327,0.14116,0.27528,0.17369,0.87587,0.78369,0.94993,-0.038655,0.10086,0.11788,0.18917,-1.2507,0.96845,-0.17952,-0.10571,0.087925,0.34829
-0.019463,-0.015644,0.015524,0.017123,-0.56794,0.1544,0.086183,-0.31376,0.083468,0.099888,0.049048,1.0667,0.73843,0.90084,-0.025233,0.16004,0.12275,0.20124,-1.0943,1.2627,-0.16969,-0.075816,0.10901,0.30016
-0.018628,-0.020261,0.012583,0.020044,-0.58022,0.15112,0.097929,-0.34975,0.014902,-0.093261,-0.086446,1.2201,0.66571,0.76819,-0.026657,0.19244,0.12128,0.19996,-0.92604,1.435,-0.16151,-0.022871,0.10511,0.24661
-0.012006,-0.022185,0.011021,0.024309,-0.57123,0.13946,0.14625,-0.41562,-0.064033,-0.25929,-0.21625,1.2822,0.57402,0.57263,-0.033721,0.19337,0.11296,0.18467,-0.77954,1.4839,-0.15913,0.063203,0.081862,0.195
-0.0024447,-0.021426,0.012095,0.029201,-0.53324,0.12659,0.2273,-0.47353,-0.15124,-0.36202,-0.32784,1.2336,0.46919,0.35144,-0.031571,0.16634,0.098761,0.1599,-0.66905,1.4393,-0.16427,0.18197,0.053247,0.14998
0.0052216,-0.020126,0.015847,0.032915,-0.4651,0.12592,0.32523,-0.48663,-0.24271,-0.38912,-0.40882,1.0929,0.35377,0.1587,-0.011475,0.11811,0.085549,0.13665,-0.58475,1.3701,-0.17705,0.31968,0.03159,0.10981
0.0077353,-0.02105,0.020251,0.033911,-0.3714,0.14967,0.42067,-0.43197,-0.3314,-0.35615,-0.4457,0.89395,0.22941,0.053095,0.022604,0.055886,0.083777,0.12721,-0.50361,1.3608,-0.19702,0.45436,0.019391,0.067923
0.005434,-0.025294,0.022169,0.031981,-0.26178,0.19987,0.50037,-0.30666,-0.40731,-0.29623,-0.43003,0.6581,0.099709,0.072495,0.058542,-0.011597,0.09967,0.13702,-0.40373,1.458,-0.22242,0.56756,0.0098946,0.020102
0.0012415,-0.031075,0.019727,0.028155,-0.15044,0.26516,0.56124,-0.12566,-0.46022,-0.24114,-0.36741,0.3856,-0.029071,0.20897,0.087115,-0.072573,0.12889,0.16079,-0.27271,1.6308,-0.248,0.65516,-0.0046102,-0.027796
-0.0021758,-0.034831,0.014195,0.023738,-0.053835,0.32691,0.60699,0.085123,-0.48402,-0.20548,-0.28086,0.073001,-0.14937,0.4033,0.10901,-0.1139,0.15806,0.18651,-0.10953,1.7813,-0.26419,0.72777,-0.024898,-0.058996
-0.0044214,-0.033931,0.0094797,0.019562,0.014764,0.371,0.6411,0.29573,-0.47997,-0.18407,-0.20399,-0.26099,-0.25427,0.56787,0.13158,-0.12567,0.17364,0.20409,0.075147,1.8064,-0.26004,0.79913,-0.044836,-0.054611
-0.0068729,-0.028833,0.0092752,0.016125,0.051848,0.39716,0.66252,0.47749,-0.45595,-0.16245,-0.16792,-0.56587,-0.3388,0.62724,0.15912,-0.10494,0.17113,0.21149,0.25836,1.6663,-0.22918,0.87083,-0.058977,-0.0069164
-0.010451,-0.022776,0.014039,0.014241,0.066669,0.41932,0.66674,0.60808,-0.42197,-0.13141,-0.1904,-0.77707,-0.4005,0.55117,0.18654,-0.055713,0.1572,0.21374,0.40859,1.4053,-0.17473,0.9264,-0.069725,0.073035
-0.014013,-0.01919,0.020397,0.015159,0.077391,0.4568,0.65029,0.67688,-0.3848,-0.09417,-0.27177,-0.84951,-0.43976,0.36054,0.20222,0.01351,0.14371,0.21667,0.49753,1.1135,-0.10879,0.94096,-0.086237,0.16053
-0.015018,-0.019004,0.02367,0.019681,0.1018,0.52192,0.61372,0.68807,-0.34512,-0.062208,-0.39604,-0.78365,-0.45929,0.10565,0.19722,0.090882,0.13871,0.22117,0.5158,0.86484,-0.046001,0.90001,-0.1152,0.23265
-0.011881,-0.020161,0.021543,0.026965,0.14812,0.61172,0.56057,0.65796,-0.29905,-0.045209,-0.53351,-0.62718,-0.46223,-0.16366,0.17192,0.16013,0.14147,0.2225,0.48108,0.68186,0.0045805,0.81286,-0.15196,0.28303
-0.0057467,-0.019645,0.015796,0.034303,0.21156,0.7087,0.49382,0.60673,-0.2425,-0.044411,-0.6449,-0.45346,-0.44933,-0.41441,0.1349,0.20069,0.14426,0.21407,0.42923,0.54873,0.043626,0.7099,-0.18097,0.32476
7.0332e-005,-0.016178,0.010597,0.038463,0.27801,0.79011,0.41396,0.54979,-0.17512,-0.054185,-0.69065,-0.33132,-0.418,-0.62666,0.096173,0.19352,0.13837,0.19183,0.39157,0.44905,0.078868,0.625,-0.18652,0.37849
0.002611,-0.011283,0.0088596,0.037779,0.33171,0.84012,0.32081,0.49453,-0.10113,-0.068916,-0.6461,-0.3032,-0.36523,-0.78108,0.061743,0.13194,0.11931,0.15621,0.37366,0.3886,0.11805,0.57563,-0.16494,0.4546
0.0016046,-0.0079981,0.0098969,0.033376,0.36212,0.85758,0.2176,0.44351,-0.027062,-0.088404,-0.51529,-0.37947,-0.29286,-0.85507,0.033649,0.030374,0.088379,0.11157,0.35225,0.38414,0.16278,0.55403,-0.12794,0.54242
-0.00040482,-0.0084958,0.010437,0.028475,0.36659,0.85434,0.11351,0.39914,0.041254,-0.11767,-0.3323,-0.54623,-0.21008,-0.83306,0.013431,-0.077358,0.051199,0.065113,0.29464,0.43474,0.20734,0.53408,-0.09385,0.61453
-0.00023458,-0.012554,0.0079831,0.026214,0.34902,0.84559,0.021982,0.36449,0.10001,-0.1626,-0.14511,-0.77836,-0.12874,-0.72123,0.0036633,-0.15232,0.015408,0.025877,0.18691,0.50714,0.24225,0.48795,-0.074282,0.64286
0.0032919,-0.017858,0.0033112,0.027583,0.31643,0.83926,-0.044025,0.33995,0.14667,-0.22566,0.0094174,-1.0497,-0.05333,-0.55141,0.0052346,-0.16988,-0.011126,0.0031144,0.049719,0.5502,0.25946,0.40145,-0.067316,0.61492
0.0083711,-0.021635,-0.00027939,0.030964,0.27597,0.8326,-0.076888,0.32108,0.17887,-0.30425,0.1224,-1.3368,0.026484,-0.36905,0.013474,-0.13222,-0.021947,0.0029244,-0.071657,0.525,0.25579,0.28037,-0.062322,0.53953
0.011593,-0.022361,-0.00024978,0.033523,0.23367,0.81811,-0.076436,0.30164,0.19521,-0.39119,0.20969,-1.6176,0.13252,-0.2146,0.018278,-0.065904,-0.014241,0.024442,-0.13616,0.42422,0.23353,0.1471,-0.051274,0.43937
0.010467,-0.02051,0.002576,0.033326,0.19491,0.79331,-0.049004,0.28016,0.1975,-0.47551,0.29239,-1.8663,0.28374,-0.11193,0.0097799,-0.006124,0.0089434,0.058599,-0.13293,0.26695,0.19909,0.031638,-0.036167,0.3371
0.005153,-0.018082,0.0047061,0.030543,0.16568,0.76499,-0.0046738,0.26289,0.19235,-0.54334,0.37783,-2.0512,0.48001,-0.069346,-0.014472,0.022666,0.038387,0.091505,-0.084416,0.079315,0.16091,-0.038219,-0.026426,0.24461
-0.0017371,-0.017284,0.0033974,0.026907,0.15284,0.74375,0.045967,0.25908,0.18935,-0.57958,0.45626,-2.1378,0.69605,-0.086237,-0.046917,0.018648,0.061756,0.11111,-0.025513,-0.11738,0.12717,-0.045171,-0.029447,0.16114
-0.0068683,-0.01907,-0.00052842,0.024015,0.16218,0.73327,0.094914,0.27177,0.1961,-0.57046,0.51413,-2.1,0.8905,-0.15488,-0.074434,0.001367,0.069254,0.11297,0.023022,-0.29984,0.10341,0.011914,-0.043111,0.07917
-0.0080638,-0.022327,-0.0033532,0.02202,0.19463,0.72433,0.13895,0.29318,0.21339,-0.50583,0.55041,-1.9369,1.0245,-0.25543,-0.086448,-0.00086816,0.058711,0.10121,0.064829,-0.42841,0.09087,0.11598,-0.056448,-0.0073449
-0.0051349,-0.024266,-0.0021778,0.019848,0.24311,0.6994,0.17963,0.31002,0.23446,-0.38087,0.58058,-1.6843,1.0778,-0.3526,-0.080437,0.032472,0.03664,0.084447,0.11555,-0.44826,0.086762,0.23518,-0.056995,-0.097861
0.00056233,-0.021976,0.0018209,0.016673,0.29328,0.64458,0.22014,0.31491,0.24944,-0.19854,0.62469,-1.4101,1.0538,-0.40411,-0.0612,0.10226,0.014089,0.069738,0.18178,-0.31791,0.086651,0.33242,-0.038085,-0.18522
0.0071586,-0.014362,0.0038897,0.01314,0.32904,0.55867,0.26018,0.31363,0.25194,0.026381,0.69034,-1.1872,0.97386,-0.38048,-0.035719,0.18844,-0.00031475,0.058759,0.2514,-0.049498,0.087517,0.37863,-0.00081141,-0.25938
0.013043,-0.0032302,-0.00016393,0.011065,0.3403,0.45238,0.29251,0.32104,0.24298,0.26432,0.76524,-1.0576,0.86694,-0.28314,-0.0086951,0.2599,-0.0055502,0.048222,0.30227,0.27351,0.089212,0.36408,0.048905,-0.31214
0.017052,0.0073274,-0.0098062,0.011821,0.32786,0.33931,0.30496,0.34838,0.22951,0.47472,0.82529,-1.0065,0.76131,-0.14564,0.017736,0.29052,-0.0080909,0.033285,0.31727,0.52696,0.093142,0.30176,0.10388,-0.3406
0.018404,0.013035,-0.019441,0.01496,0.30191,0.22762,0.28785,0.39243,0.21889,0.61972,0.85093,-0.97096,0.67921,-0.014375,0.041204,0.27248,-0.016655,0.011044,0.2895,0.61459,0.099322,0.21969,0.15692,-0.34824
0.01684,0.01176,-0.022467,0.01847,0.27529,0.1197,0.24253,0.43539,0.21398,0.68249,0.83893,-0.87695,0.63269,0.078281,0.057382,0.21959,-0.035732,-0.018089,0.21418,0.5293,0.10442,0.14564,0.20071,-0.34366
0.013031,0.0046152,-0.016402,0.020479,0.25682,0.018941,0.18439,0.45592,0.21245,0.67793,0.80194,-0.68485,0.61982,0.12887,0.062129,0.15897,-0.062635,-0.05128,0.08115,0.35866,0.10264,0.092155,0.22916,-0.33735
0.0087504,-0.0047942,-0.0047937,0.020806,0.24997,-0.063835,0.13718,0.44293,0.21039,0.6461,0.75848,-0.41013,0.62386,0.15575,0.05596,0.11657,-0.089984,-0.085019,-0.11778,0.22471,0.089018,0.050681,0.24042,-0.33732
0.0062948,-0.012387,0.0055893,0.020932,0.25672,-0.11164,0.12124,0.40272,0.20669,0.63068,0.72209,-0.10663,0.61889,0.17793,0.046371,0.1055,-0.1113,-0.11631,-0.36905,0.19934,0.062698,-0.0012762,0.23851,-0.34516
0.0072032,-0.015585,0.0098112,0.022489,0.28171,-0.11044,0.14269,0.35564,0.20431,0.65595,0.69633,0.17279,0.58116,0.19867,0.044853,0.12326,-0.12509,-0.14293,-0.62508,0.25866,0.027718,-0.083761,0.23041,-0.35437
0.011079,-0.014183,0.0079123,0.02571,0.33083,-0.059896,0.19005,0.32528,0.20728,0.71708,0.67589,0.40781,0.50062,0.20735,0.060067,0.15709,-0.13449,-0.16323,-0.81783,0.31008,-0.0093537,-0.19876,0.21956,-0.35259
0.015508,-0.0098906,0.0038786,0.029218,0.40373,0.022308,0.24004,0.32692,0.216,0.78792,0.65055,0.61279,0.38496,0.19552,0.092118,0.19197,-0.1433,-0.17629,-0.89471,0.26832,-0.043331,-0.32574,0.20123,-0.32816
0.017407,-0.0050951,0.001789,0.031151,0.48649,0.10563,0.26912,0.36063,0.22513,0.83779,0.6094,0.8128,0.25392,0.17053,0.13231,0.2156,-0.15248,-0.18225,-0.85092,0.1181,-0.073162,-0.43207,0.16468,-0.27847
0.015048,-0.0016832,0.002609,0.030503,0.55225,0.15897,0.26441,0.41175,0.22587,0.84504,0.5451,1.0165,0.12813,0.15306,0.16847,0.21949,-0.15999,-0.18251,-0.73204,-0.08325,-0.10161,-0.492,0.10185,-0.21598
0.0093452,-0.00047646,0.0041183,0.0276,0.57266,0.16356,0.22874,0.4576,0.21129,0.80115,0.45778,1.2075,0.020432,0.16091,0.19171,0.19901,-0.16386,-0.1794,-0.6028,-0.25723,-0.13207,-0.50088,0.016464,-0.16672
0.0033679,-0.0013533,0.0035399,0.02363,0.53404,0.12022,0.17773,0.47723,0.18076,0.70841,0.3559,1.3568,-0.065048,0.19484,0.20015,0.15549,-0.16507,-0.17548,-0.50532,-0.35995,-0.16473,-0.47343,-0.074082,-0.15984
0.00030157,-0.0037084,0.00024765,0.019901,0.4472,0.04749,0.13093,0.45944,0.14026,0.57709,0.25164,1.4432,-0.12808,0.24,0.19742,0.09934,-0.16705,-0.17263,-0.43726,-0.39646,-0.19506,-0.42651,-0.14636,-0.21179
0.0012605,-0.006812,-0.0037905,0.017382,0.34283,-0.028524,0.10188,0.40512,0.098844,0.4244,0.15282,1.4644,-0.16758,0.2809,0.18812,0.050012,-0.17222,-0.17131,-0.36355,-0.39156,-0.2159,-0.35991,-0.18376,-0.31314
0.0045612,-0.0098812,-0.0059681,0.016529,0.25436,-0.087646,0.092728,0.32343,0.063997,0.27255,0.05805,1.4318,-0.18157,0.31479,0.17353,0.029497,-0.17846,-0.17002,-0.24873,-0.35486,-0.22203,-0.25268,-0.18642,-0.4262
0.007,-0.012051,-0.0054516,0.017117,0.1996,-0.12523,0.096142,0.22555,0.038936,0.1438,-0.038771,1.358,-0.17065,0.34952,0.15019,0.051063,-0.17931,-0.16541,-0.083841,-0.27757,-0.21399,-0.081917,-0.17179,-0.49644
0.0061645,-0.012563,-0.0038889,0.018143,0.1736,-0.15245,0.10267,0.12068,0.023006,0.053871,-0.13698,1.2468,-0.14015,0.38758,0.11143,0.11018,-0.16807,-0.15356,0.11056,-0.16069,-0.19844,0.1484,-0.16569,-0.47359
0.002037,-0.011229,-0.0038878,0.01818,0.15759,-0.18696,0.10803,0.016737,0.013753,0.0076824,-0.22156,1.0923,-0.097469,0.41205,0.050824,0.1847,-0.14284,-0.13233,0.30267,-0.040096,-0.18452,0.39264,-0.18888,-0.33391
-0.0032381,-0.0087998,-0.0066795,0.016288,0.13658,-0.23983,0.11526,-0.076571,0.0087052,-0.00038557,-0.26935,0.88636,-0.046755,0.38981,-0.03399,0.2455,-0.10861,-0.10355,0.472,0.023022,-0.17862,0.57978,-0.24637,-0.094512
-0.007076,-0.0067754,-0.010996,0.012853,0.11192,-0.30707,0.13102,-0.14667,0.0060526,0.016801,-0.26765,0.62661,0.013033,0.29284,-0.13806,0.27113,-0.074646,-0.073246,0.61914,-0.017957,-0.18103,0.65407,-0.3249,0.18663
-0.0082182,-0.0065887,-0.014059,0.0095169,0.099207,-0.37122,0.15982,-0.18151,0.0048082,0.042849,-0.23029,0.32272,0.083104,0.12275,-0.24769,0.25664,-0.049086,-0.048673,0.75842,-0.16111,-0.1863,0.61193,-0.39956,0.42693
-0.0072582,-0.0086825,-0.013777,0.0080139,0.11356,-0.41181,0.20121,-0.17543,0.0051976,0.061454,-0.19529,-0.002644,0.15607,-0.080135,-0.34221,0.2112,-0.034569,-0.033947,0.90149,-0.35924,-0.18679,0.50624,-0.44578,0.5489
-0.0057901,-0.012153,-0.010303,0.0087771,0.15465,-0.41749,0.25161,-0.13335,0.0090331,0.061059,-0.20203,-0.31721,0.21215,-0.25172,-0.39957,0.14752,-0.027674,-0.027269,1.0439,-0.55627,-0.17679,0.41225,-0.45034,0.51363
-0.0051176,-0.015212,-0.0057361,0.01055,0.20347,-0.392,0.30834,-0.070183,0.019127,0.039975,-0.26382,-0.58612,0.22681,-0.33635,-0.40442,0.072017,-0.022212,-0.022295,1.1627,-0.72236,-0.15467,0.37825,-0.41568,0.34246
-0.0055651,-0.016089,-0.0023337,0.011399,0.23355,-0.35025,0.37121,-0.0058836,0.037432,0.0082498,-0.35749,-0.78051,0.18692,-0.31893,-0.35503,-0.017734,-0.013796,-0.012894,1.2255,-0.85807,-0.12223,0.39571,-0.35567,0.11202
-0.0066775,-0.01379,-0.00076583,0.01027,0.22767,-0.3077,0.43993,0.041195,0.062978,-0.017415,-0.43939,-0.88437,0.10352,-0.23949,-0.26495,-0.12796,-0.0025656,0.0023453,1.2064,-0.97077,-0.082416,0.40846,-0.28596,-0.080343
-0.0078109,-0.0084198,0.00017661,0.0077434,0.18774,-0.27016,0.50917,0.059928,0.091313,-0.024305,-0.47529,-0.89706,0.0093408,-0.18038,-0.15787,-0.26156,0.007445,0.019317,1.1014,-1.0527,-0.036994,0.351,-0.21532,-0.16481
-0.0084949,-0.0011666,0.0022644,0.005423,0.13172,-0.23088,0.56614,0.049694,0.11611,-0.012685,-0.46085,-0.83092,-0.059837,-0.22953,-0.058306,-0.41305,0.011315,0.031584,0.9356,-1.0836,0.014163,0.18691,-0.14308,-0.13226
-0.0084296,0.0059371,0.0060485,0.0045977,0.081875,-0.1765,0.59408,0.020633,0.13192,0.0043606,-0.41745,-0.70547,-0.087522,-0.43557,0.016748,-0.56565,0.0061666,0.034444,0.75778,-1.0526,0.07198,-0.077103,-0.063693,-0.030274
-0.0074241,0.01061,0.010123,0.0054053,0.053528,-0.097498,0.58095,-0.0096585,0.13609,0.010853,-0.36969,-0.54018,-0.085277,-0.77812,0.061064,-0.68884,-0.0079073,0.026442,0.62173,-0.97021,0.13609,-0.4044,0.025502,0.074768
-0.0055412,0.011366,0.0121,0.0070939,0.051074,0.0043332,0.52776,-0.022752,0.12881,-0.00011903,-0.32581,-0.34683,-0.080475,-1.1719,0.076795,-0.73877,-0.028893,0.0078346,0.5616,-0.85628,0.20323,-0.75215,0.11883,0.14105
-0.0033048,0.0085759,0.010597,0.0089232,0.070482,0.11641,0.45011,-0.0071028,0.11179,-0.022128,-0.27854,-0.12381,-0.09234,-1.506,0.069665,-0.66788,-0.054229,-0.021301,0.57416,-0.71218,0.26733,-1.087,0.20274,0.16771
-0.0016012,0.0046271,0.0066253,0.010746,0.10361,0.22329,0.37032,0.037133,0.086791,-0.042008,-0.22368,0.14301,-0.11566,-1.6972,0.045717,-0.44687,-0.081049,-0.060529,0.61915,-0.50646,0.32141,-1.3871,0.26166,0.17536
-0.0011472,0.0026521,0.0031474,0.012792,0.14089,0.3159,0.30452,0.099454,0.055211,-0.051217,-0.17661,0.46809,-0.1258,-1.7261,0.011315,-0.090781,-0.10552,-0.10632,0.63922,-0.18839,0.36034,-1.6372,0.2854,0.17261
-0.0018914,0.0044408,0.002951,0.015026,0.17275,0.39482,0.25375,0.16603,0.018592,-0.052242,-0.16802,0.84503,-0.10119,-1.6356,-0.025125,0.32936,-0.12286,-0.1504,0.58891,0.28143,0.38253,-1.829,0.27381,0.14211
-0.002914,0.0091423,0.0064379,0.016847,0.19187,0.46541,0.20578,0.22763,-0.020443,-0.055442,-0.21887,1.23,-0.044937,-1.4948,-0.052839,0.70485,-0.12912,-0.18217,0.45612,0.90735,0.38982,-1.9651,0.2363,0.059824
-0.0030437,0.013957,0.011177,0.01744,0.19602,0.52893,0.14616,0.28268,-0.057589,-0.070249,-0.31544,1.547,0.012433,-1.3581,-0.061751,0.935,-0.12377,-0.19441,0.26419,1.6542,0.38568,-2.0598,0.1874,-0.071397
-0.0017797,0.016379,0.013743,0.016423,0.18926,0.57746,0.069554,0.33354,-0.087148,-0.09875,-0.40775,1.7209,0.031888,-1.2468,-0.047726,0.97591,-0.11065,-0.18779,0.055557,2.455,0.37356,-2.1291,0.14113,-0.20826
0.00021715,0.0161,0.01242,0.01415,0.17963,0.59791,-0.018011,0.37956,-0.10354,-0.13609,-0.43701,1.7217,-0.0078779,-1.1587,-0.016486,0.86158,-0.095615,-0.17018,-0.13069,3.217,0.35632,-2.1728,0.1073,-0.29084
0.0015109,0.014922,0.0085034,0.011447,0.1748,0.58262,-0.10677,0.41374,-0.10376,-0.17515,-0.37325,1.5879,-0.096631,-1.0894,0.017274,0.68201,-0.082202,-0.15082,-0.27341,3.8294,0.33687,-2.164,0.090887,-0.28669
0.00089798,0.014849,0.0050487,0.0091351,0.17929,0.53834,-0.19282,0.42681,-0.089437,-0.20973,-0.23484,1.4074,-0.20068,-1.0407,0.036104,0.53129,-0.068878,-0.13409,-0.36988,4.1838,0.31854,-2.0587,0.093175,-0.21813
-0.0017313,0.016238,0.0041875,0.0078134,0.19492,0.48557,-0.28007,0.41586,-0.066825,-0.23338,-0.075026,1.2645,-0.28549,-1.0104,0.028151,0.45889,-0.050709,-0.11802,-0.42725,4.2166,0.30417,-1.8259,0.1128,-0.14843
-0.0053341,0.017765,0.0054613,0.0079946,0.22272,0.44739,-0.37264,0.39007,-0.043822,-0.23699,0.053905,1.1899,-0.33571,-0.97834,-0.0073728,0.45343,-0.024787,-0.098573,-0.45453,3.9512,0.2945,-1.4777,0.14569,-0.13683
-0.0084561,0.01809,0.0066627,0.010209,0.26272,0.43537,-0.4657,0.36739,-0.025597,-0.20997,0.13145,1.1494,-0.35896,-0.91051,-0.060834,0.46498,0.0049469,-0.075274,-0.46128,3.5041,0.28735,-1.0757,0.18481,-0.19799
-0.010111,0.017367,0.006272,0.014737,0.31084,0.44268,-0.54493,0.36365,-0.011793,-0.14623,0.17355,1.0793,-0.37354,-0.78242,-0.11808,0.44585,0.028013,-0.052797,-0.46096,3.0359,0.27858,-0.70551,0.22101,-0.29622
-0.010065,0.016979,0.0050239,0.021101,0.35621,0.44946,-0.59671,0.38236,0.0023673,-0.050619,0.21174,0.93795,-0.39141,-0.60176,-0.16732,0.38045,0.033476,-0.037024,-0.47211,2.6677,0.26437,-0.43142,0.24573,-0.37552
-0.0083847,0.0178,0.0050372,0.027832,0.38346,0.43633,-0.62083,0.41445,0.021673,0.060509,0.26695,0.73121,-0.40971,-0.4062,-0.20278,0.28749,0.017451,-0.029635,-0.5132,2.418,0.24277,-0.26392,0.25405,-0.3992
-0.004884,0.018975,0.0074154,0.032864,0.38066,0.39629,-0.63387,0.44892,0.046482,0.16617,0.33879,0.49454,-0.41548,-0.23394,-0.22401,0.19941,-0.013939,-0.026874,-0.59343,2.2057,0.21339,-0.16187,0.24627,-0.3691
0.0007735,0.018683,0.010806,0.034415,0.34787,0.33713,-0.65907,0.48588,0.07165,0.2506,0.41477,0.2522,-0.39747,-0.09223,-0.23306,0.13868,-0.04868,-0.024001,-0.70612,1.9173,0.17586,-0.067563,0.22668,-0.3151
0.008223,0.016237,0.012446,0.031752,0.29924,0.27425,-0.71048,0.53952,0.089628,0.30916,0.48604,-0.006424,-0.35425,0.045828,-0.23237,0.1079,-0.076805,-0.021153,-0.82956,1.4874,0.12879,0.051992,0.2003,-0.26935
0.015676,0.013268,0.010697,0.025463,0.25598,0.22035,-0.78415,0.62641,0.095387,0.34711,0.55322,-0.3098,-0.29252,0.21008,-0.22412,0.096347,-0.095857,-0.024495,-0.93477,0.93677,0.07049,0.18769,0.1695,-0.24754
0.020393,0.012565,0.006552,0.017233,0.23447,0.17926,-0.8634,0.74729,0.089661,0.37369,0.61842,-0.6612,-0.21843,0.39506,-0.21002,0.09254,-0.10989,-0.040838,-0.99536,0.3444,0.00059179,0.30497,0.13208,-0.24788
0.020434,0.015495,0.0026199,0.0094039,0.2378,0.14684,-0.93328,0.87791,0.078531,0.39658,0.67471,-1.0107,-0.13117,0.55206,-0.1904,0.091319,-0.12368,-0.070294,-0.99497,-0.21248,-0.078965,0.37782,0.082274,-0.26143
0.016383,0.020528,0.00066502,0.0043599,0.25576,0.11575,-0.99235,0.97878,0.070045,0.41938,0.70594,-1.2729,-0.025266,0.62415,-0.16383,0.091898,-0.13775,-0.10386,-0.93049,-0.70177,-0.1646,0.41149,0.014625,-0.28045
0.011357,0.024411,0.00016969,0.0036526,0.27188,0.079928,-1.0526,1.0181,0.070199,0.44138,0.69832,-1.383,0.099644,0.59746,-0.12871,0.092709,-0.14819,-0.12868,-0.81178,-1.1331,-0.25232,0.43697,-0.070453,-0.29826
0.0089003,0.024973,-0.00071055,0.0070067,0.27168,0.036289,-1.1286,0.99042,0.080378,0.45788,0.65193,-1.3481,0.23024,0.52378,-0.086946,0.090324,-0.15079,-0.1368,-0.6583,-1.5209,-0.33774,0.48455,-0.1621,-0.30542
0.010299,0.022937,-0.0029294,0.011928,0.24735,-0.015028,-1.2249,0.9173,0.097039,0.46169,0.57953,-1.249,0.34053,0.49081,-0.046325,0.083968,-0.14465,-0.1301,-0.49318,-1.8501,-0.41462,0.56021,-0.23919,-0.29035
0.013631,0.021072,-0.005457,0.014692,0.19873,-0.070144,-1.3298,0.82931,0.11323,0.44681,0.49344,-1.187,0.40375,0.55977,-0.018325,0.080435,-0.13199,-0.11742,-0.33611,-2.0743,-0.47375,0.64385,-0.27746,-0.24661
0.015501,0.021512,-0.0064331,0.012571,0.13269,-0.12064,-1.4186,0.74601,0.12124,0.41339,0.39409,-1.2122,0.4082,0.7187,-0.011022,0.093048,-0.11478,-0.10708,-0.19868,-2.1437,-0.50491,0.70868,-0.26178,-0.18014
0.013987,0.023722,-0.0052477,0.0058579,0.062097,-0.15444,-1.4624,0.66949,0.11544,0.36963,0.27366,-1.2895,0.36678,0.88817,-0.021888,0.13335,-0.092603,-0.10151,-0.085159,-2.0417,-0.50219,0.74375,-0.19709,-0.10876
0.010159,0.024881,-0.0032146,-0.002053,0.0033888,-0.15967,-1.4383,0.59514,0.09456,0.32743,0.13369,-1.3297,0.31383,0.97473,-0.036722,0.20081,-0.064588,-0.098533,0.0021007,-1.8049,-0.46948,0.76069,-0.10975,-0.053183
0.0068209,0.022277,-0.0020263,-0.0069318,-0.028056,-0.13039,-1.3364,0.52693,0.062307,0.29376,0.00021372,-1.2615,0.29077,0.93114,-0.037152,0.2784,-0.033808,-0.096929,0.05865,-1.5164,-0.42123,0.78125,-0.036346,-0.02717
0.0057353,0.015655,-0.0016467,-0.0066857,-0.022733,-0.070491,-1.1641,0.48104,0.025783,0.26498,-0.080593,-1.0901,0.32722,0.77986,-0.012415,0.3388,-0.0089604,-0.10013,0.08137,-1.2731,-0.3759,0.81793,-0.0044862,-0.034503
0.006046,0.0076499,-4.8905e-005,-0.0026459,0.020925,0.0067183,-0.94425,0.47254,-0.007706,0.22975,-0.068388,-0.89626,0.4265,0.58773,0.033005,0.35864,-0.00011654,-0.11348,0.079325,-1.1434,-0.34485,0.86473,-0.017259,-0.073395
0.0053772,0.0020802,0.0046643,0.0018481,0.097692,0.083189,-0.70721,0.49581,-0.033975,0.17887,0.040952,-0.77718,0.562,0.41658,0.081905,0.33255,-0.010882,-0.13725,0.083055,-1.1332,-0.32367,0.90457,-0.051543,-0.14122
0.002447,0.0013942,0.011815,0.0042332,0.19692,0.1419,-0.47861,0.51635,-0.053654,0.1135,0.20391,-0.77545,0.68665,0.28797,0.11567,0.27749,-0.033605,-0.16216,0.14037,-1.1842,-0.29266,0.92549,-0.071774,-0.233
-0.0014554,0.0050546,0.018016,0.0044482,0.30148,0.17054,-0.26961,0.48351,-0.071445,0.044376,0.34799,-0.84883,0.75242,0.18343,0.12622,0.22321,-0.052662,-0.17267,0.29469,-1.2099,-0.22781,0.9311,-0.05027,-0.33511
-0.0036006,0.0098599,0.019804,0.0043353,0.3867,0.16205,-0.076427,0.35737,-0.093496,-0.017539,0.40981,-0.90255,0.73109,0.071687,0.1198,0.19361,-0.054276,-0.15687,0.55681,-1.154,-0.11619,0.93637,0.01904,-0.42272
-0.0024134,0.011951,0.016695,0.0056491,0.42484,0.11382,0.1096,0.13255,-0.12442,-0.0704,0.36777,-0.85905,0.62545,-0.063056,0.11014,0.19091,-0.035511,-0.11523,0.89053,-1.0326,0.033729,0.95192,0.12126,-0.46776
0.0010421,0.0092524,0.011739,0.0086568,0.39759,0.027523,0.28852,-0.15675,-0.1654,-0.12256,0.2481,-0.71568,0.46442,-0.21273,0.10675,0.19383,-0.0053705,-0.061,1.2265,-0.92425,0.1939,0.96863,0.23268,-0.45418
0.0040974,0.00284,0.0089043,0.012371,0.30917,-0.089631,0.44608,-0.4531,-0.21395,-0.18457,0.10258,-0.55125,0.28496,-0.35821,0.10783,0.17208,0.022645,-0.011279,1.4986,-0.9115,0.32961,0.95476,0.33396,-0.38912
0.0049388,-0.0036564,0.0096441,0.01572,0.18798,-0.22425,0.56124,-0.70306,-0.26484,-0.25911,-0.024114,-0.47811,0.113,-0.48835,0.1034,0.10767,0.040235,0.024233,1.6789,-1.0126,0.41557,0.86913,0.41553,-0.29998
0.0040764,-0.006338,0.01178,0.018272,0.070916,-0.35903,0.62131,-0.87855,-0.31152,-0.33728,-0.11446,-0.57062,-0.044017,-0.6082,0.085682,0.0079299,0.048466,0.047996,1.7852,-1.1592,0.44548,0.68391,0.47417,-0.21837
0.0035108,-0.0035992,0.011715,0.019976,-0.020077,-0.47857,0.63189,-0.98107,-0.34739,-0.4035,-0.17464,-0.81284,-0.18907,-0.73072,0.057747,-0.098974,0.053804,0.069366,1.857,-1.2402,0.43051,0.40462,0.50757,-0.16268
0.0045795,0.0027506,0.0079235,0.020601,-0.090464,-0.57623,0.61272,-1.0284,-0.36731,-0.445,-0.21641,-1.0959,-0.32083,-0.85989,0.032952,-0.18242,0.060367,0.094219,1.9186,-1.1786,0.3898,0.075449,0.51345,-0.13164
0.0066368,0.0086768,0.0025452,0.019748,-0.16267,-0.65767,0.58219,-1.0347,-0.36919,-0.459,-0.24267,-1.2673,-0.4258,-0.97909,0.025549,-0.22722,0.065532,0.1186,1.9608,-0.98331,0.3403,-0.23399,0.49357,-0.1121
0.0077399,0.010704,-0.00036866,0.017459,-0.25039,-0.73803,0.5437,-0.99961,-0.35504,-0.45419,-0.24839,-1.2072,-0.4846,-1.0541,0.040399,-0.23778,0.062492,0.13186,1.9533,-0.73403,0.29167,-0.45492,0.45676,-0.092736
0.0065228,0.0083505,0.0016288,0.014614,-0.34003,-0.8331,0.48584,-0.91329,-0.33034,-0.44683,-0.23177,-0.89025,-0.48723,-1.0494,0.070391,-0.22697,0.047088,0.12636,1.8752,-0.51658,0.24722,-0.54652,0.41584,-0.071929
0.0034291,0.0043902,0.0071826,0.012503,-0.39704,-0.94856,0.39673,-0.7746,-0.30124,-0.45419,-0.20108,-0.40008,-0.44431,-0.94603,0.10328,-0.20116,0.022663,0.10528,1.7339,-0.36162,0.20737,-0.51134,0.37951,-0.054721
0.00027965,0.0026818,0.012127,0.011873,-0.39358,-1.0735,0.28017,-0.60616,-0.2709,-0.48762,-0.16852,0.11612,-0.38507,-0.75184,0.13132,-0.1556,-0.001341,0.081351,1.5567,-0.2345,0.17194,-0.39272,0.34638,-0.043718
-0.0012339,0.0051842,0.01277,0.012299,-0.3346,-1.1822,0.15898,-0.45189,-0.23766,-0.54752,-0.13776,0.52661,-0.34342,-0.4975,0.15503,-0.084757,-0.01602,0.067533,1.3635,-0.077565,0.1403,-0.25613,0.3073,-0.033698
-0.0007049,0.010498,0.0087164,0.012489,-0.25998,-1.2453,0.061742,-0.35496,-0.19718,-0.62247,-0.10022,0.78235,-0.34205,-0.22443,0.1781,0.0022963,-0.019491,0.067382,1.1488,0.13732,0.11086,-0.16319,0.25475,-0.015544
0.0010223,0.0151,0.0030402,0.011313,-0.21992,-1.2458,0.0033787,-0.33062,-0.14748,-0.69386,-0.046594,0.9315,-0.38449,0.027809,0.1992,0.076882,-0.017955,0.073441,0.89142,0.39066,0.081486,-0.1493,0.19138,0.013679
0.0027141,0.016253,-0.00012747,0.0087808,-0.24266,-1.1905,-0.024302,-0.35413,-0.093255,-0.74422,0.016451,1.0752,-0.45735,0.22933,0.20934,0.10398,-0.020314,0.075017,0.58315,0.64042,0.050924,-0.21394,0.12986,0.043374
0.0034887,0.014132,0.0014512,0.0062319,-0.31855,-1.1098,-0.043947,-0.37448,-0.045332,-0.76418,0.062666,1.2974,-0.53845,0.36348,0.19824,0.065395,-0.030464,0.068638,0.25023,0.85835,0.019659,-0.32733,0.083642,0.051696
0.0029417,0.01139,0.0068144,0.0055304,-0.40988,-1.0433,-0.073184,-0.34516,-0.014777,-0.75306,0.06313,1.6182,-0.60503,0.4285,0.16425,-0.025409,-0.043525,0.061989,-0.055166,1.0385,-0.010783,-0.4495,0.056378,0.016612
0.00098089,0.010592,0.012815,0.0077206,-0.47563,-1.0176,-0.11053,-0.25066,-0.0054773,-0.71295,0.010479,1.9967,-0.6394,0.43663,0.11836,-0.12999,-0.049365,0.067643,-0.28822,1.1697,-0.039686,-0.55142,0.038818,-0.071963
-0.0020794,0.01185,0.016411,0.012028,-0.49181,-1.0306,-0.1382,-0.11143,-0.010938,-0.64208,-0.072509,2.3734,-0.63267,0.4074,0.077664,-0.2094,-0.040914,0.091796,-0.44269,1.2046,-0.068381,-0.62565,0.016022,-0.20707
-0.005197,0.012787,0.016542,0.016041,-0.4557,-1.0537,-0.13884,0.033515,-0.018277,-0.53476,-0.15079,2.7109,-0.58658,0.35518,0.053079,-0.24812,-0.020376,0.12775,-0.55445,1.0644,-0.099497,-0.68047,-0.020909,-0.36879
-0.0067237,0.010833,0.014503,0.017191,-0.37712,-1.0508,-0.11195,0.15171,-0.016972,-0.38943,-0.20773,3.002,-0.51239,0.27857,0.041475,-0.25952,0.0022694,0.15998,-0.67521,0.69206,-0.13448,-0.72293,-0.067747,-0.53264
-0.0054421,0.0057141,0.012836,0.014627,-0.26791,-1.0021,-0.076148,0.2332,-0.0061137,-0.21826,-0.26131,3.2433,-0.42611,0.16212,0.029169,-0.27017,0.017595,0.17554,-0.83901,0.11635,-0.1711,-0.74477,-0.10996,-0.6755
-0.0019406,-0.00012018,0.013548,0.010032,-0.13774,-0.91435,-0.055804,0.29001,0.0051098,-0.048484,-0.34952,3.4053,-0.34232,-0.006598,0.0041686,-0.29724,0.024654,0.17299,-1.0477,-0.52914,-0.2029,-0.72333,-0.13297,-0.77628
0.0010732,-0.003425,0.016715,0.0065624,0.0044826,-0.81173,-0.063181,0.34396,0.0039521,0.088401,-0.49608,3.4285,-0.27083,-0.2157,-0.032707,-0.33773,0.031051,0.16158,-1.2828,-1.0596,-0.22132,-0.63747,-0.1322,-0.815
0.00039734,-0.0025916,0.020297,0.0065454,0.14892,-0.71604,-0.090666,0.41257,-0.017082,0.17313,-0.68554,3.2556,-0.21847,-0.42209,-0.066774,-0.37612,0.044624,0.15186,-1.5286,-1.3385,-0.2196,-0.48536,-0.11598,-0.77515
-0.0049605,0.0015789,0.021367,0.0097108,0.28634,-0.63336,-0.11922,0.49992,-0.055192,0.2086,-0.8699,2.8769,-0.19335,-0.5688,-0.079302,-0.40016,0.064286,0.14648,-1.7828,-1.3549,-0.19616,-0.28917,-0.099785,-0.65058
-0.012262,0.0071576,0.018112,0.01339,0.41085,-0.55739,-0.13602,0.59438,-0.098902,0.21545,-1.0012,2.3539,-0.20584,-0.61693,-0.060526,-0.40861,0.079121,0.13936,-2.0457,-1.2215,-0.15563,-0.082324,-0.096145,-0.45212
-0.016413,0.012844,0.011287,0.014539,0.51984,-0.48398,-0.1468,0.67265,-0.13459,0.21737,-1.0623,1.7986,-0.26297,-0.56876,-0.016187,-0.40423,0.077597,0.12322,-2.3012,-1.0911,-0.10685,0.10996,-0.10674,-0.20756
-0.013595,0.018378,0.0039646,0.011952,0.60996,-0.4217,-0.17281,0.70885,-0.15346,0.22879,-1.0703,1.3179,-0.35945,-0.46383,0.036531,-0.38179,0.059023,0.09789,-2.5077,-1.0529,-0.059087,0.28092,-0.12166,0.046657
-0.0043332,0.023433,-0.00040461,0.0069687,0.67252,-0.38822,-0.23415,0.68573,-0.15507,0.25496,-1.0517,0.95831,-0.47295,-0.35086,0.079635,-0.32631,0.036459,0.071526,-2.6118,-1.0809,-0.018662,0.43554,-0.12591,0.27731
0.0066204,0.026552,-0.00025019,0.0023209,0.69348,-0.39621,-0.33281,0.60263,-0.1463,0.3024,-1.0127,0.68771,-0.56982,-0.25735,0.10326,-0.22654,0.027418,0.053767,-2.574,-1.0714,0.011937,0.57429,-0.10909,0.4626
0.013619,0.025703,0.0032503,0.00023071,0.66024,-0.44244,-0.44903,0.47541,-0.13694,0.38647,-0.93328,0.42716,-0.61986,-0.17996,0.10715,-0.091721,0.039829,0.04751,-2.389,-0.9322,0.032436,0.68243,-0.072066,0.59318
0.01399,0.020215,0.0072868,0.0012379,0.57152,-0.5103,-0.55428,0.32857,-0.13428,0.52465,-0.7884,0.11052,-0.61145,-0.10071,0.095419,0.046184,0.065456,0.046895,-2.0875,-0.65292,0.042284,0.73473,-0.026773,0.66836
0.0093717,0.01219,0.0094905,0.0043464,0.443,-0.5822,-0.63063,0.18618,-0.13901,0.71731,-0.57802,-0.27008,-0.55708,-0.013211,0.070692,0.15073,0.086641,0.042879,-1.7221,-0.30347,0.039665,0.71173,0.010575,0.69255
0.0037505,0.0056374,0.0093026,0.0079733,0.30319,-0.64996,-0.68062,0.068373,-0.14451,0.93186,-0.33775,-0.66423,-0.48518,0.063758,0.033072,0.20528,0.090461,0.030758,-1.3493,0.029327,0.023032,0.61442,0.028186,0.67433
0.00016175,0.0036439,0.0078091,0.010803,0.17993,-0.71423,-0.71969,-0.0068854,-0.14012,1.1076,-0.11997,-1.0055,-0.42344,0.09633,-0.015401,0.22118,0.077886,0.012714,-1.0175,0.30739,-0.0060974,0.46659,0.02388,0.62631
-0.0011643,0.005935,0.0065812,0.012095,0.085389,-0.77571,-0.75832,-0.024237,-0.11737,1.1838,0.039426,-1.2608,-0.38444,0.060795,-0.06578,0.22055,0.060292,-0.006215,-0.76148,0.55396,-0.041656,0.30494,0.0042054,0.56313
-0.0020881,0.0090856,0.0066289,0.01163,0.0094666,-0.8288,-0.78998,0.020478,-0.075613,1.1334,0.14173,-1.4482,-0.36254,-0.035304,-0.10268,0.20849,0.04723,-0.023951,-0.59583,0.809,-0.074547,0.16562,-0.020727,0.49775
-0.004406,0.0094123,0.0080548,0.0096413,-0.072782,-0.86421,-0.79596,0.10791,-0.023087,0.97941,0.21812,-1.6105,-0.34319,-0.15116,-0.11182,0.16131,0.037124,-0.042869,-0.50864,1.0741,-0.096277,0.076089,-0.042469,0.43968
-0.00825,0.0061277,0.010218,0.0068209,-0.18388,-0.87688,-0.76314,0.19293,0.027712,0.78023,0.30258,-1.7695,-0.31689,-0.2305,-0.089754,0.04547,0.019451,-0.065625,-0.46013,1.2996,-0.10206,0.05329,-0.056548,0.39767
-0.012101,0.001998,0.012052,0.0041939,-0.32829,-0.86978,-0.69829,0.22215,0.067576,0.59414,0.40774,-1.9,-0.28744,-0.22766,-0.048295,-0.14639,-0.013875,-0.089976,-0.39595,1.4229,-0.091389,0.1031,-0.062023,0.38462
-0.014007,0.00089563,0.012509,0.0026881,-0.48953,-0.84918,-0.62547,0.1647,0.095508,0.44828,0.52101,-1.9463,-0.26885,-0.1277,-0.0092867,-0.37322,-0.058679,-0.1085,-0.27302,1.4208,-0.066681,0.21729,-0.060451,0.41819
-0.012932,0.0043664,0.011208,0.0025841,-0.64175,-0.81709,-0.56774,0.034212,0.11736,0.33309,0.61969,-1.8669,-0.27392,0.048424,0.0071429,-0.55951,-0.099539,-0.11439,-0.083146,1.326,-0.032247,0.37059,-0.055693,0.51278
-0.0094393,0.01017,0.0089494,0.0032768,-0.76642,-0.77005,-0.52845,-0.11711,0.13948,0.22361,0.68902,-1.6706,-0.30324,0.25427,-0.0071811,-0.63824,-0.12094,-0.10825,0.14299,1.1954,0.0052863,0.52435,-0.053911,0.66617
-0.0054907,0.013972,0.0074727,0.0036581,-0.86025,-0.70651,-0.48814,-0.23096,0.16276,0.10888,0.72829,-1.4166,-0.34237,0.43851,-0.046401,-0.59085,-0.11883,-0.099302,0.35599,1.0618,0.036905,0.63911,-0.062254,0.85082
-0.003428,0.012646,0.00829,0.0029502,-0.92813,-0.63524,-0.42022,-0.27817,0.18204,0.005724,0.74357,-1.1797,-0.36833,0.56629,-0.096762,-0.4548,-0.10266,-0.098841,0.51748,0.91385,0.054335,0.68986,-0.08609,1.0197
-0.0045169,0.0064302,0.011394,0.0013738,-0.96812,-0.57436,-0.31282,-0.26936,0.1912,-0.053261,0.7373,-1.0101,-0.36,0.63128,-0.14503,-0.2954,-0.086766,-0.11119,0.61745,0.71798,0.056383,0.67379,-0.12669,1.1274
-0.0078812,-0.0016063,0.015046,4.9571e-005,-0.96361,-0.53986,-0.18007,-0.23406,0.18935,-0.04728,0.70606,-0.91557,-0.3056,0.65169,-0.18285,-0.16629,-0.078955,-0.12976,0.66848,0.45929,0.053805,0.60562,-0.18151,1.1545
-0.01081,-0.0079763,0.017047,0.00010121,-0.89238,-0.53341,-0.054934,-0.18798,0.18266,0.011773,0.64798,-0.87229,-0.2042,0.6525,-0.20544,-0.087985,-0.076028,-0.14187,0.68636,0.16095,0.066553,0.50534,-0.24713,1.1204
-0.010648,-0.010925,0.016531,0.0016375,-0.74739,-0.54159,0.030301,-0.11803,0.1803,0.081819,0.57233,-0.84861,-0.063215,0.64587,-0.20834,-0.054167,-0.068954,-0.13839,0.67739,-0.13321,0.11207,0.3884,-0.32231,1.0733
-0.0070332,-0.010856,0.014657,0.00351,-0.55183,-0.54837,0.061719,0.0019371,0.18815,0.11548,0.50169,-0.82079,0.10432,0.6253,-0.18661,-0.051482,-0.052104,-0.12009,0.64318,-0.39443,0.19143,0.26336,-0.40797,1.0607
-0.0025399,-0.0092488,0.013501,0.0041743,-0.35378,-0.55009,0.049283,0.17935,0.20542,0.089851,0.46407,-0.7731,0.28123,0.57944,-0.13762,-0.071684,-0.028133,-0.09571,0.59439,-0.62894,0.28432,0.13409,-0.50316,1.0989
-0.00081606,-0.0073657,0.014075,0.0030138,-0.20129,-0.55906,0.019076,0.38435,0.22683,0.020341,0.47949,-0.69093,0.44798,0.51554,-0.064472,-0.10888,-0.0049876,-0.073979,0.55504,-0.8638,0.35911,7.8422e-005,-0.59959,1.1571
-0.0035523,-0.0056822,0.015315,0.00097371,-0.1152,-0.59207,-0.00091786,0.56139,0.2477,-0.050456,0.54944,-0.55939,0.5869,0.47059,0.023105,-0.15229,0.011297,-0.056815,0.54782,-1.1102,0.39267,-0.14562,-0.67944,1.1693
-0.0088945,-0.0040118,0.01503,-0.00016172,-0.0798,-0.65409,0.006737,0.66136,0.2672,-0.080286,0.65488,-0.37147,0.68787,0.49478,0.11129,-0.18784,0.021276,-0.039421,0.57217,-1.3346,0.38567,-0.31448,-0.71974,1.0667
-0.012843,-0.001776,0.012024,0.00065191,-0.057889,-0.73191,0.043302,0.66768,0.28702,-0.051899,0.76342,-0.13906,0.75143,0.61318,0.18603,-0.2086,0.030636,-0.01629,0.59671,-1.4621,0.361,-0.51137,-0.70238,0.8156
-0.012538,0.001793,0.0074437,0.0026306,-0.018459,-0.80299,0.096192,0.59704,0.30702,0.020946,0.84189,0.10345,0.78579,0.79308,0.23625,-0.22097,0.044653,0.012913,0.57752,-1.4142,0.34564,-0.71955,-0.62451,0.43862
-0.0085838,0.0072668,0.004018,0.0036091,0.04353,-0.85104,0.14748,0.47902,0.32239,0.10762,0.86825,0.30808,0.79883,0.94631,0.25607,-0.23611,0.063672,0.042802,0.49056,-1.1593,0.34962,-0.89539,-0.50274,0.0099989
-0.004382,0.014352,0.0037482,0.0017902,0.10802,-0.8738,0.18456,0.33578,0.32538,0.18234,0.83795,0.43159,0.79121,0.97357,0.24628,-0.25345,0.082958,0.066643,0.35236,-0.74364,0.35892,-0.98375,-0.36756,-0.37482
-0.0031482,0.021451,0.0060503,-0.0026203,0.14779,-0.87715,0.20744,0.17878,0.3106,0.23728,0.7624,0.45489,0.75631,0.82511,0.21463,-0.25501,0.096227,0.080722,0.21154,-0.28058,0.34752,-0.9483,-0.25078,-0.63803
-0.0052507,0.026191,0.0080444,-0.0073298,0.14821,-0.86295,0.22776,0.020081,0.27947,0.27964,0.6616,0.3931,0.6876,0.53559,0.17355,-0.22195,0.099518,0.084548,0.11708,0.099161,0.2987,-0.7968,-0.17311,-0.74735
-0.008104,0.02691,0.0068351,-0.0096197,0.11465,-0.82389,0.25927,-0.11856,0.24024,0.31851,0.55542,0.28913,0.58703,0.20529,0.13492,-0.16174,0.092775,0.077769,0.087328,0.31143,0.21795,-0.58177,-0.13876,-0.72007
-0.0084988,0.024036,0.0018941,-0.0084604,0.064905,-0.75092,0.30583,-0.21158,0.20317,0.35446,0.45792,0.19082,0.46725,-0.061542,0.1046,-0.11878,0.07903,0.058434,0.1011,0.35931,0.12772,-0.37378,-0.13883,-0.60469
-0.0052277,0.02002,-0.0044367,-0.0053454,0.015029,-0.64587,0.356,-0.24596,0.17445,0.3805,0.37631,0.12312,0.34579,-0.21795,0.080496,-0.15112,0.062894,0.025675,0.1139,0.32679,0.050065,-0.22546,-0.15894,-0.45394
0.00013476,0.017603,-0.0086926,-0.0031282,-0.030098,-0.52629,0.38905,-0.23119,0.15308,0.39168,0.31249,0.073961,0.23608,-0.29059,0.055404,-0.28529,0.04971,-0.015426,0.084826,0.33027,-0.0076772,-0.15073,-0.18531,-0.3054
0.0046768,0.017803,-0.0088034,-0.0037946,-0.07584,-0.41648,0.38841,-0.19136,0.13266,0.39257,0.26417,0.0073866,0.14238,-0.34102,0.022538,-0.48477,0.045112,-0.052479,-0.0031095,0.45813,-0.053055,-0.13112,-0.2062,-0.17802
0.0063902,0.019419,-0.0053975,-0.0069959,-0.12975,-0.33255,0.35174,-0.14526,0.10653,0.39416,0.22486,-0.10118,0.061156,-0.4047,-0.020594,-0.66084,0.053783,-0.071218,-0.13735,0.73382,-0.097116,-0.14033,-0.21141,-0.080751
0.0054054,0.020584,-0.0010829,-0.010513,-0.19411,-0.27455,0.28974,-0.092703,0.072644,0.40198,0.18447,-0.23393,-0.01416,-0.4572,-0.071826,-0.72245,0.077021,-0.064566,-0.28253,1.1189,-0.1436,-0.16573,-0.19354,-0.021963
0.0035018,0.020895,0.001433,-0.012181,-0.26477,-0.23273,0.21583,-0.020445,0.035081,0.40653,0.13275,-0.33301,-0.089496,-0.43432,-0.12594,-0.62929,0.11066,-0.037839,-0.39434,1.5449,-0.18821,-0.21112,-0.15194,-0.010792
0.0025692,0.022005,0.00081993,-0.011585,-0.33624,-0.20103,0.13763,0.076406,0.0013479,0.38632,0.065127,-0.34217,-0.16906,-0.28815,-0.17562,-0.40993,0.14583,-0.0049107,-0.43672,1.9488,-0.22647,-0.28241,-0.095587,-0.050172
0.0032954,0.025976,-0.0026657,-0.010126,-0.4078,-0.18476,0.059552,0.17598,-0.022546,0.32337,-0.013242,-0.25897,-0.25532,-0.032782,-0.2115,-0.13498,0.17333,0.022262,-0.39785,2.2898,-0.26062,-0.37197,-0.040516,-0.12961
0.0049278,0.032914,-0.0078831,-0.0095314,-0.48504,-0.19484,-0.0059557,0.23111,-0.035888,0.2195,-0.08891,-0.15284,-0.3492,0.25677,-0.22369,0.12901,0.18925,0.042275,-0.29731,2.5459,-0.2984,-0.4567,-0.0016462,-0.2261
0.0060706,0.040207,-0.01352,-0.010281,-0.57461,-0.23425,-0.031652,0.19175,-0.043286,0.099465,-0.14686,-0.12614,-0.4512,0.48996,-0.2064,0.34804,0.19706,0.063566,-0.17747,2.7018,-0.34593,-0.51193,0.015929,-0.31466
0.0058128,0.044264,-0.018369,-0.011358,-0.67541,-0.28977,0.015121,0.033433,-0.050795,-0.0034853,-0.17764,-0.24116,-0.56405,0.61397,-0.16323,0.51464,0.20356,0.094634,-0.081562,2.7408,-0.40297,-0.52861,0.019668,-0.38162
0.0043846,0.043267,-0.02143,-0.01141,-0.77253,-0.33756,0.14959,-0.22719,-0.060933,-0.069802,-0.17997,-0.46784,-0.69371,0.63566,-0.10809,0.62328,0.21124,0.13348,-0.031922,2.6479,-0.46575,-0.51873,0.023995,-0.43094
0.0029289,0.038512,-0.022229,-0.010089,-0.83937,-0.35831,0.35061,-0.53872,-0.070433,-0.10701,-0.15869,-0.69453,-0.84482,0.60104,-0.058998,0.65723,0.21356,0.16585,-0.023825,2.4177,-0.53354,-0.50393,0.040282,-0.47928
0.0025764,0.033229,-0.0212,-0.0082762,-0.84872,-0.34873,0.56361,-0.83719,-0.072769,-0.14392,-0.1226,-0.79535,-1.0115,0.55366,-0.028057,0.60163,0.19868,0.17476,-0.038044,2.0633,-0.61052,-0.49657,0.069452,-0.54328
0.003501,0.030045,-0.019562,-0.0071419,-0.78785,-0.31945,0.72756,-1.0698,-0.063769,-0.20978,-0.085893,-0.70404,-1.172,0.50556,-0.015331,0.46887,0.15972,0.15411,-0.059067,1.6214,-0.699,-0.48914,0.10203,-0.62748
0.0047005,0.029323,-0.018476,-0.0071316,-0.66877,-0.2815,0.80811,-1.208,-0.045948,-0.31383,-0.070787,-0.44233,-1.2962,0.43952,-0.011797,0.30737,0.10335,0.11515,-0.081539,1.1528,-0.78937,-0.46055,0.12498,-0.71944
0.004785,0.029592,-0.018125,-0.0078989,-0.52617,-0.234,0.81299,-1.2475,-0.027906,-0.43916,-0.10404,-0.091142,-1.3646,0.33542,-0.0091186,0.17929,0.048172,0.079638,-0.10048,0.73464,-0.85761,-0.3942,0.13039,-0.79272
0.0032712,0.029347,-0.017619,-0.009032,-0.40199,-0.16431,0.77901,-1.1998,-0.019006,-0.55402,-0.20395,0.26227,-1.3863,0.1973,-0.0078028,0.12176,0.012729,0.06447,-0.099068,0.44074,-0.87553,-0.29262,0.12046,-0.8152
0.001336,0.028459,-0.015983,-0.010542,-0.32433,-0.060818,0.74161,-1.0834,-0.023404,-0.63074,-0.36452,0.55837,-1.3974,0.060363,-0.016412,0.12361,0.0019477,0.069545,-0.052461,0.31454,-0.82752,-0.17719,0.10636,-0.76033
0.0012167,0.028038,-0.013302,-0.012479,-0.2935,0.072708,0.71054,-0.9202,-0.038087,-0.65944,-0.55074,0.76556,-1.4364,-0.026131,-0.042219,0.13788,0.0033251,0.078319,0.049137,0.34588,-0.72101,-0.07334,0.10209,-0.6199
0.0044679,0.029087,-0.010852,-0.014257,-0.28515,0.21385,0.6682,-0.73348,-0.056299,-0.64934,-0.71379,0.86729,-1.513,-0.027557,-0.081374,0.12029,-0.0035218,0.070336,0.17688,0.4695,-0.582,0.0057852,0.11722,-0.41526
0.010383,0.031241,-0.0099971,-0.014784,-0.26929,0.33258,0.58825,-0.54784,-0.073301,-0.6201,-0.81898,0.8629,-1.5943,0.055089,-0.11749,0.062326,-0.031418,0.035685,0.26451,0.5921,-0.43891,0.064233,0.15223,-0.19947
0.016041,0.032703,-0.010972,-0.013629,-0.23255,0.40841,0.45772,-0.38567,-0.089647,-0.59045,-0.86615,0.78485,-1.6219,0.1854,-0.1307,-0.0068343,-0.076636,-0.019469,0.24244,0.63508,-0.30743,0.11351,0.19871,-0.042708
0.018284,0.031451,-0.012847,-0.012025,-0.18742,0.44116,0.28637,-0.26187,-0.1094,-0.57033,-0.88548,0.70686,-1.5488,0.31274,-0.11073,-0.04794,-0.12294,-0.079162,0.084512,0.56607,-0.1871,0.15798,0.24395,-0.001853
0.016236,0.026796,-0.014712,-0.012323,-0.16107,0.44873,0.10012,-0.17952,-0.13503,-0.55858,-0.91046,0.71887,-1.3703,0.40077,-0.063838,-0.043375,-0.15417,-0.129,-0.16734,0.3981,-0.069925,0.18885,0.27708,-0.088678
0.012232,0.020072,-0.016697,-0.01596,-0.17181,0.45529,-0.072638,-0.13031,-0.16358,-0.54545,-0.94992,0.8757,-1.126,0.44517,-0.0086859,-0.0074311,-0.16426,-0.16297,-0.42259,0.15947,0.048135,0.19212,0.29316,-0.25758
0.010116,0.013808,-0.019543,-0.021731,-0.21151,0.47889,-0.21098,-0.10037,-0.18762,-0.51836,-0.98256,1.1564,-0.87483,0.46906,0.035789,0.029251,-0.15742,-0.18157,-0.59592,-0.13943,0.1628,0.16304,0.29319,-0.42495
0.012048,0.0098835,-0.023047,-0.026259,-0.24803,0.52573,-0.30399,-0.078355,-0.20084,-0.46905,-0.97904,1.4695,-0.66313,0.50043,0.061359,0.043706,-0.14049,-0.18548,-0.66008,-0.51304,0.26593,0.11371,0.28072,-0.51132
0.016481,0.0080576,-0.025203,-0.026606,-0.24637,0.59203,-0.34931,-0.060422,-0.20371,-0.3993,-0.93226,1.7026,-0.50817,0.54832,0.072986,0.032329,-0.11616,-0.17224,-0.66179,-0.97415,0.35248,0.065841,0.25831,-0.48045
0.019205,0.006178,-0.023457,-0.022838,-0.19255,0.66916,-0.35184,-0.048448,-0.20455,-0.32171,-0.86798,1.7803,-0.40337,0.59563,0.082219,0.0043937,-0.083334,-0.13951,-0.68981,-1.4967,0.42229,0.033885,0.22677,-0.35078
0.016842,0.0021476,-0.017289,-0.018162,-0.10216,0.74765,-0.32276,-0.043536,-0.21402,-0.25458,-0.82496,1.688,-0.33445,0.61311,0.097496,-0.031518,-0.042691,-0.090953,-0.81604,-2.0031,0.47551,0.012162,0.18702,-0.17437
0.0098866,-0.0038381,-0.0096735,-0.016344,-0.0080469,0.81805,-0.27646,-0.040923,-0.23655,-0.21299,-0.8203,1.4529,-0.29071,0.58267,0.11855,-0.073781,-0.00049039,-0.037997,-1.0469,-2.3934,0.50714,-0.023299,0.1424,-0.0011974
0.0025623,-0.0088039,-0.0055964,-0.018603,0.062218,0.87012,-0.22593,-0.031603,-0.26512,-0.20089,-0.83033,1.1114,-0.265,0.51113,0.13781,-0.123,0.034318,0.0054124,-1.3145,-2.602,0.50743,-0.099306,0.098254,0.14567
-0.00060013,-0.009062,-0.0084465,-0.022658,0.10191,0.89282,-0.18004,-0.0097159,-0.28392,-0.20824,-0.80519,0.69585,-0.24851,0.42477,0.14616,-0.17444,0.056989,0.031314,-1.5113,-2.6384,0.46917,-0.22805,0.059029,0.2704
0.001384,-0.0034549,-0.017249,-0.024695,0.12402,0.87689,-0.14511,0.021302,-0.278,-0.21398,-0.70702,0.24915,-0.22933,0.35121,0.13783,-0.2172,0.070801,0.042222,-1.547,-2.579,0.3961,-0.39973,0.025464,0.38654
0.0050834,0.0049288,-0.027142,-0.022493,0.14752,0.81932,-0.12796,0.050567,-0.24321,-0.19339,-0.54076,-0.16065,-0.1973,0.30444,0.112,-0.24088,0.083468,0.04774,-1.3956,-2.5096,0.30508,-0.58826,-0.0050049,0.49894
0.0056606,0.010355,-0.032731,-0.017032,0.18412,0.72732,-0.13523,0.068983,-0.18925,-0.12687,-0.35218,-0.45617,-0.1495,0.2836,0.072089,-0.24285,0.099171,0.056201,-1.1073,-2.4586,0.21943,-0.76302,-0.034502,0.59872
0.0012039,0.008509,-0.031564,-0.011413,0.23507,0.61841,-0.16763,0.077531,-0.13353,-0.0076894,-0.19443,-0.59673,-0.090532,0.28201,0.025349,-0.22938,0.11373,0.068319,-0.78178,-2.3735,0.15746,-0.89761,-0.060817,0.67095
-0.0054564,-7.0636e-005,-0.025107,-0.0082328,0.29731,0.51509,-0.21553,0.086184,-0.090418,0.154,-0.090065,-0.61796,-0.028096,0.29472,-0.017202,-0.21127,0.11769,0.077789,-0.51914,-2.1648,0.12424,-0.97292,-0.077069,0.70502
-0.0091269,-0.010066,-0.016968,-0.0077725,0.37021,0.43617,-0.26347,0.10365,-0.063433,0.33332,-0.01854,-0.62399,0.030756,0.31722,-0.042991,-0.19973,0.10466,0.077673,-0.37339,-1.7863,0.11148,-0.979,-0.075769,0.69881
-0.0067642,-0.015184,-0.010285,-0.0083563,0.4555,0.38985,-0.3033,0.12759,-0.045556,0.49957,0.06239,-0.72542,0.078841,0.33976,-0.043974,-0.20557,0.077392,0.066718,-0.33086,-1.2926,0.10505,-0.92021,-0.054268,0.65586
-0.00012737,-0.012846,-0.0063564,-0.0082373,0.55121,0.37286,-0.3447,0.1449,-0.026196,0.62853,0.18044,-0.96133,0.10631,0.34747,-0.023637,-0.23861,0.046188,0.050369,-0.32143,-0.82058,0.093939,-0.82051,-0.017358,0.58119
0.0057631,-0.0060872,-0.0049338,-0.0071158,0.64686,0.37555,-0.41086,0.14169,0.0011237,0.71181,0.32706,-1.2606,0.10236,0.33069,0.001669,-0.30268,0.021272,0.036094,-0.25555,-0.50137,0.074777,-0.72022,0.024891,0.4803
0.0069201,-0.0011225,-0.0051596,-0.0059819,0.72598,0.38838,-0.51847,0.11206,0.035722,0.75736,0.46549,-1.4711,0.063119,0.29695,0.011126,-0.3868,0.0060995,0.027441,-0.069396,-0.36474,0.049789,-0.65964,0.062145,0.36137
0.0035685,-0.0024858,-0.0061079,-0.0056758,0.77463,0.40446,-0.65632,0.055664,0.072143,0.78074,0.55894,-1.4395,0.00026078,0.27141,-0.0063817,-0.46104,-0.0028036,0.021946,0.24332,-0.30998,0.021237,-0.65745,0.087894,0.23652
-0.00052523,-0.0095766,-0.0068964,-0.0057415,0.78864,0.41771,-0.78112,-0.033093,0.10447,0.79289,0.59445,-1.0903,-0.058339,0.27992,-0.042972,-0.48564,-0.010088,0.014436,0.62901,-0.17202,-0.012352,-0.70009,0.10019,0.11973
-0.0017074,-0.017284,-0.0069179,-0.0047621,0.77369,0.42088,-0.83692,-0.16999,0.1287,0.79275,0.58524,-0.46145,-0.079355,0.32506,-0.076004,-0.43263,-0.015867,0.0026599,1.0036,0.15957,-0.055038,-0.75251,0.099788,0.022454
0.00044614,-0.020054,-0.0062943,-0.0018767,0.73897,0.40788,-0.78624,-0.36896,0.14234,0.76984,0.55435,0.31668,-0.040702,0.37369,-0.08409,-0.3069,-0.015461,-0.00963,1.2983,0.65362,-0.10867,-0.78371,0.088305,-0.049637
0.0033274,-0.016065,-0.0059538,0.0019806,0.69113,0.37976,-0.63181,-0.61919,0.14366,0.71436,0.51703,1.0791,0.056635,0.36919,-0.06286,-0.15044,-0.0045497,-0.014842,1.4934,1.146,-0.16886,-0.78668,0.068422,-0.096507
0.0042718,-0.0082767,-0.0068528,0.0043721,0.63377,0.348,-0.41513,-0.87275,0.13273,0.62754,0.47693,1.6885,0.18939,0.26346,-0.027864,-0.023039,0.015428,-0.0073515,1.6194,1.4394,-0.22536,-0.77682,0.045331,-0.12123
0.003188,-0.0018143,-0.0088335,0.0031021,0.57125,0.32957,-0.195,-1.0595,0.11377,0.52475,0.43494,2.0775,0.3246,0.048838,-0.0023331,0.030084,0.036858,0.011624,1.7228,1.4251,-0.26682,-0.7712,0.027104,-0.12777
0.0023211,-9.1386e-005,-0.010292,-0.0019251,0.51087,0.3356,-0.021286,-1.1245,0.095662,0.42898,0.39724,2.2573,0.43577,-0.23159,4.6334e-005,0.0028075,0.051074,0.034021,1.8241,1.1442,-0.286,-0.76839,0.022281,-0.12085
0.0036551,-0.0028222,-0.0092947,-0.0082474,0.45937,0.36216,0.081426,-1.0607,0.088324,0.359,0.37159,2.2952,0.51311,-0.50321,-0.016363,-0.071581,0.054523,0.050058,1.8987,0.75299,-0.28186,-0.74681,0.035671,-0.10682
0.0067579,-0.0071458,-0.005379,-0.012283,0.41642,0.39217,0.11566,-0.9116,0.096242,0.31928,0.35491,2.2693,0.5633,-0.69723,-0.03497,-0.14361,0.050733,0.054854,1.898,0.42318,-0.25765,-0.68215,0.065486,-0.093218
0.0091995,-0.010397,-0.00037788,-0.011738,0.37181,0.40817,0.10257,-0.74208,0.11407,0.29782,0.32667,2.2212,0.60098,-0.78326,-0.040586,-0.17745,0.046641,0.051716,1.794,0.24661,-0.21783,-0.56663,0.10447,-0.085698
0.0089122,-0.011972,0.0027098,-0.0072729,0.31081,0.4064,0.070149,-0.60049,0.12845,0.2735,0.25929,2.13,0.63836,-0.77778,-0.029022,-0.16711,0.046704,0.049773,1.6112,0.20159,-0.1671,-0.4125,0.14465,-0.083998
0.0059724,-0.012995,0.0020791,-0.0021515,0.22449,0.40054,0.042819,-0.50127,0.1258,0.2288,0.14072,1.9238,0.67927,-0.72571,-0.006247,-0.1306,0.049805,0.057774,1.4194,0.18805,-0.11184,-0.23859,0.18214,-0.080554
0.0021261,-0.014635,-0.0012632,1.9178e-006,0.11743,0.41158,0.034628,-0.43584,0.1012,0.16105,-0.0084455,1.5239,0.71969,-0.66984,0.019312,-0.090625,0.051197,0.078494,1.2917,0.095618,-0.060978,-0.05488,0.21814,-0.064297
-0.001144,-0.016914,-0.0041332,-0.0022249,0.0073922,0.45205,0.047546,-0.39439,0.062041,0.085266,-0.13955,0.89711,0.75278,-0.62931,0.042639,-0.058782,0.04727,0.10737,1.261,-0.14262,-0.023746,0.13949,0.25519,-0.028344
-0.0038016,-0.018943,-0.0037185,-0.0070492,-0.082028,0.51725,0.075175,-0.3743,0.02386,0.02589,-0.20156,0.087681,0.77384,-0.59956,0.061386,-0.033992,0.038629,0.13564,1.3063,-0.53549,-0.0046764,0.34461,0.29179,0.023279
-0.0065398,-0.019951,-1.8168e-005,-0.010908,-0.13039,0.58968,0.10918,-0.3688,0.0013386,0.0016132,-0.1709,-0.78846,0.7814,-0.56892,0.071558,-0.012064,0.028808,0.15508,1.3779,-1.0515,-8.1792e-005,0.54867,0.32024,0.075065
-0.0092182,-0.01983,0.0039004,-0.011248,-0.12674,0.65154,0.14351,-0.35259,0.00051287,0.012207,-0.064677,-1.5794,0.77421,-0.53512,0.066305,0.0061404,0.020051,0.16127,1.4359,-1.6447,0.00018195,0.7302,0.32977,0.10704
-0.010418,-0.018725,0.0042003,-0.0085556,-0.07277,0.69402,0.17331,-0.28665,0.016921,0.036482,0.070954,-2.1438,0.74727,-0.50732,0.040551,0.016929,0.010355,0.15388,1.4714,-2.2677,0.0059562,0.87199,0.31275,0.10552
-0.0087741,-0.01635,-0.00059247,-0.0060494,0.016218,0.71656,0.19129,-0.1447,0.039887,0.043768,0.18771,-2.3885,0.69112,-0.49351,-0.0027817,0.023439,-0.0050958,0.13533,1.4945,-2.8672,0.019863,0.97203,0.2689,0.070803
-0.0047025,-0.012003,-0.0081197,-0.0072552,0.1137,0.71966,0.18739,0.060196,0.059183,0.012096,0.25887,-2.2898,0.59581,-0.48618,-0.051755,0.041208,-0.029101,0.10932,1.5055,-3.3744,0.035744,1.04,0.20434,0.01672
-0.0006174,-0.0054061,-0.013642,-0.013305,0.18975,0.70028,0.15486,0.27578,0.069556,-0.058948,0.28596,-1.8952,0.45745,-0.46093,-0.091922,0.091233,-0.058612,0.08009,1.4765,-3.7054,0.043889,1.083,0.12715,-0.037733
0.00078893,0.0024411,-0.013364,-0.021953,0.22324,0.65504,0.098513,0.44262,0.071058,-0.14933,0.28758,-1.3092,0.28273,-0.39118,-0.1155,0.18396,-0.085779,0.051741,1.364,-3.7813,0.039024,1.0961,0.043717,-0.07929
-0.0013399,0.0093132,-0.0070874,-0.029,0.21176,0.58708,0.036901,0.53449,0.066288,-0.23237,0.28136,-0.66314,0.088435,-0.26839,-0.12564,0.30686,-0.1035,0.02697,1.1417,-3.5627,0.024908,1.0675,-0.040824,-0.10684
-0.0054325,0.012786,0.0018256,-0.031061,0.1714,0.50795,-0.005272,0.57396,0.0573,-0.29093,0.27157,-0.076162,-0.10372,-0.11301,-0.13239,0.42616,-0.11078,0.0059165,0.82729,-3.0767,0.01224,0.99496,-0.11937,-0.12944
-0.0088405,0.011507,0.008996,-0.027789,0.12497,0.43083,-0.009427,0.60962,0.044305,-0.32477,0.24922,0.3776,-0.27362,0.031838,-0.14432,0.5024,-0.11301,-0.013532,0.48112,-2.4148,0.011838,0.8947,-0.18144,-0.15781
-0.0097705,0.0058975,0.011945,-0.022059,0.086902,0.36094,0.029238,0.67364,0.026411,-0.34501,0.2019,0.67901,-0.40748,0.11946,-0.16255,0.50881,-0.11647,-0.033333,0.17686,-1.6967,0.028325,0.79477,-0.21674,-0.1954
-0.0081382,-0.0019674,0.011131,-0.018054,0.056703,0.29323,0.10313,0.75438,0.0032458,-0.36179,0.12508,0.8466,-0.49964,0.11979,-0.18134,0.44169,-0.12179,-0.052149,-0.034585,-1.0188,0.05838,0.71633,-0.22166,-0.23575
-0.0049771,-0.0090883,0.0086593,-0.018542,0.025319,0.22082,0.19856,0.80538,-0.023923,-0.37488,0.026443,0.90528,-0.5516,0.0312,-0.1928,0.31913,-0.12214,-0.064129,-0.14306,-0.42173,0.09373,0.66089,-0.20308,-0.26815
-0.0014138,-0.01264,0.0062195,-0.023156,-0.012771,0.1472,0.2998,0.78135,-0.052182,-0.37408,-0.079233,0.86475,-0.56929,-0.11903,-0.19111,0.17283,-0.10809,-0.061394,-0.17103,0.099442,0.12596,0.61452,-0.17485,-0.28777
0.0017133,-0.011287,0.0042097,-0.028832,-0.054111,0.089736,0.38908,0.67033,-0.077846,-0.34783,-0.18021,0.72199,-0.55938,-0.28284,-0.17324,0.03906,-0.075276,-0.039191,-0.15049,0.55227,0.15012,0.5644,-0.14886,-0.30232
0.0035911,-0.0062586,0.0024927,-0.032063,-0.092552,0.06912,0.44763,0.49725,-0.097663,-0.29308,-0.27514,0.48099,-0.52665,-0.40484,-0.13833,-0.049209,-0.028545,-0.00024989,-0.10419,0.90715,0.16603,0.51153,-0.12768,-0.32947
0.0033567,-0.00127,0.001503,-0.031355,-0.12967,0.091814,0.4622,0.3,-0.10997,-0.21943,-0.37195,0.16777,-0.47445,-0.43838,-0.088369,-0.070084,0.020597,0.045142,-0.042661,1.0989,0.17792,0.46815,-0.10516,-0.3853
0.00067382,-0.00064725,0.0022006,-0.028099,-0.17647,0.14026,0.43439,0.1015,-0.11551,-0.14524,-0.47937,-0.17508,-0.40842,-0.36081,-0.030446,-0.020149,0.061014,0.084008,0.026169,1.0744,0.1932,0.44346,-0.074904,-0.47106
-0.0036026,-0.0063496,0.0048614,-0.025258,-0.24192,0.18058,0.38323,-0.098601,-0.11744,-0.08872,-0.59731,-0.5091,-0.34035,-0.18187,0.02293,0.082364,0.087953,0.10758,0.0868,0.85288,0.22018,0.43217,-0.039048,-0.56724
-0.0076266,-0.016029,0.0081817,-0.024921,-0.31827,0.18388,0.33585,-0.30859,-0.12018,-0.05947,-0.7129,-0.81474,-0.28692,0.060498,0.058024,0.20259,0.10412,0.1157,0.11514,0.54763,0.26501,0.41695,-0.0092759,-0.63948
-0.009784,-0.024162,0.0099865,-0.026652,-0.37902,0.14614,0.3115,-0.52278,-0.1271,-0.055207,-0.8041,-1.0855,-0.26192,0.31718,0.066807,0.3017,0.11607,0.11579,0.087248,0.327,0.32874,0.38267,0.0018962,-0.65364
-0.009966,-0.026062,0.0091086,-0.027916,-0.39516,0.091761,0.31177,-0.71364,-0.13829,-0.064867,-0.84816,-1.3085,-0.26667,0.54946,0.05105,0.35126,0.12928,0.11699,-0.0089344,0.33341,0.40644,0.32957,-0.0072289,-0.59154
-0.0097115,-0.021855,0.0066161,-0.026213,-0.358,0.057852,0.32505,-0.84438,-0.14998,-0.075944,-0.83059,-1.4561,-0.28698,0.74245,0.01966,0.34277,0.1449,0.12344,-0.16681,0.61251,0.48903,0.27478,-0.022839,-0.45992
-0.01101,-0.016849,0.0050659,-0.02118,-0.28862,0.070166,0.34035,-0.89064,-0.15638,-0.081616,-0.75144,-1.5013,-0.30127,0.90228,-0.018632,0.28889,0.15921,0.13083,-0.36257,1.0955,0.56676,0.24286,-0.022672,-0.28885
-0.014736,-0.017377,0.0063859,-0.01499,-0.22421,0.12723,0.35681,-0.85409,-0.15304,-0.083442,-0.62705,-1.448,-0.29487,1.0402,-0.060405,0.21752,0.16505,0.12863,-0.56301,1.6407,0.63192,0.25424,0.0097166,-0.12164
-0.019944,-0.025201,0.010345,-0.010776,-0.19194,0.20278,0.37981,-0.75962,-0.13932,-0.088004,-0.48546,-1.3459,-0.26952,1.1555,-0.10541,0.16098,0.15476,0.10641,-0.73549,2.1022,0.67909,0.3191,0.073922,-0.00041464
-0.02447,-0.035325,0.014961,-0.010369,-0.19241,0.2632,0.40814,-0.64172,-0.11789,-0.099784,-0.35505,-1.2717,-0.23966,1.2307,-0.14917,0.1424,0.12396,0.060672,-0.85612,2.3861,0.70368,0.43614,0.153,0.047579
-0.026271,-0.039635,0.018281,-0.013124,-0.20604,0.2872,0.42599,-0.5314,-0.09192,-0.11538,-0.25061,-1.2857,-0.21839,1.2414,-0.17813,0.16352,0.075036,-0.002037,-0.91432,2.4696,0.7009,0.59085,0.22452,0.018426
-0.024586,-0.033729,0.019748,-0.016667,-0.21464,0.27485,0.4099,-0.4503,-0.062312,-0.1237,-0.16574,-1.396,-0.20495,1.173,-0.17415,0.2006,0.017939,-0.067524,-0.91366,2.3899,0.66725,0.75265,0.27386,-0.068861
-0.0203,-0.021183,0.02,-0.018819,-0.2168,0.24251,0.34635,-0.41039,-0.027597,-0.11278,-0.079261,-1.5549,-0.18465,1.033,-0.12664,0.21459,-0.033406,-0.12071,-0.86957,2.2177,0.60362,0.87746,0.30003,-0.18215
-0.015421,-0.011231,0.019636,-0.01912,-0.22277,0.20937,0.2452,-0.41375,0.013213,-0.07882,0.025729,-1.6856,-0.14146,0.84873,-0.043289,0.17365,-0.067888,-0.15286,-0.80534,2.0281,0.51739,0.92247,0.31112,-0.29122
-0.011969,-0.011383,0.018456,-0.018821,-0.23549,0.18584,0.13655,-0.45078,0.057504,-0.030893,0.1435,-1.7185,-0.072816,0.65312,0.050328,0.075243,-0.083013,-0.16523,-0.74706,1.8763,0.42073,0.86931,0.31451,-0.37978
-0.010818,-0.021038,0.015951,-0.019518,-0.23877,0.17004,0.052338,-0.50025,0.098796,0.012649,0.24351,-1.615,0.0055798,0.46893,0.1238,-0.048694,-0.085432,-0.16683,-0.71789,1.7808,0.32533,0.73979,0.31069,-0.44785
-0.011163,-0.031594,0.012318,-0.021695,-0.20692,0.15239,0.0070911,-0.53486,0.13007,0.034286,0.28902,-1.3754,0.068212,0.3006,0.15899,-0.14993,-0.085562,-0.16806,-0.73209,1.7218,0.23701,0.58828,0.29525,-0.50387
-0.011072,-0.03314,0.0086937,-0.024358,-0.12886,0.12387,-0.0076106,-0.53161,0.1481,0.027481,0.26411,-1.039,0.093893,0.13833,0.15903,-0.19426,-0.090279,-0.1742,-0.79055,1.6571,0.15448,0.47136,0.26624,-0.55424
-0.0089037,-0.022266,0.0061495,-0.025938,-0.023962,0.082795,-0.011912,-0.48118,0.15495,0.00036883,0.18827,-0.67947,0.075041,-0.029906,0.14316,-0.18193,-0.099113,-0.18292,-0.88091,1.5473,0.073551,0.41413,0.22927,-0.59861
-0.004584,-0.0045835,0.0044942,-0.025588,0.066703,0.036796,-0.02047,-0.39066,0.15542,-0.029124,0.10648,-0.38675,0.017792,-0.207,0.13183,-0.14245,-0.10637,-0.18721,-0.98421,1.3705,-0.0066165,0.39813,0.19566,-0.63373
0.00029619,0.0098585,0.0023047,-0.023754,0.10816,-0.000493,-0.033791,-0.27865,0.15266,-0.043374,0.062203,-0.234,-0.062941,-0.38242,0.13342,-0.10804,-0.10667,-0.18086,-1.0855,1.1209,-0.0808,0.3797,0.175,-0.65939
0.0037329,0.014221,-0.0015303,-0.021642,0.095056,-0.016572,-0.043986,-0.16681,0.14617,-0.034224,0.07356,-0.24114,-0.14728,-0.5358,0.14135,-0.086855,-0.098834,-0.16242,-1.1809,0.79842,-0.14145,0.32409,0.16879,-0.67826
0.0048882,0.0093338,-0.0061093,-0.020182,0.051401,-0.007401,-0.047798,-0.073066,0.13394,-0.006289,0.12938,-0.36255,-0.21215,-0.64404,0.14201,-0.057069,-0.084933,-0.13466,-1.2744,0.41003,-0.18626,0.22887,0.1701,-0.68835
0.004649,0.0019104,-0.008469,-0.019399,0.0083305,0.019417,-0.053906,-0.0083275,0.11656,0.026778,0.2043,-0.51417,-0.23582,-0.68723,0.12583,0.013861,-0.06614,-0.10095,-1.3658,-0.011833,-0.22312,0.12091,0.16907,-0.67646
0.0047074,-0.0011523,-0.0056799,-0.018688,-0.019436,0.048216,-0.077537,0.024244,0.099133,0.050412,0.27783,-0.62465,-0.20809,-0.65162,0.093563,0.1399,-0.039805,-0.062121,-1.4396,-0.39149,-0.26791,0.033489,0.15911,-0.62323
0.0060332,0.0026823,0.0024136,-0.01762,-0.038662,0.064002,-0.12748,0.029161,0.088662,0.056997,0.34251,-0.6727,-0.14125,-0.53164,0.054826,0.29931,-0.0013251,-0.017162,-1.4675,-0.62189,-0.33623,-0.015465,0.13891,-0.51995
0.0081303,0.01141,0.012163,-0.01645,-0.063078,0.060719,-0.19774,0.017355,0.089026,0.04919,0.39908,-0.68194,-0.071016,-0.33349,0.022196,0.44207,0.050195,0.03313,-1.4243,-0.61559,-0.43498,-0.028606,0.11007,-0.38445
0.0097012,0.021623,0.017977,-0.015877,-0.096228,0.043232,-0.27173,0.0021788,0.097921,0.037038,0.44834,-0.68018,-0.041376,-0.079879,0.0057494,0.51635,0.10736,0.083048,-1.3044,-0.36873,-0.55954,-0.019043,0.073503,-0.25927
0.010024,0.031403,0.015944,-0.016304,-0.12925,0.021719,-0.33572,-0.0072416,0.10856,0.030727,0.48937,-0.66051,-0.080488,0.1883,0.010366,0.49629,0.15577,0.12311,-1.1241,0.0092203,-0.69703,0.0015856,0.028373,-0.18819
0.0097242,0.040561,0.0065531,-0.017368,-0.15473,0.0031492,-0.38961,-0.011873,0.11454,0.033593,0.52373,-0.57866,-0.18419,0.41811,0.035025,0.39384,0.18162,0.14535,-0.90665,0.33172,-0.83185,0.026456,-0.02583,-0.18613
0.010229,0.048928,-0.0055682,-0.018224,-0.18126,-0.013293,-0.44558,-0.023131,0.1135,0.039907,0.55728,-0.38734,-0.31996,0.55994,0.072948,0.24878,0.18064,0.14892,-0.66678,0.42604,-0.94906,0.049925,-0.086637,-0.22628
0.012441,0.055214,-0.014724,-0.018301,-0.23221,-0.033672,-0.51596,-0.055829,0.10668,0.038771,0.59406,-0.076015,-0.4483,0.5866,0.11309,0.10497,0.16163,0.14117,-0.41174,0.22789,-1.0353,0.06577,-0.14798,-0.25694
0.01587,0.057854,-0.017727,-0.017736,-0.32786,-0.0628,-0.60084,-0.11721,0.095621,0.021138,0.62684,0.31747,-0.54462,0.50602,0.14406,-0.01133,0.14129,0.13297,-0.15787,-0.17742,-1.0796,0.071561,-0.2024,-0.23703
0.01902,0.056754,-0.015441,-0.017055,-0.46635,-0.099973,-0.6856,-0.19917,0.079637,-0.015225,0.63527,0.72865,-0.60503,0.35843,0.15956,-0.097431,0.13364,0.13141,0.058071,-0.59403,-1.0771,0.073666,-0.24451,-0.16298
0.020675,0.053753,-0.01146,-0.016501,-0.62043,-0.1402,-0.74988,-0.27913,0.056966,-0.06617,0.59734,1.0975,-0.63416,0.19702,0.16173,-0.16222,0.14159,0.13527,0.1936,-0.81465,-1.0322,0.084479,-0.27365,-0.065887
0.020908,0.050934,-0.0092686,-0.015857,-0.75327,-0.17831,-0.7796,-0.32932,0.028058,-0.12594,0.50712,1.3825,-0.62923,0.061965,0.15926,-0.20716,0.15698,0.13676,0.23617,-0.72509,-0.95923,0.11161,-0.29405,0.018046
0.020856,0.048391,-0.01012,-0.015002,-0.8396,-0.21071,-0.77259,-0.32852,-0.0026884,-0.19178,0.38391,1.5539,-0.57665,-0.036272,0.16094,-0.21691,0.16854,0.12813,0.22835,-0.35684,-0.87469,0.14939,-0.31211,0.078704
0.021457,0.043867,-0.012896,-0.014518,-0.87521,-0.23258,-0.73487,-0.26906,-0.029082,-0.26453,0.26324,1.5889,-0.46483,-0.11405,0.16936,-0.16967,0.17154,0.10828,0.25261,0.14064,-0.78797,0.18358,-0.33168,0.1389
0.022317,0.035027,-0.015548,-0.015407,-0.86969,-0.23426,-0.67297,-0.15636,-0.047579,-0.34494,0.17459,1.4844,-0.30079,-0.19528,0.17996,-0.060711,0.17115,0.084716,0.37894,0.59018,-0.69538,0.20813,-0.34972,0.23172
0.021871,0.022422,-0.01671,-0.017985,-0.83265,-0.20272,-0.58997,-0.0037417,-0.060022,-0.42929,0.12214,1.282,-0.11433,-0.2913,0.18567,0.0802,0.17731,0.069541,0.61462,0.88422,-0.5843,0.23863,-0.35556,0.36812
0.018891,0.010239,-0.016377,-0.021123,-0.76745,-0.12964,-0.48783,0.17207,-0.072169,-0.50833,0.083493,1.0738,0.055975,-0.39564,0.18287,0.19541,0.19544,0.072,0.89817,1.0271,-0.44501,0.30628,-0.33607,0.5223
0.014086,0.0037077,-0.015526,-0.022918,-0.67706,-0.020675,-0.37208,0.35193,-0.089335,-0.57064,0.027615,0.96729,0.18467,-0.496,0.17307,0.23042,0.22052,0.092285,1.1436,1.0943,-0.28148,0.43225,-0.28505,0.64651
0.010244,0.0051329,-0.015297,-0.022386,-0.57318,0.10204,-0.25272,0.51377,-0.11286,-0.60796,-0.06091,1.0222,0.27289,-0.59025,0.15906,0.16876,0.23913,0.12002,1.2979,1.138,-0.11246,0.60208,-0.21153,0.7027
0.010481,0.011956,-0.016365,-0.020467,-0.47696,0.20793,-0.13954,0.63467,-0.13997,-0.61916,-0.16854,1.2017,0.34428,-0.68967,0.13948,0.043939,0.23739,0.1382,1.3663,1.1135,0.037953,0.7648,-0.1402,0.68544
0.015765,0.018617,-0.01879,-0.019148,-0.40916,0.27164,-0.0362,0.69698,-0.16628,-0.61047,-0.25943,1.3803,0.42809,-0.80466,0.10779,-0.082741,0.20898,0.13073,1.3886,0.89071,0.15321,0.86359,-0.1019,0.61995
0.02371,0.020708,-0.022219,-0.019429,-0.37886,0.28315,0.060997,0.69532,-0.18824,-0.59259,-0.29707,1.4125,0.54209,-0.92531,0.05765,-0.16343,0.1578,0.09004,1.397,0.35608,0.23072,0.87749,-0.11833,0.54004
0.02979,0.017934,-0.026135,-0.020306,-0.38196,0.24848,0.15771,0.63864,-0.2038,-0.57635,-0.26678,1.2207,0.68564,-1.0164,-0.0091603,-0.19267,0.094812,0.0213,1.3949,-0.46766,0.27836,0.84084,-0.19048,0.46601
0.030264,0.013514,-0.029955,-0.019971,-0.41065,0.183,0.25396,0.54479,-0.21176,-0.56907,-0.18466,0.8434,0.84395,-1.0339,-0.078916,-0.20207,0.032336,-0.058832,1.3703,-1.3798,0.30589,0.82224,-0.29786,0.39923
0.024682,0.010813,-0.03297,-0.018082,-0.46402,0.1046,0.34125,0.43072,-0.21192,-0.57279,-0.088225,0.4106,0.99771,-0.95288,-0.13038,-0.22599,-0.020204,-0.1287,1.323,-2.0849,0.31953,0.87733,-0.40878,0.33366
0.016113,0.010311,-0.034408,-0.016584,-0.54896,0.031388,0.40756,0.30514,-0.20642,-0.58518,-0.014805,0.062436,1.1314,-0.78421,-0.1454,-0.26794,-0.05752,-0.17041,1.27,-2.3499,0.32341,1.0115,-0.49457,0.27079
0.0089112,0.0094656,-0.033796,-0.017989,-0.67016,-0.017817,0.44678,0.16903,-0.20091,-0.60269,0.017991,-0.13225,1.2372,-0.56943,-0.11882,-0.29624,-0.077715,-0.1766,1.2232,-2.1252,0.32419,1.1806,-0.53926,0.22353
0.0057449,0.0053433,-0.031436,-0.022715,-0.81932,-0.025826,0.46555,0.023044,-0.20344,-0.62398,0.01677,-0.20293,1.3148,-0.35869,-0.061358,-0.27312,-0.081368,-0.15212,1.1636,-1.5421,0.33216,1.3266,-0.54056,0.20635
0.0061155,-0.0025272,-0.028493,-0.028319,-0.97424,0.015639,0.48239,-0.12412,-0.22089,-0.65138,-0.0016579,-0.2345,1.3695,-0.18935,0.0060853,-0.19206,-0.071291,-0.11013,1.0434,-0.79898,0.3558,1.4146,-0.50498,0.22167
0.007366,-0.01158,-0.026361,-0.031617,-1.1094,0.099,0.51967,-0.25365,-0.25503,-0.68877,-0.032668,-0.2893,1.4087,-0.077621,0.062565,-0.090906,-0.052517,-0.065565,0.82174,-0.03817,0.3944,1.4429,-0.44264,0.25472
0.0071834,-0.01827,-0.025686,-0.031654,-1.2085,0.20233,0.59352,-0.34316,-0.30102,-0.73704,-0.096409,-0.35302,1.4379,-0.02216,0.095425,-0.027846,-0.031724,-0.029587,0.5029,0.68863,0.43585,1.4205,-0.36485,0.28158
0.0054434,-0.020829,-0.025867,-0.030508,-1.2678,0.30162,0.70708,-0.37828,-0.34945,-0.79077,-0.22773,-0.34388,1.457,-0.010586,0.10288,-0.039222,-0.01585,-0.007526,0.14528,1.351,0.46332,1.3404,-0.28381,0.28369
0.0039026,-0.020385,-0.025602,-0.031043,-1.2885,0.38594,0.84937,-0.36184,-0.39028,-0.83886,-0.44775,-0.17703,1.4605,-0.023134,0.091128,-0.11315,-0.010276,-4.908e-005,-0.16974,1.8523,0.46638,1.1757,-0.21116,0.25808
0.0041577,-0.01971,-0.024068,-0.033863,-1.2655,0.4628,0.99937,-0.31417,-0.41632,-0.86926,-0.73785,0.16471,1.4399,-0.036296,0.069227,-0.19983,-0.017241,-0.0054488,-0.38373,2.0279,0.44827,0.90556,-0.15477,0.21658
0.005828,-0.02092,-0.021716,-0.036592,-1.1844,0.54771,1.133,-0.26379,-0.42446,-0.87465,-1.0384,0.60537,1.3895,-0.031378,0.044819,-0.24878,-0.03509,-0.021106,-0.48734,1.7519,0.42345,0.54432,-0.11587,0.17613
0.0067119,-0.024132,-0.019973,-0.036225,-1.0309,0.64511,1.2312,-0.23379,-0.41511,-0.85511,-1.277,1.0115,1.3113,-0.006234,0.022136,-0.24217,-0.05875,-0.04364,-0.51145,1.0676,0.40744,0.14831,-0.089521,0.14797
0.004849,-0.027983,-0.020142,-0.03218,-0.80608,0.73642,1.2855,-0.23199,-0.39141,-0.81665,-1.4078,1.2602,1.216,0.018765,0.0020075,-0.19934,-0.081452,-0.06861,-0.49644,0.22126,0.40671,-0.20863,-0.068564,0.13319
0.00058733,-0.031144,-0.022473,-0.026949,-0.53528,0.78651,1.2997,-0.25049,-0.35856,-0.76731,-1.4339,1.2929,1.1214,0.0077946,-0.016806,-0.15346,-0.097141,-0.090799,-0.46601,-0.45383,0.41594,-0.46973,-0.048004,0.12636
-0.0033852,-0.033276,-0.02608,-0.023707,-0.26175,0.7656,1.285,-0.2742,-0.32316,-0.71407,-1.399,1.1263,1.0475,-0.072965,-0.035633,-0.12406,-0.10258,-0.10541,-0.42266,-0.72884,0.42407,-0.61337,-0.026414,0.12319
-0.0042922,-0.034702,-0.029532,-0.0233,-0.02796,0.67065,1.2527,-0.29205,-0.29152,-0.66188,-1.3549,0.82797,1.0107,-0.2384,-0.05423,-0.10815,-0.098288,-0.10974,-0.36184,-0.60878,0.42346,-0.64578,-0.0038734,0.12605
-0.0018676,-0.035488,-0.031475,-0.023609,0.14419,0.53033,1.2073,-0.30363,-0.26735,-0.61396,-1.3317,0.48482,1.0182,-0.4773,-0.070631,-0.092683,-0.088089,-0.1046,-0.28966,-0.30487,0.41511,-0.58306,0.020743,0.14313
0.0011526,-0.035141,-0.030937,-0.021851,0.26148,0.39017,1.1462,-0.31743,-0.25034,-0.57145,-1.3275,0.18171,1.0637,-0.75502,-0.082889,-0.071734,-0.07766,-0.094696,-0.22986,-0.076471,0.40653,-0.44342,0.049871,0.18221
0.0013272,-0.033299,-0.027516,-0.017435,0.35096,0.28912,1.0648,-0.34295,-0.2368,-0.53189,-1.3174,-0.012975,1.1274,-1.02,-0.091339,-0.050899,-0.072558,-0.087293,-0.21474,-0.064363,0.40494,-0.25459,0.08426,0.24387
-0.002312,-0.030545,-0.021712,-0.012502,0.44169,0.24426,0.96312,-0.38272,-0.22218,-0.48826,-1.2697,-0.066766,1.1792,-1.2112,-0.098979,-0.037487,-0.076011,-0.088869,-0.26484,-0.2321,0.41115,-0.062068,0.11971,0.31923
-0.0071083,-0.028301,-0.015165,-0.0096956,0.54903,0.25226,0.84855,-0.42972,-0.20362,-0.43086,-1.1571,-0.0044632,1.1872,-1.2704,-0.10883,-0.029856,-0.086993,-0.1009,-0.36877,-0.43781,0.41847,0.078821,0.14698,0.39401
-0.0088843,-0.027713,-0.010215,-0.0094863,0.67051,0.30241,0.73276,-0.47173,-0.1807,-0.35253,-0.96278,0.090191,1.1265,-1.1635,-0.12017,-0.018258,-0.09973,-0.11748,-0.47703,-0.5584,0.41643,0.12706,0.15594,0.45557
-0.0055639,-0.028566,-0.0086322,-0.0097638,0.79216,0.38814,0.62565,-0.49951,-0.1544,-0.25476,-0.68664,0.11065,0.9857,-0.90299,-0.12755,0.0044705,-0.10588,-0.12765,-0.51952,-0.56233,0.3964,0.077648,0.14138,0.49769
0.00094986,-0.029311,-0.01026,-0.0080616,0.89728,0.50797,0.53106,-0.5133,-0.12549,-0.15012,-0.35296,-0.0095738,0.76968,-0.55564,-0.12446,0.035116,-0.099213,-0.12228,-0.44286,-0.48782,0.3558,-0.038827,0.10662,0.52027
0.0064228,-0.028227,-0.012784,-0.0041231,0.97063,0.65778,0.44694,-0.52308,-0.094167,-0.057985,-0.010698,-0.24781,0.49802,-0.21901,-0.10946,0.064187,-0.080304,-0.1017,-0.24753,-0.36905,0.29919,-0.17977,0.062433,0.52556
0.0080042,-0.024694,-0.013123,-0.00022825,0.99853,0.82408,0.36938,-0.54192,-0.06075,0.0054799,0.28123,-0.49634,0.20168,0.02425,-0.08915,0.087122,-0.057475,-0.077667,0.0017853,-0.18963,0.23633,-0.31829,0.02208,0.51537
0.0065554,-0.019611,-0.0096209,0.0010237,0.97067,0.98592,0.29682,-0.57649,-0.026454,0.037299,0.48029,-0.62337,-0.082404,0.14733,-0.074283,0.10937,-0.042227,-0.066741,0.20633,0.094746,0.1784,-0.45289,-0.004315,0.49158
0.0053991,-0.014818,-0.0033591,-0.00072906,0.88637,1.124,0.2316,-0.62099,0.0068499,0.050284,0.58179,-0.55195,-0.3187,0.18569,-0.071372,0.13855,-0.041503,-0.078418,0.28967,0.49215,0.13372,-0.59395,-0.012998,0.45811
0.0067144,-0.012166,0.0025447,-0.003161,0.76052,1.2289,0.17804,-0.65927,0.037661,0.065028,0.61892,-0.30401,-0.48175,0.20342,-0.076606,0.17147,-0.052338,-0.10687,0.2438,0.93428,0.10461,-0.74173,-0.0063773,0.42079
0.0091394,-0.012783,0.0052288,-0.0032285,0.62087,1.3016,0.13864,-0.67437,0.065489,0.095549,0.63902,0.016934,-0.56328,0.24465,-0.07785,0.19088,-0.063432,-0.13349,0.13103,1.3013,0.086785,-0.87612,0.0093733,0.38365
0.0090329,-0.01665,0.0042356,0.00040549,0.49429,1.347,0.11084,-0.65928,0.090312,0.13853,0.67213,0.28787,-0.57405,0.30626,-0.063785,0.17833,-0.06312,-0.13968,0.037726,1.4928,0.07182,-0.96596,0.026924,0.34518
0.0042569,-0.022433,0.0018145,0.0066627,0.39123,1.3679,0.086205,-0.62133,0.11133,0.17479,0.71375,0.43007,-0.53897,0.34999,-0.032998,0.13291,-0.048069,-0.1206,0.011587,1.4875,0.051686,-0.98864,0.039634,0.29921
-0.0032632,-0.027825,0.0011008,0.013361,0.3015,1.364,0.052753,-0.5769,0.12634,0.18297,0.73308,0.43812,-0.48772,0.33969,0.0044282,0.078322,-0.026115,-0.08925,0.027896,1.3462,0.02295,-0.94415,0.04293,0.24164
-0.0088967,-0.030653,0.003595,0.018975,0.20655,1.3361,-0.00062842,-0.54005,0.13259,0.15608,0.69895,0.36631,-0.44509,0.27166,0.033986,0.049923,-0.011055,-0.067262,0.0093344,1.1617,-0.011787,-0.8552,0.035643,0.17818
-0.0094867,-0.030351,0.0079767,0.023193,0.098628,1.2884,-0.07977,-0.513,0.12873,0.10841,0.60405,0.28929,-0.42465,0.17566,0.046474,0.071247,-0.013235,-0.069307,-0.11592,1.0001,-0.046167,-0.75657,0.020682,0.12603
-0.0063711,-0.028599,0.011242,0.026168,-0.0097382,1.2266,-0.18321,-0.48466,0.11633,0.06774,0.47119,0.26158,-0.42678,0.090928,0.042633,0.13909,-0.03279,-0.092993,-0.36124,0.87407,-0.074627,-0.68211,0.0038123,0.10648
-0.0042188,-0.028136,0.011232,0.027674,-0.094528,1.1531,-0.30349,-0.43779,0.099893,0.058282,0.33955,0.29294,-0.44021,0.040418,0.029805,0.22832,-0.060077,-0.12167,-0.67173,0.75742,-0.096194,-0.65441,-0.009636,0.13223
-0.0066242,-0.030264,0.0084022,0.027157,-0.13905,1.0653,-0.4303,-0.3597,0.0851,0.086899,0.2425,0.34648,-0.44637,0.022804,0.014641,0.3102,-0.082456,-0.1372,-0.96119,0.61449,-0.11485,-0.67767,-0.018122,0.19832
-0.012578,-0.033102,0.0052833,0.024451,-0.14534,0.9605,-0.5526,-0.24982,0.076283,0.14154,0.19206,0.3584,-0.42561,0.023007,-0.0013965,0.36706,-0.092324,-0.13233,-1.1643,0.41798,-0.13609,-0.73433,-0.024416,0.28299
-0.017192,-0.032533,0.0041221,0.020137,-0.12785,0.84239,-0.65794,-0.12038,0.074603,0.20142,0.17806,0.27183,-0.36385,0.027215,-0.020413,0.39231,-0.09105,-0.11363,-1.264,0.14871,-0.16204,-0.78895,-0.032278,0.35831
-0.016067,-0.025588,0.0048964,0.015083,-0.096396,0.72188,-0.73002,0.0090084,0.077857,0.25062,0.17962,0.069223,-0.25715,0.029965,-0.042991,0.3801,-0.086752,-0.093987,-1.2777,-0.20741,-0.18884,-0.80257,-0.041855,0.40331
-0.0092821,-0.013553,0.0056038,0.0097615,-0.046271,0.60949,-0.74844,0.11924,0.081953,0.2857,0.17973,-0.21523,-0.11236,0.033053,-0.06519,0.31906,-0.088042,-0.081962,-1.2224,-0.65149,-0.20845,-0.75277,-0.048132,0.41183
-0.0013842,-0.001861,0.0045893,0.0041907,0.033138,0.50425,-0.69337,0.19773,0.083213,0.31435,0.17386,-0.51368,0.055608,0.043988,-0.080688,0.19938,-0.098149,-0.076528,-1.0929,-1.1568,-0.2141,-0.64701,-0.044603,0.39129
0.0024722,0.0036206,0.0026246,-0.0014609,0.13823,0.38975,-0.55452,0.24024,0.080262,0.34759,0.1692,-0.76404,0.22726,0.077716,-0.085964,0.028072,-0.11306,-0.070304,-0.87491,-1.6638,-0.20547,-0.5176,-0.029575,0.35538
0.00064042,0.0010122,0.00255,-0.0064115,0.2396,0.24368,-0.3394,0.24922,0.074553,0.39136,0.17687,-0.94433,0.38056,0.15612,-0.083563,-0.16247,-0.12441,-0.057307,-0.5789,-2.0934,-0.18952,-0.39952,-0.0094668,0.31661
-0.0042031,-0.0062649,0.0065987,-0.009629,0.29331,0.056099,-0.075527,0.23108,0.069289,0.44167,0.20325,-1.0765,0.4923,0.29787,-0.080442,-0.32231,-0.12474,-0.038287,-0.2597,-2.371,-0.17631,-0.30697,0.0046541,0.28288
-0.0078337,-0.012485,0.013889,-0.010702,0.26913,-0.15692,0.1957,0.19458,0.06744,0.48486,0.24582,-1.196,0.54158,0.5006,-0.082891,-0.40434,-0.11159,-0.019677,0.0021822,-2.443,-0.17244,-0.2276,0.0054204,0.25777
-0.0079821,-0.014282,0.020611,-0.010236,0.17322,-0.35688,0.43065,0.15019,0.070052,0.50294,0.29553,-1.3112,0.51698,0.7293,-0.092213,-0.38285,-0.088072,-0.0079604,0.14903,-2.2805,-0.17711,-0.13944,-0.0040615,0.24159
-0.005544,-0.012842,0.022982,-0.0092817,0.044948,-0.5044,0.59527,0.10809,0.075908,0.48208,0.34311,-1.3867,0.42472,0.9249,-0.10408,-0.25982,-0.060426,-0.0047864,0.18669,-1.8813,-0.18332,-0.035708,-0.010771,0.23083
-0.0030426,-0.011846,0.020369,-0.0083708,-0.071089,-0.58561,0.67252,0.073993,0.082722,0.42101,0.38458,-1.3677,0.29194,1.0334,-0.11102,-0.059444,-0.035118,-0.0069507,0.1831,-1.2823,-0.18317,0.06525,0.00021425,0.21705
-0.0023651,-0.013428,0.015746,-0.0072375,-0.15567,-0.62443,0.66391,0.045065,0.089013,0.33432,0.42234,-1.2284,0.16091,1.038,-0.10555,0.18004,-0.017554,-0.010836,0.22173,-0.57654,-0.17279,0.13509,0.036012,0.18797
-0.003858,-0.016175,0.013046,-0.0055207,-0.22314,-0.66966,0.58631,0.011267,0.095275,0.2476,0.46177,-1.0073,0.075129,0.97212,-0.082384,0.41139,-0.012467,-0.017033,0.34285,0.090514,-0.15387,0.16298,0.091474,0.13263
-0.0069635,-0.017004,0.013854,-0.0036074,-0.30122,-0.76338,0.4661,-0.035892,0.10351,0.18589,0.50654,-0.79921,0.063985,0.90249,-0.040041,0.58366,-0.024067,-0.030775,0.51562,0.56438,-0.13129,0.16987,0.15257,0.048771
-0.011032,-0.014745,0.016384,-0.0025304,-0.40065,-0.91154,0.33205,-0.091831,0.11547,0.16232,0.55586,-0.70347,0.13332,0.89366,0.017599,0.65447,-0.054426,-0.057492,0.6609,0.74985,-0.10985,0.19421,0.20427,-0.051929
-0.015297,-0.011596,0.017507,-0.0028508,-0.5017,-1.0781,0.20796,-0.13435,0.13095,0.17414,0.6045,-0.76409,0.26549,0.97734,0.080914,0.60876,-0.10087,-0.09709,0.70752,0.65971,-0.092526,0.25896,0.23683,-0.14482
-0.018493,-0.010905,0.015779,-0.0036787,-0.56895,-1.2082,0.10701,-0.13238,0.1477,0.20901,0.64366,-0.94054,0.42715,1.1436,0.13728,0.47156,-0.15506,-0.1419,0.64153,0.40346,-0.080577,0.34754,0.24693,-0.20039
-0.019218,-0.013618,0.012675,-0.0030434,-0.5813,-1.2649,0.02965,-0.063651,0.16302,0.25622,0.6615,-1.1292,0.58046,1.3533,0.17681,0.30053,-0.20559,-0.18038,0.51549,0.11936,-0.073898,0.41045,0.23461,-0.1969
-0.017172,-0.017193,0.011066,0.00046382,-0.55078,-1.2531,-0.033509,0.071676,0.17572,0.31366,0.64396,-1.221,0.69359,1.5566,0.19731,0.15717,-0.24318,-0.20386,0.41423,-0.10107,-0.070558,0.39893,0.20019,-0.13239
-0.013988,-0.018184,0.012578,0.0062141,-0.51413,-1.2138,-0.095196,0.25291,0.18658,0.38466,0.57837,-1.1579,0.74881,1.7035,0.20392,0.073878,-0.26456,-0.21112,0.40238,-0.23998,-0.066551,0.29935,0.14393,-0.030472
-0.012399,-0.015819,0.016303,0.011684,-0.50451,-1.1947,-0.16464,0.4547,0.19676,0.46743,0.46052,-0.95819,0.74645,1.7466,0.20236,0.040814,-0.27208,-0.2072,0.48842,-0.31836,-0.057417,0.14196,0.06831,0.064149
-0.014074,-0.012819,0.019864,0.014226,-0.52661,-1.2185,-0.24369,0.66334,0.20572,0.54669,0.30191,-0.69929,0.70293,1.6454,0.19113,0.022859,-0.26955,-0.19794,0.62524,-0.34042,-0.041517,-0.020766,-0.019868,0.10108
-0.018038,-0.012551,0.02157,0.012976,-0.55408,-1.2718,-0.32704,0.87905,0.21079,0.59642,0.13164,-0.47603,0.64192,1.3827,0.1599,-0.007448,-0.25815,-0.18515,0.74264,-0.27422,-0.02209,-0.14673,-0.10948,0.046321
-0.021348,-0.015477,0.021566,0.0092824,-0.54911,-1.3192,-0.40502,1.1028,0.20942,0.59365,-0.010813,-0.35882,0.58131,0.98363,0.097509,-0.048489,-0.23622,-0.16648,0.78808,-0.087368,-0.005154,-0.2223,-0.18736,-0.098192
-0.021637,-0.018628,0.021117,0.0054276,-0.48729,-1.3282,-0.46676,1.3206,0.20218,0.53367,-0.090256,-0.37009,0.52322,0.51997,0.004067,-0.07726,-0.20301,-0.13963,0.7508,0.19926,0.0062755,-0.25572,-0.24139,-0.28853
-0.01927,-0.018686,0.021025,0.0029284,-0.37015,-1.2874,-0.50287,1.5015,0.19358,0.43485,-0.090948,-0.4821,0.45407,0.086728,-0.10269,-0.07785,-0.16226,-0.10626,0.65868,0.49702,0.01719,-0.25718,-0.26304,-0.45279
-0.017104,-0.015464,0.020884,0.0018868,-0.21981,-1.2074,-0.50803,1.613,0.18926,0.3287,-0.023984,-0.62928,0.35598,-0.23939,-0.1938,-0.063371,-0.12158,-0.071547,0.55543,0.69519,0.039829,-0.22584,-0.24911,-0.52168
-0.017948,-0.012103,0.019762,0.001678,-0.064274,-1.1102,-0.48376,1.6414,0.1915,0.24228,0.077317,-0.7274,0.22237,-0.43294,-0.24526,-0.069503,-0.087202,-0.03946,0.47627,0.73117,0.086339,-0.15456,-0.20272,-0.46144
-0.021988,-0.011743,0.017378,0.0019323,0.074849,-1.0177,-0.44012,1.5997,0.19699,0.18559,0.17167,-0.69565,0.066256,-0.5205,-0.25263,-0.12361,-0.058851,-0.0086405,0.43601,0.62599,0.15959,-0.046133,-0.13301,-0.29082
-0.026447,-0.0141,0.014405,0.0026537,0.18628,-0.9455,-0.39443,1.5157,0.19932,0.15161,0.22613,-0.47842,-0.085096,-0.55018,-0.23294,-0.21654,-0.029856,0.026696,0.43112,0.4583,0.24889,0.074633,-0.05316,-0.071501
-0.027774,-0.015573,0.011656,0.0034483,0.26669,-0.90171,-0.36687,1.4122,0.19427,0.1261,0.2263,-0.061068,-0.20521,-0.55592,-0.21177,-0.30333,0.0066238,0.070858,0.4476,0.30377,0.33394,0.16425,0.023167,0.12297
-0.024441,-0.012924,0.0091942,0.0029759,0.31719,-0.88594,-0.37479,1.2959,0.18319,0.097541,0.17639,0.52745,-0.28173,-0.54436,-0.20457,-0.33458,0.050154,0.1209,0.46698,0.19146,0.39436,0.17805,0.085511,0.24107
-0.017995,-0.0068206,0.0065226,-0.00037089,0.34136,-0.88851,-0.42833,1.1654,0.17126,0.060337,0.09103,1.2259,-0.31849,-0.51016,-0.206,-0.29355,0.090958,0.16649,0.47037,0.1042,0.41841,0.0914,0.12844,0.27024
-0.011683,-0.0016038,0.0037075,-0.0068744,0.34428,-0.89255,-0.52854,1.0298,0.16168,0.012091,-0.015495,1.958,-0.32706,-0.45866,-0.19501,-0.20868,0.11558,0.1961,0.44567,0.0071481,0.40573,-0.086592,0.15091,0.22951
-0.0080246,-0.0013209,0.0020695,-0.014498,0.33154,-0.88094,-0.66677,0.91819,0.15103,-0.048806,-0.13654,2.6443,-0.31693,-0.40997,-0.1517,-0.13238,0.11611,0.20469,0.39815,-0.12831,0.3639,-0.31213,0.15422,0.14781
-0.007353,-0.0058321,0.0033147,-0.019749,0.30848,-0.84507,-0.82482,0.86809,0.13037,-0.12169,-0.27409,3.2034,-0.29327,-0.37923,-0.073321,-0.10376,0.095864,0.19672,0.35609,-0.31866,0.30261,-0.51789,0.1407,0.045848
-0.0082338,-0.010753,0.0076081,-0.020042,0.28083,-0.78919,-0.97676,0.90008,0.0915,-0.20068,-0.43389,3.552,-0.26195,-0.35429,0.022361,-0.12465,0.067291,0.18228,0.36045,-0.56608,0.22992,-0.63254,0.11399,-0.066762
-0.0089419,-0.011291,0.012462,-0.015668,0.25597,-0.72623,-1.0942,0.99744,0.033779,-0.27543,-0.61743,3.6182,-0.23364,-0.29749,0.10832,-0.16396,0.044212,0.1702,0.43824,-0.84524,0.15207,-0.60363,0.080152,-0.18188
-0.0085629,-0.006324,0.013895,-0.0096223,0.24268,-0.66778,-1.1546,1.1089,-0.034198,-0.33663,-0.81461,3.3695,-0.21969,-0.17603,0.16535,-0.18249,0.034398,0.16356,0.57491,-1.0893,0.074953,-0.41804,0.047398,-0.284
-0.0070531,0.00099398,0.0093127,-0.0052952,0.24777,-0.61592,-1.1484,1.1735,-0.099135,-0.38174,-1.0011,2.8415,-0.22261,0.0035697,0.19245,-0.15666,0.037191,0.16045,0.70805,-1.2028,0.0044222,-0.11189,0.023417,-0.35259
-0.004742,0.0063872,-0.00017359,-0.0039504,0.27145,-0.56351,-1.08,1.1502,-0.15025,-0.41486,-1.1429,2.1418,-0.23168,0.18877,0.20391,-0.086559,0.046309,0.15765,0.75358,-1.1137,-0.055491,0.23677,0.011613,-0.37413
-0.0020649,0.0081407,-0.010073,-0.0041058,0.30548,-0.50279,-0.96151,1.0318,-0.18381,-0.44014,-1.208,1.4183,-0.23154,0.31187,0.21649,0.010868,0.054503,0.15326,0.65237,-0.83367,-0.10431,0.53341,0.009179,-0.35246
0.0003521,0.0079317,-0.015449,-0.0032559,0.33719,-0.43515,-0.80454,0.83771,-0.2023,-0.45426,-1.1798,0.80449,-0.21872,0.33525,0.23686,0.11216,0.056828,0.14643,0.40819,-0.47643,-0.14411,0.702,0.0092506,-0.30718
0.0017755,0.008443,-0.014301,-0.00030194,0.35719,-0.37375,-0.61733,0.59567,-0.20989,-0.44494,-1.0647,0.37224,-0.21133,0.27454,0.25805,0.19347,0.051755,0.13601,0.090448,-0.20379,-0.1757,0.71374,0.0062768,-0.26015
0.0019269,0.010441,-0.0088336,0.0034905,0.36484,-0.33618,-0.40881,0.32997,-0.20845,-0.39779,-0.88924,0.12053,-0.24034,0.18131,0.26588,0.23353,0.041132,0.121,-0.20246,-0.12559,-0.19507,0.59492,0.00078358,-0.22061
0.0015442,0.012173,-0.0037765,0.0057471,0.36652,-0.33232,-0.19476,0.061981,-0.19697,-0.30696,-0.6875,-0.0003806,-0.32654,0.10075,0.24932,0.21824,0.02966,0.10288,-0.39752,-0.22193,-0.1941,0.41039,-0.0004952,-0.18017
0.0021358,0.01138,-0.0030916,0.0051632,0.36809,-0.35638,0.0019161,-0.18411,-0.17427,-0.18252,-0.48901,-0.049419,-0.46111,0.039024,0.20696,0.14747,0.023342,0.086903,-0.48574,-0.34745,-0.16572,0.23221,0.010124,-0.12086
0.0048154,0.0077054,-0.0074843,0.002573,0.36839,-0.3892,0.15945,-0.38308,-0.14227,-0.049572,-0.31348,-0.065922,-0.60663,-0.034791,0.14623,0.038257,0.026523,0.079529,-0.52228,-0.32209,-0.10975,0.11066,0.034258,-0.029542
0.0091466,0.0031532,-0.014305,3.8817e-005,0.36077,-0.40955,0.26795,-0.52151,-0.10678,0.060607,-0.17518,-0.063437,-0.719,-0.15746,0.077526,-0.080677,0.038761,0.08309,-0.58962,-0.051066,-0.034473,0.060765,0.064133,0.091051
0.013142,0.0003405,-0.019626,-0.0010308,0.34194,-0.40694,0.33275,-0.61132,-0.075242,0.12328,-0.089503,-0.040171,-0.77377,-0.33842,0.008528,-0.18083,0.054178,0.092467,-0.74704,0.40569,0.047236,0.066562,0.085892,0.22036
0.014594,0.00035793,-0.020884,-0.00092892,0.32024,-0.3878,0.36634,-0.68929,-0.053295,0.13085,-0.072979,0.0068479,-0.77711,-0.55038,-0.05769,-0.24388,0.064771,0.097866,-0.99572,0.8613,0.12341,0.095653,0.087387,0.32665
0.012696,0.002191,-0.018353,-0.001011,0.31414,-0.37142,0.37517,-0.79802,-0.042543,0.095916,-0.13398,0.072316,-0.75515,-0.74766,-0.12049,-0.26334,0.066021,0.092562,-1.2771,1.1095,0.18534,0.11521,0.064942,0.37865
0.0086355,0.0040479,-0.014706,-0.0021893,0.34003,-0.37854,0.35276,-0.95945,-0.040967,0.044074,-0.26071,0.1394,-0.73285,-0.89472,-0.1782,-0.24002,0.060599,0.079225,-1.5019,1.0433,0.22594,0.10468,0.024638,0.35821
0.0047951,0.005234,-0.013185,-0.00412,0.39814,-0.41933,0.28558,-1.1594,-0.045101,-0.00081433,-0.4174,0.18219,-0.71997,-0.98332,-0.2264,-0.17926,0.056867,0.068662,-1.5918,0.71165,0.23816,0.064102,-0.021817,0.27018
0.0033256,0.006855,-0.015585,-0.0057921,0.46903,-0.48782,0.167,-1.3539,-0.051998,-0.030863,-0.55448,0.1741,-0.71293,-1.029,-0.2591,-0.094709,0.062916,0.071033,-1.5116,0.28241,0.21776,0.016501,-0.062668,0.14404
0.0051313,0.010692,-0.021192,-0.0067456,0.52497,-0.56536,0.0074647,-1.4916,-0.059662,-0.058321,-0.62842,0.10023,-0.70603,-1.054,-0.2717,-0.013415,0.080661,0.086631,-1.2775,-0.058372,0.16984,0.00054157,-0.089123,0.02367
0.0096711,0.017082,-0.027194,-0.0075681,0.54885,-0.63098,-0.16718,-1.5371,-0.066195,-0.10557,-0.61921,-0.034115,-0.69905,-1.0696,-0.2633,0.027987,0.10466,0.10447,-0.94479,-0.20518,0.11273,0.052255,-0.09513,-0.052643
0.015292,0.023531,-0.030326,-0.0091921,0.54647,-0.67201,-0.32681,-1.4807,-0.069118,-0.18677,-0.53539,-0.20761,-0.69368,-1.0678,-0.23641,0.00012491,0.12639,0.11053,-0.58356,-0.16991,0.073036,0.18242,-0.076552,-0.071143
0.019788,0.025467,-0.028901,-0.011851,0.54263,-0.68884,-0.44782,-1.3352,-0.065908,-0.29409,-0.40504,-0.40023,-0.68431,-1.0231,-0.19447,-0.098528,0.14004,0.098829,-0.2574,-0.04373,0.072332,0.3631,-0.032313,-0.04812
0.021219,0.019159,-0.024048,-0.014875,0.56396,-0.69111,-0.51579,-1.1271,-0.055394,-0.39869,-0.26072,-0.61078,-0.65462,-0.90291,-0.13955,-0.23425,0.14511,0.075819,-0.01018,0.079251,0.11377,0.53465,0.032959,-0.017558
0.018963,0.0050235,-0.019171,-0.017503,0.62109,-0.68858,-0.52182,-0.88993,-0.03865,-0.46639,-0.12811,-0.8573,-0.58663,-0.68344,-0.072685,-0.35344,0.14398,0.054184,0.13876,0.15899,0.17882,0.63259,0.10797,-0.0098491
0.014407,-0.011373,-0.017692,-0.01966,0.7024,-0.68338,-0.46073,-0.66131,-0.018314,-0.47658,-0.022617,-1.1553,-0.47664,-0.36899,0.0030797,-0.41266,0.13772,0.041722,0.1938,0.2126,0.23779,0.61936,0.17806,-0.037243
0.010422,-0.022142,-0.02043,-0.021695,0.78251,-0.66927,-0.33641,-0.47655,0.0032375,-0.43157,0.049363,-1.488,-0.34501,-0.0048572,0.079769,-0.40223,0.12472,0.035348,0.17792,0.2746,0.26762,0.50135,0.23175,-0.095104
0.009467,-0.02237,-0.024681,-0.02335,0.83788,-0.63823,-0.17039,-0.3575,0.02532,-0.35132,0.090217,-1.7939,-0.23045,0.32736,0.14542,-0.34654,0.10365,0.025437,0.12377,0.35761,0.26505,0.32099,0.26588,-0.17375
0.011579,-0.014021,-0.026091,-0.023347,0.85811,-0.58892,-0.0031917,-0.30216,0.048717,-0.25983,0.11291,-1.9849,-0.17092,0.5388,0.18944,-0.28234,0.07773,0.0061077,0.063048,0.44912,0.24642,0.13013,0.28543,-0.26695
0.014046,-0.0049611,-0.022194,-0.02044,0.84657,-0.5299,0.11813,-0.28454,0.074005,-0.1739,0.13971,-1.9872,-0.18339,0.5771,0.2089,-0.23327,0.055251,-0.018396,0.01833,0.54128,0.235,-0.036932,0.29786,-0.36858
0.013436,-0.0032533,-0.014808,-0.01508,0.8124,-0.47427,0.16137,-0.26803,0.09998,-0.10063,0.19318,-1.7784,-0.25542,0.4599,0.21043,-0.20006,0.04482,-0.037268,-9.1439e-005,0.65649,0.24501,-0.17369,0.30636,-0.46267
0.0085424,-0.010972,-0.0090599,-0.0098456,0.76203,-0.42938,0.12519,-0.22453,0.12365,-0.041841,0.28236,-1.4007,-0.35303,0.27298,0.20553,-0.17054,0.048658,-0.043176,0.0066245,0.83381,0.27333,-0.29173,0.30733,-0.52101
0.0016953,-0.022621,-0.0095,-0.0077591,0.69652,-0.38916,0.038009,-0.14587,0.14192,0.0011544,0.39465,-0.94506,-0.43897,0.128,0.20265,-0.13706,0.059937,-0.039229,0.028335,1.0801,0.3032,-0.40209,0.29407,-0.51612
-0.0029335,-0.029627,-0.016385,-0.0098301,0.61568,-0.33578,-0.060134,-0.040481,0.15346,0.026892,0.50226,-0.5199,-0.4902,0.10285,0.20216,-0.10457,0.067028,-0.036313,0.050015,1.3297,0.31592,-0.50428,0.2635,-0.44213
-0.0027675,-0.02727,-0.025256,-0.014168,0.52404,-0.25098,-0.13952,0.079405,0.15931,0.036333,0.5804,-0.2172,-0.50537,0.20285,0.1982,-0.083453,0.06164,-0.043306,0.059711,1.4571,0.30154,-0.59072,0.22031,-0.32608
0.00097372,-0.018337,-0.030262,-0.017633,0.4331,-0.13017,-0.19086,0.20758,0.16162,0.034663,0.62273,-0.085771,-0.49974,0.36785,0.18548,-0.076602,0.044388,-0.059172,0.059551,1.3473,0.26209,-0.6608,0.17521,-0.21743
0.0043334,-0.010618,-0.028558,-0.01851,0.35794,0.010099,-0.21823,0.34273,0.1616,0.029519,0.64038,-0.11452,-0.49159,0.51817,0.1648,-0.074408,0.023512,-0.073812,0.072167,0.97413,0.20712,-0.72979,0.13837,-0.16076
0.0040392,-0.010585,-0.02222,-0.017654,0.31075,0.1374,-0.22343,0.48033,0.15836,0.026553,0.64481,-0.23251,-0.48853,0.60446,0.14257,-0.063132,0.0083229,-0.076277,0.13268,0.42778,0.14687,-0.8228,0.11321,-0.17011
0.00020316,-0.018581,-0.016276,-0.017116,0.29568,0.2193,-0.19775,0.60859,0.14955,0.025757,0.63039,-0.33391,-0.48184,0.62645,0.12505,-0.038756,0.0031665,-0.062587,0.26504,-0.13445,0.088492,-0.9567,0.095179,-0.22286
-0.0041164,-0.02914,-0.014657,-0.01776,0.30778,0.24058,-0.12975,0.71548,0.13309,0.021696,0.57453,-0.3255,-0.45312,0.61211,0.11272,-0.013166,0.0065381,-0.036787,0.45635,-0.57768,0.036346,-1.1245,0.075871,-0.2759
-0.0059546,-0.035612,-0.01737,-0.018321,0.33534,0.21085,-0.023665,0.8019,0.10903,0.0082014,0.45809,-0.17633,-0.3896,0.58081,0.099896,-0.006476,0.014897,-0.005862,0.65022,-0.85545,-0.006526,-1.295,0.049263,-0.29176
-0.0051218,-0.034978,-0.020937,-0.016766,0.36329,0.15797,0.088288,0.88798,0.080128,-0.014901,0.2892,0.062258,-0.29757,0.52479,0.08014,-0.031594,0.026637,0.02558,0.77039,-1.0095,-0.039122,-1.4282,0.015195,-0.25714
-0.004033,-0.029265,-0.02138,-0.012494,0.3764,0.11198,0.15331,1.0036,0.051167,-0.037346,0.10892,0.28484,-0.20254,0.42449,0.052887,-0.08366,0.042359,0.056221,0.76388,-1.1139,-0.065034,-1.4963,-0.021797,-0.18462
-0.0050439,-0.023142,-0.017166,-0.0071825,0.36309,0.090272,0.12451,1.1672,0.027304,-0.040224,-0.02853,0.39568,-0.13327,0.28269,0.025685,-0.14245,0.061945,0.085517,0.63575,-1.2148,-0.093212,-1.4937,-0.056509,-0.10046
-0.0080571,-0.020216,-0.0099513,-0.0035486,0.32045,0.093444,-0.0097316,1.3677,0.012364,-0.0047984,-0.086364,0.36846,-0.099738,0.14544,0.010008,-0.18499,0.082365,0.11218,0.4503,-1.3094,-0.13391,-1.4335,-0.086325,-0.028391
-0.010745,-0.020941,-0.0029962,-0.0033136,0.25871,0.11228,-0.21383,1.5636,0.0077331,0.075763,-0.062957,0.26273,-0.082552,0.088641,0.013542,-0.198,0.099203,0.13587,0.29521,-1.3749,-0.19133,-1.3358,-0.11147,0.021721
-0.011011,-0.023242,0.0011272,-0.0061882,0.20036,0.13834,-0.42015,1.701,0.012393,0.18925,0.015107,0.1867,-0.045407,0.17636,0.03428,-0.1814,0.11061,0.15955,0.23118,-1.4114,-0.25852,-1.2195,-0.13307,0.057048
-0.0090769,-0.024712,0.0017605,-0.010474,0.17089,0.16923,-0.56265,1.7393,0.024119,0.30795,0.11541,0.23214,0.03554,0.41924,0.060159,-0.14261,0.11938,0.18807,0.25922,-1.462,-0.31958,-1.1004,-0.15149,0.097861
