7.4278e-010,1.3177e-009,9.8395e-011,5.3442e-010,1.6399e-010,-7.233e-009,8.2381e-010,-1.966e-009,1.2251e-009,3.5596e-009,-1.4451e-009,-1.6e-008,-1.3563e-009,-4.8233e-011,1.665e-009,2.1396e-009,3.0657e-009,3.7718e-009,1.1416e-008,7.2793e-009,-7.7365e-010,9.0099e-010,-1.5955e-009,-5.0721e-009
2.0375e-008,3.6517e-008,2.3486e-009,1.4641e-008,5.0333e-009,-1.9942e-007,2.2773e-008,-5.4971e-008,3.4016e-008,9.8649e-008,-3.9504e-008,-4.4362e-007,-3.746e-008,-1.1129e-009,4.5963e-008,5.9839e-008,8.4808e-008,1.0474e-007,3.1599e-007,1.9916e-007,-2.1317e-008,2.5226e-008,-4.406e-008,-1.4106e-007
2.7171e-007,4.92e-007,2.6486e-008,1.9509e-007,7.5802e-008,-2.6722e-006,3.059e-007,-7.4812e-007,4.5939e-007,1.3293e-006,-5.2393e-007,-5.9829e-006,-5.0294e-007,-1.1669e-008,6.1681e-007,8.1445e-007,1.1404e-006,1.4142e-006,4.252e-006,2.6448e-006,-2.8562e-007,3.4417e-007,-5.9166e-007,-1.9078e-006
2.3468e-006,4.2932e-006,1.8569e-007,1.6845e-006,7.4657e-007,-2.3184e-005,2.6599e-006,-6.6027e-006,4.0206e-006,1.1604e-005,-4.4884e-006,-5.2295e-005,-4.3734e-006,-6.9551e-008,5.3609e-006,7.188e-006,9.9309e-006,1.2369e-005,3.7056e-005,2.2704e-005,-2.4792e-006,3.05e-006,-5.1476e-006,-1.6717e-005
1.4757e-005,2.7268e-005,8.8866e-007,1.0592e-005,5.4063e-006,-0.00014636,1.6824e-005,-4.248e-005,2.5635e-005,7.3749e-005,-2.7885e-005,-0.00033304,-2.7683e-005,-2.1193e-007,3.3916e-005,4.624e-005,6.2935e-005,7.8761e-005,0.00023505,0.00014153,-1.5666e-005,1.974e-005,-3.2616e-005,-0.00010665
7.1972e-005,0.00013431,2.9354e-006,5.1666e-005,3.0677e-005,-0.00071625,8.2448e-005,-0.0002123,0.0001269,0.00036362,-0.00013366,-0.0016468,-0.00013592,2.363e-007,0.00016642,0.00023104,0.00030921,0.000389,0.0011562,0.00068212,-7.6777e-005,9.948e-005,-0.00016035,-0.00052777
0.00028323,0.00053352,5.8951e-006,0.00020333,0.00014194,-0.0028261,0.0003255,-0.00085749,0.00050747,0.0014468,-0.00051294,-0.0065795,-0.00053847,6.7415e-006,0.00065887,0.00093282,0.001225,0.0015501,0.0045869,0.0026414,-0.00030344,0.00040635,-0.00063637,-0.0021069
0.00092339,0.0017548,2.5217e-007,0.00066265,0.00055005,-0.0092296,0.0010622,-0.0028747,0.0016845,0.0047696,-0.0016121,-0.021818,-0.0017674,4.4168e-005,0.0021612,0.0031255,0.0040164,0.0051162,0.015068,0.0084267,-0.00099254,0.0013827,-0.0020933,-0.006964
0.0025403,0.004867,-5.318e-005,0.0018207,0.0018198,-0.025406,0.0029147,-0.0081508,0.0047314,0.013271,-0.0041999,-0.061208,-0.0048964,0.00019357,0.0059834,0.0088547,0.011097,0.014245,0.041735,0.022512,-0.0027348,0.0039979,-0.0058144,-0.019403
0.0059737,0.011528,-0.00025695,0.0042692,0.0052127,-0.059692,0.0068005,-0.019809,0.011408,0.031567,-0.0090819,-0.14731,-0.011599,0.00065719,0.014168,0.021493,0.02616,0.033881,0.098712,0.05085,-0.0064217,0.0099674,-0.013817,-0.046118
0.012112,0.023517,-0.00080376,0.0086077,0.013062,-0.12069,0.013563,-0.041654,0.023877,0.064749,-0.016062,-0.30731,-0.023702,0.0018267,0.028958,0.045114,0.053028,0.069418,0.20103,0.097446,-0.012935,0.021673,-0.028349,-0.094186
0.021285,0.041522,-0.0019517,0.014973,0.028855,-0.2109,0.023105,-0.076261,0.043771,0.11508,-0.022053,-0.55992,-0.042015,0.0042747,0.051399,0.082359,0.092782,0.12307,0.35414,0.15772,-0.022374,0.041471,-0.050515,-0.16567
0.032482,0.06355,-0.0039079,0.022435,0.056524,-0.31859,0.033285,-0.12195,0.070857,0.17745,-0.019148,-0.89608,-0.064745,0.0085578,0.079477,0.1311,0.14005,0.18885,0.54005,0.21179,-0.033026,0.070349,-0.078418,-0.25003
0.042983,0.084137,-0.0066438,0.028725,0.098599,-0.41398,0.039462,-0.17034,0.10219,0.23652,0.0053904,-1.2651,-0.086633,0.014791,0.10713,0.1818,0.18121,0.24971,0.7104,0.22471,-0.040784,0.10647,-0.10612,-0.31938
0.049083,0.095758,-0.0097601,0.030836,0.15368,-0.45664,0.035813,-0.20705,0.13283,0.26972,0.065152,-1.5823,-0.10016,0.022176,0.12568,0.21841,0.1979,0.28101,0.7986,0.15984,-0.039903,0.14467,-0.12502,-0.33325
0.047993,0.092676,-0.012551,0.02662,0.21479,-0.41494,0.018862,-0.21684,0.15833,0.25715,0.16651,-1.7634,-0.099117,0.028888,0.12796,0.2245,0.17629,0.26197,0.75347,0.0036347,-0.025426,0.17761,-0.12792,-0.25603
0.039932,0.075227,-0.014305,0.016606,0.27073,-0.2877,-0.008071,-0.19141,0.17753,0.19413,0.30009,-1.7705,-0.082854,0.032714,0.1131,0.19249,0.11763,0.18981,0.57773,-0.21224,0.003711,0.19843,-0.11375,-0.080395
0.028722,0.051109,-0.014688,0.0046556,0.31141,-0.111,-0.032501,-0.13473,0.19302,0.097576,0.43805,-1.6372,-0.057896,0.032355,0.088231,0.13022,0.041866,0.086451,0.34101,-0.41053,0.042912,0.20308,-0.089024,0.15846
0.019845,0.031517,-0.013922,-0.0036005,0.33517,0.059632,-0.035623,-0.061285,0.2083,-0.00091355,0.542,-1.4487,-0.034805,0.028614,0.064929,0.058998,-0.021055,-0.010072,0.14702,-0.49837,0.083174,0.19074,-0.063851,0.3917
0.016868,0.023884,-0.012618,-0.0040577,0.35291,0.1833,-0.0010109,0.012446,0.22309,-0.072843,0.57983,-1.2858,-0.021479,0.024406,0.051986,0.0025878,-0.048588,-0.066854,0.067807,-0.41409,0.1151,0.16194,-0.04447,0.54885
0.01884,0.026484,-0.011358,0.0029114,0.38407,0.25939,0.074351,0.077126,0.23094,-0.10972,0.54234,-1.1743,-0.017574,0.023154,0.049691,-0.026096,-0.039749,-0.075953,0.090706,-0.16115,0.13321,0.11648,-0.028228,0.59464
0.021025,0.029647,-0.01032,0.012226,0.44401,0.32305,0.17348,0.13267,0.22227,-0.12579,0.44866,-1.0801,-0.014743,0.026393,0.050339,-0.031121,-0.014618,-0.057578,0.12325,0.19425,0.13766,0.05366,-0.0060151,0.54584
0.018782,0.023358,-0.0091953,0.017247,0.52966,0.41207,0.26339,0.18134,0.19132,-0.14371,0.33549,-0.95124,-0.0031278,0.03238,0.044907,-0.027751,0.001316,-0.04326,0.06029,0.55869,0.13221,-0.02419,0.028861,0.45545
0.011527,0.0054082,-0.0074536,0.014364,0.61439,0.5317,0.3104,0.21834,0.14167,-0.17468,0.23676,-0.76942,0.020705,0.037039,0.030569,-0.029421,-0.0042695,-0.052025,-0.13478,0.85312,0.12038,-0.10752,0.07272,0.37562
0.0033095,-0.016684,-0.0048008,0.005617,0.659,0.64751,0.29974,0.22999,0.085349,-0.20974,0.16657,-0.55977,0.050839,0.036863,0.012785,-0.038052,-0.024109,-0.078746,-0.39949,1.0329,0.10304,-0.17876,0.11212,0.32633
-0.00072265,-0.031726,-0.0015826,-0.0027914,0.63424,0.71316,0.2474,0.20369,0.035399,-0.22974,0.11643,-0.35259,0.076554,0.031647,0.00030463,-0.045222,-0.041561,-0.10334,-0.61909,1.0812,0.079181,-0.21729,0.13364,0.29141
0.0010515,-0.03375,0.0011563,-0.0051877,0.54037,0.70913,0.19457,0.1431,-0.0023475,-0.22474,0.066393,-0.13544,0.090462,0.024843,-0.0024047,-0.042163,-0.047151,-0.11111,-0.71361,0.99569,0.04889,-0.20837,0.13484,0.24121
0.0051976,-0.026185,0.0021333,-0.00074615,0.40859,0.65879,0.18493,0.074977,-0.031535,-0.20451,0.0007543,0.1527,0.093316,0.02111,0.0013275,-0.029076,-0.046024,-0.10523,-0.69422,0.78749,0.015332,-0.15065,0.12663,0.16112
0.0062773,-0.018088,0.00067332,0.0059652,0.28186,0.60835,0.23721,0.038913,-0.059767,-0.18999,-0.082429,0.5722,0.091644,0.022905,0.0036868,-0.015472,-0.050293,-0.10082,-0.64493,0.49272,-0.016274,-0.057483,0.12431,0.063469
0.0017336,-0.016296,-0.0025838,0.0086837,0.1881,0.58933,0.33084,0.063959,-0.090151,-0.19274,-0.17198,1.1183,0.090819,0.028815,-0.00087112,-0.011841,-0.065113,-0.10803,-0.64997,0.1767,-0.04203,0.048644,0.13485,-0.023268
-0.0058841,-0.020604,-0.0057341,0.0044522,0.1257,0.59675,0.41595,0.14754,-0.1173,-0.20173,-0.25057,1.6989,0.090059,0.034883,-0.01158,-0.020759,-0.082985,-0.12167,-0.73059,-0.085953,-0.062125,0.14478,0.15106,-0.075713
-0.011373,-0.025751,-0.0065719,-0.0040792,0.071523,0.60044,0.44301,0.25241,-0.13125,-0.19023,-0.30242,2.1784,0.083749,0.037744,-0.023224,-0.035464,-0.092015,-0.12775,-0.84193,-0.24829,-0.080446,0.21405,0.15741,-0.089224
-0.011653,-0.027466,-0.003863,-0.010832,0.0039384,0.57634,0.39318,0.32591,-0.1259,-0.13814,-0.31928,2.4573,0.067565,0.037002,-0.031524,-0.046575,-0.089543,-0.11962,-0.92433,-0.31802,-0.10112,0.24753,0.14204,-0.07598
-0.0084084,-0.026462,0.0020253,-0.011083,-0.078945,0.52817,0.28884,0.33062,-0.10479,-0.050835,-0.30552,2.5298,0.043611,0.03509,-0.036777,-0.050246,-0.087011,-0.10707,-0.95862,-0.35069,-0.1246,0.24318,0.105,-0.053713
-0.0063147,-0.026902,0.0095939,-0.004937,-0.16026,0.48118,0.17717,0.26729,-0.079366,0.041417,-0.28119,2.4796,0.019973,0.035015,-0.042707,-0.050352,-0.10049,-0.10835,-0.97756,-0.41105,-0.14634,0.20491,0.057107,-0.036837
-0.0087373,-0.031497,0.017284,0.0031629,-0.22212,0.45649,0.098477,0.17539,-0.061348,0.10287,-0.27867,2.4212,0.0052154,0.037991,-0.052199,-0.053449,-0.13532,-0.13253,-1.0293,-0.52877,-0.15901,0.14323,0.012432,-0.035672
-0.015002,-0.038435,0.024161,0.0081779,-0.26312,0.45149,0.061612,0.11038,-0.055362,0.11459,-0.32955,2.4313,0.0026251,0.042698,-0.064211,-0.061887,-0.17895,-0.1689,-1.1291,-0.67806,-0.15678,0.074901,-0.018709,-0.059583
-0.021496,-0.043064,0.029707,0.0081627,-0.29995,0.4432,0.042502,0.11123,-0.057256,0.082439,-0.44599,2.5113,0.0087813,0.046333,-0.074559,-0.071519,-0.20877,-0.19393,-1.2401,-0.79194,-0.13883,0.018892,-0.031804,-0.11624
-0.025104,-0.042364,0.033215,0.0050035,-0.35218,0.40918,0.0045956,0.1774,-0.058611,0.027024,-0.60868,2.5982,0.016978,0.046289,-0.079437,-0.075569,-0.20798,-0.18952,-1.2921,-0.79848,-0.1099,-0.011341,-0.026747,-0.20473
-0.025503,-0.037681,0.033704,0.0020772,-0.42424,0.34496,-0.075278,0.26893,-0.053124,-0.033691,-0.77248,2.6073,0.022095,0.041278,-0.07829,-0.070526,-0.17633,-0.15666,-1.2196,-0.65649,-0.07804,-0.014208,-0.0067046,-0.30862
-0.024427,-0.033202,0.03067,0.0012923,-0.50049,0.26298,-0.1937,0.32882,-0.039905,-0.09399,-0.88863,2.4774,0.023038,0.031679,-0.073799,-0.058703,-0.12801,-0.11302,-0.99111,-0.37395,-0.05086,0.00049539,0.021572,-0.39791
-0.023258,-0.031982,0.024956,0.0020936,-0.55701,0.17706,-0.32657,0.31388,-0.022233,-0.15628,-0.92884,2.1936,0.021653,0.019452,-0.069534,-0.045902,-0.080192,-0.078238,-0.61904,-0.0043705,-0.032658,0.019598,0.04829,-0.4425
-0.021777,-0.033486,0.018728,0.0028405,-0.57952,0.089601,-0.44614,0.21529,-0.0043212,-0.21996,-0.89407,1.7831,0.020073,0.0077411,-0.067603,-0.0372,-0.042768,-0.06016,-0.1563,0.37449,-0.023586,0.0361,0.064249,-0.42975
-0.019321,-0.034801,0.014356,0.0027513,-0.57288,-0.0062268,-0.53533,0.058118,0.010473,-0.27526,-0.80321,1.2929,0.019127,-0.0002307,-0.067963,-0.034885,-0.016335,-0.05306,0.31479,0.69089,-0.020876,0.052224,0.066106,-0.37376
-0.016703,-0.033931,0.01307,0.0024218,-0.55634,-0.11353,-0.59081,-0.11709,0.019132,-0.30806,-0.67367,0.76783,0.018628,-0.003007,-0.06931,-0.039619,0.0024895,-0.046781,0.70262,0.90632,-0.021014,0.073172,0.058889,-0.30858
-0.016344,-0.031753,0.014546,0.0027053,-0.55085,-0.22302,-0.6169,-0.27616,0.01829,-0.31054,-0.51204,0.23998,0.018364,-0.0024063,-0.070404,-0.052392,0.015138,-0.036951,0.93731,1.0258,-0.021565,0.097044,0.052752,-0.26873
-0.020059,-0.030851,0.017625,0.0034854,-0.56952,-0.31874,-0.61832,-0.40222,0.0056434,-0.28712,-0.32219,-0.26629,0.018402,-0.0030474,-0.070918,-0.074357,0.019729,-0.027468,1.0019,1.084,-0.021854,0.11017,0.055791,-0.27
-0.026743,-0.032653,0.021352,0.0037963,-0.61633,-0.39295,-0.59834,-0.49176,-0.017147,-0.24938,-0.12099,-0.72386,0.018604,-0.0094357,-0.071612,-0.10432,0.014059,-0.024936,0.94194,1.1149,-0.022526,0.092489,0.068337,-0.30305
-0.032686,-0.035842,0.025328,0.0031046,-0.68956,-0.45524,-0.56208,-0.54364,-0.043286,-0.20484,0.056811,-1.0975,0.018407,-0.022414,-0.073871,-0.13655,-0.00099197,-0.03169,0.83949,1.1259,-0.02452,0.028808,0.083077,-0.34313
-0.034699,-0.037521,0.02928,0.0022245,-0.78309,-0.52613,-0.51986,-0.55304,-0.063884,-0.15049,0.17312,-1.3496,0.017504,-0.037932,-0.078675,-0.16179,-0.020847,-0.043745,0.76478,1.0971,-0.028094,-0.083498,0.090621,-0.36779
-0.033134,-0.035839,0.032607,0.0027488,-0.88351,-0.62052,-0.48597,-0.51573,-0.073743,-0.078457,0.2112,-1.4533,0.016746,-0.049583,-0.085345,-0.17122,-0.039371,-0.054252,0.73862,1.0056,-0.032295,-0.23626,0.08597,-0.3697
-0.031634,-0.031507,0.03462,0.0055194,-0.96788,-0.73569,-0.47203,-0.43743,-0.075132,0.011089,0.18995,-1.4029,0.01802,-0.053191,-0.091011,-0.16089,-0.051601,-0.058203,0.73388,0.85106,-0.034977,-0.41886,0.07127,-0.35657
-0.033518,-0.026898,0.035195,0.0096982,-1.008,-0.85461,-0.47876,-0.33844,-0.075736,0.10279,0.1549,-1.2155,0.022787,-0.0498,-0.091687,-0.13322,-0.055372,-0.054363,0.71236,0.65821,-0.033276,-0.62387,0.053714,-0.34049
-0.038272,-0.023849,0.035024,0.013356,-0.98169,-0.96017,-0.4915,-0.24807,-0.081845,0.17403,0.15126,-0.92465,0.030534,-0.044638,-0.084767,-0.09513,-0.051665,-0.044101,0.66306,0.45101,-0.024345,-0.84319,0.041214,-0.32635
-0.041789,-0.022327,0.034973,0.01494,-0.8845,-1.0468,-0.48303,-0.19255,-0.092382,0.2133,0.19895,-0.57359,0.038757,-0.043019,-0.071289,-0.054755,-0.044114,-0.029554,0.60851,0.22492,-0.0062368,-1.0569,0.039382,-0.30815
-0.04043,-0.021031,0.035181,0.014214,-0.73448,-1.1188,-0.42383,-0.18477,-0.099123,0.23316,0.28668,-0.21493,0.04473,-0.046606,-0.056071,-0.019321,-0.037629,-0.012956,0.57673,-0.051267,0.021213,-1.2256,0.051243,-0.27455
-0.035024,-0.018987,0.03489,0.012011,-0.56649,-1.1787,-0.29593,-0.22156,-0.093321,0.2641,0.38652,0.088531,0.047511,-0.052854,-0.045163,0.0054681,-0.036002,0.003451,0.56977,-0.39744,0.055677,-1.2965,0.078367,-0.21809
-0.030632,-0.016365,0.033292,0.0093909,-0.41961,-1.2176,-0.10387,-0.28809,-0.073243,0.33209,0.4749,0.27117,0.048296,-0.057587,-0.042185,0.015807,-0.039387,0.018354,0.56209,-0.77843,0.092245,-1.2247,0.12112,-0.14011
-0.031903,-0.013826,0.030537,0.0071887,-0.32441,-1.2183,0.12366,-0.36484,-0.046078,0.43724,0.5439,0.28587,0.048755,-0.058273,-0.046058,0.011089,-0.043586,0.033001,0.53123,-1.0979,0.12447,-0.99795,0.17706,-0.048364
-0.038303,-0.01136,0.027825,0.0061696,-0.29484,-1.1692,0.34353,-0.43408,-0.022421,0.55168,0.59757,0.13047,0.048997,-0.055538,-0.051671,-0.0048009,-0.042443,0.051446,0.48875,-1.2464,0.14663,-0.64938,0.23882,0.04963
-0.043955,-0.0081585,0.026451,0.0070973,-0.32597,-1.0755,0.51502,-0.48464,-0.0079898,0.6386,0.641,-0.14021,0.047182,-0.052276,-0.052951,-0.024376,-0.032206,0.077866,0.47649,-1.175,0.15635,-0.24884,0.29356,0.15085
-0.042605,-0.0038376,0.026798,0.010169,-0.3963,-0.95853,0.61492,-0.5145,0.00019038,0.67706,0.67373,-0.43194,0.041216,-0.051446,-0.046295,-0.040353,-0.014607,0.11236,0.52632,-0.93922,0.15606,0.12291,0.32591,0.25475
-0.033332,0.00026856,0.028268,0.014226,-0.47314,-0.84302,0.64283,-0.52911,0.0097978,0.67303,0.69262,-0.65296,0.030966,-0.054106,-0.032347,-0.050017,0.0040555,0.14892,0.6196,-0.67586,0.15189,0.40217,0.32353,0.35681
-0.021708,0.0014229,0.030038,0.016806,-0.52047,-0.74142,0.61547,-0.53497,0.024967,0.65026,0.69929,-0.75479,0.018897,-0.058644,-0.015319,-0.056368,0.017394,0.17808,0.68725,-0.52622,0.15019,0.55827,0.28284,0.44388
-0.015269,-0.0023483,0.031682,0.015517,-0.50854,-0.64831,0.55589,-0.53198,0.041266,0.63108,0.70372,-0.74461,0.0084989,-0.061503,-0.00048463,-0.064568,0.023425,0.19269,0.65653,-0.55688,0.15372,0.59392,0.21166,0.49668
-0.017316,-0.0099219,0.032958,0.0099228,-0.42355,-0.54787,0.48533,-0.51145,0.048663,0.62352,0.71942,-0.66229,0.0019075,-0.059134,0.0087023,-0.076488,0.025366,0.19218,0.50667,-0.73182,0.16,0.53638,0.12647,0.49954
-0.024489,-0.016832,0.033226,0.0022917,-0.27393,-0.42848,0.42107,-0.46353,0.040167,0.62201,0.75318,-0.54288,-0.001309,-0.050343,0.012303,-0.088258,0.028122,0.18173,0.28533,-0.95046,0.16312,0.42807,0.045253,0.45089
-0.029976,-0.017865,0.031487,-0.0036694,-0.08977,-0.29395,0.3767,-0.38926,0.01862,0.61617,0.79696,-0.39613,-0.003384,-0.037654,0.013445,-0.093291,0.033567,0.16714,0.07049,-1.1197,0.15773,0.31875,-0.02077,0.36664
-0.029194,-0.01084,0.027351,-0.00532,0.086156,-0.16446,0.36007,-0.30642,-0.0045092,0.59746,0.82818,-0.21903,-0.0066158,-0.02651,0.015881,-0.088126,0.038705,0.15015,-0.089769,-1.2082,0.14219,0.25602,-0.071467,0.2732
-0.022972,0.0013246,0.022007,-0.0028612,0.21374,-0.067445,0.36814,-0.24158,-0.017643,0.55978,0.81924,-0.027055,-0.012281,-0.022411,0.021023,-0.075651,0.038248,0.12828,-0.20854,-1.2481,0.11865,0.2728,-0.11542,0.194
-0.015993,0.012075,0.017956,0.0010801,0.2711,-0.024595,0.38405,-0.21228,-0.017885,0.49794,0.75174,0.12793,-0.020816,-0.027669,0.02651,-0.06251,0.029337,0.099108,-0.33748,-1.2894,0.090156,0.3769,-0.16217,0.13881
-0.01254,0.015408,0.017372,0.0036739,0.26303,-0.041968,0.382,-0.21267,-0.012894,0.4095,0.62741,0.17513,-0.032424,-0.039955,0.027634,-0.052988,0.014433,0.064853,-0.51244,-1.3439,0.057559,0.55005,-0.21437,0.1026
-0.013469,0.0098532,0.020336,0.003971,0.21767,-0.10722,0.33973,-0.21473,-0.01461,0.29874,0.46961,0.068617,-0.046955,-0.053655,0.020935,-0.045056,8.6737e-005,0.032923,-0.7151,-1.3607,0.019119,0.75769,-0.26549,0.074155
-0.01648,-0.00059185,0.024506,0.0030847,0.17278,-0.19385,0.25127,-0.18517,-0.030401,0.17711,0.31387,-0.17622,-0.063024,-0.06304,0.0074018,-0.032418,-0.0071657,0.011754,-0.8819,-1.2536,-0.026826,0.96155,-0.30498,0.047118
-0.01857,-0.0091986,0.026603,0.0025013,0.15862,-0.26986,0.1311,-0.10595,-0.058852,0.05716,0.192,-0.48339,-0.077614,-0.065116,-0.0072807,-0.01088,-0.0044715,0.0053787,-0.94971,-0.9654,-0.078521,1.1259,-0.32693,0.025115
-0.01815,-0.010932,0.024609,0.0022879,0.18622,-0.3077,0.0065688,0.015613,-0.092913,-0.055309,0.11787,-0.75433,-0.087286,-0.060488,-0.015895,0.016703,0.0066156,0.01105,-0.8986,-0.52503,-0.13009,1.2165,-0.33567,0.017803
-0.015438,-0.0054507,0.019007,0.00097813,0.24612,-0.29274,-0.096447,0.15268,-0.1267,-0.16308,0.0818,-0.91378,-0.090441,-0.052147,-0.014036,0.041507,0.022116,0.021538,-0.75864,-0.055587,-0.17456,1.2009,-0.34331,0.032109
-0.011674,0.0032781,0.012278,-0.0028062,0.31646,-0.22754,-0.16571,0.2742,-0.15968,-0.27061,0.055788,-0.9302,-0.08867,-0.04338,-0.0024717,0.055168,0.038133,0.030022,-0.58108,0.28301,-0.20825,1.057,-0.36101,0.066428
-0.0083378,0.010195,0.0071729,-0.0086819,0.37464,-0.12961,-0.20615,0.35888,-0.19499,-0.37493,0.0064178,-0.80292,-0.085663,-0.0362,0.013945,0.056177,0.052036,0.033903,-0.40211,0.38673,-0.2329,0.78726,-0.39049,0.1123
-0.0067242,0.012722,0.0050025,-0.0145,0.40616,-0.022428,-0.23458,0.4011,-0.23415,-0.46354,-0.090789,-0.53813,-0.084365,-0.030979,0.029536,0.050869,0.062299,0.035207,-0.22853,0.2756,-0.2536,0.42628,-0.42275,0.16133
-0.0074449,0.012163,0.0049379,-0.018036,0.40781,0.076296,-0.27025,0.4097,-0.27337,-0.52218,-0.24153,-0.14284,-0.084886,-0.0271,0.040519,0.048226,0.068145,0.03793,-0.05092,0.086017,-0.27416,0.03157,-0.44521,0.21052
-0.0097099,0.012171,0.0045089,-0.018736,0.38593,0.16227,-0.32676,0.40407,-0.30504,-0.5455,-0.4311,0.35722,-0.085086,-0.023988,0.045585,0.05282,0.069761,0.044533,0.13328,-0.014887,-0.29393,-0.33723,-0.45185,0.2613
-0.011108,0.01573,0.00090941,-0.017888,0.3521,0.24275,-0.40808,0.40983,-0.3232,-0.54149,-0.63156,0.89967,-0.0832,-0.021865,0.044937,0.06159,0.068589,0.053858,0.30846,0.063148,-0.30842,-0.63671,-0.44823,0.31324
-0.0086629,0.022941,-0.0075112,-0.017216,0.31821,0.32595,-0.5088,0.45301,-0.32867,-0.52667,-0.81461,1.3975,-0.079871,-0.021746,0.039526,0.066821,0.066868,0.061557,0.4481,0.28081,-0.31313,-0.84463,-0.44718,0.35902
-0.00084473,0.031071,-0.020184,-0.017398,0.29212,0.40982,-0.6165,0.55156,-0.32968,-0.51777,-0.96406,1.7833,-0.07759,-0.024615,0.031246,0.062649,0.066489,0.062728,0.53048,0.51005,-0.30722,-0.95367,-0.4583,0.38614
0.010954,0.036496,-0.034222,-0.017905,0.27506,0.47947,-0.7144,0.70617,-0.33736,-0.52653,-1.0808,2.0527,-0.078247,-0.030244,0.0232,0.049865,0.068242,0.05536,0.54915,0.63531,-0.2938,-0.9656,-0.47935,0.38529
0.022813,0.036967,-0.04555,-0.018072,0.26243,0.51618,-0.78408,0.89579,-0.35882,-0.55899,-1.1766,2.2629,-0.08133,-0.036569,0.01871,0.035644,0.072331,0.042679,0.51304,0.63445,-0.27682,-0.89317,-0.49598,0.3588
0.030443,0.032723,-0.050914,-0.018123,0.24803,0.51149,-0.80886,1.0821,-0.39256,-0.61466,-1.261,2.4777,-0.084538,-0.040319,0.019191,0.029012,0.079622,0.032671,0.44098,0.57649,-0.25694,-0.76475,-0.4901,0.32179
0.031588,0.026019,-0.049732,-0.019042,0.22969,0.47486,-0.77883,1.2225,-0.42894,-0.68333,-1.3289,2.6966,-0.085928,-0.038792,0.022707,0.035855,0.092003,0.034377,0.3564,0.54442,-0.22987,-0.62087,-0.45078,0.29391
0.027103,0.019687,-0.044531,-0.021503,0.2121,0.42842,-0.6961,1.2857,-0.45553,-0.74339,-1.3608,2.8314,-0.085215,-0.031627,0.025018,0.056732,0.11076,0.052531,0.28263,0.55416,-0.18892,-0.49865,-0.38061,0.28725
0.020242,0.015665,-0.03946,-0.025006,0.20403,0.39242,-0.57664,1.2616,-0.46382,-0.76826,-1.3347,2.7573,-0.082965,-0.021275,0.022827,0.08775,0.13386,0.083639,0.23738,0.54087,-0.13007,-0.41381,-0.29371,0.29931
0.01492,0.014233,-0.037682,-0.028115,0.21117,0.37284,-0.44521,1.1609,-0.45296,-0.74061,-1.2438,2.4099,-0.078895,-0.011657,0.016678,0.12248,0.15461,0.11635,0.22769,0.42112,-0.056012,-0.35485,-0.20749,0.31642
0.013965,0.014231,-0.039457,-0.029595,0.2298,0.36048,-0.32412,1.0035,-0.42826,-0.66451,-1.1054,1.8506,-0.071471,-0.0058483,0.010804,0.15323,0.16379,0.13663,0.25082,0.17161,0.024067,-0.29531,-0.13301,0.32431
0.017981,0.014082,-0.04244,-0.029447,0.24703,0.34145,-0.22205,0.80648,-0.39582,-0.5639,-0.95503,1.2481,-0.059463,-0.0043294,0.0097129,0.17213,0.15487,0.1352,0.30202,-0.14711,0.099058,-0.21441,-0.069273,0.31672
0.02511,0.012987,-0.044062,-0.028982,0.24876,0.30951,-0.13143,0.57855,-0.3576,-0.46628,-0.82803,0.78286,-0.043798,-0.0049343,0.014282,0.17339,0.12899,0.11274,0.38265,-0.44081,0.16162,-0.11046,-0.004266,0.29442
0.031917,0.011507,-0.044093,-0.029937,0.2303,0.26991,-0.037727,0.329,-0.31106,-0.38403,-0.74086,0.54508,-0.027596,-0.0045132,0.020851,0.15681,0.096102,0.079539,0.49857,-0.65746,0.2106,0.0016466,0.077418,0.25599
0.035332,0.011039,-0.045161,-0.033321,0.20166,0.2321,0.065134,0.083669,-0.25345,-0.30917,-0.68319,0.49551,-0.014147,-0.0012112,0.024337,0.12984,0.070323,0.049385,0.64756,-0.82152,0.24858,0.10291,0.18358,0.19049
0.034746,0.012564,-0.050551,-0.038795,0.18264,0.19869,0.16497,-0.10719,-0.18688,-0.22559,-0.62554,0.50885,-0.0048046,0.004116,0.022797,0.10551,0.062087,0.031406,0.80694,-1.0015,0.27731,0.18043,0.30594,0.0824
0.032709,0.015681,-0.061047,-0.044869,0.19053,0.16128,0.2354,-0.18293,-0.11949,-0.12755,-0.53767,0.45743,0.0011747,0.0083295,0.019392,0.095966,0.07199,0.025088,0.93539,-1.2463,0.29568,0.22831,0.4201,-0.07152
0.033208,0.01873,-0.073545,-0.049664,0.22912,0.10779,0.25172,-0.10687,-0.060979,-0.027295,-0.40743,0.2731,0.0048244,0.0081172,0.019816,0.1058,0.090831,0.021865,0.99163,-1.5494,0.30228,0.243,0.49615,-0.24661
0.038445,0.019842,-0.082822,-0.051728,0.28693,0.035578,0.20693,0.10026,-0.016128,0.054609,-0.25016,-0.043209,0.0056602,0.0024363,0.027236,0.13004,0.10617,0.012292,0.95611,-1.864,0.29956,0.22161,0.5148,-0.39267
0.046622,0.017947,-0.08508,-0.050539,0.34551,-0.041646,0.11656,0.35521,0.018133,0.10679,-0.10328,-0.44882,0.001703,-0.0064746,0.039041,0.15844,0.11104,-0.0061633,0.83839,-2.1426,0.2943,0.16607,0.47889,-0.45899
0.052882,0.013011,-0.080389,-0.046616,0.39115,-0.1001,0.0098868,0.54745,0.049563,0.13631,-0.0073438,-0.88831,-0.008777,-0.014417,0.048204,0.18211,0.1086,-0.026408,0.66566,-2.3568,0.29254,0.088141,0.41165,-0.42736
0.053013,0.0057528,-0.072217,-0.041358,0.42097,-0.12155,-0.084916,0.59737,0.084035,0.16183,0.018012,-1.3066,-0.025517,-0.018068,0.048159,0.19677,0.10927,-0.036361,0.46453,-2.4787,0.29361,0.0079397,0.34208,-0.32795
0.04697,-0.0024143,-0.064862,-0.036668,0.44004,-0.10542,-0.15135,0.49999,0.12128,0.19781,-0.010309,-1.6548,-0.045952,-0.017239,0.037238,0.20022,0.12241,-0.027847,0.25238,-2.4561,0.28976,-0.05489,0.28784,-0.22301
0.03912,-0.0091515,-0.061157,-0.03436,0.45339,-0.067096,-0.18628,0.32395,0.15635,0.24407,-0.042968,-1.9035,-0.066206,-0.014791,0.019369,0.18757,0.14858,-0.0033717,0.041748,-2.2223,0.27352,-0.090474,0.24836,-0.1677
0.03481,-0.011582,-0.061954,-0.035414,0.46024,-0.024003,-0.19585,0.16596,0.18478,0.28916,-0.023142,-2.0576,-0.082203,-0.014289,0.0010535,0.15067,0.17805,0.024274,-0.15329,-1.7455,0.24659,-0.1009,0.21245,-0.17626
0.036048,-0.008038,-0.066795,-0.039378,0.45489,0.017709,-0.19104,0.092511,0.20632,0.3228,0.080706,-2.1539,-0.090258,-0.017274,-0.012581,0.084219,0.19637,0.039362,-0.32069,-1.0788,0.22128,-0.094447,0.17257,-0.21908
0.039958,-0.00021964,-0.074246,-0.044354,0.43221,0.063285,-0.1849,0.10761,0.2238,0.34533,0.25486,-2.2316,-0.087572,-0.022213,-0.019769,-0.00592,0.19279,0.032329,-0.46171,-0.36084,0.21148,-0.078293,0.13282,-0.25189
0.041362,0.006544,-0.081577,-0.047815,0.39245,0.11616,-0.18932,0.16383,0.2388,0.36612,0.44734,-2.2931,-0.073276,-0.025735,-0.02153,-0.10025,0.16575,0.0044351,-0.59514,0.24614,0.22023,-0.056561,0.10371,-0.25315
0.037291,0.0063182,-0.085022,-0.04796,0.3418,0.16481,-0.20983,0.20238,0.24902,0.39331,0.59806,-2.2929,-0.049668,-0.024909,-0.020014,-0.17329,0.1224,-0.03448,-0.74359,0.6372,0.23515,-0.033909,0.089933,-0.2401
0.029658,-0.0028342,-0.081665,-0.044808,0.28936,0.18446,-0.24125,0.19056,0.25045,0.42476,0.67204,-2.1694,-0.022373,-0.018843,-0.017398,-0.20712,0.073616,-0.072503,-0.90969,0.80379,0.23693,-0.018568,0.083863,-0.25214
0.023826,-0.016633,-0.071969,-0.040218,0.24385,0.15535,-0.2692,0.13323,0.24232,0.44829,0.674,-1.9003,0.0013875,-0.0088139,-0.015595,-0.20102,0.028636,-0.1014,-1.064,0.80667,0.21422,-0.019255,0.071724,-0.31647
0.024289,-0.027363,-0.0604,-0.036709,0.2119,0.082732,-0.27911,0.058179,0.23002,0.45069,0.63678,-1.5369,0.015749,0.0025557,-0.015994,-0.17002,-0.0079168,-0.11842,-1.1601,0.71462,0.1726,-0.037504,0.047057,-0.42382
0.030968,-0.029896,-0.052745,-0.035812,0.19744,0.00013868,-0.26677,-0.0072955,0.22251,0.42765,0.59547,-1.1882,0.018541,0.012252,-0.018741,-0.13384,-0.036025,-0.12476,-1.169,0.56602,0.13003,-0.063181,0.018384,-0.53209
0.039103,-0.025858,-0.051767,-0.03713,0.20037,-0.049719,-0.24166,-0.050595,0.22596,0.38626,0.56673,-0.96352,0.011564,0.017704,-0.022171,-0.10496,-0.058772,-0.12344,-1.1053,0.3825,0.10287,-0.079573,0.0032295,-0.59355
0.04277,-0.02206,-0.054948,-0.038785,0.21469,-0.042752,-0.21898,-0.073294,0.23882,0.33801,0.54579,-0.9175,-0.0011131,0.01778,-0.023334,-0.084545,-0.080444,-0.11826,-1.0223,0.21033,0.094301,-0.07593,0.01346,-0.58501
0.039181,-0.02443,-0.05662,-0.038873,0.22854,0.011769,-0.20624,-0.082741,0.2523,0.28781,0.51818,-1.0331,-0.015463,0.013811,-0.019746,-0.067382,-0.10442,-0.11338,-0.9766,0.13844,0.094043,-0.057626,0.04522,-0.52073
0.030405,-0.032882,-0.052908,-0.0368,0.22812,0.081021,-0.19579,-0.085225,0.25587,0.228,0.47383,-1.2459,-0.028903,0.0096801,-0.011202,-0.049977,-0.13103,-0.112,-0.98837,0.26505,0.08832,-0.044719,0.082524,-0.44182
0.021328,-0.041748,-0.045183,-0.033503,0.20441,0.13467,-0.17034,-0.084578,0.24354,0.14261,0.41354,-1.4841,-0.040252,0.010057,-0.00020099,-0.034209,-0.15651,-0.11443,-1.0277,0.63494,0.070805,-0.058747,0.11091,-0.39098
0.015682,-0.045198,-0.038813,-0.030528,0.15867,0.16648,-0.11743,-0.083817,0.21685,0.019664,0.34693,-1.6927,-0.048739,0.017244,0.0094819,-0.02443,-0.17463,-0.11756,-1.0364,1.1984,0.04576,-0.1074,0.12851,-0.38847
0.013484,-0.042506,-0.038202,-0.02882,0.10264,0.19579,-0.040853,-0.086061,0.18335,-0.13702,0.28706,-1.8352,-0.053078,0.028827,0.015022,-0.02214,-0.18088,-0.11766,-0.97051,1.8256,0.022182,-0.17859,0.14477,-0.42275
0.011806,-0.038294,-0.042528,-0.028151,0.052916,0.24982,0.0405,-0.093647,0.15269,-0.30534,0.246,-1.8852,-0.051381,0.038432,0.01589,-0.024052,-0.17684,-0.11497,-0.83112,2.3659,0.0051663,-0.24784,0.16894,-0.45975
0.0079226,-0.0378,-0.046089,-0.027452,0.023126,0.3422,0.10546,-0.10695,0.13294,-0.45415,0.23097,-1.8264,-0.042017,0.039734,0.01341,-0.025263,-0.17079,-0.11618,-0.66517,2.7083,-0.008145,-0.29268,0.19956,-0.46502
0.0018872,-0.041794,-0.043109,-0.025599,0.018779,0.46369,0.14469,-0.12442,0.12856,-0.55837,0.23942,-1.6612,-0.024831,0.03098,0.0091343,-0.023927,-0.17304,-0.13132,-0.5344,2.8096,-0.025626,-0.30306,0.22467,-0.4254
-0.0036781,-0.045928,-0.032858,-0.022067,0.037357,0.58959,0.16502,-0.14409,0.13987,-0.61006,0.25496,-1.416,-0.001782,0.016369,0.003592,-0.022522,-0.18836,-0.16608,-0.47461,2.6873,-0.053779,-0.28157,0.23189,-0.35702
-0.006171,-0.044981,-0.02058,-0.017176,0.071951,0.69554,0.18181,-0.16582,0.1633,-0.61856,0.24949,-1.1319,0.023638,0.0029403,-0.0035667,-0.024491,-0.21132,-0.21525,-0.47115,2.4005,-0.09335,-0.23574,0.21838,-0.29465
-0.005423,-0.037909,-0.013345,-0.011995,0.11458,0.76895,0.20634,-0.1938,0.19272,-0.60103,0.19483,-0.84435,0.047974,-0.0046522,-0.01239,-0.02981,-0.22859,-0.26324,-0.46627,2.0354,-0.1396,-0.17039,0.19145,-0.26972
-0.0037244,-0.029042,-0.014348,-0.0079461,0.15666,0.80944,0.23836,-0.23817,0.22171,-0.57119,0.079283,-0.56955,0.069299,-0.0071727,-0.021764,-0.034088,-0.22754,-0.29227,-0.3931,1.6916,-0.18571,-0.086505,0.16011,-0.29223
-0.0035995,-0.024402,-0.020501,-0.0061382,0.18789,0.82153,0.26876,-0.31331,0.24606,-0.53387,-0.081511,-0.30767,0.087552,-0.009209,-0.029827,-0.032178,-0.20475,-0.29265,-0.21466,1.4565,-0.22599,0.013341,0.12604,-0.34832
-0.0055608,-0.026524,-0.025221,-0.0066379,0.19685,0.80802,0.28831,-0.43081,0.26482,-0.48723,-0.24854,-0.058528,0.10361,-0.014523,-0.035238,-0.022851,-0.16824,-0.26747,0.056196,1.3684,-0.25702,0.11846,0.082856,-0.41263
-0.0079254,-0.032352,-0.02384,-0.0082159,0.17575,0.7702,0.2951,-0.58859,0.27913,-0.42822,-0.37735,0.16648,0.11817,-0.022499,-0.03798,-0.0102,-0.13141,-0.22852,0.36557,1.3923,-0.27721,0.20905,0.023824,-0.4632
-0.0086856,-0.035936,-0.01693,-0.0089806,0.127,0.71365,0.29536,-0.76286,0.28988,-0.35588,-0.43922,0.34701,0.13161,-0.028628,-0.038845,-0.00076496,-0.10389,-0.18766,0.64563,1.4355,-0.28652,0.26307,-0.049429,-0.48663
-0.0074815,-0.033437,-0.0089252,-0.007624,0.066824,0.6531,0.29879,-0.91111,0.29647,-0.27087,-0.43222,0.46608,0.14495,-0.028263,-0.038197,0.00062408,-0.086425,-0.15102,0.83949,1.4025,-0.28667,0.26772,-0.12509,-0.47188
-0.0057902,-0.026138,-0.0037311,-0.0043201,0.021478,0.61055,0.31353,-0.98845,0.29803,-0.17435,-0.37699,0.5186,0.16058,-0.020149,-0.035484,-0.0073137,-0.073628,-0.12006,0.91146,1.2536,-0.28084,0.22808,-0.18747,-0.40273
-0.0053096,-0.019063,-0.0015205,-0.00046377,0.016998,0.60608,0.34454,-0.9696,0.29594,-0.069164,-0.30204,0.50878,0.18138,-0.0069201,-0.030219,-0.023421,-0.061268,-0.096323,0.8482,1.0251,-0.27196,0.16647,-0.22551,-0.25999
-0.006261,-0.016641,0.00055206,0.0025286,0.067484,0.64724,0.39478,-0.86275,0.29442,0.037251,-0.22982,0.44281,0.20822,0.0071743,-0.023605,-0.045721,-0.050897,-0.08345,0.66459,0.79293,-0.26042,0.11171,-0.23719,-0.034892
-0.0072831,-0.019203,0.0048511,0.0042098,0.16827,0.72399,0.46586,-0.70559,0.29755,0.13241,-0.17076,0.32886,0.23793,0.018798,-0.018957,-0.071274,-0.047362,-0.08296,0.41719,0.60903,-0.24357,0.084073,-0.22803,0.2565
-0.0069167,-0.023104,0.010621,0.0049596,0.29706,0.81283,0.55569,-0.5463,0.3044,0.20332,-0.12545,0.18652,0.26373,0.026297,-0.020016,-0.09496,-0.051644,-0.088122,0.20776,0.46172,-0.21854,0.085608,-0.20738,0.57041
-0.0051234,-0.024014,0.014701,0.0050461,0.42191,0.88754,0.65476,-0.42236,0.30702,0.24362,-0.089286,0.054016,0.27867,0.029036,-0.028148,-0.10997,-0.056274,-0.083471,0.15472,0.29211,-0.18678,0.10182,-0.18617,0.84827
-0.0033297,-0.020361,0.014643,0.0041731,0.51222,0.93006,0.74516,-0.34999,0.29395,0.25703,-0.055268,-0.021526,0.27989,0.027026,-0.040742,-0.11126,-0.048715,-0.053347,0.33239,0.054571,-0.15652,0.11334,-0.17643,1.0388
-0.0030089,-0.014107,0.011019,0.002256,0.5492,0.93552,0.80507,-0.32662,0.25764,0.25368,-0.015118,-0.01093,0.27056,0.021568,-0.052391,-0.099583,-0.020846,0.0059071,0.71285,-0.22784,-0.13974,0.10904,-0.18989,1.1167
-0.004228,-0.0086634,0.0067884,0.00058724,0.5328,0.90952,0.8172,-0.33872,0.19981,0.24212,0.038505,0.071587,0.2579,0.015759,-0.058182,-0.081859,0.023268,0.080317,1.1579,-0.46012,-0.14476,0.091863,-0.23413,1.0902
-0.0055489,-0.0061184,0.0046377,0.0016889,0.48261,0.86112,0.77632,-0.36629,0.13011,0.22469,0.10739,0.1674,0.24849,0.013307,-0.056629,-0.066587,0.068308,0.14511,1.481,-0.53254,-0.16925,0.074596,-0.30806,0.99411
-0.0053181,-0.0061525,0.0051071,0.007257,0.43127,0.79685,0.69137,-0.38381,0.05893,0.20101,0.18351,0.20373,0.24409,0.015941,-0.04997,-0.057498,0.09721,0.17976,1.5482,-0.4011,-0.19949,0.070234,-0.4,0.87428
-0.0031022,-0.0070928,0.0071459,0.015815,0.41161,0.7197,0.58158,-0.36466,-0.0096939,0.17612,0.24959,0.13724,0.24115,0.021721,-0.041778,-0.051054,0.10188,0.17989,1.3509,-0.13419,-0.21713,0.084436,-0.49039,0.76941
-3.7607e-005,-0.0076066,0.010041,0.022676,0.44249,0.63296,0.46951,-0.29398,-0.078775,0.16435,0.28621,-0.018979,0.23401,0.026307,-0.034035,-0.040181,0.08694,0.15746,1.0007,0.11054,-0.20926,0.11414,-0.55773,0.69867
0.002006,-0.0073249,0.014301,0.023137,0.52068,0.54502,0.37487,-0.18363,-0.15212,0.18279,0.28222,-0.20383,0.21952,0.026554,-0.026137,-0.021053,0.064608,0.13024,0.65214,0.16951,-0.17478,0.15107,-0.58508,0.66098
0.001544,-0.0061632,0.020474,0.016676,0.62345,0.47048,0.31058,-0.074435,-0.22668,0.23788,0.24203,-0.34512,0.19951,0.023295,-0.016471,0.0031575,0.045919,0.11016,0.41069,-0.033044,-0.12314,0.18599,-0.56531,0.64593
-0.001954,-0.0035231,0.027359,0.0083817,0.7206,0.42581,0.28075,-0.016676,-0.29045,0.31628,0.18488,-0.39838,0.17947,0.020638,-0.0048651,0.024859,0.035806,0.099334,0.2892,-0.43815,-0.067392,0.21131,-0.50385,0.64805
-0.0080481,0.0015092,0.031926,0.0056846,0.78917,0.42155,0.27974,-0.03658,-0.32816,0.38859,0.136,-0.36275,0.16456,0.022244,0.0064565,0.038466,0.034556,0.094301,0.23329,-0.88075,-0.017368,0.222,-0.41826,0.67211
-0.015384,0.0091431,0.031487,0.012504,0.82264,0.456,0.29343,-0.11213,-0.33038,0.42426,0.11503,-0.26854,0.15602,0.027936,0.014339,0.044734,0.041921,0.09213,0.18147,-1.1764,0.022253,0.21565,-0.33293,0.7233
-0.021724,0.018194,0.026163,0.025532,0.83075,0.51435,0.30349,-0.17916,-0.29894,0.40691,0.12833,-0.15174,0.15055,0.033747,0.017275,0.049218,0.058397,0.091702,0.10666,-1.2145,0.049365,0.19165,-0.26968,0.7901
-0.024463,0.026475,0.01917,0.036066,0.83165,0.57384,0.29402,-0.16798,-0.24512,0.33941,0.16933,-0.03619,0.14278,0.035307,0.01679,0.056573,0.082384,0.090425,0.01277,-1.0051,0.061463,0.14904,-0.23812,0.83721
-0.021933,0.03184,0.014486,0.036349,0.84118,0.61171,0.25705,-0.047004,-0.18267,0.23723,0.22577,0.067495,0.12867,0.031393,0.016379,0.066087,0.10728,0.082128,-0.095327,-0.65777,0.056004,0.084659,-0.23227,0.82065
-0.014828,0.032904,0.013978,0.025575,0.8641,0.6119,0.19403,0.15799,-0.12169,0.11764,0.28812,0.15281,0.10752,0.024527,0.018774,0.072442,0.12327,0.060604,-0.23035,-0.3103,0.033701,-0.0050381,-0.23639,0.71808
-0.0064173,0.029151,0.016516,0.010753,0.88984,0.56817,0.11284,0.38282,-0.067207,-0.006444,0.35333,0.21111,0.081318,0.018397,0.023744,0.070714,0.12353,0.026504,-0.4106,-0.05575,0.00093606,-0.11728,-0.23635,0.55108
-0.00090391,0.021053,0.019636,0.0016513,0.89439,0.48418,0.023484,0.56786,-0.021661,-0.12567,0.42202,0.23404,0.052675,0.014811,0.028251,0.060904,0.10964,-0.0095746,-0.63359,0.091556,-0.031985,-0.23529,-0.22799,0.37831
-0.00088073,0.010602,0.02193,0.0037141,0.84858,0.37246,-0.06431,0.69239,0.012365,-0.23124,0.49247,0.21975,0.023126,0.012993,0.028986,0.048016,0.090455,-0.0324,-0.86639,0.17632,-0.056085,-0.32719,-0.21565,0.26018
-0.0058188,0.0015147,0.023876,0.014378,0.73138,0.25261,-0.14108,0.77578,0.032286,-0.31464,0.55734,0.17445,-0.0069352,0.011483,0.025387,0.037904,0.075087,-0.032537,-1.0646,0.24952,-0.068388,-0.35644,-0.20273,0.22027
-0.012771,-0.0021241,0.02662,0.02549,0.54264,0.14731,-0.19743,0.84769,0.037884,-0.37062,0.60672,0.10743,-0.037051,0.01031,0.020687,0.032764,0.066102,-0.013172,-1.2018,0.32104,-0.072235,-0.29982,-0.18332,0.23259
-0.018618,0.0013629,0.030262,0.0297,0.30715,0.074803,-0.22578,0.91357,0.032999,-0.39922,0.63519,0.025793,-0.065605,0.011057,0.019876,0.030114,0.059275,0.012871,-1.2804,0.34937,-0.073259,-0.16189,-0.14338,0.24442
-0.021949,0.0092365,0.033486,0.025747,0.064837,0.039488,-0.22365,0.94433,0.024475,-0.40436,0.64681,-0.063923,-0.089962,0.01476,0.025844,0.02576,0.04993,0.033614,-1.3154,0.27332,-0.074623,0.024796,-0.071453,0.21552
-0.023236,0.015577,0.034822,0.018683,-0.14949,0.02649,-0.19558,0.89782,0.01911,-0.39048,0.65322,-0.14845,-0.10782,0.019916,0.03662,0.017819,0.039543,0.046955,-1.3118,0.062755,-0.075351,0.21492,0.030103,0.14287
-0.02357,0.015658,0.034077,0.015254,-0.32438,0.0059478,-0.15182,0.75377,0.021082,-0.36143,0.66535,-0.20431,-0.11864,0.022888,0.046086,0.0082498,0.03595,0.060684,-1.2585,-0.24718,-0.072466,0.37127,0.14347,0.053335
-0.023407,0.010045,0.032419,0.018419,-0.47466,-0.05258,-0.10443,0.53392,0.031479,-0.32266,0.68465,-0.20721,-0.12396,0.020685,0.047984,0.00075834,0.046722,0.083981,-1.147,-0.56331,-0.064329,0.47834,0.24557,-0.025351
-0.022375,0.0044839,0.03112,0.025439,-0.62585,-0.16338,-0.063937,0.29231,0.049241,-0.28323,0.70012,-0.1526,-0.12617,0.013741,0.04038,-0.0029335,0.071898,0.11824,-0.99006,-0.78034,-0.052027,0.54187,0.3224,-0.088785
-0.019966,0.0050714,0.030405,0.030763,-0.79065,-0.3169,-0.038255,0.084884,0.071874,-0.25341,0.69316,-0.073131,-0.12682,0.0061047,0.027238,-0.0052487,0.1029,0.15511,-0.81866,-0.8368,-0.038104,0.57852,0.37625,-0.15559
-0.016183,0.01271,0.029662,0.030977,-0.95588,-0.48687,-0.0332,-0.058182,0.095464,-0.23766,0.64735,-0.036266,-0.12592,0.0026116,0.015877,-0.011491,0.12852,0.18281,-0.65788,-0.74513,-0.024578,0.60514,0.42081,-0.24608
-0.011561,0.021926,0.028724,0.027529,-1.0904,-0.6467,-0.051977,-0.13958,0.11535,-0.22859,0.55785,-0.11636,-0.12284,0.0052522,0.012259,-0.02592,0.14238,0.19459,-0.50564,-0.57781,-0.012501,0.63421,0.46893,-0.36076
-0.0068571,0.025421,0.028654,0.025069,-1.1681,-0.78205,-0.092559,-0.1822,0.12869,-0.20814,0.43615,-0.35391,-0.11795,0.011705,0.017559,-0.047739,0.1452,0.19202,-0.33774,-0.42057,-0.0031344,0.67385,0.52282,-0.47741
-0.0029304,0.020414,0.030976,0.027102,-1.1876,-0.89034,-0.14493,-0.2113,0.13781,-0.15699,0.30835,-0.72604,-0.1134,0.017242,0.028241,-0.069613,0.14078,0.18143,-0.13584,-0.32502,0.0012418,0.72723,0.57324,-0.56745
-0.00080492,0.011096,0.035928,0.032871,-1.1717,-0.97061,-0.19179,-0.24509,0.15105,-0.066342,0.20763,-1.1479,-0.11182,0.018485,0.038974,-0.079919,0.13061,0.16788,0.08889,-0.28988,-0.0013877,0.78915,0.60637,-0.61643
-0.0014011,0.0050042,0.041532,0.038137,-1.148,-1.0164,-0.21414,-0.29465,0.17858,0.055791,0.16249,-1.5052,-0.11415,0.016008,0.04582,-0.068114,0.11283,0.15255,0.29931,-0.27692,-0.01014,0.84398,0.61158,-0.63182
-0.004737,0.0066867,0.04464,0.039006,-1.1254,-1.0212,-0.19915,-0.36526,0.22503,0.18761,0.18484,-1.7001,-0.11826,0.013792,0.047502,-0.03099,0.08629,0.13499,0.4589,-0.24365,-0.019994,0.87052,0.58489,-0.63407
-0.0092718,0.014287,0.043274,0.035299,-1.0876,-0.99107,-0.1451,-0.45319,0.28395,0.30308,0.26302,-1.6828,-0.12018,0.016029,0.044691,0.023361,0.054742,0.1163,0.55409,-0.16726,-0.023992,0.85324,0.52811,-0.64073
-0.012377,0.021771,0.038272,0.030522,-1.0089,-0.95161,-0.059848,-0.54156,0.33927,0.38168,0.36444,-1.4576,-0.11691,0.023813,0.038797,0.076819,0.025925,0.098927,0.59104,-0.047811,-0.017902,0.79162,0.44709,-0.65682
-0.012053,0.024335,0.032807,0.028602,-0.88056,-0.93621,0.045311,-0.60436,0.37362,0.41402,0.44843,-1.0683,-0.1088,0.034192,0.031574,0.10854,0.005452,0.082795,0.57367,0.10154,-0.0036709,0.69935,0.3517,-0.67722
-0.0086295,0.022028,0.03011,0.030437,-0.72592,-0.96368,0.1611,-0.62089,0.37785,0.40265,0.48374,-0.57975,-0.099229,0.042205,0.025304,0.10542,-0.0089513,0.062182,0.49007,0.26192,0.011591,0.59294,0.25617,-0.69614
-0.0048206,0.018836,0.031218,0.033327,-0.59235,-1.0223,0.28039,-0.59187,0.35516,0.36027,0.46181,-0.068095,-0.092005,0.044245,0.022459,0.069708,-0.027019,0.027697,0.32566,0.40712,0.021036,0.48021,0.17681,-0.71401
-0.0037153,0.018825,0.03443,0.033664,-0.52417,-1.0755,0.39375,-0.54357,0.31709,0.30665,0.39852,0.38614,-0.088447,0.040274,0.024363,0.018401,-0.058853,-0.027036,0.091586,0.50192,0.024121,0.35926,0.1265,-0.73619
-0.006209,0.023155,0.036696,0.030327,-0.53673,-1.0872,0.48629,-0.51452,0.2753,0.2645,0.32341,0.71292,-0.086625,0.033427,0.029889,-0.026457,-0.10657,-0.098966,-0.16152,0.513,0.02854,0.2293,0.10906,-0.76555
-0.0101,0.030154,0.035712,0.025675,-0.60964,-1.0468,0.54099,-0.53346,0.23532,0.25403,0.26249,0.87922,-0.083262,0.02754,0.035735,-0.050722,-0.16118,-0.17463,-0.36299,0.43276,0.046053,0.10224,0.11825,-0.79579
-0.01177,0.037361,0.03119,0.023332,-0.70201,-0.97656,0.54845,-0.60436,0.19598,0.28789,0.22385,0.91164,-0.076683,0.024574,0.038649,-0.055648,-0.20672,-0.23547,-0.46119,0.2988,0.084641,0.0021745,0.14292,-0.8115
-0.0090872,0.042995,0.024639,0.024837,-0.77675,-0.91551,0.5161,-0.70817,0.15328,0.36792,0.19367,0.89174,-0.068345,0.0238,0.038021,-0.054549,-0.22838,-0.26572,-0.44939,0.18698,0.14228,-0.049566,0.17487,-0.79575
-0.0030318,0.045789,0.018183,0.02824,-0.81639,-0.89525,0.46841,-0.81735,0.10413,0.48415,0.14435,0.91564,-0.061719,0.023113,0.036531,-0.061198,-0.21912,-0.25842,-0.35786,0.17216,0.20671,-0.052047,0.21321,-0.74058
0.0033194,0.04442,0.013442,0.029823,-0.82199,-0.92387,0.43565,-0.91019,0.047439,0.61531,0.04999,1.0377,-0.059377,0.021208,0.037975,-0.078804,-0.18179,-0.21719,-0.22317,0.27734,0.26151,-0.029097,0.2618,-0.65387
0.0074035,0.038185,0.011097,0.027332,-0.80067,-0.98712,0.4371,-0.97532,-0.016537,0.73079,-0.09919,1.2357,-0.060623,0.018806,0.043884,-0.09791,-0.12721,-0.15456,-0.064754,0.4475,0.29443,-0.014822,0.32166,-0.55817
0.0089411,0.028652,0.011001,0.021789,-0.75431,-1.0613,0.47009,-1.0071,-0.086028,0.79649,-0.29125,1.4248,-0.061593,0.017975,0.051784,-0.10444,-0.070138,-0.088149,0.11202,0.57281,0.30266,-0.030605,0.38451,-0.48104
0.0093848,0.020198,0.012377,0.016401,-0.67844,-1.1261,0.51282,-1.001,-0.15599,0.78601,-0.49818,1.5132,-0.057918,0.020154,0.056774,-0.09114,-0.024691,-0.035448,0.29575,0.55377,0.29179,-0.071439,0.43288,-0.44131
0.0098969,0.01788,0.013963,0.013762,-0.57108,-1.1703,0.53945,-0.9557,-0.21703,0.69411,-0.68849,1.4613,-0.048018,0.02457,0.055327,-0.063155,-7.5586e-005,-0.0080606,0.45771,0.36843,0.27018,-0.11216,0.44701,-0.43777
0.010073,0.02371,0.014352,0.013962,-0.44361,-1.189,0.53694,-0.88106,-0.25792,0.54359,-0.83836,1.3029,-0.034526,0.028384,0.048211,-0.033842,0.0021212,-0.0076404,0.56376,0.095726,0.24325,-0.12847,0.41413,-0.44716
0.0087006,0.034457,0.012716,0.015131,-0.32546,-1.1792,0.51162,-0.80226,-0.27127,0.37729,-0.93537,1.1167,-0.022672,0.028613,0.040026,-0.01474,-0.0125,-0.026254,0.59795,-0.12479,0.21164,-0.11685,0.33422,-0.43423
0.0056154,0.043286,0.0095072,0.015599,-0.25786,-1.1372,0.481,-0.75354,-0.25843,0.23592,-0.97491,0.96949,-0.016785,0.024411,0.035579,-0.0081671,-0.035108,-0.051776,0.57324,-0.1741,0.17385,-0.099236,0.21951,-0.3704
0.0025438,0.044348,0.0064097,0.015394,-0.27846,-1.0598,0.45761,-0.76209,-0.22913,0.13472,-0.95531,0.87649,-0.017544,0.017981,0.036026,-0.00796,-0.059015,-0.075237,0.51786,-0.024271,0.13021,-0.11048,0.089281,-0.25088
0.0018747,0.036883,0.0052594,0.015706,-0.40287,-0.94812,0.43718,-0.83154,-0.19513,0.055754,-0.87739,0.80469,-0.021994,0.01326,0.037993,-0.0066042,-0.082856,-0.095112,0.45054,0.24686,0.084676,-0.17827,-0.036325,-0.098902
0.0044939,0.025643,0.0066185,0.017048,-0.61264,-0.81139,0.40043,-0.93603,-0.16278,-0.036864,-0.74933,0.71449,-0.026127,0.013217,0.036564,-0.0018988,-0.10933,-0.1156,0.36899,0.50487,0.043199,-0.30893,-0.1407,0.047629
0.0088466,0.017485,0.0091613,0.018169,-0.85742,-0.66716,0.32639,-1.0296,-0.13041,-0.16887,-0.5911,0.60344,-0.027802,0.01769,0.029769,0.0024833,-0.14074,-0.14067,0.26202,0.63852,0.010565,-0.48632,-0.21288,0.16003
0.012239,0.016843,0.010456,0.016968,-1.0733,-0.53604,0.20676,-1.0654,-0.093083,-0.3355,-0.43239,0.51608,-0.027755,0.023441,0.02085,0.0020773,-0.17521,-0.16904,0.13133,0.61992,-0.011572,-0.6819,-0.24859,0.23762
0.013216,0.023378,0.0085836,0.012615,-1.2099,-0.43173,0.05078,-1.0149,-0.050372,-0.50377,-0.30278,0.51078,-0.028254,0.02651,0.016231,-0.003244,-0.20669,-0.19395,-0.00026521,0.51115,-0.024268,-0.86722,-0.2508,0.30808
0.012818,0.032997,0.0033979,0.0068042,-1.2513,-0.35139,-0.12152,-0.87657,-0.0102,-0.63387,-0.21957,0.60854,-0.030951,0.025117,0.020586,-0.0091945,-0.22859,-0.20788,-0.10344,0.41907,-0.029524,-1.0208,-0.2296,0.40839
0.013574,0.04085,-0.003356,0.0027543,-1.2193,-0.27376,-0.29022,-0.67158,0.015237,-0.70134,-0.18141,0.76478,-0.035837,0.020864,0.032914,-0.011811,-0.23769,-0.20777,-0.16518,0.42904,-0.029013,-1.1265,-0.20003,0.55923
0.017144,0.043932,-0.0089499,0.0026654,-1.1556,-0.16893,-0.44146,-0.43152,0.018432,-0.70298,-0.17179,0.889,-0.041872,0.017246,0.046844,-0.011891,-0.2352,-0.19678,-0.19674,0.55497,-0.023957,-1.1682,-0.17773,0.75001
0.0227,0.041873,-0.010975,0.0058395,-1.0952,-0.015856,-0.5652,-0.18499,0.0029623,-0.64561,-0.16975,0.90073,-0.048179,0.016684,0.055066,-0.014356,-0.22449,-0.18141,-0.21822,0.73041,-0.015457,-1.1276,-0.1731,0.94319
0.027371,0.036174,-0.0084934,0.0092024,-1.0496,0.18284,-0.65026,0.049672,-0.01824,-0.53301,-0.16026,0.78142,-0.054441,0.018502,0.054433,-0.022905,-0.20807,-0.16671,-0.23515,0.84348,-0.0043885,-0.98966,-0.18654,1.0933
0.028341,0.028978,-0.0026907,0.0098694,-1.008,0.39915,-0.68432,0.26359,-0.031496,-0.3666,-0.13803,0.58313,-0.060268,0.019469,0.047793,-0.035236,-0.18659,-0.15323,-0.23127,0.79817,0.0089462,-0.75448,-0.20775,1.1668
0.024841,0.022134,0.0033652,0.0075417,-0.95565,0.59313,-0.66147,0.45166,-0.030984,-0.16007,-0.10419,0.38788,-0.064558,0.016341,0.041306,-0.043899,-0.16006,-0.13775,-0.18667,0.57203,0.024477,-0.44785,-0.22052,1.1533
0.018569,0.016689,0.0061484,0.0046063,-0.88933,0.73293,-0.59168,0.60744,-0.02072,0.048763,-0.060546,0.25005,-0.065913,0.0083032,0.039629,-0.042631,-0.12931,-0.11632,-0.10483,0.23858,0.040986,-0.12169,-0.21187,1.0636
0.012366,0.012708,0.0038473,0.0038487,-0.81787,0.80861,-0.50313,0.72298,-0.0090379,0.20608,-0.0072356,0.16668,-0.063911,-0.0025269,0.042765,-0.032667,-0.09577,-0.087202,-0.02143,-0.062557,0.054742,0.15875,-0.18059,0.92185
0.0083051,0.0095038,-0.0021329,0.0058676,-0.7458,0.8321,-0.43294,0.79384,-0.00071977,0.27046,0.054754,0.096372,-0.059976,-0.012587,0.046602,-0.023044,-0.059887,-0.051419,0.017363,-0.19692,0.059803,0.33634,-0.13963,0.75612
0.006599,0.0062841,-0.0077944,0.0085818,-0.65641,0.82586,-0.41033,0.82522,0.0066804,0.24128,0.11971,0.0065925,-0.056705,-0.018995,0.046067,-0.023991,-0.020477,-0.01121,-0.0085438,-0.10914,0.050519,0.38222,-0.10985,0.58973
0.0059785,0.0028807,-0.009275,0.009287,-0.51295,0.80949,-0.44246,0.83346,0.019797,0.16283,0.1773,-0.093574,-0.05595,-0.020858,0.038103,-0.038535,0.023528,0.031964,-0.072652,0.14553,0.024922,0.30462,-0.10799,0.4348
0.0050487,-3.1199e-005,-0.0057133,0.0073046,-0.28329,0.79227,-0.51166,0.84042,0.042769,0.097442,0.21823,-0.16277,-0.057193,-0.019303,0.022597,-0.059162,0.070137,0.07802,-0.11625,0.4336,-0.013252,0.14283,-0.13659,0.28958
0.0034681,-0.0014724,0.00017253,0.0046667,0.027918,0.77255,-0.58558,0.8631,0.072556,0.085898,0.24139,-0.16729,-0.057693,-0.016577,0.0015357,-0.072248,0.11332,0.12699,-0.08727,0.62003,-0.055341,-0.050065,-0.18237,0.1428
0.0020325,-0.0010316,0.0043974,0.004126,0.36588,0.74036,-0.63336,0.90507,0.099841,0.12443,0.25571,-0.11258,-0.054417,-0.014742,-0.022153,-0.066671,0.14585,0.17711,0.027195,0.64065,-0.090953,-0.22678,-0.22396,-0.015278
0.0016765,0.00066939,0.0049373,0.0063574,0.6465,0.68085,-0.63812,0.95524,0.1146,0.17488,0.2739,-0.036626,-0.046328,-0.014403,-0.045143,-0.039896,0.16427,0.22409,0.19886,0.52566,-0.11192,-0.35945,-0.24364,-0.18116
0.0023196,0.0022706,0.0030452,0.0090554,0.80149,0.5795,-0.59979,0.99474,0.11212,0.19816,0.30199,0.027855,-0.035283,-0.014028,-0.063949,0.0025809,0.17182,0.2625,0.38426,0.364,-0.11532,-0.44256,-0.23579,-0.3344
0.0026582,0.0024159,0.0016415,0.0088924,0.81711,0.43042,-0.52938,1.007,0.095329,0.1837,0.33313,0.085045,-0.024948,-0.010537,-0.075577,0.052776,0.17624,0.28857,0.55401,0.23678,-0.10456,-0.48619,-0.20781,-0.44566
0.0012046,0.0003634,0.0025124,0.0046218,0.739,0.24459,-0.44066,0.9845,0.072262,0.15258,0.35133,0.16905,-0.018641,-0.001253,-0.07862,0.10522,0.18389,0.30219,0.70215,0.16435,-0.088138,-0.50413,-0.17492,-0.49141
-0.0022767,-0.0038092,0.0050378,-0.0014917,0.63984,0.050904,-0.3447,0.929,0.050688,0.13499,0.34295,0.30195,-0.017685,0.013897,-0.073959,0.15716,0.19478,0.30662,0.83424,0.097471,-0.076307,-0.50373,-0.15256,-0.46438
-0.0062805,-0.0092803,0.0074613,-0.0052325,0.57419,-0.11412,-0.24798,0.84628,0.033669,0.14294,0.30697,0.45478,-0.021287,0.031631,-0.064327,0.20462,0.20298,0.30596,0.95181,-0.047393,-0.076388,-0.48266,-0.15022,-0.37269
-0.0086431,-0.014674,0.0091253,-0.0036414,0.55249,-0.22375,-0.15179,0.74095,0.018666,0.16135,0.25599,0.55019,-0.02774,0.046878,-0.05291,0.23919,0.20194,0.30246,1.0502,-0.33388,-0.08875,-0.4345,-0.16771,-0.23044
-0.0084021,-0.01842,0.011245,0.0028519,0.54901,-0.27426,-0.051344,0.61486,0.00039635,0.16293,0.20725,0.51065,-0.035863,0.055676,-0.041956,0.24983,0.19014,0.29568,1.1284,-0.76489,-0.10591,-0.35945,-0.19466,-0.050169
-0.0067967,-0.019359,0.015441,0.011015,0.53113,-0.28456,0.063,0.46953,-0.024732,0.13237,0.17094,0.31693,-0.045555,0.057254,-0.032289,0.22946,0.17216,0.284,1.1944,-1.2763,-0.11619,-0.27302,-0.21378,0.15559
-0.0063789,-0.017345,0.021611,0.017345,0.48414,-0.28289,0.19972,0.30951,-0.055543,0.078968,0.14483,0.031828,-0.05708,0.053863,-0.023799,0.18148,0.15436,0.26674,1.2553,-1.7663,-0.11053,-0.20517,-0.20817,0.36604
-0.0088358,-0.013369,0.027369,0.020258,0.41439,-0.29063,0.35647,0.14281,-0.086267,0.028418,0.11861,-0.22823,-0.069726,0.048828,-0.016232,0.12033,0.13925,0.24494,1.2989,-2.144,-0.088561,-0.18769,-0.17025,0.54795
-0.013359,-0.0089766,0.029704,0.020314,0.33504,-0.31418,0.51399,-0.022577,-0.10975,0.0022421,0.08341,-0.35162,-0.081066,0.044566,-0.0096046,0.064948,0.1237,0.2201,1.2867,-2.3689,-0.059676,-0.23576,-0.1073,0.66382
-0.017045,-0.0053748,0.027376,0.018817,0.25216,-0.34839,0.6411,-0.18342,-0.12167,0.002605,0.038477,-0.27965,-0.087839,0.041899,-0.004098,0.029107,0.10243,0.19261,1.1724,-2.4597,-0.037704,-0.33441,-0.039181,0.68956
-0.017103,-0.0029362,0.021931,0.016488,0.16365,-0.38576,0.71067,-0.34222,-0.12319,0.013462,-0.0092894,-0.019204,-0.088209,0.040538,0.00019711,0.015489,0.073521,0.16163,0.9351,-2.4666,-0.03211,-0.43987,0.012083,0.62896
-0.013043,-0.001428,0.01657,0.013417,0.068586,-0.42282,0.71626,-0.50146,-0.12037,0.014581,-0.050992,0.375,-0.083779,0.039738,0.0033449,0.017296,0.040853,0.12709,0.60369,-2.4262,-0.041329,-0.49676,0.034889,0.51319
-0.006986,-0.00059262,0.013962,0.0099753,-0.025541,-0.45956,0.67576,-0.65309,-0.12082,-0.0044785,-0.080754,0.82621,-0.079396,0.038559,0.0054248,0.025399,0.01167,0.091904,0.25166,-2.3345,-0.052827,-0.46235,0.034602,0.3849
-0.0018782,-0.00040325,0.014785,0.0073269,-0.10575,-0.49487,0.61751,-0.77089,-0.1295,-0.0408,-0.096269,1.2537,-0.080176,0.036073,0.0064306,0.034919,-0.0084484,0.06186,-0.034383,-2.1593,-0.050184,-0.32476,0.029274,0.27785
0.00076909,-0.00073447,0.01784,0.0067758,-0.163,-0.52385,0.55841,-0.81394,-0.14632,-0.08485,-0.096162,1.5839,-0.087636,0.031994,0.0063562,0.046239,-0.018903,0.042405,-0.19222,-1.8843,-0.022893,-0.106,0.037248,0.20571
0.0015959,-0.00088772,0.021237,0.0085518,-0.19797,-0.54048,0.49162,-0.74375,-0.16711,-0.12932,-0.078779,1.7633,-0.098044,0.027375,0.0053739,0.060643,-0.023579,0.034146,-0.20604,-1.5467,0.027289,0.14904,0.065242,0.16452
0.002045,0.00034812,0.023515,0.011373,-0.21763,-0.54399,0.39421,-0.54723,-0.18717,-0.17232,-0.045462,1.7734,-0.10481,0.024452,0.0039074,0.075512,-0.027865,0.030564,-0.10566,-1.2285,0.087368,0.38927,0.10517,0.14266
0.0024397,0.0039122,0.024049,0.01341,-0.22721,-0.54371,0.24904,-0.25084,-0.20482,-0.21392,-0.0062697,1.636,-0.1035,0.025204,0.0025306,0.084123,-0.035996,0.020375,0.049758,-1.0014,0.14068,0.57067,0.14159,0.12873
0.0015746,0.0095413,0.022922,0.013872,-0.22613,-0.55796,0.062626,0.085602,-0.22216,-0.25124,0.017768,1.4022,-0.095585,0.02955,0.0017786,0.080567,-0.050057,-0.0060722,0.19264,-0.86672,0.17601,0.66325,0.16368,0.11297
-0.0016144,0.015564,0.020687,0.013723,-0.21133,-0.60641,-0.13604,0.39428,-0.24213,-0.27728,0.0005759,1.1271,-0.087788,0.034826,0.0019814,0.065264,-0.069888,-0.05006,0.26723,-0.74249,0.19256,0.65421,0.17294,0.0859
-0.0059835,0.019774,0.018188,0.014763,-0.18319,-0.7,-0.31481,0.62839,-0.26416,-0.28434,-0.076299,0.84971,-0.087284,0.037318,0.0031635,0.045729,-0.092742,-0.10194,0.24692,-0.51453,0.19818,0.55067,0.18086,0.039369
-0.0081203,0.020833,0.016287,0.017777,-0.1465,-0.83426,-0.45992,0.77603,-0.28219,-0.26894,-0.212,0.5882,-0.096412,0.034906,0.0050344,0.031402,-0.11309,-0.14513,0.14398,-0.11449,0.20282,0.38107,0.19922,-0.0292
-0.0049314,0.019133,0.015424,0.021381,-0.10482,-0.99048,-0.58223,0.85138,-0.28779,-0.23449,-0.38422,0.34906,-0.111,0.02878,0.007124,0.026734,-0.12416,-0.16494,0.0039624,0.43506,0.21207,0.19082,0.23055,-0.1142
0.0032211,0.016448,0.015339,0.022721,-0.054121,-1.1437,-0.70382,0.87334,-0.27676,-0.19039,-0.55901,0.13571,-0.12347,0.022784,0.0090688,0.028445,-0.1216,-0.1573,-0.11773,1.0396,0.22478,0.029387,0.26609,-0.20517
0.011927,0.014677,0.015245,0.019651,0.017236,-1.2728,-0.83653,0.85114,-0.25397,-0.14871,-0.70601,-0.053241,-0.12814,0.020797,0.0109,0.029308,-0.10722,-0.13157,-0.18576,1.5931,0.23557,-0.067099,0.29269,-0.29478
0.015774,0.014693,0.014401,0.012734,0.12113,-1.3654,-0.96971,0.78812,-0.23169,-0.12018,-0.8086,-0.23143,-0.12461,0.024007,0.013092,0.025141,-0.089269,-0.10547,-0.20134,2.0275,0.23953,-0.088372,0.30318,-0.38508
0.012738,0.016123,0.012599,0.0053719,0.26105,-1.417,-1.0758,0.69743,-0.22139,-0.11081,-0.86285,-0.4248,-0.11706,0.029977,0.016263,0.018916,-0.077802,-0.094717,-0.19206,2.3197,0.23564,-0.049235,0.30268,-0.48645
0.0060859,0.017991,0.010223,0.0017595,0.42937,-1.4248,-1.1277,0.6108,-0.22497,-0.12034,-0.86908,-0.65794,-0.11042,0.034115,0.020703,0.018393,-0.077862,-0.10379,-0.18247,2.466,0.2271,0.024209,0.30598,-0.60955
0.0018669,0.019421,0.0079884,0.0040397,0.61128,-1.3845,-1.1151,0.56792,-0.23269,-0.14296,-0.82599,-0.93539,-0.10687,0.032552,0.026051,0.029305,-0.085473,-0.12366,-0.16987,2.4644,0.21905,0.11157,0.32752,-0.75587
0.0039495,0.019805,0.0067736,0.010753,0.7903,-1.2943,-1.0488,0.59218,-0.22996,-0.17036,-0.73442,-1.2336,-0.10528,0.024597,0.031346,0.049909,-0.089918,-0.13769,-0.12665,2.3239,0.21566,0.2061,0.37037,-0.91282
0.010796,0.018573,0.0075682,0.017753,0.94999,-1.1627,-0.95319,0.67239,-0.20792,-0.19514,-0.60739,-1.5117,-0.10347,0.01327,0.035411,0.071501,-0.080859,-0.13142,-0.028408,2.0845,0.21828,0.30856,0.4215,-1.0559
0.016751,0.015282,0.011154,0.020929,1.0731,-1.0146,-0.85418,0.76694,-0.16911,-0.21251,-0.47497,-1.7325,-0.10088,0.0035206,0.037381,0.08443,-0.055067,-0.10004,0.11604,1.8141,0.22523,0.4136,0.45671,-1.1563
0.016752,0.010288,0.017268,0.018803,1.1434,-0.8885,-0.76992,0.82786,-0.12387,-0.21962,-0.37436,-1.8781,-0.099205,-0.00081341,0.037097,0.084554,-0.017898,-0.049058,0.25938,1.5706,0.23294,0.50194,0.45287,-1.191
0.010517,0.00534,0.023817,0.013219,1.1528,-0.82322,-0.70649,0.82689,-0.081191,-0.21415,-0.32834,-1.9481,-0.10022,0.0006096,0.03519,0.074987,0.021138,0.010873,0.34094,1.3595,0.23765,0.54724,0.40066,-1.152
0.0027974,0.0031168,0.027264,0.0078554,1.1088,-0.84181,-0.65846,0.76527,-0.042334,-0.19459,-0.32714,-1.9471,-0.10317,0.0045814,0.032725,0.06221,0.054877,0.070699,0.32221,1.1277,0.23682,0.53369,0.31032,-1.0499
-0.00037381,0.0055218,0.024614,0.0057636,1.0327,-0.94059,-0.61351,0.66454,-0.0025996,-0.16253,-0.32994,-1.8741,-0.10424,0.006747,0.030585,0.050444,0.082122,0.12646,0.20468,0.8104,0.22935,0.47036,0.20708,-0.90932
0.0036996,0.011889,0.015836,0.0076406,0.94912,-1.089,-0.56036,0.55093,0.041459,-0.12444,-0.28894,-1.7267,-0.098952,0.0047483,0.028977,0.039318,0.10606,0.17791,0.018707,0.39343,0.2148,0.38887,0.11915,-0.75712
0.012496,0.018752,0.004641,0.011789,0.87299,-1.2391,-0.49771,0.44753,0.086935,-0.089711,-0.18108,-1.5156,-0.085834,-0.00028941,0.027472,0.026482,0.1293,0.22429,-0.20213,-0.061131,0.19246,0.324,0.065372,-0.60893
0.020389,0.021789,-0.0035454,0.015529,0.8075,-1.3391,-0.4378,0.37664,0.1267,-0.065173,-0.024834,-1.2742,-0.068058,-0.00506,0.025586,0.012157,0.14961,0.26102,-0.43684,-0.45452,0.1618,0.29078,0.049758,-0.4654
0.022879,0.018746,-0.0051837,0.016984,0.75422,-1.3473,-0.39976,0.36235,0.15642,-0.05028,0.13098,-1.0507,-0.051578,-0.0069948,0.023354,0.00095037,0.15989,0.28012,-0.6718,-0.72647,0.12422,0.2755,0.064878,-0.32148
0.019613,0.011124,-0.00098556,0.016082,0.72421,-1.2422,-0.39438,0.4233,0.17905,-0.037942,0.23879,-0.88255,-0.041078,-0.0062786,0.021325,-0.00097261,0.15239,0.27415,-0.88623,-0.90465,0.08462,0.24762,0.10002,-0.18167
0.014045,0.0032151,0.0049857,0.014242,0.73528,-1.028,-0.41101,0.55744,0.20201,-0.021635,0.28132,-0.77127,-0.036946,-0.0053177,0.019899,0.009146,0.12439,0.24094,-1.0494,-1.0858,0.050383,0.18322,0.14727,-0.066729
0.010296,-0.00088987,0.0087669,0.013092,0.79413,-0.73348,-0.41856,0.7322,0.22929,-0.0032888,0.27739,-0.68002,-0.03557,-0.0063091,0.018641,0.028019,0.080928,0.18582,-1.1373,-1.361,0.027349,0.081745,0.20159,-0.0033812
0.0098624,-5.2599e-005,0.0095479,0.013211,0.87894,-0.40068,-0.38321,0.89214,0.25632,0.0055952,0.26206,-0.56028,-0.032421,-0.0091788,0.016303,0.048289,0.032559,0.11961,-1.1538,-1.7402,0.015343,-0.03602,0.25676,-0.0033332
0.010776,0.0034742,0.0097393,0.013884,0.94239,-0.068816,-0.29122,0.98298,0.27295,-0.007665,0.25834,-0.39063,-0.0252,-0.011665,0.011629,0.063309,-0.010474,0.054048,-1.1339,-2.1307,0.0072556,-0.14587,0.30289,-0.049829
0.0097254,0.0061289,0.012171,0.014005,0.93851,0.23975,-0.15884,0.97685,0.27252,-0.044616,0.26289,-0.19711,-0.014658,-0.011335,0.0042084,0.070708,-0.043237,-0.002385,-1.1199,-2.3789,-0.0065639,-0.23942,0.32935,-0.1052
0.0052156,0.0058689,0.017112,0.013299,0.85426,0.52232,-0.020415,0.88198,0.25892,-0.089665,0.25501,-0.036421,-0.0029426,-0.0077312,-0.0053712,0.072246,-0.06653,-0.045714,-1.1296,-2.3432,-0.03132,-0.33083,0.331,-0.13546
-0.00093228,0.0034954,0.021878,0.012688,0.7187,0.78569,0.096613,0.73216,0.24498,-0.11688,0.2188,0.048024,0.008626,-0.0029458,-0.016177,0.070934,-0.082873,-0.075132,-1.1423,-1.9552,-0.063703,-0.44774,0.31154,-0.13258
-0.00501,0.0015932,0.023287,0.013384,0.57978,1.0312,0.18963,0.56563,0.24297,-0.10617,0.15836,0.063339,0.020351,-0.00034079,-0.027638,0.068525,-0.092257,-0.091394,-1.1185,-1.2447,-0.094421,-0.61387,0.27979,-0.11635
-0.0045317,0.0021651,0.020584,0.015515,0.46682,1.2469,0.27685,0.40883,0.25486,-0.057442,0.093808,0.066978,0.033165,-0.0024812,-0.039524,0.065491,-0.092127,-0.096828,-1.0379,-0.3334,-0.11565,-0.83432,0.24163,-0.11484
-0.00037008,0.0049571,0.016087,0.017657,0.37026,1.4138,0.37543,0.27289,0.27046,0.0081319,0.043612,0.12706,0.04712,-0.009605,-0.051166,0.062791,-0.082065,-0.096454,-0.92227,0.59308,-0.12734,-1.0901,0.19496,-0.14016
0.003861,0.0077044,0.013089,0.01788,0.256,1.5207,0.48154,0.15952,0.27483,0.061241,0.010121,0.27313,0.060839,-0.019355,-0.060715,0.062899,-0.068558,-0.097905,-0.82281,1.3304,-0.13683,-1.3426,0.13331,-0.17886
0.0045959,0.0078929,0.013132,0.015505,0.1011,1.5746,0.5706,0.06752,0.25904,0.082721,-0.018642,0.47583,0.0723,-0.027764,-0.065401,0.068435,-0.064202,-0.10864,-0.77825,1.7175,-0.15199,-1.5445,0.055626,-0.20288
0.00091398,0.00455,0.015194,0.011953,-0.081203,1.5981,0.6181,-0.0055699,0.22606,0.074097,-0.053638,0.67128,0.080133,-0.031058,-0.062938,0.079347,-0.08019,-0.13171,-0.77794,1.699,-0.17339,-1.654,-0.027029,-0.18962
-0.0050967,-0.0011958,0.017307,0.0097393,-0.24914,1.6156,0.62262,-0.06422,0.1879,0.053549,-0.091149,0.81042,0.084427,-0.027546,-0.053224,0.091333,-0.11738,-0.16331,-0.76138,1.3546,-0.1924,-1.6467,-0.095242,-0.13481
-0.010238,-0.0069444,0.018669,0.010345,-0.36516,1.6391,0.60991,-0.1134,0.15716,0.041456,-0.11449,0.89411,0.086683,-0.018668,-0.038975,0.097452,-0.16365,-0.19453,-0.65751,0.8691,-0.19711,-1.5236,-0.13407,-0.050388
-0.012563,-0.010454,0.020045,0.012812,-0.42363,1.6654,0.61333,-0.15356,0.13967,0.046801,-0.11068,0.96617,0.089193,-0.008408,-0.024561,0.092163,-0.20071,-0.21621,-0.43574,0.44738,-0.18144,-1.3123,-0.1449,0.046382
-0.012297,-0.010737,0.02221,0.014446,-0.44913,1.685,0.64678,-0.17672,0.13295,0.063831,-0.087697,1.071,0.094218,-0.0011673,-0.013603,0.074864,-0.21579,-0.22362,-0.13138,0.22362,-0.15042,-1.0601,-0.14611,0.14115
-0.010944,-0.0083656,0.024388,0.013192,-0.46836,1.6933,0.69351,-0.16908,0.13018,0.079581,-0.076456,1.2104,0.1031,0.00069026,-0.0070006,0.050229,-0.20902,-0.21758,0.17248,0.21837,-0.11745,-0.82202,-0.16085,0.22264
-0.0097448,-0.0050419,0.024625,0.0096248,-0.48297,1.6951,0.72088,-0.12087,0.12575,0.084592,-0.11366,1.3354,0.11548,-0.0020628,-0.0029289,0.025222,-0.19086,-0.20183,0.39201,0.3665,-0.096212,-0.64475,-0.20078,0.27907
-0.0089604,-0.0027124,0.021895,0.006711,-0.46921,1.6999,0.70878,-0.037597,0.11866,0.078025,-0.21728,1.3817,0.12922,-0.0065111,0.0011056,0.0052391,-0.17219,-0.17959,0.48534,0.5871,-0.093414,-0.5495,-0.25757,0.29879
-0.0083234,-0.0025609,0.017713,0.0073272,-0.40503,1.7134,0.66772,0.055292,0.11229,0.064468,-0.37219,1.3201,0.14131,-0.0098024,0.0057722,-0.0077476,-0.15582,-0.15238,0.46453,0.84072,-0.10715,-0.51993,-0.30839,0.27766
-0.0078574,-0.0043164,0.015306,0.011623,-0.2996,1.7345,0.63128,0.11813,0.11181,0.047288,-0.53571,1.1831,0.1498,-0.010801,0.0091603,-0.014196,-0.13673,-0.12187,0.37485,1.136,-0.13044,-0.50246,-0.33109,0.2273
-0.0080355,-0.0063364,0.016802,0.016591,-0.19723,1.7576,0.62935,0.11077,0.12089,0.025651,-0.65819,1.0429,0.15516,-0.010113,0.0085516,-0.014814,-0.11002,-0.092434,0.26133,1.4914,-0.15581,-0.42449,-0.31818,0.17535
-0.0091146,-0.0065956,0.021016,0.018364,-0.15013,1.7775,0.66404,0.0074623,0.13928,-0.0021174,-0.70418,0.95594,0.16001,-0.0089596,0.0032568,-0.0095215,-0.078813,-0.071092,0.14635,1.89,-0.17749,-0.2269,-0.28066,0.1543
-0.010434,-0.0040654,0.02408,0.015358,-0.18135,1.7909,0.70715,-0.19357,0.16219,-0.032748,-0.66231,0.91923,0.16693,-0.0081947,-0.0040671,0.0016749,-0.05425,-0.063723,0.030094,2.2632,-0.19145,0.10435,-0.24031,0.18431
-0.010574,0.00047679,0.022611,0.0095664,-0.26785,1.796,0.7199,-0.46909,0.18206,-0.056158,-0.54234,0.87289,0.17608,-0.0082219,-0.0089922,0.017192,-0.047077,-0.070087,-0.092337,2.5116,-0.19573,0.52602,-0.21676,0.26106
-0.0084527,0.004885,0.016688,0.0049015,-0.35623,1.7917,0.67858,-0.77722,0.19223,-0.060091,-0.36627,0.75099,0.18473,-0.0093658,-0.0085627,0.033562,-0.058297,-0.082027,-0.21296,2.5471,-0.19232,0.95404,-0.21856,0.35659
-0.0044772,0.0070859,0.010006,0.0040794,-0.39721,1.7789,0.58744,-1.068,0.19066,-0.037867,-0.1614,0.54055,0.18936,-0.011838,-0.0034076,0.046666,-0.077374,-0.087342,-0.30671,2.3295,-0.18823,1.2997,-0.24284,0.43283
-0.00064793,0.0064659,0.0070051,0.006718,-0.37176,1.7616,0.47205,-1.2937,0.18092,0.0068094,0.043233,0.30042,0.18878,-0.015167,0.0030626,0.053256,-0.089866,-0.077315,-0.34483,1.8804,-0.19298,1.5042,-0.28172,0.45995
0.00068495,0.004156,0.0093861,0.010142,-0.29259,1.7449,0.36159,-1.4178,0.16949,0.061331,0.22044,0.12222,0.18543,-0.017887,0.0074886,0.051473,-0.087945,-0.052372,-0.3173,1.2714,-0.21243,1.5535,-0.3293,0.42954
-0.0014233,0.0020367,0.014894,0.011945,-0.18618,1.7288,0.2744,-1.4211,0.16082,0.11033,0.35108,0.061611,0.18363,-0.018225,0.0087845,0.04044,-0.0747,-0.021204,-0.24812,0.59386,-0.24373,1.47,-0.38373,0.35671
-0.0056437,0.0012808,0.019253,0.011932,-0.074608,1.7043,0.21526,-1.3092,0.15387,0.14223,0.43033,0.093392,0.18598,-0.015495,0.0079412,0.020159,-0.058739,0.0063526,-0.19004,-0.076154,-0.27594,1.2939,-0.44429,0.27227
-0.0092097,0.0015714,0.019513,0.011855,0.029668,1.6551,0.18203,-1.117,0.14304,0.15311,0.46808,0.12583,0.19096,-0.010981,0.0060829,-0.0076939,-0.044336,0.027186,-0.19779,-0.69733,-0.2969,1.0693,-0.50737,0.21001
-0.0099467,0.0015348,0.016075,0.013421,0.11839,1.5663,0.17314,-0.90684,0.12264,0.14719,0.48119,0.064672,0.19413,-0.0073269,0.0030132,-0.039022,-0.026308,0.047115,-0.29409,-1.2579,-0.3008,0.83938,-0.56542,0.19468
-0.0079427,-3.9682e-005,0.011956,0.016493,0.18354,1.4348,0.18932,-0.75313,0.091712,0.13462,0.48223,-0.1202,0.192,-0.0067345,-0.002338,-0.068176,0.0054869,0.075453,-0.45077,-1.7502,-0.29012,0.6435,-0.60938,0.23448
-0.0054604,-0.0031792,0.010175,0.019045,0.22143,1.2733,0.22947,-0.71196,0.055124,0.12707,0.47334,-0.37305,0.18556,-0.009388,-0.010307,-0.090663,0.055888,0.11625,-0.59943,-2.1477,-0.27073,0.50828,-0.63195,0.3197
-0.0050331,-0.0066327,0.011507,0.018798,0.23946,1.1047,0.28616,-0.79033,0.020632,0.13221,0.44975,-0.58822,0.18004,-0.013401,-0.019603,-0.10583,0.11765,0.1634,-0.66749,-2.4041,-0.24534,0.43588,-0.62916,0.42881
-0.0072009,-0.008652,0.014231,0.015079,0.25467,0.95056,0.34569,-0.93563,-0.0056908,0.14992,0.40952,-0.6757,0.18067,-0.016353,-0.028035,-0.11709,0.1746,0.20376,-0.61746,-2.4777,-0.21211,0.40142,-0.60065,0.54032
-0.0097771,-0.0079854,0.015724,0.009436,0.28157,0.82089,0.39382,-1.0592,-0.022092,0.17324,0.36006,-0.61043,0.18771,-0.017157,-0.033959,-0.12913,0.21256,0.22601,-0.46479,-2.3617,-0.16968,0.36819,-0.5503,0.64433
-0.0094164,-0.0044277,0.014381,0.0046171,0.31888,0.71214,0.42259,-1.0856,-0.030522,0.19457,0.31549,-0.43716,0.19492,-0.016774,-0.036916,-0.14401,0.22903,0.2284,-0.26477,-2.095,-0.12318,0.31383,-0.48727,0.74508
-0.0043965,0.0012411,0.010423,0.0027441,0.34827,0.61356,0.43307,-0.99718,-0.034163,0.21281,0.28699,-0.23635,0.19327,-0.017222,-0.037079,-0.15914,0.23343,0.21924,-0.080183,-1.748,-0.084309,0.2475,-0.42467,0.8493
0.0035955,0.0076469,0.0053399,0.0039874,0.34792,0.51654,0.43167,-0.84234,-0.035509,0.23538,0.27514,-0.081768,0.17769,-0.019722,-0.034537,-0.16892,0.23758,0.21001,0.047447,-1.3928,-0.064156,0.20222,-0.37361,0.9474
0.010265,0.013231,0.000798,0.0065543,0.30992,0.41991,0.42301,-0.7001,-0.036085,0.27258,0.27118,-0.018178,0.15137,-0.023443,-0.029481,-0.16845,0.24467,0.20661,0.107,-1.0798,-0.065038,0.20708,-0.33513,1.004
0.011707,0.016636,-0.0020708,0.0078758,0.24616,0.3286,0.40512,-0.62666,-0.037082,0.32844,0.26617,-0.064966,0.12417,-0.025799,-0.022997,-0.15684,0.24613,0.20555,0.10911,-0.82743,-0.078656,0.26311,-0.29705,0.97233
0.0073775,0.017165,-0.0027934,0.0061538,0.17745,0.24824,0.37101,-0.62295,-0.039727,0.39552,0.25982,-0.2284,0.10595,-0.024113,-0.017103,-0.13749,0.22927,0.19773,0.073904,-0.62553,-0.09227,0.3447,-0.2406,0.82839
0.00062632,0.015203,-0.0014872,0.0013293,0.11595,0.18108,0.31524,-0.6449,-0.045054,0.45816,0.26069,-0.50205,0.099625,-0.017498,-0.013315,-0.11574,0.18918,0.1764,0.026669,-0.44564,-0.096957,0.42572,-0.15397,0.5999
-0.0037932,0.012188,0.0011148,-0.0049859,0.056394,0.12649,0.23989,-0.64338,-0.053742,0.5018,0.27779,-0.85222,0.099526,-0.0077774,-0.010826,-0.095789,0.13462,0.14274,-0.0006115,-0.2569,-0.090541,0.50505,-0.042324,0.36306
-0.0034097,0.0098124,0.0037475,-0.010419,-0.016202,0.084872,0.15482,-0.5988,-0.066414,0.52142,0.31084,-1.2068,0.095852,0.0011475,-0.0063817,-0.079516,0.082862,0.10468,0.026761,-0.044303,-0.073561,0.60532,0.074826,0.20118
3.7241e-005,0.0087502,0.0051388,-0.01301,-0.10954,0.060428,0.071442,-0.52399,-0.08395,0.52343,0.34817,-1.4697,0.081713,0.0051775,0.0033221,-0.067599,0.047515,0.070365,0.13012,0.17982,-0.043777,0.743,0.17765,0.15194
0.0020803,0.0078922,0.0048113,-0.012096,-0.21252,0.059634,-0.0057282,-0.43938,-0.107,0.52041,0.37425,-1.5643,0.05722,0.0022495,0.018338,-0.061654,0.029274,0.042009,0.2977,0.38031,0.0041341,0.89717,0.25979,0.18311
-0.00071124,0.0049855,0.0034744,-0.0086098,-0.29908,0.085864,-0.084522,-0.34739,-0.1347,0.52258,0.38064,-1.4782,0.028121,-0.0062487,0.034289,-0.064897,0.016885,0.015187,0.4796,0.51821,0.072838,1.0087,0.32974,0.21745
-0.0077872,-0.0014307,0.0025044,-0.0046865,-0.34463,0.13386,-0.18429,-0.22987,-0.16377,0.53082,0.37178,-1.2755,0.0010424,-0.015861,0.044901,-0.080263,-0.0029572,-0.016012,0.60875,0.56853,0.1564,1.0161,0.39859,0.18847
-0.014975,-0.010205,0.002859,-0.0026646,-0.34266,0.18817,-0.32902,-0.068213,-0.18895,0.53496,0.36133,-1.0586,-0.020423,-0.021429,0.04662,-0.10732,-0.035033,-0.052534,0.63893,0.52223,0.24055,0.89994,0.46537,0.084041
-0.017822,-0.017621,0.0043987,-0.0038406,-0.30969,0.22712,-0.53642,0.13498,-0.2051,0.51802,0.3629,-0.90337,-0.036267,-0.02033,0.041509,-0.14081,-0.072466,-0.088077,0.57431,0.37566,0.30966,0.69892,0.51365,-0.054434
-0.015061,-0.019813,0.00623,-0.0076685,-0.2752,0.23066,-0.80652,0.35302,-0.20955,0.46559,0.38189,-0.81117,-0.048217,-0.014455,0.035694,-0.17272,-0.10252,-0.11281,0.46792,0.12784,0.35427,0.48398,0.5232,-0.17167
-0.0093022,-0.015939,0.0076524,-0.012022,-0.26331,0.188,-1.1147,0.55204,-0.20334,0.37598,0.41282,-0.71465,-0.05814,-0.0091532,0.034361,-0.19671,-0.11578,-0.11989,0.38816,-0.20099,0.37306,0.31318,0.4865,-0.24069
-0.0045974,-0.0094083,0.008683,-0.014483,-0.27798,0.10122,-1.4151,0.71105,-0.19063,0.26542,0.44133,-0.5286,-0.067974,-0.0094753,0.037355,-0.21163,-0.1113,-0.10949,0.37657,-0.54405,0.36868,0.20476,0.41571,-0.27315
-0.0032177,-0.0056823,0.0096522,-0.01379,-0.30097,-0.017136,-1.6576,0.82843,-0.17697,0.16383,0.44783,-0.20643,-0.08011,-0.01635,0.03913,-0.22088,-0.094797,-0.087472,0.42663,-0.78977,0.34306,0.14583,0.33431,-0.29497
-0.004438,-0.0080252,0.010459,-0.010387,-0.30426,-0.15065,-1.8119,0.91323,-0.16737,0.10176,0.41192,0.23906,-0.096579,-0.025825,0.033104,-0.22762,-0.07284,-0.060417,0.49705,-0.8296,0.29767,0.12077,0.26139,-0.31464
-0.0060138,-0.014701,0.010505,-0.0057814,-0.26894,-0.28536,-1.8847,0.97401,-0.16492,0.095373,0.31878,0.75777,-0.11713,-0.032134,0.016784,-0.22945,-0.048691,-0.031721,0.54678,-0.62761,0.23823,0.12798,0.2023,-0.31474
-0.0065522,-0.020261,0.009531,-0.0014513,-0.19836,-0.41172,-1.9163,1.0176,-0.16994,0.13837,0.16761,1.2983,-0.13817,-0.032081,-0.0064252,-0.217,-0.022741,-0.00177,0.56328,-0.25791,0.17795,0.17031,0.15272,-0.27224
-0.0064697,-0.020143,0.0084079,0.001722,-0.11628,-0.52192,-1.9559,1.0573,-0.17994,0.20562,-0.022343,1.8226,-0.15412,-0.027033,-0.029738,-0.17839,0.0041464,0.028649,0.56313,0.12831,0.13368,0.23407,0.11019,-0.18647
-0.0069774,-0.014709,0.008762,0.0032726,-0.051233,-0.60644,-2.03,1.1179,-0.19006,0.2655,-0.21461,2.2929,-0.16065,-0.021031,-0.047223,-0.10746,0.028466,0.055572,0.56687,0.38997,0.11628,0.2839,0.081031,-0.088212
-0.0085743,-0.0090914,0.011458,0.0028702,-0.018354,-0.65502,-2.1261,1.2281,-0.19447,0.29283,-0.36937,2.6553,-0.15713,-0.017122,-0.056275,-0.010272,0.045366,0.072684,0.57094,0.47483,0.12259,0.28379,0.07597,-0.022489
-0.010765,-0.0087825,0.015333,0.00056933,-0.012031,-0.66285,-2.2026,1.402,-0.1883,0.2755,-0.46207,2.8496,-0.14649,-0.015423,-0.057163,0.09422,0.051975,0.075189,0.54169,0.4314,0.13607,0.22613,0.099182,-0.020804
-0.013085,-0.014771,0.0176,-0.0026648,-0.014194,-0.63679,-2.2166,1.6246,-0.16962,0.21392,-0.49509,2.8466,-0.13293,-0.014406,-0.05131,0.18072,0.049432,0.063318,0.43899,0.34869,0.13678,0.13992,0.14186,-0.084959
-0.015925,-0.022516,0.01588,-0.0050327,-0.010477,-0.59497,-2.1485,1.854,-0.14054,0.11719,-0.49444,2.6796,-0.11966,-0.013564,-0.0405,0.22805,0.041784,0.04255,0.25326,0.27543,0.11337,0.068213,0.18694,-0.19192
-0.019889,-0.025698,0.010191,-0.0049681,-0.00062968,-0.55786,-2.0069,2.0393,-0.10704,-0.00018391,-0.49424,2.4374,-0.10836,-0.014379,-0.027321,0.22841,0.033139,0.020678,0.027181,0.18388,0.068374,0.033621,0.22096,-0.31123
-0.024267,-0.021433,0.0031307,-0.0024191,0.0046506,-0.53722,-1.8172,2.1423,-0.077341,-0.12076,-0.52042,2.2165,-0.10003,-0.018614,-0.015359,0.19085,0.025848,0.0043866,-0.15741,0.0030495,0.013838,0.023025,0.24219,-0.41955
-0.026541,-0.01241,-0.0019922,0.00093887,-0.0038089,-0.53148,-1.6058,2.1485,-0.059419,-0.22814,-0.584,2.0659,-0.095513,-0.025851,-0.0079598,0.13732,0.021071,-0.0021946,-0.22339,-0.31054,-0.038002,0.0046096,0.25802,-0.50382
-0.02405,-0.004257,-0.0035274,0.0029763,-0.023759,-0.53111,-1.3929,2.0645,-0.058382,-0.31297,-0.68472,1.9695,-0.095137,-0.033008,-0.0063854,0.093116,0.020342,0.0031215,-0.14588,-0.72358,-0.080988,-0.039266,0.27397,-0.55604
-0.016639,-0.00070359,-0.0024322,0.0028196,-0.04268,-0.52839,-1.1919,1.9093,-0.074749,-0.37694,-0.8163,1.8731,-0.097862,-0.03643,-0.0093414,0.07598,0.025811,0.021342,0.028767,-1.1354,-0.11412,-0.094066,0.2848,-0.5678
-0.0076908,-0.00089519,-0.0011645,0.0014176,-0.047944,-0.52291,-1.0097,1.7072,-0.10428,-0.4297,-0.96549,1.7309,-0.10132,-0.034618,-0.014709,0.088754,0.038468,0.051634,0.20673,-1.4354,-0.13632,-0.12615,0.27558,-0.52996
-0.0021065,-0.0010369,-0.0015908,0.0004063,-0.036287,-0.51953,-0.84076,1.483,-0.13958,-0.47847,-1.1059,1.5307,-0.10289,-0.029138,-0.021919,0.11896,0.056038,0.089674,0.29898,-1.5634,-0.14348,-0.11417,0.2325,-0.43753
-0.0026495,0.0014789,-0.0036433,0.00034685,-0.014617,-0.52363,-0.66419,1.2568,-0.1726,-0.51752,-1.1969,1.2846,-0.10079,-0.023133,-0.032412,0.14568,0.072822,0.12702,0.2681,-1.534,-0.13132,-0.069516,0.1543,-0.29652
-0.0078272,0.0054138,-0.0056519,3.7856e-005,0.0073048,-0.54002,-0.4513,1.0371,-0.19678,-0.5276,-1.1946,1.0042,-0.094163,-0.018952,-0.047347,0.15058,0.082076,0.15313,0.14002,-1.4167,-0.1016,-0.027236,0.055376,-0.12861
-0.013247,0.0068766,-0.0058696,-0.0023915,0.024891,-0.57543,-0.18428,0.81812,-0.20736,-0.48865,-1.0733,0.68888,-0.082303,-0.016771,-0.064542,0.12751,0.079441,0.15972,-0.022729,-1.2938,-0.065166,-0.015905,-0.041955,0.030526
-0.015221,0.0031332,-0.0039048,-0.0075794,0.040536,-0.63807,0.12631,0.58672,-0.20013,-0.39749,-0.84241,0.33816,-0.064292,-0.014838,-0.077831,0.085647,0.065389,0.14539,-0.16281,-1.227,-0.037914,-0.033759,-0.12008,0.14272
-0.013343,-0.0044874,-0.0010531,-0.013968,0.058671,-0.72954,0.44114,0.33842,-0.17003,-0.27602,-0.54675,-0.03072,-0.039822,-0.010691,-0.080062,0.044061,0.04573,0.11783,-0.2534,-1.2449,-0.031906,-0.051881,-0.17479,0.1863
-0.0098711,-0.011143,0.00053529,-0.018716,0.079404,-0.83483,0.71205,0.089623,-0.11193,-0.16089,-0.24855,-0.38208,-0.010589,-0.0024607,-0.067691,0.020912,0.030295,0.092052,-0.29327,-1.346,-0.048562,-0.040509,-0.21501,0.1722
-0.006904,-0.011938,-0.00086135,-0.019787,0.096599,-0.92247,0.90923,-0.12511,-0.024364,-0.080583,-0.001581,-0.68219,0.019302,0.010168,-0.043313,0.023603,0.030007,0.084691,-0.28468,-1.5076,-0.079235,0.0057107,-0.25515,0.14268
-0.0043387,-0.0054029,-0.0056373,-0.017523,0.10189,-0.96059,1.0351,-0.27148,0.085653,-0.037087,0.16771,-0.92161,0.044824,0.02554,-0.014057,0.045925,0.052495,0.10642,-0.21918,-1.6937,-0.11248,0.065382,-0.30602,0.1471
-0.00056055,0.0056292,-0.012746,-0.014447,0.091187,-0.93873,1.1152,-0.33672,0.20064,-0.006744,0.26412,-1.1181,0.062582,0.040462,0.01281,0.073616,0.09747,0.15592,-0.085391,-1.8662,-0.14186,0.11095,-0.36948,0.20731
0.0051672,0.01606,-0.020246,-0.013465,0.068351,-0.87673,1.1736,-0.3378,0.2967,0.039879,0.31405,-1.2982,0.07251,0.051577,0.033582,0.094095,0.15473,0.21907,0.11083,-1.995,-0.16813,0.13157,-0.4384,0.29816
0.011345,0.021692,-0.026115,-0.015838,0.043019,-0.81047,1.2144,-0.31147,0.35306,0.11477,0.34945,-1.475,0.077346,0.057006,0.048598,0.1035,0.20767,0.27516,0.33586,-2.0646,-0.19481,0.13728,-0.50024,0.36214
0.015405,0.021341,-0.029003,-0.020414,0.023763,-0.76496,1.2217,-0.29426,0.36192,0.20398,0.39291,-1.641,0.080351,0.05708,0.059915,0.10655,0.24179,0.30753,0.53981,-2.0684,-0.22171,0.14251,-0.54166,0.35116
0.016133,0.016865,-0.028698,-0.024565,0.011451,-0.73771,1.1777,-0.30693,0.33219,0.27948,0.44924,-1.7769,0.083122,0.053545,0.068765,0.11029,0.25315,0.31231,0.68125,-1.9961,-0.24246,0.14746,-0.55274,0.26452
0.014758,0.011521,-0.026167,-0.026058,-0.0019409,-0.70637,1.0819,-0.35109,0.28394,0.32041,0.50643,-1.8647,0.085112,0.04801,0.074946,0.11742,0.25011,0.29909,0.74444,-1.8289,-0.24798,0.13709,-0.52982,0.15107
0.013603,0.0078411,-0.023087,-0.024489,-0.027316,-0.65221,0.95618,-0.41478,0.23664,0.32634,0.54531,-1.8905,0.08489,0.041118,0.07803,0.12434,0.24594,0.28192,0.73687,-1.5505,-0.2329,0.09909,-0.47653,0.071569
0.013772,0.0062696,-0.021036,-0.021352,-0.069009,-0.57624,0.83267,-0.47963,0.19928,0.31326,0.55216,-1.8392,0.081616,0.033118,0.078525,0.12492,0.2473,0.267,0.67428,-1.1694,-0.19927,0.042173,-0.40252,0.050813
0.014329,0.0053486,-0.020777,-0.018839,-0.11918,-0.49327,0.73462,-0.52519,0.16895,0.29832,0.52602,-1.6915,0.07531,0.024907,0.077596,0.11609,0.24812,0.24673,0.57091,-0.73424,-0.15504,-0.0058735,-0.32053,0.059497
0.013733,0.0033551,-0.022097,-0.018373,-0.16123,-0.41122,0.6655,-0.53284,0.13793,0.28749,0.47547,-1.4301,0.065872,0.01805,0.075829,0.10022,0.23424,0.20591,0.44402,-0.32641,-0.1089,-0.02137,-0.243,0.042215
0.011922,0.00022216,-0.024284,-0.019896,-0.18042,-0.31843,0.6121,-0.49212,0.10268,0.2756,0.40849,-1.0531,0.052297,0.013423,0.072718,0.082725,0.19585,0.13588,0.32425,-0.030727,-0.065918,-0.0083477,-0.17955,-0.031202
0.010763,-0.001917,-0.026768,-0.022286,-0.17355,-0.19281,0.55652,-0.40735,0.066629,0.25628,0.32531,-0.5869,0.033359,0.0098914,0.067711,0.067332,0.13714,0.045095,0.25399,0.099422,-0.026946,0.0012886,-0.13544,-0.13437
0.012351,-0.0003635,-0.029419,-0.024344,-0.14969,-0.024872,0.48674,-0.2987,0.034768,0.2312,0.22153,-0.090985,0.0094563,0.0047361,0.061733,0.053611,0.075016,-0.043305,0.26676,0.064808,0.0088856,-0.02548,-0.11032,-0.20041
0.016832,0.0054344,-0.032349,-0.025511,-0.12152,0.16786,0.39912,-0.19441,0.005286,0.20996,0.098211,0.34813,-0.016172,-0.0040681,0.057294,0.03852,0.027447,-0.10611,0.36022,-0.077759,0.041466,-0.091108,-0.097718,-0.17329
0.021903,0.012505,-0.035557,-0.025843,-0.095128,0.34941,0.29522,-0.1186,-0.033376,0.20131,-0.032545,0.63746,-0.038501,-0.015678,0.056552,0.020048,0.0012043,-0.13557,0.486,-0.23255,0.069236,-0.15958,-0.086663,-0.052987
0.024511,0.015945,-0.038781,-0.02551,-0.067689,0.48945,0.17917,-0.083754,-0.096641,0.20327,-0.15413,0.71308,-0.053801,-0.026545,0.058886,-0.00080586,-0.01106,-0.14343,0.56927,-0.29522,0.090774,-0.18176,-0.066459,0.10138
0.02318,0.012555,-0.041556,-0.024462,-0.034892,0.58173,0.058923,-0.0924,-0.19348,0.20023,-0.25884,0.57872,-0.062713,-0.033205,0.060337,-0.021482,-0.022538,-0.15048,0.54774,-0.18901,0.10642,-0.13493,-0.032753,0.21218
0.018952,0.0035507,-0.043281,-0.022585,-0.00036685,0.64181,-0.051284,-0.14371,-0.32003,0.16925,-0.35387,0.32164,-0.07099,-0.035481,0.055727,-0.040928,-0.040459,-0.17065,0.40382,0.10455,0.11826,-0.044846,0.0094724,0.23477
0.014306,-0.0061261,-0.043281,-0.020129,0.022937,0.6893,-0.13251,-0.23607,-0.46193,0.091382,-0.45125,0.082128,-0.08709,-0.03725,0.041862,-0.060938,-0.060756,-0.2023,0.16894,0.53644,0.1285,0.02731,0.049252,0.18123
0.011168,-0.011511,-0.041121,-0.017844,0.022067,0.73245,-0.16787,-0.36211,-0.60264,-0.038469,-0.54988,-0.01802,-0.11772,-0.043783,0.019235,-0.084254,-0.07275,-0.23251,-0.099125,1.0128,0.1377,0.022315,0.077766,0.10244
0.0097251,-0.011289,-0.037163,-0.01658,-0.0036344,0.76778,-0.14991,-0.5029,-0.73051,-0.20775,-0.62795,0.054073,-0.16356,-0.057554,-0.0088768,-0.11128,-0.068522,-0.24871,-0.34587,1.4419,0.14413,-0.083762,0.095088,0.04736
0.0088034,-0.0083851,-0.032864,-0.016697,-0.03828,0.79161,-0.082663,-0.63145,-0.83981,-0.38995,-0.65635,0.22571,-0.21745,-0.075794,-0.038648,-0.13862,-0.048326,-0.24687,-0.53596,1.7783,0.14442,-0.27262,0.10975,0.032878
0.007192,-0.0071379,-0.030161,-0.017876,-0.057436,0.80935,0.022547,-0.72768,-0.92673,-0.55367,-0.62336,0.37398,-0.26617,-0.091828,-0.067016,-0.16078,-0.018207,-0.23045,-0.65128,2.0352,0.13501,-0.50267,0.13105,0.043693
0.0046729,-0.0096174,-0.030095,-0.019532,-0.042224,0.83302,0.15258,-0.79327,-0.98572,-0.67302,-0.54755,0.41475,-0.29551,-0.09931,-0.091198,-0.17348,0.016481,-0.20352,-0.68341,2.2595,0.11388,-0.73464,0.16024,0.055594
0.0020101,-0.014219,-0.031791,-0.021424,0.010952,0.87067,0.29395,-0.85085,-1.0097,-0.73483,-0.46537,0.35721,-0.29649,-0.096238,-0.10772,-0.17564,0.054812,-0.16626,-0.63384,2.4895,0.082329,-0.94389,0.18794,0.058637
0.00013516,-0.017461,-0.032982,-0.023784,0.090729,0.91916,0.4306,-0.92349,-0.99318,-0.73962,-0.40317,0.28251,-0.26919,-0.085877,-0.11297,-0.16886,0.098231,-0.11707,-0.52097,2.7312,0.046024,-1.1151,0.20003,0.061704
-0.00062309,-0.017143,-0.031928,-0.026786,0.17852,0.96722,0.5442,-1.009,-0.93541,-0.69659,-0.35941,0.26807,-0.2218,-0.074093,-0.10557,-0.15546,0.14589,-0.058041,-0.38129,2.9675,0.014184,-1.2302,0.18745,0.078704
-0.00061543,-0.014113,-0.029119,-0.029906,0.25694,1.0048,0.62082,-1.0718,-0.84029,-0.61665,-0.31403,0.32313,-0.16521,-0.065354,-0.088581,-0.13735,0.19277,0.003047,-0.25503,3.1834,-0.003628,-1.2653,0.15252,0.11176
-0.00032583,-0.01143,-0.026959,-0.031903,0.3147,1.0286,0.66049,-1.0635,-0.7152,-0.5089,-0.2563,0.38712,-0.10677,-0.060389,-0.068877,-0.11606,0.23246,0.05671,-0.16354,3.3776,-0.00202,-1.2007,0.10775,0.14668
0.00013159,-0.011987,-0.027448,-0.031571,0.34802,1.0403,0.67957,-0.95856,-0.57006,-0.38317,-0.20372,0.38494,-0.04753,-0.05693,-0.05339,-0.093137,0.26105,0.097614,-0.097315,3.5432,0.01727,-1.0388,0.068636,0.16351
0.00088651,-0.016637,-0.02989,-0.02864,0.36025,1.0396,0.70028,-0.77717,-0.41704,-0.25613,-0.19214,0.28499,0.015113,-0.052379,-0.044782,-0.069794,0.27772,0.12613,-0.027091,3.6392,0.046476,-0.81261,0.046027,0.15222
0.0016798,-0.023957,-0.030984,-0.024027,0.35986,1.0227,0.73334,-0.57689,-0.26923,-0.15441,-0.2438,0.11032,0.082123,-0.045943,-0.040193,-0.046349,0.28139,0.14405,0.069888,3.5852,0.076791,-0.57783,0.042389,0.1204
0.0015107,-0.031287,-0.0276,-0.019261,0.35575,0.98605,0.76834,-0.41788,-0.13723,-0.10939,-0.34158,-0.098496,0.14945,-0.038642,-0.034355,-0.022762,0.2677,0.14929,0.191,3.3,0.10381,-0.38841,0.05316,0.087167
-0.00078285,-0.036015,-0.019891,-0.015636,0.35159,0.9318,0.78182,-0.32934,-0.025448,-0.14453,-0.43356,-0.32645,0.20942,-0.031709,-0.024597,-0.00044053,0.23075,0.13568,0.31272,2.7618,0.12922,-0.26999,0.070949,0.068379
-0.005305,-0.036552,-0.011754,-0.013755,0.34297,0.86569,0.75801,-0.30159,0.068668,-0.26296,-0.46577,-0.59155,0.25538,-0.025266,-0.013404,0.016494,0.16883,0.098726,0.41254,2.0433,0.15711,-0.20768,0.089573,0.064039
-0.010412,-0.033017,-0.007884,-0.013589,0.32101,0.78924,0.70498,-0.30617,0.1511,-0.44417,-0.41702,-0.91518,0.28553,-0.018549,-0.0062179,0.022616,0.08871,0.041738,0.48632,1.2878,0.18789,-0.15756,0.10595,0.057504
-0.013483,-0.027526,-0.0098245,-0.014692,0.28092,0.69369,0.65183,-0.32362,0.22612,-0.65284,-0.30816,-1.2905,0.30292,-0.011227,-0.0063501,0.015188,0.0035023,-0.02404,0.54476,0.6403,0.21497,-0.076502,0.11962,0.027611
-0.012784,-0.023517,-0.014541,-0.016312,0.22922,0.56424,0.62885,-0.35532,0.2938,-0.85398,-0.18074,-1.6812,0.31198,-0.0041804,-0.011577,-0.0022652,-0.074834,-0.086126,0.59462,0.17842,0.22773,0.0482,0.13102,-0.034274
-0.0088566,-0.023834,-0.016937,-0.017485,0.18359,0.39392,0.64763,-0.41292,0.35209,-1.0235,-0.064812,-2.0485,0.31513,0.0012831,-0.015617,-0.02032,-0.14197,-0.13839,0.62579,-0.10589,0.2191,0.18956,0.14019,-0.11471
-0.0041361,-0.028479,-0.014164,-0.017385,0.16452,0.19623,0.69795,-0.49919,0.40073,-1.1481,0.037794,-2.3735,0.31197,0.00504,-0.013326,-0.028617,-0.20075,-0.18274,0.61891,-0.26901,0.1919,0.29927,0.14681,-0.18421
-0.0010476,-0.033924,-0.0079479,-0.015818,0.18441,0.0045283,0.76254,-0.59984,0.44252,-1.2173,0.144,-2.6502,0.3012,0.0087793,-0.0050644,-0.022098,-0.25455,-0.22377,0.56581,-0.35698,0.15834,0.34173,0.15134,-0.21592
-0.00028143,-0.035165,-0.0029317,-0.013436,0.24169,-0.14416,0.83468,-0.69327,0.48019,-1.2179,0.26588,-2.8559,0.28305,0.014653,0.0036297,-0.0037835,-0.30109,-0.26225,0.48008,-0.37315,0.13235,0.31974,0.15558,-0.20353
-0.00076073,-0.029482,-0.0026029,-0.01138,0.32359,-0.23068,0.92108,-0.76739,0.51197,-1.1399,0.3947,-2.9357,0.26006,0.022966,0.0067697,0.01808,-0.33325,-0.29421,0.38384,-0.29213,0.12015,0.27293,0.16122,-0.16449
-0.0011787,-0.018991,-0.0064647,-0.010609,0.41494,-0.26568,1.0275,-0.8273,0.53071,-0.98864,0.50483,-2.8242,0.23607,0.031124,0.0028854,0.036126,-0.34638,-0.31674,0.28225,-0.10171,0.11629,0.25004,0.16695,-0.1255
-0.0014791,-0.0096119,-0.010794,-0.011454,0.50583,-0.28354,1.1408,-0.88709,0.52849,-0.79459,0.57178,-2.492,0.2144,0.035133,-0.00404,0.048257,-0.345,-0.33415,0.15271,0.1646,0.1085,0.27513,0.16694,-0.10179
-0.0027905,-0.0069057,-0.012031,-0.013628,0.59236,-0.3227,1.2262,-0.95413,0.50327,-0.60606,0.58784,-1.9798,0.1968,0.032636,-0.0082733,0.056944,-0.34174,-0.35703,-0.035247,0.42845,0.087619,0.33245,0.15322,-0.087964
-0.0059363,-0.011987,-0.0096214,-0.016451,0.67032,-0.40519,1.2445,-1.02,0.46216,-0.46677,0.5637,-1.3873,0.18344,0.02491,-0.0072616,0.064465,-0.34819,-0.39331,-0.28355,0.59755,0.054822,0.37965,0.12168,-0.068316
-0.010109,-0.020823,-0.0059537,-0.01894,0.72792,-0.52715,1.1771,-1.0648,0.41852,-0.3917,0.51745,-0.8229,0.17362,0.016063,-0.0035271,0.06857,-0.36518,-0.43831,-0.54664,0.60471,0.020748,0.37833,0.077444,-0.037805
-0.01316,-0.027443,-0.0038148,-0.019921,0.74532,-0.66361,1.0394,-1.0702,0.38522,-0.35956,0.46173,-0.35281,0.16666,0.010054,-0.0021454,0.062636,-0.38103,-0.47363,-0.75266,0.43477,-0.0025472,0.31852,0.034227,-0.0142
-0.013364,-0.028339,-0.0039211,-0.018502,0.70422,-0.78232,0.87151,-1.0291,0.36909,-0.32866,0.39845,0.017079,0.16212,0.0080324,-0.0062966,0.040437,-0.37965,-0.47749,-0.85255,0.13264,-0.010116,0.22111,0.0066335,-0.028752
-0.011043,-0.024486,-0.0046308,-0.014885,0.60211,-0.85791,0.71431,-0.9463,0.3699,-0.26596,0.32195,0.32077,0.15947,0.0080924,-0.014812,0.001551,-0.35225,-0.43953,-0.85762,-0.20587,-0.0065687,0.11961,0.00012691,-0.10122
-0.0084992,-0.019651,-0.0037308,-0.010706,0.45987,-0.88009,0.58921,-0.83241,0.38312,-0.16815,0.22516,0.59888,0.15726,0.007391,-0.023581,-0.047297,-0.3032,-0.36826,-0.83255,-0.45816,-0.0012571,0.037187,0.0067681,-0.21958
-0.0082077,-0.016854,-0.00041884,-0.0081544,0.31478,-0.85461,0.49394,-0.69748,0.40334,-0.060772,0.10385,0.87998,0.1528,0.0046124,-0.029168,-0.096288,-0.24591,-0.28522,-0.84754,-0.51443,-0.00084792,-0.024887,0.011135,-0.34221
-0.010813,-0.016201,0.0042062,-0.0082253,0.201,-0.79868,0.41453,-0.54977,0.42561,0.021899,-0.041473,1.1807,0.14321,0.00068942,-0.031214,-0.13871,-0.19309,-0.21065,-0.92757,-0.32693,-0.0054454,-0.082662,0.0026844,-0.42212
-0.014619,-0.01572,0.0082102,-0.009686,0.13049,-0.73418,0.34118,-0.39844,0.44487,0.059474,-0.20356,1.5062,0.12755,-0.0025679,-0.031651,-0.17412,-0.14964,-0.15212,-1.0391,0.051286,-0.010699,-0.15546,-0.015245,-0.43527
-0.016973,-0.013979,0.010198,-0.010076,0.088195,-0.68132,0.27567,-0.25685,0.45534,0.054872,-0.36597,1.8373,0.10853,-0.0044146,-0.031875,-0.20594,-0.11339,-0.10454,-1.1218,0.46708,-0.013094,-0.2527,-0.027753,-0.39183
-0.016326,-0.011751,0.0098478,-0.0081942,0.04543,-0.65425,0.2274,-0.14372,0.45132,0.02762,-0.50344,2.1151,0.091809,-0.0057993,-0.030946,-0.23555,-0.08131,-0.059652,-1.1352,0.72462,-0.013464,-0.36738,-0.020925,-0.32404
-0.01324,-0.011146,0.0075458,-0.005726,-0.018381,-0.65897,0.20337,-0.08071,0.42923,0.00048332,-0.5885,2.2503,0.082829,-0.008163,-0.026717,-0.25823,-0.05425,-0.015539,-1.0808,0.6817,-0.016119,-0.47654,0.0053849,-0.26258
-0.0096297,-0.013173,0.003869,-0.0060061,-0.10145,-0.69298,0.20062,-0.085731,0.38939,-0.0095566,-0.60301,2.1718,0.083273,-0.011658,-0.018788,-0.26439,-0.035935,0.021853,-0.98673,0.33223,-0.025167,-0.54755,0.03541,-0.22017
-0.0070627,-0.016255,-0.00047973,-0.010595,-0.1825,-0.74614,0.20514,-0.1625,0.33601,0.0070073,-0.54792,1.8855,0.090216,-0.014578,-0.01021,-0.24538,-0.027812,0.045316,-0.87492,-0.18213,-0.041682,-0.54975,0.048304,-0.19262
-0.0057142,-0.017326,-0.0044371,-0.01685,-0.23692,-0.80319,0.19676,-0.29078,0.27524,0.053003,-0.44392,1.494,0.098907,-0.01463,-0.0059184,-0.19932,-0.025705,0.05376,-0.7455,-0.6489,-0.06385,-0.46954,0.033453,-0.17152
-0.0048422,-0.014646,-0.00664,-0.019331,-0.25321,-0.84826,0.15686,-0.426,0.21239,0.12312,-0.32122,1.1467,0.10689,-0.010955,-0.0089692,-0.13298,-0.022123,0.053408,-0.59141,-0.90634,-0.089077,-0.32195,-0.0021473,-0.15507
-0.0041562,-0.0097256,-0.0060977,-0.014457,-0.23813,-0.87076,0.075955,-0.51466,0.14991,0.20176,-0.20462,0.94731,0.11575,-0.0050681,-0.017866,-0.05923,-0.012246,0.052371,-0.42395,-0.9297,-0.11544,-0.14956,-0.040153,-0.14842
-0.0045455,-0.0064033,-0.0030886,-0.004384,-0.20889,-0.8696,-0.04199,-0.52115,0.08751,0.26566,-0.1033,0.889,0.12869,0.00012807,-0.027433,0.0074086,0.0021601,0.05437,-0.27869,-0.82374,-0.14118,-0.0051234,-0.065089,-0.15633
-0.007255,-0.0076632,0.00054958,0.0038436,-0.18087,-0.85262,-0.18075,-0.44939,0.024053,0.29373,-0.011304,0.8698,0.14606,0.0023743,-0.032537,0.054295,0.014653,0.057365,-0.19142,-0.73205,-0.16334,0.074299,-0.074545,-0.17741
-0.012224,-0.012936,0.0023125,0.0038182,-0.1606,-0.83076,-0.31932,-0.34094,-0.040154,0.27839,0.083112,0.77845,0.16301,0.0013606,-0.031506,0.072999,0.019886,0.057432,-0.16486,-0.73548,-0.17773,0.084865,-0.077514,-0.20602
-0.017359,-0.018373,0.00080234,-0.0045721,-0.14824,-0.81077,-0.44213,-0.24643,-0.1023,0.22983,0.18691,0.5809,0.17174,-0.0016986,-0.026467,0.061398,0.017536,0.053155,-0.15935,-0.81644,-0.18097,0.052639,-0.083556,-0.2386
-0.019838,-0.02003,-0.0028449,-0.01454,-0.14469,-0.79227,-0.54569,-0.18833,-0.15787,0.16885,0.29769,0.33744,0.16703,-0.0055752,-0.020735,0.025475,0.010766,0.046047,-0.12013,-0.90772,-0.17296,0.011703,-0.092903,-0.27702
-0.018533,-0.01726,-0.0052506,-0.017833,-0.15526,-0.77133,-0.63663,-0.14317,-0.20245,0.11325,0.40684,0.14037,0.1504,-0.010031,-0.015872,-0.02142,0.0013796,0.037378,-0.020071,-0.97259,-0.1574,-0.019567,-0.095816,-0.32477
-0.015289,-0.013279,-0.0031122,-0.011713,-0.18546,-0.74712,-0.72213,-0.058785,-0.23327,0.067673,0.5062,0.02997,0.12936,-0.015366,-0.010934,-0.063657,-0.012584,0.025847,0.11849,-1.0399,-0.13983,-0.046227,-0.080853,-0.37967
-0.013533,-0.012279,0.003887,-0.0013648,-0.23253,-0.72501,-0.79996,0.10474,-0.24942,0.023865,0.59238,-0.037687,0.11197,-0.021147,-0.00406,-0.091062,-0.033497,0.0095095,0.24194,-1.1622,-0.12452,-0.084218,-0.044294,-0.43083
-0.015179,-0.015572,0.012001,0.0045538,-0.28121,-0.71248,-0.8558,0.34059,-0.25123,-0.030111,0.66609,-0.14594,0.10087,-0.025693,0.0055882,-0.10401,-0.058042,-0.0096358,0.30748,-1.338,-0.11273,-0.14002,0.0069299,-0.46337
-0.018673,-0.020207,0.015578,0.0013771,-0.31002,-0.71185,-0.87012,0.59316,-0.2394,-0.099063,0.72834,-0.33801,0.091486,-0.027203,0.01743,-0.1114,-0.075162,-0.023679,0.31338,-1.4743,-0.10342,-0.2004,0.060064,-0.46709
-0.02026,-0.021437,0.011247,-0.0076445,-0.30515,-0.71759,-0.82908,0.78878,-0.21468,-0.17573,0.77769,-0.57331,0.076099,-0.025711,0.030497,-0.12256,-0.071897,-0.022849,0.29337,-1.4336,-0.095121,-0.24013,0.10411,-0.44133
-0.017566,-0.016963,0.00085105,-0.014366,-0.27156,-0.72257,-0.73145,0.87498,-0.17842,-0.24405,0.81108,-0.75671,0.050992,-0.023957,0.044226,-0.13959,-0.04342,-0.0031005,0.28402,-1.1332,-0.087278,-0.24013,0.13423,-0.3925
-0.012168,-0.0092518,-0.0095395,-0.012902,-0.23098,-0.72896,-0.5873,0.83981,-0.13414,-0.28779,0.82728,-0.81537,0.021249,-0.025968,0.057885,-0.15642,0.0013854,0.029405,0.29624,-0.61934,-0.080197,-0.20042,0.15097,-0.32809
-0.0084598,-0.0038307,-0.014037,-0.0044915,-0.20648,-0.75363,-0.41132,0.70092,-0.089049,-0.29937,0.82973,-0.75988,-0.00082482,-0.034093,0.069408,-0.16474,0.044669,0.061524,0.31558,-0.054948,-0.074602,-0.13898,0.15681,-0.2547
-0.0095842,-0.0049209,-0.011233,0.0040453,-0.20521,-0.82088,-0.21713,0.47976,-0.054256,-0.28438,0.82612,-0.68224,-0.0033055,-0.046827,0.075432,-0.16048,0.071891,0.082047,0.32766,0.3719,-0.071974,-0.079916,0.15317,-0.18253
-0.014224,-0.012082,-0.0048,0.0065086,-0.21376,-0.94529,-0.01629,0.18591,-0.041618,-0.25917,0.82522,-0.69472,0.016685,-0.059389,0.073115,-0.14485,0.081842,0.089071,0.34149,0.55073,-0.075481,-0.04191,0.1396,-0.13052
-0.01754,-0.020606,-1.7134e-006,0.0023599,-0.21104,-1.1165,0.17905,-0.17459,-0.057897,-0.24173,0.83342,-0.8575,0.049574,-0.06698,0.062203,-0.11959,0.085947,0.089783,0.38608,0.49247,-0.089878,-0.03429,0.11414,-0.12315
-0.015725,-0.025205,0.0007134,-0.0037118,-0.18855,-1.2974,0.35431,-0.5763,-0.099517,-0.23987,0.85331,-1.1459,0.078249,-0.068428,0.045101,-0.08289,0.09725,0.093136,0.48053,0.29453,-0.11906,-0.059154,0.07454,-0.17625
-0.010003,-0.023869,-0.00079831,-0.0067022,-0.16075,-1.439,0.49358,-0.95998,-0.15246,-0.24386,0.88417,-1.4729,0.088407,-0.067386,0.024622,-0.03172,0.11838,0.10192,0.60283,0.066859,-0.16209,-0.11299,0.020003,-0.28061
-0.0060941,-0.018883,-0.0008239,-0.0056849,-0.15617,-1.5021,0.58283,-1.2443,-0.19883,-0.22995,0.92231,-1.7437,0.077205,-0.069917,0.0015354,0.030906,0.13881,0.11089,0.68637,-0.1219,-0.21058,-0.18464,-0.046329,-0.39752
-0.0092537,-0.014501,0.0023521,-0.0036859,-0.19643,-1.4731,0.61295,-1.3609,-0.22619,-0.17487,0.96015,-1.9003,0.053983,-0.079972,-0.025387,0.091288,0.1439,0.11201,0.65282,-0.24759,-0.25003,-0.25316,-0.11563,-0.47359
-0.019209,-0.013444,0.0067654,-0.003736,-0.28011,-1.365,0.58243,-1.2903,-0.23287,-0.072352,0.98539,-1.9349,0.032712,-0.096011,-0.056572,0.12976,0.1281,0.10201,0.46235,-0.29972,-0.26537,-0.29154,-0.17419,-0.46745
-0.029662,-0.014973,0.0086129,-0.0054585,-0.38421,-1.2036,0.50062,-1.0764,-0.22525,0.060977,0.98346,-1.8721,0.022097,-0.11141,-0.088788,0.13316,0.10111,0.08559,0.14841,-0.25749,-0.24765,-0.27733,-0.20743,-0.37084
-0.033059,-0.01576,0.0057329,-0.0056829,-0.48057,-1.0114,0.39097,-0.80675,-0.20993,0.19646,0.9439,-1.7432,0.020905,-0.11858,-0.1154,0.10563,0.081669,0.072179,-0.18744,-0.099406,-0.19796,-0.20423,-0.20549,-0.21011
-0.026596,-0.012562,-0.00045628,-0.0023029,-0.55365,-0.79974,0.28995,-0.57347,-0.18809,0.31329,0.86699,-1.567,0.021573,-0.11385,-0.13021,0.068742,0.083951,0.069148,-0.42032,0.16274,-0.12641,-0.086538,-0.16741,-0.028968
-0.014346,-0.0046112,-0.0061839,0.0027155,-0.60702,-0.57319,0.23742,-0.43489,-0.15733,0.41105,0.76495,-1.3435,0.018242,-0.099463,-0.13179,0.049812,0.10733,0.077074,-0.46275,0.45978,-0.047519,0.046494,-0.10194,0.13351
-0.0037828,0.005807,-0.0085348,0.0044103,-0.65688,-0.3406,0.25996,-0.40005,-0.11885,0.50386,0.65536,-1.0584,0.01189,-0.081142,-0.12449,0.066478,0.13718,0.090087,-0.30756,0.6796,0.024939,0.16271,-0.0252,0.25443
0.00014064,0.014722,-0.0078658,-0.0008309,-0.71998,-0.12134,0.35624,-0.43878,-0.082313,0.60137,0.55116,-0.69817,0.0082424,-0.063233,-0.11514,0.11745,0.15522,0.10006,-0.02978,0.71801,0.081089,0.23822,0.043676,0.32469
-0.0016321,0.01874,-0.0074463,-0.011675,-0.80432,0.060385,0.49602,-0.50616,-0.062891,0.69511,0.45533,-0.27156,0.010785,-0.045535,-0.10792,0.18413,0.15071,0.10084,0.253,0.53357,0.11586,0.26323,0.087843,0.34165
-0.0039669,0.016845,-0.01068,-0.022358,-0.90559,0.1897,0.63638,-0.56441,-0.07207,0.76427,0.36419,0.16966,0.015739,-0.024438,-0.10171,0.2402,0.12459,0.089779,0.43903,0.16806,0.12907,0.24288,0.098299,0.30745
-0.0023619,0.010835,-0.018201,-0.026946,-1.0083,0.27232,0.74594,-0.59275,-0.11016,0.79666,0.27559,0.53103,0.014067,0.0027183,-0.091695,0.26294,0.085208,0.066855,0.48726,-0.28204,0.12535,0.19487,0.077828,0.23443
0.0034603,0.0042858,-0.027208,-0.023718,-1.0915,0.33225,0.82083,-0.58712,-0.16723,0.80425,0.1932,0.70901,-0.0008824,0.033973,-0.073573,0.2414,0.041281,0.033516,0.42583,-0.72228,0.1132,0.14476,0.040299,0.14839
0.0099904,0.00069045,-0.033578,-0.016149,-1.1388,0.39558,0.88095,-0.55682,-0.23163,0.81588,0.12224,0.64879,-0.026857,0.062998,-0.046989,0.17963,-0.0015762,-0.0070052,0.32402,-1.1039,0.10183,0.11795,0.0036305,0.080783
0.013442,0.0017594,-0.03506,-0.010018,-1.1514,0.4713,0.94957,-0.52122,-0.29859,0.85095,0.060964,0.39225,-0.053522,0.082892,-0.015791,0.094768,-0.039274,-0.048585,0.24882,-1.425,0.096485,0.12927,-0.020849,0.051693
0.012908,0.0067423,-0.032947,-0.0092591,-1.1546,0.5437,1.0311,-0.50315,-0.37138,0.89763,-0.0023312,0.077985,-0.070522,0.090053,0.014458,0.0099184,-0.066412,-0.082426,0.23263,-1.6933,0.095364,0.17458,-0.03561,0.056922
0.010551,0.013045,-0.030863,-0.013767,-1.1884,0.58308,1.1033,-0.51537,-0.45422,0.91726,-0.081867,-0.11798,-0.076239,0.084987,0.039492,-0.056084,-0.076685,-0.099932,0.26776,-1.8884,0.090919,0.23041,-0.054293,0.071805
0.00922,0.017747,-0.031729,-0.020345,-1.2824,0.56791,1.1279,-0.54512,-0.54403,0.87371,-0.18181,-0.071034,-0.079822,0.070186,0.057826,-0.09714,-0.066958,-0.097181,0.32335,-1.9579,0.075646,0.26344,-0.089599,0.070965
0.010039,0.019209,-0.035519,-0.025439,-1.4272,0.50267,1.0743,-0.54975,-0.62884,0.76279,-0.29024,0.22762,-0.094699,0.047859,0.070192,-0.12071,-0.041071,-0.0779,0.3685,-1.8554,0.048433,0.24569,-0.14009,0.048996
0.012106,0.017915,-0.039695,-0.027329,-1.5662,0.41764,0.93797,-0.47319,-0.69496,0.61559,-0.38633,0.67242,-0.129,0.019743,0.077901,-0.13931,-0.0091644,-0.052251,0.38611,-1.5892,0.016687,0.16663,-0.18661,0.025231
0.014055,0.016102,-0.041814,-0.026471,-1.6184,0.35017,0.74574,-0.27792,-0.73696,0.47275,-0.45542,1.1089,-0.18056,-0.011753,0.081516,-0.15841,0.017633,-0.031487,0.37297,-1.2371,-0.0074965,0.03633,-0.20244,0.028877
0.015518,0.016282,-0.041818,-0.024403,-1.5233,0.32054,0.54306,0.028611,-0.76145,0.35281,-0.4995,1.419,-0.23992,-0.043682,0.080771,-0.17032,0.033081,-0.021766,0.33229,-0.90862,-0.014301,-0.12005,-0.17076,0.077404
0.017006,0.019453,-0.041857,-0.022479,-1.2794,0.32042,0.37172,0.39417,-0.78068,0.24285,-0.53417,1.5719,-0.29724,-0.074986,0.075653,-0.15993,0.037646,-0.021468,0.2666,-0.67807,-0.0012816,-0.27042,-0.096764,0.16602
0.018684,0.024146,-0.043861,-0.021321,-0.94892,0.32247,0.25021,0.75144,-0.80007,0.11916,-0.57572,1.6116,-0.34677,-0.10894,0.067655,-0.11859,0.035269,-0.024109,0.17477,-0.53523,0.026519,-0.3819,-0.0055186,0.27505
0.019756,0.027172,-0.04725,-0.020938,-0.62372,0.30373,0.16749,1.0561,-0.80973,-0.021435,-0.62959,1.5989,-0.38522,-0.1522,0.059964,-0.054885,0.028274,-0.024799,0.05233,-0.39057,0.060431,-0.42509,0.072421,0.3855
0.019389,0.025816,-0.049137,-0.02101,-0.37469,0.26459,0.093815,1.3038,-0.78722,-0.14794,-0.68915,1.5564,-0.40743,-0.20974,0.055991,0.0070879,0.014902,-0.025201,-0.10657,-0.13239,0.092401,-0.38068,0.117,0.48647
0.018152,0.020082,-0.047021,-0.021092,-0.21872,0.22855,0.0014153,1.5132,-0.71099,-0.21146,-0.74322,1.455,-0.40532,-0.27928,0.057052,0.041476,-0.008629,-0.032844,-0.30455,0.30056,0.11679,-0.25009,0.12551,0.5684
0.018117,0.013177,-0.041577,-0.020835,-0.12448,0.22334,-0.11835,1.6903,-0.57548,-0.17803,-0.78378,1.251,-0.37248,-0.35019,0.061029,0.036511,-0.043468,-0.054864,-0.53316,0.87412,0.1298,-0.064402,0.10782,0.61227
0.021051,0.0095765,-0.036853,-0.020297,-0.04854,0.25897,-0.25289,1.8071,-0.39745,-0.051798,-0.80723,0.93693,-0.31086,-0.40836,0.063433,0.00081713,-0.084892,-0.09089,-0.76569,1.4643,0.1286,0.11821,0.076278,0.59135
0.026325,0.011853,-0.03738,-0.020098,0.028227,0.31984,-0.38176,1.8177,-0.20884,0.12788,-0.81089,0.56512,-0.23291,-0.44392,0.0604,-0.043586,-0.12337,-0.13092,-0.95826,1.9077,0.112,0.23209,0.03898,0.49006
0.030856,0.018627,-0.044435,-0.021064,0.09193,0.3765,-0.49412,1.7005,-0.040824,0.31023,-0.79153,0.22154,-0.15596,-0.45579,0.051352,-0.075316,-0.14958,-0.16052,-1.0642,2.0728,0.082113,0.23376,2.2927e-005,0.32519
0.031587,0.025318,-0.054527,-0.023487,0.11835,0.40618,-0.59574,1.4912,0.090423,0.45792,-0.74925,-0.028877,-0.092565,-0.45011,0.039039,-0.084192,-0.15993,-0.17009,-1.0564,1.9211,0.045145,0.12504,-0.036462,0.14707
0.02839,0.027228,-0.061493,-0.026672,0.10456,0.40603,-0.69982,1.2731,0.18738,0.55628,-0.69301,-0.18231,-0.044303,-0.4343,0.026855,-0.072166,-0.15871,-0.16128,-0.94238,1.5294,0.0096123,-0.045781,-0.06425,0.012703
0.024514,0.022684,-0.060739,-0.029309,0.080474,0.3902,-0.81019,1.1272,0.26339,0.6058,-0.64045,-0.28945,-0.0038169,-0.41176,0.015779,-0.046773,-0.15484,-0.1454,-0.75779,1.0579,-0.017374,-0.20651,-0.077457,-0.051853
0.023847,0.013969,-0.052492,-0.030487,0.089769,0.37622,-0.91235,1.0787,0.33038,0.60998,-0.60941,-0.4087,0.036893,-0.38102,0.0038332,-0.014332,-0.15532,-0.13459,-0.54013,0.66903,-0.033506,-0.2942,-0.075039,-0.068955
0.027298,0.0055361,-0.0417,-0.030387,0.15605,0.37303,-0.98138,1.0836,0.39132,0.57113,-0.60678,-0.55768,0.07898,-0.33916,-0.011247,0.021575,-0.1599,-0.13209,-0.30247,0.43737,-0.041924,-0.27999,-0.062983,-0.089123
0.031682,0.0010117,-0.034691,-0.029931,0.26302,0.37892,-1.0012,1.0662,0.44161,0.4957,-0.62376,-0.70142,0.11599,-0.28596,-0.028414,0.056814,-0.16119,-0.12951,-0.031312,0.30446,-0.048559,-0.17437,-0.052215,-0.14649
0.032264,0.001135,-0.03503,-0.029669,0.365,0.38754,-0.97929,0.97763,0.47613,0.4005,-0.6418,-0.7839,0.13971,-0.22515,-0.042184,0.083598,-0.15034,-0.11381,0.28478,0.11671,-0.057948,-0.015037,-0.053928,-0.22596
0.026803,0.003727,-0.041447,-0.029061,0.41889,0.394,-0.94384,0.82778,0.49489,0.31024,-0.64417,-0.77408,0.14697,-0.16217,-0.045469,0.09186,-0.12456,-0.079071,0.61736,-0.26943,-0.070539,0.15216,-0.075589,-0.27117
0.017534,0.005281,-0.049117,-0.026993,0.4117,0.39577,-0.92574,0.66744,0.50284,0.24585,-0.6234,-0.6885,0.14137,-0.1005,-0.034498,0.074605,-0.090651,-0.033967,0.88629,-0.88049,-0.08345,0.28934,-0.11926,-0.22972
0.009439,0.0029586,-0.053145,-0.023103,0.36381,0.38987,-0.93867,0.54044,0.50514,0.21275,-0.57887,-0.57571,0.12882,-0.039671,-0.011994,0.032711,-0.06195,0.0016847,0.99287,-1.5906,-0.093973,0.37586,-0.18153,-0.10018
0.006422,-0.0040199,-0.051674,-0.018528,0.30898,0.37164,-0.97284,0.44956,0.50314,0.19898,-0.50812,-0.48082,0.11141,0.023734,0.014001,-0.02508,-0.050571,0.009349,0.88102,-2.1834,-0.10266,0.41135,-0.25352,0.0584
0.0086662,-0.014013,-0.046532,-0.015173,0.27019,0.33733,-1.006,0.36415,0.4945,0.18506,-0.4019,-0.42141,0.085585,0.09308,0.034954,-0.08699,-0.060348,-0.015832,0.58234,-2.4695,-0.11281,0.41322,-0.32117,0.16503
0.013085,-0.023681,-0.041312,-0.014096,0.25028,0.28779,-1.0214,0.25789,0.47664,0.1575,-0.24959,-0.39124,0.046316,0.16891,0.046771,-0.1437,-0.085103,-0.061932,0.20883,-2.3786,-0.12611,0.40886,-0.36727,0.17559
0.015989,-0.029608,-0.038604,-0.014608,0.24096,0.22901,-1.0188,0.13935,0.44938,0.11564,-0.051763,-0.3812,-0.0064154,0.24802,0.051269,-0.19017,-0.11276,-0.10834,-0.10513,-1.9731,-0.13786,0.42368,-0.37647,0.11685
0.015485,-0.030218,-0.038479,-0.015067,0.23791,0.16853,-1.011,0.04687,0.41459,0.068158,0.17149,-0.39442,-0.064906,0.32458,0.053355,-0.22306,-0.13185,-0.13836,-0.27097,-1.387,-0.13682,0.46924,-0.34188,0.069326
0.011944,-0.026884,-0.039053,-0.014583,0.24749,0.11143,-1.0111,0.014512,0.37396,0.024475,0.3858,-0.4427,-0.11763,0.39234,0.056328,-0.23721,-0.13606,-0.1468,-0.27722,-0.74739,-0.11139,0.53685,-0.26978,0.11187
0.0068913,-0.023231,-0.038248,-0.013865,0.28045,0.059759,-1.0232,0.041699,0.32822,-0.011179,0.55985,-0.53132,-0.15674,0.44696,0.059009,-0.2254,-0.1248,-0.13818,-0.16742,-0.13468,-0.058817,0.59989,-0.17873,0.26943
0.001802,-0.022759,-0.035156,-0.014282,0.34035,0.014923,-1.0414,0.094213,0.27896,-0.039634,0.68235,-0.6485,-0.18308,0.48766,0.056677,-0.18233,-0.10112,-0.11936,0.0094216,0.4073,0.0097952,0.62424,-0.092821,0.5009
-0.0022584,-0.026308,-0.030126,-0.016092,0.41785,-0.020989,-1.0579,0.13414,0.23089,-0.063348,0.76513,-0.76821,-0.20453,0.51763,0.044712,-0.11011,-0.069377,-0.093847,0.23188,0.84236,0.07354,0.58258,-0.032241,0.73141
-0.0044905,-0.03135,-0.024057,-0.017801,0.49494,-0.047848,-1.0681,0.15068,0.19114,-0.084018,0.8296,-0.86092,-0.22951,0.54257,0.021897,-0.020901,-0.03439,-0.062304,0.49812,1.1341,0.11309,0.46679,-0.0062482,0.89979
-0.0045001,-0.0339,-0.017891,-0.017489,0.55475,-0.071641,-1.072,0.16497,0.16523,-0.10222,0.88729,-0.902,-0.26108,0.56775,-0.0089668,0.065659,-0.0014491,-0.026835,0.79155,1.2668,0.12164,0.29302,-0.011938,0.98418
-0.0027946,-0.031706,-0.012719,-0.01489,0.58885,-0.10432,-1.0685,0.20726,0.15283,-0.11691,0.9302,-0.87437,-0.29631,0.59486,-0.043014,0.12917,0.023995,0.0062759,1.0585,1.2664,0.10739,0.095975,-0.038496,0.99177
-0.00087865,-0.026222,-0.0099016,-0.012048,0.59791,-0.15665,-1.0531,0.28847,0.14756,-0.12365,0.93872,-0.77069,-0.33047,0.62101,-0.075784,0.15627,0.037568,0.028665,1.2245,1.1898,0.085924,-0.085907,-0.073522,0.93003
-0.00037541,-0.021658,-0.010486,-0.011642,0.58732,-0.22862,-1.0199,0.39049,0.14164,-0.11399,0.90002,-0.6,-0.36156,0.64118,-0.10438,0.14631,0.037554,0.034988,1.24,1.0825,0.068425,-0.22741,-0.10757,0.79054
-0.0016966,-0.021743,-0.014109,-0.014413,0.56221,-0.30605,-0.96664,0.48037,0.13182,-0.079568,0.82094,-0.39538,-0.39089,0.65307,-0.12713,0.11232,0.02589,0.02655,1.1178,0.9394,0.054826,-0.32542,-0.13523,0.5609
-0.003545,-0.026712,-0.018527,-0.018128,0.525,-0.36818,-0.89737,0.53269,0.12146,-0.020277,0.72435,-0.21238,-0.41975,0.66065,-0.14289,0.076237,0.0081289,0.010725,0.92809,0.71034,0.036628,-0.39382,-0.15378,0.25221
-0.0039468,-0.03296,-0.02066,-0.01924,0.47602,-0.40128,-0.81925,0.54112,0.11703,0.04958,0.63244,-0.11165,-0.44569,0.67286,-0.1508,0.059208,-0.0076295,-0.0027795,0.75278,0.35256,0.0064676,-0.4478,-0.1618,-0.086121
-0.0020264,-0.035657,-0.018628,-0.015865,0.41596,-0.40762,-0.73642,0.51373,0.12202,0.10411,0.55156,-0.13119,-0.46238,0.69724,-0.15037,0.07099,-0.01284,-0.0058283,0.63183,-0.11012,-0.033521,-0.48929,-0.15914,-0.38093
0.0011305,-0.032345,-0.013096,-0.0094681,0.34898,-0.40194,-0.64648,0.46224,0.13349,0.11862,0.47223,-0.26313,-0.46316,0.73279,-0.14128,0.10447,-0.001597,0.0059654,0.54374,-0.57336,-0.070969,-0.5047,-0.1479,-0.5698
0.003395,-0.024724,-0.0066515,-0.0037406,0.2847,-0.39839,-0.54303,0.39779,0.1438,0.084827,0.38387,-0.44923,-0.44522,0.76802,-0.12331,0.13979,0.026161,0.032508,0.43292,-0.90187,-0.090299,-0.47666,-0.13297,-0.62935
0.0034294,-0.017339,-0.0017008,-0.0016784,0.23714,-0.39864,-0.42233,0.33455,0.14573,0.017667,0.29096,-0.59991,-0.41124,0.78712,-0.096837,0.15671,0.063307,0.069015,0.26034,-1.0092,-0.081985,-0.39997,-0.12055,-0.578
0.0016396,-0.014263,0.0012561,-0.003372,0.2197,-0.39126,-0.28884,0.29146,0.13645,-0.052128,0.21604,-0.62996,-0.36803,0.78051,-0.064472,0.14719,0.097884,0.10654,0.037321,-0.90949,-0.047588,-0.28897,-0.1148,-0.45613
-0.00063591,-0.01635,0.0035092,-0.0062566,0.23778,-0.36239,-0.15561,0.28407,0.11756,-0.095098,0.18635,-0.49706,-0.3239,0.75177,-0.032263,0.11949,0.11877,0.13434,-0.18153,-0.70287,0.0020708,-0.17083,-0.11398,-0.30339
-0.0027235,-0.021047,0.0065045,-0.0073423,0.2837,-0.30827,-0.039329,0.3106,0.092478,-0.098048,0.2154,-0.22696,-0.28628,0.71487,-0.008786,0.090781,0.12143,0.14424,-0.33653,-0.50888,0.053209,-0.070698,-0.10873,-0.14935
-0.0051969,-0.024709,0.010405,-0.0053706,0.33812,-0.23926,0.046953,0.34647,0.064338,-0.06704,0.29392,0.087919,-0.2596,0.68329,-0.0015128,0.074566,0.10961,0.13479,-0.40025,-0.39604,0.095142,-0.00052077,-0.085063,-0.017017
-0.0087828,-0.025425,0.014162,-0.0012446,0.37869,-0.17228,0.099796,0.35661,0.036515,-0.017961,0.39624,0.32132,-0.24325,0.65954,-0.012405,0.073162,0.091789,0.11237,-0.3875,-0.35575,0.12276,0.041311,-0.032075,0.073369
-0.012863,-0.024141,0.016786,0.0031748,0.39111,-0.11872,0.12773,0.31947,0.014207,0.036157,0.49481,0.36836,-0.23066,0.63372,-0.036037,0.080366,0.075081,0.0878,-0.33661,-0.3303,0.13534,0.062141,0.048958,0.10953
-0.015437,-0.023309,0.018333,0.0065059,0.37577,-0.077406,0.14872,0.24378,0.0040227,0.090329,0.57141,0.19861,-0.21206,0.59186,-0.062263,0.090138,0.061669,0.070596,-0.28224,-0.26613,0.13408,0.067437,0.14051,0.096947
-0.014897,-0.024386,0.019668,0.0083507,0.34604,-0.037638,0.1827,0.16307,0.010411,0.14236,0.61916,-0.12286,-0.18086,0.52724,-0.082166,0.10185,0.05011,0.064758,-0.24102,-0.15125,0.12072,0.059375,0.21458,0.061069
-0.011903,-0.026381,0.021424,0.0089069,0.31937,0.01145,0.24109,0.11076,0.031494,0.18448,0.63827,-0.46302,-0.13976,0.44494,-0.093189,0.11686,0.03953,0.068615,-0.21547,-0.014961,0.09799,0.040327,0.24711,0.035728
-0.0092824,-0.026706,0.023385,0.0085179,0.30715,0.073021,0.31804,0.095385,0.058526,0.20245,0.63182,-0.68637,-0.10064,0.35689,-0.099551,0.13064,0.032083,0.078013,-0.20564,0.10123,0.070526,0.015391,0.23254,0.044801
-0.0097584,-0.02355,0.024866,0.0076622,0.30861,0.14154,0.38959,0.095742,0.080569,0.1853,0.6031,-0.72167,-0.076264,0.27246,-0.10741,0.12995,0.031118,0.089688,-0.21494,0.1738,0.044586,-0.0096535,0.18796,0.090857
-0.013543,-0.017594,0.025482,0.0070761,0.31166,0.2079,0.42344,0.079287,0.091276,0.13753,0.55228,-0.59018,-0.069432,0.19321,-0.11846,0.10038,0.036984,0.10215,-0.24608,0.20593,0.025837,-0.032795,0.14261,0.15803
-0.018072,-0.0115,0.025329,0.0074816,0.29943,0.26539,0.3957,0.02828,0.092287,0.081084,0.4721,-0.37894,-0.068669,0.11541,-0.12707,0.039077,0.044912,0.1141,-0.29375,0.21229,0.016487,-0.057194,0.11896,0.22384
-0.020164,-0.0076097,0.024475,0.0089729,0.25916,0.31193,0.30494,-0.047133,0.090351,0.042306,0.34793,-0.179,-0.055677,0.036798,-0.1238,-0.038638,0.047512,0.12272,-0.3434,0.19634,0.013886,-0.086912,0.11882,0.26864
-0.018619,-0.006031,0.022534,0.010722,0.18935,0.34756,0.17414,-0.1175,0.090788,0.032823,0.16806,-0.030233,-0.019556,-0.039807,-0.10267,-0.10623,0.039924,0.12385,-0.37904,0.14113,0.011875,-0.12028,0.12443,0.27709
-0.014979,-0.0049371,0.019089,0.01149,0.10182,0.37052,0.039137,-0.15502,0.093297,0.040408,-0.058877,0.09211,0.033686,-0.10976,-0.066769,-0.14261,0.023115,0.1141,-0.39511,0.022324,0.0041493,-0.14732,0.11308,0.23619
-0.012038,-0.0027701,0.014632,0.010602,0.017143,0.37593,-0.068991,-0.14951,0.093958,0.038533,-0.29316,0.24563,0.084593,-0.17366,-0.027565,-0.146,0.0025249,0.092882,-0.40411,-0.16563,-0.012618,-0.15476,0.073719,0.13807
-0.011618,-0.00011442,0.01094,0.0084998,-0.044273,0.35901,-0.13566,-0.10938,0.091388,0.0077408,-0.47397,0.47123,0.11406,-0.24157,0.0016404,-0.13409,-0.016446,0.062548,-0.43284,-0.39154,-0.037759,-0.13529,0.013243,-0.010751
-0.013512,0.00077806,0.010139,0.0063136,-0.070499,0.32115,-0.16211,-0.051703,0.090785,-0.048333,-0.54966,0.7623,0.11608,-0.33014,0.013136,-0.13054,-0.031937,0.026874,-0.50706,-0.59439,-0.067713,-0.093212,-0.050361,-0.18143
-0.016073,-0.001499,0.013049,0.0048608,-0.060805,0.27405,-0.15552,0.0068876,0.10119,-0.1051,-0.50988,1.0713,0.099241,-0.4542,0.0077308,-0.14827,-0.045167,-0.010416,-0.63125,-0.71405,-0.097675,-0.040844,-0.10041,-0.32621
-0.017534,-0.0054806,0.018248,0.0040388,-0.02181,0.23776,-0.12001,0.051591,0.12751,-0.13503,-0.39605,1.3426,0.077236,-0.61821,-0.0082698,-0.18198,-0.056944,-0.045693,-0.77598,-0.72512,-0.12239,0.012965,-0.12891,-0.39555
-0.01692,-0.0076207,0.022856,0.0032236,0.038748,0.23171,-0.05596,0.066796,0.16405,-0.12693,-0.28056,1.5443,0.057594,-0.81209,-0.02869,-0.21478,-0.064823,-0.074583,-0.88469,-0.64867,-0.13636,0.073285,-0.13498,-0.3605
-0.014243,-0.0055671,0.024598,0.0022692,0.1149,0.26351,0.033378,0.037975,0.19575,-0.092017,-0.22857,1.6769,0.038523,-1.0121,-0.050852,-0.23259,-0.063986,-0.092134,-0.9011,-0.53266,-0.13484,0.15895,-0.11924,-0.22752
-0.010372,-0.00092843,0.023538,0.0020402,0.20014,0.32266,0.13583,-0.039072,0.20708,-0.054367,-0.26797,1.7601,0.01498,-1.1849,-0.074594,-0.23494,-0.051409,-0.095098,-0.80363,-0.41705,-0.11613,0.28898,-0.081685,-0.037832
-0.00682,0.0014032,0.022047,0.0037695,0.28379,0.38486,0.23191,-0.14895,0.1919,-0.034966,-0.38561,1.8149,-0.013331,-1.2945,-0.099014,-0.23428,-0.029801,-0.084983,-0.62415,-0.3129,-0.083966,0.46331,-0.025158,0.14794
-0.005272,-0.0027131,0.022906,0.0076888,0.3519,0.42513,0.30326,-0.25819,0.15689,-0.041487,-0.54642,1.8569,-0.040029,-1.311,-0.12071,-0.24535,-0.0075602,-0.068913,-0.43505,-0.21098,-0.047203,0.65181,0.040503,0.27251
-0.0067117,-0.012651,0.026981,0.012256,0.39389,0.43169,0.34092,-0.33069,0.11595,-0.068955,-0.71666,1.8984,-0.057053,-1.2222,-0.13518,-0.27293,0.0060508,-0.056346,-0.30979,-0.10696,-0.01618,0.8024,0.099689,0.30334
-0.010601,-0.02276,0.032314,0.014963,0.40945,0.41087,0.34709,-0.34804,0.080317,-0.10761,-0.8741,1.9473,-0.0604,-1.0422,-0.13962,-0.30668,0.0074307,-0.053049,-0.28235,-0.012482,0.0025228,0.86604,0.13817,0.24486
-0.014933,-0.026471,0.035442,0.014303,0.40858,0.37966,0.33074,-0.31964,0.052199,-0.15049,-1.0025,1.9934,-0.050346,-0.81039,-0.13406,-0.32541,0.002044,-0.05657,-0.33307,0.064639,0.009154,0.8237,0.15033,0.1355
-0.017441,-0.021448,0.034017,0.011203,0.4034,0.35149,0.30228,-0.27509,0.026364,-0.19601,-1.0827,1.9935,-0.026454,-0.57686,-0.11983,-0.3072,0.0016799,-0.057149,-0.40985,0.15357,0.0094234,0.69663,0.14019,0.02843
-0.017175,-0.011413,0.028763,0.0084712,0.39855,0.32601,0.27154,-0.24451,-0.0024867,-0.24559,-1.0922,1.8769,0.016254,-0.38163,-0.09738,-0.23896,0.016864,-0.044278,-0.46681,0.32858,0.0098188,0.53228,0.11579,-0.036016
-0.01513,-0.0030984,0.023215,0.0085037,0.38892,0.29022,0.24795,-0.24175,-0.033246,-0.29963,-1.0171,1.5798,0.084454,-0.23863,-0.066274,-0.12172,0.049438,-0.014624,-0.49054,0.67026,0.013199,0.37574,0.082396,-0.050527
-0.01334,-0.00098874,0.021314,0.011177,0.36658,0.22918,0.23882,-0.26184,-0.058349,-0.35507,-0.86503,1.0913,0.17845,-0.13625,-0.027782,0.028399,0.090576,0.024552,-0.49559,1.2013,0.017749,0.24725,0.040396,-0.038906
-0.013165,-0.0042734,0.024586,0.013894,0.32977,0.13733,0.24527,-0.29137,-0.070036,-0.40601,-0.66863,0.47716,0.28638,-0.053109,0.012622,0.18297,0.12585,0.059362,-0.49724,1.8477,0.019487,0.14078,-0.011297,-0.031892
-0.014279,-0.0083203,0.030978,0.013892,0.28456,0.022566,0.25971,-0.32105,-0.067483,-0.44693,-0.47571,-0.13941,0.38722,0.023027,0.046177,0.30787,0.14392,0.078076,-0.48756,2.4633,0.015853,0.0412,-0.070522,-0.038504
-0.015212,-0.0089854,0.036289,0.01082,0.23722,-0.098258,0.26955,-0.3496,-0.058601,-0.47618,-0.33115,-0.6302,0.46177,0.087745,0.065593,0.37448,0.14279,0.078375,-0.43698,2.906,0.007561,-0.057243,-0.13049,-0.036761
-0.014871,-0.005892,0.037205,0.0072562,0.1857,-0.20647,0.26576,-0.37828,-0.054693,-0.49709,-0.26109,-0.91431,0.50365,0.12811,0.070244,0.37276,0.12956,0.067861,-0.32066,3.1126,-0.0022422,-0.14745,-0.18259,0.0065932
-0.013585,-0.0021494,0.033729,0.0066056,0.12006,-0.28632,0.24919,-0.40373,-0.062054,-0.51532,-0.26524,-0.98156,0.52191,0.13768,0.067248,0.31909,0.1144,0.057783,-0.1465,3.1212,-0.010349,-0.22232,-0.22042,0.10236
-0.012684,-0.0012833,0.029138,0.010174,0.032948,-0.3272,0.22871,-0.41804,-0.077196,-0.53407,-0.31842,-0.88262,0.53348,0.12443,0.066788,0.25137,0.10389,0.055186,0.040779,3.0302,-0.015421,-0.28948,-0.24193,0.22005
-0.013061,-0.0042937,0.0274,0.015935,-0.070118,-0.32691,0.21255,-0.41695,-0.089443,-0.551,-0.37934,-0.70212,0.55149,0.10533,0.074788,0.2105,0.098553,0.059575,0.18614,2.9284,-0.018228,-0.37139,-0.24854,0.30235
-0.014168,-0.0090888,0.030004,0.020031,-0.17192,-0.29672,0.20132,-0.40934,-0.088714,-0.55956,-0.40504,-0.53055,0.5778,0.093282,0.088517,0.2178,0.095617,0.066077,0.26225,2.8467,-0.020259,-0.4881,-0.24271,0.30376
-0.014434,-0.012205,0.034702,0.019666,-0.25686,-0.26311,0.18964,-0.41876,-0.072299,-0.55373,-0.36797,-0.43879,0.60421,0.088832,0.098703,0.26315,0.093462,0.071445,0.28883,2.7598,-0.021669,-0.63595,-0.22557,0.22321
-0.012712,-0.011057,0.03726,0.015005,-0.32403,-0.25963,0.17457,-0.47382,-0.045646,-0.5325,-0.26915,-0.454,0.61966,0.083624,0.096706,0.31294,0.093163,0.077061,0.31617,2.6249,-0.019984,-0.7808,-0.19579,0.10447
-0.0092883,-0.0051769,0.03485,0.0086931,-0.38618,-0.31006,0.16174,-0.5921,-0.017464,-0.5004,-0.13963,-0.54438,0.61764,0.071436,0.081367,0.33316,0.095879,0.086225,0.38346,2.4206,-0.010707,-0.87306,-0.15053,0.004332
-0.0054589,0.0038619,0.028287,0.0037174,-0.45324,-0.41305,0.16196,-0.76697,0.0060268,-0.46443,-0.026573,-0.62928,0.59898,0.056068,0.060441,0.31122,0.099152,0.098585,0.48302,2.1532,0.0098782,-0.8747,-0.088558,-0.045801
-0.0021365,0.013281,0.02119,0.0015178,-0.51481,-0.54053,0.18013,-0.96547,0.022953,-0.43045,0.029642,-0.62094,0.56978,0.048782,0.045755,0.26103,0.096479,0.10742,0.55879,1.8307,0.041041,-0.77933,-0.014201,-0.05508
0.00096442,0.020219,0.016825,0.0017118,-0.5393,-0.65215,0.20655,-1.1397,0.033297,-0.40218,0.013798,-0.47806,0.53738,0.057855,0.045891,0.20867,0.081389,0.10296,0.54163,1.4326,0.075728,-0.61268,0.060845,-0.056237
0.0046197,0.0229,0.015415,0.0031759,-0.49375,-0.71536,0.21933,-1.247,0.035844,-0.38254,-0.061256,-0.2341,0.50712,0.079753,0.061602,0.17122,0.052696,0.079362,0.39616,0.91325,0.10275,-0.41626,0.12058,-0.073851
0.0085897,0.021456,0.014346,0.005153,-0.37015,-0.71681,0.19729,-1.2675,0.028547,-0.37465,-0.16702,0.024712,0.48118,0.09972,0.086572,0.14562,0.016127,0.039523,0.14486,0.24889,0.11268,-0.22769,0.15202,-0.10521
0.011081,0.017829,0.011005,0.0073724,-0.19639,-0.65969,0.134,-1.2103,0.012375,-0.38042,-0.27603,0.21774,0.45864,0.10121,0.11201,0.11547,-0.019358,-0.0063577,-0.14722,-0.50517,0.10393,-0.070598,0.15237,-0.12752
0.0101,0.014554,0.0055606,0.0093747,-0.021988,-0.55472,0.042687,-1.1032,-0.0054133,-0.39782,-0.37056,0.32047,0.43608,0.076434,0.13133,0.068194,-0.047385,-0.046994,-0.41297,-1.2008,0.084274,0.043825,0.13059,-0.12171
0.0056259,0.013224,0.0009819,0.010081,0.11145,-0.41632,-0.050628,-0.97308,-0.012845,-0.41986,-0.44043,0.36825,0.40863,0.029998,0.14216,0.0074947,-0.067098,-0.075929,-0.61705,-1.6578,0.066087,0.11105,0.10193,-0.090412
0.00040809,0.013871,0.00020923,0.0083419,0.19264,-0.26665,-0.12047,-0.83077,0.00011838,-0.43735,-0.47695,0.41355,0.37165,-0.025909,0.14579,-0.049195,-0.081068,-0.092898,-0.7595,-1.7688,0.058258,0.13135,0.079149,-0.055454
-0.0017091,0.015743,0.0031186,0.004115,0.24037,-0.13869,-0.15363,-0.67247,0.034459,-0.444,-0.47221,0.47589,0.32276,-0.079656,0.14559,-0.084756,-0.090914,-0.10093,-0.85272,-1.5728,0.060748,0.11295,0.06673,-0.039606
0.0013003,0.018591,0.0062297,-0.00092296,0.28339,-0.068129,-0.15423,-0.49599,0.080371,-0.43977,-0.42509,0.52727,0.26309,-0.12472,0.14577,-0.095165,-0.095349,-0.10293,-0.89702,-1.2318,0.065986,0.074029,0.061624,-0.049956
0.0080524,0.023007,0.0055632,-0.0042009,0.33793,-0.074572,-0.14124,-0.31884,0.12307,-0.4298,-0.34674,0.52227,0.19685,-0.15815,0.14994,-0.090183,-0.092638,-0.101,-0.87734,-0.92162,0.065897,0.03794,0.058652,-0.076444
0.014935,0.029353,4.4681e-005,-0.0041345,0.3998,-0.1461,-0.14009,-0.18121,0.15253,-0.41953,-0.2574,0.44267,0.12927,-0.17646,0.15894,-0.082255,-0.084708,-0.098049,-0.78159,-0.71892,0.058876,0.023027,0.055763,-0.10383
0.01903,0.03643,-0.0077183,-0.0015308,0.45404,-0.24169,-0.17024,-0.12803,0.17014,-0.4101,-0.17482,0.31613,0.06424,-0.1744,0.16825,-0.073997,-0.07828,-0.098668,-0.62024,-0.57714,0.051222,0.034561,0.055453,-0.12386
0.020234,0.04149,-0.013983,0.00087992,0.4906,-0.31274,-0.23262,-0.18156,0.18737,-0.39763,-0.10344,0.19453,0.0031535,-0.14892,0.16757,-0.055344,-0.08118,-0.1073,-0.42738,-0.41044,0.052288,0.065319,0.062384,-0.13672
0.020899,0.04197,-0.017239,0.00065701,0.51186,-0.32893,-0.30336,-0.3247,0.21709,-0.37692,-0.033974,0.11317,-0.054306,-0.1049,0.14438,-0.012808,-0.096806,-0.12509,-0.2431,-0.20819,0.067627,0.10357,0.079734,-0.1427
0.02357,0.037521,-0.019101,-0.0021943,0.52667,-0.28934,-0.3405,-0.50775,0.26374,-0.34653,0.045643,0.066168,-0.10841,-0.056768,0.090906,0.056842,-0.12174,-0.14893,-0.094915,-0.072365,0.095542,0.14059,0.10662,-0.13513
0.028889,0.030444,-0.021908,-0.0051256,0.53866,-0.21233,-0.30433,-0.67341,0.31933,-0.31092,0.13701,0.01512,-0.15816,-0.023157,0.010786,0.13945,-0.14874,-0.17433,0.0055572,-0.13718,0.12897,0.171,0.13726,-0.10298
0.035251,0.024026,-0.025529,-0.0052951,0.5406,-0.11496,-0.18195,-0.78105,0.3683,-0.27815,0.22707,-0.080644,-0.20151,-0.017374,-0.079404,0.20846,-0.17225,-0.1998,0.053062,-0.43899,0.16012,0.1872,0.16186,-0.041587
0.040122,0.020187,-0.026819,-0.0022618,0.52021,-0.0003489,-0.00047772,-0.81461,0.39766,-0.25493,0.29653,-0.2381,-0.2368,-0.040101,-0.15575,0.23833,-0.19142,-0.22791,0.043131,-0.85547,0.18374,0.17619,0.16924,0.039076
0.041683,0.018471,-0.022645,0.0013548,0.47224,0.13741,0.18243,-0.77419,0.40545,-0.24307,0.33406,-0.44431,-0.2639,-0.079296,-0.19742,0.21743,-0.20782,-0.26124,-0.018354,-1.176,0.19715,0.12531,0.15144,0.11703
0.039709,0.017108,-0.013757,0.0019728,0.40581,0.29743,0.30724,-0.66587,0.40166,-0.23987,0.34487,-0.66579,-0.28416,-0.11694,-0.19609,0.15279,-0.22042,-0.29638,-0.099798,-1.2489,0.19882,0.034505,0.10882,0.1705
0.035487,0.015017,-0.0056186,-0.0018941,0.34067,0.46165,0.34302,-0.50271,0.40113,-0.24164,0.34752,-0.86023,-0.29911,-0.13793,-0.159,0.065656,-0.22329,-0.32235,-0.14463,-1.0825,0.18806,-0.075455,0.052497,0.18999
0.03125,0.012847,-0.0048083,-0.0083176,0.29512,0.60066,0.29974,-0.31481,0.41366,-0.24724,0.36176,-0.984,-0.30938,-0.13599,-0.10387,-0.018065,-0.20923,-0.32668,-0.098748,-0.81655,0.1664,-0.16828,0.0012915,0.18121
0.029361,0.012206,-0.013717,-0.013482,0.27512,0.69159,0.21529,-0.1523,0.4382,-0.25874,0.39658,-0.99985,-0.31499,-0.11456,-0.049153,-0.076858,-0.17716,-0.30536,0.050929,-0.59548,0.13853,-0.20985,-0.026429,0.15796
0.031241,0.01388,-0.028123,-0.014635,0.2722,0.73293,0.12816,-0.067935,0.46493,-0.27875,0.44582,-0.88988,-0.31713,-0.083904,-0.0054464,-0.099205,-0.13672,-0.2682,0.25835,-0.45684,0.11079,-0.18667,-0.021716,0.13205
0.036324,0.016729,-0.040002,-0.011946,0.27069,0.74388,0.056297,-0.085346,0.48337,-0.30654,0.49239,-0.669,-0.31988,-0.056978,0.026829,-0.085563,-0.10462,-0.23377,0.43964,-0.3266,0.087565,-0.11204,0.010713,0.10789
0.04185,0.018319,-0.043462,-0.0079696,0.25756,0.74852,-0.004442,-0.17656,0.4902,-0.33591,0.51686,-0.38607,-0.32993,-0.045297,0.05305,-0.047441,-0.093942,-0.21638,0.52179,-0.11183,0.068942,-0.016166,0.055602,0.083977
0.044225,0.016805,-0.038912,-0.0055394,0.22799,0.75761,-0.065805,-0.27076,0.49072,-0.35601,0.5052,-0.10534,-0.3536,-0.055292,0.077154,-0.0037004,-0.10357,-0.21482,0.48373,0.20265,0.05191,0.071499,0.095403,0.057364
0.041444,0.012544,-0.032045,-0.0059572,0.18409,0.76206,-0.13225,-0.29347,0.49265,-0.35479,0.45302,0.12376,-0.39258,-0.085925,0.097018,0.025859,-0.11651,-0.21209,0.36149,0.53975,0.034551,0.13474,0.11841,0.026548
