-4.4953e-010,-2.5274e-010,1.0399e-009,1.2251e-009,1.1672e-009,-5.9828e-009,-9.0099e-010,3.8644e-009,1.0225e-010,3.7216e-009,3.9686e-009,1.879e-008,1.3717e-009,5.8072e-010,8.296e-011,-1.3486e-009,-7.042e-010,-7.5822e-010,1.7229e-009,1.4065e-009,-9.3957e-010,-2.919e-009,-8.8555e-010,4.4471e-009
-1.2557e-008,-6.8452e-009,2.8709e-008,3.392e-008,3.2328e-008,-1.6673e-007,-2.4438e-008,1.0677e-007,2.7523e-009,1.02e-007,1.0742e-007,5.2208e-007,3.7717e-008,1.6244e-008,2.5587e-009,-3.7386e-008,-1.951e-008,-2.1056e-008,4.7239e-008,3.7399e-008,-2.5964e-008,-7.8561e-008,-2.4139e-008,1.2299e-007
-1.706e-007,-8.9978e-008,3.855e-007,4.5662e-007,4.3522e-007,-2.2603e-006,-3.2297e-007,1.4337e-006,3.6125e-008,1.3582e-006,1.4093e-006,7.0547e-006,5.0396e-007,2.208e-007,3.7675e-008,-5.0376e-007,-2.6269e-007,-2.843e-007,6.2813e-007,4.8102e-007,-3.4899e-007,-1.0231e-006,-3.2004e-007,1.6541e-006
-1.502e-006,-7.6464e-007,3.3547e-006,3.9818e-006,3.7938e-006,-1.9863e-005,-2.7725e-006,1.2463e-005,3.0806e-007,1.1701e-005,1.1933e-005,6.1766e-005,4.3594e-006,1.9426e-006,3.5388e-007,-4.3952e-006,-2.2899e-006,-2.4863e-006,5.3927e-006,3.9815e-006,-3.0404e-006,-8.5785e-006,-2.7501e-006,1.4414e-005
-9.6317e-006,-4.721e-006,2.1265e-005,2.5282e-005,2.4062e-005,-0.00012718,-1.739e-005,7.8831e-005,1.9176e-006,7.3296e-005,7.3218e-005,0.00039381,2.7438e-005,1.2431e-005,2.3885e-006,-2.7903e-005,-1.4524e-005,-1.5827e-005,3.3567e-005,2.3792e-005,-1.9299e-005,-5.1975e-005,-1.7218e-005,9.1481e-005
-4.7938e-005,-2.256e-005,0.00010463,0.00012453,0.00011828,-0.00063229,-8.4999e-005,0.0003865,9.2703e-006,0.00035551,0.00034648,0.0019482,0.00013387,6.1635e-005,1.2365e-005,-0.0001373,-7.1398e-005,-7.8118e-005,0.00016119,0.00010906,-9.5123e-005,-0.00024187,-8.3714e-005,0.00045064
-0.00019264,-8.6795e-005,0.00041571,0.0004951,0.00046862,-0.0025396,-0.00033716,0.0015278,3.6107e-005,0.0013881,0.0013132,0.0077787,0.00052663,0.00024626,5.1151e-005,-0.00054456,-0.00028292,-0.00031089,0.00062,0.00039728,-0.00037886,-0.00089633,-0.00032893,0.0017926
-0.00064192,-0.00027603,0.0013698,0.0016313,0.0015357,-0.0084638,-0.0011159,0.0049985,0.00011576,0.0044765,0.004083,0.025737,0.001715,0.00081393,0.00017394,-0.0017865,-0.00092754,-0.0010238,0.0019559,0.0011733,-0.0012526,-0.0027018,-0.0010731,0.0059152
-0.0018069,-0.00073927,0.0038137,0.0045384,0.0042378,-0.023851,-0.0031442,0.013785,0.00030845,0.012132,0.01057,0.071874,0.0047083,0.0022665,0.00049645,-0.0049343,-0.0025612,-0.0028395,0.0051322,0.0028307,-0.0035045,-0.0066901,-0.0029633,0.0165
-0.0043536,-0.0016899,0.0090932,0.010803,0.0099659,-0.057606,-0.0076565,0.032458,0.00068058,0.027945,0.022943,0.17159,0.011038,0.0053855,0.0012093,-0.011608,-0.006029,-0.0067104,0.011262,0.0055361,-0.0084138,-0.013571,-0.0070258,0.03945
-0.009062,-0.0033294,0.018746,0.022204,0.020122,-0.1204,-0.016298,0.065808,0.0012115,0.055049,0.041696,0.35319,0.022284,0.011016,0.002552,-0.023415,-0.012188,-0.013601,0.020563,0.0084623,-0.017514,-0.022021,-0.014455,0.081665
-0.016391,-0.0056954,0.033633,0.039649,0.034986,-0.2192,-0.030592,0.11546,0.0015927,0.092833,0.062522,0.62972,0.038937,0.019503,0.0047392,-0.040552,-0.021217,-0.023679,0.030499,0.0088744,-0.031844,-0.026348,-0.026017,0.14747
-0.02584,-0.0085094,0.052744,0.061715,0.052271,-0.34897,-0.050969,0.1756,0.00096417,0.13326,0.074046,0.97328,0.058959,0.029958,0.007892,-0.059964,-0.031726,-0.035212,0.034062,0.0020463,-0.050834,-0.015464,-0.041224,0.23359
-0.035509,-0.011173,0.072487,0.083821,0.066464,-0.48659,-0.07574,0.23106,-0.0022069,0.16007,0.059888,1.2983,0.077166,0.039908,0.012073,-0.074358,-0.04031,-0.043953,0.020185,-0.016706,-0.071464,0.024038,-0.057802,0.3261
-0.042434,-0.013009,0.087509,0.099305,0.07024,-0.5939,-0.10071,0.26161,-0.0097782,0.15429,0.0071835,1.4764,0.086627,0.045967,0.017449,-0.073751,-0.042387,-0.044016,-0.021991,-0.04756,-0.088561,0.099594,-0.072064,0.40335
-0.043923,-0.013652,0.093271,0.10271,0.058167,-0.63322,-0.12007,0.25256,-0.022889,0.10542,-0.081377,1.3913,0.082159,0.045585,0.024407,-0.05006,-0.034488,-0.030623,-0.095716,-0.081316,-0.096626,0.20268,-0.080319,0.44597
-0.039337,-0.013285,0.089112,0.093719,0.030874,-0.5889,-0.12841,0.20631,-0.040466,0.02204,-0.18067,1.0109,0.06409,0.03891,0.0333,-0.0028392,-0.01698,-0.0036022,-0.19037,-0.098216,-0.092462,0.30504,-0.080611,0.44867
-0.031055,-0.012462,0.079433,0.07869,-0.0034907,-0.48031,-0.12309,0.1452,-0.058174,-0.067525,-0.25029,0.42826,0.039281,0.029238,0.043701,0.057728,0.004797,0.030769,-0.28209,-0.073835,-0.077012,0.36789,-0.073553,0.42458
-0.023514,-0.01159,0.071399,0.067751,-0.032586,-0.35341,-0.10531,0.10073,-0.068972,-0.12895,-0.25607,-0.17031,0.017759,0.021213,0.053613,0.11372,0.022488,0.061674,-0.34378,0.0090841,-0.055123,0.36232,-0.061567,0.3964
-0.020562,-0.010547,0.07016,0.068431,-0.046623,-0.25279,-0.079304,0.093901,-0.06578,-0.14329,-0.19349,-0.60168,0.0065708,0.017735,0.059558,0.14764,0.02923,0.07916,-0.35965,0.14949,-0.033292,0.28819,-0.047072,0.37867
-0.022828,-0.0088998,0.075017,0.080127,-0.04393,-0.19328,-0.049945,0.12102,-0.04532,-0.12093,-0.095038,-0.7867,0.0052534,0.017911,0.058132,0.15096,0.023873,0.079838,-0.33455,0.32575,-0.01694,0.17598,-0.031109,0.36491
-0.027228,-0.0066853,0.079822,0.093854,-0.03097,-0.15372,-0.020398,0.15678,-0.010858,-0.095765,-0.012443,-0.78244,0.006633,0.017864,0.048371,0.12734,0.011654,0.068743,-0.28982,0.50505,-0.0088157,0.067008,-0.013522,0.3314
-0.029254,-0.0050576,0.077751,0.098021,-0.016615,-0.099456,0.0085516,0.17343,0.028328,-0.10198,0.01581,-0.72315,0.0025705,0.013886,0.033101,0.088464,0.000359,0.055596,-0.24768,0.6583,-0.0089963,-0.01524,0.0056516,0.2565
-0.026431,-0.0060376,0.066812,0.086171,-0.0053338,-0.015874,0.03723,0.16112,0.061024,-0.15017,-0.011845,-0.71826,-0.0098965,0.0053097,0.017621,0.046064,-0.0055017,0.047959,-0.21531,0.7692,-0.01563,-0.080025,0.02504,0.14022
-0.020172,-0.011285,0.051604,0.060815,0.004958,0.075559,0.065166,0.13276,0.07953,-0.22088,-0.063517,-0.78787,-0.026998,-0.0053655,0.0060626,0.0064475,-0.0080382,0.046427,-0.18145,0.83089,-0.025485,-0.15722,0.042242,0.0073212
-0.01447,-0.020749,0.039758,0.030558,0.018735,0.1333,0.090411,0.11028,0.083037,-0.28019,-0.10125,-0.87789,-0.042268,-0.015079,-0.0019714,-0.028787,-0.014059,0.045552,-0.12846,0.83436,-0.034337,-0.26649,0.055292,-0.10906
-0.012521,-0.032371,0.036004,0.0031473,0.036462,0.13033,0.11088,0.10535,0.076857,-0.30392,-0.10954,-0.92576,-0.052328,-0.022997,-0.011458,-0.057645,-0.029193,0.039575,-0.04992,0.76115,-0.037916,-0.3928,0.063833,-0.18956
-0.014187,-0.043327,0.038754,-0.019781,0.052183,0.077299,0.12659,0.11168,0.068284,-0.29127,-0.10212,-0.90928,-0.059237,-0.030848,-0.028024,-0.073645,-0.052659,0.028064,0.041387,0.59001,-0.033604,-0.48916,0.068891,-0.23773
-0.016413,-0.052059,0.041877,-0.042214,0.057611,0.014314,0.1405,0.1144,0.06216,-0.25878,-0.10331,-0.83968,-0.067621,-0.040592,-0.052744,-0.066904,-0.076887,0.016766,0.12199,0.31483,-0.021855,-0.50599,0.071594,-0.26996
-0.016074,-0.059595,0.039923,-0.068489,0.049108,-0.020698,0.15669,0.10574,0.058964,-0.22258,-0.12291,-0.72187,-0.07961,-0.051902,-0.079804,-0.030037,-0.092284,0.013149,0.17593,-0.039755,-0.0059933,-0.42536,0.072278,-0.29725
-0.0126,-0.068957,0.032293,-0.097986,0.031078,-0.018949,0.17674,0.091149,0.055958,-0.18495,-0.14724,-0.53597,-0.092445,-0.062071,-0.099148,0.035322,-0.093339,0.020598,0.20718,-0.41873,0.0098038,-0.27481,0.071059,-0.31654
-0.008078,-0.082777,0.023058,-0.12419,0.012548,-0.00092212,0.19708,0.080634,0.04974,-0.13533,-0.15365,-0.2648,-0.10083,-0.068578,-0.10226,0.11592,-0.081467,0.036099,0.23578,-0.75509,0.022852,-0.11186,0.069345,-0.31856
-0.0049715,-0.1006,0.016923,-0.13865,5.7429e-006,0.0073264,0.20983,0.075343,0.038204,-0.061932,-0.13315,0.063329,-0.10161,-0.071799,-0.086877,0.19016,-0.062964,0.052889,0.28078,-0.99487,0.032839,0.0081727,0.070588,-0.3027
-0.0037785,-0.11782,0.014978,-0.13659,-0.007032,-0.0017211,0.20716,0.063852,0.02136,0.037394,-0.099837,0.36877,-0.096381,-0.075048,-0.05754,0.23606,-0.044446,0.065282,0.34367,-1.1136,0.040818,0.058923,0.078952,-0.28282
-0.0027914,-0.12744,0.013741,-0.11992,-0.013912,-0.01345,0.18657,0.032528,0.001598,0.15314,-0.078309,0.56768,-0.089672,-0.081543,-0.02234,0.24033,-0.029594,0.071509,0.405,-1.1166,0.047618,0.049123,0.096325,-0.27701
2.749e-005,-0.12381,0.0080822,-0.095845,-0.024584,-0.0079166,0.15372,-0.020112,-0.016292,0.26943,-0.081285,0.63227,-0.084597,-0.090859,0.011246,0.20457,-0.019036,0.072852,0.43584,-1.0283,0.05328,0.0087267,0.11984,-0.29067
0.0050684,-0.1061,-0.0045004,-0.072437,-0.037274,0.021418,0.12059,-0.07937,-0.026235,0.36977,-0.097827,0.60725,-0.080102,-0.098171,0.03886,0.14512,-0.012071,0.070874,0.41493,-0.8798,0.057751,-0.032927,0.14216,-0.30863
0.010928,-0.079133,-0.021707,-0.054537,-0.046018,0.064554,0.1,-0.12516,-0.023916,0.43918,-0.10235,0.56574,-0.072266,-0.097394,0.059675,0.085694,-0.0077749,0.065865,0.33956,-0.70325,0.061612,-0.063525,0.15492,-0.30472
0.016041,-0.05087,-0.037938,-0.042388,-0.046203,0.10781,0.099563,-0.14812,-0.010636,0.46503,-0.075828,0.54581,-0.058381,-0.086006,0.075737,0.045911,-0.0045973,0.057732,0.22467,-0.52979,0.065706,-0.09152,0.15343,-0.26107
0.020202,-0.028075,-0.04818,-0.033311,-0.038538,0.14778,0.11868,-0.15681,0.0052017,0.44052,-0.02077,0.52693,-0.040078,-0.067717,0.090763,0.031726,0.00019901,0.047862,0.093341,-0.38654,0.069993,-0.13729,0.13922,-0.18148
0.02431,-0.013144,-0.051276,-0.024623,-0.027823,0.1922,0.14985,-0.17034,0.011633,0.37049,0.041857,0.46535,-0.022724,-0.050646,0.10802,0.033676,0.0095617,0.039602,-0.033785,-0.28985,0.073099,-0.21697,0.11878,-0.088378
0.028631,-0.0039608,-0.050303,-0.015524,-0.018205,0.24804,0.1829,-0.20394,0.00067133,0.27419,0.089686,0.35009,-0.011692,-0.042139,0.12738,0.034033,0.024338,0.036533,-0.14482,-0.23929,0.073431,-0.3271,0.099114,-0.006813
0.031607,0.0035792,-0.050088,-0.0068577,-0.0099833,0.30974,0.20901,-0.25991,-0.025183,0.17966,0.11533,0.22213,-0.0087484,-0.044095,0.14349,0.018099,0.041799,0.039908,-0.2375,-0.21886,0.070981,-0.43875,0.083577,0.051432
0.030841,0.012596,-0.053938,0.00047596,-0.0011461,0.35983,0.22239,-0.33004,-0.052954,0.11143,0.12978,0.13673,-0.011509,-0.052262,0.14746,-0.017751,0.056899,0.047346,-0.31659,-0.20711,0.067955,-0.50653,0.070743,0.091935
0.025621,0.023871,-0.061987,0.0067121,0.0082726,0.38181,0.21992,-0.40448,-0.066809,0.079071,0.15211,0.10527,-0.016109,-0.059875,0.13233,-0.065826,0.065745,0.053782,-0.38982,-0.19003,0.067361,-0.4899,0.056974,0.12873
0.018539,0.036428,-0.071987,0.012853,0.013821,0.37352,0.20071,-0.47732,-0.058401,0.074515,0.19457,0.07356,-0.020525,-0.062554,0.098747,-0.11326,0.068461,0.054032,-0.4631,-0.16724,0.070734,-0.37511,0.040274,0.17084
0.014238,0.048778,-0.081481,0.019213,0.0089873,0.34935,0.16693,-0.54481,-0.032338,0.079322,0.25401,-0.040669,-0.025641,-0.060538,0.055779,-0.14912,0.068983,0.045405,-0.53598,-0.14751,0.077144,-0.18367,0.022339,0.21461
0.015945,0.05957,-0.089463,0.024504,-0.0098144,0.32998,0.12493,-0.60043,-0.0024901,0.076415,0.31419,-0.28279,-0.033359,-0.056821,0.01559,-0.16786,0.071907,0.028989,-0.59896,-0.13755,0.084434,0.039017,0.0074031,0.246
0.02269,0.067712,-0.096448,0.026604,-0.040331,0.32889,0.084606,-0.63429,0.018342,0.058561,0.35617,-0.62379,-0.043671,-0.053276,-0.014364,-0.16876,0.079095,0.008991,-0.63501,-0.13354,0.09142,0.24729,-0.00088932,0.24939
0.029815,0.072902,-0.10336,0.024448,-0.07617,0.34649,0.055747,-0.63875,0.027764,0.029605,0.36957,-0.97795,-0.053419,-0.048443,-0.035034,-0.15386,0.088785,-0.0094699,-0.62622,-0.12118,0.098814,0.41451,-0.0020486,0.21545
0.03258,0.07687,-0.11045,0.019197,-0.11113,0.37485,0.043408,-0.61475,0.035154,-0.00041087,0.35836,-1.2545,-0.057911,-0.038894,-0.052263,-0.12696,0.097571,-0.022856,-0.56351,-0.083552,0.10795,0.53559,0.0010141,0.14347
0.029926,0.084022,-0.11713,0.013331,-0.14192,0.40694,0.045442,-0.57206,0.05405,-0.022283,0.33806,-1.3994,-0.054075,-0.022703,-0.069297,-0.093266,0.10321,-0.03045,-0.45402,-0.010573,0.11864,0.61454,0.0039158,0.038422
0.025254,0.099788,-0.12251,0.0083089,-0.16721,0.44166,0.05417,-0.52242,0.091173,-0.033024,0.32636,-1.4019,-0.042598,-0.0016888,-0.082314,-0.058148,0.10593,-0.033548,-0.32113,0.09537,0.12845,0.6509,0.003386,-0.092781
0.023654,0.12673,-0.12594,0.0029879,-0.18481,0.48119,0.060817,-0.47179,0.14019,-0.037295,0.33252,-1.2803,-0.027389,0.01971,-0.083244,-0.024645,0.10756,-0.033374,-0.19539,0.21942,0.13431,0.63808,-0.0010585,-0.24252
0.028019,0.16113,-0.12698,-0.0054902,-0.19068,0.52485,0.05941,-0.41857,0.18475,-0.044252,0.35222,-1.0723,-0.012875,0.037917,-0.067455,0.0080608,0.10993,-0.029613,-0.10045,0.33874,0.13509,0.57419,-0.0070508,-0.40086
0.037157,0.19361,-0.1251,-0.018875,-0.18113,0.5662,0.047919,-0.35894,0.2086,-0.061183,0.37143,-0.84007,-0.0012671,0.052995,-0.039347,0.042717,0.11381,-0.02096,-0.042342,0.42961,0.13287,0.47341,-0.010732,-0.55398
0.047058,0.21455,-0.11977,-0.035563,-0.15611,0.5963,0.027188,-0.29341,0.20555,-0.08754,0.37643,-0.66857,0.0082296,0.068318,-0.010675,0.078912,0.11882,-0.0072363,-0.0089902,0.47522,0.13162,0.36503,-0.0088261,-0.68546
0.053816,0.22099,-0.11109,-0.051123,-0.1204,0.60996,-0.00024598,-0.22834,0.18239,-0.11378,0.3627,-0.63554,0.017932,0.087458,0.0071534,0.10881,0.12357,0.0089951,0.019365,0.47147,0.13436,0.27865,-0.00053339,-0.78057
0.055792,0.21944,-0.1004,-0.061362,-0.081462,0.60893,-0.030442,-0.17134,0.1533,-0.1269,0.33555,-0.76215,0.029328,0.11095,0.010414,0.1184,0.12569,0.023033,0.056204,0.42743,0.14079,0.22706,0.011722,-0.83086
0.05387,0.2217,-0.09019,-0.065335,-0.046249,0.59928,-0.058494,-0.12578,0.13023,-0.11975,0.30247,-0.9825,0.041771,0.13553,0.0043271,0.095394,0.12233,0.030572,0.1015,0.36015,0.14697,0.20122,0.02328,-0.83598
0.050402,0.23637,-0.082842,-0.065674,-0.019475,0.58574,-0.08047,-0.089641,0.11632,-0.097159,0.2637,-1.1667,0.053115,0.1565,-0.0020617,0.038975,0.11156,0.030042,0.14668,0.28754,0.14707,0.18188,0.029703,-0.80173
0.048031,0.2622,-0.079082,-0.066059,-0.0040348,0.56823,-0.096179,-0.059407,0.1064,-0.073583,0.20991,-1.1901,0.061567,0.17107,-0.0025791,-0.035825,0.094235,0.022814,0.18735,0.22493,0.13588,0.15849,0.02929,-0.73624
0.04876,0.28883,-0.077364,-0.068237,-0.0016289,0.54365,-0.11012,-0.034449,0.092987,-0.063005,0.12971,-0.99989,0.067063,0.18018,0.0030013,-0.10383,0.074478,0.011336,0.23204,0.18714,0.11099,0.14039,0.023879,-0.64712
0.053059,0.30414,-0.074892,-0.07128,-0.011853,0.51073,-0.12875,-0.017392,0.072563,-0.068331,0.021948,-0.63124,0.070992,0.18725,0.010789,-0.14285,0.057665,-0.0029114,0.29755,0.19104,0.073735,0.15147,0.017087,-0.54146
0.059165,0.3026,-0.069709,-0.073516,-0.030472,0.47288,-0.15562,-0.010446,0.047221,-0.078735,-0.096613,-0.16783,0.074558,0.19508,0.016637,-0.14587,0.046771,-0.019876,0.39223,0.25154,0.028878,0.2127,0.011077,-0.42752
0.063459,0.28826,-0.062268,-0.074877,-0.049524,0.43617,-0.18862,-0.011626,0.021179,-0.077708,-0.19462,0.31149,0.077303,0.20326,0.018421,-0.12379,0.039757,-0.039889,0.50028,0.36993,-0.016596,0.32556,0.004308,-0.31592
0.062465,0.27016,-0.05518,-0.077099,-0.060708,0.4039,-0.22202,-0.014519,-0.0045008,-0.056348,-0.23951,0.75308,0.077232,0.20818,0.015692,-0.096914,0.030314,-0.062664,0.58185,0.52354,-0.055358,0.46798,-0.0077401,-0.21811
0.055459,0.25438,-0.051196,-0.081458,-0.060093,0.37304,-0.25177,-0.011364,-0.034495,-0.022085,-0.21369,1.1098,0.072566,0.20549,0.0084455,-0.081439,0.011907,-0.08749,0.5933,0.66895,-0.081931,0.60496,-0.029149,-0.14268
0.045482,0.23886,-0.050942,-0.086407,-0.050061,0.33613,-0.27859,0.0038479,-0.07691,0.0038885,-0.12473,1.3211,0.063693,0.19308,-0.0029928,-0.080448,-0.017491,-0.11399,0.51566,0.76227,-0.094814,0.70617,-0.059971,-0.091828
0.037438,0.21517,-0.052187,-0.087778,-0.036245,0.28748,-0.30542,0.034739,-0.13757,-0.00078588,-0.0043454,1.3318,0.053607,0.17235,-0.016985,-0.085239,-0.053126,-0.14181,0.37129,0.78459,-0.097749,0.75894,-0.095335,-0.060728
0.034445,0.17522,-0.051269,-0.081786,-0.021799,0.22842,-0.3313,0.083569,-0.21474,-0.045271,0.10392,1.1437,0.046414,0.14718,-0.030181,-0.084664,-0.085186,-0.1688,0.21533,0.75348,-0.098979,0.76911,-0.12812,-0.040395
0.035501,0.11789,-0.045667,-0.068307,-0.0042961,0.16645,-0.34792,0.15122,-0.29797,-0.11853,0.16255,0.84922,0.045063,0.12174,-0.0389,-0.074503,-0.10341,-0.18935,0.10639,0.70959,-0.10781,0.75023,-0.15322,-0.022295
0.036615,0.050567,-0.0358,-0.051465,0.021375,0.10866,-0.34413,0.23518,-0.3721,-0.19354,0.15517,0.60092,0.049959,0.098747,-0.041459,-0.059841,-0.10192,-0.1956,0.075673,0.68647,-0.12934,0.70892,-0.17024,-0.0016406
0.034481,-0.014927,-0.024778,-0.036957,0.0563,0.055029,-0.31594,0.32773,-0.42415,-0.23951,0.091391,0.52415,0.059193,0.079131,-0.039317,-0.04964,-0.081725,-0.18192,0.1144,0.68599,-0.16034,0.63703,-0.18259,0.022511
0.029369,-0.068618,-0.016332,-0.028406,0.09327,-0.001846,-0.27406,0.41758,-0.44905,-0.23493,-0.0010241,0.63836,0.069763,0.062779,-0.035876,-0.048788,-0.049889,-0.14975,0.18574,0.67768,-0.18938,0.517,-0.19402,0.049822
0.024569,-0.10656,-0.012447,-0.025647,0.11963,-0.06908,-0.24144,0.4951,-0.45062,-0.1755,-0.092263,0.85336,0.078719,0.049359,-0.033937,-0.054112,-0.016158,-0.10879,0.25008,0.62179,-0.20251,0.33817,-0.20515,0.081484
0.022969,-0.13086,-0.012302,-0.025924,0.12564,-0.14411,-0.24081,0.55733,-0.43742,-0.074959,-0.16544,1.0456,0.083799,0.038697,-0.034034,-0.05688,0.01112,-0.07253,0.28525,0.49781,-0.19149,0.11303,-0.21276,0.12091
0.024077,-0.1467,-0.01308,-0.026463,0.11149,-0.21232,-0.28067,0.60819,-0.4165,0.039896,-0.22225,1.1508,0.083873,0.030776,-0.034932,-0.049085,0.027754,-0.051047,0.29033,0.31739,-0.15915,-0.11944,-0.21196,0.17168
0.024359,-0.15885,-0.011933,-0.026179,0.086801,-0.25547,-0.34972,0.6529,-0.38955,0.1376,-0.27722,1.1946,0.079406,0.025583,-0.035464,-0.02859,0.034032,-0.046235,0.27555,0.11391,-0.11803,-0.30917,-0.19937,0.23412
0.020545,-0.1696,-0.0077203,-0.025588,0.063084,-0.26534,-0.42316,0.69091,-0.35359,0.19189,-0.34579,1.2396,0.072549,0.022903,-0.035799,-3.0516e-005,0.032843,-0.052735,0.25005,-0.080924,-0.082872,-0.42129,-0.1751,0.3029
0.01271,-0.17856,-0.0014841,-0.025675,0.045759,-0.25148,-0.4757,0.71292,-0.30526,0.19026,-0.43435,1.301,0.066237,0.022045,-0.037067,0.028089,0.027051,-0.063146,0.21757,-0.25583,-0.062301,-0.45655,-0.14234,0.36761
0.0042167,-0.18364,0.004439,-0.026972,0.032581,-0.23564,-0.49181,0.70414,-0.24479,0.13757,-0.53744,1.3108,0.062515,0.021723,-0.04007,0.047529,0.017874,-0.072834,0.18023,-0.42216,-0.055361,-0.45085,-0.10538,0.41632
-0.0013199,-0.18286,0.0079511,-0.029359,0.019127,-0.23648,-0.46761,0.65128,-0.17704,0.05195,-0.64126,1.1662,0.061283,0.020396,-0.044638,0.053401,0.0051619,-0.080797,0.14359,-0.60077,-0.05471,-0.45324,-0.067581,0.44078
-0.0030903,-0.17596,0.008379,-0.03228,0.0054354,-0.256,-0.40633,0.54851,-0.10958,-0.045686,-0.72926,0.82101,0.060564,0.016995,-0.05033,0.045433,-0.010997,-0.087187,0.11607,-0.8045,-0.05327,-0.49738,-0.03055,0.44027
-0.0033589,-0.1652,0.006696,-0.034993,-0.0028098,-0.27854,-0.31352,0.4002,-0.049823,-0.14195,-0.78595,0.34155,0.058138,0.011423,-0.057644,0.027596,-0.028899,-0.091041,0.10327,-1.0281,-0.049099,-0.58654,0.0052078,0.42174
-0.0049515,-0.15458,0.004818,-0.036774,0.00046773,-0.28278,-0.19638,0.22112,-0.0031412,-0.23377,-0.79875,-0.12336,0.053102,0.0042226,-0.068288,0.0063996,-0.045353,-0.090782,0.10337,-1.2517,-0.04549,-0.70129,0.038945,0.39547
-0.0085672,-0.14774,0.0045287,-0.037098,0.01553,-0.25686,-0.065592,0.03494,0.028033,-0.32175,-0.76013,-0.43561,0.046107,-0.0043503,-0.083911,-0.011764,-0.057245,-0.086536,0.1092,-1.455,-0.047388,-0.82061,0.068609,0.36826
-0.012421,-0.14586,0.0066835,-0.035658,0.036013,-0.20546,0.06469,-0.13015,0.045038,-0.39993,-0.67075,-0.55181,0.038424,-0.014841,-0.1042,-0.023217,-0.063203,-0.081069,0.11592,-1.6308,-0.057576,-0.93647,0.090887,0.33867
-0.014258,-0.14717,0.011019,-0.0321,0.054403,-0.14461,0.18126,-0.25004,0.053543,-0.4513,-0.5414,-0.53527,0.031078,-0.02792,-0.12587,-0.028062,-0.063983,-0.077655,0.1274,-1.7862,-0.075202,-1.0485,0.10244,0.29779
-0.013511,-0.14816,0.01644,-0.025804,0.068367,-0.090671,0.27762,-0.31515,0.062423,-0.45348,-0.39055,-0.49293,0.024879,-0.042994,-0.14336,-0.02897,-0.061367,-0.0767,0.15451,-1.9254,-0.096667,-1.145,0.10153,0.23618
-0.011543,-0.14585,0.021455,-0.016236,0.081658,-0.052866,0.35579,-0.33583,0.079944,-0.39069,-0.23694,-0.49196,0.020857,-0.0576,-0.15113,-0.028749,-0.056685,-0.074698,0.20607,-2.0267,-0.11737,-1.1904,0.088849,0.15274
-0.0099966,-0.13921,0.024567,-0.0038743,0.098742,-0.033777,0.42159,-0.33671,0.10877,-0.26289,-0.091771,-0.52144,0.019953,-0.068647,-0.1461,-0.028818,-0.050307,-0.067128,0.27991,-2.033,-0.13309,-1.1378,0.066791,0.058861
-0.0091869,-0.12926,0.024733,0.0091623,0.1186,-0.03445,0.47722,-0.34171,0.14334,-0.086774,0.043351,-0.52218,0.021806,-0.074793,-0.12922,-0.029872,-0.042393,-0.05298,0.36249,-1.8746,-0.14104,-0.96106,0.037808,-0.025886
-0.0081696,-0.11802,0.021913,0.019833,0.13413,-0.057135,0.51781,-0.35975,0.17226,0.11009,0.17025,-0.45069,0.023927,-0.077947,-0.10533,-0.033742,-0.033898,-0.036725,0.43858,-1.515,-0.14062,-0.68374,0.0032132,-0.084917
-0.0062361,-0.10736,0.017424,0.026206,0.1382,-0.10236,0.53572,-0.38207,0.18492,0.29626,0.28452,-0.31947,0.02267,-0.082324,-0.081315,-0.04407,-0.02661,-0.025583,0.50306,-0.98851,-0.13364,-0.37885,-0.036365,-0.11505
-0.0040653,-0.098362,0.01353,0.029278,0.1309,-0.16343,0.52936,-0.39317,0.17798,0.44129,0.37104,-0.18099,0.015767,-0.091594,-0.06324,-0.064438,-0.022025,-0.024043,0.56465,-0.39762,-0.12299,-0.13359,-0.079195,-0.12853
-0.0031969,-0.091248,0.012151,0.032749,0.12136,-0.22444,0.50869,-0.38563,0.15731,0.52056,0.41013,-0.074844,0.0043801,-0.10637,-0.053795,-0.095207,-0.020098,-0.030109,0.63702,0.13414,-0.11039,-0.002132,-0.12097,-0.14452
-0.0043539,-0.085776,0.01345,0.040467,0.12211,-0.26497,0.49153,-0.36567,0.13434,0.52246,0.39124,0.011247,-0.007321,-0.12401,-0.051449,-0.13179,-0.019121,-0.036278,0.72406,0.52227,-0.094472,0.020419,-0.15522,-0.17581
-0.0064678,-0.081709,0.015521,0.053375,0.14064,-0.26922,0.4924,-0.34509,0.11954,0.45639,0.3242,0.1298,-0.015003,-0.14064,-0.051983,-0.16598,-0.017002,-0.034462,0.81153,0.75051,-0.071347,-0.014732,-0.17557,-0.22012
-0.0076446,-0.079055,0.015781,0.068594,0.17463,-0.23375,0.51199,-0.32788,0.11744,0.35414,0.23903,0.32094,-0.017176,-0.15341,-0.051508,-0.1893,-0.012893,-0.021062,0.87301,0.85243,-0.037484,-0.049618,-0.17839,-0.26217
-0.0072991,-0.077787,0.013189,0.081595,0.21396,-0.16932,0.5353,-0.30537,0.12576,0.25914,0.17322,0.56482,-0.015939,-0.16116,-0.048834,-0.19607,-0.0078376,0.0012521,0.88657,0.86912,0.00693,-0.054233,-0.16375,-0.28461
-0.0073035,-0.077219,0.0094438,0.089754,0.24702,-0.096274,0.5402,-0.26578,0.13807,0.20636,0.15444,0.78078,-0.01497,-0.16341,-0.045405,-0.1847,-0.003887,0.025724,0.84925,0.824,0.056837,-0.031753,-0.13442,-0.2793
-0.010722,-0.075777,0.0079431,0.094253,0.26632,-0.036426,0.51044,-0.21022,0.14761,0.20474,0.18907,0.87446,-0.016604,-0.15937,-0.042977,-0.15781,-0.002422,0.045526,0.77811,0.73311,0.10425,0.0037896,-0.093792,-0.25101
-0.018982,-0.071786,0.011074,0.098624,0.27025,-0.0055428,0.44398,-0.15974,0.14992,0.23458,0.26243,0.79479,-0.020397,-0.14821,-0.041267,-0.12221,-0.0029881,0.056835,0.69707,0.62961,0.14183,0.052513,-0.044737,-0.21182
-0.030018,-0.064916,0.017991,0.10521,0.26114,-0.0092222,0.35194,-0.14475,0.14365,0.26252,0.34863,0.55753,-0.024097,-0.13039,-0.037984,-0.088289,-0.0035181,0.059603,0.62054,0.56497,0.16562,0.13158,0.0097037,-0.17168
-0.039267,-0.056863,0.024847,0.11262,0.24218,-0.043073,0.25021,-0.18328,0.12997,0.26369,0.42286,0.22345,-0.025901,-0.10839,-0.031414,-0.067433,-0.0017509,0.056462,0.54681,0.57491,0.17544,0.25343,0.06442,-0.13258
-0.042899,-0.05015,0.027548,0.11651,0.21513,-0.096297,0.15078,-0.26537,0.11145,0.23545,0.46971,-0.14329,-0.025971,-0.085637,-0.023118,-0.066928,0.0031912,0.050989,0.46585,0.64,0.1735,0.40067,0.11101,-0.089884
-0.040592,-0.045779,0.025021,0.11287,0.17963,-0.15666,0.058774,-0.35661,0.09103,0.19364,0.4847,-0.50023,-0.026042,-0.064552,-0.017782,-0.085196,0.010173,0.046227,0.37364,0.68451,0.1626,0.52349,0.13899,-0.038207
-0.035488,-0.04201,0.020379,0.10116,0.13389,-0.21463,-0.024776,-0.41914,0.071218,0.15622,0.47133,-0.8211,-0.027636,-0.045535,-0.019757,-0.11143,0.016758,0.043741,0.27997,0.62632,0.14516,0.56629,0.13956,0.023453
-0.031476,-0.035962,0.018839,0.084431,0.076257,-0.26525,-0.098622,-0.4342,0.053589,0.12816,0.43707,-1.0773,-0.030502,-0.027981,-0.029046,-0.13136,0.020701,0.043289,0.20268,0.44134,0.12276,0.50452,0.11036,0.09078
-0.030269,-0.026942,0.023772,0.06658,0.0068341,-0.30776,-0.16027,-0.40996,0.038792,0.099571,0.39104,-1.2343,-0.032622,-0.012252,-0.040392,-0.1359,0.021192,0.043277,0.1535,0.18703,0.096008,0.36237,0.058102,0.15674
-0.030745,-0.018166,0.033813,0.049228,-0.071965,-0.34426,-0.2088,-0.37012,0.027011,0.057307,0.34373,-1.2723,-0.031805,-0.00049918,-0.046596,-0.12626,0.019098,0.042024,0.12836,-0.03818,0.064893,0.19602,-0.0029912,0.21479
-0.0308,-0.01457,0.043386,0.030953,-0.15617,-0.37841,-0.24793,-0.3338,0.018584,-0.00050138,0.30667,-1.2107,-0.027621,0.0046822,-0.043505,-0.11154,0.016323,0.039334,0.11139,-0.16704,0.02986,0.055007,-0.056804,0.26063
-0.029685,-0.018164,0.046542,0.00955,-0.24145,-0.41459,-0.28545,-0.30224,0.01427,-0.059563,0.28993,-1.1075,-0.02212,0.0025744,-0.032606,-0.10074,0.014968,0.037343,0.089574,-0.20667,-0.0066658,-0.048276,-0.092047,0.29239
-0.028628,-0.025351,0.041419,-0.014781,-0.32327,-0.45694,-0.32866,-0.26133,0.014863,-0.098272,0.29742,-1.0262,-0.018628,-0.0046251,-0.019313,-0.095724,0.016817,0.039778,0.065419,-0.2179,-0.039754,-0.13702,-0.10631,0.31035
-0.029425,-0.029361,0.031989,-0.03823,-0.39532,-0.50766,-0.37938,-0.1962,0.020393,-0.10337,0.32259,-0.99337,-0.019426,-0.013123,-0.0086549,-0.090698,0.023002,0.049659,0.05561,-0.25241,-0.063566,-0.23827,-0.10533,0.31671
-0.032664,-0.026141,0.025603,-0.055394,-0.44784,-0.56472,-0.43262,-0.10585,0.029638,-0.08032,0.34895,-0.98252,-0.02397,-0.020046,-0.0020321,-0.078028,0.033304,0.066628,0.075289,-0.30447,-0.074524,-0.34781,-0.098338,0.31514
-0.03733,-0.018308,0.027983,-0.062961,-0.46832,-0.61977,-0.47978,-0.006691,0.040548,-0.05084,0.3571,-0.93918,-0.02906,-0.024939,0.0026834,-0.054838,0.045098,0.085668,0.11992,-0.31831,-0.073786,-0.42208,-0.092768,0.30986
-0.04193,-0.013087,0.039261,-0.062075,-0.44593,-0.65782,-0.51346,0.077269,0.05142,-0.039622,0.33518,-0.82774,-0.030951,-0.029089,0.0084715,-0.024802,0.052878,0.098407,0.15962,-0.24093,-0.066927,-0.407,-0.091207,0.30458
-0.045699,-0.015709,0.053928,-0.057481,-0.37805,-0.66051,-0.53054,0.1309,0.061899,-0.059813,0.2862,-0.66059,-0.027924,-0.033597,0.016628,0.0058732,0.049596,0.096681,0.15206,-0.071486,-0.060856,-0.28375,-0.091613,0.30134
-0.04862,-0.024283,0.064625,-0.054158,-0.27479,-0.61331,-0.53227,0.15984,0.072794,-0.10656,0.22664,-0.48684,-0.021499,-0.038082,0.026366,0.034203,0.029925,0.076497,0.066255,0.13499,-0.060181,-0.09565,-0.089552,0.29946
-0.050485,-0.031105,0.066895,-0.054143,-0.15766,-0.51484,-0.52298,0.18973,0.084609,-0.16161,0.17702,-0.35271,-0.015384,-0.041033,0.036264,0.06284,-0.0062408,0.040067,-0.098097,0.30885,-0.065482,0.067787,-0.080565,0.29446
-0.05036,-0.029455,0.061564,-0.055894,-0.051785,-0.38234,-0.50885,0.25267,0.095937,-0.20459,0.15016,-0.26801,-0.012979,-0.041158,0.045654,0.097416,-0.052571,-0.00531,-0.30763,0.41331,-0.074044,0.12305,-0.061562,0.27808
-0.047322,-0.01973,0.053421,-0.056322,0.024842,-0.24774,-0.49648,0.36875,0.1032,-0.22367,0.14488,-0.20466,-0.015228,-0.038337,0.05454,0.14134,-0.09874,-0.050746,-0.50997,0.45861,-0.081577,0.045845,-0.03124,0.24118
-0.041864,-0.0092664,0.047663,-0.053515,0.069101,-0.14344,-0.49,0.53363,0.10235,-0.2199,0.14812,-0.12314,-0.020239,-0.03346,0.062403,0.19208,-0.13537,-0.089362,-0.65679,0.47687,-0.083347,-0.11303,0.0099043,0.17957
-0.036405,-0.0060203,0.046854,-0.047896,0.092635,-0.085169,-0.48737,0.71897,0.091381,-0.20473,0.14279,-0.00068013,-0.024724,-0.027639,0.067563,0.24138,-0.15839,-0.11793,-0.72268,0.48665,-0.074687,-0.26258,0.059511,0.099774
-0.034067,-0.011828,0.05023,-0.041215,0.11372,-0.063918,-0.47939,0.88501,0.07187,-0.19314,0.11586,0.16075,-0.026046,-0.021678,0.068194,0.27876,-0.17001,-0.13612,-0.7117,0.48083,-0.052137,-0.33455,0.11318,0.019938
-0.036481,-0.021204,0.055105,-0.034696,0.14596,-0.053975,-0.45453,0.99757,0.04821,-0.19665,0.062882,0.34643,-0.023525,-0.016152,0.06433,0.29608,-0.17597,-0.14476,-0.65066,0.44611,-0.015735,-0.33077,0.16438,-0.037033
-0.042364,-0.026396,0.058806,-0.028144,0.19086,-0.032155,-0.40831,1.041,0.0251,-0.219,-0.01138,0.54319,-0.018463,-0.011686,0.058843,0.29095,-0.18109,-0.14476,-0.57461,0.39238,0.029066,-0.32173,0.20503,-0.05506
-0.048068,-0.02385,0.059804,-0.020627,0.23864,0.0058081,-0.35073,1.0214,0.0051321,-0.25569,-0.094761,0.74124,-0.013219,-0.0089752,0.056007,0.2673,-0.18651,-0.13752,-0.51207,0.36223,0.072316,-0.39707,0.22716,-0.033867
-0.049761,-0.016359,0.057821,-0.011781,0.27592,0.043827,-0.30432,0.96125,-0.011832,-0.29685,-0.17112,0.92546,-0.010021,-0.0085031,0.058403,0.23318,-0.18998,-0.12583,-0.47597,0.41043,0.10407,-0.60246,0.22589,0.011117
-0.045722,-0.0095992,0.053506,-0.0023314,0.2943,0.058887,-0.2917,0.88799,-0.02722,-0.33159,-0.22544,1.0695,-0.010006,-0.010291,0.064657,0.19657,-0.18871,-0.114,-0.46278,0.56976,0.11997,-0.90568,0.20223,0.058067
-0.037269,-0.0068715,0.048123,0.0065757,0.29393,0.03757,-0.32037,0.82289,-0.041544,-0.35187,-0.24963,1.1423,-0.012761,-0.013844,0.070154,0.16167,-0.1821,-0.10637,-0.45865,0.82958,0.12396,-1.2132,0.16385,0.090713
-0.027862,-0.0070519,0.043202,0.014422,0.28088,-0.017062,-0.37581,0.77406,-0.053252,-0.35403,-0.24674,1.124,-0.016565,-0.018174,0.070451,0.1279,-0.17238,-0.10517,-0.44889,1.1413,0.12556,-1.424,0.12241,0.10477
-0.021042,-0.0070987,0.039949,0.021662,0.26192,-0.091161,-0.42889,0.7366,-0.059618,-0.3383,-0.23047,1.0188,-0.019282,-0.021823,0.064724,0.092358,-0.16284,-0.10924,-0.42627,1.4432,0.13372,-1.4834,0.08833,0.10544
-0.018429,-0.0059374,0.038641,0.029149,0.24153,-0.17066,-0.45249,0.69936,-0.059102,-0.30712,-0.21993,0.85576,-0.019458,-0.023097,0.056358,0.05383,-0.15533,-0.11475,-0.3948,1.6843,0.1512,-1.4049,0.065992,0.0996
-0.01882,-0.0055271,0.038445,0.037378,0.22255,-0.24712,-0.43513,0.65408,-0.053425,-0.26389,-0.23224,0.67621,-0.016917,-0.0208,0.05013,0.01513,-0.149,-0.11764,-0.36778,1.8345,0.17345,-1.2511,0.052341,0.089531
-0.018919,-0.0081737,0.037935,0.046316,0.20774,-0.31657,-0.38226,0.60011,-0.047554,-0.21234,-0.27692,0.51571,-0.012521,-0.015293,0.048331,-0.017947,-0.14127,-0.11623,-0.3616,1.881,0.19196,-1.0932,0.039811,0.07276
-0.015403,-0.013202,0.035959,0.055744,0.19916,-0.37642,-0.30612,0.54102,-0.047147,-0.15595,-0.35425,0.38805,-0.0074898,-0.0090504,0.049099,-0.040038,-0.13025,-0.11221,-0.38824,1.8216,0.19927,-0.97686,0.021393,0.046941
-0.007256,-0.016805,0.032332,0.065479,0.19512,-0.4258,-0.21441,0.47572,-0.054878,-0.096844,-0.45698,0.28026,-0.002954,-0.0058772,0.048294,-0.049031,-0.11681,-0.10943,-0.44984,1.6628,0.19224,-0.91188,-0.0054518,0.014679
0.0031524,-0.015584,0.028041,0.07511,0.18857,-0.46869,-0.10786,0.39272,-0.068256,-0.034798,-0.57264,0.16317,3.5012e-005,-0.0088355,0.043208,-0.046142,-0.10468,-0.1111,-0.53739,1.4217,0.17242,-0.88318,-0.037971,-0.016113
0.011244,-0.010391,0.024911,0.083775,0.1698,-0.51425,0.012315,0.27492,-0.080782,0.032389,-0.68474,0.015007,0.00055325,-0.01809,0.034865,-0.03374,-0.098367,-0.11735,-0.63407,1.1245,0.14433,-0.86728,-0.069936,-0.036507
0.013222,-0.0064456,0.024797,0.090732,0.1326,-0.57114,0.13554,0.11354,-0.086002,0.10659,-0.77301,-0.15501,-0.0016126,-0.030311,0.02708,-0.013271,-0.0998,-0.12453,-0.72183,0.79946,0.11325,-0.84171,-0.094208,-0.041761
0.0089088,-0.0092207,0.028331,0.096645,0.079007,-0.63947,0.24144,-0.07944,-0.081594,0.18632,-0.81512,-0.30127,-0.0052148,-0.040386,0.023319,0.014792,-0.10595,-0.12654,-0.78825,0.47009,0.083507,-0.78615,-0.10473,-0.033032
0.0021895,-0.019671,0.033725,0.10432,0.018375,-0.70748,0.30987,-0.27162,-0.070358,0.26548,-0.79221,-0.36419,-0.0076588,-0.044518,0.024242,0.049204,-0.10898,-0.11736,-0.83031,0.15376,0.057171,-0.68266,-0.09796,-0.014313
-0.0015828,-0.033245,0.036664,0.11754,-0.038646,-0.75664,0.33368,-0.4254,-0.05729,0.33522,-0.69754,-0.3099,-0.0064827,-0.042601,0.027881,0.086251,-0.099477,-0.093338,-0.8527,-0.13405,0.033371,-0.52097,-0.074212,0.012711
0.00049629,-0.043688,0.032101,0.13817,-0.086227,-0.77104,0.32373,-0.5176,-0.045157,0.3882,-0.54373,-0.15918,-0.0012918,-0.038093,0.031936,0.11987,-0.071162,-0.054449,-0.86145,-0.37744,0.008543,-0.30577,-0.038607,0.051431
0.0066442,-0.04822,0.017406,0.16335,-0.12481,-0.74383,0.30187,-0.54896,-0.032358,0.42229,-0.36253,0.017958,0.0055639,-0.035393,0.035785,0.14375,-0.024519,-0.0044359,-0.85692,-0.56615,-0.02189,-0.057712,-0.00041829,0.10817
0.011705,-0.049388,-0.0052985,0.18544,-0.15762,-0.67646,0.28746,-0.53739,-0.014975,0.44092,-0.19425,0.141,0.010401,-0.036631,0.040368,0.15398,0.032986,0.049933,-0.83111,-0.70687,-0.060788,0.19569,0.029881,0.18654
0.011108,-0.05201,-0.029766,0.19528,-0.18615,-0.57401,0.2874,-0.50187,0.0088004,0.44983,-0.071404,0.16306,0.010652,-0.04029,0.046297,0.15068,0.090286,0.10056,-0.77228,-0.82733,-0.10685,0.43368,0.044752,0.28233
0.0043988,-0.058132,-0.049319,0.18713,-0.20871,-0.44252,0.29603,-0.45089,0.035862,0.45261,-0.0059467,0.087868,0.0062691,-0.042688,0.052247,0.13753,0.13767,0.14061,-0.6743,-0.96421,-0.15401,0.64936,0.042373,0.38269
-0.0043817,-0.064729,-0.060949,0.1619,-0.22219,-0.29105,0.30293,-0.38312,0.05964,0.4483,0.012031,-0.049751,-0.0010286,-0.041119,0.055397,0.11953,0.17038,0.16731,-0.5445,-1.1396,-0.19342,0.84446,0.026164,0.4698
-0.0096165,-0.066285,-0.066506,0.12646,-0.2244,-0.13462,0.30146,-0.2968,0.074642,0.43298,0.0043223,-0.2193,-0.0097605,-0.036159,0.053724,0.10065,0.18907,0.18318,-0.40392,-1.3439,-0.21736,1.0176,0.0015367,0.5265
-0.0078966,-0.059956,-0.069947,0.089573,-0.21446,0.007191,0.29173,-0.19695,0.080139,0.4038,-0.0086645,-0.41433,-0.019884,-0.031341,0.048129,0.082544,0.19751,0.19435,-0.2788,-1.5401,-0.22306,1.1582,-0.027495,0.54055
0.00014058,-0.048727,-0.073114,0.057373,-0.19223,0.11762,0.27753,-0.09372,0.079871,0.36237,-0.015456,-0.64242,-0.03207,-0.030502,0.042415,0.065298,0.19951,0.20644,-0.18857,-1.6876,-0.21457,1.2523,-0.05937,0.50641
0.0108,-0.039754,-0.073941,0.031388,-0.15901,0.19074,0.26133,0.0056858,0.078302,0.31414,-0.012451,-0.89903,-0.04592,-0.034852,0.040849,0.049304,0.19716,0.22055,-0.13824,-1.7655,-0.20129,1.2972,-0.093551,0.42551
0.019757,-0.03921,-0.068813,0.009929,-0.11979,0.23362,0.24205,0.10298,0.076945,0.26353,0.0013636,-1.152,-0.059061,-0.0419,0.045091,0.036465,0.19096,0.2325,-0.12015,-1.7774,-0.19387,1.3099,-0.12873,0.30657
0.023941,-0.047754,-0.056941,-0.008814,-0.084225,0.26031,0.21699,0.20693,0.073996,0.20851,0.027527,-1.3509,-0.068218,-0.046959,0.05286,0.029442,0.18099,0.23608,-0.12305,-1.7364,-0.19949,1.3195,-0.16277,0.16569
0.022152,-0.0601,-0.042592,-0.024648,-0.063184,0.28269,0.18548,0.32549,0.06718,0.1397,0.066616,-1.453,-0.071436,-0.046116,0.059394,0.029356,0.16795,0.2278,-0.14101,-1.6477,-0.21881,1.3486,-0.19429,0.024678
0.015004,-0.068853,-0.032752,-0.03567,-0.061979,0.3049,0.15073,0.4584,0.056768,0.047045,0.11486,-1.4443,-0.069566,-0.038709,0.060669,0.033925,0.15315,0.20939,-0.17523,-1.5082,-0.24612,1.3955,-0.2235,-0.093616
0.0048824,-0.069631,-0.031919,-0.040284,-0.075708,0.32455,0.11791,0.59503,0.045687,-0.068742,0.16293,-1.3419,-0.065743,-0.02779,0.056079,0.037876,0.13799,0.1862,-0.22756,-1.3229,-0.27194,1.4321,-0.25071,-0.17168
-0.0044159,-0.063786,-0.038322,-0.039,-0.091777,0.33771,0.089669,0.71736,0.036613,-0.18798,0.19859,-1.1793,-0.063334,-0.018304,0.04875,0.03556,0.12346,0.16305,-0.29145,-1.116,-0.2865,1.4205,-0.27306,-0.20254
-0.0090881,-0.056997,-0.044846,-0.034578,-0.098799,0.34223,0.062485,0.80524,0.028865,-0.27511,0.21162,-0.98873,-0.064031,-0.014094,0.043455,0.023835,0.1103,0.14153,-0.34845,-0.92074,-0.28254,1.3373,-0.2832,-0.19107
-0.0075175,-0.054982,-0.044038,-0.030581,-0.094991,0.33728,0.02697,0.84212,0.018259,-0.29488,0.19836,-0.79034,-0.06744,-0.015528,0.043658,0.003109,0.099492,0.12076,-0.37412,-0.75045,-0.25696,1.1904,-0.27198,-0.15095
-0.0016118,-0.059484,-0.033285,-0.02959,-0.08892,0.3216,-0.027006,0.82079,0.00046673,-0.23354,0.16386,-0.59027,-0.072141,-0.019232,0.049627,-0.023748,0.092508,0.10052,-0.35012,-0.57884,-0.21159,1.0177,-0.23453,-0.0993
0.0042844,-0.067317,-0.016231,-0.032261,-0.091797,0.2946,-0.10307,0.74823,-0.024716,-0.11186,0.12057,-0.38545,-0.077004,-0.020212,0.058546,-0.05308,0.090854,0.083347,-0.27473,-0.35518,-0.15312,0.86957,-0.17472,-0.05166
0.0065422,-0.072989,0.00034932,-0.037531,-0.10787,0.26035,-0.19383,0.64555,-0.051819,0.020215,0.083683,-0.17191,-0.081551,-0.015055,0.066271,-0.080907,0.094891,0.073297,-0.16487,-0.050271,-0.091452,0.78492,-0.10408,-0.018831
0.0050224,-0.072835,0.011474,-0.043457,-0.13091,0.22992,-0.28276,0.5402,-0.07245,0.10616,0.065309,0.045307,-0.085323,-0.004142,0.069499,-0.10201,0.10269,0.072536,-0.048594,0.30196,-0.036265,0.77273,-0.03518,-0.0059009
0.0029891,-0.067553,0.016797,-0.048056,-0.14939,0.2176,-0.35213,0.45279,-0.080479,0.1102,0.071148,0.24547,-0.087251,0.0086742,0.067204,-0.10926,0.10983,0.078882,0.047225,0.60645,0.0070252,0.80779,0.025777,-0.012842
0.0040624,-0.061279,0.019539,-0.049883,-0.15543,0.23168,-0.39204,0.38701,-0.075708,0.0336,0.10242,0.39578,-0.086042,0.018702,0.06076,-0.095132,0.11064,0.086695,0.10672,0.76074,0.039357,0.84153,0.080904,-0.036057
0.008793,-0.058075,0.022977,-0.048415,-0.15026,0.26701,-0.40398,0.33118,-0.063099,-0.088853,0.16107,0.46791,-0.081471,0.023501,0.052881,-0.055421,0.1006,0.090284,0.12762,0.72659,0.066046,0.8233,0.13554,-0.070252
0.013889,-0.058699,0.027717,-0.044241,-0.14245,0.30662,-0.39635,0.27101,-0.048176,-0.20867,0.2519,0.45947,-0.075304,0.024216,0.046073,0.0065708,0.078452,0.086832,0.11651,0.56678,0.0916,0.72267,0.19021,-0.10997
0.014826,-0.060201,0.031942,-0.038889,-0.14149,0.3333,-0.37524,0.20341,-0.032412,-0.2871,0.37685,0.40415,-0.070653,0.024273,0.041503,0.078535,0.046709,0.076518,0.080996,0.41641,0.11507,0.54274,0.23671,-0.15028
0.0095888,-0.058505,0.033949,-0.034175,-0.1519,0.3429,-0.33798,0.13933,-0.012572,-0.3095,0.52377,0.35908,-0.069932,0.026572,0.038906,0.14206,0.010007,0.060354,0.024372,0.40391,0.12991,0.31774,0.26212,-0.18655
0.0003616,-0.051704,0.034295,-0.031306,-0.17114,0.34836,-0.27496,0.092608,0.015212,-0.28532,0.66035,0.37469,-0.07305,0.031384,0.037423,0.17935,-0.027642,0.038305,-0.054195,0.57311,0.12898,0.09598,0.25784,-0.21403
-0.0081706,-0.041428,0.035442,-0.030329,-0.19106,0.36998,-0.1789,0.064958,0.04997,-0.23728,0.74264,0.46725,-0.077487,0.036523,0.036551,0.18077,-0.064609,0.0096401,-0.15468,0.85651,0.11112,-0.082509,0.22644,-0.22758
-0.012353,-0.031422,0.039295,-0.030364,-0.20098,0.41881,-0.054812,0.040669,0.083803,-0.18794,0.73693,0.61366,-0.080381,0.039404,0.036261,0.14929,-0.10116,-0.025052,-0.27075,1.1156,0.083946,-0.20171,0.18051,-0.22168
-0.011987,-0.024821,0.045078,-0.030483,-0.19119,0.48586,0.077373,-0.0035263,0.10545,-0.15079,0.64062,0.77094,-0.080862,0.039133,0.036157,0.099341,-0.13736,-0.062495,-0.38816,1.2205,0.060363,-0.27079,0.13423,-0.1908
-0.0099031,-0.022306,0.049667,-0.030471,-0.1565,0.54635,0.19045,-0.081844,0.10729,-0.12829,0.48566,0.90334,-0.080637,0.036915,0.034514,0.050136,-0.17141,-0.097574,-0.48853,1.1217,0.050995,-0.3125,0.094554,-0.13008
-0.0094165,-0.022191,0.050152,-0.030784,-0.09903,0.57656,0.26382,-0.19017,0.090731,-0.11513,0.31974,0.99622,-0.082323,0.034717,0.028377,0.016873,-0.1999,-0.12571,-0.55596,0.8733,0.058082,-0.34778,0.058608,-0.037601
-0.011941,-0.021808,0.046344,-0.031697,-0.02829,0.57072,0.29541,-0.31105,0.066001,-0.10334,0.1783,1.0497,-0.087065,0.033656,0.0151,0.0043424,-0.21957,-0.14466,-0.58239,0.60176,0.074998,-0.38608,0.018764,0.081953
-0.016514,-0.018912,0.040981,-0.032487,0.042705,0.54554,0.30396,-0.42694,0.046524,-0.086245,0.067637,1.064,-0.093459,0.033583,-0.005596,0.0064663,-0.22879,-0.15439,-0.56878,0.43895,0.091287,-0.4251,-0.029336,0.21354
-0.021126,-0.012436,0.037518,-0.031622,0.10343,0.52862,0.31953,-0.52935,0.041551,-0.060564,-0.029537,1.0342,-0.098509,0.033928,-0.030577,0.011743,-0.2275,-0.15577,-0.52291,0.45651,0.099159,-0.45675,-0.082355,0.33161
-0.024373,-0.0027366,0.037414,-0.028092,0.14996,0.53916,0.36638,-0.61702,0.051712,-0.026847,-0.13327,0.96016,-0.099506,0.034584,-0.054251,0.010997,-0.21617,-0.14955,-0.45581,0.63311,0.097018,-0.47358,-0.13121,0.40661
-0.026065,0.0084347,0.039119,-0.022828,0.18407,0.57468,0.44755,-0.68766,0.069709,0.010845,-0.24913,0.86238,-0.095255,0.035733,-0.071105,0.0024387,-0.19553,-0.13647,-0.37881,0.86977,0.088479,-0.47166,-0.16682,0.41783
-0.026667,0.018467,0.039402,-0.018726,0.20854,0.61261,0.54047,-0.73338,0.085068,0.045853,-0.36807,0.7855,-0.086069,0.036956,-0.078259,-0.0089836,-0.16758,-0.11789,-0.30118,1.0443,0.078807,-0.44975,-0.18476,0.36668
-0.026463,0.025111,0.035825,-0.018758,0.22309,0.62522,0.60749,-0.74525,0.089734,0.070718,-0.47994,0.78297,-0.073179,0.036887,-0.076421,-0.016838,-0.13663,-0.095956,-0.22799,1.0749,0.071867,-0.40659,-0.18564,0.28173
-0.025334,0.027895,0.028508,-0.023401,0.22506,0.59732,0.61615,-0.7222,0.081431,0.079937,-0.58508,0.88981,-0.058303,0.034186,-0.068702,-0.018704,-0.1086,-0.073175,-0.15932,0.95808,0.069259,-0.33853,-0.17221,0.20923
-0.023166,0.028601,0.020083,-0.029581,0.21399,0.53508,0.55701,-0.67483,0.063477,0.072699,-0.69134,1.1001,-0.04332,0.029024,-0.058225,-0.017615,-0.08812,-0.051974,-0.092895,0.75805,0.070975,-0.23942,-0.14603,0.1911
-0.020267,0.030161,0.014054,-0.032456,0.19546,0.46125,0.44778,-0.6197,0.041866,0.053815,-0.79947,1.3622,-0.029572,0.023492,-0.046278,-0.018626,-0.075738,-0.034577,-0.030388,0.55914,0.076118,-0.10371,-0.10661,0.24166
-0.017291,0.034662,0.012718,-0.028975,0.1794,0.40087,0.32117,-0.56904,0.021701,0.031586,-0.89226,1.5952,-0.016926,0.020233,-0.03233,-0.023755,-0.067803,-0.022777,0.016877,0.41416,0.08305,0.067562,-0.05318,0.33752
-0.014767,0.042039,0.015897,-0.02042,0.17323,0.36724,0.20559,-0.52492,0.0049873,0.013259,-0.94066,1.7204,-0.0036083,0.020368,-0.015795,-0.029869,-0.059488,-0.01719,0.028937,0.32401,0.08963,0.26121,0.012256,0.42874
-0.012795,0.050493,0.02113,-0.011688,0.17538,0.35609,0.11229,-0.48272,-0.0093174,0.00080615,-0.92447,1.6956,0.012465,0.022598,0.0019964,-0.031436,-0.048618,-0.016448,-0.012152,0.25697,0.094159,0.4511,0.083069,0.46608
-0.011215,0.058042,0.025134,-0.0077364,0.17498,0.35021,0.036688,-0.43929,-0.02362,-0.0098697,-0.85117,1.5382,0.031554,0.024335,0.017443,-0.025687,-0.03702,-0.017463,-0.10718,0.18461,0.096542,0.60501,0.14894,0.42804
-0.010004,0.063705,0.025596,-0.010073,0.15905,0.33034,-0.029675,-0.39778,-0.039766,-0.025274,-0.75597,1.3201,0.051045,0.023892,0.026533,-0.015465,-0.028283,-0.017116,-0.23125,0.10114,0.098362,0.6974,0.19962,0.33058
-0.0093737,0.067419,0.022188,-0.016136,0.12201,0.28566,-0.087737,-0.36476,-0.05795,-0.048521,-0.6811,1.1344,0.066765,0.021774,0.027633,-0.0070191,-0.02401,-0.014136,-0.34061,0.01317,0.10129,0.72185,0.22942,0.21375
-0.0094027,0.069335,0.016277,-0.021846,0.070629,0.21892,-0.12887,-0.34375,-0.076565,-0.075782,-0.649,1.0458,0.07589,0.020012,0.02293,-0.004608,-0.021921,-0.0092718,-0.39277,-0.083268,0.10497,0.69615,0.23931,0.11493
-0.0096104,0.069692,0.0097253,-0.024848,0.020871,0.14457,-0.14185,-0.33239,-0.092444,-0.098276,-0.64892,1.054,0.079033,0.020208,0.017069,-0.0067755,-0.017377,-0.0032885,-0.3673,-0.2098,0.10635,0.65663,0.23494,0.04797
-0.0090627,0.069514,0.0037669,-0.025598,-0.010573,0.081958,-0.12134,-0.32623,-0.10134,-0.10908,-0.64584,1.0972,0.079632,0.021977,0.013784,-0.0077939,-0.0067507,0.00543,-0.273,-0.38602,0.10146,0.64351,0.22183,0.001937
-0.0071,0.070925,-0.0012839,-0.025671,-0.014192,0.046908,-0.071372,-0.32486,-0.099105,-0.11003,-0.60405,1.0934,0.081135,0.023019,0.013147,-0.0030758,0.01042,0.021129,-0.13706,-0.60082,0.088371,0.68338,0.20176,-0.041591
-0.0040791,0.075955,-0.0055952,-0.025322,0.0091722,0.045351,-0.0030953,-0.33348,-0.083903,-0.1129,-0.50861,0.98963,0.084525,0.020637,0.011754,0.0063099,0.032262,0.048034,0.01443,-0.80365,0.06884,0.77602,0.17366,-0.088455
-0.001361,0.084365,-0.0093292,-0.022824,0.049841,0.071335,0.068962,-0.35737,-0.05839,-0.1329,-0.37223,0.78447,0.088477,0.013524,0.0058665,0.014123,0.057248,0.086882,0.16901,-0.92693,0.047315,0.89198,0.13827,-0.12614
-0.00039842,0.092676,-0.012618,-0.016223,0.093043,0.11021,0.12939,-0.3938,-0.029756,-0.17817,-0.22652,0.50856,0.091928,0.0026433,-0.0050347,0.014032,0.085986,0.1337,0.32471,-0.92287,0.028107,0.98347,0.10217,-0.13706
-0.0016317,0.096067,-0.015823,-0.0057334,0.12319,0.14563,0.16439,-0.42882,-0.0063548,-0.24285,-0.10611,0.18738,0.096397,-0.0092304,-0.017296,0.0048391,0.12023,0.18197,0.47655,-0.78633,0.013074,1.006,0.076625,-0.11916
-0.0041389,0.09221,-0.01953,0.0055431,0.12874,0.1672,0.16645,-0.44249,0.0075174,-0.30943,-0.034634,-0.17712,0.10543,-0.018961,-0.025651,-0.008542,0.15988,0.22628,0.60656,-0.55097,0.0014423,0.94091,0.070841,-0.095255
-0.0063292,0.083865,-0.024052,0.013324,0.10723,0.17508,0.13947,-0.41905,0.014745,-0.3592,-0.017054,-0.58926,0.12126,-0.024692,-0.02724,-0.018811,0.2007,0.26418,0.68789,-0.26995,-0.0086051,0.80745,0.084761,-0.10173
-0.0070337,0.077551,-0.028925,0.014829,0.067857,0.17881,0.098844,-0.35478,0.02337,-0.38331,-0.038219,-1.0266,0.14176,-0.026823,-0.023846,-0.021247,0.23498,0.29503,0.70071,-0.00088721,-0.018241,0.65468,0.10737,-0.16427
-0.0060516,0.078898,-0.03301,0.010312,0.028082,0.19095,0.06293,-0.25862,0.040419,-0.38619,-0.067101,-1.4283,0.16123,-0.027681,-0.020607,-0.015987,0.25517,0.31753,0.64708,0.19903,-0.027504,0.53786,0.1227,-0.27942
-0.0038168,0.088327,-0.035238,0.002445,0.0043618,0.21883,0.040354,-0.14607,0.066417,-0.37888,-0.066725,-1.7212,0.17513,-0.029861,-0.022407,-0.0066344,0.25804,0.32886,0.55219,0.27894,-0.035889,0.49211,0.11957,-0.41632
-0.00073975,0.10075,-0.035278,-0.0056454,0.0023741,0.25982,0.023458,-0.031182,0.095231,-0.36808,-0.0083213,-1.8655,0.18509,-0.034109,-0.030717,0.0026437,0.24648,0.32662,0.45016,0.21218,-0.043025,0.51896,0.097892,-0.53625
0.0029758,0.10959,-0.03343,-0.01206,0.014297,0.30322,-0.0048486,0.077985,0.11928,-0.34997,0.11544,-1.8778,0.19911,-0.03824,-0.04298,0.0088618,0.22763,0.31172,0.36463,0.018014,-0.048776,0.59253,0.067147,-0.6145
0.0068698,0.11174,-0.029866,-0.016519,0.02595,0.338,-0.054581,0.17858,0.13529,-0.31366,0.2852,-1.8127,0.22582,-0.03824,-0.0544,0.010136,0.20885,0.28915,0.29785,-0.2354,-0.052982,0.6785,0.038819,-0.64851
0.0097708,0.10922,-0.024193,-0.019657,0.028409,0.36052,-0.11579,0.26848,0.14539,-0.25074,0.4619,-1.7194,0.26674,-0.031209,-0.060534,0.0051053,0.19419,0.26542,0.23514,-0.46063,-0.055398,0.7525,0.018804,-0.6495
0.010121,0.10647,-0.016087,-0.022113,0.024389,0.37641,-0.16121,0.34204,0.1528,-0.16272,0.6033,-1.6112,0.31297,-0.018148,-0.059127,-0.0068177,0.18342,0.24463,0.16005,-0.59812,-0.055967,0.80739,0.0054644,-0.62817
0.0070807,0.10599,-0.0065217,-0.024104,0.023952,0.39424,-0.16406,0.38958,0.15673,-0.060349,0.6818,-1.472,0.34998,-0.0041962,-0.050668,-0.024518,0.17373,0.22641,0.06824,-0.64532,-0.055058,0.84865,-0.0060658,-0.58795
0.0015156,0.10622,0.0018358,-0.025523,0.033652,0.41604,-0.11759,0.40114,0.152,0.043601,0.69423,-1.2871,0.36708,0.0044569,-0.037823,-0.044808,0.16234,0.20739,-0.029509,-0.64329,-0.053324,0.88412,-0.017626,-0.5296
-0.004133,0.10367,0.006011,-0.026257,0.049363,0.43247,-0.040586,0.37239,0.134,0.14116,0.65898,-1.0645,0.36444,0.0050792,-0.024053,-0.063349,0.14814,0.18469,-0.11589,-0.63182,-0.051339,0.91606,-0.025259,-0.45942
-0.0072022,0.096725,0.0050845,-0.026435,0.059662,0.42767,0.036018,0.30832,0.10428,0.2297,0.60318,-0.82693,0.35225,0.00085439,-0.0119,-0.07638,0.13171,0.15832,-0.17938,-0.61271,-0.049394,0.93935,-0.022029,-0.39072
-0.0064354,0.087715,0.0014267,-0.026461,0.056545,0.39083,0.09099,0.22203,0.07112,0.30701,0.54789,-0.58844,0.34269,-0.0010307,-0.0018256,-0.082241,0.11423,0.13083,-0.22071,-0.55444,-0.047611,0.94525,-0.0038185,-0.33571
-0.0026691,0.081092,-0.00067872,-0.026789,0.042917,0.32534,0.12607,0.12864,0.043891,0.36712,0.50008,-0.34377,0.34157,0.0053942,0.007429,-0.08213,0.096499,0.10493,-0.24935,-0.43382,-0.046132,0.92734,0.026687,-0.29592
0.0018709,0.079647,0.0017683,-0.027495,0.028921,0.24777,0.16109,0.038278,0.026114,0.40273,0.45599,-0.087251,0.34575,0.020327,0.016991,-0.08004,0.078583,0.081718,-0.27391,-0.27521,-0.045144,0.88509,0.060884,-0.26108
0.0050351,0.082224,0.0081009,-0.028009,0.019753,0.17685,0.21617,-0.047789,0.013396,0.41289,0.41229,0.1587,0.34759,0.038044,0.02601,-0.081714,0.059976,0.060556,-0.29447,-0.14875,-0.044819,0.82253,0.089076,-0.2186
0.0058891,0.084953,0.014585,-0.027414,0.0062317,0.12109,0.29601,-0.13552,-0.001988,0.40902,0.37561,0.33887,0.34164,0.051399,0.031698,-0.092301,0.040024,0.040228,-0.3023,-0.125,-0.045383,0.74263,0.10558,-0.16539
0.004873,0.08465,0.017617,-0.025382,-0.032145,0.074786,0.38768,-0.23257,-0.024124,0.4115,0.36127,0.39821,0.32789,0.057256,0.031599,-0.11323,0.018527,0.019751,-0.28664,-0.22266,-0.047288,0.64215,0.11079,-0.11138
0.0031442,0.081167,0.016798,-0.022982,-0.11268,0.025454,0.47123,-0.34243,-0.050347,0.43725,0.38024,0.32768,0.30971,0.058348,0.026192,-0.14019,-0.0035053,-0.0016642,-0.24312,-0.3926,-0.051168,0.51235,0.10952,-0.071597
0.0017463,0.076757,0.015221,-0.022371,-0.23472,-0.033865,0.53267,-0.46148,-0.07444,0.48635,0.42375,0.18012,0.28947,0.060172,0.019254,-0.16417,-0.023497,-0.02486,-0.17852,-0.55052,-0.057442,0.34697,0.10754,-0.054334
0.0011574,0.073474,0.016795,-0.025192,-0.37648,-0.097621,0.56914,-0.57948,-0.092756,0.53857,0.45947,0.035912,0.26649,0.065887,0.015324,-0.1758,-0.038293,-0.050518,-0.10982,-0.63137,-0.065845,0.15182,0.10865,-0.056144
0.0013645,0.071364,0.022967,-0.030888,-0.50597,-0.15155,0.58484,-0.68214,-0.10744,0.56358,0.44614,-0.055599,0.23907,0.07373,0.016383,-0.17011,-0.046699,-0.07886,-0.058762,-0.62453,-0.075393,-0.052861,0.11367,-0.067417
0.0022591,0.069057,0.031638,-0.036631,-0.59745,-0.18357,0.58415,-0.75352,-0.12388,0.53872,0.359,-0.10635,0.20777,0.078914,0.020762,-0.14822,-0.052121,-0.11003,-0.044697,-0.56932,-0.084845,-0.24246,0.12111,-0.082277
0.0040002,0.0658,0.038994,-0.039332,-0.64167,-0.19254,0.5683,-0.77808,-0.1451,0.46187,0.20868,-0.15998,0.17637,0.077743,0.025227,-0.115,-0.062623,-0.14501,-0.077776,-0.52223,-0.093232,-0.40544,0.12863,-0.10275
0.007026,0.062559,0.042464,-0.038189,-0.64463,-0.18817,0.53647,-0.74364,-0.16823,0.35113,0.038684,-0.22469,0.14881,0.069931,0.028144,-0.075292,-0.086886,-0.18552,-0.15435,-0.52381,-0.09994,-0.55538,0.13448,-0.13323
0.01161,0.061018,0.042304,-0.035412,-0.61882,-0.18334,0.48754,-0.64648,-0.18644,0.23218,-0.097841,-0.23043,0.12496,0.057271,0.030654,-0.032397,-0.12775,-0.23197,-0.25643,-0.58369,-0.1044,-0.72585,0.13827,-0.17111
0.017232,0.061618,0.040737,-0.034246,-0.57541,-0.18601,0.41993,-0.49794,-0.19454,0.12314,-0.16718,-0.058858,0.099148,0.040599,0.034827,0.0098686,-0.17792,-0.28037,-0.35651,-0.68417,-0.10595,-0.94713,0.14028,-0.20344
0.022325,0.062772,0.03973,-0.035976,-0.52249,-0.19731,0.33138,-0.32778,-0.19351,0.026671,-0.17158,0.36546,0.063291,0.018556,0.040761,0.044654,-0.22201,-0.32138,-0.42626,-0.79306,-0.10428,-1.2177,0.13973,-0.21405
0.024872,0.062196,0.039434,-0.038733,-0.46761,-0.21599,0.22194,-0.17904,-0.19007,-0.067224,-0.14529,0.99165,0.012686,-0.010469,0.045597,0.063137,-0.24478,-0.34352,-0.44534,-0.87904,-0.10009,-1.4898,0.13312,-0.19547
0.023664,0.059097,0.03844,-0.039301,-0.41942,-0.24355,0.099879,-0.092616,-0.19186,-0.17208,-0.13573,1.6399,-0.050058,-0.045424,0.045505,0.059981,-0.24036,-0.33939,-0.40528,-0.92677,-0.095295,-1.6824,0.11495,-0.15486
0.019356,0.055117,0.035368,-0.036277,-0.38509,-0.28459,-0.015303,-0.087763,-0.20171,-0.29658,-0.18224,2.0939,-0.11584,-0.08213,0.038801,0.03906,-0.21574,-0.31048,-0.30711,-0.94593,-0.091942,-1.7181,0.081498,-0.10775
0.014336,0.053077,0.030297,-0.031494,-0.3652,-0.34221,-0.098256,-0.15054,-0.21543,-0.44062,-0.30093,2.2286,-0.17399,-0.11627,0.027316,0.013672,-0.18568,-0.26655,-0.15611,-0.9643,-0.090381,-1.5651,0.035428,-0.064322
0.011274,0.054568,0.024895,-0.028271,-0.35041,-0.41339,-0.13061,-0.24017,-0.22443,-0.59482,-0.47761,2.0795,-0.21777,-0.1471,0.014811,-0.00060784,-0.16244,-0.21993,0.0401,-1.0015,-0.087833,-1.2597,-0.012834,-0.019918
0.011316,0.058419,0.021311,-0.028103,-0.32332,-0.48916,-0.11252,-0.31201,-0.22148,-0.74133,-0.66869,1.8048,-0.24672,-0.17786,0.0039507,0.004057,-0.1481,-0.17876,0.26744,-1.0385,-0.078795,-0.89421,-0.049596,0.040965
0.013386,0.061273,0.020786,-0.028984,-0.26514,-0.55961,-0.063338,-0.34294,-0.20557,-0.85606,-0.81202,1.5698,-0.26506,-0.21182,-0.0055105,0.022536,-0.13501,-0.14422,0.49881,-1.009,-0.057685,-0.57582,-0.066119,0.12933
0.015193,0.059814,0.023004,-0.027032,-0.16436,-0.61909,-0.0094063,-0.34161,-0.18299,-0.91464,-0.84937,1.4425,-0.2779,-0.24699,-0.015917,0.040666,-0.11361,-0.11311,0.6938,-0.83284,-0.022586,-0.38017,-0.06458,0.23713
0.015145,0.052974,0.026502,-0.01993,-0.023768,-0.66728,0.032503,-0.33614,-0.1635,-0.90247,-0.75474,1.3754,-0.28817,-0.27484,-0.029203,0.045554,-0.080971,-0.082511,0.81067,-0.47338,0.022294,-0.32513,-0.056727,0.33608
0.013531,0.042598,0.029652,-0.0089716,0.13729,-0.70618,0.06394,-0.34956,-0.15415,-0.82379,-0.5529,1.2755,-0.29612,-0.28495,-0.044809,0.034395,-0.043117,-0.052365,0.82698,0.01922,0.067519,-0.3773,-0.055827,0.39254
0.011974,0.032197,0.031481,0.0021268,0.2875,-0.73683,0.099493,-0.3826,-0.15439,-0.70258,-0.31225,1.097,-0.30078,-0.27252,-0.059447,0.015306,-0.0097584,-0.024139,0.75609,0.52016,0.10283,-0.48181,-0.068079,0.388
0.011739,0.024713,0.031915,0.010453,0.39481,-0.75893,0.15231,-0.41687,-0.15587,-0.57225,-0.11027,0.87638,-0.30186,-0.2425,-0.068528,0.00019946,0.013542,0.0019955,0.64571,0.89715,0.12256,-0.59255,-0.09001,0.33039
0.012519,0.0208,0.03154,0.016177,0.44052,-0.77275,0.22191,-0.43355,-0.14733,-0.45981,0.0094688,0.68737,-0.30044,-0.20651,-0.068172,-0.0041631,0.028919,0.027971,0.55505,1.0893,0.12838,-0.68409,-0.11301,0.24803
0.012859,0.018767,0.031185,0.021932,0.42842,-0.78013,0.29333,-0.42939,-0.12174,-0.37546,0.060307,0.56199,-0.29807,-0.17471,-0.05692,-7.3207e-005,0.042762,0.055553,0.52223,1.1404,0.12739,-0.74384,-0.13002,0.17146
0.011784,0.016182,0.031521,0.030118,0.3823,-0.78285,0.34702,-0.41513,-0.080966,-0.31445,0.098318,0.45016,-0.29543,-0.14924,-0.036771,0.0044626,0.058968,0.083404,0.54264,1.1612,0.12693,-0.75918,-0.13832,0.11732
0.0099813,0.012002,0.032667,0.040709,0.3314,-0.78013,0.3713,-0.39878,-0.034963,-0.26805,0.18026,0.25219,-0.29161,-0.12443,-0.013158,0.0026908,0.075267,0.10678,0.5733,1.2459,0.13027,-0.71533,-0.13701,0.084766
0.0093523,0.0076454,0.033816,0.051424,0.29276,-0.76878,0.368,-0.37054,0.0038731,-0.23283,0.32331,-0.10719,-0.28484,-0.093181,0.006719,-0.0060495,0.085767,0.12059,0.56172,1.4044,0.13655,-0.60672,-0.12335,0.064461
0.011358,0.0060943,0.033226,0.059836,0.26272,-0.74702,0.34785,-0.30526,0.027345,-0.21033,0.49431,-0.62676,-0.274,-0.053574,0.017173,-0.01678,0.086855,0.12308,0.48083,1.5551,0.14451,-0.44966,-0.093065,0.050017
0.015768,0.009553,0.028973,0.065275,0.22436,-0.71884,0.32047,-0.18167,0.034758,-0.19895,0.6336,-1.2363,-0.25964,-0.0098868,0.017442,-0.023284,0.080551,0.11694,0.34706,1.5812,0.15617,-0.28112,-0.044924,0.041976
0.020952,0.017365,0.020356,0.068896,0.16493,-0.69421,0.28692,-0.0019354,0.031429,-0.18796,0.69308,-1.8462,-0.24347,0.032389,0.012716,-0.022525,0.072163,0.10694,0.21014,1.4054,0.1766,-0.14075,0.015132,0.042853
0.025249,0.025847,0.0090071,0.072111,0.089449,-0.68322,0.24059,0.20588,0.024442,-0.16123,0.66078,-2.3891,-0.22682,0.072626,0.011311,-0.016044,0.064885,0.096704,0.12194,1.0328,0.20937,-0.048676,0.075281,0.050265
0.027899,0.030378,-0.0015264,0.075166,0.019556,-0.68785,0.17538,0.40406,0.019058,-0.10852,0.55833,-2.8236,-0.20924,0.11643,0.019268,-0.0081479,0.057078,0.087707,0.10494,0.54088,0.25156,0.003142,0.12435,0.05606
0.028731,0.02834,-0.0079487,0.077308,-0.020931,-0.69768,0.094616,0.56557,0.017738,-0.033929,0.41984,-3.1116,-0.1888,0.1709,0.036068,-0.0029366,0.04534,0.081012,0.13964,0.035055,0.29286,0.038998,0.15807,0.052489
0.027346,0.020797,-0.0096982,0.078316,-0.021749,-0.69378,0.013387,0.68097,0.021109,0.047001,0.2721,-3.2067,-0.16397,0.23785,0.05479,-0.0023877,0.030394,0.07911,0.17674,-0.39481,0.32009,0.076505,0.17945,0.039093
0.023171,0.011616,-0.0095075,0.079701,0.0093144,-0.65875,-0.047959,0.74847,0.028895,0.11976,0.12921,-3.0741,-0.13595,0.31064,0.066843,-0.0063205,0.019442,0.085065,0.16474,-0.69275,0.32423,0.11049,0.1933,0.023098
0.016635,0.0046143,-0.011134,0.084008,0.055373,-0.58598,-0.074636,0.76007,0.039658,0.18205,-0.00088266,-2.725,-0.1093,0.37739,0.067823,-0.013545,0.021441,0.098971,0.076427,-0.83457,0.30485,0.11505,0.20035,0.012278
0.010024,0.00084242,-0.015952,0.092413,0.10388,-0.48154,-0.064774,0.69993,0.049995,0.24367,-0.10971,-2.2285,-0.090255,0.42803,0.060152,-0.022889,0.038538,0.11494,-0.078692,-0.82384,0.26921,0.060456,0.19682,0.006391
0.0064744,-0.0019576,-0.021503,0.10253,0.15283,-0.35837,-0.02836,0.55877,0.054727,0.31552,-0.18941,-1.6853,-0.083296,0.45986,0.050699,-0.033274,0.061337,0.12214,-0.25916,-0.69674,0.22734,-0.068767,0.17964,-0.0051516
0.0073884,-0.0073043,-0.023606,0.10855,0.2055,-0.22823,0.020382,0.35102,0.048909,0.39806,-0.2386,-1.1807,-0.088251,0.47793,0.045451,-0.043036,0.073198,0.11016,-0.40877,-0.52794,0.18678,-0.2659,0.15193,-0.036922
0.010668,-0.016881,-0.020273,0.10403,0.26017,-0.098248,0.070451,0.11721,0.030915,0.48039,-0.26388,-0.75258,-0.099819,0.49049,0.045352,-0.049502,0.061156,0.075359,-0.47782,-0.42002,0.1505,-0.50586,0.12287,-0.09704
0.011931,-0.028762,-0.013727,0.085592,0.30522,0.026027,0.1159,-0.093899,0.0047602,0.55097,-0.27333,-0.39465,-0.10993,0.50345,0.046129,-0.04979,0.025051,0.02335,-0.44122,-0.46864,0.1181,-0.75405,0.10133,-0.18041
0.0081947,-0.038354,-0.0084375,0.054774,0.32494,0.13552,0.15264,-0.2509,-0.020007,0.6099,-0.26741,-0.085925,-0.11143,0.51782,0.04167,-0.042648,-0.022447,-0.033997,-0.30799,-0.71597,0.088042,-0.9736,0.089074,-0.27024
0.00080095,-0.041449,-0.0069053,0.016868,0.31152,0.21683,0.17572,-0.35321,-0.031341,0.67053,-0.23733,0.1821,-0.10069,0.5314,0.028142,-0.029868,-0.064696,-0.085021,-0.11877,-1.1189,0.058797,-1.1303,0.079628,-0.34631
-0.0054104,-0.037222,-0.0072457,-0.022119,0.27273,0.25771,0.18172,-0.42258,-0.019641,0.74775,-0.17424,0.39991,-0.077987,0.54226,0.0061674,-0.015555,-0.091364,-0.12362,0.069221,-1.5547,0.028518,-1.1988,0.064068,-0.39394
-0.0063101,-0.028994,-0.0049777,-0.057753,0.22844,0.2545,0.17454,-0.48081,0.017511,0.84287,-0.08157,0.55422,-0.045999,0.5504,-0.019655,-0.0031392,-0.10208,-0.15027,0.20547,-1.8676,-0.0050909,-1.1712,0.038666,-0.40819
-0.0023009,-0.022122,0.0026388,-0.087098,0.19803,0.21536,0.16799,-0.53243,0.073243,0.93884,0.021272,0.6447,-0.0083412,0.556,-0.042871,0.007715,-0.10171,-0.16874,0.26788,-1.9363,-0.043428,-1.0641,0.0078961,-0.39195
0.0019661,-0.020406,0.013868,-0.10711,0.18864,0.1567,0.18011,-0.56508,0.13347,1.0105,0.10896,0.68781,0.030908,0.55601,-0.057599,0.021383,-0.093014,-0.18161,0.27145,-1.7294,-0.084854,-0.91654,-0.019381,-0.35109
0.0019221,-0.023525,0.023929,-0.11399,0.1934,0.095918,0.22178,-0.56451,0.18283,1.0416,0.1659,0.70632,0.067158,0.54295,-0.060603,0.042764,-0.073745,-0.18748,0.25819,-1.3223,-0.12395,-0.77636,-0.036781,-0.29099
-0.0025691,-0.027403,0.029084,-0.105,0.20043,0.045548,0.28806,-0.52916,0.2118,1.0327,0.19345,0.71454,0.095962,0.50814,-0.052682,0.072435,-0.040543,-0.18155,0.27345,-0.86555,-0.1536,-0.67985,-0.04447,-0.21671
-0.0070707,-0.027364,0.029408,-0.081744,0.20464,0.011246,0.3594,-0.47173,0.22108,0.99567,0.20203,0.71115,0.11461,0.44765,-0.038716,0.10462,0.0050785,-0.15854,0.34267,-0.51898,-0.16886,-0.63728,-0.047675,-0.13485
-0.0069001,-0.021791,0.02782,-0.051457,0.21219,-0.0078893,0.41182,-0.40786,0.22027,0.93857,0.19598,0.68463,0.12334,0.3668,-0.025676,0.13019,0.055023,-0.11603,0.46191,-0.38308,-0.16958,-0.6338,-0.051755,-0.054061
-0.0018175,-0.013497,0.026778,-0.024285,0.23381,-0.018653,0.42795,-0.34323,0.22132,0.85836,0.16695,0.62693,0.12465,0.27916,-0.018975,0.1427,0.099201,-0.056273,0.60569,-0.45851,-0.15968,-0.64533,-0.058265,0.018068
0.0034725,-0.0076105,0.02625,-0.0076629,0.27324,-0.03234,0.40186,-0.27089,0.23077,0.74665,0.1043,0.54556,0.12119,0.20032,-0.019183,0.14261,0.13228,0.014078,0.74377,-0.65246,-0.14368,-0.65816,-0.064653,0.079545
0.0035786,-0.0075605,0.02484,-0.0019837,0.32078,-0.060605,0.33714,-0.18087,0.24608,0.6038,0.01401,0.4648,0.11418,0.14053,-0.021609,0.13631,0.15644,0.085933,0.85407,-0.82656,-0.12346,-0.67819,-0.066829,0.13626
-0.0025444,-0.012292,0.022368,-0.0011542,0.35772,-0.1089,0.24328,-0.073367,0.25842,0.44701,-0.073268,0.41359,0.10416,0.10136,-0.019576,0.13095,0.17776,0.15028,0.92523,-0.86069,-0.097964,-0.72303,-0.061967,0.19922
-0.010482,-0.016964,0.020677,0.0022171,0.36807,-0.17177,0.13416,0.035268,0.25947,0.30388,-0.11688,0.4066,0.093251,0.077986,-0.0093974,0.12952,0.1998,0.20011,0.95183,-0.69964,-0.065636,-0.80361,-0.049762,0.27807
-0.014125,-0.016578,0.021528,0.011139,0.34749,-0.23506,0.026973,0.11854,0.24681,0.19581,-0.095813,0.43049,0.086072,0.064747,0.0065667,0.13015,0.22,0.23128,0.92984,-0.36122,-0.027262,-0.90991,-0.032154,0.37492
-0.010776,-0.009628,0.023997,0.022578,0.3026,-0.28493,-0.062392,0.15356,0.22375,0.12471,-0.029936,0.44541,0.087509,0.058484,0.02117,0.1295,0.23191,0.24237,0.85692,0.090781,0.013161,-1.012,-0.01244,0.48211
-0.003057,0.0010483,0.024593,0.030815,0.24203,-0.31719,-0.12714,0.13368,0.19465,0.073226,0.026699,0.40237,0.098614,0.0571,0.027322,0.12645,0.23062,0.23433,0.73545,0.58315,0.049932,-1.0749,0.0057658,0.5844
0.0037394,0.010676,0.0205,0.032543,0.16826,-0.33848,-0.17421,0.073071,0.16041,0.017656,0.019122,0.26678,0.1144,0.055159,0.022943,0.12282,0.21657,0.21029,0.57381,1.0514,0.077933,-1.0768,0.019728,0.66357
0.0061259,0.016036,0.012752,0.029235,0.078289,-0.35785,-0.21969,0.0018342,0.11836,-0.05677,-0.071202,0.034726,0.12596,0.041866,0.012434,0.12078,0.19459,0.17523,0.38471,1.4318,0.094041,-1.016,0.028668,0.70332
0.0047357,0.01726,0.0058241,0.025113,-0.027228,-0.37577,-0.27664,-0.045098,0.066372,-0.14843,-0.21119,-0.26668,0.12565,0.0051071,0.0036029,0.12003,0.16973,0.13528,0.1827,1.6479,0.097378,-0.90706,0.033859,0.69401
0.0029141,0.01687,0.0036791,0.023026,-0.1351,-0.3814,-0.34517,-0.039788,0.0067845,-0.24236,-0.33335,-0.59371,0.11108,-0.060324,0.0022368,0.11774,0.14401,0.096271,-0.016804,1.6208,0.089164,-0.76969,0.037271,0.63684
0.0034309,0.017352,0.006039,0.02211,-0.22108,-0.36218,-0.41377,0.030904,-0.05399,-0.31929,-0.37339,-0.90565,0.084849,-0.14702,0.0081817,0.11103,0.11672,0.062211,-0.19848,1.313,0.072707,-0.62241,0.039647,0.54539
0.0064164,0.019494,0.0086544,0.019103,-0.26344,-0.31882,-0.4712,0.16403,-0.10978,-0.36441,-0.30457,-1.1774,0.050732,-0.23774,0.015735,0.09963,0.087556,0.034677,-0.35059,0.77682,0.053066,-0.48255,0.039885,0.44161
0.0099614,0.022569,0.0073793,0.011735,-0.25972,-0.27236,-0.51798,0.34474,-0.15862,-0.37271,-0.15053,-1.398,0.010099,-0.31603,0.01807,0.086226,0.058942,0.01353,-0.4703,0.16229,0.035704,-0.36833,0.036655,0.34565
0.012225,0.025641,0.0020408,0.00097767,-0.23317,-0.25569,-0.56653,0.55199,-0.20237,-0.3505,0.026797,-1.5577,-0.038334,-0.37712,0.012482,0.074506,0.035204,-0.0017448,-0.5654,-0.34132,0.024345,-0.29634,0.030962,0.26459
0.012849,0.028519,-0.003673,-0.0096762,-0.22197,-0.29375,-0.62954,0.76137,-0.2424,-0.31359,0.15553,-1.6363,-0.095761,-0.43016,0.0025553,0.066809,0.019178,-0.011434,-0.64853,-0.60434,0.019348,-0.2738,0.026953,0.18816
0.012642,0.031639,-0.0060367,-0.016919,-0.25674,-0.3866,-0.70739,0.94441,-0.27587,-0.28177,0.18506,-1.6062,-0.1607,-0.48988,-0.0043973,0.063172,0.0094657,-0.016432,-0.72658,-0.62927,0.017901,-0.29199,0.029521,0.096227
0.012355,0.035358,-0.0048918,-0.019776,-0.34114,-0.50757,-0.78609,1.0689,-0.29657,-0.27062,0.10842,-1.4523,-0.22917,-0.56449,-0.0027001,0.061871,0.001006,-0.019596,-0.79427,-0.53931,0.015996,-0.32793,0.040246,-0.025964
0.012051,0.039562,-0.003526,-0.0195,-0.44851,-0.61744,-0.84721,1.1054,-0.29966,-0.28397,-0.033217,-1.1962,-0.29708,-0.64961,0.0076915,0.060406,-0.011259,-0.025721,-0.8387,-0.48361,0.010743,-0.3551,0.055151,-0.17556
0.011608,0.043867,-0.0052398,-0.017689,-0.53618,-0.68425,-0.87972,1.0412,-0.28558,-0.31146,-0.1679,-0.89955,-0.36197,-0.73241,0.021642,0.056263,-0.028584,-0.039145,-0.85113,-0.52485,0.0013804,-0.35625,0.066479,-0.33232
0.011502,0.047964,-0.010283,-0.014524,-0.56787,-0.69573,-0.88242,0.89266,-0.25933,-0.33353,-0.22688,-0.63691,-0.42195,-0.80011,0.033185,0.047679,-0.047561,-0.060242,-0.83512,-0.59395,-0.011412,-0.32901,0.067322,-0.471
0.01272,0.051609,-0.016186,-0.0086421,-0.53045,-0.6591,-0.85578,0.70375,-0.22588,-0.33143,-0.17881,-0.45016,-0.47304,-0.84403,0.040027,0.03475,-0.062801,-0.083722,-0.80301,-0.54781,-0.026832,-0.28105,0.055635,-0.57596
0.015734,0.054347,-0.020816,0.0014757,-0.43741,-0.59292,-0.79335,0.52702,-0.18656,-0.29714,-0.043894,-0.31789,-0.50796,-0.85569,0.044453,0.02023,-0.070835,-0.10081,-0.76399,-0.28672,-0.04445,-0.21946,0.035051,-0.64694
0.019613,0.055461,-0.024712,0.015941,-0.32022,-0.51881,-0.68422,0.39547,-0.14015,-0.23766,0.12191,-0.16655,-0.51873,-0.82174,0.050085,0.0087217,-0.072119,-0.10441,-0.71606,0.1603,-0.063458,-0.14328,0.012833,-0.69311
0.022429,0.054429,-0.030204,0.03301,-0.21496,-0.45655,-0.52696,0.30549,-0.087704,-0.17153,0.26267,0.080341,-0.50175,-0.72703,0.057523,0.0038437,-0.069847,-0.09384,-0.64978,0.64917,-0.081634,-0.044922,-0.0028038,-0.72242
0.022783,0.051563,-0.038372,0.049927,-0.15062,-0.41981,-0.34275,0.22533,-0.035809,-0.11919,0.35291,0.4485,-0.46116,-0.56746,0.062719,0.0049616,-0.067004,-0.075494,-0.55963,1.0221,-0.095426,0.080821,-0.0046081,-0.73594
0.021062,0.048213,-0.047248,0.064183,-0.14178,-0.40992,-0.17338,0.12479,0.0052764,-0.092169,0.40188,0.89339,-0.40729,-0.36263,0.059428,0.0062287,-0.064226,-0.058816,-0.45083,1.2167,-0.10155,0.22747,0.012004,-0.73058
0.019117,0.046203,-0.053382,0.07412,-0.186,-0.41097,-0.061433,0.004438,0.027638,-0.086906,0.43167,1.3269,-0.35083,-0.15476,0.043609,-0.00052395,-0.059911,-0.050313,-0.33422,1.2987,-0.099105,0.37458,0.046484,-0.70503
0.018572,0.046835,-0.05533,0.078655,-0.26609,-0.39364,-0.025778,-0.099238,0.030617,-0.087168,0.45081,1.6675,-0.29684,0.009719,0.016323,-0.020485,-0.051927,-0.049841,-0.21531,1.3981,-0.09044,0.49501,0.090764,-0.66182
0.019395,0.050108,-0.055416,0.076784,-0.35752,-0.33055,-0.050795,-0.13795,0.020435,-0.074321,0.44676,1.8755,-0.24342,0.10471,-0.016695,-0.051862,-0.039275,-0.051713,-0.090225,1.6032,-0.08017,0.56728,0.12959,-0.6038
0.020193,0.054617,-0.057602,0.067818,-0.43925,-0.21501,-0.098044,-0.087454,0.0051202,-0.039431,0.40235,1.9547,-0.18608,0.1371,-0.047799,-0.086316,-0.022741,-0.049735,0.045384,1.8972,-0.072909,0.5849,0.14537,-0.53037
0.019939,0.058087,-0.063164,0.052477,-0.50304,-0.068351,-0.13153,0.032188,-0.010671,0.0108,0.3187,1.9279,-0.12446,0.13812,-0.070246,-0.11372,-0.0047177,-0.042429,0.18358,2.1806,-0.071476,0.55611,0.12614,-0.43925
0.019312,0.058194,-0.06837,0.033849,-0.5552,0.072354,-0.13736,0.16671,-0.026778,0.058773,0.22157,1.8162,-0.065868,0.14072,-0.079683,-0.12787,0.011316,-0.034516,0.30273,2.3514,-0.076576,0.49411,0.071924,-0.33306
0.020091,0.053467,-0.066875,0.016888,-0.60931,0.17905,-0.12392,0.2594,-0.044508,0.088461,0.14425,1.6369,-0.022233,0.16019,-0.074605,-0.12901,0.021715,-0.033364,0.38304,2.3762,-0.087672,0.40517,-0.0045782,-0.2242
0.02311,0.044181,-0.055325,0.0061216,-0.67443,0.25078,-0.10518,0.28073,-0.063025,0.09692,0.10278,1.4152,-0.0022489,0.19117,-0.056621,-0.12192,0.02427,-0.042793,0.42644,2.2975,-0.1038,0.28411,-0.083814,-0.13133
0.026894,0.032954,-0.037385,0.0029893,-0.74709,0.31044,-0.083248,0.23663,-0.078645,0.09664,0.08665,1.1868,-0.0044691,0.21976,-0.030438,-0.11154,0.020007,-0.058846,0.4609,2.1835,-0.12343,0.12138,-0.14825,-0.068801
0.028638,0.024307,-0.022277,0.0049829,-0.81278,0.38293,-0.045786,0.15493,-0.087276,0.10719,0.073593,0.98133,-0.017002,0.23802,-0.0026566,-0.099936,0.013734,-0.071076,0.52113,2.0717,-0.14378,-0.082916,-0.18911,-0.036874
0.026821,0.022599,-0.018455,0.0076803,-0.85531,0.47306,0.019972,0.064994,-0.087248,0.14213,0.054638,0.79934,-0.024585,0.24903,0.020917,-0.08674,0.012212,-0.068917,0.61997,1.9534,-0.16068,-0.3086,-0.20771,-0.021227
0.022918,0.028978,-0.027328,0.0083714,-0.86684,0.56153,0.10999,-0.013887,-0.079747,0.20013,0.045756,0.60738,-0.018064,0.26081,0.038053,-0.071825,0.020558,-0.048742,0.73603,1.8056,-0.16978,-0.51706,-0.21163,-0.0025627
0.02032,0.039486,-0.042215,0.0084104,-0.8516,0.62131,0.19949,-0.071205,-0.06666,0.26546,0.07498,0.36452,0.0007884,0.27725,0.05074,-0.057346,0.039206,-0.016341,0.83072,1.631,-0.16872,-0.66485,-0.2093,0.030757
0.021242,0.046473,-0.053485,0.012211,-0.82196,0.63927,0.25719,-0.09877,-0.048077,0.3167,0.1562,0.063677,0.022605,0.29495,0.062749,-0.047091,0.063665,0.017122,0.88171,1.4641,-0.1586,-0.72091,-0.20649,0.076196
0.024458,0.043294,-0.055753,0.023514,-0.79114,0.62488,0.26641,-0.088281,-0.021695,0.33787,0.27283,-0.2473,0.038897,0.30776,0.075691,-0.043901,0.08724,0.042565,0.90317,1.3354,-0.14362,-0.67735,-0.20627,0.12064
0.026066,0.029238,-0.051352,0.041914,-0.7683,0.59997,0.23548,-0.035035,0.015612,0.32553,0.38568,-0.48875,0.0487,0.31338,0.086663,-0.047605,0.10463,0.058169,0.93294,1.2288,-0.12885,-0.5493,-0.2109,0.1507
0.022704,0.010662,-0.047605,0.062521,-0.75787,0.58077,0.18885,0.057316,0.065502,0.28872,0.45809,-0.60575,0.05825,0.31526,0.08945,-0.055227,0.11384,0.068554,0.99574,1.0747,-0.11777,-0.36669,-0.22312,0.16269
0.014398,-0.0031204,-0.050595,0.079076,-0.76095,0.56838,0.14683,0.17633,0.12669,0.24233,0.47772,-0.61609,0.0745,0.31862,0.078429,-0.062909,0.11553,0.079257,1.0743,0.79276,-0.11096,-0.16419,-0.24547,0.16671
0.0045717,-0.006399,-0.060737,0.088058,-0.7748,0.55465,0.1112,0.30478,0.19453,0.1978,0.45862,-0.60827,0.09818,0.32483,0.052255,-0.067557,0.11107,0.091448,1.1158,0.3521,-0.10665,0.026057,-0.27869,0.18353
-0.0026594,-0.0010372,-0.073391,0.090688,-0.79024,0.53538,0.067671,0.42501,0.2613,0.15669,0.42477,-0.68363,0.12198,0.32983,0.014764,-0.066983,0.10137,0.10117,1.071,-0.19696,-0.10224,0.17923,-0.32092,0.23606
-0.0055074,0.0052494,-0.083235,0.091646,-0.79035,0.51687,0.00088601,0.5209,0.31697,0.11122,0.39097,-0.8812,0.13488,0.32758,-0.027103,-0.05926,0.087417,0.10323,0.93572,-0.74631,-0.095753,0.28257,-0.36873,0.33892
-0.0054218,0.0048106,-0.088258,0.09595,-0.75497,0.50952,-0.092416,0.57891,0.35139,0.052219,0.35599,-1.1415,0.12889,0.31526,-0.066449,-0.042933,0.071415,0.096076,0.76046,-1.1902,-0.086514,0.34033,-0.41852,0.48983
-0.0054771,-0.0045304,-0.090237,0.10634,-0.67099,0.51551,-0.20313,0.59176,0.35773,-0.02033,0.31074,-1.3401,0.10346,0.29571,-0.098432,-0.018501,0.057105,0.083461,0.62061,-1.4788,-0.075335,0.37505,-0.46685,0.66738
-0.0078804,-0.018502,-0.092083,0.12241,-0.5423,0.52371,-0.31998,0.56458,0.3359,-0.092128,0.25141,-1.3705,0.065083,0.27562,-0.12034,0.010411,0.048424,0.07192,0.57016,-1.6297,-0.064478,0.42015,-0.50972,0.83726
-0.012602,-0.02999,-0.094899,0.14103,-0.39109,0.51824,-0.43836,0.51811,0.29327,-0.13977,0.18538,-1.2174,0.023763,0.26184,-0.13063,0.038207,0.047509,0.066582,0.61399,-1.6985,-0.057182,0.50364,-0.5424,0.96516
-0.017833,-0.034005,-0.09719,0.15708,-0.24663,0.49383,-0.55888,0.48284,0.24154,-0.14417,0.12613,-0.96857,-0.011134,0.25884,-0.12825,0.060765,0.053573,0.06868,0.71552,-1.7328,-0.056376,0.63089,-0.5609,1.0293
-0.021436,-0.030438,-0.096285,0.16457,-0.12758,0.46393,-0.67863,0.48352,0.19115,-0.10298,0.083606,-0.75663,-0.033296,0.26827,-0.11315,0.078501,0.063488,0.076162,0.82735,-1.743,-0.062853,0.77856,-0.56405,1.0252
-0.022073,-0.023271,-0.090235,0.15859,-0.030429,0.45298,-0.78604,0.5227,0.14718,-0.032558,0.059583,-0.67556,-0.039887,0.28922,-0.087262,0.095834,0.073467,0.085935,0.91717,-1.6993,-0.074131,0.906,-0.55388,0.96011
-0.019438,-0.01756,-0.078701,0.13778,0.065674,0.47757,-0.86654,0.57555,0.10923,0.042287,0.052254,-0.73108,-0.030646,0.31769,-0.055125,0.11662,0.080545,0.095354,0.9713,-1.5515,-0.085255,0.97864,-0.53315,0.84309
-0.013996,-0.016466,-0.062725,0.10557,0.18006,0.53101,-0.91421,0.60226,0.074974,0.10294,0.065236,-0.85508,-0.0065926,0.34554,-0.023132,0.1388,0.082938,0.10195,0.98116,-1.2563,-0.091393,0.98759,-0.50221,0.67959
-0.0068761,-0.019923,-0.04419,0.068564,0.31165,0.58438,-0.9374,0.57225,0.043744,0.14462,0.11131,-0.96354,0.030783,0.3614,0.0023331,0.15294,0.079448,0.10257,0.93259,-0.80231,-0.09042,0.95145,-0.45833,0.47589
6.1641e-006,-0.025174,-0.02547,0.032635,0.43563,0.60447,-0.95126,0.48453,0.016867,0.172,0.20456,-1.0074,0.079229,0.35472,0.017047,0.14673,0.068734,0.093532,0.81146,-0.2282,-0.083398,0.89952,-0.3986,0.24872
0.0042171,-0.028544,-0.0090437,-0.00018769,0.51955,0.57645,-0.96292,0.36957,-0.0051532,0.1881,0.34416,-0.97994,0.13445,0.32114,0.020206,0.11278,0.049187,0.072272,0.61986,0.37754,-0.072602,0.84974,-0.32411,0.029424
0.003965,-0.027438,0.0031843,-0.031317,0.54634,0.51503,-0.96294,0.27021,-0.025578,0.1876,0.50167,-0.88605,0.18912,0.26532,0.01424,0.05447,0.019481,0.03882,0.3851,0.89923,-0.058981,0.79815,-0.24118,-0.14504
-0.0003555,-0.021696,0.010659,-0.061949,0.52634,0.4557,-0.93183,0.21463,-0.051233,0.16087,0.62418,-0.71204,0.23382,0.19823,0.0034503,-0.01449,-0.02061,-0.0044022,0.14925,1.2358,-0.041605,0.72721,-0.15843,-0.25061
-0.0056821,-0.013696,0.014442,-0.089791,0.48902,0.43182,-0.85616,0.19998,-0.088881,0.10475,0.65632,-0.42904,0.26074,0.13041,-0.0077093,-0.076562,-0.069561,-0.054376,-0.0546,1.3415,-0.019818,0.62492,-0.081977,-0.29136
-0.0079631,-0.0072073,0.016718,-0.10966,0.46247,0.45323,-0.74048,0.19788,-0.14107,0.029582,0.57019,-0.027758,0.26812,0.065804,-0.016013,-0.11889,-0.12379,-0.10884,-0.21991,1.2399,0.0039244,0.49973,-0.013157,-0.29851
-0.0053002,-0.0055654,0.019819,-0.11778,0.45752,0.50106,-0.60498,0.1764,-0.20477,-0.044501,0.38454,0.44972,0.26248,0.0011387,-0.020212,-0.13855,-0.17771,-0.16537,-0.36277,1.0024,0.02359,0.38049,0.049563,-0.31214
-6.7935e-005,-0.010087,0.025292,-0.11568,0.46774,0.54196,-0.47244,0.1212,-0.27359,-0.098881,0.1593,0.9141,0.256,-0.068958,-0.02115,-0.14167,-0.22424,-0.21874,-0.49856,0.70562,0.032715,0.30289,0.10664,-0.35711
0.0023053,-0.019469,0.033303,-0.10988,0.4822,0.55144,-0.35651,0.04096,-0.34114,-0.12548,-0.032992,1.2701,0.26034,-0.14524,-0.021217,-0.13763,-0.25614,-0.25948,-0.61773,0.39996,0.029079,0.29169,0.15552,-0.42964
-0.0023676,-0.030432,0.0425,-0.10715,0.49766,0.53018,-0.26064,-0.044062,-0.40251,-0.12637,-0.14223,1.463,0.28057,-0.2213,-0.023129,-0.1325,-0.26794,-0.27632,-0.68058,0.10861,0.017088,0.34858,0.19246,-0.50255
-0.012935,-0.039337,0.050549,-0.10988,0.52004,0.50248,-0.18503,-0.11781,-0.45289,-0.10635,-0.16137,1.495,0.31317,-0.28731,-0.028467,-0.12611,-0.25823,-0.26218,-0.63668,-0.14831,0.0054441,0.45014,0.21613,-0.54416
-0.022794,-0.044021,0.055366,-0.11564,0.55569,0.49929,-0.1318,-0.17464,-0.48548,-0.067614,-0.1219,1.4034,0.34878,-0.33695,-0.036887,-0.11463,-0.23076,-0.21966,-0.45672,-0.33176,0.0014484,0.55513,0.22909,-0.53705
-0.024542,-0.044905,0.056555,-0.12115,0.60209,0.53793,-0.10203,-0.21316,-0.49172,-0.012353,-0.070379,1.2245,0.37712,-0.37154,-0.046807,-0.096236,-0.1935,-0.16165,-0.15582,-0.38774,0.0061116,0.6189,0.2355,-0.48619
-0.015934,-0.044589,0.055909,-0.12656,0.64655,0.6114,-0.089105,-0.22739,-0.46504,0.049945,-0.043196,0.97629,0.39056,-0.39785,-0.057213,-0.074994,-0.15549,-0.10561,0.20643,-0.27736,0.013834,0.61063,0.23724,-0.41441
-0.0020775,-0.045973,0.056173,-0.13563,0.67328,0.69221,-0.077638,-0.20645,-0.40601,0.10013,-0.055362,0.67308,0.38494,-0.42149,-0.068982,-0.05946,-0.12297,-0.064818,0.54908,-0.0098306,0.016924,0.52709,0.23203,-0.35107
0.0083533,-0.050027,0.058668,-0.1516,0.67278,0.74627,-0.051737,-0.14416,-0.32484,0.11753,-0.1061,0.35407,0.3591,-0.44186,-0.084136,-0.056732,-0.097009,-0.042225,0.80278,0.34874,0.011493,0.39511,0.21543,-0.31995
0.010032,-0.054844,0.061671,-0.17278,0.64652,0.74824,-0.0055195,-0.048233,-0.23846,0.093458,-0.19136,0.095703,0.31477,-0.4532,-0.10322,-0.066897,-0.074119,-0.030815,0.93528,0.69986,0.00035416,0.25887,0.18509,-0.3299
0.0053061,-0.056879,0.061217,-0.19213,0.60494,0.69169,0.054933,0.061462,-0.16334,0.038551,-0.30965,-0.01011,0.25699,-0.45096,-0.12308,-0.082874,-0.049663,-0.01988,0.95795,0.9559,-0.0089096,0.15772,0.14365,-0.36975
0.0022801,-0.053609,0.054092,-0.20143,0.56176,0.59139,0.1207,0.16528,-0.10807,-0.023832,-0.45587,0.097626,0.19317,-0.43779,-0.13762,-0.096159,-0.021843,-0.0028195,0.91251,1.0755,-0.008758,0.10813,0.098431,-0.41037
0.0082286,-0.045666,0.040727,-0.19619,0.52904,0.47794,0.19071,0.25538,-0.070594,-0.073467,-0.61022,0.40739,0.13022,-0.42352,-0.14165,-0.10372,0.0061961,0.018625,0.84691,1.0719,0.0044227,0.10199,0.058831,-0.4159
0.023718,-0.036775,0.02548,-0.17728,0.51533,0.38637,0.27154,0.33549,-0.041613,-0.1055,-0.73572,0.82749,0.071434,-0.41873,-0.13499,-0.10997,0.027415,0.036079,0.79303,0.99423,0.029752,0.12144,0.033312,-0.36093
0.042019,-0.031551,0.013819,-0.14846,0.52609,0.34196,0.36497,0.40962,-0.011628,-0.12918,-0.79199,1.2214,0.016316,-0.42675,-0.12307,-0.12177,0.034406,0.040653,0.75641,0.89777,0.063888,0.15736,0.027068,-0.2442
0.053887,-0.032799,0.0085237,-0.11311,0.56391,0.34886,0.45558,0.4715,0.02332,-0.15544,-0.75936,1.4692,-0.035733,-0.44069,-0.11289,-0.14066,0.023366,0.029304,0.72085,0.82207,0.10306,0.21562,0.039985,-0.088595
0.053685,-0.040244,0.007885,-0.07345,0.62723,0.38778,0.5138,0.50536,0.060678,-0.18552,-0.65615,1.5204,-0.080987,-0.44769,-0.10723,-0.15876,-0.0034955,0.007447,0.66307,0.7854,0.14332,0.30585,0.065107,0.073581
0.042367,-0.051298,0.0073637,-0.032678,0.7081,0.42504,0.51612,0.49709,0.094921,-0.21128,-0.53444,1.4073,-0.11098,-0.43715,-0.10187,-0.16213,-0.038179,-0.013641,0.5685,0.79084,0.17973,0.42323,0.089385,0.21931
0.0259,-0.062901,0.0033707,0.0032386,0.79173,0.42912,0.46677,0.44448,0.12214,-0.22662,-0.45319,1.212,-0.11764,-0.40691,-0.088562,-0.13921,-0.069609,-0.022877,0.44029,0.83227,0.20627,0.5404,0.098502,0.34293
0.011134,-0.072876,-0.0037826,0.027113,0.8597,0.38582,0.40072,0.35731,0.14203,-0.23834,-0.44507,1.0078,-0.10022,-0.36362,-0.061821,-0.088228,-0.087737,-0.01515,0.29795,0.89325,0.21775,0.61877,0.084505,0.4481
0.0023264,-0.080011,-0.010021,0.034945,0.8965,0.30347,0.36249,0.24899,0.15638,-0.26503,-0.49847,0.81794,-0.067433,-0.31799,-0.024335,-0.01902,-0.087406,0.0065307,0.16738,0.94123,0.21221,0.63145,0.05135,0.53254
0.00010422,-0.083408,-0.01059,0.029335,0.89591,0.20563,0.37613,0.12958,0.16629,-0.32343,-0.56701,0.61756,-0.032078,-0.27884,0.013472,0.051301,-0.070326,0.033496,0.068004,0.92722,0.19195,0.58012,0.013395,0.58097
0.0025662,-0.082232,-0.0037573,0.018319,0.86296,0.11614,0.43014,0.0069419,0.17099,-0.41344,-0.59958,0.37415,-0.0019258,-0.24968,0.039871,0.1054,-0.044104,0.056678,0.0038215,0.79818,0.16213,0.49228,-0.013293,0.57388
0.0071213,-0.076368,0.007622,0.010043,0.81,0.045901,0.48842,-0.10767,0.16937,-0.5148,-0.57055,0.091417,0.025571,-0.22891,0.049619,0.13178,-0.018522,0.07134,-0.036875,0.51984,0.12837,0.40137,-0.020774,0.50456
0.011878,-0.067303,0.017846,0.0075918,0.74925,-0.010436,0.51742,-0.19836,0.16239,-0.59894,-0.49078,-0.18123,0.060005,-0.21229,0.047213,0.12786,-0.00073258,0.078644,-0.072956,0.097241,0.09531,0.32574,-0.012608,0.38909
0.016101,-0.058045,0.022195,0.008368,0.68722,-0.066187,0.50734,-0.25181,0.15365,-0.64686,-0.39452,-0.38092,0.10879,-0.19553,0.043068,0.099977,0.0081422,0.083555,-0.11798,-0.421,0.066843,0.26218,0.0017404,0.26033
0.0198,-0.051704,0.020091,0.0083317,0.62478,-0.12878,0.47333,-0.26672,0.14713,-0.65928,-0.31406,-0.47701,0.16962,-0.17585,0.045584,0.060805,0.012913,0.090826,-0.17139,-0.96037,0.046552,0.19717,0.016268,0.15089
0.022889,-0.049666,0.01526,0.007006,0.56225,-0.19064,0.44042,-0.2563,0.1439,-0.65231,-0.26081,-0.49074,0.23077,-0.15223,0.055348,0.024649,0.020504,0.10162,-0.21912,-1.4521,0.036769,0.12413,0.033071,0.078978
0.024551,-0.050901,0.012765,0.0084811,0.50487,-0.23233,0.42714,-0.2405,0.14076,-0.64368,-0.22443,-0.47223,0.27854,-0.12502,0.065938,0.0019804,0.034507,0.11265,-0.24364,-1.8609,0.036513,0.051602,0.058206,0.046559
0.02341,-0.053009,0.015164,0.017469,0.46308,-0.23657,0.43935,-0.23428,0.13245,-0.64128,-0.18728,-0.45632,0.30566,-0.09526,0.070317,-0.0045482,0.051581,0.11796,-0.23757,-2.1923,0.040663,-0.0033188,0.092985,0.047409
0.01849,-0.054078,0.02083,0.034168,0.44634,-0.20332,0.47317,-0.24082,0.11591,-0.64186,-0.14071,-0.43644,0.31413,-0.063905,0.067179,-0.00022297,0.0624,0.11218,-0.21221,-2.4741,0.042346,-0.028406,0.12931,0.075108
0.010206,-0.053767,0.025739,0.05288,0.45421,-0.15383,0.51887,-0.25337,0.093116,-0.63852,-0.09012,-0.37955,0.31147,-0.031318,0.061869,0.005929,0.057056,0.09335,-0.19514,-2.7238,0.037621,-0.023537,0.15407,0.12366
0.00043341,-0.052884,0.027165,0.06589,0.47191,-0.11946,0.56127,-0.26242,0.070187,-0.62926,-0.046608,-0.268,0.30455,0.0025733,0.061349,0.0072778,0.031698,0.063806,-0.21684,-2.9242,0.028701,0.0037296,0.15901,0.18247
-0.0085722,-0.052196,0.026003,0.069223,0.47553,-0.12252,0.58019,-0.26258,0.053445,-0.61937,-0.0142,-0.1304,0.29635,0.037307,0.067816,0.0036911,-0.0080031,0.029044,-0.29318,-3.0259,0.022309,0.047768,0.14741,0.23312
-0.015545,-0.0518,0.025637,0.065197,0.44544,-0.16298,0.55689,-0.25641,0.045708,-0.61702,0.015481,-0.033955,0.28723,0.070725,0.076502,0.00083625,-0.04908,-0.0046813,-0.41377,-2.9784,0.023707,0.10865,0.13136,0.25324
-0.020657,-0.051503,0.028376,0.059596,0.37978,-0.22036,0.48496,-0.25451,0.045696,-0.62657,0.05672,-0.044608,0.27792,0.098806,0.07919,0.0052878,-0.077938,-0.032486,-0.54387,-2.7715,0.031053,0.1863,0.12197,0.22553
-0.024662,-0.051418,0.032853,0.056226,0.29818,-0.26861,0.37649,-0.27086,0.050596,-0.64448,0.11796,-0.18882,0.2707,0.1172,0.070126,0.019095,-0.087295,-0.051786,-0.64034,-2.4577,0.035272,0.2725,0.12116,0.14571
-0.027602,-0.051775,0.034953,0.053812,0.23118,-0.29226,0.25585,-0.31269,0.058999,-0.6599,0.19561,-0.4466,0.26773,0.12374,0.049445,0.03781,-0.079225,-0.062117,-0.67352,-2.1373,0.026366,0.35127,0.12205,0.024634
-0.028422,-0.052026,0.031583,0.047955,0.20149,-0.29269,0.14373,-0.36883,0.07132,-0.6586,0.27828,-0.77534,0.26887,0.11999,0.022122,0.05334,-0.062982,-0.064653,-0.6424,-1.9109,0.0016071,0.40952,0.11705,-0.11567
-0.025962,-0.050442,0.023764,0.036145,0.20922,-0.28263,0.044559,-0.40573,0.087408,-0.62793,0.35598,-1.1366,0.2717,0.11035,-0.0055398,0.059321,-0.049593,-0.061989,-0.57365,-1.8267,-0.030979,0.44806,0.10593,-0.24874
-0.020451,-0.045175,0.016055,0.021113,0.23194,-0.27561,-0.051884,-0.3794,0.10404,-0.56114,0.42464,-1.5001,0.27343,0.098908,-0.028467,0.05497,-0.046685,-0.05794,-0.50473,-1.8533,-0.056935,0.48086,0.09661,-0.35067
-0.013999,-0.036143,0.012696,0.0093929,0.23959,-0.27917,-0.15613,-0.26058,0.11529,-0.45996,0.48212,-1.825,0.27246,0.086589,-0.043031,0.044715,-0.05601,-0.056673,-0.46187,-1.8929,-0.064387,0.52096,0.098199,-0.4061
-0.0094511,-0.025858,0.013981,0.0063056,0.21396,-0.29433,-0.26562,-0.05737,0.1161,-0.33468,0.5217,-2.0474,0.26732,0.070952,-0.046297,0.034347,-0.073986,-0.061054,-0.44678,-1.8281,-0.050968,0.56459,0.11294,-0.41283
-0.0084256,-0.017933,0.016183,0.011715,0.15929,-0.31788,-0.36531,0.1827,0.10633,-0.20148,0.53232,-2.0967,0.25419,0.049142,-0.036346,0.027041,-0.094076,-0.071098,-0.44032,-1.5758,-0.023737,0.58816,0.1344,-0.3827
-0.010175,-0.014261,0.015018,0.020149,0.097453,-0.34302,-0.44214,0.3956,0.091589,-0.077639,0.50775,-1.9387,0.22635,0.021822,-0.013911,0.022437,-0.10962,-0.083758,-0.41915,-1.1221,0.0070756,0.56182,0.1532,-0.33662
-0.012274,-0.013418,0.0094084,0.02506,0.0528,-0.35848,-0.49977,0.53387,0.08007,0.02348,0.45617,-1.6106,0.1776,-0.0050473,0.016372,0.019249,-0.11616,-0.094456,-0.37285,-0.5235,0.035029,0.46958,0.16464,-0.29425
-0.012604,-0.012036,0.0021944,0.023574,0.038037,-0.34996,-0.55852,0.58661,0.077816,0.09638,0.3994,-1.2165,0.10785,-0.022188,0.046848,0.018989,-0.11265,-0.099376,-0.30957,0.12254,0.059867,0.32094,0.17114,-0.26376
-0.010971,-0.0080517,-0.0025559,0.017934,0.050497,-0.30629,-0.63901,0.57362,0.086224,0.14525,0.35972,-0.87708,0.025871,-0.021517,0.069789,0.027493,-0.10123,-0.097012,-0.24792,0.71782,0.084468,0.14739,0.17774,-0.23934
-0.0090077,-0.0026989,-0.0029293,0.012869,0.079029,-0.22781,-0.7428,0.52191,0.10317,0.1832,0.34464,-0.6688,-0.053709,-0.00013232,0.080671,0.052689,-0.085646,-0.088211,-0.20305,1.1948,0.11002,-0.011192,0.1853,-0.20976
-0.0084717,0.00089212,-0.00026799,0.011425,0.11397,-0.13003,-0.84747,0.44556,0.12585,0.22801,0.34283,-0.59268,-0.118,0.038729,0.079903,0.099663,-0.069328,-0.075228,-0.17857,1.5254,0.13391,-0.12041,0.18862,-0.17264
-0.0094896,0.001302,0.0025098,0.01273,0.15162,-0.038264,-0.92096,0.34445,0.15211,0.29438,0.33531,-0.59175,-0.16251,0.08796,0.072292,0.1659,-0.054288,-0.060846,-0.16947,1.7112,0.15166,-0.15981,0.18147,-0.14256
-0.010344,0.0010044,0.0033076,0.013182,0.19061,0.025454,-0.94342,0.21962,0.17927,0.38496,0.31184,-0.59909,-0.1921,0.14003,0.064744,0.23949,-0.041448,-0.04799,-0.17138,1.7684,0.1605,-0.12705,0.16429,-0.14392
-0.0090457,0.0045659,0.00169,0.0096346,0.22525,0.055172,-0.91789,0.088969,0.20231,0.48547,0.27817,-0.57893,-0.21612,0.18918,0.063169,0.30165,-0.031679,-0.039413,-0.18656,1.7231,0.161,-0.039704,0.14698,-0.19105
-0.0052777,0.014147,-0.0021195,0.0018235,0.24346,0.065368,-0.86161,-0.012182,0.21457,0.56942,0.24844,-0.53542,-0.24181,0.23133,0.069709,0.33294,-0.026289,-0.036986,-0.22065,1.6171,0.15579,0.067284,0.14353,-0.27049
-0.00088182,0.026519,-0.0084474,-0.0077203,0.23296,0.083449,-0.78736,-0.047061,0.21148,0.61242,0.23082,-0.49248,-0.27079,0.26281,0.081456,0.321,-0.026361,-0.040943,-0.27374,1.5107,0.14692,0.152,0.16189,-0.34147
0.001636,0.034793,-0.018002,-0.015822,0.1911,0.13444,-0.69314,0.0016954,0.19475,0.60886,0.22018,-0.46893,-0.30049,0.27951,0.091543,0.26617,-0.031672,-0.049934,-0.33514,1.4682,0.1348,0.18266,0.19689,-0.35779
0.0012762,0.033799,-0.03047,-0.020932,0.13004,0.22676,-0.56994,0.12093,0.17318,0.57912,0.20404,-0.46965,-0.3278,0.27772,0.092404,0.18205,-0.040414,-0.062137,-0.38881,1.5282,0.11915,0.1524,0.23185,-0.29686
-0.00059199,0.024508,-0.043489,-0.023771,0.071502,0.34763,-0.41952,0.27203,0.15877,0.56034,0.17513,-0.49376,-0.35185,0.25591,0.0795,0.08986,-0.050106,-0.076458,-0.42686,1.6781,0.10062,0.080899,0.24811,-0.17389
-0.0014705,0.013509,-0.053359,-0.026106,0.034316,0.47086,-0.26356,0.40797,0.1603,0.58465,0.13822,-0.54467,-0.37382,0.21607,0.053194,0.0092708,-0.058814,-0.092574,-0.46045,1.8583,0.08081,0.000143,0.23588,-0.02999
7.9916e-005,0.0078609,-0.057229,-0.028878,0.024411,0.57243,-0.13348,0.4925,0.17839,0.65925,0.10495,-0.62799,-0.39525,0.16336,0.01771,-0.049277,-0.06551,-0.10975,-0.51773,2.0014,0.060928,-0.066516,0.19933,0.096425
0.0033075,0.0096988,-0.055114,-0.031294,0.035405,0.64392,-0.048589,0.51314,0.205,0.76255,0.082224,-0.73858,-0.41664,0.10422,-0.021698,-0.086201,-0.069462,-0.1259,-0.62757,2.0783,0.04064,-0.11717,0.15305,0.19201
0.0061507,0.015087,-0.050132,-0.031627,0.059116,0.6951,-0.0022455,0.48382,0.22706,0.85946,0.065398,-0.85082,-0.43759,0.044474,-0.060984,-0.10765,-0.069744,-0.13839,-0.79867,2.1162,0.018658,-0.1672,0.11269,0.26781
0.0072065,0.017796,-0.046742,-0.029033,0.096331,0.74382,0.031049,0.43691,0.23202,0.92419,0.042095,-0.92454,-0.45752,-0.011216,-0.097485,-0.11776,-0.065931,-0.14631,-1.0083,2.1666,-0.005334,-0.23245,0.086039,0.33907
0.0069601,0.014534,-0.0482,-0.024816,0.15749,0.80071,0.07411,0.40738,0.21259,0.95324,0.0024119,-0.92566,-0.47584,-0.058078,-0.12876,-0.11424,-0.059621,-0.15195,-1.2089,2.2482,-0.029316,-0.31311,0.069713,0.40573
0.0072991,0.0072709,-0.054908,-0.02193,0.25172,0.86025,0.13084,0.41493,0.1687,0.95937,-0.05395,-0.84695,-0.49135,-0.089482,-0.15195,-0.090659,-0.055028,-0.15953,-1.3489,2.3111,-0.049512,-0.39042,0.053031,0.45174
0.009953,0.0011164,-0.064538,-0.022898,0.3735,0.90565,0.18973,0.45253,0.10653,0.95342,-0.11908,-0.71349,-0.50179,-0.096969,-0.16467,-0.043455,-0.057222,-0.17165,-1.3954,2.2586,-0.062427,-0.43764,0.02573,0.46273
0.015261,-3.2215e-005,-0.073529,-0.027713,0.49958,0.92409,0.2425,0.48802,0.035212,0.93126,-0.18388,-0.56809,-0.50458,-0.073497,-0.1664,0.021937,-0.06858,-0.18644,-1.347,2.0147,-0.066632,-0.43676,-0.015656,0.44385
0.022064,0.0035863,-0.078797,-0.033495,0.60047,0.91988,0.29833,0.47962,-0.037333,0.87776,-0.24354,-0.44632,-0.4984,-0.018794,-0.15844,0.090892,-0.086019,-0.19824,-1.2299,1.5836,-0.063137,-0.38885,-0.066683,0.41946
0.028412,0.0081546,-0.078746,-0.036378,0.65824,0.91365,0.37859,0.3976,-0.10716,0.78432,-0.29725,-0.3569,-0.48403,0.0568,-0.14239,0.14577,-0.1016,-0.2015,-1.084,1.0513,-0.05467,-0.31208,-0.11911,0.41334
0.032429,0.0094544,-0.073523,-0.034308,0.67611,0.92692,0.49539,0.24015,-0.17422,0.66333,-0.34432,-0.2793,-0.46336,0.1339,-0.11846,0.17423,-0.1067,-0.19467,-0.94589,0.52546,-0.044874,-0.23017,-0.16661,0.4266
0.033015,0.0060142,-0.064951,-0.028575,0.67214,0.96382,0.63382,0.034665,-0.2394,0.5454,-0.38187,-0.17884,-0.43722,0.19191,-0.086191,0.1742,-0.096981,-0.18067,-0.83765,0.062985,-0.037733,-0.16003,-0.20768,0.43259
0.030475,-4.4464e-005,-0.056235,-0.022759,0.66288,1.0058,0.75571,-0.17551,-0.3005,0.46018,-0.40662,-0.029493,-0.40384,0.21915,-0.047212,0.15242,-0.074501,-0.1634,-0.76334,-0.3539,-0.03666,-0.10601,-0.2439,0.39344
0.026787,-0.0048687,-0.050997,-0.019839,0.65171,1.0249,0.8243,-0.35031,-0.35033,0.41652,-0.41853,0.16964,-0.35995,0.21854,-0.0077739,0.11859,-0.045365,-0.14373,-0.71249,-0.77479,-0.042855,-0.062675,-0.2758,0.28471
0.024887,-0.0059511,-0.051403,-0.019765,0.63184,1.0062,0.83047,-0.46753,-0.37854,0.39825,-0.42204,0.39395,-0.30391,0.20422,0.022308,0.07968,-0.014849,-0.11869,-0.6677,-1.2122,-0.053835,-0.021889,-0.30015,0.11012
0.026785,-0.0041429,-0.056322,-0.019546,0.59992,0.95994,0.79905,-0.52659,-0.37694,0.37822,-0.4236,0.6086,-0.23867,0.19072,0.034681,0.038405,0.015829,-0.084943,-0.6129,-1.61,-0.063812,0.021363,-0.31157,-0.10095
0.031643,-0.0030786,-0.061305,-0.015948,0.56628,0.91307,0.77012,-0.5426,-0.34492,0.33787,-0.42791,0.78843,-0.17201,0.18252,0.028278,-0.0039888,0.0484,-0.043262,-0.53846,-1.8797,-0.06654,0.067325,-0.30693,-0.30667
0.035631,-0.0063303,-0.061224,-0.0086782,0.55033,0.88649,0.77024,-0.53664,-0.29141,0.27655,-0.43655,0.9278,-0.11321,0.17195,0.011376,-0.044301,0.083267,0.0001775,-0.44073,-1.9721,-0.05904,0.11261,-0.28834,-0.4661
0.034334,-0.014386,-0.054069,-0.001331,0.56428,0.87658,0.79615,-0.52749,-0.23145,0.2052,-0.44991,1.033,-0.068114,0.14742,-0.0022858,-0.07724,0.1163,0.037374,-0.31677,-1.9239,-0.043369,0.15123,-0.26125,-0.54898
0.026196,-0.023875,-0.042769,0.00094601,0.5997,0.85727,0.82218,-0.52688,-0.17907,0.13344,-0.46973,1.1041,-0.035658,0.10553,-0.0011279,-0.099202,0.14028,0.064061,-0.15937,-1.8384,-0.024851,0.17465,-0.22851,-0.54451
0.014111,-0.029865,-0.033057,-0.0046127,0.62991,0.80137,0.82324,-0.53787,-0.14086,0.062685,-0.49877,1.1237,-0.0084483,0.056883,0.017953,-0.11233,0.15032,0.082455,0.04199,-1.8192,-0.0080425,0.17311,-0.18562,-0.46943
0.0035266,-0.029557,-0.028783,-0.016056,0.62766,0.70397,0.79432,-0.55557,-0.11435,-0.0095685,-0.53718,1.0643,0.02283,0.020347,0.048528,-0.12431,0.14865,0.098689,0.29265,-1.9094,0.0063362,0.14037,-0.12274,-0.36743
-0.0016221,-0.024441,-0.02863,-0.028034,0.58367,0.58885,0.75215,-0.57095,-0.092303,-0.081016,-0.57852,0.9117,0.063586,0.009566,0.078944,-0.14294,0.14404,0.11707,0.58214,-2.0807,0.021125,0.080765,-0.033567,-0.29102
-0.0017712,-0.019121,-0.027247,-0.035807,0.51078,0.49253,0.72054,-0.57734,-0.069319,-0.14152,-0.60972,0.6854,0.11163,0.022381,0.098585,-0.16963,0.14552,0.13616,0.87989,-2.2695,0.039586,0.012978,0.075068,-0.27021
-0.00096894,-0.017787,-0.019939,-0.038655,0.43079,0.43852,0.71274,-0.57695,-0.04591,-0.17943,-0.61628,0.43629,0.15787,0.041865,0.1022,-0.19749,0.15536,0.15004,1.142,-2.4213,0.062179,-0.03469,0.18177,-0.28849
-0.0032582,-0.021255,-0.00684,-0.039858,0.35597,0.42105,0.72403,-0.5823,-0.027023,-0.19133,-0.58978,0.22225,0.19118,0.048502,0.090679,-0.21598,0.16719,0.15375,1.3269,-2.5121,0.085757,-0.037104,0.26044,-0.28913
-0.0094055,-0.026926,0.0070273,-0.043356,0.28096,0.40994,0.73752,-0.60888,-0.016798,-0.18577,-0.53283,0.079774,0.20462,0.034081,0.06938,-0.21826,0.17133,0.14795,1.4104,-2.5395,0.1053,0.014137,0.29559,-0.21483
-0.016659,-0.031385,0.015727,-0.050089,0.1913,0.37192,0.73578,-0.66201,-0.01421,-0.17743,-0.4579,0.013276,0.19935,0.0065255,0.045664,-0.20498,0.16305,0.13887,1.3947,-2.5069,0.11625,0.10575,0.29207,-0.05539
-0.021356,-0.033182,0.016865,-0.057202,0.080481,0.29301,0.70879,-0.72633,-0.013212,-0.17657,-0.38101,0.0076216,0.18421,-0.017698,0.026599,-0.18171,0.14691,0.13356,1.3065,-2.4181,0.11553,0.2104,0.27135,0.13377
-0.021805,-0.033485,0.012903,-0.060694,-0.039518,0.18717,0.65461,-0.76782,-0.0069871,-0.18244,-0.31405,0.048394,0.17112,-0.026973,0.016607,-0.15311,0.13357,0.13447,1.1876,-2.2841,0.10133,0.30178,0.2569,0.26093
-0.019053,-0.034437,0.0087002,-0.059029,-0.14298,0.086976,0.57637,-0.75048,0.0073698,-0.18558,-0.26045,0.12987,0.16893,-0.022839,0.015383,-0.11936,0.13147,0.13788,1.0813,-2.1248,0.073063,0.36688,0.2595,0.25736
-0.015442,-0.037102,0.0078367,-0.054477,-0.20641,0.023278,0.48112,-0.65982,0.027369,-0.17656,-0.21568,0.24545,0.17915,-0.017105,0.017447,-0.077851,0.14014,0.13704,1.0174,-1.9594,0.032497,0.40772,0.2729,0.12373
-0.012749,-0.040872,0.010693,-0.051094,-0.22316,0.0063255,0.38229,-0.51845,0.047421,-0.15456,-0.17158,0.37434,0.19549,-0.021174,0.014585,-0.027901,0.15029,0.12706,1.0017,-1.7945,-0.014863,0.43325,0.28168,-0.070867
-0.011548,-0.04451,0.015234,-0.051231,-0.20617,0.019018,0.302,-0.3824,0.06258,-0.12971,-0.1214,0.48218,0.20755,-0.037072,0.0004568,0.026022,0.15018,0.10761,1.0144,-1.6228,-0.060321,0.44928,0.27386,-0.23579
-0.011754,-0.047346,0.019051,-0.053652,-0.17802,0.025653,0.26799,-0.31777,0.070926,-0.11857,-0.06313,0.53831,0.20663,-0.057435,-0.025438,0.075007,0.13327,0.081958,1.0216,-1.4381,-0.095319,0.4541,0.24847,-0.31569
-0.013168,-0.049298,0.020738,-0.054788,-0.15668,-0.0086118,0.30309,-0.3695,0.07359,-0.1355,-0.00016687,0.53408,0.19056,-0.073489,-0.057327,0.10904,0.10174,0.054211,0.99443,-1.2491,-0.11568,0.44194,0.21369,-0.31615
-0.015318,-0.049971,0.019944,-0.051857,-0.14718,-0.098275,0.41174,-0.53913,0.073335,-0.185,0.060542,0.48515,0.16518,-0.083389,-0.086577,0.12022,0.064311,0.027751,0.92524,-1.076,-0.12348,0.40962,0.17939,-0.28375
-0.017132,-0.048252,0.016881,-0.045078,-0.14339,-0.2291,0.57173,-0.7837,0.073005,-0.25835,0.11186,0.41608,0.14122,-0.093678,-0.10637,0.10467,0.031284,0.0056368,0.83018,-0.92715,-0.12482,0.36011,0.15108,-0.26202
-0.017403,-0.043346,0.012206,-0.037184,-0.13666,-0.36575,0.73853,-1.0357,0.074311,-0.33607,0.14977,0.34334,0.1283,-0.11341,-0.11433,0.063985,0.01045,-0.0085389,0.73605,-0.77796,-0.12523,0.3006,0.12931,-0.2602
-0.015937,-0.036409,0.007272,-0.030846,-0.12378,-0.47052,0.86262,-1.2321,0.076877,-0.39482,0.17492,0.2733,0.12948,-0.14706,-0.1119,0.0065905,0.0056382,-0.011439,0.66102,-0.5755,-0.12652,0.23736,0.11283,-0.25601
-0.01421,-0.030897,0.0040124,-0.026337,-0.10877,-0.52093,0.91172,-1.3372,0.077971,-0.4158,0.19111,0.21538,0.13967,-0.19272,-0.102,-0.052579,0.01677,-0.002462,0.6027,-0.2735,-0.12737,0.17195,0.10122,-0.22388
-0.014479,-0.030649,0.0040448,-0.021347,-0.098486,-0.51539,0.88538,-1.347,0.073775,-0.39058,0.20192,0.19379,0.14882,-0.24662,-0.087277,-0.096227,0.039876,0.014333,0.54061,0.1267,-0.12643,0.10112,0.094697,-0.16044
-0.017873,-0.036903,0.0075267,-0.012924,-0.096572,-0.46554,0.81187,-1.2786,0.062268,-0.32194,0.20781,0.24178,0.1478,-0.30862,-0.069669,-0.11214,0.067183,0.031227,0.44964,0.56435,-0.12454,0.019653,0.092278,-0.086544
-0.023189,-0.046779,0.01279,0.00019869,-0.10081,-0.38469,0.72833,-1.1532,0.045919,-0.22021,0.20674,0.38049,0.133,-0.38254,-0.050668,-0.099543,0.088805,0.040836,0.31461,0.95213,-0.12381,-0.075722,0.090751,-0.027612
-0.027714,-0.054835,0.017265,0.016675,-0.1058,-0.2835,0.65553,-0.98779,0.03154,-0.098558,0.19812,0.60081,0.1068,-0.47052,-0.031162,-0.069375,0.096818,0.040574,0.13811,1.2334,-0.12519,-0.18328,0.085616,0.0070704
-0.029506,-0.056752,0.019148,0.033489,-0.10869,-0.17596,0.58392,-0.79754,0.026367,0.029268,0.18709,0.86516,0.074378,-0.56639,-0.011247,-0.03727,0.089895,0.034455,-0.059139,1.4202,-0.12752,-0.2949,0.072742,0.027911
-0.02913,-0.052309,0.018619,0.047764,-0.11361,-0.087321,0.48031,-0.60329,0.032843,0.14807,0.18467,1.1274,0.039717,-0.65456,0.0091667,-0.014143,0.075058,0.030957,-0.24263,1.5804,-0.12949,-0.39756,0.049429,0.050755
-0.02923,-0.045295,0.017696,0.058096,-0.1316,-0.051962,0.31177,-0.43266,0.046473,0.23999,0.20207,1.3517,0.003647,-0.71635,0.029125,-0.0012612,0.064326,0.038299,-0.37167,1.7805,-0.13236,-0.47826,0.014953,0.080327
-0.032258,-0.040496,0.018768,0.064771,-0.17606,-0.098067,0.070755,-0.31005,0.059158,0.28703,0.24242,1.5127,-0.035039,-0.73937,0.046325,0.0067524,0.067687,0.059925,-0.41145,2.0278,-0.13968,-0.53119,-0.028457,0.10724
-0.038276,-0.040218,0.022737,0.069158,-0.25613,-0.22915,-0.21529,-0.24193,0.0658,0.27826,0.29626,1.5816,-0.076881,-0.72352,0.058856,0.014148,0.086837,0.092522,-0.34866,2.2581,-0.15344,-0.56248,-0.074453,0.12036
-0.04464,-0.042977,0.027962,0.072955,-0.37128,-0.41795,-0.49634,-0.20984,0.068715,0.21823,0.34552,1.5181,-0.11965,-0.67986,0.067768,0.018469,0.11405,0.12737,-0.20384,2.3779,-0.16998,-0.58774,-0.11317,0.12177
-0.047701,-0.045063,0.03081,0.077662,-0.5095,-0.61982,-0.72541,-0.17918,0.075819,0.12961,0.3744,1.2875,-0.15826,-0.62403,0.077424,0.011897,0.137,0.15424,-0.029343,2.3284,-0.18025,-0.62185,-0.13524,0.12957
-0.045066,-0.043368,0.027677,0.084264,-0.6502,-0.79679,-0.88005,-0.11978,0.093774,0.045825,0.37964,0.8956,-0.18667,-0.56902,0.091968,-0.011818,0.14608,0.16604,0.11174,2.12,-0.17573,-0.66741,-0.13782,0.16509
-0.036786,-0.037281,0.017409,0.093034,-0.77125,-0.93481,-0.96681,-0.024924,0.12172,-0.0046022,0.37178,0.41091,-0.20083,-0.52103,0.11007,-0.050858,0.13926,0.16187,0.17676,1.8125,-0.15555,-0.71137,-0.12824,0.23529
-0.024946,-0.028599,0.0025982,0.10352,-0.85697,-1.0422,-1.0087,0.083803,0.15088,-0.01318,0.36593,-0.053181,-0.20108,-0.47929,0.12276,-0.094652,0.12133,0.14673,0.16483,1.464,-0.12882,-0.73391,-0.12134,0.32499
-0.012395,-0.020114,-0.011343,0.11483,-0.90288,-1.134,-1.027,0.16857,0.17038,0.0040157,0.36906,-0.39271,-0.19269,-0.43851,0.11744,-0.12946,0.098868,0.12784,0.11193,1.0928,-0.10952,-0.72355,-0.13102,0.40549
-0.001694,-0.01421,-0.019123,0.12612,-0.91381,-1.2165,-1.0304,0.19613,0.17452,0.016515,0.37476,-0.5685,-0.18368,-0.39207,0.085827,-0.14582,0.075028,0.1097,0.061871,0.68426,-0.10741,-0.68602,-0.16163,0.45265
0.0052812,-0.012234,-0.018865,0.1368,-0.89688,-1.2868,-1.0137,0.15514,0.16581,-0.0017094,0.37059,-0.62134,-0.18058,-0.33496,0.029989,-0.14268,0.048005,0.091361,0.034276,0.22846,-0.12197,-0.63872,-0.20551,0.46057
0.0073925,-0.014514,-0.013495,0.14624,-0.85516,-1.3429,-0.96394,0.06188,0.15223,-0.05762,0.35183,-0.63487,-0.18427,-0.26578,-0.038451,-0.12589,0.013904,0.067856,0.013643,-0.24633,-0.14324,-0.59568,-0.24848,0.44123
0.0043966,-0.020518,-0.0089808,0.15304,-0.78862,-1.3935,-0.86668,-0.045997,0.14153,-0.13919,0.32896,-0.67385,-0.18857,-0.18697,-0.10486,-0.10349,-0.028671,0.034883,-0.03309,-0.67279,-0.15797,-0.55675,-0.27853,0.41148
-0.0027668,-0.028917,-0.010319,0.15477,-0.70256,-1.4531,-0.71329,-0.12254,0.13755,-0.22968,0.32066,-0.74209,-0.18311,-0.10307,-0.1585,-0.081713,-0.075905,-0.0069102,-0.12647,-0.96951,-0.15596,-0.51138,-0.2908,0.37805
-0.011963,-0.037693,-0.018034,0.14881,-0.61631,-1.5274,-0.51226,-0.1272,0.14032,-0.32424,0.33726,-0.78664,-0.15923,-0.018092,-0.19475,-0.064133,-0.11976,-0.051207,-0.2569,-1.0673,-0.13258,-0.4534,-0.28582,0.3321
-0.020476,-0.044516,-0.02781,0.13425,-0.56208,-1.6014,-0.30014,-0.035327,0.14823,-0.43446,0.36881,-0.73874,-0.11552,0.065919,-0.2127,-0.053062,-0.15181,-0.089242,-0.39177,-0.92162,-0.087988,-0.39198,-0.26438,0.25697
-0.026107,-0.047477,-0.033714,0.11333,-0.57064,-1.6427,-0.14046,0.156,0.1592,-0.57574,0.38958,-0.55974,-0.059713,0.14764,-0.21214,-0.050221,-0.16727,-0.11441,-0.49785,-0.51858,-0.02592,-0.34707,-0.2255,0.14367
-0.028184,-0.04593,-0.032587,0.091092,-0.65173,-1.6213,-0.099937,0.4267,0.17,-0.74654,0.3765,-0.264,-0.0055636,0.22353,-0.19364,-0.054787,-0.16707,-0.12525,-0.55845,0.11379,0.046138,-0.33268,-0.16982,0.0026398
-0.027857,-0.040977,-0.026179,0.072739,-0.78374,-1.5288,-0.20906,0.73654,0.17541,-0.9164,0.32724,0.087648,0.03379,0.28625,-0.16093,-0.060266,-0.1572,-0.12556,-0.57412,0.89313,0.11703,-0.3435,-0.10469,-0.13691
-0.027467,-0.035103,-0.019325,0.060453,-0.92235,-1.3832,-0.43299,1.0322,0.16966,-1.0341,0.26286,0.41349,0.052238,0.32682,-0.12172,-0.054241,-0.14598,-0.12256,-0.55349,1.6908,0.17462,-0.35772,-0.04411,-0.24098
-0.029232,-0.030885,-0.015767,0.052074,-1.0244,-1.2154,-0.6806,1.2586,0.15004,-1.0526,0.21307,0.64153,0.053311,0.33983,-0.084513,-0.023954,-0.14097,-0.12448,-0.50828,2.372,0.21111,-0.35331,-0.0015564,-0.28973
-0.033913,-0.029457,-0.015222,0.043035,-1.0713,-1.0507,-0.85376,1.373,0.11973,-0.95534,0.19588,0.73532,0.047471,0.32756,-0.053242,0.033999,-0.14657,-0.13814,-0.45725,2.8493,0.22728,-0.32228,0.019091,-0.28955
-0.040209,-0.029835,-0.014183,0.030267,-1.0756,-0.89911,-0.90532,1.3593,0.08711,-0.76567,0.20725,0.70718,0.04582,0.2991,-0.024793,0.10646,-0.16328,-0.16647,-0.42929,3.1095,0.23189,-0.27066,0.025915,-0.2699
-0.045376,-0.029808,-0.0096213,0.015018,-1.0676,-0.76026,-0.86139,1.2341,0.061351,-0.53485,0.22722,0.61117,0.054326,0.26407,0.0078946,0.16596,-0.18852,-0.20656,-0.45421,3.1927,0.23531,-0.20725,0.031398,-0.26658
-0.046892,-0.027829,-0.002116,0.0021841,-1.0715,-0.63425,-0.7888,1.041,0.047355,-0.31742,0.23551,0.51448,0.072316,0.22568,0.049154,0.18375,-0.21817,-0.24985,-0.54364,3.1404,0.24194,-0.13589,0.040776,-0.30157
-0.044203,-0.024402,0.004458,-0.0034801,-1.0894,-0.52638,-0.73338,0.83261,0.04382,-0.15046,0.22376,0.45969,0.095701,0.17892,0.095719,0.14649,-0.24795,-0.28547,-0.67926,2.9596,0.24694,-0.060781,0.046553,-0.37209
-0.039267,-0.021732,0.0064039,-0.001215,-1.1044,-0.44158,-0.68066,0.64754,0.045716,-0.047508,0.19667,0.44129,0.12154,0.1162,0.13748,0.065499,-0.27425,-0.30561,-0.823,2.6342,0.23997,0.0014708,0.034514,-0.45471
-0.035332,-0.021878,0.0036095,0.0049605,-1.0975,-0.37611,-0.57253,0.49697,0.049137,-0.0057181,0.16414,0.41394,0.14945,0.036634,0.16301,-0.028862,-0.29438,-0.30974,-0.94387,2.1698,0.21312,0.019986,-0.0035582,-0.5206
-0.03469,-0.024993,-0.00024696,0.0091401,-1.0651,-0.31651,-0.36513,0.36791,0.054922,-0.015459,0.13314,0.32764,0.1786,-0.048563,0.16539,-0.10443,-0.30688,-0.30448,-1.0377,1.6245,0.16706,-0.033526,-0.06126,-0.5509
-0.037151,-0.029141,-0.00085234,0.0076295,-1.0234,-0.24887,-0.077087,0.24029,0.068534,-0.063734,0.1056,0.16359,0.20366,-0.1194,0.14453,-0.14465,-0.3117,-0.29879,-1.1204,1.0913,0.11109,-0.15978,-0.12026,-0.54325
-0.040454,-0.031737,0.0031295,0.00087925,-0.99539,-0.17069,0.21445,0.10485,0.096383,-0.13173,0.082093,-0.055649,0.21528,-0.15773,0.10562,-0.1543,-0.31016,-0.29789,-1.1999,0.63977,0.057508,-0.32067,-0.16174,-0.50771
-0.042201,-0.031221,0.0092011,-0.0081157,-0.99351,-0.095034,0.4263,-0.031524,0.14081,-0.19419,0.066075,-0.28686,0.20658,-0.15757,0.0564,-0.15087,-0.30423,-0.30022,-1.255,0.26871,0.014858,-0.45474,-0.17701,-0.45813
-0.041546,-0.027622,0.013498,-0.017225,-1.0089,-0.043126,0.52492,-0.15559,0.19638,-0.22641,0.064024,-0.49692,0.18123,-0.12752,0.0055382,-0.14965,-0.29583,-0.2996,-1.2462,-0.086603,-0.015077,-0.51042,-0.16952,-0.40604
-0.039193,-0.021908,0.014118,-0.02722,-1.0166,-0.031589,0.53926,-0.26273,0.24929,-0.21604,0.081194,-0.67735,0.1552,-0.083735,-0.037905,-0.15427,-0.28643,-0.29079,-1.1519,-0.49172,-0.035276,-0.47353,-0.14872,-0.35956
-0.035976,-0.015163,0.012261,-0.040655,-0.99167,-0.063997,0.52476,-0.36313,0.28053,-0.17024,0.11662,-0.83348,0.14863,-0.039295,-0.065806,-0.15891,-0.27699,-0.27365,-0.99919,-0.94194,-0.049027,-0.37058,-0.12264,-0.32421
-0.031738,-0.0084202,0.010436,-0.058712,-0.92373,-0.13199,0.51492,-0.47367,0.27222,-0.11116,0.16143,-0.96338,0.17222,0.0012526,-0.073791,-0.15785,-0.26744,-0.25268,-0.85545,-1.3401,-0.056952,-0.2485,-0.095461,-0.30184
-0.02579,-0.0029238,0.0098017,-0.078912,-0.82152,-0.2228,0.50339,-0.60264,0.21531,-0.062268,0.20188,-1.0496,0.21829,0.038112,-0.063741,-0.15243,-0.25568,-0.23225,-0.78347,-1.546,-0.057438,-0.14695,-0.070223,-0.28726
-0.018396,4.8136e-005,0.0093808,-0.095798,-0.70446,-0.3258,0.46702,-0.74072,0.11534,-0.035558,0.22503,-1.0722,0.26374,0.067437,-0.043193,-0.14934,-0.23708,-0.21192,-0.79493,-1.4668,-0.049332,-0.079889,-0.051543,-0.26698
-0.011443,2.5847e-005,0.0078041,-0.10405,-0.58989,-0.43304,0.40112,-0.86543,-0.0075236,-0.028614,0.22357,-1.0304,0.28334,0.076905,-0.020946,-0.15264,-0.20611,-0.18633,-0.84331,-1.1275,-0.034217,-0.03283,-0.044434,-0.22414
-0.0071518,-0.0019354,0.0055596,-0.10155,-0.48486,-0.53528,0.32964,-0.95448,-0.12577,-0.031736,0.19735,-0.95066,0.26387,0.051879,-0.0017562,-0.15814,-0.16033,-0.15024,-0.86404,-0.67073,-0.016607,0.027275,-0.050353,-0.1486
-0.0058889,-0.003646,0.0051452,-0.090158,-0.38705,-0.61896,0.28156,-0.99681,-0.2164,-0.03759,0.15168,-0.87156,0.20991,-0.011087,0.015653,-0.15592,-0.10412,-0.10477,-0.82904,-0.28402,-0.0023072,0.13484,-0.065271,-0.045472
-0.0053569,-0.0032507,0.0086419,-0.073956,-0.29165,-0.66843,0.2594,-0.9942,-0.27099,-0.045421,0.094435,-0.81808,0.13873,-0.094596,0.035637,-0.13899,-0.048721,-0.059162,-0.76875,-0.099676,0.0037709,0.30612,-0.08268,0.06517
-0.0023493,-0.0005996,0.014956,-0.056716,-0.19773,-0.67259,0.23384,-0.95609,-0.29754,-0.058254,0.034094,-0.78548,0.070063,-0.16467,0.060423,-0.10968,-0.0069412,-0.025642,-0.74245,-0.13265,-0.00053186,0.52465,-0.099148,0.15891
0.0043124,0.0027069,0.019588,-0.04053,-0.10971,-0.63109,0.17142,-0.89526,-0.31289,-0.077799,-0.020984,-0.74588,0.018026,-0.18866,0.087342,-0.077811,0.014454,-0.010505,-0.78145,-0.29329,-0.013377,0.74173,-0.11707,0.22115
0.012449,0.0047042,0.017584,-0.026099,-0.034461,-0.55495,0.068494,-0.8277,-0.33076,-0.1023,-0.06321,-0.6705,-0.011225,-0.15493,0.11067,-0.052061,0.019363,-0.008341,-0.85316,-0.45991,-0.028793,0.89735,-0.14168,0.25469
0.018263,0.0047641,0.0073381,-0.013767,0.022525,-0.46096,-0.042372,-0.77243,-0.35419,-0.128,-0.087672,-0.54927,-0.018278,-0.07942,0.12571,-0.032757,0.020201,-0.0041617,-0.87666,-0.55556,-0.038604,0.95283,-0.17494,0.27481
0.019702,0.0042743,-0.0079496,-0.0040753,0.059627,-0.36369,-0.12093,-0.74545,-0.37727,-0.15097,-0.094858,-0.39419,-0.0091477,0.0064395,0.13083,-0.013146,0.03026,0.017709,-0.77772,-0.57648,-0.036543,0.91414,-0.21184,0.29534
0.018369,0.0058214,-0.022396,0.0024756,0.080268,-0.27047,-0.15601,-0.74931,-0.39401,-0.16669,-0.092017,-0.22806,0.0053811,0.077868,0.1256,0.011721,0.055984,0.064279,-0.53996,-0.56309,-0.02251,0.82762,-0.24213,0.31655
0.01818,0.011501,-0.03132,0.0059187,0.093291,-0.18202,-0.17548,-0.76722,-0.40626,-0.16888,-0.091233,-0.071195,0.011943,0.1324,0.10801,0.036716,0.094325,0.13037,-0.2133,-0.55084,-0.0033864,0.74975,-0.25598,0.32414
0.021986,0.021485,-0.033845,0.0069015,0.11152,-0.096968,-0.21978,-0.77019,-0.42369,-0.15095,-0.10457,0.063633,-0.00020397,0.18774,0.074897,0.047373,0.1361,0.20244,0.12336,-0.54856,0.011466,0.71322,-0.24849,0.3007
0.02921,0.033686,-0.032553,0.0062657,0.14688,-0.015807,-0.30377,-0.73431,-0.45577,-0.11069,-0.13903,0.16892,-0.033202,0.26448,0.02637,0.03041,0.17188,0.26589,0.41351,-0.55798,0.017527,0.71444,-0.22066,0.24077
0.036524,0.044664,-0.031091,0.004526,0.2029,0.058741,-0.40239,-0.65513,-0.50287,-0.054731,-0.19441,0.24075,-0.07858,0.3681,-0.0299,-0.014067,0.19592,0.31064,0.64887,-0.60404,0.019349,0.72877,-0.17732,0.15814
0.040748,0.051275,-0.031859,0.0016617,0.26939,0.1243,-0.47267,-0.54708,-0.55463,0.0021725,-0.26441,0.2819,-0.1218,0.4836,-0.079712,-0.068992,0.20646,0.33263,0.85485,-0.73419,0.027316,0.7365,-0.12505,0.079686
0.041296,0.052204,-0.035208,-0.0026769,0.32475,0.18125,-0.49082,-0.42867,-0.59757,0.043721,-0.3391,0.304,-0.1507,0.58551,-0.10946,-0.10912,0.20411,0.33251,1.0539,-0.97742,0.04866,0.73578,-0.07095,0.030369
0.040173,0.048572,-0.039918,-0.0087496,0.3465,0.23224,-0.47004,-0.3078,-0.62569,0.059981,-0.40631,0.3206,-0.16164,0.65327,-0.11426,-0.1159,0.19074,0.31439,1.2402,-1.2989,0.08007,0.7341,-0.021518,0.020254
0.039906,0.043276,-0.044054,-0.016438,0.32406,0.27949,-0.44407,-0.18143,-0.64512,0.050838,-0.45217,0.33219,-0.15886,0.67962,-0.10041,-0.087399,0.16984,0.28524,1.3839,-1.5979,0.10874,0.73137,0.019161,0.042254
0.041479,0.039385,-0.045746,-0.025375,0.26472,0.32234,-0.43363,-0.05007,-0.66822,0.023275,-0.46355,0.31734,-0.14831,0.66799,-0.080381,-0.036063,0.1468,0.25381,1.4577,-1.7612,0.1218,0.71436,0.050698,0.080677
0.043958,0.038495,-0.044039,-0.035474,0.18881,0.35792,-0.42759,0.068371,-0.70172,-0.014009,-0.43406,0.24453,-0.13163,0.62542,-0.06446,0.022771,0.12782,0.22811,1.4597,-1.7336,0.11651,0.66899,0.075019,0.12282
0.045697,0.039958,-0.039704,-0.047338,0.11836,0.38444,-0.39552,0.14259,-0.73823,-0.053822,-0.3711,0.10236,-0.10554,0.56072,-0.055919,0.082052,0.11753,0.21225,1.4126,-1.5496,0.10233,0.59688,0.092512,0.16482
0.045752,0.041335,-0.0352,-0.061843,0.067967,0.40418,-0.31904,0.15166,-0.75791,-0.090197,-0.29746,-0.074869,-0.066752,0.48952,-0.052511,0.14512,0.11705,0.20521,1.3441,-1.3008,0.092587,0.51734,0.099089,0.20885
0.044325,0.039738,-0.033144,-0.078758,0.043642,0.4232,-0.21284,0.11083,-0.73936,-0.11727,-0.24285,-0.21247,-0.017731,0.43822,-0.051534,0.21785,0.12392,0.20246,1.2663,-1.0705,0.092681,0.45028,0.087909,0.2559
0.04228,0.033325,-0.034055,-0.095384,0.047124,0.44739,-0.11704,0.075741,-0.67199,-0.1305,-0.22798,-0.23624,0.031956,0.437,-0.053189,0.29791,0.13372,0.19917,1.1708,-0.8888,0.094674,0.39565,0.055662,0.30099
0.040517,0.022296,-0.035438,-0.10681,0.078887,0.47775,-0.06794,0.11616,-0.56198,-0.12988,-0.2514,-0.12254,0.070435,0.50201,-0.059559,0.37021,0.14189,0.19229,1.0421,-0.74105,0.083062,0.33032,0.0085047,0.33423
0.039699,0.0090109,-0.033692,-0.10848,0.13592,0.50901,-0.071702,0.27423,-0.42921,-0.12178,-0.28994,0.081271,0.090966,0.61936,-0.071163,0.41254,0.14469,0.1803,0.87354,-0.61002,0.047088,0.22804,-0.038025,0.34541
0.040134,-0.0028797,-0.027747,-0.099628,0.20755,0.5328,-0.1008,0.53574,-0.29834,-0.11641,-0.31459,0.28502,0.096472,0.74601,-0.084988,0.40777,0.13977,0.1619,0.67465,-0.50413,-0.010108,0.085874,-0.066219,0.32775
0.041494,-0.010137,-0.021132,-0.084798,0.27609,0.54299,-0.11352,0.83457,-0.18979,-0.12204,-0.31136,0.41398,0.097595,0.83078,-0.0959,0.35413,0.12674,0.13584,0.46639,-0.44351,-0.072216,-0.06746,-0.065575,0.27856
0.042561,-0.011762,-0.019842,-0.071565,0.32495,0.53865,-0.080361,1.0877,-0.11425,-0.14023,-0.2911,0.45443,0.10536,0.84161,-0.099814,0.26676,0.10787,0.10235,0.27043,-0.42155,-0.11912,-0.19044,-0.037485,0.1986
0.041586,-0.0098613,-0.027105,-0.065675,0.34873,0.52295,-3.3957e-005,1.238,-0.071322,-0.16569,-0.27954,0.45345,0.12341,0.77927,-0.095646,0.1694,0.087602,0.064492,0.10029,-0.38813,-0.13775,-0.2599,0.0075148,0.092927
0.0374,-0.0086738,-0.03951,-0.067315,0.35625,0.50035,0.10147,1.2779,-0.0512,-0.19059,-0.29437,0.47595,0.14506,0.668,-0.084768,0.082005,0.070112,0.026713,-0.043764,-0.28289,-0.12751,-0.28807,0.056566,-0.026699
0.030489,-0.012028,-0.048573,-0.071709,0.3626,0.47615,0.18406,1.2441,-0.038715,-0.20939,-0.32736,0.55436,0.15729,0.53281,-0.069309,0.012211,0.055845,-0.0090056,-0.17697,-0.097542,-0.098536,-0.31122,0.09954,-0.14094
0.02297,-0.020834,-0.047237,-0.07366,0.37601,0.45889,0.21077,1.1874,-0.019085,-0.22071,-0.34695,0.66908,0.14917,0.38364,-0.051327,-0.044346,0.039648,-0.046376,-0.32792,0.08811,-0.065312,-0.36052,0.12962,-0.22684
0.017254,-0.032446,-0.036034,-0.072153,0.3905,0.46113,0.16295,1.1408,0.015911,-0.22576,-0.32094,0.77102,0.11926,0.21872,-0.033225,-0.096087,0.012892,-0.093475,-0.52813,0.13863,-0.040032,-0.4403,0.14173,-0.26615
0.014423,-0.042486,-0.023289,-0.07092,0.39073,0.49349,0.049475,1.1013,0.064011,-0.22631,-0.24291,0.82408,0.077596,0.04119,-0.017899,-0.14621,-0.030699,-0.15632,-0.79318,-0.048262,-0.028301,-0.53065,0.1328,-0.25335
0.013716,-0.047725,-0.018676,-0.074492,0.36514,0.55382,-0.093929,1.0358,0.11343,-0.2244,-0.14202,0.83251,0.041248,-0.12951,-0.0073271,-0.18846,-0.088907,-0.23154,-1.1046,-0.45801,-0.028287,-0.60839,0.1046,-0.19855
0.013492,-0.047818,-0.025417,-0.083366,0.31635,0.6207,-0.2178,0.90398,0.14905,-0.22381,-0.068213,0.83308,0.026619,-0.26461,-0.000456,-0.21011,-0.14913,-0.30418,-1.4065,-0.94489,-0.03328,-0.66472,0.065794,-0.1231
0.012626,-0.044658,-0.037843,-0.092723,0.26061,0.66067,-0.28109,0.68448,0.16085,-0.2302,-0.06271,0.86149,0.042865,-0.34642,0.0071847,-0.19897,-0.1931,-0.35385,-1.6259,-1.303,-0.036464,-0.70308,0.029435,-0.050273
0.010946,-0.040207,-0.046443,-0.095906,0.21744,0.6477,-0.27145,0.38965,0.14966,-0.24792,-0.13393,0.92173,0.089512,-0.38389,0.020726,-0.14966,-0.20619,-0.36597,-1.7093,-1.3772,-0.03523,-0.72201,0.0064286,0.0042694
0.0084308,-0.034776,-0.045895,-0.089549,0.19821,0.58089,-0.21116,0.061228,0.12662,-0.27532,-0.25394,0.98214,0.15831,-0.40779,0.041688,-0.066022,-0.1858,-0.3407,-1.6535,-1.1419,-0.031951,-0.70307,-0.00025661,0.038144
0.0043245,-0.027155,-0.039018,-0.076033,0.20188,0.48461,-0.1437,-0.24944,0.10655,-0.30255,-0.3754,0.99977,0.23721,-0.44805,0.06586,0.039847,-0.14321,-0.29318,-1.5113,-0.70099,-0.030305,-0.61928,0.0041113,0.061533
-0.0025009,-0.016188,-0.033398,-0.061543,0.21889,0.38911,-0.10907,-0.50463,0.099554,-0.31524,-0.45626,0.95135,0.31407,-0.51091,0.085728,0.14992,-0.097206,-0.24467,-1.3648,-0.22002,-0.03002,-0.45901,0.011324,0.09023
-0.011962,-0.0022612,-0.034036,-0.051818,0.23778,0.30726,-0.12322,-0.69388,0.10613,-0.30255,-0.47742,0.84569,0.37915,-0.57446,0.095992,0.24321,-0.063284,-0.21071,-1.2826,0.1594,-0.024917,-0.24432,0.016488,0.13544
-0.021567,0.012488,-0.038674,-0.049067,0.24895,0.22805,-0.17362,-0.83158,0.11869,-0.26398,-0.44588,0.70823,0.4266,-0.60548,0.097726,0.30019,-0.045334,-0.19393,-1.2836,0.37105,-0.0068455,-0.025751,0.020235,0.19592
-0.027265,0.02513,-0.039764,-0.051822,0.24486,0.13329,-0.23089,-0.94159,0.12792,-0.20978,-0.38593,0.55268,0.45536,-0.58401,0.09743,0.30884,-0.03519,-0.1855,-1.3307,0.42585,0.027121,0.14374,0.025909,0.25791
-0.026182,0.033114,-0.030994,-0.056778,0.22037,0.022397,-0.26638,-1.0391,0.12924,-0.15429,-0.32517,0.36558,0.4692,-0.51681,0.10136,0.2701,-0.020021,-0.17301,-1.3546,0.38302,0.070325,0.23561,0.03506,0.30401
-0.019117,0.034923,-0.012576,-0.060705,0.17525,-0.078259,-0.26376,-1.12,0.12486,-0.10709,-0.28181,0.11851,0.47477,-0.43143,0.10963,0.19879,0.007871,-0.14903,-1.2942,0.31956,0.10927,0.2536,0.045356,0.3253
-0.010447,0.030281,0.0089014,-0.061455,0.11673,-0.13184,-0.22018,-1.1629,0.1207,-0.068078,-0.25712,-0.20164,0.47767,-0.35748,0.11501,0.1179,0.045795,-0.11485,-1.1307,0.31136,0.13183,0.22053,0.052197,0.32749
-0.0051941,0.020298,0.025338,-0.058319,0.056933,-0.12001,-0.14103,-1.1424,0.12128,-0.029887,-0.23552,-0.57141,0.47843,-0.30985,0.10785,0.048509,0.083303,-0.078398,-0.89801,0.42014,0.13448,0.15917,0.05205,0.32546
-0.005513,0.0075686,0.032364,-0.052108,0.003896,-0.059123,-0.035351,-1.0454,0.12677,0.01494,-0.19287,-0.93906,0.47124,-0.28408,0.083465,0.0012464,0.11019,-0.048406,-0.66458,0.67786,0.12302,0.083613,0.044745,0.33017
-0.0094863,-0.0042801,0.031105,-0.044809,-0.048513,0.010384,0.084689,-0.88289,0.13412,0.067397,-0.11045,-1.2577,0.4474,-0.26342,0.046413,-0.025608,0.12365,-0.028911,-0.499,1.0716,0.10663,0.0042621,0.033595,0.33839
-0.013143,-0.011849,0.026069,-0.038618,-0.12254,0.052246,0.20244,-0.68876,0.14053,0.12078,0.012501,-1.5147,0.40143,-0.22973,0.008433,-0.040936,0.12949,-0.017079,-0.43694,1.5421,0.090902,-0.064418,0.023965,0.33464
-0.013842,-0.013548,0.021649,-0.034865,-0.24568,0.055898,0.29812,-0.50763,0.14565,0.16525,0.15587,-1.7298,0.33558,-0.1711,-0.018366,-0.053091,0.13711,-0.0051834,-0.46732,2.0037,0.075542,-0.10489,0.021339,0.30403
-0.012097,-0.010461,0.019955,-0.033742,-0.43199,0.034821,0.35453,-0.37676,0.15073,0.19475,0.28829,-1.9203,0.259,-0.084412,-0.027921,-0.06537,0.15262,0.014696,-0.54334,2.3759,0.057735,-0.10613,0.029352,0.24538
-0.01053,-0.0058106,0.020807,-0.034994,-0.6682,0.0068703,0.36384,-0.31223,0.15621,0.21156,0.38357,-2.0624,0.18234,0.025022,-0.021875,-0.076951,0.175,0.046025,-0.60971,2.6106,0.036915,-0.071082,0.048087,0.17355
-0.01128,-0.0032923,0.022977,-0.038633,-0.91488,-0.022841,0.33002,-0.30561,0.16072,0.22556,0.43292,-2.0838,0.11263,0.14516,-0.0061169,-0.086956,0.19761,0.085895,-0.62866,2.7009,0.015773,-0.013336,0.073393,0.10914
-0.014401,-0.00524,0.025389,-0.044537,-1.1229,-0.060759,0.26389,-0.33052,0.1627,0.24882,0.44483,-1.901,0.052779,0.26054,0.014279,-0.097363,0.21301,0.12681,-0.58947,2.6758,-0.003424,0.054189,0.098143,0.064545
-0.018509,-0.011567,0.0277,-0.051202,-1.2544,-0.10893,0.17413,-0.35292,0.16313,0.28885,0.43381,-1.4745,0.0053449,0.35727,0.037528,-0.11257,0.21736,0.16091,-0.4998,2.5868,-0.023101,0.12662,0.11524,0.037834
-0.022598,-0.019876,0.030275,-0.055212,-1.2944,-0.15261,0.061858,-0.33973,0.16587,0.34438,0.4074,-0.84079,-0.024704,0.42762,0.063631,-0.13686,0.21174,0.18391,-0.37051,2.4921,-0.050259,0.20293,0.1206,0.018326
-0.026917,-0.026628,0.033746,-0.052766,-1.2485,-0.16617,-0.075565,-0.26485,0.17488,0.4059,0.36125,-0.09601,-0.032687,0.47074,0.091054,-0.17238,0.20046,0.19655,-0.20881,2.4363,-0.091131,0.27535,0.1139,-0.0024087
-0.032005,-0.028902,0.038375,-0.042573,-1.1311,-0.13388,-0.23349,-0.11496,0.19008,0.46043,0.28536,0.65437,-0.021233,0.48955,0.11504,-0.21831,0.18839,0.20306,-0.024216,2.4273,-0.14502,0.32535,0.096531,-0.024246
-0.037128,-0.02599,0.04359,-0.027652,-0.95574,-0.066829,-0.39151,0.10487,0.20602,0.49746,0.17589,1.3387,-0.0048527,0.4876,0.12923,-0.26982,0.17881,0.20817,0.162,2.4259,-0.20291,0.33352,0.068819,-0.041357
-0.040113,-0.01991,0.048147,-0.013972,-0.73414,0.00077297,-0.51752,0.37005,0.21468,0.5129,0.043364,1.9241,-0.0059032,0.46956,0.12919,-0.31592,0.17258,0.21446,0.31843,2.3614,-0.25241,0.29594,0.029213,-0.04994
-0.039126,-0.014253,0.050915,-0.0065135,-0.48326,0.034561,-0.58476,0.64441,0.21049,0.50924,-0.088946,2.389,-0.042698,0.44458,0.11483,-0.33804,0.16814,0.2214,0.42011,2.1718,-0.28507,0.23174,-0.023103,-0.052887
-0.034743,-0.011847,0.051652,-0.0057751,-0.23001,0.023826,-0.59046,0.89472,0.19354,0.49262,-0.19583,2.6958,-0.1178,0.42618,0.089838,-0.31391,0.16217,0.22619,0.46793,1.8435,-0.30004,0.17318,-0.084079,-0.057549
-0.030039,-0.012767,0.05099,-0.0077087,-0.0071679,-0.013357,-0.56039,1.1023,0.16837,0.46892,-0.26336,2.7975,-0.21536,0.42467,0.058709,-0.22815,0.1506,0.22559,0.49249,1.4182,-0.30166,0.14544,-0.14277,-0.069821
-0.028181,-0.014265,0.049549,-0.0072761,0.15938,-0.046883,-0.53323,1.2624,0.13983,0.44113,-0.29628,2.6761,-0.30983,0.43588,0.024266,-0.085174,0.13022,0.21776,0.53494,0.95976,-0.29402,0.15221,-0.18401,-0.09066
-0.029552,-0.012866,0.047103,-0.0027024,0.26359,-0.057753,-0.53472,1.3739,0.10963,0.40894,-0.31509,2.3806,-0.37998,0.43691,-0.012365,0.085146,0.10011,0.20326,0.61724,0.50903,-0.27796,0.17714,-0.19523,-0.11777
-0.031202,-0.007165,0.042848,0.0031884,0.32212,-0.047839,-0.56109,1.43,0.076494,0.3703,-0.34543,2.0278,-0.41912,0.3968,-0.049395,0.23603,0.062224,0.18428,0.7252,0.065296,-0.25327,0.19685,-0.1735,-0.14952
-0.02946,0.00086582,0.036802,0.005707,0.36307,-0.030094,-0.58487,1.4217,0.039183,0.32365,-0.40691,1.7571,-0.43604,0.29766,-0.082085,0.32439,0.020523,0.16286,0.81864,-0.3879,-0.22368,0.19261,-0.12853,-0.18635
-0.023527,0.00711,0.030959,0.0027276,0.40679,-0.01128,-0.57848,1.3519,-0.00057491,0.27,-0.50763,1.665,-0.44803,0.1514,-0.10314,0.33188,-0.020966,0.13904,0.86145,-0.83888,-0.19897,0.15286,-0.079237,-0.22798
-0.016758,0.0082007,0.028684,-0.003084,0.45142,0.015018,-0.5363,1.2448,-0.037874,0.21385,-0.64464,1.7614,-0.47161,-0.0020295,-0.10631,0.27306,-0.060201,0.11072,0.84778,-1.2313,-0.19136,0.070358,-0.045228,-0.26991
-0.014199,0.003915,0.032252,-0.0062567,0.47405,0.058968,-0.47775,1.1384,-0.067104,0.16237,-0.80543,1.9717,-0.51543,-0.11546,-0.090933,0.18532,-0.098026,0.07533,0.8043,-1.4975,-0.20786,-0.057431,-0.037869,-0.30358
-0.018291,-0.0026729,0.040466,-0.0030377,0.44738,0.11955,-0.42968,1.0616,-0.084782,0.12274,-0.96715,2.1805,-0.57699,-0.16063,-0.063878,0.10753,-0.13739,0.032163,0.76798,-1.616,-0.24444,-0.22232,-0.05573,-0.32119
