6.6175e-010,1.1209e-009,1.6264e-009,1.8155e-009,1.1248e-009,-7.2253e-009,-3.6406e-009,7.0246e-009,2.0264e-008,-1.7692e-009,-2.7801e-009,1.0553e-009,1.6158e-008,-5.431e-009,1.7807e-009,3.7525e-009,-4.7654e-010,-6.7333e-010,-1.7923e-009,1.527e-008,1.1518e-009,2.0972e-009,7.1577e-010,1.1441e-009
1.8456e-008,3.1303e-008,4.4735e-008,5.0153e-008,3.031e-008,-2.0144e-007,-1.0014e-007,1.9298e-007,5.5739e-007,-5.1088e-008,-7.4113e-008,2.721e-008,4.4482e-007,-1.4997e-007,4.9278e-008,1.0283e-007,-1.3867e-008,-1.8715e-008,-4.9972e-008,4.1818e-007,3.1724e-008,5.794e-008,1.9613e-008,3.1858e-008
2.5036e-007,4.2524e-007,5.9813e-007,6.7329e-007,3.9541e-007,-2.7329e-006,-1.3383e-006,2.5747e-006,7.4486e-006,-7.1903e-007,-9.5557e-007,3.3538e-007,5.9495e-006,-2.0136e-006,6.6273e-007,1.3672e-006,-1.9587e-007,-2.5288e-007,-6.7857e-007,5.5602e-006,4.2433e-007,7.7831e-007,2.6103e-007,4.3091e-007
2.2005e-006,3.7435e-006,5.1793e-006,5.8514e-006,3.3237e-006,-2.4042e-005,-1.1577e-005,2.2223e-005,6.4414e-005,-6.5719e-006,-7.9295e-006,2.6142e-006,5.15e-005,-1.7514e-005,5.77e-006,1.1747e-005,-1.7893e-006,-2.2135e-006,-5.9801e-006,4.781e-005,3.6714e-006,6.7726e-006,2.2475e-006,3.7714e-006
1.4084e-005,2.4001e-005,3.2646e-005,3.6995e-005,2.0207e-005,-0.00015418,-7.2847e-005,0.00013943,0.00040508,-4.3848e-005,-4.752e-005,1.4311e-005,0.00032422,-0.00011092,3.6545e-005,7.3253e-005,-1.1883e-005,-1.4108e-005,-3.8454e-005,0.00029871,2.309e-005,4.291e-005,1.4065e-005,2.4002e-005
6.9933e-005,0.00011939,0.0001596,0.00018126,9.4499e-005,-0.0007681,-0.00035521,0.00067738,0.0019732,-0.00022756,-0.00021861,5.7286e-005,0.0015813,-0.00054503,0.00017934,0.00035297,-6.1119e-005,-6.9762e-005,-0.00019229,0.0014442,0.00011243,0.00021092,6.8146e-005,0.00011833
0.0002802,0.00047926,0.0006295,0.00071573,0.00035273,-0.0030932,-0.001396,0.0026494,0.0077414,-0.00095567,-0.00080028,0.00016548,0.006213,-0.0021617,0.00070897,0.0013654,-0.00025328,-0.00027841,-0.00077809,0.0056176,0.00044079,0.00083673,0.00026573,0.00046998
0.00093016,0.0015936,0.002057,0.0023379,0.0010749,-0.010344,-0.0045392,0.008562,0.025104,-0.003335,-0.0023809,0.00029852,0.020186,-0.0071072,0.0023165,0.0043473,-0.00086812,-0.00092065,-0.0026169,0.018034,0.0014281,0.0027511,0.00085565,0.0015438
0.0026057,0.0044698,0.0056731,0.0064323,0.002708,-0.029273,-0.012436,0.023272,0.068487,-0.0098519,-0.0058113,-8.7732e-006,0.055205,-0.019734,0.0063649,0.011576,-0.0025063,-0.0025687,-0.0074547,0.04861,0.0038929,0.0076371,0.0023151,0.0042709
0.0062402,0.010708,0.013378,0.015091,0.0056552,-0.07109,-0.029071,0.053848,0.15905,-0.024962,-0.011594,-0.0025124,0.12865,-0.046898,0.01487,0.026025,-0.0061716,-0.0061219,-0.01823,0.11124,0.0090388,0.018137,0.0053236,0.010075
0.01289,0.022094,0.02722,0.030437,0.0096879,-0.14964,-0.05847,0.10688,0.31661,-0.054739,-0.018414,-0.011701,0.2574,-0.096299,0.02971,0.049544,-0.013066,-0.012559,-0.038629,0.21737,0.018017,0.037182,0.010471,0.020432
0.023096,0.039432,0.04805,0.052985,0.013107,-0.27499,-0.10166,0.18262,0.54139,-0.10447,-0.021238,-0.03621,0.44373,-0.17194,0.050761,0.079504,-0.023875,-0.022245,-0.071343,0.36267,0.030947,0.066176,0.017639,0.035764
0.035987,0.060912,0.073761,0.079623,0.012301,-0.44337,-0.15298,0.26857,0.79227,-0.1739,-0.01063,-0.088629,0.65838,-0.26797,0.073566,0.10575,-0.037632,-0.033951,-0.11513,0.51246,0.045779,0.1025,0.02533,0.05401
0.048747,0.081115,0.098351,0.10278,0.002647,-0.62916,-0.19872,0.33834,0.97924,-0.25205,0.024524,-0.18181,0.83494,-0.36519,0.0884,0.11165,-0.05082,-0.044219,-0.16209,0.59913,0.057934,0.13805,0.030561,0.069918
0.057217,0.092156,0.11328,0.11253,-0.018898,-0.78744,-0.22133,0.36168,0.98933,-0.31578,0.090305,-0.32116,0.8904,-0.43537,0.082991,0.08236,-0.057801,-0.047975,-0.19773,0.54418,0.06169,0.16095,0.029944,0.076301
0.057857,0.087455,0.11137,0.10174,-0.050707,-0.87137,-0.2091,0.32385,0.74602,-0.33611,0.18014,-0.49567,0.77157,-0.45458,0.049379,0.018148,-0.053204,-0.040814,-0.2056,0.30269,0.053178,0.16106,0.021826,0.06747
0.050107,0.066433,0.091395,0.071282,-0.085415,-0.8578,-0.16591,0.24225,0.27083,-0.29178,0.27241,-0.67367,0.50194,-0.41878,-0.0082446,-0.056244,-0.035458,-0.022027,-0.17571,-0.094778,0.033321,0.1369,0.0082167,0.043198
0.037346,0.036591,0.059863,0.031244,-0.11283,-0.76408,-0.11288,0.16376,-0.30272,-0.18283,0.33782,-0.80889,0.18976,-0.34967,-0.070821,-0.097445,-0.0090797,0.0037059,-0.11219,-0.53789,0.0082833,0.098978,-0.0052415,0.01031
0.02518,0.010305,0.028027,-0.0043698,-0.12575,-0.64076,-0.077417,0.13708,-0.79014,-0.033989,0.35439,-0.85724,-0.023284,-0.28316,-0.11151,-0.067553,0.016686,0.027907,-0.03449,-0.88563,-0.013612,0.065922,-0.012006,-0.020048
0.017824,-0.0025661,0.0053957,-0.026346,-0.12462,-0.54092,-0.075222,0.17549,-1.0634,0.11732,0.32052,-0.79675,-0.048542,-0.24536,-0.1109,0.036138,0.032981,0.042962,0.03022,-1.0438,-0.026791,0.054341,-0.0086234,-0.038406
0.015214,-0.0011837,-0.0056378,-0.035842,-0.11647,-0.48653,-0.098136,0.23922,-1.1292,0.24156,0.25595,-0.63925,0.089434,-0.23355,-0.071005,0.16877,0.037046,0.046929,0.059895,-1.0169,-0.031574,0.06882,0.0030204,-0.042345
0.013429,0.0060949,-0.0098798,-0.04189,-0.10849,-0.45791,-0.11866,0.25717,-1.1133,0.33143,0.18887,-0.42564,0.26976,-0.21815,-0.017104,0.25868,0.034029,0.044674,0.047688,-0.8931,-0.032996,0.099288,0.017318,-0.037376
0.008365,0.0086114,-0.014182,-0.052697,-0.10118,-0.41532,-0.10914,0.17685,-1.1564,0.39831,0.1384,-0.20723,0.36264,-0.16619,0.016737,0.25317,0.032858,0.043888,0.0026831,-0.77425,-0.036234,0.12807,0.029496,-0.032632
-0.00029836,0.0020273,-0.021629,-0.068467,-0.087731,-0.33526,-0.060798,0.005179,-1.302,0.45404,0.10538,-0.023659,0.32124,-0.068556,0.010088,0.15782,0.038984,0.048707,-0.058527,-0.70554,-0.04246,0.14157,0.039387,-0.034557
-0.0084591,-0.0086564,-0.030274,-0.082546,-0.061187,-0.23066,0.013048,-0.19424,-1.4676,0.49433,0.077284,0.1107,0.20502,0.0511,-0.029285,0.037497,0.049829,0.05604,-0.1224,-0.66092,-0.048558,0.13794,0.051038,-0.043094
-0.01112,-0.014431,-0.037354,-0.089862,-0.02319,-0.13795,0.091846,-0.34733,-1.5224,0.49943,0.04091,0.20762,0.11824,0.15315,-0.070263,-0.026602,0.056917,0.057823,-0.18313,-0.5879,-0.050669,0.12534,0.06826,-0.052669
-0.0071305,-0.01129,-0.04459,-0.094256,0.014073,-0.082858,0.16676,-0.42237,-1.4022,0.4524,-0.0089108,0.29631,0.11888,0.21056,-0.079904,0.0058922,0.053063,0.047526,-0.23915,-0.46462,-0.048101,0.11298,0.090011,-0.056652
-0.00083098,-0.0047518,-0.058846,-0.10663,0.036005,-0.055868,0.24564,-0.4461,-1.1628,0.35906,-0.070474,0.41079,0.17627,0.22607,-0.045894,0.10621,0.038499,0.025551,-0.28666,-0.31584,-0.044008,0.10273,0.10985,-0.051872
0.0011081,-0.0055924,-0.086667,-0.13442,0.037638,-0.019096,0.33921,-0.47151,-0.92963,0.25083,-0.14139,0.57625,0.20869,0.22563,0.016713,0.19918,0.020716,-0.00085978,-0.31757,-0.17924,-0.042373,0.08775,0.12015,-0.040417
-0.0049487,-0.020398,-0.12726,-0.17162,0.029022,0.061728,0.44229,-0.52724,-0.7929,0.16649,-0.22064,0.7954,0.16065,0.23586,0.078569,0.21901,0.008365,-0.022783,-0.32465,-0.062441,-0.044286,0.058563,0.11738,-0.028184
-0.016684,-0.045226,-0.17053,-0.19922,0.028331,0.18852,0.5298,-0.59295,-0.74389,0.12676,-0.30351,1.0386,0.047717,0.26545,0.11748,0.15423,0.0047789,-0.035175,-0.30885,0.06332,-0.046997,0.010915,0.10405,-0.021446
-0.027818,-0.067948,-0.2027,-0.1967,0.047669,0.32962,0.5737,-0.62014,-0.70188,0.12203,-0.37593,1.2451,-0.06723,0.30421,0.13127,0.048552,0.0066898,-0.038346,-0.28088,0.22794,-0.04651,-0.051061,0.085877,-0.023391
-0.033088,-0.077225,-0.21524,-0.15573,0.083122,0.44538,0.56642,-0.57683,-0.59823,0.12212,-0.41773,1.34,-0.13734,0.33685,0.13384,-0.038694,0.0086677,-0.035024,-0.25382,0.42505,-0.041239,-0.11814,0.067229,-0.032353
-0.031824,-0.0705,-0.20976,-0.084939,0.11723,0.51708,0.52839,-0.47547,-0.43589,0.09953,-0.41548,1.2635,-0.17224,0.35695,0.14057,-0.076977,0.008608,-0.026738,-0.23194,0.61363,-0.033435,-0.18209,0.049011,-0.042737
-0.027347,-0.054705,-0.19491,-0.0030221,0.13158,0.55578,0.49111,-0.36132,-0.27378,0.047971,-0.37529,0.99833,-0.2204,0.36954,0.15669,-0.078394,0.0090926,-0.013282,-0.20545,0.7582,-0.027271,-0.23908,0.03023,-0.048438
-0.023421,-0.039918,-0.17834,0.072959,0.11914,0.58701,0.47056,-0.27555,-0.16005,-0.016156,-0.32288,0.58049,-0.31498,0.38307,0.17698,-0.075139,0.013789,0.0046593,-0.15727,0.86635,-0.025423,-0.28817,0.010928,-0.047024
-0.021347,-0.032026,-0.16062,0.13396,0.087097,0.62846,0.45555,-0.22764,-0.083353,-0.067539,-0.28836,0.087304,-0.43712,0.40041,0.1936,-0.085963,0.022787,0.023129,-0.077626,0.98313,-0.027114,-0.32732,-0.0069025,-0.042044
-0.020074,-0.030442,-0.13636,0.1766,0.049506,0.67995,0.42246,-0.19965,0.012415,-0.08884,-0.28703,-0.39007,-0.52959,0.41751,0.20244,-0.10271,0.031437,0.035958,0.024483,1.1451,-0.02907,-0.35152,-0.021167,-0.041683
-0.018416,-0.031773,-0.10089,0.19729,0.017384,0.73088,0.3626,-0.17323,0.16872,-0.07918,-0.31187,-0.77592,-0.54484,0.42875,0.20221,-0.1058,0.033647,0.038825,0.12321,1.3378,-0.028337,-0.35507,-0.031918,-0.054352
-0.016642,-0.034993,-0.056275,0.19077,-0.0060782,0.77382,0.29583,-0.15063,0.36834,-0.051289,-0.34437,-1.0285,-0.48143,0.43163,0.18961,-0.090027,0.026492,0.032577,0.19146,1.4972,-0.02453,-0.33588,-0.041194,-0.083969
-0.015939,-0.042936,-0.011421,0.15549,-0.023336,0.81004,0.25615,-0.14941,0.54802,-0.022632,-0.37364,-1.1427,-0.37842,0.42575,0.158,-0.074203,0.012244,0.022566,0.21997,1.5562,-0.019853,-0.29752,-0.050256,-0.12777
-0.016804,-0.058922,0.023664,0.10029,-0.037755,0.8438,0.26131,-0.17805,0.65318,-0.0077226,-0.40629,-1.1412,-0.27815,0.4082,0.10258,-0.085508,-0.0034008,0.014505,0.22616,1.4907,-0.017158,-0.24708,-0.056957,-0.17752
-0.018473,-0.082143,0.044478,0.044726,-0.051192,0.87431,0.29392,-0.21781,0.6823,-0.015119,-0.45673,-1.0582,-0.19503,0.37203,0.027007,-0.13366,-0.014906,0.010654,0.24534,1.3251,-0.01774,-0.19121,-0.056172,-0.22271
-0.02,-0.10646,0.054174,0.01041,-0.064617,0.89547,0.31253,-0.23001,0.68196,-0.047925,-0.52536,-0.92554,-0.11683,0.31123,-0.056008,-0.19875,-0.019498,0.0096684,0.309,1.0952,-0.020487,-0.13425,-0.043425,-0.25374
-0.021562,-0.12402,0.060109,0.0087555,-0.078887,0.90381,0.28389,-0.18316,0.7016,-0.10495,-0.58384,-0.76259,-0.031497,0.22851,-0.13191,-0.24328,-0.017612,0.0097574,0.42392,0.80542,-0.022736,-0.080016,-0.018824,-0.26389
-0.024282,-0.13054,0.068131,0.033977,-0.093572,0.90584,0.2093,-0.076167,0.75211,-0.18106,-0.58288,-0.57318,0.050626,0.13826,-0.19279,-0.23768,-0.011929,0.011533,0.56579,0.42428,-0.021953,-0.034453,0.012142,-0.25033
-0.028653,-0.12774,0.079189,0.066645,-0.10518,0.91585,0.12259,0.062293,0.80382,-0.26756,-0.47993,-0.34931,0.10133,0.060883,-0.23921,-0.17838,-0.0061893,0.017448,0.69144,-0.07964,-0.017015,-0.0050229,0.041791,-0.21425
-0.033348,-0.12109,0.090234,0.085551,-0.10777,0.9447,0.061836,0.19683,0.82017,-0.3537,-0.26764,-0.080107,0.099739,0.012142,-0.27397,-0.086467,-0.0041673,0.028312,0.76131,-0.69322,-0.0084628,0.0038862,0.064956,-0.15995
-0.035879,-0.11505,0.097746,0.080013,-0.096839,0.98911,0.038729,0.31058,0.79235,-0.42974,0.018058,0.23711,0.052551,-0.0047609,-0.29512,0.0080591,-0.0085534,0.040494,0.75749,-1.3459,0.0020175,-0.0043476,0.081458,-0.092832
-0.034598,-0.11016,0.10065,0.054906,-0.073519,1.0305,0.030372,0.41247,0.74381,-0.4897,0.31671,0.58834,-0.010219,0.0010555,-0.29602,0.081812,-0.019835,0.047006,0.68699,-1.9375,0.012292,-0.018813,0.094437,-0.01747
-0.03006,-0.10407,0.10065,0.025805,-0.045306,1.045,-0.0014596,0.52292,0.70529,-0.53169,0.57566,0.94147,-0.059092,0.015151,-0.27301,0.12341,-0.035901,0.042104,0.57131,-2.383,0.020316,-0.027161,0.10608,0.062798
-0.024426,-0.094905,0.10046,0.0080798,-0.022346,1.0164,-0.080471,0.65193,0.68729,-0.55498,0.77306,1.2538,-0.086056,0.025817,-0.23242,0.13048,-0.052984,0.025795,0.43327,-2.6411,0.024593,-0.023083,0.11443,0.14422
-0.019618,-0.08344,0.10179,0.0072581,-0.012004,0.94356,-0.19884,0.78716,0.67528,-0.55517,0.91707,1.4854,-0.10434,0.028292,-0.18858,0.10634,-0.067504,0.0045831,0.29168,-2.7154,0.024696,-0.0092026,0.11423,0.22071
-0.016149,-0.072054,0.10449,0.01668,-0.015634,0.83817,-0.32397,0.89879,0.64887,-0.52154,1.025,1.6129,-0.12965,0.024356,-0.15341,0.060761,-0.077504,-0.012225,0.16488,-2.6374,0.021603,0.00656,0.10112,0.28421
-0.013638,-0.061715,0.10713,0.023399,-0.029177,0.71666,-0.42089,0.95509,0.60348,-0.43981,1.1007,1.6354,-0.16218,0.019556,-0.12683,0.011133,-0.082668,-0.018011,0.074576,-2.4511,0.017344,0.01755,0.07577,0.32812
-0.012152,-0.05022,0.1082,0.01782,-0.046231,0.59263,-0.47269,0.93731,0.55399,-0.30096,1.1282,1.5726,-0.18642,0.02019,-0.097663,-0.021805,-0.08326,-0.012411,0.041125,-2.2024,0.013848,0.022349,0.044059,0.35142
-0.012625,-0.033547,0.10716,0.00030442,-0.061068,0.47426,-0.486,0.84681,0.51881,-0.11162,1.085,1.4552,-0.18781,0.030534,-0.054537,-0.024322,-0.079375,-0.00090205,0.070719,-1.9301,0.011622,0.023816,0.012687,0.35983
-0.015738,-0.0091749,0.10495,-0.019634,-0.070147,0.36605,-0.48181,0.70423,0.50169,0.10099,0.96339,1.3148,-0.16963,0.05029,0.0028246,0.00081769,-0.071433,0.0089877,0.14567,-1.6562,0.0093502,0.025505,-0.016249,0.3625
-0.020512,0.021653,0.10354,-0.030488,-0.072204,0.27185,-0.48098,0.54318,0.48885,0.29464,0.78312,1.1741,-0.1538,0.073242,0.062423,0.03399,-0.061205,0.012305,0.229,-1.3808,0.0049715,0.029316,-0.046914,0.36649
-0.024375,0.054755,0.10481,-0.026813,-0.067523,0.19603,-0.49457,0.40045,0.46304,0.4274,0.58619,1.0424,-0.16473,0.088729,0.10963,0.049173,-0.051651,0.0094614,0.28333,-1.0925,-0.0023957,0.035777,-0.085645,0.37311
-0.025043,0.086172,0.10923,-0.012532,-0.056854,0.14185,-0.52271,0.30451,0.4203,0.47496,0.41761,0.91551,-0.21094,0.086071,0.13837,0.028496,-0.044748,0.0057228,0.29103,-0.78589,-0.011123,0.045191,-0.13411,0.37886
-0.022595,0.11486,0.1154,0.0022362,-0.040409,0.1082,-0.55998,0.26653,0.37381,0.44025,0.30501,0.78253,-0.28063,0.059592,0.15357,-0.02884,-0.038898,0.0077745,0.26062,-0.47363,-0.017501,0.057517,-0.18541,0.37911
-0.019722,0.1426,0.1211,0.0076272,-0.017663,0.087611,-0.60193,0.27903,0.34217,0.34982,0.24895,0.63631,-0.35409,0.010823,0.16297,-0.10829,-0.028829,0.019357,0.21544,-0.1773,-0.01783,0.071151,-0.22666,0.37119
-0.01976,0.1712,0.12531,-0.0011938,0.011623,0.068074,-0.64846,0.32395,0.33372,0.23992,0.22799,0.48074,-0.42047,-0.053561,0.16679,-0.18952,-0.0093316,0.038549,0.17532,0.093523,-0.01086,0.082801,-0.24649,0.35445
-0.024245,0.19934,0.12951,-0.023629,0.045872,0.039047,-0.70206,0.38472,0.34071,0.14154,0.21413,0.32689,-0.48353,-0.12624,0.15506,-0.25661,0.019476,0.058425,0.1465,0.35336,0.001072,0.089636,-0.24164,0.32867
-0.032212,0.22169,0.13682,-0.056234,0.081353,-0.0016147,-0.76239,0.45301,0.34729,0.072896,0.189,0.17951,-0.55198,-0.20262,0.11541,-0.30263,0.050041,0.070856,0.12559,0.62815,0.013019,0.092022,-0.21804,0.29359
-0.041748,0.2311,0.14886,-0.094814,0.11395,-0.045127,-0.82092,0.52474,0.34253,0.041255,0.15149,0.026482,-0.62523,-0.2809,0.044629,-0.32788,0.071273,0.071189,0.11023,0.92624,0.020028,0.093642,-0.18608,0.25068
-0.052147,0.22241,0.16264,-0.13401,0.14188,-0.076992,-0.8601,0.58954,0.3268,0.048314,0.11272,-0.15377,-0.68932,-0.35945,-0.045316,-0.33461,0.076279,0.06089,0.1039,1.2202,0.019836,0.097752,-0.1542,0.20488
-0.064414,0.19541,0.17004,-0.16558,0.16656,-0.087489,-0.85896,0.62455,0.30703,0.092163,0.081801,-0.3676,-0.72772,-0.43386,-0.13086,-0.32307,0.067815,0.046436,0.1106,1.4602,0.014039,0.10213,-0.12558,0.16331
-0.079571,0.15512,0.16115,-0.17827,0.19032,-0.079886,-0.80207,0.60076,0.28696,0.16392,0.05205,-0.58482,-0.73711,-0.49539,-0.1866,-0.2916,0.056551,0.035143,0.12606,1.6119,0.0070314,0.097317,-0.099411,0.13092
-0.096496,0.1095,0.1299,-0.16115,0.21241,-0.069528,-0.68669,0.49953,0.2621,0.24411,-0.0013898,-0.74604,-0.73299,-0.53105,-0.19458,-0.24102,0.053067,0.030611,0.13578,1.6894,0.0033821,0.070833,-0.074669,0.10681
-0.11161,0.066274,0.078334,-0.10904,0.22739,-0.073795,-0.52324,0.32718,0.22393,0.30568,-0.10894,-0.80139,-0.73961,-0.52548,-0.1492,-0.1799,0.059936,0.030742,0.12265,1.7544,0.0053666,0.015615,-0.052844,0.085216
-0.12097,0.030546,0.016622,-0.027003,0.22809,-0.10065,-0.32994,0.1159,0.16882,0.32504,-0.28573,-0.75185,-0.77274,-0.46537,-0.057734,-0.1264,0.070382,0.029557,0.077343,1.8789,0.012222,-0.062796,-0.037711,0.060982
-0.12292,0.0039918,-0.041366,0.068806,0.21115,-0.14484,-0.12598,-0.091222,0.10335,0.29525,-0.51631,-0.65367,-0.83014,-0.34673,0.062102,-0.10289,0.074476,0.021569,0.0027347,2.0984,0.021479,-0.14552,-0.03278,0.034609
-0.11865,-0.014577,-0.084296,0.15484,0.18018,-0.19438,0.071751,-0.2612,0.04118,0.2318,-0.75566,-0.57486,-0.89629,-0.18219,0.18693,-0.12413,0.06751,0.0058277,-0.089628,2.3849,0.031197,-0.20749,-0.038614,0.011663
-0.10996,-0.027855,-0.10762,0.20756,0.14331,-0.2411,0.24775,-0.38403,-0.0054548,0.16624,-0.94682,-0.53704,-0.95497,-0.0026996,0.29451,-0.18535,0.053676,-0.012883,-0.18548,2.6555,0.041277,-0.22904,-0.05188,-0.0033482
-0.096367,-0.038386,-0.11372,0.21252,0.10693,-0.28593,0.38606,-0.46999,-0.032492,0.13047,-1.0446,-0.49544,-0.99717,0.15106,0.3704,-0.25889,0.042473,-0.026289,-0.27041,2.8077,0.052861,-0.20557,-0.066581,-0.012836
-0.074449,-0.047038,-0.10855,0.17158,0.071431,-0.33501,0.47187,-0.53553,-0.04396,0.14115,-1.0328,-0.38044,-1.0185,0.24543,0.41036,-0.30485,0.041356,-0.026839,-0.32964,2.7626,0.066411,-0.14954,-0.076684,-0.02561
-0.040563,-0.052309,-0.097552,0.10426,0.03312,-0.39132,0.4972,-0.58996,-0.046314,0.19281,-0.9275,-0.16921,-1.0122,0.26946,0.41622,-0.29234,0.050729,-0.011525,-0.35009,2.4983,0.080217,-0.083531,-0.07877,-0.049807
0.0052486,-0.051136,-0.083473,0.040075,-0.0093801,-0.45034,0.46699,-0.63256,-0.042945,0.26292,-0.76769,0.074923,-0.96793,0.23874,0.38823,-0.2194,0.064611,0.016411,-0.32697,2.0617,0.090728,-0.028319,-0.073493,-0.085693
0.057465,-0.041104,-0.066803,0.0039673,-0.050565,-0.50393,0.4006,-0.66025,-0.033525,0.32504,-0.59929,0.23361,-0.88073,0.18411,0.32114,-0.11746,0.075372,0.048351,-0.27034,1.5541,0.094632,0.0068168,-0.065174,-0.12528
0.10705,-0.022842,-0.047714,0.0026213,-0.080251,-0.54819,0.32654,-0.6771,-0.017806,0.3621,-0.45947,0.21382,-0.76128,0.13293,0.20896,-0.035034,0.078115,0.073273,-0.2039,1.0888,0.091142,0.025349,-0.059563,-0.15933
0.14566,-0.00086428,-0.027567,0.020956,-0.091195,-0.58745,0.27264,-0.69612,0.00066459,0.3725,-0.36718,0.014257,-0.63698,0.095772,0.0563,-0.0086684,0.071708,0.081872,-0.15416,0.73642,0.082728,0.035894,-0.060695,-0.18504
0.16889,0.017998,-0.008882,0.032556,-0.085372,-0.62984,0.25634,-0.73145,0.014946,0.36625,-0.32307,-0.27338,-0.53962,0.06648,-0.11335,-0.039601,0.057044,0.070514,-0.13681,0.48621,0.073661,0.041675,-0.068461,-0.2069
0.1767,0.027755,0.0058994,0.017698,-0.072984,-0.67817,0.27935,-0.7879,0.019018,0.35398,-0.31793,-0.52598,-0.48811,0.032803,-0.26157,-0.092194,0.035358,0.043255,-0.14985,0.25258,0.067364,0.035556,-0.078508,-0.22977
0.1717,0.026024,0.015671,-0.023629,-0.064745,-0.72458,0.32805,-0.85672,0.012055,0.33618,-0.34313,-0.66401,-0.47932,-0.012625,-0.35162,-0.11594,0.0085572,0.010406,-0.17736,-0.067404,0.064382,0.0052647,-0.084959,-0.25099
0.15745,0.014768,0.020966,-0.072957,-0.064029,-0.75435,0.3794,-0.92096,-0.0011071,0.2997,-0.39404,-0.68648,-0.4936,-0.068823,-0.36782,-0.076463,-0.019233,-0.016342,-0.19931,-0.51929,0.062345,-0.054408,-0.084499,-0.2596
0.13811,-0.0011101,0.023262,-0.10721,-0.065489,-0.75677,0.41056,-0.96482,-0.013501,0.22434,-0.46285,-0.64932,-0.50937,-0.1302,-0.32429,0.025187,-0.041433,-0.029791,-0.19969,-1.0505,0.057958,-0.13178,-0.079045,-0.24434
0.11842,-0.015992,0.023972,-0.1141,-0.060783,-0.73438,0.40897,-0.97901,-0.020395,0.09575,-0.52775,-0.61215,-0.51554,-0.19112,-0.25636,0.15607,-0.051585,-0.030392,-0.17025,-1.5356,0.049691,-0.19939,-0.074697,-0.2038
0.10291,-0.025131,0.023785,-0.097808,-0.045896,-0.70301,0.37814,-0.9587,-0.02115,-0.083304,-0.55223,-0.59428,-0.51356,-0.24623,-0.20028,0.27214,-0.047456,-0.024478,-0.11229,-1.8516,0.039388,-0.22721,-0.077232,-0.14982
0.093682,-0.025123,0.022499,-0.07236,-0.023734,-0.682,0.33513,-0.89919,-0.017863,-0.29076,-0.50193,-0.56637,-0.51027,-0.28759,-0.17472,0.33989,-0.033391,-0.019011,-0.038859,-1.9491,0.031628,-0.19987,-0.087234,-0.10112
0.08882,-0.013884,0.019073,-0.050233,-0.00051433,-0.68166,0.30021,-0.79685,-0.012693,-0.49407,-0.37054,-0.47753,-0.50842,-0.30383,-0.17592,0.3459,-0.018542,-0.01711,0.025559,-1.8708,0.031091,-0.12639,-0.098745,-0.072286
0.083129,0.0091117,0.011825,-0.035809,0.02001,-0.69706,0.28525,-0.65731,-0.0061035,-0.6651,-0.19369,-0.29833,-0.5015,-0.28453,-0.18774,0.29436,-0.011699,-0.017829,0.053396,-1.7102,0.039523,-0.035259,-0.10297,-0.066658
0.071581,0.042378,-0.00099995,-0.027454,0.039304,-0.71235,0.28935,-0.5038,0.0031991,-0.79267,-0.034594,-0.053824,-0.47544,-0.2281,-0.19774,0.20136,-0.016228,-0.01966,0.029896,-1.5491,0.054319,0.042276,-0.094703,-0.077564
0.053176,0.082524,-0.020077,-0.023769,0.06218,-0.71223,0.30465,-0.37518,0.017274,-0.88558,0.053624,0.17428,-0.41621,-0.14757,-0.20718,0.092576,-0.028535,-0.023705,-0.033495,-1.4218,0.069783,0.089687,-0.076611,-0.09525
0.032256,0.12537,-0.043727,-0.026787,0.092881,-0.69212,0.32654,-0.30972,0.037677,-0.96453,0.063115,0.28218,-0.3199,-0.069863,-0.22844,0.0013317,-0.040733,-0.032884,-0.10113,-1.3191,0.080328,0.11187,-0.057982,-0.11298
0.016052,0.16732,-0.067556,-0.039313,0.13263,-0.66075,0.35776,-0.32307,0.064284,-1.0479,0.037207,0.20032,-0.19988,-0.027498,-0.27279,-0.040319,-0.045162,-0.047706,-0.13347,-1.2158,0.083495,0.12709,-0.048535,-0.12823
0.010034,0.20561,-0.085762,-0.059995,0.17985,-0.63432,0.4019,-0.3959,0.094624,-1.1389,0.040914,-0.061346,-0.084912,-0.04591,-0.33765,-0.018475,-0.037646,-0.062994,-0.11267,-1.0875,0.080763,0.1504,-0.051907,-0.14025
0.014353,0.23671,-0.093767,-0.081889,0.23167,-0.62701,0.45239,-0.48203,0.12453,-1.2221,0.11704,-0.41031,-0.0058528,-0.13108,-0.40236,0.048384,-0.018108,-0.069568,-0.053552,-0.91137,0.075705,0.18081,-0.063619,-0.14801
0.023831,0.25443,-0.090733,-0.096423,0.28529,-0.64375,0.48903,-0.53345,0.15052,-1.2695,0.25935,-0.71671,0.022942,-0.26311,-0.4359,0.11249,0.010596,-0.060346,0.01015,-0.66644,0.07099,0.20156,-0.074782,-0.15102
0.031398,0.25041,-0.080437,-0.098997,0.33868,-0.67778,0.48853,-0.52591,0.17298,-1.2554,0.42018,-0.87835,0.01483,-0.40017,-0.41265,0.12182,0.044011,-0.035971,0.053825,-0.35014,0.066467,0.1933,-0.078328,-0.15125
0.032462,0.21824,-0.070007,-0.090629,0.39096,-0.71258,0.44194,-0.46809,0.19778,-1.1699,0.5433,-0.86231,0.004684,-0.49353,-0.3276,0.054444,0.076914,-0.0051019,0.081583,-0.0028317,0.05972,0.1503,-0.072923,-0.15307
0.027205,0.15917,-0.067227,-0.073933,0.44196,-0.72651,0.3644,-0.38947,0.23447,-1.0254,0.59618,-0.69862,0.028018,-0.50889,-0.20188,-0.061258,0.10412,0.021019,0.12103,0.28936,0.048544,0.087512,-0.062102,-0.16013
0.019474,0.084996,-0.077719,-0.047572,0.49035,-0.6995,0.28773,-0.31761,0.29169,-0.85069,0.58059,-0.44036,0.10066,-0.44344,-0.074458,-0.15719,0.12176,0.035284,0.19757,0.43237,0.033393,0.032613,-0.050237,-0.17172
0.013428,0.014595,-0.10298,-0.005546,0.53118,-0.62133,0.24022,-0.26212,0.37227,-0.6759,0.51994,-0.12893,0.21451,-0.32819,0.016731,-0.16397,0.12845,0.037516,0.30942,0.38554,0.017794,0.0086488,-0.03916,-0.18214
0.010631,-0.034578,-0.13964,0.056216,0.5554,-0.49883,0.2289,-0.21581,0.47117,-0.51775,0.4388,0.20848,0.3511,-0.21142,0.053636,-0.054137,0.12545,0.031779,0.42359,0.20134,0.0062277,0.019846,-0.027912,-0.18409
0.0097448,-0.054371,-0.18,0.13057,0.55376,-0.35679,0.23688,-0.16877,0.577,-0.37491,0.35098,0.53719,0.49923,-0.1308,0.0455,0.13791,0.11532,0.021299,0.49553,0.0074867,0.00093255,0.050998,-0.01501,-0.17334
0.0087593,-0.047656,-0.21384,0.19584,0.52361,-0.22921,0.23603,-0.12094,0.67573,-0.23601,0.26112,0.80135,0.65966,-0.090601,0.01987,0.33341,0.10003,0.0055544,0.49684,-0.062747,5.7447e-005,0.080377,-0.00057153,-0.15074
0.007607,-0.023199,-0.23139,0.22416,0.4737,-0.14334,0.20394,-0.08165,0.75421,-0.092933,0.17248,0.94052,0.83333,-0.059862,0.003186,0.454,0.080105,-0.018369,0.43107,0.053965,-0.0012122,0.095899,0.01355,-0.12045
0.0087266,0.011322,-0.22675,0.19828,0.42209,-0.10582,0.13303,-0.056767,0.80284,0.052975,0.091034,0.92479,1.0058,0.0046304,0.0042692,0.46554,0.055511,-0.051914,0.32874,0.32073,-0.0071867,0.10208,0.025237,-0.08648
0.014927,0.05198,-0.20035,0.12616,0.38749,-0.10078,0.028229,-0.036107,0.81745,0.19713,0.022707,0.77453,1.1452,0.12421,0.011806,0.39336,0.027569,-0.092253,0.22872,0.63285,-0.018451,0.11292,0.033392,-0.051099
0.026324,0.095251,-0.15895,0.042004,0.37955,-0.10173,-0.10067,0.0055741,0.80122,0.34254,-0.031673,0.54297,1.2182,0.27698,0.0063873,0.30027,0.00014615,-0.13268,0.16059,0.88615,-0.031485,0.13721,0.037927,-0.01664
0.039078,0.13312,-0.11276,-0.009062,0.39486,-0.088946,-0.24382,0.092074,0.76516,0.50089,-0.077475,0.27513,1.2124,0.40719,-0.023009,0.24382,-0.021103,-0.16551,0.13782,1.0332,-0.04152,0.16844,0.039109,0.011668
0.047323,0.15289,-0.071049,0.00576,0.42086,-0.059606,-0.39072,0.22569,0.72549,0.67825,-0.12172,-0.020075,1.1453,0.46175,-0.070541,0.24182,-0.031266,-0.18513,0.16097,1.0945,-0.046319,0.18767,0.037605,0.025368
0.047078,0.14353,-0.038533,0.090102,0.44356,-0.024251,-0.52834,0.38027,0.69715,0.85702,-0.16654,-0.36003,1.0538,0.4288,-0.11801,0.26812,-0.028907,-0.18948,0.22333,1.1249,-0.047704,0.17684,0.035516,0.016452
0.039254,0.10379,-0.014602,0.21806,0.45332,0.0054418,-0.64324,0.51479,0.68606,0.99431,-0.20579,-0.75189,0.97253,0.34839,-0.14692,0.27801,-0.017166,-0.17975,0.31313,1.168,-0.049513,0.13195,0.037062,-0.017303
0.029397,0.044973,0.0044716,0.3492,0.4459,0.026166,-0.72818,0.59855,0.68532,1.0453,-0.22686,-1.1654,0.91834,0.28548,-0.14795,0.24276,-0.0023914,-0.15949,0.41305,1.2283,-0.053781,0.065937,0.047324,-0.069713
0.024129,-0.014972,0.022009,0.44829,0.42064,0.042574,-0.78771,0.62959,0.67899,0.99714,-0.21659,-1.5408,0.89077,0.28441,-0.12214,0.1683,0.009026,-0.13343,0.5019,1.2778,-0.058582,-0.00028043,0.069163,-0.12887
0.026635,-0.0618,0.038369,0.498,0.37924,0.059931,-0.83642,0.63258,0.65256,0.88476,-0.16782,-1.825,0.88247,0.33984,-0.075926,0.087045,0.013801,-0.10612,0.5608,1.285,-0.059588,-0.050505,0.10048,-0.18341
0.034281,-0.092167,0.050736,0.49957,0.32598,0.07895,-0.88949,0.63847,0.6036,0.77271,-0.083961,-2.0019,0.88774,0.40601,-0.016639,0.03229,0.012989,-0.08054,0.58044,1.2413,-0.054142,-0.079732,0.13418,-0.2275
0.040098,-0.11263,0.055031,0.46497,0.26779,0.098197,-0.95147,0.66214,0.54485,0.71376,0.020512,-2.0916,0.90109,0.4354,0.047862,0.015604,0.010473,-0.057563,0.56266,1.1679,-0.044332,-0.090714,0.16134,-0.26091
0.037272,-0.13212,0.048555,0.40787,0.21217,0.12045,-1.0121,0.6948,0.49611,0.71618,0.12398,-2.1228,0.90959,0.41446,0.10763,0.022938,0.0095303,-0.037325,0.5139,1.0999,-0.036237,-0.085938,0.17533,-0.28445
0.023697,-0.15453,0.031872,0.33803,0.16422,0.15468,-1.0526,0.71564,0.46946,0.74463,0.20495,-2.1063,0.88844,0.36896,0.15187,0.029252,0.0097287,-0.021882,0.43562,1.061,-0.035722,-0.063644,0.1742,-0.29564
0.0034211,-0.17683,0.0090196,0.25923,0.12556,0.20991,-1.0584,0.71161,0.45809,0.75137,0.2492,-2.0328,0.80651,0.3388,0.17409,0.018033,0.0064962,-0.016546,0.32148,1.0467,-0.04408,-0.021543,0.16014,-0.28881
-0.016081,-0.19346,-0.014006,0.16911,0.096477,0.28615,-1.0281,0.68926,0.43769,0.71059,0.25307,-1.8949,0.6404,0.34728,0.17725,-0.0093034,-0.0059165,-0.027468,0.16585,1.0238,-0.056973,0.03626,0.1375,-0.26023
-0.028958,-0.20227,-0.031854,0.06015,0.079181,0.37121,-0.97309,0.67008,0.38133,0.62846,0.22108,-1.707,0.38989,0.39054,0.17305,-0.039068,-0.029926,-0.056203,-0.022424,0.94695,-0.067419,0.097069,0.11124,-0.21362
-0.034644,-0.20699,-0.042375,-0.076823,0.078328,0.44712,-0.90675,0.67471,0.27797,0.52557,0.16027,-1.5033,0.086805,0.45075,0.17465,-0.058627,-0.062034,-0.095701,-0.21437,0.77973,-0.070318,0.14552,0.086746,-0.16095
-0.037415,-0.21443,-0.047798,-0.24656,0.09724,0.5003,-0.83361,0.70899,0.14127,0.41241,0.075932,-1.312,-0.20832,0.51461,0.18784,-0.065433,-0.094656,-0.13241,-0.37187,0.51106,-0.065002,0.17299,0.069814,-0.11701
-0.042243,-0.22914,-0.053609,-0.44364,0.13265,0.52694,-0.74565,0.76169,0.0014259,0.28246,-0.027778,-1.1283,-0.42403,0.57701,0.20795,-0.065381,-0.12143,-0.15453,-0.47033,0.15955,-0.054232,0.18213,0.065427,-0.091533
-0.050305,-0.25003,-0.065286,-0.65157,0.17288,0.52975,-0.62958,0.81288,-0.11449,0.12799,-0.14297,-0.91058,-0.50621,0.62859,0.22468,-0.064217,-0.14184,-0.16065,-0.51606,-0.23451,-0.04111,0.18253,0.075468,-0.084591
-0.057816,-0.27122,-0.084499,-0.8483,0.20195,0.5111,-0.47946,0.84436,-0.19931,-0.038604,-0.25336,-0.60605,-0.44466,0.64516,0.23066,-0.061234,-0.16104,-0.16109,-0.54375,-0.62421,-0.026889,0.18142,0.097223,-0.087904
-0.05906,-0.286,-0.10705,-1.0147,0.20758,0.4701,-0.3056,0.84444,-0.26741,-0.18101,-0.33467,-0.1921,-0.2812,0.59596,0.2264,-0.051401,-0.18441,-0.16984,-0.5939,-0.9701,-0.011371,0.17778,0.1243,-0.089954
-0.050974,-0.29043,-0.12419,-1.1391,0.18723,0.40609,-0.13332,0.80641,-0.34085,-0.25885,-0.36227,0.29378,-0.089462,0.46834,0.21811,-0.033472,-0.21128,-0.19268,-0.68637,-1.247,0.0050513,0.16446,0.14963,-0.080352
-0.035407,-0.2842,-0.12699,-1.2148,0.14797,0.32363,0.0082097,0.72623,-0.43193,-0.25577,-0.32286,0.75777,0.065309,0.28691,0.21125,-0.015403,-0.23332,-0.22116,-0.80922,-1.4427,0.020205,0.13514,0.16833,-0.051065
-0.017306,-0.2692,-0.11127,-1.2337,0.10071,0.23307,0.10026,0.60401,-0.53571,-0.19252,-0.22403,1.0911,0.16083,0.10727,0.20585,-0.010147,-0.23979,-0.23778,-0.92987,-1.5536,0.03123,0.088784,0.17869,0.0038515
-0.0007548,-0.24772,-0.080102,-1.1846,0.053302,0.14535,0.14387,0.44748,-0.63685,-0.11472,-0.095053,1.2298,0.2221,-0.014825,0.19742,-0.023311,-0.22559,-0.22868,-1.0187,-1.5831,0.036923,0.027445,0.18113,0.08675
0.013386,-0.22211,-0.042204,-1.0598,0.0079187,0.06638,0.15863,0.27223,-0.72283,-0.066077,0.023519,1.1967,0.29257,-0.05571,0.18181,-0.042562,-0.1956,-0.19406,-1.067,-1.5457,0.038812,-0.048966,0.17698,0.1924
0.026232,-0.19509,-0.0073212,-0.86655,-0.036218,-0.0037975,0.17123,0.095677,-0.79187,-0.06753,0.096896,1.0948,0.39607,-0.033005,0.15911,-0.039626,-0.16172,-0.14833,-1.0883,-1.4697,0.039598,-0.14377,0.16828,0.30489
0.037614,-0.1695,0.018465,-0.632,-0.078446,-0.067074,0.1994,-0.071296,-0.85,-0.11551,0.10991,1.0487,0.52071,0.0134,0.13355,0.012511,-0.13504,-0.11041,-1.1062,-1.3923,0.040259,-0.25719,0.15832,0.40006
0.044434,-0.14644,0.034544,-0.39533,-0.11572,-0.12333,0.24033,-0.22729,-0.90295,-0.19523,0.069002,1.1273,0.6363,0.050893,0.11016,0.11691,-0.11953,-0.091874,-1.1391,-1.3426,0.038674,-0.3779,0.15108,0.45437
0.042667,-0.12357,0.043971,-0.18975,-0.14691,-0.17071,0.27124,-0.37461,-0.95245,-0.2949,-0.0084569,1.2986,0.72622,0.070506,0.092096,0.24118,-0.11185,-0.091556,-1.1932,-1.3222,0.031361,-0.48186,0.14924,0.45559
0.031261,-0.095238,0.049868,-0.027057,-0.17843,-0.20909,0.26393,-0.50979,-1.0011,-0.41014,-0.10819,1.4504,0.8019,0.080704,0.080854,0.32908,-0.10635,-0.099086,-1.2619,-1.2977,0.016968,-0.54312,0.15188,0.40803
0.014019,-0.055426,0.052864,0.10405,-0.22505,-0.24203,0.20585,-0.62037,-1.0602,-0.53867,-0.22421,1.4632,0.8856,0.089195,0.078243,0.33134,-0.099999,-0.10322,-1.3302,-1.2152,-0.0016826,-0.55042,0.1544,0.32869
-0.0028109,-0.001695,0.051257,0.22505,-0.30262,-0.27423,0.11416,-0.69261,-1.1503,-0.6732,-0.35045,1.2855,0.97872,0.091055,0.086827,0.23692,-0.092997,-0.098118,-1.3771,-1.0311,-0.019001,-0.51631,0.15129,0.23711
-0.015332,0.062277,0.043278,0.35007,-0.41663,-0.30683,0.030945,-0.72471,-1.289,-0.79914,-0.46712,0.95984,1.0482,0.072191,0.10744,0.082245,-0.08544,-0.08397,-1.3804,-0.74013,-0.030387,-0.4698,0.14023,0.14649
-0.024774,0.12729,0.029297,0.4764,-0.55504,-0.33557,-0.00021986,-0.73355,-1.474,-0.89815,-0.53669,0.58691,1.0478,0.021881,0.13601,-0.06959,-0.074359,-0.063568,-1.3231,-0.38008,-0.035143,-0.43642,0.12413,0.06169
-0.035517,0.182,0.012151,0.58782,-0.69205,-0.35407,0.037417,-0.74719,-1.6719,-0.95473,-0.51754,0.25871,0.95766,-0.058553,0.16365,-0.16636,-0.054774,-0.038993,-1.2024,-0.0079382,-0.036248,-0.42097,0.10949,-0.016238
-0.050141,0.21756,-0.0044273,0.66568,-0.80164,-0.35918,0.12059,-0.78782,-1.827,-0.96271,-0.38762,0.009661,0.80744,-0.15766,0.18131,-0.19447,-0.024228,-0.011178,-1.0337,0.33529,-0.037556,-0.40699,0.10209,-0.084488
-0.066266,0.23138,-0.01772,0.69841,-0.87217,-0.35269,0.19894,-0.85783,-1.8851,-0.9293,-0.15985,-0.1858,0.66035,-0.26197,0.18584,-0.17811,0.013446,0.018317,-0.84639,0.64538,-0.041104,-0.37384,0.10308,-0.13714
-0.078323,0.22865,-0.026607,0.68407,-0.91165,-0.33774,0.22667,-0.93983,-1.822,-0.8739,0.12388,-0.37696,0.57155,-0.36142,0.1824,-0.15346,0.048941,0.045975,-0.67142,0.94531,-0.046589,-0.31673,0.10823,-0.16844
-0.082666,0.22035,-0.030584,0.62782,-0.94,-0.31373,0.19109,-1.0093,-1.6574,-0.81956,0.41612,-0.59292,0.55531,-0.44802,0.18073,-0.14063,0.072754,0.067197,-0.52776,1.2527,-0.052846,-0.25252,0.11042,-0.1767
-0.081059,0.21825,-0.028468,0.5391,-0.97347,-0.27582,0.11802,-1.0485,-1.4466,-0.77935,0.68623,-0.81924,0.58733,-0.51187,0.18828,-0.13518,0.080845,0.07871,-0.41531,1.5508,-0.059438,-0.20606,0.10356,-0.16498
-0.078989,0.22905,-0.018363,0.43072,-1.0125,-0.2203,0.050876,-1.0511,-1.2523,-0.74622,0.92489,-1.0028,0.63603,-0.54128,0.20564,-0.12256,0.076288,0.0803,-0.31768,1.7861,-0.066941,-0.18947,0.085177,-0.13834
-0.080182,0.2511,0.00080528,0.31792,-1.0418,-0.15102,0.02013,-1.0165,-1.1149,-0.69584,1.13,-1.0756,0.69218,-0.52857,0.22757,-0.098067,0.065833,0.074329,-0.21249,1.896,-0.07608,-0.19296,0.05648,-0.10124
-0.082483,0.2761,0.027414,0.21482,-1.0425,-0.079781,0.026029,-0.94244,-1.0364,-0.604,1.2905,-0.98308,0.77052,-0.47681,0.24772,-0.072995,0.054449,0.063562,-0.083704,1.8428,-0.086857,-0.19535,0.020617,-0.057907
-0.079199,0.29441,0.056693,0.1293,-1.0079,-0.019463,0.045922,-0.82587,-0.98853,-0.46715,1.3841,-0.70941,0.88554,-0.40083,0.26247,-0.062981,0.042254,0.049337,0.069393,1.6297,-0.098337,-0.18401,-0.019091,-0.015101
-0.065067,0.29982,0.082439,0.060462,-0.95142,0.024266,0.057837,-0.67203,-0.93661,-0.30931,1.394,-0.29329,1.0277,-0.321,0.27057,-0.072719,0.025983,0.03163,0.22997,1.2868,-0.10889,-0.1651,-0.059726,0.016529
-0.04175,0.29039,0.099988,0.0015762,-0.8999,0.054662,0.06002,-0.50173,-0.86282,-0.16736,1.3272,0.17265,1.1637,-0.25434,0.27009,-0.093662,0.0032388,0.010712,0.36872,0.84741,-0.11645,-0.15408,-0.098232,0.025113
-0.017994,0.2657,0.10857,-0.053446,-0.87675,0.07715,0.070997,-0.3473,-0.7735,-0.064075,1.2168,0.56621,1.2601,-0.20889,0.25617,-0.11618,-0.024397,-0.011514,0.454,0.33745,-0.11903,-0.1552,-0.13082,0.003247
-0.004126,0.22476,0.11153,-0.10532,-0.88613,0.09074,0.11127,-0.23676,-0.68737,0.01018,1.1037,0.78131,1.3053,-0.18347,0.22264,-0.14109,-0.052051,-0.032069,0.46295,-0.20943,-0.11578,-0.14953,-0.15324,-0.047435
-0.0051733,0.16747,0.11429,-0.15019,-0.90938,0.08664,0.18229,-0.17744,-0.61636,0.091932,1.0111,0.77647,1.3104,-0.16995,0.16625,-0.17529,-0.075171,-0.048943,0.38898,-0.72963,-0.10824,-0.10428,-0.16202,-0.11629
-0.017803,0.098094,0.12115,-0.18441,-0.91616,0.056409,0.25967,-0.15225,-0.55548,0.21869,0.93256,0.59801,1.2862,-0.1548,0.090415,-0.21303,-0.092489,-0.062464,0.24356,-1.13,-0.10046,0.0026928,-0.15585,-0.18826
-0.032953,0.025814,0.13293,-0.20826,-0.88254,0.0022671,0.30626,-0.13238,-0.4898,0.40221,0.84341,0.36099,1.2233,-0.12075,0.0053337,-0.22259,-0.10545,-0.074248,0.0531,-1.3243,-0.096957,0.16325,-0.13617,-0.24985
-0.041683,-0.040349,0.14674,-0.22514,-0.80334,-0.060864,0.29551,-0.097379,-0.41181,0.62043,0.72351,0.19684,1.0951,-0.051571,-0.076044,-0.15694,-0.11467,-0.084384,-0.14661,-1.2848,-0.099272,0.34078,-0.10686,-0.29278
-0.039957,-0.098698,0.15811,-0.23763,-0.69178,-0.11489,0.22858,-0.0473,-0.33278,0.83199,0.57162,0.19931,0.8854,0.058704,-0.14389,0.012939,-0.11726,-0.089685,-0.31697,-1.0703,-0.10369,0.4927,-0.073315,-0.31412
-0.029649,-0.15699,0.16411,-0.24488,-0.56922,-0.15183,0.13367,0.0014289,-0.27712,1.0001,0.39888,0.39907,0.61561,0.19728,-0.19601,0.26653,-0.10824,-0.085327,-0.42447,-0.80265,-0.10254,0.59599,-0.041483,-0.3141
-0.016217,-0.22573,0.16516,-0.244,-0.45429,-0.17866,0.048445,0.031915,-0.26345,1.1078,0.2097,0.77208,0.34681,0.33262,-0.23842,0.53172,-0.085688,-0.069075,-0.44975,-0.60332,-0.089108,0.65608,-0.017124,-0.29376
-0.005313,-0.30688,0.16392,-0.23347,-0.35862,-0.20865,-0.0017493,0.041156,-0.28855,1.1565,-0.0093352,1.2612,0.15007,0.4265,-0.28134,0.71925,-0.054852,-0.044387,-0.39476,-0.53266,-0.063178,0.69338,-0.0050825,-0.25396
-0.00032652,-0.38787,0.16179,-0.21424,-0.28901,-0.24641,-0.015601,0.042033,-0.3281,1.1542,-0.27879,1.7872,0.065558,0.45228,-0.33246,0.77173,-0.026721,-0.01905,-0.28272,-0.56911,-0.033034,0.7196,-0.0082652,-0.19586
-0.001459,-0.44695,0.15588,-0.18684,-0.25031,-0.27996,-0.010802,0.052935,-0.35423,1.1076,-0.60017,2.2482,0.08014,0.40806,-0.3911,0.6932,-0.01105,0.00025867,-0.14825,-0.6371,-0.011839,0.72423,-0.026595,-0.12235
-0.0061037,-0.46708,0.13923,-0.1473,-0.24484,-0.28752,-0.0077073,0.084645,-0.35512,1.0213,-0.93621,2.5292,0.13847,0.31591,-0.4471,0.53892,-0.0091794,0.013134,-0.021217,-0.65819,-0.0099928,0.68215,-0.056758,-0.039302
-0.010281,-0.44724,0.10499,-0.086951,-0.26924,-0.25354,-0.01435,0.13483,-0.34033,0.90503,-1.2171,2.5396,0.17725,0.20839,-0.48561,0.37524,-0.012917,0.025747,0.086139,-0.59117,-0.028306,0.57647,-0.093501,0.044327
-0.010859,-0.40228,0.051802,0.0021836,-0.31319,-0.18078,-0.022918,0.19272,-0.32825,0.77636,-1.3724,2.2645,0.15737,0.11162,-0.49535,0.24004,-0.01092,0.045602,0.18071,-0.44294,-0.056718,0.418,-0.13218,0.11831
-0.0076233,-0.35142,-0.013573,0.11945,-0.36273,-0.088803,-0.018196,0.24793,-0.32752,0.6575,-1.3689,1.7892,0.074144,0.035241,-0.47475,0.13132,0.0024839,0.074931,0.27767,-0.25435,-0.079773,0.24564,-0.17092,0.1744
-0.0036222,-0.30534,-0.078737,0.25138,-0.40646,-0.0010753,0.010105,0.29513,-0.32926,0.56705,-1.2289,1.2623,-0.054466,-0.026341,-0.43182,0.027203,0.02337,0.10828,0.38531,-0.075926,-0.085451,0.10691,-0.21031,0.20941
-0.0029093,-0.26233,-0.13152,0.3749,-0.44054,0.068244,0.060197,0.33175,-0.3163,0.51356,-1.0173,0.81359,-0.20608,-0.084445,-0.37787,-0.083493,0.042289,0.13641,0.49604,0.054226,-0.071584,0.032906,-0.25045,0.22587
-0.0068493,-0.21573,-0.16516,0.46653,-0.46941,0.11797,0.11929,0.35322,-0.28023,0.49433,-0.80776,0.48325,-0.36302,-0.14489,-0.31996,-0.18625,0.052531,0.15332,0.58951,0.12405,-0.045849,0.025168,-0.28743,0.2298
-0.01196,-0.16482,-0.17962,0.51185,-0.50239,0.15375,0.16946,0.35206,-0.23016,0.49807,-0.64958,0.21952,-0.50925,-0.20129,-0.2581,-0.25198,0.055358,0.16065,0.64476,0.14882,-0.019937,0.062192,-0.31273,0.22701
-0.011675,-0.11875,-0.17898,0.51011,-0.54792,0.17991,0.19358,0.32303,-0.1853,0.5084,-0.55339,-0.052352,-0.62422,-0.23619,-0.18898,-0.2621,0.058085,0.16596,0.65301,0.15859,-0.0023841,0.11798,-0.31741,0.22068
-0.001343,-0.089895,-0.16804,0.47216,-0.60787,0.19679,0.17998,0.27012,-0.1587,0.50704,-0.49867,-0.34828,-0.68374,-0.22986,-0.11263,-0.2249,0.067353,0.17652,0.62277,0.17724,0.0051185,0.17754,-0.29889,0.21196
0.017311,-0.082957,-0.15097,0.41433,-0.67393,0.20433,0.12703,0.20903,-0.1471,0.47809,-0.45318,-0.6023,-0.66931,-0.17276,-0.035976,-0.16974,0.083799,0.19377,0.57409,0.20668,0.0063354,0.23873,-0.26532,0.20258
0.036213,-0.09021,-0.13247,0.35241,-0.72861,0.20678,0.046962,0.1622,-0.13598,0.41455,-0.39074,-0.7246,-0.57828,-0.074744,0.03004,-0.12521,0.10229,0.21268,0.52555,0.22794,0.0062483,0.3024,-0.23338,0.19663
0.045987,-0.097152,-0.11892,0.29855,-0.75207,0.21324,-0.035134,0.1494,-0.11408,0.32417,-0.29992,-0.69115,-0.42701,0.035454,0.077246,-0.10007,0.11643,0.22592,0.48189,0.21853,0.007689,0.36168,-0.21989,0.19923
0.04237,-0.093456,-0.11733,0.26102,-0.73307,0.23369,-0.090813,0.17969,-0.083134,0.22969,-0.18399,-0.58463,-0.24539,0.122,0.10545,-0.082566,0.1227,0.22891,0.4303,0.17061,0.010943,0.40092,-0.23221,0.21267
0.02899,-0.079452,-0.13176,0.24485,-0.67837,0.27379,-0.10315,0.24887,-0.05383,0.15975,-0.056229,-0.54496,-0.067683,0.15904,0.12236,-0.05696,0.12084,0.22196,0.34954,0.094099,0.015578,0.405,-0.26365,0.23306
0.014353,-0.063145,-0.15987,0.25156,-0.61356,0.33153,-0.077127,0.34243,-0.032489,0.1336,0.06634,-0.66364,0.075286,0.14298,0.13914,-0.022117,0.11168,0.20853,0.22768,0.0036062,0.022153,0.37071,-0.2968,0.25086
0.0055232,-0.051629,-0.19271,0.27788,-0.57226,0.39658,-0.036095,0.44104,-0.012228,0.14838,0.16934,-0.90517,0.16109,0.092593,0.16536,0.0040762,0.095967,0.19222,0.078052,-0.09682,0.032107,0.31038,-0.31251,0.25554
0.0034603,-0.045367,-0.21837,0.31504,-0.57846,0.45213,-0.004977,0.52581,0.022179,0.17843,0.24581,-1.1188,0.17894,0.037592,0.20596,-0.0020133,0.075932,0.17568,-0.058659,-0.2161,0.046101,0.24493,-0.29896,0.24176
0.0033981,-0.039909,-0.22734,0.35061,-0.6324,0.47971,0.0080361,0.58182,0.079731,0.18884,0.29644,-1.1333,0.13092,0.0032615,0.26013,-0.050325,0.05738,0.16165,-0.13045,-0.36558,0.062513,0.19226,-0.25584,0.21288
-0.00054433,-0.031906,-0.21624,0.37285,-0.70952,0.46697,0.017026,0.60031,0.15249,0.15557,0.32432,-0.86429,0.029291,-2.9448e-005,0.32056,-0.12794,0.048613,0.15397,-0.10101,-0.54847,0.077638,0.15965,-0.1921,0.17937
-0.010458,-0.022512,-0.18779,0.37539,-0.77388,0.41515,0.046896,0.57973,0.21885,0.079249,0.32772,-0.35947,-0.11005,0.021905,0.3739,-0.20774,0.055326,0.1561,0.027927,-0.75981,0.087634,0.14445,-0.11985,0.15323
-0.023158,-0.014874,-0.14805,0.35887,-0.7974,0.34079,0.11464,0.52571,0.2581,-0.01663,0.2982,0.23957,-0.27353,0.053663,0.40406,-0.26756,0.07516,0.16759,0.21245,-0.99196,0.090754,0.13997,-0.048394,0.1419
-0.032775,-0.0091389,-0.10325,0.32806,-0.77242,0.2681,0.21858,0.44989,0.26375,-0.10102,0.22853,0.77949,-0.44975,0.079989,0.39917,-0.30388,0.097089,0.18174,0.3833,-1.2323,0.088075,0.14012,0.018171,0.14531
-0.034969,-0.0010075,-0.058223,0.28602,-0.71041,0.21603,0.34302,0.3675,0.24461,-0.15283,0.12654,1.1585,-0.62275,0.093509,0.35848,-0.32905,0.10723,0.18745,0.47415,-1.4494,0.082077,0.13957,0.07952,0.15715
-0.029509,0.014111,-0.016403,0.22968,-0.63007,0.18874,0.47136,0.2945,0.21438,-0.16852,0.022549,1.3388,-0.76607,0.096675,0.29342,-0.35498,0.097113,0.17493,0.44711,-1.5833,0.074208,0.13122,0.13575,0.16918
-0.019749,0.035511,0.019787,0.15073,-0.54539,0.17663,0.59439,0.24457,0.18008,-0.15662,-0.039818,1.3233,-0.84634,0.096862,0.22062,-0.37775,0.068075,0.14145,0.30526,-1.5595,0.063492,0.10572,0.18519,0.17562
-0.0099938,0.056166,0.049121,0.042051,-0.46242,0.16616,0.70629,0.22695,0.13934,-0.12664,-0.028055,1.1333,-0.83755,0.097592,0.15112,-0.37704,0.028862,0.092992,0.090037,-1.3301,0.047522,0.055021,0.22497,0.17524
-0.0030291,0.067874,0.072049,-0.094275,-0.38429,0.14971,0.79513,0.24514,0.087605,-0.083018,0.055453,0.80805,-0.73651,0.092428,0.084268,-0.3317,-0.010764,0.041119,-0.13302,-0.91252,0.025202,-0.022333,0.25339,0.17026
0.0006537,0.068032,0.090551,-0.24319,-0.31671,0.12766,0.84067,0.29668,0.027165,-0.028209,0.16937,0.41356,-0.56651,0.067573,0.011544,-0.23915,-0.04462,-0.002527,-0.29536,-0.39658,-0.00099702,-0.11869,0.27175,0.16334
0.0020047,0.061791,0.10707,-0.38041,-0.26644,0.10324,0.82582,0.37338,-0.030597,0.030532,0.25557,0.035779,-0.36494,0.013113,-0.072424,-0.12242,-0.069841,-0.030231,-0.34802,0.092831,-0.025325,-0.21995,0.28364,0.15464
0.0021433,0.057661,0.12314,-0.48214,-0.23336,0.077253,0.75284,0.46196,-0.071355,0.079739,0.27429,-0.24894,-0.16363,-0.065156,-0.16083,-0.018448,-0.083885,-0.039338,-0.279,0.44836,-0.041649,-0.31126,0.29232,0.14117
0.0017551,0.060633,0.1388,-0.53502,-0.20431,0.048819,0.6488,0.54592,-0.086715,0.10686,0.22798,-0.40697,0.023736,-0.14401,-0.23508,0.043882,-0.083429,-0.031542,-0.11721,0.61033,-0.046869,-0.38148,0.29837,0.11906
0.0013306,0.068869,0.15297,-0.54072,-0.15605,0.020614,0.55225,0.60945,-0.078618,0.10999,0.15735,-0.45706,0.1992,-0.19524,-0.27447,0.059817,-0.067081,-0.011937,0.081186,0.55978,-0.042308,-0.42344,0.29959,0.087125
0.0016362,0.07639,0.16445,-0.51284,-0.067166,0.0017453,0.48978,0.64327,-0.056788,0.10112,0.11367,-0.44899,0.36814,-0.20474,-0.26788,0.048203,-0.03899,0.01201,0.25912,0.29663,-0.032259,-0.43175,0.29306,0.049105
0.0037452,0.078737,0.17268,-0.46863,0.069869,0.0037086,0.46096,0.64942,-0.032308,0.099132,0.12814,-0.43011,0.52907,-0.18386,-0.21948,0.03696,-0.0087637,0.032484,0.3839,-0.16269,-0.021213,-0.40201,0.27737,0.012531
0.0084921,0.076353,0.1779,-0.4208,0.24538,0.032446,0.4432,0.64078,-0.012296,0.11787,0.19895,-0.42586,0.67346,-0.16376,-0.14606,0.04645,0.013585,0.044367,0.45649,-0.7608,-0.012153,-0.3346,0.2532,-0.015429
0.015799,0.073212,0.1809,-0.3741,0.43977,0.08402,0.4113,0.63348,0.0017416,0.15831,0.30074,-0.44312,0.79327,-0.17649,-0.069119,0.081281,0.023807,0.047456,0.50029,-1.3788,-0.0068083,-0.24069,0.2223,-0.032329
0.024463,0.072741,0.18276,-0.32742,0.63491,0.14804,0.35485,0.6353,0.012591,0.20954,0.40446,-0.4825,0.88701,-0.23676,-0.0070662,0.13225,0.025313,0.045766,0.53871,-1.858,-0.0066869,-0.14478,0.18645,-0.041633
0.032658,0.075172,0.18453,-0.27892,0.82097,0.21521,0.28045,0.63761,0.025103,0.25591,0.49117,-0.54059,0.95846,-0.33707,0.029397,0.18301,0.025144,0.044066,0.57825,-2.0671,-0.01301,-0.078635,0.14774,-0.04955
0.038838,0.078385,0.18706,-0.22931,0.99504,0.28146,0.20074,0.61751,0.044218,0.28448,0.55329,-0.59982,1.0097,-0.4573,0.038511,0.21618,0.02787,0.044522,0.60804,-1.9698,-0.02522,-0.067442,0.10995,-0.059715
0.042444,0.080696,0.19058,-0.18037,1.1544,0.34487,0.12302,0.55053,0.073217,0.28896,0.58864,-0.62193,1.0357,-0.57847,0.026157,0.21822,0.033034,0.04644,0.61341,-1.6388,-0.039719,-0.116,0.079082,-0.069854
0.043919,0.082407,0.1939,-0.12982,1.2906,0.39941,0.04746,0.42655,0.11218,0.27094,0.597,-0.5615,1.0267,-0.68941,0.0025547,0.18445,0.038135,0.049128,0.59029,-1.1999,-0.050744,-0.20405,0.06164,-0.073404
0.044042,0.084646,0.19363,-0.067345,1.3885,0.43291,-0.026347,0.25807,0.1574,0.23949,0.58213,-0.39591,0.97544,-0.78439,-0.022235,0.12305,0.043577,0.05468,0.54873,-0.75103,-0.053333,-0.29477,0.061112,-0.065259
0.043054,0.086988,0.18395,0.023152,1.4311,0.4323,-0.094412,0.075015,0.20274,0.2085,0.55426,-0.14861,0.88492,-0.85867,-0.042189,0.053893,0.054072,0.067356,0.5042,-0.32036,-0.046157,-0.35168,0.075179,-0.04734
0.040263,0.086617,0.15821,0.15415,1.4071,0.39215,-0.15108,-0.090922,0.24262,0.19047,0.52709,0.117,0.76925,-0.90961,-0.056374,-0.00011823,0.074539,0.089597,0.46586,0.10744,-0.03182,-0.35407,0.095996,-0.029288
0.034457,0.080203,0.11264,0.32291,1.3187,0.31908,-0.19589,-0.22154,0.27499,0.18846,0.50946,0.33328,0.64683,-0.9419,-0.06657,-0.024652,0.10414,0.11829,0.43212,0.53004,-0.014414,-0.30308,0.11391,-0.022986
0.024938,0.067007,0.050592,0.50548,1.1855,0.22863,-0.23566,-0.31697,0.30217,0.19263,0.49841,0.46926,0.53011,-0.96835,-0.073484,-0.020041,0.13442,0.1451,0.39579,0.89314,0.003446,-0.21757,0.12242,-0.034411
0.012449,0.050498,-0.01578,0.66171,1.0399,0.13795,-0.2785,-0.38796,0.32889,0.18606,0.47979,0.54737,0.41878,-1.0005,-0.074713,0.0030944,0.15401,0.1612,0.35177,1.1175,0.021615,-0.12482,0.12104,-0.058838
-0.00072566,0.03691,-0.068922,0.75012,0.91536,0.06015,-0.32589,-0.44268,0.35898,0.15762,0.43597,0.62526,0.30164,-1.0347,-0.066071,0.0345,0.15646,0.1628,0.29834,1.163,0.040912,-0.05133,0.11432,-0.083302
-0.011739,0.031698,-0.093918,0.74537,0.83206,0.0033253,-0.37229,-0.47863,0.39308,0.11187,0.35483,0.758,0.1667,-1.0472,-0.044944,0.071319,0.14453,0.15302,0.23036,1.0711,0.060935,-0.015959,0.1079,-0.094837
-0.018739,0.036428,-0.086781,0.64966,0.78693,-0.02812,-0.41349,-0.48516,0.42877,0.067033,0.23421,0.96763,0.012964,-1.0063,-0.012684,0.11522,0.12714,0.13867,0.13207,0.9477,0.079368,-0.024714,0.10478,-0.088554
-0.021983,0.048306,-0.057324,0.49246,0.75621,-0.033511,-0.45476,-0.45319,0.46241,0.04116,0.081235,1.2363,-0.14561,-0.89576,0.025816,0.16314,0.11158,0.12467,-0.020014,0.89888,0.093225,-0.067968,0.10448,-0.069716
-0.023682,0.062519,-0.02395,0.31892,0.70927,-0.017908,-0.50793,-0.38359,0.4911,0.03766,-0.0898,1.5192,-0.28899,-0.72977,0.064599,0.20158,0.097726,0.11072,-0.24141,0.97076,0.10058,-0.12278,0.10517,-0.04875
-0.026612,0.075564,-0.0032903,0.17225,0.62576,0.00725,-0.57754,-0.28774,0.51345,0.042252,-0.25903,1.7607,-0.40809,-0.5473,0.098775,0.21107,0.079423,0.092634,-0.52079,1.1359,0.10106,-0.16202,0.10615,-0.033514
-0.03241,0.087091,-0.001617,0.077934,0.50544,0.027977,-0.64853,-0.18145,0.52933,0.034089,-0.40355,1.9036,-0.51681,-0.38913,0.12475,0.17787,0.051824,0.067399,-0.81364,1.3272,0.094999,-0.16706,0.10808,-0.024828
-0.040707,0.09901,-0.013747,0.037192,0.36508,0.034877,-0.68955,-0.07844,0.53951,0.0015421,-0.50396,1.8933,-0.64709,-0.27545,0.13929,0.10311,0.018057,0.037531,-1.0574,1.4862,0.082587,-0.13619,0.11052,-0.01793
-0.049546,0.11275,-0.029458,0.032717,0.22541,0.028516,-0.67281,0.011431,0.54547,-0.05049,-0.5541,1.6869,-0.82681,-0.20135,0.13947,0.0022179,-0.011039,0.011198,-1.2013,1.5879,0.064273,-0.082792,0.10982,-0.0075076
-0.056524,0.12698,-0.041702,0.042904,0.097922,0.018717,-0.59507,0.079841,0.5489,-0.10699,-0.56723,1.2721,-1.0556,-0.15142,0.12457,-0.10387,-0.024436,-0.0025188,-1.2319,1.6327,0.042086,-0.024742,0.10002,0.0084319
-0.059736,0.13777,-0.050034,0.055374,-0.018785,0.018365,-0.48122,0.11888,0.55082,-0.15619,-0.57183,0.68513,-1.2978,-0.11928,0.098242,-0.19824,-0.019591,5.1484e-005,-1.1762,1.6195,0.020254,0.026354,0.077024,0.028676
-0.058039,0.1411,-0.057277,0.070663,-0.13059,0.036637,-0.36556,0.12467,0.55073,-0.19796,-0.59597,0.013448,-1.5009,-0.11488,0.068297,-0.27171,-0.0048867,0.01395,-1.0815,1.529,0.0039393,0.067653,0.042166,0.051774
-0.05098,0.1358,-0.063564,0.094118,-0.2339,0.076137,-0.26547,0.10318,0.54683,-0.24083,-0.64922,-0.62511,-1.6274,-0.15423,0.042745,-0.32102,0.0064986,0.028198,-0.98673,1.3292,-0.0032783,0.098971,0.0018586,0.078575
-0.038897,0.12451,-0.063987,0.12356,-0.30789,0.13412,-0.16962,0.071412,0.5375,-0.29169,-0.71478,-1.1188,-1.6786,-0.24062,0.02439,-0.34603,0.00646,0.032744,-0.90671,1.004,-0.0012174,0.116,-0.03701,0.11217
-0.023214,0.112,-0.052405,0.14416,-0.32141,0.20452,-0.050619,0.049691,0.52282,-0.3481,-0.75903,-1.397,-1.6899,-0.35292,0.0085083,-0.34953,-0.0023105,0.024928,-0.83745,0.58529,0.0072345,0.11125,-0.071797,0.15569
-0.0064101,0.10222,-0.027953,0.13628,-0.25233,0.27812,0.10884,0.048529,0.50465,-0.39921,-0.75352,-1.4482,-1.7036,-0.44991,-0.013438,-0.33821,-0.0091945,0.010788,-0.77371,0.16479,0.018159,0.083034,-0.10467,0.21009
0.0087432,0.096281,0.0020348,0.090465,-0.10652,0.34212,0.29827,0.059878,0.48532,-0.43325,-0.69539,-1.3166,-1.7386,-0.48823,-0.04587,-0.32153,-0.0045646,0.00024847,-0.7202,-0.13044,0.028526,0.043516,-0.13867,0.2732
0.020336,0.092616,0.025921,0.017045,0.078471,0.38243,0.48419,0.060943,0.46612,-0.44408,-0.6124,-1.0822,-1.7802,-0.443,-0.082938,-0.30704,0.012466,-0.00016452,-0.68595,-0.1969,0.036589,0.016281,-0.17335,0.34021
0.028012,0.088496,0.035658,-0.05868,0.2504,0.38967,0.63189,0.029522,0.44743,-0.4319,-0.54896,-0.83176,-1.796,-0.31991,-0.10977,-0.29574,0.033422,0.0083941,-0.66796,-0.017897,0.041116,0.0225,-0.20441,0.40479
0.032621,0.081459,0.032205,-0.11278,0.36948,0.36528,0.72554,-0.03967,0.43046,-0.39964,-0.54197,-0.63043,-1.7646,-0.15318,-0.11151,-0.28216,0.047083,0.018883,-0.64063,0.3115,0.040907,0.065788,-0.22755,0.46054
0.035144,0.069551,0.024103,-0.13818,0.42707,0.32195,0.77152,-0.13003,0.4187,-0.35012,-0.60098,-0.50182,-1.6941,0.0094038,-0.084232,-0.26013,0.047925,0.024505,-0.56323,0.62416,0.035515,0.1284,-0.24238,0.50244
0.035781,0.050741,0.020679,-0.14759,0.44261,0.27633,0.78555,-0.21352,0.4172,-0.28694,-0.70388,-0.42602,-1.6176,0.12778,-0.039501,-0.23024,0.03989,0.024136,-0.40287,0.769,0.02636,0.18284,-0.25221,0.52776
0.033959,0.022637,0.025673,-0.1625,0.44282,0.23852,0.77748,-0.26858,0.42929,-0.21693,-0.80865,-0.35862,-1.57,0.1877,0.0014746,-0.20222,0.032937,0.022801,-0.15712,0.69311,0.016658,0.21042,-0.25992,0.53577
0.029182,-0.016717,0.036182,-0.19722,0.4407,0.20682,0.74685,-0.29159,0.45322,-0.14979,-0.87328,-0.2615,-1.564,0.20637,0.020866,-0.18949,0.035394,0.027163,0.13947,0.46248,0.0095608,0.2125,-0.26436,0.52639
0.021991,-0.067192,0.046864,-0.24983,0.43103,0.1726,0.69071,-0.29359,0.48158,-0.093856,-0.87238,-0.1258,-1.5825,0.2211,0.015843,-0.19893,0.048116,0.039954,0.42973,0.20846,0.0058418,0.20627,-0.26137,0.49917
0.014268,-0.12496,0.055024,-0.30498,0.40395,0.13189,0.61391,-0.28619,0.50475,-0.051504,-0.80352,0.028512,-1.5893,0.26554,0.0010166,-0.22321,0.064719,0.057876,0.66004,0.041201,0.0031694,0.20957,-0.24884,0.45406
0.0086454,-0.18193,0.062191,-0.34469,0.36228,0.093974,0.53103,-0.27,0.51649,-0.018971,-0.68275,0.17367,-1.5504,0.34686,-3.1801e-006,-0.24173,0.077283,0.074402,0.80288,-0.0075649,-0.0022178,0.22728,-0.23065,0.39353
0.0074031,-0.2269,0.071519,-0.3582,0.32578,0.078954,0.45849,-0.23561,0.51789,0.0085426,-0.53406,0.29519,-1.4499,0.439,0.031318,-0.23073,0.082683,0.08481,0.86425,0.021065,-0.012796,0.24989,-0.21507,0.32381
0.011555,-0.24846,0.084066,-0.34538,0.31803,0.10474,0.40448,-0.17551,0.51646,0.03106,-0.37909,0.39297,-1.2948,0.49776,0.097125,-0.17753,0.084397,0.089204,0.87476,0.062929,-0.028267,0.26376,-0.20789,0.25325
0.020593,-0.23913,0.097464,-0.31364,0.34759,0.17296,0.36598,-0.094589,0.52082,0.042936,-0.23129,0.46247,-1.109,0.48841,0.18087,-0.09117,0.08855,0.091235,0.87174,0.075834,-0.046358,0.26304,-0.20622,0.1883
0.032928,-0.19909,0.10784,-0.27294,0.40008,0.26462,0.33506,-0.008714,0.53445,0.037975,-0.095696,0.47832,-0.92223,0.40702,0.25479,-0.0030336,0.097764,0.093973,0.88288,0.046691,-0.064857,0.25301,-0.19877,0.13034
0.046649,-0.13729,0.11294,-0.23238,0.44736,0.34934,0.30813,0.067355,0.55324,0.01563,0.027571,0.40276,-0.76031,0.281,0.29261,0.044983,0.10822,0.096685,0.91811,-0.030863,-0.082854,0.2427,-0.17338,0.076766
0.060127,-0.068747,0.11359,-0.19896,0.46611,0.40181,0.28996,0.13021,0.56841,-0.018298,0.139,0.21811,-0.63838,0.15046,0.28072,0.021526,0.11251,0.095268,0.97082,-0.17369,-0.10019,0.23426,-0.12648,0.026044
0.072206,-0.0086673,0.11257,-0.17682,0.45114,0.41436,0.28967,0.18488,0.57248,-0.058235,0.23718,-0.044036,-0.55697,0.04579,0.22228,-0.072881,0.10575,0.085833,1.0257,-0.39834,-0.11604,0.2193,-0.066874,-0.017132
0.082055,0.033471,0.112,-0.16586,0.41566,0.39805,0.31308,0.23059,0.56336,-0.10722,0.31876,-0.30711,-0.50297,-0.02208,0.13274,-0.19648,0.08972,0.068234,1.069,-0.6934,-0.1284,0.18587,-0.01064,-0.041566
0.089006,0.05653,0.1114,-0.16087,0.38177,0.37323,0.35845,0.24955,0.54362,-0.17855,0.3799,-0.49086,-0.45662,-0.055311,0.030134,-0.27844,0.071278,0.046495,1.0962,-1.0063,-0.13519,0.13032,0.029391,-0.035766
0.092648,0.065754,0.10788,-0.15289,0.36985,0.35709,0.41824,0.21251,0.51615,-0.28656,0.41716,-0.56032,-0.40284,-0.057068,-0.073689,-0.25164,0.056668,0.025801,1.1151,-1.2631,-0.13583,0.06374,0.051704,0.0029127
0.09311,0.068128,0.097941,-0.13297,0.39251,0.35588,0.48416,0.10007,0.48077,-0.43108,0.42725,-0.54413,-0.34029,-0.026906,-0.1752,-0.090823,0.04661,0.0086924,1.1395,-1.4074,-0.13157,0.0072693,0.06595,0.062786
0.091181,0.068496,0.079511,-0.09613,0.45246,0.36488,0.55032,-0.076568,0.43514,-0.58694,0.40611,-0.50763,-0.28105,0.033293,-0.27373,0.16692,0.03645,-0.0063103,1.1781,-1.4272,-0.12383,-0.020169,0.085058,0.12092
0.087948,0.068629,0.05287,-0.043191,0.54188,0.37403,0.61229,-0.27348,0.37899,-0.70827,0.34958,-0.50339,-0.23959,0.11177,-0.36313,0.43595,0.020981,-0.022617,1.223,-1.3489,-0.1121,-0.011859,0.11575,0.15399
0.084021,0.068693,0.020299,0.020246,0.64346,0.37459,0.66456,-0.43425,0.31706,-0.74838,0.25684,-0.53974,-0.21828,0.18859,-0.42829,0.62564,-0.00049228,-0.041998,1.2497,-1.2077,-0.093203,0.026573,0.15424,0.15041
0.078913,0.068849,-0.014726,0.085744,0.73554,0.36327,0.69993,-0.51853,0.2573,-0.68514,0.13589,-0.59135,-0.2016,0.24769,-0.45097,0.68767,-0.02325,-0.062709,1.2284,-1.0204,-0.063192,0.085701,0.18946,0.11558
0.071266,0.069371,-0.047925,0.1431,0.8013,0.34205,0.71196,-0.51894,0.20579,-0.53668,0.0071478,-0.63986,-0.1652,0.28918,-0.42215,0.63637,-0.040968,-0.080878,1.1418,-0.78327,-0.020432,0.16074,0.21072,0.066512
0.060042,0.069697,-0.074239,0.18094,0.83651,0.31477,0.69782,-0.45704,0.16307,-0.35639,-0.098948,-0.70729,-0.094471,0.32987,-0.35178,0.52945,-0.050691,-0.093757,0.99608,-0.49179,0.032311,0.25145,0.21399,0.019426
0.045947,0.068063,-0.088449,0.18896,0.84893,0.28262,0.6587,-0.36576,0.1257,-0.20824,-0.1521,-0.85019,0.0023047,0.38986,-0.26729,0.42535,-0.05469,-0.10183,0.81643,-0.16324,0.088368,0.35314,0.20336,-0.020829
0.031851,0.06267,-0.087135,0.16299,0.84797,0.24171,0.59814,-0.27311,0.091519,-0.13561,-0.13606,-1.1145,0.097974,0.47507,-0.20012,0.35036,-0.057913,-0.10786,0.63288,0.15784,0.13986,0.44756,0.18782,-0.06205
0.02154,0.053606,-0.071252,0.10998,0.83212,0.18488,0.52091,-0.19641,0.063083,-0.14086,-0.05814,-1.4827,0.1666,0.56971,-0.16865,0.29865,-0.063469,-0.11376,0.46703,0.41633,0.18071,0.50392,0.17664,-0.11618
0.01735,0.043791,-0.047285,0.047945,0.78503,0.10718,0.43429,-0.14409,0.045752,-0.18705,0.052769,-1.8549,0.20476,0.64484,-0.16938,0.25942,-0.069939,-0.11803,0.32969,0.57483,0.20818,0.49274,0.17624,-0.18789
0.018345,0.038016,-0.025252,-0.0016636,0.68595,0.012048,0.34913,-0.11663,0.041873,-0.21969,0.15963,-2.0824,0.23718,0.67738,-0.1822,0.24179,-0.072479,-0.11629,0.22707,0.63522,0.22251,0.40413,0.18921,-0.26892
0.020544,0.040759,-0.014006,-0.025394,0.52839,-0.085991,0.27676,-0.10319,0.046784,-0.19544,0.23402,-2.0419,0.30161,0.66638,-0.1855,0.27115,-0.066647,-0.10447,0.16464,0.63949,0.22548,0.25703,0.21476,-0.34198
0.019322,0.054361,-0.016664,-0.024979,0.33358,-0.16469,0.22141,-0.079,0.05078,-0.10221,0.26577,-1.7046,0.42419,0.63607,-0.16922,0.35833,-0.05209,-0.082531,0.14162,0.64765,0.21931,0.091781,0.24926,-0.39048
0.012473,0.078551,-0.029325,-0.014214,0.14787,-0.20246,0.17399,-0.011443,0.045714,0.038006,0.26072,-1.1598,0.60374,0.62377,-0.1371,0.47111,-0.033598,-0.055738,0.14063,0.70381,0.20633,-0.049837,0.28679,-0.40673
0.0017535,0.11096,-0.04395,-0.0075997,0.024384,-0.18774,0.11515,0.12412,0.03056,0.18219,0.23137,-0.57504,0.81477,0.65976,-0.097997,0.53924,-0.018842,-0.032448,0.12575,0.80966,0.18923,-0.14405,0.32009,-0.39349
-0.0082274,0.14757,-0.05321,-0.0098205,-0.00017883,-0.12489,0.028547,0.3269,0.011238,0.28661,0.18953,-0.11536,1.0238,0.74975,-0.05537,0.49719,-0.014101,-0.019743,0.057947,0.92191,0.17104,-0.19201,0.3419,-0.35949
-0.013024,0.18273,-0.053868,-0.014646,0.079647,-0.033661,-0.084017,0.5635,-0.0048854,0.32423,0.14598,0.13045,1.2035,0.86944,-0.0042677,0.33375,-0.020431,-0.019562,-0.079012,0.97631,0.15434,-0.21194,0.34636,-0.31334
-0.01115,0.2096,-0.046853,-0.013654,0.23824,0.057503,-0.19852,0.7774,-0.014952,0.29264,0.11385,0.17482,1.3345,0.97497,0.061708,0.10778,-0.032677,-0.027679,-0.26091,0.92433,0.14027,-0.22399,0.32999,-0.2603
-0.0047964,0.22198,-0.035005,-0.0064913,0.4318,0.12133,-0.28089,0.9114,-0.022106,0.21068,0.10811,0.099986,1.3993,1.0254,0.14028,-0.086137,-0.042164,-0.036033,-0.43025,0.75974,0.12792,-0.23895,0.29231,-0.20282
0.0017891,0.21741,-0.020905,-0.003205,0.6165,0.14085,-0.30807,0.93179,-0.031778,0.107,0.13821,0.00020003,1.3786,1.0059,0.21671,-0.17835,-0.041595,-0.036885,-0.527,0.51908,0.11489,-0.25663,0.23637,-0.14302
0.0048755,0.19931,-0.0062918,-0.016577,0.76395,0.11405,-0.28255,0.8422,-0.046318,0.0067683,0.19911,-0.060043,1.26,0.93783,0.27049,-0.16562,-0.029037,-0.026332,-0.52327,0.25714,0.098717,-0.272,0.16889,-0.084421
0.0030068,0.17594,0.0074147,-0.051565,0.86836,0.052464,-0.23005,0.68134,-0.062526,-0.076933,0.26994,-0.051215,1.0524,0.8675,0.28767,-0.10355,-0.0084104,-0.0054326,-0.43859,0.01561,0.078353,-0.28236,0.099411,-0.032069
-0.0028499,0.1561,0.018836,-0.10128,0.94256,-0.025466,-0.1826,0.50641,-0.07393,-0.14363,0.32426,0.037226,0.79123,0.83868,0.26963,-0.059606,0.013484,0.021003,-0.32643,-0.19377,0.05478,-0.29005,0.038155,0.0088278
-0.010288,0.14401,0.027132,-0.1526,1.0048,-0.10311,-0.15978,0.37095,-0.07582,-0.19972,0.34605,0.20258,0.52715,0.86573,0.23202,-0.066281,0.030779,0.046556,-0.2431,-0.3818,0.030623,-0.29993,-0.0067422,0.034698
-0.016626,0.13733,0.032553,-0.19559,1.064,-0.17235,-0.16038,0.3074,-0.069201,-0.25195,0.33979,0.41183,0.30256,0.92472,0.19551,-0.10968,0.040349,0.064962,-0.21993,-0.55927,0.0091023,-0.31508,-0.031083,0.044856
-0.019758,0.12975,0.036164,-0.22832,1.113,-0.23529,-0.16799,0.32146,-0.060948,-0.30524,0.32689,0.58384,0.13329,0.96788,0.17556,-0.15622,0.041091,0.071423,-0.25405,-0.71919,-0.0070853,-0.33467,-0.034634,0.041385
-0.018772,0.11623,0.038887,-0.25376,1.1373,-0.30042,-0.16466,0.39876,-0.060215,-0.36521,0.33063,0.60643,0.0082823,0.95019,0.17742,-0.18861,0.032688,0.064066,-0.31721,-0.83873,-0.016616,-0.35543,-0.019834,0.027288
-0.014402,0.096701,0.040864,-0.2732,1.1309,-0.37527,-0.14345,0.5178,-0.073533,-0.44069,0.36008,0.39737,-0.094229,0.84958,0.19724,-0.21836,0.015974,0.045503,-0.37205,-0.89844,-0.020061,-0.37485,0.0093479,0.0037613
-0.0090022,0.075617,0.041749,-0.28371,1.1074,-0.45977,-0.11379,0.66067,-0.10149,-0.54079,0.40387,-0.027237,-0.18793,0.66974,0.22581,-0.26694,-0.0054249,0.023008,-0.38599,-0.90071,-0.019961,-0.39337,0.047549,-0.031381
-0.0056666,0.058106,0.041477,-0.28174,1.094,-0.54395,-0.09819,0.81584,-0.13867,-0.66568,0.43738,-0.53489,-0.27115,0.43001,0.25109,-0.33685,-0.024672,0.0058202,-0.33998,-0.86985,-0.020121,-0.4137,0.0877,-0.082191
-0.0067226,0.046285,0.040587,-0.26899,1.1127,-0.61195,-0.12217,0.97352,-0.17661,-0.79718,0.43844,-0.93673,-0.33361,0.15531,0.25977,-0.40136,-0.034477,0.00018053,-0.23388,-0.83294,-0.023959,-0.43807,0.12165,-0.1503
-0.012527,0.038534,0.039835,-0.25389,1.1627,-0.65032,-0.20148,1.1194,-0.20803,-0.89859,0.40149,-1.0933,-0.36821,-0.12574,0.24023,-0.42228,-0.031785,0.0052977,-0.087989,-0.79845,-0.032461,-0.46589,0.14222,-0.23096
-0.021429,0.031675,0.039785,-0.24655,1.2215,-0.65598,-0.33214,1.2326,-0.23015,-0.92859,0.34191,-0.99341,-0.37703,-0.37955,0.18821,-0.37897,-0.02064,0.013741,0.062415,-0.75252,-0.043106,-0.49345,0.14568,-0.31308
-0.030888,0.023632,0.040891,-0.25118,1.2614,-0.6388,-0.48893,1.2904,-0.24558,-0.86341,0.28804,-0.74937,-0.36876,-0.57323,0.11234,-0.28213,-0.010257,0.016632,0.18086,-0.67627,-0.050974,-0.5159,0.13272,-0.38397
-0.03886,0.014329,0.043673,-0.26218,1.2682,-0.61645,-0.63453,1.2752,-0.2604,-0.71335,0.2659,-0.51474,-0.35328,-0.68945,0.034338,-0.16132,-0.0091531,0.0098984,0.24591,-0.56678,-0.051798,-0.52975,0.1072,-0.4351
-0.044444,0.0047706,0.048118,-0.26704,1.2452,-0.60431,-0.73496,1.1805,-0.28031,-0.52056,0.28532,-0.38668,-0.33973,-0.7393,-0.019317,-0.03956,-0.019538,-0.0033605,0.25961,-0.43994,-0.044954,-0.534,0.073718,-0.46422
-0.047598,-0.0041017,0.052397,-0.25367,1.2026,-0.60628,-0.77289,1.0111,-0.30658,-0.33752,0.33576,-0.36195,-0.33768,-0.75767,-0.031235,0.080913,-0.036116,-0.01625,0.24223,-0.31102,-0.033944,-0.52941,0.036125,-0.47245
-0.048497,-0.011528,0.052389,-0.21716,1.1441,-0.61266,-0.75127,0.78043,-0.33391,-0.19976,0.39403,-0.36922,-0.35608,-0.77938,-0.0043309,0.20954,-0.049984,-0.024073,0.21724,-0.17176,-0.023702,-0.51691,-0.0021731,-0.45995
-0.047263,-0.016465,0.043516,-0.16232,1.0646,-0.60695,-0.68705,0.50761,-0.35179,-0.11098,0.43809,-0.34118,-0.39703,-0.81205,0.037744,0.34501,-0.054533,-0.027669,0.19773,0.011676,-0.016778,-0.4963,-0.036924,-0.42545
-0.044217,-0.017832,0.024336,-0.10145,0.95988,-0.57764,-0.60108,0.21576,-0.34914,-0.049628,0.45735,-0.26615,-0.4493,-0.82852,0.06288,0.46188,-0.049111,-0.031402,0.18289,0.27408,-0.011696,-0.46639,-0.062839,-0.37062
-0.040173,-0.01577,-0.00088422,-0.049268,0.83497,-0.52717,-0.5113,-0.068533,-0.32017,0.010671,0.45253,-0.18411,-0.49019,-0.78653,0.048847,0.52032,-0.03836,-0.03814,0.16431,0.61933,-0.0050741,-0.42614,-0.075463,-0.30434
-0.036262,-0.012601,-0.023366,-0.017311,0.70313,-0.47149,-0.43155,-0.31778,-0.26816,0.083267,0.42707,-0.14005,-0.4983,-0.6606,-0.0038484,0.49262,-0.028349,-0.046132,0.13442,1.0078,0.0043464,-0.37624,-0.073965,-0.24095
-0.033269,-0.011872,-0.0347,-0.0096617,0.57544,-0.42972,-0.37266,-0.50851,-0.20436,0.1651,0.37886,-0.13768,-0.46905,-0.46084,-0.073228,0.38571,-0.02249,-0.050599,0.090666,1.3713,0.013544,-0.31969,-0.062378,-0.19153
-0.031061,-0.015662,-0.031997,-0.021542,0.45318,-0.41091,-0.34179,-0.62677,-0.14264,0.24565,0.30057,-0.12978,-0.42026,-0.22488,-0.13057,0.24186,-0.01975,-0.048192,0.035181,1.6409,0.017272,-0.26035,-0.04777,-0.15492
-0.028679,-0.022409,-0.019302,-0.04161,0.33048,-0.40755,-0.33968,-0.67154,-0.092876,0.31678,0.18845,-0.049211,-0.38221,0.0074015,-0.1585,0.11628,-0.015843,-0.039789,-0.025784,1.7657,0.012789,-0.19937,-0.036344,-0.1168
-0.025178,-0.027602,-0.004125,-0.057395,0.20331,-0.40095,-0.35882,-0.65538,-0.057407,0.37445,0.050612,0.1439,-0.37942,0.21397,-0.15989,0.047167,-0.006344,-0.029098,-0.080653,1.7152,0.0030753,-0.13139,-0.03032,-0.059212
-0.020542,-0.027317,0.0079986,-0.061285,0.073852,-0.37451,-0.38561,-0.60291,-0.032475,0.4137,-0.094731,0.42944,-0.41822,0.39102,-0.15178,0.037739,0.010077,-0.018851,-0.11267,1.4796,-0.0046646,-0.044544,-0.027989,0.025691
-0.015893,-0.021727,0.016505,-0.053663,-0.055083,-0.32422,-0.40565,-0.5477,-0.013177,0.42539,-0.23172,0.72717,-0.48794,0.53881,-0.14992,0.060312,0.029938,-0.0088621,-0.10596,1.0757,-0.0043289,0.073278,-0.02679,0.12755
-0.012746,-0.015252,0.024263,-0.04125,-0.18859,-0.25797,-0.40886,-0.52629,0.0018103,0.39998,-0.3597,0.92909,-0.57169,0.64981,-0.15673,0.077598,0.045726,0.001904,-0.056807,0.55593,0.0041915,0.22356,-0.026791,0.22103
-0.011859,-0.012749,0.03344,-0.03183,-0.33946,-0.18511,-0.39154,-0.56799,0.008896,0.33549,-0.49362,0.94986,-0.65593,0.71035,-0.16192,0.066234,0.049109,0.011524,0.018209,0.00064147,0.014606,0.38924,-0.031687,0.27792
-0.01264,-0.014779,0.042805,-0.028956,-0.51574,-0.10641,-0.35561,-0.68305,0.0022343,0.2416,-0.64854,0.77269,-0.73275,0.71116,-0.15438,0.028238,0.035346,0.014187,0.086465,-0.51202,0.018627,0.53765,-0.046466,0.2803
-0.013607,-0.016281,0.048777,-0.030065,-0.70591,-0.014469,-0.30672,-0.85585,-0.021584,0.13565,-0.81938,0.46584,-0.79788,0.6541,-0.13405,-0.014816,0.0067471,0.004286,0.11758,-0.94144,0.011641,0.63573,-0.073523,0.22778
-0.013527,-0.010438,0.048859,-0.028862,-0.87683,0.095038,-0.25216,-1.0493,-0.059773,0.034036,-0.97345,0.15556,-0.85092,0.54867,-0.113,-0.039072,-0.026955,-0.017397,0.10522,-1.2964,-0.0046493,0.66859,-0.11006,0.1365
-0.012324,0.004992,0.043958,-0.019849,-0.98978,0.21182,-0.19838,-1.2206,-0.10274,-0.053823,-1.0651,-0.035491,-0.89895,0.40445,-0.10489,-0.035079,-0.052161,-0.041165,0.076545,-1.611,-0.024054,0.64809,-0.1484,0.031906
-0.011059,0.024066,0.037485,-0.0017566,-1.0254,0.31116,-0.14787,-1.3386,-0.13713,-0.12507,-1.0637,-0.050524,-0.95787,0.23012,-0.11245,-0.013244,-0.057557,-0.052839,0.079994,-1.9044,-0.040025,0.60395,-0.17875,-0.06107
-0.011062,0.035206,0.032361,0.02213,-1.0001,0.36786,-0.097119,-1.3932,-0.15118,-0.17896,-0.9748,0.077991,-1.0459,0.041833,-0.12444,0.0049731,-0.039778,-0.042605,0.15737,-2.1593,-0.048658,0.56387,-0.19267,-0.12643
-0.012967,0.028503,0.028965,0.046398,-0.96273,0.37302,-0.038235,-1.3897,-0.1398,-0.21353,-0.83656,0.25923,-1.1718,-0.12877,-0.12443,0.0040339,-0.005339,-0.011734,0.31813,-2.3372,-0.04902,0.53785,-0.18572,-0.16126
-0.016334,0.0024971,0.025776,0.066627,-0.97302,0.33921,0.035356,-1.3375,-0.10675,-0.22574,-0.69495,0.4067,-1.3268,-0.23895,-0.10314,-0.012141,0.032515,0.027984,0.53286,-2.4137,-0.042045,0.51809,-0.15873,-0.17388
-0.020001,-0.034567,0.021668,0.081147,-1.0745,0.28901,0.12201,-1.2426,-0.062649,-0.21309,-0.57602,0.48824,-1.4869,-0.25367,-0.063484,-0.020077,0.06043,0.061489,0.74922,-2.4015,-0.029992,0.49213,-0.11777,-0.17732
-0.022723,-0.06975,0.017359,0.090685,-1.2741,0.23635,0.20856,-1.1099,-0.019745,-0.17409,-0.47601,0.53266,-1.6238,-0.16722,-0.014638,0.0082031,0.071194,0.078739,0.91785,-2.3371,-0.016802,0.45558,-0.072611,-0.18173
-0.023568,-0.092694,0.014758,0.09667,-1.5368,0.17672,0.27384,-0.95106,0.013491,-0.10761,-0.37416,0.5987,-1.7152,-0.011359,0.037663,0.08381,0.065934,0.078159,1.0108,-2.246,-0.0076957,0.41291,-0.033819,-0.19005
-0.021954,-0.09984,0.015277,0.099705,-1.7954,0.094434,0.2977,-0.78638,0.035027,-0.013827,-0.25541,0.73871,-1.7476,0.15711,0.094785,0.18792,0.051264,0.063933,1.0237,-2.1184,-0.0066815,0.36726,-0.0092918,-0.19853
-0.017602,-0.093169,0.019034,0.099294,-1.9728,-0.020223,0.27086,-0.6362,0.047891,0.10195,-0.1246,0.98334,-1.7143,0.28201,0.15947,0.27771,0.033838,0.040821,0.96695,-1.918,-0.013221,0.31184,-0.0018639,-0.20016
-0.010691,-0.075696,0.025526,0.094847,-2.0094,-0.1599,0.19993,-0.50903,0.05607,0.22535,-0.0040918,1.345,-1.6146,0.33095,0.22712,0.30972,0.016367,0.011405,0.85961,-1.6168,-0.021342,0.23336,-0.009467,-0.18801
-0.0020696,-0.048361,0.034566,0.086918,-1.8868,-0.30519,0.10461,-0.3974,0.060564,0.33398,0.079604,1.8179,-1.4571,0.3034,0.28353,0.26588,-0.0023172,-0.022652,0.72886,-1.2247,-0.023295,0.12563,-0.027717,-0.15698
0.0068311,-0.011281,0.046108,0.077467,-1.6374,-0.44084,0.0087097,-0.286,0.05812,0.40545,0.10912,2.3611,-1.2628,0.22232,0.31237,0.16419,-0.024059,-0.058001,0.6105,-0.78985,-0.015815,0.00019614,-0.052978,-0.10548
0.014571,0.032059,0.059133,0.068721,-1.3334,-0.56745,-0.07048,-0.16485,0.043401,0.4283,0.084329,2.8799,-1.0612,0.11721,0.3063,0.045712,-0.04842,-0.089491,0.53909,-0.36927,-0.0038427,-0.11751,-0.083542,-0.037985
0.020342,0.072304,0.071186,0.061488,-1.0583,-0.69734,-0.12841,-0.035488,0.013268,0.40841,0.026338,3.2355,-0.877,0.0096792,0.27222,-0.053379,-0.072634,-0.11329,0.52876,0.0040922,0.002305,-0.20471,-0.11809,0.032819
0.024082,0.09733,0.079537,0.054409,-0.87345,-0.83769,-0.17195,0.094228,-0.029447,0.36551,-0.022694,3.2943,-0.7184,-0.092057,0.22608,-0.12419,-0.094035,-0.13002,0.55939,0.33305,-0.0049862,-0.25705,-0.15294,0.088062
0.02591,0.10021,0.083018,0.045013,-0.79501,-0.97672,-0.21192,0.21932,-0.075269,0.32178,-0.0091827,2.9946,-0.57398,-0.18963,0.18159,-0.18534,-0.11203,-0.14413,0.58487,0.64062,-0.023577,-0.29036,-0.18089,0.11032
0.025516,0.086365,0.082528,0.031957,-0.79399,-1.0863,-0.25503,0.33959,-0.11163,0.28983,0.1082,2.3852,-0.42336,-0.28634,0.14193,-0.2615,-0.12736,-0.15909,0.56381,0.94417,-0.041792,-0.32773,-0.19344,0.093472
0.022306,0.073277,0.079482,0.016683,-0.81802,-1.1404,-0.301,0.45174,-0.12926,0.2678,0.32846,1.6077,-0.25329,-0.37972,0.099843,-0.35786,-0.1395,-0.17301,0.4912,1.2421,-0.046433,-0.38323,-0.18543,0.047799
0.016322,0.080592,0.073844,0.0030871,-0.82203,-1.1351,-0.34644,0.54121,-0.12788,0.24387,0.59273,0.8306,-0.068095,-0.45833,0.045223,-0.45176,-0.14561,-0.17941,0.40369,1.5218,-0.032391,-0.45446,-0.1588,-0.004215
0.0089265,0.1162,0.064129,-0.0047009,-0.79006,-1.0929,-0.39099,0.58562,-0.11713,0.20597,0.8028,0.1804,0.11235,-0.5036,-0.026363,-0.50854,-0.14293,-0.17347,0.35044,1.7771,-0.0059528,-0.52659,-0.12208,-0.039335
0.0022303,0.16821,0.049734,-0.0047395,-0.73606,-1.0475,-0.43901,0.5705,-0.1116,0.14921,0.87109,-0.29099,0.26442,-0.4957,-0.10954,-0.509,-0.13289,-0.1585,0.35111,2.0173,0.020918,-0.5805,-0.085527,-0.044545
-0.0025208,0.21008,0.03318,0.002009,-0.68567,-1.0205,-0.49415,0.50476,-0.12251,0.076155,0.7728,-0.59265,0.37388,-0.42168,-0.19075,-0.46572,-0.12242,-0.14604,0.37602,2.2574,0.040267,-0.59774,-0.05506,-0.020637
-0.0059707,0.21691,0.019435,0.013306,-0.65262,-1.0071,-0.55133,0.42061,-0.15159,-0.0093939,0.56309,-0.75759,0.4427,-0.28359,-0.25349,-0.41459,-0.12011,-0.14811,0.36669,2.4982,0.053338,-0.56225,-0.030036,0.022178
-0.0096589,0.18192,0.012356,0.028367,-0.6263,-0.98143,-0.59431,0.35555,-0.19132,-0.10923,0.34408,-0.81512,0.48682,-0.10305,-0.28451,-0.38779,-0.1294,-0.16752,0.28095,2.7141,0.066995,-0.46492,-0.006474,0.071242
-0.013559,0.12141,0.011534,0.049379,-0.57833,-0.91673,-0.60288,0.32981,-0.23078,-0.23169,0.20332,-0.78955,0.52707,0.081675,-0.27931,-0.38939,-0.14501,-0.19449,0.12521,2.8587,0.085196,-0.31262,0.017137,0.11531
-0.014653,0.064102,0.012921,0.080103,-0.48255,-0.80502,-0.56544,0.3372,-0.26246,-0.38488,0.16657,-0.71618,0.57754,0.22772,-0.2454,-0.39207,-0.15649,-0.21334,-0.052656,2.8839,0.1039,-0.13423,0.036985,0.1446
-0.0086549,0.032872,0.012961,0.12195,-0.3342,-0.66351,-0.48701,0.35587,-0.28473,-0.56621,0.19622,-0.65173,0.6366,0.305,-0.20129,-0.35627,-0.15658,-0.21416,-0.20235,2.7592,0.11447,0.026559,0.046997,0.15078
0.005901,0.032093,0.012191,0.17027,-0.1557,-0.52455,-0.38635,0.36788,-0.29891,-0.75575,0.23039,-0.66134,0.6856,0.3096,-0.16945,-0.25649,-0.14754,-0.20017,-0.30791,2.4801,0.11239,0.13225,0.045232,0.13019
0.024814,0.048915,0.014438,0.21443,0.014126,-0.41769,-0.28466,0.37024,-0.30466,-0.9184,0.22865,-0.78321,0.69833,0.26407,-0.16507,-0.096125,-0.13957,-0.18446,-0.39203,2.0661,0.10285,0.17277,0.037539,0.088164
0.039833,0.065613,0.022071,0.2429,0.13944,-0.35579,-0.19519,0.36832,-0.29845,-1.0143,0.18987,-0.99142,0.65877,0.20256,-0.18685,0.096132,-0.14223,-0.17886,-0.48746,1.5532,0.09729,0.16944,0.034531,0.039237
0.044203,0.072099,0.032014,0.25114,0.20325,-0.33258,-0.12144,0.35972,-0.27635,-1.0122,0.13529,-1.1851,0.57709,0.14983,-0.21679,0.28104,-0.15595,-0.18393,-0.60302,0.9854,0.10353,0.15648,0.043992,0.00022675
0.037768,0.069284,0.036837,0.24659,0.21076,-0.33018,-0.063099,0.32453,-0.2378,-0.89977,0.079077,-1.2212,0.49118,0.10812,-0.23098,0.42249,-0.17082,-0.18849,-0.71354,0.40638,0.1183,0.1544,0.065194,-0.019892
0.027134,0.062876,0.030425,0.24634,0.18007,-0.33016,-0.022013,0.23252,-0.18622,-0.68829,0.015042,-0.98305,0.44782,0.060426,-0.21516,0.49456,-0.17376,-0.17875,-0.77937,-0.1507,0.12905,0.15673,0.090098,-0.02537
0.020503,0.055194,0.01298,0.26769,0.12785,-0.32109,-0.0013411,0.062389,-0.12527,-0.41103,-0.071396,-0.44932,0.47268,-0.013413,-0.17422,0.4851,-0.15822,-0.14923,-0.77529,-0.66869,0.12372,0.14044,0.11024,-0.029352
0.021435,0.042845,-0.0096016,0.31749,0.06007,-0.30019,0.0018076,-0.18204,-0.054694,-0.11615,-0.182,0.27897,0.55028,-0.12072,-0.12813,0.40064,-0.12836,-0.10666,-0.70445,-1.1424,0.09978,0.089148,0.123,-0.042983
0.026699,0.021494,-0.031624,0.38742,-0.026598,-0.27077,0.0029226,-0.47139,0.029705,0.14526,-0.29897,1.0159,0.63142,-0.25137,-0.096911,0.27037,-0.094706,-0.063894,-0.58963,-1.5655,0.064987,0.007689,0.13154,-0.066857
0.029656,-0.007925,-0.053135,0.45815,-0.13533,-0.23903,0.028295,-0.76577,0.13081,0.33359,-0.40081,1.5743,0.66637,-0.38498,-0.085788,0.14141,-0.065149,-0.029614,-0.45452,-1.92,0.02957,-0.084479,0.13894,-0.091819
0.02582,-0.03802,-0.079406,0.50908,-0.26008,-0.21196,0.10354,-1.0333,0.24373,0.43192,-0.48576,1.8445,0.64037,-0.50084,-0.082175,0.061226,-0.038852,-0.0026228,-0.31217,-2.1809,-0.0024341,-0.1729,0.14211,-0.10811
0.015788,-0.059995,-0.11424,0.52668,-0.38464,-0.19606,0.23858,-1.2581,0.35393,0.44827,-0.5794,1.822,0.58402,-0.58135,-0.066798,0.054234,-0.007846,0.02501,-0.16642,-2.3361,-0.034875,-0.26055,0.13178,-0.11492
0.0035492,-0.070302,-0.15325,0.50686,-0.49044,-0.19554,0.41834,-1.4349,0.44224,0.40691,-0.71681,1.573,0.54959,-0.60959,-0.030165,0.10822,0.035265,0.059473,-0.018753,-2.4041,-0.073188,-0.36009,0.0989,-0.12249
-0.0074839,-0.073065,-0.18402,0.45238,-0.56629,-0.21023,0.60563,-1.5582,0.49376,0.33413,-0.91227,1.1736,0.57234,-0.57035,0.018855,0.18174,0.089938,0.099309,0.12885,-2.4293,-0.11668,-0.4726,0.041908,-0.14567
-0.01683,-0.076461,-0.19436,0.36969,-0.61186,-0.23489,0.75569,-1.618,0.50476,0.24722,-1.1412,0.6719,0.64867,-0.46091,0.059068,0.22886,0.1466,0.13706,0.27588,-2.4499,-0.15708,-0.57363,-0.031357,-0.1947
-0.025876,-0.086422,-0.18229,0.26814,-0.63282,-0.26174,0.83569,-1.6096,0.4835,0.15309,-1.3487,0.094402,0.74782,-0.30564,0.072368,0.22419,0.19266,0.16631,0.42409,-2.461,-0.18492,-0.62183,-0.10878,-0.27022
-0.035082,-0.10274,-0.15883,0.16031,-0.63285,-0.28503,0.83884,-1.545,0.44518,0.054866,-1.4774,-0.52228,0.84433,-0.15773,0.055893,0.17191,0.221,0.18726,0.57343,-2.4065,-0.19758,-0.58616,-0.18139,-0.36466
-0.042494,-0.11999,-0.14044,0.060146,-0.6102,-0.30429,0.7856,-1.4563,0.40496,-0.040356,-1.4931,-1.1165,0.9404,-0.076754,0.021676,0.095241,0.23424,0.2057,0.71684,-2.2111,-0.20136,-0.47066,-0.24657,-0.46647
-0.044969,-0.13175,-0.13672,-0.022251,-0.56116,-0.3231,0.71101,-1.38,0.37278,-0.11952,-1.3919,-1.6237,1.058,-0.091095,-0.014302,0.017802,0.24178,0.22651,0.84039,-1.8353,-0.20535,-0.31694,-0.30491,-0.56242
-0.040774,-0.13428,-0.14343,-0.08567,-0.48607,-0.34364,0.6457,-1.3338,0.35174,-0.16822,-1.1907,-2.0155,1.2097,-0.17253,-0.042983,-0.048066,0.25196,0.24805,0.93004,-1.3098,-0.21273,-0.18234,-0.35426,-0.63728
-0.031097,-0.12762,-0.14682,-0.13771,-0.39167,-0.3619,0.6015,-1.3043,0.33941,-0.17764,-0.91475,-2.3161,1.3775,-0.24834,-0.063657,-0.10007,0.26565,0.26281,0.97903,-0.72321,-0.21743,-0.10995,-0.38708,-0.67462
-0.01933,-0.11413,-0.13549,-0.18799,-0.28828,-0.36829,0.56952,-1.256,0.33043,-0.14843,-0.59488,-2.5737,1.5197,-0.24979,-0.076438,-0.13794,0.27623,0.26386,0.98957,-0.17188,-0.20927,-0.11145,-0.39383,-0.66231
-0.0089958,-0.096783,-0.10981,-0.23907,-0.18513,-0.35405,0.52949,-1.1583,0.31907,-0.089688,-0.27118,-2.8076,1.5999,-0.16462,-0.075152,-0.1587,0.2758,0.2515,0.96871,0.29077,-0.1827,-0.171,-0.36932,-0.6007
-0.0020686,-0.078357,-0.081083,-0.28226,-0.088126,-0.31871,0.46258,-1.0079,0.3011,-0.014624,0.009218,-2.9769,1.6107,-0.052415,-0.049316,-0.15954,0.26208,0.23391,0.92311,0.67036,-0.14137,-0.26156,-0.31638,-0.50665
0.0013499,-0.061606,-0.061702,-0.30265,1.7748e-005,-0.27181,0.35919,-0.83035,0.27471,0.064173,0.20804,-3.001,1.5727,-0.0061958,0.005654,-0.14307,0.24039,0.22095,0.85626,1.0079,-0.09462,-0.35815,-0.24385,-0.40747
0.0023767,-0.049143,-0.055309,-0.28994,0.079689,-0.22691,0.21909,-0.65775,0.24056,0.13816,0.31749,-2.8213,1.514,-0.085218,0.080026,-0.11795,0.21868,0.21586,0.7668,1.3396,-0.049792,-0.44,-0.16103,-0.32667
0.0025302,-0.04256,-0.055251,-0.24708,0.15541,-0.19226,0.047628,-0.50345,0.20109,0.20412,0.36914,-2.4555,1.4532,-0.26844,0.15271,-0.093156,0.20021,0.2117,0.64634,1.6703,-0.0075237,-0.48658,-0.073857,-0.27117
0.003122,-0.041376,-0.051876,-0.18945,0.2351,-0.16551,-0.14713,-0.35208,0.15951,0.26263,0.41829,-2.0022,1.4,-0.46469,0.20504,-0.071757,0.18018,0.19583,0.47974,1.9719,0.035681,-0.47845,0.014413,-0.2298
0.004735,-0.042993,-0.041447,-0.1348,0.32474,-0.13606,-0.35464,-0.17223,0.11876,0.31413,0.51133,-1.5893,1.3675,-0.57333,0.23438,-0.05069,0.14962,0.1591,0.25408,2.2014,0.080763,-0.40668,0.099574,-0.18457
0.0067951,-0.044103,-0.028705,-0.091474,0.42039,-0.092578,-0.56204,0.059844,0.080648,0.35464,0.65841,-1.3003,1.3756,-0.55222,0.25545,-0.026983,0.10368,0.10319,-0.024901,2.3224,0.1222,-0.28356,0.17469,-0.12581
0.0076612,-0.042756,-0.021545,-0.05396,0.5048,-0.029676,-0.75646,0.34386,0.045664,0.37521,0.83082,-1.1272,1.4358,-0.44631,0.2874,-0.0040604,0.047216,0.040342,-0.32145,2.3202,0.15095,-0.14189,0.23269,-0.059191
0.00559,-0.03954,-0.023543,-0.009278,0.55374,0.050308,-0.929,0.65638,0.01356,0.36738,0.98342,-0.97965,1.5315,-0.36097,0.33673,0.0087309,-0.0071765,-0.014413,-0.57938,2.2084,0.16169,-0.01853,0.27149,0.00022262
0.00017992,-0.036905,-0.031383,0.051106,0.54991,0.13983,-1.077,0.96482,-0.01552,0.33165,1.0838,-0.7428,1.616,-0.4023,0.38954,0.0039149,-0.047644,-0.052797,-0.754,2.0223,0.15759,0.068356,0.29662,0.040562
-0.0068057,-0.03706,-0.038914,0.12347,0.49436,0.22983,-1.2028,1.2432,-0.04018,0.28206,1.1272,-0.34665,1.6361,-0.62332,0.41935,-0.015649,-0.071316,-0.077763,-0.84561,1.8014,0.14845,0.13074,0.31839,0.061102
-0.012144,-0.040074,-0.043124,0.19431,0.40648,0.31264,-1.3104,1.4806,-0.058064,0.24111,1.1294,0.19306,1.564,-1.0024,0.40388,-0.035691,-0.085768,-0.099698,-0.9057,1.5666,0.1439,0.20048,0.34516,0.069254
-0.013158,-0.043703,-0.045971,0.25071,0.31237,0.38439,-1.4048,1.6811,-0.06735,0.22714,1.1096,0.7826,1.4115,-1.4553,0.33864,-0.039206,-0.10255,-0.1275,-1.0045,1.3063,0.14765,0.30371,0.37753,0.070815
-0.0096418,-0.045101,-0.050649,0.28942,0.23076,0.44717,-1.4927,1.8583,-0.068472,0.24309,1.0771,1.2968,1.2155,-1.8665,0.2386,-0.01924,-0.128,-0.16138,-1.1808,0.98862,0.15701,0.43924,0.40782,0.063597
-0.0042233,-0.043009,-0.05661,0.31706,0.16601,0.50936,-1.5853,2.0269,-0.064616,0.27588,1.0313,1.6341,1.0091,-2.1245,0.12895,0.01387,-0.15862,-0.19278,-1.4121,0.59435,0.16671,0.57787,0.42475,0.040746
-0.00077842,-0.03864,-0.058793,0.3412,0.11124,0.5821,-1.6958,2.1943,-0.060357,0.30696,0.96744,1.7522,0.80572,-2.1533,0.032554,0.037189,-0.1843,-0.21102,-1.6296,0.14777,0.17278,0.68275,0.41951,0.00039042
-0.001978,-0.034575,-0.052135,0.36058,0.055803,0.6724,-1.8323,2.3522,-0.059175,0.3254,0.88021,1.6714,0.60728,-1.9352,-0.03897,0.029957,-0.19633,-0.21132,-1.7655,-0.28334,0.17301,0.73383,0.38917,-0.048085
-0.0076956,-0.032711,-0.037056,0.36309,-0.0094209,0.77781,-1.9901,2.475,-0.061514,0.33286,0.76227,1.4584,0.4233,-1.518,-0.087559,-0.01106,-0.19362,-0.19802,-1.7943,-0.62603,0.16481,0.7372,0.33591,-0.087976
-0.01533,-0.032967,-0.020553,0.33384,-0.090416,0.88733,-2.1472,2.5287,-0.064725,0.33745,0.60402,1.2044,0.27812,-1.0002,-0.12553,-0.066662,-0.18244,-0.18094,-1.7371,-0.85181,0.14392,0.71383,0.2639,-0.10684
-0.021679,-0.033691,-0.011544,0.26654,-0.18854,0.98891,-2.27,2.4878,-0.064947,0.34344,0.401,1.0052,0.19712,-0.4954,-0.16834,-0.1053,-0.17069,-0.16835,-1.6304,-0.99481,0.10623,0.68045,0.17689,-0.10601
-0.024963,-0.033101,-0.014355,0.16887,-0.29704,1.0776,-2.3231,2.3516,-0.059755,0.34709,0.16518,0.94039,0.18534,-0.091605,-0.22514,-0.10219,-0.16181,-0.16192,-1.4943,-1.1166,0.051754,0.64009,0.078702,-0.099645
-0.025642,-0.030335,-0.025729,0.057487,-0.39907,1.1569,-2.2816,2.148,-0.049925,0.34208,-0.071152,1.0449,0.22075,0.17588,-0.29057,-0.054364,-0.15303,-0.15707,-1.3279,-1.2403,-0.012886,0.58871,-0.02411,-0.10367
-0.025662,-0.025186,-0.037498,-0.052862,-0.47302,1.2329,-2.1383,1.9206,-0.039281,0.32835,-0.26761,1.2863,0.2703,0.32462,-0.34388,0.018932,-0.13887,-0.14776,-1.1352,-1.309,-0.075895,0.52776,-0.12002,-0.12314
-0.026859,-0.017028,-0.042339,-0.15668,-0.50536,1.3063,-1.9037,1.7067,-0.03267,0.31457,-0.39842,1.567,0.31458,0.4013,-0.35899,0.090272,-0.11644,-0.13181,-0.95119,-1.2095,-0.12534,0.46748,-0.1939,-0.14725
-0.029707,-0.0042938,-0.038137,-0.2558,-0.50195,1.3713,-1.6005,1.5187,-0.033053,0.31093,-0.46869,1.7628,0.35879,0.45035,-0.32208,0.14122,-0.088355,-0.11318,-0.83998,-0.85322,-0.15452,0.41655,-0.23293,-0.15496
-0.033204,0.014397,-0.028358,-0.35065,-0.48677,1.423,-1.2543,1.3435,-0.039084,0.3186,-0.50904,1.7802,0.42051,0.49365,-0.2451,0.16981,-0.061638,-0.099959,-0.85954,-0.2549,-0.16434,0.36907,-0.2344,-0.12593
-0.035877,0.037776,-0.019314,-0.43294,-0.4858,1.4652,-0.88738,1.1567,-0.04428,0.3262,-0.55035,1.5952,0.50725,0.53044,-0.16349,0.18449,-0.043928,-0.099597,-1.0219,0.45303,-0.1613,0.30406,-0.20961,-0.049202
-0.03709,0.059983,-0.016827,-0.48695,-0.50752,1.5107,-0.51803,0.94041,-0.038323,0.31718,-0.5981,1.2491,0.60519,0.55275,-0.11644,0.19255,-0.039826,-0.11409,-1.2796,1.0865,-0.15295,0.20093,-0.17941,0.074271
-0.037676,0.071383,-0.024016,-0.49879,-0.53682,1.5704,-0.16381,0.69142,-0.010354,0.28199,-0.62814,0.80753,0.68926,0.56235,-0.12165,0.19424,-0.049343,-0.13797,-1.5494,1.5099,-0.14398,0.058093,-0.16248,0.23329
-0.039368,0.062956,-0.040249,-0.46665,-0.54875,1.6425,0.15504,0.41693,0.046561,0.2242,-0.60932,0.3235,0.74365,0.57621,-0.16324,0.1863,-0.068658,-0.16035,-1.752,1.6974,-0.13541,-0.10202,-0.16391,0.40826
-0.043419,0.032293,-0.060889,-0.40402,-0.53116,1.7098,0.4178,0.12478,0.1313,0.15531,-0.53534,-0.16789,0.77279,0.61746,-0.20287,0.16824,-0.09223,-0.17045,-1.8405,1.7149,-0.12672,-0.24613,-0.17313,0.57201
-0.049398,-0.012894,-0.078224,-0.33366,-0.49651,1.7515,0.61083,-0.18013,0.23277,0.083377,-0.4383,-0.62812,0.79277,0.70019,-0.20689,0.14253,-0.11503,-0.16343,-1.8026,1.6456,-0.11846,-0.34928,-0.17356,0.6926
-0.055063,-0.05715,-0.084312,-0.27644,-0.47172,1.7589,0.73427,-0.49068,0.33189,0.0058854,-0.37052,-1.0024,0.8128,0.82073,-0.16951,0.10798,-0.13395,-0.14325,-1.6469,1.5236,-0.11271,-0.40306,-0.15676,0.74147
-0.057371,-0.085132,-0.07511,-0.24241,-0.47496,1.7419,0.80096,-0.79059,0.40737,-0.086849,-0.36719,-1.2391,0.82539,0.96212,-0.11448,0.054893,-0.14794,-0.12022,-1.3937,1.3285,-0.11106,-0.40815,-0.12926,0.70575
-0.05393,-0.090196,-0.053422,-0.22891,-0.5002,1.7214,0.82672,-1.0548,0.44331,-0.20141,-0.41981,-1.3259,0.81502,1.107,-0.074612,-0.029034,-0.15686,-0.10464,-1.0771,1.0373,-0.11237,-0.36281,-0.10606,0.59781
-0.04404,-0.077767,-0.028007,-0.22541,-0.52355,1.7131,0.81972,-1.2584,0.43502,-0.33342,-0.48288,-1.2998,0.77653,1.2472,-0.065909,-0.14391,-0.1602,-0.10068,-0.74899,0.68208,-0.11307,-0.26307,-0.096599,0.45377
-0.029009,-0.061014,-0.0087046,-0.22104,-0.5256,1.7167,0.77832,-1.3871,0.38978,-0.46848,-0.51004,-1.2061,0.72536,1.3827,-0.0768,-0.26663,-0.15659,-0.10443,-0.46856,0.35723,-0.11039,-0.11701,-0.095658,0.31875
-0.011906,-0.052011,-0.00073973,-0.21011,-0.50938,1.7174,0.69968,-1.4402,0.32219,-0.58969,-0.49197,-1.0371,0.6892,1.5105,-0.079853,-0.3563,-0.14489,-0.10721,-0.27687,0.16789,-0.10552,0.041959,-0.087599,0.226
0.0031099,-0.054783,-0.0023849,-0.19337,-0.49778,1.6981,0.59093,-1.4261,0.24672,-0.68437,-0.46703,-0.70914,0.68816,1.6155,-0.054829,-0.37619,-0.12578,-0.10153,-0.17499,0.1607,-0.10342,0.16108,-0.059894,0.18249
0.012025,-0.064777,-0.0075131,-0.17526,-0.51335,1.6523,0.47174,-1.3572,0.17159,-0.74487,-0.4966,-0.12021,0.72025,1.6706,-0.0034812,-0.31798,-0.10243,-0.085532,-0.12525,0.29385,-0.10846,0.19552,-0.013764,0.17015
0.012722,-0.074095,-0.010527,-0.15981,-0.55884,1.588,0.36488,-1.2509,0.097487,-0.76585,-0.62322,0.74169,0.76327,1.6476,0.05505,-0.21078,-0.078979,-0.062989,-0.077919,0.46907,-0.11926,0.13781,0.037244,0.16154
0.006415,-0.07773,-0.0093948,-0.14767,-0.61501,1.523,0.28264,-1.1315,0.020815,-0.74383,-0.84037,1.7238,0.78947,1.5311,0.10213,-0.10767,-0.058,-0.039791,-0.0027993,0.59828,-0.12734,0.024718,0.078543,0.13867
-0.0025471,-0.07622,-0.0047536,-0.13586,-0.65575,1.4757,0.22119,-1.0243,-0.061141,-0.68209,-1.0918,2.5404,0.77956,1.3262,0.13412,-0.058791,-0.038939,-0.019713,0.098743,0.65298,-0.12149,-0.085947,0.10473,0.1023
-0.0090412,-0.073694,0.0029891,-0.12002,-0.66578,1.4574,0.16734,-0.94129,-0.14727,-0.59622,-1.2973,2.9105,0.72658,1.0577,0.16158,-0.087998,-0.019231,-0.0025693,0.2076,0.66321,-0.095001,-0.15145,0.11994,0.066867
-0.010459,-0.0739,0.014897,-0.09751,-0.64617,1.4669,0.11077,-0.86723,-0.23393,-0.51295,-1.3881,2.7151,0.63085,0.76162,0.19611,-0.18575,0.0027281,0.014431,0.30953,0.67436,-0.050496,-0.16531,0.12965,0.047226
-0.0084848,-0.077539,0.03162,-0.069338,-0.6066,1.4897,0.050424,-0.76399,-0.31924,-0.4591,-1.333,2.068,0.49489,0.47546,0.23859,-0.31857,0.025389,0.03366,0.40365,0.69933,0.001333,-0.14953,0.13325,0.048428
-0.0077204,-0.082418,0.05066,-0.039568,-0.55515,1.5021,-0.0089686,-0.59719,-0.40657,-0.44631,-1.1456,1.2463,0.32431,0.22879,0.27972,-0.44593,0.044763,0.054905,0.49087,0.7013,0.047932,-0.12884,0.12496,0.065477
-0.011988,-0.085563,0.066361,-0.012648,-0.49615,1.4798,-0.064011,-0.3685,-0.5034,-0.46198,-0.87498,0.53105,0.13191,0.038393,0.31091,-0.53496,0.057562,0.075581,0.55808,0.61573,0.081548,-0.1111,0.10163,0.09079
-0.021143,-0.085406,0.073525,0.0096023,-0.43566,1.41,-0.11385,-0.12674,-0.61517,-0.47371,-0.58235,0.064505,-0.062544,-0.091908,0.33373,-0.56853,0.063875,0.092842,0.57863,0.39405,0.10198,-0.089187,0.0689,0.12115
-0.030958,-0.082666,0.071668,0.029147,-0.38519,1.298,-0.15376,0.055736,-0.73808,-0.4452,-0.31631,-0.18365,-0.24045,-0.16691,0.35791,-0.54835,0.066785,0.10563,0.53239,0.041322,0.11441,-0.058029,0.039069,0.15789
-0.036152,-0.079617,0.065774,0.050067,-0.35653,1.1641,-0.16938,0.12805,-0.85695,-0.35428,-0.09583,-0.33633,-0.39493,-0.19418,0.38982,-0.49422,0.069281,0.11493,0.42724,-0.37301,0.12488,-0.027616,0.02203,0.20135
-0.034131,-0.078361,0.062425,0.075084,-0.35109,1.0314,-0.14132,0.094247,-0.95155,-0.20291,0.089152,-0.48972,-0.53389,-0.18102,0.42272,-0.43828,0.071559,0.12225,0.30001,-0.73716,0.13684,-0.019615,0.017569,0.24595
-0.026575,-0.079272,0.064466,0.1028,-0.35418,0.91128,-0.060217,0.0098805,-1.0088,-0.014317,0.26024,-0.64828,-0.67044,-0.13633,0.43873,-0.41237,0.071643,0.12782,0.19336,-0.94266,0.15036,-0.052511,0.015608,0.28122
-0.017914,-0.080713,0.068764,0.12778,-0.34145,0.79858,0.059573,-0.056062,-1.0322,0.17986,0.42844,-0.75216,-0.80727,-0.074606,0.42152,-0.43122,0.068945,0.1306,0.12711,-0.93319,0.16312,-0.13038,0.0038076,0.29838
-0.012209,-0.080406,0.068841,0.14354,-0.29369,0.67828,0.18085,-0.065058,-1.041,0.35429,0.58405,-0.75801,-0.92867,-0.016368,0.36874,-0.4809,0.067132,0.13013,0.088263,-0.73227,0.17148,-0.24411,-0.024218,0.29689
-0.010922,-0.077532,0.059864,0.1463,-0.20895,0.53817,0.26182,-0.027269,-1.0578,0.49803,0.70562,-0.69668,-1.0102,0.018142,0.29355,-0.5226,0.072901,0.12846,0.047298,-0.43309,0.17113,-0.37987,-0.066241,0.28559
-0.01295,-0.073862,0.041773,0.13674,-0.10298,0.37761,0.28032,0.016033,-1.0927,0.61195,0.77919,-0.66041,-1.0409,0.019051,0.21416,-0.51337,0.091051,0.12989,-0.013844,-0.15281,0.15816,-0.52345,-0.11498,0.27813
-0.016292,-0.072714,0.018459,0.11893,0.0013363,0.20701,0.24717,0.0285,-1.1364,0.69842,0.8095,-0.73546,-1.0407,-0.0068939,0.14027,-0.4324,0.12015,0.13811,-0.085588,0.025234,0.1312,-0.65683,-0.16367,0.28615
-0.019668,-0.076287,-0.005335,0.097841,0.086748,0.040824,0.20028,0.0044303,-1.1657,0.75236,0.81323,-0.93803,-1.0547,-0.039636,0.067256,-0.29447,0.15302,0.15297,-0.13847,0.088288,0.093627,-0.75521,-0.20912,0.31475
-0.022916,-0.083441,-0.026154,0.077685,0.14778,-0.10915,0.18422,-0.032951,-1.1585,0.76219,0.8016,-1.2008,-1.1253,-0.057502,-0.017936,-0.13943,0.18192,0.17001,-0.14725,0.088224,0.053514,-0.79392,-0.25128,0.36153
-0.026313,-0.089862,-0.04155,0.061852,0.18802,-0.2363,0.22891,-0.054874,-1.1058,0.72164,0.77061,-1.4123,-1.26,-0.049783,-0.12391,-0.0047269,0.2039,0.18347,-0.11227,0.097016,0.020403,-0.7639,-0.29099,0.41808
-0.029773,-0.09067,-0.048922,0.053202,0.21299,-0.33887,0.33863,-0.051068,-1.0124,0.64296,0.7096,-1.474,-1.4216,-0.022015,-0.24454,0.098306,0.2214,0.19059,-0.062829,0.15287,0.00043908,-0.68177,-0.32828,0.47246
-0.032603,-0.083559,-0.046002,0.05302,0.22512,-0.41984,0.49413,-0.03643,-0.88897,0.55915,0.62062,-1.34,-1.5497,0.0090833,-0.35798,0.18517,0.23773,0.19339,-0.041107,0.23288,-0.0066757,-0.58259,-0.36157,0.51244
-0.033769,-0.070147,-0.033477,0.058912,0.22365,-0.48708,0.66303,-0.038227,-0.74361,0.50974,0.52941,-1.0293,-1.5995,0.02738,-0.43561,0.27607,0.25221,0.19645,-0.077977,0.2714,-0.0065927,-0.49774,-0.3877,0.52946
-0.032282,-0.054682,-0.017351,0.064119,0.20778,-0.55082,0.81236,-0.076589,-0.58142,0.51913,0.47508,-0.61658,-1.5693,0.028377,-0.45594,0.37057,0.2598,0.20279,-0.17549,0.21244,-0.0059394,-0.43505,-0.40257,0.52192
-0.027566,-0.041343,-0.0081187,0.060534,0.17947,-0.6173,0.91913,-0.15367,-0.40963,0.58383,0.48468,-0.21183,-1.4964,0.022976,-0.41604,0.44237,0.25583,0.21124,-0.30562,0.059618,-0.0081149,-0.37741,-0.4027,0.49479
-0.01988,-0.032227,-0.016257,0.044545,0.14373,-0.68232,0.97696,-0.25737,-0.24107,0.67881,0.5527,0.074802,-1.4267,0.031664,-0.33438,0.45985,0.24102,0.21754,-0.42491,-0.11446,-0.012384,-0.30028,-0.38742,0.45479
-0.010687,-0.027261,-0.046789,0.0213,0.10695,-0.73138,0.99687,-0.37329,-0.090239,0.77753,0.64212,0.18026,-1.3827,0.072161,-0.24324,0.41475,0.22147,0.21782,-0.49604,-0.21092,-0.016526,-0.19304,-0.36043,0.40366
-0.0024769,-0.025539,-0.096549,0.0029099,0.074975,-0.74878,1.001,-0.49324,0.035478,0.86856,0.70633,0.12695,-1.3536,0.14765,-0.17399,0.33297,0.20327,0.21097,-0.5042,-0.17345,-0.020407,-0.067368,-0.3291,0.33522
0.0023232,-0.026571,-0.15562,0.00032886,0.052106,-0.7301,1.0108,-0.61397,0.14106,0.95558,0.71584,0.02098,-1.3112,0.24311,-0.14309,0.25654,0.18677,0.19818,-0.46026,-0.034595,-0.027336,0.051265,-0.30161,0.23957
0.0029289,-0.030319,-0.21137,0.014373,0.040852,-0.68802,1.0356,-0.72929,0.23983,1.0431,0.67156,-0.0032085,-1.2344,0.33304,-0.14617,0.21147,0.16598,0.18027,-0.39064,0.096274,-0.042113,0.13921,-0.28334,0.11214
0.0010773,-0.036175,-0.25241,0.033259,0.041819,-0.64596,1.0689,-0.8249,0.34261,1.1229,0.59807,0.13503,-1.1241,0.39633,-0.16367,0.18942,0.13398,0.15587,-0.32185,0.0981,-0.067402,0.18449,-0.27453,-0.038802
0.00020885,-0.04206,-0.27102,0.039851,0.053707,-0.62386,1.0947,-0.8825,0.44867,1.1751,0.52364,0.40825,-0.99768,0.42835,-0.17398,0.15929,0.089517,0.12229,-0.26922,-0.087936,-0.10122,0.18685,-0.27069,-0.19199
0.0032067,-0.044722,-0.26446,0.024069,0.073918,-0.62717,1.0998,-0.89134,0.54551,1.1827,0.4605,0.69546,-0.87473,0.44143,-0.16559,0.098914,0.03883,0.078399,-0.23474,-0.42565,-0.13727,0.15327,-0.26527,-0.32046
0.010285,-0.04126,-0.2357,-0.0089292,0.10001,-0.64688,1.0827,-0.85765,0.61709,1.1463,0.39661,0.85743,-0.76547,0.45278,-0.14091,0.0192,-0.0085357,0.026926,-0.21225,-0.81005,-0.16767,0.096001,-0.25313,-0.40131
0.01875,-0.030844,-0.19304,-0.041665,0.13128,-0.66907,1.0522,-0.80371,0.65369,1.0844,0.30318,0.81956,-0.67026,0.46853,-0.11039,-0.040026,-0.046062,-0.025865,-0.19376,-1.1273,-0.18615,0.033916,-0.23315,-0.42212
0.024964,-0.015324,-0.14745,-0.056701,0.16916,-0.68502,1.0173,-0.75593,0.65679,1.0191,0.15432,0.60537,-0.58505,0.47548,-0.082422,-0.039462,-0.073161,-0.072851,-0.17228,-1.3051,-0.18988,-0.0075851,-0.20841,-0.3825
0.027035,0.0017485,-0.10808,-0.049111,0.21573,-0.69402,0.97737,-0.73044,0.63703,0.96052,-0.051385,0.30516,-0.50576,0.44673,-0.057111,0.028785,-0.092753,-0.10893,-0.14064,-1.3277,-0.17937,-0.0026181,-0.18396,-0.29264
0.026069,0.016993,-0.07844,-0.029356,0.27107,-0.69922,0.92051,-0.72669,0.60861,0.90235,-0.28124,0.012987,-0.42938,0.35707,-0.028343,0.13267,-0.10656,-0.13217,-0.089609,-1.2221,-0.15739,0.064713,-0.1635,-0.17158
0.025045,0.028617,-0.056228,-0.01444,0.33129,-0.70329,0.83223,-0.73255,0.5842,0.83195,-0.48019,-0.21752,-0.35504,0.1981,0.0082057,0.21921,-0.11289,-0.14309,-0.0084857,-1.0395,-0.1279,0.19189,-0.14716,-0.044468
0.026343,0.036439,-0.037116,-0.014513,0.38908,-0.70912,0.70634,-0.73536,0.57203,0.74432,-0.60039,-0.3743,-0.28729,-0.015925,0.048085,0.24574,-0.109,-0.14351,0.11053,-0.84459,-0.095444,0.35794,-0.13207,0.062802
0.030057,0.040772,-0.019546,-0.025498,0.4371,-0.72414,0.54882,-0.7289,0.57456,0.64722,-0.63048,-0.46144,-0.2377,-0.2535,0.078277,0.20165,-0.095429,-0.13604,0.26654,-0.70678,-0.06442,0.53316,-0.11527,0.13189
0.034315,0.041357,-0.0064288,-0.033139,0.47207,-0.76126,0.37159,-0.71158,0.58814,0.55435,-0.60283,-0.48188,-0.21956,-0.47788,0.084929,0.10892,-0.078059,-0.12415,0.4466,-0.68215,-0.037825,0.69381,-0.09642,0.15891
0.036987,0.037442,-0.0023962,-0.024672,0.49682,-0.83245,0.18253,-0.67964,0.60428,0.47413,-0.57082,-0.44538,-0.23649,-0.65876,0.062863,0.0052058,-0.065372,-0.11178,0.62801,-0.79066,-0.015993,0.83365,-0.077462,0.15482
0.037082,0.028984,-0.0091396,0.001386,0.51851,-0.93874,-0.018473,-0.6238,0.61332,0.40489,-0.57082,-0.38723,-0.2742,-0.77828,0.019486,-0.077331,-0.063119,-0.10219,0.78567,-1.0062,0.0034686,0.96474,-0.059406,0.1382
0.034832,0.017844,-0.023028,0.034655,0.54417,-1.0656,-0.23356,-0.53392,0.60939,0.33918,-0.59693,-0.3692,-0.30501,-0.82988,-0.029999,-0.12561,-0.070806,-0.096761,0.90055,-1.2722,0.023933,1.1059,-0.039113,0.12508
0.030975,0.0076791,-0.036988,0.061286,0.57687,-1.1887,-0.45667,-0.40718,0.59359,0.27143,-0.6072,-0.45092,-0.30398,-0.81305,-0.072432,-0.1466,-0.082939,-0.095021,0.96409,-1.5327,0.04719,1.2647,-0.0096942,0.12309
0.026427,0.0022745,-0.044833,0.074329,0.61527,-1.2872,-0.66906,-0.25137,0.57289,0.20072,-0.55589,-0.64917,-0.26375,-0.72998,-0.10395,-0.15779,-0.093734,-0.095888,0.97725,-1.7552,0.072219,1.425,0.034821,0.13275
0.022656,0.0034062,-0.044361,0.078279,0.65656,-1.3519,-0.84589,-0.078983,0.55539,0.12729,-0.42648,-0.91611,-0.19442,-0.58857,-0.12921,-0.17345,-0.10095,-0.098924,0.94723,-1.9278,0.096588,1.5501,0.093865,0.15217
0.021827,0.0098057,-0.0371,0.084848,0.70001,-1.3845,-0.96867,0.1029,0.54517,0.048495,-0.24178,-1.1545,-0.10803,-0.40973,-0.15363,-0.19463,-0.10552,-0.10411,0.88674,-2.0416,0.11934,1.602,0.15837,0.1787
0.025759,0.018014,-0.025755,0.10347,0.74759,-1.3873,-1.0336,0.29705,0.54049,-0.039769,-0.047256,-1.2605,-0.002264,-0.22952,-0.17515,-0.20873,-0.10774,-0.11001,0.8159,-2.0805,0.14239,1.5656,0.21437,0.20587
0.034168,0.024492,-0.012088,0.13326,0.80125,-1.3565,-1.0503,0.50964,0.53585,-0.13675,0.11547,-1.1702,0.14013,-0.086694,-0.18249,-0.1994,-0.10416,-0.11198,0.76206,-2.0351,0.16833,1.4606,0.2496,0.21995
0.043923,0.027503,0.0031455,0.16181,0.85925,-1.2835,-1.034,0.73782,0.52578,-0.23258,0.22466,-0.88557,0.33382,0.0023119,-0.16129,-0.16021,-0.088671,-0.10242,0.75227,-1.9258,0.19581,1.3324,0.25844,0.20307
0.050582,0.027578,0.018887,0.17173,0.91518,-1.1652,-1.0006,0.96222,0.50737,-0.31181,0.27704,-0.47598,0.57073,0.063642,-0.10374,-0.10183,-0.057153,-0.074176,0.79986,-1.8101,0.21659,1.2257,0.2423,0.14335
0.051415,0.026509,0.032966,0.1512,0.96051,-1.0114,-0.96717,1.1512,0.48067,-0.36273,0.27835,-0.056991,0.81669,0.16072,-0.0146,-0.046092,-0.011577,-0.025443,0.89402,-1.7564,0.21817,1.1588,0.20639,0.044896
0.047436,0.025758,0.042789,0.10251,0.98883,-0.84334,-0.95305,1.2735,0.44798,-0.38426,0.23869,0.24623,1.0301,0.35819,0.090142,-0.010329,0.040236,0.036865,1.002,-1.7999,0.19147,1.1164,0.15642,-0.071769
0.042545,0.025375,0.046808,0.043015,0.99813,-0.68409,-0.97258,1.3107,0.4135,-0.38411,0.1757,0.34234,1.1879,0.67532,0.19026,0.0062523,0.088886,0.098428,1.0847,-1.9122,0.1386,1.0641,0.09771,-0.18063
0.040313,0.023983,0.045371,-0.0029324,0.99005,-0.54978,-1.0204,1.261,0.38274,-0.37023,0.11684,0.20897,1.2952,1.062,0.26886,0.02279,0.12785,0.14372,1.1155,-2.0078,0.074538,0.97478,0.036498,-0.26451
0.041077,0.019707,0.040284,-0.017607,0.96756,-0.44674,-1.0608,1.1361,0.36079,-0.34426,0.091774,-0.10033,1.3705,1.4172,0.31621,0.062439,0.15455,0.16384,1.0891,-1.983,0.020444,0.84735,-0.019,-0.32113
0.041767,0.011426,0.033604,-0.00095474,0.93357,-0.37453,-1.0356,0.95594,0.34938,-0.30304,0.1168,-0.48687,1.4171,1.6389,0.32899,0.1341,0.16832,0.1608,1.0165,-1.7615,-0.0072712,0.70527,-0.059996,-0.35651
0.038565,-0.0003032,0.026665,0.028554,0.89135,-0.32898,-0.89395,0.74393,0.34476,-0.24593,0.18394,-0.86029,1.4084,1.6729,0.30744,0.22414,0.16839,0.14501,0.91106,-1.3223,-0.0049431,0.57678,-0.080634,-0.37262
0.03009,-0.01316,0.01983,0.045095,0.84514,-0.30224,-0.62534,0.52134,0.33865,-0.17931,0.26592,-1.1795,1.3031,1.5314,0.25304,0.30389,0.15455,0.1274,0.78014,-0.70487,0.018328,0.47282,-0.080995,-0.36147
0.018543,-0.023925,0.012862,0.032118,0.79918,-0.28229,-0.27336,0.29936,0.32244,-0.11263,0.33497,-1.4514,1.0807,1.2791,0.16801,0.34598,0.12936,0.11179,0.62768,-0.00028627,0.047651,0.37965,-0.066787,-0.31198
0.0081018,-0.029951,0.0055769,-0.0068309,0.75583,-0.25639,0.085454,0.073923,0.29156,-0.049795,0.38077,-1.6917,0.76946,1.0032,0.056477,0.33646,0.098597,0.09328,0.46312,0.66849,0.070664,0.27174,-0.045222,-0.22405
0.0021044,-0.030552,-0.001465,-0.050921,0.71463,-0.21863,0.38552,-0.16989,0.24678,0.014442,0.41287,-1.8838,0.43988,0.78875,-0.073422,0.27529,0.068158,0.063747,0.30486,1.182,0.081752,0.13465,-0.019773,-0.11739
0.0012417,-0.027495,-0.0064647,-0.076429,0.67398,-0.17533,0.60853,-0.44226,0.19198,0.087756,0.44708,-1.976,0.16611,0.70049,-0.20769,0.16968,0.039897,0.019882,0.17134,1.4771,0.081015,-0.020727,0.012067,-0.026087
0.0038263,-0.024209,-0.0066385,-0.071944,0.63349,-0.14204,0.78533,-0.73197,0.13101,0.1681,0.48951,-1.9218,-0.017377,0.76469,-0.32655,0.031166,0.010561,-0.03287,0.065379,1.5939,0.070973,-0.16407,0.05582,0.018403
0.0074502,-0.023947,0.00033239,-0.043247,0.59415,-0.13193,0.96148,-1.0035,0.066908,0.23813,0.53338,-1.7281,-0.12976,0.949,-0.40869,-0.11856,-0.02442,-0.083738,-0.034666,1.6775,0.054602,-0.26719,0.1138,0.0036251
0.010547,-0.027883,0.014083,-0.0053143,0.55566,-0.14376,1.1531,-1.214,0.0035875,0.27354,0.57063,-1.4638,-0.21805,1.1567,-0.43989,-0.24066,-0.065509,-0.12449,-0.16648,1.908,0.035474,-0.32441,0.18047,-0.060012
0.012879,-0.034326,0.030181,0.030854,0.51433,-0.1591,1.3282,-1.3391,-0.052702,0.2601,0.60501,-1.2184,-0.31355,1.2547,-0.42185,-0.28511,-0.10737,-0.15531,-0.36145,2.3898,0.017964,-0.35602,0.2433,-0.15028
0.014991,-0.039736,0.04133,0.065381,0.46536,-0.15244,1.4301,-1.3876,-0.095158,0.20545,0.651,-1.0398,-0.40697,1.135,-0.37453,-0.21512,-0.14315,-0.18418,-0.62395,3.0713,0.0055559,-0.39321,0.28848,-0.24984
0.017272,-0.04111,0.041252,0.10549,0.40879,-0.108,1.424,-1.3925,-0.12073,0.13486,0.71679,-0.90341,-0.46175,0.77701,-0.32699,-0.037055,-0.17127,-0.22087,-0.92811,3.7645,-0.001966,-0.45618,0.30719,-0.35505
0.019237,-0.038281,0.028849,0.15502,0.35282,-0.031992,1.3309,-1.385,-0.133,0.073917,0.78635,-0.73671,-0.45267,0.26784,-0.30027,0.189,-0.19836,-0.27051,-1.2345,4.2605,-0.0094016,-0.54142,0.29778,-0.46925
0.01941,-0.034444,0.0093021,0.20714,0.30881,0.048525,1.2182,-1.3725,-0.14017,0.032357,0.81934,-0.47429,-0.3952,-0.24138,-0.29329,0.37367,-0.23495,-0.33141,-1.5134,4.4607,-0.022925,-0.62493,0.26365,-0.58559
0.015926,-0.034282,-0.0092492,0.24654,0.27995,0.10016,1.1524,-1.3382,-0.14907,0.0023205,0.77343,-0.097219,-0.33972,-0.6207,-0.28321,0.44762,-0.28674,-0.39725,-1.7546,4.4236,-0.044294,-0.67671,0.20999,-0.6737
0.007761,-0.040717,-0.021092,0.2584,0.25393,0.10259,1.1512,-1.2586,-0.16021,-0.028419,0.6336,0.37128,-0.33402,-0.83395,-0.24191,0.40285,-0.34852,-0.46034,-1.9583,4.2938,-0.067149,-0.67595,0.14306,-0.68415
-0.0040088,-0.052533,-0.02602,0.23647,0.20912,0.061245,1.1735,-1.1249,-0.16835,-0.061051,0.42542,0.89859,-0.3846,-0.95173,-0.15756,0.29414,-0.40564,-0.51323,-2.1134,4.1743,-0.07941,-0.61896,0.071639,-0.57258
-0.015868,-0.064679,-0.027565,0.18415,0.13244,0.0052088,1.1568,-0.94886,-0.16821,-0.082654,0.20042,1.4653,-0.44837,-1.0973,-0.045356,0.19767,-0.44202,-0.54859,-2.1874,4.0521,-0.071305,-0.51914,0.0070949,-0.33081
-0.023129,-0.071261,-0.028226,0.10957,0.034434,-0.029094,1.071,-0.7544,-0.16032,-0.078665,0.0041285,2.0551,-0.46265,-1.3626,0.061237,0.15696,-0.44868,-0.55979,-2.1374,3.834,-0.043577,-0.40165,-0.040186,-0.0041438
-0.022453,-0.069229,-0.026384,0.020978,-0.053406,-0.019302,0.94701,-0.56451,-0.15154,-0.049822,-0.14965,2.6286,-0.39116,-1.7471,0.13205,0.15727,-0.42667,-0.54328,-1.9388,3.4554,-0.0093731,-0.29589,-0.066321,0.31966
-0.014139,-0.060173,-0.017981,-0.072865,-0.10036,0.02924,0.85396,-0.39675,-0.14995,-0.018025,-0.27969,3.1132,-0.2512,-2.1555,0.15857,0.14707,-0.38333,-0.50093,-1.61,2.9615,0.012553,-0.22709,-0.076232,0.54718
-0.0024406,-0.049065,-0.001398,-0.15898,-0.10092,0.086689,0.8465,-0.26652,-0.15903,-0.014821,-0.4146,3.4289,-0.101,-2.4506,0.15594,0.087015,-0.3259,-0.43989,-1.2145,2.491,0.009212,-0.20844,-0.079508,0.62224
0.0066544,-0.041065,0.019345,-0.21938,-0.081398,0.11762,0.92385,-0.18808,-0.17629,-0.061026,-0.56494,3.5269,0.0030335,-2.526,0.14912,-0.014707,-0.25811,-0.36901,-0.83646,2.1786,-0.018509,-0.23686,-0.082261,0.55034
0.0089475,-0.038803,0.036487,-0.23777,-0.081997,0.10374,1.0333,-0.16635,-0.19753,-0.15331,-0.71126,3.4083,0.046578,-2.3576,0.15507,-0.10893,-0.18209,-0.29509,-0.5443,2.062,-0.056663,-0.29517,-0.08152,0.39088
0.0045114,-0.041834,0.044081,-0.21047,-0.12837,0.054786,1.1126,-0.18505,-0.22193,-0.26754,-0.81557,3.1078,0.063895,-2.0089,0.17437,-0.14628,-0.10301,-0.22213,-0.36299,2.0635,-0.087231,-0.36081,-0.067227,0.2235
-0.0026521,-0.04801,0.042177,-0.15268,-0.21567,-0.00085808,1.1347,-0.20472,-0.25258,-0.37495,-0.84591,2.6627,0.10581,-1.5912,0.19625,-0.11648,-0.031469,-0.15413,-0.27017,2.0521,-0.09877,-0.41671,-0.030684,0.1096
-0.0075854,-0.055153,0.035868,-0.092377,-0.31684,-0.039499,1.12,-0.17809,-0.29155,-0.45822,-0.79505,2.1022,0.1949,-1.2057,0.21028,-0.053714,0.019603,-0.097616,-0.2157,1.9245,-0.091538,-0.45782,0.027268,0.070402
-0.0078634,-0.061671,0.030268,-0.053988,-0.40594,-0.061982,1.1093,-0.074319,-0.33421,-0.51631,-0.68077,1.4665,0.3044,-0.90039,0.21439,-0.0059043,0.042145,-0.05986,-0.15151,1.6471,-0.074528,-0.48886,0.094946,0.089635
-0.0050703,-0.066287,0.026295,-0.043154,-0.4755,-0.093924,1.1239,0.10568,-0.36888,-0.55744,-0.52969,0.83019,0.37902,-0.66407,0.21434,0.0041952,0.038918,-0.043113,-0.054665,1.2437,-0.057882,-0.5148,0.15648,0.13294
-0.0032213,-0.0679,0.021081,-0.044591,-0.53463,-0.16487,1.1462,0.33388,-0.38332,-0.5878,-0.35905,0.29549,0.38174,-0.45726,0.21716,-0.0064366,0.023289,-0.039936,0.067624,0.76267,-0.046835,-0.53045,0.2012,0.16825
-0.0053698,-0.066198,0.012224,-0.035498,-0.59329,-0.28187,1.1317,0.57449,-0.3733,-0.60477,-0.17135,-0.054089,0.32931,-0.25372,0.22516,-0.0005737,0.012237,-0.035169,0.19025,0.25642,-0.041086,-0.51782,0.22862,0.17615
-0.011011,-0.062324,0.0013266,-0.0042454,-0.64979,-0.41845,1.0415,0.80173,-0.34606,-0.59772,0.034537,-0.2059,0.28682,-0.060913,0.23466,0.04494,0.017122,-0.014715,0.28946,-0.22002,-0.038601,-0.45462,0.24557,0.14931
-0.016291,-0.058486,-0.0068542,0.040494,-0.6935,-0.52878,0.86614,1.0042,-0.31561,-0.55464,0.24609,-0.23119,0.32427,0.095805,0.23922,0.11951,0.03853,0.025069,0.35649,-0.61206,-0.039496,-0.32981,0.25856,0.088276
-0.016901,-0.056401,-0.0089207,0.07726,-0.71794,-0.57754,0.62984,1.177,-0.2935,-0.47093,0.43019,-0.24115,0.46763,0.20958,0.23398,0.18804,0.068325,0.074869,0.39889,-0.88277,-0.046325,-0.15577,0.26737,7.6065e-005
-0.011453,-0.055863,-0.0065873,0.089219,-0.7297,-0.56366,0.37469,1.3133,-0.28212,-0.35678,0.54612,-0.31608,0.68089,0.31409,0.21841,0.21817,0.096562,0.11895,0.43201,-1.0329,-0.060793,0.032426,0.26512,-0.099496
-0.0027619,-0.055,-0.0058443,0.076757,-0.7428,-0.52099,0.14172,1.4006,-0.27526,-0.23985,0.57182,-0.46093,0.89115,0.46648,0.19651,0.20141,0.11754,0.14546,0.46787,-1.0999,-0.080253,0.19165,0.24418,-0.18473
0.0039626,-0.052253,-0.01195,0.055289,-0.76385,-0.496,-0.040985,1.4246,-0.26426,-0.15946,0.52442,-0.62021,1.0361,0.70083,0.17473,0.1526,0.13076,0.15241,0.50759,-1.1299,-0.097602,0.29091,0.20306,-0.2253
0.0046421,-0.048321,-0.024547,0.041268,-0.78273,-0.51876,-0.16091,1.3732,-0.24403,-0.1521,0.45737,-0.73605,1.0983,0.99068,0.15893,0.092743,0.13739,0.14563,0.53976,-1.1421,-0.10523,0.32441,0.14884,-0.19847
-0.0010716,-0.046029,-0.037197,0.039,-0.77914,-0.58669,-0.21921,1.2413,-0.21455,-0.23396,0.43257,-0.79921,1.1029,1.2566,0.15159,0.033537,0.1365,0.1321,0.54475,-1.1178,-0.10017,0.31049,0.093246,-0.10249
-0.0099603,-0.047938,-0.041816,0.038982,-0.74047,-0.6699,-0.22794,1.0371,-0.17824,-0.39106,0.48473,-0.85135,1.0868,1.4186,0.15088,-0.022589,0.12517,0.1153,0.50468,-1.0233,-0.086439,0.27894,0.045651,0.037768
-0.017786,-0.053732,-0.034339,0.027652,-0.67524,-0.7317,-0.20619,0.78832,-0.13722,-0.58461,0.6021,-0.94015,1.0651,1.4555,0.15244,-0.069728,0.10233,0.09629,0.41655,-0.8443,-0.072667,0.25614,0.0082458,0.1788
-0.022072,-0.059916,-0.017068,-0.0009851,-0.60925,-0.74963,-0.17395,0.54223,-0.093754,-0.76879,0.73633,-1.0692,1.022,1.4233,0.15268,-0.088619,0.072564,0.077867,0.30167,-0.60341,-0.06685,0.25592,-0.023353,0.27811
-0.023056,-0.062362,0.0038909,-0.041433,-0.56612,-0.72447,-0.14497,0.34993,-0.052503,-0.90905,0.83317,-1.1871,0.92953,1.4171,0.15132,-0.052656,0.045931,0.066214,0.20185,-0.3445,-0.072066,0.27791,-0.055409,0.31523
-0.022502,-0.0596,0.023503,-0.081845,-0.54772,-0.67465,-0.12274,0.24075,-0.020827,-0.9891,0.86187,-1.2261,0.777,1.5033,0.15099,0.052303,0.032838,0.067573,0.15935,-0.1039,-0.086155,0.31006,-0.091467,0.30126
-0.021819,-0.053928,0.040682,-0.1118,-0.53095,-0.62201,-0.10323,0.20304,-0.0048955,-1.0055,0.82429,-1.1559,0.585,1.6715,0.15436,0.2102,0.037501,0.082779,0.18998,0.10412,-0.10515,0.33194,-0.13114,0.26994
-0.021194,-0.049327,0.05695,-0.12587,-0.48441,-0.57859,-0.082877,0.18935,-0.0043281,-0.95942,0.74257,-1.0081,0.39401,1.8395,0.16114,0.37505,0.054627,0.10504,0.2687,0.27606,-0.1274,0.31903,-0.17209,0.25543
-0.020166,-0.048006,0.072634,-0.12227,-0.39272,-0.54136,-0.066004,0.14717,-0.010639,-0.85718,0.6399,-0.8531,0.23697,1.906,0.16752,0.49166,0.071889,0.12331,0.34105,0.39764,-0.15498,0.24942,-0.21227,0.27149
-0.018645,-0.048617,0.084627,-0.10088,-0.26992,-0.4963,-0.065451,0.055386,-0.011956,-0.71784,0.5309,-0.74906,0.11801,1.8118,0.16813,0.52322,0.076671,0.12853,0.35551,0.43799,-0.19146,0.11222,-0.25021,0.30637
-0.017155,-0.047639,0.088233,-0.064439,-0.15177,-0.42849,-0.095175,-0.061052,-0.00052195,-0.57748,0.42591,-0.70652,0.013641,1.569,0.15859,0.46774,0.062835,0.11787,0.29433,0.36858,-0.2376,-0.086256,-0.28357,0.3364
-0.016155,-0.042581,0.081682,-0.021153,-0.073104,-0.33262,-0.16026,-0.14999,0.023585,-0.47813,0.33927,-0.69235,-0.10465,1.2425,0.13656,0.35419,0.033457,0.09466,0.1809,0.19029,-0.28833,-0.32291,-0.30837,0.34692
-0.015339,-0.034193,0.069115,0.016209,-0.047488,-0.21823,-0.25219,-0.16994,0.055671,-0.44468,0.28919,-0.66408,-0.24429,0.89973,0.10133,0.22397,-0.0015487,0.065686,0.060279,-0.05778,-0.33317,-0.56469,-0.32037,0.34303
-0.013826,-0.025913,0.058835,0.036501,-0.063438,-0.10719,-0.35341,-0.11737,0.092866,-0.46738,0.28635,-0.60212,-0.3819,0.56617,0.053584,0.11133,-0.030784,0.03889,-0.029378,-0.31846,-0.36025,-0.77708,-0.31761,0.34147
-0.011122,-0.021229,0.057741,0.037509,-0.097901,-0.023949,-0.44785,-0.022923,0.13674,-0.50689,0.32149,-0.51491,-0.47788,0.21504,-0.0034908,0.033395,-0.046148,0.022384,-0.07243,-0.5507,-0.36163,-0.9294,-0.30191,0.35062
-0.0078458,-0.02122,0.066361,0.027577,-0.13439,0.01655,-0.52961,0.077544,0.18902,-0.52132,0.36506,-0.41836,-0.50452,-0.20298,-0.062666,-0.0089571,-0.044683,0.023142,-0.071075,-0.75077,-0.33704,-0.99697,-0.27788,0.35689
-0.0054261,-0.024086,0.078644,0.019085,-0.17105,0.01707,-0.60369,0.17108,0.24502,-0.49511,0.38267,-0.31263,-0.46675,-0.71135,-0.11345,-0.024853,-0.027552,0.0442,-0.032043,-0.94453,-0.29366,-0.96503,-0.25055,0.33067
-0.0049971,-0.026633,0.086782,0.018829,-0.21394,-0.0027656,-0.67967,0.27093,0.29247,-0.44662,0.35611,-0.17778,-0.40023,-1.2733,-0.14637,-0.027487,0.0020326,0.081996,0.038891,-1.1582,-0.24176,-0.83768,-0.22388,0.2489
-0.0064986,-0.026298,0.087099,0.023535,-0.26399,-0.01668,-0.76423,0.39373,0.31872,-0.40896,0.29425,0.0089732,-0.34824,-1.7944,-0.1588,-0.030253,0.040228,0.12712,0.13056,-1.3905,-0.1889,-0.6468,-0.20129,0.11607
-0.0087542,-0.022301,0.082293,0.024311,-0.3109,-0.0059559,-0.85801,0.53207,0.32061,-0.40156,0.22616,0.24985,-0.33535,-2.1595,-0.15751,-0.044124,0.08299,0.16951,0.2194,-1.6052,-0.13656,-0.44994,-0.18702,-0.033657
-0.01035,-0.01554,0.078529,0.015735,-0.34008,0.030748,-0.95707,0.64734,0.30774,-0.41662,0.18273,0.51521,-0.35703,-2.2823,-0.15509,-0.075668,0.12626,0.20457,0.27432,-1.7474,-0.081834,-0.30937,-0.18626,-0.15565
-0.01046,-0.0077223,0.080143,0.0011372,-0.34607,0.078145,-1.0548,0.69011,0.29559,-0.42969,0.18153,0.75106,-0.39119,-2.1399,-0.16152,-0.126,0.16646,0.23495,0.27315,-1.7723,-0.02318,-0.2596,-0.20309,-0.22074
-0.0090094,-0.00041706,0.086445,-0.010584,-0.3398,0.11501,-1.1408,0.63184,0.29416,-0.42206,0.22466,0.89838,-0.41934,-1.7788,-0.17718,-0.19075,0.20111,0.26578,0.21655,-1.6686,0.034472,-0.28384,-0.23713,-0.22881
-0.0063248,0.0056163,0.092872,-0.013297,-0.34197,0.12741,-1.1986,0.48348,0.30184,-0.39358,0.30618,0.91265,-0.43781,-1.2949,-0.1928,-0.26042,0.22878,0.29735,0.12682,-1.4665,0.080067,-0.31961,-0.28135,-0.20257
-0.0028529,0.010642,0.094964,-0.0091402,-0.36739,0.11537,-1.2065,0.28797,0.30913,-0.35676,0.41778,0.77691,-0.44934,-0.79979,-0.19688,-0.32133,0.24836,0.32222,0.032661,-1.225,0.10303,-0.29534,-0.32269,-0.1701
0.00080883,0.015565,0.091567,-0.0061494,-0.41331,0.089305,-1.1448,0.094891,0.30756,-0.3218,0.54536,0.50859,-0.4444,-0.3875,-0.1847,-0.35909,0.25855,0.33002,-0.046232,-1.0046,0.10163,-0.1762,-0.34597,-0.15089
0.0039304,0.021057,0.084909,-0.010525,-0.46122,0.060113,-1.0064,-0.06291,0.2955,-0.28948,0.6623,0.16072,-0.39236,-0.1107,-0.16157,-0.36564,0.25803,0.31608,-0.10313,-0.83872,0.086325,0.011721,-0.33932,-0.15343
0.0060939,0.026757,0.078153,-0.020937,-0.49061,0.031538,-0.80409,-0.17614,0.27658,-0.25781,0.73184,-0.18583,-0.25534,0.025428,-0.1376,-0.34688,0.2465,0.28615,-0.13822,-0.71926,0.074798,0.19641,-0.29936,-0.17965
0.0077662,0.031346,0.072951,-0.030061,-0.49312,0.00060902,-0.56769,-0.25033,0.25431,-0.23261,0.72444,-0.44477,-0.01713,0.048366,-0.119,-0.32379,0.22516,0.25227,-0.15356,-0.60851,0.081509,0.30408,-0.23358,-0.22687
0.010169,0.033624,0.06893,-0.03153,-0.4763,-0.035296,-0.33349,-0.29369,0.22942,-0.22757,0.63963,-0.55909,0.29608,-0.0093361,-0.10371,-0.32185,0.19635,0.22335,-0.15623,-0.47023,0.1092,0.30279,-0.15837,-0.2841
0.014088,0.033714,0.064975,-0.025568,-0.45514,-0.071633,-0.13118,-0.31231,0.20206,-0.2513,0.51302,-0.53222,0.62221,-0.13082,-0.085519,-0.35265,0.16277,0.19872,-0.16423,-0.29797,0.14825,0.21807,-0.092697,-0.32933
0.018526,0.033118,0.060706,-0.018099,-0.43928,-0.096359,0.023802,-0.31288,0.17538,-0.29406,0.39815,-0.43201,0.89468,-0.31079,-0.062548,-0.40093,0.12732,0.17081,-0.20325,-0.11693,0.18382,0.11471,-0.049374,-0.33654
0.020774,0.033397,0.056831,-0.014472,-0.42617,-0.096618,0.13014,-0.3055,0.15513,-0.32921,0.33376,-0.35529,1.0758,-0.5288,-0.041568,-0.42941,0.093661,0.13428,-0.29035,0.044111,0.2052,0.060895,-0.028088,-0.29253
0.018488,0.034716,0.054372,-0.013888,-0.40411,-0.067338,0.1957,-0.30095,0.14505,-0.33097,0.32129,-0.36785,1.1677,-0.72732,-0.033123,-0.40146,0.066188,0.092926,-0.4157,0.187,0.21077,0.098078,-0.014569,-0.21214
0.012305,0.035899,0.05372,-0.0097063,-0.36162,-0.015404,0.23195,-0.30397,0.14275,-0.29428,0.32998,-0.4585,1.1963,-0.8249,-0.040944,-0.30641,0.048174,0.057477,-0.53988,0.35132,0.20623,0.22969,0.012217,-0.13712
0.0064299,0.03612,0.054346,0.0046753,-0.29571,0.043381,0.25004,-0.30953,0.1409,-0.23913,0.32431,-0.54314,1.185,-0.76675,-0.05531,-0.16833,0.038744,0.035625,-0.61427,0.58169,0.19904,0.42692,0.067645,-0.11455
0.0059778,0.036496,0.055209,0.029588,-0.21416,0.092368,0.25814,-0.30651,0.13329,-0.19547,0.2898,-0.52154,1.1412,-0.57627,-0.057477,-0.030679,0.031383,0.023398,-0.61221,0.87893,0.19412,0.64246,0.15078,-0.1667
0.012844,0.039572,0.055399,0.057733,-0.13195,0.12201,0.25984,-0.2858,0.12016,-0.18125,0.23627,-0.34791,1.0632,-0.35889,-0.032864,0.071509,0.016338,0.0062211,-0.548,1.1773,0.19344,0.82571,0.24279,-0.27369
0.023674,0.046761,0.054501,0.078586,-0.064573,0.13311,0.25475,-0.24608,0.10785,-0.19161,0.17931,-0.062629,0.95367,-0.24276,0.017572,0.13109,-0.013725,-0.030249,-0.468,1.3722,0.19794,0.93803,0.31664,-0.38345
0.032115,0.056174,0.052511,0.084891,-0.021508,0.13391,0.24235,-0.19325,0.10287,-0.20614,0.11978,0.23903,0.82409,-0.29415,0.077794,0.16651,-0.058581,-0.08811,-0.41933,1.3808,0.20837,0.96584,0.3527,-0.44407
0.0338,0.06337,0.0494,0.076443,-0.0020275,0.13331,0.22718,-0.13541,0.10604,-0.20609,0.041573,0.47488,0.68431,-0.47254,0.12942,0.20256,-0.10975,-0.1539,-0.41859,1.1899,0.22353,0.92535,0.34975,-0.43657
0.029807,0.06489,0.044692,0.059099,0.0046288,0.13483,0.22073,-0.078383,0.11197,-0.18616,-0.071281,0.62503,0.53185,-0.66208,0.16653,0.25146,-0.15492,-0.20669,-0.44239,0.85583,0.23782,0.85254,0.32365,-0.38452
0.025441,0.061495,0.037506,0.040591,0.013808,0.13511,0.23654,-0.024457,0.11409,-0.1531,-0.21548,0.72497,0.35508,-0.75526,0.19989,0.30861,-0.18418,-0.23091,-0.4439,0.46167,0.24175,0.7807,0.29446,-0.33346
0.025261,0.057899,0.02733,0.026383,0.036386,0.12775,0.28038,0.027207,0.11042,-0.11514,-0.36573,0.81545,0.15067,-0.72209,0.24641,0.36305,-0.19369,-0.22424,-0.3814,0.071913,0.22668,0.71944,0.27193,-0.31623
0.028797,0.058855,0.015085,0.01778,0.07119,0.1091,0.34275,0.080739,0.105,-0.073455,-0.49071,0.89858,-0.061102,-0.61287,0.31199,0.41029,-0.18485,-0.19547,-0.23876,-0.28201,0.19094,0.65099,0.25052,-0.33032
0.03089,0.06488,0.0034822,0.012336,0.10473,0.081391,0.40067,0.14382,0.10405,-0.022812,-0.57249,0.93993,-0.23968,-0.49988,0.38195,0.45532,-0.16109,-0.15603,-0.02785,-0.5846,0.14248,0.54805,0.21721,-0.34369
0.026457,0.071415,-0.004142,0.0053751,0.11989,0.050639,0.42924,0.22525,0.11075,0.040314,-0.61276,0.9095,-0.34641,-0.41321,0.42742,0.50398,-0.12568,-0.11278,0.22253,-0.81784,0.095019,0.39943,0.16507,-0.32252
0.015415,0.072219,-0.0060902,-0.0083298,0.10828,0.021432,0.41539,0.32889,0.12295,0.10993,-0.62272,0.81704,-0.36883,-0.32477,0.42306,0.55164,-0.082021,-0.067139,0.47944,-0.96727,0.060061,0.22217,0.10094,-0.25783
0.0032733,0.064185,-0.0040107,-0.032958,0.07717,-0.0065284,0.36394,0.44763,0.13531,0.16978,-0.60898,0.70424,-0.32837,-0.1878,0.36212,0.58005,-0.035077,-0.019306,0.71293,-1.0463,0.040232,0.049397,0.041117,-0.17044
-0.0032021,0.049796,-0.0023808,-0.070193,0.045135,-0.037064,0.29154,0.56326,0.14315,0.20049,-0.57006,0.60117,-0.26714,0.0090546,0.25741,0.56549,0.0087538,0.027705,0.89868,-1.1066,0.029012,-0.095338,-0.00050523,-0.092606
-0.0014548,0.035577,-0.0057075,-0.11844,0.029307,-0.072815,0.21304,0.65399,0.14457,0.18999,-0.50595,0.49147,-0.22552,0.22206,0.12868,0.49279,0.043899,0.067949,1.0204,-1.211,0.016891,-0.21373,-0.021463,-0.043423
0.0050348,0.0281,-0.015333,-0.17334,0.033762,-0.11192,0.13053,0.7054,0.13975,0.14049,-0.4302,0.32358,-0.22583,0.3807,-0.011663,0.36605,0.068197,0.095924,1.0729,-1.3835,-0.00082957,-0.32336,-0.029591,-0.017788
0.0099492,0.030426,-0.028297,-0.22942,0.047849,-0.14939,0.032691,0.71726,0.12895,0.068031,-0.37117,0.060124,-0.26884,0.43487,-0.16183,0.21059,0.083353,0.10997,1.0628,-1.5777,-0.020474,-0.43147,-0.03385,0.0043244
0.0093146,0.040956,-0.039221,-0.28172,0.055072,-0.1818,-0.095481,0.70222,0.11169,-0.0057814,-0.35899,-0.28047,-0.33974,0.38069,-0.32058,0.066479,0.092844,0.11286,1.0029,-1.6968,-0.033132,-0.51755,-0.035891,0.038631
0.0041386,0.054677,-0.043867,-0.32626,0.044995,-0.2105,-0.2598,0.67897,0.087816,-0.064843,-0.4073,-0.62943,-0.41728,0.25015,-0.47424,-0.023395,0.099203,0.10941,0.9046,-1.6544,-0.031744,-0.54416,-0.029613,0.083867
-0.0013509,0.065685,-0.041716,-0.35922,0.0191,-0.23982,-0.44886,0.66549,0.059092,-0.10585,-0.50271,-0.91475,-0.48337,0.083936,-0.59474,-0.027853,0.10288,0.10321,0.77551,-1.4301,-0.016574,-0.4901,-0.0081835,0.12417
-0.0036478,0.069712,-0.035767,-0.37642,-0.012472,-0.27143,-0.63481,0.67554,0.029562,-0.13667,-0.60894,-1.1061,-0.53225,-0.083524,-0.65328,0.058322,0.10306,0.094606,0.62505,-1.0749,0.0049319,-0.37769,0.028576,0.14159
-0.0022617,0.06578,-0.029967,-0.37443,-0.038813,-0.29993,-0.78178,0.71654,0.0041686,-0.16651,-0.68205,-1.2189,-0.57553,-0.21836,-0.63972,0.20562,0.098812,0.08093,0.47344,-0.66582,0.023418,-0.26866,0.073185,0.12677
0.00132,0.056343,-0.026402,-0.35312,-0.05386,-0.31376,-0.85794,0.78611,-0.013243,-0.19493,-0.68789,-1.2794,-0.63745,-0.27928,-0.57148,0.3541,0.089264,0.058596,0.35256,-0.24954,0.033689,-0.22915,0.11625,0.080126
0.0061996,0.045781,-0.024369,-0.31758,-0.056784,-0.3014,-0.84722,0.86816,-0.021143,-0.20885,-0.61383,-1.2911,-0.73931,-0.22936,-0.48327,0.43501,0.07293,0.025846,0.29249,0.17671,0.037043,-0.29129,0.15333,0.0053088
0.013067,0.037963,-0.021742,-0.27685,-0.049688,-0.2584,-0.75705,0.93351,-0.020279,-0.19136,-0.47201,-1.2339,-0.88168,-0.066099,-0.4047,0.4038,0.047819,-0.015458,0.30027,0.63491,0.038607,-0.44047,0.18673,-0.096694
0.022569,0.034323,-0.017219,-0.23973,-0.036564,-0.19051,-0.61836,0.9487,-0.012943,-0.13696,-0.29471,-1.0925,-1.0385,0.15753,-0.34356,0.26699,0.013129,-0.060164,0.34738,1.1183,0.042467,-0.63373,0.22135,-0.22655
0.033052,0.033675,-0.011537,-0.21013,-0.024065,-0.11139,-0.47537,0.89021,-0.0022497,-0.061067,-0.12371,-0.87822,-1.1703,0.34784,-0.28774,0.083418,-0.028593,-0.10211,0.38022,1.5705,0.048786,-0.82835,0.2588,-0.37941
0.040546,0.033698,-0.006877,-0.1858,-0.021045,-0.036614,-0.36768,0.75556,0.0084512,0.0053924,0.0038551,-0.61829,-1.2496,0.4182,-0.22304,-0.066647,-0.070995,-0.13672,0.35192,1.9089,0.054849,-0.99551,0.29517,-0.53824
0.041534,0.032697,-0.0052639,-0.16182,-0.034581,0.022405,-0.31293,0.56385,0.016425,0.034864,0.068718,-0.32367,-1.2795,0.33533,-0.15081,-0.12868,-0.10623,-0.16202,0.25653,2.0713,0.058221,-1.1146,0.32397,-0.67471
0.036068,0.03021,-0.0074574,-0.13611,-0.064745,0.062003,-0.30061,0.34555,0.020743,0.02292,0.075568,0.026545,-1.2913,0.12791,-0.089883,-0.10717,-0.1288,-0.1776,0.14051,2.0448,0.05846,-1.1661,0.34075,-0.75907
0.028076,0.02631,-0.013008,-0.11247,-0.10353,0.086347,-0.30175,0.12903,0.023251,-0.0058898,0.047524,0.46209,-1.323,-0.14614,-0.061476,-0.06065,-0.13817,-0.18306,0.079381,1.8609,0.055744,-1.14,0.34515,-0.77418
0.022272,0.020722,-0.020927,-0.098121,-0.14067,0.10425,-0.28909,-0.068145,0.028476,-0.011465,0.010146,0.97797,-1.3926,-0.44038,-0.070269,-0.059803,-0.13847,-0.17807,0.13045,1.5691,0.048404,-1.0564,0.3389,-0.72541
0.020339,0.012913,-0.030004,-0.097154,-0.17259,0.12399,-0.25417,-0.24005,0.042002,0.037737,-0.026839,1.5125,-1.4869,-0.7301,-0.098161,-0.13722,-0.13558,-0.16424,0.29155,1.2181,0.032991,-0.97141,0.32245,-0.63957
0.019892,0.0030949,-0.038571,-0.10516,-0.20657,0.14828,-0.2102,-0.38831,0.06762,0.14628,-0.079004,1.9703,-1.5703,-0.98615,-0.11582,-0.26463,-0.13383,-0.14672,0.49427,0.85916,0.0081296,-0.95259,0.29412,-0.55205
0.017228,-0.0070165,-0.044488,-0.10958,-0.25547,0.17248,-0.17936,-0.51789,0.10417,0.29089,-0.1807,2.2731,-1.6064,-1.1466,-0.10232,-0.37392,-0.13459,-0.13303,0.63906,0.55414,-0.020868,-1.0326,0.25286,-0.48803
0.011322,-0.014658,-0.045983,-0.096496,-0.32664,0.18739,-0.17403,-0.63462,0.14343,0.43624,-0.36456,2.393,-1.5777,-1.127,-0.057255,-0.40594,-0.13682,-0.12916,0.65046,0.36573,-0.041584,-1.1774,0.2023,-0.44795
