-1.0129e-009,-4.0515e-011,2.0779e-009,1.4682e-009,-1.2135e-009,-5.267e-010,2.4329e-009,1.638e-009,-1.4084e-010,2.1473e-009,1.7943e-010,1.2135e-009,-5.9712e-009,-4.0882e-009,3.0271e-009,8.3153e-010,1.0399e-009,3.1081e-009,5.9442e-009,-9.3591e-009,-4.1094e-010,-4.4181e-010,1.4798e-009,9.6465e-012
-2.7943e-008,-6.6041e-010,5.7515e-008,4.0761e-008,-3.3083e-008,-1.3972e-008,6.6503e-008,4.497e-008,-3.4868e-009,5.9539e-008,5.1473e-009,3.3816e-008,-1.6458e-007,-1.1322e-007,8.3599e-008,2.3407e-008,2.8501e-008,8.536e-008,1.6299e-007,-2.6097e-007,-1.1317e-008,-1.239e-008,4.0733e-008,5.251e-010
-3.7502e-007,-2.7525e-009,7.7441e-007,5.4994e-007,-4.3827e-007,-1.7951e-007,8.8363e-007,6.001e-007,-4.1576e-008,8.0103e-007,7.2602e-008,4.5838e-007,-2.2045e-006,-1.5251e-006,1.1221e-006,3.21e-007,3.7969e-007,1.1391e-006,2.1712e-006,-3.5404e-006,-1.5182e-007,-1.6928e-007,5.4509e-007,1.1034e-008
-3.2621e-006,2.905e-008,6.7572e-006,4.8038e-006,-3.759e-006,-1.4871e-006,7.6034e-006,5.1855e-006,-3.1753e-007,6.9661e-006,6.696e-007,4.0265e-006,-1.9118e-005,-1.3312e-005,9.7517e-006,2.8583e-006,3.2757e-006,9.8408e-006,1.872e-005,-3.1136e-005,-1.3222e-006,-1.5014e-006,4.7244e-006,1.3617e-007
-2.0671e-005,5.1967e-007,4.2947e-005,3.0535e-005,-2.3461e-005,-8.9168e-006,4.7624e-005,3.2611e-005,-1.7411e-006,4.4006e-005,4.529e-006,2.5759e-005,-0.00012063,-8.464e-005,6.1662e-005,1.858e-005,2.0571e-005,6.1848e-005,0.0001174,-0.00019954,-8.4067e-006,-9.7169e-006,2.9809e-005,1.1614e-006
-0.00010168,4.2113e-006,0.00021183,0.00015048,-0.00011353,-4.1173e-005,0.00023137,0.00015903,-7.2689e-006,0.00021514,2.3881e-005,0.00012785,-0.00059001,-0.00041772,0.00030222,9.3977e-005,0.00010019,0.00030126,0.00057049,-0.00099303,-4.1601e-005,-4.89e-005,0.00014589,7.4538e-006
-0.00040383,2.3348e-005,0.00084353,0.00059807,-0.00044305,-0.00015196,0.00090698,0.00062551,-2.3842e-005,0.0008466,0.00010188,0.00051207,-0.0023264,-0.0016648,0.001194,0.00038495,0.00039372,0.0011829,0.0022343,-0.0039927,-0.0001668,-0.00019905,0.0005761,3.7913e-005
-0.0013298,9.8978e-005,0.0027844,0.0019684,-0.0014319,-0.0004588,0.0029462,0.0020376,-6.211e-005,0.0027533,0.00036018,0.0016988,-0.0075915,-0.0055035,0.0039035,0.001312,0.0012817,0.0038434,0.0072396,-0.013321,-0.0005569,-0.00067298,0.001885,0.00015825
-0.0036983,0.00033795,0.0077617,0.0054652,-0.0039033,-0.0011486,0.0080799,0.0055995,-0.00012646,0.0075373,0.0010723,0.0047539,-0.020876,-0.015376,0.010752,0.0037923,0.003521,0.010523,0.019764,-0.037584,-0.001579,-0.0019248,0.005206,0.00055568
-0.0087999,0.00095758,0.018511,0.012969,-0.0090924,-0.0023958,0.018957,0.013151,-0.00018509,0.017597,0.0027153,0.011362,-0.048985,-0.036802,0.025262,0.0094271,0.008269,0.024587,0.046035,-0.090891,-0.0038578,-0.0047168,0.012297,0.0016724
-0.018075,0.0022942,0.038117,0.026546,-0.018259,-0.0041396,0.038407,0.026634,-0.00011749,0.035351,0.005879,0.023387,-0.098876,-0.076192,0.051047,0.020357,0.01675,0.049433,0.092247,-0.19025,-0.0082117,-0.0099891,0.02507,0.0043771
-0.032222,0.0047031,0.068154,0.047139,-0.031785,-0.0057814,0.067598,0.046773,0.00033967,0.06147,0.010883,0.041637,-0.17239,-0.13735,0.089091,0.038451,0.029424,0.085914,0.15977,-0.34705,-0.015358,-0.018371,0.044371,0.010077
-0.04996,0.0083056,0.10611,0.072835,-0.048074,-0.0060581,0.10369,0.07141,0.001594,0.092804,0.017101,0.064157,-0.25959,-0.2165,0.13436,0.063795,0.044929,0.1292,0.23939,-0.55418,-0.025401,-0.029374,0.068378,0.0206
-0.067287,0.012669,0.1438,0.097935,-0.063141,-0.0034357,0.13867,0.094751,0.0040789,0.12175,0.022354,0.085222,-0.33583,-0.29904,0.17445,0.093101,0.059585,0.16755,0.30935,-0.77669,-0.037352,-0.040712,0.091767,0.037665
-0.078285,0.016669,0.16904,0.11431,-0.071772,0.0028968,0.16136,0.10892,0.00799,0.13871,0.02308,0.096597,-0.36822,-0.36227,0.19319,0.11929,0.068367,0.18577,0.34197,-0.95725,-0.049082,-0.048484,0.10698,0.061956
-0.077825,0.018845,0.1712,0.11531,-0.070248,0.011955,0.16275,0.10791,0.012968,0.13726,0.015848,0.09155,-0.33226,-0.38545,0.17956,0.13335,0.067444,0.17322,0.31861,-1.0411,-0.058003,-0.048717,0.10786,0.092051
-0.064923,0.01828,0.14807,0.10015,-0.05909,0.020798,0.14203,0.091893,0.017958,0.11895,-0.00017139,0.069781,-0.23017,-0.36263,0.13695,0.1282,0.056979,0.13214,0.24469,-1.0101,-0.062315,-0.039825,0.093723,0.12377
-0.044325,0.015608,0.10904,0.075601,-0.043536,0.025956,0.1087,0.068369,0.021497,0.093329,-0.02138,0.039553,-0.096515,-0.30894,0.085274,0.10263,0.041995,0.079373,0.15201,-0.90218,-0.062114,-0.02444,0.070922,0.15048
-0.024497,0.013342,0.070941,0.052571,-0.030626,0.025887,0.077959,0.048399,0.022505,0.07214,-0.040503,0.014211,0.017501,-0.25342,0.051297,0.062591,0.029965,0.038035,0.082405,-0.7957,-0.05952,-0.0088851,0.049751,0.16455
-0.012703,0.014928,0.048023,0.039522,-0.024455,0.022681,0.061484,0.039712,0.021185,0.061238,-0.050389,0.0042155,0.074249,-0.22083,0.051965,0.018419,0.026211,0.023205,0.06101,-0.76252,-0.05749,2.1496e-005,0.038354,0.15961
-0.010471,0.022702,0.043027,0.03727,-0.023232,0.021266,0.059799,0.041681,0.019366,0.056887,-0.048713,0.010036,0.073469,-0.21487,0.082475,-0.020372,0.030322,0.03195,0.078755,-0.82137,-0.057881,-0.0009893,0.037964,0.13264
-0.013003,0.03587,0.046372,0.03938,-0.020893,0.02613,0.062451,0.046322,0.019724,0.049975,-0.039964,0.021683,0.05044,-0.21618,0.11944,-0.049157,0.036476,0.046012,0.099397,-0.92799,-0.059981,-0.0096535,0.043321,0.084935
-0.013184,0.050036,0.044523,0.03782,-0.012432,0.037769,0.056317,0.044792,0.024153,0.034851,-0.032529,0.02596,0.048353,-0.19776,0.13784,-0.068301,0.037661,0.045782,0.087509,-1.0123,-0.060579,-0.01989,0.047914,0.021617
-0.0071083,0.059083,0.030942,0.029133,0.0013697,0.051748,0.035943,0.034189,0.03236,0.014911,-0.03261,0.016107,0.086136,-0.14623,0.12844,-0.079752,0.03057,0.024659,0.035745,-1.0334,-0.055684,-0.025955,0.049394,-0.049752
0.003359,0.058691,0.010616,0.016097,0.014074,0.061414,0.0077729,0.019095,0.041887,-0.00036783,-0.03969,-0.0039189,0.14743,-0.072174,0.10141,-0.083638,0.017362,-0.0076757,-0.030912,-1.0066,-0.043002,-0.025777,0.050344,-0.12015
0.012907,0.049369,-0.0053826,0.0041062,0.018831,0.062418,-0.015072,0.0068931,0.049689,-0.0043627,-0.047429,-0.023957,0.19854,-0.0015167,0.073468,-0.078222,0.0031985,-0.03505,-0.077221,-0.97946,-0.0237,-0.021028,0.053955,-0.17901
0.017691,0.036707,-0.010174,-0.0038253,0.014367,0.055609,-0.023183,0.0013509,0.054044,0.00012223,-0.049338,-0.036873,0.21847,0.044264,0.050803,-0.063247,-0.0079695,-0.048443,-0.087127,-0.97965,-0.0023663,-0.014502,0.059129,-0.21403
0.018383,0.028212,-0.0070034,-0.008783,0.0064184,0.046141,-0.017981,0.00017258,0.055149,0.0029638,-0.044276,-0.044358,0.21451,0.063023,0.023773,-0.043079,-0.015709,-0.05166,-0.075882,-0.98164,0.014987,-0.0077133,0.060113,-0.21295
0.018847,0.028501,-0.005863,-0.01346,0.0032106,0.039626,-0.01,-0.0017543,0.053915,-0.0043508,-0.036877,-0.054393,0.21128,0.071158,-0.021831,-0.025818,-0.021974,-0.055173,-0.075922,-0.92261,0.023933,-0.0010465,0.051291,-0.16857
0.022086,0.03619,-0.014335,-0.018666,0.0088598,0.03839,-0.01016,-0.0070686,0.050247,-0.021297,-0.032639,-0.073097,0.22559,0.090146,-0.087843,-0.018213,-0.028268,-0.06516,-0.11007,-0.75296,0.024028,0.0040941,0.03251,-0.084775
0.027492,0.044855,-0.031148,-0.022583,0.02042,0.040562,-0.021453,-0.013803,0.042678,-0.03923,-0.032425,-0.098566,0.25089,0.13248,-0.15748,-0.020512,-0.034044,-0.078264,-0.1749,-0.47654,0.019095,0.0039471,0.0096204,0.021133
0.03193,0.047608,-0.047966,-0.023274,0.030948,0.042304,-0.03767,-0.018126,0.029919,-0.049488,-0.031658,-0.12214,0.2651,0.19668,-0.20609,-0.026141,-0.037601,-0.086193,-0.24644,-0.1468,0.015013,-0.0061102,-0.010478,0.12359
0.033342,0.042031,-0.057225,-0.021493,0.035581,0.041095,-0.049606,-0.018798,0.01292,-0.050875,-0.025047,-0.13549,0.25264,0.27133,-0.21941,-0.027142,-0.038091,-0.08468,-0.3006,0.17376,0.016146,-0.02824,-0.025541,0.20009
0.033155,0.031891,-0.058669,-0.020715,0.035162,0.037513,-0.053055,-0.018721,-0.0046892,-0.049643,-0.012288,-0.13684,0.21973,0.34201,-0.20308,-0.020885,-0.0364,-0.077802,-0.3302,0.45256,0.022653,-0.060175,-0.038901,0.24161
0.035141,0.024444,-0.059004,-0.02432,0.034555,0.034436,-0.05193,-0.022133,-0.018455,-0.052602,0.00076752,-0.13113,0.18928,0.39611,-0.17587,-0.011985,-0.034177,-0.073934,-0.34592,0.69206,0.030485,-0.096728,-0.054786,0.25464
0.041895,0.025347,-0.065603,-0.0327,0.037762,0.034649,-0.054448,-0.0304,-0.02583,-0.060424,0.0067648,-0.1247,0.18155,0.42595,-0.15405,-0.0073825,-0.032296,-0.077865,-0.36317,0.90385,0.034182,-0.13359,-0.072749,0.2531
0.052313,0.034789,-0.080176,-0.042984,0.044566,0.03882,-0.066169,-0.040623,-0.027496,-0.067562,0.0031556,-0.12004,0.19841,0.43229,-0.14141,-0.008967,-0.030452,-0.086792,-0.38726,1.0827,0.030586,-0.16992,-0.086833,0.24668
0.0623,0.047351,-0.097687,-0.051399,0.05152,0.045194,-0.08578,-0.048334,-0.026286,-0.068366,-0.0054744,-0.115,0.22443,0.42644,-0.13261,-0.010892,-0.028116,-0.093582,-0.4083,1.2072,0.020934,-0.20723,-0.09047,0.23472
0.067823,0.055437,-0.11073,-0.055945,0.055737,0.050891,-0.10656,-0.05153,-0.024803,-0.063009,-0.011007,-0.10618,0.24131,0.42674,-0.12416,-0.0047776,-0.025523,-0.093615,-0.40794,1.2645,0.0099459,-0.24593,-0.082586,0.20991
0.067458,0.053877,-0.11513,-0.057189,0.057535,0.05355,-0.12152,-0.052161,-0.023774,-0.057418,-0.0080235,-0.092447,0.24134,0.44825,-0.12077,0.011377,-0.023511,-0.088578,-0.37156,1.2714,0.0026592,-0.28279,-0.069203,0.16766
0.062601,0.042848,-0.1123,-0.05704,0.059475,0.052159,-0.12771,-0.053842,-0.022287,-0.057605,0.0026137,-0.075378,0.22883,0.49184,-0.13092,0.028803,-0.022449,-0.084035,-0.29696,1.2695,0.0012549,-0.31203,-0.059054,0.11225
0.055891,0.027481,-0.10715,-0.057066,0.063104,0.04682,-0.12672,-0.058195,-0.019332,-0.064218,0.015368,-0.056909,0.21109,0.5421,-0.15688,0.032893,-0.021631,-0.08363,-0.19507,1.298,0.0039153,-0.3288,-0.057056,0.05476
0.049766,0.014576,-0.104,-0.057798,0.066854,0.038165,-0.12203,-0.063364,-0.01513,-0.07248,0.024845,-0.037424,0.19004,0.57766,-0.18999,0.014075,-0.020016,-0.085664,-0.083948,1.3702,0.0062037,-0.3313,-0.061158,0.0055836
0.046067,0.0084612,-0.10399,-0.059046,0.067278,0.027194,-0.11618,-0.06594,-0.011215,-0.077141,0.029569,-0.016306,0.16282,0.58656,-0.21627,-0.024196,-0.017585,-0.085095,0.018673,1.4733,0.0037765,-0.31946,-0.064805,-0.031411
0.046018,0.0085462,-0.10538,-0.060387,0.062459,0.015569,-0.11006,-0.064266,-0.0094097,-0.077295,0.032023,0.0059324,0.12917,0.5741,-0.2267,-0.066918,-0.015745,-0.078739,0.09992,1.5889,-0.0053712,-0.29175,-0.06255,-0.058373
0.049639,0.010044,-0.10581,-0.061266,0.05433,0.0055982,-0.10396,-0.059986,-0.010621,-0.076607,0.035646,0.026591,0.09641,0.55669,-0.22245,-0.097063,-0.016024,-0.068524,0.15253,1.7109,-0.020248,-0.24422,-0.054226,-0.078524
0.054958,0.0073961,-0.10421,-0.061047,0.047673,-0.00069969,-0.09885,-0.056531,-0.014321,-0.07938,0.041721,0.0422,0.075548,0.54729,-0.21065,-0.10537,-0.018115,-0.059667,0.17434,1.8437,-0.03767,-0.17406,-0.044896,-0.09244
0.058429,-0.0018744,-0.10111,-0.059446,0.046548,-0.0030584,-0.096163,-0.056162,-0.018965,-0.086853,0.048536,0.051133,0.071625,0.54528,-0.19588,-0.093382,-0.019269,-0.055503,0.16915,1.9848,-0.053587,-0.085132,-0.041213,-0.09899
0.057082,-0.015475,-0.097589,-0.057101,0.051128,-0.0036044,-0.096542,-0.058309,-0.023032,-0.09729,0.053093,0.05484,0.077417,0.53902,-0.1761,-0.069242,-0.015999,-0.05387,0.14805,2.1123,-0.064106,0.010059,-0.047055,-0.098972
0.050936,-0.027987,-0.094063,-0.0555,0.05751,-0.0056743,-0.098826,-0.060491,-0.026043,-0.10912,0.053657,0.056511,0.076967,0.51766,-0.1467,-0.04144,-0.0068998,-0.048614,0.12779,2.1935,-0.066109,0.095326,-0.061109,-0.096774
0.04332,-0.034704,-0.090197,-0.055893,0.060588,-0.011359,-0.10051,-0.060682,-0.028868,-0.12323,0.051135,0.0585,0.056481,0.48102,-0.10764,-0.015718,0.0058928,-0.035026,0.12395,2.2073,-0.057862,0.16002,-0.077459,-0.097811
0.038384,-0.03495,-0.085631,-0.05798,0.057675,-0.019749,-0.099426,-0.058841,-0.033019,-0.14168,0.048341,0.060948,0.013909,0.43886,-0.066073,0.0043542,0.018099,-0.01436,0.14198,2.1601,-0.039817,0.20552,-0.088587,-0.10433
0.037719,-0.032529,-0.080709,-0.059681,0.050156,-0.027576,-0.095374,-0.056457,-0.039256,-0.16411,0.047827,0.062752,-0.039856,0.40088,-0.031412,0.016361,0.026502,0.0067028,0.17301,2.078,-0.015064,0.24337,-0.089169,-0.11404
0.039104,-0.03297,-0.076308,-0.058518,0.042067,-0.031965,-0.090177,-0.054857,-0.046543,-0.18575,0.049944,0.063616,-0.088023,0.367,-0.0079169,0.019956,0.031109,0.021253,0.19938,1.9813,0.011443,0.2862,-0.078717,-0.1231
0.038538,-0.03955,-0.072865,-0.053588,0.036883,-0.033004,-0.086101,-0.054018,-0.05237,-0.19956,0.052668,0.064945,-0.11719,0.32632,0.0080397,0.018413,0.034165,0.027372,0.20652,1.8636,0.035101,0.33849,-0.061589,-0.13052
0.03373,-0.05096,-0.069563,-0.046398,0.035012,-0.033828,-0.083757,-0.052846,-0.054464,-0.20103,0.053399,0.068574,-0.12282,0.2656,0.023424,0.017691,0.036833,0.028772,0.19232,1.6957,0.054188,0.39437,-0.044278,-0.13913
0.025939,-0.062273,-0.064644,-0.039677,0.033816,-0.038022,-0.081209,-0.050434,-0.052644,-0.19143,0.051408,0.074622,-0.10903,0.18013,0.041346,0.022295,0.036735,0.030479,0.16609,1.4507,0.070741,0.44354,-0.031604,-0.15197
0.01866,-0.068493,-0.056805,-0.035166,0.029988,-0.046568,-0.075175,-0.047055,-0.049126,-0.17668,0.048883,0.080687,-0.085114,0.078497,0.058105,0.031163,0.029044,0.033696,0.13892,1.1308,0.088649,0.47961,-0.024324,-0.16763
0.014529,-0.068085,-0.046514,-0.032354,0.022295,-0.056988,-0.063582,-0.044043,-0.046758,-0.16276,0.049438,0.083365,-0.06132,-0.022111,0.066986,0.037722,0.010661,0.034605,0.11428,0.77223,0.10995,0.50395,-0.019713,-0.17949
0.013275,-0.063981,-0.035991,-0.029331,0.012527,-0.065362,-0.047605,-0.042707,-0.04651,-0.1515,0.054944,0.080825,-0.045419,-0.10627,0.064822,0.03478,-0.01607,0.028115,0.087546,0.42603,0.13213,0.52231,-0.014505,-0.18054
0.012299,-0.061376,-0.027699,-0.024917,0.004001,-0.069431,-0.031525,-0.043125,-0.046456,-0.14002,0.06323,0.074143,-0.040289,-0.16861,0.055107,0.020309,-0.043599,0.012961,0.053844,0.12937,0.14898,0.53837,-0.0077784,-0.16962
0.0091024,-0.063952,-0.022594,-0.019986,-0.0010551,-0.070128,-0.020259,-0.043711,-0.043382,-0.12406,0.068866,0.066256,-0.043436,-0.21441,0.045186,-0.00089482,-0.063594,-0.0065226,0.015845,-0.11003,0.15474,0.55017,-0.001623,-0.15349
0.0033231,-0.071228,-0.019697,-0.01665,-0.0030798,-0.070415,-0.016166,-0.04201,-0.035844,-0.10221,0.066973,0.059605,-0.049443,-0.25271,0.040685,-0.021129,-0.072125,-0.023439,-0.016578,-0.30691,0.14871,0.55229,0.00068242,-0.14218
-0.0031715,-0.078927,-0.017347,-0.016052,-0.0045359,-0.072674,-0.017417,-0.036331,-0.026054,-0.077512,0.057364,0.054664,-0.054561,-0.28754,0.042397,-0.035879,-0.071479,-0.03323,-0.034555,-0.47819,0.13636,0.54108,-0.0027183,-0.14125
-0.0079154,-0.082109,-0.014894,-0.016966,-0.0077188,-0.076936,-0.01923,-0.027205,-0.018742,-0.055456,0.045558,0.050549,-0.060191,-0.31421,0.047719,-0.046963,-0.067355,-0.036044,-0.038257,-0.62739,0.12565,0.51816,-0.010917,-0.14731
-0.0097007,-0.078795,-0.013141,-0.0167,-0.01287,-0.08126,-0.017227,-0.017463,-0.017662,-0.03988,0.039296,0.046777,-0.071857,-0.32361,0.054221,-0.060303,-0.064061,-0.034896,-0.036981,-0.74481,0.12137,0.48899,-0.020928,-0.15071
-0.0092867,-0.0714,-0.013047,-0.013602,-0.018071,-0.083566,-0.010472,-0.010606,-0.022472,-0.030062,0.042774,0.044117,-0.093643,-0.31128,0.061539,-0.080338,-0.061741,-0.031948,-0.041211,-0.81965,0.1216,0.45818,-0.029515,-0.14326
-0.0086796,-0.064892,-0.013992,-0.0087919,-0.020891,-0.083121,-0.0018488,-0.0084545,-0.028597,-0.021053,0.053016,0.043551,-0.12253,-0.28407,0.070393,-0.10547,-0.057566,-0.026791,-0.053992,-0.85156,0.11954,0.42564,-0.034727,-0.12468
-0.0097386,-0.063071,-0.013439,-0.0053586,-0.020387,-0.080536,0.0045676,-0.0098601,-0.030386,-0.0070292,0.06167,0.044493,-0.14805,-0.25884,0.080886,-0.12782,-0.049329,-0.018214,-0.069047,-0.85243,0.1089,0.38663,-0.03633,-0.10272
-0.01313,-0.065876,-0.0085808,-0.0055741,-0.017865,-0.07673,0.0070474,-0.01158,-0.025286,0.014707,0.061343,0.044432,-0.15855,-0.25334,0.092519,-0.1373,-0.038041,-0.0072163,-0.076601,-0.84,0.088777,0.3356,-0.03535,-0.087042
-0.018183,-0.069834,0.001303,-0.0086531,-0.015812,-0.072281,0.0076558,-0.010696,-0.015888,0.041845,0.051655,0.040848,-0.14971,-0.27555,0.10563,-0.12749,-0.027464,0.002303,-0.071276,-0.83108,0.063961,0.27063,-0.033274,-0.081978
-0.023511,-0.071147,0.013833,-0.011212,-0.015893,-0.067873,0.010307,-0.0066358,-0.0082732,0.068642,0.039883,0.033794,-0.12814,-0.31901,0.12157,-0.099808,-0.021323,0.0063987,-0.055617,-0.83925,0.040941,0.19501,-0.031245,-0.083818
-0.027848,-0.068723,0.02481,-0.010159,-0.017677,-0.065061,0.01709,-0.0012267,-0.0077965,0.089859,0.035149,0.026478,-0.10703,-0.3674,0.14005,-0.063397,-0.02078,0.0049444,-0.03736,-0.87452,0.023207,0.11515,-0.029323,-0.084246
-0.0306,-0.064537,0.030876,-0.0054592,-0.019227,-0.065894,0.026203,0.0030667,-0.015335,0.1042,0.040674,0.022828,-0.09708,-0.40491,0.15554,-0.030398,-0.024077,0.002655,-0.023564,-0.93986,0.0098636,0.037037,-0.026128,-0.076592
-0.031902,-0.061202,0.031535,-0.00020978,-0.019147,-0.07106,0.033457,0.0050436,-0.026661,0.11479,0.050658,0.02399,-0.10016,-0.42506,0.15715,-0.0087556,-0.028138,0.0058496,-0.015956,-1.0253,-0.0017385,-0.035784,-0.019467,-0.05979
-0.032292,-0.059213,0.029142,0.0021276,-0.018285,-0.078083,0.036015,0.0052175,-0.035334,0.12635,0.054837,0.027027,-0.11031,-0.43221,0.13427,0.003058,-0.030398,0.017471,-0.0096301,-1.1069,-0.012282,-0.1012,-0.0080981,-0.037577
-0.032286,-0.056601,0.02707,0.00086587,-0.019379,-0.081797,0.034825,0.0047413,-0.037029,0.14152,0.047206,0.027255,-0.12064,-0.43585,0.085044,0.015153,-0.029482,0.034581,0.0051836,-1.1566,-0.019384,-0.15651,0.0063006,-0.01473
-0.032167,-0.051352,0.027509,-0.001277,-0.024649,-0.077657,0.033411,0.0041363,-0.032219,0.15923,0.031498,0.022254,-0.12988,-0.44265,0.021552,0.038349,-0.024847,0.050433,0.03929,-1.1592,-0.020089,-0.19838,0.018741,0.0058198
-0.032138,-0.044132,0.030457,-0.00068257,-0.033326,-0.065661,0.034276,0.0031292,-0.025465,0.17622,0.018566,0.01394,-0.14335,-0.45216,-0.033618,0.073828,-0.016456,0.059364,0.099322,-1.1224,-0.014363,-0.22573,0.023165,0.022908
-0.032619,-0.038436,0.034374,0.0037837,-0.041485,-0.051408,0.036616,0.00159,-0.021996,0.19014,0.017685,0.0068179,-0.16834,-0.45846,-0.05852,0.10819,-0.0051634,0.060534,0.18251,-1.0699,-0.005992,-0.24241,0.016237,0.035391
-0.034218,-0.037745,0.037772,0.0096005,-0.044732,-0.042685,0.037664,0.00036811,-0.024146,0.20149,0.029108,0.0040913,-0.20867,-0.45556,-0.044215,0.11949,0.0067599,0.057836,0.27419,-1.0203,0.00022651,-0.25566,-0.0001997,0.041665
-0.03717,-0.042265,0.040456,0.012721,-0.041676,-0.043754,0.036197,0.00093371,-0.030073,0.21298,0.04407,0.0052448,-0.26272,-0.44205,-0.00036144,0.092154,0.016013,0.056527,0.35111,-0.97015,0.0024515,-0.27007,-0.020362,0.041626
-0.040672,-0.048454,0.043505,0.011108,-0.035181,-0.051914,0.034325,0.004006,-0.035392,0.22741,0.051967,0.007157,-0.32554,-0.42159,0.049878,0.030709,0.019864,0.059426,0.39042,-0.89585,0.003103,-0.28222,-0.038928,0.039119
-0.043011,-0.051955,0.048116,0.0065539,-0.030184,-0.059488,0.035482,0.0084977,-0.036278,0.24581,0.048368,0.0073685,-0.39159,-0.3994,0.082796,-0.038837,0.017896,0.065319,0.38028,-0.77524,0.0060862,-0.28245,-0.055141,0.041672
-0.042827,-0.051318,0.054303,0.0032347,-0.029866,-0.059933,0.040655,0.011972,-0.031834,0.26686,0.03729,0.0061857,-0.45526,-0.37787,0.087149,-0.083337,0.012399,0.070215,0.3255,-0.61046,0.012482,-0.26448,-0.073016,0.056403
-0.040652,-0.049016,0.06056,0.0043539,-0.033476,-0.053116,0.046953,0.012471,-0.024331,0.28688,0.026531,0.0056942,-0.50936,-0.35457,0.069396,-0.083798,0.0068703,0.07017,0.24436,-0.43271,0.018962,-0.23518,-0.097157,0.084507
-0.039111,-0.048704,0.064812,0.0097124,-0.037615,-0.045218,0.050298,0.010234,-0.01756,0.30017,0.020872,0.0069685,-0.54489,-0.32449,0.048131,-0.048151,0.0037761,0.063828,0.15887,-0.28421,0.020822,-0.21441,-0.12755,0.1184
-0.041101,-0.051185,0.06589,0.016057,-0.03963,-0.04328,0.049554,0.0077518,-0.014546,0.29982,0.019091,0.0085093,-0.55401,-0.28466,0.04145,-0.0051635,0.0033938,0.053402,0.085192,-0.19229,0.017039,-0.22202,-0.15777,0.14386
-0.047163,-0.052861,0.064274,0.019628,-0.039909,-0.049043,0.047728,0.0079175,-0.015969,0.28014,0.016615,0.0075273,-0.53469,-0.2377,0.055416,0.016825,0.0046531,0.043744,0.030414,-0.15576,0.012485,-0.26105,-0.17821,0.14601
-0.054392,-0.048361,0.061471,0.018728,-0.040965,-0.057408,0.048813,0.01169,-0.019902,0.24011,0.010392,0.0026731,-0.49264,-0.19144,0.081107,0.010507,0.0070461,0.040028,-0.0037222,-0.15201,0.014639,-0.31151,-0.18185,0.11552
-0.058186,-0.035322,0.058611,0.014495,-0.044348,-0.06076,0.053491,0.017225,-0.022825,0.1855,0.0012264,-0.0046478,-0.43813,-0.15454,0.10203,-0.0061964,0.011658,0.045138,-0.014945,-0.15562,0.027238,-0.34188,-0.16806,0.052019
-0.055636,-0.017287,0.055624,0.0097213,-0.048515,-0.0553,0.058269,0.021301,-0.021407,0.12738,-0.0080377,-0.011676,-0.37949,-0.13119,0.10657,-0.0052874,0.020177,0.058071,0.0014349,-0.15147,0.046422,-0.33044,-0.14182,-0.036388
-0.047775,-0.0020678,0.05177,0.006942,-0.049897,-0.043911,0.059168,0.021929,-0.014331,0.07706,-0.015855,-0.016846,-0.31843,-0.11891,0.096599,0.029059,0.032705,0.074192,0.048613,-0.13337,0.063067,-0.27996,-0.10969,-0.13615
-0.038766,0.0034414,0.046997,0.0071452,-0.046332,-0.03337,0.056241,0.019979,-0.0032313,0.040611,-0.023197,-0.020772,-0.25113,-0.11099,0.085881,0.088492,0.046558,0.087264,0.12229,-0.093223,0.069518,-0.21379,-0.076163,-0.23227
-0.032763,-0.0018919,0.042673,0.0096558,-0.039586,-0.028666,0.054089,0.018389,0.0079851,0.016693,-0.031713,-0.024749,-0.17413,-0.10171,0.089545,0.14706,0.057521,0.092206,0.20836,-0.013629,0.065005,-0.15735,-0.043019,-0.3119
-0.031095,-0.012643,0.040818,0.012887,-0.034377,-0.029414,0.057424,0.019578,0.015311,-0.00083126,-0.041211,-0.028569,-0.090086,-0.090576,0.11231,0.17972,0.06286,0.087241,0.28696,0.12817,0.055142,-0.12062,-0.011192,-0.36661
-0.031977,-0.020698,0.042426,0.015312,-0.034456,-0.031029,0.065812,0.023301,0.017056,-0.01771,-0.049366,-0.030292,-0.0087906,-0.082948,0.14424,0.17801,0.063562,0.074543,0.34012,0.34714,0.046348,-0.095742,0.017483,-0.39295
-0.032642,-0.020905,0.046472,0.016146,-0.039202,-0.029066,0.072921,0.026829,0.014787,-0.035456,-0.053954,-0.028482,0.057385,-0.087344,0.16699,0.15219,0.063624,0.059168,0.35771,0.6373,0.040445,-0.069677,0.040656,-0.39124
-0.031836,-0.014366,0.05064,0.015534,-0.043967,-0.022723,0.071548,0.027337,0.011999,-0.051363,-0.055181,-0.024661,0.099934,-0.11161,0.16563,0.12134,0.066597,0.046621,0.33783,0.96666,0.034211,-0.039317,0.057474,-0.36387
-0.030583,-0.0070977,0.053188,0.014263,-0.044116,-0.014922,0.060173,0.024353,0.011501,-0.061676,-0.055587,-0.023127,0.11798,-0.15995,0.13732,0.10055,0.071997,0.039875,0.28258,1.2828,0.023778,-0.015295,0.069934,-0.31458
-0.030873,-0.0052789,0.054221,0.013231,-0.039295,-0.0096046,0.045084,0.020083,0.013622,-0.064938,-0.057599,-0.02769,0.11727,-0.23109,0.091186,0.094192,0.074545,0.037178,0.19313,1.5265,0.0092633,-0.012139,0.081851,-0.24942
-0.03366,-0.01071,0.055089,0.01295,-0.033964,-0.0089085,0.035882,0.017358,0.016634,-0.062897,-0.061218,-0.038031,0.10596,-0.31739,0.040853,0.096742,0.067075,0.032132,0.067721,1.6498,-0.0048386,-0.034546,0.09607,-0.17798
-0.037899,-0.019747,0.056411,0.013362,-0.033498,-0.012225,0.038008,0.017141,0.018815,-0.058762,-0.064189,-0.049137,0.090411,-0.40495,-0.003987,0.097616,0.045092,0.016687,-0.096602,1.6314,-0.013619,-0.072184,0.11231,-0.11227
-0.041247,-0.026215,0.056642,0.01403,-0.039155,-0.017111,0.048538,0.0179,0.020089,-0.054743,-0.064513,-0.054769,0.073569,-0.47582,-0.040991,0.086099,0.0096957,-0.014142,-0.2998,1.4841,-0.016046,-0.10694,0.12757,-0.062487
-0.041661,-0.025861,0.052858,0.014533,-0.046438,-0.020775,0.058665,0.017299,0.021778,-0.051032,-0.062853,-0.052308,0.056016,-0.51284,-0.072633,0.05559,-0.03303,-0.058635,-0.53441,1.2479,-0.015526,-0.12551,0.13862,-0.031783
-0.03861,-0.019033,0.04347,0.014805,-0.048488,-0.021184,0.060594,0.014497,0.024927,-0.046725,-0.062523,-0.044909,0.038265,-0.50541,-0.1013,0.0074835,-0.075312,-0.10841,-0.78253,0.97224,-0.016524,-0.12665,0.14454,-0.014232
-0.033193,-0.0099086,0.030611,0.015173,-0.041718,-0.017734,0.053145,0.010837,0.029121,-0.041406,-0.066975,-0.039064,0.022239,-0.45339,-0.12628,-0.046779,-0.11099,-0.15248,-1.0158,0.69506,-0.020755,-0.11793,0.14712,0.0014863
-0.027368,-0.0032859,0.019742,0.016053,-0.02888,-0.011625,0.041867,0.0084619,0.03309,-0.035797,-0.07696,-0.039525,0.010822,-0.36687,-0.14424,-0.088379,-0.13672,-0.18269,-1.1998,0.4326,-0.02645,-0.10638,0.14899,0.024772
-0.022979,-0.0014921,0.016142,0.01747,-0.017034,-0.0055964,0.034255,0.0084131,0.036356,-0.031094,-0.089655,-0.045757,0.0058646,-0.26198,-0.15154,-0.099185,-0.15108,-0.1971,-1.304,0.1856,-0.030903,-0.091482,0.1513,0.057555
-0.021097,-0.0034005,0.020721,0.018701,-0.012292,-0.0025722,0.034349,0.010149,0.039957,-0.028035,-0.10034,-0.052714,0.0062462,-0.15513,-0.1463,-0.071198,-0.15338,-0.19922,-1.3131,-0.04476,-0.033319,-0.065757,0.15279,0.094725
-0.021751,-0.0057151,0.028676,0.018399,-0.015727,-0.0035679,0.040739,0.012703,0.045205,-0.026811,-0.10526,-0.055086,0.0078849,-0.058233,-0.12924,-0.011047,-0.14358,-0.19423,-1.2347,-0.24519,-0.035104,-0.021272,0.15078,0.12972
-0.023992,-0.005223,0.03257,0.015296,-0.023452,-0.006338,0.048585,0.015918,0.051671,-0.027772,-0.10364,-0.051399,0.006463,0.023411,-0.10356,0.06364,-0.1233,-0.18526,-1.098,-0.39278,-0.037652,0.043861,0.14331,0.16004
-0.026249,-0.00053447,0.027824,0.009183,-0.030059,-0.0062162,0.053202,0.020201,0.05669,-0.031712,-0.097792,-0.044774,0.0016592,0.090648,-0.074509,0.13284,-0.096482,-0.17233,-0.94203,-0.46841,-0.040329,0.12351,0.13083,0.1877
-0.027023,0.0074211,0.016319,0.0014798,-0.032135,0.00088465,0.052395,0.025096,0.057368,-0.038887,-0.091515,-0.040119,0.00011287,0.14818,-0.048412,0.18122,-0.068335,-0.15417,-0.79972,-0.468,-0.041021,0.20606,0.11634,0.21484
-0.025626,0.016095,0.0050714,-0.0052136,-0.029338,0.015241,0.046625,0.028542,0.053449,-0.047511,-0.087979,-0.040346,0.014456,0.20127,-0.030841,0.19972,-0.043304,-0.13117,-0.68684,-0.40128,-0.038768,0.27845,0.10385,0.23909
-0.022501,0.022762,0.00086439,-0.0085413,-0.02323,0.032367,0.03795,0.02813,0.048263,-0.053659,-0.088264,-0.04458,0.05779,0.25263,-0.024375,0.18361,-0.023378,-0.10681,-0.60103,-0.28078,-0.035688,0.32906,0.09599,0.25395
-0.018745,0.026043,0.0051017,-0.0079107,-0.015842,0.045402,0.028921,0.023458,0.046531,-0.053618,-0.091184,-0.049334,0.1359,0.30076,-0.027268,0.13182,-0.0081218,-0.086382,-0.53026,-0.11388,-0.035917,0.34952,0.092058,0.25394
-0.01512,0.026719,0.012924,-0.0049476,-0.0092407,0.049425,0.021734,0.017143,0.050752,-0.0472,-0.094311,-0.051239,0.24148,0.34099,-0.034167,0.049443,0.0038822,-0.073777,-0.46369,0.092229,-0.042212,0.33679,0.088109,0.2397
-0.011319,0.027222,0.017049,-0.0024052,-0.0055303,0.044693,0.017385,0.013032,0.05932,-0.03888,-0.095503,-0.049164,0.35429,0.36862,-0.038732,-0.049621,0.013605,-0.068699,-0.39758,0.31744,-0.053295,0.29531,0.079178,0.21774
-0.006155,0.029955,0.012984,-0.0022731,-0.006093,0.036422,0.014999,0.012872,0.068047,-0.034901,-0.094093,-0.044534,0.44826,0.38258,-0.036627,-0.14484,0.021334,-0.066501,-0.334,0.52297,-0.064498,0.23724,0.062301,0.19471
0.0014177,0.03555,0.0015303,-0.0045443,-0.010154,0.031186,0.012058,0.01447,0.07366,-0.038151,-0.091074,-0.040148,0.50259,0.38695,-0.027061,-0.2167,0.027467,-0.061075,-0.27545,0.66436,-0.071277,0.17835,0.038116,0.17171
0.011225,0.042407,-0.012726,-0.0075834,-0.014263,0.032523,0.0059019,0.013279,0.076155,-0.045203,-0.088189,-0.038544,0.51081,0.38926,-0.012198,-0.25501,0.033103,-0.049063,-0.22075,0.71683,-0.072445,0.13085,0.0099514,0.14425
0.02156,0.047993,-0.024886,-0.0096744,-0.014,0.038941,-0.0042719,0.006287,0.078035,-0.048662,-0.086456,-0.040773,0.48256,0.39674,0.0046379,-0.26183,0.039444,-0.032465,-0.16526,0.6922,-0.070245,0.097775,-0.018543,0.10849
0.029852,0.050869,-0.032152,-0.010343,-0.0071305,0.045668,-0.01643,-0.0050747,0.08139,-0.043303,-0.085097,-0.045962,0.4366,0.41284,0.020321,-0.24727,0.046302,-0.017721,-0.1045,0.63002,-0.067344,0.073337,-0.044976,0.068051
0.033857,0.051731,-0.034003,-0.010376,0.0043714,0.0486,-0.026716,-0.015514,0.085666,-0.030801,-0.081749,-0.051704,0.38949,0.43621,0.031969,-0.2225,0.051164,-0.011752,-0.037787,0.56658,-0.063745,0.04956,-0.067852,0.035018
0.032678,0.052534,-0.031285,-0.010761,0.015412,0.047219,-0.031861,-0.019546,0.088142,-0.018686,-0.074089,-0.055128,0.3474,0.46237,0.036459,-0.19546,0.050004,-0.017689,0.03064,0.50559,-0.056758,0.023553,-0.085374,0.023685
0.027151,0.054435,-0.025714,-0.011727,0.021373,0.044285,-0.031239,-0.015335,0.086518,-0.014231,-0.061922,-0.054223,0.30662,0.48636,0.031004,-0.17151,0.039689,-0.033201,0.093481,0.41503,-0.044188,-0.0010888,-0.09547,0.042283
0.019459,0.056434,-0.019886,-0.012762,0.02134,0.042926,-0.027105,-0.0058772,0.081111,-0.018621,-0.048117,-0.04876,0.26153,0.50424,0.015267,-0.15583,0.020346,-0.052323,0.14358,0.25375,-0.027736,-0.020185,-0.097513,0.089199
0.01221,0.056022,-0.016737,-0.013319,0.018349,0.043917,-0.022981,0.0031194,0.074656,-0.026513,-0.037338,-0.040279,0.21299,0.51199,-0.0066969,-0.1537,-0.0041035,-0.069179,0.17692,0.0064952,-0.013112,-0.036415,-0.093844,0.15564
0.0074245,0.051407,-0.018067,-0.013237,0.016619,0.045491,-0.021525,0.006853,0.069923,-0.031139,-0.033135,-0.031128,0.16945,0.50297,-0.027436,-0.16791,-0.027768,-0.080801,0.19447,-0.3013,-0.0062535,-0.060292,-0.088809,0.23073
0.005997,0.043441,-0.023255,-0.012426,0.018198,0.045562,-0.0234,0.0040267,0.067291,-0.030102,-0.035451,-0.023169,0.13953,0.46609,-0.040858,-0.19565,-0.045768,-0.087339,0.20235,-0.62023,-0.0086613,-0.10219,-0.085545,0.30385
0.0079019,0.035524,-0.029693,-0.010461,0.021772,0.043969,-0.027645,-0.0030327,0.064287,-0.026672,-0.040568,-0.016928,0.1224,0.38767,-0.047821,-0.22777,-0.056347,-0.090057,0.20993,-0.90999,-0.015932,-0.16164,-0.083515,0.36316
0.0128,0.031488,-0.03489,-0.0069993,0.024348,0.04258,-0.032839,-0.010407,0.057409,-0.025854,-0.043731,-0.011658,0.10536,0.25726,-0.057429,-0.25042,-0.060792,-0.0891,0.22606,-1.1608,-0.020949,-0.22398,-0.079595,0.39475
0.020332,0.033161,-0.038483,-0.0028868,0.024103,0.04331,-0.037993,-0.015223,0.044769,-0.029301,-0.042513,-0.0061873,0.071639,0.074886,-0.08127,-0.24763,-0.061551,-0.082879,0.255,-1.3868,-0.01924,-0.26871,-0.07205,0.38644
0.029736,0.039485,-0.042274,-0.00065548,0.021965,0.046171,-0.042676,-0.017245,0.027667,-0.033808,-0.038307,2.2421e-005,0.013006,-0.14494,-0.12369,-0.20485,-0.060158,-0.069501,0.29438,-1.5997,-0.012178,-0.28406,-0.063388,0.33524
0.039271,0.047628,-0.048285,-0.0032459,0.020757,0.049335,-0.046774,-0.01864,0.010067,-0.034396,-0.034821,0.0063448,-0.063569,-0.3759,-0.17557,-0.11495,-0.056521,-0.049056,0.33693,-1.7879,-0.005629,-0.27604,-0.058675,0.25203
0.046423,0.054774,-0.056589,-0.01151,0.022826,0.051092,-0.050421,-0.022248,-0.0036103,-0.028765,-0.03491,0.011397,-0.14092,-0.58876,-0.21765,0.013452,-0.049844,-0.024937,0.37483,-1.9195,-0.005464,-0.26432,-0.060332,0.15773
0.049162,0.059035,-0.064807,-0.022648,0.028138,0.051646,-0.054114,-0.029545,-0.010998,-0.019112,-0.038393,0.014172,-0.20449,-0.76178,-0.23205,0.15075,-0.040157,-0.0029716,0.40336,-1.966,-0.013688,-0.26798,-0.064356,0.072403
0.047359,0.059216,-0.06956,-0.031389,0.034271,0.052842,-0.058458,-0.039515,-0.013046,-0.010189,-0.042531,0.015069,-0.25235,-0.88668,-0.21369,0.25245,-0.029037,0.011359,0.421,-1.9243,-0.027922,-0.29213,-0.062246,0.0050625
0.042968,0.054575,-0.068688,-0.033445,0.038188,0.055971,-0.063334,-0.049045,-0.013207,-0.005814,-0.044516,0.015915,-0.29466,-0.96691,-0.17301,0.27939,-0.018923,0.015911,0.42632,-1.8186,-0.043836,-0.3255,-0.047788,-0.047854
0.038646,0.045562,-0.062661,-0.028555,0.03837,0.059789,-0.067171,-0.054589,-0.015037,-0.0068416,-0.043687,0.018767,-0.34363,-1.0099,-0.12792,0.22305,-0.011588,0.013048,0.41524,-1.6798,-0.057893,-0.34963,-0.023029,-0.094738
0.035976,0.034961,-0.054444,-0.020558,0.035748,0.06086,-0.067509,-0.054185,-0.019834,-0.011627,-0.041654,0.024349,-0.403,-1.0188,-0.091999,0.11803,-0.0069709,0.0081119,0.38215,-1.5209,-0.068301,-0.3515,0.0019737,-0.13899
0.034903,0.027632,-0.047976,-0.014358,0.03286,0.056281,-0.063009,-0.048723,-0.026048,-0.017788,-0.040424,0.031379,-0.46539,-0.98901,-0.068318,0.02839,-0.0031754,0.0061871,0.32486,-1.3308,-0.074342,-0.32936,0.015879,-0.17559
0.034632,0.027851,-0.046024,-0.01231,0.031928,0.046552,-0.055394,-0.041616,-0.030884,-0.023519,-0.040403,0.037418,-0.5186,-0.91241,-0.052785,0.011941,0.0024305,0.0094595,0.24962,-1.0905,-0.075797,-0.28872,0.013916,-0.19624
0.034719,0.0357,-0.048478,-0.012936,0.033298,0.035965,-0.049119,-0.036802,-0.032758,-0.027819,-0.040047,0.040528,-0.55475,-0.78642,-0.042252,0.084421,0.011826,0.016943,0.17146,-0.79897,-0.073484,-0.23364,0.00059145,-0.19762
0.034956,0.045663,-0.052199,-0.012795,0.035334,0.029819,-0.048218,-0.036103,-0.032517,-0.030177,-0.037393,0.040299,-0.5743,-0.62241,-0.0389,0.20872,0.025465,0.026453,0.10857,-0.4864,-0.070009,-0.16235,-0.014588,-0.18485
0.034372,0.049509,-0.052923,-0.0096765,0.03579,0.030495,-0.052596,-0.037748,-0.032403,-0.030405,-0.031964,0.037408,-0.58246,-0.44732,-0.046877,0.31801,0.042221,0.036895,0.073872,-0.20349,-0.068967,-0.071387,-0.024413,-0.16757
0.031017,0.04212,-0.048348,-0.0043759,0.033557,0.035583,-0.057291,-0.037449,-0.033802,-0.028693,-0.025261,0.032319,-0.58188,-0.29597,-0.065271,0.3574,0.059929,0.048778,0.06895,0.0063341,-0.072234,0.035346,-0.028221,-0.15274
0.023598,0.025949,-0.040249,0.00017904,0.029475,0.039693,-0.056094,-0.031665,-0.035876,-0.025574,-0.01936,0.024584,-0.56788,-0.19713,-0.085323,0.31556,0.076078,0.062591,0.084,0.13069,-0.077283,0.1411,-0.030077,-0.14075
0.013703,0.010143,-0.033607,0.0014105,0.025655,0.038576,-0.046942,-0.020692,-0.036352,-0.021682,-0.014924,0.013631,-0.53004,-0.16074,-0.095594,0.22567,0.088368,0.076684,0.10346,0.19107,-0.077277,0.22041,-0.03322,-0.12757
0.0060069,0.0042829,-0.032894,-0.0010008,0.0239,0.032237,-0.034331,-0.0089169,-0.033668,-0.017512,-0.010539,0.00031462,-0.4584,-0.17385,-0.090772,0.13833,0.095045,0.086909,0.11383,0.22376,-0.064851,0.25131,-0.036017,-0.10991
0.0053225,0.011203,-0.038161,-0.0051262,0.024473,0.024523,-0.026153,-0.0016452,-0.028465,-0.013432,-0.0041291,-0.012423,-0.34964,-0.20815,-0.075894,0.088164,0.09502,0.088709,0.10931,0.25357,-0.037354,0.22785,-0.032876,-0.088172
0.012518,0.024546,-0.044315,-0.0083198,0.026072,0.019686,-0.027249,-0.00090435,-0.023088,-0.0098262,0.0047271,-0.020742,-0.20892,-0.23468,-0.061848,0.077625,0.087842,0.08012,0.092886,0.27913,0.00034429,0.16434,-0.019088,-0.065337
0.02305,0.033287,-0.044626,-0.0088147,0.0269,0.018879,-0.035124,-0.0037968,-0.019663,-0.0071255,0.013803,-0.022232,-0.046756,-0.23727,-0.056191,0.085378,0.073643,0.063136,0.072445,0.2785,0.037928,0.088503,0.0047481,-0.044062
0.029935,0.029932,-0.035977,-0.0063019,0.02586,0.019519,-0.041661,-0.0049788,-0.018584,-0.0056196,0.019718,-0.017511,0.12626,-0.21686,-0.057661,0.087759,0.053178,0.042214,0.054867,0.22876,0.065462,0.027627,0.032348,-0.025558
0.028978,0.015952,-0.021571,-0.0015464,0.023013,0.01787,-0.039535,-0.0012075,-0.018731,-0.00529,0.020871,-0.0098195,0.30274,-0.18552,-0.059079,0.074803,0.028039,0.021218,0.041645,0.12432,0.078927,-0.0037135,0.055511,-0.011049
0.0218,0.00021169,-0.0086527,0.0042005,0.019145,0.012451,-0.027977,0.0060529,-0.019023,-0.0059487,0.019247,-0.0029649,0.47769,-0.15521,-0.055289,0.050742,0.00086395,0.0015012,0.029067,-0.018662,0.081587,-0.0078133,0.068859,-0.0033077
0.013993,-0.0082217,-0.0028837,0.0094931,0.015066,0.0052934,-0.013169,0.012303,-0.019685,-0.0076375,0.019284,0.00077809,0.645,-0.12917,-0.048148,0.02344,-0.024752,-0.017223,0.012724,-0.17257,0.080418,0.0014152,0.072128,-0.0056873
0.010084,-0.0069264,-0.0039072,0.012879,0.011282,6.138e-005,-0.0031257,0.014401,-0.021971,-0.010862,0.024445,0.0014194,0.79488,-0.10043,-0.043666,-0.0049667,-0.044858,-0.034207,-0.007298,-0.31404,0.080514,0.0086414,0.069003,-0.019051
0.0098245,-0.0011661,-0.0057568,0.013403,0.0081597,-0.0012154,-0.0014632,0.013591,-0.026603,-0.016216,0.03421,0.00050981,0.91535,-0.056673,-0.044207,-0.038084,-0.056135,-0.046029,-0.025015,-0.43312,0.081702,0.0057135,0.064142,-0.039775
0.0089924,0.0013552,-0.0018178,0.011343,0.0061126,9.9292e-005,-0.0050152,0.014338,-0.032398,-0.023446,0.044067,-0.00021146,0.9973,0.013182,-0.043447,-0.078122,-0.056906,-0.047994,-0.032277,-0.53108,0.07963,-0.0057365,0.060736,-0.061357
0.0037121,-0.0027222,0.0096892,0.0084932,0.0053852,0.00050884,-0.0068636,0.020032,-0.036429,-0.030637,0.048672,0.0001948,1.0392,0.11459,-0.029282,-0.12029,-0.04775,-0.037823,-0.024327,-0.61145,0.070037,-0.017595,0.059722,-0.078705
-0.0057784,-0.0098588,0.024127,0.007384,0.0055746,-0.0024342,-0.0019777,0.029556,-0.035748,-0.034479,0.045829,0.0016217,1.0472,0.24541,0.0075521,-0.15475,-0.031501,-0.01852,-0.0020379,-0.67345,0.052563,-0.020902,0.060293,-0.091341
-0.015218,-0.013194,0.033965,0.0097155,0.005505,-0.0077589,0.0090421,0.037903,-0.02938,-0.031955,0.038218,0.0032512,1.0304,0.39469,0.066502,-0.17405,-0.012546,0.002357,0.031131,-0.71349,0.031233,-0.0098563,0.060873,-0.10253
-0.019893,-0.0088835,0.034499,0.015114,0.0038828,-0.011581,0.020721,0.040285,-0.019115,-0.022656,0.031552,0.004168,0.9955,0.54192,0.13743,-0.17867,0.0045349,0.016993,0.073989,-0.73185,0.011638,0.017342,0.060127,-0.11516
-0.018291,0.00035849,0.027214,0.021274,0.00039143,-0.010161,0.026966,0.036039,-0.008509,-0.010018,0.030538,0.0039693,0.94447,0.65971,0.20703,-0.17509,0.016644,0.022063,0.12865,-0.73721,-0.0026182,0.059502,0.057877,-0.12823
-0.012744,0.007477,0.018339,0.025497,-0.0037233,-0.0030453,0.025411,0.028942,-0.00084599,-5.753e-005,0.0356,0.0030527,0.87788,0.72249,0.26535,-0.16837,0.023353,0.020262,0.19581,-0.74341,-0.011519,0.113,0.055568,-0.13744
-0.0070161,0.0070321,0.014041,0.026512,-0.0062935,0.0063122,0.018768,0.023909,0.002531,0.002099,0.042713,0.0023184,0.79887,0.71945,0.3073,-0.15595,0.026613,0.017388,0.26851,-0.76107,-0.017586,0.17106,0.055821,-0.13935
-0.0034704,-0.00019845,0.016262,0.025199,-0.005793,0.013046,0.012567,0.02321,0.0024682,-0.0043552,0.046459,0.0024224,0.71366,0.66343,0.32989,-0.1288,0.028742,0.017376,0.33115,-0.79132,-0.023648,0.22311,0.061127,-0.13519
-0.0023175,-0.0077765,0.022241,0.023757,-0.0025967,0.014526,0.01123,0.025435,0.00083646,-0.015297,0.044128,0.0032027,0.62733,0.58745,0.32964,-0.079522,0.029898,0.019329,0.36622,-0.82701,-0.031307,0.25649,0.072513,-0.1305
-0.002976,-0.0087497,0.027554,0.024068,0.0011834,0.012166,0.01539,0.027613,-0.0010502,-0.024778,0.037911,0.0038698,0.53908,0.52817,0.30429,-0.011249,0.027213,0.018871,0.36448,-0.86001,-0.040767,0.2609,0.0891,-0.13083
-0.0054359,-0.001106,0.029701,0.026519,0.0032153,0.0098847,0.022184,0.028082,-0.0032337,-0.029643,0.033479,0.0038298,0.44258,0.50623,0.25707,0.059502,0.016897,0.012456,0.33078,-0.88743,-0.051363,0.23353,0.1087,-0.13719
-0.0098828,0.010792,0.029284,0.030003,0.0025241,0.010555,0.027919,0.027442,-0.0066051,-0.031816,0.035841,0.0032772,0.33261,0.51716,0.19882,0.10856,-0.0018146,0.00081396,0.28134,-0.91168,-0.061976,0.18098,0.12873,-0.14561
-0.015152,0.01968,0.028338,0.032804,-0.00021727,0.013535,0.030855,0.027195,-0.011621,-0.036089,0.045394,0.002866,0.21298,0.53967,0.14426,0.11534,-0.024062,-0.011305,0.23527,-0.93528,-0.071295,0.11631,0.14671,-0.15113
-0.018247,0.020756,0.027912,0.033578,-0.0037736,0.015494,0.031904,0.027922,-0.017377,-0.045185,0.057165,0.0028,0.098057,0.55438,0.1044,0.073428,-0.040867,-0.018575,0.20672,-0.95604,-0.078272,0.05248,0.16034,-0.15219
-0.016229,0.014748,0.02733,0.031875,-0.0075537,0.013801,0.032958,0.028938,-0.021855,-0.056565,0.064014,0.0024446,0.0048951,0.55776,0.08079,-0.0048682,-0.044332,-0.018546,0.20216,-0.96659,-0.082693,-0.0029634,0.16775,-0.15113
-0.0091194,0.006709,0.025593,0.028218,-0.011651,0.0094104,0.034557,0.029443,-0.023194,-0.064127,0.061627,0.0010587,-0.059305,0.56062,0.066133,-0.092374,-0.03289,-0.012356,0.2217,-0.95732,-0.085158,-0.048654,0.16816,-0.15003
-0.00086434,0.0020983,0.023164,0.023953,-0.015793,0.0065082,0.035143,0.029625,-0.020977,-0.063529,0.051665,-0.0011005,-0.10442,0.57331,0.050563,-0.15821,-0.012486,-0.002762,0.26076,-0.91925,-0.086107,-0.085612,0.16249,-0.14614
0.0032075,0.0034021,0.022063,0.020858,-0.018577,0.0090847,0.032601,0.030444,-0.016512,-0.056364,0.04074,-0.0026932,-0.1525,0.59117,0.028525,-0.18184,0.0073427,0.0081207,0.31012,-0.84589,-0.084702,-0.11297,0.15327,-0.13205
0.00066846,0.0094708,0.024041,0.020396,-0.01816,0.017373,0.026572,0.032488,-0.011932,-0.04929,0.035931,-0.0026411,-0.22309,0.59329,0.0014121,-0.1635,0.019538,0.019295,0.35605,-0.73628,-0.078967,-0.12743,0.14371,-0.10145
-0.0057313,0.017151,0.028644,0.02278,-0.013906,0.027292,0.01922,0.035278,-0.0088394,-0.048734,0.040056,-0.0016348,-0.31925,0.55633,-0.024719,-0.12472,0.023206,0.029812,0.38367,-0.6004,-0.067639,-0.12705,0.13655,-0.055759
-0.010093,0.02326,0.033246,0.026554,-0.0073109,0.033435,0.013589,0.037716,-0.0075546,-0.055769,0.049975,-0.002044,-0.42529,0.47315,-0.043231,-0.096867,0.022529,0.038045,0.3834,-0.46281,-0.052261,-0.11549,0.13327,-0.0053173
-0.0082188,0.025536,0.035229,0.029332,-0.0010408,0.033088,0.011068,0.039003,-0.0073986,-0.065484,0.058919,-0.0059225,-0.51837,0.36216,-0.049444,-0.10256,0.022397,0.042601,0.35668,-0.35758,-0.037339,-0.10212,0.13396,0.036908
-0.0011417,0.022773,0.034318,0.029426,0.0030917,0.027995,0.010426,0.038913,-0.0075608,-0.071093,0.061019,-0.012813,-0.58546,0.26054,-0.041132,-0.14091,0.024554,0.043982,0.3161,-0.31281,-0.027838,-0.096853,0.13745,0.064384
0.0057629,0.015102,0.032818,0.027169,0.0052148,0.022552,0.0094169,0.037346,-0.0076931,-0.06901,0.054927,-0.019517,-0.6322,0.2056,-0.018765,-0.18673,0.027099,0.044972,0.27883,-0.33334,-0.025845,-0.10356,0.14153,0.08139
0.007369,0.0045944,0.033405,0.024699,0.0064618,0.020085,0.0073976,0.034061,-0.0077806,-0.060785,0.044305,-0.022281,-0.67686,0.21611,0.013348,-0.20603,0.027186,0.048827,0.25745,-0.39547,-0.029288,-0.11774,0.1431,0.099034
0.003128,-0.0047608,0.036461,0.02418,0.0071012,0.020278,0.0063537,0.029247,-0.007616,-0.050957,0.035149,-0.019598,-0.73383,0.28449,0.046388,-0.1786,0.024253,0.056693,0.25434,-0.4605,-0.033952,-0.13052,0.13864,0.12644
-0.002563,-0.0085388,0.039375,0.025935,0.0059046,0.01974,0.0091757,0.024236,-0.0065921,-0.043315,0.031918,-0.013219,-0.80029,0.38366,0.069095,-0.11305,0.021065,0.06672,0.26306,-0.49862,-0.037046,-0.13577,0.12509,0.16467
-0.0041862,-0.0042948,0.038465,0.028156,0.0016427,0.015206,0.016692,0.021055,-0.0041509,-0.038782,0.034929,-0.006608,-0.85676,0.48352,0.072594,-0.043538,0.021844,0.075963,0.27495,-0.505,-0.039154,-0.13427,0.10108,0.20825
0.00023505,0.0068236,0.031829,0.028492,-0.0047868,0.0068477,0.026197,0.020612,-0.00049186,-0.036016,0.0405,-0.0023527,-0.88171,0.56664,0.05478,-0.0096178,0.029112,0.083433,0.28536,-0.49496,-0.042963,-0.13169,0.068007,0.25226
0.0075899,0.020603,0.020824,0.026063,-0.010047,-0.0010066,0.032919,0.021119,0.0032327,-0.033334,0.043514,-0.00074825,-0.86857,0.6333,0.020621,-0.031673,0.041734,0.091391,0.29526,-0.4827,-0.050169,-0.1325,0.029909,0.29815
0.012413,0.032057,0.0092459,0.022074,-0.010666,-0.0025949,0.033309,0.018735,0.0055971,-0.029943,0.040621,-0.00048113,-0.8315,0.69327,-0.021888,-0.097242,0.055638,0.10338,0.3078,-0.46216,-0.059607,-0.1353,-0.0081643,0.35278
0.011404,0.037783,0.0011783,0.018555,-0.0060642,0.0048033,0.027519,0.010546,0.0060014,-0.025776,0.032106,-0.00033882,-0.79482,0.75111,-0.066466,-0.16683,0.066562,0.12054,0.32375,-0.40713,-0.068259,-0.13364,-0.042847,0.42153
0.0058925,0.036959,-0.00090153,0.016586,0.00060214,0.018002,0.019257,-0.0024628,0.0052441,-0.020807,0.021436,-0.00016878,-0.77407,0.79755,-0.10991,-0.19583,0.072677,0.13942,0.33973,-0.29199,-0.073993,-0.12112,-0.074283,0.50166
0.00037906,0.030954,0.003034,0.015697,0.0048474,0.029252,0.013288,-0.015305,0.0049774,-0.014958,0.01306,-0.00037726,-0.7634,0.8152,-0.14977,-0.15985,0.075156,0.15353,0.3504,-0.11672,-0.077268,-0.096384,-0.10541,0.58163
-0.001317,0.022453,0.010667,0.014839,0.0045437,0.031395,0.01246,-0.02228,0.0063763,-0.0086883,0.0099193,-0.00086272,-0.73957,0.79499,-0.18184,-0.068546,0.076448,0.15765,0.35231,0.083914,-0.080259,-0.063887,-0.13883,0.6474
0.0010572,0.014658,0.018201,0.013698,0.0016032,0.023184,0.016135,-0.021115,0.0090835,-0.0033392,0.012074,-0.00076224,-0.67958,0.74894,-0.20103,0.040248,0.077911,0.15153,0.34586,0.25525,-0.084435,-0.030481,-0.17374,0.69084
0.0044987,0.010318,0.022062,0.012916,9.0739e-005,0.010485,0.020786,-0.014496,0.011352,-0.00047693,0.016961,0.00064244,-0.57866,0.70604,-0.20503,0.12283,0.078885,0.14011,0.33395,0.35221,-0.089032,-0.0012332,-0.20588,0.71392
0.0056031,0.010392,0.021027,0.013134,0.0024356,0.0019742,0.022251,-0.0078332,0.011364,-0.00059432,0.020972,0.0028873,-0.45443,0.69164,-0.19669,0.15474,0.077914,0.13024,0.31865,0.36393,-0.091844,0.022116,-0.23084,0.72573
0.0033137,0.013065,0.017386,0.014054,0.0071485,0.0024557,0.018386,-0.0053024,0.0086907,-0.0023985,0.021469,0.0044232,-0.33412,0.70636,-0.18189,0.14281,0.074837,0.12634,0.29925,0.31925,-0.091449,0.039591,-0.24825,0.73429
-0.00064413,0.014378,0.015662,0.014617,0.01008,0.0091882,0.010687,-0.0074618,0.0046866,-0.0035506,0.01823,0.003957,-0.23495,0.72294,-0.16411,0.11662,0.071673,0.12821,0.27326,0.27201,-0.088747,0.050717,-0.26256,0.73905
-0.0036448,0.010798,0.019188,0.014109,0.0080373,0.014308,0.0037736,-0.011914,0.0014488,-0.0023987,0.01343,0.0017914,-0.15289,0.70587,-0.14087,0.10652,0.071329,0.13219,0.23976,0.27679,-0.086463,0.05417,-0.27944,0.72923
-0.0044473,0.002117,0.027093,0.012952,0.0015129,0.011401,0.0027013,-0.015675,0.0002197,0.00077132,0.010007,-0.00021024,-0.068457,0.63871,-0.1059,0.12503,0.075277,0.1343,0.20222,0.36781,-0.087147,0.049627,-0.30052,0.68932
-0.0039102,-0.0077602,0.034561,0.012314,-0.0058066,0.0007518,0.00951,-0.01687,0.00060584,0.0041154,0.0093097,-0.00014023,0.035692,0.53679,-0.055855,0.1648,0.082312,0.13299,0.16819,0.54814,-0.091331,0.03963,-0.32118,0.6086
-0.003768,-0.013266,0.036603,0.01291,-0.010072,-0.011003,0.021371,-0.01479,0.0012714,0.0059854,0.0097717,0.0022901,0.15935,0.43446,0.0042226,0.21214,0.089528,0.12974,0.14567,0.79032,-0.097054,0.029136,-0.33339,0.48856
-0.0048259,-0.011309,0.032251,0.014227,-0.0099952,-0.016309,0.031994,-0.0093055,0.0014182,0.0065947,0.0078419,0.0054482,0.28376,0.35819,0.061442,0.2615,0.094555,0.12757,0.13828,1.0467,-0.10085,0.022626,-0.33122,0.34342
-0.006309,-0.0039005,0.025456,0.014959,-0.0070204,-0.012547,0.035726,-0.00096473,0.0016425,0.0081875,0.00074884,0.0070962,0.38542,0.30869,0.10173,0.31686,0.096979,0.12841,0.14206,1.2669,-0.09946,0.021131,-0.31425,0.19331
-0.0069034,0.0030044,0.021826,0.014259,-0.0032948,-0.0036847,0.031513,0.0083566,0.0033552,0.013506,-0.010983,0.0061239,0.45398,0.26677,0.11737,0.37954,0.097754,0.13132,0.14617,1.4184,-0.091461,0.021936,-0.28659,0.054731
-0.0063789,0.0037948,0.024124,0.012623,0.00019889,0.003127,0.023699,0.015634,0.0073062,0.023622,-0.023331,0.0032213,0.50047,0.21641,0.1098,0.43646,0.097424,0.1323,0.13736,1.4993,-0.078165,0.021467,-0.25319,-0.065312
-0.0060852,-0.002532,0.030447,0.011564,0.0035629,0.00286,0.018852,0.018403,0.012562,0.036602,-0.031148,9.6002e-005,0.54989,0.16287,0.086334,0.46339,0.095074,0.1262,0.10604,1.5354,-0.063279,0.018999,-0.21739,-0.168
-0.0076607,-0.011401,0.036339,0.012333,0.0064814,-0.0042552,0.020901,0.016778,0.016829,0.047969,-0.031274,-0.0018538,0.62347,0.12913,0.054419,0.44265,0.089048,0.1099,0.050804,1.5599,-0.051204,0.017768,-0.18133,-0.25644
-0.011086,-0.015846,0.03851,0.014783,0.0073931,-0.013517,0.028245,0.013627,0.017833,0.052939,-0.024096,-0.0022186,0.72329,0.13372,0.018478,0.37958,0.078617,0.084622,-0.020873,1.5871,-0.044689,0.022057,-0.14764,-0.33042
-0.014071,-0.011609,0.036844,0.017373,0.0046114,-0.019174,0.035008,0.012261,0.014718,0.049469,-0.012746,-0.0012632,0.82985,0.17024,-0.018812,0.30111,0.064859,0.055939,-0.095865,1.5987,-0.043267,0.032404,-0.11906,-0.38659
-0.013728,-0.00042131,0.033465,0.018405,-0.0016234,-0.017835,0.035464,0.013552,0.0086365,0.040382,-0.0011164,0.00075544,0.91424,0.20724,-0.053303,0.23602,0.049885,0.030737,-0.1605,1.5553,-0.043654,0.043272,-0.095793,-0.42362
-0.0092976,0.011013,0.0305,0.017472,-0.0084355,-0.0099664,0.028285,0.015263,0.0023667,0.032797,0.0076124,0.0038936,0.95635,0.20884,-0.078246,0.19371,0.035292,0.013192,-0.20465,1.423,-0.04187,0.046181,-0.073331,-0.44668
-0.0034217,0.015693,0.028798,0.015818,-0.012045,0.00084993,0.017483,0.014405,-0.0008178,0.034251,0.011347,0.008364,0.95681,0.15878,-0.086758,0.16045,0.02142,0.0026664,-0.22329,1.1972,-0.035487,0.037004,-0.044212,-0.46666
-0.00046305,0.011278,0.028203,0.015148,-0.010598,0.010068,0.0094402,0.010384,0.0012263,0.047294,0.0092022,0.014372,0.93458,0.068606,-0.075613,0.11608,0.0080162,-0.0048006,-0.21609,0.90345,-0.024407,0.022112,-0.0032995,-0.49393
-0.0029557,0.0017024,0.028212,0.015822,-0.0055478,0.014517,0.0082996,0.005773,0.0079399,0.066386,0.0021379,0.02221,0.91273,-0.034275,-0.046749,0.055403,-0.0046048,-0.012715,-0.18683,0.57683,-0.0099459,0.01781,0.047637,-0.53163
-0.0091634,-0.0056712,0.02792,0.016159,-0.0003548,0.013803,0.01316,0.0039136,0.015602,0.080349,-0.0064942,0.032289,0.90288,-0.12608,-0.0051362,-0.0053071,-0.015345,-0.021427,-0.14336,0.23911,0.0065178,0.041834,0.10045,-0.57391
-0.01401,-0.0051777,0.025652,0.01379,0.002277,0.010115,0.019092,0.0057371,0.018968,0.079868,-0.012011,0.044655,0.89945,-0.19703,0.044766,-0.04188,-0.023413,-0.028855,-0.097151,-0.10735,0.024003,0.10169,0.14636,-0.6102
-0.012844,0.0035444,0.019501,0.0080982,0.0021614,0.0066635,0.021057,0.0090346,0.014638,0.064886,-0.011423,0.058136,0.88689,-0.24731,0.10037,-0.042649,-0.029593,-0.033718,-0.060702,-0.46358,0.0414,0.18766,0.18218,-0.63197
-0.0050443,0.015896,0.0089856,0.0014645,0.0010926,0.0058005,0.017624,0.010826,0.0038908,0.04562,-0.0063394,0.069983,0.85307,-0.27731,0.15867,-0.017388,-0.036223,-0.037857,-0.042785,-0.81123,0.057032,0.27567,0.21177,-0.63685
0.0054297,0.025941,-0.0036296,-0.0021872,0.00091869,0.0079844,0.011585,0.010277,-0.0076129,0.035323,-0.0026726,0.076745,0.79787,-0.28487,0.21244,0.01178,-0.045483,-0.045088,-0.043957,-1.1046,0.069233,0.33893,0.24152,-0.62803
0.012932,0.030307,-0.014051,-0.00062777,0.0021845,0.011992,0.0072328,0.0091248,-0.013736,0.039918,-0.006311,0.076135,0.73091,-0.2721,0.24918,0.02755,-0.057213,-0.057426,-0.055668,-1.2869,0.077594,0.36109,0.27405,-0.61086
0.014112,0.029583,-0.018629,0.0045137,0.0043399,0.015829,0.0068302,0.0093557,-0.012565,0.053088,-0.01787,0.068589,0.66204,-0.25291,0.25513,0.027176,-0.0681,-0.072233,-0.064252,-1.3202,0.083621,0.34314,0.30584,-0.58933
0.0099588,0.026667,-0.016829,0.0088452,0.00677,0.017596,0.0093314,0.010834,-0.0079012,0.061456,-0.031338,0.057209,0.59392,-0.24995,0.2229,0.018323,-0.073192,-0.083153,-0.05756,-1.2059,0.089931,0.30026,0.3305,-0.56414
0.0045663,0.023935,-0.011273,0.0088581,0.0092764,0.016172,0.012147,0.011598,-0.0059986,0.055852,-0.038485,0.045946,0.52337,-0.28057,0.15792,0.0080133,-0.068978,-0.084269,-0.030125,-0.98247,0.098494,0.25169,0.34452,-0.53203
0.001849,0.021644,-0.0052974,0.0049392,0.011601,0.011934,0.013844,0.010537,-0.010181,0.039051,-0.035575,0.037351,0.44983,-0.34318,0.078681,-0.0036473,-0.055954,-0.074072,0.015789,-0.7008,0.10941,0.21051,0.3499,-0.48617
0.0027591,0.018601,-0.00030196,0.00099464,0.012871,0.0072458,0.014979,0.0094475,-0.018036,0.023173,-0.026326,0.03155,0.3825,-0.41739,0.0096681,-0.020158,-0.038737,-0.056071,0.07262,-0.39959,0.12122,0.17939,0.35157,-0.41865
0.0049573,0.014105,0.0046694,0.0009845,0.011963,0.0057485,0.016449,0.012001,-0.023638,0.019093,-0.018217,0.027106,0.33883,-0.47956,-0.029489,-0.041087,-0.023338,-0.035949,0.13077,-0.09732,0.13237,0.15369,0.35232,-0.3257
0.0049764,0.0092051,0.01092,0.005498,0.0086361,0.0099778,0.017553,0.020375,-0.022743,0.027363,-0.015473,0.022796,0.33447,-0.52087,-0.032333,-0.05879,-0.013308,-0.01787,0.18077,0.19536,0.14237,0.1282,0.35031,-0.2133
0.0011656,0.0061628,0.017827,0.011385,0.0042488,0.018688,0.016259,0.032813,-0.016284,0.038632,-0.015297,0.018687,0.37204,-0.55222,-0.0064746,-0.0623,-0.0074341,-0.0027486,0.2147,0.45786,0.1516,0.102,0.34155,-0.098981
-0.0047517,0.0066996,0.022623,0.014573,0.0011164,0.026564,0.011653,0.044575,-0.009262,0.042762,-0.010878,0.015635,0.43733,-0.59128,0.032875,-0.044062,-0.0008049,0.010855,0.22783,0.65578,0.15984,0.078087,0.32475,-0.0062927
-0.0086167,0.010739,0.02243,0.013332,0.00089202,0.027684,0.0057829,0.051434,-0.0063995,0.037974,0.001753,0.013918,0.50538,-0.64341,0.071914,-0.003567,0.011427,0.02472,0.22046,0.75739,0.16521,0.058711,0.30399,0.046091
-0.0065877,0.016804,0.016525,0.0091285,0.0033665,0.020595,0.0023698,0.05248,-0.0086385,0.03173,0.019499,0.012536,0.55216,-0.6939,0.10383,0.053795,0.030318,0.039642,0.19805,0.7575,0.16438,0.040472,0.28617,0.053994
0.0022296,0.023572,0.0067771,0.0046956,0.0067381,0.010496,0.0031064,0.049853,-0.013305,0.03305,0.034408,0.010035,0.56395,-0.71929,0.12823,0.11991,0.052242,0.055339,0.16837,0.6879,0.15441,0.01319,0.2755,0.029308
0.015029,0.030856,-0.0038831,0.0015378,0.0090845,0.0057999,0.0052408,0.046043,-0.017105,0.04382,0.040057,0.0061296,0.53994,-0.70824,0.14668,0.1863,0.07141,0.070892,0.1368,0.60364,0.13461,-0.036273,0.26957,-0.0077099
0.026792,0.038775,-0.013231,-0.00073862,0.0097527,0.011299,0.0034702,0.041592,-0.018736,0.057163,0.036349,0.0024958,0.48882,-0.67347,0.15856,0.2458,0.083645,0.084946,0.10293,0.55408,0.10718,-0.11736,0.26047,-0.039808
0.032903,0.045866,-0.020181,-0.0030006,0.0095711,0.023745,-0.0049374,0.035335,-0.018887,0.063965,0.028899,0.0017055,0.42344,-0.64386,0.16033,0.29447,0.088415,0.095698,0.061014,0.55948,0.076125,-0.2301,0.24032,-0.059822
0.031297,0.048397,-0.024039,-0.00495,0.009875,0.034024,-0.016483,0.026644,-0.018372,0.061087,0.024267,0.0050135,0.35667,-0.64226,0.14695,0.33271,0.087792,0.10122,0.0039952,0.60785,0.045481,-0.3632,0.20699,-0.069543
0.023153,0.042485,-0.023998,-0.0051643,0.011274,0.03433,-0.02323,0.017198,-0.016901,0.053649,0.025397,0.010926,0.29887,-0.6666,0.11336,0.3622,0.083715,0.10033,-0.071931,0.66933,0.018118,-0.49649,0.16578,-0.073263
0.012097,0.02789,-0.019712,-0.0027459,0.013137,0.024252,-0.019238,0.010329,-0.013856,0.049737,0.030649,0.016021,0.25558,-0.68904,0.054834,0.37848,0.076284,0.093417,-0.16481,0.71353,-0.0042997,-0.60603,0.12567,-0.072485
0.0024661,0.010048,-0.012232,0.001295,0.014077,0.010739,-0.0062506,0.0084065,-0.0099096,0.052909,0.036244,0.017584,0.22596,-0.67316,-0.031936,0.36536,0.06453,0.082542,-0.26727,0.71831,-0.020842,-0.66989,0.09292,-0.065891
-0.0026411,-0.002416,-0.0039062,0.0045632,0.01295,0.0024008,0.0066877,0.010649,-0.0072444,0.059522,0.039481,0.015895,0.20372,-0.59587,-0.14526,0.30014,0.0487,0.070558,-0.36859,0.67028,-0.031204,-0.67295,0.066495,-0.052945
-0.0027005,-0.0036946,0.0029804,0.0053393,0.0096478,0.0032865,0.0099768,0.013474,-0.0076891,0.062966,0.04025,0.014072,0.1819,-0.45865,-0.27353,0.17186,0.031651,0.059958,-0.45706,0.56543,-0.036028,-0.61068,0.038568,-0.036108
0.00024456,0.0043258,0.007592,0.0041314,0.0051988,0.010963,0.0012191,0.013259,-0.010572,0.06035,0.040269,0.015345,0.15901,-0.28224,-0.39346,0.0011937,0.017866,0.052285,-0.52208,0.41342,-0.036938,-0.49188,-0.00022952,-0.018583
0.00308,0.012873,0.010582,0.003093,0.0011718,0.019427,-0.012544,0.0091907,-0.012725,0.055223,0.041176,0.020001,0.14135,-0.091447,-0.47577,-0.15671,0.010833,0.04839,-0.55587,0.23936,-0.035724,-0.33931,-0.054494,0.00039679
0.0037063,0.012908,0.012909,0.0038207,-0.0012494,0.023576,-0.020181,0.0037509,-0.011016,0.054031,0.043033,0.024719,0.13798,0.097464,-0.49771,-0.23676,0.010951,0.048972,-0.55444,0.075264,-0.033207,-0.18637,-0.12106,0.027631
0.0021728,0.002497,0.014861,0.0057322,-0.0019784,0.021778,-0.015125,0.00040786,-0.0051404,0.05991,0.044213,0.025161,0.15086,0.27837,-0.45547,-0.20481,0.015606,0.054584,-0.51772,-0.057088,-0.02899,-0.068435,-0.1912,0.072435
-3.3938e-005,-0.011298,0.016292,0.0066949,-0.0020618,0.015679,-0.00034536,0.0005631,0.0020692,0.069691,0.042626,0.019749,0.16783,0.44767,-0.36724,-0.086003,0.021138,0.064854,-0.44945,-0.15839,-0.022699,-0.010293,-0.25617,0.13991
-0.001811,-0.017939,0.01751,0.0053109,-0.0029393,0.0085492,0.014224,0.0024281,0.007193,0.076665,0.037368,0.011331,0.16574,0.59624,-0.26303,0.044312,0.024963,0.077587,-0.35771,-0.24639,-0.015718,-0.015499,-0.31184,0.22673
-0.0035341,-0.011985,0.019382,0.0025468,-0.0053614,0.0035935,0.019432,0.0027465,0.0091864,0.076259,0.029612,0.0051096,0.12356,0.70917,-0.16707,0.10633,0.026251,0.088761,-0.25583,-0.3356,-0.011583,-0.064433,-0.35937,0.32312
-0.0062819,0.0023695,0.022242,0.0010111,-0.0087531,0.0026415,0.013522,-0.00028371,0.0098709,0.069368,0.02202,0.0044176,0.036853,0.77372,-0.085237,0.067822,0.024994,0.093867,-0.16157,-0.42058,-0.014076,-0.12436,-0.40206,0.41928
-0.010031,0.01455,0.02489,0.0025402,-0.011602,0.00529,0.0026839,-0.0055327,0.011529,0.060659,0.017109,0.007942,-0.077448,0.78807,-0.007352,-0.035476,0.020719,0.089926,-0.092278,-0.4809,-0.024114,-0.16698,-0.44133,0.51044
-0.012923,0.015849,0.025235,0.0064765,-0.012686,0.0089766,-0.0041579,-0.010116,0.014084,0.053961,0.015802,0.010808,-0.19045,0.76249,0.077502,-0.12678,0.012262,0.076891,-0.056943,-0.5058,-0.037925,-0.18275,-0.475,0.59627
-0.012754,0.0058454,0.022442,0.010339,-0.01219,0.010442,-0.0017553,-0.011983,0.0148,0.049288,0.017269,0.0086606,-0.27883,0.71149,0.16552,-0.1426,-0.001035,0.057556,-0.050379,-0.51501,-0.048324,-0.1822,-0.49883,0.67547
-0.0094549,-0.0080319,0.018544,0.012191,-0.011698,0.0079562,0.0086252,-0.011521,0.010932,0.044065,0.020024,0.0013341,-0.3382,0.64396,0.2366,-0.074368,-0.017684,0.036268,-0.054878,-0.55177,-0.048611,-0.18338,-0.50934,0.74088
-0.0059775,-0.016891,0.017558,0.012356,-0.012894,0.0026217,0.021195,-0.010865,0.0027917,0.036858,0.023171,-0.0068691,-0.38304,0.56013,0.2691,0.031082,-0.033542,0.017498,-0.05001,-0.64791,-0.036556,-0.19515,-0.50552,0.77975
-0.0062467,-0.017107,0.022384,0.012832,-0.015981,-0.0025182,0.03004,-0.011781,-0.0058304,0.029664,0.026691,-0.010386,-0.43425,0.4571,0.25882,0.10793,-0.043218,0.0050438,-0.024261,-0.79001,-0.015712,-0.21006,-0.48821,0.7792
-0.011713,-0.012055,0.032072,0.015147,-0.0192,-0.0049631,0.032478,-0.014124,-0.010472,0.026444,0.03066,-0.0063984,-0.5042,0.33569,0.22521,0.11419,-0.042808,0.0016531,0.019965,-0.9197,0.006828,-0.21283,-0.45843,0.73267
-0.019646,-0.008132,0.041993,0.018867,-0.020071,-0.0047003,0.029627,-0.016116,-0.0094941,0.029456,0.034341,0.0034149,-0.58982,0.20032,0.19811,0.050604,-0.032218,0.0083515,0.071152,-0.97391,0.024676,-0.19752,-0.41675,0.64277
-0.024967,-0.0090052,0.047002,0.022208,-0.017508,-0.0038896,0.024794,-0.015925,-0.005051,0.037012,0.036139,0.014378,-0.6771,0.052281,0.19538,-0.051085,-0.015499,0.02332,0.11805,-0.93351,0.035576,-0.1778,-0.36437,0.51962
-0.02427,-0.012956,0.045033,0.023967,-0.013077,-0.0046132,0.021276,-0.013043,-0.00072661,0.04479,0.03457,0.022007,-0.7514,-0.11409,0.21005,-0.15383,0.0011212,0.041257,0.1548,-0.83741,0.04185,-0.17956,-0.30505,0.37709
-0.018602,-0.01501,0.038204,0.024653,-0.010166,-0.0067602,0.020765,-0.0084381,0.001768,0.049266,0.029401,0.024402,-0.80456,-0.3038,0.21804,-0.23299,0.012307,0.054499,0.17816,-0.74694,0.04781,-0.21992,-0.2454,0.22972
-0.012588,-0.011488,0.030706,0.025652,-0.01149,-0.0079221,0.022757,-0.0036805,0.0036214,0.049995,0.021981,0.022485,-0.83457,-0.5061,0.19924,-0.27821,0.015849,0.056109,0.18194,-0.68968,0.056096,-0.28927,-0.19272,0.090938
-0.01061,-0.0029863,0.02549,0.027337,-0.016781,-0.0053392,0.024993,-3.1715e-005,0.0068198,0.048945,0.014471,0.018576,-0.84077,-0.6882,0.15388,-0.28742,0.012844,0.043495,0.15716,-0.63163,0.065551,-0.35278,-0.15155,-0.028998
-0.013199,0.0063611,0.022659,0.028204,-0.022581,0.0018019,0.024809,0.0018194,0.011273,0.048188,0.008563,0.014818,-0.821,-0.81048,0.10042,-0.26396,0.0060836,0.020229,0.10048,-0.50308,0.072055,-0.37266,-0.12123,-0.12575
-0.016601,0.012252,0.020646,0.026095,-0.024508,0.011569,0.020824,0.0014826,0.01433,0.04855,0.0046615,0.012447,-0.77409,-0.8576,0.058492,-0.21859,-0.0018736,-0.0054427,0.023445,-0.2566,0.071613,-0.33498,-0.09649,-0.20247
-0.015844,0.01321,0.018664,0.020461,-0.020431,0.020478,0.013965,-0.00133,0.013377,0.050149,0.0021176,0.011839,-0.70494,-0.86048,0.033065,-0.16945,-0.0095216,-0.024842,-0.048189,0.092202,0.063403,-0.26001,-0.070527,-0.26751
-0.0088851,0.011007,0.017794,0.013465,-0.012163,0.025612,0.007025,-0.0065203,0.0089129,0.053226,0.00029401,0.012685,-0.62634,-0.88588,0.013736,-0.13504,-0.015879,-0.033373,-0.087868,0.47423,0.050555,-0.18731,-0.038759,-0.32798
0.0014245,0.0086917,0.019611,0.0087132,-0.0043422,0.02613,0.0029722,-0.013068,0.0047917,0.057454,-0.00043926,0.014027,-0.55451,-0.99356,-0.011768,-0.12457,-0.019665,-0.032529,-0.085362,0.81544,0.038211,-0.14694,-0.0011057,-0.38306
0.0091437,0.0082258,0.023786,0.0085457,-0.001301,0.023298,0.0032271,-0.018917,0.0050001,0.060336,0.0012923,0.014515,-0.50126,-1.1899,-0.043792,-0.13461,-0.019464,-0.028161,-0.053697,1.0815,0.030406,-0.13942,0.038102,-0.42221
0.009552,0.0095642,0.027306,0.012177,-0.0042656,0.019377,0.0071437,-0.02179,0.0098638,0.057307,0.0066801,0.013154,-0.46856,-1.4137,-0.069844,-0.15552,-0.015079,-0.026347,-0.01993,1.2838,0.028072,-0.13968,0.072273,-0.43063
0.0027888,0.011436,0.02645,0.016282,-0.010877,0.016326,0.012841,-0.020644,0.01535,0.044933,0.01521,0.010154,-0.44943,-1.567,-0.076661,-0.18088,-0.0089203,-0.02995,-0.0075387,1.4493,0.029401,-0.12082,0.095726,-0.39887
-0.0059644,0.012649,0.019957,0.017553,-0.017147,0.015129,0.018438,-0.016744,0.016345,0.024864,0.024157,0.0069728,-0.4339,-1.571,-0.062891,-0.21026,-0.005854,-0.038345,-0.025003,1.5866,0.03191,-0.077435,0.10652,-0.33009
-0.010032,0.012703,0.010465,0.015116,-0.020118,0.015899,0.022642,-0.013262,0.011082,0.0042149,0.029838,0.0052299,-0.4153,-1.4081,-0.03991,-0.24346,-0.011085,-0.050236,-0.068771,1.6794,0.034362,-0.02951,0.10743,-0.23966
-0.0059824,0.01156,0.0027053,0.010884,-0.019222,0.018359,0.02457,-0.013348,0.0028488,-0.0093172,0.029982,0.0052395,-0.39291,-1.1241,-0.020167,-0.27412,-0.027336,-0.066704,-0.13519,1.7073,0.03713,-0.0045025,0.10426,-0.14727
0.0039595,0.0093529,-0.0001272,0.0077263,-0.015745,0.022147,0.023462,-0.017958,-0.002441,-0.013948,0.025489,0.0055452,-0.37038,-0.7967,-0.0047248,-0.29198,-0.053331,-0.091286,-0.22804,1.6711,0.041081,-0.012875,0.1021,-0.066758
0.013625,0.0066328,0.0012577,0.0071046,-0.011395,0.026755,0.018941,-0.025178,-0.00061412,-0.015755,0.020127,0.0040592,-0.35219,-0.49665,0.017357,-0.29272,-0.084608,-0.12643,-0.35332,1.5981,0.046233,-0.037411,0.10216,-0.000438
0.017408,0.0047655,0.0031282,0.0080782,-0.0073893,0.031308,0.011564,-0.031718,0.008006,-0.023409,0.018187,-6.7985e-005,-0.34098,-0.26694,0.056267,-0.28476,-0.11584,-0.16914,-0.50597,1.526,0.051409,-0.044881,0.10156,0.058628
0.014159,0.0055732,0.0019731,0.0083247,-0.0044918,0.034588,0.0029181,-0.035364,0.019295,-0.03977,0.021668,-0.0055205,-0.33687,-0.12389,0.10666,-0.28294,-0.14279,-0.21007,-0.66217,1.482,0.054987,-0.010711,0.096544,0.11865
0.0076508,0.0099429,-0.0027538,0.0061379,-0.0032832,0.035517,-0.0051369,-0.036281,0.028406,-0.05789,0.028934,-0.0097549,-0.3384,-0.067693,0.14492,-0.29132,-0.16273,-0.23769,-0.78678,1.4755,0.055858,0.062572,0.086423,0.1815
0.0035183,0.016433,-0.0086084,0.0017491,-0.0039102,0.033842,-0.011519,-0.036094,0.032698,-0.065565,0.035759,-0.011038,-0.34382,-0.088331,0.14263,-0.28984,-0.17391,-0.24526,-0.85267,1.5055,0.053682,0.14688,0.07472,0.24109
0.0051736,0.021413,-0.01256,-0.0029368,-0.0054919,0.030454,-0.016285,-0.035718,0.032718,-0.055015,0.037985,-0.0097646,-0.35164,-0.16487,0.08645,-0.2394,-0.17554,-0.2356,-0.85783,1.5696,0.048408,0.20825,0.066505,0.28888
0.011659,0.021212,-0.013514,-0.0057919,-0.0061045,0.026931,-0.019952,-0.034119,0.031167,-0.0297,0.034075,-0.0078652,-0.36035,-0.26509,-0.010869,-0.10628,-0.16882,-0.21976,-0.82709,1.6643,0.039917,0.22959,0.06441,0.32218
0.018699,0.01484,-0.01283,-0.0059204,-0.0038561,0.024435,-0.022507,-0.029237,0.03093,-0.0026968,0.025981,-0.0068638,-0.36779,-0.35197,-0.11691,0.10933,-0.15777,-0.21044,-0.79701,1.7778,0.028593,0.22045,0.067055,0.34839
0.021869,0.0050552,-0.012759,-0.0041475,0.0016224,0.022773,-0.023232,-0.020227,0.03334,0.01178,0.017897,-0.0064524,-0.37112,-0.39544,-0.19811,0.3614,-0.14808,-0.21447,-0.79476,1.8877,0.016514,0.20847,0.071142,0.38122
0.019557,-0.0033508,-0.014526,-0.0023871,0.0086062,0.020484,-0.02169,-0.0088847,0.037491,0.0069085,0.013729,-0.0049623,-0.36782,-0.38266,-0.23673,0.5732,-0.14352,-0.22898,-0.82497,1.97,0.0079101,0.22121,0.07475,0.43105
0.013887,-0.0068106,-0.017863,-0.0024595,0.014314,0.016088,-0.018979,0.0011043,0.040949,-0.014057,0.014813,-0.0012788,-0.35708,-0.32178,-0.23546,0.67242,-0.14249,-0.24346,-0.87131,2.0122,0.0075908,0.27192,0.078236,0.49602
0.0092006,-0.0052221,-0.02207,-0.0051204,0.016864,0.0096362,-0.017868,0.006476,0.041526,-0.041349,0.019208,0.0037189,-0.34033,-0.23861,-0.2092,0.62621,-0.13793,-0.24566,-0.90845,2.0187,0.017659,0.35751,0.081772,0.56039
0.0091706,-0.0014584,-0.027147,-0.0097741,0.016641,0.0031945,-0.021267,0.0063418,0.038988,-0.064361,0.022932,0.007708,-0.32043,-0.16858,-0.17287,0.45647,-0.12168,-0.22777,-0.91451,1.9993,0.034744,0.46576,0.082345,0.60094
0.014335,0.0012306,-0.033533,-0.014867,0.016039,-0.00040981,-0.029922,0.0023615,0.03527,-0.075356,0.022385,0.0090074,-0.29972,-0.14485,-0.13399,0.22764,-0.090794,-0.18978,-0.87708,1.9527,0.050394,0.58224,0.073958,0.59664
0.021631,0.0016127,-0.040698,-0.018627,0.017847,0.00019111,-0.041128,-0.0026705,0.032731,-0.070603,0.016548,0.0081544,-0.2784,-0.18411,-0.093123,0.015351,-0.05104,-0.13919,-0.79306,1.859,0.055368,0.6912,0.051782,0.53524
0.026393,0.00075345,-0.046252,-0.019748,0.023452,0.0034809,-0.049746,-0.0064577,0.031705,-0.050865,0.0076827,0.0073669,-0.25413,-0.2745,-0.048586,-0.12653,-0.014691,-0.087716,-0.66738,1.6917,0.045507,0.77271,0.016984,0.41453
0.02569,0.00028926,-0.047019,-0.017837,0.032035,0.0058095,-0.051225,-0.0078802,0.029553,-0.022255,0.00011804,0.0083963,-0.22309,-0.37436,-0.00075875,-0.18372,0.0063697,-0.046611,-0.51377,1.4399,0.025129,0.804,-0.022142,0.24083
0.020714,0.00053639,-0.041528,-0.013559,0.04111,0.0040519,-0.044735,-0.0066748,0.022398,0.0041203,-0.0022446,0.010911,-0.18159,-0.42795,0.046206,-0.17775,0.0074839,-0.022269,-0.35549,1.123,0.0052396,0.7687,-0.054111,0.028904
0.016265,0.00020828,-0.031696,-0.008516,0.047917,-0.0017445,-0.034067,-0.0029159,0.0083674,0.015954,0.0016981,0.013015,-0.12742,-0.3938,0.08471,-0.14605,-0.0065204,-0.013846,-0.22154,0.78318,-0.0025766,0.66849,-0.07034,-0.19675
0.017263,-0.002168,-0.021865,-0.004712,0.050834,-0.0079128,-0.025326,0.0030378,-0.01038,0.0062617,0.0094881,0.013322,-0.060197,-0.27,0.10545,-0.11854,-0.024818,-0.014198,-0.13624,0.46232,0.0074415,0.5266,-0.068799,-0.40311
0.024676,-0.0066816,-0.015721,-0.003609,0.050036,-0.0096116,-0.022742,0.010242,-0.028748,-0.021645,0.016603,0.012444,0.018983,-0.09864,0.10078,-0.10255,-0.037015,-0.013985,-0.10701,0.18147,0.032696,0.37726,-0.052952,-0.55617
0.034068,-0.011907,-0.013715,-0.0051566,0.047131,-0.0045961,-0.025628,0.017125,-0.042186,-0.05524,0.019406,0.012381,0.10795,0.055875,0.06939,-0.081552,-0.038172,-0.006908,-0.119,-0.061267,0.064801,0.24671,-0.027775,-0.6332
0.03834,-0.016269,-0.013335,-0.0076233,0.043985,0.0045468,-0.028922,0.022063,-0.049757,-0.080184,0.01757,0.014495,0.20295,0.1414,0.019734,-0.026742,-0.029685,0.0070525,-0.14189,-0.27495,0.094946,0.13965,0.0032904,-0.63277
0.03295,-0.019409,-0.011941,-0.008769,0.041477,0.011729,-0.027121,0.0242,-0.054313,-0.088992,0.014112,0.01809,0.29711,0.14293,-0.030829,0.083964,-0.016485,0.022499,-0.14598,-0.4582,0.11824,0.041926,0.038147,-0.57499
0.019626,-0.022079,-0.0094669,-0.0077914,0.039031,0.011693,-0.01859,0.023817,-0.059791,-0.084559,0.012922,0.020948,0.37932,0.082725,-0.062162,0.24736,-0.0031927,0.033035,-0.11728,-0.59577,0.13468,-0.062283,0.073764,-0.49105
0.0054245,-0.024731,-0.0084391,-0.0063954,0.035332,0.0042784,-0.006817,0.021924,-0.068003,-0.076141,0.015693,0.021173,0.43562,-0.00016632,-0.059609,0.42591,0.0081598,0.036163,-0.061612,-0.67149,0.1471,-0.17233,0.10498,-0.40819
-0.0023918,-0.026534,-0.011358,-0.0076151,0.029751,-0.0047919,0.0023608,0.019463,-0.077459,-0.071402,0.020754,0.018544,0.45403,-0.07315,-0.019505,0.55603,0.018023,0.035218,0.0039226,-0.6848,0.15815,-0.26651,0.12624,-0.3395
-0.0016638,-0.026229,-0.018004,-0.012911,0.023287,-0.0076068,0.0051448,0.016859,-0.084879,-0.070945,0.02464,0.014271,0.43121,-0.12029,0.050874,0.57433,0.027762,0.037017,0.064534,-0.6555,0.16837,-0.31485,0.13498,-0.28352
0.0034691,-0.024196,-0.025193,-0.020029,0.018101,0.0002937,0.0021593,0.014248,-0.087755,-0.069161,0.02482,0.0096686,0.37639,-0.13835,0.13761,0.4513,0.038134,0.04691,0.11538,-0.61214,0.17594,-0.29984,0.1332,-0.23178
0.006421,-0.023357,-0.029084,-0.024013,0.015849,0.016672,-0.0028284,0.012036,-0.085791,-0.059869,0.021143,0.0051863,0.30922,-0.12965,0.22508,0.21303,0.04863,0.064691,0.15837,-0.57271,0.17778,-0.22943,0.1255,-0.17772
0.0037014,-0.027231,-0.027869,-0.021125,0.016207,0.034412,-0.0062343,0.011128,-0.080393,-0.041792,0.015077,0.00062392,0.25148,-0.10152,0.29903,-0.064951,0.057609,0.084128,0.19286,-0.532,0.17132,-0.13348,0.11502,-0.12125
-0.0025729,-0.036295,-0.022653,-0.012491,0.016964,0.047067,-0.006959,0.012518,-0.073212,-0.01983,0.0081515,-0.0039095,0.21726,-0.070673,0.34836,-0.29187,0.062881,0.096492,0.21013,-0.46449,0.15628,-0.046722,0.10123,-0.067898
-0.0071245,-0.046075,-0.016247,-0.0039706,0.015799,0.053702,-0.0061155,0.016519,-0.065315,-0.0018118,0.001518,-0.0074083,0.20766,-0.062683,0.36715,-0.40479,0.062627,0.095916,0.1976,-0.34083,0.1354,0.0089958,0.08178,-0.024817
-0.006435,-0.049535,-0.011303,-0.0018194,0.012253,0.059117,-0.0053035,0.022237,-0.057543,0.0064373,-0.0032463,-0.0084353,0.21277,-0.10092,0.35719,-0.39486,0.056632,0.08334,0.14968,-0.14811,0.11347,0.03164,0.056758,0.0027897
-0.0016527,-0.042577,-0.0092096,-0.0075893,0.0081706,0.069374,-0.0055419,0.027745,-0.051169,0.004381,-0.0039209,-0.0063214,0.21894,-0.19136,0.32871,-0.30246,0.04733,0.066568,0.076015,0.096952,0.094644,0.032389,0.030978,0.013418
0.0028696,-0.028164,-0.0099356,-0.016707,0.0061653,0.086389,-0.0075374,0.030922,-0.047652,-0.0033092,0.00062286,-0.0021037,0.21575,-0.31621,0.29707,-0.18872,0.039588,0.056144,0.00018668,0.34847,0.079773,0.022811,0.011506,0.0092116
0.0036735,-0.015073,-0.012296,-0.022111,0.0074807,0.10602,-0.012063,0.030548,-0.047388,-0.009799,0.0080456,0.0016731,0.19827,-0.44286,0.27567,-0.10491,0.038579,0.059248,-0.050214,0.5448,0.065908,0.0065021,0.0020628,-0.005114
0.0009965,-0.011633,-0.014352,-0.019934,0.011183,0.12105,-0.019193,0.027055,-0.048691,-0.010232,0.012648,0.0024033,0.16424,-0.54102,0.26892,-0.077318,0.046521,0.075247,-0.054824,0.62845,0.048869,-0.019135,-0.00070942,-0.023657
-0.002085,-0.019281,-0.014212,-0.012426,0.015352,0.12636,-0.026973,0.022436,-0.048327,-0.0045611,0.0093368,-0.00070832,0.10975,-0.59406,0.26998,-0.10941,0.060517,0.095895,-0.0062934,0.56379,0.027056,-0.054047,-0.0053889,-0.040304
-0.0029569,-0.031288,-0.011233,-0.005811,0.019029,0.12218,-0.03146,0.019239,-0.043619,0.0027499,-0.0013483,-0.0057002,0.028111,-0.59678,0.26509,-0.19035,0.073497,0.11041,0.090532,0.34642,0.0032853,-0.088268,-0.019412,-0.048781
-0.0018587,-0.037848,-0.0068375,-0.0051448,0.02299,0.11315,-0.029053,0.019137,-0.034549,0.0061407,-0.012207,-0.008824,-0.086772,-0.54607,0.2417,-0.30014,0.078235,0.11233,0.22249,0.0034342,-0.017232,-0.10317,-0.043293,-0.042233
-0.0011788,-0.033461,-0.0039361,-0.010576,0.028608,0.10445,-0.019502,0.021939,-0.024028,0.0031548,-0.014562,-0.0071501,-0.23477,-0.43709,0.19489,-0.41223,0.071846,0.10335,0.3717,-0.41227,-0.031271,-0.081013,-0.070034,-0.01393
-0.0025944,-0.02072,-0.0049784,-0.01784,0.036059,0.098483,-0.0066946,0.025699,-0.01594,-0.0038612,-0.0059303,-0.0010701,-0.40639,-0.27109,0.12807,-0.50044,0.057518,0.091462,0.51869,-0.83095,-0.04056,-0.015834,-0.089893,0.039588
-0.0050386,-0.0078131,-0.009965,-0.022041,0.043815,0.094229,0.0039438,0.027863,-0.012391,-0.010079,0.0068433,0.0054304,-0.58501,-0.067069,0.048304,-0.55171,0.042193,0.084626,0.64685,-1.1791,-0.05062,0.082225,-0.096397,0.11395
-0.0055962,-0.002224,-0.016099,-0.021277,0.050055,0.089311,0.0094669,0.02666,-0.012294,-0.012571,0.012702,0.0074315,-0.75306,0.13712,-0.038917,-0.57562,0.032,0.084967,0.74738,-1.3975,-0.066375,0.19217,-0.08908,0.1946
-0.0025416,-0.0058019,-0.01955,-0.017375,0.054565,0.082367,0.011374,0.021903,-0.01229,-0.012708,0.0059425,0.0029467,-0.89795,0.30046,-0.13066,-0.59916,0.028834,0.088,0.82136,-1.4619,-0.088249,0.29311,-0.071823,0.26026
0.0024135,-0.01461,-0.018076,-0.013759,0.059043,0.073919,0.013906,0.014939,-0.0091626,-0.014158,-0.0082196,-0.0051236,-1.0137,0.40181,-0.22257,-0.64638,0.03029,0.087167,0.87574,-1.394,-0.11192,0.37366,-0.049328,0.29178
0.00501,-0.022749,-0.012488,-0.012681,0.065304,0.065462,0.020405,0.0080943,-0.0018391,-0.018298,-0.017491,-0.01089,-1.0981,0.45229,-0.30416,-0.71725,0.032301,0.079525,0.91519,-1.2545,-0.1316,0.43445,-0.025,0.28136
0.0019732,-0.026556,-0.0058728,-0.013936,0.073086,0.05801,0.031028,0.0039967,0.0083396,-0.021628,-0.012726,-0.010034,-1.1495,0.48592,-0.35908,-0.78377,0.031905,0.067647,0.93601,-1.1171,-0.14374,0.48353,-0.0012279,0.23559
-0.0058573,-0.026186,-0.001227,-0.01558,0.079789,0.051456,0.043472,0.00481,0.018881,-0.018125,0.0044012,-0.0033746,-1.1662,0.53479,-0.37223,-0.80811,0.028144,0.056421,0.92822,-1.036,-0.14836,0.52888,0.019421,0.17004
-0.013728,-0.02428,0.00063672,-0.015611,0.082566,0.045116,0.055354,0.011264,0.027669,-0.0046852,0.022989,0.0036452,-1.1506,0.60705,-0.3395,-0.76926,0.021185,0.048133,0.88517,-1.0276,-0.1476,0.57285,0.034014,0.099431
-0.016623,-0.023532,0.0013549,-0.013309,0.080765,0.038722,0.065647,0.021828,0.033688,0.015491,0.032059,0.0053206,-1.1126,0.68342,-0.27267,-0.67711,0.011286,0.04061,0.81284,-1.0745,-0.14363,0.61148,0.04036,0.030812
-0.013382,-0.025008,0.0033736,-0.0095813,0.076201,0.03283,0.074082,0.032857,0.036928,0.035051,0.028965,0.0003496,-1.0698,0.73176,-0.19492,-0.56357,-0.0011343,0.030107,0.73018,-1.1446,-0.13796,0.63785,0.038079,-0.035702
-0.0077218,-0.027789,0.0077622,-0.0063357,0.07089,0.028209,0.079832,0.040177,0.038101,0.048374,0.019962,-0.0070912,-1.041,0.7259,-0.12895,-0.4595,-0.014653,0.016023,0.65854,-1.2084,-0.13206,0.64725,0.028391,-0.10057
-0.0051876,-0.029544,0.013151,-0.0053033,0.064586,0.024742,0.081374,0.041466,0.038571,0.055668,0.013427,-0.010742,-1.0382,0.65401,-0.085617,-0.37664,-0.026496,0.0028024,0.60776,-1.2444,-0.12766,0.64105,0.012815,-0.15922
-0.0085459,-0.027619,0.01651,-0.0069157,0.054822,0.020879,0.077777,0.037712,0.040152,0.061363,0.012628,-0.0072342,-1.0599,0.51417,-0.060342,-0.30798,-0.033462,-0.0030193,0.57021,-1.2347,-0.1255,0.62714,-0.0078015,-0.20233
-0.015506,-0.020397,0.015091,-0.0099641,0.039735,0.014319,0.069806,0.032465,0.044301,0.068459,0.014404,0.0014981,-1.0936,0.30757,-0.039516,-0.24327,-0.033582,0.0018604,0.52855,-1.1641,-0.12368,0.61664,-0.032759,-0.22143
-0.020592,-0.00856,0.008175,-0.012425,0.02101,0.003552,0.059351,0.029212,0.050955,0.074553,0.013793,0.010226,-1.1229,0.040999,-0.011874,-0.18439,-0.02729,0.014478,0.47143,-1.0274,-0.11754,0.61833,-0.059712,-0.21476
-0.019469,0.0045062,-0.0023994,-0.012981,0.0038464,-0.010982,0.04767,0.028841,0.058038,0.073731,0.0092568,0.01486,-1.1367,-0.26176,0.023041,-0.147,-0.017315,0.02752,0.40408,-0.83795,-0.10214,0.63399,-0.083152,-0.18862
-0.012124,0.013761,-0.012978,-0.012006,-0.0064735,-0.027208,0.034525,0.029219,0.062416,0.062793,0.0035287,0.015393,-1.1331,-0.55206,0.054888,-0.14719,-0.0074531,0.0345,0.34432,-0.62575,-0.07593,0.65746,-0.094862,-0.15359
-0.0025863,0.014726,-0.019565,-0.011029,-0.0086179,-0.043135,0.01954,0.027261,0.061904,0.045791,0.00019383,0.014988,-1.1168,-0.76585,0.070642,-0.18483,-0.001004,0.03378,0.30638,-0.42224,-0.042588,0.67814,-0.086849,-0.11943
0.0041159,0.0057525,-0.019471,-0.011075,-0.0063169,-0.058576,0.0046099,0.021782,0.056829,0.032192,0.00018393,0.016436,-1.0926,-0.85099,0.064896,-0.23721,0.00038397,0.028253,0.28597,-0.24226,-0.0093744,0.68645,-0.055664,-0.09273
0.0051129,-0.010848,-0.01273,-0.011478,-0.0055436,-0.075278,-0.0054123,0.014736,0.049981,0.029781,0.0016549,0.019503,-1.0601,-0.79695,0.04505,-0.26922,-0.0029395,0.021471,0.25976,-0.077986,0.016865,0.67755,-0.0057473,-0.078166
0.00082889,-0.02934,-0.0026872,-0.010499,-0.010157,-0.094988,-0.0054265,0.0096986,0.045073,0.038398,0.002659,0.021601,-1.0138,-0.64591,0.027536,-0.2534,-0.0091468,0.014031,0.20062,0.090824,0.03303,0.65125,0.05051,-0.08037
-0.0060062,-0.042551,0.0050442,-0.0072842,-0.019585,-0.11679,0.00535,0.0087551,0.045013,0.050047,0.0032658,0.02083,-0.94749,-0.47542,0.027444,-0.18642,-0.016068,0.0034407,0.096782,0.2808,0.04011,0.60957,0.096901,-0.10341
-0.012154,-0.044736,0.0055115,-0.0031992,-0.030145,-0.13604,0.020858,0.010407,0.051116,0.055327,0.004942,0.018137,-0.85972,-0.36135,0.048733,-0.090827,-0.022402,-0.012825,-0.040573,0.49661,0.040968,0.55463,0.12024,-0.14739
-0.015298,-0.034412,-0.0020505,-0.0009592,-0.038395,-0.14632,0.03069,0.010479,0.063263,0.050732,0.0082883,0.016242,-0.7558,-0.34309,0.082049,-0.0010386,-0.028404,-0.034415,-0.18654,0.73373,0.038021,0.48874,0.11638,-0.20513
-0.014814,-0.015786,-0.012688,-0.0021583,-0.043454,-0.14382,0.02674,0.0056095,0.080204,0.040809,0.011893,0.016387,-0.64604,-0.41046,0.11173,0.057009,-0.035742,-0.058328,-0.31986,0.98311,0.032806,0.41537,0.091756,-0.26273
-0.011986,0.0026408,-0.018172,-0.0055396,-0.046614,-0.13109,0.0093951,-0.0034015,0.09948,0.033805,0.013526,0.016279,-0.54175,-0.51695,0.12673,0.079211,-0.046716,-0.081981,-0.43371,1.2287,0.027037,0.33891,0.059346,-0.30507
-0.0094805,0.01244,-0.012591,-0.0078272,-0.049258,-0.1169,-0.011749,-0.011369,0.11742,0.034853,0.012194,0.011638,-0.45198,-0.60781,0.12716,0.08164,-0.06325,-0.10588,-0.53245,1.4398,0.023089,0.26248,0.031418,-0.32341
-0.0098581,0.010353,0.0027654,-0.0065074,-0.05147,-0.11123,-0.023938,-0.012268,0.13003,0.042331,0.008707,0.00017843,-0.38214,-0.64471,0.12204,0.086519,-0.085896,-0.1329,-0.62026,1.5735,0.022653,0.18591,0.013865,-0.32015
-0.013694,0.00046639,0.019357,-0.0020051,-0.052597,-0.11842,-0.020149,-0.0040227,0.13473,0.049847,0.0042195,-0.015701,-0.33409,-0.6142,0.12086,0.10666,-0.11295,-0.16465,-0.69436,1.5943,0.024705,0.10634,0.0055446,-0.30706
-0.018726,-0.0087206,0.027002,0.002756,-0.052768,-0.13361,-0.0042676,0.0093566,0.13194,0.051516,-0.0014846,-0.030236,-0.30646,-0.5204,0.12657,0.13906,-0.13999,-0.19819,-0.74981,1.5051,0.025183,0.021465,0.0022197,-0.29793
-0.021154,-0.010533,0.0213,0.0049161,-0.053389,-0.14596,0.01159,0.020273,0.12487,0.046038,-0.0098392,-0.038627,-0.29525,-0.37225,0.13559,0.17059,-0.16062,-0.22659,-0.79058,1.3634,0.019394,-0.067577,0.0012773,-0.30012
-0.018535,-0.004845,0.0070863,0.003904,-0.055895,-0.14674,0.015895,0.022895,0.1174,0.036817,-0.021377,-0.040514,-0.29507,-0.17695,0.14333,0.18917,-0.16868,-0.2431,-0.83452,1.2642,0.0054228,-0.15631,0.0033047,-0.3108
-0.012079,0.002551,-0.0050224,0.0013686,-0.060094,-0.13612,0.0061039,0.017108,0.11129,0.028856,-0.033799,-0.039481,-0.30079,0.056623,0.1492,0.19098,-0.16144,-0.24559,-0.90458,1.291,-0.01431,-0.23974,0.0098716,-0.3201
-0.0062589,0.0051784,-0.0064567,-0.00077278,-0.064059,-0.12294,-0.0097719,0.0079032,0.10504,0.025301,-0.042527,-0.039188,-0.30844,0.31056,0.15574,0.17904,-0.14152,-0.23757,-1.0115,1.4642,-0.034568,-0.31443,0.020408,-0.31857
-0.0057194,0.0009909,0.0033016,-0.0019971,-0.065958,-0.11751,-0.019544,0.00086872,0.095269,0.025965,-0.043791,-0.039834,-0.31432,0.55631,0.16317,0.15687,-0.11605,-0.22512,-1.1413,1.7235,-0.050323,-0.37745,0.031665,-0.30318
-0.011787,-0.006938,0.017208,-0.0029502,-0.066094,-0.12356,-0.016089,-0.0022619,0.079711,0.028129,-0.037794,-0.038263,-0.31309,0.76349,0.16523,0.12511,-0.092959,-0.21248,-1.2597,1.9592,-0.058721,-0.42363,0.040424,-0.27762
-0.021354,-0.014067,0.026872,-0.0038825,-0.067013,-0.13588,-0.0022376,-0.0042304,0.059322,0.028442,-0.029096,-0.031511,-0.29689,0.91361,0.15081,0.085061,-0.076669,-0.19985,-1.3297,2.0752,-0.059,-0.44569,0.046678,-0.24722
-0.029037,-0.018365,0.029029,-0.0036942,-0.071399,-0.14553,0.012191,-0.0086938,0.03781,0.024695,-0.023669,-0.020411,-0.2574,1.008,0.11056,0.045256,-0.06632,-0.18474,-1.333,2.0422,-0.051658,-0.43935,0.053848,-0.21316
-0.030904,-0.020911,0.026921,-0.00077311,-0.079646,-0.14742,0.018354,-0.015811,0.019064,0.016846,-0.024946,-0.0098529,-0.19014,1.0636,0.04281,0.022784,-0.057595,-0.16544,-1.2779,1.9061,-0.038452,-0.40981,0.065405,-0.17079
-0.026924,-0.023321,0.026001,0.0051831,-0.089349,-0.14401,0.014757,-0.020989,0.0047416,0.0071301,-0.032102,-0.0053662,-0.09789,1.0995,-0.045334,0.034987,-0.046721,-0.14321,-1.1903,1.7446,-0.023039,-0.37247,0.080932,-0.11344
-0.02049,-0.025333,0.028422,0.012247,-0.097059,-0.14237,0.0072441,-0.017971,-0.0059618,-0.00082799,-0.041749,-0.0089495,0.0094762,1.1256,-0.1411,0.086506,-0.033476,-0.1217,-1.0952,1.6066,-0.010399,-0.34431,0.095581,-0.038425
-0.0157,-0.025167,0.031424,0.017243,-0.10056,-0.14808,0.003322,-0.0036821,-0.014453,-0.0038311,-0.051143,-0.017524,0.11906,1.1405,-0.22966,0.16257,-0.020987,-0.1042,-1.0006,1.4775,-0.00408,-0.33118,0.10398,0.04923
-0.014654,-0.021828,0.030726,0.017799,-0.099665,-0.16127,0.0059208,0.019179,-0.020816,-0.001111,-0.059735,-0.025069,0.22032,1.1365,-0.29583,0.23602,-0.012704,-0.091276,-0.89624,1.2976,-0.0030308,-0.32179,0.10555,0.13772
-0.016587,-0.016373,0.025106,0.013779,-0.095276,-0.17747,0.011573,0.0438,-0.023791,0.0047752,-0.067777,-0.026567,0.30847,1.1055,-0.32563,0.28463,-0.0091737,-0.080666,-0.7648,1.0175,-0.0013006,-0.29564,0.1064,0.21266
-0.019039,-0.010625,0.017524,0.0071295,-0.088211,-0.19163,0.013882,0.06355,-0.022677,0.0091356,-0.073903,-0.020884,0.38468,1.0405,-0.31043,0.30599,-0.0072735,-0.069267,-0.59821,0.64503,0.0080298,-0.24064,0.11578,0.26172
-0.019753,-0.0049758,0.011871,0.00059133,-0.079197,-0.20167,0.0088448,0.075388,-0.019177,0.0080264,-0.074905,-0.010929,0.45378,0.9367,-0.25315,0.31792,-0.0025135,-0.055435,-0.40632,0.24543,0.027327,-0.16664,0.13937,0.27763
-0.017883,0.0018781,0.0089651,-0.0036231,-0.069785,-0.20915,-0.0024515,0.080089,-0.017146,0.00091747,-0.068731,-0.0014972,0.52128,0.79788,-0.17128,0.34305,0.0074256,-0.039736,-0.21266,-0.10629,0.052071,-0.10308,0.17474,0.25966
-0.013946,0.010617,0.0061117,-0.0045665,-0.062601,-0.21751,-0.015529,0.07997,-0.020123,-0.0090002,-0.057956,0.003565,0.59089,0.64521,-0.09172,0.38884,0.020694,-0.023935,-0.040321,-0.38115,0.074149,-0.080741,0.21245,0.21383
-0.0090291,0.0189,0.00068365,-0.0027575,-0.059951,-0.2295,-0.026597,0.076713,-0.028607,-0.017381,-0.04955,0.0033195,0.66263,0.51891,-0.038219,0.43836,0.032348,-0.0095135,0.10203,-0.61256,0.08818,-0.11079,0.24196,0.15167
-0.0040723,0.021929,-0.0061906,-2.0296e-005,-0.061766,-0.24541,-0.035305,0.071067,-0.039383,-0.022261,-0.049809,-2.2478e-005,0.73201,0.4635,-0.019276,0.45954,0.037652,0.0029252,0.22396,-0.85887,0.095302,-0.17647,0.2575,0.086658
0.00035645,0.016221,-0.010038,0.0011827,-0.064996,-0.26292,-0.044087,0.063896,-0.047544,-0.025584,-0.058321,-0.0025476,0.79103,0.50156,-0.025632,0.42695,0.035151,0.0133,0.3442,-1.1434,0.10099,-0.24317,0.25988,0.029473
0.0039131,0.0034289,-0.0075616,-0.00096746,-0.065601,-0.27858,-0.055169,0.05671,-0.049671,-0.031221,-0.066866,-0.0010024,0.83102,0.61446,-0.039489,0.34098,0.027342,0.021738,0.47479,-1.4242,0.109,-0.27895,0.25372,-0.015274
0.0063445,-0.0095135,-0.00082476,-0.0063044,-0.061795,-0.29015,-0.068243,0.050755,-0.045821,-0.041089,-0.06541,0.0052427,0.84601,0.74767,-0.048302,0.23123,0.018711,0.028945,0.60962,-1.6198,0.11717,-0.27094,0.2434,-0.048284
0.0075835,-0.014644,0.0034211,-0.012399,-0.055779,-0.29836,-0.080798,0.045719,-0.039035,-0.052863,-0.0508,0.013861,0.83428,0.84051,-0.052289,0.14175,0.01282,0.036633,0.72574,-1.6719,0.1191,-0.2281,0.23109,-0.071367
0.0079767,-0.0085227,-0.00081384,-0.016007,-0.052146,-0.30636,-0.090476,0.039813,-0.032993,-0.061533,-0.030458,0.021138,0.79722,0.86023,-0.060475,0.10787,0.010592,0.046853,0.7972,-1.5908,0.11011,-0.17143,0.21744,-0.083659
0.0083642,0.0052942,-0.013413,-0.01548,-0.053963,-0.31669,-0.096989,0.031517,-0.029695,-0.063617,-0.01719,0.024351,0.73697,0.81596,-0.080011,0.13862,0.010721,0.06017,0.81254,-1.449,0.091924,-0.12082,0.20291,-0.082019
0.0098075,0.018845,-0.027998,-0.012236,-0.059705,-0.32806,-0.10187,0.021239,-0.028765,-0.06027,-0.018973,0.023198,0.65565,0.74418,-0.10899,0.2139,0.011414,0.074276,0.78442,-1.3285,0.071606,-0.087025,0.1877,-0.065354
0.013025,0.02542,-0.037294,-0.0098387,-0.063753,-0.3345,-0.1066,0.010931,-0.028568,-0.056473,-0.032413,0.019284,0.55742,0.67976,-0.139,0.29598,0.011863,0.08485,0.74502,-1.2679,0.055803,-0.071276,0.1708,-0.038476
0.017878,0.024003,-0.039168,-0.011168,-0.060375,-0.32857,-0.11117,0.0017482,-0.028035,-0.056989,-0.045597,0.014315,0.45146,0.63608,-0.16404,0.34728,0.01249,0.088683,0.72995,-1.2504,0.045502,-0.069529,0.1501,-0.011176
0.023309,0.019323,-0.037847,-0.015974,-0.048175,-0.30629,-0.11432,-0.0078656,-0.027674,-0.06267,-0.047878,0.0086765,0.35195,0.60628,-0.18634,0.34581,0.014204,0.086776,0.7604,-1.237,0.035917,-0.076762,0.12431,0.0071835
0.027875,0.017775,-0.039371,-0.021004,-0.031462,-0.27017,-0.11486,-0.021318,-0.029041,-0.070199,-0.038097,0.0016138,0.27346,0.57881,-0.21258,0.29252,0.017654,0.084568,0.83337,-1.2109,0.021332,-0.089168,0.095089,0.012652
0.030554,0.022487,-0.045716,-0.022757,-0.017341,-0.22784,-0.11238,-0.040526,-0.03314,-0.075076,-0.024351,-0.00736,0.22375,0.54976,-0.24337,0.20912,0.023033,0.088533,0.92438,-1.1944,0.00039684,-0.10448,0.066957,0.0067794
0.031248,0.031168,-0.053127,-0.020561,-0.010769,-0.18739,-0.10675,-0.06309,-0.03908,-0.074959,-0.01607,-0.017255,0.19922,0.52215,-0.26619,0.12766,0.030251,0.10131,0.99963,-1.2273,-0.02262,-0.12137,0.044562,-0.0075412
0.030607,0.038098,-0.056075,-0.017252,-0.011528,-0.1531,-0.097452,-0.082951,-0.044119,-0.070632,-0.015822,-0.025702,0.18724,0.49684,-0.2595,0.075241,0.038893,0.11901,1.0306,-1.33,-0.04119,-0.13838,0.029833,-0.029272
0.029373,0.038556,-0.052865,-0.016762,-0.015472,-0.12445,-0.084065,-0.094428,-0.045219,-0.064497,-0.017974,-0.030154,0.17455,0.46781,-0.20668,0.059984,0.047846,0.13296,1.0043,-1.4828,-0.05109,-0.15266,0.021808,-0.057569
0.027847,0.032365,-0.047499,-0.020716,-0.018803,-0.09839,-0.067807,-0.09635,-0.041101,-0.058586,-0.014748,-0.029099,0.15681,0.4279,-0.10937,0.066015,0.055166,0.13497,0.92627,-1.6366,-0.05232,-0.15958,0.019155,-0.08738
0.025957,0.024062,-0.046139,-0.027056,-0.021564,-0.072264,-0.052288,-0.092735,-0.033324,-0.05389,-0.003626,-0.022458,0.14251,0.37944,0.010455,0.062336,0.058826,0.12269,0.81553,-1.7412,-0.047481,-0.15423,0.022327,-0.10868
0.023772,0.019653,-0.051657,-0.031947,-0.027173,-0.044988,-0.042135,-0.08948,-0.025513,-0.050876,0.010655,-0.011304,0.14765,0.33851,0.12181,0.022275,0.058248,0.10139,0.69564,-1.769,-0.03901,-0.13488,0.032412,-0.11286
0.021832,0.022292,-0.061379,-0.033221,-0.038421,-0.016388,-0.04009,-0.089942,-0.021176,-0.049807,0.020764,0.0024248,0.18403,0.32798,0.20168,-0.058292,0.055472,0.080906,0.58521,-1.719,-0.028195,-0.10603,0.047237,-0.10194
0.020843,0.029903,-0.069801,-0.032223,-0.053611,0.013802,-0.045036,-0.093018,-0.021557,-0.050129,0.023191,0.015962,0.24823,0.36475,0.24585,-0.15701,0.05459,0.06964,0.49242,-1.6068,-0.016585,-0.078281,0.058743,-0.091215
0.021013,0.036372,-0.073288,-0.032351,-0.066641,0.045922,-0.052779,-0.094844,-0.02502,-0.04972,0.020362,0.025977,0.31944,0.45152,0.26682,-0.23949,0.059174,0.069584,0.41571,-1.4514,-0.0076928,-0.063878,0.055269,-0.10044
0.02178,0.035484,-0.072281,-0.035651,-0.07141,0.079442,-0.059041,-0.092186,-0.028374,-0.045442,0.01701,0.029649,0.36888,0.57792,0.2814,-0.28256,0.06924,0.075528,0.34955,-1.2663,-0.0064829,-0.07005,0.028133,-0.13852
0.022334,0.024954,-0.069512,-0.040691,-0.066923,0.11219,-0.062087,-0.08465,-0.029174,-0.035279,0.014963,0.026338,0.37587,0.72754,0.29736,-0.28975,0.080275,0.078939,0.29077,-1.054,-0.016331,-0.094541,-0.022299,-0.19434
0.022487,0.0079445,-0.066804,-0.043739,-0.058528,0.14058,-0.062907,-0.074493,-0.027337,-0.020633,0.011729,0.018667,0.3406,0.88364,0.30778,-0.28752,0.085775,0.073744,0.24062,-0.80213,-0.035797,-0.12664,-0.085841,-0.24222
0.022946,-0.0088045,-0.06399,-0.042209,-0.053896,0.16068,-0.063259,-0.06502,-0.024936,-0.0066936,0.0040994,0.011711,0.28472,1.03,0.29594,-0.30577,0.082026,0.059972,0.20089,-0.48409,-0.058168,-0.15333,-0.14755,-0.25895
0.024592,-0.018932,-0.06064,-0.037122,-0.056996,0.16982,-0.06383,-0.059172,-0.024443,3.6149e-005,-0.0071436,0.010234,0.23937,1.1497,0.2464,-0.35716,0.071493,0.042748,0.16722,-0.072008,-0.074683,-0.16648,-0.19456,-0.23904
0.027405,-0.020028,-0.057908,-0.032265,-0.065259,0.16786,-0.064305,-0.058906,-0.026831,-0.0041682,-0.01645,0.015581,0.22823,1.2267,0.1553,-0.42965,0.061576,0.027504,0.12577,0.44041,-0.079271,-0.16625,-0.2198,-0.19631
0.030139,-0.014751,-0.057797,-0.030825,-0.072428,0.15782,-0.064828,-0.064805,-0.031003,-0.017296,-0.017709,0.024542,0.25698,1.2506,0.034039,-0.49521,0.058859,0.015084,0.057419,1.016,-0.071395,-0.15848,-0.22134,-0.15127
0.031171,-0.0089186,-0.060337,-0.03268,-0.074496,0.14499,-0.06666,-0.075487,-0.034922,-0.032179,-0.0095776,0.031328,0.31473,1.2215,-0.094788,-0.52567,0.063,0.00060072,-0.051124,1.5706,-0.055061,-0.14869,-0.19992,-0.11569
0.029774,-0.0077977,-0.062081,-0.034868,-0.073347,0.13457,-0.070686,-0.087345,-0.03741,-0.040774,0.003077,0.031451,0.38401,1.1495,-0.20653,-0.50342,0.065523,-0.022869,-0.19539,1.9969,-0.035234,-0.13753,-0.15821,-0.087277
0.026598,-0.012881,-0.058397,-0.034642,-0.074789,0.12903,-0.075032,-0.095597,-0.039065,-0.039485,0.012953,0.024668,0.45023,1.0497,-0.28396,-0.42246,0.055497,-0.05827,-0.34805,2.2079,-0.014844,-0.12161,-0.10231,-0.057647
0.022975,-0.021234,-0.048037,-0.03204,-0.082889,0.12708,-0.074715,-0.09668,-0.04154,-0.031631,0.015878,0.01473,0.50421,0.93408,-0.32297,-0.28456,0.028442,-0.10067,-0.46543,2.1766,0.0052687,-0.098924,-0.042995,-0.024848
0.01983,-0.027902,-0.035548,-0.029474,-0.095894,0.12564,-0.064806,-0.090566,-0.045842,-0.024814,0.013303,0.0062162,0.53879,0.80906,-0.33232,-0.098837,-0.008513,-0.13862,-0.50426,1.9489,0.024065,-0.074153,0.0063093,0.0020034
0.017305,-0.029719,-0.028474,-0.028879,-0.10746,0.12327,-0.045083,-0.081211,-0.051214,-0.024863,0.0099515,0.0011104,0.54591,0.67709,-0.32798,0.11394,-0.04007,-0.16023,-0.44105,1.6179,0.038545,-0.05842,0.034807,0.010513
0.015277,-0.027686,-0.031169,-0.029452,-0.11188,0.1221,-0.021937,-0.074664,-0.055608,-0.031052,0.0092075,-0.0021354,0.51901,0.54142,-0.32494,0.31884,-0.053113,-0.16032,-0.28414,1.2745,0.044792,-0.062683,0.039467,-0.0022583
0.013858,-0.026084,-0.040543,-0.028332,-0.10837,0.12612,-0.004884,-0.076209,-0.057324,-0.036664,0.010523,-0.0064912,0.45905,0.40811,-0.33027,0.47438,-0.046448,-0.14413,-0.071591,0.96203,0.041194,-0.089174,0.026172,-0.024642
0.013073,-0.028989,-0.047854,-0.023574,-0.10062,0.13702,0.00034707,-0.088561,-0.056368,-0.03467,0.010794,-0.013277,0.37811,0.28323,-0.34088,0.54963,-0.032283,-0.12507,0.14391,0.66574,0.030666,-0.12764,0.00577,-0.038709
0.012057,-0.037038,-0.045418,-0.016395,-0.092572,0.15135,-0.0034156,-0.11194,-0.054377,-0.023914,0.0079024,-0.02087,0.29616,0.16764,-0.34684,0.54044,-0.027877,-0.11793,0.31496,0.34372,0.019232,-0.15994,-0.012379,-0.03556
0.0090822,-0.046974,-0.032768,-0.010423,-0.084768,0.16196,-0.0066191,-0.14509,-0.053308,-0.010639,0.0028649,-0.026163,0.2322,0.054064,-0.33837,0.47196,-0.043425,-0.13113,0.4134,-0.021973,0.01167,-0.1705,-0.025006,-0.023995
0.0030315,-0.054114,-0.017113,-0.008641,-0.07476,0.16299,-0.00056742,-0.18571,-0.054172,-0.0041879,-0.0012282,-0.02724,0.19592,-0.0701,-0.31215,0.3849,-0.075169,-0.16222,0.43309,-0.39151,0.0079555,-0.15555,-0.034886,-0.023962
-0.0048423,-0.055462,-0.0077534,-0.010961,-0.060727,0.15424,0.01527,-0.22987,-0.056862,-0.010534,-0.0021672,-0.024785,0.18503,-0.21574,-0.2734,0.31498,-0.10846,-0.19895,0.38416,-0.67753,0.0039128,-0.12527,-0.046764,-0.04926
-0.010977,-0.0511,-0.0090536,-0.0146,-0.044329,0.14137,0.032481,-0.27154,-0.060937,-0.028727,-0.00049907,-0.021065,0.18908,-0.38595,-0.23225,0.27954,-0.12776,-0.22535,0.28669,-0.79479,-0.0042978,-0.097388,-0.062631,-0.093751
-0.012109,-0.043343,-0.017552,-0.016652,-0.029801,0.13154,0.040432,-0.30343,-0.066289,-0.052404,0.0013285,-0.017624,0.19603,-0.57567,-0.1974,0.27746,-0.12569,-0.22947,0.16836,-0.71585,-0.01596,-0.086612,-0.079913,-0.13318
-0.0084741,-0.035102,-0.025178,-0.016274,-0.020171,0.12814,0.03506,-0.31937,-0.072927,-0.074245,0.0014881,-0.013958,0.19723,-0.77697,-0.17124,0.2972,-0.10501,-0.20876,0.064007,-0.49465,-0.025937,-0.096291,-0.093699,-0.14213
-0.0044324,-0.028855,-0.025624,-0.014615,-0.014376,0.12856,0.022392,-0.31672,-0.080206,-0.089634,0.00043402,-0.0083959,0.18862,-0.98496,-0.14991,0.32387,-0.073829,-0.1701,0.010089,-0.24281,-0.029219,-0.11696,-0.10091,-0.11311
-0.0052413,-0.026309,-0.018718,-0.013043,-0.0081506,0.12664,0.013818,-0.29732,-0.086546,-0.097529,0.00026,-0.00032125,0.16977,-1.1978,-0.12773,0.34259,-0.039326,-0.1248,0.03137,-0.075028,-0.025638,-0.13234,-0.10271,-0.062879
-0.012376,-0.027974,-0.0097099,-0.011806,0.00206,0.1175,0.017057,-0.26654,-0.090277,-0.099284,0.002637,0.0084543,0.14283,-1.4091,-0.10208,0.3422,-0.0051437,-0.081908,0.12619,-0.058479,-0.020148,-0.12893,-0.10271,-0.021309
-0.021622,-0.032526,-0.004657,-0.010421,0.015757,0.10106,0.030198,-0.23112,-0.091012,-0.097191,0.0074254,0.01462,0.11263,-1.5974,-0.074717,0.32284,0.026909,-0.04438,0.26232,-0.19371,-0.018197,-0.10345,-0.10225,-0.011558
-0.026089,-0.036969,-0.0059482,-0.0090488,0.028651,0.082108,0.043393,-0.19705,-0.090223,-0.093559,0.01311,0.015928,0.086732,-1.7233,-0.048636,0.30256,0.054229,-0.01019,0.39046,-0.43155,-0.020445,-0.06363,-0.09679,-0.036442
-0.021865,-0.038277,-0.01136,-0.0090018,0.03629,0.067179,0.046363,-0.16808,-0.090246,-0.09008,0.018298,0.013128,0.073842,-1.7396,-0.023549,0.31267,0.073262,0.022989,0.46958,-0.70851,-0.021871,-0.022105,-0.077381,-0.079744
-0.011429,-0.035651,-0.016685,-0.011591,0.037843,0.060776,0.035474,-0.14512,-0.092295,-0.087321,0.022648,0.0094043,0.080218,-1.6134,0.0052224,0.37858,0.081878,0.053779,0.48766,-0.97623,-0.016271,0.01203,-0.037398,-0.11917
-0.0017436,-0.031334,-0.019082,-0.016406,0.036806,0.06342,0.015251,-0.12637,-0.095107,-0.084875,0.026511,0.0076784,0.10654,-1.3476,0.042665,0.49668,0.081424,0.07706,0.46338,-1.2101,-0.0021136,0.037762,0.020153,-0.13979
0.0013149,-0.028925,-0.018228,-0.020915,0.038186,0.072279,-0.0057747,-0.10845,-0.095509,-0.082428,0.029984,0.0081096,0.14805,-0.98618,0.087823,0.62647,0.075971,0.087726,0.42791,-1.3992,0.015523,0.059766,0.080723,-0.13874
-0.002709,-0.030495,-0.014948,-0.022044,0.044751,0.083437,-0.020668,-0.088223,-0.090685,-0.080862,0.03257,0.0081066,0.19875,-0.59752,0.1312,0.70855,0.069182,0.084883,0.40104,-1.5324,0.028638,0.08172,0.1243,-0.12091
-0.0093923,-0.035087,-0.0094533,-0.018527,0.055567,0.094108,-0.026853,-0.064707,-0.080496,-0.081841,0.03376,0.0048794,0.25666,-0.24279,0.15932,0.69947,0.061661,0.072935,0.37974,-1.5968,0.032276,0.10159,0.13591,-0.092253
-0.013938,-0.039916,-0.0013155,-0.012003,0.067821,0.10361,-0.025156,-0.039899,-0.068061,-0.085499,0.0338,-0.0018398,0.32589,0.050684,0.16396,0.59911,0.051154,0.058713,0.3468,-1.5899,0.027613,0.11321,0.11334,-0.057261
-0.015243,-0.042997,0.00895,-0.0058987,0.079923,0.11298,-0.017472,-0.017762,-0.058051,-0.087983,0.033771,-0.0095352,0.41292,0.29234,0.14887,0.44998,0.035305,0.047063,0.29051,-1.5356,0.019827,0.11247,0.066758,-0.021137
-0.015908,-0.04461,0.018862,-0.0029751,0.092789,0.12389,-0.0056407,-0.0018706,-0.053855,-0.081529,0.034873,-0.015451,0.51954,0.50526,0.12818,0.30814,0.014442,0.038256,0.21811,-1.4844,0.013115,0.1019,0.011035,0.0080137
-0.018709,-0.046396,0.025171,-0.0034516,0.10805,0.1374,0.0081262,0.0067899,-0.055551,-0.058152,0.037564,-0.019556,0.63757,0.69456,0.11714,0.20741,-0.0079743,0.028882,0.15151,-1.4902,0.0074837,0.088541,-0.043068,0.021021
-0.023356,-0.049247,0.026467,-0.0050745,0.12492,0.15306,0.020901,0.010337,-0.060022,-0.014988,0.04122,-0.024976,0.7498,0.83318,0.1222,0.14273,-0.02743,0.015178,0.10926,-1.5762,-5.2631e-005,0.076449,-0.092636,0.012696
-0.026776,-0.052191,0.024617,-0.0049801,0.13896,0.16835,0.029999,0.012484,-0.063028,0.042557,0.044428,-0.035238,0.83708,0.87851,0.13785,0.083675,-0.041121,-0.0037752,0.090188,-1.7116,-0.011341,0.060678,-0.13966,-0.01458
-0.026403,-0.053167,0.023346,-0.0019094,0.14423,0.17898,0.034491,0.016206,-0.061813,0.10259,0.045632,-0.05066,0.88745,0.8081,0.152,0.0055113,-0.049209,-0.024972,0.072683,-1.8224,-0.024071,0.029104,-0.1852,-0.052217
-0.022911,-0.050593,0.024982,0.0028222,0.13739,0.18012,0.0354,0.022365,-0.056542,0.15279,0.043759,-0.067185,0.90212,0.64526,0.15476,-0.087591,-0.053841,-0.042772,0.03076,-1.8306,-0.032771,-0.028283,-0.22595,-0.090513
-0.019503,-0.044142,0.028276,0.0062508,0.12052,0.16843,0.033932,0.030086,-0.049706,0.18689,0.038648,-0.078848,0.8952,0.45186,0.14368,-0.16503,-0.056933,-0.051493,-0.045616,-1.6991,-0.033044,-0.1101,-0.25561,-0.1229
-0.018497,-0.034366,0.029306,0.0059005,0.10008,0.14387,0.029353,0.038105,-0.04399,0.20714,0.031187,-0.081894,0.88791,0.29146,0.12265,-0.1947,-0.058574,-0.047952,-0.14158,-1.4514,-0.025361,-0.20257,-0.26887,-0.14602
-0.018787,-0.022213,0.024814,0.0016328,0.083041,0.10999,0.018934,0.045585,-0.040151,0.221,0.023072,-0.077113,0.89973,0.19083,0.09729,-0.1691,-0.057268,-0.033133,-0.22651,-1.1543,-0.01497,-0.28827,-0.26422,-0.15677
-0.01695,-0.009322,0.015267,-0.0040876,0.073036,0.072223,0.00060678,0.051855,-0.036453,0.23466,0.016207,-0.068625,0.94008,0.1288,0.071798,-0.11099,-0.051853,-0.012607,-0.27444,-0.87528,-0.0077379,-0.3575,-0.24349,-0.15029
-0.01111,0.0014611,0.0051711,-0.0077207,0.069429,0.03517,-0.023743,0.056033,-0.030148,0.24832,0.011958,-0.060442,1.0037,0.058749,0.049187,-0.054456,-0.043621,0.0046326,-0.28112,-0.64606,-0.005263,-0.41234,-0.20964,-0.12168
-0.0037156,0.0067109,0.00032415,-0.0069527,0.069385,0.00067417,-0.047457,0.057847,-0.019858,0.25679,0.010593,-0.053942,1.072,-0.055898,0.032686,-0.017925,-0.036871,0.0092051,-0.26654,-0.45434,-0.0034204,-0.45994,-0.16581,-0.070037
-0.00020842,0.0045226,0.003922,-0.0021931,0.070852,-0.03184,-0.062009,0.059411,-0.0069566,0.25487,0.011161,-0.048242,1.12,-0.22104,0.025359,0.0074285,-0.036996,-0.0042143,-0.26193,-0.26474,0.0041477,-0.50077,-0.11663,-0.00088045
-0.0043874,-0.003554,0.014275,0.0037617,0.073886,-0.063178,-0.061831,0.065937,0.0052397,0.24272,0.011793,-0.042656,1.1265,-0.41705,0.027832,0.043834,-0.046846,-0.032836,-0.29096,-0.04879,0.020185,-0.52283,-0.069922,0.075669
-0.014573,-0.012953,0.025796,0.0076475,0.07953,-0.092268,-0.047671,0.083488,0.013836,0.22663,0.010261,-0.038527,1.0823,-0.61707,0.036945,0.10036,-0.063567,-0.064864,-0.35694,0.19879,0.04036,-0.508,-0.035543,0.14979
-0.024251,-0.019226,0.032701,0.0078709,0.087541,-0.11619,-0.026187,0.11448,0.018279,0.21435,0.0046083,-0.038537,0.99213,-0.79832,0.047668,0.15847,-0.078328,-0.083709,-0.44317,0.46475,0.055222,-0.44615,-0.020905,0.2161
-0.027005,-0.021413,0.032887,0.0053843,0.095102,-0.13263,-0.0061235,0.15437,0.020236,0.20903,-0.0062253,-0.04421,0.86904,-0.93956,0.056994,0.18453,-0.079985,-0.076348,-0.52494,0.73149,0.056295,-0.34598,-0.026272,0.27406
-0.021681,-0.022486,0.029153,0.0027613,0.097581,-0.14286,0.0064967,0.1928,0.021681,0.20673,-0.02189,-0.054127,0.72684,-1.0163,0.065852,0.16004,-0.061272,-0.041439,-0.58493,0.984,0.041695,-0.23339,-0.044417,0.32531
-0.01339,-0.02609,0.026744,0.0022364,0.090725,-0.15232,0.011406,0.21915,0.02296,0.19964,-0.040425,-0.064724,0.5744,-1.0084,0.076636,0.10273,-0.024064,0.0082639,-0.6228,1.2039,0.017071,-0.13808,-0.065948,0.37069
-0.0094069,-0.032401,0.029067,0.0041636,0.072643,-0.16755,0.013742,0.22843,0.022511,0.18209,-0.058649,-0.07298,0.41568,-0.91848,0.088461,0.057752,0.019955,0.051792,-0.65376,1.3612,-0.0085199,-0.078177,-0.086565,0.40978
-0.013355,-0.037089,0.034996,0.0069603,0.044411,-0.19092,0.020496,0.22288,0.018296,0.15438,-0.073211,-0.0785,0.25408,-0.78461,0.095306,0.063668,0.054534,0.071267,-0.69731,1.4203,-0.028322,-0.05379,-0.11008,0.4429
-0.022413,-0.034743,0.040009,0.0084708,0.0093615,-0.21716,0.035613,0.20843,0.0096034,0.12155,-0.08195,-0.083104,0.097024,-0.66698,0.09015,0.12052,0.067574,0.061582,-0.76302,1.3601,-0.040932,-0.053302,-0.14408,0.47299
-0.029669,-0.023943,0.040122,0.0076691,-0.027916,-0.23482,0.05666,0.18934,-0.0021624,0.088487,-0.084853,-0.088421,-0.042918,-0.6128,0.072638,0.18746,0.058077,0.03213,-0.84186,1.1958,-0.049183,-0.06618,-0.19143,0.50494
-0.0295,-0.0094156,0.035169,0.0054315,-0.062099,-0.23243,0.075534,0.16609,-0.014005,0.055598,-0.083966,-0.093757,-0.15081,-0.62246,0.053639,0.21319,0.036607,-0.00024323,-0.90809,0.97768,-0.056775,-0.092004,-0.24468,0.54201
-0.021652,0.00092048,0.028605,0.0038499,-0.087367,-0.20559,0.083469,0.13787,-0.02251,0.018371,-0.082153,-0.096064,-0.214,-0.64432,0.051633,0.175,0.018622,-0.021674,-0.93051,0.76219,-0.065696,-0.13949,-0.28839,0.58148
-0.011077,0.001713,0.024262,0.0046522,-0.098141,-0.15946,0.07742,0.10683,-0.024959,-0.028918,-0.081425,-0.091813,-0.22586,-0.60493,0.082042,0.095122,0.015024,-0.027692,-0.88651,0.57408,-0.075857,-0.21785,-0.30789,0.61271
-0.0041691,-0.0060086,0.023294,0.0079405,-0.090666,-0.10457,0.063282,0.07952,-0.020205,-0.087586,-0.081967,-0.079086,-0.18713,-0.45503,0.14639,0.022,0.026379,-0.022044,-0.77136,0.38982,-0.086007,-0.32837,-0.29758,0.61963
-0.0045694,-0.015984,0.024096,0.012176,-0.064674,-0.049037,0.053005,0.063755,-0.009317,-0.1503,-0.08265,-0.058442,-0.10543,-0.20015,0.22871,-0.0073627,0.044524,-0.010574,-0.59857,0.15991,-0.094409,-0.46263,-0.26269,0.587
-0.011442,-0.021616,0.024876,0.015357,-0.023814,0.0068611,0.057083,0.063531,0.0042586,-0.20098,-0.08269,-0.032456,0.005897,0.10329,0.30155,0.0062153,0.059623,0.0038285,-0.39304,-0.14446,-0.098939,-0.60652,-0.21383,0.50752
-0.020812,-0.020472,0.025847,0.016434,0.025718,0.068859,0.077622,0.076437,0.015539,-0.22016,-0.083094,-0.0046534,0.129,0.38101,0.33789,0.027937,0.066773,0.021325,-0.18166,-0.49699,-0.097578,-0.74455,-0.15986,0.38639
-0.028379,-0.015027,0.028637,0.015898,0.077487,0.14096,0.10707,0.095608,0.019989,-0.19474,-0.086451,0.021617,0.24356,0.57975,0.32202,0.01676,0.067268,0.041627,0.014253,-0.82404,-0.089874,-0.86002,-0.10476,0.24068
-0.03176,-0.0097346,0.033713,0.015173,0.12648,0.21795,0.13347,0.11428,0.015914,-0.12746,-0.094918,0.044274,0.33031,0.68817,0.25455,-0.046661,0.064713,0.06148,0.18302,-1.0522,-0.078375,-0.93326,-0.050008,0.093818
-0.031118,-0.0073714,0.038919,0.015384,0.16921,0.2847,0.14808,0.12909,0.0059316,-0.039839,-0.10792,0.063313,0.37608,0.73045,0.15004,-0.15164,0.060553,0.076199,0.32321,-1.1606,-0.068242,-0.94394,0.0014875,-0.032624
-0.02834,-0.0075602,0.041073,0.016447,0.20286,0.3237,0.14988,0.13997,-0.0036163,0.03578,-0.12168,0.080666,0.37838,0.74086,0.029852,-0.2696,0.053474,0.083767,0.4413,-1.1974,-0.064464,-0.88007,0.044249,-0.126
-0.025562,-0.0080537,0.03908,0.017093,0.22478,0.32564,0.14408,0.14776,-0.005291,0.072015,-0.13125,0.098733,0.3472,0.73758,-0.086438,-0.37131,0.042683,0.087127,0.54675,-1.2468,-0.068472,-0.74798,0.073,-0.18553
-0.023844,-0.0070328,0.035106,0.015771,0.23304,0.29518,0.13682,0.15256,0.0059729,0.060713,-0.13382,0.1183,0.30223,0.71233,-0.18701,-0.43463,0.030971,0.09182,0.64611,-1.3694,-0.076972,-0.57364,0.086014,-0.22026
-0.022635,-0.004325,0.032238,0.011794,0.22765,0.24761,0.13055,0.15411,0.030377,0.015642,-0.13041,0.13751,0.26634,0.64083,-0.26866,-0.44139,0.023686,0.10073,0.73951,-1.5594,-0.084275,-0.39107,0.085431,-0.24363
-0.020347,-0.00087483,0.030934,0.0060046,0.2112,0.19904,0.12336,0.15334,0.063074,-0.038602,-0.12471,0.15285,0.25786,0.50569,-0.33227,-0.37503,0.024118,0.11079,0.82217,-1.7476,-0.086392,-0.22492,0.074417,-0.2678
-0.015751,0.0025836,0.02814,0.00049412,0.18833,0.15736,0.11169,0.1526,0.096365,-0.083281,-0.12004,0.16141,0.28502,0.31484,-0.37618,-0.22875,0.029844,0.11515,0.8904,-1.8457,-0.083565,-0.080793,0.054552,-0.30012
-0.0092298,0.0062585,0.020367,-0.0025847,0.16437,0.12041,0.093828,0.15402,0.12305,-0.11527,-0.11703,0.16244,0.34432,0.1017,-0.39258,-0.020602,0.034119,0.10944,0.94717,-1.801,-0.079228,0.049371,0.026495,-0.34224
-0.0028389,0.010854,0.007822,-0.0024357,0.14396,0.081543,0.071283,0.15728,0.13917,-0.14331,-0.11395,0.15678,0.42299,-0.093523,-0.37062,0.19972,0.031648,0.096838,1.002,-1.6241,-0.076506,0.17261,-0.0068681,-0.39058
0.0011074,0.016502,-0.004686,-0.00028957,0.13016,0.037507,0.0477,0.15931,0.14494,-0.17564,-0.10896,0.14509,0.50362,-0.24732,-0.3048,0.36493,0.023624,0.086982,1.064,-1.3747,-0.075389,0.28469,-0.038761,-0.43701
0.0018875,0.022156,-0.011306,0.0013422,0.12406,-0.0079704,0.026721,0.15652,0.14356,-0.21079,-0.10213,0.12678,0.56935,-0.36271,-0.20274,0.4214,0.01722,0.089159,1.133,-1.1213,-0.072844,0.3731,-0.061139,-0.47002
0.0010781,0.02611,-0.0099752,0.00051127,0.12472,-0.047019,0.010487,0.14769,0.139,-0.23954,-0.095267,0.10126,0.60791,-0.45764,-0.086216,0.35827,0.019562,0.10481,1.195,-0.90149,-0.065364,0.4291,-0.069787,-0.47762
0.0013464,0.027336,-0.0040719,-0.002541,0.12961,-0.073664,-0.00062207,0.13471,0.13389,-0.25537,-0.090111,0.070257,0.61379,-0.54252,0.016435,0.21387,0.031231,0.12555,1.227,-0.71006,-0.051498,0.45642,-0.066742,-0.45236
0.0042245,0.026543,0.00047459,-0.0053995,0.13557,-0.087544,-0.0075736,0.12048,0.12867,-0.26241,-0.086612,0.038972,0.58832,-0.60742,0.08196,0.05415,0.044761,0.13832,1.2066,-0.51498,-0.032382,0.46856,-0.056869,-0.39605
0.0087808,0.025934,-0.00025768,-0.0054046,0.14034,-0.092446,-0.012222,0.10584,0.12227,-0.2726,-0.08295,0.014328,0.53795,-0.6317,0.10086,-0.062756,0.049258,0.13361,1.1212,-0.28836,-0.01049,0.47824,-0.041253,-0.32064
0.012434,0.02759,-0.0059766,-0.0021106,0.14385,-0.091639,-0.01679,0.088913,0.11386,-0.29428,-0.077069,0.0013536,0.47163,-0.60824,0.078312,-0.1132,0.037161,0.11011,0.97095,-0.029158,0.011634,0.48969,-0.014234,-0.24348
0.013275,0.031701,-0.013625,0.0018372,0.14862,-0.084665,-0.022874,0.067692,0.10443,-0.32261,-0.068215,0.0005244,0.39835,-0.55992,0.027971,-0.11119,0.0078887,0.072952,0.76601,0.2344,0.031364,0.49986,0.031576,-0.17929
0.011866,0.03623,-0.02034,0.0024324,0.15877,-0.068562,-0.030118,0.043678,0.097105,-0.34133,-0.057218,0.0081692,0.32533,-0.53058,-0.03631,-0.09039,-0.033569,0.028012,0.52213,0.46015,0.045181,0.50467,0.095457,-0.13439
0.01085,0.038593,-0.025082,-0.0025277,0.17788,-0.0422,-0.035663,0.022804,0.09553,-0.33484,-0.045521,0.019459,0.25714,-0.55505,-0.10549,-0.079371,-0.080676,-0.021892,0.25877,0.61168,0.048692,0.5019,0.16285,-0.10705
0.012672,0.038083,-0.028234,-0.011455,0.20646,-0.0095377,-0.035561,0.012075,0.10121,-0.30057,-0.034089,0.031313,0.19561,-0.63248,-0.17483,-0.085483,-0.1281,-0.075614,0.00011107,0.66991,0.0384,0.48781,0.21058,-0.092929
0.017397,0.036853,-0.030645,-0.019996,0.2405,0.021366,-0.027893,0.014353,0.11153,-0.25105,-0.023213,0.042876,0.14063,-0.72613,-0.24007,-0.094031,-0.17163,-0.12939,-0.22509,0.63274,0.014359,0.45433,0.22077,-0.090225
0.022573,0.03822,-0.033384,-0.024384,0.27215,0.042831,-0.015481,0.025721,0.12015,-0.20442,-0.013239,0.053608,0.092108,-0.79123,-0.29441,-0.080182,-0.20686,-0.17502,-0.38896,0.50875,-0.018467,0.39451,0.19318,-0.099807
0.025265,0.043446,-0.037764,-0.024336,0.29249,0.051605,-0.0056219,0.037876,0.12013,-0.1718,-0.0052585,0.061282,0.051849,-0.8083,-0.32965,-0.026031,-0.22937,-0.20359,-0.47524,0.31318,-0.051764,0.31525,0.14588,-0.12059
0.02448,0.049801,-0.044524,-0.023019,0.29504,0.049042,-0.0061983,0.043663,0.10809,-0.15165,-0.00081675,0.062197,0.023665,-0.79531,-0.34057,0.065387,-0.23667,-0.21189,-0.48886,0.069806,-0.077919,0.24494,0.10323,-0.14546
0.021876,0.051955,-0.05239,-0.024156,0.27795,0.037591,-0.020572,0.041142,0.086558,-0.13468,-0.00057695,0.05373,0.0098186,-0.79049,-0.32878,0.16599,-0.22993,-0.20555,-0.45604,-0.18542,-0.094092,0.22393,0.080411,-0.16295
0.020243,0.046001,-0.057832,-0.028835,0.24353,0.017158,-0.045129,0.033021,0.062796,-0.11339,-0.0030418,0.037023,0.0050022,-0.82252,-0.30233,0.23231,-0.21331,-0.19479,-0.41197,-0.40661,-0.10346,0.27917,0.075931,-0.16475
0.021189,0.032946,-0.057241,-0.03478,0.19595,-0.014996,-0.071668,0.02248,0.044495,-0.087812,-0.0046615,0.017198,-0.0076219,-0.89336,-0.27109,0.22666,-0.19095,-0.18579,-0.38242,-0.55025,-0.11256,0.40067,0.076633,-0.15321
0.024086,0.018683,-0.050223,-0.03856,0.13898,-0.060491,-0.093071,0.0095788,0.035182,-0.063389,-0.0017151,0.00046218,-0.052945,-0.98455,-0.24152,0.13964,-0.16424,-0.17484,-0.37179,-0.59372,-0.12649,0.53995,0.069359,-0.14195
0.027077,0.01022,-0.040915,-0.038597,0.075811,-0.11547,-0.10794,-0.0083358,0.03245,-0.044634,0.0071697,-0.0099324,-0.1516,-1.0756,-0.21518,-0.00019241,-0.13197,-0.15104,-0.36599,-0.54962,-0.14541,0.63569,0.049289,-0.14799
0.029024,0.011051,-0.035548,-0.03628,0.01072,-0.16963,-0.12054,-0.032641,0.030201,-0.031013,0.01978,-0.015876,-0.30452,-1.1541,-0.19144,-0.13805,-0.093158,-0.10604,-0.34776,-0.46551,-0.16487,0.64965,0.019439,-0.18059
0.030473,0.019194,-0.037865,-0.034388,-0.049261,-0.20979,-0.13622,-0.059639,0.023203,-0.018476,0.031502,-0.023103,-0.48488,-1.2099,-0.17067,-0.22066,-0.050043,-0.042995,-0.3125,-0.40612,-0.17961,0.58714,-0.015664,-0.23501
0.032748,0.02915,-0.046288,-0.034464,-0.094896,-0.22587,-0.15604,-0.080663,0.010624,-0.0041905,0.038217,-0.037424,-0.64569,-1.2237,-0.15391,-0.2227,-0.0084401,0.02282,-0.27291,-0.42474,-0.18762,0.48771,-0.054601,-0.29523
0.036103,0.035814,-0.055378,-0.035542,-0.11807,-0.21534,-0.17514,-0.08645,-0.0039195,0.010598,0.038795,-0.061179,-0.74182,-1.1684,-0.13902,-0.15501,0.024879,0.072535,-0.25045,-0.53773,-0.19099,0.39585,-0.09757,-0.34314
0.038868,0.037181,-0.060378,-0.035245,-0.11614,-0.18414,-0.18616,-0.072606,-0.015501,0.022142,0.035414,-0.092184,-0.75391,-1.0286,-0.11779,-0.051267,0.045571,0.09494,-0.26132,-0.71465,-0.19274,0.33566,-0.14125,-0.36692
0.038591,0.03423,-0.060867,-0.032081,-0.094283,-0.14407,-0.18501,-0.042207,-0.021549,0.028179,0.03171,-0.12539,-0.69841,-0.82031,-0.078778,0.054157,0.053304,0.09197,-0.30726,-0.88866,-0.19246,0.30708,-0.17627,-0.36352
0.034303,0.029039,-0.060402,-0.026886,-0.06393,-0.10833,-0.1743,-0.0039985,-0.023202,0.030211,0.03042,-0.15573,-0.61552,-0.59329,-0.015198,0.13974,0.050901,0.075189,-0.37547,-0.98154,-0.18474,0.30023,-0.19074,-0.33541
0.02783,0.023257,-0.062631,-0.022252,-0.037635,-0.08681,-0.16172,0.031992,-0.023678,0.032117,0.032247,-0.18038,-0.54231,-0.40645,0.068173,0.19507,0.042588,0.057207,-0.44456,-0.93101,-0.1621,0.31013,-0.17719,-0.28611
0.022792,0.017911,-0.06749,-0.020542,-0.023506,-0.082785,-0.15476,0.05827,-0.025406,0.036957,0.036318,-0.19968,-0.49016,-0.29491,0.15547,0.21169,0.033148,0.045176,-0.49186,-0.70925,-0.12038,0.33731,-0.13686,-0.21858
0.021961,0.013712,-0.070927,-0.022097,-0.022574,-0.092229,-0.15586,0.071211,-0.028476,0.04529,0.04123,-0.21712,-0.44342,-0.25266,0.2282,0.1797,0.028068,0.040301,-0.49952,-0.32813,-0.062134,0.37795,-0.077749,-0.13674
0.025109,0.010751,-0.06841,-0.024967,-0.030658,-0.1069,-0.16142,0.070407,-0.031415,0.056194,0.045661,-0.23833,-0.38038,-0.24284,0.27545,0.094666,0.03305,0.041464,-0.46068,0.16622,0.0046237,0.41825,-0.0089334,-0.047298
0.029147,0.0077947,-0.059137,-0.026308,-0.042986,-0.12004,-0.16506,0.057644,-0.033144,0.069124,0.048502,-0.26924,-0.29938,-0.22531,0.29825,-0.033254,0.051547,0.048117,-0.38499,0.70524,0.071152,0.44243,0.063107,0.040441
0.03043,0.0025186,-0.047194,-0.024424,-0.057911,-0.13127,-0.16195,0.036419,-0.034061,0.084101,0.049173,-0.31274,-0.22791,-0.17946,0.30551,-0.17921,0.081338,0.059708,-0.29999,1.2145,0.13211,0.44714,0.13287,0.11687
0.027382,-0.0066649,-0.03859,-0.020023,-0.076922,-0.14691,-0.15107,0.011486,-0.035331,0.10009,0.048294,-0.36531,-0.20605,-0.10918,0.3057,-0.31448,0.11328,0.073308,-0.24385,1.6352,0.18609,0.44587,0.19125,0.17434
0.021391,-0.018472,-0.036641,-0.01578,-0.10138,-0.17474,-0.13433,-0.012353,-0.037216,0.11391,0.047864,-0.41576,-0.25674,-0.033699,0.30112,-0.41836,0.13475,0.083068,-0.25016,1.9449,0.23298,0.45619,0.2237,0.20842
0.015438,-0.028587,-0.039589,-0.014433,-0.12923,-0.2169,-0.1141,-0.031983,-0.038193,0.12174,0.050036,-0.44834,-0.36724,0.022723,0.2882,-0.48022,0.13682,0.083006,-0.33228,2.1659,0.27132,0.48053,0.21492,0.21892
0.011703,-0.032364,-0.04237,-0.016726,-0.15494,-0.26639,-0.091811,-0.046976,-0.035762,0.12252,0.054907,-0.4499,-0.49705,0.035258,0.26181,-0.49206,0.12043,0.070909,-0.47774,2.3506,0.29828,0.49921,0.15751,0.2115
0.010055,-0.028611,-0.040829,-0.020724,-0.17296,-0.31026,-0.068325,-0.058898,-0.028367,0.11995,0.059224,-0.41731,-0.60569,-0.018501,0.21953,-0.44332,0.096527,0.04981,-0.65757,2.5443,0.31162,0.48333,0.058603,0.19838
0.0084886,-0.02126,-0.034704,-0.023094,-0.18195,-0.3375,-0.045052,-0.069424,-0.016914,0.12075,0.057804,-0.36029,-0.67781,-0.15001,0.16315,-0.32864,0.07901,0.025652,-0.84451,2.7498,0.31133,0.41632,-0.060935,0.19551
0.0049662,-0.017124,-0.027025,-0.021421,-0.18586,-0.34572,-0.024068,-0.078867,-0.0046614,0.13017,0.047362,-0.2967,-0.72647,-0.34756,0.09815,-0.16462,0.075088,0.0032018,-1.0266,2.9183,0.29935,0.30488,-0.17422,0.21549
-0.00088033,-0.021075,-0.020957,-0.015837,-0.19073,-0.34203,-0.0069088,-0.086263,0.0045275,0.14809,0.030048,-0.24279,-0.77439,-0.57211,0.032473,0.0016068,0.080236,-0.016389,-1.2053,2.9796,0.27845,0.17126,-0.25791,0.26035
-0.0074573,-0.032242,-0.017241,-0.0087553,-0.19935,-0.33775,0.0065723,-0.090583,0.0084553,0.16902,0.013544,-0.20447,-0.83083,-0.77046,-0.024993,0.10721,0.081961,-0.034616,-1.3796,2.8918,0.25223,0.036992,-0.29812,0.32037
-0.012402,-0.044258,-0.014433,-0.0030549,-0.20794,-0.34104,0.017783,-0.091634,0.0077975,0.18602,0.0068759,-0.17589,-0.88286,-0.90102,-0.066628,0.10806,0.069925,-0.052381,-1.5293,2.6763,0.22642,-0.085424,-0.29083,0.3811
-0.014208,-0.04957,-0.011127,-0.00023506,-0.20746,-0.35226,0.027559,-0.089769,0.0053303,0.19564,0.014467,-0.14604,-0.90612,-0.95392,-0.088791,0.0098225,0.044844,-0.067251,-1.6126,2.4112,0.20913,-0.18747,-0.2395,0.43339
-0.013064,-0.044734,-0.0075223,0.00011218,-0.1891,-0.36461,0.034863,-0.084995,0.0036684,0.1999,0.032693,-0.10852,-0.88373,-0.94949,-0.093375,-0.12926,0.019207,-0.073386,-1.5838,2.1889,0.20805,-0.25626,-0.15321,0.47792
-0.010466,-0.032823,-0.0047185,-0.00058519,-0.15024,-0.36868,0.037707,-0.0768,0.0032583,0.20392,0.051769,-0.066804,-0.81794,-0.91651,-0.086899,-0.2294,0.0090055,-0.064434,-1.4189,2.0671,0.22543,-0.27651,-0.046807,0.52005
-0.008129,-0.021185,-0.0027998,-0.0011351,-0.097216,-0.3579,0.035806,-0.065211,0.0023364,0.21082,0.061988,-0.030978,-0.7274,-0.86944,-0.077842,-0.23466,0.0225,-0.037753,-1.1325,2.0451,0.25504,-0.24409,0.059557,0.56044
-0.0071248,-0.016254,-0.00016269,-0.0011226,-0.043096,-0.33159,0.032309,-0.052099,-0.0010076,0.21804,0.060066,-0.0089331,-0.63516,-0.80465,-0.074407,-0.14264,0.054275,0.002617,-0.7736,2.0745,0.28433,-0.17767,0.14405,0.59111
-0.0076968,-0.019295,0.0048808,-0.000577,-0.0016607,-0.29442,0.032428,-0.041149,-0.0064704,0.21824,0.050991,0.00076084,-0.55787,-0.71814,-0.083981,-0.00025017,0.088803,0.046514,-0.40405,2.0883,0.30089,-0.11394,0.19013,0.60182
-0.0095275,-0.026142,0.011808,0.00052941,0.018994,-0.25292,0.039594,-0.035952,-0.011158,0.20505,0.043935,0.0083706,-0.50229,-0.62581,-0.11294,0.12771,0.11066,0.082186,-0.0735,2.0279,0.29852,-0.086584,0.19282,0.59097
-0.011955,-0.030826,0.017502,0.0022759,0.019797,-0.2114,0.052438,-0.037522,-0.011793,0.17916,0.045155,0.025451,-0.46827,-0.56297,-0.16435,0.19401,0.11397,0.1026,0.19403,1.8567,0.2785,-0.10493,0.15977,0.56968
-0.013992,-0.030023,0.018613,0.0043576,0.0091039,-0.16987,0.065484,-0.043377,-0.0076513,0.14991,0.053207,0.056524,-0.45277,-0.55771,-0.23337,0.18705,0.10454,0.10953,0.39857,1.562,0.24593,-0.15014,0.10536,0.55357
-0.014461,-0.024854,0.014722,0.00589,-0.0030343,-0.12536,0.073186,-0.049445,-0.0015372,0.1299,0.060175,0.096671,-0.45128,-0.59826,-0.30378,0.12636,0.094112,0.1123,0.55378,1.1559,0.20489,-0.19202,0.042047,0.54844
-0.012604,-0.019058,0.009348,0.0059098,-0.011494,-0.075648,0.073805,-0.053805,0.0021973,0.12639,0.058015,0.13657,-0.45701,-0.62503,-0.35061,0.045668,0.091455,0.12142,0.67658,0.67303,0.15666,-0.21245,-0.025094,0.54316
-0.0089027,-0.015615,0.0076823,0.0042585,-0.019388,-0.022574,0.069738,-0.059573,0.00088394,0.13606,0.045051,0.17041,-0.46057,-0.56132,-0.35032,-0.023316,0.096954,0.14141,0.78114,0.16305,0.10154,-0.2163,-0.096922,0.51783
-0.0053664,-0.014878,0.012812,0.0020397,-0.03538,0.027785,0.064319,-0.074367,-0.0047745,0.14765,0.027419,0.20013,-0.45246,-0.36508,-0.29363,-0.060355,0.10399,0.16774,0.8758,-0.32526,0.041743,-0.22251,-0.1739,0.462
-0.0046593,-0.01545,0.023523,0.0011406,-0.06601,0.06852,0.058425,-0.10598,-0.011787,0.15075,0.014338,0.23284,-0.42772,-0.063418,-0.19274,-0.060903,0.10495,0.19003,0.96093,-0.76003,-0.017606,-0.24434,-0.25075,0.38828
-0.0083794,-0.016323,0.035314,0.0030939,-0.10778,0.09638,0.050258,-0.15663,-0.017348,0.1435,0.011122,0.27421,-0.38966,0.2588,-0.076781,-0.037331,0.096733,0.19896,1.0288,-1.1303,-0.070108,-0.27589,-0.31665,0.32889
-0.015699,-0.017867,0.043538,0.0080947,-0.14499,0.11372,0.03829,-0.21961,-0.020274,0.13303,0.015691,0.32343,-0.34942,0.51072,0.022616,-0.015434,0.081698,0.19167,1.0684,-1.434,-0.1106,-0.29524,-0.36065,0.31584
-0.023571,-0.020789,0.046081,0.01483,-0.15618,0.12605,0.023987,-0.28085,-0.020393,0.12823,0.021245,0.37364,-0.32023,0.65014,0.086711,-0.023438,0.064314,0.17228,1.0745,-1.6606,-0.13682,-0.28052,-0.37784,0.35832
-0.028609,-0.024474,0.04379,0.021166,-0.12649,0.13701,0.011068,-0.32474,-0.017153,0.1311,0.022513,0.417,-0.30971,0.70127,0.11616,-0.07616,0.047266,0.1481,1.0549,-1.7849,-0.14955,-0.22614,-0.37161,0.43339
-0.029345,-0.02674,0.039032,0.025232,-0.058191,0.14486,0.0016676,-0.34096,-0.009442,0.13389,0.020074,0.44998,-0.31562,0.72564,0.12531,-0.16379,0.03048,0.12511,1.0282,-1.782,-0.152,-0.14754,-0.3507,0.49713
-0.027139,-0.025424,0.0341,0.02628,0.027861,0.1442,-0.006653,-0.32817,0.0028961,0.12416,0.01923,0.47458,-0.32926,0.77381,0.12969,-0.25477,0.013405,0.10622,1.0122,-1.6496,-0.14852,-0.072063,-0.32368,0.50923
-0.024961,-0.020253,0.03066,0.024942,0.10207,0.13203,-0.019364,-0.29298,0.017487,0.093672,0.024848,0.49514,-0.34454,0.85844,0.13643,-0.31284,-0.0023113,0.09239,1.0083,-1.42,-0.14302,-0.02303,-0.29454,0.4555
-0.024944,-0.013097,0.029876,0.022763,0.14177,0.11389,-0.039396,-0.24538,0.029836,0.044209,0.036947,0.51384,-0.36526,0.96634,0.14378,-0.31727,-0.012822,0.084232,0.99759,-1.1481,-0.13728,-0.0076431,-0.26161,0.35448
-0.026638,-0.0063825,0.032146,0.021236,0.143,0.10461,-0.062345,-0.19401,0.036013,-0.013496,0.050648,0.52851,-0.40302,1.0901,0.14776,-0.27217,-0.015065,0.081866,0.951,-0.88413,-0.13035,-0.015617,-0.21978,0.24523
-0.027357,-0.001224,0.036258,0.02086,0.12079,0.12194,-0.077368,-0.14367,0.035548,-0.06622,0.059968,0.53418,-0.46567,1.242,0.1486,-0.19948,-0.010043,0.08313,0.84923,-0.65548,-0.12003,-0.028447,-0.16422,0.16483
-0.024392,0.0029328,0.039188,0.020877,0.097647,0.17637,-0.074023,-0.095915,0.031969,-0.10507,0.061699,0.52653,-0.54517,1.4336,0.15093,-0.12309,-0.00324,0.082774,0.69734,-0.47147,-0.10559,-0.032523,-0.093645,0.12954
-0.017347,0.0069459,0.037759,0.019995,0.088271,0.26376,-0.049891,-0.051087,0.030189,-0.12848,0.05619,0.50438,-0.61597,1.6401,0.15835,-0.057518,-0.001441,0.074756,0.52377,-0.3454,-0.089712,-0.027114,-0.011568,0.12999
-0.0087814,0.01035,0.031559,0.017677,0.09074,0.36566,-0.012553,-0.0099141,0.032641,-0.1405,0.045267,0.4695,-0.64793,1.7888,0.16849,-0.0080338,-0.0083249,0.056788,0.36542,-0.30919,-0.077321,-0.021807,0.074853,0.14118
-0.002629,0.0112,0.024519,0.014962,0.090106,0.45753,0.026026,0.026466,0.037173,-0.14681,0.030139,0.42444,-0.62511,1.7927,0.17387,0.021929,-0.022225,0.033457,0.2504,-0.40096,-0.071801,-0.025689,0.15775,0.13937
-0.0015701,0.0077767,0.022902,0.01392,0.071255,0.52025,0.058202,0.057541,0.038349,-0.15121,0.0116,0.37013,-0.55671,1.6074,0.16789,0.02693,-0.037713,0.014478,0.18947,-0.63028,-0.071317,-0.037222,0.23163,0.11509
-0.0053263,0.00082606,0.030377,0.015932,0.03128,0.54854,0.085143,0.084128,0.031123,-0.15464,-0.0081116,0.30505,-0.47148,1.2653,0.1501,0.0048928,-0.049667,0.00837,0.17833,-0.94845,-0.068573,-0.043921,0.29487,0.075534
