-8.4311e-010,-1.3505e-011,2.047e-009,1.4991e-009,-3.058e-009,-5.6239e-009,7.9294e-010,8.0857e-009,1.1634e-009,9.7816e-010,1.8078e-009,4.4953e-010,-2.063e-008,7.8079e-009,1.0611e-010,-1.0052e-009,2.7377e-009,3.8914e-009,1.0746e-009,-3.4824e-009,7.6208e-010,5.1995e-009,3.0232e-009,-5.9866e-009
-2.3418e-008,-4.2722e-010,5.625e-008,4.1417e-008,-8.4992e-008,-1.5477e-007,2.1599e-008,2.2201e-007,3.2715e-008,2.7169e-008,4.9681e-008,1.2584e-008,-5.7009e-007,2.1534e-007,2.7007e-009,-2.8259e-008,7.5336e-008,1.0747e-007,2.943e-008,-9.4854e-008,2.173e-008,1.4425e-007,8.3886e-008,-1.6414e-007
-3.1634e-007,-6.2668e-009,7.5128e-007,5.5608e-007,-1.1486e-006,-2.0692e-006,2.8598e-007,2.9604e-006,4.4758e-007,3.6675e-007,6.6354e-007,1.7142e-007,-7.6576e-006,2.8849e-006,3.2888e-008,-3.8644e-007,1.0074e-006,1.4427e-006,3.9154e-007,-1.2536e-006,3.0256e-007,1.9463e-006,1.1328e-006,-2.1844e-006
-2.769e-006,-5.7147e-008,6.4978e-006,4.8335e-006,-1.0055e-005,-1.7902e-005,2.4518e-006,2.5536e-005,3.9693e-006,3.2056e-006,5.738e-006,1.5141e-006,-6.6609e-005,2.5006e-005,2.5389e-007,-3.4246e-006,8.7212e-006,1.254e-005,3.371e-006,-1.0706e-005,2.7422e-006,1.7019e-005,9.9207e-006,-1.8789e-005
-1.7654e-005,-3.6421e-007,4.0905e-005,3.0569e-005,-6.4088e-005,-0.00011264,1.5295e-005,0.00016012,2.5648e-005,2.0393e-005,3.6107e-005,9.7482e-006,-0.00042169,0.00015757,1.3844e-006,-2.2103e-005,5.4928e-005,7.932e-005,2.1104e-005,-6.6385e-005,1.8197e-005,0.00010841,6.3343e-005,-0.00011735
-8.735e-005,-1.7186e-006,0.00019971,0.00014986,-0.00031694,-0.00054909,7.3937e-005,0.00077731,0.00012867,0.00010061,0.00017614,4.8761e-005,-0.0020701,0.00076857,5.5983e-006,-0.00011069,0.00026814,0.00038902,0.00010232,-0.00031826,9.4275e-005,0.00053608,0.00031425,-0.00056658
-0.00034894,-6.1508e-006,0.00078665,0.00059234,-0.0012651,-0.0021563,0.00028793,0.0030375,0.00052143,0.00040052,0.00069292,0.00019718,-0.0081965,0.0030166,1.6973e-005,-0.00044727,0.0010552,0.0015386,0.00039945,-0.0012262,0.00039707,0.0021412,0.0012606,-0.0021976
-0.0011557,-1.6531e-005,0.0025672,0.0019381,-0.0041857,-0.0070021,0.00092631,0.0098044,0.0017529,0.0013213,0.0022566,0.0006622,-0.026874,0.0097719,3.7039e-005,-0.0014967,0.0034361,0.0050388,0.0012881,-0.0038948,0.0013977,0.007096,0.0042,-0.0070215
-0.0032329,-3.0569e-005,0.0070715,0.0053466,-0.011697,-0.019141,0.0025023,0.026602,0.0049804,0.0036809,0.0061958,0.0018825,-0.074315,0.026569,4.6407e-005,-0.0042213,0.0094296,0.013915,0.0034902,-0.010374,0.004195,0.019884,0.011848,-0.018786
-0.0077398,-2.1125e-005,0.01666,0.012597,-0.027977,-0.044586,0.0057278,0.061378,0.012121,0.0087773,0.014524,0.0045928,-0.17556,0.061271,-3.3227e-005,-0.010152,0.022085,0.032823,0.0080337,-0.02342,0.010895,0.047759,0.028691,-0.042508
-0.016002,0.00010233,0.033879,0.025573,-0.05783,-0.089175,0.011125,0.12124,0.025506,0.018093,0.029313,0.0097133,-0.35735,0.1204,-0.00037676,-0.020951,0.044516,0.066701,0.015791,-0.04506,0.024762,0.0993,0.060259,-0.081674
-0.028736,0.00053821,0.05982,0.044973,-0.10398,-0.15367,0.018153,0.20537,0.046694,0.032471,0.051161,0.017932,-0.62994,0.20121,-0.0012265,-0.037142,0.077588,0.11736,0.026474,-0.073848,0.049668,0.17995,0.11057,-0.13288
-0.044936,0.0016005,0.09199,0.068677,-0.16329,-0.22787,0.024049,0.29705,0.074629,0.050996,0.077263,0.02903,-0.96318,0.28251,-0.0027094,-0.056198,0.11708,0.1791,0.037447,-0.1022,0.088479,0.28544,0.17817,-0.18068
-0.061157,0.0036353,0.12322,0.091011,-0.22446,-0.2886,0.023115,0.36182,0.10422,0.070385,0.10053,0.041304,-1.2746,0.3223,-0.004498,-0.071185,0.15253,0.2365,0.043297,-0.11665,0.1406,0.39712,0.25295,-0.19858
-0.072153,0.0068366,0.14339,0.10429,-0.27038,-0.3066,0.0074394,0.35876,0.12697,0.085817,0.11142,0.051667,-1.4502,0.27109,-0.0055243,-0.071786,0.17028,0.26844,0.037217,-0.10328,0.19984,0.48451,0.31708,-0.16114
-0.073237,0.011057,0.14428,0.10278,-0.28594,-0.26229,-0.030346,0.26423,0.13456,0.093332,0.10267,0.056764,-1.4012,0.10098,-0.0041322,-0.048878,0.16067,0.25857,0.014242,-0.057212,0.25436,0.51747,0.35152,-0.064554
-0.06334,0.015786,0.12508,0.086872,-0.26725,-0.16153,-0.092968,0.09452,0.12391,0.092482,0.074552,0.054738,-1.1296,-0.16432,0.0010732,-0.001315,0.12547,0.20712,-0.025286,0.0098679,0.28985,0.48252,0.34577,0.057547
-0.046578,0.020392,0.09443,0.064204,-0.22495,-0.038381,-0.17506,-0.0919,0.10034,0.087011,0.036611,0.046551,-0.75158,-0.44307,0.0099555,0.059285,0.079353,0.13462,-0.074616,0.07114,0.29521,0.39249,0.30423,0.14024
-0.030551,0.024511,0.066405,0.045756,-0.17671,0.062194,-0.26275,-0.22212,0.075621,0.082394,0.003368,0.035735,-0.44562,-0.6279,0.020029,0.11058,0.04235,0.071872,-0.1234,0.097153,0.2679,0.2801,0.24382,0.12084
-0.021798,0.028263,0.052131,0.038925,-0.13232,0.11263,-0.3374,-0.25307,0.061018,0.081656,-0.014104,0.026438,-0.34642,-0.64511,0.026949,0.12972,0.02704,0.040871,-0.16296,0.072362,0.21529,0.17758,0.18294,-0.017212
-0.021394,0.032055,0.052797,0.0426,-0.082673,0.12135,-0.38228,-0.20141,0.05973,0.082899,-0.015005,0.020988,-0.45584,-0.50277,0.026287,0.10683,0.030052,0.040154,-0.19029,0.003682,0.15049,0.096066,0.12936,-0.22223
-0.024184,0.036104,0.059451,0.048343,-0.0031869,0.12511,-0.38876,-0.13354,0.064662,0.081035,-0.0086382,0.0188,-0.6415,-0.2904,0.015395,0.052951,0.035309,0.04717,-0.20719,-0.08631,0.084767,0.020796,0.0761,-0.39665
-0.02271,0.040139,0.06001,0.04711,0.12807,0.15907,-0.3588,-0.11979,0.063796,0.072604,-0.0070339,0.017495,-0.73065,-0.12499,-0.0060425,-0.0045721,0.027315,0.037099,-0.21521,-0.17687,0.021665,-0.073397,0.0086535,-0.45437
-0.013079,0.043597,0.048124,0.036158,0.31031,0.22823,-0.30214,-0.18609,0.049433,0.059315,-0.015974,0.015307,-0.63027,-0.079765,-0.037091,-0.037504,0.0038634,0.0033984,-0.21056,-0.26346,-0.0426,-0.19809,-0.082058,-0.37322
0.0018287,0.046091,0.027034,0.020561,0.51387,0.30438,-0.23019,-0.30026,0.024075,0.046726,-0.031447,0.012643,-0.38132,-0.14679,-0.076952,-0.033136,-0.022547,-0.037158,-0.1838,-0.35747,-0.11214,-0.33761,-0.19084,-0.20241
0.014539,0.047624,0.0058712,0.0082934,0.69397,0.35106,-0.15073,-0.40236,-0.0018262,0.038977,-0.043987,0.011393,-0.1093,-0.25805,-0.12493,-0.00029153,-0.035772,-0.059324,-0.12555,-0.47214,-0.18274,-0.4561,-0.29948,-0.019049
0.018904,0.048246,-0.0079179,0.0034237,0.81464,0.35472,-0.067042,-0.45253,-0.018314,0.034634,-0.046796,0.012588,0.081198,-0.34334,-0.1786,0.038869,-0.029777,-0.051136,-0.033823,-0.60679,-0.23866,-0.51891,-0.38585,0.1309
0.014979,0.047624,-0.013574,0.0033232,0.86538,0.33452,0.018381,-0.45695,-0.023483,0.028047,-0.040763,0.014645,0.17826,-0.37643,-0.23185,0.06431,-0.01312,-0.023606,0.082801,-0.74222,-0.25883,-0.51201,-0.43355,0.25895
0.0089309,0.045215,-0.015921,0.0019631,0.85987,0.32346,0.099283,-0.45316,-0.024027,0.015327,-0.032758,0.013992,0.2477,-0.37612,-0.27498,0.06893,-0.00079595,-0.00049702,0.20898,-0.84975,-0.22969,-0.44688,-0.43657,0.40778
0.0081462,0.041065,-0.020188,-0.0041533,0.82093,0.33917,0.16516,-0.4719,-0.028828,-0.00085224,-0.029585,0.0077142,0.35726,-0.3705,-0.29775,0.057674,-0.0014396,0.0017775,0.33032,-0.90568,-0.15627,-0.35212,-0.39897,0.59769
0.015621,0.03639,-0.027773,-0.012966,0.76571,0.37152,0.20668,-0.5107,-0.041496,-0.012752,-0.033213,-0.0040059,0.51416,-0.36293,-0.29365,0.038148,-0.011492,-0.014068,0.43884,-0.90071,-0.063356,-0.26144,-0.33254,0.79419
0.028093,0.032988,-0.036188,-0.019275,0.70159,0.39712,0.22349,-0.54076,-0.058163,-0.014471,-0.040814,-0.017774,0.66831,-0.33122,-0.26267,0.012512,-0.020777,-0.032171,0.53236,-0.84047,0.01547,-0.20602,-0.25427,0.92533
0.03907,0.031734,-0.042168,-0.02,0.63172,0.40541,0.22737,-0.53719,-0.071776,-0.007835,-0.048376,-0.029267,0.76855,-0.25724,-0.21097,-0.022186,-0.023293,-0.040056,0.60943,-0.74115,0.054844,-0.20979,-0.1825,0.93385
0.043913,0.031613,-0.044562,-0.017253,0.56103,0.41101,0.23664,-0.50311,-0.078402,-0.0014693,-0.053889,-0.035971,0.81285,-0.15561,-0.1481,-0.066787,-0.022843,-0.039818,0.66555,-0.62563,0.050143,-0.28252,-0.13089,0.82017
0.042795,0.030589,-0.044803,-0.016458,0.49573,0.44067,0.26441,-0.46599,-0.079875,-0.003662,-0.057494,-0.038223,0.84626,-0.072308,-0.083487,-0.1139,-0.028798,-0.044564,0.69517,-0.521,0.01777,-0.41051,-0.10288,0.64156
0.039584,0.027828,-0.045571,-0.021501,0.43836,0.50744,0.3093,-0.45196,-0.08104,-0.015589,-0.059547,-0.038074,0.91265,-0.053224,-0.024193,-0.1495,-0.046725,-0.065067,0.69844,-0.45368,-0.016567,-0.55378,-0.09112,0.47085
0.03823,0.025162,-0.049446,-0.031486,0.38579,0.59575,0.35656,-0.46277,-0.084824,-0.031093,-0.05937,-0.037277,1.0085,-0.11008,0.026037,-0.16118,-0.072822,-0.099657,0.68634,-0.43991,-0.033497,-0.65899,-0.084238,0.34944
0.04003,0.026001,-0.05824,-0.041971,0.33371,0.67053,0.38954,-0.47618,-0.089882,-0.042846,-0.056123,-0.036134,1.081,-0.21249,0.066662,-0.1461,-0.096793,-0.13572,0.67824,-0.47508,-0.029431,-0.68599,-0.076512,0.26969
0.043773,0.032187,-0.072305,-0.04918,0.28309,0.70174,0.40293,-0.46754,-0.092514,-0.048775,-0.050533,-0.033864,1.0708,-0.31151,0.099542,-0.11197,-0.10981,-0.15968,0.69119,-0.53013,-0.01458,-0.6315,-0.072955,0.19401
0.047895,0.041543,-0.089463,-0.053,0.24073,0.68353,0.40715,-0.43197,-0.090479,-0.052787,-0.045164,-0.029808,0.96146,-0.37362,0.12731,-0.071213,-0.11021,-0.16576,0.72803,-0.56128,-0.0023725,-0.53144,-0.085106,0.089382
0.052123,0.04863,-0.10474,-0.056006,0.21185,0.63338,0.42019,-0.38753,-0.084931,-0.059746,-0.042546,-0.024306,0.79648,-0.39758,0.15119,-0.033938,-0.10256,-0.15691,0.77333,-0.53078,0.0015018,-0.43774,-0.12066,-0.050597
0.057037,0.048572,-0.11248,-0.059898,0.19202,0.57536,0.4537,-0.35829,-0.079037,-0.070107,-0.042875,-0.018664,0.65306,-0.4035,0.16937,-0.0056841,-0.092418,-0.13983,0.80138,-0.42727,0.0029967,-0.38598,-0.17541,-0.20705
0.062379,0.040884,-0.11025,-0.063287,0.16797,0.52318,0.50451,-0.35354,-0.075116,-0.079445,-0.043675,-0.014427,0.59546,-0.40692,0.1773,0.010018,-0.082135,-0.12013,0.79137,-0.27206,0.014901,-0.37854,-0.23416,-0.35128
0.066272,0.02993,-0.10158,-0.063311,0.12908,0.47655,0.55802,-0.36033,-0.073159,-0.082851,-0.041969,-0.012597,0.64014,-0.40114,0.17017,0.0089834,-0.071114,-0.10157,0.73878,-0.10557,0.047831,-0.39487,-0.27952,-0.45842
0.066489,0.021353,-0.094239,-0.059351,0.080168,0.43043,0.59923,-0.35326,-0.071744,-0.07949,-0.037003,-0.01325,0.75086,-0.36153,0.14615,-0.011952,-0.059034,-0.087521,0.65501,0.038069,0.10378,-0.4178,-0.30127,-0.51245
0.062625,0.01735,-0.094548,-0.054666,0.043059,0.38616,0.62121,-0.31047,-0.069853,-0.072945,-0.030919,-0.01559,0.86057,-0.26681,0.10805,-0.04985,-0.047906,-0.080946,0.55602,0.15103,0.17629,-0.45091,-0.29932,-0.50698
0.056921,0.014861,-0.10208,-0.05374,0.042857,0.35355,0.62432,-0.22309,-0.067521,-0.067579,-0.026688,-0.018295,0.90469,-0.11987,0.062108,-0.09289,-0.040795,-0.0821,0.44978,0.25202,0.256,-0.51136,-0.27968,-0.44762
0.052635,0.0083704,-0.10955,-0.057681,0.088646,0.34307,0.60876,-0.094063,-0.064851,-0.064916,-0.025258,-0.020009,0.84943,0.047488,0.014966,-0.12455,-0.038763,-0.086756,0.33267,0.36704,0.33673,-0.60544,-0.24877,-0.35482
0.051322,-0.0049263,-0.10868,-0.062505,0.16401,0.35593,0.5692,0.067299,-0.060868,-0.063473,-0.024721,-0.019905,0.70381,0.18916,-0.028727,-0.13309,-0.039375,-0.088031,0.19735,0.50635,0.41718,-0.71067,-0.21155,-0.26003
0.051562,-0.02201,-0.097236,-0.062588,0.23547,0.38118,0.49766,0.24814,-0.053864,-0.061535,-0.022333,-0.018133,0.51095,0.26976,-0.06605,-0.11888,-0.038349,-0.081131,0.044467,0.65663,0.49719,-0.78203,-0.174,-0.19272
0.050395,-0.035768,-0.081225,-0.056294,0.27251,0.40195,0.39172,0.43159,-0.043216,-0.059482,-0.017374,-0.015835,0.3233,0.28549,-0.093389,-0.09303,-0.032822,-0.066986,-0.11279,0.79478,0.57212,-0.77841,-0.14511,-0.16471
0.046202,-0.040266,-0.070068,-0.048164,0.26398,0.40524,0.25999,0.59768,-0.030924,-0.059199,-0.011888,-0.014459,0.17603,0.2685,-0.10449,-0.067814,-0.02333,-0.051319,-0.25589,0.91147,0.63065,-0.6869,-0.13384,-0.16344
0.040341,-0.035273,-0.068939,-0.045089,0.21955,0.38768,0.11916,0.72857,-0.021085,-0.061501,-0.0084313,-0.014648,0.075126,0.27114,-0.091693,-0.046823,-0.013125,-0.039861,-0.37443,1.0237,0.6593,-0.52521,-0.14183,-0.16019
0.035971,-0.026395,-0.074866,-0.0498,0.15763,0.35386,-0.014229,0.81466,-0.017305,-0.064632,-0.0070702,-0.015539,0.0074051,0.3368,-0.050516,-0.023385,-0.0058604,-0.034025,-0.47446,1.1641,0.65104,-0.32232,-0.15784,-0.128
0.035138,-0.020911,-0.079831,-0.057926,0.091163,0.31039,-0.1294,0.85579,-0.019947,-0.065597,-0.0048448,-0.015322,-0.03752,0.47329,0.015368,0.011088,-0.0037262,-0.030891,-0.57393,1.3544,0.61158,-0.096165,-0.1602,-0.057438
0.036828,-0.022826,-0.077772,-0.061661,0.022251,0.26103,-0.21928,0.85619,-0.025478,-0.062983,0.0014372,-0.013001,-0.053034,0.64535,0.093008,0.056018,-0.0070679,-0.027264,-0.68806,1.5831,0.55756,0.15211,-0.1278,0.039095
0.037804,-0.030967,-0.069159,-0.056729,-0.052801,0.20628,-0.27521,0.81849,-0.028623,-0.058351,0.011677,-0.010107,-0.02169,0.79282,0.16489,0.097767,-0.014941,-0.023704,-0.81574,1.8043,0.50645,0.42406,-0.053201,0.13508
0.035417,-0.041102,-0.059422,-0.046106,-0.13547,0.1458,-0.28716,0.74373,-0.025891,-0.054801,0.021859,-0.010775,0.064835,0.86408,0.21717,0.11711,-0.025608,-0.024515,-0.93734,1.9594,0.46523,0.70503,0.051167,0.20311
0.02976,-0.049713,-0.053334,-0.037053,-0.22237,0.080447,-0.25327,0.63794,-0.017951,-0.054215,0.027295,-0.019673,0.19191,0.8432,0.24608,0.10277,-0.036785,-0.033619,-1.0258,2.0061,0.42639,0.95858,0.15822,0.22605
0.023179,-0.056158,-0.050882,-0.034387,-0.30928,0.011782,-0.19147,0.5186,-0.0091746,-0.05588,0.026816,-0.039019,0.32892,0.75289,0.2577,0.060712,-0.046228,-0.050303,-1.0631,1.9335,0.37481,1.1399,0.23976,0.20158
0.017723,-0.0619,-0.048175,-0.03638,-0.39589,-0.05949,-0.13981,0.41259,-0.0046744,-0.057562,0.023859,-0.066805,0.45279,0.63369,0.26147,0.012501,-0.05294,-0.069092,-1.0499,1.7566,0.30029,1.2173,0.2795,0.13967
0.013071,-0.068181,-0.041874,-0.036947,-0.48453,-0.13352,-0.139,0.34473,-0.0069353,-0.057647,0.023253,-0.097456,0.56848,0.51685,0.26216,-0.015465,-0.058228,-0.084172,-1.0042,1.4964,0.2057,1.1859,0.2779,0.055174
0.0070195,-0.074566,-0.032466,-0.031751,-0.57353,-0.20895,-0.20577,0.32438,-0.014378,-0.056112,0.026702,-0.12426,0.70948,0.41142,0.2569,-0.0038814,-0.065441,-0.094335,-0.94955,1.1625,0.10395,1.0654,0.2471,-0.040025
-0.0019319,-0.079493,-0.023358,-0.02233,-0.65252,-0.28065,-0.3172,0.34083,-0.02278,-0.053695,0.031374,-0.1417,0.91758,0.31161,0.23925,0.052788,-0.077996,-0.1037,-0.90358,0.75336,0.0062278,0.88953,0.20123,-0.1399
-0.012412,-0.081832,-0.017139,-0.01454,-0.70678,-0.34071,-0.42092,0.37139,-0.028409,-0.050626,0.033017,-0.14635,1.2161,0.21252,0.20685,0.14535,-0.096813,-0.11723,-0.87118,0.27306,-0.088997,0.6955,0.14964,-0.23936
-0.020592,-0.081721,-0.013101,-0.013083,-0.72961,-0.38375,-0.46782,0.39667,-0.030511,-0.046556,0.030625,-0.13641,1.5925,0.11752,0.16605,0.25128,-0.11901,-0.13496,-0.8454,-0.24748,-0.19685,0.52062,0.096963,-0.32494
-0.022923,-0.079987,-0.0084609,-0.017333,-0.73233,-0.41262,-0.44474,0.41164,-0.031298,-0.041704,0.027982,-0.11134,1.9975,0.031139,0.12943,0.33725,-0.13891,-0.15038,-0.81274,-0.7448,-0.33544,0.40028,0.047885,-0.37082
-0.018855,-0.077099,-0.0017842,-0.022052,-0.74211,-0.43958,-0.38305,0.42477,-0.033529,-0.037645,0.030325,-0.072282,2.3575,-0.052294,0.10788,0.36629,-0.1509,-0.15487,-0.75941,-1.1414,-0.51124,0.36112,0.011076,-0.34855
-0.011275,-0.072996,0.0051678,-0.021934,-0.78734,-0.4805,-0.33596,0.44735,-0.037693,-0.036436,0.039015,-0.023102,2.5965,-0.14971,0.10322,0.31224,-0.1523,-0.14465,-0.67706,-1.38,-0.71075,0.40939,-0.0020884,-0.24837
-0.0045493,-0.067986,0.0091835,-0.015717,-0.88156,-0.54553,-0.3414,0.48227,-0.041132,-0.038521,0.049199,0.02935,2.6612,-0.27556,0.10644,0.17744,-0.14445,-0.12441,-0.56665,-1.4523,-0.90435,0.52355,0.016685,-0.097031
-0.0019448,-0.063539,0.0091339,-0.0065495,-1.0186,-0.63316,-0.39855,0.52183,-0.039889,-0.041445,0.052951,0.076633,2.5451,-0.42427,0.10279,0.0011699,-0.13174,-0.10431,-0.43904,-1.3991,-1.0601,0.65968,0.066932,0.045797
-0.0043266,-0.061749,0.007549,0.0010384,-1.181,-0.73252,-0.47439,0.5553,-0.031814,-0.040989,0.045485,0.11142,2.2963,-0.565,0.080116,-0.15175,-0.11907,-0.092725,-0.31094,-1.282,-1.1589,0.76944,0.13846,0.11681
-0.010518,-0.063639,0.0084535,0.0044805,-1.3534,-0.83215,-0.533,0.57866,-0.018361,-0.03435,0.029321,0.13007,1.9993,-0.65562,0.035769,-0.22083,-0.10956,-0.090414,-0.19743,-1.1441,-1.2026,0.81914,0.21586,0.087236
-0.018365,-0.067885,0.013528,0.0042221,-1.5265,-0.92777,-0.56248,0.59745,-0.0035549,-0.023032,0.01292,0.1336,1.7335,-0.66688,-0.021739,-0.18182,-0.10343,-0.090562,-0.10502,-0.9893,-1.211,0.79807,0.28502,-0.017977
-0.025526,-0.071399,0.02044,0.0023896,-1.6907,-1.0221,-0.57859,0.62048,0.0091188,-0.012806,0.0049164,0.12656,1.5286,-0.59944,-0.07708,-0.060254,-0.098523,-0.084257,-0.029954,-0.79467,-1.2089,0.71308,0.33722,-0.13636
-0.02993,-0.071541,0.02504,0.00093886,-1.8261,-1.1166,-0.60435,0.65157,0.019455,-0.010094,0.0085153,0.11458,1.3487,-0.48204,-0.11647,0.082227,-0.091811,-0.066903,0.037238,-0.54647,-1.2128,0.57835,0.36871,-0.20947
-0.030386,-0.068085,0.025254,0.00087164,-1.9025,-1.2023,-0.64476,0.68773,0.03072,-0.016981,0.020137,0.10203,1.1185,-0.35238,-0.13552,0.17994,-0.081048,-0.040877,0.10481,-0.26842,-1.2221,0.41074,0.37773,-0.21899
-0.027362,-0.063137,0.022817,0.0024964,-1.8909,-1.2593,-0.67809,0.72542,0.047055,-0.028799,0.032772,0.091031,0.77533,-0.23422,-0.14159,0.19389,-0.06581,-0.013022,0.17585,-0.018237,-1.2222,0.23294,0.36275,-0.19069
-0.023178,-0.059045,0.02128,0.0057168,-1.7782,-1.2667,-0.66994,0.76668,0.069892,-0.036845,0.040997,0.081945,0.31171,-0.12501,-0.14808,0.12536,-0.047471,0.010575,0.24979,0.14687,-1.1947,0.075827,0.32407,-0.16531
-0.020973,-0.0563,0.022482,0.0098237,-1.5755,-1.2184,-0.59774,0.81653,0.095838,-0.034842,0.043894,0.074444,-0.22367,-0.00081517,-0.16368,0.0096056,-0.028124,0.028613,0.32659,0.20887,-1.1299,-0.028836,0.26736,-0.16248
-0.022818,-0.053458,0.025116,0.013321,-1.3134,-1.1308,-0.46655,0.87221,0.11751,-0.024172,0.044384,0.068116,-0.76344,0.16594,-0.18402,-0.10229,-0.0090277,0.04485,0.40816,0.20059,-1.0316,-0.064223,0.20508,-0.16777
-0.028315,-0.049126,0.0267,0.014505,-1.0305,-1.0365,-0.306,0.9153,0.12692,-0.013154,0.046259,0.062285,-1.2676,0.38674,-0.193,-0.16359,0.0104,0.064923,0.49456,0.18105,-0.91227,-0.040906,0.15299,-0.15176
-0.03484,-0.043874,0.026646,0.012621,-0.76284,-0.9675,-0.1531,0.91767,0.11954,-0.010339,0.051434,0.055669,-1.7424,0.6458,-0.17396,-0.14817,0.032123,0.092121,0.57816,0.19478,-0.78244,0.0063293,0.1228,-0.10205
-0.039315,-0.039945,0.027092,0.008537,-0.53741,-0.93757,-0.034158,0.8604,0.09681,-0.017248,0.058973,0.04676,-2.221,0.90188,-0.12276,-0.060139,0.05763,0.12489,0.64214,0.24839,-0.64383,0.037637,0.11599,-0.038731
-0.040155,-0.038927,0.0306,0.0041791,-0.36856,-0.93779,0.04431,0.75093,0.065512,-0.02697,0.065888,0.034934,-2.7235,1.1013,-0.052167,0.06616,0.085986,0.15751,0.66697,0.32154,-0.49194,0.030284,0.12376,-0.00013314
-0.038013,-0.039907,0.03723,0.0011586,-0.25599,-0.94653,0.09383,0.62301,0.034375,-0.030146,0.068755,0.021355,-3.2289,1.1964,0.016802,0.17895,0.11351,0.18318,0.64168,0.39921,-0.3267,-0.011731,0.134,-0.012395
-0.034961,-0.040316,0.044163,-0.00012146,-0.186,-0.94629,0.13583,0.51686,0.0096921,-0.023117,0.065392,0.0086477,-3.6759,1.1635,0.06996,0.2327,0.13562,0.19753,0.57126,0.49367,-0.16204,-0.06586,0.14033,-0.0702
-0.032961,-0.038787,0.048398,-0.00011585,-0.13881,-0.93486,0.19167,0.45371,-0.0073722,-0.010913,0.056126,-0.00060307,-3.9871,1.0145,0.10934,0.21198,0.14957,0.20023,0.47338,0.63505,-0.025512,-0.10839,0.14626,-0.1448
-0.03282,-0.036867,0.049668,0.00090364,-0.099871,-0.92341,0.2734,0.42334,-0.020139,-0.0024351,0.044179,-0.0053556,-4.0978,0.79715,0.14886,0.1404,0.15566,0.19394,0.36564,0.83855,0.054202,-0.12718,0.16091,-0.21041
-0.034187,-0.037348,0.050378,0.003284,-0.067883,-0.92472,0.37748,0.39264,-0.032982,-0.0024253,0.034581,-0.0063941,-3.973,0.58171,0.19966,0.066332,0.15602,0.18191,0.2527,1.079,0.064827,-0.12232,0.18979,-0.26432
-0.036243,-0.0406,0.052373,0.0072201,-0.052308,-0.94148,0.48452,0.32722,-0.047663,-0.0076419,0.031609,-0.0053518,-3.6131,0.43567,0.25732,0.032437,0.15198,0.16605,0.12339,1.2984,0.021357,-0.098738,0.2281,-0.32294
-0.038313,-0.04293,0.05392,0.011622,-0.061545,-0.964,0.56734,0.21,-0.062124,-0.010477,0.036005,-0.0035705,-3.0544,0.39607,0.30166,0.049179,0.14277,0.14687,-0.039298,1.4438,-0.03786,-0.059713,0.26252,-0.39903
-0.039998,-0.03936,0.050529,0.01413,-0.091104,-0.97806,0.60461,0.046178,-0.072486,-0.0062111,0.043987,-0.0018527,-2.3659,0.45339,0.30988,0.091108,0.12682,0.12477,-0.24286,1.5052,-0.068701,-0.0068709,0.28011,-0.48229
-0.040954,-0.028632,0.039615,0.012793,-0.12203,-0.97565,0.59209,-0.14433,-0.076401,0.0029858,0.049302,-0.0010263,-1.6384,0.55734,0.27287,0.11849,0.10458,0.10101,-0.4765,1.5221,-0.042512,0.055982,0.27739,-0.54178
-0.040777,-0.015477,0.024758,0.0081425,-0.13139,-0.95964,0.54361,-0.33813,-0.07495,0.010692,0.047294,-0.0022929,-0.96261,0.64284,0.20249,0.10772,0.079864,0.077285,-0.71566,1.5512,0.04156,0.12143,0.26223,-0.54814
-0.039189,-0.0074002,0.014835,0.0035297,-0.10631,-0.93909,0.48049,-0.51533,-0.071671,0.012515,0.038112,-0.0065988,-0.40219,0.66229,0.12448,0.067492,0.058164,0.054477,-0.93602,1.6195,0.16007,0.18223,0.24765,-0.49533
-0.036321,-0.0085147,0.017539,0.0028646,-0.050397,-0.92003,0.4174,-0.66082,-0.069804,0.0099575,0.026449,-0.013481,0.023056,0.60582,0.063101,0.02939,0.042896,0.032226,-1.1263,1.6998,0.28125,0.23665,0.24275,-0.40224
-0.032787,-0.016079,0.032374,0.0072942,0.021807,-0.90012,0.35534,-0.76359,-0.070182,0.0085886,0.017804,-0.020677,0.3329,0.49945,0.028561,0.02198,0.03299,0.01021,-1.2905,1.7275,0.38215,0.28927,0.24769,-0.29354
-0.029436,-0.023004,0.049618,0.013741,0.096548,-0.87163,0.2871,-0.81785,-0.071325,0.012699,0.014131,-0.025293,0.56595,0.38531,0.015362,0.049629,0.024031,-0.01003,-1.4392,1.6451,0.45587,0.34503,0.25536,-0.17808
-0.027035,-0.024024,0.057187,0.016975,0.16852,-0.82962,0.20977,-0.82643,-0.071189,0.021565,0.012396,-0.025864,0.75772,0.29819,0.010671,0.091729,0.01225,-0.024987,-1.5773,1.4419,0.50622,0.40117,0.25663,-0.045307
-0.026105,-0.019873,0.050299,0.013834,0.2393,-0.77764,0.13356,-0.8033,-0.068772,0.030474,0.0072361,-0.023588,0.93076,0.25169,0.0051622,0.12049,-0.0020191,-0.031737,-1.6969,1.1579,0.5368,0.44465,0.2442,0.11664
-0.026896,-0.015835,0.03572,0.0060802,0.31011,-0.72558,0.078954,-0.77131,-0.064324,0.035132,-0.0044609,-0.021487,1.0961,0.23885,-0.0014428,0.12134,-0.014369,-0.03123,-1.7799,0.85233,0.54528,0.45837,0.21304,0.29802
-0.029301,-0.016368,0.026522,-0.00076088,0.37691,-0.68163,0.064118,-0.75385,-0.058503,0.035201,-0.020851,-0.021947,1.255,0.24229,-0.0024701,0.10023,-0.019829,-0.028921,-1.8062,0.56282,0.52733,0.43245,0.15966,0.46209
-0.032655,-0.020945,0.031354,-0.0017701,0.4323,-0.64558,0.092048,-0.76373,-0.05166,0.033927,-0.036443,-0.024592,1.395,0.24578,0.0092113,0.075002,-0.016787,-0.03121,-1.7635,0.28755,0.48528,0.37161,0.083019,0.56486
-0.035708,-0.024738,0.047207,0.00342,0.47165,-0.60905,0.14681,-0.79566,-0.043944,0.034576,-0.046168,-0.026383,1.4843,0.24157,0.035284,0.060832,-0.0079906,-0.0401,-1.6516,0.0027079,0.43187,0.2929,-0.012727,0.58591
-0.03709,-0.023131,0.061787,0.010465,0.49685,-0.56205,0.20122,-0.82855,-0.035766,0.037225,-0.048759,-0.024026,1.4789,0.23151,0.06957,0.0618,0.0020491,-0.050767,-1.4818,-0.30293,0.38416,0.21529,-0.11667,0.54542
-0.03614,-0.01576,0.063439,0.013991,0.51407,-0.49936,0.23037,-0.83763,-0.027818,0.038889,-0.046843,-0.016756,1.3432,0.22296,0.09932,0.072895,0.010727,-0.054844,-1.272,-0.60653,0.35197,0.14928,-0.21372,0.4925
-0.033448,-0.0066207,0.050228,0.011898,0.52816,-0.42104,0.2222,-0.80956,-0.02054,0.036744,-0.04418,-0.0071179,1.0739,0.22196,0.10935,0.08683,0.018751,-0.047263,-1.0395,-0.86045,0.3304,0.094202,-0.29064,0.47234
-0.030537,-0.00064588,0.030865,0.0066743,0.53934,-0.32798,0.17985,-0.75045,-0.013709,0.031257,-0.042838,0.00099254,0.70534,0.22807,0.088216,0.097751,0.028189,-0.031082,-0.79536,-1.0224,0.30222,0.044285,-0.34154,0.49544
-0.028774,-4.5191e-005,0.017329,0.0029,0.5451,-0.21804,0.11655,-0.6813,-0.0067195,0.026144,-0.042705,0.0053931,0.29213,0.23503,0.034552,0.099494,0.039198,-0.015933,-0.54315,-1.0805,0.2477,-0.0027011,-0.36924,0.53094
-0.028408,-0.003356,0.015795,0.0033337,0.54472,-0.088416,0.048229,-0.62461,0.00070469,0.025024,-0.043215,0.0071104,-0.12063,0.23774,-0.039728,0.082852,0.048658,-0.011024,-0.28283,-1.0535,0.15399,-0.042137,-0.38239,0.52816
-0.028576,-0.0072935,0.02312,0.0069389,0.54158,0.057431,-0.011686,-0.59282,0.0082001,0.027877,-0.045037,0.0090185,-0.51386,0.24002,-0.11299,0.037547,0.052088,-0.018345,-0.017441,-0.97204,0.018963,-0.067488,-0.39081,0.45096
-0.02825,-0.0092167,0.03077,0.010215,0.541,0.20481,-0.05426,-0.58652,0.015172,0.030773,-0.049817,0.012894,-0.88672,0.25476,-0.16394,-0.040368,0.047162,-0.031733,0.24184,-0.8588,-0.14956,-0.078668,-0.40207,0.30242
-0.027198,-0.0082144,0.031985,0.01033,0.54599,0.3312,-0.076418,-0.60133,0.021374,0.029411,-0.058293,0.017599,-1.2345,0.29346,-0.18269,-0.14105,0.035648,-0.04257,0.47583,-0.72461,-0.33536,-0.08553,-0.41941,0.1252
-0.026002,-0.0046952,0.026208,0.0072863,0.55492,0.41694,-0.08359,-0.63447,0.026926,0.023403,-0.068951,0.020045,-1.5354,0.35194,-0.17554,-0.24001,0.022025,-0.047286,0.66188,-0.57726,-0.51488,-0.10212,-0.44032,-0.021083
-0.025189,0.00032689,0.018062,0.0035078,0.56276,0.45558,-0.091796,-0.68334,0.031836,0.01734,-0.0788,0.017951,-1.7616,0.40489,-0.15977,-0.30631,0.0099153,-0.05027,0.77887,-0.42838,-0.66062,-0.13562,-0.45613,-0.09049
-0.024474,0.0055011,0.012833,0.0015656,0.56377,0.45578,-0.12433,-0.7382,0.035817,0.017381,-0.085683,0.011795,-1.9027,0.41687,-0.15238,-0.3158,-0.00059344,-0.059728,0.80925,-0.28928,-0.74962,-0.17919,-0.45454,-0.072084
-0.023014,0.0093944,0.012585,0.0021552,0.55344,0.43359,-0.20031,-0.77818,0.03893,0.026053,-0.089833,0.0041539,-1.9796,0.36385,-0.16068,-0.26254,-0.012494,-0.080091,0.74001,-0.1613,-0.77378,-0.21541,-0.42581,0.0089575
-0.02049,0.011361,0.015489,0.0039087,0.52897,0.40199,-0.31947,-0.77881,0.04237,0.03963,-0.093116,-0.0027021,-2.0292,0.25033,-0.18036,-0.16269,-0.028637,-0.10748,0.567,-0.034082,-0.74422,-0.228,-0.36959,0.10925
-0.017786,0.012571,0.017895,0.0048701,0.49025,0.36616,-0.45429,-0.72753,0.048215,0.05031,-0.096655,-0.0084953,-2.0719,0.1093,-0.20006,-0.049191,-0.048391,-0.13209,0.30401,0.1033,-0.68441,-0.21246,-0.29682,0.19278
-0.016278,0.015861,0.016866,0.0041033,0.44179,0.32738,-0.55864,-0.63475,0.057809,0.051557,-0.099202,-0.014288,-2.09,-0.014901,-0.20742,0.040531,-0.066916,-0.14529,-0.009354,0.24782,-0.61553,-0.17729,-0.22402,0.24904
-0.016184,0.023777,0.011354,0.0020455,0.39374,0.29013,-0.59163,-0.52895,0.070108,0.042525,-0.097996,-0.020479,-2.0392,-0.088491,-0.19298,0.079195,-0.077722,-0.14541,-0.31123,0.37868,-0.54506,-0.1357,-0.16339,0.29308
-0.015622,0.036102,0.0019683,-0.00042551,0.3591,0.26439,-0.54247,-0.43729,0.081795,0.028465,-0.091477,-0.025897,-1.885,-0.10092,-0.15219,0.061036,-0.076721,-0.13749,-0.53679,0.46861,-0.46758,-0.096286,-0.11653,0.34797
-0.011692,0.049115,-0.0096496,-0.003036,0.34716,0.26006,-0.43881,-0.36591,0.089497,0.017118,-0.081345,-0.029203,-1.6334,-0.063224,-0.087692,0.0044079,-0.064923,-0.12801,-0.645,0.50007,-0.3763,-0.06081,-0.076778,0.42146
-0.0030302,0.057677,-0.02113,-0.0061454,0.35754,0.27811,-0.33087,-0.29619,0.092338,0.01385,-0.071905,-0.03103,-1.3282,0.002614,-0.011431,-0.057046,-0.047918,-0.11964,-0.63549,0.47226,-0.27459,-0.029789,-0.0379,0.4933
0.0083641,0.058714,-0.029667,-0.0098129,0.37974,0.30714,-0.26102,-0.20076,0.092407,0.018667,-0.066952,-0.034128,-1.0191,0.074119,0.056919,-0.091722,-0.032536,-0.11056,-0.54309,0.39511,-0.17656,-0.008431,-0.00066637,0.52292
0.017963,0.053332,-0.032968,-0.013038,0.39964,0.32923,-0.23918,-0.067576,0.092607,0.026687,-0.066785,-0.04069,-0.73166,0.1335,0.097312,-0.087063,-0.022932,-0.098057,-0.413,0.27915,-0.096029,-0.0055155,0.028586,0.47355
0.021893,0.045882,-0.030732,-0.014189,0.40827,0.33108,-0.24051,0.086949,0.093921,0.031382,-0.06801,-0.049321,-0.46508,0.16853,0.099333,-0.055896,-0.018639,-0.082239,-0.27467,0.1331,-0.034167,-0.025536,0.045671,0.33678
0.019921,0.040847,-0.025408,-0.01239,0.40621,0.31142,-0.22599,0.22616,0.094813,0.028528,-0.066467,-0.055116,-0.21745,0.17217,0.067804,-0.027449,-0.015678,-0.066092,-0.13269,-0.028955,0.02291,-0.06209,0.054458,0.14101
0.015592,0.04004,-0.021066,-0.0085618,0.4005,0.27888,-0.17085,0.3166,0.093371,0.018592,-0.060875,-0.053656,-0.0075458,0.1418,0.01923,-0.028386,-0.0097125,-0.052356,0.021575,-0.18061,0.094156,-0.10006,0.064631,-0.062155
0.013266,0.042044,-0.020711,-0.0049709,0.39699,0.24273,-0.081711,0.34889,0.08984,0.0062957,-0.053992,-0.045569,0.13219,0.077678,-0.028506,-0.06635,0.0010812,-0.040815,0.1903,-0.28759,0.1906,-0.12587,0.083112,-0.22417
0.014571,0.043886,-0.024069,-0.0035574,0.39439,0.20459,0.0078359,0.34104,0.086622,-0.0023542,-0.050207,-0.037105,0.18744,-0.018678,-0.065296,-0.12667,0.015307,-0.028924,0.35949,-0.32441,0.31147,-0.13695,0.10754,-0.32125
0.017351,0.043387,-0.027894,-0.0044876,0.38421,0.15817,0.058989,0.3231,0.085391,-0.0037234,-0.051606,-0.035471,0.18666,-0.14314,-0.090465,-0.18323,0.029916,-0.014934,0.50633,-0.29141,0.45292,-0.142,0.12855,-0.35897
0.018009,0.040565,-0.028794,-0.0062641,0.35604,0.096618,0.05204,0.31628,0.084328,0.0013873,-0.055975,-0.042703,0.19033,-0.28377,-0.10753,-0.21477,0.042513,-3.7044e-006,0.61537,-0.21819,0.6207,-0.15144,0.13921,-0.35976
0.015123,0.037418,-0.026274,-0.0072898,0.30399,0.020837,-0.0014552,0.32152,0.078845,0.0085458,-0.0585,-0.053673,0.24874,-0.4165,-0.11836,-0.21541,0.052559,0.013011,0.68873,-0.1489,0.8328,-0.16649,0.14255,-0.34493
0.011111,0.036497,-0.023274,-0.0074343,0.2304,-0.058527,-0.064813,0.32349,0.065875,0.012672,-0.055621,-0.060321,0.36332,-0.50902,-0.12209,-0.19455,0.060827,0.022767,0.74264,-0.11922,1.1058,-0.1757,0.14979,-0.32417
0.010489,0.039267,-0.023642,-0.0081391,0.14571,-0.12666,-0.095742,0.30299,0.047845,0.011088,-0.047658,-0.058488,0.48584,-0.53515,-0.11843,-0.16924,0.06793,0.031112,0.79506,-0.14079,1.4328,-0.16176,0.17028,-0.29805
0.016219,0.045253,-0.02873,-0.01095,0.064977,-0.17284,-0.067329,0.24615,0.032102,0.0046914,-0.038122,-0.051248,0.55773,-0.49113,-0.11016,-0.15545,0.07338,0.041252,0.85553,-0.20295,1.7692,-0.11277,0.20225,-0.26802
0.027173,0.052447,-0.036165,-0.01581,0.0027858,-0.19482,0.020913,0.14469,0.02558,-0.0031899,-0.030649,-0.045864,0.55664,-0.40008,-0.1015,-0.16183,0.075925,0.054109,0.92388,-0.28803,2.0416,-0.030469,0.23309,-0.24341
0.038679,0.058583,-0.041856,-0.020687,-0.032271,-0.19663,0.14649,-0.0079728,0.029201,-0.0091559,-0.026408,-0.047327,0.5118,-0.29839,-0.093687,-0.1862,0.074789,0.066593,0.99533,-0.38698,2.1784,0.069251,0.24896,-0.23839
0.045611,0.062263,-0.043408,-0.022927,-0.041283,-0.18288,0.27772,-0.21614,0.037123,-0.011697,-0.023919,-0.054392,0.47686,-0.21345,-0.08334,-0.2146,0.070665,0.073803,1.0649,-0.50266,2.146,0.16225,0.24523,-0.26131
0.04562,0.063145,-0.041896,-0.021263,-0.034658,-0.15451,0.3885,-0.47317,0.041651,-0.011764,-0.020793,-0.061306,0.48499,-0.15078,-0.065928,-0.22532,0.065643,0.073364,1.1281,-0.63947,1.9684,0.22454,0.22859,-0.30572
0.040267,0.061338,-0.040528,-0.016839,-0.02689,-0.10928,0.46566,-0.75154,0.039426,-0.011854,-0.015502,-0.063043,0.52385,-0.1011,-0.041625,-0.19943,0.062149,0.067972,1.1797,-0.78947,1.7153,0.23927,0.20976,-0.35172
0.033552,0.056941,-0.041587,-0.012449,-0.028839,-0.045529,0.50709,-1.0022,0.033342,-0.014223,-0.0079507,-0.058977,0.5488,-0.05908,-0.017437,-0.13401,0.061732,0.063791,1.2158,-0.92873,1.4643,0.20022,0.19413,-0.37793
0.029182,0.050307,-0.044488,-0.010582,-0.04216,0.034716,0.51517,-1.1686,0.028743,-0.019183,0.00078537,-0.052053,0.51995,-0.034112,-0.0027755,-0.048384,0.064585,0.06606,1.2368,-1.0289,1.2606,0.11145,0.17906,-0.37533
0.028562,0.042538,-0.046554,-0.011731,-0.059516,0.12608,0.49272,-1.2087,0.027726,-0.024536,0.0087637,-0.045129,0.43102,-0.04138,-0.0019239,0.024068,0.069947,0.075671,1.2474,-1.0754,1.1,-0.015521,0.15949,-0.3522
0.030683,0.035237,-0.045488,-0.014113,-0.070333,0.22322,0.44425,-1.1127,0.026984,-0.026762,0.013497,-0.03849,0.30881,-0.081639,-0.010131,0.055467,0.076798,0.089282,1.2498,-1.0777,0.94537,-0.16473,0.13539,-0.32635
0.033537,0.029409,-0.041136,-0.014942,-0.068213,0.32373,0.37932,-0.90476,0.021154,-0.023463,0.012943,-0.030733,0.18836,-0.13133,-0.016928,0.040308,0.084162,0.10228,1.2354,-1.0615,0.76202,-0.31774,0.1133,-0.31079
0.03565,0.024634,-0.035098,-0.012344,-0.055595,0.42756,0.31159,-0.63182,0.0084586,-0.015425,0.0071411,-0.021476,0.08778,-0.15619,-0.013775,-0.003914,0.090913,0.11164,1.1848,-1.0492,0.54587,-0.45541,0.10023,-0.30418
0.036513,0.019707,-0.029051,-0.0067393,-0.043629,0.53283,0.25108,-0.34595,-0.006629,-0.0065008,-0.00080705,-0.012654,0.002937,-0.13893,0.00053233,-0.052714,0.095673,0.11657,1.0806,-1.0446,0.32356,-0.56165,0.096249,-0.29293
0.03595,0.014359,-0.02374,-0.00081785,-0.047953,0.63189,0.19492,-0.090984,-0.016309,-0.001017,-0.0058323,-0.0069905,-0.078006,-0.096224,0.020765,-0.092709,0.097293,0.11747,0.92535,-1.0334,0.12879,-0.62905,0.093469,-0.26252
0.033496,0.010217,-0.019479,0.0019697,-0.082049,0.71193,0.12578,0.1041,-0.015598,-0.00050284,-0.0038797,-0.005327,-0.15695,-0.068315,0.040546,-0.12524,0.095698,0.11526,0.74886,-0.99982,-0.023919,-0.66236,0.083294,-0.2086
0.028715,0.009639,-0.017089,-0.00037546,-0.14984,0.76149,0.02328,0.22706,-0.0065164,-0.0024237,0.0053608,-0.0057358,-0.22216,-0.088998,0.056567,-0.15308,0.092273,0.11201,0.59461,-0.94252,-0.14755,-0.6744,0.065732,-0.14028
0.022139,0.01325,-0.01769,-0.0068128,-0.23961,0.77871,-0.11785,0.28167,0.003207,-0.0022136,0.018263,-0.0054465,-0.26061,-0.16138,0.068224,-0.16516,0.089246,0.11151,0.49326,-0.87767,-0.26984,-0.67435,0.052332,-0.074852
0.015567,0.018639,-0.021266,-0.013483,-0.32266,0.77475,-0.2773,0.28422,0.0058691,0.0028536,0.029884,-0.0037356,-0.27321,-0.25948,0.074246,-0.1377,0.088497,0.11783,0.44401,-0.82606,-0.41412,-0.65634,0.059474,-0.029098
0.010955,0.021798,-0.02565,-0.01589,-0.35978,0.7684,-0.41806,0.25625,-0.00070073,0.011141,0.037256,-0.002835,-0.27814,-0.35204,0.07076,-0.054599,0.090774,0.13229,0.42018,-0.79672,-0.58976,-0.59897,0.096869,-0.012944
0.0087614,0.020204,-0.027466,-0.011789,-0.31553,0.77467,-0.51183,0.21671,-0.012172,0.017727,0.040722,-0.0057184,-0.299,-0.42569,0.053409,0.070483,0.095876,0.15141,0.39499,-0.78071,-0.7955,-0.47928,0.15999,-0.027314
0.0075147,0.014699,-0.024549,-0.0027673,-0.17469,0.7956,-0.563,0.17893,-0.0217,0.018363,0.042495,-0.012627,-0.34856,-0.48739,0.021724,0.19301,0.10337,0.16866,0.36606,-0.75925,-1.0259,-0.29197,0.23188,-0.064876
0.0053467,0.0084436,-0.017648,0.0067655,0.04762,0.82025,-0.61037,0.15496,-0.025264,0.013089,0.044045,-0.019624,-0.42216,-0.54688,-0.018386,0.26337,0.11286,0.17926,0.35743,-0.71798,-1.2713,-0.058869,0.29259,-0.11228
0.002101,0.0040569,-0.0097303,0.012595,0.30902,0.83436,-0.70078,0.16162,-0.023951,0.0064497,0.044687,-0.020932,-0.50527,-0.59852,-0.056513,0.26107,0.12344,0.18387,0.39783,-0.65556,-1.5116,0.17984,0.32919,-0.15404
-0.00030263,0.0017078,-0.0035303,0.013576,0.55612,0.83194,-0.85122,0.2186,-0.02178,0.0040424,0.042388,-0.013499,-0.58678,-0.62081,-0.082721,0.2092,0.13289,0.18762,0.49426,-0.5814,-1.7158,0.38622,0.34032,-0.17813
1.4115e-005,-0.00022904,0.00037991,0.012227,0.74638,0.81989,-1.0283,0.33449,-0.021552,0.0081542,0.03575,-3.1303e-005,-0.6653,-0.59405,-0.092206,0.15626,0.13785,0.19477,0.62325,-0.50691,-1.8529,0.54146,0.33338,-0.18119
0.0022472,-0.003,0.0033634,0.012628,0.86457,0.81245,-1.1639,0.48996,-0.022603,0.016015,0.025331,0.01234,-0.74357,-0.5195,-0.087071,0.13919,0.13519,0.20403,0.74552,-0.43794,-1.9082,0.64739,0.31794,-0.16988
0.0026689,-0.0061605,0.0068962,0.017226,0.92503,0.82094,-1.1994,0.63523,-0.022187,0.022014,0.01338,0.017159,-0.81791,-0.42264,-0.074963,0.1573,0.12407,0.20892,0.83,-0.37261,-1.8925,0.71502,0.2997,-0.15652
-0.0023809,-0.008283,0.011112,0.02493,0.95913,0.84757,-1.1271,0.71188,-0.01871,0.022038,0.0025956,0.013658,-0.87433,-0.33833,-0.065781,0.17701,0.10711,0.20338,0.86723,-0.30342,-1.8321,0.75197,0.27817,-0.15112
-0.012742,-0.0085805,0.014994,0.031849,0.99519,0.88803,-0.99827,0.68949,-0.01357,0.016485,-0.0048945,0.0076416,-0.89599,-0.29082,-0.067704,0.16152,0.08958,0.1874,0.86496,-0.22095,-1.7472,0.7592,0.24834,-0.15494
-0.023555,-0.0075222,0.017698,0.034071,1.0432,0.9392,-0.88928,0.59171,-0.0099557,0.009798,-0.0077189,0.0073507,-0.87506,-0.28403,-0.083547,0.099904,0.076957,0.16777,0.83475,-0.11845,-1.636,0.73631,0.20481,-0.15953
-0.028516,-0.0058889,0.019498,0.030458,1.0933,1.004,-0.8508,0.48953,-0.0099624,0.0071783,-0.0050237,0.017421,-0.81794,-0.30658,-0.10889,0.012954,0.072011,0.15309,0.78429,0.0025453,-1.4775,0.68683,0.14617,-0.15198
-0.024711,-0.0035973,0.021493,0.023498,1.1272,1.0885,-0.87648,0.46205,-0.012773,0.011207,0.0034799,0.03559,-0.7386,-0.34314,-0.13353,-0.066085,0.073268,0.14764,0.72012,0.12746,-1.2526,0.61685,0.077076,-0.12284
-0.014881,0.00011486,0.024576,0.01764,1.1347,1.1933,-0.91338,0.54972,-0.015408,0.02076,0.017005,0.054633,-0.64613,-0.38158,-0.14659,-0.11743,0.075881,0.14907,0.65345,0.22964,-0.96796,0.52886,0.006229,-0.072585
-0.0052139,0.0051919,0.028691,0.016293,1.1216,1.3078,-0.90409,0.73158,-0.01507,0.032516,0.033294,0.0678,-0.53761,-0.41219,-0.14291,-0.14579,0.074541,0.15131,0.59903,0.28008,-0.66394,0.41877,-0.059289,-0.013056
-0.00066216,0.0096976,0.032912,0.019629,1.105,1.4121,-0.82748,0.94104,-0.010938,0.043383,0.049079,0.073389,-0.40218,-0.42455,-0.12636,-0.1697,0.066705,0.1495,0.56616,0.26206,-0.39978,0.28103,-0.11977,0.037044
-0.0017898,0.010749,0.036019,0.024762,1.1008,1.4858,-0.70929,1.1068,-0.0041698,0.051873,0.061469,0.075022,-0.23198,-0.40877,-0.10711,-0.20072,0.054077,0.14275,0.55091,0.18128,-0.22542,0.1183,-0.18371,0.060954
-0.005426,0.0070092,0.037065,0.028144,1.1137,1.519,-0.59905,1.1899,0.0032868,0.057789,0.069437,0.077916,-0.030222,-0.36207,-0.093971,-0.23079,0.04126,0.13306,0.53838,0.063254,-0.15681,-0.053741,-0.26123,0.052931
-0.0079184,0.000503,0.035713,0.028311,1.1364,1.5158,-0.53537,1.1944,0.0097067,0.061123,0.07416,0.084649,0.18977,-0.2948,-0.08718,-0.23717,0.032454,0.12252,0.51389,-0.061028,-0.1695,-0.21251,-0.35381,0.022557
-0.0078211,-0.0041962,0.032374,0.026803,1.1579,1.4911,-0.52606,1.1511,0.013781,0.061576,0.077693,0.093944,0.41204,-0.22949,-0.077505,-0.1996,0.028495,0.11147,0.47331,-0.17042,-0.21251,-0.34277,-0.44832,-0.0089973
-0.006041,-0.0030909,0.028088,0.026514,1.1708,1.4619,-0.55252,1.0926,0.014481,0.059156,0.080869,0.10295,0.62458,-0.19187,-0.053033,-0.11586,0.026352,0.0987,0.42363,-0.25799,-0.23325,-0.44909,-0.5218,-0.019426
-0.0041716,0.0042254,0.024009,0.028917,1.173,1.4394,-0.58711,1.0374,0.011265,0.054997,0.082216,0.11035,0.82022,-0.19892,-0.0089153,-0.0047006,0.021326,0.082682,0.37488,-0.32196,-0.19856,-0.55752,-0.555,0.003514
-0.0031379,0.014107,0.020738,0.032585,1.1645,1.4269,-0.60593,0.98951,0.0045235,0.051111,0.079134,0.11704,0.99363,-0.251,0.047497,0.10376,0.010126,0.062348,0.33251,-0.35278,-0.10176,-0.70445,-0.54507,0.057112
-0.0032144,0.021314,0.01809,0.034359,1.144,1.4216,-0.59048,0.94492,-0.0044179,0.048863,0.070578,0.12406,1.1395,-0.33223,0.1004,0.18221,-0.007605,0.037184,0.29687,-0.33016,0.044508,-0.91874,-0.50738,0.12816
-0.0045717,0.022483,0.015656,0.032168,1.1097,1.4189,-0.52517,0.89601,-0.01402,0.047441,0.058859,0.12998,1.2548,-0.4181,0.13541,0.21556,-0.030292,0.0072264,0.26813,-0.23559,0.22125,-1.2056,-0.46496,0.20338
-0.0070559,0.018103,0.01372,0.026999,1.0638,1.4163,-0.40052,0.83093,-0.023371,0.044056,0.0486,0.13096,1.3417,-0.48649,0.148,0.2023,-0.056696,-0.026704,0.24863,-0.071539,0.41151,-1.5391,-0.43448,0.27869
-0.0093398,0.011828,0.013505,0.022193,1.0136,1.4137,-0.22147,0.73482,-0.032286,0.036193,0.043325,0.12369,1.4071,-0.52686,0.14418,0.1508,-0.087105,-0.062955,0.2389,0.12879,0.60035,-1.8653,-0.41986,0.36139
-0.0089754,0.0078979,0.016256,0.020643,0.96821,1.4115,-0.01072,0.59726,-0.040619,0.024219,0.04257,0.1085,1.4574,-0.54351,0.134,0.075105,-0.12211,-0.099494,0.23204,0.31195,0.77096,-2.1152,-0.41705,0.46478
-0.0042509,0.0084791,0.021864,0.022369,0.9333,1.4072,0.20068,0.422,-0.047666,0.011916,0.042284,0.089513,1.4942,-0.55114,0.12405,-0.0074973,-0.15985,-0.13434,0.21515,0.42962,0.90489,-2.2249,-0.42345,0.59903
0.0034881,0.012475,0.028421,0.024675,0.90706,1.3942,0.39069,0.22919,-0.052519,0.0040897,0.038449,0.071427,1.5136,-0.5644,0.11509,-0.078913,-0.19425,-0.16517,0.17994,0.46145,0.98925,-2.1574,-0.4417,0.76343
0.0096737,0.016353,0.033384,0.024804,0.88189,1.3629,0.55707,0.045403,-0.05512,0.0029989,0.030815,0.055808,1.5129,-0.58727,0.1057,-0.12456,-0.21638,-0.18822,0.13442,0.41882,1.025,-1.9184,-0.47457,0.94285
0.0095751,0.016491,0.035435,0.022673,0.84944,1.3054,0.71148,-0.11174,-0.056835,0.0065686,0.023348,0.040458,1.4955,-0.60898,0.097081,-0.13866,-0.21866,-0.19833,0.10351,0.32759,1.0274,-1.5582,-0.51698,1.1094
0.0024147,0.011759,0.035333,0.021118,0.80525,1.2202,0.86132,-0.24117,-0.059636,0.0099271,0.020898,0.022559,1.4706,-0.61026,0.093944,-0.12671,-0.19961,-0.19121,0.11511,0.20445,1.0152,-1.1551,-0.55436,1.2289
-0.0072365,0.0048244,0.034839,0.023198,0.74974,1.1141,0.99514,-0.351,-0.064469,0.0090391,0.025015,0.0026198,1.4452,-0.57627,0.10078,-0.10221,-0.16563,-0.16722,0.18055,0.045531,0.99762,-0.78554,-0.56983,1.2709
-0.012523,0.0010798,0.034656,0.028899,0.68573,0.99787,1.0851,-0.4432,-0.070389,0.0035306,0.032584,-0.014709,1.4175,-0.50752,0.11763,-0.079026,-0.1283,-0.13342,0.2849,-0.16443,0.97049,-0.49524,-0.55414,1.2206
-0.0095361,0.0054511,0.033401,0.034345,0.61503,0.87769,1.1044,-0.50551,-0.075473,-0.0033637,0.038339,-0.024108,1.3784,-0.42063,0.13959,-0.064925,-0.098477,-0.10118,0.39492,-0.43154,0.92608,-0.28655,-0.50992,1.0865
-0.00027369,0.018813,0.028827,0.034586,0.53636,0.74741,1.0457,-0.52006,-0.078773,-0.0073833,0.038879,-0.024425,1.321,-0.33824,0.16016,-0.060924,-0.080942,-0.080117,0.47858,-0.73865,0.86847,-0.12972,-0.44758,0.8991
0.0091621,0.036442,0.020423,0.027837,0.44583,0.58845,0.92516,-0.48259,-0.081362,-0.0061825,0.034782,-0.020408,1.2499,-0.27566,0.17515,-0.066226,-0.073014,-0.072644,0.52108,-1.0497,0.81854,0.010273,-0.37798,0.69996
0.013397,0.049974,0.011026,0.017434,0.33901,0.37969,0.77008,-0.41517,-0.085291,-0.00057298,0.029428,-0.019409,1.1813,-0.2348,0.18339,-0.083389,-0.06794,-0.073645,0.5263,-1.3288,0.80232,0.14889,-0.30862,0.52443
0.011407,0.05215,0.0055812,0.0095703,0.21317,0.11236,0.60128,-0.35946,-0.091311,0.0064145,0.026065,-0.025636,1.1292,-0.20951,0.18462,-0.11826,-0.060379,-0.075472,0.50563,-1.5579,0.8316,0.27416,-0.24488,0.38892
0.0061653,0.041543,0.0075856,0.0084681,0.06872,-0.19953,0.42484,-0.35354,-0.097551,0.011612,0.025709,-0.036837,1.0902,-0.19678,0.17713,-0.17423,-0.04995,-0.073989,0.46609,-1.74,0.89397,0.35763,-0.19204,0.28928
0.0013603,0.023992,0.015907,0.013093,-0.090572,-0.52046,0.23885,-0.4091,-0.10055,0.013478,0.027138,-0.046366,1.0383,-0.20277,0.15794,-0.24594,-0.040384,-0.070431,0.40823,-1.8841,0.96121,0.37322,-0.15399,0.21077
-0.0014495,0.0093088,0.024856,0.018296,-0.25822,-0.80579,0.047891,-0.50588,-0.097864,0.012665,0.028205,-0.048946,0.93789,-0.23733,0.12488,-0.3184,-0.035273,-0.067812,0.33395,-1.9855,1.0082,0.31171,-0.12952,0.14228
-0.0029176,0.0049692,0.027995,0.019426,-0.42633,-1.0176,-0.12801,-0.60642,-0.089972,0.011397,0.027013,-0.045238,0.76649,-0.30157,0.078222,-0.37287,-0.03405,-0.065808,0.25487,-2.0187,1.0251,0.18575,-0.11156,0.085152
-0.0039712,0.011044,0.023037,0.01632,-0.58741,-1.1353,-0.25844,-0.67922,-0.07995,0.012181,0.022432,-0.041346,0.53194,-0.38028,0.020178,-0.39502,-0.031583,-0.059478,0.19169,-1.9511,1.0135,0.02862,-0.091938,0.051133
-0.0043813,0.020258,0.01396,0.013107,-0.73624,-1.1568,-0.31855,-0.71393,-0.071275,0.016504,0.014373,-0.043672,0.27159,-0.44768,-0.046638,-0.37938,-0.021814,-0.043381,0.16406,-1.7715,0.97309,-0.11121,-0.068328,0.051584
-0.0033424,0.023552,0.0083112,0.014091,-0.87076,-1.0941,-0.30417,-0.72032,-0.065672,0.024026,0.0041928,-0.05344,0.034339,-0.48262,-0.11933,-0.32806,-0.0025587,-0.017278,0.17923,-1.5109,0.89513,-0.18312,-0.046539,0.085352
-0.0010995,0.01714,0.011478,0.019536,-0.99101,-0.96754,-0.23507,-0.71566,-0.062546,0.032556,-0.0052836,-0.065374,-0.14172,-0.48008,-0.19238,-0.24711,0.022444,0.012288,0.22847,-1.2365,0.7705,-0.15752,-0.035384,0.13316
0.00054125,0.0054079,0.022294,0.025271,-1.0964,-0.80134,-0.1439,-0.71148,-0.060053,0.038878,-0.010789,-0.071523,-0.24183,-0.44871,-0.25481,-0.14539,0.045993,0.036561,0.29359,-1.0184,0.60461,-0.050384,-0.03849,0.16229
-0.00027495,-0.0028811,0.033562,0.026381,-1.1835,-0.62047,-0.058282,-0.70774,-0.056636,0.040223,-0.010473,-0.067074,-0.27247,-0.39706,-0.2909,-0.036887,0.06249,0.051547,0.35724,-0.88734,0.42276,0.071454,-0.050698,0.13976
-0.0033254,-0.0020483,0.037277,0.021525,-1.2467,-0.44628,0.012138,-0.69528,-0.0518,0.035817,-0.0052485,-0.053576,-0.25068,-0.32306,-0.28637,0.057591,0.071554,0.061085,0.40906,-0.8178,0.25888,0.1198,-0.06211,0.048072
-0.0058989,0.0057236,0.030655,0.013965,-1.283,-0.29275,0.075983,-0.6623,-0.045761,0.027623,0.0016561,-0.037331,-0.19492,-0.21848,-0.23795,0.11468,0.07737,0.072963,0.44445,-0.74867,0.13682,0.040068,-0.065269,-0.10422
-0.0049264,0.012445,0.018337,0.0086283,-1.2967,-0.16594,0.14907,-0.60071,-0.038542,0.019572,0.0067806,-0.024569,-0.12267,-0.085227,-0.15984,0.1189,0.084536,0.091229,0.45915,-0.62938,0.060825,-0.14448,-0.058176,-0.28262
5.4607e-005,0.011342,0.0090729,0.0081618,-1.3005,-0.067583,0.24039,-0.51048,-0.029464,0.015353,0.0085876,-0.017334,-0.052481,0.053271,-0.080735,0.073023,0.094007,0.11148,0.4455,-0.45496,0.022392,-0.33702,-0.040714,-0.43879
0.0058947,0.0025812,0.0093498,0.011524,-1.3094,0.00049393,0.34484,-0.40115,-0.017624,0.016053,0.0080379,-0.01307,-0.0046868,0.15998,-0.030606,4.9876e-005,0.10243,0.12352,0.39332,-0.26247,0.014079,-0.42536,-0.0094859,-0.53015
0.0080384,-0.0072772,0.018707,0.015831,-1.3304,0.035713,0.44677,-0.28978,-0.0031137,0.019402,0.0072985,-0.0076643,0.0029327,0.20797,-0.023968,-0.066602,0.10514,0.1194,0.2946,-0.093052,0.034713,-0.35639,0.041975,-0.53879
0.0042978,-0.011296,0.030187,0.019054,-1.3569,0.039384,0.53097,-0.1948,0.01208,0.021543,0.0077698,0.00090851,-0.036744,0.19993,-0.050547,-0.099325,0.1,0.10011,0.14882,0.047104,0.080481,-0.17158,0.11626,-0.48086
-0.0030537,-0.0079854,0.035539,0.020854,-1.3706,0.022031,0.5921,-0.12862,0.024619,0.020208,0.0089635,0.011367,-0.1131,0.16444,-0.080665,-0.0887,0.088964,0.075233,-0.033676,0.193,0.13281,0.024126,0.20461,-0.40114
-0.0088537,-0.0017716,0.031247,0.021308,-1.3536,0.0025687,0.63595,-0.093077,0.031952,0.016791,0.0088802,0.020961,-0.19714,0.13078,-0.08291,-0.044603,0.076465,0.055702,-0.232,0.38924,0.15918,0.13619,0.28673,-0.35397
-0.0091418,0.0018533,0.020853,0.019723,-1.301,-0.0011329,0.6718,-0.081278,0.034637,0.015408,0.0053871,0.028377,-0.25043,0.10391,-0.042761,0.012933,0.066214,0.045902,-0.41932,0.64879,0.13097,0.14041,0.33983,-0.3783
-0.0043689,0.0016237,0.011878,0.015345,-1.2252,0.015312,0.7027,-0.084082,0.036776,0.019454,-0.0023966,0.034968,-0.24208,0.063039,0.030223,0.065128,0.058942,0.04131,-0.57146,0.93763,0.044833,0.086005,0.35065,-0.47886
0.00099347,0.0012691,0.0098674,0.0092217,-1.1492,0.03731,0.72132,-0.095538,0.04359,0.028431,-0.013448,0.043289,-0.1662,-0.014511,0.11071,0.10022,0.052282,0.033198,-0.67624,1.1969,-0.072174,0.04713,0.3218,-0.62377
0.0021151,0.005302,0.014357,0.0046396,-1.092,0.038684,0.71492,-0.11222,0.057547,0.037789,-0.02516,0.054443,-0.048329,-0.12614,0.17438,0.11207,0.042301,0.015901,-0.73832,1.381,-0.18024,0.068079,0.26856,-0.76099
-0.0023246,0.014066,0.019894,0.0048078,-1.0575,-0.001849,0.67536,-0.12735,0.07604,0.042037,-0.034504,0.066831,0.06645,-0.24012,0.21064,0.096596,0.025458,-0.0094682,-0.77554,1.4781,-0.25441,0.14521,0.20959,-0.84459
-0.0091805,0.022867,0.020939,0.0095816,-1.0325,-0.086446,0.6066,-0.12652,0.092741,0.038633,-0.039557,0.077518,0.13974,-0.32071,0.22341,0.052162,0.000105,-0.037232,-0.80794,1.4986,-0.30002,0.25065,0.15858,-0.85515
-0.013358,0.026104,0.016251,0.014675,-0.99645,-0.1962,0.52489,-0.091643,0.1019,0.029535,-0.040604,0.084983,0.16396,-0.36066,0.22174,-0.015514,-0.03284,-0.062447,-0.84643,1.4489,-0.34439,0.36598,0.12099,-0.80227
-0.011548,0.022583,0.0091072,0.014858,-0.93547,-0.30247,0.452,-0.012448,0.10227,0.019383,-0.039967,0.090658,0.16623,-0.39078,0.20917,-0.088979,-0.07018,-0.084308,-0.88896,1.3204,-0.41269,0.49206,0.095614,-0.70975
-0.0042408,0.016993,0.003743,0.0086966,-0.85113,-0.38283,0.40637,0.10335,0.097507,0.012025,-0.04037,0.097813,0.18718,-0.45557,0.18005,-0.14135,-0.10769,-0.10517,-0.92599,1.1065,-0.50799,0.63126,0.077441,-0.59713
0.0051315,0.015912,0.0017731,0.0004186,-0.75956,-0.43054,0.39632,0.23135,0.092836,0.0081972,-0.042838,0.10876,0.24884,-0.57373,0.12391,-0.14616,-0.14179,-0.12688,-0.95007,0.83168,-0.60993,0.76786,0.059975,-0.4727
0.012737,0.021731,0.0018499,-0.0032856,-0.68079,-0.45241,0.41732,0.34492,0.090768,0.0058073,-0.045799,0.12288,0.33615,-0.71698,0.033235,-0.089266,-0.17052,-0.14805,-0.96111,0.55994,-0.69025,0.87199,0.036944,-0.34146
0.016426,0.030021,0.0022103,0.00097222,-0.62527,-0.45899,0.45331,0.43281,0.089546,0.0020714,-0.046359,0.1372,0.40673,-0.82538,-0.090897,0.024638,-0.1931,-0.16444,-0.96405,0.36845,-0.73098,0.92458,0.0042841,-0.21658
0.016212,0.033015,0.0028791,0.010077,-0.58577,-0.45569,0.48217,0.50613,0.085401,-0.0043613,-0.042863,0.14881,0.42185,-0.84751,-0.23761,0.17414,-0.20828,-0.17162,-0.96281,0.30437,-0.73193,0.93632,-0.038027,-0.11831
0.013509,0.026418,0.0051037,0.016841,-0.54028,-0.44114,0.48441,0.58806,0.076452,-0.012581,-0.036535,0.15685,0.37466,-0.7738,-0.38811,0.32917,-0.21324,-0.1676,-0.95738,0.35938,-0.70502,0.93865,-0.085794,-0.056616
0.010119,0.013531,0.008984,0.016087,-0.46506,-0.41211,0.45186,0.6938,0.06473,-0.019968,-0.030578,0.16252,0.29493,-0.63917,-0.51928,0.45991,-0.20436,-0.15374,-0.94686,0.48352,-0.66311,0.95348,-0.13278,-0.011495
0.0075121,0.0028143,0.01239,0.0090128,-0.35051,-0.36948,0.39125,0.81572,0.054586,-0.023564,-0.027353,0.16716,0.22891,-0.49702,-0.60879,0.54346,-0.17993,-0.13398,-0.93413,0.62662,-0.61262,0.97154,-0.17389,0.067535
0.0063218,0.00086309,0.012778,0.002022,-0.20956,-0.31991,0.31957,0.92489,0.048994,-0.021689,-0.026162,0.1705,0.21237,-0.38764,-0.64191,0.56852,-0.14271,-0.11311,-0.92602,0.77274,-0.55378,0.96173,-0.20673,0.2338
0.0060854,0.0070582,0.01008,0.0011525,-0.072316,-0.27228,0.25386,0.98765,0.047001,-0.015214,-0.023787,0.17014,0.25745,-0.32286,-0.61756,0.5384,-0.1001,-0.095149,-0.92756,0.94086,-0.48563,0.90336,-0.22998,0.50238
0.0055613,0.014728,0.0073267,0.0071465,0.030721,-0.23191,0.20295,0.98544,0.044506,-0.0076372,-0.017445,0.16261,0.35897,-0.29026,-0.54936,0.47034,-0.06146,-0.082302,-0.93566,1.1548,-0.41058,0.80957,-0.23993,0.82557
0.0038018,0.017673,0.0078225,0.015349,0.086074,-0.19734,0.16713,0.92486,0.037628,-0.0033638,-0.0075377,0.14459,0.50749,-0.26449,-0.45917,0.38853,-0.034058,-0.074854,-0.93941,1.4101,-0.33533,0.71809,-0.2285,1.1073
0.0013117,0.015879,0.0114,0.020076,0.10343,-0.16181,0.14484,0.83296,0.025863,-0.0048324,0.002374,0.11377,0.69295,-0.21413,-0.36608,0.31232,-0.020494,-0.072082,-0.92853,1.6656,-0.26819,0.65654,-0.18596,1.253
0.0001078,0.015035,0.013628,0.019184,0.10642,-0.11855,0.13892,0.74176,0.012591,-0.010541,0.0084269,0.069254,0.89541,-0.10568,-0.27829,0.24674,-0.018937,-0.073482,-0.90333,1.8627,-0.21499,0.61474,-0.10809,1.2238
0.0022096,0.020438,0.0092771,0.014879,0.11523,-0.066447,0.15578,0.67191,0.002817,-0.015905,0.0096296,0.011852,1.0768,0.08553,-0.19388,0.1836,-0.025503,-0.079244,-0.87741,1.9546,-0.17639,0.55057,-0.0032192,1.0602
0.0076288,0.031243,-0.0027019,0.010699,0.13399,-0.012475,0.19791,0.62415,0.00012534,-0.016757,0.0086096,-0.055774,1.1895,0.35561,-0.10926,0.11401,-0.036619,-0.089364,-0.86967,1.9232,-0.14817,0.42552,0.10645,0.85706
0.013746,0.040598,-0.017153,0.0081412,0.15164,0.030758,0.2572,0.58251,0.0050826,-0.012764,0.009442,-0.12981,1.2015,0.65776,-0.027485,0.042729,-0.049821,-0.10211,-0.89115,1.775,-0.12434,0.2391,0.19259,0.70552
0.016973,0.041487,-0.02571,0.0061747,0.15386,0.050663,0.31599,0.52628,0.015789,-0.0077668,0.014621,-0.20669,1.118,0.91291,0.041416,-0.0087366,-0.063144,-0.11342,-0.93682,1.5287,-0.10083,0.03285,0.23428,0.64046
0.015521,0.032727,-0.022645,0.0035312,0.1354,0.039911,0.35568,0.44321,0.029538,-0.0065313,0.023679,-0.28396,0.97648,1.0489,0.088192,-0.015677,-0.074522,-0.11834,-0.98822,1.2056,-0.077198,-0.1387,0.22935,0.62634
0.010887,0.01974,-0.009039,0.00081811,0.10296,-0.0018449,0.36601,0.33602,0.044083,-0.010686,0.034108,-0.3592,0.81473,1.0453,0.11261,0.028742,-0.082231,-0.11381,-1.0246,0.82943,-0.055263,-0.24477,0.19566,0.59017
0.0066736,0.0099146,0.0077981,1.8141e-006,0.067805,-0.069761,0.34763,0.21873,0.057892,-0.017388,0.043117,-0.42743,0.63669,0.95043,0.12394,0.1018,-0.086019,-0.10079,-1.0343,0.42809,-0.035852,-0.2937,0.16063,0.47719
0.0057121,0.0072583,0.01896,0.0019378,0.035859,-0.15619,0.30767,0.10624,0.069892,-0.021789,0.048548,-0.4794,0.40889,0.85098,0.13307,0.16001,-0.087634,-0.084076,-1.0194,0.029348,-0.016619,-0.31773,0.1455,0.29066
0.0079787,0.010866,0.019177,0.0048858,0.0041667,-0.25092,0.25407,0.0049761,0.079382,-0.020944,0.048818,-0.50384,0.094079,0.81573,0.14405,0.16371,-0.089913,-0.069787,-0.99152,-0.34796,0.0072733,-0.3441,0.15436,0.089697
0.011014,0.017375,0.0093959,0.0059255,-0.033882,-0.34001,0.19477,-0.089384,0.086175,-0.015696,0.043087,-0.49374,-0.30442,0.85251,0.15323,0.10042,-0.09499,-0.062368,-0.96312,-0.6997,0.04022,-0.37733,0.17469,-0.050347
0.012251,0.023894,-0.004271,0.003993,-0.080082,-0.40704,0.14201,-0.18669,0.090492,-0.0092578,0.032311,-0.45266,-0.72794,0.91169,0.1567,-0.0089334,-0.10294,-0.062916,-0.94017,-1.0321,0.083453,-0.40469,0.18744,-0.084752
0.011049,0.028569,-0.014031,0.0013232,-0.12762,-0.43948,0.11536,-0.29487,0.092433,-0.0043333,0.020089,-0.39571,-1.0939,0.93005,0.15798,-0.12356,-0.1117,-0.069479,-0.91925,-1.3481,0.13473,-0.41563,0.17899,-0.021073
0.0087669,0.029534,-0.014423,0.0015396,-0.16523,-0.43736,0.13782,-0.41554,0.091535,-0.0016056,0.011572,-0.3427,-1.3505,0.87758,0.16767,-0.20504,-0.11803,-0.078484,-0.88991,-1.6343,0.19043,-0.4152,0.14729,0.094987
0.0071618,0.024986,-0.0051509,0.0060555,-0.18539,-0.41695,0.22449,-0.54445,0.087075,-0.00055807,0.010369,-0.30705,-1.5094,0.77045,0.19482,-0.23353,-0.11861,-0.086049,-0.84045,-1.858,0.24811,-0.41985,0.10003,0.21248
0.0068298,0.015252,0.00857,0.012344,-0.18953,-0.40358,0.37101,-0.67433,0.078983,-0.0010803,0.015794,-0.28814,-1.6294,0.64503,0.23803,-0.21094,-0.11091,-0.088678,-0.76476,-1.9797,0.30723,-0.44062,0.048808,0.29897
0.0069912,0.0044001,0.018776,0.015974,-0.18602,-0.41633,0.55042,-0.79768,0.068415,-0.0038128,0.023183,-0.27287,-1.7641,0.52201,0.28498,-0.15435,-0.094055,-0.083664,-0.66722,-1.9731,0.36761,-0.46996,0.0041202,0.34047
0.0064394,-0.0015311,0.019606,0.014645,-0.18295,-0.45516,0.72229,-0.90902,0.057228,-0.0089524,0.027435,-0.24588,-1.9149,0.39456,0.3207,-0.08686,-0.069548,-0.069712,-0.56315,-1.8425,0.42722,-0.48459,-0.026945,0.32625
0.0044896,0.00080588,0.011324,0.010425,-0.18208,-0.50099,0.85004,-1.0072,0.046728,-0.015114,0.026793,-0.2009,-2.0265,0.24895,0.33684,-0.030249,-0.04139,-0.047587,-0.47346,-1.6243,0.48152,-0.46246,-0.041642,0.24018
0.0011573,0.0086583,0.00034636,0.0079853,-0.17841,-0.52991,0.91695,-1.0972,0.037057,-0.019751,0.023448,-0.14469,-2.0246,0.094381,0.33387,0.0011659,-0.014635,-0.020097,-0.41504,-1.3712,0.52505,-0.40066,-0.042553,0.070269
-0.0031805,0.014794,-0.0052818,0.010401,-0.16543,-0.53069,0.93218,-1.1883,0.028059,-0.020872,0.020579,-0.090728,-1.8667,-0.028959,0.31557,0.0058991,0.0071381,0.0090401,-0.39168,-1.1284,0.55382,-0.32061,-0.037698,-0.17231
-0.0079679,0.013358,-0.0017884,0.016396,-0.1411,-0.51194,0.92427,-1.2891,0.020946,-0.018397,0.018939,-0.048106,-1.5705,-0.073717,0.28306,-0.0029141,0.023692,0.036896,-0.39097,-0.91576,0.56657,-0.25746,-0.037704,-0.44534
-0.012356,0.0048546,0.0077815,0.021533,-0.10948,-0.49292,0.92644,-1.4013,0.01892,-0.013986,0.016454,-0.014825,-1.2061,-0.021793,0.23505,-0.0033829,0.037506,0.062353,-0.39022,-0.72682,0.56409,-0.24145,-0.050055,-0.69017
-0.015291,-0.0043711,0.016504,0.022194,-0.07682,-0.48586,0.96157,-1.5189,0.025629,-0.0097352,0.011093,0.019048,-0.86355,0.097114,0.17405,0.022143,0.050834,0.085605,-0.36864,-0.54323,0.54792,-0.28308,-0.073833,-0.85969
-0.016138,-0.007805,0.019463,0.018668,-0.045446,-0.48486,1.0342,-1.6345,0.042363,-0.0070473,0.0037696,0.061455,-0.61875,0.22009,0.11074,0.074366,0.06286,0.1066,-0.31855,-0.35262,0.52043,-0.36918,-0.099303,-0.93794
-0.015396,-0.0044113,0.017527,0.01463,-0.010574,-0.47103,1.1315,-1.7477,0.066334,-0.0064056,-0.0020455,0.11051,-0.51005,0.28765,0.060147,0.13405,0.069749,0.12393,-0.24821,-0.15763,0.48616,-0.46943,-0.11361,-0.93717
-0.01461,0.00083914,0.015932,0.013717,0.036571,-0.42994,1.2319,-1.8664,0.09176,-0.0077257,-0.0038001,0.15559,-0.52909,0.27602,0.030796,0.17203,0.068041,0.13535,-0.17469,0.028038,0.45281,-0.54828,-0.10904,-0.87837
-0.015252,0.0018529,0.019233,0.016416,0.10079,-0.36672,1.3154,-1.9992,0.11316,-0.010619,-0.0027953,0.18618,-0.62396,0.20452,0.016112,0.16598,0.05871,0.13962,-0.11206,0.19077,0.4293,-0.57736,-0.087944,-0.7744
-0.017409,-0.002949,0.027164,0.01997,0.17556,-0.30585,1.371,-2.1433,0.12837,-0.014449,-0.0032664,0.20049,-0.71508,0.11683,-0.0035099,0.11318,0.048186,0.13815,-0.06384,0.32612,0.4213,-0.54488,-0.06087,-0.62976
-0.01953,-0.0093866,0.034815,0.021047,0.24248,-0.27489,1.3982,-2.281,0.13894,-0.018473,-0.0081874,0.20625,-0.72266,0.051156,-0.047773,0.032541,0.04482,0.13483,-0.02481,0.44068,0.4273,-0.45945,-0.039227,-0.45379
-0.019577,-0.011566,0.036571,0.01856,0.27998,-0.28422,1.4037,-2.3874,0.14795,-0.022129,-0.015916,0.2134,-0.59785,0.018652,-0.12181,-0.042748,0.053126,0.13399,0.0099662,0.54776,0.43908,-0.34648,-0.027882,-0.27095
-0.016631,-0.0072523,0.030294,0.014205,0.2772,-0.31852,1.3942,-2.4453,0.15718,-0.025065,-0.021258,0.22565,-0.34246,0.00047004,-0.21081,-0.076265,0.070264,0.13787,0.037284,0.66182,0.44695,-0.23715,-0.022734,-0.11558
-0.011501,0.00036918,0.01854,0.010665,0.24384,-0.34599,1.3711,-2.4525,0.16595,-0.026716,-0.020265,0.23848,-0.0056739,-0.037765,-0.28814,-0.039649,0.087705,0.1455,0.046096,0.79489,0.44657,-0.15421,-0.014536,-0.014072
-0.0059048,0.0059149,0.006456,0.0094209,0.20776,-0.33864,1.33,-2.4167,0.17237,-0.025961,-0.01425,0.24484,0.34021,-0.12438,-0.33122,0.075882,0.096945,0.15341,0.025991,0.95547,0.44186,-0.10203,0.0041847,0.030702
-0.001117,0.0067336,-0.0015096,0.010101,0.19963,-0.28886,1.2638,-2.3435,0.1756,-0.021617,-0.0090269,0.24282,0.63013,-0.26515,-0.33432,0.24934,0.094879,0.15759,-0.023363,1.1479,0.44165,-0.066741,0.034081,0.039116
0.0025608,0.0049202,-0.0036294,0.01148,0.23349,-0.21179,1.1686,-2.2302,0.17698,-0.013765,-0.0098095,0.23782,0.82537,-0.43994,-0.31009,0.42832,0.084768,0.15507,-0.090164,1.3707,0.45237,-0.026504,0.069015,0.038664
0.0051213,0.004764,-0.00084336,0.012732,0.29682,-0.13416,1.0487,-2.0725,0.17915,-0.0047318,-0.016468,0.23758,0.91508,-0.61301,-0.28005,0.54453,0.072458,0.14453,-0.15808,1.6124,0.47224,0.034967,0.10044,0.044569
0.0059509,0.0083326,0.004522,0.013637,0.35786,-0.078888,0.91572,-1.8764,0.18384,0.0016369,-0.023599,0.24506,0.9067,-0.75025,-0.26111,0.54566,0.061337,0.1261,-0.21741,1.848,0.49142,0.1204,0.12254,0.051516
0.003991,0.013495,0.0099754,0.013864,0.38579,-0.055835,0.78403,-1.6646,0.19025,0.0024111,-0.025465,0.25578,0.81732,-0.83336,-0.2567,0.42749,0.05029,0.10129,-0.2701,2.0384,0.49763,0.22105,0.13447,0.041335
-0.00089521,0.016173,0.013454,0.012549,0.36953,-0.062241,0.66432,-1.4674,0.19517,-0.0020116,-0.021293,0.26206,0.6719,-0.86399,-0.2574,0.24261,0.035981,0.073097,-0.3234,2.1375,0.48347,0.32581,0.13896,-0.00056134
-0.0066876,0.014499,0.013555,0.0089736,0.32202,-0.089076,0.55911,-1.3068,0.1951,-0.0077201,-0.016063,0.25956,0.50493,-0.85739,-0.24914,0.074282,0.016965,0.045704,-0.37622,2.108,0.45046,0.42972,0.13936,-0.072545
-0.0096943,0.010787,0.009825,0.0037588,0.26766,-0.12716,0.46282,-1.1838,0.18868,-0.0099546,-0.016045,0.25015,0.35713,-0.83157,-0.22318,-0.011218,-0.0041645,0.023154,-0.4092,1.9411,0.40813,0.53534,0.13819,-0.15628
-0.0069236,0.0093951,0.0030875,-0.00087295,0.22371,-0.1698,0.36575,-1.0797,0.17815,-0.0067916,-0.023084,0.23872,0.26328,-0.79919,-0.18151,-0.0020148,-0.022297,0.0072707,-0.38833,1.6675,0.36953,0.64683,0.13803,-0.22741
0.0013823,0.012526,-0.0046436,-0.0025053,0.18995,-0.21277,0.25917,-0.96836,0.16835,-0.00084188,-0.032738,0.22758,0.23595,-0.76563,-0.13491,0.058701,-0.033409,-0.003759,-0.28279,1.351,0.34599,0.76217,0.1431,-0.26931
0.011318,0.01799,-0.010996,-0.00064771,0.15342,-0.25394,0.13847,-0.83007,0.16401,0.0026735,-0.037855,0.21421,0.25622,-0.73177,-0.095577,0.10818,-0.037196,-0.014725,-0.087275,1.0627,0.34344,0.87011,0.1589,-0.28077
0.017737,0.02109,-0.014506,0.0024131,0.10284,-0.29287,0.0034251,-0.65877,0.16653,0.00011912,-0.034425,0.19429,0.28062,-0.69718,-0.069559,0.10804,-0.03699,-0.030614,0.16625,0.84671,0.36071,0.95446,0.18923,-0.27365
0.017875,0.018899,-0.015452,0.0031537,0.040281,-0.32941,-0.1434,-0.46012,0.17235,-0.0075074,-0.024696,0.16671,0.26431,-0.66075,-0.053747,0.064032,-0.037575,-0.053413,0.41653,0.6978,0.39006,1.0023,0.23285,-0.26319
0.013331,0.012938,-0.015518,-0.00028163,-0.018653,-0.36062,-0.2982,-0.24517,0.17397,-0.015302,-0.015139,0.13529,0.1891,-0.61915,-0.039039,0.010315,-0.04267,-0.080696,0.59829,0.56564,0.41979,1.0104,0.28313,-0.2579
0.0087476,0.0077524,-0.016402,-0.0063072,-0.054742,-0.37815,-0.45635,-0.024219,0.16326,-0.018413,-0.011252,0.10556,0.079191,-0.56581,-0.01698,-0.024371,-0.053325,-0.10694,0.67096,0.38621,0.43884,0.98543,0.33156,-0.25518
0.0082027,0.006726,-0.018422,-0.010992,-0.056693,-0.36957,-0.61199,0.19671,0.13554,-0.015886,-0.01364,0.07989,-0.0069584,-0.49227,0.014834,-0.039081,-0.067416,-0.12654,0.63459,0.12328,0.44166,0.93872,0.37262,-0.2449
0.012204,0.0090134,-0.020263,-0.01126,-0.026156,-0.3245,-0.75737,0.41693,0.091953,-0.011163,-0.018329,0.056078,-0.0068445,-0.39194,0.052052,-0.055325,-0.080143,-0.13623,0.52456,-0.20484,0.43055,0.88035,0.40589,-0.21739
0.017663,0.010435,-0.020107,-0.0074321,0.025223,-0.24269,-0.88261,0.64034,0.038978,-0.0089829,-0.020495,0.030643,0.11016,-0.26359,0.087403,-0.092627,-0.085639,-0.13572,0.38953,-0.53013,0.4131,0.81676,0.43343,-0.17016
0.02071,0.0075249,-0.017251,-0.0028505,0.082308,-0.13784,-0.97659,0.87319,-0.014695,-0.011547,-0.018143,0.0034738,0.32237,-0.1123,0.11571,-0.14814,-0.079537,-0.12642,0.26693,-0.76929,0.39542,0.75259,0.45471,-0.10911
0.019856,0.0010729,-0.012881,-0.00095895,0.13141,-0.033275,-1.0298,1.1207,-0.062054,-0.0172,-0.012786,-0.021116,0.56373,0.052977,0.13638,-0.19685,-0.061397,-0.11005,0.17025,-0.86754,0.37573,0.69349,0.46351,-0.044642
0.016901,-0.004032,-0.0094354,-0.0025571,0.16218,0.048845,-1.0397,1.3833,-0.10001,-0.022356,-0.0071264,-0.038139,0.75611,0.22351,0.15208,-0.20979,-0.03531,-0.088129,0.093701,-0.82581,0.34345,0.64531,0.44998,0.01307
0.015045,-0.0025598,-0.0090892,-0.0056952,0.16815,0.097947,-1.0167,1.6536,-0.12887,-0.024458,-0.0022571,-0.046815,0.84737,0.39434,0.16557,-0.17402,-0.007917,-0.062452,0.028379,-0.69636,0.28548,0.60931,0.40652,0.055233
0.016106,0.0068025,-0.01247,-0.0080629,0.14778,0.11814,-0.98555,1.9149,-0.14982,-0.023272,0.0029917,-0.051639,0.8334,0.56582,0.17747,-0.099868,0.014949,-0.035847,-0.022851,-0.55154,0.19549,0.57728,0.3332,0.071994
0.01928,0.020036,-0.018382,-0.0093405,0.10527,0.12233,-0.97824,2.1411,-0.16291,-0.019922,0.010222,-0.05839,0.75278,0.74296,0.1867,-0.013624,0.030559,-0.012311,-0.042485,-0.44703,0.079337,0.53263,0.23834,0.050629
0.022293,0.030115,-0.024573,-0.011188,0.049386,0.12256,-1.0198,2.3025,-0.1671,-0.015329,0.019141,-0.068839,0.65929,0.93299,0.19218,0.056326,0.038903,0.003719,-0.0092767,-0.4016,-0.047678,0.45947,0.13412,-0.020878
0.02357,0.031201,-0.029022,-0.015079,-0.01016,0.12405,-1.115,2.3739,-0.16246,-0.0099025,0.027079,-0.079317,0.59045,1.1404,0.1937,0.090805,0.040368,0.0087581,0.085215,-0.40216,-0.16966,0.35499,0.030634,-0.14504
0.023377,0.021867,-0.031026,-0.020385,-0.066722,0.12655,-1.246,2.3472,-0.15192,-0.0044307,0.030856,-0.084578,0.55138,1.3597,0.19098,0.085265,0.033958,0.001846,0.22668,-0.42442,-0.27835,0.236,-0.066989,-0.30709
0.023119,0.005644,-0.031472,-0.024743,-0.11842,0.12981,-1.384,2.2386,-0.14077,-0.00059174,0.029289,-0.083262,0.52111,1.5689,0.18222,0.049992,0.018053,-0.014358,0.38255,-0.4506,-0.37508,0.13338,-0.15703,-0.4759
0.023766,-0.011022,-0.032026,-0.026229,-0.16671,0.13664,-1.5068,2.0853,-0.13375,6.7679e-006,0.024013,-0.079641,0.47295,1.7296,0.16452,0.0057886,-0.0066983,-0.033716,0.51865,-0.47256,-0.4662,0.076196,-0.23733,-0.61545
0.025,-0.022101,-0.033639,-0.024976,-0.21349,0.15024,-1.6096,1.9322,-0.13234,-0.0025345,0.017942,-0.079849,0.39165,1.7989,0.1367,-0.024892,-0.034982,-0.048412,0.61706,-0.48425,-0.55651,0.07563,-0.30318,-0.70033
0.025664,-0.024959,-0.035459,-0.022565,-0.25881,0.16923,-1.6994,1.8131,-0.13474,-0.0059234,0.012831,-0.086128,0.27542,1.7503,0.10229,-0.028948,-0.057555,-0.051927,0.68336,-0.47736,-0.64587,0.11922,-0.34902,-0.72467
0.024784,-0.021533,-0.035209,-0.02004,-0.30033,0.1866,-1.7802,1.7388,-0.13869,-0.0071535,0.0082549,-0.094564,0.12566,1.5911,0.069252,-0.0095477,-0.06541,-0.041715,0.73886,-0.44796,-0.72994,0.17925,-0.3721,-0.69815
0.022132,-0.016983,-0.031035,-0.016926,-0.33391,0.19471,-1.842,1.698,-0.14451,-0.0047688,0.0028885,-0.098545,-0.061416,1.3622,0.045512,0.016781,-0.054772,-0.019964,0.80394,-0.40667,-0.80294,0.22872,-0.37439,-0.63303
0.018059,-0.016368,-0.023448,-0.012475,-0.35508,0.19196,-1.8639,1.6688,-0.15527,6.878e-005,-0.0031987,-0.094787,-0.2892,1.1178,0.033181,0.032002,-0.0293,0.0080681,0.8841,-0.37646,-0.85941,0.25398,-0.36045,-0.53308
0.013174,-0.021334,-0.015597,-0.0077095,-0.36143,0.18413,-1.8277,1.631,-0.17372,0.0045451,-0.0075981,-0.086346,-0.54424,0.89461,0.026378,0.028865,0.0022903,0.037013,0.96697,-0.37197,-0.8945,0.25655,-0.33281,-0.39399
0.0083188,-0.029149,-0.011315,-0.0056744,-0.35501,0.17814,-1.7294,1.5719,-0.19867,0.0061895,-0.007105,-0.079907,-0.7854,0.69278,0.015263,0.014298,0.031507,0.063665,1.0299,-0.37479,-0.90417,0.24606,-0.28923,-0.21488
0.0046188,-0.034953,-0.012344,-0.0090066,-0.34252,0.17392,-1.5792,1.484,-0.22417,0.0042139,-0.00053329,-0.0799,-0.95386,0.48237,-0.006236,0.0021406,0.054399,0.087216,1.0513,-0.32999,-0.88622,0.23183,-0.22484,-0.011185
0.0030457,-0.035641,-0.016959,-0.016956,-0.33093,0.16218,-1.3902,1.3624,-0.24226,-0.00056011,0.0097757,-0.084753,-1.0022,0.23121,-0.035094,0.0025571,0.071851,0.10773,1.0176,-0.17592,-0.84138,0.22005,-0.13843,0.18353
0.0035436,-0.032365,-0.021194,-0.025003,-0.31968,0.13049,-1.1708,1.2057,-0.24728,-0.0065952,0.019341,-0.088424,-0.92276,-0.065109,-0.060761,0.017269,0.086165,0.12443,0.92511,0.10981,-0.77307,0.21628,-0.038058,0.33049
0.0045649,-0.029634,-0.021706,-0.027986,-0.29507,0.072453,-0.92693,1.0197,-0.23813,-0.012376,0.024848,-0.085429,-0.75247,-0.37216,-0.072586,0.042722,0.097305,0.13519,0.77784,0.484,-0.6858,0.22841,0.059117,0.40519
0.0038313,-0.031744,-0.018025,-0.024179,-0.23325,-0.008006,-0.67311,0.81962,-0.2175,-0.016684,0.026549,-0.074724,-0.54931,-0.63119,-0.06711,0.075109,0.10224,0.13769,0.58635,0.85546,-0.58405,0.26492,0.13388,0.40873
5.9805e-005,-0.039372,-0.012521,-0.016629,-0.1135,-0.10002,-0.43756,0.62479,-0.1895,-0.018773,0.027565,-0.059419,-0.3573,-0.78841,-0.049466,0.11053,0.097827,0.13111,0.36714,1.1362,-0.47336,0.32852,0.17495,0.36167
-0.0057095,-0.04897,-0.0083273,-0.010451,0.065076,-0.19283,-0.25323,0.44977,-0.158,-0.01867,0.030592,-0.043483,-0.18674,-0.8196,-0.028247,0.14081,0.084318,0.11692,0.14107,1.2877,-0.36291,0.4096,0.18505,0.28545
-0.010488,-0.055293,-0.0070088,-0.0085719,0.27477,-0.28034,-0.13961,0.29831,-0.1267,-0.0172,0.034892,-0.029126,-0.022754,-0.73658,-0.008672,0.15233,0.065967,0.098289,-0.071011,1.3273,-0.26696,0.48451,0.17855,0.18688
-0.011381,-0.055037,-0.0077571,-0.0097796,0.46648,-0.36086,-0.090724,0.16544,-0.099419,-0.015281,0.036352,-0.017154,0.14785,-0.57531,0.010173,0.13294,0.048033,0.078328,-0.25435,1.2962,-0.20227,0.52129,0.17193,0.059008
-0.0078047,-0.04892,-0.0084681,-0.010632,0.59079,-0.43463,-0.080255,0.04639,-0.079346,-0.012816,0.030798,-0.0090392,0.31521,-0.37666,0.032379,0.082908,0.032958,0.058608,-0.40498,1.2202,-0.182,0.49166,0.17393,-0.10242
-0.0021144,-0.040903,-0.0075503,-0.0091123,0.62138,-0.50273,-0.079995,-0.054319,-0.067384,-0.0083521,0.017923,-0.0075498,0.44756,-0.17229,0.060044,0.018982,0.019257,0.03891,-0.52988,1.0988,-0.2095,0.38514,0.18219,-0.2824
0.0019063,-0.035318,-0.0049299,-0.0064307,0.56661,-0.56737,-0.076434,-0.12031,-0.061412,-0.00034836,0.0025693,-0.014504,0.51173,0.018687,0.090896,-0.034676,0.0040416,0.01826,-0.64201,0.92797,-0.27623,0.21865,0.18837,-0.44624
0.0015953,-0.034034,-0.0016728,-0.0054535,0.46216,-0.63126,-0.073264,-0.12943,-0.057725,0.010628,-0.0077822,-0.027633,0.49448,0.18457,0.12041,-0.06268,-0.013513,-0.0036423,-0.75219,0.72758,-0.36539,0.034459,0.18692,-0.55763
-0.0028538,-0.035519,0.0010394,-0.0076129,0.34959,-0.69461,-0.080928,-0.065628,-0.053764,0.020821,-0.0075376,-0.040067,0.40855,0.31445,0.14562,-0.067773,-0.031173,-0.025643,-0.86105,0.54288,-0.45891,-0.11668,0.18,-0.60079
-0.0086425,-0.036262,0.0024411,-0.011478,0.25441,-0.75168,-0.1046,0.06886,-0.049718,0.024977,0.0036422,-0.043856,0.28213,0.39534,0.16644,-0.064716,-0.045908,-0.045382,-0.95463,0.41611,-0.54344,-0.20101,0.1749,-0.5878
-0.012279,-0.033396,0.0019054,-0.014268,0.17741,-0.79044,-0.14012,0.24739,-0.047466,0.020194,0.020732,-0.035105,0.14396,0.41402,0.18328,-0.064389,-0.056755,-0.060155,-1.0065,0.3559,-0.61237,-0.22092,0.17689,-0.54546
-0.011722,-0.026673,-0.001339,-0.014572,0.10327,-0.79681,-0.17753,0.42369,-0.047886,0.0089603,0.036247,-0.016536,0.01625,0.36104,0.1937,-0.063137,-0.065058,-0.067779,-0.98719,0.33536,-0.66399,-0.21282,0.18408,-0.49394
-0.0073763,-0.018554,-0.0076047,-0.013451,0.018351,-0.76128,-0.20523,0.54873,-0.049252,-0.0016151,0.044202,0.0047118,-0.083431,0.23353,0.19242,-0.047442,-0.071793,-0.067248,-0.8787,0.32115,-0.69837,-0.22211,0.18888,-0.43638
-0.0015236,-0.012578,-0.015533,-0.012952,-0.076065,-0.68438,-0.21145,0.59363,-0.048483,-0.0045903,0.042943,0.02222,-0.13954,0.035502,0.17521,-0.0091173,-0.075054,-0.059269,-0.68755,0.30544,-0.71586,-0.27083,0.18412,-0.36781
0.0031207,-0.011318,-0.021716,-0.013756,-0.16428,-0.57846,-0.18625,0.5665,-0.044188,0.0014196,0.035633,0.034137,-0.14253,-0.22256,0.1436,0.043827,-0.070924,-0.046466,-0.44893,0.30935,-0.71777,-0.34181,0.16829,-0.29268
0.0047077,-0.015233,-0.022268,-0.014475,-0.22788,-0.4658,-0.12835,0.51055,-0.038465,0.010803,0.028285,0.042915,-0.097423,-0.52283,0.10569,0.091164,-0.057461,-0.032619,-0.21707,0.35484,-0.70783,-0.39158,0.14574,-0.23235
0.0028107,-0.022826,-0.015606,-0.013299,-0.25789,-0.37364,-0.053259,0.48094,-0.035427,0.015192,0.026264,0.051775,-0.027269,-0.83714,0.071698,0.11541,-0.037824,-0.020652,-0.043844,0.43308,-0.69219,-0.38222,0.12297,-0.21316
-0.0016814,-0.031594,-0.0041222,-0.010206,-0.25792,-0.32717,0.0070559,0.51276,-0.037436,0.010329,0.031005,0.06143,0.03518,-1.1245,0.047987,0.11393,-0.018675,-0.010304,0.044459,0.50108,-0.67695,-0.30741,0.10513,-0.24435
-0.0069734,-0.038998,0.0070391,-0.0073468,-0.23833,-0.34127,0.018755,0.60081,-0.042423,-0.00011044,0.038988,0.069865,0.064073,-1.3337,0.034352,0.097982,-0.0044204,0.0025916,0.059567,0.5107,-0.6648,-0.19366,0.095786,-0.30587
-0.010922,-0.043184,0.013486,-0.0070854,-0.20926,-0.41444,-0.03297,0.70555,-0.044965,-0.0072299,0.044018,0.07485,0.053382,-1.415,0.026705,0.081576,0.0076347,0.023918,0.044801,0.44352,-0.6537,-0.078685,0.098413,-0.35774
-0.011837,-0.043491,0.014557,-0.0095451,-0.17943,-0.52844,-0.1335,0.78098,-0.040542,-0.0042204,0.041695,0.076316,0.016264,-1.3372,0.022169,0.071691,0.026039,0.057103,0.051876,0.31986,-0.6396,0.013307,0.1161,-0.3647
-0.009424,-0.040729,0.013275,-0.012083,-0.15953,-0.65582,-0.24965,0.80385,-0.029483,0.0077836,0.032918,0.076186,-0.028174,-1.1048,0.021743,0.068142,0.057803,0.099795,0.11306,0.17567,-0.62198,0.080534,0.14825,-0.31661
-0.0053096,-0.036867,0.013361,-0.011346,-0.163,-0.77188,-0.35446,0.78365,-0.017259,0.020311,0.023538,0.076026,-0.069534,-0.76288,0.028391,0.070048,0.1007,0.1439,0.22406,0.031036,-0.60772,0.13416,0.18746,-0.23016
-0.0024149,-0.033931,0.015951,-0.0062005,-0.19956,-0.86421,-0.44513,0.74844,-0.010854,0.024211,0.020111,0.075221,-0.11031,-0.38477,0.04303,0.079237,0.14212,0.17908,0.34713,-0.11958,-0.6092,0.18364,0.22095,-0.13339
-0.0031389,-0.032576,0.018816,0.00098831,-0.26565,-0.9337,-0.5384,0.72112,-0.014242,0.016786,0.025002,0.071836,-0.15683,-0.046283,0.062747,0.095545,0.16639,0.1973,0.43236,-0.28769,-0.63638,0.23108,0.23704,-0.048271
-0.0074147,-0.031416,0.018575,0.0058888,-0.34166,-0.98694,-0.64745,0.70613,-0.026513,0.003515,0.034878,0.065444,-0.20525,0.20104,0.082985,0.10938,0.16517,0.19573,0.44474,-0.46268,-0.68836,0.27651,0.23172,0.015214
-0.012246,-0.027902,0.013797,0.0054061,-0.40146,-1.0262,-0.76159,0.69539,-0.043623,-0.0067688,0.043706,0.0589,-0.23489,0.34408,0.10121,0.10171,0.14309,0.17704,0.38184,-0.6036,-0.751,0.32396,0.20971,0.053239
-0.013508,-0.020454,0.0063337,0.00012832,-0.42829,-1.0446,-0.84773,0.68426,-0.061533,-0.008857,0.047521,0.056858,-0.21543,0.40344,0.11807,0.055387,0.11443,0.14813,0.27317,-0.65999,-0.80358,0.37835,0.17907,0.061625
-0.0089973,-0.010359,-3.7107e-005,-0.0058465,-0.42467,-1.0301,-0.8735,0.68082,-0.077784,-0.0044571,0.046815,0.062024,-0.12426,0.41492,0.1348,-0.029963,0.093845,0.11844,0.16312,-0.60442,-0.82968,0.43424,0.14454,0.038383
-0.00042099,-0.0018467,-0.0022612,-0.0076708,-0.40804,-0.97497,-0.83247,0.69973,-0.09067,0.00040268,0.044925,0.072659,0.036988,0.40938,0.14968,-0.13211,0.088466,0.097935,0.088187,-0.45012,-0.82446,0.46803,0.1062,-0.0070331
0.0074703,0.00016029,0.00023785,-0.0032302,-0.39631,-0.88454,-0.75026,0.74746,-0.097875,0.00091828,0.044569,0.083923,0.23665,0.40142,0.15762,-0.21585,0.096706,0.094201,0.061427,-0.24174,-0.79289,0.44456,0.064126,-0.049859
0.010212,-0.0065784,0.0057117,0.0050859,-0.39572,-0.77846,-0.66693,0.81346,-0.096813,-0.0029467,0.046041,0.092059,0.42192,0.39009,0.15373,-0.25212,0.11305,0.10917,0.07146,-0.030368,-0.74177,0.33782,0.023666,-0.060546
0.0068816,-0.019321,0.011454,0.01171,-0.40096,-0.6845,-0.61074,0.87542,-0.086686,-0.007392,0.048258,0.097543,0.5378,0.36698,0.13786,-0.23344,0.13357,0.13741,0.094441,0.14658,-0.67287,0.15273,-0.005387,-0.024931
0.0006138,-0.030949,0.01507,0.011631,-0.40535,-0.62759,-0.58385,0.91354,-0.069994,-0.0084897,0.050695,0.1042,0.54724,0.32544,0.11596,-0.1758,0.15738,0.16804,0.11036,0.26962,-0.58337,-0.06833,-0.016226,0.04199
-0.0041484,-0.033653,0.015108,0.0040562,-0.41016,-0.61944,-0.56836,0.92106,-0.051489,-0.0050371,0.053582,0.11506,0.44375,0.26684,0.096886,-0.10774,0.18362,0.18994,0.11348,0.33147,-0.47247,-0.26141,-0.012582,0.10196
-0.0053922,-0.023834,0.011411,-0.0066652,-0.42381,-0.65344,-0.54389,0.90321,-0.03521,0.001485,0.056255,0.12895,0.25246,0.20321,0.087297,-0.054995,0.20804,0.19736,0.11113,0.33423,-0.34747,-0.37128,-0.0087499,0.11704
-0.0050828,-0.0051454,0.0054635,-0.013789,-0.45202,-0.70697,-0.50042,0.8681,-0.022427,0.0088957,0.056191,0.14111,0.020755,0.15654,0.088438,-0.030234,0.22322,0.19191,0.11299,0.29438,-0.223,-0.37774,-0.020623,0.074149
-0.0071434,0.012773,0.00018458,-0.012828,-0.48879,-0.75014,-0.43838,0.81933,-0.012533,0.015902,0.050779,0.14737,-0.19665,0.15377,0.096612,-0.031494,0.22275,0.17971,0.11893,0.24746,-0.11352,-0.30142,-0.054177,-0.0068069
-0.013576,0.019813,-0.0015558,-0.0047688,-0.51741,-0.75755,-0.36121,0.75677,-0.005862,0.022089,0.040597,0.14804,-0.35326,0.21681,0.10584,-0.047381,0.20579,0.16601,0.1148,0.24072,-0.024981,-0.18574,-0.10023,-0.085434
-0.022107,0.011979,0.00082596,0.0046512,-0.52079,-0.71803,-0.27126,0.68234,-0.0052892,0.02707,0.030521,0.14777,-0.42362,0.35016,0.11023,-0.064785,0.17797,0.15138,0.080034,0.31216,0.047704,-0.068139,-0.13934,-0.12273
-0.027507,-0.0055826,0.0045791,0.0091346,-0.49266,-0.638,-0.1736,0.60318,-0.014555,0.030216,0.026459,0.15121,-0.41158,0.53314,0.10514,-0.075784,0.14754,0.1325,0.0024448,0.46794,0.11574,0.039688,-0.15302,-0.096873
-0.025638,-0.021758,0.0053908,0.0063268,-0.44041,-0.53697,-0.081133,0.52775,-0.034677,0.031314,0.029958,0.1582,-0.35078,0.72377,0.087845,-0.081732,0.11995,0.10617,-0.11073,0.67487,0.18814,0.14949,-0.13356,-0.00639
-0.016955,-0.02704,0.0011448,-0.00084097,-0.3789,-0.4377,-0.011985,0.45831,-0.061931,0.031202,0.035762,0.16271,-0.29459,0.87593,0.058841,-0.092949,0.095083,0.072917,-0.23485,0.8752,0.26608,0.27618,-0.086901,0.13418
-0.0065843,-0.020013,-0.0055562,-0.0068758,-0.32165,-0.35621,0.022211,0.38731,-0.089604,0.031397,0.035304,0.15645,-0.29544,0.96122,0.022958,-0.12312,0.06884,0.036738,-0.34336,1.0149,0.34309,0.41653,-0.028279,0.29793
-0.00088717,-0.0077638,-0.0088624,-0.0081202,-0.27646,-0.29668,0.027312,0.30146,-0.11219,0.032869,0.023631,0.13461,-0.38084,0.98211,-0.01146,-0.17991,0.037424,0.0014948,-0.42664,1.0671,0.40943,0.54387,0.025586,0.44736
-0.0031421,8.7264e-005,-0.0044152,-0.0051752,-0.24678,-0.2533,0.025433,0.19076,-0.12844,0.035149,0.0036481,0.09943,-0.53869,0.96681,-0.036057,-0.25667,0.0004457,-0.032577,-0.49975,1.0373,0.45703,0.62223,0.06327,0.54036
-0.011574,-0.0011343,0.0067209,-0.0015939,-0.23419,-0.21679,0.040046,0.05556,-0.14079,0.036703,-0.016313,0.058993,-0.72226,0.94835,-0.046821,-0.33112,-0.039175,-0.068682,-0.5918,0.94753,0.48194,0.62795,0.081539,0.54471
-0.020984,-0.0081879,0.018647,-0.00039435,-0.23813,-0.18094,0.078845,-0.09294,-0.15205,0.036235,-0.029451,0.022614,-0.87402,0.94176,-0.046079,-0.37379,-0.077615,-0.1095,-0.7228,0.81483,0.48438,0.56218,0.083597,0.45555
-0.026503,-0.013578,0.025379,-0.0016662,-0.25375,-0.14512,0.1289,-0.2381,-0.16249,0.033656,-0.035552,-0.003937,-0.95439,0.93499,-0.040281,-0.36259,-0.11218,-0.15296,-0.88394,0.63675,0.46754,0.44598,0.073983,0.30293
-0.026603,-0.01237,0.025451,-0.003194,-0.27205,-0.11249,0.16844,-0.36503,-0.16956,0.029841,-0.039613,-0.020135,-0.95777,0.89941,-0.035047,-0.29471,-0.14127,-0.19181,-1.0358,0.39466,0.43632,0.30443,0.053338,0.14111
-0.023448,-0.0062596,0.022285,-0.0030424,-0.28448,-0.086402,0.18516,-0.4656,-0.17021,0.025541,-0.045765,-0.028718,-0.90691,0.81228,-0.031299,-0.18834,-0.16316,-0.21773,-1.1264,0.07103,0.396,0.15352,0.016973,0.024795
-0.02078,-0.0016998,0.020353,-0.001358,-0.2884,-0.068323,0.18572,-0.5399,-0.16326,0.020717,-0.052823,-0.032069,-0.8324,0.67558,-0.025466,-0.072865,-0.17549,-0.22681,-1.1183,-0.33092,0.35101,-0.00088062,-0.040857,-0.012599
-0.021201,-0.0040275,0.021101,0.00022344,-0.28817,-0.05824,0.18911,-0.5946,-0.15014,0.015159,-0.055927,-0.029966,-0.75364,0.51934,-0.013383,0.025818,-0.17669,-0.22208,-1.0068,-0.77778,0.30425,-0.15445,-0.1194,0.03413
-0.024692,-0.01276,0.022368,0.00057879,-0.29027,-0.055601,0.21105,-0.63954,-0.134,0.0098977,-0.052463,-0.020406,-0.67388,0.38826,0.0056378,0.095356,-0.16793,-0.21104,-0.82017,-1.2126,0.25799,-0.29662,-0.20643,0.14954
-0.028993,-0.021867,0.021267,0.0001941,-0.29708,-0.058584,0.25305,-0.68333,-0.11846,0.0079586,-0.045874,-0.0025873,-0.58886,0.32108,0.028139,0.13697,-0.15344,-0.20028,-0.60305,-1.5742,0.21588,-0.41179,-0.28083,0.30923
-0.031199,-0.024489,0.017161,0.00025466,-0.30521,-0.06173,0.30432,-0.72958,-0.10687,0.013354,-0.043023,0.020664,-0.49793,0.33478,0.049816,0.15769,-0.1383,-0.19121,-0.39552,-1.8205,0.18437,-0.48831,-0.32197,0.48601
-0.029444,-0.018034,0.011838,0.00092641,-0.30954,-0.054658,0.35263,-0.77515,-0.10188,0.028634,-0.047392,0.043429,-0.40716,0.42045,0.069855,0.16215,-0.12526,-0.18004,-0.21897,-1.9441,0.17118,-0.52702,-0.31997,0.65083
-0.023849,-0.0056636,0.0072894,0.00088675,-0.30779,-0.024612,0.39312,-0.81197,-0.10441,0.052621,-0.05495,0.060122,-0.32395,0.55013,0.09246,0.14976,-0.11313,-0.16163,-0.074659,-1.9747,0.1807,-0.54165,-0.28002,0.77509
-0.016395,0.0065679,0.0038026,-0.0012829,-0.29973,0.037533,0.42812,-0.83154,-0.11241,0.080049,-0.057232,0.069201,-0.2514,0.68845,0.12414,0.11757,-0.098278,-0.13437,0.047617,-1.9666,0.20872,-0.55144,-0.21888,0.8385
-0.0098607,0.014183,0.00032682,-0.0053302,-0.28162,0.13177,0.46054,-0.82974,-0.12092,0.10354,-0.049049,0.074106,-0.19012,0.80316,0.1689,0.064354,-0.077952,-0.10243,0.1582,-1.9748,0.24061,-0.57203,-0.15724,0.83745
-0.0062843,0.016726,-0.0036778,-0.0091395,-0.24235,0.24835,0.48901,-0.80876,-0.1241,0.1168,-0.033378,0.080511,-0.14649,0.87154,0.22504,-0.0081242,-0.053041,-0.073895,0.26058,-2.0291,0.25551,-0.6104,-0.11317,0.78563
-0.0057702,0.016681,-0.0071517,-0.010426,-0.16804,0.37279,0.50952,-0.77519,-0.11872,0.11702,-0.018522,0.091987,-0.13783,0.88276,0.2855,-0.096231,-0.028291,-0.056077,0.35182,-2.1186,0.23539,-0.66422,-0.098383,0.70498
-0.0064674,0.016417,-0.0082746,-0.0087031,-0.053794,0.49295,0.52081,-0.73574,-0.10619,0.10511,-0.010141,0.10744,-0.1861,0.83694,0.34064,-0.1944,-0.010042,-0.05121,0.42835,-2.197,0.17468,-0.72206,-0.11568,0.61479
-0.0059171,0.016082,-0.0062562,-0.0056935,0.086083,0.60258,0.5268,-0.69397,-0.091648,0.083881,-0.0059974,0.12214,-0.30146,0.74223,0.38075,-0.29195,-0.0030018,-0.055309,0.49185,-2.2103,0.084635,-0.76359,-0.15622,0.52834
-0.0029225,0.014117,-0.0022661,-0.0039378,0.21886,0.6994,0.53318,-0.65016,-0.080431,0.055814,0.0013096,0.13132,-0.4678,0.61109,0.39681,-0.36963,-0.0077745,-0.060788,0.55035,-2.1316,-0.010411,-0.76333,-0.19934,0.45808
0.0015194,0.0095672,0.0012477,-0.0049954,0.30684,0.78051,0.54211,-0.60419,-0.074719,0.022199,0.016218,0.13337,-0.6435,0.45735,0.38026,-0.40186,-0.020169,-0.060941,0.61336,-1.9812,-0.083603,-0.70207,-0.21882,0.41968
0.0051192,0.0038454,0.0020501,-0.0087041,0.32581,0.84004,0.55101,-0.55888,-0.072855,-0.015623,0.034761,0.13026,-0.78091,0.29449,0.32391,-0.36714,-0.032565,-0.053345,0.6843,-1.8149,-0.11746,-0.58237,-0.196,0.42561
0.0064121,0.0002504,-0.00082716,-0.013717,0.27698,0.87196,0.55683,-0.52103,-0.071449,-0.054143,0.047387,0.12518,-0.85314,0.13386,0.22447,-0.26243,-0.036944,-0.040195,0.75608,-1.686,-0.11059,-0.43682,-0.13227,0.47073
0.0062702,0.0016264,-0.0069573,-0.018474,0.18585,0.87563,0.56113,-0.49949,-0.06821,-0.086919,0.047511,0.11914,-0.86945,-0.018578,0.085656,-0.11201,-0.028458,-0.025649,0.81322,-1.6065,-0.07579,-0.3178,-0.050835,0.52366
0.0073176,0.0081381,-0.014951,-0.02185,0.089421,0.85885,0.56958,-0.50116,-0.063275,-0.10664,0.037571,0.10921,-0.86714,-0.16536,-0.080302,0.037087,-0.0077489,-0.012172,0.83947,-1.5391,-0.031117,-0.27059,0.016265,0.53639
0.011552,0.016964,-0.022979,-0.023484,0.019234,0.83507,0.58591,-0.52716,-0.058524,-0.10918,0.026676,0.089525,-0.88374,-0.31622,-0.25373,0.13294,0.019513,0.0015328,0.82535,-1.4255,0.0097827,-0.30618,0.04838,0.47009
0.018213,0.024071,-0.029314,-0.024016,-0.01107,0.81628,0.60604,-0.57069,-0.056102,-0.096877,0.022047,0.05459,-0.92805,-0.47958,-0.41072,0.14194,0.045803,0.019316,0.77019,-1.2299,0.042018,-0.39412,0.049004,0.31981
0.023948,0.026635,-0.032982,-0.025,-0.008445,0.8069,0.61954,-0.61759,-0.057536,-0.078177,0.022342,0.0027317,-0.96966,-0.65054,-0.52763,0.066004,0.065506,0.043463,0.6777,-0.96286,0.066618,-0.48221,0.040944,0.12028
0.025384,0.024399,-0.03429,-0.028007,0.0071276,0.8034,0.61796,-0.64955,-0.063663,-0.06333,0.019136,-0.062604,-0.95405,-0.80469,-0.58619,-0.054841,0.076542,0.070285,0.54978,-0.66794,0.084365,-0.52941,0.047438,-0.071596
0.021991,0.01933,-0.034733,-0.033097,0.016055,0.79975,0.60278,-0.64978,-0.074588,-0.058765,0.0050723,-0.13471,-0.83309,-0.90537,-0.57865,-0.15651,0.078875,0.089023,0.38555,-0.38341,0.092377,-0.52832,0.074144,-0.20506
0.016684,0.014223,-0.036058,-0.037925,0.010757,0.79395,0.58478,-0.60959,-0.08917,-0.064001,-0.018843,-0.2074,-0.59185,-0.92223,-0.51113,-0.17753,0.071814,0.086184,0.1879,-0.11348,0.086459,-0.5022,0.10617,-0.25667
0.013518,0.011264,-0.039022,-0.038817,-0.0016009,0.79048,0.57453,-0.53368,-0.10454,-0.073274,-0.043274,-0.278,-0.25679,-0.84935,-0.40305,-0.088416,0.053235,0.053646,-0.027753,0.16769,0.066565,-0.48183,0.12165,-0.23427
0.014411,0.011171,-0.042802,-0.033609,-0.0070427,0.79677,0.57214,-0.44087,-0.1166,-0.080574,-0.057597,-0.34727,0.11637,-0.71029,-0.28146,0.089377,0.022084,-0.0045944,-0.23181,0.48528,0.03968,-0.48196,0.10992,-0.16652
0.017778,0.012953,-0.045645,-0.024129,0.0024727,0.81703,0.56585,-0.35843,-0.12164,-0.084333,-0.057679,-0.41658,0.46573,-0.54648,-0.17195,0.28683,-0.018004,-0.072415,-0.39121,0.83562,0.016753,-0.49468,0.079356,-0.087284
0.020233,0.014315,-0.046385,-0.015857,0.021557,0.84855,0.5414,-0.31085,-0.11783,-0.088543,-0.048093,-0.48489,0.74424,-0.39677,-0.090627,0.41638,-0.057835,-0.12945,-0.48742,1.1854,0.0058828,-0.50128,0.049629,-0.022607
0.01978,0.012813,-0.045644,-0.014397,0.035476,0.88322,0.49448,-0.30793,-0.10536,-0.1001,-0.037731,-0.54819,0.93065,-0.28069,-0.041068,0.41498,-0.086459,-0.16214,-0.52889,1.4972,0.0074694,-0.48978,0.036552,0.016737
0.017593,0.0074884,-0.045649,-0.021178,0.03251,0.9123,0.43595,-0.33866,-0.085028,-0.12497,-0.033088,-0.60126,1.0289,-0.19392,-0.017326,0.27796,-0.097366,-0.17042,-0.54718,1.7567,0.015206,-0.46348,0.042384,0.036343
0.016834,-6.4728e-005,-0.04859,-0.031935,0.01378,0.93045,0.38569,-0.37599,-0.056883,-0.16571,-0.034578,-0.63934,1.0593,-0.11647,-0.010156,0.061504,-0.09225,-0.16534,-0.57722,1.9758,0.021522,-0.43616,0.058009,0.051946
0.019719,-0.0062995,-0.054648,-0.039529,-0.0083398,0.9364,0.36049,-0.39102,-0.020635,-0.22056,-0.037903,-0.65703,1.0471,-0.028116,-0.012203,-0.1503,-0.079217,-0.15982,-0.63435,2.1725,0.022345,-0.42043,0.072331,0.076786
0.02554,-0.0079873,-0.0613,-0.039176,-0.021793,0.93115,0.36516,-0.36917,0.022137,-0.28237,-0.038387,-0.64569,1.0117,0.076423,-0.019394,-0.29356,-0.06687,-0.15975,-0.70345,2.3456,0.017317,-0.41968,0.079294,0.1086
0.031397,-0.0045902,-0.064754,-0.032032,-0.025482,0.91633,0.39227,-0.31799,0.066088,-0.33693,-0.034551,-0.59363,0.9618,0.18053,-0.02898,-0.35608,-0.059082,-0.16196,-0.74752,2.4718,0.0063316,-0.42832,0.077666,0.12585
0.034755,0.0011968,-0.062712,-0.024251,-0.028635,0.89418,0.42839,-0.2609,0.1029,-0.36354,-0.028653,-0.49211,0.89546,0.25289,-0.036868,-0.37152,-0.054352,-0.15956,-0.72981,2.5243,-0.013187,-0.43779,0.067056,0.098798
0.035365,0.0052377,-0.056362,-0.022231,-0.039235,0.8683,0.46095,-0.22093,0.12517,-0.34132,-0.024593,-0.34474,0.80473,0.26853,-0.036939,-0.38306,-0.04939,-0.14932,-0.63545,2.4947,-0.044826,-0.44207,0.046782,0.010307
0.034787,0.0046064,-0.049779,-0.027763,-0.052605,0.84334,0.48158,-0.20577,0.13083,-0.26085,-0.025211,-0.1726,0.68134,0.2331,-0.023202,-0.406,-0.042977,-0.13457,-0.47998,2.395,-0.088563,-0.43885,0.019516,-0.12805
0.0342,-0.00097696,-0.046859,-0.036799,-0.051693,0.82317,0.48662,-0.20449,0.12484,-0.13401,-0.030829,-0.0085099,0.52088,0.19208,0.0065649,-0.4173,-0.036497,-0.12164,-0.30145,2.2373,-0.13759,-0.42732,-0.0051968,-0.27752
0.032812,-0.0096922,-0.048134,-0.042629,-0.019841,0.80895,0.47696,-0.19779,0.11641,0.0067992,-0.039517,0.11774,0.32528,0.21134,0.048364,-0.3776,-0.031219,-0.11376,-0.14218,2.0128,-0.18047,-0.40593,-0.013673,-0.3917
0.028559,-0.019131,-0.050266,-0.04086,0.045072,0.79875,0.45813,-0.17312,0.11371,0.12263,-0.048326,0.19324,0.10491,0.33419,0.092852,-0.26567,-0.025739,-0.10795,-0.031167,1.6955,-0.20787,-0.37302,0.0028038,-0.44064
0.02052,-0.027312,-0.048914,-0.032427,0.12792,0.78895,0.43884,-0.13298,0.1196,0.18752,-0.054504,0.22436,-0.1202,0.54153,0.12961,-0.098075,-0.016655,-0.097734,0.024766,1.2702,-0.21875,-0.32969,0.039712,-0.42297
0.01067,-0.032833,-0.0427,-0.02263,0.20774,0.77618,0.42678,-0.091104,0.13113,0.20045,-0.05628,0.22634,-0.3227,0.74698,0.15237,0.078533,-0.0020401,-0.078764,0.039094,0.76471,-0.22081,-0.28183,0.07993,-0.35938
0.0030844,-0.03491,-0.034727,-0.017232,0.27325,0.75838,0.42348,-0.060889,0.1425,0.18178,-0.053482,0.20931,-0.47614,0.83855,0.16163,0.21315,0.015845,-0.052232,0.036967,0.25541,-0.22421,-0.23847,0.10436,-0.27537
0.00097955,-0.033881,-0.030059,-0.018635,0.32942,0.73455,0.4228,-0.045648,0.14883,0.15794,-0.048134,0.17314,-0.56627,0.74514,0.16272,0.27432,0.031712,-0.023285,0.045657,-0.16038,-0.23351,-0.20677,0.10484,-0.18771
0.0040131,-0.031653,-0.031192,-0.024661,0.39002,0.70403,0.4156,-0.037209,0.14827,0.14608,-0.044554,0.11477,-0.59703,0.48379,0.16047,0.25888,0.041625,0.0037077,0.087542,-0.40629,-0.24412,-0.18725,0.088964,-0.10333
0.0082,-0.031093,-0.035545,-0.030399,0.4635,0.66584,0.39791,-0.022115,0.14159,0.14881,-0.048065,0.039711,-0.5831,0.15359,0.1542,0.18644,0.046639,0.028431,0.1755,-0.45473,-0.2465,-0.17341,0.073033,-0.027394
0.0086827,-0.034313,-0.037423,-0.031478,0.5441,0.61827,0.37583,0.010279,0.13072,0.15956,-0.062286,-0.034513,-0.53189,-0.121,0.13675,0.088682,0.052153,0.053578,0.3092,-0.32815,-0.23448,-0.15692,0.0687,0.029563
0.0032494,-0.041109,-0.032931,-0.026589,0.6145,0.55881,0.36172,0.062861,0.11771,0.17148,-0.086416,-0.08747,-0.42948,-0.2584,0.098604,0.00035321,0.063321,0.080908,0.47244,-0.082967,-0.21106,-0.13427,0.074338,0.053453
-0.0061063,-0.048935,-0.02356,-0.017939,0.65627,0.48478,0.36347,0.13025,0.10464,0.18205,-0.11473,-0.10951,-0.24681,-0.25348,0.034602,-0.048004,0.080519,0.10849,0.63464,0.2067,-0.18673,-0.10943,0.077801,0.03679
-0.014713,-0.05448,-0.015184,-0.0097567,0.65958,0.39457,0.37532,0.20129,0.093874,0.19169,-0.13934,-0.10714,0.033017,-0.1585,-0.050584,-0.037394,0.098796,0.1318,0.75907,0.46025,-0.17159,-0.089806,0.067718,-0.010341
-0.018578,-0.055548,-0.013199,-0.0059524,0.62628,0.2894,0.37859,0.26319,0.087762,0.20005,-0.15479,-0.094837,0.38626,-0.033714,-0.14166,0.033182,0.11149,0.14718,0.81656,0.60416,-0.16783,-0.078735,0.04333,-0.056836
-0.017015,-0.051944,-0.017934,-0.0081514,0.56713,0.17396,0.3532,0.30633,0.08789,0.20453,-0.16124,-0.080994,0.74566,0.090109,-0.21749,0.14543,0.11448,0.15403,0.79823,0.59395,-0.16831,-0.070952,0.014376,-0.058906
-0.012714,-0.045173,-0.024297,-0.014963,0.49718,0.055685,0.29157,0.3285,0.094388,0.20205,-0.16384,-0.061151,1.0319,0.21116,-0.25945,0.26814,0.10734,0.15319,0.71959,0.43583,-0.16215,-0.05535,-0.0086582,0.021584
-0.0094067,-0.037694,-0.025921,-0.022741,0.43156,-0.057248,0.20375,0.33595,0.10597,0.19145,-0.16836,-0.024689,1.1982,0.32851,-0.25916,0.36893,0.090982,0.14364,0.61268,0.18943,-0.14266,-0.023133,-0.024994,0.19605
-0.0090821,-0.032207,-0.020277,-0.02748,0.38139,-0.15756,0.10979,0.33944,0.12063,0.17382,-0.17632,0.03181,1.251,0.42068,-0.2215,0.42548,0.064916,0.12125,0.51066,-0.057302,-0.11154,0.025175,-0.045013,0.43624
-0.010818,-0.030809,-0.010527,-0.026937,0.34965,-0.23967,0.025614,0.34669,0.13628,0.15016,-0.18302,0.097519,1.2278,0.4555,-0.16124,0.43189,0.027339,0.082075,0.43374,-0.22852,-0.076943,0.07957,-0.080943,0.67936
-0.011957,-0.033856,-0.0028358,-0.021822,0.32982,-0.30016,-0.045904,0.35662,0.15102,0.11905,-0.18001,0.15335,1.1499,0.42288,-0.095688,0.39883,-0.0217,0.027667,0.38403,-0.28978,-0.04802,0.12735,-0.13489,0.85362
-0.010485,-0.039198,-0.0016842,-0.015326,0.31035,-0.33875,-0.11239,0.35997,0.16303,0.077094,-0.1604,0.18522,0.99297,0.35656,-0.038108,0.34806,-0.07718,-0.032441,0.35079,-0.24929,-0.030472,0.16145,-0.1953,0.91353
-0.0066476,-0.042879,-0.0070646,-0.011195,0.28384,-0.35971,-0.18188,0.34715,0.17078,0.022805,-0.12368,0.19241,0.70726,0.31819,0.0043092,0.3026,-0.12931,-0.084034,0.32123,-0.13747,-0.025764,0.18381,-0.24593,0.86474
-0.0026117,-0.041472,-0.015398,-0.01154,0.25429,-0.37174,-0.25548,0.3177,0.17369,-0.038887,-0.076882,0.18415,0.27524,0.3515,0.028537,0.27541,-0.16746,-0.11552,0.28982,0.013218,-0.033116,0.20159,-0.28048,0.76091
-0.00063346,-0.034615,-0.022678,-0.01573,0.23532,-0.38505,-0.32945,0.28403,0.17288,-0.095747,-0.031056,0.1691,-0.24026,0.44495,0.03359,0.26241,-0.18498,-0.12394,0.26116,0.17254,-0.051583,0.21941,-0.31041,0.67173
-0.0013907,-0.025641,-0.026818,-0.020992,0.23931,-0.40641,-0.40349,0.26569,0.17086,-0.13326,0.0049782,0.14843,-0.70291,0.53832,0.021183,0.24609,-0.18149,-0.11531,0.24578,0.30539,-0.080446,0.23389,-0.35891,0.64175
-0.0038057,-0.019525,-0.027602,-0.024155,0.26611,-0.43532,-0.48566,0.27751,0.16983,-0.14313,0.029802,0.11879,-0.96909,0.5721,-0.0018942,0.20997,-0.16155,-0.099653,0.25198,0.37031,-0.11835,0.23468,-0.44483,0.66723
-0.0062688,-0.019542,-0.025197,-0.023347,0.30162,-0.4646,-0.58724,0.3197,0.16949,-0.12932,0.049709,0.080776,-0.97026,0.53971,-0.023743,0.15485,-0.1316,-0.084595,0.27892,0.33361,-0.16259,0.21156,-0.56851,0.70527
-0.0079797,-0.025161,-0.019365,-0.018687,0.3283,-0.48556,-0.71082,0.37664,0.16632,-0.10648,0.073379,0.04329,-0.75385,0.49681,-0.032144,0.10347,-0.097779,-0.072418,0.31551,0.19017,-0.20916,0.16252,-0.70897,0.70607
-0.0092172,-0.032691,-0.010235,-0.011869,0.33868,-0.49414,-0.84202,0.42477,0.15551,-0.091205,0.10435,0.018636,-0.45427,0.51644,-0.021654,0.087335,-0.065582,-0.061652,0.34644,-0.028163,-0.25311,0.097449,-0.83312,0.6429
-0.010528,-0.037966,0.00060962,-0.0051982,0.33946,-0.49361,-0.95357,0.44404,0.13464,-0.092388,0.13705,0.012955,-0.21505,0.62565,0.0027579,0.12384,-0.040052,-0.050813,0.36243,-0.26662,-0.28855,0.034682,-0.90922,0.51962
-0.011871,-0.038921,0.010475,-0.00061585,0.34233,-0.4916,-1.0202,0.42553,0.10646,-0.10774,0.16009,0.021433,-0.11461,0.77686,0.02918,0.20101,-0.02489,-0.040572,0.36773,-0.47478,-0.30876,-0.0075584,-0.91666,0.35599
-0.012649,-0.036319,0.01745,0.0010584,0.35017,-0.49428,-1.0335,0.37179,0.078082,-0.12858,0.16477,0.033014,-0.14068,0.87974,0.047021,0.28248,-0.020446,-0.032747,0.37873,-0.62674,-0.30752,-0.019543,-0.84948,0.16853
-0.012525,-0.032552,0.021967,0.00058374,0.35176,-0.5023,-1.0061,0.29191,0.056593,-0.14802,0.15219,0.039965,-0.22123,0.86855,0.053512,0.32927,-0.022573,-0.02777,0.41278,-0.72163,-0.28191,-0.0034384,-0.71636,-0.03482
-0.012064,-0.029787,0.026118,0.00014344,0.33048,-0.5119,-0.9621,0.19611,0.04406,-0.1653,0.13291,0.04295,-0.28285,0.75022,0.053492,0.32187,-0.024289,-0.023651,0.47344,-0.7694,-0.23505,0.02976,-0.53962,-0.24474
-0.012401,-0.028786,0.03107,0.0022233,0.27909,-0.51972,-0.92125,0.093399,0.035863,-0.18321,0.11937,0.046956,-0.29504,0.59509,0.053392,0.26698,-0.019973,-0.017859,0.54276,-0.77776,-0.17618,0.067165,-0.35203,-0.43911
-0.014179,-0.028827,0.035114,0.0077772,0.20691,-0.52667,-0.88955,-0.0077418,0.023908,-0.2022,0.11716,0.052623,-0.27578,0.4804,0.055055,0.18695,-0.0093161,-0.01046,0.58743,-0.75055,-0.11698,0.1002,-0.18865,-0.58588
-0.01674,-0.028356,0.034626,0.01488,0.13317,-0.53693,-0.8612,-0.097885,0.0025389,-0.21762,0.1225,0.052172,-0.26325,0.43537,0.054398,0.10308,0.0021013,-0.0053758,0.57694,-0.69442,-0.0661,0.12667,-0.074461,-0.66137
-0.018374,-0.025857,0.027439,0.019293,0.072799,-0.5527,-0.82908,-0.16657,-0.02726,-0.22314,0.12729,0.034547,-0.27965,0.43172,0.045183,0.026351,0.0063313,-0.0081962,0.50266,-0.6218,-0.025658,0.14844,-0.014306,-0.66965
-0.017489,-0.020754,0.015538,0.017162,0.027966,-0.56954,-0.79425,-0.20389,-0.058511,-0.21663,0.1268,-0.0048073,-0.31351,0.42205,0.023972,-0.040714,-0.0017827,-0.02223,0.38504,-0.54453,0.0078117,0.16743,0.0075746,-0.64499
-0.013786,-0.014113,0.0043388,0.0081863,-0.0080891,-0.57764,-0.76735,-0.20297,-0.083102,-0.20252,0.12303,-0.059057,-0.33,0.38712,-0.0076156,-0.097488,-0.021579,-0.046246,0.26382,-0.46381,0.038922,0.18296,0.01665,-0.63218
-0.0085436,-0.0086426,-0.0010737,-0.0033605,-0.04005,-0.56937,-0.76177,-0.16287,-0.097021,-0.1881,0.12151,-0.11519,-0.29782,0.3481,-0.043882,-0.14285,-0.047646,-0.075804,0.17739,-0.36846,0.069426,0.192,0.032948,-0.65734
-0.0038647,-0.0074554,0.00049499,-0.011032,-0.064092,-0.54756,-0.78455,-0.091378,-0.10206,-0.17717,0.1254,-0.16496,-0.21143,0.33462,-0.077172,-0.17872,-0.073599,-0.10655,0.14514,-0.2462,0.097872,0.19149,0.06196,-0.71019
-0.0014713,-0.011878,0.0060772,-0.010635,-0.072299,-0.52714,-0.83142,-0.0063948,-0.10321,-0.16742,0.13265,-0.21139,-0.093615,0.34065,-0.099353,-0.21379,-0.095212,-0.13596,0.16328,-0.10003,0.12259,0.18063,0.096809,-0.75108
-0.0018491,-0.019775,0.011544,-0.0033379,-0.063053,-0.52725,-0.88823,0.066383,-0.10432,-0.15403,0.13839,-0.26418,0.020922,0.31234,-0.10304,-0.26108,-0.1106,-0.16179,0.2146,0.044428,0.1444,0.16147,0.12758,-0.73806
-0.0042044,-0.026123,0.014959,0.0051376,-0.046538,-0.55887,-0.93631,0.10104,-0.10586,-0.13589,0.13939,-0.32727,0.10658,0.18336,-0.083714,-0.32936,-0.11818,-0.1792,0.28274,0.14858,0.16584,0.13744,0.14873,-0.65539
-0.0071376,-0.026156,0.017384,0.008834,-0.039373,-0.61741,-0.95801,0.082077,-0.1061,-0.11829,0.13613,-0.38944,0.15654,-0.068746,-0.04235,-0.41509,-0.11532,-0.18084,0.36013,0.18218,0.18695,0.11097,0.15896,-0.52393
-0.0095537,-0.019099,0.020934,0.0060531,-0.052841,-0.68608,-0.94073,0.012645,-0.10404,-0.1093,0.13115,-0.42705,0.17584,-0.39184,0.013947,-0.50179,-0.099806,-0.16157,0.44565,0.14256,0.20198,0.081962,0.15601,-0.38735
-0.011265,-0.0094097,0.026397,0.00042747,-0.084968,-0.74742,-0.87983,-0.085142,-0.10104,-0.11293,0.12619,-0.41811,0.16614,-0.68134,0.074821,-0.56751,-0.073204,-0.12479,0.53645,0.060072,0.20072,0.048239,0.13382,-0.28402
-0.012975,-0.00393,0.032648,-0.0023328,-0.12266,-0.79358,-0.78065,-0.17847,-0.099843,-0.12494,0.12149,-0.35721,0.11705,-0.84051,0.13159,-0.5947,-0.042948,-0.084492,0.62198,-0.013187,0.17489,0.0081642,0.086554,-0.22362
-0.015685,-0.0066971,0.037901,0.00064581,-0.15083,-0.82732,-0.65863,-0.23609,-0.10212,-0.13459,0.11732,-0.25945,0.013054,-0.8357,0.1803,-0.57555,-0.020325,-0.059406,0.68455,-0.025267,0.12499,-0.035834,0.016396,-0.18332
-0.019889,-0.015508,0.041042,0.0069201,-0.16005,-0.85407,-0.53525,-0.23819,-0.10721,-0.13065,0.11524,-0.15008,-0.14866,-0.70901,0.2204,-0.51085,-0.014811,-0.062037,0.70538,0.052452,0.062032,-0.075024,-0.062453,-0.12521
-0.025006,-0.023346,0.041735,0.010786,-0.14771,-0.87304,-0.43036,-0.18094,-0.11291,-0.10714,0.11674,-0.048145,-0.34418,-0.54482,0.25081,-0.40603,-0.028329,-0.090222,0.67208,0.21025,0.0021561,-0.095353,-0.1284,-0.023191
-0.029433,-0.023859,0.039809,0.0081456,-0.11504,-0.87593,-0.35419,-0.076539,-0.11697,-0.065504,0.12022,0.042644,-0.52672,-0.41899,0.26787,-0.2698,-0.053455,-0.12775,0.58413,0.4007,-0.042253,-0.082286,-0.16315,0.11756
-0.03128,-0.016526,0.035284,3.868e-005,-0.065852,-0.8543,-0.3041,0.049258,-0.11759,-0.013451,0.11979,0.12885,-0.64889,-0.36547,0.2676,-0.11675,-0.076998,-0.15403,0.45529,0.55815,-0.06868,-0.028205,-0.16065,0.26057
-0.029499,-0.0071198,0.029315,-0.0081724,-0.0090972,-0.8088,-0.26857,0.16276,-0.11257,0.038019,0.10779,0.21353,-0.68904,-0.37529,0.24986,0.029756,-0.086798,-0.15608,0.31172,0.63116,-0.083778,0.060781,-0.12841,0.3577
-0.02476,-0.0029954,0.024703,-0.011219,0.03922,-0.75176,-0.23552,0.23271,-0.098888,0.077954,0.07947,0.28719,-0.66215,-0.41685,0.21948,0.13963,-0.077653,-0.13446,0.18503,0.61181,-0.097162,0.16274,-0.081492,0.37712
-0.019404,-0.007137,0.024638,-0.0080964,0.060647,-0.70066,-0.19937,0.24334,-0.074453,0.098904,0.035841,0.33264,-0.60632,-0.45634,0.1823,0.18547,-0.053145,-0.099889,0.10128,0.54172,-0.11484,0.24577,-0.034842,0.32339
-0.016248,-0.01593,0.030202,-0.002466,0.045253,-0.66772,-0.16189,0.20244,-0.041079,0.099674,-0.017621,0.34061,-0.55424,-0.46705,0.13947,0.15545,-0.022827,-0.064544,0.070462,0.4859,-0.13678,0.28166,0.0013289,0.2377
-0.016847,-0.022357,0.038938,0.00079794,0.0011783,-0.65347,-0.12738,0.13677,-0.0059498,0.085629,-0.074836,0.32162,-0.51085,-0.43141,0.086418,0.062189,0.0030869,-0.035268,0.083326,0.48741,-0.15898,0.26155,0.022435,0.1773
-0.020399,-0.02169,0.046233,-0.00033972,-0.046311,-0.64869,-0.096826,0.075262,0.020887,0.065296,-0.13173,0.30173,-0.45333,-0.34464,0.018097,-0.058991,0.018288,-0.013188,0.1184,0.53283,-0.17678,0.20426,0.029243,0.18514
-0.024238,-0.014872,0.048658,-0.0039192,-0.067951,-0.64183,-0.066294,0.030965,0.032226,0.044711,-0.18546,0.3027,-0.35231,-0.22126,-0.063647,-0.16361,0.021828,0.0020123,0.15519,0.55508,-0.18621,0.14934,0.027808,0.26629
-0.02569,-0.0071074,0.046418,-0.006308,-0.047599,-0.62607,-0.030234,-0.0042902,0.028803,0.023534,-0.23168,0.32147,-0.19691,-0.096339,-0.1481,-0.21722,0.01628,0.0086339,0.18431,0.47434,-0.18317,0.13586,0.028041,0.38473
-0.023942,-0.0033487,0.042703,-0.0054645,0.0085116,-0.60121,0.013665,-0.048125,0.01985,-0.0035883,-0.26365,0.32616,-0.0052556,-0.014992,-0.22165,-0.20997,0.0046358,0.0040628,0.20763,0.24952,-0.16292,0.1789,0.038959,0.48281
-0.020464,-0.0045855,0.040598,-0.0021963,0.076449,-0.57084,0.062503,-0.10887,0.018124,-0.040899,-0.27482,0.27411,0.18514,-0.013564,-0.27698,-0.15831,-0.011399,-0.010987,0.22987,-0.095539,-0.12192,0.25967,0.062224,0.51297
-0.017686,-0.0076338,0.040408,0.0011846,0.12917,-0.53799,0.11013,-0.17628,0.032321,-0.085377,-0.26321,0.14074,0.33699,-0.10488,-0.31715,-0.092775,-0.030449,-0.029926,0.2499,-0.48644,-0.061058,0.3373,0.089212,0.46445
-0.01705,-0.0079866,0.03973,0.0029416,0.15082,-0.50293,0.15042,-0.22997,0.061612,-0.12578,-0.23365,-0.060294,0.4279,-0.27685,-0.35092,-0.039289,-0.049166,-0.042783,0.25964,-0.83722,0.012718,0.37497,0.10561,0.36966
-0.01802,-0.0031585,0.035919,0.0026985,0.14261,-0.46406,0.17876,-0.25743,0.095775,-0.14797,-0.19546,-0.27871,0.45327,-0.50255,-0.38333,-0.0056807,-0.061433,-0.042207,0.25097,-1.0821,0.088387,0.36146,0.10133,0.2866
-0.01875,0.0058172,0.028513,0.00078557,0.11885,-0.4202,0.1916,-0.26519,0.12091,-0.14251,-0.15711,-0.4496,0.42183,-0.75143,-0.40987,0.018769,-0.060828,-0.028009,0.22372,-1.1819,0.15532,0.31303,0.07784,0.26677
-0.017675,0.015323,0.019482,-0.0024286,0.098137,-0.37209,0.18635,-0.27272,0.12732,-0.10833,-0.12168,-0.52191,0.35238,-0.99353,-0.41954,0.051331,-0.045042,-0.006471,0.18721,-1.1142,0.20674,0.25575,0.046322,0.32696
-0.014697,0.021525,0.011435,-0.0062375,0.095218,-0.32175,0.16357,-0.29479,0.1148,-0.050199,-0.0867,-0.47791,0.27413,-1.1979,-0.4042,0.099932,-0.01866,0.014692,0.1539,-0.87226,0.24002,0.2043,0.017905,0.44048
-0.011105,0.022649,0.0056827,-0.0090048,0.11651,-0.27057,0.12974,-0.3286,0.092078,0.027381,-0.048119,-0.33597,0.22515,-1.3326,-0.36662,0.15385,0.0085166,0.031193,0.13043,-0.48287,0.25454,0.15454,-0.0050702,0.55209
-0.0085231,0.019941,0.0018319,-0.0086454,0.15929,-0.21816,0.097106,-0.35709,0.070837,0.12357,-0.0052769,-0.13875,0.24244,-1.3721,-0.32058,0.18677,0.026841,0.042997,0.11309,-0.025615,0.25036,0.094398,-0.028212,0.60681
-0.0077636,0.016797,-0.0011265,-0.0043225,0.21348,-0.16289,0.078482,-0.36486,0.058471,0.23858,0.037168,0.064284,0.34546,-1.3071,-0.28267,0.17039,0.032033,0.051355,0.090269,0.3765,0.22934,0.021217,-0.055107,0.57575
-0.0083484,0.016507,-0.0036298,0.0022234,0.26546,-0.10382,0.080067,-0.35179,0.054506,0.36724,0.071745,0.23143,0.52376,-1.1518,-0.26187,0.090697,0.02653,0.055743,0.048779,0.60671,0.19755,-0.050907,-0.077991,0.4657
-0.0088036,0.019977,-0.0054184,0.0073948,0.30317,-0.042037,0.097739,-0.33237,0.05298,0.49501,0.093014,0.33541,0.73946,-0.94001,-0.25409,-0.041589,0.016565,0.053983,-0.020738,0.61809,0.16565,-0.10027,-0.079399,0.31021
-0.0074265,0.025128,-0.006342,0.0082907,0.32084,0.019693,0.12047,-0.32245,0.048385,0.60129,0.10081,0.36322,0.94518,-0.71636,-0.24547,-0.19209,0.0078152,0.045232,-0.12164,0.46383,0.14536,-0.11444,-0.04539,0.1502
-0.0031525,0.028633,-0.0070128,0.0049003,0.32083,0.07863,0.13862,-0.32664,0.04003,0.66876,0.099296,0.31368,1.1065,-0.52518,-0.22164,-0.31505,0.002888,0.032412,-0.25126,0.26488,0.14353,-0.099906,0.020355,0.015786
0.0037861,0.028774,-0.008512,-0.00014373,0.31143,0.13334,0.1506,-0.33801,0.031234,0.69194,0.092609,0.19736,1.2142,-0.40333,-0.17685,-0.37142,0.0014826,0.02116,-0.40118,0.13253,0.15786,-0.076812,0.094465,-0.082675
0.011738,0.026974,-0.01145,-0.0040844,0.30137,0.18326,0.16221,-0.34957,0.024542,0.67838,0.080817,0.039095,1.2798,-0.37529,-0.1174,-0.34473,0.0017279,0.015788,-0.55748,0.09975,0.17778,-0.06452,0.14705,-0.15305
0.018319,0.026507,-0.015417,-0.0064687,0.29459,0.22719,0.17946,-0.36512,0.017856,0.64177,0.059472,-0.12212,1.3201,-0.44778,-0.057701,-0.24734,0.0011011,0.015779,-0.70265,0.1098,0.1903,-0.070483,0.16026,-0.21331
0.02178,0.02941,-0.019482,-0.0091939,0.28818,0.2627,0.20097,-0.39779,0.0055567,0.59284,0.023057,-0.24154,1.3432,-0.60391,-0.012452,-0.11421,-0.0030303,0.016113,-0.82004,0.066219,0.18741,-0.090071,0.13777,-0.28201
0.022261,0.034491,-0.023288,-0.01418,0.27478,0.28769,0.21681,-0.45635,-0.016027,0.53546,-0.03064,-0.2858,1.3449,-0.80169,0.010653,0.012931,-0.012245,0.011435,-0.89979,-0.096585,0.17017,-0.11445,0.09869,-0.37071
0.021891,0.038434,-0.027572,-0.02096,0.24738,0.3033,0.21505,-0.53138,-0.043745,0.4699,-0.098753,-0.25028,1.3152,-0.9821,0.013906,0.10366,-0.025305,0.00069318,-0.94313,-0.37338,0.1472,-0.13772,0.062335,-0.47959
0.023328,0.039084,-0.033397,-0.026557,0.2034,0.31543,0.19077,-0.59489,-0.068059,0.39844,-0.17501,-0.16434,1.2481,-1.0874,0.0077956,0.1504,-0.037475,-0.011591,-0.96247,-0.69957,0.12891,-0.15767,0.037002,-0.59612
0.027634,0.037665,-0.040697,-0.02784,0.146,0.33287,0.15064,-0.61615,-0.078963,0.32718,-0.25256,-0.078309,1.1472,-1.0829,0.0059657,0.16781,-0.042518,-0.018522,-0.97587,-0.99481,0.12165,-0.17244,0.020094,-0.69686
0.03317,0.03759,-0.047601,-0.024232,0.082605,0.36272,0.10951,-0.58232,-0.072728,0.2622,-0.32505,-0.038152,1.0209,-0.97082,0.019265,0.18031,-0.036665,-0.015955,-0.99765,-1.203,0.12548,-0.17862,0.0062817,-0.75327
0.03661,0.040825,-0.0515,-0.018345,0.022472,0.40611,0.08209,-0.50832,-0.054173,0.20522,-0.38529,-0.062994,0.87148,-0.78878,0.051015,0.20474,-0.021477,-0.0053992,-1.0297,-1.3074,0.13626,-0.17373,-0.0056009,-0.74199
0.035458,0.045374,-0.051213,-0.014007,-0.025125,0.45755,0.075647,-0.42812,-0.032983,0.15428,-0.42415,-0.13885,0.68475,-0.59236,0.095328,0.23857,-0.0028241,0.0075927,-1.0585,-1.3247,0.14972,-0.15966,-0.012354,-0.65678
0.030068,0.046569,-0.04836,-0.013508,-0.051862,0.50846,0.088458,-0.3738,-0.017403,0.10942,-0.4322,-0.23048,0.43165,-0.43147,0.13957,0.26163,0.013647,0.018174,-1.0624,-1.291,0.16397,-0.14199,-0.010228,-0.51616
0.02349,0.041273,-0.046495,-0.016424,-0.051252,0.55262,0.11376,-0.35725,-0.010091,0.076878,-0.40433,-0.30143,0.087388,-0.3326,0.17038,0.25084,0.026949,0.026113,-1.0238,-1.2457,0.17901,-0.12476,0.0033053,-0.36061
0.019289,0.031209,-0.04841,-0.020776,-0.020006,0.58963,0.1453,-0.36568,-0.0082993,0.065345,-0.34413,-0.32891,-0.33791,-0.29497,0.18029,0.19816,0.041251,0.035612,-0.94084,-1.2137,0.19453,-0.1057,0.031511,-0.23771
0.019199,0.022239,-0.053758,-0.025082,0.040446,0.62411,0.17983,-0.37172,-0.0067837,0.075685,-0.26441,-0.30661,-0.77732,-0.29992,0.17114,0.11825,0.061907,0.051259,-0.82804,-1.1874,0.20851,-0.077848,0.079598,-0.18239
0.022447,0.020033,-0.059101,-0.029175,0.123,0.66154,0.21493,-0.34873,-0.00051569,0.093424,-0.18281,-0.23858,-1.1162,-0.32556,0.15196,0.039384,0.090381,0.073615,-0.70536,-1.1239,0.21793,-0.037382,0.15045,-0.20309
0.026956,0.02565,-0.060556,-0.03312,0.21494,0.70383,0.24431,-0.28142,0.014099,0.093043,-0.11499,-0.13212,-1.2382,-0.35744,0.13277,-0.015876,0.12244,0.098227,-0.5835,-0.96751,0.22081,0.0091125,0.23694,-0.28177
0.031036,0.034631,-0.05702,-0.035739,0.29929,0.74767,0.25517,-0.1681,0.038668,0.053703,-0.069141,0.004255,-1.0883,-0.39087,0.1189,-0.045051,0.15111,0.11885,-0.45704,-0.68968,0.21755,0.045993,0.31908,-0.38564
0.034095,0.040185,-0.051318,-0.034791,0.358,0.78666,0.23148,-0.018316,0.072017,-0.024731,-0.044669,0.1587,-0.71214,-0.42703,0.10962,-0.063285,0.17161,0.13199,-0.311,-0.31935,0.21086,0.059325,0.37219,-0.48144
0.036194,0.037933,-0.048203,-0.029171,0.3772,0.81518,0.16247,0.1491,0.10989,-0.11857,-0.035053,0.31442,-0.24447,-0.46825,0.10117,-0.086244,0.18412,0.13896,-0.1361,0.060792,0.20458,0.048953,0.3824,-0.54352
0.037447,0.028723,-0.050678,-0.021022,0.35315,0.83137,0.051447,0.30642,0.14662,-0.19413,-0.033068,0.45261,0.15327,-0.51626,0.090744,-0.11337,0.19199,0.14387,0.059175,0.35244,0.20229,0.031282,0.35727,-0.55551
0.038012,0.017713,-0.057528,-0.015181,0.29516,0.83732,-0.081665,0.41964,0.17861,-0.22931,-0.035406,0.5589,0.36834,-0.57263,0.077896,-0.12654,0.19769,0.14997,0.2487,0.4881,0.20624,0.029171,0.32161,-0.51108
0.038372,0.01059,-0.064034,-0.015669,0.22203,0.83649,-0.20699,0.45731,0.2069,-0.22764,-0.044287,0.62872,0.38103,-0.63794,0.062975,-0.10578,0.20032,0.15762,0.40111,0.45559,0.21626,0.05609,0.30039,-0.41787
0.039087,0.0096193,-0.065369,-0.022058,0.15235,0.83055,-0.29721,0.40399,0.23591,-0.21481,-0.065087,0.66696,0.25558,-0.70749,0.045587,-0.048928,0.19703,0.16554,0.49567,0.29029,0.22927,0.10665,0.30198,-0.30097
0.039946,0.012216,-0.060023,-0.029254,0.094602,0.81774,-0.33824,0.27061,0.26851,-0.22086,-0.10138,0.68196,0.091712,-0.76595,0.025797,0.021939,0.18667,0.17326,0.53166,0.048819,0.24018,0.16026,0.31492,-0.19816
0.039506,0.013,-0.050688,-0.031431,0.044505,0.79415,-0.33159,0.093634,0.30124,-0.26074,-0.15076,0.6785,-0.027434,-0.78692,0.0072378,0.072794,0.1718,0.18177,0.52648,-0.21452,0.24452,0.19401,0.32019,-0.14452
0.035959,0.0079227,-0.04207,-0.026915,-0.0078501,0.75736,-0.28796,-0.079088,0.32426,-0.32626,-0.20488,0.65527,-0.061149,-0.74128,-0.0017671,0.078973,0.15677,0.19127,0.50507,-0.45801,0.24139,0.19439,0.30774,-0.15493
0.028866,-0.0025383,-0.037551,-0.019564,-0.06661,0.71012,-0.21788,-0.20833,0.32675,-0.3937,-0.25412,0.60866,-0.0063243,-0.61239,0.0081135,0.038964,0.14366,0.19857,0.48748,-0.65325,0.23424,0.1607,0.28314,-0.21797
0.020118,-0.013569,-0.037348,-0.015247,-0.12441,0.66093,-0.12687,-0.2777,0.3041,-0.44042,-0.29352,0.53883,0.1212,-0.40927,0.040471,-0.028456,0.13,0.19757,0.48115,-0.78444,0.22813,0.10113,0.25945,-0.30697
0.012902,-0.019588,-0.039308,-0.016576,-0.16761,0.62009,-0.017581,-0.29449,0.26133,-0.45858,-0.32477,0.45222,0.29964,-0.16826,0.088805,-0.099096,0.11092,0.18345,0.48094,-0.84885,0.22523,0.027692,0.24267,-0.39929
0.0093288,-0.018497,-0.041161,-0.02077,-0.18813,0.59315,0.10467,-0.27976,0.21034,-0.45691,-0.35198,0.35782,0.50286,0.060154,0.13876,-0.15746,0.083892,0.15724,0.47604,-0.85635,0.22212,-0.045955,0.22415,-0.48697
0.0087894,-0.013316,-0.041984,-0.022582,-0.19089,0.57653,0.22961,-0.25689,0.16348,-0.45049,-0.37442,0.26025,0.69887,0.23265,0.17567,-0.20055,0.051804,0.12619,0.45961,-0.82712,0.21181,-0.10588,0.18691,-0.5693
0.0086132,-0.0099677,-0.041748,-0.019375,-0.18921,0.55971,0.34598,-0.24715,0.12805,-0.44655,-0.38301,0.15639,0.85507,0.32994,0.19155,-0.23174,0.021441,0.098968,0.43525,-0.78948,0.18932,-0.14191,0.12059,-0.63504
0.0064608,-0.012993,-0.039924,-0.013441,-0.19117,0.53349,0.4486,-0.2716,0.10506,-0.43752,-0.36492,0.039204,0.95041,0.35951,0.1865,-0.25239,-0.0013142,0.079767,0.41614,-0.77736,0.15694,-0.1536,0.032705,-0.65308
0.0023159,-0.02248,-0.035194,-0.0094905,-0.18927,0.49817,0.54156,-0.35165,0.091782,-0.40708,-0.31347,-0.093359,0.98491,0.34442,0.16502,-0.25849,-0.015022,0.066642,0.41615,-0.82207,0.12467,-0.15229,-0.052695,-0.58461
-0.001652,-0.034264,-0.027004,-0.009964,-0.16404,0.46432,0.6335,-0.50156,0.085009,-0.34536,-0.23543,-0.23147,0.97765,0.30723,0.13232,-0.24393,-0.021826,0.055659,0.43836,-0.93436,0.10476,-0.15462,-0.10787,-0.41104
-0.0031036,-0.042864,-0.017454,-0.012898,-0.10116,0.44401,0.72752,-0.71468,0.082626,-0.26156,-0.14875,-0.35434,0.95398,0.25981,0.094405,-0.20701,-0.023417,0.046535,0.46908,-1.085,0.10404,-0.17069,-0.11636,-0.15719
-0.0015756,-0.044831,-0.011006,-0.014274,-0.0087743,0.43889,0.81378,-0.95436,0.083244,-0.18307,-0.071858,-0.43926,0.93146,0.20346,0.060034,-0.15562,-0.018306,0.043755,0.48339,-1.2032,0.1192,-0.19633,-0.080426,0.11017
0.001123,-0.040361,-0.011344,-0.012218,0.079817,0.43578,0.87149,-1.1595,0.085479,-0.13997,-0.012789,-0.47306,0.91414,0.13584,0.039173,-0.10822,-0.0035115,0.051657,0.46019,-1.2074,0.13854,-0.21668,-0.017601,0.31105
0.0022853,-0.032584,-0.017728,-0.0086095,0.123,0.4151,0.88014,-1.2654,0.08813,-0.1451,0.033334,-0.45879,0.89675,0.057746,0.035629,-0.089099,0.020808,0.068369,0.39767,-1.0583,0.14914,-0.21858,0.049762,0.39167
0.00018891,-0.025488,-0.024427,-0.006526,0.096191,0.36708,0.83214,-1.2296,0.090898,-0.18474,0.077073,-0.41341,0.87255,-0.024465,0.039389,-0.11786,0.048658,0.085248,0.31781,-0.79831,0.14442,-0.20115,0.105,0.35086
-0.0048832,-0.021928,-0.02454,-0.0064027,0.0075472,0.30282,0.73739,-1.0477,0.09427,-0.22713,0.12465,-0.35798,0.83784,-0.10019,0.027941,-0.19555,0.070851,0.093351,0.25566,-0.54196,0.12714,-0.17533,0.14243,0.23799
-0.010935,-0.022653,-0.015494,-0.0052008,-0.10734,0.25049,0.61581,-0.75197,0.097927,-0.24279,0.1737,-0.30629,0.79167,-0.15706,-0.019904,-0.29468,0.081356,0.091205,0.23905,-0.41154,0.10624,-0.15377,0.16629,0.12479
-0.015415,-0.026432,-0.001526,0.00027399,-0.20783,0.23847,0.48365,-0.39555,0.098884,-0.22126,0.21731,-0.25845,0.73431,-0.1834,-0.10582,-0.36263,0.081826,0.086216,0.27144,-0.4583,0.090362,-0.14071,0.18521,0.067541
-0.016529,-0.030828,0.0092553,0.0092559,-0.27175,0.27757,0.34456,-0.031593,0.09157,-0.17296,0.25137,-0.20313,0.66839,-0.17159,-0.20432,-0.34326,0.080007,0.087673,0.32889,-0.62499,0.082812,-0.13108,0.20579,0.080646
-0.014208,-0.033184,0.011019,0.016583,-0.3046,0.3554,0.19302,0.30268,0.07076,-0.11713,0.27768,-0.12672,0.60182,-0.12203,-0.27478,-0.20947,0.082981,0.097362,0.37313,-0.78099,0.080898,-0.11834,0.22836,0.13464
-0.01033,-0.031696,0.0044926,0.016871,-0.33046,0.44571,0.027742,0.59279,0.035552,-0.067926,0.3007,-0.023746,0.54815,-0.045512,-0.2867,0.01263,0.090808,0.10646,0.37324,-0.80883,0.079338,-0.10219,0.24692,0.17822
-0.0079065,-0.026445,-0.0040154,0.009522,-0.37309,0.52439,-0.13651,0.84399,-0.008995,-0.029936,0.32194,0.097983,0.52124,0.039279,-0.24029,0.24725,0.095918,0.10195,0.3234,-0.68175,0.074558,-0.08804,0.2532,0.17043
-0.0093379,-0.019865,-0.0076633,-0.00028033,-0.44114,0.57944,-0.26998,1.0705,-0.054458,-0.0042755,0.33801,0.22016,0.52637,0.11319,-0.16649,0.40406,0.088795,0.077217,0.24707,-0.47832,0.066812,-0.079255,0.24267,0.10366
-0.014641,-0.015919,-0.0037563,-0.0056969,-0.52627,0.6094,-0.34354,1.2813,-0.094129,0.003585,0.34413,0.32239,0.55457,0.16477,-0.1063,0.42642,0.065437,0.037861,0.18547,-0.32596,0.059131,-0.070634,0.21859,0.0043561
-0.021026,-0.017822,0.0054856,-0.0037163,-0.61336,0.61464,-0.34876,1.4697,-0.12632,-0.01646,0.33915,0.39045,0.58569,0.19364,-0.08485,0.32209,0.030903,-0.0019035,0.17652,-0.31518,0.0545,-0.050727,0.19138,-0.087471
-0.024557,-0.025519,0.015783,0.002986,-0.69352,0.59148,-0.30757,1.6141,-0.15303,-0.07096,0.32698,0.41991,0.59964,0.20692,-0.098961,0.1557,-0.0034149,-0.028865,0.23525,-0.44369,0.053685,-0.011668,0.17316,-0.14488
-0.023012,-0.034926,0.02407,0.0092164,-0.76897,0.53479,-0.26355,1.6914,-0.17539,-0.15392,0.31329,0.41425,0.58836,0.21173,-0.12495,0.0081418,-0.02639,-0.038429,0.3456,-0.6242,0.055308,0.042499,0.17111,-0.16809
-0.017823,-0.040151,0.029522,0.012122,-0.84515,0.44591,-0.25925,1.6965,-0.19052,-0.24553,0.30102,0.38034,0.5595,0.2097,-0.13782,-0.068838,-0.032916,-0.034867,0.46734,-0.74416,0.057845,0.097153,0.18402,-0.1776
-0.013348,-0.03754,0.032494,0.013132,-0.91541,0.33747,-0.31391,1.6534,-0.19328,-0.32044,0.289,0.32442,0.52838,0.19749,-0.12624,-0.073116,-0.025436,-0.025575,0.55374,-0.73372,0.061611,0.13744,0.20432,-0.19368
-0.013776,-0.028559,0.03347,0.015568,-0.95185,0.22921,-0.41499,1.6076,-0.18156,-0.35974,0.2745,0.25009,0.50417,0.17301,-0.093896,-0.03825,-0.011251,-0.015246,0.57033,-0.59889,0.06876,0.15874,0.2237,-0.21972
-0.019957,-0.01895,0.033189,0.020769,-0.91361,0.13736,-0.52844,1.6025,-0.16028,-0.35905,0.25651,0.15873,0.48073,0.14272,-0.050847,-0.0013566,0.0018095,-0.0047375,0.50569,-0.40438,0.080949,0.16833,0.23785,-0.2419
-0.028625,-0.014464,0.033027,0.026644,-0.77151,0.065989,-0.62064,1.6549,-0.13969,-0.32887,0.2361,0.051849,0.43894,0.12465,-0.0046401,0.020636,0.0085982,0.0057489,0.37116,-0.22296,0.096599,0.17726,0.24697,-0.24365
-0.034635,-0.016428,0.034142,0.029772,-0.53245,0.0074845,-0.67923,1.7488,-0.12907,-0.28858,0.21379,-0.065171,0.35785,0.14363,0.041549,0.031359,0.0075789,0.013476,0.19337,-0.08694,0.11052,0.19034,0.25247,-0.22109
-0.034435,-0.020757,0.035746,0.028589,-0.24308,-0.048497,-0.72035,1.8513,-0.13097,-0.25794,0.18659,-0.18041,0.22541,0.21944,0.085212,0.038571,6.8168e-005,0.013718,0.0056089,0.026952,0.11702,0.20317,0.25368,-0.18606
-0.028189,-0.021306,0.034753,0.024492,0.034391,-0.10534,-0.77839,1.9403,-0.14065,-0.24936,0.14836,-0.27712,0.041582,0.35333,0.12143,0.040009,-0.011032,0.0036839,-0.15861,0.17077,0.11459,0.20839,0.24792,-0.15551
-0.019192,-0.014844,0.028247,0.020184,0.25887,-0.15709,-0.88405,2.0211,-0.15099,-0.26361,0.093341,-0.34127,-0.1845,0.52106,0.1444,0.024699,-0.022375,-0.014037,-0.27114,0.37578,0.10817,0.20461,0.23385,-0.1377
-0.01143,-0.003651,0.017103,0.017368,0.43176,-0.19485,-1.0438,2.1198,-0.15805,-0.29017,0.020346,-0.3714,-0.43641,0.67868,0.15169,-0.013784,-0.031224,-0.032072,-0.31619,0.61597,0.10658,0.19948,0.21472,-0.12745
-0.0073322,0.0062491,0.007,0.016151,0.58561,-0.21578,-1.2335,2.2568,-0.16261,-0.31256,-0.065545,-0.38308,-0.68816,0.78077,0.14653,-0.066907,-0.036449,-0.042763,-0.29726,0.81376,0.11637,0.2037,0.19782,-0.11331
-0.0071563,0.009588,0.0048362,0.016277,0.74882,-0.22675,-1.4104,2.4235,-0.16708,-0.31636,-0.15471,-0.40186,-0.90385,0.80149,0.13586,-0.11461,-0.038938,-0.042898,-0.23877,0.88822,0.13675,0.22158,0.18999,-0.088678
-0.0098437,0.0054873,0.013041,0.018265,0.91596,-0.23973,-1.534,2.5783,-0.17152,-0.29558,-0.23646,-0.44683,-1.0483,0.74614,0.12598,-0.13977,-0.040757,-0.034888,-0.17797,0.81451,0.15985,0.24656,0.19272,-0.056514
-0.014123,-0.0023215,0.026886,0.022812,1.0481,-0.26323,-1.5829,2.6665,-0.17291,-0.25377,-0.30192,-0.51574,-1.1088,0.64608,0.11994,-0.14059,-0.043176,-0.023777,-0.14942,0.65229,0.17625,0.26572,0.20098,-0.024974
-0.018893,-0.0083566,0.037708,0.029112,1.1026,-0.29679,-1.5571,2.6485,-0.1681,-0.19988,-0.34521,-0.58408,-1.1115,0.54132,0.11806,-0.13037,-0.044956,-0.013084,-0.17059,0.52113,0.18128,0.26931,0.20658,0.00019177
-0.023003,-0.0088851,0.039644,0.034264,1.0664,-0.33238,-1.4679,2.5158,-0.1572,-0.14232,-0.36309,-0.62157,-1.1149,0.46322,0.1196,-0.12561,-0.042572,-0.0030641,-0.23703,0.53784,0.17702,0.25737,0.20307,0.018431
-0.025215,-0.0037516,0.034093,0.035097,0.96477,-0.36029,-1.3273,2.2845,-0.14374,-0.085318,-0.35426,-0.61565,-1.1743,0.42651,0.12311,-0.13342,-0.032735,0.0075675,-0.32878,0.75616,0.16868,0.23821,0.18785,0.030687
-0.02479,0.0040954,0.028104,0.031115,0.84025,-0.37402,-1.1456,1.9764,-0.13129,-0.029414,-0.31891,-0.58389,-1.2999,0.43037,0.12501,-0.14813,-0.015554,0.018615,-0.4215,1.1446,0.15889,0.22092,0.16021,0.034763
-0.022235,0.010507,0.028258,0.025667,0.72192,-0.37127,-0.93612,1.6052,-0.12,0.026196,-0.25872,-0.56405,-1.4426,0.46096,0.11881,-0.15798,0.0042546,0.02721,-0.49465,1.6105,0.14531,0.20839,0.11817,0.026333
-0.019339,0.012239,0.035448,0.023658,0.61084,-0.35214,-0.71849,1.18,-0.10658,0.082166,-0.17742,-0.58677,-1.524,0.49055,0.097571,-0.15456,0.019359,0.029598,-0.53419,2.0493,0.12396,0.19655,0.058182,0.0060254
-0.018164,0.0084464,0.04476,0.027329,0.49178,-0.3181,-0.51436,0.72077,-0.087971,0.13957,-0.081258,-0.65109,-1.4923,0.47808,0.058605,-0.13683,0.023806,0.024282,-0.5333,2.3908,0.095058,0.17953,-0.020807,-0.014077
-0.019668,0.0011412,0.04995,0.033821,0.35666,-0.27292,-0.33807,0.26757,-0.065125,0.20098,0.021049,-0.72209,-1.3639,0.38017,0.0071402,-0.10808,0.016234,0.01374,-0.49453,2.6207,0.065836,0.15594,-0.11227,-0.012328
-0.023041,-0.0056761,0.048325,0.037109,0.21702,-0.22372,-0.19086,-0.12928,-0.04322,0.26975,0.11962,-0.75336,-1.215,0.17383,-0.044654,-0.070809,0.00026911,0.003224,-0.43227,2.7718,0.04707,0.13096,-0.20099,0.030524
-0.026291,-0.0080861,0.042199,0.03313,0.095319,-0.17951,-0.06393,-0.43485,-0.027706,0.34729,0.20584,-0.71776,-1.1302,-0.12113,-0.08331,-0.024918,-0.017721,-0.002528,-0.37005,2.8923,0.045861,0.11307,-0.26839,0.11625
-0.027579,-0.0046,0.036473,0.023764,0.0052748,-0.14715,0.052669,-0.65089,-0.019595,0.43015,0.27467,-0.62267,-1.1467,-0.43777,-0.10078,0.029478,-0.0317,-0.0023379,-0.3304,3.0062,0.060562,0.10823,-0.30136,0.22197
-0.026291,0.0027251,0.034974,0.015933,-0.059391,-0.1279,0.1634,-0.81389,-0.014063,0.50974,0.32534,-0.49928,-1.2369,-0.68364,-0.097688,0.088373,-0.038092,0.00059306,-0.32214,3.0886,0.082195,0.11593,-0.29851,0.30803
-0.023186,0.0094326,0.038395,0.016175,-0.11793,-0.11746,0.26702,-0.96915,-0.0035719,0.57577,0.35996,-0.37606,-1.3405,-0.77871,-0.081387,0.14343,-0.036453,0.00054912,-0.33464,3.074,0.10111,0.12937,-0.26984,0.33855
-0.019779,0.011563,0.044658,0.025183,-0.18466,-0.10944,0.36031,-1.1391,0.017149,0.62136,0.38095,-0.25862,-1.4146,-0.68866,-0.060827,0.18544,-0.029028,-0.0072942,-0.34486,2.898,0.11313,0.13883,-0.23067,0.30269
