1.9486e-010,-4.1866e-010,-5.1898e-010,3.5519e-009,-5.267e-010,-4.6631e-009,7.4375e-009,-1.1744e-008,5.1512e-010,4.2348e-009,-6.849e-010,2.0258e-010,-7.4278e-010,2.8457e-009,-4.3795e-010,-2.7203e-010,2.9962e-009,2.811e-009,1.152e-008,2.396e-008,-2.4502e-010,9.5887e-010,-1.1672e-009,-9.087e-010
5.2226e-009,-1.1577e-008,-1.482e-008,9.8205e-008,-1.4894e-008,-1.2894e-007,2.0583e-007,-3.253e-007,1.4127e-008,1.1692e-007,-1.895e-008,5.4513e-009,-2.0464e-008,7.9259e-008,-1.1959e-008,-7.278e-009,8.1816e-008,7.6347e-008,3.1584e-007,6.6637e-007,-6.5741e-009,2.6563e-008,-3.1935e-008,-2.4756e-008
6.7856e-008,-1.5571e-007,-2.0595e-007,1.32e-006,-2.0472e-007,-1.7337e-006,2.7702e-006,-4.3813e-006,1.8826e-007,1.5689e-006,-2.5508e-007,7.0885e-008,-2.7368e-007,1.0737e-006,-1.5849e-007,-9.429e-008,1.0847e-006,1.006e-006,4.2051e-006,9.0145e-006,-8.5517e-008,3.5842e-007,-4.2446e-007,-3.2683e-007
5.6908e-007,-1.3576e-006,-1.8554e-006,1.1491e-005,-1.8225e-006,-1.5101e-005,2.4158e-005,-3.8225e-005,1.6238e-006,1.3634e-005,-2.2255e-006,5.9241e-007,-2.3663e-006,9.4246e-006,-1.3578e-006,-7.8747e-007,9.2988e-006,8.5641e-006,3.6214e-005,7.9029e-005,-7.183e-007,3.1401e-006,-3.6512e-006,-2.7841e-006
3.4597e-006,-8.6244e-006,-1.2176e-005,7.2808e-005,-1.1814e-005,-9.5769e-005,0.00015344,-0.00024281,1.0188e-005,8.622e-005,-1.4143e-005,3.5676e-006,-1.4862e-005,6.0257e-005,-8.4499e-006,-4.7598e-006,5.791e-005,5.2908e-005,0.00022667,0.00050467,-4.3764e-006,2.0087e-005,-2.2843e-005,-1.7183e-005
1.6227e-005,-4.2549e-005,-6.2002e-005,0.00035777,-5.9435e-005,-0.00047119,0.00075642,-0.0011965,4.9518e-005,0.00042275,-6.9734e-005,1.6431e-005,-7.2205e-005,0.000299,-4.0691e-005,-2.215e-005,0.00027897,0.00025253,0.0010983,0.0025012,-2.0594e-005,0.00010005,-0.00011072,-8.1768e-005
6.0978e-005,-0.00016962,-0.00025474,0.0014181,-0.00024147,-0.0018708,0.0030109,-0.0047578,0.00019389,0.0016715,-0.00027743,5.9819e-005,-0.00028208,0.001198,-0.00015767,-8.2343e-005,0.0010804,0.00096758,0.0042827,0.010008,-7.7791e-005,0.00040394,-0.00043237,-0.00031155
0.00018804,-0.00056125,-0.00086671,0.0046552,-0.00081392,-0.0061551,0.0099389,-0.015677,0.00062762,0.0054716,-0.00091399,0.00017477,-0.00090896,0.0039804,-0.00050453,-0.00025013,0.0034501,0.0030513,0.013793,0.033193,-0.00024188,0.0013592,-0.0013962,-0.00097355
0.00048282,-0.0015705,-0.002486,0.012891,-0.0023198,-0.017093,0.027723,-0.043601,0.0017098,0.015101,-0.0025379,0.00040813,-0.0024576,0.011174,-0.0013572,-0.00062825,0.0092366,0.008049,0.037339,0.092953,-0.00062946,0.0038889,-0.0037957,-0.0025318
0.0010389,-0.0037656,-0.0060848,0.0305,-0.0056684,-0.040593,0.066229,-0.10371,0.0039674,0.035582,-0.0060101,0.00073206,-0.0056363,0.026866,-0.003106,-0.001306,0.020947,0.017932,0.085973,0.22262,-0.0013848,0.0096039,-0.008792,-0.0055171
0.0018679,-0.0078072,-0.012807,0.0622,-0.01199,-0.083174,0.13681,-0.21288,0.0079007,0.072182,-0.012222,0.00085258,-0.011027,0.055854,-0.0060919,-0.0022118,0.040422,0.033857,0.16959,0.4599,-0.0025862,0.020713,-0.017482,-0.010055
0.0027559,-0.014069,-0.023259,0.10989,-0.022097,-0.14786,0.246,-0.37924,0.013547,0.12662,-0.021388,-7.0673e-005,-0.018403,0.10108,-0.010268,-0.0028877,0.066238,0.053956,0.28746,0.82337,-0.0040874,0.039375,-0.029926,-0.015089
0.0031575,-0.022066,-0.0364,0.16851,-0.035589,-0.22864,0.38658,-0.58792,0.019975,0.19216,-0.03207,-0.0036233,-0.026004,0.15989,-0.014836,-0.0023284,0.091069,0.071423,0.4181,1.2785,-0.0053887,0.066479,-0.044003,-0.017777
0.0022872,-0.03002,-0.048708,0.22382,-0.050057,-0.30731,0.53198,-0.79286,0.025132,0.2511,-0.04062,-0.011936,-0.030475,0.2216,-0.018188,0.00085972,0.10171,0.075245,0.5183,1.7146,-0.0056977,0.10032,-0.055009,-0.013944
-0.00049424,-0.035059,-0.054661,0.25581,-0.061079,-0.35776,0.64146,-0.92686,0.026487,0.27891,-0.041909,-0.026807,-0.028124,0.26932,-0.018454,0.0077891,0.084208,0.05523,0.54,1.9619,-0.0042826,0.13611,-0.056967,-0.00011173
-0.0051248,-0.034322,-0.04913,0.24838,-0.063544,-0.35856,0.67843,-0.93303,0.022407,0.25574,-0.031676,-0.048216,-0.017326,0.28745,-0.014587,0.018239,0.033059,0.009704,0.46193,1.8633,-0.0010071,0.16694,-0.045635,0.023529
-0.010503,-0.026644,-0.030821,0.2004,-0.053969,-0.30802,0.63318,-0.80231,0.013494,0.17952,-0.0094915,-0.072913,-0.00061007,0.27109,-0.0073709,0.029801,-0.041031,-0.049575,0.31516,1.3713,0.0032959,0.18614,-0.021584,0.051279
-0.014781,-0.013792,-0.0043922,0.12989,-0.032681,-0.23042,0.5335,-0.589,0.0027363,0.070774,0.019766,-0.094139,0.015525,0.23072,0.00046542,0.038024,-0.11245,-0.10113,0.17641,0.60718,0.0069633,0.1897,0.0090408,0.073405
-0.016309,-0.00019192,0.021049,0.065588,-0.0044898,-0.1653,0.4309,-0.38466,-0.0060317,-0.03717,0.047674,-0.10334,0.023782,0.18719,0.0053748,0.03801,-0.15355,-0.12631,0.12125,-0.17589,0.0081938,0.17738,0.037315,0.081053
-0.014714,0.0091006,0.037047,0.02976,0.022727,-0.14407,0.3677,-0.26085,-0.010527,-0.118,0.066859,-0.093646,0.020547,0.15896,0.0048031,0.027011,-0.15235,-0.12284,0.16448,-0.72131,0.005917,0.15192,0.056422,0.071787
-0.01128,0.011133,0.041301,0.02411,0.04088,-0.16961,0.34772,-0.2207,-0.011509,-0.16796,0.075468,-0.063639,0.0083736,0.15109,-0.0015005,0.006601,-0.122,-0.10788,0.23614,-0.91127,0.00028783,0.11733,0.065187,0.051545
-0.0082297,0.0067246,0.039219,0.030363,0.044611,-0.21506,0.33421,-0.19859,-0.01204,-0.20409,0.077993,-0.019047,-0.0057609,0.15497,-0.011566,-0.017176,-0.092919,-0.10609,0.22322,-0.82057,-0.0074881,0.077753,0.067604,0.030997
-0.0073461,-0.000156,0.039754,0.025749,0.033155,-0.24378,0.27845,-0.11183,-0.014881,-0.24562,0.081423,0.029111,-0.015331,0.15906,-0.022529,-0.036327,-0.091824,-0.13057,0.054959,-0.641,-0.015826,0.037568,0.068922,0.01857
-0.008947,-0.0049472,0.048413,0.001174,0.010649,-0.23532,0.15696,0.075271,-0.020006,-0.29396,0.089486,0.069564,-0.018429,0.16085,-0.032149,-0.044969,-0.12307,-0.17208,-0.23301,-0.53577,-0.023464,0.0019582,0.071707,0.015378
-0.011958,-0.0052666,0.063042,-0.032887,-0.015148,-0.19695,-0.012564,0.32666,-0.024241,-0.32879,0.099669,0.096323,-0.017898,0.16854,-0.039448,-0.042461,-0.1673,-0.20649,-0.51218,-0.53911,-0.029829,-0.023372,0.075053,0.015904
-0.014907,-0.0020323,0.07596,-0.057198,-0.035495,-0.15253,-0.18882,0.56779,-0.02343,-0.32461,0.10559,0.11129,-0.017706,0.19024,-0.044308,-0.033417,-0.19823,-0.21477,-0.64846,-0.57469,-0.034978,-0.033751,0.077009,0.013622
-0.016933,0.001684,0.080632,-0.06112,-0.044077,-0.12004,-0.34119,0.74573,-0.015561,-0.27351,0.10275,0.12198,-0.01917,0.22106,-0.046737,-0.024429,-0.20345,-0.19853,-0.59725,-0.56297,-0.039331,-0.027337,0.077323,0.0066599
-0.01803,0.0030739,0.07707,-0.050942,-0.039753,-0.097763,-0.47031,0.86316,-0.002549,-0.19412,0.092711,0.13571,-0.020552,0.24172,-0.046611,-0.019708,-0.19192,-0.17743,-0.43079,-0.51353,-0.043371,-0.0058914,0.077707,-0.0011693
-0.018594,0.0015079,0.071345,-0.042462,-0.026931,-0.069778,-0.59821,0.9591,0.010635,-0.11885,0.082023,0.15414,-0.020055,0.23211,-0.043999,-0.0188,-0.18277,-0.17062,-0.27801,-0.52075,-0.047472,0.025713,0.079644,-0.0044323
-0.018956,-0.0012802,0.069893,-0.045683,-0.012939,-0.023096,-0.73941,1.0586,0.018888,-0.070578,0.076972,0.17205,-0.018841,0.18913,-0.039427,-0.017997,-0.18622,-0.17883,-0.22878,-0.67425,-0.051842,0.060324,0.082357,-0.0013241
-0.01937,-0.0026369,0.073917,-0.056253,-0.0038858,0.040715,-0.88101,1.1406,0.02003,-0.049045,0.078929,0.18155,-0.020787,0.13235,-0.033526,-0.014213,-0.19358,-0.18267,-0.28014,-0.97162,-0.056522,0.089138,0.083258,0.0045728
-0.020212,-0.00087792,0.078834,-0.061133,-0.001943,0.10914,-0.98962,1.1521,0.016008,-0.037286,0.084326,0.17845,-0.029073,0.091112,-0.026284,-0.0080861,-0.18441,-0.15853,-0.36076,-1.3117,-0.06139,0.10287,0.080409,0.0073568
-0.021806,0.0036888,0.078926,-0.052234,-0.0059399,0.17141,-1.0372,1.055,0.011502,-0.020419,0.088889,0.16616,-0.042978,0.08256,-0.016739,-0.0036484,-0.14383,-0.097989,-0.40156,-1.5676,-0.066123,0.094621,0.074397,0.003803
-0.023814,0.0091487,0.072667,-0.034664,-0.014368,0.22596,-1.0214,0.85988,0.010824,0.0012463,0.091801,0.15396,-0.058146,0.098641,-0.003656,-0.0047728,-0.075271,-0.014649,-0.38674,-1.668,-0.07021,0.063928,0.067669,-0.0040695
-0.024945,0.013317,0.063899,-0.022009,-0.027702,0.27567,-0.96211,0.61875,0.015113,0.01575,0.09575,0.15099,-0.070212,0.11258,0.013309,-0.011403,0.0014277,0.066165,-0.34659,-1.6196,-0.073096,0.018814,0.062089,-0.010861
-0.023688,0.015039,0.058122,-0.023684,-0.047642,0.31772,-0.88032,0.38674,0.021741,0.014259,0.10302,0.16035,-0.078466,0.099264,0.033062,-0.018974,0.063774,0.12503,-0.3105,-1.4666,-0.074486,-0.027171,0.057367,-0.012256
-0.019776,0.014698,0.057616,-0.03653,-0.073921,0.34126,-0.78034,0.18938,0.026383,0.0017127,0.1117,0.17773,-0.086193,0.053093,0.053773,-0.021858,0.10087,0.15911,-0.27104,-1.2428,-0.074649,-0.062552,0.051982,-0.0082689
-0.014977,0.013813,0.059784,-0.048242,-0.10181,0.33725,-0.65205,0.022321,0.026249,-0.0068148,0.1161,0.19512,-0.097466,-0.0098253,0.074152,-0.018193,0.11788,0.17934,-0.19177,-0.96363,-0.074472,-0.085093,0.045523,-0.0027906
-0.012117,0.014143,0.059852,-0.048821,-0.12309,0.31109,-0.48946,-0.1229,0.021973,0.00017773,0.11109,0.20649,-0.11334,-0.064503,0.093999,-0.011938,0.1293,0.19942,-0.046648,-0.65576,-0.075084,-0.10258,0.039732,-0.00020183
-0.012818,0.016799,0.055035,-0.039141,-0.13035,0.2839,-0.3066,-0.23662,0.016628,0.02033,0.09642,0.21084,-0.13079,-0.093147,0.1134,-0.010121,0.14749,0.22643,0.14916,-0.37588,-0.077148,-0.12591,0.036871,-0.0020715
-0.015941,0.021624,0.046389,-0.029111,-0.12155,0.2785,-0.13562,-0.29393,0.01272,0.039932,0.07684,0.21094,-0.14511,-0.092647,0.13145,-0.017287,0.17501,0.2589,0.34367,-0.18543,-0.080155,-0.15983,0.036926,-0.0065213
-0.01834,0.027051,0.037121,-0.027899,-0.10164,0.30132,-0.0091362,-0.27711,0.0098295,0.046039,0.057812,0.20945,-0.15335,-0.071096,0.14587,-0.03183,0.20465,0.29064,0.4795,-0.099372,-0.08222,-0.1992,0.036694,-0.010325
-0.017446,0.030657,0.029477,-0.03566,-0.080176,0.3366,0.057017,-0.19349,0.0050524,0.036506,0.040878,0.20609,-0.1556,-0.039967,0.15413,-0.047543,0.22524,0.31478,0.52264,-0.061874,-0.080634,-0.23365,0.032177,-0.011578
-0.013351,0.030511,0.023232,-0.044078,-0.066608,0.35888,0.067168,-0.071278,-0.0041314,0.019424,0.022758,0.1979,-0.15315,-0.0095855,0.15471,-0.05926,0.22832,0.3255,0.46822,0.019588,-0.07301,-0.25593,0.022399,-0.010677
-0.0084206,0.026776,0.016853,-0.044538,-0.066036,0.35329,0.035884,0.0608,-0.017215,0.0041459,-0.0012965,0.18139,-0.14536,0.010707,0.14734,-0.06766,0.21197,0.31846,0.32875,0.20586,-0.058395,-0.26568,0.011025,-0.0091451
-0.0048186,0.022355,0.0096923,-0.036078,-0.077628,0.32647,-0.02311,0.18949,-0.03074,-0.0065509,-0.033163,0.15376,-0.12854,0.011996,0.13178,-0.078712,0.18069,0.29234,0.12401,0.48168,-0.037698,-0.2652,0.003848,-0.0078024
-0.0024031,0.021602,0.0028072,-0.026151,-0.095931,0.29957,-0.099254,0.31504,-0.04107,-0.016214,-0.070182,0.11176,-0.098343,-0.011506,0.107,-0.097822,0.14313,0.25087,-0.11706,0.77211,-0.013179,-0.25186,0.0039537,-0.0060431
0.00092658,0.027526,-0.0023654,-0.024088,-0.11395,0.29088,-0.18041,0.43658,-0.047324,-0.028264,-0.10678,0.049922,-0.05423,-0.058385,0.0723,-0.12358,0.10897,0.2031,-0.35096,1.0015,0.01266,-0.21586,0.0086607,-0.0026662
0.0068046,0.039443,-0.0059732,-0.033398,-0.12627,0.30337,-0.25098,0.54197,-0.051804,-0.040995,-0.13707,-0.038632,-0.0021329,-0.12001,0.029865,-0.14665,0.086177,0.16002,-0.52575,1.1415,0.038122,-0.14692,0.011003,0.0028359
0.014338,0.053095,-0.010178,-0.049293,-0.13083,0.32618,-0.29899,0.61215,-0.057596,-0.049119,-0.15617,-0.15752,0.047155,-0.18697,-0.013566,-0.15516,0.078775,0.1295,-0.60136,1.2096,0.062837,-0.044879,0.0047089,0.0098688
0.020469,0.063408,-0.017372,-0.062763,-0.12867,0.3457,-0.3264,0.63461,-0.065579,-0.049499,-0.16029,-0.30113,0.083386,-0.25726,-0.048201,-0.14215,0.085577,0.11291,-0.57046,1.2304,0.087591,0.075683,-0.011267,0.017465
0.022416,0.067763,-0.027684,-0.067128,-0.12215,0.35477,-0.35076,0.61189,-0.073514,-0.0445,-0.14758,-0.45212,0.10238,-0.33825,-0.065441,-0.10943,0.10069,0.10587,-0.46213,1.2016,0.11354,0.19139,-0.032085,0.025218
0.019908,0.067147,-0.038157,-0.061813,-0.11253,0.35319,-0.39205,0.5574,-0.077907,-0.039297,-0.1203,-0.58546,0.10777,-0.43899,-0.061951,-0.065043,0.11603,0.10199,-0.32447,1.0966,0.14105,0.28223,-0.050445,0.033379
0.015269,0.064448,-0.04462,-0.051302,-0.098739,0.34271,-0.45311,0.48404,-0.076839,-0.03609,-0.086672,-0.67753,0.10785,-0.55846,-0.040667,-0.017635,0.12502,0.09644,-0.19927,0.89669,0.16863,0.33999,-0.061218,0.042019
0.011559,0.061678,-0.044929,-0.041287,-0.078219,0.32387,-0.51015,0.39737,-0.071293,-0.031441,-0.059173,-0.71522,0.11014,-0.68046,-0.008493,0.026989,0.12521,0.087228,-0.10604,0.61787,0.19279,0.36688,-0.063938,0.050124
0.01065,0.058661,-0.040885,-0.035449,-0.049458,0.29794,-0.52399,0.29895,-0.06406,-0.019755,-0.048953,-0.69997,0.11752,-0.78085,0.027012,0.064733,0.11853,0.074294,-0.042697,0.3089,0.20918,0.3674,-0.061925,0.055524
0.012758,0.054098,-0.037091,-0.034675,-0.014462,0.26978,-0.46535,0.19485,-0.057493,0.00023143,-0.059315,-0.64511,0.12821,-0.84215,0.059525,0.090147,0.10891,0.05828,0.0041657,0.026378,0.21485,0.34226,-0.059329,0.055824
0.017256,0.047604,-0.037526,-0.038051,0.021156,0.24643,-0.33495,0.099324,-0.052202,0.022113,-0.08313,-0.56885,0.13842,-0.86319,0.08414,0.096411,0.099461,0.040398,0.050626,-0.18859,0.21002,0.29004,-0.058448,0.04966
0.023425,0.040611,-0.042597,-0.044033,0.051126,0.23183,-0.1621,0.02923,-0.047538,0.034891,-0.10656,-0.48676,0.1448,-0.85518,0.097333,0.080268,0.09124,0.023261,0.11248,-0.31758,0.19811,0.21437,-0.05892,0.037481
0.030336,0.035384,-0.049058,-0.050991,0.07251,0.22364,0.017123,-0.0064478,-0.042976,0.030034,-0.11691,-0.40686,0.14497,-0.82691,0.097822,0.048245,0.084296,0.011466,0.20381,-0.36228,0.18378,0.12839,-0.058761,0.021435
0.03647,0.033302,-0.052824,-0.057509,0.087254,0.21637,0.18396,-0.013163,-0.038757,0.0068684,-0.10942,-0.32878,0.1369,-0.77235,0.087539,0.017938,0.079518,0.010778,0.33205,-0.34542,0.17022,0.051184,-0.056201,0.0044725
0.040157,0.034078,-0.052323,-0.062884,0.099301,0.20813,0.34297,-0.0084646,-0.035287,-0.027478,-0.088537,-0.24715,0.11902,-0.67273,0.071058,0.011236,0.0792,0.025747,0.49104,-0.31449,0.15784,-0.0019797,-0.051068,-0.010904
0.04093,0.036487,-0.049702,-0.067577,0.10918,0.20373,0.5053,-0.012687,-0.032228,-0.062744,-0.063562,-0.15781,0.091868,-0.51344,0.053154,0.042803,0.085458,0.056633,0.65888,-0.33243,0.14507,-0.027767,-0.045015,-0.023678
0.040461,0.039658,-0.049116,-0.07285,0.11098,0.20987,0.66472,-0.03878,-0.02866,-0.090802,-0.042388,-0.06362,0.059613,-0.30344,0.036236,0.11128,0.097769,0.097351,0.8048,-0.44634,0.13034,-0.035029,-0.040632,-0.03461
0.041734,0.043548,-0.053636,-0.079412,0.095533,0.22705,0.78924,-0.086536,-0.024379,-0.10814,-0.027814,0.023972,0.029171,-0.080933,0.019854,0.19903,0.11187,0.13622,0.90226,-0.65035,0.1134,-0.037561,-0.040096,-0.045564
0.046675,0.048134,-0.063166,-0.086003,0.058519,0.2467,0.83871,-0.14309,-0.020939,-0.11512,-0.018364,0.089652,0.0066386,0.10107,0.0025946,0.28031,0.12135,0.16014,0.94017,-0.87579,0.094955,-0.04546,-0.044173,-0.058138
0.054224,0.052182,-0.074661,-0.08932,0.0071083,0.25757,0.79614,-0.18898,-0.020979,-0.11371,-0.011823,0.12278,-0.0064722,0.20101,-0.015584,0.33268,0.12104,0.16074,0.92605,-1.0267,0.075274,-0.061237,-0.05202,-0.072416
0.060733,0.053006,-0.084143,-0.085865,-0.041265,0.25612,0.68743,-0.20754,-0.026014,-0.10557,-0.0079989,0.12372,-0.013934,0.20954,-0.032733,0.34546,0.10995,0.13897,0.8807,-1.0406,0.053466,-0.08198,-0.061673,-0.086647
0.062626,0.04787,-0.088966,-0.074698,-0.068607,0.25083,0.57156,-0.19438,-0.034679,-0.090886,-0.0085729,0.1031,-0.021479,0.15096,-0.046321,0.32218,0.09178,0.10512,0.82838,-0.92694,0.028354,-0.10382,-0.070763,-0.098097
0.059147,0.036208,-0.089006,-0.058977,-0.067723,0.25604,0.50652,-0.16179,-0.043291,-0.068044,-0.014682,0.074424,-0.031941,0.065562,-0.054925,0.2776,0.072905,0.073506,0.78645,-0.75016,0.00021873,-0.12397,-0.077119,-0.10456
0.052905,0.020822,-0.08632,-0.044742,-0.046098,0.28064,0.51564,-0.1343,-0.048566,-0.034602,-0.024754,0.046218,-0.042872,-0.014134,-0.058532,0.23125,0.05925,0.055052,0.75765,-0.56809,-0.028304,-0.13879,-0.079337,-0.10566
0.047817,0.0066835,-0.083702,-0.037349,-0.018621,0.3219,0.57854,-0.13595,-0.050108,0.010042,-0.034547,0.01987,-0.048653,-0.077257,-0.057527,0.19955,0.053784,0.052136,0.72716,-0.37664,-0.053244,-0.14085,-0.077324,-0.10317
0.046238,-0.002192,-0.082953,-0.037957,0.0052988,0.36926,0.65138,-0.17621,-0.050312,0.06134,-0.039345,-0.0060206,-0.045415,-0.13116,-0.052006,0.1886,0.055355,0.058423,0.66722,-0.10827,-0.07163,-0.11948,-0.072552,-0.10032
0.047552,-0.0055227,-0.083882,-0.042776,0.029722,0.41338,0.6988,-0.24423,-0.051601,0.10867,-0.036606,-0.029945,-0.034766,-0.18655,-0.042523,0.19054,0.058722,0.062828,0.54912,0.31102,-0.083344,-0.066719,-0.067485,-0.10031
0.049056,-0.0067995,-0.084667,-0.045874,0.068581,0.45077,0.71298,-0.31597,-0.053526,0.13944,-0.02737,-0.046399,-0.023244,-0.24443,-0.031493,0.18658,0.055605,0.054545,0.35791,0.88859,-0.090986,0.01408,-0.064183,-0.10476
0.048134,-0.010279,-0.083437,-0.043575,0.13359,0.48017,0.7086,-0.36963,-0.052511,0.14713,-0.015856,-0.050277,-0.017854,-0.29462,-0.023256,0.15663,0.037011,0.026606,0.1016,1.5312,-0.097732,0.10356,-0.06295,-0.11289
0.044014,-0.017293,-0.079966,-0.037023,0.22389,0.49567,0.70285,-0.39817,-0.044631,0.13737,-0.0077211,-0.041859,-0.021025,-0.32473,-0.02181,0.091117,-0.0030991,-0.022446,-0.19113,2.0759,-0.10462,0.17086,-0.062219,-0.1218
0.03809,-0.025095,-0.076109,-0.030829,0.32576,0.48581,0.69995,-0.41041,-0.029025,0.1261,-0.0077642,-0.026868,-0.028714,-0.33022,-0.027586,-0.0022386,-0.064003,-0.088024,-0.48336,2.3643,-0.10914,0.18706,-0.060099,-0.12807
0.032925,-0.029418,-0.074425,-0.028884,0.42178,0.44148,0.69228,-0.42094,-0.0089364,0.12905,-0.017811,-0.011149,-0.032905,-0.31622,-0.036115,-0.1015,-0.13666,-0.15999,-0.74411,2.3112,-0.10635,0.14052,-0.056501,-0.12959
0.030716,-0.02861,-0.075972,-0.030838,0.50086,0.36588,0.67341,-0.43789,0.010404,0.15005,-0.03565,0.00483,-0.026565,-0.29082,-0.040344,-0.18171,-0.20637,-0.22504,-0.9553,1.9275,-0.092037,0.044591,-0.054067,-0.12672
0.032025,-0.025603,-0.079142,-0.032226,0.56105,0.27636,0.64812,-0.45781,0.025041,0.17815,-0.055938,0.026032,-0.007474,-0.25716,-0.035482,-0.22655,-0.25905,-0.27137,-1.1087,1.2918,-0.066187,-0.068095,-0.056833,-0.12187
0.035382,-0.025744,-0.08068,-0.028176,0.60439,0.19499,0.62902,-0.46986,0.03396,0.19773,-0.073217,0.057076,0.021478,-0.21223,-0.022871,-0.23276,-0.28764,-0.29361,-1.1988,0.50042,-0.034344,-0.16164,-0.067296,-0.11763
0.038022,-0.03224,-0.078201,-0.017525,0.63069,0.13493,0.62319,-0.46405,0.038286,0.20394,-0.085522,0.095992,0.055076,-0.15305,-0.0097573,-0.20579,-0.29413,-0.29494,-1.2203,-0.36327,-0.0053485,-0.21376,-0.083889,-0.11484
0.037452,-0.043229,-0.072067,-0.0038606,0.63677,0.093918,0.62218,-0.43666,0.03959,0.2099,-0.095936,0.13343,0.088955,-0.083506,-0.0046757,-0.15241,-0.2858,-0.28428,-1.1731,-1.2231,0.013508,-0.22357,-0.10072,-0.11172
0.032931,-0.053185,-0.064944,0.0073245,0.6211,0.060041,0.60569,-0.39038,0.039288,0.23753,-0.11034,0.15818,0.1206,-0.015059,-0.01158,-0.077902,-0.26817,-0.27016,-1.0699,-1.9827,0.020752,-0.20715,-0.11001,-0.10499
0.025844,-0.057519,-0.059383,0.012859,0.58805,0.023951,0.55658,-0.3318,0.039308,0.29777,-0.13249,0.16419,0.14794,0.039533,-0.026989,0.0096543,-0.24025,-0.25587,-0.93731,-2.5154,0.021177,-0.18564,-0.10596,-0.092054
0.018683,-0.056383,-0.055607,0.013956,0.5466,-0.013362,0.47439,-0.26973,0.042346,0.37652,-0.15999,0.15336,0.16762,0.0734,-0.042375,0.09346,-0.19607,-0.23926,-0.80532,-2.6988,0.021896,-0.17454,-0.088004,-0.073053
0.013416,-0.054378,-0.051551,0.014646,0.5047,-0.043222,0.37539,-0.21427,0.050348,0.43949,-0.18478,0.13275,0.17535,0.087783,-0.050135,0.14892,-0.13149,-0.2173,-0.69154,-2.4817,0.026965,-0.18015,-0.061518,-0.051228
0.010482,-0.056461,-0.045128,0.018295,0.46501,-0.058463,0.27908,-0.17401,0.062205,0.4538,-0.19796,0.10982,0.16841,0.088721,-0.048655,0.15464,-0.051233,-0.19112,-0.59201,-1.9366,0.034836,-0.20269,-0.035448,-0.031451
0.008967,-0.063647,-0.036581,0.025304,0.42608,-0.059912,0.19224,-0.15065,0.073282,0.40968,-0.19563,0.090048,0.148,0.082693,-0.042662,0.1072,0.029856,-0.16718,-0.48685,-1.2481,0.040581,-0.24093,-0.017872,-0.017864
0.0075373,-0.072165,-0.028667,0.033576,0.38697,-0.054663,0.10381,-0.13421,0.078139,0.32537,-0.18102,0.07803,0.11902,0.075269,-0.038719,0.027593,0.092883,-0.15321,-0.35758,-0.63015,0.040727,-0.29351,-0.011835,-0.012261
0.0052545,-0.07668,-0.02443,0.040499,0.3499,-0.049172,-0.0054835,-0.10413,0.074589,0.23215,-0.16162,0.079088,0.086925,0.07228,-0.039675,-0.047817,0.12453,-0.15209,-0.20349,-0.21928,0.036344,-0.35663,-0.013978,-0.014228
0.0018864,-0.074701,-0.024601,0.043978,0.31779,-0.044932,-0.1465,-0.038144,0.065332,0.15285,-0.14387,0.098453,0.054538,0.079915,-0.042668,-0.087762,0.12372,-0.15872,-0.044535,-0.013228,0.031855,-0.42201,-0.017009,-0.022569
-0.0020802,-0.068464,-0.027014,0.041482,0.29002,-0.041121,-0.31094,0.07527,0.055263,0.091516,-0.12971,0.13809,0.021775,0.10193,-0.042187,-0.083929,0.10106,-0.16261,0.090704,0.10403,0.030989,-0.4793,-0.014589,-0.036329
-0.0055311,-0.062864,-0.028538,0.028676,0.26156,-0.04097,-0.47379,0.22823,0.046698,0.040466,-0.11709,0.1941,-0.011482,0.13639,-0.035345,-0.053578,0.07174,-0.15472,0.18194,0.2708,0.033785,-0.52251,-0.0054894,-0.05397
-0.0071399,-0.061435,-0.027689,0.00019369,0.22725,-0.054478,-0.60649,0.3939,0.037174,-0.0049265,-0.10336,0.25726,-0.042359,0.17598,-0.024676,-0.025502,0.046871,-0.13393,0.22545,0.55503,0.037156,-0.55517,0.005752,-0.071004
-0.0063179,-0.063852,-0.02553,-0.046839,0.18709,-0.093557,-0.69142,0.53565,0.022287,-0.039109,-0.087978,0.31654,-0.065379,0.21265,-0.016059,-0.020421,0.028702,-0.1086,0.2286,0.92116,0.038049,-0.58812,0.011935,-0.07839
-0.004194,-0.066876,-0.024177,-0.10898,0.14638,-0.16318,-0.72902,0.61983,0.0011684,-0.053401,-0.072759,0.3631,-0.076547,0.24298,-0.013685,-0.04017,0.011863,-0.091992,0.19769,1.269,0.035949,-0.62943,0.0077595,-0.064278
-0.0035412,-0.067593,-0.024544,-0.17595,0.11012,-0.25623,-0.73487,0.6266,-0.020752,-0.048833,-0.060304,0.39263,-0.077447,0.26938,-0.016464,-0.071892,-0.010925,-0.094154,0.13172,1.5048,0.032643,-0.67365,-0.0072043,-0.019674
-0.0071082,-0.0659,-0.025596,-0.23467,0.076967,-0.35678,-0.72972,0.55575,-0.034851,-0.040243,-0.052462,0.40561,-0.074902,0.29631,-0.018855,-0.10122,-0.042588,-0.1152,0.028503,1.589,0.03008,-0.70002,-0.028683,0.054662
-0.015317,-0.064184,-0.025784,-0.2753,0.039585,-0.44884,-0.7284,0.42654,-0.035988,-0.045446,-0.049996,0.40633,-0.075443,0.32541,-0.015274,-0.12258,-0.078577,-0.14414,-0.10289,1.5363,0.028877,-0.68373,-0.050303,0.14463
-0.025285,-0.06477,-0.025013,-0.29479,-0.007806,-0.52356,-0.73299,0.2714,-0.026889,-0.068394,-0.052809,0.40075,-0.078839,0.35412,-0.0044603,-0.13924,-0.10855,-0.16441,-0.23618,1.3848,0.02884,-0.61357,-0.066719,0.22602
-0.032387,-0.067673,-0.024902,-0.29566,-0.061417,-0.5796,-0.73319,0.1242,-0.016167,-0.092512,-0.059707,0.39342,-0.076527,0.37823,0.0094117,-0.15569,-0.12199,-0.1632,-0.33683,1.1723,0.030421,-0.50249,-0.075673,0.2742
-0.033495,-0.070646,-0.026864,-0.28191,-0.10765,-0.61838,-0.71389,0.0066993,-0.011504,-0.092601,-0.067709,0.38378,-0.057106,0.39502,0.019332,-0.17102,-0.11471,-0.1391,-0.38132,0.93837,0.034911,-0.38212,-0.078384,0.27557
-0.029395,-0.071289,-0.029934,-0.25608,-0.13228,-0.64019,-0.66573,-0.080141,-0.013712,-0.057194,-0.072126,0.36415,-0.015111,0.40312,0.019609,-0.17938,-0.09223,-0.10308,-0.37231,0.73391,0.042709,-0.28394,-0.078413,0.23456
-0.024356,-0.069154,-0.030819,-0.2201,-0.13182,-0.64511,-0.59243,-0.15376,-0.016491,-0.0028685,-0.068251,0.32128,0.043832,0.40014,0.0088804,-0.17627,-0.067481,-0.071762,-0.33733,0.61041,0.05143,-0.22078,-0.079543,0.17153
-0.023005,-0.065978,-0.026575,-0.17804,-0.11709,-0.63694,-0.50934,-0.23644,-0.01164,0.032517,-0.053923,0.24143,0.1058,0.38177,-0.0094646,-0.16401,-0.053425,-0.056911,-0.31076,0.58451,0.056349,-0.18171,-0.083539,0.11248
-0.026874,-0.064026,-0.017513,-0.13719,-0.10532,-0.6246,-0.43383,-0.339,0.00498,0.013709,-0.030984,0.11638,0.15742,0.3452,-0.029241,-0.15101,-0.054972,-0.058253,-0.31201,0.61043,0.05373,-0.14279,-0.088974,0.07637
-0.03328,-0.064134,-0.0073751,-0.10539,-0.10725,-0.61794,-0.37445,-0.4535,0.031502,-0.068913,-0.0043008,-0.052565,0.19407,0.29378,-0.044588,-0.14568,-0.065724,-0.06452,-0.33541,0.59893,0.044664,-0.084003,-0.091928,0.067515
-0.037389,-0.065097,-0.00013711,-0.086514,-0.12005,-0.62095,-0.32767,-0.56013,0.062931,-0.19428,0.020971,-0.25314,0.22143,0.23729,-0.052837,-0.15022,-0.072377,-0.062113,-0.35837,0.48333,0.035903,0.00064312,-0.088256,0.077241
-0.035878,-0.06475,0.0038879,-0.078479,-0.13189,-0.62861,-0.28522,-0.64218,0.095576,-0.32601,0.041765,-0.46225,0.24934,0.18542,-0.055962,-0.15945,-0.064148,-0.045098,-0.36047,0.28326,0.036234,0.10471,-0.075876,0.092551
-0.029426,-0.061652,0.0089971,-0.075654,-0.13348,-0.63113,-0.24586,-0.69657,0.12909,-0.43481,0.05752,-0.64703,0.28294,0.13904,-0.059907,-0.16496,-0.040551,-0.019248,-0.3389,0.10601,0.050532,0.21729,-0.055514,0.1049
-0.022249,-0.055979,0.020911,-0.073868,-0.12661,-0.62262,-0.22024,-0.73156,0.16495,-0.51093,0.068955,-0.76889,0.31758,0.087801,-0.071917,-0.16083,-0.011669,0.002711,-0.30962,0.071957,0.075815,0.32807,-0.029581,0.1128
-0.019124,-0.049048,0.041996,-0.073554,-0.12246,-0.60731,-0.2234,-0.75539,0.20343,-0.55953,0.076891,-0.79328,0.34126,0.017901,-0.096856,-0.14649,0.009464,0.010931,-0.295,0.21754,0.10238,0.42592,-0.00046271,0.11771
-0.022189,-0.042033,0.068941,-0.078294,-0.13229,-0.59841,-0.25982,-0.76743,0.24196,-0.58667,0.082285,-0.70413,0.34266,-0.075307,-0.13408,-0.12545,0.016612,0.006005,-0.30775,0.45569,0.11942,0.49592,0.030202,0.11828
-0.029713,-0.035088,0.094754,-0.090187,-0.1591,-0.61081,-0.314,-0.76031,0.27587,-0.58951,0.086987,-0.51611,0.31897,-0.1806,-0.17637,-0.10184,0.014792,-0.001123,-0.34141,0.63028,0.12117,0.52205,0.060869,0.10928
-0.037492,-0.027693,0.11318,-0.10627,-0.19691,-0.65294,-0.35556,-0.73016,0.30019,-0.55869,0.093678,-0.27507,0.27821,-0.27647,-0.21174,-0.077981,0.016207,0.0034788,-0.37169,0.62347,0.10943,0.49675,0.089122,0.086463
-0.041591,-0.019953,0.12184,-0.11924,-0.23676,-0.72288,-0.35612,-0.68405,0.31094,-0.48864,0.10432,-0.042307,0.23457,-0.34492,-0.22785,-0.05452,0.031107,0.027542,-0.36597,0.43037,0.091209,0.43022,0.11171,0.052816
-0.04052,-0.013523,0.12206,-0.12188,-0.27255,-0.8095,-0.30545,-0.63633,0.30555,-0.38509,0.11815,0.13151,0.19996,-0.38215,-0.21733,-0.032425,0.060687,0.067912,-0.29619,0.1429,0.073539,0.34994,0.12582,0.019561
-0.03564,-0.010949,0.11674,-0.11152,-0.30158,-0.89669,-0.21536,-0.59678,0.28348,-0.26261,0.13111,0.22855,0.17761,-0.39788,-0.18168,-0.014683,0.096978,0.11314,-0.15087,-0.13872,0.059382,0.28808,0.13052,5.3502e-005
-0.029965,-0.013518,0.1087,-0.09081,-0.321,-0.96856,-0.10977,-0.5616,0.24744,-0.13443,0.1377,0.26832,0.1617,-0.40489,-0.13137,-0.0060237,0.12893,0.15106,0.056678,-0.39062,0.046935,0.26411,0.12724,0.0010261
-0.026387,-0.01938,0.10068,-0.064721,-0.32559,-1.0147,-0.010492,-0.51624,0.20433,-0.0039162,0.13393,0.29111,0.14306,-0.40909,-0.081587,-0.010495,0.14939,0.17599,0.2882,-0.67765,0.032037,0.27474,0.11905,0.018317
-0.026314,-0.024034,0.095573,-0.036702,-0.31075,-1.0343,0.070709,-0.44819,0.16408,0.13483,0.11941,0.3307,0.1162,-0.40837,-0.045861,-0.028134,0.15801,0.19075,0.49159,-1.0884,0.011397,0.2979,0.10954,0.040436
-0.029203,-0.023435,0.095221,-0.0074624,-0.27822,-1.0367,0.13036,-0.35907,0.136,0.28746,0.097058,0.39347,0.08281,-0.39983,-0.030923,-0.05254,0.159,0.20283,0.62143,-1.6503,-0.015526,0.30752,0.1018,0.056665
-0.033032,-0.017496,0.098454,0.022964,-0.23837,-1.0362,0.16732,-0.26585,0.12449,0.44883,0.071044,0.4571,0.049463,-0.38657,-0.035664,-0.070823,0.15661,0.21755,0.65947,-2.2907,-0.046618,0.28836,0.097556,0.062951
-0.035461,-0.010838,0.10068,0.052444,-0.20569,-1.0432,0.18042,-0.19046,0.12691,0.59997,0.044883,0.48824,0.022455,-0.37638,-0.054039,-0.066467,0.1522,0.23359,0.62231,-2.8683,-0.07847,0.24164,0.096371,0.061492
-0.035235,-0.0096459,0.096657,0.076409,-0.19032,-1.0575,0.17203,-0.14624,0.13533,0.71554,0.021045,0.46586,0.0044398,-0.37335,-0.079305,-0.024552,0.14433,0.24362,0.5494,-3.2422,-0.10794,0.17994,0.095236,0.055845
-0.033064,-0.016863,0.084789,0.090584,-0.19234,-1.0695,0.15297,-0.13169,0.14085,0.77673,0.0017478,0.39411,-0.0046267,-0.37141,-0.1067,0.062192,0.1309,0.23957,0.47761,-3.327,-0.1333,0.11716,0.089495,0.046882
-0.031279,-0.029598,0.069152,0.094264,-0.20309,-1.0689,0.14201,-0.13493,0.13763,0.78059,-0.010556,0.29683,-0.0043901,-0.35789,-0.13361,0.18859,0.11112,0.21821,0.41902,-3.1097,-0.15465,0.06143,0.075225,0.033171
-0.032222,-0.040945,0.056939,0.090961,-0.21175,-1.0535,0.15803,-0.14399,0.12411,0.73946,-0.01407,0.19969,0.0067856,-0.32562,-0.15843,0.33556,0.085998,0.18322,0.35727,-2.6358,-0.17365,0.014457,0.051751,0.014506
-0.036335,-0.044768,0.05301,0.085792,-0.21135,-1.03,0.20968,-0.15467,0.1015,0.67138,-0.0093813,0.11399,0.02863,-0.283,-0.17956,0.47344,0.057593,0.14256,0.26446,-1.992,-0.19229,-0.024361,0.022178,-0.0056538
-0.041422,-0.039605,0.056074,0.08207,-0.20043,-1.0061,0.2899,-0.17075,0.071369,0.58881,-0.00034371,0.033601,0.054777,-0.25138,-0.19501,0.57009,0.028034,0.10338,0.12563,-1.2906,-0.2114,-0.053989,-0.0089051,-0.02153
-0.043904,-0.028852,0.059801,0.080218,-0.18075,-0.9811,0.37978,-0.19823,0.034603,0.49414,0.0071424,-0.054208,0.072826,-0.24953,-0.20211,0.60168,-0.001065,0.068432,-0.047633,-0.6445,-0.2297,-0.071291,-0.038969,-0.028778
-0.041368,-0.017623,0.057944,0.079652,-0.15482,-0.94453,0.4592,-0.23881,-0.0078303,0.38505,0.0080007,-0.15377,0.070619,-0.27697,-0.19726,0.56241,-0.028685,0.036125,-0.2233,-0.12557,-0.24431,-0.074016,-0.069231,-0.026906
-0.034518,-0.0092953,0.049133,0.081218,-0.12527,-0.88474,0.51729,-0.28717,-0.053556,0.26484,0.00071685,-0.2538,0.044558,-0.3106,-0.17685,0.46806,-0.054229,0.0034642,-0.36786,0.27574,-0.25241,-0.064421,-0.10259,-0.018174
-0.026921,-0.0044112,0.037495,0.087367,-0.095259,-0.80073,0.55585,-0.33311,-0.098678,0.14822,-0.011738,-0.33304,0.0028961,-0.31889,-0.13988,0.3504,-0.077267,-0.030623,-0.46244,0.65112,-0.25292,-0.050309,-0.13912,-0.0044317
-0.022597,-0.0020695,0.028987,0.099759,-0.067867,-0.70603,0.58426,-0.36644,-0.1395,0.056084,-0.023185,-0.37408,-0.039483,-0.28326,-0.09066,0.24374,-0.097261,-0.06406,-0.50508,1.1165,-0.24682,-0.042137,-0.17289,0.014603
-0.023257,-0.0016738,0.026803,0.11701,-0.044654,-0.62097,0.61034,-0.38133,-0.1749,0.0013621,-0.026885,-0.37423,-0.071034,-0.20982,-0.03853,0.17005,-0.11343,-0.093004,-0.50163,1.7233,-0.23613,-0.04749,-0.19338,0.039742
-0.02727,-0.0031039,0.029533,0.13535,-0.025439,-0.55927,0.63408,-0.37809,-0.20726,-0.023478,-0.018389,-0.34565,-0.090248,-0.12225,0.0065884,0.13095,-0.12506,-0.11455,-0.4565,2.4027,-0.22229,-0.066083,-0.19107,0.068951
-0.031058,-0.0054988,0.032964,0.15224,-0.010663,-0.51976,0.64837,-0.36148,-0.24068,-0.046143,0.0023336,-0.305,-0.10386,-0.042384,0.040316,0.11163,-0.13231,-0.12882,-0.37229,2.9929,-0.20541,-0.08842,-0.16321,0.095723
-0.031679,-0.0065875,0.033388,0.16955,-0.0043405,-0.48944,0.64546,-0.33674,-0.27724,-0.098608,0.030273,-0.26128,-0.11886,0.025165,0.066312,0.09358,-0.13694,-0.13911,-0.25577,3.3377,-0.18463,-0.099406,-0.11548,0.11126
-0.02858,-0.0039623,0.029646,0.19311,-0.013888,-0.45461,0.62325,-0.30625,-0.31395,-0.19468,0.056969,-0.21129,-0.13567,0.092114,0.092229,0.067174,-0.14202,-0.15006,-0.12102,3.3882,-0.15916,-0.085405,-0.058182,0.10912
-0.023408,0.0025791,0.022828,0.22836,-0.045451,-0.41085,0.58639,-0.26934,-0.34261,-0.31637,0.074249,-0.14577,-0.14851,0.17206,0.12193,0.035137,-0.15032,-0.16497,0.015961,3.2272,-0.12906,-0.04125,-0.0001504,0.088723
-0.018441,0.010072,0.014691,0.27576,-0.097997,-0.36462,0.54166,-0.22578,-0.35317,-0.41966,0.078457,-0.060262,-0.15176,0.26657,0.1508,0.0057216,-0.1622,-0.18358,0.14611,2.9967,-0.095821,0.026462,0.054757,0.05529
-0.015119,0.014289,0.0063534,0.32958,-0.16163,-0.32649,0.49188,-0.18009,-0.3385,-0.4574,0.07238,0.038562,-0.14617,0.36419,0.16891,-0.017361,-0.17474,-0.20154,0.26948,2.7853,-0.062387,0.10147,0.10608,0.016704
-0.013659,0.013252,-0.002113,0.38129,-0.22251,-0.30243,0.43395,-0.14199,-0.29771,-0.40506,0.063074,0.13582,-0.13907,0.45185,0.16962,-0.038944,-0.18302,-0.21194,0.38684,2.5619,-0.032908,0.16413,0.15208,-0.019854
-0.013571,0.0092177,-0.011571,0.42421,-0.27108,-0.28982,0.36247,-0.12123,-0.23633,-0.27358,0.056822,0.21694,-0.139,0.52665,0.15608,-0.067063,-0.18284,-0.20823,0.48888,2.21,-0.011663,0.19876,0.18667,-0.049218
-0.014233,0.0070882,-0.023563,0.45573,-0.30714,-0.2805,0.27569,-0.11987,-0.16401,-0.10201,0.055101,0.27355,-0.14985,0.59654,0.13907,-0.10371,-0.17299,-0.18734,0.55557,1.63,-0.0012695,0.19851,0.20123,-0.067762
-0.015057,0.010341,-0.039687,0.47558,-0.33804,-0.26767,0.17829,-0.12831,-0.091222,0.063727,0.054852,0.30202,-0.16966,0.66946,0.12786,-0.14062,-0.15527,-0.15168,0.56937,0.83004,-0.0011129,0.16648,0.19015,-0.073174
-0.015455,0.017951,-0.06035,0.48266,-0.37202,-0.25074,0.078501,-0.12885,-0.026526,0.19182,0.052661,0.29782,-0.1944,0.74183,0.12234,-0.16421,-0.13263,-0.10872,0.5318,-0.066032,-0.0073605,0.1135,0.15569,-0.065729
-0.015034,0.025036,-0.083486,0.47396,-0.41211,-0.23433,-0.017361,-0.10465,0.025305,0.27339,0.048876,0.2536,-0.2223,0.79755,0.1141,-0.16553,-0.10708,-0.068151,0.46741,-0.88997,-0.015053,0.05456,0.10808,-0.049806
-0.013926,0.026745,-0.10447,0.44693,-0.45474,-0.22181,-0.10777,-0.047443,0.064074,0.3169,0.047734,0.16466,-0.25454,0.81881,0.096003,-0.14723,-0.079058,-0.037675,0.4095,-1.5189,-0.021003,0.0053656,0.060747,-0.03303
-0.012775,0.022085,-0.11795,0.40281,-0.49262,-0.20824,-0.1932,0.040989,0.093562,0.33542,0.053421,0.037928,-0.29157,0.79981,0.071519,-0.1224,-0.04869,-0.019723,0.37822,-1.9153,-0.025232,-0.020376,0.024237,-0.022077
-0.012145,0.014559,-0.12068,0.34769,-0.51861,-0.17894,-0.27053,0.15267,0.11921,0.33704,0.065954,-0.10485,-0.32922,0.75263,0.054351,-0.10729,-0.017691,-0.011289,0.36927,-2.1009,-0.029679,-0.013501,0.0032133,-0.017601
-0.01189,0.0093403,-0.11334,0.28967,-0.52825,-0.11655,-0.33081,0.2767,0.14491,0.3234,0.080957,-0.23439,-0.35836,0.70154,0.057644,-0.11342,0.0097155,-0.0071657,0.36264,-2.1066,-0.035231,0.028112,-0.0024818,-0.012685
-0.011234,0.0095563,-0.10001,0.23445,-0.52095,-0.013161,-0.36393,0.39803,0.17077,0.29401,0.093594,-0.3275,-0.36929,0.6712,0.081666,-0.14319,0.027726,-0.0043475,0.34352,-1.9496,-0.039763,0.097822,0.0050531,0.002816
-0.0096359,0.014653,-0.085472,0.18318,-0.50068,0.12105,-0.36685,0.4942,0.19358,0.24975,0.10291,-0.37712,-0.35723,0.67632,0.11122,-0.18942,0.031381,-0.0041902,0.31753,-1.6556,-0.039176,0.18077,0.023236,0.034464
-0.0075511,0.021638,-0.072593,0.1342,-0.47582,0.26031,-0.34755,0.53767,0.20945,0.19184,0.11247,-0.39184,-0.32508,0.71705,0.12599,-0.23775,0.019205,-0.010524,0.308,-1.2929,-0.030774,0.25783,0.048146,0.077912
-0.0061125,0.027551,-0.06149,0.08692,-0.45651,0.3768,-0.32006,0.5079,0.21647,0.11852,0.12678,-0.38663,-0.28145,0.77955,0.11561,-0.27134,-0.0054026,-0.025217,0.3383,-0.97165,-0.016179,0.31225,0.073352,0.12071
-0.0058664,0.031007,-0.050774,0.044107,-0.44961,0.45622,-0.29365,0.40797,0.21512,0.024473,0.14678,-0.37315,-0.23616,0.84018,0.086906,-0.27767,-0.034867,-0.044887,0.41378,-0.79683,-0.0011152,0.33631,0.090957,0.15041
-0.005818,0.032123,-0.039515,0.010384,-0.45439,0.50342,-0.26599,0.27305,0.2068,-0.094125,0.16844,-0.35596,-0.19627,0.87309,0.057261,-0.25528,-0.060008,-0.061463,0.51656,-0.80665,0.0081139,0.33424,0.095006,0.16273
-0.0039383,0.031803,-0.028312,-0.011535,-0.46273,0.53406,-0.22734,0.16015,0.1926,-0.2324,0.18553,-0.33503,-0.16474,0.86043,0.040207,-0.21561,-0.073207,-0.066078,0.61538,-0.94561,0.0089466,0.31953,0.084657,0.16349
0.0011344,0.031467,-0.018865,-0.023404,-0.46495,0.55947,-0.1728,0.12131,0.17392,-0.37407,0.19384,-0.30929,-0.14121,0.80124,0.03559,-0.17706,-0.070642,-0.053254,0.68201,-1.0962,0.0044812,0.30767,0.064229,0.16287
0.0087601,0.033135,-0.012715,-0.030453,-0.45689,0.57797,-0.11156,0.17572,0.15366,-0.49689,0.19338,-0.27752,-0.12329,0.7126,0.032217,-0.15393,-0.052726,-0.022822,0.70306,-1.1475,0.0016196,0.30874,0.039924,0.16719
0.016638,0.038846,-0.01026,-0.037796,-0.44271,0.57953,-0.063472,0.29929,0.13552,-0.58317,0.18699,-0.23713,-0.10781,0.62025,0.019664,-0.1478,-0.02293,0.020647,0.68134,-1.0527,0.0068193,0.32387,0.016084,0.17509
0.022507,0.049035,-0.010617,-0.047358,-0.43073,0.55879,-0.044576,0.43931,0.12073,-0.62759,0.177,-0.18454,-0.092091,0.5439,-0.0015902,-0.14776,0.014055,0.069447,0.62821,-0.84024,0.022378,0.34708,-0.0057006,0.18105
0.02556,0.060991,-0.012125,-0.057697,-0.4258,0.52357,-0.053594,0.54502,0.10523,-0.63641,0.16292,-0.1189,-0.075556,0.48789,-0.020123,-0.13915,0.053872,0.11451,0.55286,-0.57931,0.045478,0.36993,-0.024128,0.18241
0.026355,0.069279,-0.012968,-0.066326,-0.4248,0.49091,-0.071946,0.59409,0.081099,-0.61931,0.14207,-0.046727,-0.06044,0.44464,-0.022668,-0.11331,0.093251,0.1477,0.4553,-0.33367,0.07012,0.38526,-0.035261,0.1832
0.025642,0.068807,-0.011635,-0.072093,-0.41895,0.47448,-0.078304,0.59926,0.042876,-0.58137,0.11225,0.017041,-0.050345,0.4073,-0.0039275,-0.071249,0.12982,0.16472,0.32711,-0.13678,0.090252,0.38783,-0.032825,0.19123
0.02366,0.058808,-0.0072993,-0.075571,-0.40095,0.47538,-0.065873,0.59344,-0.0059744,-0.52212,0.074163,0.05434,-0.046888,0.38001,0.030697,-0.020212,0.16106,0.16689,0.16035,0.0014575,0.10215,0.37293,-0.01256,0.21101
0.020729,0.044519,-0.00019203,-0.077593,-0.37081,0.4848,-0.047759,0.60561,-0.052672,-0.44233,0.03139,0.053258,-0.046985,0.37593,0.070214,0.031561,0.18305,0.15953,-0.040564,0.074291,0.10507,0.33531,0.022578,0.23882
0.018217,0.034462,0.0082497,-0.077828,-0.33588,0.49546,-0.046015,0.64342,-0.082496,-0.35167,-0.011883,0.015854,-0.04374,0.40446,0.10532,0.076426,0.19002,0.14682,-0.25251,0.068357,0.10055,0.27,0.061084,0.26416
0.018242,0.034555,0.015797,-0.074998,-0.30553,0.5102,-0.074074,0.69146,-0.088848,-0.26867,-0.053234,-0.040622,-0.031276,0.45944,0.13171,0.10555,0.17583,0.12708,-0.43921,-0.027053,0.091194,0.17431,0.087561,0.27613
0.021782,0.043332,0.0204,-0.068504,-0.28513,0.53896,-0.12745,0.72297,-0.077927,-0.2112,-0.092239,-0.090385,-0.010095,0.51928,0.14816,0.10881,0.13756,0.093105,-0.56723,-0.20419,0.079624,0.049621,0.090779,0.26945
0.02693,0.052383,0.021138,-0.059734,-0.27371,0.5869,-0.18944,0.71549,-0.064064,-0.18397,-0.12836,-0.11035,0.011769,0.55948,0.15297,0.079748,0.079212,0.03889,-0.62228,-0.4326,0.067733,-0.097822,0.069649,0.24545
0.029496,0.052381,0.018447,-0.051541,-0.26588,0.64534,-0.24463,0.66136,-0.059455,-0.17424,-0.15873,-0.090086,0.023608,0.56694,0.14294,0.022821,0.012905,-0.032105,-0.61394,-0.6713,0.056212,-0.25654,0.032982,0.20827
0.02612,0.040346,0.013484,-0.046151,-0.25525,0.69531,-0.28712,0.56888,-0.066471,-0.16041,-0.17831,-0.035535,0.019609,0.54464,0.11591,-0.044454,-0.044376,-0.10416,-0.56513,-0.88494,0.0444,-0.40984,-0.0065416,0.16019
0.017401,0.022271,0.0072921,-0.043311,-0.23659,0.72206,-0.31653,0.45562,-0.078132,-0.12809,-0.18287,0.035099,0.0030753,0.5045,0.07403,-0.098578,-0.077572,-0.15545,-0.49476,-1.0486,0.030663,-0.53717,-0.039774,0.099848
0.0079843,0.0086792,0.0005898,-0.040393,-0.20604,0.72813,-0.3282,0.33838,-0.085229,-0.080914,-0.17223,0.10059,-0.016407,0.45676,0.024691,-0.12282,-0.080257,-0.16965,-0.4073,-1.1385,0.013297,-0.61843,-0.06499,0.024197
0.0030688,0.0064937,-0.0056965,-0.034467,-0.16129,0.73293,-0.30919,0.22464,-0.083566,-0.03709,-0.15078,0.1461,-0.030721,0.40538,-0.021912,-0.11656,-0.057275,-0.14499,-0.29702,-1.1223,-0.0083882,-0.64071,-0.086505,-0.068526
0.0042175,0.013824,-0.0099811,-0.024646,-0.10266,0.75788,-0.24607,0.10919,-0.075765,-0.014412,-0.12469,0.16821,-0.039491,0.35167,-0.056498,-0.094617,-0.02165,-0.09496,-0.16102,-0.96284,-0.033407,-0.60428,-0.10996,-0.17712
0.0082389,0.021873,-0.010525,-0.012753,-0.034366,0.80857,-0.13795,-0.022507,-0.067565,-0.015819,-0.098219,0.17365,-0.04962,0.2995,-0.073288,-0.077594,0.012271,-0.040781,-0.0082644,-0.63777,-0.05926,-0.5229,-0.13778,-0.29752
0.010244,0.022146,-0.0067814,-0.0018496,0.036412,0.86845,-0.0027771,-0.18517,-0.062913,-0.027034,-0.072659,0.17352,-0.068438,0.25478,-0.070526,-0.080777,0.035257,-0.00096988,0.14412,-0.15843,-0.082847,-0.41671,-0.16714,-0.42326
0.0080824,0.012832,-0.00034671,0.0060195,0.10319,0.90932,0.12927,-0.382,-0.062025,-0.027529,-0.048332,0.17667,-0.096166,0.21952,-0.049849,-0.10856,0.045662,0.015862,0.2826,0.42894,-0.10153,-0.30134,-0.19067,-0.54541
0.0040194,-0.00065424,0.0056735,0.010949,0.16487,0.9105,0.23025,-0.59619,-0.062928,-0.0053112,-0.027165,0.18543,-0.12382,0.18761,-0.015735,-0.15588,0.047186,0.012133,0.40424,1.0636,-0.11375,-0.18094,-0.19909,-0.65315
0.0021463,-0.010685,0.0087404,0.014374,0.22752,0.87226,0.28598,-0.79103,-0.063974,0.03612,-0.012552,0.19505,-0.13805,0.14833,0.024857,-0.21328,0.044144,-0.0028809,0.50999,1.6972,-0.11878,-0.051101,-0.18494,-0.73643
0.0040949,-0.01324,0.0088014,0.017288,0.30089,0.81403,0.29771,-0.9212,-0.064936,0.082834,-0.0062112,0.19595,-0.12902,0.095527,0.063512,-0.27122,0.037535,-0.019664,0.58918,2.3066,-0.11624,0.090299,-0.14642,-0.79042
0.0072168,-0.0098565,0.0083811,0.019228,0.39078,0.75972,0.27604,-0.95184,-0.066577,0.12179,-0.0053189,0.1774,-0.095339,0.033418,0.092604,-0.32211,0.024179,-0.03424,0.61062,2.8796,-0.10573,0.2331,-0.089697,-0.81813
0.0069342,-0.0050166,0.010649,0.018988,0.49186,0.72173,0.23369,-0.8762,-0.070082,0.14872,-0.0034711,0.13181,-0.04334,-0.027531,0.10791,-0.36005,-0.00086173,-0.050146,0.53339,3.3882,-0.087255,0.35512,-0.02747,-0.82791
0.00094908,-0.0020947,0.016977,0.016354,0.58639,0.69488,0.18177,-0.721,-0.077126,0.16729,0.0045467,0.059094,0.017789,-0.081794,0.10982,-0.37908,-0.040114,-0.074904,0.33461,3.7708,-0.06214,0.43406,0.026548,-0.82586
-0.0086476,-0.0013338,0.025901,0.013172,0.65112,0.66355,0.12893,-0.5347,-0.089845,0.18215,0.018305,-0.030733,0.080656,-0.13664,0.102,-0.37082,-0.09,-0.11217,0.036241,3.9469,-0.033564,0.46228,0.064614,-0.80882
-0.017129,-0.00074576,0.034161,0.012581,0.66963,0.61577,0.081107,-0.36374,-0.10976,0.19288,0.03201,-0.11929,0.14131,-0.20864,0.08822,-0.32413,-0.13971,-0.15449,-0.291,3.858,-0.0060364,0.45275,0.088493,-0.76456
-0.020837,0.0017566,0.038864,0.016833,0.64264,0.55421,0.041049,-0.23122,-0.13606,0.19377,0.039748,-0.18722,0.19799,-0.31108,0.069793,-0.23007,-0.17397,-0.18291,-0.5546,3.5098,0.016159,0.4306,0.10648,-0.68132
-0.019405,0.0070004,0.039123,0.025463,0.58887,0.49653,0.0090837,-0.13105,-0.16505,0.179,0.041119,-0.22447,0.24929,-0.44254,0.045517,-0.092254,-0.17928,-0.17633,-0.68527,2.9811,0.030628,0.41655,0.1258,-0.56063
-0.01495,0.014493,0.03622,0.035381,0.53447,0.46501,-0.014616,-0.041117,-0.19168,0.14798,0.041899,-0.23678,0.2936,-0.58565,0.014312,0.064261,-0.15147,-0.12595,-0.6728,2.389,0.037561,0.41498,0.14651,-0.42294
-0.0096917,0.022911,0.032526,0.042964,0.49684,0.47181,-0.028282,0.055063,-0.21255,0.10653,0.048776,-0.24271,0.33006,-0.716,-0.021697,0.19579,-0.099913,-0.04457,-0.5688,1.8291,0.039072,0.41496,0.16204,-0.29965
-0.0045865,0.03045,0.030153,0.046548,0.47351,0.50932,-0.029868,0.15407,-0.22782,0.063031,0.06271,-0.26147,0.36005,-0.81328,-0.056376,0.25933,-0.045142,0.037667,-0.45309,1.3317,0.037761,0.40223,0.16573,-0.21543
8.2481e-005,0.035086,0.030102,0.047346,0.44462,0.55243,-0.021001,0.23553,-0.24038,0.022932,0.077093,-0.2993,0.3876,-0.86763,-0.082119,0.23949,-0.00923,0.090285,-0.38459,0.86175,0.035469,0.37109,0.15758,-0.17345
0.0035191,0.035134,0.032156,0.048063,0.388,0.57229,-0.0096169,0.27851,-0.25297,-0.013991,0.082807,-0.34409,0.41799,-0.88004,-0.094121,0.16361,-0.0039695,0.10105,-0.3691,0.36069,0.03285,0.327,0.14479,-0.15496
0.0044327,0.030032,0.035287,0.050408,0.29649,0.55375,-0.0075178,0.27778,-0.26568,-0.051505,0.076122,-0.372,0.45467,-0.86004,-0.093204,0.089788,-0.024259,0.082521,-0.36521,-0.20137,0.029653,0.2794,0.1358,-0.13437
0.0023889,0.020896,0.038211,0.05358,0.18494,0.50491,-0.023337,0.24777,-0.27589,-0.091841,0.062611,-0.36124,0.49592,-0.82216,-0.084856,0.071396,-0.051757,0.061259,-0.32271,-0.79841,0.025303,0.23306,0.13332,-0.098316
-0.0011319,0.010435,0.039822,0.055022,0.081455,0.4517,-0.056161,0.21241,-0.28049,-0.13201,0.05347,-0.30293,0.53379,-0.77941,-0.074928,0.12172,-0.066948,0.057752,-0.22375,-1.3608,0.019467,0.18657,0.13261,-0.053995
-0.003425,0.0022122,0.039417,0.052778,0.0092453,0.42042,-0.095429,0.19017,-0.27841,-0.16509,0.057098,-0.20288,0.55685,-0.73392,-0.065089,0.20559,-0.061425,0.072323,-0.095547,-1.8147,0.012534,0.13891,0.12644,-0.020739
-0.0025828,-0.00061741,0.036803,0.047435,-0.027472,0.4204,-0.12788,0.18587,-0.27115,-0.18649,0.072857,-0.075916,0.55638,-0.67101,-0.051634,0.26566,-0.041616,0.087632,0.014721,-2.1193,0.0058983,0.096622,0.11184,-0.012502
0.0010483,0.0031825,0.032429,0.04199,-0.043707,0.43952,-0.14634,0.19395,-0.26137,-0.20076,0.092027,0.060727,0.53227,-0.56589,-0.02895,0.26415,-0.021542,0.085046,0.081212,-2.2796,0.0018173,0.073446,0.092625,-0.026057
0.0053362,0.011827,0.027533,0.039693,-0.060574,0.45583,-0.15341,0.20902,-0.25081,-0.22317,0.10478,0.19004,0.49425,-0.40404,0.0046114,0.20794,-0.010663,0.061223,0.1225,-2.3274,0.0026771,0.08144,0.075938,-0.044164
0.0081979,0.020849,0.023992,0.041585,-0.089124,0.45588,-0.15732,0.23461,-0.23952,-0.27258,0.10703,0.2955,0.45668,-0.20204,0.042937,0.13891,-0.0067046,0.03151,0.18648,-2.2868,0.0098543,0.12087,0.066438,-0.049843
0.0089984,0.025445,0.023568,0.045664,-0.1229,0.44498,-0.16408,0.28406,-0.22641,-0.35829,0.10169,0.36343,0.43,-0.0099825,0.073845,0.099357,0.00088479,0.017757,0.30856,-2.151,0.022766,0.17796,0.063251,-0.038884
0.0083969,0.023782,0.026748,0.048247,-0.14387,0.44128,-0.17286,0.37383,-0.21023,-0.4692,0.094042,0.3887,0.41476,0.11256,0.085815,0.10207,0.020026,0.030647,0.47688,-1.89,0.038767,0.23289,0.06178,-0.020382
0.0072237,0.018735,0.031981,0.046448,-0.1365,0.45917,-0.17859,0.51441,-0.18979,-0.57408,0.086465,0.37904,0.40267,0.13294,0.075374,0.12797,0.047062,0.060596,0.6329,-1.488,0.054171,0.27162,0.058154,-0.00633
0.0057808,0.016053,0.036201,0.039949,-0.09954,0.49634,-0.17891,0.70441,-0.16341,-0.63537,0.077368,0.35166,0.38348,0.067322,0.049872,0.1491,0.067561,0.084135,0.70803,-0.98157,0.065972,0.2923,0.052507,-0.00061267
0.0041348,0.019748,0.036697,0.03097,-0.047338,0.53563,-0.17893,0.93057,-0.12912,-0.62895,0.065072,0.32142,0.3523,-0.029539,0.023471,0.1538,0.066588,0.080556,0.66916,-0.46255,0.073254,0.30241,0.049013,0.0029884
0.0026653,0.028355,0.033156,0.022716,1.2547e-005,0.55992,-0.18887,1.1727,-0.086225,-0.55673,0.052176,0.2886,0.31186,-0.099251,0.0090062,0.15215,0.040422,0.046343,0.54032,-0.033051,0.077284,0.31055,0.053249,0.01326
0.0019351,0.035594,0.028283,0.017531,0.03063,0.56744,-0.2164,1.4097,-0.037558,-0.44312,0.045678,0.23622,0.2686,-0.1126,0.011275,0.16063,0.00055623,-0.0026516,0.38673,0.25916,0.080048,0.32052,0.068789,0.032542
0.0020113,0.035416,0.026157,0.015899,0.049421,0.57463,-0.25987,1.6237,0.0097092,-0.31842,0.052281,0.14072,0.22674,-0.07697,0.02601,0.18358,-0.032974,-0.041823,0.27457,0.4521,0.082234,0.3312,0.094674,0.054653
0.0022655,0.027299,0.029264,0.016599,0.075252,0.60423,-0.30823,1.7988,0.046396,-0.20268,0.073059,-0.011016,0.18531,-0.017786,0.044444,0.2095,-0.043751,-0.052965,0.23487,0.63528,0.08232,0.33969,0.12464,0.070935
0.0022061,0.017048,0.036321,0.017599,0.12822,0.66791,-0.34815,1.9182,0.066017,-0.10219,0.10231,-0.21052,0.14004,0.045824,0.05943,0.22285,-0.027846,-0.033712,0.25325,0.87067,0.077808,0.34265,0.14859,0.078193
0.0025193,0.012101,0.042738,0.017033,0.21526,0.75682,-0.37326,1.9626,0.068842,-0.019327,0.13167,-0.42933,0.087726,0.10984,0.068575,0.2167,0.0059932,0.0037717,0.2877,1.1322,0.067925,0.33455,0.15627,0.081389
0.0049074,0.015355,0.043657,0.01391,0.32381,0.84628,-0.389,1.9141,0.062054,0.036423,0.15584,-0.63048,0.028917,0.17512,0.072903,0.19295,0.043396,0.042184,0.2985,1.3164,0.055695,0.30626,0.14189,0.089491
0.010415,0.02293,0.037457,0.0083857,0.4278,0.90989,-0.40976,1.7656,0.05534,0.049116,0.17498,-0.78064,-0.033027,0.23284,0.07334,0.15224,0.072616,0.069329,0.27018,1.3197,0.047386,0.24834,0.10745,0.10898
0.017695,0.027781,0.027037,0.0015756,0.50184,0.93203,-0.45001,1.5294,0.05469,0.0096149,0.1921,-0.85668,-0.095217,0.2625,0.068709,0.087794,0.088699,0.082921,0.21404,1.1181,0.049237,0.15873,0.062638,0.14061
0.023145,0.025766,0.017831,-0.0050922,0.53355,0.91058,-0.51455,1.2375,0.058902,-0.071245,0.20812,-0.84792,-0.15774,0.2453,0.056911,-0.0066746,0.092674,0.088489,0.15449,0.78593,0.06348,0.048627,0.020866,0.18104
0.023288,0.018733,0.014077,-0.010691,0.52621,0.85073,-0.59317,0.93196,0.061472,-0.16416,0.2193,-0.75827,-0.22329,0.18027,0.037726,-0.1214,0.08858,0.093598,0.11195,0.43934,0.086423,-0.059646,-0.0063979,0.22608
0.017582,0.012194,0.016324,-0.015294,0.4918,0.75741,-0.66237,0.64917,0.056453,-0.23943,0.21927,-0.60894,-0.2942,0.088148,0.014161,-0.2243,0.081274,0.10311,0.094875,0.15697,0.11001,-0.14319,-0.014065,0.27218
0.0091941,0.010155,0.021968,-0.019757,0.44183,0.63345,-0.69343,0.40875,0.043723,-0.28762,0.2041,-0.43606,-0.36892,-0.00076824,-0.0091864,-0.27452,0.075589,0.11804,0.104,-0.055869,0.126,-0.19057,-0.0044179,0.3152
0.0028953,0.011965,0.027955,-0.02492,0.38366,0.48384,-0.66366,0.21416,0.029471,-0.32489,0.17612,-0.27821,-0.44041,-0.064788,-0.029279,-0.24781,0.075387,0.13718,0.14143,-0.23791,0.13004,-0.2066,0.0152,0.34933
0.0017043,0.01363,0.032982,-0.030831,0.32356,0.3203,-0.56627,0.063303,0.021552,-0.37729,0.14344,-0.15776,-0.49786,-0.10179,-0.046316,-0.15376,0.081688,0.15862,0.21347,-0.4152,0.12338,-0.20667,0.036087,0.36857
0.0049207,0.011801,0.037337,-0.036665,0.27097,0.16048,-0.41443,-0.04033,0.023498,-0.45626,0.11561,-0.068317,-0.53144,-0.12683,-0.062321,-0.030811,0.091085,0.17964,0.32289,-0.57438,0.11104,-0.20566,0.051081,0.36991
0.0089361,0.006535,0.041111,-0.041434,0.23795,0.021383,-0.23719,-0.085941,0.032077,-0.54519,0.098321,0.020433,-0.53785,-0.16049,-0.077909,0.076514,0.096681,0.19603,0.4575,-0.68694,0.097904,-0.21032,0.055563,0.35513
0.0099519,0.00075454,0.04314,-0.04489,0.23361,-0.087322,-0.068365,-0.065287,0.040248,-0.60732,0.09076,0.14161,-0.52298,-0.21675,-0.090156,0.14035,0.092018,0.20271,0.58735,-0.75192,0.085164,-0.2198,0.04697,0.32873
0.0064656,-0.0024283,0.042102,-0.047819,0.25877,-0.16474,0.066406,0.013543,0.042859,-0.60784,0.086969,0.30833,-0.49921,-0.29609,-0.093473,0.15715,0.075528,0.1966,0.67676,-0.80729,0.069347,-0.232,0.024042,0.29368
-4.6512e-005,-0.0018568,0.03856,-0.051407,0.30594,-0.21461,0.15771,0.12033,0.040214,-0.5319,0.080088,0.50586,-0.47828,-0.38494,-0.082845,0.14005,0.051762,0.17905,0.70375,-0.8946,0.044664,-0.2486,-0.013198,0.24907
-0.0063034,0.0015124,0.035436,-0.056201,0.36446,-0.24045,0.21135,0.21152,0.036666,-0.38624,0.066733,0.70329,-0.4648,-0.46025,-0.057045,0.10704,0.027845,0.155,0.67118,-1.0113,0.0070894,-0.27471,-0.062742,0.19251
-0.0092103,0.0057993,0.035812,-0.061607,0.42562,-0.24487,0.23996,0.24935,0.035848,-0.18722,0.048787,0.87416,-0.45547,-0.49779,-0.019716,0.074898,0.0076923,0.12848,0.60008,-1.1005,-0.042534,-0.31441,-0.12009,0.12575
-0.0075287,0.0093325,0.039913,-0.066441,0.48431,-0.23228,0.25372,0.21905,0.037112,0.050454,0.031461,1.0091,-0.44503,-0.48255,0.022073,0.058413,-0.011105,0.098177,0.51071,-1.0924,-0.098399,-0.36716,-0.1789,0.058414
-0.0025245,0.011107,0.044342,-0.070078,0.53814,-0.2105,0.25656,0.13261,0.036525,0.31333,0.018873,1.1123,-0.43399,-0.41721,0.0607,0.068186,-0.034557,0.057736,0.4082,-0.96187,-0.15256,-0.42809,-0.23288,0.0060535
0.0026663,0.010882,0.044742,-0.073088,0.58771,-0.18773,0.24935,0.017293,0.031461,0.57988,0.010309,1.1885,-0.43095,-0.32341,0.090687,0.10393,-0.065405,0.0020255,0.2849,-0.74773,-0.19845,-0.49064,-0.27769,-0.016646
0.0047785,0.0092233,0.039693,-0.076669,0.63879,-0.1673,0.23513,-0.10244,0.024343,0.81541,0.00023862,1.2325,-0.44676,-0.23312,0.11,0.14908,-0.097702,-0.065322,0.13582,-0.51669,-0.23267,-0.54819,-0.31164,-0.0025679
0.002473,0.007265,0.032228,-0.081274,0.70251,-0.14583,0.22066,-0.21709,0.021657,0.98171,-0.01752,1.2305,-0.48462,-0.17374,0.11956,0.17534,-0.11794,-0.12976,-0.029012,-0.30398,-0.25416,-0.59338,-0.33461,0.045643
-0.0025881,0.0059652,0.027417,-0.085686,0.78929,-0.1176,0.21236,-0.33104,0.02864,1.0572,-0.044664,1.1694,-0.53457,-0.15562,0.12135,0.15816,-0.11288,-0.17218,-0.18747,-0.087174,-0.26238,-0.61713,-0.34635,0.1182
-0.0066389,0.0053069,0.028153,-0.087478,0.89859,-0.081082,0.21109,-0.45132,0.044148,1.0518,-0.076885,1.0454,-0.57725,-0.1696,0.11658,0.093276,-0.078783,-0.17992,-0.32087,0.18173,-0.25656,-0.60966,-0.34571,0.20224
-0.0063659,0.0043248,0.032968,-0.084646,1.0129,-0.041235,0.21159,-0.57612,0.060398,1.0016,-0.10789,0.8673,-0.59467,-0.19513,0.10521,0.001221,-0.025156,-0.15451,-0.42632,0.51466,-0.23695,-0.56388,-0.33133,0.28424
-0.0013884,0.0022039,0.037774,-0.077209,1.1037,-0.00515,0.20815,-0.6922,0.068185,0.94625,-0.13594,0.65328,-0.58019,-0.21264,0.087208,-0.084647,0.030061,-0.11037,-0.51393,0.85287,-0.20666,-0.47861,-0.30323,0.35099
0.0052879,-0.00049599,0.039712,-0.0676,1.1472,0.023942,0.20195,-0.78287,0.063481,0.90423,-0.16711,0.4278,-0.54111,-0.21163,0.06459,-0.13801,0.070537,-0.065675,-0.59153,1.0934,-0.17182,-0.35995,-0.26365,0.39148
0.0093446,-0.0018188,0.039416,-0.059563,1.139,0.047581,0.20338,-0.84016,0.050086,0.86487,-0.21166,0.21817,-0.49294,-0.1915,0.04194,-0.15308,0.089938,-0.031874,-0.65233,1.1579,-0.13896,-0.22084,-0.21671,0.40045
0.0082349,0.00012482,0.039689,-0.056213,1.095,0.066996,0.22658,-0.87196,0.03633,0.80248,-0.27586,0.049593,-0.44997,-0.15807,0.02455,-0.14337,0.093325,-0.0090597,-0.67809,1.0502,-0.11132,-0.079676,-0.16735,0.38088
0.0029192,0.0054772,0.042127,-0.058365,1.0375,0.078464,0.28006,-0.89849,0.028738,0.70008,-0.35552,-0.061962,-0.41831,-0.12109,0.015183,-0.12935,0.091656,0.01082,-0.65541,0.85956,-0.086914,0.042081,-0.12061,0.34192
-0.002993,0.012383,0.045152,-0.064055,0.97782,0.075945,0.35989,-0.93933,0.027721,0.56427,-0.43656,-0.1143,-0.39466,-0.0934,0.012081,-0.12565,0.094084,0.03623,-0.59044,0.70925,-0.060291,0.12485,-0.081114,0.29225
-0.0058485,0.018485,0.04541,-0.069612,0.9094,0.059979,0.45003,-0.9988,0.028299,0.42144,-0.50203,-0.11523,-0.37036,-0.087988,0.010116,-0.13586,0.10325,0.069461,-0.50852,0.69145,-0.026983,0.15824,-0.051904,0.234
-0.0042158,0.022703,0.041141,-0.071825,0.81773,0.04376,0.5289,-1.059,0.024563,0.30069,-0.54031,-0.071371,-0.33745,-0.10946,0.0044352,-0.15518,0.11549,0.10504,-0.43896,0.82989,0.012884,0.14674,-0.032474,0.16303
0.0007028,0.025523,0.034211,-0.069904,0.69671,0.047912,0.57829,-1.0866,0.013995,0.21831,-0.54929,0.020631,-0.29328,-0.14377,-0.006208,-0.17525,0.1242,0.1333,-0.39777,1.0859,0.054712,0.10841,-0.017083,0.076185
0.0063516,0.027566,0.02878,-0.065807,0.55737,0.085505,0.59021,-1.0512,-0.0012403,0.17482,-0.535,0.16905,-0.24156,-0.15627,-0.01906,-0.1871,0.12351,0.1464,-0.382,1.391,0.093169,0.065194,0.0042632,-0.020403
0.010449,0.028081,0.027758,-0.062494,0.42151,0.14909,0.5689,-0.94601,-0.015928,0.16369,-0.50757,0.36846,-0.1896,-0.10569,-0.030071,-0.18242,0.11075,0.14312,-0.37834,1.6786,0.12623,0.030507,0.041261,-0.1097
0.011819,0.025213,0.030192,-0.061354,0.30652,0.21183,0.52731,-0.79667,-0.024181,0.18133,-0.47765,0.5827,-0.14349,0.02992,-0.037225,-0.15589,0.087488,0.12971,-0.37692,1.9008,0.15593,0.0038336,0.097265,-0.17115
0.010337,0.018018,0.03186,-0.06091,0.21477,0.244,0.4795,-0.65124,-0.021026,0.22838,-0.45407,0.74811,-0.10429,0.23199,-0.041678,-0.10882,0.059484,0.11637,-0.37867,2.0301,0.18519,-0.022939,0.16592,-0.19176
0.0066027,0.0082333,0.02849,-0.058043,0.13592,0.233,0.43292,-0.55397,-0.0035563,0.3013,-0.44183,0.80168,-0.067514,0.44218,-0.045985,-0.051256,0.034949,0.11116,-0.39142,2.0579,0.21382,-0.052678,0.23347,-0.17235
0.0017726,-0.00024347,0.018955,-0.050798,0.058474,0.19172,0.38565,-0.51939,0.027274,0.38266,-0.43983,0.71661,-0.02645,0.58881,-0.05141,0.00092886,0.020914,0.11511,-0.4198,1.9905,0.23759,-0.075628,0.28569,-0.12515
-0.0026314,-0.0040784,0.0060341,-0.040359,-0.020299,0.14854,0.33068,-0.52439,0.064657,0.44003,-0.44025,0.51823,0.022864,0.62401,-0.05692,0.033111,0.0192,0.12156,-0.45755,1.8411,0.2513,-0.075362,0.31488,-0.065699
-0.0052573,-0.0030762,-0.0055284,-0.030477,-0.094056,0.12693,0.2643,-0.52494,0.09614,0.43693,-0.43168,0.26696,0.078292,0.54753,-0.060654,0.038895,0.024828,0.12051,-0.48777,1.6198,0.25309,-0.043761,0.32214,-0.0059212
-0.0056685,-0.00017561,-0.012023,-0.024845,-0.15484,0.13022,0.19139,-0.48658,0.10814,0.34989,-0.40544,0.020969,0.13223,0.4024,-0.062163,0.022546,0.028683,0.10501,-0.49092,1.3263,0.24577,0.0086856,0.31408,0.047514
-0.0046694,0.0012858,-0.012828,-0.024656,-0.20004,0.14239,0.12277,-0.40691,0.093567,0.18155,-0.36097,-0.19256,0.17599,0.24713,-0.063147,-0.0035473,0.023196,0.075468,-0.45613,0.95717,0.23397,0.057955,0.29705,0.090901
-0.0037443,0.00063988,-0.010569,-0.028246,-0.23258,0.14286,0.066728,-0.31435,0.05782,-0.037599,-0.30575,-0.37737,0.20523,0.12446,-0.066065,-0.02334,0.0070353,0.038949,-0.38996,0.52196,0.22002,0.084009,0.27366,0.12138
-0.0038982,0.00051048,-0.0096723,-0.032779,-0.25587,0.12235,0.022653,-0.24574,0.017843,-0.2592,-0.249,-0.54444,0.22295,0.046193,-0.072128,-0.020846,-0.01474,0.0042138,-0.31676,0.055087,0.20284,0.085844,0.24356,0.13726
-0.0048112,0.0043861,-0.014203,-0.03634,-0.27014,0.087419,-0.017124,-0.22107,-0.00653,-0.4338,-0.19387,-0.68931,0.23822,-0.0004357,-0.080475,0.016523,-0.035144,-0.023829,-0.26786,-0.3928,0.18101,0.080473,0.20656,0.13957
-0.0050585,0.013274,-0.025798,-0.038812,-0.27462,0.051378,-0.059045,-0.23466,-0.0039876,-0.52781,-0.13457,-0.79111,0.26095,-0.034751,-0.088779,0.093204,-0.050706,-0.046202,-0.26284,-0.7827,0.15693,0.086464,0.16477,0.13197
-0.0032687,0.024368,-0.042414,-0.041307,-0.27349,0.020912,-0.10187,-0.2662,0.021958,-0.53462,-0.061321,-0.83178,0.29577,-0.067755,-0.094018,0.20019,-0.063553,-0.067125,-0.29385,-1.1133,0.13757,0.10682,0.12188,0.11877
0.00072128,0.032849,-0.058547,-0.0451,-0.27878,-0.0093401,-0.13864,-0.29881,0.056414,-0.47529,0.030501,-0.81537,0.33831,-0.098836,-0.092601,0.31403,-0.078702,-0.088834,-0.32644,-1.4214,0.13022,0.12679,0.080657,0.10277
0.0056742,0.035207,-0.06729,-0.051037,-0.30553,-0.049795,-0.16515,-0.32739,0.083856,-0.38746,0.1346,-0.768,0.37592,-0.12201,-0.080735,0.40462,-0.099111,-0.10825,-0.32098,-1.7517,0.13689,0.12836,0.041668,0.085301
0.0098552,0.031303,-0.063688,-0.059609,-0.36171,-0.10342,-0.18636,-0.35186,0.098321,-0.30646,0.23607,-0.71864,0.39269,-0.13399,-0.056552,0.45017,-0.12272,-0.11856,-0.26278,-2.1192,0.15238,0.1081,0.0043701,0.068206
0.012228,0.023687,-0.047724,-0.071132,-0.44064,-0.15939,-0.21358,-0.36579,0.10577,-0.24868,0.31992,-0.67826,0.37631,-0.13782,-0.023475,0.45003,-0.14381,-0.11474,-0.17751,-2.4929,0.16828,0.081734,-0.030665,0.05534
0.012948,0.01519,-0.024897,-0.08556,-0.52276,-0.19874,-0.25486,-0.35424,0.11745,-0.20804,0.37917,-0.63565,0.32345,-0.14098,0.0084311,0.42503,-0.1572,-0.098666,-0.11641,-2.8145,0.17915,0.071677,-0.060849,0.051616
0.012846,0.0071418,-0.0035187,-0.10197,-0.58696,-0.20746,-0.30738,-0.30471,0.14002,-0.1683,0.41631,-0.57227,0.24102,-0.15068,0.026368,0.40323,-0.16161,-0.079101,-0.11861,-3.0315,0.18571,0.08899,-0.083013,0.060192
0.012527,-0.00030796,0.0099397,-0.11827,-0.62388,-0.18588,-0.35927,-0.2204,0.16997,-0.12192,0.43833,-0.48103,0.14283,-0.16957,0.023109,0.40041,-0.15917,-0.065796,-0.17986,-3.1168,0.19183,0.12588,-0.095755,0.080426
0.011944,-0.0065102,0.014433,-0.1316,-0.64189,-0.14772,-0.39914,-0.12155,0.1964,-0.079328,0.45023,-0.37213,0.043399,-0.19433,0.0038501,0.40986,-0.15199,-0.061992,-0.25434,-3.0614,0.19874,0.16429,-0.10034,0.10842
0.010767,-0.0093819,0.014264,-0.13947,-0.66114,-0.11078,-0.42429,-0.031121,0.20929,-0.059557,0.45246,-0.26165,-0.047363,-0.2177,-0.014849,0.40901,-0.13875,-0.061539,-0.29,-2.8567,0.20183,0.19137,-0.099319,0.13941
0.0090055,-0.0065417,0.015319,-0.14098,-0.69945,-0.087827,-0.44028,0.043599,0.2067,-0.069482,0.44307,-0.15505,-0.12572,-0.23327,-0.014857,0.37734,-0.11469,-0.053328,-0.26797,-2.4937,0.19354,0.20732,-0.094546,0.16951
0.0071803,0.0023268,0.020432,-0.13722,-0.75992,-0.084083,-0.45337,0.11718,0.19588,-0.090294,0.42113,-0.042273,-0.1915,-0.2406,0.011595,0.31107,-0.075303,-0.02958,-0.21197,-1.9875,0.16965,0.21971,-0.086647,0.19542
0.0058883,0.0142,0.027479,-0.13031,-0.82864,-0.10069,-0.4641,0.21337,0.18796,-0.085607,0.38802,0.089779,-0.244,-0.24704,0.056911,0.22385,-0.02072,0.0088455,-0.16058,-1.406,0.13339,0.23195,-0.076573,0.21306
0.0052712,0.024111,0.031635,-0.12184,-0.88456,-0.13835,-0.4687,0.34324,0.19069,-0.027443,0.34618,0.23786,-0.2806,-0.26383,0.10374,0.13487,0.04241,0.054236,-0.12934,-0.86784,0.093414,0.2381,-0.067271,0.21754
0.0049785,0.028404,0.029799,-0.11162,-0.9145,-0.19679,-0.46637,0.4916,0.2042,0.079912,0.29805,0.37427,-0.29959,-0.29771,0.13632,0.055995,0.10313,0.098619,-0.099443,-0.49907,0.057431,0.22908,-0.06331,0.20541
0.0046295,0.027173,0.023407,-0.098168,-0.92278,-0.27127,-0.46375,0.62226,0.22193,0.19802,0.24673,0.46037,-0.30506,-0.34376,0.14861,-0.011092,0.15085,0.13881,-0.04341,-0.37403,0.026922,0.20306,-0.068327,0.17754
0.0042258,0.023699,0.017304,-0.080285,-0.92852,-0.35066,-0.47032,0.69771,0.23533,0.27699,0.19706,0.47401,-0.30865,-0.38552,0.14405,-0.06738,0.17953,0.17571,0.038306,-0.48088,-0.0026999,0.16856,-0.082602,0.13996
0.004048,0.021286,0.015746,-0.058621,-0.95207,-0.42037,-0.48749,0.6988,0.23904,0.28569,0.15439,0.43006,-0.32479,-0.40409,0.12949,-0.10795,0.18913,0.20971,0.10811,-0.73607,-0.037185,0.13667,-0.10306,0.10147
0.0041832,0.020294,0.019064,-0.035709,-0.99987,-0.46863,-0.50192,0.63216,0.23378,0.22748,0.12089,0.37584,-0.36131,-0.3905,0.11001,-0.12237,0.18428,0.23777,0.12184,-1.0332,-0.078404,0.11034,-0.12552,0.069666
0.0042705,0.018059,0.023754,-0.014481,-1.0583,-0.49145,-0.49097,0.52383,0.22578,0.13194,0.092748,0.36157,-0.41203,-0.35184,0.088585,-0.10499,0.17164,0.25549,0.072522,-1.2894,-0.1234,0.081953,-0.14668,0.048139
0.0038138,0.01181,0.025676,0.0034286,-1.1009,-0.49325,-0.43794,0.4065,0.22331,0.032504,0.062072,0.406,-0.45757,-0.30571,0.06853,-0.065816,0.1575,0.26189,0.0056375,-1.4609,-0.16775,0.042582,-0.16352,0.036447
0.0027511,0.0018808,0.023429,0.018134,-1.1041,-0.48328,-0.34519,0.30865,0.23203,-0.051202,0.023152,0.48308,-0.4752,-0.26635,0.054074,-0.031143,0.1464,0.26141,-0.010828,-1.5314,-0.20966,-0.0059163,-0.17112,0.032171
0.001607,-0.0078685,0.019082,0.030537,-1.0609,-0.4708,-0.23415,0.24875,0.25158,-0.11461,-0.02203,0.54075,-0.45184,-0.23347,0.047369,-0.030822,0.14046,0.26043,0.062429,-1.4962,-0.25127,-0.048272,-0.1622,0.033036
0.00094458,-0.012985,0.016018,0.041093,-0.98365,-0.46159,-0.13139,0.23348,0.27511,-0.15722,-0.064571,0.53816,-0.3913,-0.19296,0.045239,-0.080234,0.13913,0.26142,0.20711,-1.3602,-0.29631,-0.066501,-0.1307,0.037726
0.00059987,-0.012125,0.016037,0.049584,-0.89424,-0.45659,-0.051842,0.25777,0.2925,-0.17306,-0.095883,0.47347,-0.31107,-0.12914,0.040162,-0.1695,0.13946,0.26038,0.36405,-1.1503,-0.34651,-0.054965,-0.077528,0.045611
-0.00044895,-0.0081881,0.018179,0.055958,-0.80958,-0.45263,0.0080742,0.30714,0.29516,-0.1526,-0.11526,0.3815,-0.23108,-0.037933,0.025972,-0.26726,0.13707,0.2504,0.47935,-0.92071,-0.39955,-0.026023,-0.013323,0.0564
-0.0032246,-0.0059029,0.019854,0.061074,-0.73185,-0.4453,0.062909,0.36228,0.27955,-0.093878,-0.13072,0.30532,-0.1629,0.069927,0.0035146,-0.3363,0.12808,0.2281,0.54007,-0.73884,-0.44918,-0.00055059,0.045445,0.070256
-0.007523,-0.0081497,0.018921,0.066291,-0.64993,-0.43314,0.12378,0.40457,0.24725,-0.0112,-0.15175,0.26644,-0.10647,0.17784,-0.019172,-0.35086,0.11117,0.1973,0.57257,-0.65581,-0.4871,0.0088063,0.08525,0.087772
-0.011482,-0.014374,0.01492,0.072183,-0.54952,-0.42118,0.18939,0.4201,0.20234,0.068182,-0.18051,0.25782,-0.056018,0.27489,-0.032877,-0.30658,0.088605,0.16668,0.61028,-0.67908,-0.50538,0.0070836,0.10268,0.10901
-0.012636,-0.022262,0.008775,0.077728,-0.42459,-0.42042,0.24898,0.40122,0.1485,0.11848,-0.20945,0.26223,-0.009346,0.35849,-0.03429,-0.2198,0.06517,0.14365,0.66223,-0.76573,-0.49924,0.010819,0.10421,0.13176
-0.0098873,-0.03066,0.0016839,0.08104,-0.28236,-0.44198,0.29304,0.34738,0.088585,0.13016,-0.22796,0.2757,0.027264,0.42559,-0.027808,-0.11945,0.045625,0.1296,0.70787,-0.84184,-0.46955,0.031504,0.098915,0.15065
-0.004851,-0.040634,-0.0056748,0.081154,-0.14002,-0.48911,0.32148,0.26744,0.026313,0.11406,-0.2318,0.31141,0.04227,0.46252,-0.020472,-0.036399,0.032154,0.1201,0.7179,-0.8385,-0.4235,0.062778,0.09054,0.15867
-0.0012026,-0.053615,-0.013082,0.07921,-0.016714,-0.55332,0.34219,0.18157,-0.032182,0.092266,-0.22635,0.37916,0.027395,0.44634,-0.014772,0.00628,0.023755,0.10908,0.67933,-0.7268,-0.37161,0.082206,0.076138,0.15124
-0.0021342,-0.068655,-0.020202,0.077847,0.073796,-0.61868,0.3621,0.11854,-0.079311,0.083674,-0.22015,0.45975,-0.015448,0.36057,-0.0060718,0.00039647,0.017941,0.093382,0.60373,-0.53349,-0.32197,0.066286,0.052226,0.13044
-0.0076788,-0.081809,-0.026203,0.079235,0.1265,-0.67209,0.37963,0.10535,-0.10951,0.094942,-0.21469,0.50111,-0.073991,0.21366,0.01285,-0.044524,0.013194,0.074344,0.51557,-0.32675,-0.27547,0.0069317,0.022455,0.10581
-0.014116,-0.088607,-0.030018,0.083472,0.14426,-0.71165,0.38566,0.15272,-0.12281,0.1217,-0.20026,0.44493,-0.13177,0.043337,0.044342,-0.10447,0.0098956,0.056183,0.43493,-0.17676,-0.22651,-0.082727,-0.0010584,0.090237
-0.016295,-0.0875,-0.03109,0.088666,0.13437,-0.74664,0.37202,0.24552,-0.12561,0.15594,-0.16309,0.26513,-0.17555,-0.099873,0.082561,-0.15003,0.008855,0.04292,0.36986,-0.11272,-0.16949,-0.17637,-0.0050412,0.092524
-0.011377,-0.081131,-0.030004,0.09251,0.1041,-0.78903,0.33945,0.34633,-0.12802,0.19167,-0.098542,-0.01254,-0.19911,-0.17935,0.11763,-0.15777,0.0089027,0.035932,0.3213,-0.10455,-0.10626,-0.24929,0.014692,0.11154
-0.0011403,-0.074183,-0.028429,0.093888,0.057607,-0.84341,0.2971,0.41208,-0.13929,0.22463,-0.018975,-0.32637,-0.20199,-0.19024,0.14356,-0.11852,0.006116,0.03303,0.29129,-0.085229,-0.047343,-0.2895,0.048961,0.13615
0.0091215,-0.069669,-0.028272,0.093262,-0.003773,-0.90306,0.25379,0.41477,-0.16419,0.24911,0.051283,-0.61783,-0.18628,-0.15637,0.16243,-0.039391,-0.0042066,0.028984,0.28402,-0.00057829,-0.0048291,-0.29953,0.081144,0.15146
0.014425,-0.066851,-0.030543,0.091803,-0.076945,-0.9539,0.2092,0.35387,-0.20201,0.25753,0.09099,-0.86355,-0.15439,-0.11076,0.18041,0.059663,-0.024408,0.01717,0.29904,0.14987,0.017518,-0.29076,0.098924,0.14742
0.013708,-0.062401,-0.034727,0.090227,-0.15098,-0.98197,0.15379,0.25345,-0.24821,0.24472,0.09567,-1.077,-0.10894,-0.075829,0.19888,0.15145,-0.053046,-0.0079139,0.32455,0.31365,0.028164,-0.27608,0.10246,0.12414
0.01038,-0.053578,-0.03919,0.088305,-0.20526,-0.97857,0.078645,0.14687,-0.29724,0.21249,0.07944,-1.282,-0.05299,-0.056662,0.20892,0.20787,-0.086416,-0.047966,0.33943,0.42864,0.041458,-0.26528,0.10251,0.090496
0.0094301,-0.040554,-0.042377,0.085244,-0.21592,-0.9409,-0.012745,0.058718,-0.34503,0.16899,0.064,-1.4821,0.010536,-0.048012,0.19491,0.20747,-0.12119,-0.099249,0.3242,0.47431,0.066083,-0.26351,0.1105,0.057242
0.013494,-0.026046,-0.04398,0.08053,-0.16861,-0.87092,-0.10147,-0.0057997,-0.38981,0.12248,0.063715,-1.65,0.079956,-0.04512,0.14529,0.14431,-0.15497,-0.1531,0.273,0.48936,0.098351,-0.27132,0.12903,0.029667
0.021013,-0.012922,-0.045181,0.074627,-0.068836,-0.77537,-0.16238,-0.059302,-0.43098,0.075509,0.077988,-1.7444,0.15442,-0.048616,0.061646,0.03417,-0.18383,-0.19861,0.1979,0.54252,0.12625,-0.28514,0.15059,0.0046868
0.027756,-0.0021123,-0.047733,0.069143,0.058424,-0.66666,-0.17887,-0.12097,-0.46722,0.026009,0.095434,-1.7364,0.23167,-0.061927,-0.041166,-0.087735,-0.19951,-0.22611,0.12276,0.68237,0.1404,-0.2986,0.16503,-0.025882
0.030164,0.007388,-0.052499,0.066224,0.1811,-0.5611,-0.15184,-0.20244,-0.49574,-0.02469,0.10492,-1.6274,0.30583,-0.086726,-0.14362,-0.18008,-0.19056,-0.22983,0.071565,0.90663,0.14193,-0.30489,0.16893,-0.068483
0.027689,0.016811,-0.058534,0.067286,0.276,-0.47309,-0.096434,-0.29854,-0.51402,-0.064658,0.10421,-1.446,0.36814,-0.12167,-0.23114,-0.21407,-0.14871,-0.20868,0.058421,1.1695,0.1404,-0.29894,0.16872,-0.12225
0.022486,0.026176,-0.063506,0.07165,0.33744,-0.40804,-0.030134,-0.38745,-0.52287,-0.073316,0.10039,-1.2321,0.41082,-0.16406,-0.29687,-0.18668,-0.076493,-0.16562,0.08407,1.4111,0.14447,-0.2784,0.17525,-0.17854
0.017255,0.03471,-0.065317,0.076114,0.37358,-0.35983,0.037882,-0.44029,-0.5273,-0.033653,0.10358,-1.023,0.43138,-0.21044,-0.33712,-0.12051,0.010347,-0.10645,0.1387,1.5781,0.15425,-0.24323,0.19474,-0.2257
0.013417,0.042669,-0.063813,0.076213,0.3956,-0.31574,0.10831,-0.43499,-0.53255,0.053497,0.12,-0.84866,0.43355,-0.25398,-0.34633,-0.051548,0.089014,-0.038792,0.20786,1.6253,0.16228,-0.19553,0.22354,-0.25582
0.011083,0.052453,-0.061225,0.068791,0.40921,-0.26561,0.18482,-0.36714,-0.53694,0.16438,0.14927,-0.73493,0.42378,-0.28196,-0.31871,-0.013523,0.14114,0.028742,0.2776,1.5109,0.16133,-0.14062,0.25037,-0.26844
0.010246,0.067356,-0.060764,0.054185,0.41415,-0.20816,0.26591,-0.25203,-0.52828,0.26181,0.18635,-0.70188,0.40629,-0.27873,-0.25601,-0.027277,0.1616,0.087618,0.3368,1.2077,0.1511,-0.087622,0.26311,-0.26878
0.011492,0.088594,-0.064225,0.03625,0.40913,-0.14984,0.34314,-0.11766,-0.4894,0.31418,0.22505,-0.75474,0.38121,-0.23529,-0.17306,-0.097182,0.15852,0.13086,0.37675,0.72711,0.13773,-0.04739,0.25457,-0.26184
0.015291,0.11325,-0.070342,0.019877,0.39525,-0.09795,0.40677,0.0060152,-0.41147,0.31234,0.26017,-0.87273,0.34747,-0.16011,-0.093221,-0.21141,0.14511,0.15473,0.39076,0.13016,0.12729,-0.026907,0.22371,-0.24766
0.020736,0.1354,-0.075327,0.0077482,0.37407,-0.054198,0.45378,0.095222,-0.3053,0.27344,0.28797,-1.0083,0.30771,-0.082092,-0.035213,-0.34366,0.13033,0.15992,0.37646,-0.49365,0.12,-0.023765,0.17353,-0.22253
0.025468,0.14992,-0.07534,-0.0011301,0.34302,-0.013805,0.4911,0.135,-0.19946,0.22912,0.30601,-1.1027,0.27034,-0.040319,-0.0023133,-0.45799,0.11534,0.15149,0.34109,-1.0705,0.11062,-0.025797,0.10887,-0.18642
0.027375,0.15602,-0.069161,-0.0099505,0.29419,0.030026,0.53105,0.11872,-0.12359,0.20503,0.3129,-1.1114,0.24628,-0.064234,0.015872,-0.51956,0.097338,0.13731,0.30575,-1.5712,0.093903,-0.017896,0.035651,-0.15064
0.026627,0.15741,-0.059058,-0.020973,0.21896,0.080807,0.58202,0.048582,-0.088156,0.20384,0.30732,-1.0219,0.2427,-0.15542,0.030147,-0.50898,0.076001,0.12529,0.30241,-1.9978,0.069739,0.0079736,-0.039503,-0.13743
0.025829,0.15897,-0.049279,-0.033413,0.1151,0.13678,0.64083,-0.062192,-0.077003,0.20235,0.28639,-0.85257,0.25879,-0.28286,0.039641,-0.43267,0.056273,0.12055,0.36119,-2.3399,0.043417,0.047126,-0.11056,-0.16846
0.027665,0.16286,-0.043359,-0.044085,-0.0095778,0.19281,0.69254,-0.18901,-0.060107,0.16487,0.24464,-0.63265,0.28676,-0.39603,0.033282,-0.32103,0.045314,0.12401,0.49243,-2.5437,0.021762,0.085654,-0.17366,-0.24852
0.031947,0.16712,-0.042202,-0.050101,-0.13957,0.24372,0.71778,-0.30153,-0.017267,0.065456,0.17608,-0.38071,0.31658,-0.44932,0.0041189,-0.21442,0.047002,0.13289,0.67437,-2.531,0.009247,0.1105,-0.22682,-0.35703
0.03501,0.16757,-0.044067,-0.051271,-0.25725,0.28645,0.70332,-0.37457,0.046307,-0.094257,0.079395,-0.098774,0.34065,-0.42431,-0.037757,-0.14509,0.059125,0.14258,0.85601,-2.2557,0.0071642,0.11793,-0.26741,-0.45639
0.032493,0.16081,-0.046078,-0.050267,-0.34712,0.32082,0.6492,-0.39797,0.10533,-0.28221,-0.036802,0.21277,0.35559,-0.33751,-0.068046,-0.12575,0.075339,0.14866,0.97616,-1.7513,0.01509,0.11367,-0.28992,-0.51368
0.023305,0.14582,-0.045965,-0.050643,-0.39757,0.34933,0.56843,-0.37923,0.13592,-0.44962,-0.15333,0.53295,0.36182,-0.23013,-0.066419,-0.14954,0.08939,0.1479,0.98968,-1.1245,0.031809,0.10514,-0.28717,-0.52061
0.011124,0.12343,-0.042989,-0.054425,-0.40213,0.37623,0.4799,-0.33726,0.13488,-0.55275,-0.24652,0.81194,0.36304,-0.14657,-0.034023,-0.19782,0.097537,0.13796,0.88667,-0.49734,0.054405,0.093319,-0.25513,-0.49626
0.0017807,0.095289,-0.037876,-0.061034,-0.36262,0.40518,0.39937,-0.29277,0.12063,-0.57022,-0.29796,0.9882,0.36601,-0.11356,0.0065387,-0.24851,0.097617,0.11655,0.69405,0.056117,0.077181,0.071782,-0.19742,-0.47022
-0.0013448,0.063734,-0.03216,-0.067985,-0.29194,0.43583,0.334,-0.2615,0.11609,-0.50774,-0.30169,1.0214,0.37895,-0.13002,0.029774,-0.2805,0.086855,0.081115,0.45888,0.53063,0.092912,0.033764,-0.12528,-0.45955
0.00017888,0.032327,-0.02736,-0.072568,-0.21207,0.46161,0.28313,-0.25284,0.12913,-0.39074,-0.26428,0.91674,0.40722,-0.17064,0.027871,-0.2751,0.061621,0.029748,0.22283,0.95712,0.096473,-0.019346,-0.052355,-0.45823
0.0016828,0.0055782,-0.024188,-0.073363,-0.1454,0.47151,0.24331,-0.27143,0.1474,-0.25188,-0.19825,0.72045,0.44864,-0.1998,0.014624,-0.21807,0.020041,-0.036989,0.0024146,1.3511,0.088107,-0.075948,0.011404,-0.44673
-0.00018249,-0.012927,-0.022062,-0.07086,-0.10427,0.45581,0.2133,-0.31791,0.15096,-0.12047,-0.11455,0.4887,0.49259,-0.18893,0.0098225,-0.10407,-0.034829,-0.11428,-0.21376,1.6863,0.073334,-0.12059,0.062227,-0.41172
-0.0045394,-0.022725,-0.019333,-0.067081,-0.08664,0.41224,0.19524,-0.38852,0.13034,-0.016451,-0.019469,0.25376,0.5253,-0.12986,0.019715,0.057782,-0.094416,-0.19292,-0.44959,1.9107,0.059394,-0.14321,0.10034,-0.35757
-0.0073967,-0.026912,-0.014422,-0.064457,-0.081861,0.34816,0.19176,-0.47552,0.094251,0.051938,0.082567,0.014281,0.53821,-0.038623,0.032381,0.24116,-0.14774,-0.26173,-0.71862,1.986,0.051042,-0.14345,0.12642,-0.30012
-0.005471,-0.030188,-0.0072468,-0.064459,-0.081342,0.27736,0.20212,-0.56961,0.06123,0.088073,0.18402,-0.2432,0.53294,0.05272,0.031847,0.40569,-0.1863,-0.31209,-1.0097,1.9188,0.048807,-0.12728,0.14048,-0.25029
0.00091608,-0.036183,0.00025256,-0.066699,-0.084455,0.21453,0.2211,-0.66276,0.044063,0.10355,0.27249,-0.51078,0.51872,0.11307,0.01636,0.50757,-0.20756,-0.34215,-1.291,1.7668,0.050292,-0.10048,0.14341,-0.20475
0.0082537,-0.046402,0.0053286,-0.069135,-0.09455,0.1712,0.24198,-0.7486,0.040918,0.11107,0.33436,-0.7432,0.50447,0.12927,0.0023687,0.51566,-0.21507,-0.35787,-1.5294,1.6223,0.052527,-0.065929,0.13883,-0.15313
0.012698,-0.061261,0.0067402,-0.069445,-0.10991,0.15441,0.26129,-0.82057,0.039648,0.11643,0.36116,-0.87489,0.49211,0.11251,0.0099295,0.42687,-0.21562,-0.36953,-1.7069,1.5843,0.053151,-0.027387,0.13223,-0.094003
0.012552,-0.081334,0.0062213,-0.066773,-0.11996,0.16575,0.28091,-0.87098,0.029573,0.11524,0.35374,-0.85838,0.47665,0.088977,0.043468,0.27215,-0.21544,-0.38537,-1.8234,1.7234,0.050173,0.0048441,0.12802,-0.042581
0.0085526,-0.10667,0.0074589,-0.062542,-0.11181,0.19945,0.30492,-0.89364,0.0095265,0.098016,0.32081,-0.69566,0.45242,0.080573,0.086374,0.10604,-0.21763,-0.40637,-1.8814,2.0448,0.041754,0.013665,0.12709,-0.020911
0.0025724,-0.13455,0.012977,-0.059547,-0.081482,0.24171,0.33307,-0.88847,-0.013963,0.060663,0.27331,-0.43959,0.42004,0.089175,0.11483,-0.018526,-0.22168,-0.42581,-1.8709,2.4678,0.027163,-0.016675,0.12705,-0.038774
-0.0034659,-0.15841,0.021456,-0.05985,-0.03832,0.27515,0.35629,-0.86323,-0.034709,0.012221,0.2188,-0.16465,0.38873,0.0959,0.11833,-0.077308,-0.22468,-0.43396,-1.7701,2.8456,0.0081814,-0.088998,0.12478,-0.083448
-0.0076646,-0.17043,0.028104,-0.06311,0.0029635,0.28845,0.35943,-0.82955,-0.052437,-0.027154,0.15987,0.072945,0.37311,0.075411,0.10852,-0.085788,-0.22318,-0.42435,-1.5634,3.0319,-0.010829,-0.18733,0.11884,-0.1285
-0.0080839,-0.16665,0.02825,-0.066788,0.035746,0.28459,0.3309,-0.796,-0.070913,-0.037127,0.096639,0.2607,0.38691,0.013648,0.10911,-0.084062,-0.21477,-0.39741,-1.2622,2.9613,-0.025012,-0.28237,0.10991,-0.15386
-0.0036097,-0.15053,0.021354,-0.068158,0.067524,0.27952,0.27241,-0.76439,-0.091531,-0.0089765,0.030743,0.42684,0.43718,-0.08442,0.13642,-0.10357,-0.19906,-0.35931,-0.90918,2.6868,-0.031852,-0.34547,0.099277,-0.15883
0.0045999,-0.13138,0.011907,-0.066408,0.11204,0.28997,0.20066,-0.73206,-0.10956,0.050256,-0.032676,0.613,0.52044,-0.20094,0.18743,-0.13888,-0.17818,-0.318,-0.56118,2.3426,-0.032365,-0.36194,0.087414,-0.15696
0.012746,-0.1183,0.0061599,-0.062973,0.17463,0.31901,0.13795,-0.69731,-0.11723,0.12328,-0.086068,0.84018,0.62174,-0.3173,0.24397,-0.14682,-0.15692,-0.28025,-0.26655,2.0535,-0.029594,-0.33508,0.074,-0.15893
0.016212,-0.11449,0.0072993,-0.059823,0.24504,0.35161,0.098136,-0.66156,-0.11077,0.19242,-0.12254,1.0893,0.71761,-0.42092,0.28672,-0.076541,-0.14197,-0.25139,-0.053867,1.8612,-0.025855,-0.27973,0.05917,-0.16052
0.012621,-0.11621,0.013149,-0.057375,0.30551,0.36478,0.07864,-0.62576,-0.094785,0.24673,-0.13894,1.3087,0.78375,-0.50278,0.30585,0.089383,-0.13971,-0.2362,0.063523,1.7222,-0.021255,-0.21105,0.044274,-0.14669
0.003663,-0.11702,0.018359,-0.054076,0.34711,0.34388,0.065073,-0.58543,-0.079405,0.28322,-0.1379,1.4462,0.80523,-0.55219,0.30013,0.31266,-0.15285,-0.23809,0.080012,1.568,-0.014647,-0.13707,0.030811,-0.1066
-0.0060487,-0.11305,0.019123,-0.048061,0.37899,0.29173,0.044586,-0.53075,-0.07258,0.30402,-0.12817,1.4841,0.78372,-0.55782,0.2688,0.51307,-0.17768,-0.25599,0.0013516,1.3688,-0.0056908,-0.058623,0.018007,-0.044382
-0.012363,-0.10506,0.016315,-0.039208,0.42135,0.22328,0.016587,-0.45358,-0.07421,0.31296,-0.12291,1.4541,0.73629,-0.51669,0.20661,0.6106,-0.20427,-0.28211,-0.14279,1.1401,0.0042778,0.025243,0.0011985,0.024606
-0.014513,-0.096084,0.014451,-0.02954,0.48787,0.15214,-0.0082531,-0.35564,-0.07709,0.3129,-0.13543,1.4194,0.68565,-0.44284,0.10792,0.56878,-0.22077,-0.30398,-0.29483,0.89395,0.013409,0.11208,-0.026918,0.087329
-0.015201,-0.087758,0.017578,-0.021567,0.5731,0.081534,-0.019462,-0.24991,-0.073479,0.30381,-0.17331,1.4333,0.64787,-0.36583,-0.024243,0.41285,-0.21943,-0.31051,-0.38769,0.59484,0.021016,0.1947,-0.072171,0.14279
-0.017848,-0.078897,0.025709,-0.016245,0.65537,0.0068546,-0.018217,-0.15277,-0.061159,0.28208,-0.23399,1.5045,0.62612,-0.3169,-0.17371,0.21403,-0.20034,-0.29754,-0.37827,0.17674,0.027712,0.26354,-0.13442,0.19872
-0.023359,-0.067232,0.03465,-0.012518,0.71163,-0.074582,-0.018551,-0.072869,-0.043727,0.24266,-0.30523,1.5932,0.61366,-0.31179,-0.31667,0.051834,-0.1697,-0.26764,-0.27064,-0.38208,0.033806,0.31015,-0.20594,0.25946
-0.029054,-0.052014,0.039057,-0.0088473,0.73045,-0.15759,-0.037461,-0.0058549,-0.025603,0.18422,-0.37119,1.6423,0.60247,-0.34274,-0.43306,-0.023323,-0.13386,-0.22446,-0.10866,-0.99416,0.038032,0.32951,-0.27419,0.31762
-0.030593,-0.03458,0.036069,-0.0051241,0.71321,-0.23288,-0.083098,0.060886,-0.0073013,0.11357,-0.4203,1.6177,0.58943,-0.38502,-0.51414,-0.0092128,-0.093906,-0.16717,0.056716,-1.4788,0.038584,0.32104,-0.32731,0.35794
-0.025295,-0.016436,0.026843,-0.0030759,0.66572,-0.29622,-0.15155,0.13768,0.014134,0.044544,-0.44939,1.529,0.57554,-0.4127,-0.56042,0.054153,-0.045924,-0.091457,0.19816,-1.6646,0.035869,0.28905,-0.35881,0.36989
-0.014283,0.0028464,0.015338,-0.0047395,0.5914,-0.35294,-0.23434,0.22493,0.04021,-0.0096709,-0.46101,1.4153,0.56035,-0.41202,-0.57313,0.11048,0.012773,0.0027034,0.3157,-1.5068,0.033978,0.24222,-0.36868,0.35699
-0.0019424,0.025311,0.0057469,-0.010349,0.49375,-0.41293,-0.32846,0.31423,0.067236,-0.045281,-0.45672,1.3115,0.53792,-0.3847,-0.54833,0.11998,0.076691,0.10348,0.41391,-1.1242,0.03854,0.19156,-0.36098,0.33432
0.006731,0.051804,0.00049098,-0.017477,0.38447,-0.48022,-0.43852,0.39659,0.088499,-0.069878,-0.43267,1.223,0.49879,-0.34118,-0.47998,0.082243,0.13117,0.18806,0.4775,-0.72184,0.052117,0.14647,-0.34039,0.31655
0.0089077,0.079421,-0.00025985,-0.022197,0.28639,-0.54665,-0.56828,0.47126,0.10104,-0.095046,-0.38171,1.1284,0.4367,-0.29095,-0.36945,0.035208,0.15969,0.23369,0.47141,-0.45629,0.071198,0.11068,-0.31045,0.30677
0.0050806,0.10221,0.002161,-0.021464,0.22452,-0.59528,-0.70963,0.54848,0.11046,-0.12568,-0.30044,1.0036,0.35471,-0.23639,-0.23238,0.028414,0.15477,0.23182,0.36742,-0.34447,0.087918,0.081069,-0.27397,0.2954
-0.0017853,0.11525,0.0060072,-0.015093,0.21024,-0.61068,-0.84019,0.64428,0.12817,-0.15571,-0.19525,0.84443,0.26563,-0.17265,-0.095788,0.08546,0.12406,0.19434,0.17422,-0.28408,0.095486,0.051005,-0.23411,0.26876
-0.0081916,0.11887,0.0099021,-0.0059993,0.23119,-0.58814,-0.93376,0.77074,0.16257,-0.17424,-0.081822,0.66954,0.18642,-0.092239,0.013486,0.18143,0.086323,0.14686,-0.056373,-0.16095,0.092761,0.016991,-0.19424,0.21951
-0.011861,0.11911,0.013145,0.0015111,0.25651,-0.53582,-0.97608,0.92776,0.2112,-0.17617,0.021846,0.50494,0.12963,0.0088525,0.080838,0.2541,0.059986,0.1134,-0.25429,0.047157,0.084166,-0.015675,-0.15638,0.15041
-0.012534,0.12356,0.015647,0.0044385,0.25525,-0.46954,-0.97307,1.1015,0.26084,-0.16677,0.10416,0.36547,0.096883,0.12581,0.10817,0.24429,0.052417,0.10356,-0.36839,0.25159,0.075304,-0.032955,-0.12012,0.070238
-0.01171,0.13564,0.017633,0.0031281,0.21599,-0.40503,-0.945,1.2708,0.29552,-0.15557,0.16471,0.24811,0.077694,0.2428,0.10874,0.137,0.057741,0.11024,-0.38929,0.32633,0.068449,-0.019747,-0.083678,-0.01279
-0.011628,0.15228,0.019263,0.0012741,0.15511,-0.35266,-0.91115,1.4174,0.30606,-0.1457,0.21249,0.1373,0.054475,0.33615,0.097755,-0.027724,0.063845,0.11799,-0.3448,0.20785,0.061766,0.028138,-0.046916,-0.093757
-0.013917,0.16678,0.020407,0.0036759,0.10896,-0.31671,-0.8771,1.5334,0.29414,-0.12988,0.2593,0.013005,0.01167,0.38312,0.0853,-0.18281,0.062298,0.11434,-0.27676,-0.058237,0.052296,0.095425,-0.01377,-0.16847
-0.018492,0.17484,0.02075,0.01303,0.11528,-0.29833,-0.83394,1.6209,0.26901,-0.098317,0.31236,-0.14471,-0.055169,0.37311,0.075165,-0.27876,0.053453,0.096144,-0.21805,-0.35201,0.039366,0.14988,0.0086754,-0.22962
-0.023338,0.1784,0.020155,0.027838,0.19444,-0.29897,-0.7685,1.6829,0.24103,-0.051973,0.36992,-0.35143,-0.13554,0.31472,0.067825,-0.30939,0.043974,0.068511,-0.18153,-0.55806,0.02525,0.15735,0.014567,-0.2664
-0.025527,0.1842,0.018915,0.042945,0.33903,-0.32173,-0.67611,1.7141,0.21714,-0.0085269,0.42172,-0.60885,-0.20863,0.23347,0.063975,-0.30028,0.04057,0.039709,-0.15986,-0.62479,0.013169,0.10149,0.0041527,-0.26846
-0.023073,0.19771,0.017621,0.052491,0.51496,-0.36929,-0.56699,1.6973,0.20031,0.0062367,0.45393,-0.89321,-0.2552,0.1603,0.065959,-0.27416,0.045959,0.017289,-0.13009,-0.56973,0.0053067,-0.0048216,-0.014785,-0.23128
-0.016457,0.2173,0.016716,0.053426,0.67236,-0.43984,-0.46343,1.6116,0.19075,-0.023957,0.45609,-1.1548,-0.27003,0.11751,0.07678,-0.22686,0.059536,0.0071197,-0.061447,-0.44461,0.0028986,-0.12561,-0.030443,-0.15919
-0.0086361,0.2334,0.016195,0.047298,0.76211,-0.52433,-0.3908,1.4465,0.18656,-0.093082,0.42647,-1.3376,-0.26695,0.11048,0.097979,-0.13617,0.079927,0.013187,0.070241,-0.29767,0.0076109,-0.22256,-0.033122,-0.065099
-0.0033197,0.23353,0.015753,0.039188,0.7528,-0.60786,-0.36752,1.2123,0.1834,-0.17529,0.37282,-1.4104,-0.27227,0.12893,0.12793,0.0051204,0.10522,0.035603,0.26315,-0.15636,0.021672,-0.2762,-0.019601,0.031783
-0.0026155,0.20995,0.015229,0.034561,0.64239,-0.67528,-0.39742,0.94051,0.17512,-0.24091,0.30779,-1.3867,-0.30996,0.15487,0.16161,0.16451,0.13036,0.067531,0.4768,-0.0262,0.045648,-0.29297,0.0070183,0.10948
-0.0057897,0.1646,0.014841,0.0361,0.45884,-0.71733,-0.46666,0.67194,0.15654,-0.27391,0.24226,-1.3149,-0.38821,0.17061,0.19184,0.27942,0.14568,0.094927,0.64098,0.10867,0.075762,-0.29421,0.041067,0.14847
-0.010102,0.10781,0.014928,0.042533,0.24794,-0.73264,-0.54709,0.44101,0.12711,-0.27816,0.18113,-1.2423,-0.49578,0.16298,0.21133,0.29726,0.14082,0.10209,0.68797,0.28532,0.10393,-0.29765,0.078123,0.13847
-0.013062,0.052259,0.015425,0.050027,0.053162,-0.7241,-0.60666,0.26552,0.092347,-0.26946,0.12458,-1.1826,-0.61016,0.12467,0.214,0.21432,0.11262,0.081058,0.59027,0.55016,0.12158,-0.30655,0.11606,0.083935
-0.014298,0.0063758,0.015658,0.055027,-0.10184,-0.69283,-0.62356,0.14646,0.061188,-0.26058,0.073653,-1.111,-0.71108,0.056376,0.19534,0.081028,0.070293,0.038271,0.37642,0.92877,0.12467,-0.31359,0.15359,0.0036834
-0.01553,-0.028285,0.014746,0.056476,-0.21737,-0.63547,-0.59643,0.075374,0.040556,-0.25134,0.034823,-0.99333,-0.79017,-0.029845,0.15232,-0.031592,0.031725,-0.0078113,0.11196,1.3922,0.11611,-0.31311,0.1887,-0.07744
-0.018736,-0.054597,0.012307,0.055932,-0.3068,-0.54798,-0.54277,0.041679,0.030517,-0.23017,0.019036,-0.82158,-0.85135,-0.11,0.084481,-0.078473,0.011696,-0.037979,-0.14168,1.8483,0.10341,-0.3087,0.21894,-0.14092
-0.024074,-0.075215,0.0088028,0.055748,-0.37969,-0.43294,-0.48482,0.03458,0.023247,-0.18499,0.034736,-0.62622,-0.90365,-0.1553,-0.003359,-0.064724,0.010895,-0.04498,-0.35974,2.1753,0.093788,-0.30896,0.24274,-0.18285
-0.029342,-0.089847,0.0051601,0.056955,-0.43293,-0.30376,-0.43178,0.040278,0.006426,-0.11458,0.079949,-0.45357,-0.95321,-0.14634,-0.098732,-0.031664,0.015121,-0.037985,-0.55551,2.2818,0.090407,-0.31655,0.25965,-0.21221
-0.031447,-0.096445,0.0019775,0.058641,-0.45666,-0.18098,-0.37191,0.04004,-0.030772,-0.032184,0.13977,-0.32709,-1.0002,-0.086054,-0.18241,-0.019649,0.0063519,-0.034876,-0.75323,2.1561,0.092265,-0.32208,0.26839,-0.24047
-0.028754,-0.094658,-0.00090712,0.059252,-0.44912,-0.082805,-0.2816,0.01388,-0.091995,0.04065,0.19177,-0.22506,-1.0413,-0.001067,-0.23389,-0.039006,-0.02271,-0.047842,-0.95751,1.8681,0.096791,-0.30959,0.26488,-0.27072
-0.022477,-0.087936,-0.0040386,0.058498,-0.42579,-0.016904,-0.14614,-0.051069,-0.17063,0.085169,0.21565,-0.093824,-1.0746,0.071799,-0.23915,-0.070136,-0.062285,-0.073363,-1.1441,1.5218,0.1022,-0.26955,0.24313,-0.29432
-0.016036,-0.08209,-0.0075103,0.058005,-0.41336,0.020587,0.023504,-0.15373,-0.25064,0.094238,0.20078,0.11335,-1.1021,0.10594,-0.19621,-0.087752,-0.092422,-0.094389,-1.2765,1.1914,0.1077,-0.20782,0.19969,-0.29688
-0.012826,-0.081429,-0.010571,0.060021,-0.43231,0.039252,0.19162,-0.27996,-0.3115,0.074129,0.14745,0.40097,-1.1281,0.098012,-0.11513,-0.085316,-0.097377,-0.092993,-1.332,0.88643,0.11216,-0.14283,0.13851,-0.26779
-0.014014,-0.085859,-0.012227,0.065389,-0.4828,0.047859,0.31724,-0.4115,-0.33614,0.039546,0.063731,0.72418,-1.1556,0.064465,-0.013192,-0.078897,-0.075866,-0.063529,-1.3139,0.56827,0.11351,-0.093209,0.071716,-0.20608
-0.0179,-0.091461,-0.012401,0.072733,-0.54572,0.052631,0.37887,-0.53669,-0.31883,0.0056121,-0.037687,1.0115,-1.1824,0.025586,0.091047,-0.090072,-0.039682,-0.016207,-1.2427,0.20077,0.10996,-0.066141,0.014475,-0.11984
-0.021235,-0.093989,-0.012496,0.079715,-0.59756,0.060144,0.38662,-0.65466,-0.26879,-0.018913,-0.14046,1.1983,-1.2002,-0.0094014,0.18149,-0.12587,-0.0030926,0.031126,-1.1351,-0.20797,0.10188,-0.055065,-0.022643,-0.021969
-0.021493,-0.092249,-0.014637,0.085203,-0.62581,0.079794,0.37306,-0.77002,-0.20632,-0.034378,-0.22566,1.2496,-1.1971,-0.044194,0.2453,-0.17444,0.027429,0.065913,-0.99048,-0.60808,0.092305,-0.047315,-0.038314,0.073321
-0.018386,-0.088589,-0.020038,0.090122,-0.63195,0.12161,0.36986,-0.88224,-0.15271,-0.04803,-0.27656,1.1628,-1.1636,-0.084196,0.27252,-0.21878,0.055126,0.088291,-0.7955,-0.9516,0.084994,-0.034354,-0.038846,0.15229
-0.013575,-0.08635,-0.027891,0.095826,-0.62183,0.19062,0.38718,-0.97892,-0.11922,-0.068083,-0.28646,0.96056,-1.0984,-0.12346,0.25602,-0.25347,0.086383,0.10788,-0.54288,-1.2378,0.081514,-0.01665,-0.03235,0.20399
-0.0089404,-0.08672,-0.035808,0.10114,-0.59491,0.28305,0.41012,-1.0388,-0.10229,-0.097603,-0.26379,0.68137,-1.0114,-0.14199,0.19216,-0.2869,0.12257,0.13362,-0.24794,-1.5169,0.079859,-0.00092941,-0.023806,0.22453
-0.0049906,-0.087762,-0.041545,0.10071,-0.54402,0.388,0.41318,-1.0435,-0.087932,-0.13286,-0.22856,0.37521,-0.92016,-0.11609,0.081888,-0.32538,0.1575,0.16547,0.05057,-1.8449,0.075848,0.0061641,-0.014481,0.22063
-0.00080252,-0.086318,-0.04461,0.086762,-0.46607,0.49301,0.38079,-0.98995,-0.062175,-0.16839,-0.2008,0.096192,-0.84069,-0.033158,-0.067431,-0.35417,0.18194,0.19429,0.30711,-2.2243,0.066272,0.0023558,-0.0045945,0.20752
0.004527,-0.081009,-0.046485,0.053539,-0.37192,0.58868,0.31896,-0.89482,-0.020007,-0.20505,-0.18909,-0.11054,-0.77831,0.10069,-0.23972,-0.33531,0.19048,0.2093,0.49114,-2.584,0.051332,-0.010435,0.0046195,0.20035
0.010397,-0.073645,-0.049366,0.0016289,-0.28378,0.66944,0.2511,-0.78818,0.032951,-0.25309,-0.18824,-0.22372,-0.72475,0.26505,-0.40929,-0.22935,0.18488,0.20624,0.59792,-2.8185,0.03458,-0.02896,0.011693,0.20467
0.014759,-0.067826,-0.054482,-0.06106,-0.22033,0.73203,0.20298,-0.70009,0.08616,-0.32393,-0.18761,-0.25192,-0.66458,0.43723,-0.5447,-0.02739,0.17185,0.19014,0.64084,-2.8579,0.020624,-0.051113,0.016899,0.2147
0.015826,-0.065932,-0.061248,-0.12249,-0.1822,0.77501,0.18851,-0.64859,0.13194,-0.41478,-0.18257,-0.22442,-0.58638,0.60248,-0.6184,0.2311,0.15825,0.17103,0.63325,-2.7128,0.012352,-0.076621,0.021972,0.22184
0.013859,-0.06707,-0.067741,-0.17174,-0.15145,0.80014,0.20514,-0.63525,0.1693,-0.49893,-0.17883,-0.17205,-0.49074,0.75651,-0.61796,0.47104,0.14811,0.15727,0.57673,-2.4586,0.0095088,-0.1067,0.026648,0.22665
0.011237,-0.067791,-0.072011,-0.20278,-0.10601,0.8129,0.23936,-0.64879,0.20178,-0.53383,-0.18639,-0.11181,-0.38881,0.90055,-0.55116,0.6197,0.14314,0.15161,0.46686,-2.1753,0.0091829,-0.14366,0.02517,0.24221
0.010547,-0.065032,-0.073272,-0.21499,-0.036405,0.81944,0.27577,-0.67206,0.23232,-0.48586,-0.20904,-0.045517,-0.29349,1.034,-0.43993,0.6453,0.14466,0.15233,0.31096,-1.8951,0.0075158,-0.19047,0.0071339,0.28376
0.012355,-0.058841,-0.072244,-0.21092,0.049662,0.82142,0.30341,-0.68699,0.2601,-0.35468,-0.23952,0.02833,-0.21065,1.1496,-0.30681,0.57102,0.15382,0.15703,0.13949,-1.5969,0.0014763,-0.24937,-0.036535,0.35199
0.014755,-0.052473,-0.070509,-0.19402,0.1376,0.81366,0.31708,-0.676,0.2816,-0.1775,-0.26456,0.10172,-0.13763,1.2344,-0.16437,0.45567,0.1696,0.16492,-0.0041989,-1.2433,-0.010044,-0.31975,-0.1067,0.42537
0.015265,-0.049633,-0.069388,-0.16801,0.21928,0.78829,0.31617,-0.62263,0.29445,-0.0080336,-0.27554,0.15552,-0.069218,1.2747,-0.016144,0.35553,0.1871,0.1759,-0.091383,-0.81906,-0.02599,-0.39657,-0.19397,0.47072
0.013423,-0.051129,-0.069116,-0.13761,0.29542,0.74309,0.30385,-0.51553,0.29996,0.11461,-0.27554,0.17162,-0.0048623,1.2628,0.1329,0.29371,0.19888,0.1879,-0.13097,-0.33511,-0.043651,-0.47106,-0.28352,0.46611
0.011695,-0.053895,-0.068927,-0.10873,0.36513,0.68737,0.28686,-0.35595,0.30206,0.18291,-0.27723,0.14897,0.049471,1.2003,0.26761,0.25567,0.19961,0.19599,-0.16612,0.19719,-0.059699,-0.53353,-0.36279,0.41823
0.013645,-0.053466,-0.067972,-0.087059,0.41471,0.63938,0.27396,-0.16404,0.30371,0.21224,-0.29374,0.10876,0.086187,1.0969,0.3662,0.20979,0.19018,0.19458,-0.24355,0.78536,-0.071414,-0.57694,-0.42603,0.35958
0.020734,-0.047928,-0.066357,-0.075713,0.42024,0.61611,0.27202,0.023158,0.30423,0.21672,-0.32952,0.081598,0.10244,0.96322,0.41507,0.13428,0.17734,0.18127,-0.37842,1.4385,-0.077594,-0.59896,-0.47289,0.32675
0.030473,-0.039907,-0.06537,-0.073841,0.36503,0.62248,0.28162,0.16446,0.29997,0.19322,-0.3775,0.083982,0.1018,0.80562,0.42214,0.029851,0.16835,0.1589,-0.54282,2.1224,-0.078736,-0.60196,-0.50366,0.33582
0.03771,-0.034667,-0.066594,-0.077442,0.25751,0.648,0.29566,0.23311,0.28792,0.12791,-0.42353,0.10172,0.089762,0.62511,0.41526,-0.08853,0.16479,0.1338,-0.68721,2.7305,-0.076523,-0.59133,-0.51648,0.37315
0.038261,-0.035792,-0.07054,-0.081785,0.1325,0.67348,0.30311,0.23026,0.26902,0.018547,-0.45424,0.094648,0.067764,0.42313,0.42398,-0.20987,0.16077,0.11156,-0.77619,3.1084,-0.072988,-0.5729,-0.50886,0.40664
0.032091,-0.042144,-0.075917,-0.083631,0.032032,0.68291,0.29587,0.18429,0.24856,-0.10988,-0.46305,0.021376,0.031641,0.20833,0.45803,-0.33738,0.14757,0.093626,-0.80919,3.1257,-0.069705,-0.54998,-0.48091,0.40723
0.023406,-0.048786,-0.080204,-0.081944,-0.019957,0.67241,0.27397,0.1353,0.23332,-0.21361,-0.45137,-0.1333,-0.023611,-0.0025341,0.4993,-0.48115,0.12085,0.077308,-0.81058,2.748,-0.067081,-0.52081,-0.43604,0.3646
0.017464,-0.051147,-0.081147,-0.077312,-0.030015,0.65016,0.24522,0.11401,0.22773,-0.25888,-0.42493,-0.34901,-0.09691,-0.19209,0.51425,-0.63948,0.084244,0.058646,-0.80115,2.0539,-0.063891,-0.47794,-0.37784,0.2881
0.016576,-0.048895,-0.078088,-0.071199,-0.026349,0.62806,0.21972,0.12795,0.23153,-0.24907,-0.38848,-0.58517,-0.17799,-0.35331,0.477,-0.78537,0.046193,0.03533,-0.7777,1.1883,-0.05755,-0.41173,-0.30688,0.19691
0.018536,-0.046239,-0.072173,-0.065684,-0.038104,0.61156,0.20312,0.16307,0.2401,-0.228,-0.34253,-0.80837,-0.2507,-0.49433,0.3859,-0.8708,0.012714,0.0072651,-0.718,0.28696,-0.045583,-0.31713,-0.22157,0.1091
0.018779,-0.048445,-0.065408,-0.063194,-0.079597,0.59513,0.19357,0.19826,0.24659,-0.2552,-0.28456,-1.0095,-0.29985,-0.63137,0.26203,-0.84838,-0.017365,-0.024972,-0.60378,-0.56865,-0.02787,-0.2,-0.12322,0.036671
0.014488,-0.057458,-0.059368,-0.065522,-0.14914,0.56712,0.18379,0.22196,0.24475,-0.36978,-0.21398,-1.1982,-0.31675,-0.77345,0.13297,-0.69752,-0.050458,-0.061495,-0.43886,-1.3406,-0.0080187,-0.077346,-0.020516,-0.014443
0.0071973,-0.070153,-0.054535,-0.07236,-0.23827,0.52035,0.16586,0.23923,0.23133,-0.56729,-0.13689,-1.3817,-0.3004,-0.91064,0.015747,-0.43964,-0.091415,-0.1027,-0.24634,-1.9908,0.0078313,0.030713,0.071993,-0.043935
0.0016632,-0.080526,-0.050624,-0.080777,-0.34002,0.46039,0.13494,0.265,0.20774,-0.80297,-0.066141,-1.5485,-0.25549,-1.0161,-0.08843,-0.134,-0.13817,-0.14792,-0.050685,-2.4552,0.014613,0.11252,0.14119,-0.058286
0.0019422,-0.084028,-0.047397,-0.086721,-0.44955,0.40429,0.089656,0.30877,0.18015,-1.0164,-0.015132,-1.6714,-0.18993,-1.063,-0.18603,0.14395,-0.18287,-0.19538,0.1354,-2.6674,0.011746,0.17136,0.18271,-0.070847
0.0080122,-0.080723,-0.045069,-0.087858,-0.56005,0.36971,0.030746,0.36197,0.15744,-1.1597,0.010912,-1.7274,-0.11363,-1.044,-0.27874,0.33201,-0.21838,-0.24382,0.3068,-2.6141,0.0031632,0.22092,0.20187,-0.097394
0.015759,-0.07504,-0.043842,-0.085442,-0.66113,0.36208,-0.039768,0.39751,0.14722,-1.2138,0.019818,-1.7167,-0.037951,-0.97852,-0.3577,0.40553,-0.24384,-0.29359,0.45302,-2.3729,-0.0067509,0.27244,0.20722,-0.14786
0.020211,-0.072497,-0.043009,-0.083354,-0.74273,0.37012,-0.11748,0.38301,0.15172,-1.1868,0.028972,-1.6639,0.02551,-0.90132,-0.40837,0.38551,-0.26366,-0.3444,0.55584,-2.0895,-0.018221,0.32407,0.20249,-0.21957
0.019158,-0.075883,-0.040706,-0.084862,-0.80036,0.37364,-0.19423,0.3002,0.16626,-1.1025,0.055103,-1.5991,0.067133,-0.83853,-0.42073,0.32565,-0.28067,-0.39067,0.60535,-1.9021,-0.037347,0.36185,0.1839,-0.29733
0.014189,-0.083592,-0.034965,-0.089826,-0.83581,0.35784,-0.2589,0.1585,0.18167,-0.98695,0.10427,-1.5362,0.081876,-0.79083,-0.39599,0.28367,-0.29003,-0.41943,0.61907,-1.8618,-0.071346,0.37262,0.14534,-0.36047
0.008672,-0.091059,-0.02548,-0.094811,-0.85269,0.3228,-0.30118,-0.0065475,0.18958,-0.86073,0.16912,-1.4637,0.071015,-0.73637,-0.34515,0.2916,-0.28049,-0.41506,0.63914,-1.9082,-0.12074,0.35865,0.086653,-0.39202
0.004865,-0.094061,-0.014561,-0.095973,-0.85229,0.28075,-0.31635,-0.15005,0.18719,-0.73765,0.23507,-1.3554,0.04202,-0.6517,-0.28218,0.34202,-0.24299,-0.36973,0.70173,-1.9181,-0.17486,0.34081,0.017944,-0.38446
0.0027391,-0.091498,-0.0061002,-0.092072,-0.83454,0.24407,-0.30772,-0.24007,0.17826,-0.62586,0.29077,-1.1943,0.0060291,-0.53392,-0.21792,0.39792,-0.17924,-0.29152,0.80244,-1.7933,-0.21555,0.34611,-0.043875,-0.34035
0.0011121,-0.085842,-0.0030457,-0.084954,-0.80311,0.21464,-0.28501,-0.27169,0.16971,-0.52899,0.33536,-0.98911,-0.026534,-0.40622,-0.15888,0.41843,-0.10251,-0.20225,0.89323,-1.5218,-0.22775,0.38755,-0.083683,-0.27026
-0.00054508,-0.081187,-0.0052818,-0.077376,-0.76785,0.18323,-0.25974,-0.26426,0.16608,-0.44603,0.37795,-0.77414,-0.050138,-0.30301,-0.10945,0.38228,-0.029263,-0.12491,0.92156,-1.1733,-0.20983,0.45207,-0.095509,-0.19079
-0.0015859,-0.08039,-0.0097006,-0.070525,-0.74023,0.13862,-0.24061,-0.24493,0.16579,-0.37133,0.43048,-0.589,-0.065309,-0.24745,-0.073705,0.29459,0.031019,-0.069657,0.88259,-0.83892,-0.17589,0.50716,-0.083829,-0.12223
-0.0012517,-0.083292,-0.01245,-0.063678,-0.72468,0.07748,-0.23161,-0.23087,0.16188,-0.297,0.49873,-0.45195,-0.07549,-0.23952,-0.054487,0.17724,0.079399,-0.029537,0.83703,-0.56931,-0.14732,0.52324,-0.058903,-0.083783
9.2991e-005,-0.087048,-0.011567,-0.056072,-0.71402,0.0064559,-0.23323,-0.22286,0.14682,-0.21873,0.57709,-0.34288,-0.081738,-0.26189,-0.051095,0.055064,0.1218,0.010686,0.87211,-0.35848,-0.13924,0.49641,-0.030246,-0.086074
0.00099931,-0.088185,-0.0080026,-0.048721,-0.69404,-0.064631,-0.24524,-0.213,0.11815,-0.14241,0.64947,-0.20829,-0.079805,-0.29536,-0.058623,-0.050517,0.16029,0.06028,1.032,-0.1765,-0.15117,0.45499,-0.0027363,-0.12529
0.00019084,-0.084918,-0.0045197,-0.044029,-0.65385,-0.13158,-0.2683,-0.19758,0.081146,-0.086145,0.69557,0.012152,-0.062831,-0.32894,-0.070057,-0.12035,0.18986,0.11485,1.2741,-0.010819,-0.16884,0.44369,0.0229,-0.18457
-0.0023107,-0.078295,-0.0036444,-0.043407,-0.59279,-0.19867,-0.30296,-0.18259,0.046673,-0.073007,0.69944,0.35184,-0.028254,-0.35751,-0.079531,-0.13824,0.20334,0.16081,1.4882,0.12695,-0.17554,0.49491,0.046685,-0.24381
-0.0053029,-0.071585,-0.0062465,-0.045362,-0.51814,-0.27374,-0.34669,-0.17657,0.025806,-0.11567,0.65625,0.79685,0.01651,-0.37343,-0.084179,-0.099252,0.19897,0.1869,1.5674,0.23288,-0.16461,0.60597,0.066114,-0.29211
-0.0075152,-0.068423,-0.011399,-0.046155,-0.43671,-0.3605,-0.39144,-0.1782,0.024566,-0.20216,0.57437,1.2927,0.054682,-0.36361,-0.083653,-0.019361,0.18271,0.19207,1.4745,0.3428,-0.14382,0.73735,0.075481,-0.33354
-0.0085335,-0.070851,-0.017029,-0.042648,-0.34888,-0.4548,-0.42418,-0.17148,0.0418,-0.2943,0.47192,1.7736,0.067491,-0.31651,-0.078512,0.066611,0.16301,0.18377,1.2551,0.5219,-0.1288,0.83305,0.068366,-0.38141
-0.0087506,-0.078294,-0.020639,-0.034714,-0.25095,-0.54735,-0.43073,-0.13557,0.070743,-0.34377,0.36941,2.1934,0.043726,-0.23203,-0.069129,0.12305,0.14342,0.16984,0.99379,0.80842,-0.13132,0.84976,0.041667,-0.44502
-0.0086733,-0.087884,-0.019905,-0.024978,-0.14275,-0.6291,-0.40114,-0.063478,0.1025,-0.31747,0.2824,2.5365,-0.014533,-0.12327,-0.055637,0.13542,0.12054,0.15254,0.75245,1.1559,-0.15117,0.77651,-0.0017358,-0.519
-0.0084633,-0.095866,-0.01344,-0.01628,-0.032429,-0.69443,-0.33337,0.025203,0.12912,-0.21504,0.21753,2.8019,-0.093106,-0.0075877,-0.038375,0.1166,0.08933,0.12986,0.54118,1.429,-0.17741,0.63418,-0.05401,-0.58275
-0.0080945,-0.099306,-0.0016666,-0.0093724,0.067192,-0.7403,-0.23303,0.088744,0.14512,-0.065417,0.17349,2.9781,-0.17257,0.10485,-0.018346,0.090648,0.05032,0.10141,0.33862,1.47,-0.19666,0.45837,-0.10691,-0.60987
-0.0077204,-0.097315,0.012825,-0.0029817,0.14769,-0.76438,-0.10984,0.084177,0.14766,0.095577,0.14541,3.0328,-0.23666,0.21396,0.0022667,0.068293,0.011335,0.071808,0.13538,1.1963,-0.20155,0.27984,-0.15666,-0.58042
-0.0077133,-0.091239,0.026138,0.0041673,0.21137,-0.76604,0.026802,-0.0082959,0.13642,0.24949,0.12922,2.9282,-0.27813,0.32171,0.019672,0.038191,-0.018311,0.047358,-0.041227,0.6628,-0.193,0.11555,-0.2051,-0.48887
-0.0083887,-0.083818,0.03499,0.011735,0.26891,-0.75023,0.17003,-0.17257,0.11378,0.4025,0.12306,2.6518,-0.29961,0.42232,0.029044,-0.016133,-0.035942,0.029026,-0.14288,0.044454,-0.17646,-0.026757,-0.25557,-0.34551
-0.0098532,-0.077761,0.038468,0.018351,0.33002,-0.73004,0.31472,-0.3629,0.084984,0.57065,0.12493,2.2377,-0.30971,0.50198,0.026937,-0.088923,-0.048444,0.0088815,-0.14114,-0.44696,-0.15648,-0.13871,-0.30644,-0.17384
-0.012147,-0.074456,0.038227,0.023684,0.39509,-0.72299,0.45498,-0.52495,0.057642,0.75622,0.12853,1.7605,-0.3166,0.54989,0.014626,-0.14225,-0.067156,-0.025483,-0.057759,-0.65647,-0.13454,-0.20753,-0.3477,-0.0058804
-0.015303,-0.073421,0.03684,0.029502,0.45442,-0.74159,0.58222,-0.6196,0.040131,0.93588,0.12122,1.3075,-0.32289,0.57002,-0.00047807,-0.12743,-0.098975,-0.081192,0.040728,-0.53531,-0.1108,-0.22249,-0.36436,0.12486
-0.018957,-0.072683,0.035556,0.038158,0.49562,-0.78423,0.6853,-0.63785,0.038911,1.0717,0.086815,0.94514,-0.32498,0.58091,-0.0078664,-0.023037,-0.141,-0.15282,0.079909,-0.13131,-0.086686,-0.18565,-0.34474,0.19394
-0.021817,-0.069859,0.033367,0.049705,0.51351,-0.83444,0.75258,-0.60052,0.055796,1.1367,0.013282,0.69939,-0.3175,0.60131,-0.00064784,0.14221,-0.18275,-0.22402,0.018226,0.45177,-0.065193,-0.11668,-0.28797,0.19724
-0.021873,-0.063456,0.02826,0.060666,0.5153,-0.87059,0.77483,-0.54446,0.086631,1.1352,-0.099136,0.5528,-0.29948,0.63362,0.018611,0.30227,-0.2136,-0.27747,-0.13574,1.0878,-0.048643,-0.046157,-0.20504,0.15605
-0.017715,-0.05386,0.019722,0.06628,0.51777,-0.88025,0.74814,-0.50283,0.12234,1.1018,-0.23486,0.45527,-0.27704,0.66037,0.038028,0.39355,-0.2296,-0.30575,-0.33682,1.641,-0.036644,-0.0014805,-0.11264,0.10995
-0.010105,-0.043547,0.010339,0.064737,0.5384,-0.86865,0.67655,-0.48996,0.152,1.0806,-0.3684,0.34234,-0.25971,0.65804,0.043702,0.39105,-0.2349,-0.31516,-0.53292,1.9759,-0.026689,0.0050642,-0.024463,0.098478
-0.0022814,-0.036199,0.0049642,0.059583,0.58537,-0.85497,0.57358,-0.49821,0.16641,1.1009,-0.47602,0.15838,-0.25236,0.61739,0.02964,0.31489,-0.23773,-0.31969,-0.68872,1.9891,-0.017023,-0.021386,0.053888,0.14071
0.0017753,-0.034878,0.0078136,0.057655,0.65235,-0.85882,0.46095,-0.50775,0.16044,1.1662,-0.54663,-0.11964,-0.24921,0.55304,0.0031606,0.20664,-0.24448,-0.33044,-0.79061,1.6593,-0.00898,-0.065213,0.12336,0.22478
6.1507e-005,-0.040034,0.019538,0.063755,0.72083,-0.88707,0.36312,-0.50184,0.13373,1.2592,-0.58499,-0.46843,-0.23542,0.49465,-0.018593,0.09816,-0.25588,-0.34834,-0.83678,1.0815,-0.0064431,-0.11012,0.18564,0.31362
-0.0058726,-0.048659,0.036392,0.07652,0.76951,-0.93013,0.2986,-0.4768,0.090588,1.3554,-0.60506,-0.8253,-0.19598,0.46697,-0.019,-0.0026037,-0.26712,-0.36527,-0.82611,0.44514,-0.012744,-0.1453,0.23835,0.36392
-0.011908,-0.0555,0.052136,0.089291,0.78553,-0.96932,0.27213,-0.44061,0.039487,1.4308,-0.61866,-1.1153,-0.12564,0.47452,0.0078321,-0.10223,-0.2711,-0.37129,-0.75628,-0.047493,-0.027608,-0.16601,0.27549,0.34801
-0.014259,-0.055992,0.061442,0.095638,0.77117,-0.98867,0.2727,-0.40333,-0.0084724,1.4645,-0.62759,-1.2827,-0.032378,0.50123,0.05377,-0.20214,-0.26253,-0.36144,-0.63005,-0.27745,-0.046555,-0.17122,0.29249,0.26759
-0.01206,-0.049181,0.062685,0.094968,0.74145,-0.98226,0.27969,-0.36908,-0.043308,1.44,-0.62439,-1.3069,0.06779,0.52296,0.10185,-0.28758,-0.24021,-0.33687,-0.4606,-0.25604,-0.062955,-0.16161,0.29178,0.15306
-0.0076776,-0.038538,0.058484,0.093306,0.714,-0.95346,0.27398,-0.33666,-0.061541,1.3519,-0.60003,-1.1952,0.15992,0.52218,0.13559,-0.33399,-0.20672,-0.30091,-0.26919,-0.088641,-0.070941,-0.13921,0.28379,0.048927
-0.0046892,-0.029864,0.053777,0.098366,0.69779,-0.90948,0.2473,-0.30671,-0.069925,1.2143,-0.55151,-0.9662,0.23573,0.4954,0.14571,-0.32369,-0.16625,-0.25529,-0.077554,0.11608,-0.067242,-0.10769,0.28204,-0.0079156
-0.0052786,-0.027522,0.052657,0.11303,0.68812,-0.85798,0.20448,-0.28632,-0.083571,1.0595,-0.48335,-0.64289,0.29224,0.45086,0.13065,-0.25935,-0.12265,-0.20079,0.096453,0.32104,-0.051439,-0.071999,0.29527,-0.0065451
-0.0090745,-0.031557,0.055919,0.13284,0.67097,-0.80828,0.15798,-0.28459,-0.11778,0.92196,-0.40269,-0.26168,0.32695,0.4008,0.092439,-0.16431,-0.079095,-0.1414,0.23577,0.56191,-0.025504,-0.037267,0.32205,0.032882
-0.014033,-0.037775,0.06086,0.14971,0.63304,-0.77376,0.11944,-0.30211,-0.17807,0.81622,-0.31341,0.11811,0.3359,0.354,0.033185,-0.070284,-0.039022,-0.08657,0.32002,0.87773,0.0065189,-0.0076583,0.35149,0.07103
-0.018266,-0.040732,0.063452,0.15852,0.57074,-0.76904,0.094143,-0.32474,-0.25539,0.72556,-0.21513,0.424,0.31777,0.31245,-0.044026,-0.00072028,-0.0064165,-0.04746,0.33087,1.2338,0.038843,0.014602,0.36947,0.072534
-0.021152,-0.037533,0.061375,0.16095,0.49283,-0.80044,0.080909,-0.32894,-0.33074,0.61323,-0.10784,0.60102,0.27996,0.27321,-0.13078,0.039634,0.015726,-0.028782,0.26834,1.5077,0.065099,0.030121,0.36615,0.027113
-0.023026,-0.029694,0.0557,0.16319,0.41598,-0.85605,0.075343,-0.29555,-0.38661,0.44937,0.0026939,0.64074,0.23968,0.23389,-0.21042,0.062687,0.027471,-0.023592,0.16436,1.5564,0.080593,0.042987,0.34025,-0.044378
-0.024143,-0.021774,0.049992,0.16974,0.35649,-0.906,0.072088,-0.2208,-0.4178,0.23287,0.10459,0.58176,0.21637,0.19776,-0.26113,0.083854,0.032056,-0.017,0.075484,1.315,0.084575,0.060234,0.29818,-0.1028
-0.024166,-0.017837,0.04757,0.17883,0.32242,-0.9175,0.064062,-0.11582,-0.43442,-0.0087299,0.18564,0.47747,0.21966,0.17404,-0.26509,0.10678,0.033159,0.0025901,0.05168,0.84641,0.080745,0.0893,0.24946,-0.114
-0.022703,-0.0184,0.0491,0.18316,0.30948,-0.877,0.0408,0.0036195,-0.45503,-0.23997,0.24045,0.3574,0.24213,0.1717,-0.21822,0.11755,0.03174,0.0336,0.10187,0.30358,0.075049,0.13417,0.20164,-0.067404
-0.020181,-0.020198,0.052353,0.1751,0.30285,-0.8027,-0.0099113,0.12725,-0.49446,-0.43987,0.27244,0.21599,0.26349,0.19105,-0.13367,0.094458,0.026015,0.061869,0.1865,-0.16698,0.071803,0.19247,0.15738,0.021468
-0.017946,-0.018918,0.054136,0.15174,0.28468,-0.7348,-0.095464,0.2519,-0.55386,-0.60738,0.28845,0.039134,0.26465,0.22052,-0.035993,0.027527,0.015373,0.072526,0.24908,-0.50362,0.07071,0.2558,0.11456,0.12384
-0.017293,-0.012817,0.052715,0.116,0.24444,-0.70717,-0.21069,0.37543,-0.6193,-0.74831,0.29013,-0.15651,0.2421,0.24296,0.050715,-0.067202,0.0045832,0.063846,0.26463,-0.73498,0.067062,0.31362,0.069219,0.21504
-0.01833,-0.0043007,0.048855,0.073869,0.1864,-0.7203,-0.33595,0.49087,-0.67032,-0.8599,0.26995,-0.31005,0.21203,0.24767,0.11317,-0.15232,0.0032797,0.051077,0.26438,-0.92104,0.055249,0.3584,0.019791,0.28369
-0.019866,0.0019163,0.044887,0.031158,0.12838,-0.73734,-0.44515,0.58739,-0.69327,-0.9298,0.2157,-0.3461,0.20077,0.23819,0.15144,-0.19246,0.019538,0.055912,0.31175,-1.0899,0.033256,0.3889,-0.029427,0.32803
-0.020476,0.0027752,0.042794,-0.0076098,0.090791,-0.70845,-0.51997,0.6569,-0.69037,-0.94999,0.12074,-0.22761,0.22769,0.22854,0.17307,-0.18048,0.052159,0.089362,0.44648,-1.225,0.0049069,0.40969,-0.06834,0.34594
-0.019675,-0.00017874,0.042803,-0.038409,0.082305,-0.60652,-0.56008,0.69913,-0.677,-0.92892,-0.0078213,0.0096789,0.29243,0.23051,0.184,-0.14566,0.088519,0.14173,0.64312,-1.305,-0.021928,0.4274,-0.085943,0.3295
-0.017946,-0.001434,0.043377,-0.057432,0.092438,-0.44706,-0.58076,0.71983,-0.66784,-0.88638,-0.14961,0.26928,0.37548,0.24266,0.18313,-0.13553,0.11087,0.18798,0.82079,-1.3476,-0.040065,0.44582,-0.078065,0.2708
-0.015643,0.0044505,0.042383,-0.062749,0.097534,-0.2771,-0.59854,0.72406,-0.66227,-0.83399,-0.27977,0.44502,0.45116,0.25058,0.16417,-0.18304,0.1071,0.20441,0.89781,-1.4084,-0.04747,0.46261,-0.052718,0.17455
-0.012086,0.018434,0.038499,-0.056558,0.07698,-0.14281,-0.61589,0.71127,-0.64173,-0.76137,-0.38007,0.47588,0.50372,0.23802,0.12308,-0.28306,0.078124,0.18384,0.84661,-1.5311,-0.048393,0.46926,-0.02811,0.066311
-0.0060979,0.035783,0.032003,-0.045273,0.027993,-0.061685,-0.61723,0.67684,-0.58355,-0.64513,-0.44494,0.37021,0.53499,0.19897,0.065476,-0.39523,0.036829,0.13837,0.70496,-1.6957,-0.050462,0.45505,-0.023185,-0.013485
0.0023098,0.049258,0.024567,-0.036341,-0.032252,-0.020101,-0.57979,0.61824,-0.48095,-0.47539,-0.47961,0.18941,0.55917,0.14055,0.0080912,-0.47069,-0.00015164,0.089303,0.53822,-1.8137,-0.059763,0.41385,-0.046715,-0.028912
0.010847,0.054341,0.01831,-0.033864,-0.07883,0.0055743,-0.49009,0.53953,-0.35183,-0.27487,-0.49333,0.0079032,0.58995,0.075368,-0.027549,-0.48227,-0.021429,0.053242,0.38856,-1.7812,-0.077165,0.35027,-0.092832,0.02959
0.015948,0.052405,0.014732,-0.036524,-0.096164,0.025421,-0.35301,0.45072,-0.22729,-0.090074,-0.49266,-0.12463,0.63044,0.011789,-0.026479,-0.43689,-0.024757,0.03499,0.25395,-1.5459,-0.09803,0.28076,-0.14615,0.1355
0.015397,0.04936,0.014101,-0.039514,-0.087188,0.030767,-0.18769,0.36331,-0.12857,0.040746,-0.4785,-0.20159,0.67293,-0.048297,0.010054,-0.36432,-0.014638,0.030395,0.10896,-1.1373,-0.11506,0.22694,-0.19202,0.23639
0.010356,0.050975,0.015533,-0.038786,-0.068952,0.0095448,-0.016453,0.28679,-0.052861,0.11453,-0.44713,-0.25561,0.70694,-0.10235,0.063149,-0.29417,0.0029206,0.034122,-0.058002,-0.63976,-0.12211,0.20381,-0.22371,0.27956
0.0048138,0.058774,0.017535,-0.034048,-0.060127,-0.034679,0.14158,0.22776,0.018724,0.16055,-0.39346,-0.33856,0.72774,-0.13859,0.10515,-0.24009,0.023957,0.044599,-0.22686,-0.13909,-0.11662,0.20991,-0.24179,0.23865
0.0027383,0.069653,0.01858,-0.028246,-0.071207,-0.079091,0.26829,0.18953,0.098125,0.21026,-0.31479,-0.49339,0.73844,-0.13578,0.11454,-0.20077,0.046497,0.062793,-0.36045,0.31442,-0.099715,0.22722,-0.24841,0.126
0.0053253,0.079067,0.017426,-0.02443,-0.10344,-0.096873,0.34278,0.1693,0.17416,0.26826,-0.21365,-0.72713,0.74513,-0.074132,0.087811,-0.17226,0.068423,0.087678,-0.43366,0.70308,-0.074635,0.2321,-0.2432,-0.015982
0.010693,0.084631,0.013202,-0.022986,-0.1531,-0.076791,0.34621,0.15468,0.21965,0.31119,-0.098791,-0.99646,0.7508,0.050348,0.040849,-0.15743,0.086195,0.11374,-0.44946,1.0176,-0.045093,0.21044,-0.22484,-0.13855
0.01609,0.08708,0.0054993,-0.021532,-0.21317,-0.029322,0.27599,0.12464,0.21668,0.31449,0.016559,-1.2166,0.75363,0.22018,-0.0011433,-0.16356,0.095962,0.13308,-0.43095,1.2431,-0.014492,0.16644,-0.1958,-0.21049
0.020353,0.088325,-0.0055045,-0.017226,-0.26963,0.025035,0.15697,0.058404,0.17701,0.28013,0.11864,-1.2943,0.75066,0.40543,-0.018101,-0.19097,0.096128,0.14004,-0.4019,1.3677,0.014119,0.1186,-0.16423,-0.22857
0.024262,0.089039,-0.01907,-0.0092209,-0.29841,0.073027,0.035214,-0.051644,0.13816,0.23825,0.19736,-1.1707,0.7425,0.58188,-0.0043195,-0.22453,0.089086,0.13448,-0.37508,1.3965,0.038188,0.086722,-0.1398,-0.21044
0.028642,0.088286,-0.034227,0.00082923,-0.27222,0.11542,-0.046288,-0.19289,0.13704,0.22204,0.24854,-0.85057,0.73441,0.74471,0.032643,-0.23736,0.080495,0.12116,-0.35526,1.3475,0.056424,0.079608,-0.1265,-0.17777
0.032375,0.085263,-0.050215,0.01036,-0.17828,0.15875,-0.073516,-0.33801,0.18334,0.24058,0.2732,-0.4003,0.7325,0.90627,0.080418,-0.20533,0.07635,0.10637,-0.34657,1.2273,0.069723,0.092299,-0.11912,-0.14295
0.03263,0.080936,-0.066554,0.017923,-0.034982,0.20247,-0.067727,-0.46031,0.25453,0.27544,0.27526,0.083255,0.73819,1.0784,0.12986,-0.12199,0.079667,0.094311,-0.35195,1.0111,0.081059,0.11291,-0.1069,-0.10758
0.027375,0.077542,-0.082491,0.023824,0.10917,0.23523,-0.066037,-0.54707,0.31529,0.30239,0.2597,0.51254,0.74554,1.2526,0.17693,-0.0034606,0.088873,0.085356,-0.36402,0.65594,0.093624,0.13199,-0.081975,-0.071072
0.017867,0.076383,-0.096247,0.028992,0.19987,0.24417,-0.091807,-0.60058,0.3432,0.31552,0.23193,0.83483,0.74338,1.3954,0.21921,0.1188,0.098906,0.076754,-0.3591,0.14554,0.10791,0.14655,-0.045947,-0.039359
0.0086011,0.076319,-0.10492,0.03334,0.2107,0.22762,-0.13911,-0.62679,0.33964,0.33013,0.1977,1.0336,0.72102,1.464,0.25233,0.21114,0.10432,0.064968,-0.30473,-0.46693,0.11985,0.15722,-0.0099454,-0.02495
0.0044055,0.074817,-0.10561,0.035251,0.16112,0.19909,-0.18289,-0.62282,0.31992,0.36342,0.16247,1.1142,0.6738,1.4344,0.27076,0.24885,0.10246,0.048364,-0.17825,-1.0559,0.12208,0.16298,0.01162,-0.03791
0.006979,0.070775,-0.097232,0.032746,0.10268,0.17921,-0.20361,-0.57533,0.29529,0.41392,0.13013,1.0907,0.60547,1.32,0.27196,0.22226,0.09453,0.028773,0.017477,-1.4724,0.10839,0.1598,0.0089452,-0.075737
0.013765,0.066314,-0.081825,0.025334,0.082255,0.18369,-0.20333,-0.47204,0.26421,0.46044,0.10199,0.98306,0.52625,1.1673,0.25939,0.13919,0.084069,0.010722,0.25264,-1.6152,0.078919,0.14437,-0.018414,-0.1214
0.020118,0.065532,-0.064048,0.014955,0.10983,0.21757,-0.19983,-0.31649,0.21913,0.48107,0.077173,0.82152,0.44816,1.0304,0.24101,0.024674,0.073836,-0.001764,0.48287,-1.4803,0.042197,0.11902,-0.061843,-0.15204
0.022947,0.07104,-0.049146,0.0051922,0.15575,0.27795,-0.20666,-0.13316,0.15958,0.47262,0.053981,0.64752,0.38039,0.94071,0.2245,-0.084445,0.063594,-0.0089899,0.66457,-1.157,0.011764,0.092387,-0.10792,-0.15221
0.022826,0.081319,-0.040582,-0.00061979,0.17785,0.35914,-0.21983,0.041954,0.097883,0.45157,0.031315,0.50581,0.32704,0.89475,0.21359,-0.15245,0.050383,-0.016958,0.76397,-0.77803,-0.0010461,0.074518,-0.14412,-0.12188
0.022931,0.091307,-0.038877,-0.0009441,0.15506,0.45378,-0.22407,0.17797,0.051958,0.43638,0.0092212,0.43129,0.28795,0.86416,0.20818,-0.16115,0.03104,-0.034157,0.76016,-0.45523,0.0064829,0.070292,-0.16345,-0.074411
0.025858,0.095789,-0.042154,0.0037318,0.09996,0.55024,-0.21196,0.2608,0.032215,0.42947,-0.011613,0.43936,0.26088,0.82012,0.20704,-0.11922,0.0051764,-0.064944,0.64842,-0.23703,0.027495,0.076675,-0.16616,-0.027019
0.031145,0.092807,-0.047653,0.011848,0.043153,0.63278,-0.19616,0.29329,0.034025,0.4162,-0.030852,0.52472,0.24292,0.75313,0.20937,-0.055747,-0.023381,-0.10411,0.4466,-0.10129,0.050897,0.085962,-0.15781,0.0083587
0.0356,0.084505,-0.053034,0.021928,0.0060854,0.68804,-0.20205,0.28733,0.041614,0.38098,-0.049133,0.66602,0.23045,0.67625,0.21369,-0.00040838,-0.047657,-0.13763,0.1979,0.021938,0.069101,0.091964,-0.14469,0.028151
0.03609,0.075138,-0.056907,0.033089,-0.013228,0.7139,-0.24625,0.25644,0.039354,0.32384,-0.067514,0.83092,0.21861,0.61333,0.21564,0.035291,-0.060712,-0.1509,-0.039301,0.21475,0.082372,0.093742,-0.12971,0.034207
0.032269,0.068156,-0.058833,0.044798,-0.031855,0.72207,-0.32007,0.21396,0.021423,0.26134,-0.085657,0.9796,0.20206,0.583,0.20788,0.06051,-0.059625,-0.13959,-0.21533,0.53711,0.096613,0.093837,-0.11182,0.029329
0.02682,0.064482,-0.059254,0.056344,-0.062335,0.73047,-0.39227,0.17468,-0.0064876,0.21147,-0.099995,1.0703,0.17719,0.58919,0.18287,0.089108,-0.048288,-0.11529,-0.31416,1.002,0.1166,0.092829,-0.089335,0.015407
0.02301,0.062751,-0.059351,0.066537,-0.10125,0.75074,-0.4286,0.15466,-0.032968,0.17774,-0.10404,1.0708,0.14421,0.62087,0.136,0.11927,-0.036998,-0.1003,-0.36182,1.5647,0.14017,0.085289,-0.064104,-0.0054899
0.021769,0.060707,-0.060543,0.073801,-0.13479,0.78104,-0.41204,0.16691,-0.048922,0.14781,-0.092035,0.97222,0.10686,0.6576,0.066683,0.12769,-0.037894,-0.11365,-0.40992,2.1314,0.15816,0.061193,-0.042105,-0.029841
0.020967,0.056601,-0.063636,0.076573,-0.153,0.80976,-0.34922,0.21619,-0.052476,0.10744,-0.064161,0.79584,0.0698,0.67683,-0.022538,0.085667,-0.057828,-0.15737,-0.50315,2.5855,0.16022,0.012523,-0.029135,-0.053605
0.017568,0.049914,-0.068214,0.073838,-0.15808,0.82643,-0.26146,0.29756,-0.048772,0.055955,-0.029254,0.58402,0.035187,0.66157,-0.12657,-0.01424,-0.092789,-0.21311,-0.65094,2.8265,0.14232,-0.059363,-0.02494,-0.074776
0.010718,0.041385,-0.07291,0.065673,-0.15989,0.82991,-0.17082,0.39947,-0.046191,0.0080604,-0.0018454,0.37725,0.00096416,0.60829,-0.23676,-0.14211,-0.12825,-0.25238,-0.82093,2.8046,0.11059,-0.14098,-0.021286,-0.094594
0.0029406,0.032522,-0.076384,0.053518,-0.16548,0.82722,-0.091796,0.5079,-0.052098,-0.019755,0.0050958,0.1923,-0.038201,0.53145,-0.34007,-0.2391,-0.14647,-0.25382,-0.95697,2.5367,0.078872,-0.21113,-0.0065453,-0.11523
-0.0017511,0.024819,-0.078139,0.039896,-0.1739,0.82483,-0.031139,0.60831,-0.070457,-0.025508,-0.013534,0.017705,-0.088108,0.4594,-0.42137,-0.24632,-0.13667,-0.21556,-1.0097,2.099,0.061547,-0.25032,0.026221,-0.13506
-0.0012309,0.018982,-0.078386,0.027506,-0.18015,0.82095,0.0094939,0.6859,-0.10172,-0.025173,-0.054208,-0.16945,-0.15177,0.41959,-0.46907,-0.1362,-0.10153,-0.15459,-0.96117,1.6003,0.06612,-0.25011,0.073979,-0.14576
0.0027728,0.014614,-0.077186,0.018061,-0.18279,0.80567,0.032844,0.728,-0.14377,-0.039567,-0.10897,-0.3786,-0.2269,0.4205,-0.48046,0.071915,-0.055274,-0.094383,-0.82934,1.1489,0.089728,-0.21712,0.12532,-0.13496
0.0058244,0.010621,-0.073857,0.011599,-0.18623,0.76911,0.046715,0.7299,-0.19252,-0.076123,-0.1695,-0.59308,-0.30495,0.44375,-0.46227,0.31853,-0.015162,-0.050716,-0.6525,0.82341,0.12115,-0.16961,0.16736,-0.094467
0.0041117,0.0061883,-0.067397,0.0066887,-0.19593,0.7104,0.062112,0.70006,-0.24175,-0.12189,-0.22685,-0.7803,-0.37264,0.4554,-0.42565,0.52736,0.0077147,-0.025573,-0.4639,0.65268,0.14671,-0.12881,0.19227,-0.028829
-0.0027153,0.0016617,-0.057557,0.0014024,-0.21197,0.63991,0.087829,0.65834,-0.28329,-0.15429,-0.26847,-0.91642,-0.41589,0.43039,-0.37955,0.63409,0.012182,-0.011694,-0.27385,0.60816,0.15664,-0.1094,0.19884,0.042324
-0.011356,-0.001379,-0.045491,-0.005617,-0.22792,0.57252,0.12557,0.62539,-0.30904,-0.16061,-0.27838,-1.0046,-0.42493,0.37173,-0.32738,0.61069,0.0042913,-0.0017999,-0.070459,0.61258,0.14865,-0.1141,0.18909,0.091611
-0.017327,-0.0011304,-0.033238,-0.014603,-0.23569,0.51757,0.17044,0.60979,-0.31454,-0.1496,-0.24416,-1.0721,-0.39768,0.30744,-0.26832,0.47798,-0.0080315,0.0060864,0.16235,0.56561,0.12733,-0.13498,0.16439,0.097411
-0.018135,0.002873,-0.022436,-0.024755,-0.23102,0.47355,0.21669,0.60323,-0.30199,-0.14557,-0.16677,-1.1481,-0.33913,0.26584,-0.20068,0.30069,-0.018368,0.010846,0.42339,0.38034,0.10024,-0.16058,0.12484,0.055255
-0.014874,0.0087971,-0.013343,-0.034695,-0.21453,0.43182,0.26308,0.58821,-0.28008,-0.17013,-0.064447,-1.2415,-0.25749,0.2487,-0.12376,0.16229,-0.021994,0.014148,0.68527,0.016873,0.073272,-0.18454,0.072214,-0.020322
-0.011208,0.013147,-0.0049593,-0.043001,-0.18828,0.38584,0.31261,0.55239,-0.25982,-0.22645,0.035127,-1.335,-0.16026,0.22563,-0.038027,0.12638,-0.015275,0.022996,0.90435,-0.50188,0.048132,-0.21025,0.013086,-0.10451
-0.010556,0.012932,0.0039131,-0.048689,-0.15285,0.33775,0.36702,0.49733,-0.24859,-0.29766,0.11012,-1.3993,-0.053548,0.15622,0.054228,0.20203,0.0031363,0.04556,1.0417,-1.0983,0.023016,-0.24805,-0.041434,-0.17539
-0.013473,0.0079554,0.013548,-0.051575,-0.10865,0.29634,0.42212,0.43439,-0.24642,-0.35865,0.15632,-1.4133,0.055026,0.023478,0.14636,0.33466,0.029823,0.083757,1.08,-1.6666,-0.0041718,-0.30602,-0.079473,-0.22286
-0.017112,0.0013892,0.022879,-0.052357,-0.059643,0.26815,0.46888,0.37182,-0.24698,-0.3907,0.1864,-1.3759,0.15372,-0.1482,0.22559,0.43242,0.056016,0.1295,1.0266,-2.1062,-0.032613,-0.38072,-0.092962,-0.24864
-0.017247,-0.0021043,0.030041,-0.052224,-0.014427,0.24952,0.49943,0.30551,-0.24247,-0.38893,0.2179,-1.3011,0.22853,-0.30521,0.27577,0.41581,0.07112,0.16857,0.90365,-2.3502,-0.057693,-0.45466,-0.079948,-0.2594
-0.011524,0.00048422,0.033569,-0.052118,0.018327,0.22711,0.51197,0.22241,-0.22908,-0.3606,0.25998,-1.2033,0.27019,-0.3979,0.28542,0.26148,0.068679,0.18947,0.73704,-2.3839,-0.073144,-0.50382,-0.04402,-0.25991
-0.0015278,0.0083926,0.033634,-0.052172,0.037021,0.18693,0.50996,0.11432,-0.20941,-0.31952,0.30907,-1.0878,0.2817,-0.40966,0.25564,0.012621,0.050365,0.19017,0.54931,-2.2486,-0.074769,-0.51108,0.0075306,-0.25117
0.0080093,0.017541,0.032571,-0.051812,0.050195,0.12452,0.49688,-0.010011,-0.19062,-0.28178,0.35492,-0.95156,0.27914,-0.36217,0.201,-0.24897,0.024782,0.17778,0.35842,-2.0263,-0.063224,-0.47666,0.065181,-0.23377
0.012403,0.023108,0.034117,-0.050517,0.071746,0.047508,0.472,-0.1254,-0.17973,-0.26267,0.39039,-0.79458,0.28273,-0.29667,0.1408,-0.4485,0.0021896,0.16218,0.17602,-1.805,-0.044008,-0.41809,0.11832,-0.21157
0.010158,0.022288,0.041408,-0.048569,0.11148,-0.031235,0.43147,-0.20434,-0.17904,-0.27199,0.41635,-0.62962,0.30285,-0.24885,0.086397,-0.55016,-0.010618,0.14935,0.003353,-1.6343,-0.024726,-0.35938,0.15719,-0.1913
0.0035971,0.015495,0.054766,-0.047053,0.1688,-0.10367,0.37352,-0.2341,-0.18413,-0.30781,0.43892,-0.48318,0.33154,-0.23554,0.034457,-0.55734,-0.011873,0.1397,-0.17083,-1.4956,-0.011445,-0.31672,0.17584,-0.17792
-0.0033785,0.0057006,0.070823,-0.046909,0.23492,-0.1707,0.30301,-0.22438,-0.18552,-0.35383,0.46312,-0.38554,0.34757,-0.25818,-0.028253,-0.48878,-0.0031127,0.13131,-0.36395,-1.3106,-0.0063652,-0.29067,0.17467,-0.17008
-0.0083271,-0.0031836,0.084,-0.047786,0.30175,-0.23696,0.23126,-0.20021,-0.17312,-0.38557,0.48883,-0.35684,0.33324,-0.31318,-0.1118,-0.35533,0.012841,0.12375,-0.58428,-0.99201,-0.0079642,-0.26961,0.1605,-0.16003
-0.011489,-0.007955,0.089697,-0.047726,0.36953,-0.30158,0.1714,-0.18621,-0.14167,-0.38439,0.5116,-0.39874,0.2905,-0.39689,-0.21214,-0.15774,0.03205,0.11829,-0.81578,-0.51245,-0.012983,-0.24089,0.14384,-0.13917
-0.014442,-0.0074066,0.087131,-0.044218,0.4463,-0.35401,0.13274,-0.19352,-0.094256,-0.35006,0.52598,-0.49709,0.24333,-0.50151,-0.31085,0.095116,0.048742,0.11486,-1.0155,0.052081,-0.018561,-0.20055,0.13499,-0.10538
-0.01786,-0.0030621,0.079739,-0.036029,0.53939,-0.3795,0.11718,-0.21771,-0.04195,-0.30211,0.52801,-0.63241,0.22298,-0.60933,-0.38554,0.36742,0.056337,0.10964,-1.1295,0.53908,-0.023149,-0.15465,0.14119,-0.067154
-0.020684,0.0012126,0.072771,-0.024505,0.64626,-0.36999,0.11861,-0.24694,0.00095428,-0.2679,0.51546,-0.7884,0.24736,-0.69425,-0.42239,0.59742,0.051094,0.097106,-1.1199,0.77362,-0.026119,-0.11189,0.16587,-0.042231
-0.021405,0.0012453,0.069869,-0.013286,0.75234,-0.3314,0.12452,-0.27267,0.024088,-0.26567,0.48729,-0.9509,0.31036,-0.73204,-0.42114,0.72202,0.035807,0.075371,-0.98707,0.65877,-0.027083,-0.07468,0.20908,-0.051293
