-9.4536e-011,-6.6175e-010,1.8386e-009,1.2097e-009,-1.9486e-010,-3.7236e-010,3.8007e-010,1.0245e-009,-4.3506e-009,-2.3595e-009,-8.4484e-009,2.2829e-008,4.3737e-009,-5.7783e-009,-3.683e-009,8.9327e-010,1.9197e-009,2.892e-009,-5.6895e-009,1.2442e-008,-1.4296e-009,4.8599e-009,-1.8772e-009,2.155e-009
-2.9056e-009,-1.8383e-008,5.0511e-008,3.3312e-008,-5.2651e-009,-1.0185e-008,1.1271e-008,2.836e-008,-1.2002e-007,-6.3856e-008,-2.337e-007,6.2768e-007,1.2105e-007,-1.536e-007,-1.0095e-007,2.5221e-008,5.2989e-008,7.9859e-008,-1.5649e-007,3.4529e-007,-3.9513e-008,1.324e-007,-5.2195e-008,6.1357e-008
-4.3093e-008,-2.4827e-007,6.7469e-007,4.4622e-007,-6.9083e-008,-1.3553e-007,1.6219e-007,3.8177e-007,-1.6092e-006,-8.3716e-007,-3.1419e-006,8.3832e-006,1.628e-006,-1.9725e-006,-1.344e-006,3.4719e-007,7.1061e-007,1.0717e-006,-2.0926e-006,4.6619e-006,-5.3087e-007,1.7493e-006,-7.0647e-007,8.5048e-007
-4.1122e-007,-2.1718e-006,5.8381e-006,3.8736e-006,-5.8616e-007,-1.1683e-006,1.5082e-006,3.3292e-006,-1.397e-005,-7.0768e-006,-2.735e-005,7.2449e-005,1.4171e-005,-1.6276e-005,-1.1579e-005,3.1067e-006,6.1673e-006,9.3102e-006,-1.8123e-005,4.0801e-005,-4.6185e-006,1.4923e-005,-6.2031e-006,7.6467e-006
-2.84e-006,-1.3831e-005,3.6785e-005,2.4496e-005,-3.6124e-006,-7.3277e-006,1.0182e-005,2.1138e-005,-8.8253e-005,-4.3299e-005,-0.00017325,0.00045525,8.9718e-005,-9.6752e-005,-7.2537e-005,2.0326e-005,3.8928e-005,5.8852e-005,-0.00011427,0.00026022,-2.924e-005,9.2312e-005,-3.9721e-005,5.0128e-005
-1.5134e-005,-6.833e-005,0.00017983,0.00012023,-1.7212e-005,-3.56e-005,5.3152e-005,0.0001041,-0.00043223,-0.00020392,-0.00085074,0.0022156,0.00043998,-0.00043988,-0.00035193,0.0001037,0.00019036,0.00028838,-0.00055891,0.0012888,-0.00014351,0.00044064,-0.00019769,0.0002553
-6.4767e-005,-0.00027241,0.00070956,0.00047644,-6.5879e-005,-0.00013919,0.0002231,0.00041357,-0.0017069,-0.00076675,-0.0033685,0.0086836,0.0017378,-0.0015822,-0.0013751,0.0004297,0.00075006,0.0011394,-0.0022056,0.0051584,-0.00056781,0.0016854,-0.00079573,0.0010509
-0.00022871,-0.00090002,0.0023206,0.0015653,-0.00020759,-0.00044909,0.00077289,0.001361,-0.0055795,-0.0023532,-0.011041,0.028128,0.0056719,-0.0045799,-0.0044408,0.0014872,0.0024443,0.0037262,-0.0072105,0.017138,-0.001859,0.0052911,-0.0026609,0.0035899
-0.00067927,-0.0025106,0.0064084,0.0043429,-0.00054721,-0.0012154,0.0022507,0.0037787,-0.015373,-0.0059602,-0.030507,0.076648,0.015567,-0.010684,-0.012065,0.0043876,0.0067088,0.010275,-0.019885,0.048174,-0.0051273,0.013832,-0.0075336,0.010367
-0.0017205,-0.0059923,0.01514,0.010309,-0.0012177,-0.0027877,0.0055806,0.0089662,-0.03615,-0.012454,-0.071969,0.17781,0.036341,-0.019631,-0.02791,0.011207,0.015704,0.024194,-0.046836,0.11617,-0.01206,0.030311,-0.018307,0.025642
-0.0037537,-0.012352,0.030883,0.021124,-0.0022939,-0.0054454,0.011887,0.018346,-0.073142,-0.021072,-0.14618,0.35372,0.072623,-0.025999,-0.055384,0.025084,0.031617,0.049074,-0.094936,0.24278,-0.024376,0.055535,-0.038556,0.054799
-0.0071048,-0.022125,0.054705,0.037572,-0.0036407,-0.0090531,0.021879,0.032557,-0.12785,-0.027085,-0.25686,0.60511,0.1244,-0.015003,-0.094587,0.049674,0.05501,0.086191,-0.16607,0.44297,-0.042488,0.083615,-0.070843,0.10171
-0.011722,-0.03456,0.0844,0.058143,-0.004787,-0.012712,0.034906,0.050254,-0.19306,-0.020076,-0.39077,0.88812,0.18174,0.037887,-0.13886,0.087701,0.082844,0.13133,-0.24985,0.70937,-0.063791,0.0982,-0.114,0.1642
-0.016906,-0.047138,0.11344,0.078225,-0.0049968,-0.014797,0.048333,0.067521,-0.25047,0.014541,-0.51285,1.1076,0.2229,0.1579,-0.17407,0.13887,0.10779,0.17332,-0.31889,1.0008,-0.081893,0.074451,-0.16083,0.22995
-0.021357,-0.05613,0.13256,0.091123,-0.0036582,-0.01371,0.058111,0.078915,-0.27538,0.088921,-0.57467,1.1469,0.22086,0.35148,-0.18354,0.19808,0.12055,0.19705,-0.33279,1.2476,-0.088315,-0.0094214,-0.19861,0.2768
-0.023684,-0.0584,0.13428,0.091249,-0.00086479,-0.0092024,0.060881,0.080312,-0.24913,0.20284,-0.5378,0.93251,0.15843,0.58576,-0.15819,0.25511,0.11497,0.19111,-0.25363,1.3788,-0.076911,-0.15399,-0.21368,0.28067
-0.023207,-0.053567,0.11811,0.077973,0.0022337,-0.0033355,0.056521,0.072021,-0.17303,0.33667,-0.40042,0.49706,0.044042,0.78522,-0.10568,0.29653,0.092989,0.15603,-0.068111,1.3584,-0.04882,-0.32551,-0.19885,0.22893
-0.020472,-0.044868,0.092466,0.057299,0.0037621,1.8046e-005,0.049052,0.059637,-0.073166,0.45465,-0.20717,-0.013561,-0.085078,0.85946,-0.05025,0.30947,0.064891,0.10655,0.19642,1.2046,-0.014114,-0.46187,-0.15898,0.13142
-0.01699,-0.037523,0.07066,0.039265,0.0021502,-0.0026029,0.044453,0.051122,0.011287,0.52038,-0.029553,-0.41305,-0.1801,0.75534,-0.019958,0.28571,0.043111,0.063974,0.4744,0.97216,0.012396,-0.50102,-0.11033,0.019524
-0.014266,-0.035206,0.06268,0.032014,-0.0027694,-0.011626,0.046424,0.051563,0.051336,0.51681,0.074473,-0.58945,-0.2107,0.50161,-0.028153,0.22461,0.033122,0.042609,0.68588,0.7074,0.019548,-0.41694,-0.072311,-0.069263
-0.012832,-0.03714,0.06854,0.036516,-0.009495,-0.023616,0.053421,0.059487,0.047175,0.45694,0.093875,-0.57699,-0.18663,0.20905,-0.063363,0.13371,0.028789,0.03999,0.77068,0.41279,0.0067895,-0.23704,-0.056526,-0.11265
-0.012119,-0.038446,0.0786,0.046097,-0.015779,-0.033394,0.059841,0.067997,0.027251,0.37581,0.065438,-0.52194,-0.15132,0.014754,-0.097168,0.02708,0.017188,0.039562,0.71389,0.056332,-0.015848,-0.025107,-0.060226,-0.1153
-0.011274,-0.034064,0.08108,0.051478,-0.020096,-0.037793,0.06081,0.070146,0.026105,0.30781,0.041628,-0.56325,-0.14855,0.0025374,-0.1055,-0.077967,-0.0098184,0.024783,0.54849,-0.37571,-0.035257,0.1596,-0.069032,-0.1015
-0.01015,-0.023382,0.0709,0.047509,-0.022454,-0.037975,0.056491,0.06414,0.05741,0.26504,0.052219,-0.72436,-0.18679,0.15521,-0.086549,-0.1651,-0.046616,-0.006218,0.33499,-0.82862,-0.044667,0.29501,-0.066944,-0.094436
-0.0094892,-0.011531,0.052683,0.036273,-0.023895,-0.038138,0.051773,0.053868,0.10398,0.23254,0.090788,-0.90699,-0.23107,0.37508,-0.06009,-0.22316,-0.075811,-0.037621,0.13201,-1.1851,-0.047521,0.39361,-0.046546,-0.099675
-0.010066,-0.0056034,0.035751,0.02428,-0.025223,-0.041557,0.05134,0.04447,0.13328,0.18297,0.13372,-0.98831,-0.23159,0.55657,-0.048898,-0.24935,-0.080576,-0.047495,-0.024444,-1.3372,-0.053021,0.46812,-0.012588,-0.10675
-0.011657,-0.0084659,0.025934,0.01655,-0.026226,-0.047453,0.054633,0.037284,0.12553,0.098364,0.16983,-0.92984,-0.16713,0.65354,-0.058544,-0.24988,-0.057588,-0.024794,-0.12382,-1.273,-0.067646,0.49842,0.022427,-0.10587
-0.012923,-0.015418,0.021491,0.012867,-0.026113,-0.051595,0.055762,0.029134,0.090455,-0.017728,0.21088,-0.79861,-0.067357,0.6896,-0.073311,-0.23743,-0.019813,0.021868,-0.17001,-1.1038,-0.090237,0.4333,0.04634,-0.10155
-0.012459,-0.017051,0.016204,0.009177,-0.024645,-0.050182,0.04892,0.016587,0.058645,-0.14506,0.27447,-0.68699,0.0053485,0.71004,-0.070983,-0.22581,0.013076,0.070171,-0.16951,-0.99973,-0.11455,0.22993,0.053182,-0.10719
-0.010036,-0.0064498,0.0059281,0.0022541,-0.022699,-0.043486,0.034472,0.00080542,0.055326,-0.26174,0.35878,-0.61505,0.00078868,0.72373,-0.042218,-0.22413,0.028298,0.099136,-0.12896,-1.0758,-0.13601,-0.10118,0.044004,-0.12461
-0.0068348,0.015152,-0.0078717,-0.0070719,-0.021643,-0.035896,0.019832,-0.012148,0.079495,-0.35661,0.43667,-0.51295,-0.082995,0.68909,0.0030809,-0.23321,0.026327,0.10092,-0.061818,-1.3147,-0.15558,-0.4848,0.024212,-0.13043
-0.004367,0.039126,-0.020442,-0.01503,-0.022128,-0.032261,0.013789,-0.016284,0.10585,-0.4312,0.47627,-0.29906,-0.19962,0.55489,0.046937,-0.246,0.015868,0.081134,0.0061718,-1.5842,-0.17683,-0.81421,0.00073612,-0.089105
-0.003103,0.055984,-0.028783,-0.01888,-0.023507,-0.033683,0.019015,-0.01137,0.10675,-0.49348,0.4684,0.02642,-0.28763,0.31554,0.080115,-0.2513,0.0036176,0.04981,0.042344,-1.7301,-0.19929,-1.0032,-0.019072,0.012853
-0.002126,0.062108,-0.034013,-0.019562,-0.024415,-0.036336,0.029448,-0.0038578,0.074585,-0.55085,0.43367,0.36655,-0.30947,0.028463,0.10856,-0.23876,-0.011209,0.012429,0.02308,-1.6689,-0.21524,-1.0186,-0.027496,0.14128
-0.00012716,0.061117,-0.039054,-0.020415,-0.023939,-0.0342,0.035092,-0.0018841,0.025957,-0.607,0.40211,0.60662,-0.26834,-0.22222,0.14454,-0.20326,-0.0332,-0.031252,-0.051215,-1.4122,-0.21383,-0.87511,-0.017179,0.22676
0.003253,0.059374,-0.044724,-0.023432,-0.022247,-0.023459,0.030293,-0.0086928,-0.013734,-0.66179,0.38448,0.7095,-0.19615,-0.3821,0.19248,-0.14763,-0.062727,-0.080965,-0.15495,-1.0216,-0.18958,-0.60847,0.016698,0.21338
0.0070393,0.060258,-0.048758,-0.027033,-0.020222,-0.0052215,0.018494,-0.020211,-0.030201,-0.7113,0.36239,0.73577,-0.12822,-0.45338,0.24337,-0.08354,-0.092168,-0.12957,-0.25231,-0.55006,-0.14757,-0.25602,0.073665,0.10676
0.0097864,0.062346,-0.048792,-0.027757,-0.018565,0.015209,0.0095376,-0.028727,-0.027353,-0.74784,0.30576,0.77249,-0.085528,-0.47327,0.28233,-0.029633,-0.11025,-0.16354,-0.31743,-0.025485,-0.1008,0.14185,0.14639,-0.022216
0.010746,0.06239,-0.045882,-0.024219,-0.017225,0.031742,0.011883,-0.029269,-0.017652,-0.76251,0.20104,0.8427,-0.073022,-0.47049,0.30085,-0.0054922,-0.11035,-0.17078,-0.34512,0.5174,-0.061688,0.53136,0.22171,-0.088207
0.010207,0.059475,-0.044514,-0.019287,-0.015538,0.041239,0.02612,-0.023251,-0.0071021,-0.75104,0.064254,0.88319,-0.087505,-0.44359,0.30155,-0.022276,-0.095148,-0.1495,-0.34679,1.0055,-0.034847,0.84829,0.28457,-0.059614
0.0088878,0.056181,-0.048735,-0.018034,-0.012768,0.045353,0.044646,-0.016685,0.010337,-0.71953,-0.071327,0.8087,-0.12366,-0.37844,0.29184,-0.074097,-0.073954,-0.11103,-0.33922,1.3424,-0.016282,1.041,0.32364,0.012476
0.0073137,0.056054,-0.058208,-0.023199,-0.0085036,0.049514,0.057109,-0.01499,0.044429,-0.68408,-0.17977,0.59817,-0.17416,-0.28158,0.27415,-0.13652,-0.056083,-0.074333,-0.33753,1.4678,0.0016441,1.0968,0.33617,0.032041
0.0059712,0.060337,-0.068232,-0.03249,-0.002713,0.059626,0.056964,-0.018974,0.095487,-0.66211,-0.25696,0.32111,-0.22862,-0.19101,0.24311,-0.17587,-0.046269,-0.056513,-0.35637,1.4099,0.0246,1.0486,0.32907,-0.065231
0.0059135,0.067199,-0.073945,-0.040485,0.0043194,0.078149,0.044478,-0.024984,0.14949,-0.66022,-0.31457,0.08282,-0.27658,-0.15131,0.19282,-0.1661,-0.045084,-0.065468,-0.41184,1.2788,0.054284,0.95311,0.3151,-0.25826
0.0087233,0.073879,-0.074839,-0.043474,0.011927,0.10178,0.025061,-0.028471,0.18637,-0.66787,-0.36293,-0.057204,-0.31341,-0.17844,0.12676,-0.10349,-0.051834,-0.098401,-0.51552,1.1987,0.089942,0.85759,0.30595,-0.45384
0.015355,0.079327,-0.075341,-0.042726,0.018943,0.12246,0.0052664,-0.027573,0.19418,-0.66254,-0.40083,-0.11991,-0.34211,-0.25158,0.060144,-0.0093848,-0.065751,-0.14515,-0.66176,1.2301,0.13019,0.77883,0.3066,-0.55557
0.024795,0.084793,-0.080842,-0.043026,0.02388,0.13174,-0.010426,-0.023861,0.17696,-0.62366,-0.42032,-0.17047,-0.36685,-0.34172,0.01183,0.081757,-0.084492,-0.19319,-0.82014,1.3421,0.17284,0.7074,0.31493,-0.53195
0.03406,0.091999,-0.092684,-0.04782,0.025606,0.12637,-0.020683,-0.020213,0.15029,-0.54518,-0.41871,-0.25322,-0.38276,-0.44768,-0.0079498,0.14145,-0.10291,-0.23224,-0.94448,1.4488,0.21357,0.62741,0.32624,-0.43085
0.039939,0.1008,-0.10654,-0.055544,0.024211,0.11112,-0.026756,-0.018139,0.12904,-0.43822,-0.4039,-0.3593,-0.3721,-0.59957,-0.0038848,0.16106,-0.11513,-0.25767,-0.99651,1.4766,0.24603,0.53317,0.33834,-0.33461
0.041124,0.1085,-0.11561,-0.060695,0.02137,0.096551,-0.031285,-0.016955,0.11776,-0.32248,-0.3877,-0.44943,-0.31286,-0.8205,0.0085717,0.15206,-0.11884,-0.27226,-0.96814,1.4073,0.26427,0.43121,0.35228,-0.29764
0.03888,0.1115,-0.11598,-0.058755,0.019708,0.092164,-0.036874,-0.015184,0.11051,-0.21367,-0.37507,-0.4991,-0.19501,-1.0816,0.013873,0.13433,-0.11752,-0.28469,-0.88486,1.2704,0.26571,0.3315,0.36783,-0.31684
0.035694,0.10803,-0.10971,-0.050491,0.021374,0.099683,-0.04461,-0.012566,0.098635,-0.11593,-0.36084,-0.5179,-0.031973,-1.2976,0.0054222,0.12274,-0.11758,-0.30414,-0.78668,1.1028,0.25195,0.23903,0.37858,-0.35004
0.033286,0.099663,-0.10319,-0.041682,0.026751,0.11158,-0.053197,-0.010742,0.078893,-0.023304,-0.33704,-0.52772,0.14265,-1.378,-0.012476,0.12187,-0.12245,-0.33342,-0.70092,0.91326,0.22701,0.15273,0.37229,-0.3558
0.031783,0.090428,-0.10222,-0.038473,0.034238,0.11657,-0.059717,-0.01211,0.055506,0.07264,-0.30275,-0.52971,0.29158,-1.2956,-0.029349,0.13072,-0.12922,-0.3655,-0.62781,0.67719,0.1949,0.069391,0.33822,-0.31619
0.030518,0.08372,-0.10755,-0.042436,0.041316,0.10828,-0.062026,-0.01799,0.035513,0.17505,-0.26633,-0.50021,0.392,-1.1157,-0.035771,0.15017,-0.13121,-0.3871,-0.54926,0.3599,0.15888,-0.012597,0.27601,-0.22952
0.029272,0.079422,-0.11432,-0.04955,0.046161,0.090539,-0.061137,-0.027637,0.022283,0.27873,-0.2379,-0.42269,0.44309,-0.95769,-0.028952,0.18422,-0.12438,-0.38717,-0.4521,-0.053403,0.12241,-0.091591,0.19819,-0.09339
0.028568,0.073777,-0.11571,-0.053795,0.048621,0.074992,-0.061362,-0.038755,0.01279,0.37251,-0.21961,-0.32193,0.45939,-0.91629,-0.014685,0.23317,-0.11129,-0.36417,-0.34516,-0.53937,0.089396,-0.16127,0.12296,0.094565
0.028873,0.062677,-0.10813,-0.052052,0.049934,0.072779,-0.067566,-0.048872,0.00060203,0.44509,-0.20281,-0.26002,0.45718,-1.0048,-0.0053465,0.28584,-0.098956,-0.3263,-0.25547,-1.0371,0.062072,-0.20972,0.062157,0.31455
0.02984,0.04605,-0.093995,-0.046188,0.051502,0.08663,-0.081447,-0.056505,-0.018269,0.49119,-0.17454,-0.29001,0.44446,-1.1604,-0.014555,0.32041,-0.092587,-0.28472,-0.20648,-1.4654,0.037814,-0.22347,0.013862,0.50734
0.030539,0.029396,-0.080274,-0.040897,0.053781,0.10917,-0.099906,-0.061396,-0.041735,0.51497,-0.12719,-0.40585,0.42035,-1.3003,-0.050237,0.31617,-0.091095,-0.24573,-0.19729,-1.7516,0.0088382,-0.19914,-0.03379,0.59052
0.030381,0.020382,-0.073539,-0.039563,0.05615,0.12819,-0.11694,-0.063922,-0.063574,0.52806,-0.063683,-0.53553,0.38179,-1.3767,-0.10919,0.26778,-0.088486,-0.20813,-0.20043,-1.8619,-0.032711,-0.15711,-0.090474,0.50752
0.029628,0.022633,-0.075237,-0.041771,0.057777,0.13439,-0.12756,-0.064298,-0.079813,0.54241,0.0049698,-0.58773,0.33038,-1.3878,-0.17637,0.19057,-0.079409,-0.16709,-0.1803,-1.8202,-0.086464,-0.14394,-0.15316,0.27479
0.028881,0.03189,-0.080563,-0.044263,0.058611,0.12626,-0.13067,-0.062273,-0.094425,0.5615,0.066754,-0.51531,0.2741,-1.3444,-0.23005,0.11169,-0.0635,-0.12021,-0.11626,-1.7002,-0.1386,-0.2149,-0.20656,-0.013668
0.028172,0.038325,-0.081881,-0.04401,0.059553,0.10948,-0.12886,-0.057567,-0.11888,0.57647,0.11494,-0.34447,0.2237,-1.2364,-0.25066,0.054139,-0.044703,-0.070065,-0.011381,-1.5898,-0.16518,-0.40304,-0.23498,-0.23387
0.026798,0.033712,-0.074289,-0.040525,0.061609,0.092566,-0.12576,-0.050672,-0.16426,0.57114,0.15016,-0.1484,0.18738,-1.0374,-0.22885,0.025695,-0.026772,-0.02158,0.11886,-1.5451,-0.14377,-0.69444,-0.23658,-0.29992
0.024152,0.017714,-0.059239,-0.035689,0.0648,0.082062,-0.12334,-0.043168,-0.23072,0.53364,0.17815,0.0084631,0.16779,-0.74526,-0.16916,0.019823,-0.009586,0.022643,0.26505,-1.5613,-0.06645,-1.0273,-0.22819,-0.20464
0.020643,-0.0020052,-0.043539,-0.031807,0.067885,0.079735,-0.12101,-0.03697,-0.30267,0.46621,0.20522,0.10919,0.16268,-0.41729,-0.087905,0.024945,0.010291,0.064313,0.43092,-1.5818,0.054323,-1.3168,-0.23589,-0.0084825
0.017574,-0.015929,-0.034501,-0.029927,0.069267,0.082499,-0.11678,-0.032904,-0.355,0.38546,0.23429,0.17962,0.16781,-0.15463,-0.0068398,0.032826,0.035673,0.10714,0.62189,-1.536,0.1909,-1.4892,-0.2777,0.20689
0.015961,-0.019868,-0.034839,-0.029665,0.068336,0.084547,-0.10912,-0.029844,-0.36767,0.3126,0.26338,0.25356,0.17945,-0.037904,0.054997,0.040209,0.065312,0.15267,0.82612,-1.3816,0.3132,-1.5076,-0.35106,0.38141
0.015497,-0.017304,-0.040996,-0.030099,0.066055,0.080664,-0.098108,-0.02547,-0.33888,0.26161,0.28733,0.34266,0.19536,-0.062732,0.088261,0.045792,0.094015,0.19805,1.0076,-1.1205,0.4011,-1.378,-0.43432,0.48912
0.014841,-0.015472,-0.045882,-0.030396,0.064195,0.069234,-0.08546,-0.018279,-0.28671,0.23457,0.30123,0.43372,0.21411,-0.13228,0.096614,0.048367,0.11593,0.2375,1.1209,-0.78472,0.44972,-1.1405,-0.50077,0.52576
0.013042,-0.019109,-0.043807,-0.029725,0.063864,0.053222,-0.073585,-0.0091622,-0.23734,0.22685,0.30304,0.50683,0.23463,-0.1199,0.094506,0.048633,0.12798,0.26579,1.1384,-0.41119,0.46681,-0.8547,-0.53439,0.49632
0.010664,-0.027301,-0.03399,-0.027131,0.0646,0.038235,-0.064486,-0.00095433,-0.20817,0.23547,0.29362,0.55162,0.25646,0.043422,0.099543,0.051436,0.13075,0.2808,1.07,-0.029841,0.46577,-0.58379,-0.53581,0.41786
0.0093455,-0.035475,-0.02042,-0.022206,0.064811,0.02869,-0.059085,0.0038421,-0.19807,0.26225,0.27498,0.56735,0.28085,0.32449,0.12268,0.064093,0.12676,0.28358,0.95934,0.32788,0.45919,-0.37816,-0.51555,0.32829
0.010086,-0.039995,-0.0086662,-0.016168,0.063126,0.024729,-0.057242,0.005189,-0.19131,0.30877,0.24917,0.55372,0.31136,0.6193,0.16165,0.090875,0.11804,0.27669,0.85892,0.61551,0.45534,-0.26085,-0.48198,0.27988
0.01193,-0.040954,-0.0022485,-0.011942,0.059443,0.022239,-0.058278,0.0055071,-0.17096,0.36932,0.21928,0.50798,0.35317,0.8329,0.20207,0.12846,0.10494,0.26245,0.80154,0.77494,0.45751,-0.21993,-0.43469,0.31069
0.012492,-0.041108,-0.0010996,-0.012394,0.054734,0.015965,-0.061425,0.0074668,-0.13056,0.42987,0.19126,0.43332,0.41111,0.94365,0.22589,0.16661,0.086752,0.2422,0.78629,0.76167,0.46464,-0.21348,-0.36839,0.41349
0.0099961,-0.042632,-0.0026945,-0.01772,0.049861,0.0033055,-0.065794,0.011567,-0.075951,0.4754,0.17343,0.34715,0.4871,1.006,0.2219,0.1933,0.063164,0.21658,0.78712,0.57402,0.47262,-0.18698,-0.28251,0.53174
0.0049756,-0.045138,-0.0043662,-0.024338,0.044536,-0.014054,-0.069982,0.015697,-0.017914,0.49926,0.17262,0.27498,0.57773,1.0974,0.19139,0.19963,0.035416,0.18627,0.77618,0.26151,0.47589,-0.096104,-0.18717,0.59312
-6.0225e-005,-0.046771,-0.004764,-0.026827,0.037456,-0.031656,-0.071971,0.017039,0.036348,0.50581,0.18934,0.23064,0.67326,1.2569,0.14582,0.18132,0.0066549,0.15305,0.74542,-0.095719,0.46939,0.074707,-0.099712,0.55836
-0.0027733,-0.047003,-0.0036155,-0.021873,0.027584,-0.04543,-0.069809,0.014595,0.085728,0.50357,0.21651,0.20061,0.75921,1.4603,0.099408,0.1382,-0.018478,0.1207,0.71231,-0.42051,0.45014,0.30458,-0.034911,0.44748
-0.0030163,-0.048071,-0.00067772,-0.011151,0.015458,-0.054068,-0.062807,0.010191,0.13124,0.49498,0.24386,0.14955,0.82102,1.6405,0.062518,0.074779,-0.034893,0.095077,0.70678,-0.66052,0.41802,0.54213,0.0028146,0.32198
-0.0028556,-0.053312,0.0046203,-0.00053291,0.0032733,-0.059197,-0.052282,0.0072558,0.17114,0.47256,0.2652,0.045452,0.84995,1.7299,0.039804,0.0021133,-0.038567,0.082598,0.74935,-0.78799,0.37526,0.72395,0.019393,0.23733
-0.0046066,-0.06371,0.012322,0.0041013,-0.0065146,-0.06369,-0.041117,0.0084997,0.20052,0.42573,0.28303,-0.11649,0.84601,1.6906,0.031915,-0.063145,-0.028084,0.087313,0.83616,-0.78913,0.32511,0.80057,0.024784,0.20391
-0.0087392,-0.075961,0.020871,0.0012297,-0.012988,-0.069562,-0.0323,0.014245,0.21552,0.35317,0.3065,-0.31242,0.81477,1.5229,0.037156,-0.10553,-0.0053961,0.1085,0.94214,-0.66308,0.27047,0.75983,0.026851,0.18619
-0.013554,-0.084277,0.027297,-0.0052991,-0.017411,-0.076762,-0.027456,0.02234,0.21746,0.2702,0.34411,-0.51179,0.75964,1.2586,0.051186,-0.12051,0.024865,0.14072,1.0397,-0.4353,0.21286,0.63467,0.030209,0.13781
-0.016782,-0.084763,0.029003,-0.0094477,-0.022091,-0.083392,-0.026345,0.02935,0.21283,0.20378,0.3967,-0.70213,0.67623,0.95173,0.066595,-0.11908,0.057361,0.17669,1.1178,-0.16975,0.15249,0.48753,0.038831,0.04118
-0.017486,-0.078592,0.02584,-0.0077408,-0.028398,-0.087077,-0.027451,0.03207,0.20906,0.1777,0.45582,-0.89418,0.55492,0.66834,0.075216,-0.12125,0.088168,0.21093,1.1859,0.041192,0.089283,0.3776,0.057318,-0.080058
-0.016534,-0.071003,0.020603,-0.0017239,-0.035673,-0.086592,-0.029062,0.028568,0.21009,0.19803,0.50847,-1.1037,0.39097,0.47135,0.072905,-0.14173,0.11571,0.2412,1.2574,0.11189,0.024102,0.33058,0.08786,-0.18309
-0.015464,-0.066814,0.017245,0.0036932,-0.041932,-0.082699,-0.030054,0.018458,0.21523,0.24939,0.54439,-1.3283,0.19375,0.40063,0.062699,-0.1787,0.13995,0.26694,1.3279,0.0025879,-0.041034,0.33173,0.12566,-0.24072
-0.015083,-0.06653,0.018111,0.0043717,-0.04564,-0.077635,-0.030106,0.0024589,0.22135,0.30436,0.56093,-1.5402,-0.01357,0.45842,0.052522,-0.21562,0.16069,0.28637,1.3657,-0.2655,-0.10448,0.34717,0.15872,-0.25959
-0.015156,-0.066709,0.022433,5.852e-005,-0.046897,-0.073666,-0.029554,-0.01849,0.22573,0.3392,0.56292,-1.7016,-0.205,0.60963,0.048433,-0.23513,0.17631,0.29526,1.327,-0.62809,-0.1673,0.35694,0.17463,-0.26928
-0.015217,-0.064306,0.027417,-0.0058154,-0.047165,-0.071928,-0.0292,-0.04409,0.22715,0.34497,0.55864,-1.786,-0.36447,0.79565,0.04929,-0.23416,0.18404,0.28881,1.1852,-1.0109,-0.23415,0.37321,0.17005,-0.29536
-0.015358,-0.060747,0.031003,-0.009008,-0.048125,-0.072499,-0.03013,-0.074928,0.22532,0.32728,0.55534,-1.7871,-0.48974,0.95152,0.048244,-0.22757,0.18183,0.265,0.95262,-1.3497,-0.3107,0.42791,0.1549,-0.34071
-0.016082,-0.061442,0.033852,-0.0073919,-0.050913,-0.075406,-0.033375,-0.11173,0.22029,0.29721,0.55691,-1.7116,-0.58517,1.0175,0.040393,-0.23765,0.17049,0.22688,0.67795,-1.5878,-0.39858,0.53924,0.1465,-0.38912
-0.017488,-0.070682,0.038623,-0.0018151,-0.056165,-0.08124,-0.039303,-0.15389,0.21271,0.26158,0.564,-1.567,-0.65118,0.94681,0.029761,-0.2778,0.1549,0.18231,0.42075,-1.6668,-0.4914,0.68414,0.15744,-0.42423
-0.018875,-0.086481,0.046983,0.0051224,-0.064111,-0.090331,-0.04705,-0.19817,0.20405,0.22026,0.57509,-1.3595,-0.6813,0.71453,0.028699,-0.34314,0.14302,0.14149,0.22282,-1.5357,-0.57565,0.80083,0.18647,-0.44467
-0.019329,-0.1005,0.056986,0.010836,-0.074002,-0.10105,-0.054551,-0.23864,0.19578,0.17081,0.58695,-1.1026,-0.66965,0.32834,0.049256,-0.41419,0.14254,0.11386,0.09527,-1.1866,-0.63694,0.82221,0.21976,-0.46235
-0.018692,-0.10382,0.063465,0.013728,-0.083398,-0.10916,-0.059509,-0.26825,0.18801,0.11457,0.59447,-0.82361,-0.62202,-0.17013,0.093238,-0.4691,0.15655,0.10526,0.026658,-0.6896,-0.66705,0.71698,0.24117,-0.48768
-0.017798,-0.093845,0.061636,0.013269,-0.088718,-0.10969,-0.060881,-0.28147,0.17911,0.057565,0.59111,-0.55511,-0.56013,-0.71994,0.14887,-0.49498,0.1806,0.11583,0.0010037,-0.19021,-0.66672,0.50914,0.24296,-0.51701
-0.017638,-0.076542,0.051177,0.0099019,-0.087525,-0.10051,-0.05976,-0.27658,0.16754,0.0049944,0.57085,-0.31371,-0.51517,-1.2645,0.19627,-0.49184,0.20402,0.13959,0.0097829,0.14754,-0.64216,0.26297,0.22854,-0.53389
-0.018274,-0.061867,0.037279,0.0050967,-0.080936,-0.084873,-0.058749,-0.25643,0.15437,-0.045004,0.53093,-0.084126,-0.51506,-1.765,0.21681,-0.46964,0.21543,0.16676,0.050506,0.2278,-0.59897,0.045804,0.20592,-0.52204
-0.018726,-0.056499,0.02747,0.0011341,-0.073647,-0.070107,-0.060015,-0.22717,0.14393,-0.10172,0.47285,0.17614,-0.57345,-2.1917,0.19955,-0.44298,0.20973,0.18838,0.11705,0.086664,-0.53942,-0.10443,0.17827,-0.47761
-0.018036,-0.059878,0.026466,0.00016393,-0.070753,-0.062672,-0.063364,-0.19551,0.14117,-0.17473,0.40028,0.51117,-0.68492,-2.506,0.14198,-0.42593,0.19148,0.20041,0.19233,-0.11193,-0.46553,-0.18703,0.13998,-0.40998
-0.016509,-0.066333,0.033023,0.0028762,-0.073598,-0.062918,-0.06577,-0.16598,0.14752,-0.26503,0.31463,0.93724,-0.8264,-2.6594,0.047752,-0.42719,0.17138,0.20405,0.24965,-0.15295,-0.38416,-0.22183,0.081081,-0.33184
-0.015827,-0.0706,0.041163,0.0078503,-0.078292,-0.063993,-0.062699,-0.13953,0.15856,-0.36219,0.21181,1.4292,-0.96286,-2.6238,-0.074852,-0.44577,0.15791,0.20134,0.2608,0.1203,-0.30807,-0.22559,-0.0036614,-0.24892
-0.017754,-0.071525,0.044735,0.012334,-0.078527,-0.056437,-0.050274,-0.11441,0.16566,-0.4507,0.083335,1.9303,-1.0571,-2.4328,-0.21322,-0.47025,0.15021,0.1898,0.20515,0.7249,-0.24997,-0.20042,-0.10832,-0.15871
-0.0225,-0.071311,0.041761,0.014045,-0.070593,-0.035477,-0.027076,-0.088815,0.16038,-0.52012,-0.077924,2.376,-1.0816,-2.1927,-0.35224,-0.48516,0.13817,0.16145,0.075654,1.5295,-0.21369,-0.14058,-0.21616,-0.058756
-0.028202,-0.072138,0.035455,0.012657,-0.056416,-0.0053709,0.0050443,-0.063513,0.13854,-0.57034,-0.27076,2.7171,-1.0285,-2.0357,-0.47882,-0.48213,0.11021,0.10845,-0.11845,2.321,-0.19008,-0.048063,-0.30614,0.044271
-0.032073,-0.073982,0.031473,0.0098381,-0.042093,0.022886,0.041098,-0.042398,0.10126,-0.60771,-0.48197,2.9308,-0.91015,-2.0387,-0.58638,-0.4671,0.063201,0.031734,-0.35132,2.907,-0.16232,0.0579,-0.36107,0.1338
-0.032398,-0.075421,0.033654,0.007871,-0.033245,0.039007,0.074062,-0.030253,0.053419,-0.63635,-0.68845,3.0177,-0.74926,-2.1651,-0.67429,-0.45529,0.0066076,-0.054798,-0.58375,3.1965,-0.11747,0.14602,-0.37359,0.19268
-0.029841,-0.075774,0.041336,0.0079729,-0.031105,0.040261,0.097143,-0.029032,0.0015115,-0.65404,-0.86364,2.9914,-0.56538,-2.2792,-0.74126,-0.4547,-0.042349,-0.12888,-0.77226,3.2188,-0.055696,0.1889,-0.34787,0.21535
-0.027019,-0.07583,0.049936,0.0095944,-0.032363,0.032445,0.1068,-0.035496,-0.047681,-0.65714,-0.98474,2.8647,-0.36764,-2.2308,-0.77838,-0.45153,-0.069286,-0.17128,-0.88367,3.0777,0.0098152,0.17789,-0.2974,0.21284
-0.026599,-0.076434,0.054159,0.011091,-0.032524,0.024491,0.1049,-0.042344,-0.087796,-0.64962,-1.0376,2.639,-0.15938,-1.9494,-0.76925,-0.41218,-0.071386,-0.17648,-0.90934,2.8811,0.062211,0.12643,-0.23972,0.20618
-0.029256,-0.076808,0.051505,0.011094,-0.029812,0.021347,0.097992,-0.042424,-0.11416,-0.64551,-1.0187,2.3025,0.051601,-1.4816,-0.69967,-0.305,-0.058522,-0.15558,-0.87041,2.6907,0.092332,0.060489,-0.18995,0.2123
-0.033049,-0.074781,0.043727,0.0094535,-0.026592,0.020862,0.093533,-0.033093,-0.12566,-0.65921,-0.93481,1.8434,0.24914,-0.94932,-0.57014,-0.12718,-0.046768,-0.12996,-0.8088,2.5181,0.10384,0.0036556,-0.15538,0.23261
-0.0348,-0.068978,0.035426,0.0071343,-0.027465,0.016763,0.095194,-0.017455,-0.12566,-0.68975,-0.80244,1.2734,0.41676,-0.4665,-0.40052,0.085187,-0.049365,-0.12023,-0.76771,2.3547,0.10905,-0.032882,-0.13366,0.25235
-0.032585,-0.060769,0.030935,0.0053219,-0.035616,0.0047738,0.10081,-0.0015708,-0.12057,-0.71294,-0.64482,0.64984,0.55096,-0.077772,-0.2214,0.27434,-0.070962,-0.13752,-0.77246,2.2008,0.11952,-0.050188,-0.11563,0.25119
-0.02742,-0.053828,0.03174,0.0046114,-0.050072,-0.01331,0.1046,0.010174,-0.11628,-0.69115,-0.48705,0.074055,0.66562,0.24286,-0.057833,0.39457,-0.10765,-0.18088,-0.82241,2.0657,0.13857,-0.054344,-0.091475,0.21765
-0.02262,-0.05141,0.036091,0.0048896,-0.065736,-0.030684,0.10181,0.017985,-0.11481,-0.5967,-0.34907,-0.34076,0.78098,0.54633,0.082229,0.4374,-0.15109,-0.24088,-0.89691,1.9448,0.16046,-0.0499,-0.056412,0.15671
-0.021115,-0.053633,0.040715,0.0057886,-0.07625,-0.040532,0.092133,0.025842,-0.11371,-0.43274,-0.2398,-0.52143,0.90496,0.86006,0.20584,0.42957,-0.19316,-0.30544,-0.96919,1.7986,0.17565,-0.039354,-0.012519,0.085178
-0.022842,-0.057165,0.043047,0.0070742,-0.077841,-0.040799,0.079308,0.038021,-0.10852,-0.23609,-0.15598,-0.47505,1.0238,1.1725,0.32176,0.40746,-0.22836,-0.36448,-1.018,1.5612,0.17725,-0.027028,0.033932,0.01844
-0.024566,-0.05769,0.04235,0.0085439,-0.071506,-0.035109,0.067764,0.055949,-0.096617,-0.058593,-0.087329,-0.28996,1.1113,1.451,0.42767,0.39022,-0.2539,-0.41156,-1.031,1.1768,0.16408,-0.020978,0.077055,-0.040927
-0.022595,-0.053148,0.03932,0.0096893,-0.061935,-0.029389,0.059268,0.077705,-0.079503,0.060858,-0.024768,-0.093579,1.1497,1.6695,0.5091,0.37324,-0.26851,-0.44291,-1.002,0.63695,0.13912,-0.028719,0.11403,-0.10304
-0.016236,-0.045123,0.035056,0.0097414,-0.053897,-0.027061,0.052176,0.099891,-0.062011,0.11538,0.03377,0.007865,1.1422,1.8207,0.55091,0.34385,-0.27154,-0.45563,-0.927,-0.010727,0.10549,-0.04963,0.144,-0.17844
-0.0089086,-0.037321,0.030455,0.0083014,-0.048945,-0.026646,0.043325,0.11963,-0.049048,0.12879,0.084176,-0.028176,1.1063,1.9113,0.55112,0.30052,-0.26271,-0.44705,-0.80501,-0.69056,0.063845,-0.071857,0.16502,-0.26312
-0.0056461,-0.032481,0.026229,0.0059765,-0.045093,-0.02361,0.030647,0.13481,-0.042217,0.13686,0.12275,-0.17743,1.053,1.9512,0.52489,0.25485,-0.24268,-0.41608,-0.64342,-1.3404,0.013179,-0.078779,0.17269,-0.33411
-0.0089112,-0.030264,0.022976,0.0042107,-0.039649,-0.014901,0.01461,0.14295,-0.038685,0.16494,0.15287,-0.37907,0.97201,1.949,0.49439,0.21392,-0.21381,-0.36562,-0.46205,-1.935,-0.045899,-0.061528,0.16283,-0.36148
-0.016307,-0.027739,0.020866,0.0042126,-0.032475,-0.0023409,-0.0020571,0.14095,-0.033125,0.21654,0.18568,-0.57419,0.83946,1.9142,0.4726,0.16319,-0.18052,-0.30387,-0.29083,-2.4747,-0.1085,-0.027451,0.13639,-0.32996
-0.022281,-0.021832,0.019225,0.0058743,-0.026479,0.0080672,-0.015629,0.1271,-0.021523,0.27769,0.23329,-0.72884,0.64234,1.8592,0.45363,0.073133,-0.1486,-0.24252,-0.15914,-2.9541,-0.16602,0.0033749,0.10169,-0.25395
-0.022455,-0.011632,0.016713,0.0077475,-0.024749,0.010533,-0.022865,0.10431,-0.0042299,0.33077,0.29924,-0.83451,0.39992,1.7977,0.41696,-0.067853,-0.12313,-0.19181,-0.082079,-3.3386,-0.21008,0.011706,0.070766,-0.17274
-0.016901,0.001143,0.012246,0.0082004,-0.027001,0.0039851,-0.022359,0.081043,0.013988,0.36631,0.37375,-0.89505,0.16175,1.7418,0.3416,-0.22032,-0.10577,-0.15555,-0.052205,-3.5707,-0.237,-0.0078958,0.05123,-0.12699
-0.0096665,0.013447,0.0059755,0.0067347,-0.028864,-0.0070773,-0.015522,0.067694,0.027175,0.38572,0.43804,-0.9139,-0.018036,1.7011,0.21945,-0.29562,-0.09332,-0.12964,-0.043492,-3.6017,-0.24922,-0.045037,0.040231,-0.13242
-0.0051685,0.022613,-0.00056542,0.0042714,-0.024889,-0.016075,-0.0065331,0.069979,0.032459,0.3963,0.47529,-0.88901,-0.11105,1.6836,0.058982,-0.20519,-0.078914,-0.10537,-0.026251,-3.4228,-0.25227,-0.083278,0.026355,-0.17034
-0.0047418,0.027286,-0.0053523,0.0022295,-0.01271,-0.019204,-0.00063625,0.08428,0.032089,0.4051,0.48029,-0.81476,-0.12756,1.6921,-0.12067,0.070238,-0.055594,-0.075457,0.016413,-3.0731,-0.24942,-0.11248,-0.00041544,-0.20264
-0.006194,0.027562,-0.0071101,0.001353,0.0052794,-0.017689,-0.0012026,0.099324,0.031469,0.41631,0.46087,-0.68619,-0.10495,1.7183,-0.29855,0.44321,-0.02028,-0.038286,0.081642,-2.6203,-0.23845,-0.13291,-0.037732,-0.19963
-0.0063629,0.0249,-0.005989,0.0013706,0.023995,-0.015958,-0.0074012,0.1037,0.034555,0.43173,0.43017,-0.50236,-0.083367,1.7376,-0.45709,0.75155,0.024509,0.0023991,0.15345,-2.129,-0.21365,-0.14869,-0.068056,-0.15819
-0.0040916,0.021849,-0.0033193,0.0016404,0.039365,-0.017795,-0.014495,0.093683,0.040348,0.451,0.39605,-0.268,-0.08714,1.7148,-0.5825,0.84928,0.072182,0.041801,0.2167,-1.6387,-0.17165,-0.1587,-0.067823,-0.095996
-0.0010253,0.021063,-0.00077787,0.0019813,0.050496,-0.023819,-0.017057,0.075227,0.04351,0.47028,0.35546,0.0064292,-0.12111,1.6172,-0.66385,0.69944,0.11564,0.078464,0.26688,-1.1628,-0.11635,-0.15529,-0.023291,-0.028199
0.00012837,0.023545,0.00046725,0.0028463,0.059011,-0.031868,-0.012944,0.058593,0.038745,0.48228,0.29763,0.3056,-0.17777,1.4282,-0.69384,0.4035,0.15036,0.11495,0.30891,-0.70532,-0.058472,-0.13328,0.058009,0.050306
-0.0019668,0.027347,0.00026171,0.0047783,0.066942,-0.039077,-0.0049467,0.050327,0.025342,0.48,0.21254,0.60998,-0.24498,1.1511,-0.67116,0.14187,0.17519,0.15407,0.34767,-0.27974,-0.0094452,-0.101,0.14897,0.15832
-0.0062455,0.028499,-0.00055798,0.0077816,0.075305,-0.043472,0.0012834,0.049197,0.007998,0.46241,0.097873,0.89497,-0.30929,0.80254,-0.60152,0.062507,0.19081,0.19387,0.37998,0.084266,0.025278,-0.081669,0.2174,0.30102
-0.010177,0.024355,-0.00081862,0.011198,0.084047,-0.044188,0.0014196,0.048906,-0.006859,0.43632,-0.040593,1.1289,-0.35769,0.40573,-0.496,0.19247,0.19765,0.22617,0.39476,0.35175,0.048214,-0.1018,0.24392,0.44722
-0.011573,0.017048,-0.00016204,0.01408,0.092487,-0.04123,-0.0045588,0.044388,-0.016251,0.41109,-0.19392,1.2733,-0.38212,-0.0070955,-0.36798,0.43201,0.19525,0.24112,0.37976,0.50566,0.065806,-0.17486,0.23163,0.53628
-0.0097938,0.013697,-1.0968e-005,0.015626,0.099384,-0.035819,-0.012798,0.035805,-0.023097,0.38978,-0.35514,1.289,-0.3858,-0.38335,-0.23107,0.63146,0.18346,0.2352,0.32731,0.56757,0.082461,-0.29281,0.20204,0.51533
-0.0057106,0.022078,-0.0033063,0.015354,0.10298,-0.030989,-0.018721,0.027229,-0.03396,0.36496,-0.51989,1.1497,-0.38484,-0.6449,-0.098796,0.69264,0.16456,0.21594,0.23423,0.59937,0.098047,-0.43098,0.18123,0.37918
-0.00081126,0.044375,-0.012551,0.013115,0.10186,-0.031081,-0.020118,0.022233,-0.053873,0.32429,-0.68239,0.85619,-0.40059,-0.7052,0.015617,0.62233,0.14392,0.19852,0.097862,0.6789,0.11032,-0.56024,0.18611,0.17879
0.0037685,0.073939,-0.027187,0.0091924,0.096524,-0.039543,-0.017837,0.021093,-0.082218,0.26171,-0.8315,0.44377,-0.4459,-0.50916,0.10085,0.50562,0.128,0.19511,-0.084522,0.85911,0.11867,-0.65574,0.21879,-0.011541
0.0077311,0.098309,-0.042504,0.004471,0.090064,-0.056352,-0.014079,0.022029,-0.11258,0.18424,-0.95131,-0.023967,-0.51473,-0.073322,0.15025,0.42842,0.12045,0.20519,-0.30995,1.1355,0.12458,-0.69792,0.27017,-0.14334
0.011473,0.10697,-0.051699,0.00034085,0.086746,-0.077375,-0.010267,0.024488,-0.13641,0.10757,-1.0272,-0.47283,-0.58309,0.50492,0.16366,0.41343,0.11911,0.21504,-0.56173,1.4458,0.12816,-0.67138,0.32713,-0.21998
0.01548,0.098272,-0.050291,-0.0019239,0.089015,-0.096725,-0.0064124,0.030567,-0.14772,0.043888,-1.0528,-0.83882,-0.62061,1.0835,0.14698,0.41621,0.11669,0.20825,-0.80761,1.7063,0.1248,-0.56946,0.37742,-0.27972
0.019638,0.080105,-0.03973,-0.0020309,0.095333,-0.11069,-0.0021263,0.042893,-0.14555,-0.0072406,-1.0327,-1.0835,-0.60477,1.5385,0.11005,0.37558,0.10529,0.1791,-1.0084,1.8625,0.10649,-0.40426,0.41019,-0.3529
0.022943,0.063826,-0.02699,-0.001058,0.10083,-0.1203,0.0020927,0.061154,-0.13298,-0.056485,-0.97879,-1.2001,-0.52889,1.811,0.06442,0.27071,0.081918,0.13795,-1.1331,1.9179,0.067486,-0.21222,0.41486,-0.43241
0.023942,0.056096,-0.019848,-0.00083413,0.10038,-0.13049,0.0046792,0.080933,-0.11401,-0.1128,-0.90445,-1.2119,-0.40141,1.908,0.02189,0.13709,0.050823,0.10344,-1.1705,1.9193,0.0095632,-0.045132,0.38199,-0.48251
0.021746,0.055105,-0.021161,-0.002589,0.091751,-0.14632,0.0039815,0.096203,-0.090971,-0.17213,-0.82047,-1.1645,-0.24017,1.8616,-0.0071197,0.033171,0.02064,0.087866,-1.132,1.9126,-0.058038,0.051918,0.30672,-0.47552
0.016945,0.053854,-0.026733,-0.0058838,0.07632,-0.16888,-0.00062694,0.10319,-0.06416,-0.21643,-0.73573,-1.1138,-0.067241,1.6868,-0.016156,-0.0090955,-0.0016516,0.087735,-1.045,1.9045,-0.12388,0.062279,0.1921,-0.42058
0.011634,0.047293,-0.028722,-0.0087514,0.057436,-0.19373,-0.008351,0.10214,-0.033629,-0.22386,-0.65855,-1.1078,0.093854,1.3761,-0.0052269,-0.0069801,-0.015305,0.087304,-0.94094,1.8658,-0.18002,0.0039267,0.049219,-0.35691
0.0083111,0.036962,-0.022078,-0.0090436,0.038252,-0.2128,-0.017138,0.095813,-0.0011299,-0.18258,-0.5949,-1.1707,0.22012,0.93324,0.019192,-0.0070935,-0.025311,0.071961,-0.8446,1.7699,-0.22352,-0.083569,-0.10584,-0.31786
0.0082699,0.029239,-0.0087928,-0.00598,0.02103,-0.21855,-0.023721,0.086904,0.029603,-0.099005,-0.54371,-1.2937,0.29249,0.41014,0.047754,-0.044353,-0.037305,0.040256,-0.76478,1.6327,-0.25363,-0.16119,-0.25594,-0.29859
0.010667,0.029099,0.0035902,-0.00072466,0.0079419,-0.208,-0.023415,0.077625,0.054551,0.0036228,-0.49438,-1.4427,0.30016,-0.094778,0.07331,-0.11621,-0.052121,0.0051318,-0.69084,1.5116,-0.26896,-0.20685,-0.38557,-0.25688
0.013079,0.03528,0.0080001,0.0043702,0.0016648,-0.18451,-0.010416,0.071744,0.071669,0.09427,-0.43123,-1.5758,0.24332,-0.48337,0.093489,-0.19138,-0.064472,-0.015809,-0.59788,1.4615,-0.26821,-0.218,-0.48225,-0.14672
0.013266,0.041303,0.0033782,0.0071933,0.0043658,-0.15649,0.020673,0.076088,0.081787,0.14578,-0.34312,-1.6612,0.13269,-0.71529,0.1088,-0.24125,-0.066907,-0.012734,-0.4621,1.4831,-0.25356,-0.20374,-0.53821,0.043849
0.010866,0.041284,-0.0048238,0.0069678,0.015609,-0.13362,0.072401,0.098043,0.087436,0.14483,-0.23065,-1.6842,-0.013338,-0.82836,0.11859,-0.26456,-0.055914,0.010542,-0.28052,1.5094,-0.2325,-0.17528,-0.55253,0.28021
0.0076847,0.035053,-0.0093388,0.004497,0.031316,-0.12245,0.14251,0.13941,0.090635,0.097173,-0.10448,-1.6431,-0.17154,-0.90234,0.11947,-0.28524,-0.035383,0.040309,-0.082152,1.4471,-0.21497,-0.14113,-0.5318,0.50087
0.0062905,0.027852,-0.0067177,0.0017126,0.045311,-0.12337,0.22382,0.1915,0.091587,0.026026,0.023534,-1.5465,-0.31626,-0.99261,0.10851,-0.32788,-0.014695,0.062145,0.079924,1.24,-0.20739,-0.10716,-0.48752,0.65104
0.0079972,0.025065,0.00084271,0.00088193,0.052684,-0.13093,0.30609,0.23693,0.08938,-0.037048,0.14801,-1.416,-0.42269,-1.0838,0.08838,-0.39312,-0.0027212,0.068781,0.15454,0.90552,-0.20862,-0.077838,-0.43081,0.70582
0.011813,0.027103,0.008514,0.0036372,0.052358,-0.13767,0.37899,0.25847,0.083914,-0.065875,0.26924,-1.2896,-0.47274,-1.0988,0.068611,-0.45339,-0.002,0.0625,0.121,0.51949,-0.21153,-0.056026,-0.36828,0.67305
0.01517,0.029253,0.013399,0.010002,0.046812,-0.13932,0.43448,0.24907,0.077083,-0.051505,0.38592,-1.2124,-0.46214,-0.95643,0.060417,-0.47109,-0.0071224,0.05234,0.0011885,0.16678,-0.20883,-0.041565,-0.30227,0.58252
0.015811,0.02642,0.016398,0.017961,0.039299,-0.13805,0.46771,0.21519,0.071821,-0.0052088,0.49008,-1.2111,-0.40417,-0.63796,0.06824,-0.42453,-0.0084011,0.048923,-0.15323,-0.099345,-0.19843,-0.030722,-0.23496,0.47311
0.01335,0.018009,0.020146,0.024257,0.031044,-0.14088,0.47613,0.17077,0.069714,0.049535,0.57109,-1.2706,-0.32594,-0.21724,0.085206,-0.32287,0.0017381,0.059677,-0.28867,-0.26369,-0.18398,-0.017711,-0.17213,0.38203
0.0093883,0.0082756,0.025606,0.026387,0.020681,-0.15431,0.45801,0.12689,0.069417,0.09114,0.62561,-1.3352,-0.25739,0.1643,0.09695,-0.20142,0.023964,0.08613,-0.37294,-0.33065,-0.17128,0.0022357,-0.1225,0.33421
0.0062866,0.0020272,0.030814,0.024516,0.0060509,-0.17901,0.41187,0.085624,0.067631,0.11105,0.66329,-1.3419,-0.21933,0.36224,0.091439,-0.10251,0.051974,0.12399,-0.39962,-0.30984,-0.1641,0.029865,-0.092925,0.33215
0.0056295,0.00014564,0.032834,0.021595,-0.013516,-0.20855,0.33826,0.042753,0.062052,0.11524,0.70074,-1.2606,-0.21783,0.29597,0.067264,-0.05448,0.076967,0.16587,-0.37596,-0.22088,-0.16301,0.060541,-0.083662,0.35358
0.0074291,-0.00060863,0.030722,0.021197,-0.036416,-0.23315,0.24299,-0.0043412,0.053705,0.11661,0.74755,-1.1058,-0.24775,-0.01819,0.034091,-0.05993,0.093318,0.20522,-0.30927,-0.10371,-0.1669,0.085373,-0.088185,0.36366
0.010366,-0.0034902,0.026583,0.024612,-0.059861,-0.24474,0.1391,-0.051414,0.046424,0.12489,0.79659,-0.90882,-0.30078,-0.48233,0.0054305,-0.097665,0.10133,0.23887,-0.20554,-0.0091537,-0.17454,0.094778,-0.097799,0.33766
0.012649,-0.0077139,0.023849,0.029719,-0.081578,-0.23937,0.044386,-0.089722,0.04381,0.14157,0.82834,-0.67594,-0.37021,-0.96796,-0.010132,-0.13543,0.10515,0.26629,-0.079689,0.035149,-0.18387,0.083413,-0.10686,0.27859
0.012914,-0.0087493,0.024542,0.032728,-0.10067,-0.21592,-0.025583,-0.11337,0.046447,0.16203,0.82639,-0.37568,-0.44843,-1.3707,-0.012529,-0.14648,0.10751,0.28575,0.036019,0.056282,-0.19034,0.054153,-0.11408,0.21501
0.010793,-0.0028676,0.028009,0.031349,-0.11727,-0.17401,-0.064796,-0.12427,0.051977,0.18154,0.79053,0.026481,-0.52167,-1.6369,-0.0068683,-0.12177,0.1056,0.29097,0.099131,0.1291,-0.18721,0.018264,-0.11943,0.17896
0.0070458,0.0084921,0.031966,0.026585,-0.13158,-0.11453,-0.079146,-0.12982,0.057917,0.19923,0.73546,0.51602,-0.5703,-1.7522,0.0028716,-0.071887,0.091495,0.27199,0.079211,0.32247,-0.16954,-0.0096226,-0.12051,0.18072
0.003207,0.018959,0.034599,0.021608,-0.14331,-0.042986,-0.08158,-0.13562,0.064349,0.21736,0.67525,1.012,-0.57842,-1.7094,0.01737,-0.018122,0.057611,0.22114,-0.020677,0.63373,-0.139,-0.019684,-0.11289,0.20027
0.00081609,0.022151,0.035775,0.018927,-0.15166,0.028575,-0.083628,-0.1402,0.073566,0.23738,0.60751,1.4105,-0.54696,-1.4908,0.040137,0.021248,0.0035918,0.1406,-0.16168,0.96516,-0.1049,-0.01287,-0.094491,0.20172
0.00057378,0.016917,0.036557,0.018556,-0.15578,0.08463,-0.089734,-0.13681,0.086703,0.25647,0.51179,1.6608,-0.49858,-1.0861,0.072588,0.040366,-0.060296,0.045394,-0.29088,1.17,-0.078934,0.00043637,-0.069797,0.15797
0.0019512,0.0081974,0.037799,0.018767,-0.15534,0.11354,-0.09819,-0.1204,0.10045,0.26673,0.36493,1.8121,-0.46779,-0.53409,0.11064,0.044923,-0.11621,-0.041358,-0.37276,1.1424,-0.066709,0.0092948,-0.048608,0.065789
0.0035623,0.0028538,0.039209,0.018378,-0.15103,0.11383,-0.10646,-0.093209,0.1073,0.25641,0.161,1.9879,-0.48166,0.053346,0.14592,0.04329,-0.14692,-0.099049,-0.40809,0.8881,-0.062801,0.012496,-0.038897,-0.058409
0.0040582,0.0042473,0.039559,0.018122,-0.14465,0.094072,-0.11511,-0.064226,0.099782,0.21184,-0.081293,2.304,-0.54456,0.51785,0.17082,0.03851,-0.14439,-0.11929,-0.42731,0.52295,-0.054019,0.021808,-0.039014,-0.19465
0.0028991,0.010214,0.037678,0.019731,-0.13832,0.066383,-0.12651,-0.043595,0.07533,0.11957,-0.33045,2.7881,-0.63755,0.73004,0.18386,0.028835,-0.11346,-0.10866,-0.4653,0.19939,-0.029069,0.054372,-0.036287,-0.33075
0.00050297,0.01574,0.033301,0.023761,-0.13299,0.03887,-0.1403,-0.037484,0.037658,-0.030361,-0.56368,3.3561,-0.73124,0.66616,0.19122,0.016016,-0.068845,-0.083498,-0.53724,0.011768,0.012888,0.11896,-0.014637,-0.45976
-0.0021872,0.017489,0.027234,0.028469,-0.12711,0.013122,-0.15086,-0.047362,-0.0067659,-0.24009,-0.78053,3.8562,-0.80102,0.42953,0.20296,0.012108,-0.027672,-0.061128,-0.63265,-0.053299,0.06173,0.20609,0.033543,-0.56935
-0.004277,0.016174,0.020867,0.03093,-0.11702,-0.012007,-0.15022,-0.072568,-0.054201,-0.50012,-0.99741,4.1439,-0.83447,0.19474,0.22562,0.035495,-0.0025309,-0.053455,-0.72871,-0.091527,0.10419,0.28957,0.10004,-0.63795
-0.0052618,0.015177,0.015455,0.029423,-0.099424,-0.034775,-0.13428,-0.11198,-0.10621,-0.78845,-1.2277,4.1395,-0.82938,0.10776,0.25552,0.09617,0.0015072,-0.06535,-0.80929,-0.20468,0.13316,0.33851,0.16377,-0.64553
-0.0051008,0.017292,0.011568,0.024928,-0.074514,-0.048821,-0.10666,-0.1625,-0.1667,-1.0738,-1.4625,3.8437,-0.78897,0.20716,0.27737,0.18139,-0.014268,-0.095966,-0.87372,-0.43045,0.15051,0.33218,0.20219,-0.59121
-0.0041658,0.022609,0.0089797,0.020476,-0.047306,-0.047105,-0.076427,-0.21655,-0.23576,-1.3221,-1.667,3.3192,-0.72046,0.41648,0.2697,0.25533,-0.044793,-0.13983,-0.92907,-0.72432,0.16173,0.26899,0.20308,-0.50069
-0.0031083,0.028869,0.0071039,0.018972,-0.025403,-0.027959,-0.051616,-0.26275,-0.30551,-1.5046,-1.7945,2.66,-0.6368,0.60684,0.21473,0.27721,-0.082725,-0.18712,-0.97387,-0.99737,0.16815,0.16634,0.16936,-0.41293
-0.0025831,0.033194,0.0057649,0.021229,-0.014403,0.0021732,-0.034338,-0.29077,-0.36244,-1.6044,-1.8082,1.9638,-0.55614,0.68192,0.1072,0.22766,-0.11879,-0.22533,-0.98783,-1.1754,0.16508,0.053084,0.11542,-0.35383
-0.0028912,0.033414,0.0057358,0.025545,-0.014204,0.03184,-0.021648,-0.29676,-0.39515,-1.6215,-1.7008,1.3124,-0.49607,0.62758,-0.042191,0.1254,-0.1429,-0.24398,-0.93736,-1.2373,0.14798,-0.041275,0.059559,-0.3183
-0.0038013,0.02848,0.0084018,0.028908,-0.019127,0.051313,-0.010853,-0.28452,-0.4021,-1.5704,-1.5004,0.75847,-0.46519,0.50044,-0.20965,0.020877,-0.14745,-0.24033,-0.79517,-1.2126,0.1207,-0.097184,0.017991,-0.27703
-0.0047518,0.018816,0.014457,0.028889,-0.021857,0.058163,-0.0037089,-0.2612,-0.39308,-1.4724,-1.2627,0.31944,-0.45829,0.37474,-0.36461,-0.031333,-0.13128,-0.22143,-0.56115,-1.152,0.097165,-0.11224,0.001888,-0.20382
-0.0052782,0.0071226,0.022481,0.025075,-0.018191,0.05807,-0.0052098,-0.23174,-0.38277,-1.345,-1.0516,-0.017931,-0.4583,0.29212,-0.47661,-0.0049428,-0.10131,-0.19985,-0.27046,-1.0961,0.093481,-0.10155,0.01569,-0.10018
-0.0052432,-0.001355,0.028746,0.019228,-0.0090802,0.060791,-0.018084,-0.19713,-0.38072,-1.1948,-0.91496,-0.2829,-0.4429,0.2483,-0.52198,0.081323,-0.069768,-0.18594,0.017937,-1.0612,0.11684,-0.089244,0.055117,0.0055752
-0.0046433,-0.00066397,0.028955,0.014066,0.0012203,0.074235,-0.038529,-0.15762,-0.38492,-1.0219,-0.86365,-0.50278,-0.39133,0.21695,-0.49109,0.17424,-0.048455,-0.18278,0.24693,-1.0421,0.16077,-0.094156,0.10669,0.085803
-0.0032772,0.011992,0.021133,0.011367,0.0089763,0.10034,-0.057736,-0.11662,-0.38381,-0.8313,-0.86511,-0.69038,-0.28925,0.18369,-0.39451,0.21844,-0.043669,-0.18772,0.38723,-1.019,0.21086,-0.11756,0.1517,0.14329
-0.00080151,0.032929,0.0076256,0.010731,0.013627,0.13491,-0.068273,-0.080474,-0.36499,-0.6435,-0.858,-0.84208,-0.13282,0.16091,-0.26323,0.1907,-0.05493,-0.19817,0.44955,-0.96454,0.25554,-0.14176,0.1743,0.21384
0.002702,0.052467,-0.0055637,0.010074,0.017503,0.17098,-0.069659,-0.053892,-0.32433,-0.48995,-0.78411,-0.94481,0.067843,0.17472,-0.1383,0.11424,-0.077283,-0.21542,0.47602,-0.85199,0.29196,-0.14171,0.16863,0.33418
0.0062063,0.060047,-0.012118,0.0076434,0.0234,0.2029,-0.067975,-0.03568,-0.26883,-0.39484,-0.62152,-0.98623,0.28839,0.23897,-0.051889,0.042824,-0.10461,-0.24241,0.51489,-0.67031,0.32243,-0.10268,0.13939,0.4999
0.0080175,0.051006,-0.0093768,0.0039226,0.032251,0.22852,-0.069745,-0.019917,-0.21165,-0.35566,-0.3985,-0.96153,0.497,0.33944,-0.0105,0.024828,-0.13156,-0.27779,0.59119,-0.43989,0.34608,-0.032207,0.095586,0.65177
0.0069392,0.030096,-0.00014991,0.001539,0.042581,0.2481,-0.075551,-0.0021385,-0.16368,-0.34045,-0.17762,-0.87488,0.66749,0.43981,0.0073754,0.071429,-0.15393,-0.31299,0.68957,-0.2141,0.35531,0.042058,0.043512,0.70886
0.0034445,0.0087651,0.0090871,0.0029583,0.05173,0.2616,-0.079115,0.015197,-0.12812,-0.30774,-0.018402,-0.73824,0.79124,0.5032,0.035209,0.151,-0.16891,-0.33616,0.76088,-0.056744,0.34142,0.087129,-0.014261,0.62775
-0.00028508,-0.0022698,0.012559,0.0079136,0.057599,0.26711,-0.072731,0.023639,-0.10169,-0.23547,0.057686,-0.57297,0.87904,0.51235,0.094042,0.21331,-0.17608,-0.34058,0.75108,-0.0040541,0.30455,0.082867,-0.073362,0.44177
-0.0017475,3.825e-006,0.009121,0.013104,0.059696,0.26215,-0.05437,0.015862,-0.080482,-0.13605,0.077108,-0.41606,0.95042,0.47566,0.17728,0.22529,-0.17844,-0.33059,0.63618,-0.036317,0.25786,0.032643,-0.12225,0.24561
4.6912e-005,0.0094244,0.002905,0.014792,0.059065,0.24681,-0.030487,-0.007273,-0.064765,-0.044312,0.093271,-0.32447,1.0182,0.41787,0.25605,0.19182,-0.18201,-0.31967,0.43971,-0.082366,0.22074,-0.038948,-0.14423,0.1334
0.0037926,0.015731,0.0001088,0.012143,0.057371,0.22581,-0.012363,-0.036237,-0.058512,0.012375,0.15046,-0.36619,1.0797,0.3635,0.30073,0.14708,-0.19307,-0.32194,0.21843,-0.058722,0.20591,-0.099048,-0.12702,0.13562
0.0068466,0.012344,0.0042105,0.0081795,0.055707,0.20695,-0.0091356,-0.059562,-0.064303,0.03726,0.25778,-0.59144,1.1213,0.32303,0.30154,0.12527,-0.2147,-0.34317,0.024996,0.079595,0.21088,-0.12248,-0.072276,0.20269
0.007179,0.00098761,0.013182,0.007257,0.053673,0.19638,-0.022877,-0.071888,-0.07873,0.061388,0.38903,-0.99454,1.1305,0.28758,0.27235,0.13498,-0.24437,-0.3774,-0.12451,0.30849,0.22108,-0.10234,0.003366,0.2461
0.0047596,-0.010227,0.020884,0.011173,0.049302,0.19407,-0.048785,-0.076229,-0.0931,0.11727,0.50474,-1.4927,1.1037,0.23281,0.23609,0.15663,-0.27437,-0.41042,-0.25169,0.54313,0.2219,-0.050531,0.076878,0.20381
0.0013399,-0.013493,0.021666,0.017418,0.040202,0.19303,-0.079234,-0.078549,-0.09939,0.21096,0.57806,-1.947,1.0447,0.12947,0.20488,0.16213,-0.2949,-0.42707,-0.38419,0.67963,0.20951,0.011047,0.13026,0.080195
-0.0010674,-0.0073667,0.014695,0.021183,0.025616,0.18346,-0.10808,-0.079493,-0.096424,0.31534,0.60698,-2.2268,0.95641,-0.04286,0.17163,0.13798,-0.29824,-0.41779,-0.51867,0.64592,0.19218,0.062721,0.15652,-0.065173
-0.0017226,0.0024806,0.0046945,0.019394,0.0082105,0.15934,-0.1325,-0.070543,-0.090512,0.38947,0.60827,-2.2824,0.83694,-0.28428,0.1193,0.092572,-0.28209,-0.38178,-0.61251,0.43573,0.18198,0.095608,0.15772,-0.16432
-0.0015331,0.0080349,-0.0014351,0.013246,-0.0059035,0.12286,-0.15243,-0.038273,-0.08945,0.40801,0.60246,-2.1773,0.68547,-0.57109,0.038918,0.044439,-0.25029,-0.32625,-0.61473,0.11087,0.18454,0.11205,0.1397,-0.1837
-0.0020844,0.0050871,0.00048565,0.0071634,-0.0095506,0.083479,-0.16898,0.026073,-0.094689,0.37791,0.60212,-2.0481,0.51354,-0.86417,-0.058884,0.005519,-0.21079,-0.26281,-0.51132,-0.22715,0.19492,0.11924,0.1088,-0.13401
-0.0041466,-0.0040704,0.0091373,0.0052166,0.0017305,0.052311,-0.18336,0.11844,-0.098498,0.33115,0.6095,-2.0108,0.34966,-1.1261,-0.14823,-0.023992,-0.17182,-0.20242,-0.34502,-0.4818,0.20189,0.12189,0.071914,-0.049607
-0.0067987,-0.013001,0.018899,0.008092,0.026757,0.035336,-0.19606,0.22101,-0.089026,0.30105,0.62094,-2.0763,0.22991,-1.3369,-0.20394,-0.04585,-0.13854,-0.15114,-0.18969,-0.60208,0.19603,0.11943,0.036883,0.037386
-0.0078665,-0.016068,0.023858,0.012956,0.058614,0.030163,-0.20625,0.3092,-0.059576,0.30131,0.63185,-2.136,0.17909,-1.4961,-0.21595,-0.051404,-0.11192,-0.10856,-0.098062,-0.60067,0.17517,0.1091,0.01028,0.10683
-0.0055041,-0.011981,0.021616,0.016018,0.087698,0.028198,-0.21125,0.36236,-0.014686,0.32186,0.6394,-2.0361,0.19621,-1.6089,-0.19153,-0.021993,-0.090134,-0.070081,-0.065355,-0.54154,0.14442,0.091022,-0.005949,0.14451
9.3591e-005,-0.0038181,0.014378,0.015507,0.10619,0.020532,-0.20689,0.37161,0.031932,0.34165,0.64319,-1.6915,0.25538,-1.6668,-0.14527,0.055033,-0.071024,-0.031379,-0.03828,-0.50408,0.11235,0.070325,-0.015428,0.13675
0.0061693,0.0036449,0.0069703,0.012737,0.11145,0.0034499,-0.18867,0.34082,0.066111,0.34614,0.64538,-1.1581,0.32158,-1.6413,-0.086852,0.16781,-0.053542,0.008137,0.03886,-0.54289,0.086843,0.054491,-0.024308,0.077655
0.0088281,0.0068672,0.0035043,0.010679,0.10647,-0.019943,-0.15361,0.28101,0.081898,0.33598,0.6495,-0.60732,0.36912,-1.5014,-0.017141,0.27662,-0.037468,0.045453,0.1797,-0.6634,0.072461,0.048423,-0.03692,-0.01724
0.0057795,0.0050352,0.004957,0.0114,0.0977,-0.042582,-0.10178,0.20305,0.083779,0.32252,0.65703,-0.21933,0.38995,-1.2464,0.065157,0.33202,-0.02225,0.077265,0.34821,-0.82391,0.069415,0.051256,-0.054235,-0.10854
-0.001534,-3.3254e-005,0.0090327,0.014407,0.091473,-0.058345,-0.037199,0.11427,0.081408,0.31651,0.6633,-0.069033,0.38855,-0.92627,0.15384,0.30287,-0.0064752,0.10336,0.49073,-0.96032,0.073537,0.05692,-0.076069,-0.15133
-0.0083508,-0.0048553,0.012057,0.017114,0.091351,-0.065454,0.032294,0.020671,0.081533,0.31995,0.65657,-0.08756,0.37118,-0.62994,0.23277,0.19452,0.011388,0.12706,0.57774,-1.0198,0.077658,0.057371,-0.10362,-0.12363
-0.0097408,-0.0056017,0.011484,0.016951,0.097352,-0.06629,0.096559,-0.06816,0.083423,0.32654,0.6229,-0.12351,0.33964,-0.44046,0.28393,0.044039,0.031747,0.15254,0.62085,-0.98799,0.074729,0.046138,-0.13829,-0.042339
-0.0043469,0.0003555,0.0073991,0.013409,0.10712,-0.06437,0.14625,-0.13759,0.0806,0.32785,0.5545,-0.053809,0.29288,-0.3853,0.29925,-0.10305,0.053401,0.18158,0.65468,-0.89605,0.061626,0.020729,-0.17701,0.047942
0.0043068,0.012963,0.002196,0.008404,0.11801,-0.061199,0.17661,-0.17305,0.066494,0.31861,0.45505,0.14041,0.23146,-0.41682,0.28554,-0.21741,0.07433,0.21278,0.70428,-0.80451,0.041164,-0.016464,-0.20891,0.10531
0.010288,0.028874,-0.001204,0.0046999,0.12875,-0.055531,0.19002,-0.16908,0.039142,0.29716,0.33762,0.38454,0.15831,-0.43949,0.2577,-0.29558,0.093108,0.24337,0.76795,-0.76834,0.020459,-0.058997,-0.21848,0.1165
0.0097585,0.042513,-0.0012939,0.0037383,0.13957,-0.045473,0.19528,-0.13522,0.0017978,0.26267,0.21669,0.58801,0.075284,-0.36797,0.22591,-0.35107,0.10981,0.27149,0.82829,-0.80257,0.0063806,-0.099446,-0.19496,0.098653
0.0038967,0.048717,0.0012383,0.0047486,0.15087,-0.031614,0.20372,-0.092914,-0.039862,0.21365,0.10125,0.71839,-0.018976,-0.17869,0.18812,-0.39732,0.12578,0.29664,0.87721,-0.87152,0.0012313,-0.13408,-0.14126,0.078172
-0.0022241,0.045615,0.0043437,0.0058599,0.16134,-0.018617,0.2243,-0.064348,-0.080921,0.14962,-0.0052488,0.81228,-0.12527,0.077816,0.13476,-0.43674,0.14245,0.31807,0.92955,-0.91343,0.0017258,-0.16627,-0.074921,0.066007
-0.0038774,0.035883,0.0063347,0.0061088,0.16721,-0.01402,0.26036,-0.060697,-0.11845,0.073575,-0.098989,0.92261,-0.23662,0.30964,0.061317,-0.4628,0.15999,0.33336,1.0124,-0.88744,0.0018067,-0.20474,-0.018714,0.050259
-0.00047871,0.025289,0.0071493,0.0063848,0.1636,-0.025079,0.30924,-0.077873,-0.15075,-0.0080394,-0.17039,1.0561,-0.33559,0.43795,-0.022441,-0.47005,0.17656,0.33916,1.1404,-0.80872,-0.003052,-0.2556,0.013057,0.010438
0.0042184,0.019215,0.0082105,0.0083725,0.14742,-0.055859,0.36372,-0.10217,-0.17607,-0.088323,-0.20546,1.1593,-0.40136,0.43847,-0.095542,-0.46155,0.18868,0.33373,1.2993,-0.74121,-0.013244,-0.31232,0.022849,-0.060687
0.0055244,0.019385,0.011045,0.012528,0.11978,-0.10627,0.41373,-0.12066,-0.19208,-0.16266,-0.19383,1.1652,-0.42262,0.34656,-0.13913,-0.44689,0.19283,0.31875,1.453,-0.74822,-0.025685,-0.35178,0.026787,-0.14689
0.0017403,0.023077,0.015782,0.017137,0.085812,-0.17302,0.44792,-0.12828,-0.19625,-0.22801,-0.13696,1.0583,-0.40577,0.22722,-0.14915,-0.43355,0.1876,0.29842,1.5668,-0.83671,-0.036685,-0.34226,0.042663,-0.21782
-0.0047262,0.025501,0.020725,0.019504,0.051642,-0.25075,0.45565,-0.12752,-0.18659,-0.27962,-0.049598,0.89975,-0.37055,0.13196,-0.1379,-0.42014,0.17519,0.27669,1.6296,-0.94011,-0.044557,-0.26113,0.078008,-0.24923
-0.0097029,0.023672,0.023308,0.018261,0.020582,-0.33177,0.4298,-0.12313,-0.16261,-0.30922,0.047091,0.79039,-0.33552,0.070417,-0.12341,-0.39768,0.16111,0.25537,1.657,-0.95693,-0.050093,-0.11157,0.12657,-0.23774
-0.01063,0.018898,0.021668,0.014612,-0.0086031,-0.40457,0.36934,-0.11745,-0.12613,-0.30808,0.13553,0.79958,-0.3049,0.013047,-0.11573,-0.35756,0.15158,0.23504,1.6764,-0.81821,-0.054915,0.0744,0.1746,-0.20034
-0.0079322,0.015911,0.015637,0.011303,-0.039945,-0.45314,0.28047,-0.11001,-0.081631,-0.27306,0.20745,0.91717,-0.26701,-0.078814,-0.11134,-0.29917,0.14999,0.21741,1.705,-0.53387,-0.059382,0.25121,0.21069,-0.16209
-0.0035827,0.019279,0.006557,0.010202,-0.076417,-0.45978,0.17598,-0.10002,-0.035557,-0.21074,0.26215,1.0643,-0.20577,-0.21652,-0.099547,-0.23106,0.15471,0.20562,1.7381,-0.1852,-0.061885,0.38464,0.23102,-0.14258
0.0011561,0.029818,-0.0036282,0.010714,-0.11708,-0.41177,0.073603,-0.087839,0.0055262,-0.13525,0.30018,1.1522,-0.11619,-0.36623,-0.074398,-0.16538,0.15982,0.20111,1.7527,0.1273,-0.060115,0.4691,0.23652,-0.14915
0.0063379,0.043723,-0.013039,0.010479,-0.15748,-0.30897,-0.0066081,-0.073857,0.036917,-0.061221,0.31889,1.1414,-0.011909,-0.46261,-0.041663,-0.11036,0.1587,0.2,1.7234,0.33994,-0.053189,0.52425,0.22589,-0.17643
0.011911,0.054936,-0.019868,0.0077412,-0.19272,-0.16736,-0.046413,-0.056197,0.056752,0.0030687,0.31385,1.0591,0.080306,-0.44681,-0.015245,-0.066543,0.14808,0.19388,1.639,0.4484,-0.04272,0.57316,0.19219,-0.20796
0.016299,0.058822,-0.022308,0.0032035,-0.2205,-0.015155,-0.035517,-0.030546,0.065524,0.057679,0.28478,0.9654,0.13487,-0.30436,-0.0066632,-0.028611,0.13013,0.17632,1.5097,0.49005,-0.031718,0.61958,0.12751,-0.21892
0.017052,0.054597,-0.019289,-0.00034338,-0.24152,0.11767,0.022277,0.0070579,0.065022,0.10766,0.24031,0.90027,0.14062,-0.077875,-0.016754,0.0095216,0.11125,0.15016,1.3619,0.50794,-0.022013,0.64326,0.032891,-0.18335
0.013229,0.045175,-0.011877,-0.00036665,-0.25718,0.21124,0.10716,0.056641,0.057863,0.15777,0.19662,0.85311,0.1049,0.1545,-0.036102,0.05046,0.098236,0.12812,1.2234,0.52391,-0.012395,0.61784,-0.074707,-0.087472
0.0069772,0.035089,-0.0038827,0.0031259,-0.26672,0.26236,0.18898,0.11297,0.047759,0.20871,0.16972,0.77461,0.04777,0.32114,-0.052884,0.092646,0.094386,0.12412,1.1087,0.53181,0.00057972,0.536,-0.16556,0.05721
0.002267,0.028027,-0.00019203,0.007391,-0.2663,0.28275,0.23936,0.16751,0.039455,0.25617,0.16635,0.61711,-0.0088227,0.3915,-0.060972,0.13277,0.097643,0.14148,1.0144,0.5047,0.019211,0.41947,-0.21055,0.21257
0.0016152,0.025234,-0.0032277,0.0090826,-0.25042,0.29046,0.24412,0.21198,0.037334,0.2918,0.18043,0.36982,-0.049718,0.38142,-0.061977,0.16854,0.10204,0.16851,0.92389,0.40566,0.041147,0.30412,-0.19717,0.33039
0.0038777,0.025253,-0.01029,0.0069435,-0.21468,0.30035,0.20858,0.24115,0.043239,0.30568,0.19827,0.064431,-0.069525,0.32837,-0.060924,0.1989,0.10157,0.1863,0.82027,0.19965,0.058892,0.21264,-0.13765,0.37901
0.0053748,0.025003,-0.014666,0.0028084,-0.15794,0.31877,0.15251,0.25402,0.055376,0.2902,0.20954,-0.24699,-0.070625,0.25828,-0.06048,0.22148,0.094134,0.18309,0.69543,-0.13213,0.063523,0.13909,-0.063438,0.36195
0.0034268,0.021755,-0.010566,0.00011836,-0.083385,0.34436,0.097477,0.2537,0.069672,0.24472,0.21576,-0.51928,-0.059668,0.1702,-0.058735,0.22969,0.082867,0.16291,0.55101,-0.57764,0.05048,0.058715,-0.009034,0.31427
-0.0010025,0.014986,0.0017833,0.0012417,0.0015591,0.3724,0.054244,0.24681,0.082798,0.17839,0.22946,-0.72559,-0.045363,0.049491,-0.051204,0.21342,0.073593,0.14094,0.39226,-1.089,0.023361,-0.046039,0.0053103,0.27886
-0.0040381,0.0068013,0.015449,0.0058071,0.086199,0.3984,0.01734,0.24141,0.094319,0.10785,0.26353,-0.85083,-0.037726,-0.10384,-0.033893,0.16497,0.070043,0.12961,0.22227,-1.5946,-0.0072518,-0.1675,-0.018193,0.28026
-0.0023119,0.00035038,0.021794,0.011263,0.15898,0.41848,-0.030474,0.24335,0.10599,0.049349,0.31838,-0.88247,-0.046901,-0.25824,-0.00446,0.087206,0.070326,0.12775,0.042598,-2.0227,-0.029325,-0.27824,-0.059533,0.31451
0.004054,-0.002685,0.017386,0.014962,0.21117,0.42748,-0.10677,0.25233,0.1188,0.0092825,0.37736,-0.81305,-0.080034,-0.36204,0.03829,-0.0023186,0.067655,0.1222,-0.14114,-2.3229,-0.035526,-0.3533,-0.094095,0.35969
0.01146,-0.0033687,0.0069451,0.015946,0.24032,0.41864,-0.2178,0.26152,0.13062,-0.019687,0.41507,-0.65214,-0.13707,-0.37584,0.094093,-0.076217,0.055113,0.099884,-0.31583,-2.4704,-0.026052,-0.38725,-0.10535,0.39518
0.015602,-0.0042855,-0.00038219,0.015171,0.25133,0.38708,-0.35295,0.26303,0.13694,-0.052837,0.41347,-0.43112,-0.20862,-0.30016,0.15895,-0.11055,0.030942,0.059424,-0.46477,-2.4577,-0.0069223,-0.39119,-0.089833,0.41293
0.01446,-0.0068981,0.0016218,0.014352,0.25384,0.33522,-0.48773,0.2569,0.13439,-0.10079,0.37362,-0.18841,-0.27872,-0.17583,0.22298,-0.099347,0.00034975,0.012109,-0.57623,-2.2847,0.014159,-0.37568,-0.05356,0.4141
0.0091669,-0.010092,0.011538,0.01464,0.25728,0.27518,-0.59231,0.25654,0.12413,-0.15934,0.31364,0.057159,-0.33232,-0.056645,0.27161,-0.061107,-0.027283,-0.027358,-0.64802,-1.9624,0.031041,-0.33921,-0.0050467,0.39828
0.0025357,-0.011446,0.022088,0.016075,0.26677,0.22419,-0.64033,0.28463,0.11169,-0.21058,0.25416,0.32091,-0.36323,0.024048,0.29069,-0.031853,-0.043319,-0.05109,-0.683,-1.5241,0.039749,-0.27428,0.049029,0.35838
-0.0030572,-0.0099993,0.026451,0.017883,0.28224,0.19501,-0.61425,0.36003,0.10304,-0.23593,0.20214,0.63744,-0.37699,0.06814,0.2722,-0.047521,-0.04329,-0.060152,-0.67976,-1.0309,0.037424,-0.18323,0.10326,0.28645
-0.0066613,-0.0076151,0.023449,0.019081,0.3005,0.18826,-0.50829,0.48464,0.099672,-0.23159,0.14577,1.024,-0.38613,0.10123,0.21634,-0.12489,-0.027332,-0.058379,-0.63004,-0.55888,0.021816,-0.084388,0.15084,0.18437
-0.0082938,-0.0074035,0.017433,0.018978,0.31796,0.19288,-0.33152,0.64011,0.096763,-0.21356,0.064012,1.4522,-0.40073,0.14787,0.12922,-0.25155,0.0010733,-0.04599,-0.52856,-0.17115,-0.0074577,0.00073097,0.18314,0.068326
-0.0080531,-0.010665,0.013818,0.01748,0.33178,0.19478,-0.11108,0.79738,0.086374,-0.20685,-0.056756,1.8536,-0.42103,0.21355,0.019468,-0.39029,0.036023,-0.020637,-0.38861,0.10645,-0.046854,0.068202,0.1931,-0.037113
-0.0058954,-0.015422,0.014739,0.015163,0.33953,0.18671,0.10922,0.93163,0.063449,-0.22654,-0.21171,2.1586,-0.43778,0.28339,-0.10236,-0.49558,0.06952,0.014952,-0.24737,0.29037,-0.088294,0.13872,0.17975,-0.11008
-0.0021883,-0.018043,0.01839,0.012975,0.33911,0.17172,0.28051,1.0308,0.030408,-0.26618,-0.37931,2.3365,-0.43977,0.33266,-0.22153,-0.53326,0.09268,0.047391,-0.15104,0.42165,-0.12144,0.24139,0.14979,-0.13856
0.001749,-0.016369,0.021632,0.011567,0.32982,0.15824,0.36889,1.0925,-0.0028976,-0.30342,-0.53274,2.4047,-0.42242,0.33948,-0.31843,-0.49364,0.098742,0.05684,-0.12683,0.53791,-0.1381,0.38741,0.11468,-0.12062
0.0039188,-0.01128,0.022733,0.010756,0.31361,0.15195,0.37242,1.1148,-0.023513,-0.31808,-0.65133,2.3983,-0.39038,0.29569,-0.37349,-0.39251,0.086436,0.029602,-0.16286,0.65178,-0.13615,0.55826,0.085563,-0.062399
0.0027604,-0.0053578,0.021834,0.0097661,0.29461,0.15128,0.3216,1.0917,-0.020746,-0.30674,-0.72453,2.3297,-0.35261,0.21709,-0.37636,-0.26197,0.060834,-0.03094,-0.21364,0.7457,-0.1206,0.71986,0.069614,0.020668
-0.0016559,-0.00021532,0.019619,0.0082421,0.27627,0.14947,0.25938,1.0186,0.010596,-0.28101,-0.74884,2.1736,-0.31478,0.14985,-0.33288,-0.13796,0.030296,-0.10479,-0.23006,0.78351,-0.10098,0.84999,0.069455,0.10082
-0.007309,0.0046538,0.016278,0.0070662,0.25842,0.13979,0.21338,0.90296,0.069684,-0.2518,-0.72359,1.8919,-0.27619,0.16257,-0.2637,-0.051393,0.0014806,-0.16771,-0.19218,0.73169,-0.086635,0.95285,0.084311,0.14145
-0.011198,0.010411,0.011894,0.0078657,0.23683,0.11904,0.18078,0.76761,0.15022,-0.215,-0.65085,1.4753,-0.23361,0.31558,-0.19416,-0.023985,-0.023629,-0.20578,-0.12023,0.58105,-0.082497,1.0471,0.11095,0.11179
-0.01113,0.016493,0.0073716,0.01127,0.2063,0.087444,0.13773,0.64162,0.24065,-0.15308,-0.5388,0.96241,-0.18754,0.61776,-0.14238,-0.064981,-0.046294,-0.22088,-0.055276,0.35859,-0.087355,1.139,0.14413,0.0062539
-0.0071732,0.020041,0.0044065,0.015485,0.16519,0.047032,0.064997,0.5444,0.32499,-0.051827,-0.40352,0.41577,-0.14388,1.0005,-0.11312,-0.16509,-0.066699,-0.22358,-0.025652,0.12211,-0.095107,1.2082,0.1777,-0.14727
-0.001722,0.018096,0.0042529,0.016907,0.11772,0.0013435,-0.032006,0.47639,0.38616,0.082769,-0.26562,-0.12444,-0.10876,1.3369,-0.1005,-0.29025,-0.081001,-0.22078,-0.026288,-0.062217,-0.098127,1.2209,0.20674,-0.30059
0.0020256,0.01069,0.0065428,0.012821,0.072225,-0.043425,-0.12603,0.42367,0.41227,0.22353,-0.1428,-0.66536,-0.08109,1.5061,-0.095358,-0.38408,-0.082919,-0.20928,-0.027806,-0.14777,-0.091209,1.1605,0.22891,-0.41348
0.0021799,0.0018904,0.009415,0.0040265,0.036692,-0.078488,-0.19049,0.3721,0.40233,0.33861,-0.043856,-1.2373,-0.050415,1.4614,-0.0911,-0.38616,-0.069017,-0.18083,-0.0076422,-0.12237,-0.074592,1.0456,0.24313,-0.4766
-0.00065178,-0.0024798,0.010848,-0.0051248,0.014695,-0.095726,-0.22134,0.31824,0.36665,0.41157,0.03179,-1.8378,-0.0024953,1.2529,-0.084513,-0.26222,-0.043371,-0.13372,0.022771,0.00083914,-0.054819,0.9184,0.24609,-0.51123
-0.0039858,0.0011277,0.009934,-0.0097324,0.0044218,-0.0928,-0.23887,0.26839,0.32047,0.44845,0.089482,-2.3952,0.072071,0.98245,-0.073347,-0.029374,-0.017592,-0.080514,0.01767,0.20933,-0.04267,0.81019,0.23069,-0.54648
-0.0053764,0.011357,0.0070558,-0.0080793,0.001008,-0.076159,-0.26845,0.22839,0.27453,0.46723,0.1346,-2.7928,0.17343,0.72128,-0.054689,0.24265,-0.0057809,-0.044712,-0.075277,0.51078,-0.048384,0.71663,0.1894,-0.59358
-0.0040749,0.022772,0.0030808,-0.0028996,0.00036101,-0.058901,-0.31777,0.19483,0.22983,0.48046,0.17177,-2.9461,0.29477,0.45429,-0.026501,0.46054,-0.017785,-0.048007,-0.27978,0.92617,-0.075956,0.60487,0.12152,-0.63896
-0.0011433,0.029549,-0.0014733,0.00096119,0.0021086,-0.054164,-0.37015,0.15574,0.18038,0.48665,0.20742,-2.8731,0.42711,0.094341,0.0086801,0.55224,-0.054889,-0.097075,-0.57318,1.4575,-0.11954,0.44751,0.037844,-0.66118
0.0019003,0.029342,-0.0065661,0.00048959,0.010172,-0.068156,-0.39816,0.099169,0.12171,0.47637,0.25093,-2.6963,0.56094,-0.44255,0.040703,0.50125,-0.10969,-0.17844,-0.89541,2.0548,-0.16469,0.25309,-0.042325,-0.65606
0.0045338,0.024622,-0.012129,-0.0033455,0.030794,-0.097376,-0.38395,0.021521,0.057705,0.44588,0.3104,-2.5616,0.68398,-1.1591,0.051892,0.34979,-0.16902,-0.26399,-1.1743,2.6111,-0.19473,0.065774,-0.10127,-0.64736
0.0073789,0.020628,-0.01754,-0.0069798,0.068954,-0.13177,-0.32885,-0.070899,-3.7975e-005,0.40528,0.38452,-2.5298,0.78001,-1.9547,0.021334,0.17188,-0.21782,-0.32312,-1.3498,2.9974,-0.19893,-0.065654,-0.13241,-0.67316
0.01095,0.021407,-0.021613,-0.0077675,0.12477,-0.16173,-0.24672,-0.16648,-0.039985,0.37461,0.45736,-2.5244,0.83349,-2.674,-0.067032,0.03589,-0.24311,-0.33511,-1.3889,3.1176,-0.17764,-0.12219,-0.14169,-0.75811
0.01436,0.026728,-0.02315,-0.0064122,0.19159,-0.1844,-0.15108,-0.25363,-0.059189,0.37245,0.50234,-2.3804,0.83848,-3.1892,-0.21475,-0.020653,-0.23783,-0.29675,-1.294,2.9523,-0.14079,-0.12374,-0.13993,-0.89256
0.015526,0.032125,-0.021721,-0.0062014,0.25691,-0.20503,-0.049356,-0.32343,-0.065797,0.40652,0.49505,-1.9631,0.80444,-3.4575,-0.40212,0.005047,-0.20371,-0.22283,-1.109,2.5649,-0.10096,-0.10856,-0.13327,-1.0332
0.012997,0.032236,-0.018141,-0.0098326,0.30596,-0.23229,0.052019,-0.37078,-0.073743,0.47197,0.42713,-1.268,0.75304,-3.5212,-0.58966,0.090914,-0.15098,-0.13954,-0.91512,2.0686,-0.066056,-0.10428,-0.12022,-1.1231
0.007807,0.025217,-0.01427,-0.016698,0.32651,-0.27056,0.14062,-0.397,-0.093889,0.55532,0.31145,-0.4288,0.70758,-3.4586,-0.73016,0.20108,-0.093806,-0.072592,-0.80592,1.5763,-0.036625,-0.11606,-0.097249,-1.1177
0.0034226,0.01494,-0.012173,-0.023015,0.31282,-0.31466,0.19945,-0.41257,-0.1282,0.63879,0.17539,0.3684,0.68315,-3.3244,-0.78672,0.29374,-0.043202,-0.035282,-0.8427,1.1599,-0.0092277,-0.13707,-0.066865,-1.0006
0.0034175,0.0090167,-0.013166,-0.024685,0.26711,-0.35141,0.21768,-0.43508,-0.17065,0.70323,0.047201,0.99249,0.68466,-3.1173,-0.74692,0.33077,-0.002223,-0.023107,-1.0138,0.83797,0.017819,-0.16496,-0.039685,-0.78689
0.0086956,0.013672,-0.017397,-0.020492,0.19853,-0.36743,0.20054,-0.47943,-0.21328,0.73199,-0.055226,1.4161,0.71226,-2.7891,-0.62449,0.29318,0.032693,-0.019292,-1.2304,0.59126,0.041557,-0.2054,-0.028221,-0.51435
0.016707,0.028993,-0.024148,-0.013051,0.12023,-0.35785,0.16799,-0.54515,-0.25248,0.71783,-0.12733,1.6801,0.76644,-2.2857,-0.44823,0.19513,0.065297,-0.0081451,-1.3706,0.39403,0.056741,-0.2611,-0.037809,-0.23119
0.023436,0.048025,-0.032347,-0.0068572,0.04595,-0.32965,0.14186,-0.61119,-0.29112,0.66876,-0.17371,1.821,0.8465,-1.5958,-0.24759,0.082212,0.093613,0.013309,-1.3501,0.24048,0.06107,-0.32188,-0.062616,0.017257
0.026422,0.060583,-0.040688,-0.0051376,-0.013616,-0.29721,0.13181,-0.64564,-0.33544,0.60591,-0.2024,1.8332,0.9436,-0.77966,-0.045613,0.007074,0.11004,0.034509,-1.1704,0.15141,0.058493,-0.3693,-0.089541,0.20075
0.026145,0.059406,-0.047404,-0.0079636,-0.053936,-0.27413,0.13172,-0.62575,-0.38956,0.55064,-0.22159,1.6944,1.0367,0.036022,0.13808,-0.0050076,0.10768,0.04178,-0.9107,0.15699,0.057687,-0.39188,-0.10582,0.31289
0.024686,0.044744,-0.050465,-0.012869,-0.078566,-0.26751,0.12828,-0.55431,-0.45138,0.5084,-0.23848,1.4196,1.0984,0.70141,0.28193,0.024832,0.087125,0.030712,-0.67155,0.26655,0.066974,-0.39314,-0.10401,0.37179
0.023267,0.024445,-0.048714,-0.017076,-0.098288,-0.27822,0.11362,-0.45935,-0.51255,0.46281,-0.25773,1.0829,1.1092,1.1047,0.36484,0.042953,0.057388,0.0095764,-0.51226,0.44661,0.089663,-0.38189,-0.082098,0.41023
0.021225,0.0093475,-0.043158,-0.019321,-0.12658,-0.30458,0.091506,-0.37671,-0.56181,0.38746,-0.27835,0.7803,1.068,1.2213,0.37772,0.0025564,0.029708,-0.0087288,-0.42855,0.62586,0.1229,-0.35434,-0.041673,0.4585
0.017423,0.0065557,-0.036905,-0.019975,-0.17269,-0.34434,0.073444,-0.32866,-0.58916,0.26867,-0.29176,0.56616,0.98943,1.1226,0.33412,-0.10023,0.0097197,-0.01796,-0.37929,0.72905,0.16001,-0.28958,0.01215,0.52882
0.012427,0.014732,-0.033105,-0.019851,-0.23611,-0.39237,0.069544,-0.31422,-0.58831,0.12199,-0.28412,0.42197,0.88884,0.93772,0.2673,-0.22046,-0.0051793,-0.022275,-0.33252,0.71918,0.19391,-0.16856,0.069642,0.61057
0.0089042,0.024748,-0.032347,-0.01918,-0.30636,-0.43764,0.081831,-0.31705,-0.55701,-0.011786,-0.24339,0.2832,0.76677,0.79015,0.21201,-0.292,-0.021332,-0.029661,-0.28943,0.61747,0.21952,-0.0020527,0.11803,0.67899
0.0094872,0.025866,-0.032054,-0.017739,-0.36917,-0.46501,0.1037,-0.32211,-0.49654,-0.089433,-0.1676,0.097692,0.60874,0.7471,0.18353,-0.26666,-0.041845,-0.042589,-0.26987,0.48428,0.23458,0.16052,0.14763,0.71139
0.01404,0.013601,-0.028896,-0.015747,-0.41516,-0.46392,0.12386,-0.32661,-0.41194,-0.090911,-0.068816,-0.13773,0.40218,0.81002,0.1711,-0.13736,-0.063604,-0.05561,-0.27865,0.37381,0.23958,0.25494,0.15874,0.69993
0.019115,-0.0064837,-0.0223,-0.014311,-0.44505,-0.43838,0.13119,-0.3372,-0.31245,-0.029816,0.02988,-0.38955,0.1571,0.94547,0.1518,0.065583,-0.080345,-0.061717,-0.28708,0.29803,0.23734,0.24296,0.16226,0.65315
0.020431,-0.022407,-0.015676,-0.014762,-0.46767,-0.40944,0.11828,-0.35846,-0.21037,0.056793,0.10349,-0.62843,-0.088352,1.127,0.11318,0.29444,-0.087893,-0.059858,-0.24705,0.2286,0.23186,0.13666,0.1715,0.58655
0.016338,-0.024593,-0.013793,-0.0174,-0.4931,-0.40557,0.083613,-0.3845,-0.11734,0.12946,0.13568,-0.85493,-0.28532,1.3529,0.065388,0.50209,-0.086141,-0.05506,-0.12511,0.13413,0.22645,-0.014835,0.19064,0.51038
0.009198,-0.013235,-0.018379,-0.02087,-0.52688,-0.44551,0.03214,-0.40146,-0.03957,0.16289,0.12584,-1.0868,-0.40301,1.6281,0.032279,0.64959,-0.076457,-0.050959,0.072486,0.019314,0.22202,-0.1649,0.20966,0.42442
0.0034556,0.0016567,-0.025965,-0.02281,-0.56978,-0.52512,-0.026693,-0.3974,0.024231,0.14962,0.089276,-1.3254,-0.44675,1.9288,0.030132,0.70874,-0.05833,-0.043292,0.302,-0.068245,0.21671,-0.302,0.2108,0.32383
0.0020672,0.0076174,-0.030197,-0.021355,-0.62156,-0.6178,-0.083646,-0.36932,0.08026,0.093786,0.050489,-1.5361,-0.45116,2.1877,0.052998,0.6676,-0.029788,-0.022591,0.5064,-0.068478,0.2075,-0.44848,0.18127,0.21133
0.0043287,-0.0012858,-0.026805,-0.016425,-0.6831,-0.68887,-0.13491,-0.3205,0.13387,0.004112,0.032543,-1.6628,-0.45409,2.3204,0.077524,0.5384,0.0082639,0.015125,0.64072,0.05169,0.19266,-0.6289,0.12177,0.1051
0.0068112,-0.020627,-0.017052,-0.0099461,-0.75314,-0.71442,-0.18403,-0.25167,0.18515,-0.10856,0.047759,-1.6598,-0.47227,2.279,0.082259,0.35831,0.048424,0.059831,0.68247,0.28301,0.17333,-0.83671,0.043925,0.03418
0.0064128,-0.039282,-0.0067685,-0.0049331,-0.82304,-0.69236,-0.23824,-0.1563,0.22944,-0.23045,0.094188,-1.5127,-0.49645,2.092,0.063962,0.17645,0.078615,0.090736,0.62687,0.58968,0.15321,-1.0274,-0.039584,0.022531
0.0028761,-0.047141,-0.0018931,-0.003917,-0.87632,-0.63939,-0.30119,-0.026579,0.26195,-0.34558,0.15914,-1.2364,-0.50711,1.8551,0.037215,0.032181,0.089106,0.090559,0.47887,0.93285,0.13685,-1.1431,-0.12238,0.072273
-0.0012205,-0.04113,-0.0042106,-0.007514,-0.89662,-0.57743,-0.36715,0.13399,0.28229,-0.4399,0.22694,-0.86284,-0.49492,1.6715,0.01942,-0.060664,0.079308,0.059683,0.25172,1.2749,0.12789,-1.1483,-0.20275,0.15887
-0.0027673,-0.026067,-0.01051,-0.013922,-0.87877,-0.51984,-0.42136,0.30321,0.29486,-0.50617,0.28583,-0.4376,-0.46838,1.5838,0.016017,-0.11295,0.058581,0.018165,-0.027724,1.5645,0.12792,-1.0496,-0.27624,0.24286
-0.00068412,-0.010899,-0.015418,-0.019807,-0.83296,-0.46641,-0.44713,0.44673,0.30503,-0.54494,0.33082,-0.026124,-0.44384,1.5458,0.018961,-0.14465,0.040292,-0.0066664,-0.31531,1.7289,0.13602,-0.88947,-0.33158,0.29059
0.0033152,-0.0033146,-0.015374,-0.022266,-0.77669,-0.40903,-0.43528,0.53551,0.31492,-0.56033,0.36258,0.29056,-0.42903,1.4549,0.018067,-0.16733,0.033975,0.0024609,-0.5545,1.6992,0.14865,-0.71969,-0.35563,0.28961
0.0062021,-0.005751,-0.010777,-0.020677,-0.72024,-0.34199,-0.39002,0.56185,0.32258,-0.55342,0.38522,0.44583,-0.41546,1.2229,0.012885,-0.17731,0.041681,0.043671,-0.69034,1.4574,0.16008,-0.57628,-0.34354,0.24939
0.0060163,-0.014514,-0.0050678,-0.017008,-0.65801,-0.26844,-0.32743,0.54251,0.3251,-0.51853,0.40493,0.42965,-0.38636,0.83367,0.013441,-0.16208,0.060356,0.10095,-0.68663,1.0668,0.16392,-0.4682,-0.30451,0.18972
0.0032383,-0.0223,-0.0019239,-0.014211,-0.57411,-0.1984,-0.2674,0.50737,0.32218,-0.44614,0.42876,0.30652,-0.3325,0.35324,0.02975,-0.11288,0.08677,0.15765,-0.53892,0.648,0.15552,-0.38313,-0.25701,0.12793
0.00019672,-0.022891,-0.0028227,-0.013891,-0.45843,-0.14105,-0.22397,0.48263,0.31665,-0.33133,0.46153,0.18371,-0.26175,-0.108,0.060833,-0.033815,0.11988,0.20686,-0.27766,0.31084,0.13404,-0.30241,-0.21668,0.074274
-0.00083911,-0.015367,-0.0066027,-0.015202,-0.32004,-0.09857,-0.19948,0.47926,0.31164,-0.18283,0.50114,0.14422,-0.19442,-0.4487,0.09397,0.057538,0.15879,0.25127,0.040224,0.088303,0.10276,-0.21446,-0.18655,0.035164
0.00072026,-0.004856,-0.010902,-0.015918,-0.18673,-0.066728,-0.18607,0.4916,0.30738,-0.025625,0.53545,0.19263,-0.14886,-0.6125,0.11479,0.13664,0.19922,0.29459,0.34976,-0.075008,0.067406,-0.11975,-0.15715,0.016959
0.0036714,0.0010909,-0.01397,-0.014638,-0.090176,-0.04167,-0.17282,0.50376,0.30071,0.10613,0.54484,0.25566,-0.13012,-0.59493,0.11869,0.18142,0.23273,0.33358,0.59957,-0.2724,0.033878,-0.026561,-0.11579,0.024462
0.0063034,-0.0019508,-0.01533,-0.012042,-0.047962,-0.026739,-0.1538,0.49822,0.2877,0.18322,0.51096,0.2366,-0.13075,-0.43083,0.11331,0.1808,0.25023,0.3578,0.76762,-0.56412,0.0072228,0.056894,-0.057067,0.056231
0.0078339,-0.012151,-0.015064,-0.010095,-0.055234,-0.033362,-0.13156,0.46281,0.26653,0.19454,0.42708,0.080748,-0.1418,-0.1772,0.11031,0.13983,0.24698,0.35688,0.8632,-0.94086,-0.0079769,0.12701,0.012919,0.10343
0.0087289,-0.023301,-0.012859,-0.010085,-0.09116,-0.07503,-0.11381,0.39433,0.23815,0.15155,0.30286,-0.19503,-0.16269,0.10253,0.11434,0.079227,0.22508,0.32885,0.91467,-1.3437,-0.0074758,0.18251,0.080392,0.15526
0.0097251,-0.030005,-0.008103,-0.011524,-0.13415,-0.1586,-0.10621,0.29771,0.20448,0.082165,0.15982,-0.52177,-0.20025,0.35249,0.11886,0.028021,0.19201,0.28274,0.951,-1.7137,0.010707,0.21896,0.13175,0.20602
0.010597,-0.031624,-0.0010466,-0.012891,-0.17422,-0.27841,-0.10686,0.18064,0.16681,0.019022,0.020139,-0.82069,-0.25713,0.53484,0.11196,0.010702,0.1568,0.23427,0.98862,-2.0244,0.042898,0.22746,0.15983,0.25607
0.0099729,-0.031721,0.0063402,-0.013258,-0.21426,-0.41567,-0.10715,0.046393,0.1262,-0.01079,-0.10349,-1.0332,-0.32052,0.6307,0.086842,0.034468,0.12721,0.19837,1.0305,-2.2716,0.078136,0.20148,0.1657,0.30454
0.0065254,-0.033998,0.011187,-0.01299,-0.26139,-0.54242,-0.098626,-0.10965,0.085595,0.008634,-0.20982,-1.1262,-0.36245,0.63096,0.04825,0.083925,0.10877,0.18338,1.0744,-2.4397,0.10136,0.14694,0.1566,0.34117
0.0005162,-0.038806,0.011938,-0.012818,-0.3167,-0.62837,-0.080408,-0.29523,0.050965,0.079472,-0.30169,-1.0883,-0.35329,0.52649,0.010372,0.12772,0.10436,0.18898,1.1215,-2.485,0.10093,0.085438,0.14189,0.34712
-0.0058103,-0.043323,0.0099909,-0.012486,-0.37242,-0.65001,-0.061361,-0.51041,0.029636,0.18835,-0.3755,-0.93481,-0.27837,0.31008,-0.011657,0.13463,0.11323,0.20714,1.1778,-2.3593,0.075793,0.044389,0.12882,0.30746
-0.0095485,-0.044665,0.0089146,-0.010675,-0.41825,-0.60048,-0.054807,-0.7385,0.026535,0.30658,-0.41631,-0.71824,-0.14461,-0.0092712,-0.010284,0.090057,0.12992,0.22512,1.2489,-2.0574,0.036677,0.039921,0.11922,0.22716
-0.0091987,-0.042486,0.01143,-0.0065666,-0.45076,-0.49563,-0.069703,-0.94653,0.041196,0.39647,-0.40366,-0.52388,0.027639,-0.3945,0.011144,0.0031644,0.14534,0.22997,1.3345,-1.6456,-0.00028863,0.066325,0.10893,0.13692
-0.0057689,-0.038567,0.016596,-0.0014457,-0.47674,-0.37009,-0.10482,-1.0957,0.067766,0.4245,-0.32502,-0.43625,0.21918,-0.78748,0.041403,-0.099587,0.15067,0.21419,1.4279,-1.24,-0.023319,0.102,0.090754,0.081728
-0.0020004,-0.034262,0.019822,0.0015549,-0.50712,-0.26152,-0.14982,-1.155,0.097791,0.37551,-0.1876,-0.49179,0.41971,-1.1332,0.068123,-0.18987,0.1421,0.17956,1.5193,-0.942,-0.031341,0.12793,0.060247,0.096535
-0.00040381,-0.028889,0.016148,-0.00019774,-0.54636,-0.19031,-0.19158,-1.1118,0.12365,0.25826,-0.019801,-0.6534,0.62215,-1.4005,0.084166,-0.25172,0.12269,0.13627,1.5971,-0.77552,-0.0329,0.14352,0.021007,0.1831
-0.0017286,-0.020983,0.0044622,-0.006294,-0.58701,-0.14821,-0.22039,-0.97542,0.1407,0.098228,0.13977,-0.83154,0.81051,-1.581,0.090433,-0.28589,0.099931,0.09667,1.6449,-0.66949,-0.039384,0.16628,-0.01467,0.30225
-0.0049324,-0.0112,-0.010658,-0.012926,-0.61461,-0.10585,-0.232,-0.77842,0.14784,-0.076779,0.25937,-0.94153,0.95518,-1.6696,0.093983,-0.3033,0.080873,0.067838,1.6389,-0.49943,-0.058098,0.21587,-0.031461,0.38782
-0.0083356,-0.003638,-0.021196,-0.015383,-0.61917,-0.03573,-0.22591,-0.57357,0.14742,-0.24654,0.32715,-0.95618,1.0236,-1.654,0.10283,-0.31386,0.068945,0.048919,1.5522,-0.16097,-0.089637,0.29613,-0.020304,0.37692
-0.010795,-0.0035929,-0.020777,-0.011623,-0.60319,0.065341,-0.20354,-0.42307,0.14484,-0.39686,0.35312,-0.9159,0.99987,-1.5331,0.12068,-0.31952,0.064381,0.035254,1.3693,0.37094,-0.12971,0.38965,0.014655,0.24251
-0.01208,-0.013091,-0.0091631,-0.0040913,-0.57912,0.17152,-0.16871,-0.37719,0.14687,-0.51056,0.36043,-0.89091,0.89716,-1.3515,0.14497,-0.31559,0.066611,0.025028,1.1016,1.0308,-0.1724,0.4679,0.05662,0.011642
-0.012551,-0.027985,0.0070532,0.0018174,-0.55856,0.24546,-0.12927,-0.44936,0.15842,-0.56293,0.37201,-0.92535,0.75094,-1.2113,0.16947,-0.29733,0.075163,0.021329,0.79094,1.7005,-0.21212,0.50709,0.084518,-0.24131
-0.012721,-0.039642,0.018383,0.0016924,-0.54251,0.26604,-0.096143,-0.60408,0.17885,-0.53013,0.39964,-1.0037,0.59708,-1.2343,0.189,-0.26527,0.087688,0.026808,0.4942,2.2695,-0.24436,0.49697,0.083923,-0.42512
-0.012992,-0.040693,0.01865,-0.0044472,-0.5207,0.24595,-0.07842,-0.77103,0.20077,-0.40719,0.43992,-1.0589,0.4519,-1.4876,0.20205,-0.22488,0.097567,0.036012,0.25784,2.6821,-0.26645,0.43839,0.053363,-0.47206
-0.013468,-0.030704,0.0092707,-0.011889,-0.47997,0.22636,-0.077318,-0.88117,0.21344,-0.22206,0.47729,-1.0116,0.30958,-1.9286,0.20884,-0.18215,0.094997,0.033971,0.098347,2.9481,-0.27867,0.33595,0.002234,-0.36796
-0.013834,-0.017093,-0.0016808,-0.01458,-0.41375,0.25186,-0.084423,-0.90282,0.20918,-0.032374,0.49206,-0.81199,0.15774,-2.4126,0.20741,-0.13997,0.072629,0.0047233,0.0016775,3.119,-0.28433,0.19491,-0.057086,-0.1573
-0.013553,-0.0099806,-0.0053462,-0.0097578,-0.3249,0.34264,-0.086764,-0.85328,0.18876,0.097142,0.47061,-0.46122,-0.0039423,-2.7628,0.19297,-0.098374,0.031986,-0.055989,-0.060173,3.2445,-0.28771,0.025224,-0.11612,0.078222
-0.012461,-0.014533,0.0012065,-0.00029084,-0.2212,0.48219,-0.075579,-0.77941,0.16145,0.12505,0.41378,-0.0080433,-0.15894,-2.8517,0.16355,-0.057507,-0.015094,-0.13455,-0.1098,3.338,-0.29089,-0.1532,-0.17087,0.25549
-0.011261,-0.02683,0.012651,0.0072866,-0.1094,0.62736,-0.051874,-0.7237,0.13976,0.053802,0.33923,0.47206,-0.28612,-2.6415,0.12781,-0.019339,-0.052443,-0.20595,-0.15598,3.3671,-0.29225,-0.31178,-0.21673,0.32287
-0.011197,-0.036865,0.019574,0.0077416,0.0059465,0.73361,-0.024021,-0.702,0.13239,-0.071467,0.27466,0.90414,-0.37662,-2.1705,0.10614,0.013647,-0.069249,-0.24844,-0.19863,3.2784,-0.28778,-0.42317,-0.24401,0.27733
-0.01288,-0.036576,0.016078,0.001202,0.11847,0.7792,0.00067869,-0.70632,0.14026,-0.18517,0.24344,1.2399,-0.4387,-1.5182,0.11957,0.041011,-0.06617,-0.25532,-0.23829,3.0405,-0.27398,-0.47418,-0.23992,0.16168
-0.015328,-0.02645,0.0046642,-0.0070553,0.21629,0.77466,0.023073,-0.72403,0.15727,-0.23214,0.24986,1.4747,-0.48586,-0.78476,0.17184,0.065007,-0.053197,-0.23544,-0.28012,2.6808,-0.24954,-0.47275,-0.19729,0.044788
-0.016361,-0.015159,-0.0057042,-0.010955,0.2839,0.75369,0.051241,-0.75247,0.17405,-0.19079,0.27343,1.647,-0.51993,-0.090965,0.23892,0.088598,-0.041334,-0.20396,-0.33084,2.2885,-0.21505,-0.44482,-0.12345,-0.0088987
-0.014314,-0.012394,-0.0068094,-0.0084081,0.30959,0.75271,0.091799,-0.79579,0.18179,-0.077941,0.27742,1.814,-0.52551,0.43144,0.27784,0.11329,-0.03521,-0.1722,-0.39513,1.9778,-0.17246,-0.42353,-0.040854,0.029492
-0.009587,-0.020849,0.0023802,-0.0024465,0.29298,0.79202,0.14081,-0.84933,0.17466,0.064487,0.22768,2.0134,-0.48216,0.68027,0.25224,0.1393,-0.032498,-0.14483,-0.47706,1.829,-0.12592,-0.43735,0.022996,0.13495
-0.0045316,-0.034061,0.015311,0.0020464,0.24728,0.86858,0.18277,-0.88955,0.15155,0.19093,0.11039,2.2341,-0.3837,0.63944,0.15706,0.16761,-0.029747,-0.12413,-0.5844,1.8447,-0.083128,-0.50219,0.050672,0.23621
-0.0016787,-0.041898,0.023479,0.0028001,0.19469,0.96273,0.19967,-0.88223,0.11716,0.26893,-0.062257,2.419,-0.2475,0.40475,0.023101,0.20056,-0.028537,-0.11499,-0.7285,1.9443,-0.054032,-0.61804,0.044484,0.25151
-0.0019383,-0.038967,0.023036,0.0016687,0.15805,1.0521,0.18345,-0.80497,0.081442,0.28399,-0.26126,2.5006,-0.1052,0.14482,-0.10335,0.23911,-0.035987,-0.12423,-0.91583,1.9991,-0.045992,-0.76861,0.023867,0.13582
-0.0043724,-0.02889,0.016922,0.0020522,0.15304,1.1232,0.14179,-0.6663,0.055527,0.23488,-0.45734,2.4457,0.017139,0.01205,-0.19051,0.2788,-0.05909,-0.15443,-1.1368,1.8846,-0.058256,-0.92351,0.01238,-0.089794
-0.0075209,-0.021027,0.011373,0.0050406,0.1834,1.174,0.092409,-0.50506,0.045179,0.12779,-0.63288,2.2754,0.1124,0.061218,-0.23754,0.3093,-0.098039,-0.1986,-1.3617,1.5221,-0.081036,-1.0452,0.02356,-0.34907
-0.010732,-0.022643,0.010433,0.0081699,0.24039,1.2077,0.050533,-0.3687,0.046033,-0.024233,-0.78209,2.0468,0.18908,0.23154,-0.26582,0.32006,-0.14447,-0.24159,-1.5483,0.8989,-0.10122,-1.1019,0.054948,-0.5572
-0.014111,-0.033119,0.013243,0.0079338,0.30665,1.2249,0.019958,-0.28552,0.045287,-0.19746,-0.90152,1.8121,0.25637,0.40253,-0.29427,0.30906,-0.18599,-0.2682,-1.6566,0.067737,-0.11077,-1.0813,0.09294,-0.67143
-0.017359,-0.044727,0.015803,0.0034534,0.36375,1.2199,-0.0051226,-0.25057,0.030158,-0.3568,-0.98091,1.5904,0.31303,0.48177,-0.32064,0.2872,-0.21318,-0.27206,-1.6608,-0.86436,-0.11094,-0.99809,0.12333,-0.70891
-0.019074,-0.04885,0.014931,-0.0023743,0.40055,1.1843,-0.029813,-0.23475,-0.0024537,-0.46375,-1.003,1.3699,0.35012,0.46464,-0.32394,0.27343,-0.22357,-0.25833,-1.554,-1.7576,-0.10853,-0.88513,0.13951,-0.72017
-0.017651,-0.042251,0.010763,-0.0054212,0.41763,1.1134,-0.049544,-0.20927,-0.042737,-0.49099,-0.95359,1.1323,0.36359,0.43066,-0.28422,0.28242,-0.2207,-0.2383,-1.3494,-2.4713,-0.10742,-0.77209,0.14369,-0.74153
-0.0131,-0.028553,0.0060465,-0.0041809,0.4246,1.0115,-0.051183,-0.16691,-0.074471,-0.4344,-0.835,0.87234,0.36254,0.48614,-0.20149,0.31363,-0.21012,-0.22063,-1.0804,-2.9023,-0.10297,-0.66397,0.14246,-0.7658
-0.0078505,-0.014488,0.003447,-0.0013203,0.43171,0.89133,-0.02398,-0.12504,-0.086841,-0.31413,-0.67125,0.59662,0.36306,0.69416,-0.098142,0.35051,-0.19625,-0.206,-0.8009,-3.0181,-0.08449,-0.53615,0.14141,-0.75405
-0.0053358,-0.0046744,0.0034388,-0.0014393,0.44212,0.76923,0.02905,-0.10988,-0.082498,-0.16442,-0.50008,0.30842,0.37243,1.0343,-0.0041528,0.37151,-0.18168,-0.18898,-0.57551,-2.8691,-0.044201,-0.35252,0.14265,-0.67578
-0.007253,0.00078319,0.0043096,-0.0069572,0.45062,0.65979,0.089979,-0.13522,-0.075437,-0.019882,-0.35497,0.0010806,0.37855,1.4114,0.061554,0.36499,-0.16801,-0.16486,-0.45852,-2.5704,0.014396,-0.096282,0.14536,-0.54198
-0.011906,0.004568,0.0038052,-0.01568,0.44971,0.57222,0.13745,-0.19136,-0.080324,0.092676,-0.24854,-0.32931,0.35583,1.7034,0.099175,0.33635,-0.15631,-0.13532,-0.46851,-2.258,0.075435,0.20852,0.14756,-0.40315
-0.015341,0.0086365,0.00081778,-0.022175,0.4376,0.50974,0.16206,-0.2505,-0.10166,0.15497,-0.16881,-0.66283,0.28378,1.82,0.1217,0.30094,-0.14643,-0.10781,-0.57484,-2.0347,0.1182,0.50246,0.14741,-0.3149
-0.01457,0.012318,-0.0040858,-0.021898,0.42146,0.47044,0.17266,-0.28228,-0.13108,0.15574,-0.091075,-0.94853,0.16258,1.7418,0.14184,0.26774,-0.13643,-0.088948,-0.70822,-1.9308,0.12833,0.72191,0.14383,-0.29967
-0.010165,0.013483,-0.0093482,-0.014844,0.41351,0.44867,0.18756,-0.2675,-0.15417,0.093428,0.0026888,-1.1232,0.01257,1.5215,0.16287,0.22716,-0.12318,-0.077389,-0.79215,-1.9009,0.10554,0.83497,0.13736,-0.33356
-0.0058575,0.011297,-0.013575,-0.0058424,0.42367,0.43668,0.21755,-0.20206,-0.16068,-0.017383,0.11079,-1.1467,-0.14079,1.2509,0.17856,0.15452,-0.1041,-0.062447,-0.77775,-1.8623,0.063237,0.8561,0.1309,-0.36512
-0.0053104,0.0077642,-0.016385,-0.0013083,0.45427,0.42707,0.25565,-0.092286,-0.15016,-0.14289,0.21428,-1.0312,-0.28227,1.0123,0.17963,0.029331,-0.078935,-0.030736,-0.66213,-1.7568,0.020832,0.82829,0.12932,-0.34855
-0.0088101,0.0065413,-0.018587,-0.0048768,0.50008,0.41533,0.28296,0.051708,-0.1298,-0.23814,0.29223,-0.84567,-0.40942,0.84228,0.16081,-0.14274,-0.050457,0.023307,-0.48236,-1.597,-0.0065229,0.78661,0.13716,-0.26753
-0.012874,0.010037,-0.021667,-0.015121,0.55187,0.40167,0.2865,0.2189,-0.10802,-0.2655,0.33752,-0.69214,-0.5226,0.72707,0.12459,-0.32201,-0.023974,0.090648,-0.29297,-1.4661,-0.014587,0.73205,0.15555,-0.13775
-0.013249,0.017382,-0.026826,-0.02685,0.60009,0.39061,0.27279,0.39589,-0.089843,-0.21313,0.36107,-0.66392,-0.61479,0.62673,0.080464,-0.44941,-0.0060344,0.15023,-0.14205,-1.4684,-0.0097183,0.63698,0.18078,0.0070682
-0.0086862,0.025122,-0.034042,-0.034804,0.63679,0.38849,0.26406,0.56466,-0.076674,-0.10075,0.3823,-0.8029,-0.67288,0.51017,0.041165,-0.47663,-0.0025077,0.18018,-0.056191,-1.6644,-0.0024474,0.47773,0.20593,0.13338
-0.0020464,0.03009,-0.041808,-0.036895,0.65626,0.39972,0.27869,0.70371,-0.068147,0.031876,0.41424,-1.074,-0.68941,0.37493,0.017446,-0.39372,-0.016031,0.17087,-0.034804,-2.0342,0.00053998,0.2665,0.22482,0.22152
0.0023702,0.031976,-0.047938,-0.034786,0.6557,0.42318,0.31235,0.79333,-0.062519,0.14613,0.45546,-1.3713,-0.67258,0.23936,0.013642,-0.23734,-0.043427,0.13162,-0.050037,-2.4915,0.00073994,0.054132,0.23501,0.27242
0.0028447,0.033279,-0.051069,-0.031787,0.63537,0.44995,0.33711,0.82298,-0.055056,0.22127,0.494,-1.5602,-0.6436,0.11681,0.026037,-0.074608,-0.074874,0.0864,-0.052075,-2.9307,0.0058105,-0.10076,0.23769,0.30653
0.0018115,0.036649,-0.051737,-0.030062,0.59724,0.46392,0.32119,0.79654,-0.037517,0.25727,0.51885,-1.5384,-0.62325,-0.0037054,0.0451,0.028417,-0.096627,0.061031,0.015962,-3.2689,0.022908,-0.17187,0.23477,0.3537
0.0033526,0.042015,-0.051952,-0.029411,0.54244,0.4464,0.25384,0.73226,-0.0015704,0.26591,0.52905,-1.2873,-0.62009,-0.15064,0.060551,0.03656,-0.097212,0.069059,0.19255,-3.4599,0.052319,-0.18149,0.22611,0.43564
0.0088434,0.046215,-0.053379,-0.02829,0.46987,0.38412,0.15494,0.65644,0.055097,0.26065,0.53332,-0.88058,-0.63075,-0.3394,0.066482,-0.041415,-0.074106,0.10461,0.47168,-3.4835,0.086068,-0.17953,0.20961,0.54931
0.014912,0.045715,-0.05569,-0.025874,0.37816,0.27677,0.061184,0.59304,0.1248,0.25378,0.54113,-0.44618,-0.65043,-0.54347,0.063816,-0.16192,-0.036514,0.14629,0.7944,-3.336,0.11257,-0.20294,0.18377,0.66379
0.015934,0.040177,-0.056834,-0.0232,0.27008,0.13846,0.00046381,0.5533,0.19195,0.25982,0.55255,-0.10225,-0.68102,-0.69549,0.059061,-0.27161,-0.0015533,0.16983,1.0704,-3.0345,0.12391,-0.24859,0.14973,0.73606
0.0091222,0.033692,-0.055421,-0.022431,0.15513,-0.0097159,-0.024578,0.53029,0.24064,0.29689,0.55467,0.092815,-0.7274,-0.72502,0.060327,-0.33415,0.014762,0.16214,1.2222,-2.6266,0.12051,-0.2797,0.11032,0.73737
-0.0023006,0.032226,-0.053093,-0.024975,0.046896,-0.15176,-0.031578,0.50114,0.26262,0.37947,0.52795,0.15145,-0.78516,-0.60886,0.07256,-0.34439,0.0066128,0.12827,1.2265,-2.1846,0.10982,-0.25697,0.066468,0.6719
-0.010894,0.038989,-0.054167,-0.030148,-0.044185,-0.28415,-0.038564,0.43724,0.2607,0.50584,0.45917,0.13095,-0.8332,-0.39603,0.094052,-0.32322,-0.018148,0.087256,1.1226,-1.7794,0.10032,-0.16771,0.014878,0.57363
-0.01053,0.051262,-0.061957,-0.035525,-0.11751,-0.41142,-0.047735,0.31867,0.2459,0.6513,0.353,0.093926,-0.84159,-0.18451,0.11589,-0.29836,-0.04263,0.059648,0.98277,-1.4499,0.095337,-0.031912,-0.049999,0.48377
-0.0011181,0.061421,-0.074628,-0.038631,-0.18311,-0.5327,-0.046632,0.14735,0.23089,0.77593,0.23416,0.078979,-0.79076,-0.062538,0.12529,-0.28447,-0.051084,0.054969,0.86431,-1.192,0.091176,0.11287,-0.13024,0.42606
0.01136,0.061819,-0.084788,-0.038556,-0.25552,-0.63116,-0.023841,-0.047499,0.22386,0.8442,0.1371,0.091283,-0.68673,-0.053777,0.11204,-0.27517,-0.038379,0.067235,0.77885,-0.97561,0.080645,0.23075,-0.21944,0.39774
0.019463,0.050269,-0.084344,-0.036286,-0.34446,-0.67808,0.016577,-0.2156,0.22577,0.84316,0.087968,0.10936,-0.55909,-0.10396,0.07507,-0.25067,-0.012791,0.080904,0.69953,-0.77395,0.058905,0.29659,-0.30292,0.38063
0.019674,0.032077,-0.071277,-0.033695,-0.44803,-0.65096,0.055775,-0.30353,0.23155,0.78618,0.089324,0.10125,-0.44297,-0.11774,0.024841,-0.19398,0.0096273,0.082301,0.59626,-0.58067,0.027193,0.29581,-0.36378,0.36028
0.014292,0.016715,-0.05241,-0.032205,-0.55159,-0.55215,0.075409,-0.27842,0.23421,0.70033,0.11789,0.0449,-0.35896,-0.020783,-0.020968,-0.10406,0.015356,0.068138,0.46767,-0.40438,-0.0081231,0.22497,-0.39068,0.33628
0.0087747,0.01113,-0.039018,-0.032105,-0.63244,-0.41117,0.07372,-0.14673,0.2294,0.6086,0.13747,-0.053937,-0.30607,0.19224,-0.046822,0.0017558,0.0016697,0.045767,0.34429,-0.25301,-0.040011,0.097509,-0.38208,0.31605
0.007178,0.014502,-0.038302,-0.032791,-0.66791,-0.26655,0.068104,0.043296,0.21814,0.521,0.11925,-0.1576,-0.27076,0.45154,-0.047968,0.096213,-0.022194,0.026544,0.26467,-0.12763,-0.065119,-0.052348,-0.34498,0.30013
0.0095625,0.018755,-0.047833,-0.033385,-0.64403,-0.14072,0.081922,0.21991,0.20589,0.43946,0.056404,-0.21456,-0.24157,0.649,-0.032317,0.15562,-0.040941,0.01863,0.24941,-0.031747,-0.084896,-0.17827,-0.29049,0.2741
0.012995,0.014935,-0.057844,-0.033204,-0.56175,-0.028591,0.12672,0.32008,0.19842,0.36851,-0.03575,-0.1937,-0.21612,0.69519,-0.014072,0.17149,-0.04155,0.024702,0.29584,0.019134,-0.10314,-0.24313,-0.23015,0.21668
0.014591,0.00072823,-0.059472,-0.031961,-0.4378,0.090121,0.19405,0.31843,0.19729,0.31921,-0.13243,-0.1118,-0.19561,0.56507,-0.0037703,0.15535,-0.01859,0.044821,0.39253,0.0086899,-0.12222,-0.23935,-0.17487,0.11851
0.013671,-0.017095,-0.051734,-0.029902,-0.29853,0.22506,0.26217,0.23563,0.19828,0.30173,-0.21468,-0.029847,-0.17445,0.30849,-0.0022223,0.13444,0.025759,0.080004,0.53215,-0.046391,-0.14077,-0.19196,-0.13468,-0.0045339
0.011524,-0.027736,-0.04128,-0.027822,-0.16873,0.35828,0.31071,0.12086,0.19436,0.31382,-0.27702,-0.014019,-0.13668,0.021242,-0.00261,0.13888,0.085116,0.13207,0.7048,-0.066504,-0.15416,-0.14095,-0.1164,-0.11646
0.0096916,-0.025076,-0.035646,-0.026728,-0.060775,0.45158,0.33124,0.019999,0.18104,0.33786,-0.32436,-0.085754,-0.064729,-0.20662,0.0017435,0.18508,0.15214,0.19968,0.87807,0.079654,-0.157,-0.1159,-0.11926,-0.18394
0.0087245,-0.01283,-0.036481,-0.027087,0.029404,0.47339,0.32729,-0.048895,0.16015,0.35116,-0.36336,-0.19826,0.045792,-0.33557,0.011069,0.26418,0.21951,0.27473,0.98852,0.50864,-0.14623,-0.12187,-0.13203,-0.20126
0.0083599,-0.001732,-0.038816,-0.028213,0.11712,0.42415,0.30665,-0.097117,0.13913,0.34187,-0.39552,-0.26041,0.17766,-0.38931,0.019836,0.34399,0.2794,0.34339,0.96229,1.2312,-0.12316,-0.14504,-0.13625,-0.19864
0.0083756,-0.0011256,-0.036402,-0.028554,0.21758,0.34,0.27445,-0.14568,0.12646,0.31704,-0.41554,-0.19481,0.29844,-0.4301,0.023456,0.38617,0.32351,0.39191,0.75506,2.0991,-0.093721,-0.17037,-0.11588,-0.22601
0.0088862,-0.012012,-0.027662,-0.026944,0.33561,0.27221,0.23219,-0.20164,0.12661,0.29572,-0.41342,0.0090396,0.37899,-0.51477,0.024413,0.36945,0.34478,0.41285,0.38008,2.8424,-0.066504,-0.19527,-0.06801,-0.32093
0.0098163,-0.027085,-0.016774,-0.023861,0.46272,0.2575,0.18174,-0.24881,0.13764,0.29294,-0.37766,0.28321,0.41176,-0.65946,0.031663,0.30364,0.33998,0.40713,-0.099611,3.1935,-0.049012,-0.22959,-0.0065396,-0.48059
0.010396,-0.03707,-0.0095288,-0.02139,0.58284,0.29998,0.12855,-0.25845,0.15247,0.308,-0.29857,0.51899,0.416,-0.83164,0.053368,0.22334,0.31129,0.38067,-0.60852,3.031,-0.04381,-0.28486,0.044724,-0.65578
0.0094752,-0.037619,-0.0083832,-0.02161,0.68242,0.37509,0.080326,-0.20949,0.16243,0.32597,-0.17324,0.62807,0.42534,-0.96828,0.089352,0.16463,0.26562,0.33955,-1.0943,2.4513,-0.047101,-0.36387,0.065513,-0.772
0.0064153,-0.031384,-0.011204,-0.024598,0.75794,0.44948,0.042089,-0.10304,0.16062,0.32989,-0.0112,0.58715,0.46567,-1.0054,0.13025,0.141,0.21207,0.28799,-1.5336,1.713,-0.051351,-0.45819,0.049584,-0.76683
0.0016247,-0.024712,-0.014077,-0.027869,0.81599,0.50157,0.012502,0.037618,0.14401,0.31262,0.16309,0.43993,0.53731,-0.90458,0.16437,0.13579,0.15899,0.23069,-1.9084,1.084,-0.050867,-0.55287,0.0050766,-0.62345
-0.0037547,-0.02271,-0.014804,-0.028018,0.86603,0.53021,-0.014889,0.17784,0.11389,0.27915,0.31573,0.26063,0.61342,-0.67134,0.18621,0.11622,0.1118,0.17592,-2.1806,0.69008,-0.046542,-0.63152,-0.05418,-0.38192
-0.0085237,-0.026652,-0.013819,-0.023395,0.91146,0.54901,-0.045837,0.28435,0.075034,0.23953,0.41664,0.10757,0.65541,-0.36115,0.19904,0.05765,0.072444,0.13471,-2.2931,0.46378,-0.045916,-0.67762,-0.1182,-0.12157
-0.011708,-0.034546,-0.012444,-0.015639,0.94591,0.57387,-0.079264,0.33367,0.034052,0.20009,0.45378,-0.0021042,0.63584,-0.069209,0.20935,-0.040432,0.039988,0.11496,-2.202,0.22257,-0.057947,-0.67387,-0.18317,0.076253
-0.012409,-0.042971,-0.011021,-0.0087011,0.9581,0.61288,-0.10554,0.31611,-0.0026067,0.16055,0.43819,-0.084822,0.55409,0.1017,0.21869,-0.1568,0.011977,0.11438,-1.9143,-0.187,-0.086147,-0.60505,-0.2459,0.16474
-0.0099259,-0.048394,-0.0089995,-0.0060753,0.94189,0.66425,-0.11083,0.23758,-0.030508,0.11779,0.39563,-0.16292,0.43537,0.087468,0.22035,-0.26452,-0.013977,0.11891,-1.501,-0.78258,-0.12529,-0.46663,-0.29736,0.14775
-0.0044933,-0.047951,-0.0064818,-0.0084186,0.9035,0.72104,-0.08485,0.11884,-0.048374,0.070897,0.34953,-0.24111,0.314,-0.10047,0.20406,-0.34614,-0.038665,0.10954,-1.0735,-1.4419,-0.16425,-0.27427,-0.32318,0.068289
0.0020261,-0.040625,-0.0050846,-0.013352,0.85949,0.77807,-0.027475,-0.0096165,-0.058307,0.022136,0.30706,-0.30339,0.21198,-0.37319,0.16425,-0.39756,-0.060162,0.074358,-0.7376,-1.9845,-0.19276,-0.06603,-0.31257,-0.020844
0.0066433,-0.028619,-0.0067867,-0.01738,0.82626,0.83617,0.050114,-0.11718,-0.06509,-0.026129,0.25786,-0.32811,0.12707,-0.60279,0.10447,-0.42146,-0.073655,0.017589,-0.55362,-2.2678,-0.20694,0.10833,-0.26838,-0.084469
0.0070684,-0.017365,-0.01175,-0.018256,0.80879,0.90144,0.1302,-0.18285,-0.074594,-0.073942,0.18529,-0.30572,0.037957,-0.67872,0.034807,-0.42008,-0.072741,-0.040831,-0.52129,-2.2383,-0.20973,0.20775,-0.20949,-0.11456
0.0034952,-0.012995,-0.017347,-0.016042,0.79774,0.98063,0.19669,-0.19986,-0.09146,-0.12198,0.081024,-0.24505,-0.077066,-0.54783,-0.034601,-0.39482,-0.052194,-0.075755,-0.58927,-1.9327,-0.20685,0.21939,-0.16169,-0.12036
-0.0013547,-0.01838,-0.019607,-0.012446,0.77758,1.0757,0.24229,-0.17363,-0.11671,-0.16708,-0.04774,-0.16643,-0.22124,-0.22031,-0.097947,-0.35161,-0.01122,-0.070914,-0.67862,-1.4616,-0.20176,0.16551,-0.1432,-0.11146
-0.004186,-0.030741,-0.016042,-0.0093332,0.73949,1.1811,0.27098,-0.11675,-0.14662,-0.20067,-0.18241,-0.090585,-0.37372,0.24774,-0.15309,-0.30448,0.044519,-0.027904,-0.70979,-0.99283,-0.1935,0.09255,-0.15463,-0.089009
-0.003478,-0.04316,-0.0074777,-0.0075998,0.68904,1.286,0.29467,-0.045562,-0.17394,-0.21372,-0.3031,-0.032295,-0.50154,0.77202,-0.19813,-0.27162,0.10371,0.035255,-0.62844,-0.71731,-0.17801,0.048233,-0.18056,-0.050676
-0.00024717,-0.049355,0.0026505,-0.0069253,0.64274,1.379,0.32587,0.020862,-0.19146,-0.20519,-0.39608,4.5582e-005,-0.58029,1.2479,-0.22954,-0.26581,0.15334,0.094591,-0.42614,-0.77478,-0.15136,0.059822,-0.20068,-0.0020185
0.0032285,-0.048293,0.010877,-0.0062108,0.61669,1.4532,0.37034,0.062556,-0.196,-0.18595,-0.45401,0.005218,-0.60864,1.5617,-0.24374,-0.28703,0.18407,0.13286,-0.14681,-1.1646,-0.11258,0.12566,-0.2021,0.038738
0.0053005,-0.045007,0.015952,-0.0043225,0.61634,1.5069,0.42369,0.063848,-0.19022,-0.17285,-0.47207,-0.0055953,-0.60663,1.6221,-0.24057,-0.32332,0.19408,0.14656,0.13089,-1.7117,-0.064828,0.22298,-0.18467,0.049248
0.0056953,-0.046803,0.018992,-0.00084935,0.63467,1.5406,0.47402,0.019545,-0.18094,-0.17577,-0.44659,-0.003557,-0.60027,1.406,-0.2254,-0.3593,0.18869,0.14338,0.33281,-2.1453,-0.015028,0.32443,-0.15743,0.019349
0.0047698,-0.057553,0.021707,0.00345,0.65857,1.5547,0.50921,-0.063317,-0.17494,-0.1882,-0.37923,0.05336,-0.6052,0.98697,-0.20845,-0.38547,0.17578,0.13254,0.43013,-2.2589,0.027866,0.41135,-0.13089,-0.03819
0.002498,-0.074328,0.024544,0.0068935,0.67665,1.5494,0.52467,-0.17086,-0.17508,-0.19032,-0.28325,0.20206,-0.6208,0.51239,-0.20143,-0.40125,0.15966,0.11512,0.45384,-2.0427,0.055672,0.47661,-0.1116,-0.092444
-0.0015113,-0.088867,0.026369,0.0078761,0.68239,1.528,0.52652,-0.2909,-0.17945,-0.16397,-0.1844,0.45124,-0.6365,0.13181,-0.21285,-0.41035,0.13778,0.081849,0.46902,-1.6799,0.064,0.51901,-0.10188,-0.11272
-0.0070292,-0.092782,0.025699,0.0060136,0.67193,1.4986,0.52798,-0.4171,-0.18373,-0.10861,-0.11245,0.77073,-0.64196,-0.078958,-0.24321,-0.41372,0.10283,0.020189,0.52423,-1.3991,0.054054,0.53736,-0.10192,-0.087899
-0.01253,-0.082762,0.02209,0.0024988,0.64163,1.4704,0.54068,-0.5448,-0.18466,-0.045185,-0.086904,1.1032,-0.63155,-0.14439,-0.28237,-0.40706,0.048997,-0.07418,0.61181,-1.2952,0.032062,0.53061,-0.11089,-0.03305
-0.015831,-0.062378,0.016436,-0.00069921,0.58969,1.4476,0.56651,-0.66286,-0.18199,-0.0040652,-0.10581,1.39,-0.60129,-0.14814,-0.31186,-0.38511,-0.021873,-0.19032,0.66964,-1.254,0.0065295,0.50277,-0.12555,0.020968
-0.01564,-0.039849,0.010302,-0.0021509,0.52119,1.4249,0.59592,-0.75042,-0.17752,-0.0054979,-0.14541,1.5896,-0.54414,-0.15943,-0.31295,-0.34832,-0.099038,-0.30524,0.62487,-1.0358,-0.01505,0.46627,-0.1394,0.046768
-0.012596,-0.02386,0.0052965,-0.0017223,0.45061,1.3919,0.61446,-0.78425,-0.17244,-0.046888,-0.17144,1.6744,-0.45035,-0.18608,-0.27696,-0.30427,-0.16747,-0.39542,0.4486,-0.44461,-0.028285,0.43809,-0.14497,0.034896
-0.0088486,-0.020071,0.0030185,-0.000319,0.39732,1.3431,0.61371,-0.75292,-0.16555,-0.10576,-0.15554,1.615,-0.31364,-0.18673,-0.21102,-0.2609,-0.21516,-0.44832,0.18196,0.54358,-0.032278,0.43008,-0.13867,-0.0051291
-0.0065961,-0.029442,0.0049355,0.00089024,0.37549,1.2857,0.5989,-0.66776,-0.15392,-0.15517,-0.087259,1.3752,-0.13735,-0.12224,-0.13427,-0.21711,-0.23813,-0.46579,-0.085604,1.7718,-0.029099,0.44052,-0.12432,-0.055008
-0.0068652,-0.04798,0.011419,0.0010452,0.38563,1.2372,0.5873,-0.56159,-0.1354,-0.17967,0.023728,0.93549,0.064456,0.005129,-0.066574,-0.16128,-0.24024,-0.45836,-0.2704,2.9894,-0.023157,0.45393,-0.11154,-0.099492
-0.0093695,-0.067601,0.020426,-0.00017629,0.41415,1.213,0.59796,-0.47473,-0.1109,-0.18103,0.1548,0.33273,0.27124,0.15805,-0.017899,-0.082678,-0.22925,-0.4367,-0.34391,3.9585,-0.020253,0.4503,-0.10933,-0.13162
-0.013159,-0.078746,0.027558,-0.0023217,0.44154,1.213,0.63962,-0.43611,-0.084334,-0.17197,0.28105,-0.32011,0.46107,0.30305,0.01357,0.011298,-0.21298,-0.40817,-0.34518,4.5188,-0.025586,0.41747,-0.11944,-0.15059
-0.017214,-0.075031,0.028574,-0.0039012,0.45273,1.22,0.70484,-0.4502,-0.060382,-0.16492,0.38349,-0.86225,0.61386,0.43831,0.034075,0.0881,-0.19816,-0.38014,-0.35045,4.6133,-0.040895,0.35855,-0.13429,-0.1575
-0.020569,-0.057923,0.022962,-0.0027334,0.44277,1.2103,0.7738,-0.49633,-0.04177,-0.16511,0.45185,-1.1542,0.71404,0.58145,0.045038,0.10445,-0.19121,-0.36472,-0.42207,4.2974,-0.062529,0.28961,-0.14104,-0.15383
-0.022332,-0.037489,0.015316,0.002622,0.41545,1.1707,0.82403,-0.54,-0.028433,-0.17167,0.48349,-1.145,0.75488,0.73154,0.040572,0.036298,-0.1979,-0.37718,-0.57025,3.7361,-0.082559,0.22982,-0.12902,-0.14242
-0.022045,-0.02679,0.012457,0.011075,0.37826,1.1064,0.83921,-0.54937,-0.019065,-0.18346,0.48116,-0.89257,0.74289,0.84743,0.013718,-0.097211,-0.2207,-0.42675,-0.74895,3.1611,-0.093087,0.19056,-0.095537,-0.12733
-0.020209,-0.032671,0.017997,0.018617,0.33867,1.0345,0.81231,-0.50848,-0.013508,-0.20325,0.45154,-0.52537,0.69668,0.86949,-0.034882,-0.23687,-0.25567,-0.50641,-0.88416,2.7768,-0.091106,0.17012,-0.046965,-0.11085
-0.018272,-0.050004,0.028982,0.020447,0.30317,0.96841,0.74364,-0.42129,-0.013677,-0.23679,0.40384,-0.17498,0.63719,0.769,-0.094255,-0.31526,-0.2926,-0.5913,-0.91396,2.6551,-0.080227,0.15653,0.0051221,-0.090489
-0.017703,-0.065003,0.037979,0.014537,0.27715,0.90689,0.63763,-0.30608,-0.022054,-0.2887,0.34724,0.074958,0.57454,0.58029,-0.14896,-0.29588,-0.31984,-0.64954,-0.81683,2.6974,-0.067712,0.13613,0.050053,-0.060309
-0.018782,-0.065937,0.039229,0.0038119,0.26322,0.83494,0.5009,-0.18493,-0.039082,-0.36003,0.28711,0.20018,0.50226,0.3847,-0.18833,-0.19123,-0.33095,-0.65952,-0.61678,2.7058,-0.059017,0.10245,0.08277,-0.01715
-0.020229,-0.052649,0.033498,-0.0052701,0.25855,0.73614,0.34142,-0.074742,-0.061951,-0.44987,0.22269,0.21865,0.40623,0.25792,-0.21127,-0.047821,-0.32821,-0.62192,-0.36854,2.522,-0.054112,0.060161,0.10469,0.033597
-0.020233,-0.036554,0.027168,-0.0070625,0.25439,0.60516,0.16683,0.01646,-0.086146,-0.55886,0.14822,0.1722,0.28292,0.22445,-0.22326,0.087628,-0.31999,-0.55803,-0.13473,2.1293,-0.048375,0.021692,0.12058,0.079105
-0.018083,-0.030851,0.026334,-0.00068626,0.24017,0.4511,-0.017831,0.088945,-0.10867,-0.68975,0.057204,0.12013,0.15196,0.25455,-0.22927,0.19286,-0.31391,-0.49542,0.034764,1.6387,-0.036959,-0.0013939,0.13381,0.10788
-0.014959,-0.039443,0.031396,0.0095879,0.21005,0.29079,-0.21043,0.14987,-0.13036,-0.84262,-0.053522,0.13341,0.050651,0.30097,-0.22918,0.26889,-0.31125,-0.45108,0.11638,1.1744,-0.018826,-0.0066915,0.14324,0.11914
-0.013049,-0.054234,0.037127,0.017774,0.16722,0.1389,-0.40779,0.2126,-0.15536,-1.0079,-0.18279,0.27106,0.012079,0.33977,-0.21904,0.32047,-0.3067,-0.4231,0.11773,0.76143,0.0027371,-0.0030383,0.14408,0.12361
-0.013729,-0.062862,0.037989,0.020483,0.12235,0.0027439,-0.5995,0.29455,-0.18804,-1.1636,-0.32656,0.54097,0.042706,0.38124,-0.1958,0.34136,-0.29319,-0.39545,0.072575,0.31177,0.022946,-0.0044848,0.13243,0.13308
-0.016413,-0.059561,0.033484,0.018637,0.087029,-0.11603,-0.76529,0.41061,-0.22954,-1.2813,-0.47839,0.87398,0.11666,0.44753,-0.16058,0.31974,-0.26751,-0.35107,0.025657,-0.28002,0.038752,-0.02024,0.10995,0.14659
-0.019116,-0.049439,0.028431,0.015639,0.067228,-0.21701,-0.88085,0.56334,-0.27594,-1.3384,-0.62721,1.1428,0.19152,0.54309,-0.11773,0.25748,-0.23226,-0.28366,0.012267,-1.0155,0.04966,-0.048195,0.085312,0.14544
-0.020197,-0.042936,0.028056,0.014139,0.061671,-0.29891,-0.93019,0.73711,-0.31899,-1.3288,-0.75533,1.2274,0.23363,0.64575,-0.071534,0.18192,-0.1933,-0.20073,0.042526,-1.7493,0.056041,-0.077287,0.070483,0.10336
-0.019658,-0.046106,0.032733,0.014402,0.065771,-0.36133,-0.91624,0.90307,-0.34902,-1.2657,-0.84246,1.0886,0.23444,0.72343,-0.024286,0.13569,-0.15559,-0.11796,0.099686,-2.2628,0.057286,-0.097017,0.074271,0.0058228
-0.01879,-0.055518,0.037412,0.01523,0.076993,-0.40721,-0.86083,1.0346,-0.35861,-1.1739,-0.87713,0.79885,0.20703,0.75781,0.022091,0.15073,-0.12124,-0.050311,0.15329,-2.3966,0.052099,-0.10658,0.097436,-0.13618
-0.018582,-0.061679,0.036162,0.015806,0.096356,-0.4428,-0.79282,1.1232,-0.34584,-1.0777,-0.86861,0.50393,0.16792,0.75356,0.063007,0.22736,-0.091001,-0.0063214,0.17787,-2.1469,0.040808,-0.11641,0.13294,-0.28927
-0.018483,-0.057116,0.027488,0.016229,0.1244,-0.47489,-0.73297,1.1819,-0.31527,-0.99142,-0.84783,0.33858,0.12054,0.72909,0.090346,0.33475,-0.066886,0.012422,0.16481,-1.659,0.027264,-0.1415,0.17094,-0.4162
-0.016834,-0.041848,0.015518,0.016379,0.15533,-0.50807,-0.6867,1.2334,-0.27599,-0.91761,-0.85207,0.34995,0.054095,0.70164,0.095549,0.43104,-0.052438,0.009008,0.12178,-1.1358,0.017983,-0.19229,0.20454,-0.4961
-0.012649,-0.02226,0.0062284,0.014876,0.17567,-0.54444,-0.64891,1.2919,-0.23751,-0.85081,-0.90156,0.47766,-0.041533,0.68099,0.074546,0.48622,-0.049754,-0.010397,0.06418,-0.72901,0.018611,-0.26991,0.2317,-0.53197
-0.0070517,-0.0054846,0.0024492,0.0099055,0.17042,-0.58507,-0.61448,1.3542,-0.20592,-0.78445,-0.98537,0.59893,-0.15826,0.67311,0.030527,0.49226,-0.055721,-0.036629,0.0071293,-0.48219,0.030253,-0.36735,0.25236,-0.54111
-0.0028591,0.0052411,0.0022275,0.0014722,0.1334,-0.63067,-0.58378,1.407,-0.18274,-0.71617,-1.069,0.60578,-0.26596,0.68462,-0.027583,0.45789,-0.061389,-0.058136,-0.037881,-0.34742,0.048517,-0.4727,0.26413,-0.53805
-0.0025006,0.010787,0.0016779,-0.0072983,0.073471,-0.68002,-0.55894,1.4436,-0.16702,-0.64964,-1.1192,0.46439,-0.32816,0.72066,-0.089294,0.39664,-0.05605,-0.064117,-0.064205,-0.24667,0.066038,-0.57063,0.26156,-0.52432
-0.0060125,0.012966,-0.00079285,-0.011725,0.010477,-0.72852,-0.53721,1.4741,-0.15807,-0.59249,-1.127,0.22332,-0.3266,0.7791,-0.14566,0.31825,-0.033544,-0.049262,-0.072932,-0.12969,0.076745,-0.64253,0.24057,-0.49193
-0.010863,0.011909,-0.0030545,-0.0091627,-0.03784,-0.76986,-0.51141,1.5197,-0.1563,-0.55145,-1.1098,-0.027169,-0.27537,0.84883,-0.18937,0.22695,0.0038431,-0.016621,-0.076115,0.0050129,0.079151,-0.66894,0.2045,-0.43513
-0.013738,0.0066772,-0.0018488,-0.001518,-0.068617,-0.80145,-0.47932,1.5965,-0.16136,-0.5271,-1.0922,-0.21294,-0.21201,0.91439,-0.21345,0.12443,0.046803,0.024207,-0.094433,0.12672,0.076876,-0.6361,0.16579,-0.35843
-0.012747,-0.0018331,0.003289,0.0058243,-0.096342,-0.82913,-0.45257,1.7025,-0.16997,-0.51133,-1.0805,-0.31326,-0.17155,0.96095,-0.21185,0.014226,0.08459,0.062712,-0.14598,0.20371,0.076421,-0.54322,0.14041,-0.27418
-0.0082923,-0.0091438,0.0086994,0.0079962,-0.14236,-0.86586,-0.45274,1.8207,-0.17597,-0.48992,-1.0551,-0.35809,-0.16359,0.97392,-0.18268,-0.094045,0.11064,0.092903,-0.23139,0.2238,0.083489,-0.40497,0.13859,-0.19336
-0.0022273,-0.0091218,0.009245,0.0041876,-0.21906,-0.92344,-0.4939,1.9334,-0.17318,-0.4494,-0.98549,-0.39495,-0.17036,0.93605,-0.13147,-0.18251,0.12464,0.11478,-0.32649,0.19495,0.099676,-0.24753,0.15896,-0.1197
0.0035732,0.0014344,0.0025561,-0.0023047,-0.32102,-1.0034,-0.56602,2.0346,-0.15871,-0.38399,-0.85573,-0.45404,-0.16618,0.83165,-0.070323,-0.22782,0.13064,0.13159,-0.39065,0.13469,0.1212,-0.10099,0.19059,-0.052711
0.0079194,0.019427,-0.0089903,-0.0073614,-0.42988,-1.0948,-0.63683,2.1278,-0.13404,-0.29826,-0.67792,-0.53705,-0.14068,0.66163,-0.012235,-0.21037,0.13356,0.14606,-0.38791,0.063612,0.14049,0.0070982,0.22109,0.0044714
0.010085,0.036659,-0.020326,-0.0094951,-0.5284,-1.1819,-0.67486,2.2115,-0.10312,-0.20344,-0.48342,-0.6325,-0.1061,0.45869,0.035426,-0.12622,0.13698,0.15899,-0.30865,0.0084045,0.15009,0.056169,0.2438,0.041964
0.0095558,0.04527,-0.027896,-0.010345,-0.61158,-1.2549,-0.67502,2.2657,-0.069714,-0.11066,-0.30009,-0.73786,-0.083685,0.28497,0.073071,0.0060837,0.14307,0.17084,-0.17799,0.0056421,0.14668,0.037245,0.25896,0.049716
0.006497,0.043314,-0.032273,-0.012086,-0.68482,-1.314,-0.66203,2.2544,-0.036132,-0.026393,-0.13607,-0.864,-0.083418,0.20492,0.10495,0.14997,0.1534,0.18378,-0.045117,0.092498,0.13262,-0.041246,0.26926,0.028704
0.0025056,0.036002,-0.036927,-0.014626,-0.75108,-1.3626,-0.66423,2.1457,-0.0039834,0.046908,0.017127,-1.0161,-0.096101,0.24764,0.13275,0.26508,0.16919,0.2015,0.041521,0.28227,0.11419,-0.14997,0.2752,-0.0041929
0.00041957,0.031486,-0.044411,-0.015574,-0.79881,-1.3966,-0.67864,1.937,0.024612,0.10648,0.16707,-1.1701,-0.1043,0.38557,0.15248,0.32327,0.19046,0.22636,0.061216,0.5411,0.097691,-0.2429,0.27472,-0.024155
0.002642,0.03452,-0.053405,-0.013008,-0.80361,-1.4013,-0.66071,1.6627,0.047124,0.14658,0.30615,-1.2721,-0.10029,0.54719,0.15723,0.31781,0.21508,0.25648,0.036432,0.78909,0.086447,-0.27106,0.26651,-0.014647
0.0090571,0.042988,-0.059309,-0.0081788,-0.74487,-1.3616,-0.55405,1.3792,0.062233,0.16088,0.41413,-1.2701,-0.092799,0.65589,0.14328,0.26272,0.23912,0.28565,0.027336,0.93448,0.080413,-0.20094,0.25278,0.020531
0.016488,0.049902,-0.05794,-0.0051588,-0.62571,-1.278,-0.34013,1.1347,0.071474,0.14849,0.47486,-1.1567,-0.095254,0.66835,0.11435,0.18518,0.2586,0.30695,0.10477,0.92237,0.077842,-0.029404,0.23837,0.059257
0.020646,0.049115,-0.049264,-0.0074541,-0.47943,-1.1736,-0.066225,0.94587,0.079158,0.11777,0.49155,-0.98764,-0.10689,0.58841,0.080636,0.11496,0.27175,0.31762,0.31255,0.76452,0.077013,0.21128,0.22694,0.076113
0.019326,0.040313,-0.038098,-0.014669,-0.35524,-1.0828,0.1764,0.79775,0.090139,0.083297,0.48643,-0.85589,-0.10539,0.45369,0.053827,0.073936,0.27987,0.32159,0.63899,0.52764,0.076682,0.46055,0.21857,0.059174
0.014262,0.029685,-0.031158,-0.022457,-0.29151,-1.0294,0.31094,0.66428,0.10674,0.057311,0.48535,-0.83541,-0.059868,0.31173,0.041824,0.067702,0.28634,0.32749,1.0168,0.28936,0.07586,0.64706,0.21082,0.016324
0.009908,0.025974,-0.032675,-0.025992,-0.29515,-1.0114,0.32502,0.53164,0.12697,0.04235,0.50086,-0.93449,0.045516,0.20335,0.046257,0.083278,0.29411,0.34285,1.3557,0.094723,0.074293,0.71246,0.2021,-0.032582
0.0099493,0.03467,-0.041763,-0.023941,-0.34143,-1.007,0.27225,0.40581,0.14557,0.031503,0.52834,-1.0918,0.19732,0.15675,0.063228,0.096109,0.30355,0.36847,1.5894,-0.056585,0.073804,0.63366,0.19342,-0.070598
0.014326,0.054094,-0.053236,-0.019425,-0.39303,-0.99765,0.22495,0.30079,0.1574,0.016387,0.55682,-1.2162,0.35996,0.18341,0.085844,0.084674,0.31181,0.39647,1.7071,-0.18972,0.078898,0.43345,0.18669,-0.094092
0.019285,0.075796,-0.06103,-0.017257,-0.42334,-0.9896,0.21829,0.22083,0.16101,-0.0040189,0.58305,-1.24,0.49855,0.26964,0.10705,0.04415,0.31387,0.41374,1.746,-0.32513,0.094894,0.17154,0.18145,-0.11181
0.020496,0.089225,-0.061754,-0.019951,-0.42719,-1.0143,0.23105,0.1542,0.15972,-0.021581,0.61528,-1.1481,0.59934,0.37154,0.12201,-0.010855,0.30443,0.40858,1.7524,-0.46702,0.12407,-0.081903,0.17399,-0.13496
0.016696,0.088057,-0.056205,-0.025942,-0.41334,-1.1055,0.2151,0.083891,0.15899,-0.025925,0.66348,-0.9681,0.6734,0.42707,0.12963,-0.057168,0.27968,0.37652,1.7406,-0.6148,0.16271,-0.27585,0.16011,-0.16683
0.010808,0.07428,-0.048316,-0.031199,-0.38794,-1.2703,0.14357,0.0042258,0.16197,-0.013754,0.72573,-0.73711,0.74381,0.38754,0.13233,-0.079301,0.23848,0.32208,1.6848,-0.77812,0.20188,-0.39251,0.13948,-0.19957
0.0075493,0.057016,-0.042561,-0.032549,-0.34426,-1.4748,0.034789,-0.072809,0.16666,0.0080801,0.78391,-0.47536,0.82814,0.24959,0.134,-0.078256,0.18298,0.25589,1.5488,-0.97205,0.23203,-0.43731,0.11725,-0.21973
0.0094977,0.046337,-0.04145,-0.02981,-0.26747,-1.658,-0.065964,-0.12804,0.16725,0.028648,0.81326,-0.18675,0.92808,0.060613,0.13725,-0.066569,0.11891,0.18958,1.3268,-1.1903,0.24797,-0.41554,0.10114,-0.21753
0.014942,0.046167,-0.044354,-0.02532,-0.14967,-1.7611,-0.12607,-0.15262,0.15873,0.042563,0.79811,0.11986,1.029,-0.11231,0.14181,-0.05533,0.054901,0.13138,1.0599,-1.3804,0.25048,-0.31807,0.096106,-0.19335
0.019371,0.051668,-0.048154,-0.021733,-0.0018364,-1.7538,-0.14949,-0.15604,0.14109,0.054266,0.74119,0.41258,1.1049,-0.23027,0.14527,-0.045423,0.00047694,0.084551,0.81244,-1.4522,0.24357,-0.132,0.10106,-0.15737
0.01934,0.053465,-0.049329,-0.020132,0.1486,-1.6431,-0.16624,-0.15702,0.11953,0.07317,0.66001,0.64198,1.1243,-0.31053,0.14509,-0.030263,-0.037016,0.048395,0.62853,-1.3264,0.23026,0.1311,0.11034,-0.12335
0.015344,0.045601,-0.046276,-0.019796,0.27368,-1.4619,-0.20159,-0.16543,0.10029,0.10452,0.57476,0.76832,1.0577,-0.4117,0.13977,-0.0058532,-0.055178,0.020847,0.50689,-0.99719,0.21071,0.41629,0.1184,-0.10124
0.011238,0.030664,-0.040369,-0.019314,0.36236,-1.2522,-0.25575,-0.17241,0.085642,0.14462,0.49785,0.78765,0.88853,-0.58633,0.12841,0.022752,-0.057267,0.00078382,0.41327,-0.56015,0.18446,0.63989,0.12367,-0.093487
0.010762,0.017656,-0.034903,-0.017837,0.42582,-1.0512,-0.31055,-0.15841,0.072362,0.18463,0.43187,0.73268,0.62446,-0.83597,0.11003,0.045279,-0.050193,-0.011104,0.31693,-0.17683,0.15399,0.73527,0.12835,-0.096822
0.014359,0.014355,-0.032574,-0.015444,0.48614,-0.88519,-0.35236,-0.11314,0.054955,0.21855,0.37473,0.64523,0.30046,-1.1013,0.084462,0.056275,-0.040975,-0.01337,0.21651,0.012372,0.1259,0.69797,0.13497,-0.10737
0.019062,0.020832,-0.033386,-0.012677,0.55723,-0.76675,-0.38642,-0.049705,0.031135,0.24726,0.32559,0.5431,-0.032349,-1.2925,0.054594,0.060826,-0.033992,-0.0060545,0.13237,-0.026792,0.10765,0.59263,0.1429,-0.12436
0.021346,0.029708,-0.034646,-0.0099136,0.63298,-0.69408,-0.4293,0.00017207,0.0050488,0.27478,0.28626,0.41097,-0.32798,-1.339,0.027461,0.069576,-0.030663,0.0075725,0.074817,-0.19647,0.10215,0.51101,0.14821,-0.14874
0.020132,0.032658,-0.03305,-0.0072528,0.6919,-0.65319,-0.48928,0.0071387,-0.014348,0.30118,0.25815,0.22514,-0.56329,-1.2275,0.01168,0.087334,-0.03111,0.021398,0.020329,-0.31977,0.10475,0.50942,0.14668,-0.17741
0.017187,0.027095,-0.027114,-0.0049028,0.71424,-0.62649,-0.55577,-0.035261,-0.018672,0.32,0.23814,-0.0095872,-0.73963,-1.0103,0.012055,0.10614,-0.035683,0.029223,-0.079208,-0.23979,0.10573,0.57266,0.13706,-0.19819
0.014871,0.017205,-0.018069,-0.0035007,0.69751,-0.60483,-0.60791,-0.10699,-0.005529,0.32341,0.21667,-0.2461,-0.8682,-0.78047,0.025369,0.10983,-0.04454,0.028191,-0.25947,0.098313,0.097,0.63206,0.12136,-0.1911
0.013756,0.0090871,-0.0087627,-0.0037854,0.65803,-0.59453,-0.63257,-0.17724,0.019422,0.31002,0.1789,-0.42151,-0.9525,-0.62837,0.041367,0.086551,-0.055703,0.020368,-0.50947,0.63026,0.078165,0.62275,0.10199,-0.13785
0.012543,0.005135,-0.0017507,-0.0056934,0.61762,-0.61232,-0.6326,-0.22584,0.044755,0.2872,0.10869,-0.50476,-0.98315,-0.59941,0.049107,0.038565,-0.064066,0.011156,-0.76935,1.2217,0.057374,0.53484,0.078541,-0.034219
0.010136,0.0029486,0.0019043,-0.0077046,0.58686,-0.67013,-0.61741,-0.25298,0.058384,0.2652,-0.0054214,-0.52416,-0.9492,-0.67389,0.044443,-0.018755,-0.063474,0.0056025,-0.96327,1.7418,0.045818,0.41988,0.047395,0.10321
0.0074232,-0.00089862,0.002656,-0.0073621,0.55841,-0.76126,-0.58639,-0.27034,0.052819,0.24904,-0.1632,-0.54822,-0.85472,-0.78226,0.03315,-0.067126,-0.051251,0.0052695,-1.0428,2.1122,0.049632,0.35116,0.0051224,0.24228
0.0066763,-0.0066776,0.0019082,-0.0030036,0.51533,-0.85988,-0.52366,-0.28385,0.02822,0.23668,-0.34821,-0.63284,-0.72495,-0.84936,0.027287,-0.096049,-0.031666,0.0077902,-1.0106,2.3112,0.0648,0.37159,-0.047216,0.3503
0.009058,-0.011292,0.001525,0.0045211,0.44658,-0.93555,-0.41166,-0.28519,-0.0080337,0.22546,-0.53002,-0.77842,-0.59578,-0.84068,0.03723,-0.10631,-0.014796,0.0090685,-0.91026,2.3495,0.078588,0.46861,-0.10261,0.40952
0.012863,-0.011936,0.0033784,0.011795,0.35711,-0.9724,-0.25221,-0.26126,-0.045078,0.21984,-0.67487,-0.93264,-0.49535,-0.7792,0.064863,-0.10583,-0.010684,0.0061782,-0.79606,2.247,0.076568,0.58963,-0.15115,0.42284
0.014509,-0.0094403,0.0085377,0.014965,0.26473,-0.97842,-0.075492,-0.21407,-0.07384,0.23124,-0.76052,-1.0347,-0.43343,-0.72042,0.10235,-0.10332,-0.022857,-0.0011754,-0.70412,2.0285,0.05066,0.67934,-0.18541,0.406
0.011577,-0.0076251,0.016257,0.012656,0.18723,-0.97835,0.072952,-0.17247,-0.091063,0.26817,-0.78609,-1.06,-0.40643,-0.70607,0.13693,-0.10473,-0.046385,-0.011359,-0.64155,1.7249,0.0033581,0.70868,-0.20413,0.37273
0.0051212,-0.0092644,0.023701,0.0072347,0.13004,-0.99626,0.15805,-0.18199,-0.09968,0.32523,-0.76945,-1.0263,-0.41116,-0.7344,0.15825,-0.11318,-0.072302,-0.022766,-0.59247,1.3665,-0.053934,0.67878,-0.21118,0.32427
-0.00094673,-0.012896,0.02724,0.0031137,0.083696,-1.0408,0.1739,-0.27659,-0.10534,0.38211,-0.73299,-0.95772,-0.45279,-0.77118,0.16314,-0.12943,-0.094903,-0.035469,-0.53083,0.9655,-0.10677,0.60681,-0.21126,0.25175
-0.0028934,-0.013928,0.024886,0.0032831,0.031829,-1.1029,0.14175,-0.45167,-0.11157,0.41519,-0.68736,-0.84689,-0.53847,-0.78943,0.1552,-0.15144,-0.11585,-0.05154,-0.43254,0.50787,-0.14403,0.51098,-0.20598,0.15033
-2.5763e-005,-0.0092076,0.018146,0.0069446,-0.03671,-1.1639,0.091035,-0.65906,-0.1172,0.41297,-0.62549,-0.65368,-0.66284,-0.80055,0.13981,-0.17414,-0.14165,-0.074003,-0.28633,-0.029975,-0.16149,0.40555,-0.19407,0.034044
0.0049276,-0.00072655,0.011618,0.010368,-0.12033,-1.2083,0.039932,-0.82954,-0.11804,0.38257,-0.53166,-0.34714,-0.80062,-0.8473,0.11894,-0.19134,-0.17669,-0.10508,-0.10364,-0.64584,-0.16167,0.3028,-0.17548,-0.061243
0.0079749,0.0051941,0.010209,0.010319,-0.20618,-1.23,-0.0098499,-0.90841,-0.11134,0.34199,-0.39927,0.048076,-0.91603,-0.9641,0.089499,-0.19928,-0.2178,-0.14449,0.077074,-1.2876,-0.15101,0.21315,-0.15571,-0.092694
0.0066363,0.0027791,0.015867,0.0070827,-0.27867,-1.2317,-0.062932,-0.88063,-0.0995,0.30492,-0.24407,0.44639,-0.98385,-1.1404,0.046826,-0.19841,-0.25495,-0.18835,0.20069,-1.8649,-0.13645,0.14072,-0.14591,-0.036059
0.0012804,-0.0084189,0.026235,0.004384,-0.32865,-1.2206,-0.11637,-0.77074,-0.089646,0.27068,-0.10194,0.7474,-1.0051,-1.3205,-0.0093878,-0.19112,-0.27704,-0.22913,0.22216,-2.2905,-0.12302,0.079957,-0.1575,0.094472
-0.0055725,-0.022908,0.03635,0.0061788,-0.35725,-1.2042,-0.15521,-0.62166,-0.089449,0.22666,-0.01128,0.89783,-1.0039,-1.4413,-0.071572,-0.17707,-0.27819,-0.25703,0.13761,-2.5197,-0.11267,0.019776,-0.19444,0.2474
-0.011057,-0.03332,0.042157,0.013105,-0.37288,-1.1886,-0.16109,-0.47069,-0.10207,0.16015,0.0090645,0.91874,-1.0062,-1.475,-0.12651,-0.1514,-0.25957,-0.26304,-0.0021006,-2.5569,-0.10424,-0.04614,-0.24862,0.35857
-0.013521,-0.035816,0.043211,0.021701,-0.3845,-1.1778,-0.12618,-0.33958,-0.12403,0.069799,-0.028088,0.87794,-1.0171,-1.4406,-0.16248,-0.10903,-0.22687,-0.24288,-0.11042,-2.4303,-0.093993,-0.11155,-0.30233,0.38528
-0.013081,-0.032579,0.042529,0.027103,-0.3967,-1.1748,-0.060831,-0.24089,-0.14732,-0.030895,-0.084483,0.83467,-1.0137,-1.3773,-0.17617,-0.053119,-0.18651,-0.19983,-0.1104,-2.1652,-0.076755,-0.16017,-0.33685,0.32731
-0.011218,-0.029614,0.043798,0.026884,-0.41018,-1.1814,0.010726,-0.18841,-0.16411,-0.11888,-0.11757,0.80406,-0.95822,-1.305,-0.17421,-0.00027592,-0.14384,-0.14393,0.02089,-1.7825,-0.047823,-0.17752,-0.34192,0.22022
-0.0098756,-0.031739,0.048166,0.022759,-0.42606,-1.1998,0.062817,-0.19766,-0.17078,-0.17117,-0.10363,0.76621,-0.82274,-1.2084,-0.16771,0.02405,-0.1033,-0.086947,0.23842,-1.3216,-0.0055897,-0.16252,-0.31994,0.1056
-0.01047,-0.03864,0.053165,0.01878,-0.44909,-1.2337,0.080022,-0.27358,-0.1691,-0.17407,-0.048901,0.70175,-0.60658,-1.0561,-0.16425,-0.00026182,-0.068406,-0.035649,0.45609,-0.85901,0.045974,-0.12955,-0.28252,0.00066035
-0.013163,-0.044925,0.054592,0.017746,-0.48594,-1.2879,0.061584,-0.39706,-0.16458,-0.12935,0.017372,0.61479,-0.33728,-0.83603,-0.16349,-0.072819,-0.040371,0.011619,0.59634,-0.49412,0.096476,-0.099197,-0.24213,-0.10975
-0.016678,-0.04415,0.049819,0.01903,-0.53911,-1.3649,0.018288,-0.52517,-0.16342,-0.055373,0.06224,0.5234,-0.056118,-0.5707,-0.15957,-0.16816,-0.016898,0.061621,0.62956,-0.30648,0.13123,-0.084864,-0.20508,-0.25327
-0.018845,-0.033884,0.039972,0.019674,-0.60199,-1.4594,-0.034053,-0.60973,-0.1696,0.018764,0.067368,0.4349,0.20033,-0.30023,-0.1476,-0.24761,0.0062823,0.118,0.57949,-0.31416,0.13636,-0.085041,-0.17027,-0.43859
-0.017764,-0.018034,0.029376,0.017618,-0.66016,-1.555,-0.080454,-0.62349,-0.18305,0.066026,0.034953,0.34009,0.41167,-0.048482,-0.12796,-0.28169,0.031194,0.17479,0.49659,-0.46641,0.10495,-0.085959,-0.13365,-0.63802
-0.013056,-0.0044502,0.022844,0.014036,-0.69902,-1.6266,-0.11054,-0.57589,-0.19934,0.075481,-0.020403,0.23834,0.57434,0.19445,-0.1048,-0.26836,0.054311,0.218,0.42304,-0.67593,0.041294,-0.071613,-0.093868,-0.79726
-0.0064475,0.0006853,0.022845,0.012505,-0.71214,-1.6495,-0.12052,-0.50686,-0.21141,0.058185,-0.085259,0.16753,0.69504,0.45731,-0.080732,-0.23349,0.068084,0.23516,0.37386,-0.86537,-0.039574,-0.03357,-0.05428,-0.86414
-0.0011504,-0.0025258,0.028428,0.015661,-0.70367,-1.6125,-0.11343,-0.46315,-0.21297,0.038628,-0.15487,0.19973,0.78352,0.75497,-0.053442,-0.21261,0.067222,0.22557,0.3416,-0.99551,-0.11725,0.025574,-0.020271,-0.81414
-0.00016983,-0.0080005,0.036276,0.022304,-0.68337,-1.5254,-0.09702,-0.47257,-0.20231,0.035895,-0.22969,0.39222,0.84899,1.0692,-0.01816,-0.22676,0.054677,0.2023,0.31245,-1.061,-0.17406,0.095805,0.0050121,-0.65668
-0.0044689,-0.0091038,0.042862,0.027751,-0.65909,-1.4164,-0.079495,-0.53182,-0.18376,0.048294,-0.30593,0.72924,0.89953,1.3598,0.025888,-0.27063,0.041469,0.1836,0.27657,-1.0674,-0.20177,0.16618,0.022478,-0.423
-0.012177,-0.0049182,0.046273,0.027472,-0.63362,-1.3189,-0.065198,-0.61318,-0.16536,0.054645,-0.36984,1.1084,0.94146,1.5934,0.071179,-0.32106,0.039336,0.18012,0.22681,-1.0147,-0.20356,0.22902,0.035068,-0.1503
-0.019501,-0.0017235,0.04683,0.021061,-0.60797,-1.2535,-0.052886,-0.6833,-0.15357,0.033126,-0.40188,1.3945,0.97649,1.7579,0.10463,-0.35757,0.051638,0.18824,0.1533,-0.90047,-0.19052,0.27961,0.044179,0.1259
-0.022886,-0.0077224,0.046472,0.013085,-0.58651,-1.2179,-0.037747,-0.72217,-0.14863,-0.016157,-0.38756,1.5053,0.99828,1.8477,0.11635,-0.37688,0.070086,0.19423,0.044765,-0.73508,-0.17468,0.31352,0.047979,0.37116
-0.021074,-0.025105,0.047396,0.0097809,-0.57745,-1.1912,-0.015662,-0.73221,-0.14416,-0.063305,-0.32651,1.4651,0.99245,1.8369,0.10791,-0.38899,0.080252,0.18501,-0.10295,-0.54604,-0.16278,0.3253,0.042962,0.55267
-0.015702,-0.046558,0.050662,0.014135,-0.58686,-1.1493,0.013199,-0.73418,-0.13174,-0.063547,-0.23304,1.3811,0.94327,1.6755,0.093206,-0.39948,0.07159,0.15646,-0.28085,-0.36188,-0.1539,0.31069,0.027022,0.6473
-0.010075,-0.059981,0.055461,0.023366,-0.61191,-1.082,0.043473,-0.7532,-0.10725,0.014341,-0.12869,1.3594,0.84537,1.3274,0.090342,-0.39542,0.044134,0.11374,-0.47204,-0.18603,-0.14224,0.27037,0.0012786,0.65278
-0.0070088,-0.057912,0.059499,0.030999,-0.64087,-0.99786,0.066492,-0.80257,-0.074117,0.16596,-0.032638,1.4279,0.71418,0.82582,0.11019,-0.34923,0.0072023,0.065437,-0.66444,0.01203,-0.12282,0.21163,-0.030486,0.59098
-0.0072448,-0.04361,0.060379,0.031892,-0.66173,-0.91628,0.073736,-0.87435,-0.04091,0.35087,0.044377,1.523,0.58704,0.29833,0.14995,-0.23912,-0.027785,0.018326,-0.85633,0.2706,-0.096167,0.14583,-0.063503,0.49749
-0.0094491,-0.028381,0.05718,0.026118,-0.67269,-0.8518,0.060473,-0.94259,-0.015069,0.51357,0.10096,1.5471,0.51134,-0.074028,0.19649,-0.069445,-0.054108,-0.023607,-1.0449,0.58671,-0.068558,0.08346,-0.092922,0.40314
-0.011612,-0.022421,0.05121,0.018593,-0.68478,-0.80415,0.028439,-0.97836,0.0022533,0.61149,0.14258,1.4478,0.52373,-0.14648,0.23674,0.12635,-0.071388,-0.057357,-1.2057,0.88375,-0.047525,0.030887,-0.11357,0.32016
