-9.4536e-011,9.3571e-010,5.6143e-010,1.6033e-009,9.0677e-011,7.6593e-010,6.1545e-010,8.8941e-010,-1.3698e-010,6.2702e-010,8.5854e-010,3.2219e-010,1.0225e-010,6.1545e-010,7.3121e-010,2.0779e-009,-3.029e-010,9.6272e-010,2.0258e-010,1.256e-009,1.7943e-010,4.7654e-010,8.8555e-010,1.3563e-009
-2.5738e-009,2.5849e-008,1.5557e-008,4.43e-008,2.471e-009,2.0919e-008,1.7424e-008,2.4717e-008,-3.4804e-009,1.7084e-008,2.3802e-008,9.1581e-009,2.6443e-009,1.7096e-008,2.0387e-008,5.7423e-008,-8.3394e-009,2.6812e-008,5.5478e-009,3.4889e-008,4.9659e-009,1.3192e-008,2.4382e-008,3.7518e-008
-3.4146e-008,3.4683e-007,2.0974e-007,5.9486e-007,3.2716e-008,2.7764e-007,2.3982e-007,3.3378e-007,-4.2568e-008,2.2617e-007,3.2088e-007,1.2613e-007,3.2831e-008,2.3086e-007,2.7638e-007,7.7135e-007,-1.1132e-007,3.6271e-007,7.4222e-008,4.7138e-007,6.7e-008,1.7777e-007,3.2622e-007,5.0451e-007
-2.9426e-007,3.0109e-006,1.8332e-006,5.1716e-006,2.803e-007,2.3859e-006,2.1378e-006,2.9181e-006,-3.3317e-007,1.938e-006,2.8026e-006,1.1209e-006,2.5998e-007,2.0191e-006,2.4272e-006,6.7098e-006,-9.5968e-007,3.1749e-006,6.4661e-007,4.127e-006,5.8723e-007,1.554e-006,2.8257e-006,4.3935e-006
-1.852e-006,1.9006e-005,1.1676e-005,3.2716e-005,1.746e-006,1.4921e-005,1.3869e-005,1.8561e-005,-1.8695e-006,1.2079e-005,1.7822e-005,7.2211e-006,1.4698e-006,1.2854e-005,1.5521e-005,4.2481e-005,-6.0032e-006,2.021e-005,4.1246e-006,2.6317e-005,3.7583e-006,9.9042e-006,1.781e-005,2.7849e-005
-9.072e-006,9.2928e-005,5.7747e-005,0.00016045,8.4234e-006,7.235e-005,6.9757e-005,9.1504e-005,-7.9748e-006,5.8332e-005,8.7921e-005,3.5903e-005,6.2828e-006,6.3467e-005,7.7012e-005,0.00020855,-2.9021e-005,9.9664e-005,2.0533e-005,0.00013024,1.8712e-005,4.9047e-005,8.7029e-005,0.0001369
-3.5977e-005,0.00036605,0.00023073,0.00063451,3.2736e-005,0.00028296,0.00028288,0.00036366,-2.6692e-005,0.00022697,0.00035,0.00014319,2.0924e-005,0.00025281,0.00030844,0.00082579,-0.00011272,0.00039602,8.3007e-005,0.00052032,7.5375e-005,0.00019635,0.00034295,0.0005428
-0.00011855,0.0011925,0.00076488,0.0020773,0.00010525,0.00091649,0.0009495,0.0011961,-7.0988e-005,0.00073027,0.0011545,0.00046976,5.4835e-005,0.00083425,0.001024,0.0027076,-0.00036093,0.0013017,0.00027989,0.0017234,0.00025209,0.00065265,0.001119,0.0017825
-0.0003303,0.0032714,0.0021438,0.0057337,0.00028532,0.0025038,0.0026861,0.0033151,-0.00014866,0.0019779,0.0032148,0.0012893,0.00011151,0.0023232,0.0028713,0.0074868,-0.00096943,0.0036047,0.00080204,0.0048213,0.00071245,0.0018355,0.0030797,0.0049377
-0.00078693,0.007653,0.0051485,0.013513,0.00066147,0.0058438,0.0064861,0.0078414,-0.00023205,0.0045642,0.0076571,0.002992,0.00016442,0.0055316,0.00689,0.017681,-0.0022091,0.0085179,0.0019795,0.011544,0.0017217,0.0044274,0.0072411,0.011687
-0.0016129,0.015392,0.010697,0.027421,0.0013259,0.011752,0.01348,0.015959,-0.00021002,0.0090405,0.015747,0.0059007,0.0001266,0.011363,0.01428,0.035959,-0.0042978,0.017324,0.0042477,0.023876,0.0035829,0.0092489,0.014675,0.023842
-0.0028463,0.026729,0.019351,0.048126,0.0023184,0.020459,0.024229,0.028074,0.00014594,0.01542,0.028139,0.0098843,-0.00014964,0.020252,0.025713,0.063261,-0.0071463,0.030481,0.0079741,0.042918,0.0064395,0.016846,0.025769,0.042137
-0.0042994,0.040093,0.030593,0.073101,0.0035628,0.030866,0.037708,0.042708,0.0011437,0.022617,0.043855,0.013946,-0.00079326,0.031389,0.040336,0.096313,-0.010098,0.046482,0.013141,0.067263,0.0099765,0.026859,0.039293,0.064619
-0.0054688,0.051718,0.042325,0.095706,0.0048462,0.040224,0.050684,0.055959,0.0030232,0.028313,0.059708,0.016209,-0.0017519,0.04225,0.05511,0.1263,-0.011924,0.061332,0.019024,0.091981,0.013211,0.037544,0.051966,0.085803
-0.0056339,0.056748,0.051203,0.10683,0.0058763,0.044874,0.058424,0.062485,0.0057501,0.029745,0.071033,0.014697,-0.0026503,0.049098,0.065328,0.14087,-0.011287,0.069642,0.02414,0.1096,0.014659,0.045959,0.059339,0.09796
-0.0042157,0.051845,0.054054,0.099442,0.0064059,0.042116,0.057056,0.058187,0.0088984,0.025327,0.073882,0.0087501,-0.0028489,0.048627,0.066673,0.13003,-0.0075944,0.067403,0.026705,0.11356,0.01301,0.049066,0.058072,0.094855
-0.0012566,0.037901,0.049803,0.073737,0.006354,0.03225,0.046498,0.043241,0.011772,0.016196,0.067545,0.00014747,-0.0017962,0.040037,0.057913,0.093157,-0.0017154,0.054964,0.025538,0.10258,0.0080456,0.045356,0.048415,0.076075
0.002337,0.020663,0.040544,0.039105,0.0058615,0.019189,0.031687,0.0231,0.013762,0.0063151,0.055469,-0.0072617,0.00049444,0.026088,0.042382,0.04202,0.0040834,0.037793,0.02094,0.082684,0.0011058,0.035955,0.034942,0.048688
0.0051233,0.0080064,0.03068,0.010044,0.0052625,0.008644,0.020402,0.0059405,0.014702,0.00053457,0.043383,-0.0097684,0.0032379,0.012104,0.026684,-0.0037716,0.0072022,0.023696,0.014864,0.064493,-0.005432,0.02432,0.024368,0.023992
0.0059836,0.0051104,0.024316,-0.0023493,0.0049868,0.0046557,0.018392,-0.002355,0.014935,0.0015962,0.035645,-0.0065698,0.0052346,0.0032466,0.016955,-0.027508,0.0062096,0.017869,0.010039,0.056635,-0.0095337,0.014492,0.021464,0.01072
0.0049524,0.010863,0.022648,0.0023276,0.0053956,0.0068478,0.02517,-0.0021572,0.014983,0.0082197,0.032582,-0.00085737,0.0056376,0.001812,0.015157,-0.025355,0.0017461,0.019437,0.0084301,0.059871,-0.010758,0.0089689,0.025951,0.0094158
0.0033015,0.018456,0.023427,0.01357,0.0065572,0.010694,0.034107,0.0003466,0.015084,0.015896,0.031069,0.0020942,0.0045398,0.006345,0.018239,-0.0081936,-0.0038738,0.022435,0.010048,0.066755,-0.010331,0.0075952,0.032909,0.012562
0.0026415,0.020149,0.023088,0.017732,0.0080635,0.010927,0.037371,-0.0019139,0.015006,0.019951,0.027865,-0.0012485,0.0028524,0.013014,0.02097,0.0064182,-0.0081116,0.020767,0.013019,0.067668,-0.009935,0.0081342,0.036585,0.01072
0.0036469,0.012818,0.019887,0.0082086,0.0090955,0.0056018,0.032115,-0.011184,0.014353,0.018544,0.022645,-0.0099069,0.001551,0.018004,0.020197,0.0063183,-0.0096856,0.013164,0.014959,0.0586,-0.010307,0.0079537,0.034616,-0.00012676
0.0054714,9.0257e-005,0.01538,-0.0099451,0.0088766,-0.0024464,0.022758,-0.02308,0.013079,0.013324,0.017896,-0.019081,0.00097759,0.019211,0.017027,-0.0081445,-0.0091174,0.0039631,0.014623,0.044134,-0.010919,0.0055943,0.029283,-0.01605
0.0064539,-0.010559,0.012868,-0.024766,0.0073244,-0.0079933,0.01719,-0.030282,0.011738,0.0075,0.015853,-0.023901,0.00085769,0.016491,0.015149,-0.026761,-0.0081478,-0.00094027,0.01254,0.033013,-0.010937,0.0013017,0.024974,-0.029315
0.0056195,-0.013431,0.014167,-0.027607,0.0053741,-0.0077296,0.019922,-0.028675,0.011151,0.0032623,0.015642,-0.023167,0.00096404,0.011012,0.016918,-0.038791,-0.0085862,0.00060724,0.010167,0.030253,-0.010313,-0.0035085,0.024259,-0.03513
0.003695,-0.0085882,0.017704,-0.020344,0.0045194,-0.0029004,0.028043,-0.020773,0.011737,0.00078907,0.013686,-0.019962,0.0016443,0.0045974,0.020819,-0.041012,-0.011317,0.0051258,0.0084595,0.032923,-0.0097423,-0.007248,0.02602,-0.034836
0.0026754,-0.0012941,0.019809,-0.013632,0.005708,0.0018463,0.033577,-0.013621,0.013035,-0.00071253,0.0071963,-0.018733,0.0035267,-0.00077207,0.022598,-0.038555,-0.015864,0.0065929,0.0072586,0.033314,-0.0095716,-0.0089893,0.026926,-0.033107
0.0041981,0.0023243,0.018093,-0.017847,0.0084059,0.0022953,0.030236,-0.013127,0.013824,-0.001449,-0.0026579,-0.021459,0.0066285,-0.0036663,0.019026,-0.039119,-0.020569,0.0016642,0.0060447,0.026248,-0.0090383,-0.0088535,0.024535,-0.032623
0.0080635,-0.00022892,0.013712,-0.034476,0.010723,-0.0020916,0.018688,-0.019696,0.012712,-0.00073145,-0.011245,-0.026154,0.0098909,-0.004175,0.010883,-0.046281,-0.023339,-0.0075809,0.005082,0.013524,-0.0069962,-0.007915,0.019101,-0.031888
0.012178,-0.0066132,0.01026,-0.054996,0.010722,-0.0080702,0.0058604,-0.028638,0.0088144,0.0019134,-0.014472,-0.028702,0.011899,-0.0042855,0.0025037,-0.057326,-0.02278,-0.015597,0.005427,0.0014931,-0.0035611,-0.0076583,0.012805,-0.028258
0.01403,-0.012294,0.010249,-0.067812,0.0079896,-0.011409,-0.00090949,-0.034508,0.002156,0.0056782,-0.012625,-0.026179,0.012314,-0.0067629,-0.0016503,-0.066386,-0.019196,-0.018086,0.0074756,-0.0054154,-0.00079606,-0.0091277,0.0076397,-0.022536
0.012521,-0.01449,0.012501,-0.067165,0.0041444,-0.010077,0.00041402,-0.035324,-0.006255,0.0088532,-0.010336,-0.01883,0.012575,-0.012874,-0.00041134,-0.069334,-0.014693,-0.015331,0.0095573,-0.0086119,-0.0012546,-0.012172,0.0041162,-0.019727
0.0087147,-0.014061,0.013028,-0.056835,0.0017274,-0.0053662,0.0057978,-0.033208,-0.014638,0.010391,-0.012545,-0.0095269,0.014869,-0.020768,0.0035057,-0.066299,-0.011977,-0.011559,0.0085039,-0.013,-0.0054453,-0.015339,0.0016831,-0.024528
0.0049472,-0.014015,0.0086777,-0.046301,0.0022327,-0.00052253,0.0094149,-0.031512,-0.020948,0.010973,-0.020148,-0.0016856,0.020033,-0.026291,0.0059984,-0.060492,-0.012484,-0.011331,0.0023144,-0.021132,-0.010748,-0.016695,-0.00013009,-0.03591
0.0030937,-0.016279,0.00022517,-0.043191,0.0048472,0.0016523,0.0086081,-0.03157,-0.023698,0.012289,-0.02929,0.0025116,0.026319,-0.02607,0.0048492,-0.055282,-0.015245,-0.016186,-0.0073689,-0.030089,-0.01325,-0.015175,-0.0013106,-0.046619
0.0033467,-0.019787,-0.0079476,-0.048241,0.006985,0.00034906,0.0050748,-0.03201,-0.02281,0.01508,-0.034844,0.0027163,0.030441,-0.020444,0.001064,-0.052195,-0.017555,-0.024023,-0.015664,-0.034317,-0.01118,-0.011506,-0.0019756,-0.048891
0.0043899,-0.021515,-0.011282,-0.056072,0.0062773,-0.0032852,0.0018262,-0.030794,-0.01991,0.017933,-0.034728,0.00021129,0.030207,-0.013583,-0.0025714,-0.050939,-0.017049,-0.031039,-0.017978,-0.031489,-0.0068085,-0.0078854,-0.0029434,-0.041482
0.0047075,-0.019343,-0.0085692,-0.06016,0.0024653,-0.0072366,-0.00047654,-0.027542,-0.017586,0.018199,-0.031149,-0.0025427,0.026429,-0.010371,-0.0041894,-0.050536,-0.013469,-0.034161,-0.013788,-0.025394,-0.0048584,-0.0064681,-0.0052737,-0.031421
0.0039231,-0.014003,-0.002635,-0.057494,-0.0023484,-0.0097926,-0.0040122,-0.023829,-0.017807,0.014341,-0.027992,-0.0027115,0.022254,-0.01254,-0.0043879,-0.050123,-0.0086014,-0.032286,-0.0071641,-0.022948,-0.0086634,-0.0077097,-0.0091086,-0.028495
0.0030954,-0.0084185,0.0021057,-0.049701,-0.0053608,-0.010198,-0.010901,-0.021426,-0.020501,0.0075552,-0.027203,0.0014637,0.020432,-0.017332,-0.0054257,-0.048977,-0.0044737,-0.026211,-0.0033466,-0.028247,-0.01747,-0.0098907,-0.013171,-0.03714
0.0037384,-0.0052252,0.0028915,-0.040791,-0.0053604,-0.0087276,-0.020246,-0.020526,-0.023432,0.0010686,-0.027664,0.0091399,0.021014,-0.019856,-0.0089822,-0.046385,-0.0015222,-0.018173,-0.004345,-0.039371,-0.027284,-0.01034,-0.015762,-0.052761
0.0063448,-0.0049085,-6.3989e-006,-0.03412,-0.003784,-0.006323,-0.028379,-0.019785,-0.023666,-0.002289,-0.02727,0.016718,0.021574,-0.017127,-0.014581,-0.042018,0.0015299,-0.011342,-0.0075,-0.050701,-0.034368,-0.0075366,-0.016513,-0.065503
0.0096263,-0.0060977,-0.0044528,-0.030936,-0.0035902,-0.0039871,-0.032135,-0.017911,-0.019707,-0.0021013,-0.025709,0.019955,0.019667,-0.010383,-0.020051,-0.036553,0.005988,-0.008835,-0.0081853,-0.05817,-0.038063,-0.0024739,-0.017171,-0.067972
0.011195,-0.0073468,-0.0086191,-0.030767,-0.0067693,-0.0022073,-0.031784,-0.014971,-0.012728,-0.00026712,-0.024993,0.017275,0.015092,-0.0039171,-0.023477,-0.031727,0.011353,-0.011991,-0.0040165,-0.0623,-0.040393,0.0018772,-0.020398,-0.060333
0.0093052,-0.0083907,-0.012111,-0.032422,-0.012516,-0.00077342,-0.030626,-0.012011,-0.0059168,0.00093671,-0.027274,0.011619,0.0098821,-0.0016704,-0.024744,-0.029324,0.01519,-0.018942,0.0032499,-0.066495,-0.043114,0.0027092,-0.027395,-0.049027
0.0043566,-0.0097167,-0.015409,-0.034418,-0.017668,0.00084063,-0.031642,-0.0095575,-0.002382,0.00078864,-0.032339,0.0088967,0.0062134,-0.0044839,-0.025264,-0.029715,0.014973,-0.025132,0.0095313,-0.072753,-0.045331,-0.00044798,-0.036378,-0.041023
-0.0011095,-0.011239,-0.018702,-0.034986,-0.019178,0.0028103,-0.034572,-0.006851,-0.0031918,0.00040278,-0.03743,0.013774,0.0044393,-0.0099834,-0.026304,-0.031196,0.010331,-0.026215,0.011881,-0.079239,-0.04414,-0.0051926,-0.043372,-0.038803
-0.0041275,-0.011784,-0.021528,-0.032455,-0.016617,0.0045849,-0.036308,-0.0028256,-0.006991,0.0012944,-0.039658,0.025968,0.003112,-0.014647,-0.027695,-0.030887,0.0036843,-0.021427,0.010382,-0.081995,-0.037687,-0.0078233,-0.044938,-0.039768
-0.0035612,-0.010091,-0.023499,-0.026302,-0.012577,0.0051661,-0.034139,0.0021516,-0.011348,0.003626,-0.03867,0.040045,0.0007213,-0.016041,-0.028258,-0.026705,-0.0013291,-0.014586,0.0071989,-0.078985,-0.027576,-0.0059156,-0.040788,-0.039487
-0.0011326,-0.0062628,-0.02508,-0.018013,-0.010554,0.0038355,-0.028646,0.0058358,-0.01458,0.0056847,-0.036979,0.048997,-0.0028034,-0.013676,-0.027439,-0.018931,-0.0023431,-0.011467,0.0042837,-0.072559,-0.018161,-5.1709e-005,-0.034234,-0.03538
-0.00026613,-0.0020723,-0.027323,-0.010576,-0.012091,0.0007541,-0.023474,0.005833,-0.016533,0.0050604,-0.037617,0.048978,-0.0063336,-0.0085083,-0.026345,-0.01014,0.00035859,-0.015438,0.0020722,-0.068041,-0.013252,0.0065429,-0.030018,-0.027957
-0.0034786,0.00032468,-0.030709,-0.0065318,-0.015601,-0.0029843,-0.022317,0.0020963,-0.017866,0.00064947,-0.0413,0.041742,-0.0090607,-0.0021681,-0.026945,-0.0035042,0.0045554,-0.024842,8.5696e-006,-0.069662,-0.013204,0.010213,-0.031047,-0.019518
-0.010292,9.5983e-005,-0.034337,-0.0059604,-0.017839,-0.0057972,-0.025999,-0.0022581,-0.018823,-0.0060389,-0.045717,0.033236,-0.011499,0.0034444,-0.030136,-0.0007343,0.0080529,-0.034273,-0.0022063,-0.077316,-0.014928,0.0093905,-0.036424,-0.012148
-0.017356,-0.0017021,-0.036502,-0.0062405,-0.016672,-0.0062274,-0.032182,-0.002882,-0.018848,-0.011379,-0.047526,0.029577,-0.014834,0.0064901,-0.034613,-0.0011568,0.010117,-0.038572,-0.0041113,-0.086709,-0.014599,0.0056554,-0.042275,-0.0067049
-0.020768,-0.0031302,-0.036281,-0.0041087,-0.012739,-0.0034792,-0.037583,0.0025996,-0.017414,-0.011829,-0.045208,0.033249,-0.019355,0.0059707,-0.037739,-0.002504,0.0113,-0.036291,-0.0049876,-0.092678,-0.010527,0.0025989,-0.044758,-0.0029826
-0.018833,-0.0029369,-0.034592,0.0014536,-0.008673,0.0021998,-0.040376,0.012813,-0.015035,-0.0064753,-0.040247,0.041885,-0.023739,0.0026496,-0.037632,-0.0026724,0.012173,-0.030065,-0.0044746,-0.092942,-0.0038298,0.0033082,-0.042965,-0.0002133
-0.013155,-0.0013296,-0.033578,0.0079568,-0.0067734,0.0094054,-0.040764,0.023735,-0.013189,0.0018906,-0.035725,0.050133,-0.026105,-0.00093429,-0.034533,-0.0010744,0.012452,-0.024098,-0.0025563,-0.089444,0.0031308,0.0082683,-0.039485,0.0027043
-0.0073004,0.00053268,-0.034732,0.011109,-0.007259,0.015956,-0.039813,0.031603,-0.013029,0.0082014,-0.03371,0.0532,-0.025871,-0.0019417,-0.030305,0.0013422,0.011427,-0.021138,0.00079329,-0.086412,0.0086654,0.015153,-0.038172,0.0070647
-0.0041924,0.0016607,-0.037504,0.0084045,-0.0085309,0.019823,-0.038251,0.035177,-0.014171,0.0083319,-0.033716,0.04983,-0.024532,0.00067505,-0.026783,0.003238,0.0091857,-0.021197,0.0055088,-0.086819,0.012309,0.020524,-0.040927,0.013843
-0.0042842,0.001953,-0.039768,0.0017403,-0.0089422,0.020184,-0.036416,0.035773,-0.014933,0.0019579,-0.033397,0.042917,-0.024477,0.0052494,-0.024653,0.004183,0.0072186,-0.022381,0.010747,-0.090031,0.014084,0.02203,-0.046134,0.022846
-0.0058022,0.0020648,-0.039847,-0.0032712,-0.0083083,0.017853,-0.034925,0.035569,-0.013947,-0.0070774,-0.030661,0.037422,-0.026879,0.0086466,-0.023765,0.0051075,0.0075968,-0.02259,0.014496,-0.092398,0.013901,0.019428,-0.050037,0.032216
-0.0066069,0.002764,-0.038273,-0.0010639,-0.0078226,0.01467,-0.034763,0.03593,-0.011576,-0.013316,-0.02535,0.036979,-0.03063,0.0087625,-0.024193,0.0076349,0.011322,-0.020686,0.014406,-0.090199,0.012028,0.013953,-0.04993,0.039019
-0.0059899,0.0043933,-0.037602,0.0098229,-0.0086373,0.012252,-0.036419,0.036984,-0.0096292,-0.013398,-0.019259,0.041509,-0.033359,0.0061531,-0.02665,0.012878,0.017355,-0.016787,0.009572,-0.08255,0.0099952,0.0070254,-0.046446,0.040933
-0.0049751,0.0067507,-0.040274,0.025523,-0.010554,0.011038,-0.039062,0.038264,-0.0095696,-0.0082505,-0.014746,0.047535,-0.033602,0.0034214,-0.031703,0.020609,0.023261,-0.012076,0.0017939,-0.07202,0.010494,-0.00028632,-0.043015,0.038049
-0.005116,0.0092655,-0.046285,0.039377,-0.012022,0.010298,-0.040956,0.039377,-0.010964,-0.0022157,-0.013151,0.050973,-0.03211,0.0030056,-0.038642,0.029337,0.027025,-0.0083954,-0.0051138,-0.062652,0.015766,-0.0067352,-0.042935,0.033386
-0.0070756,0.01121,-0.052706,0.046216,-0.011352,0.0089169,-0.040933,0.040153,-0.011789,0.00011138,-0.014092,0.050194,-0.031109,0.0053646,-0.045295,0.037137,0.028576,-0.0074517,-0.0077761,-0.0571,0.025663,-0.010414,-0.046544,0.031331
-0.010285,0.011862,-0.055598,0.045199,-0.0080116,0.006221,-0.03944,0.040513,-0.010364,-0.0030937,-0.01588,0.046887,-0.032162,0.0090104,-0.049191,0.042572,0.029893,-0.0096306,-0.0056698,-0.05513,0.037241,-0.0095461,-0.050843,0.034682
-0.013768,0.010734,-0.052874,0.039483,-0.0029668,0.002304,-0.037988,0.040577,-0.0070369,-0.010088,-0.016553,0.044061,-0.034643,0.012042,-0.049166,0.045189,0.033643,-0.013206,-0.0014904,-0.054372,0.046485,-0.0042919,-0.0518,0.042395
-0.017015,0.0079206,-0.045829,0.033585,0.0019613,-0.0021044,-0.037539,0.040945,-0.0040078,-0.017211,-0.014884,0.043064,-0.036239,0.013586,-0.046058,0.045493,0.041339,-0.014979,0.00093095,-0.052338,0.050877,0.0022446,-0.047384,0.050001
-0.019887,0.0043776,-0.038157,0.030764,0.0050142,-0.0059403,-0.03758,0.042577,-0.0034335,-0.021422,-0.010892,0.04236,-0.035105,0.013936,-0.041935,0.044637,0.052143,-0.012418,-0.00047241,-0.048007,0.050742,0.0054159,-0.038953,0.052829
-0.021766,0.0017601,-0.033297,0.032021,0.0050491,-0.0081794,-0.03693,0.045993,-0.0056013,-0.021842,-0.0057181,0.039228,-0.031707,0.013615,-0.038529,0.043986,0.06301,-0.005792,-0.004623,-0.042012,0.048393,0.0022976,-0.030153,0.049714
-0.021244,0.0016163,-0.032233,0.036527,0.0017346,-0.0083587,-0.03537,0.050395,-0.0087328,-0.019584,-0.00097847,0.03274,-0.028632,0.012546,-0.036144,0.044515,0.070075,0.0016653,-0.0085056,-0.035818,0.046089,-0.0057799,-0.02447,0.044107
-0.017199,0.0042412,-0.033353,0.04237,-0.0042879,-0.0070754,-0.034157,0.05372,-0.01034,-0.016523,0.0020364,0.02514,-0.028378,0.010182,-0.033815,0.046082,0.070617,0.0060682,-0.0098471,-0.030798,0.044683,-0.013836,-0.023344,0.041403
-0.010447,0.008002,-0.03416,0.047073,-0.011278,-0.0059514,-0.034634,0.053883,-0.0087049,-0.014161,0.002878,0.020225,-0.03106,0.0063301,-0.03045,0.047099,0.064575,0.0059419,-0.0089499,-0.027731,0.04393,-0.016837,-0.025886,0.044561
-0.0040991,0.00991,-0.033209,0.04829,-0.016741,-0.0067388,-0.036329,0.05032,-0.0032952,-0.0132,0.0019487,0.020159,-0.034163,0.0017337,-0.025961,0.045249,0.054708,0.0034032,-0.0081704,-0.026554,0.043684,-0.013513,-0.029884,0.051712
-0.001679,0.0074173,-0.030734,0.045048,-0.018494,-0.010023,-0.03675,0.044446,0.0056816,-0.013647,0.00013007,0.023636,-0.034691,-0.0022065,-0.021512,0.039233,0.045185,0.002356,-0.0096219,-0.026237,0.044418,-0.007338,-0.033063,0.057777
-0.0042647,0.00033005,-0.027853,0.038825,-0.015949,-0.014598,-0.033471,0.038575,0.017512,-0.015062,-0.0016347,0.026961,-0.031885,-0.0043307,-0.018684,0.030407,0.039353,0.0052297,-0.01321,-0.025021,0.046469,-0.0039372,-0.033873,0.05861
-0.0092603,-0.0086877,-0.025477,0.033149,-0.010603,-0.018234,-0.02661,0.034253,0.030503,-0.016783,-0.0025799,0.02698,-0.027971,-0.0044785,-0.018209,0.022702,0.038063,0.011074,-0.016734,-0.021371,0.049002,-0.0070133,-0.031757,0.054013
-0.012209,-0.015681,-0.023962,0.031387,-0.0051689,-0.019392,-0.019102,0.031442,0.041606,-0.018218,-0.0022161,0.023226,-0.026159,-0.0035519,-0.019253,0.020336,0.03958,0.016557,-0.017886,-0.015297,0.050167,-0.015867,-0.027124,0.047211
-0.010303,-0.018058,-0.023478,0.034223,-0.0019098,-0.018511,-0.014234,0.029121,0.047275,-0.019155,-0.00043282,0.017602,-0.027598,-0.0029057,-0.019889,0.024755,0.041025,0.018827,-0.016297,-0.0089942,0.048651,-0.026141,-0.021131,0.041676
-0.0045602,-0.016304,-0.0242,0.039036,-0.0014034,-0.017718,-0.012692,0.026503,0.045557,-0.01979,0.0023781,0.012236,-0.030093,-0.0035185,-0.018571,0.03329,0.040212,0.017672,-0.0138,-0.0058764,0.045141,-0.032976,-0.015251,0.038406
0.0012014,-0.01337,-0.025841,0.041947,-0.0025871,-0.019138,-0.012062,0.02368,0.037733,-0.020382,0.0053302,0.0075778,-0.029845,-0.0054498,-0.015539,0.04084,0.036572,0.01529,-0.012766,-0.0083514,0.041999,-0.034176,-0.010698,0.035874
0.0036036,-0.012262,-0.027065,0.040859,-0.0038039,-0.023154,-0.0094027,0.021281,0.027759,-0.02084,0.007327,0.0022984,-0.024735,-0.0078985,-0.012979,0.043425,0.030681,0.01418,-0.014074,-0.01591,0.041174,-0.031298,-0.0079937,0.032121
0.002254,-0.013895,-0.025799,0.036861,-0.0038749,-0.028057,-0.0043882,0.019823,0.019482,-0.020786,0.0075738,-0.0051842,-0.016224,-0.0098659,-0.01351,0.040805,0.023088,0.015181,-0.016529,-0.025112,0.042303,-0.028093,-0.0069303,0.026691
-0.00042094,-0.016953,-0.02064,0.032873,-0.0025046,-0.031348,9.9768e-005,0.019481,0.013813,-0.020154,0.0060493,-0.015003,-0.0081837,-0.011049,-0.018009,0.036136,0.013695,0.017194,-0.018146,-0.031611,0.043012,-0.027579,-0.0068829,0.020775
-0.0015095,-0.01962,-0.01226,0.030937,-0.00010845,-0.03162,0.00062828,0.020237,0.0083946,-0.019706,0.0035966,-0.025346,-0.0037836,-0.012307,-0.024483,0.033185,0.0023525,0.018459,-0.017984,-0.032711,0.041327,-0.029855,-0.0071979,0.01593
0.00017403,-0.021322,-0.0034289,0.03066,0.0024831,-0.029512,-0.0034384,0.021784,0.00026836,-0.020714,0.0014461,-0.033471,-0.0032129,-0.015179,-0.029139,0.033539,-0.0098986,0.017963,-0.016873,-0.028556,0.037872,-0.03225,-0.0074386,0.012918
0.0037233,-0.022834,0.0026448,0.029982,0.0043078,-0.027029,-0.0091544,0.023012,-0.010736,-0.023849,0.00036438,-0.037442,-0.0041345,-0.02062,-0.029043,0.035986,-0.020333,0.015826,-0.01648,-0.021297,0.035511,-0.031689,-0.0074721,0.011521
0.0073889,-0.024827,0.0043686,0.02726,0.0047516,-0.025868,-0.012532,0.021837,-0.020995,-0.028245,1.3387e-005,-0.037418,-0.0041543,-0.02789,-0.02438,0.038173,-0.025769,0.012706,-0.017723,-0.01318,0.036516,-0.027411,-0.0074684,0.010983
0.009937,-0.026607,0.0025589,0.022681,0.0041832,-0.026132,-0.011939,0.016156,-0.025615,-0.031798,-0.00085165,-0.03566,-0.0028587,-0.034623,-0.01846,0.038759,-0.024926,0.0091862,-0.020028,-0.0052054,0.039905,-0.021818,-0.0077947,0.010307
0.011018,-0.026522,-0.00058304,0.017982,0.0041197,-0.026423,-0.0091368,0.0055894,-0.02247,-0.032656,-0.0032833,-0.035179,-0.0016427,-0.038239,-0.01539,0.038198,-0.020004,0.0058459,-0.022009,0.0028804,0.041746,-0.018621,-0.0087521,0.0083459
0.010728,-0.023745,-0.0032576,0.015068,0.0063065,-0.025188,-0.00714,-0.0075421,-0.014271,-0.030677,-0.0069406,-0.03783,-0.0018152,-0.037691,-0.017157,0.037755,-0.015797,0.0036953,-0.022824,0.011739,0.03855,-0.019785,-0.010253,0.0041599
0.0092229,-0.019604,-0.0050473,0.014792,0.011076,-0.022172,-0.0071856,-0.019258,-0.0067782,-0.027491,-0.0099324,-0.043102,-0.0030314,-0.03417,-0.022307,0.03795,-0.016565,0.0040371,-0.02296,0.021754,0.030829,-0.023865,-0.011702,-0.0022559
0.0067917,-0.016978,-0.0064786,0.016563,0.01642,-0.018852,-0.0078038,-0.026471,-0.0045838,-0.025046,-0.010124,-0.048557,-0.003545,-0.030237,-0.027055,0.037939,-0.022983,0.0073591,-0.023842,0.032892,0.023418,-0.027236,-0.012261,-0.0095772
0.0040613,-0.018103,-0.0079341,0.018661,0.019021,-0.017478,-0.0067472,-0.028982,-0.0079627,-0.023964,-0.0069847,-0.051835,-0.001868,-0.028079,-0.027863,0.036344,-0.031677,0.012085,-0.026687,0.044643,0.021814,-0.027199,-0.011341,-0.015798
0.0018358,-0.022731,-0.0091104,0.018895,0.016832,-0.019446,-0.0036368,-0.02922,-0.013292,-0.023265,-0.0023352,-0.052792,0.0018562,-0.028225,-0.023563,0.03267,-0.037867,0.014647,-0.031537,0.055628,0.02748,-0.024223,-0.0089421,-0.019622
0.00062386,-0.028281,-0.009397,0.015473,0.011072,-0.024152,-0.00055607,-0.03004,-0.016456,-0.02173,0.000826,-0.053967,0.0059939,-0.029517,-0.015722,0.027956,-0.038925,0.011508,-0.037093,0.063278,0.036186,-0.021366,-0.0055665,-0.021353
0.00035702,-0.031885,-0.0085021,0.0079002,0.0056271,-0.029202,1.4883e-005,-0.032641,-0.016167,-0.019525,0.00055655,-0.058638,0.0087752,-0.030147,-0.0072783,0.023998,-0.035906,0.0019833,-0.041417,0.064604,0.04104,-0.021435,-0.0018206,-0.022408
0.0006223,-0.032572,-0.0065351,-0.0025877,0.0040107,-0.031901,-0.0021824,-0.036323,-0.014413,-0.018403,-0.0026245,-0.067756,0.0095576,-0.028939,-0.00058783,0.021758,-0.031912,-0.01043,-0.043102,0.058273,0.037774,-0.024501,0.0019177,-0.023902
0.0011486,-0.031767,-0.0036027,-0.013561,0.0064241,-0.031081,-0.0046968,-0.039892,-0.013914,-0.020093,-0.0063098,-0.078319,0.0090191,-0.026092,0.0038141,0.020347,-0.029066,-0.019724,-0.042247,0.046603,0.027826,-0.027981,0.0054834,-0.02578
0.0020166,-0.031786,0.00030664,-0.022725,0.0095881,-0.028005,-0.0046037,-0.043015,-0.015135,-0.024322,-0.0081241,-0.08496,0.0083795,-0.023036,0.0070231,0.017571,-0.026994,-0.021283,-0.040518,0.035301,0.016642,-0.02912,0.0086031,-0.027343
0.0034035,-0.033637,0.0047383,-0.029039,0.0096207,-0.025629,-0.0013956,-0.046188,-0.015686,-0.028419,-0.0072681,-0.08389,0.0084803,-0.021524,0.010431,0.011765,-0.024075,-0.015218,-0.040034,0.030229,0.0088097,-0.027527,0.010588,-0.028526
0.0052141,-0.03599,0.0081501,-0.032725,0.0054012,-0.026557,0.0022274,-0.049715,-0.012679,-0.029144,-0.0045647,-0.076111,0.0094171,-0.022469,0.014285,0.0035072,-0.019877,-0.0065229,-0.041678,0.033195,0.0043647,-0.025482,0.01039,-0.030403
0.0070502,-0.036175,0.008382,-0.034319,-0.00062033,-0.031075,0.0025148,-0.053139,-0.0058063,-0.025341,-0.0014275,-0.067013,0.010797,-0.025286,0.017296,-0.0042656,-0.016088,-0.0017057,-0.044262,0.040292,-0.0005392,-0.025787,0.007157,-0.034203
0.008541,-0.032426,0.0043862,-0.033936,-0.0048053,-0.036743,-0.0020525,-0.055876,0.0018642,-0.019172,0.00099712,-0.062397,0.012214,-0.028242,0.017675,-0.0080494,-0.014875,-0.0043264,-0.045536,0.044702,-0.0093659,-0.029158,0.001056,-0.039781
0.0096048,-0.025623,-0.0021841,-0.031661,-0.0055473,-0.040034,-0.0091995,-0.05822,0.0063531,-0.014742,0.0018799,-0.064094,0.013517,-0.029682,0.014841,-0.006264,-0.016389,-0.012741,-0.044392,0.042121,-0.021298,-0.033442,-0.0061731,-0.045225
0.010292,-0.019069,-0.0073793,-0.028609,-0.0043057,-0.038935,-0.014377,-0.06127,0.006423,-0.015122,0.00047981,-0.068935,0.014716,-0.029197,0.010307,-0.00053072,-0.018111,-0.021658,-0.04219,0.034362,-0.03127,-0.035272,-0.01153,-0.048273
0.010394,-0.016356,-0.0076612,-0.027203,-0.0036767,-0.034529,-0.014156,-0.065546,0.005016,-0.020062,-0.0035347,-0.071964,0.015726,-0.027756,0.0068175,0.0053627,-0.016961,-0.026171,-0.041622,0.027886,-0.033965,-0.032706,-0.012111,-0.048426
0.0093646,-0.018834,-0.0029094,-0.029802,-0.0046032,-0.030203,-0.0088081,-0.069719,0.0068793,-0.026154,-0.0092771,-0.071001,0.016272,-0.026668,0.0062797,0.0080865,-0.012268,-0.02516,-0.043886,0.028318,-0.028375,-0.0267,-0.0069109,-0.047749
0.0068283,-0.024612,0.0030651,-0.03663,-0.0054943,-0.028962,-0.0021348,-0.071155,0.014236,-0.029288,-0.014362,-0.068371,0.016148,-0.026314,0.0082349,0.006861,-0.0067031,-0.021577,-0.046936,0.035541,-0.01905,-0.02035,0.0021245,-0.049384
0.0032709,-0.029947,0.0054087,-0.045039,-0.0039739,-0.030983,0.0012293,-0.06821,0.024355,-0.027508,-0.015952,-0.068234,0.015649,-0.025844,0.010291,0.003241,-0.0041178,-0.019726,-0.046835,0.043626,-0.012984,-0.016623,0.0108,-0.054816
0.00014824,-0.032037,0.0023232,-0.051253,0.00060828,-0.033465,-0.0010183,-0.062247,0.031408,-0.02221,-0.012624,-0.072104,0.01573,-0.024157,0.010249,-0.0011682,-0.0061352,-0.021886,-0.041265,0.045602,-0.014641,-0.0164,0.014991,-0.062217
-0.00092737,-0.031029,-0.0032225,-0.053368,0.0063282,-0.032982,-0.0074291,-0.05716,0.031235,-0.016973,-0.0055279,-0.076927,0.017566,-0.021246,0.0080895,-0.0068137,-0.010579,-0.026925,-0.031863,0.038948,-0.022968,-0.018226,0.013161,-0.067474
0.00059573,-0.029586,-0.0058862,-0.052956,0.010134,-0.028402,-0.013956,-0.056452,0.024906,-0.015047,0.0022272,-0.077685,0.021691,-0.018589,0.0060052,-0.015848,-0.013218,-0.031733,-0.022948,0.027199,-0.032519,-0.019828,0.0072839,-0.067342
0.0035902,-0.030287,-0.0025056,-0.053586,0.010076,-0.021869,-0.016708,-0.060301,0.017888,-0.017337,0.0075022,-0.072117,0.027358,-0.018083,0.0064252,-0.029359,-0.011344,-0.033993,-0.01775,0.016613,-0.037554,-0.020105,0.0014617,-0.062262
0.0058363,-0.033046,0.0051945,-0.057413,0.0063783,-0.017009,-0.014368,-0.065357,0.01547,-0.022157,0.0087761,-0.063054,0.032714,-0.020356,0.0097493,-0.044824,-0.0060601,-0.033889,-0.015728,0.011121,-0.035866,-0.020018,-0.00077638,-0.056368
0.0054611,-0.034915,0.012149,-0.062915,0.00083229,-0.015972,-0.0087456,-0.067614,0.018425,-0.026644,0.0063806,-0.056121,0.035763,-0.023927,0.013797,-0.056679,-0.001261,-0.033464,-0.013542,0.0099005,-0.029656,-0.021633,0.0014813,-0.054384
0.0021778,-0.032646,0.014291,-0.066034,-0.004522,-0.017895,-0.0032759,-0.065841,0.022701,-0.02866,0.0016334,-0.054961,0.035518,-0.02601,0.015462,-0.060212,-0.00018517,-0.034452,-0.0085075,0.009258,-0.023293,-0.026044,0.0064849,-0.057735
-0.0025867,-0.025901,0.011706,-0.063897,-0.008232,-0.020052,-0.00064162,-0.062491,0.0233,-0.027898,-0.0039407,-0.058387,0.032605,-0.024478,0.013193,-0.055608,-0.0025588,-0.036695,-0.00098657,0.0066501,-0.020113,-0.031866,0.011482,-0.063127
-0.006745,-0.018178,0.0078389,-0.057803,-0.009566,-0.020457,-0.001192,-0.061309,0.018857,-0.025687,-0.0086761,-0.061843,0.028949,-0.019511,0.008286,-0.048372,-0.0048442,-0.038549,0.0065237,0.0030763,-0.020745,-0.035682,0.014566,-0.065054
-0.0089833,-0.01431,0.0058014,-0.052633,-0.0084657,-0.019431,-0.0031369,-0.063894,0.012853,-0.023857,-0.010698,-0.061428,0.026749,-0.013635,0.0040337,-0.045324,-0.0033941,-0.03877,0.012221,0.0019099,-0.023712,-0.034345,0.015369,-0.060388
-0.0095276,-0.016505,0.0054712,-0.052932,-0.005634,-0.018792,-0.0041675,-0.06833,0.010498,-0.023521,-0.008605,-0.056622,0.027255,-0.010033,0.0034887,-0.04942,0.002272,-0.037963,0.016442,0.0054952,-0.027123,-0.027474,0.0145,-0.051293
-0.0097016,-0.022312,0.0041518,-0.059003,-0.0024332,-0.019681,-0.0031741,-0.070986,0.014165,-0.024489,-0.0027511,-0.049631,0.029978,-0.010285,0.0075375,-0.057832,0.0089741,-0.038145,0.020175,0.012626,-0.029703,-0.018137,0.012655,-0.043852
-0.010629,-0.02644,-5.2157e-005,-0.066461,-0.000224,-0.021301,-0.0008155,-0.069625,0.021395,-0.025585,0.0041794,-0.042801,0.032765,-0.013231,0.014564,-0.064931,0.012584,-0.040842,0.022591,0.019002,-0.030592,-0.011001,0.010296,-0.043376
-0.012087,-0.024967,-0.0056465,-0.069784,0.00054673,-0.02179,0.001296,-0.064965,0.027103,-0.025553,0.008424,-0.037086,0.032812,-0.015903,0.021669,-0.067457,0.011474,-0.045598,0.020795,0.020122,-0.028837,-0.0091872,0.0079019,-0.050157
-0.012466,-0.01839,-0.008615,-0.066859,0.000664,-0.020207,0.0019842,-0.059525,0.027847,-0.023963,0.0076882,-0.032777,0.028126,-0.015957,0.026354,-0.067363,0.0075988,-0.050368,0.012665,0.014175,-0.023718,-0.012131,0.0061677,-0.059145
-0.0099828,-0.01101,-0.0059707,-0.060623,0.0014246,-0.017532,0.0013867,-0.055195,0.024353,-0.02144,0.0029896,-0.030894,0.018606,-0.013771,0.027501,-0.070075,0.0043481,-0.053402,3.3735e-005,0.0027934,-0.015873,-0.01605,0.005697,-0.063756
-0.0043195,-0.0073553,0.0014145,-0.056378,0.0034576,-0.015675,0.00080344,-0.051989,0.020258,-0.019027,-0.0019073,-0.032974,0.006084,-0.012459,0.025287,-0.079984,0.003317,-0.054737,-0.011337,-0.010564,-0.0078891,-0.01671,0.0064991,-0.060666
0.002655,-0.0087999,0.0093961,-0.057168,0.0061973,-0.015574,0.001784,-0.048936,0.018536,-0.01712,-0.0032105,-0.039037,-0.0066458,-0.015541,0.020577,-0.097182,0.003099,-0.055826,-0.015626,-0.022994,-0.003182,-0.012487,0.0079386,-0.051788
0.0078233,-0.013096,0.013978,-0.061244,0.0085199,-0.016363,0.0051079,-0.045813,0.019006,-0.01488,0.00014583,-0.045984,-0.017066,-0.02401,0.01449,-0.11793,0.0011672,-0.0577,-0.011464,-0.033393,-0.0036206,-0.0055083,0.0093225,-0.042172
0.0088988,-0.016757,0.014377,-0.063794,0.0098843,-0.016369,0.010195,-0.04368,0.019024,-0.010766,0.0058712,-0.048659,-0.02363,-0.035127,0.0083182,-0.13785,-0.0031272,-0.059531,-0.0029951,-0.041875,-0.0078563,-3.4948e-005,0.010541,-0.03591
0.0060868,-0.017868,0.01303,-0.061255,0.010801,-0.014799,0.015204,-0.043612,0.016355,-0.0039411,0.010161,-0.043336,-0.025709,-0.044055,0.0033414,-0.15457,-0.0074973,-0.05905,0.0035432,-0.048259,-0.01209,0.00072201,0.012029,-0.033477
0.0019323,-0.016943,0.012848,-0.054357,0.012135,-0.012355,0.01784,-0.045048,0.011259,0.0045541,0.010362,-0.030819,-0.023266,-0.047083,0.00022747,-0.16768,-0.0087348,-0.054464,0.0047261,-0.05114,-0.012959,-0.0030113,0.014041,-0.032349
-0.00064394,-0.015574,0.014488,-0.047235,0.013949,-0.010282,0.016643,-0.045722,0.0059366,0.011963,0.0063827,-0.016399,-0.01687,-0.043896,-0.0015887,-0.17663,-0.0058722,-0.046042,0.0020954,-0.04841,-0.01019,-0.0077955,0.016045,-0.02982
-0.00056246,-0.014577,0.016158,-0.043632,0.015099,-0.0089926,0.0121,-0.043498,0.002219,0.015456,0.00013187,-0.0064512,-0.007997,-0.037226,-0.0037067,-0.17919,-0.0013746,-0.035956,-9.3192e-005,-0.038779,-0.0066646,-0.0096299,0.017038,-0.025379
0.00082657,-0.01347,0.015849,-0.043708,0.014067,-0.0077685,0.0067361,-0.038434,7.7901e-005,0.014124,-0.0060337,-0.004243,0.00098771,-0.030524,-0.0074774,-0.17251,0.00091087,-0.026618,0.00075504,-0.023005,-0.0057319,-0.006923,0.016593,-0.020812
0.0013219,-0.011451,0.013609,-0.04423,0.010332,-0.0057275,0.0037509,-0.032953,-0.001607,0.0097803,-0.010379,-0.0080867,0.0076414,-0.025811,-0.012566,-0.1561,-0.00079831,-0.019077,0.0030308,-0.0038438,-0.0081325,-0.0014195,0.01554,-0.018423
0.00019328,-0.0085744,0.011629,-0.041688,0.0050265,-0.0028742,0.0048521,-0.029768,-0.003136,0.0058178,-0.011906,-0.013031,0.010711,-0.02334,-0.01682,-0.1337,-0.0046202,-0.01277,0.0023297,0.015188,-0.011301,0.0035523,0.015381,-0.019211
-0.00096032,-0.0058181,0.01219,-0.035315,0.00024288,-2.797e-005,0.0088862,-0.029381,-0.0032769,0.0048856,-0.010205,-0.014549,0.010836,-0.022681,-0.017905,-0.11204,-0.0068106,-0.0064766,-0.0045493,0.031206,-0.01168,0.0058748,0.016841,-0.022442
0.00024458,-0.0040512,0.015558,-0.02742,-0.0024409,0.0022571,0.012563,-0.029527,-0.00066988,0.007104,-0.0057447,-0.011419,0.0099653,-0.023601,-0.01542,-0.096845,-0.0053295,0.00065253,-0.016412,0.042507,-0.0079053,0.0060357,0.018964,-0.026482
0.0043865,-0.0030821,0.019793,-0.02118,-0.0030367,0.0044934,0.012981,-0.027178,0.0042235,0.010152,-0.0002789,-0.005909,0.0098452,-0.025721,-0.011471,-0.08918,-0.0018434,0.0088224,-0.027796,0.048158,-0.0019656,0.006086,0.019817,-0.029742
0.0091432,-0.0018051,0.022487,-0.018208,-0.0030008,0.0077479,0.0099843,-0.021353,0.0089836,0.011134,0.0036226,-0.0015303,0.010794,-0.027627,-0.0089414,-0.085142,-0.00026005,0.017893,-0.032213,0.047447,0.002614,0.0074041,0.01827,-0.030923
0.010999,0.00070108,0.022638,-0.017935,-0.0040397,0.012218,0.0062943,-0.014147,0.011377,0.0087927,0.0041991,-0.00027632,0.011738,-0.026954,-0.0089472,-0.079255,-0.003118,0.027537,-0.026094,0.040053,0.0037362,0.0094926,0.015108,-0.028874
0.0084051,0.0042213,0.020978,-0.018717,-0.0067856,0.016419,0.0051485,-0.0089794,0.011662,0.0044674,0.0020508,-0.0013272,0.011371,-0.021938,-0.009928,-0.068835,-0.0091772,0.037014,-0.010829,0.026943,0.0020808,0.010847,0.012281,-0.022899
0.0034324,0.0075301,0.018813,-0.019062,-0.010277,0.018084,0.0074603,-0.0075553,0.012487,0.0011875,-0.00010282,-0.0019254,0.0093411,-0.013145,-0.0093698,-0.055841,-0.014457,0.045009,0.0081145,0.011029,-0.00018438,0.010801,0.010965,-0.013666
0.000146,0.0094927,0.016801,-0.017885,-0.01257,0.016243,0.011048,-0.0082828,0.016169,0.0016679,0.00026284,0.00046944,0.006458,-0.0035089,-0.0065458,-0.044866,-0.01578,0.049987,0.024149,-0.0034216,-0.0017685,0.010331,0.010417,-0.0037969
0.00093688,0.010167,0.014892,-0.014224,-0.012053,0.01256,0.012696,-0.0076311,0.021937,0.006584,0.0029857,0.006409,0.0038855,0.0037689,-0.0035006,-0.039158,-0.013578,0.050884,0.032679,-0.012673,-0.0032792,0.010947,0.0089351,0.0029957
0.0041671,0.010959,0.013179,-0.0075306,-0.008566,0.010413,0.011203,-0.0033049,0.026015,0.014158,0.0050405,0.01426,0.0021902,0.0077952,-0.0031022,-0.038021,-0.011452,0.047517,0.032732,-0.015494,-0.0060701,0.012848,0.0060322,0.0041678
0.0054979,0.013674,0.012378,0.0013667,-0.0035725,0.012132,0.0086073,0.003597,0.024738,0.021177,0.0032217,0.021514,0.0011436,0.010649,-0.0059176,-0.037536,-0.013002,0.040434,0.026555,-0.013688,-0.010378,0.014349,0.0035427,0.0004479
0.0019307,0.019127,0.013198,0.0097933,0.00074966,0.016717,0.0083857,0.0094483,0.017887,0.024779,-0.002595,0.026458,0.00037924,0.015323,-0.0090379,-0.033697,-0.018877,0.030604,0.017836,-0.01066,-0.014849,0.013407,0.004243,-0.0040982
-0.0050691,0.02627,0.015262,0.014374,0.0028353,0.020261,0.012242,0.011303,0.0090868,0.023979,-0.0087571,0.028953,0.00017559,0.022636,-0.0082767,-0.025285,-0.02659,0.019452,0.009813,-0.0090681,-0.017962,0.0099282,0.00906,-0.0045346
-0.010388,0.032473,0.016886,0.013321,0.0024945,0.019136,0.018395,0.0095889,0.0028863,0.020056,-0.010636,0.029969,0.001524,0.029977,-0.0019208,-0.014449,-0.032929,0.0090683,0.0042811,-0.00934,-0.019804,0.0066168,0.015539,0.001537
-0.0095558,0.034933,0.016253,0.0079889,0.00060849,0.013408,0.022934,0.0078261,0.0012201,0.015493,-0.0065248,0.030556,0.0053214,0.033295,0.0074454,-0.0050038,-0.036447,0.0019137,0.0016748,-0.010085,-0.022204,0.0072448,0.019286,0.012193
-0.0027942,0.032497,0.013056,0.0021914,-0.0018082,0.0074104,0.023002,0.009606,0.0023671,0.012102,0.00092871,0.031205,0.011378,0.030834,0.014868,-5.276e-005,-0.037782,-0.00034346,0.0016645,-0.0097898,-0.026925,0.013598,0.017375,0.022523
0.0048452,0.026752,0.0090899,-0.00035824,-0.0042205,0.0066343,0.018942,0.015605,0.0030203,0.0096447,0.0070841,0.031907,0.018169,0.025318,0.017056,-0.00054121,-0.037938,0.0018567,0.0036244,-0.0081852,-0.033618,0.023694,0.010802,0.028214
0.0075531,0.021419,0.0071252,0.0015387,-0.0063446,0.013274,0.013619,0.023332,0.0012256,0.0060829,0.0092308,0.032445,0.023642,0.022333,0.014865,-0.0052413,-0.036697,0.0057893,0.0067836,-0.0061571,-0.039631,0.032951,0.0038206,0.028729
0.0035712,0.020079,0.0088784,0.0061542,-0.0075512,0.024141,0.0097686,0.029669,-0.0024971,-0.00056429,0.0084661,0.032435,0.02643,0.025871,0.011994,-0.011708,-0.032969,0.0079739,0.01031,-0.0045188,-0.042068,0.037491,0.00070712,0.027676
-0.0034387,0.02361,0.013667,0.010539,-0.0068411,0.032826,0.0079893,0.033572,-0.0064209,-0.010158,0.00802,0.031251,0.026475,0.034699,0.011191,-0.017497,-0.026647,0.0064453,0.013546,-0.0029835,-0.040374,0.036866,0.0026814,0.030035
-0.0076308,0.029351,0.018775,0.012792,-0.0036928,0.034453,0.0071187,0.036289,-0.0095112,-0.019882,0.0099431,0.028412,0.024599,0.042881,0.011552,-0.021164,-0.019797,0.0019539,0.01625,-0.00033275,-0.037137,0.033919,0.0074306,0.03831
-0.0059462,0.033041,0.021227,0.01315,0.0010313,0.029185,0.0062959,0.039081,-0.011926,-0.025784,0.013416,0.024513,0.021633,0.044422,0.0094677,-0.022711,-0.015609,-0.0029188,0.018548,0.0044474,-0.036292,0.032027,0.011336,0.050459
-0.000496,0.032366,0.019683,0.013407,0.0052473,0.021748,0.0063498,0.041085,-0.013869,-0.025371,0.016021,0.021783,0.018034,0.038399,0.0023401,-0.023246,-0.015841,-0.005946,0.020573,0.01117,-0.040102,0.032235,0.012315,0.061101
0.0035691,0.02921,0.015148,0.015496,0.0070386,0.017571,0.0089641,0.039886,-0.014367,-0.019356,0.016308,0.023217,0.014316,0.030176,-0.0084055,-0.023876,-0.019174,-0.0068369,0.022175,0.018463,-0.047291,0.032813,0.010981,0.065074
0.0026188,0.028392,0.010097,0.020377,0.0061,0.018876,0.014461,0.03447,-0.011563,-0.011346,0.014966,0.030354,0.011566,0.027394,-0.017837,-0.024432,-0.022129,-0.0069489,0.023094,0.024682,-0.053736,0.031432,0.0095356,0.060732
-0.0025507,0.033448,0.0067222,0.027716,0.0038416,0.02374,0.020597,0.027535,-0.0044997,-0.0057217,0.013717,0.04136,0.011135,0.033815,-0.021176,-0.022968,-0.021823,-0.0076234,0.023481,0.028906,-0.05515,0.027684,0.0096885,0.05073
-0.0078326,0.042898,0.0055765,0.036069,0.0019969,0.028361,0.023904,0.024315,0.0052966,-0.0051111,0.013513,0.051327,0.013535,0.046083,-0.017382,-0.016675,-0.0181,-0.0088078,0.024179,0.031271,-0.049822,0.023482,0.01143,0.040016
-0.0096076,0.050497,0.0055362,0.04326,0.0010821,0.030099,0.022583,0.02837,0.014089,-0.0089451,0.014057,0.055119,0.017631,0.056176,-0.0096113,-0.0038836,-0.013226,-0.0091589,0.026257,0.032599,-0.039636,0.021037,0.013458,0.032747
-0.007644,0.049836,0.0050504,0.047048,0.00023154,0.028725,0.018308,0.037973,0.018207,-0.013847,0.014884,0.050809,0.021228,0.057585,-0.0022987,0.014141,-0.0096502,-0.0073192,0.030034,0.033793,-0.028864,0.02064,0.014622,0.030344
-0.0046621,0.039804,0.0036312,0.046241,-0.0014682,0.025457,0.015067,0.046726,0.01666,-0.015567,0.016387,0.041018,0.022831,0.05017,0.0024164,0.033048,-0.0080346,-0.0030806,0.034399,0.035477,-0.021626,0.02061,0.015061,0.031696
-0.0033901,0.026206,0.0023424,0.041828,-0.0035889,0.021515,0.015872,0.048459,0.012002,-0.011414,0.019366,0.031028,0.023066,0.039817,0.0058719,0.047457,-0.0072602,0.0024875,0.037209,0.037999,-0.019595,0.019525,0.016113,0.034803
-0.0041375,0.017759,0.0028429,0.037051,-0.004456,0.017832,0.020173,0.042458,0.0086084,-0.0018837,0.023621,0.025151,0.024337,0.033479,0.010903,0.054184,-0.0060771,0.0077724,0.036675,0.041557,-0.021228,0.018306,0.019122,0.038256
-0.0050902,0.019387,0.005788,0.035739,-0.0027408,0.015706,0.024321,0.034398,0.0095729,0.0094766,0.027392,0.024197,0.028828,0.033917,0.018709,0.054503,-0.0045686,0.011448,0.032771,0.04621,-0.022917,0.019738,0.024101,0.041553
-0.0046831,0.02826,0.010027,0.039585,0.0010386,0.016779,0.024753,0.031854,0.014537,0.018001,0.028649,0.025837,0.036491,0.038366,0.027386,0.05353,-0.0040099,0.012943,0.027515,0.051732,-0.021349,0.025554,0.02934,0.044473
-0.0034213,0.035999,0.013417,0.046448,0.0047111,0.021578,0.021144,0.038015,0.020092,0.020625,0.027074,0.027168,0.044802,0.041678,0.03327,0.05674,-0.0054213,0.012649,0.023757,0.057524,-0.015603,0.033918,0.032402,0.046508
-0.003277,0.035423,0.014631,0.051449,0.0062946,0.027934,0.016779,0.048898,0.022402,0.017761,0.024598,0.027122,0.050571,0.040754,0.033827,0.065928,-0.0083496,0.011964,0.02324,0.062786,-0.0076385,0.040104,0.031848,0.047052
-0.0053809,0.026309,0.01434,0.050554,0.0057528,0.031505,0.015813,0.056462,0.019961,0.013081,0.023683,0.026837,0.052371,0.036462,0.029676,0.07783,-0.011063,0.012894,0.025313,0.066904,-0.00084972,0.040161,0.028401,0.046085
-0.0084822,0.015399,0.014572,0.043992,0.0049179,0.028838,0.019793,0.054988,0.014343,0.011164,0.024914,0.028046,0.051586,0.031925,0.024248,0.0868,-0.011946,0.016992,0.027306,0.069786,0.0022597,0.034335,0.024556,0.044495
-0.0098306,0.01067,0.016708,0.03654,0.0055759,0.020608,0.026398,0.045382,0.0084959,0.014479,0.026315,0.03117,0.051243,0.029355,0.021494,0.08957,-0.010826,0.024095,0.026399,0.071855,0.0015819,0.026962,0.022852,0.0435
-0.0076489,0.014729,0.019887,0.034046,0.0075486,0.011825,0.031419,0.034035,0.0041731,0.021705,0.02525,0.034756,0.053547,0.028458,0.02341,0.088023,-0.0091343,0.031978,0.021733,0.0737,-0.00095584,0.02279,0.024128,0.04361
-0.0027602,0.022896,0.021438,0.038806,0.0087207,0.0082552,0.032282,0.027549,0.00073587,0.028666,0.02117,0.036504,0.058056,0.027491,0.029038,0.087334,-0.0088216,0.037588,0.015207,0.075658,-0.0031605,0.02306,0.027182,0.04414
0.0021966,0.027457,0.019172,0.0476,0.007143,0.011886,0.030171,0.027945,-0.003716,0.031319,0.016535,0.034817,0.061895,0.025489,0.035398,0.090903,-0.010882,0.039139,0.010298,0.077646,-0.0042201,0.024925,0.030048,0.043879
0.005127,0.024281,0.013615,0.054121,0.0032802,0.019402,0.029026,0.032104,-0.010041,0.02867,0.014881,0.029602,0.061807,0.023303,0.039473,0.096657,-0.014524,0.03736,0.0096303,0.079254,-0.0049709,0.024558,0.031725,0.042329
0.0060934,0.016111,0.0080889,0.053809,0.00015166,0.025044,0.032252,0.035285,-0.016777,0.023438,0.017731,0.021967,0.056437,0.022585,0.039855,0.098368,-0.01756,0.034778,0.013042,0.079913,-0.0068402,0.020838,0.032835,0.040241
0.0067191,0.0098951,0.0063388,0.04707,0.00096498,0.025278,0.039743,0.035218,-0.021128,0.019949,0.023172,0.013412,0.047156,0.023895,0.037087,0.091114,-0.017806,0.033667,0.017622,0.078981,-0.01061,0.016142,0.034679,0.03874
0.0081866,0.010734,0.0095883,0.038352,0.0062108,0.021161,0.047594,0.033319,-0.021333,0.020903,0.027359,0.0053147,0.036908,0.025822,0.032783,0.076037,-0.014643,0.034511,0.019741,0.075858,-0.016047,0.013769,0.037635,0.037824
0.0099739,0.017747,0.015542,0.032175,0.012856,0.01662,0.050797,0.032477,-0.018251,0.025563,0.02754,-0.0010668,0.028078,0.025958,0.028435,0.059892,-0.0097095,0.036274,0.017569,0.070225,-0.022412,0.014792,0.040412,0.035914
0.010587,0.0252,0.020261,0.029772,0.016534,0.014684,0.046944,0.033909,-0.014655,0.030719,0.02385,-0.0045512,0.021018,0.022824,0.024816,0.049572,-0.0060645,0.03797,0.012209,0.062312,-0.029044,0.017384,0.04088,0.031335
0.0094219,0.027539,0.021356,0.029084,0.015001,0.015308,0.038161,0.036048,-0.0129,0.033504,0.018501,-0.0043821,0.014224,0.01713,0.022173,0.046453,-0.0061871,0.03977,0.0066703,0.052846,-0.035411,0.01896,0.037787,0.024594
0.0076908,0.023816,0.01979,0.027664,0.0099548,0.016453,0.029727,0.036247,-0.013084,0.033634,0.01351,-0.00083338,0.0058864,0.011388,0.020649,0.045709,-0.010093,0.04252,0.0036589,0.042613,-0.040856,0.01866,0.031907,0.019089
0.0073285,0.017921,0.018809,0.025411,0.0056741,0.016812,0.026313,0.033468,-0.013335,0.033331,0.009421,0.004605,-0.0044472,0.0083236,0.020297,0.041272,-0.015037,0.046253,0.0039347,0.032079,-0.044699,0.017687,0.025667,0.018948
0.0088852,0.014893,0.021,0.024573,0.0056012,0.017131,0.028682,0.02933,-0.011812,0.035265,0.0061471,0.0099398,-0.015299,0.0093191,0.020719,0.031892,-0.017272,0.049443,0.0062932,0.021619,-0.0468,0.017504,0.021535,0.025345
0.010602,0.016788,0.026039,0.027231,0.0096686,0.018887,0.033417,0.026547,-0.0084689,0.040452,0.0046842,0.013924,-0.024184,0.013852,0.020948,0.022723,-0.014773,0.050025,0.0087537,0.012264,-0.047955,0.018071,0.020397,0.03453
0.0098333,0.021473,0.030985,0.032889,0.014462,0.021924,0.035888,0.026291,-0.0049632,0.047801,0.0073427,0.016806,-0.029371,0.019995,0.020051,0.020925,-0.008926,0.047374,0.009728,0.0060931,-0.0494,0.018004,0.021101,0.039772
0.0057034,0.024854,0.032702,0.038535,0.015957,0.023774,0.033996,0.027062,-0.0029931,0.055271,0.015703,0.019818,-0.031241,0.025393,0.018029,0.029229,-0.0037633,0.043282,0.0084103,0.0053745,-0.051643,0.016251,0.021438,0.036118
0.00047298,0.024187,0.030257,0.041037,0.012575,0.021668,0.029579,0.026194,-0.002757,0.061203,0.028126,0.023714,-0.032155,0.02815,0.016094,0.043209,-0.0031406,0.040714,0.0046465,0.010675,-0.053692,0.013305,0.019797,0.024218
-0.0019429,0.0197,0.025355,0.039577,0.0062041,0.015483,0.026396,0.022625,-0.0029716,0.064607,0.039635,0.027674,-0.034741,0.027444,0.015785,0.0546,-0.0079019,0.041185,-0.0010739,0.019462,-0.053568,0.01066,0.016281,0.0099315
0.00069683,0.013687,0.02069,0.035921,0.00056994,0.0087242,0.026632,0.018189,-0.0022527,0.064606,0.045007,0.029677,-0.039733,0.023852,0.017568,0.057596,-0.015194,0.043101,-0.0074315,0.026771,-0.049813,0.0092567,0.012544,-7.128e-005
0.0066842,0.0084582,0.017842,0.032497,-0.0016159,0.0062913,0.029069,0.016075,-0.00039396,0.060245,0.042733,0.028172,-0.045089,0.019197,0.020255,0.052666,-0.020478,0.042814,-0.012491,0.028011,-0.04268,0.0087212,0.01049,-0.0031558
0.011376,0.0050699,0.016519,0.030208,-0.00047466,0.01061,0.030446,0.017807,0.0016527,0.051362,0.036229,0.023655,-0.047395,0.015712,0.021939,0.044949,-0.020681,0.037833,-0.014688,0.022058,-0.033966,0.0081322,0.010793,-0.0020896
0.010902,0.0035243,0.015553,0.027938,0.0015462,0.019362,0.028488,0.021663,0.0028862,0.03975,0.03089,0.018686,-0.044764,0.014785,0.02173,0.039263,-0.016055,0.029522,-0.013994,0.012202,-0.025692,0.0072874,0.012304,-0.0020144
0.0054633,0.0036263,0.014437,0.023979,0.0019265,0.026879,0.023714,0.024129,0.0031868,0.029104,0.029371,0.016187,-0.038972,0.016107,0.020679,0.036447,-0.0094243,0.022733,-0.01208,0.0039959,-0.018856,0.0069355,0.012791,-0.0057885
-0.00075076,0.0053671,0.013819,0.017878,0.0001454,0.028318,0.018532,0.023051,0.0031037,0.023129,0.029314,0.017325,-0.034829,0.018009,0.02089,0.034033,-0.0036398,0.022252,-0.011013,0.001427,-0.013257,0.0077308,0.010521,-0.011664
-0.0030565,0.0085708,0.014515,0.011056,-0.0021289,0.02334,0.014867,0.01946,0.0028237,0.023015,0.025718,0.020641,-0.03693,0.018859,0.023478,0.029989,0.00051615,0.028819,-0.01146,0.0042243,-0.0082076,0.0091851,0.0055609,-0.015082
-0.00018974,0.012457,0.016127,0.0058074,-0.0027979,0.016313,0.012807,0.016311,0.0015403,0.026369,0.015897,0.023073,-0.046182,0.018383,0.02721,0.025608,0.0043253,0.038096,-0.012073,0.0083013,-0.0031793,0.0099166,-0.00015221,-0.012828
0.0047974,0.015769,0.016812,0.0036975,-0.0014047,0.01276,0.011396,0.015375,-0.0019682,0.028747,0.0025367,0.022039,-0.058906,0.017711,0.02921,0.02472,0.0092849,0.043697,-0.010766,0.0089771,0.002222,0.0090185,-0.0040745,-0.0059343
0.0073873,0.017399,0.01468,0.0046763,0.00042355,0.014892,0.01035,0.015332,-0.0080458,0.026787,-0.008034,0.017062,-0.069285,0.018142,0.027295,0.030086,0.015262,0.041924,-0.0067875,0.0045574,0.0085214,0.0070844,-0.0047758,0.0010145
0.0055712,0.016917,0.0096121,0.0074008,0.00064007,0.019909,0.01059,0.012941,-0.015484,0.020592,-0.010898,0.0099404,-0.073154,0.019819,0.021995,0.040416,0.020354,0.034376,-0.0016355,-0.002365,0.016068,0.0057434,-0.0028575,0.0034294
0.0014002,0.014625,0.0037563,0.010249,-0.00099615,0.022511,0.012966,0.0062749,-0.02226,0.013554,-0.0064486,0.0035874,-0.070105,0.021599,0.016447,0.050869,0.022498,0.02633,0.0021443,-0.006807,0.024111,0.0061349,-0.00039362,7.1717e-005
-0.0011261,0.011316,4.5732e-005,0.012135,-0.0023857,0.019538,0.016665,-0.0029218,-0.027051,0.0097845,0.00028685,0.00041892,-0.062486,0.02216,0.014104,0.056691,0.021315,0.022433,0.0031903,-0.0050775,0.030316,0.0078581,0.00066431,-0.0064118
0.00025943,0.0080633,-7.5692e-005,0.01265,-0.0010538,0.012798,0.019223,-0.0099411,-0.03003,0.01111,0.0041811,0.001242,-0.052694,0.02115,0.016108,0.056906,0.018503,0.023343,0.0025033,0.0024163,0.031787,0.0094303,-0.0001216,-0.011893
0.0042076,0.0060269,0.0022516,0.011753,0.0030288,0.0076105,0.018397,-0.010455,-0.032108,0.015833,0.0042451,0.0050965,-0.041491,0.019229,0.020489,0.054914,0.016516,0.025909,0.0024746,0.011248,0.027319,0.0097382,-0.00154,-0.013826
0.0071904,0.0059967,0.0043553,0.0095187,0.0065784,0.0082787,0.014137,-0.0039085,-0.03337,0.020038,0.0038606,0.0099881,-0.028792,0.017123,0.023842,0.055478,0.016756,0.026313,0.0047148,0.015898,0.019045,0.0090157,-0.0018875,-0.012456
0.006713,0.0077366,0.0042919,0.0062248,0.005419,0.014408,0.0087209,0.0056733,-0.03243,0.020415,0.0070362,0.014067,-0.015711,0.014877,0.024075,0.060593,0.018809,0.023292,0.0087401,0.013498,0.011697,0.0084458,-0.00044485,-0.0095778
0.0033354,0.0097729,0.0023364,0.0026082,-0.001546,0.021234,0.0049146,0.012146,-0.027596,0.016534,0.014265,0.016613,-0.0053119,0.01218,0.021939,0.067603,0.021174,0.018917,0.012676,0.0057589,0.0095433,0.0089002,0.0018992,-0.0064902
-9.8323e-005,0.010243,0.00046742,-0.0001518,-0.01043,0.023628,0.003888,0.011336,-0.018948,0.011014,0.021732,0.018243,-0.00083255,0.0093132,0.020154,0.071093,0.022563,0.016744,0.015175,-0.0022689,0.013259,0.010119,0.0033176,-0.0032351
-0.0010034,0.0084901,0.00042279,-0.00093042,-0.014792,0.020236,0.0047235,0.0039383,-0.009259,0.0075617,0.024458,0.020162,-0.0028925,0.0074555,0.020925,0.067107,0.022611,0.01917,0.01663,-0.0057256,0.019391,0.011065,0.0024348,0.00039629
0.0010041,0.0060535,0.0021039,0.00061834,-0.010889,0.014234,0.0056882,-0.0048091,-0.0025531,0.0083281,0.0205,0.022934,-0.0084871,0.0077613,0.024003,0.056458,0.021656,0.025962,0.018589,-0.0032021,0.023063,0.010972,-0.00063019,0.0035794
0.0042103,0.0058501,0.0036973,0.0036682,-0.001341,0.010273,0.0058352,-0.0085855,-0.0012395,0.012442,0.012578,0.025721,-0.013086,0.010082,0.026895,0.044638,0.020263,0.034655,0.022043,0.0026257,0.021869,0.0099883,-0.0042909,0.0046362
0.0063927,0.0097918,0.0033141,0.0065557,0.0063412,0.010521,0.0054863,-0.0042983,-0.0042523,0.016664,0.0059418,0.026664,-0.014147,0.012774,0.027039,0.038408,0.01911,0.042129,0.026381,0.007373,0.017742,0.0088815,-0.0064926,0.0027066
0.0062844,0.016731,0.00066136,0.0077109,0.0056231,0.013238,0.0054893,0.0057371,-0.0079477,0.017602,0.0044276,0.024264,-0.012834,0.014008,0.024122,0.041456,0.019074,0.046208,0.030003,0.0084441,0.015284,0.008239,-0.0059607,-0.00091054
0.0039159,0.022716,-0.0026725,0.0065803,-0.0035788,0.014809,0.0062803,0.015338,-0.0091383,0.013908,0.0079432,0.01875,-0.0123,0.013377,0.020596,0.052092,0.020834,0.046492,0.03192,0.0069486,0.017982,0.0080177,-0.0029355,-0.0034674
0.0001136,0.023729,-0.0044813,0.0039138,-0.014608,0.013116,0.0076361,0.018664,-0.0076775,0.0070858,0.013088,0.012367,-0.014136,0.012194,0.019851,0.064413,0.023967,0.044169,0.03262,0.006616,0.025506,0.0077967,0.00095079,-0.0031532
-0.0040358,0.018866,-0.0036265,0.001231,-0.019425,0.0091984,0.009029,0.014069,-0.0063119,0.00053006,0.016015,0.0082487,-0.016423,0.012143,0.023438,0.072085,0.026543,0.041046,0.033265,0.010626,0.034263,0.0073325,0.003523,-0.00085405
-0.007436,0.011257,-0.00076964,-0.00016645,-0.01511,0.0060351,0.0099351,0.0048748,-0.0079202,-0.0024235,0.015097,0.0085783,-0.015353,0.013607,0.029479,0.072241,0.026222,0.038371,0.034055,0.01884,0.040532,0.0067932,0.0032289,0.00062814
-0.0092309,0.0057949,0.0023221,9.3193e-006,-0.0059594,0.0058249,0.0098314,-0.0032858,-0.012642,-0.00024498,0.011531,0.013251,-0.0090053,0.015379,0.033649,0.06703,0.022382,0.036204,0.033581,0.027577,0.043367,0.0064822,9.8615e-005,-0.00066773
-0.0092346,0.0053989,0.0041708,0.00092434,0.0005422,0.0082284,0.0082543,-0.0063293,-0.017562,0.0061441,0.0078551,0.019887,0.00027806,0.015997,0.032175,0.061891,0.01731,0.033768,0.030105,0.032157,0.044853,0.0064184,-0.0040451,-0.0037753
-0.0081563,0.0088422,0.0044927,0.0012754,0.0002036,0.010861,0.0052672,-0.0038587,-0.019284,0.014018,0.0058787,0.025202,0.0072641,0.01532,0.024763,0.061764,0.014838,0.030509,0.023732,0.030377,0.04777,0.0062484,-0.0064471,-0.0055055
-0.0071134,0.011939,0.0040082,0.00031776,-0.0045927,0.01133,0.001973,0.0016509,-0.017051,0.020331,0.0056314,0.026881,0.0078562,0.014663,0.015272,0.067784,0.017107,0.026944,0.017253,0.024343,0.052971,0.0056007,-0.005082,-0.003371
-0.0066068,0.011105,0.0035671,-0.0013943,-0.0074307,0.0090032,0.00027291,0.0073831,-0.013444,0.023223,0.0058806,0.024807,0.0022456,0.015346,0.0094763,0.076744,0.022286,0.024452,0.014496,0.019154,0.058787,0.0045408,-0.00012172,0.0020274
-0.0058989,0.006347,0.0034987,-0.0021397,-0.0036433,0.005234,0.0016253,0.012066,-0.011982,0.022812,0.0054904,0.020859,-0.0055262,0.017163,0.011366,0.083683,0.025634,0.024056,0.017321,0.019208,0.062782,0.0036703,0.0059633,0.0074093
-0.0035895,0.0012367,0.0036919,-0.00011347,0.0058413,0.0021465,0.0056884,0.015886,-0.013851,0.020893,0.0043698,0.017435,-0.01103,0.018433,0.020562,0.08569,0.023373,0.025243,0.023845,0.024771,0.064067,0.0037005,0.010012,0.0096254
0.00093349,-5.8708e-005,0.0040881,0.0051843,0.015638,0.0011514,0.010197,0.019111,-0.016901,0.019801,0.0032688,0.015765,-0.012743,0.017679,0.032719,0.084137,0.016062,0.026003,0.029605,0.031549,0.064014,0.0048061,0.010434,0.0082923
0.0065042,0.0038036,0.0049029,0.01231,0.020501,0.0022892,0.012512,0.021119,-0.017904,0.021092,0.0027401,0.015247,-0.012427,0.015262,0.042594,0.083702,0.0084089,0.024313,0.03082,0.033879,0.064801,0.0063296,0.0083297,0.0059806
0.01074,0.010306,0.0063159,0.018637,0.01911,0.0046531,0.011705,0.020839,-0.015883,0.024796,0.0023487,0.014285,-0.012731,0.013239,0.047528,0.089021,0.0055661,0.019962,0.027091,0.029276,0.067201,0.0072011,0.006434,0.0059916
0.011837,0.015201,0.0080634,0.022072,0.01411,0.0072788,0.0093402,0.01802,-0.01322,0.029564,0.0010104,0.011864,-0.014732,0.0134,0.048773,0.10149,0.0091183,0.01512,0.021424,0.020718,0.069636,0.0068415,0.0067323,0.0097726
0.010026,0.015945,0.0095309,0.022399,0.0091528,0.0096869,0.0081477,0.013962,-0.013373,0.033532,-0.0017336,0.008537,-0.017742,0.015344,0.04984,0.11843,0.016116,0.012944,0.017755,0.014562,0.069397,0.0058071,0.0088254,0.016025
0.0073258,0.013516,0.01036,0.021116,0.0061017,0.011753,0.009681,0.010959,-0.017319,0.035359,-0.0047419,0.0060049,-0.021163,0.016501,0.053274,0.13487,0.021683,0.015176,0.018132,0.015544,0.065042,0.0055144,0.010543,0.021891
0.0057616,0.011194,0.01091,0.019944,0.0046982,0.013247,0.013019,0.010919,-0.022212,0.034898,-0.005791,0.005748,-0.025925,0.014267,0.058402,0.14616,0.022659,0.020661,0.021691,0.022889,0.05795,0.0071369,0.010235,0.024984
0.0056808,0.011505,0.011967,0.019412,0.0041899,0.01364,0.015593,0.014249,-0.023691,0.033182,-0.0034645,0.0079128,-0.033641,0.008397,0.061648,0.14974,0.019282,0.026064,0.025755,0.030851,0.051616,0.010557,0.0085319,0.024747
0.0057033,0.014065,0.013869,0.018831,0.0046273,0.01247,0.015263,0.019696,-0.019847,0.031738,0.0011917,0.011322,-0.044182,0.0014748,0.059,0.14501,0.014075,0.028282,0.027758,0.033302,0.049061,0.014328,0.0078186,0.022482
0.0043153,0.016138,0.015962,0.017585,0.0063827,0.0099455,0.011717,0.025081,-0.013173,0.031561,0.0049789,0.014418,-0.054369,-0.0030002,0.048713,0.13253,0.0095545,0.026619,0.026487,0.028526,0.05032,0.016773,0.0097939,0.020386
0.0015565,0.015253,0.017061,0.016274,0.0087197,0.0072038,0.0061883,0.028374,-0.0086055,0.032336,0.0049217,0.016228,-0.059526,-0.0033301,0.03244,0.11339,0.0068774,0.02302,0.022223,0.020152,0.052079,0.017356,0.013434,0.020311
-0.00082587,0.011501,0.016559,0.016358,0.0094385,0.0058351,0.00022911,0.028588,-0.0092795,0.032478,0.00078797,0.016619,-0.056774,-0.00088277,0.014368,0.08937,0.0059967,0.020325,0.016382,0.013614,0.049992,0.017171,0.015438,0.022867
-0.00091414,0.0075169,0.015077,0.018509,0.0064753,0.006902,-0.0050059,0.026095,-0.013757,0.030155,-0.0045667,0.015898,-0.047021,0.0010536,-0.00073988,0.063123,0.0063953,0.020136,0.01113,0.011447,0.042066,0.018169,0.013037,0.027172
0.0015958,0.0063124,0.013896,0.021389,9.7331e-005,0.010147,-0.0084781,0.022232,-0.017238,0.024704,-0.0075248,0.014372,-0.033691,-0.00017747,-0.0093141,0.037763,0.0073648,0.021984,0.0088311,0.011638,0.03047,0.021743,0.0068005,0.03137
0.0050284,0.0088951,0.013674,0.022375,-0.0066108,0.014042,-0.0089332,0.018397,-0.015763,0.017411,-0.0067228,0.012353,-0.019371,-0.0046215,-0.0099006,0.015773,0.0078715,0.024238,0.010942,0.010302,0.020205,0.027701,0.00087788,0.033667
0.0070932,0.013613,0.013747,0.019918,-0.0098214,0.016753,-0.0055438,0.015248,-0.0097951,0.010969,-0.0040543,0.010494,-0.0036034,-0.0096329,-0.0032778,-0.0019072,0.0067423,0.025652,0.016751,0.0059229,0.015536,0.034211,0.00015128,0.033318
0.0066876,0.017548,0.01279,0.015402,-0.0079613,0.017375,0.00084859,0.012674,-0.0040282,0.0078681,-0.0027789,0.0099494,0.015993,-0.01152,0.007931,-0.015748,0.0034268,0.026196,0.023121,0.0010329,0.016945,0.038625,0.0064066,0.030943
0.004519,0.01863,0.010213,0.012547,-0.0029467,0.016494,0.0074514,0.010549,-0.0035283,0.0088913,-0.004538,0.011904,0.040293,-0.0076643,0.020052,-0.02646,-0.0013572,0.026662,0.026093,-0.00025865,0.02101,0.038693,0.016597,0.027971
0.002137,0.016835,0.0068771,0.014452,0.0015082,0.01559,0.011121,0.009456,-0.0094359,0.012811,-0.0080384,0.016592,0.066138,0.0021253,0.029552,-0.033795,-0.0059319,0.027676,0.02362,0.0035191,0.023181,0.033757,0.024754,0.025658
0.0004797,0.013822,0.004423,0.020707,0.002982,0.015741,0.010757,0.01041,-0.01783,0.017431,-0.010484,0.022519,0.087147,0.01553,0.034311,-0.036501,-0.0088248,0.029025,0.017351,0.0093803,0.021065,0.025438,0.026237,0.024426
-0.00063964,0.011606,0.0039438,0.027198,0.0020455,0.01673,0.0082169,0.013582,-0.02269,0.021107,-0.010203,0.026731,0.097259,0.028674,0.034329,-0.033642,-0.0097256,0.029728,0.011734,0.012389,0.01558,0.017315,0.02107,0.023893
-0.0017744,0.011353,0.0053512,0.029075,0.0011655,0.01738,0.0066327,0.01728,-0.020494,0.023593,-0.0079129,0.026367,0.094107,0.037577,0.031319,-0.026157,-0.0093174,0.028647,0.010803,0.010321,0.0093883,0.013314,0.013749,0.023405
-0.0028243,0.012916,0.0078956,0.024555,0.0020646,0.016836,0.0075417,0.018628,-0.012756,0.025744,-0.0055915,0.020651,0.07973,0.039552,0.027368,-0.017054,-0.0082522,0.025195,0.015135,0.0061443,0.0043597,0.015416,0.0096414,0.022519
-0.002958,0.015088,0.010977,0.016356,0.0041266,0.015604,0.0095375,0.015917,-0.0046139,0.028475,-0.0043524,0.011795,0.058589,0.034041,0.023596,-0.0096701,-0.0064862,0.019855,0.021525,0.0058462,0.0003977,0.022168,0.010911,0.021194
-0.0015973,0.016228,0.014179,0.0094586,0.0052288,0.015295,0.0097253,0.010712,-0.00083288,0.031832,-0.0035625,0.0037803,0.034993,0.022433,0.019779,-0.0052091,-0.0037786,0.014211,0.025708,0.013386,-0.0036642,0.029355,0.015247,0.019833
0.00062846,0.014998,0.016623,0.0070963,0.0039624,0.0172,0.0065205,0.0074391,-0.0025145,0.034843,-0.0019669,-0.00035629,0.011972,0.0067552,0.015181,-0.0017345,-0.00076349,0.01028,0.025804,0.027308,-0.0083887,0.032712,0.018308,0.019351
0.0020978,0.011053,0.016835,0.0084136,0.00098922,0.020957,0.0010611,0.010103,-0.0069352,0.036258,0.00058939,-0.00067319,-0.0082174,-0.012213,0.0098015,0.0041782,0.0008452,0.0092437,0.023565,0.04213,-0.013095,0.030818,0.017605,0.021042
0.0015636,0.0054252,0.013866,0.0098039,-0.0016449,0.024541,-0.0039894,0.01856,-0.010259,0.035637,0.002814,-4.0379e-005,-0.023343,-0.036224,0.0049007,0.014198,-0.00043342,0.010352,0.022453,0.053275,-0.016757,0.025877,0.014359,0.025874
-0.00056799,0.00026554,0.0087814,0.0086048,-0.0023377,0.025656,-0.0068196,0.027738,-0.010644,0.033984,0.0033817,-0.0015293,-0.031551,-0.069079,0.002273,0.026073,-0.0041025,0.011041,0.024417,0.061001,-0.019292,0.021702,0.011846,0.033319
-0.0023312,-0.0021491,0.0046674,0.0057261,-0.0010638,0.023413,-0.0075892,0.031065,-0.0092599,0.033243,0.0025143,-0.0056635,-0.032687,-0.11409,0.0028042,0.034558,-0.0074141,0.0086443,0.02829,0.069701,-0.021743,0.020512,0.011956,0.040647
-0.0017419,-0.00066925,0.0044701,0.0048167,0.0010458,0.01894,-0.0074289,0.025658,-0.0086798,0.034823,0.0019048,-0.0099122,-0.029229,-0.17063,0.0055004,0.034924,-0.0072747,0.0026309,0.031088,0.083247,-0.02511,0.021239,0.013303,0.043787
0.0014874,0.0040569,0.0082917,0.008818,0.0028956,0.014555,-0.0067839,0.014961,-0.010299,0.038187,0.0029559,-0.010807,-0.025654,-0.23189,0.0078074,0.026236,-0.0028521,-0.0044917,0.030822,0.10074,-0.029005,0.020762,0.012647,0.039806
0.0055584,0.010039,0.012798,0.01711,0.0040517,0.012219,-0.0050852,0.0063458,-0.013051,0.040779,0.0051958,-0.0067246,-0.026387,-0.28587,0.0070093,0.011736,0.0035316,-0.0087186,0.028143,0.11665,-0.03162,0.016938,0.0081816,0.02943
0.0078937,0.015218,0.013758,0.025753,0.0043984,0.012421,-0.0020037,0.0054373,-0.014428,0.03966,0.0066546,0.0010734,-0.033718,-0.31982,0.0016815,-0.0038828,0.0081936,-0.0076287,0.02544,0.12507,-0.031229,0.01073,0.0015049,0.01741
0.007035,0.018563,0.0097571,0.030361,0.0036036,0.014098,0.0013718,0.011818,-0.012817,0.033701,0.005954,0.0097392,-0.047108,-0.3263,-0.0077408,-0.017833,0.009028,-0.0025752,0.024488,0.12423,-0.027958,0.0055286,-0.0035894,0.0097892
0.003537,0.020162,0.0037061,0.028928,0.0012794,0.015474,0.0030231,0.019647,-0.0091042,0.024539,0.0039977,0.016905,-0.064184,-0.30729,-0.019427,-0.030382,0.0069448,0.0019877,0.025011,0.11702,-0.024158,0.0042622,-0.0043049,0.0096918
-0.00080914,0.020407,0.00053751,0.022435,-0.0022594,0.015149,0.0018122,0.022543,-0.0061517,0.015406,0.0034404,0.021557,-0.08252,-0.27337,-0.031069,-0.043167,0.004626,0.0017585,0.025449,0.10778,-0.022863,0.0068227,-0.0010318,0.014867
-0.0045947,0.019201,0.0029153,0.013476,-0.0056106,0.012826,-0.0013109,0.01855,-0.0065249,0.0088078,0.0063166,0.023377,-0.10096,-0.23799,-0.040628,-0.056684,0.003957,-0.0040704,0.024926,0.098559,-0.0255,0.010057,0.0033496,0.019297
-0.0077358,0.016078,0.0087538,0.0047353,-0.0069908,0.009331,-0.0040722,0.01116,-0.010332,0.0050619,0.012089,0.021911,-0.11983,-0.20983,-0.046744,-0.069492,0.0046103,-0.012105,0.024282,0.088521,-0.030717,0.010336,0.0061173,0.017984
-0.010945,0.01116,0.01287,-0.0015302,-0.0056163,0.0060226,-0.004897,0.0059621,-0.014978,0.0028622,0.018001,0.016869,-0.14023,-0.18837,-0.048973,-0.079661,0.0049222,-0.017322,0.024989,0.076345,-0.035295,0.0065248,0.0066779,0.011184
-0.014387,0.0059161,0.011445,-0.0035495,-0.0025184,0.0040076,-0.0041566,0.0060784,-0.017088,0.0010567,0.021366,0.009229,-0.16312,-0.16582,-0.047879,-0.086649,0.0039008,-0.016909,0.027071,0.062571,-0.036394,0.00088057,0.0061969,0.0043912
-0.016946,0.002739,0.0054158,-0.00070795,8.5976e-005,0.0037041,-0.0034402,0.010163,-0.015037,-0.00027924,0.021609,0.001555,-0.18825,-0.13412,-0.044754,-0.091441,0.0022524,-0.012287,0.028269,0.049197,-0.03336,-0.0027541,0.0057094,0.0037977
-0.016948,0.0033767,-0.00022857,0.0053892,0.00048009,0.0049411,-0.0037129,0.014125,-0.010026,-0.00052398,0.020198,-0.0033379,-0.21336,-0.092158,-0.040897,-0.094791,0.0015217,-0.0077705,0.02562,0.037261,-0.027816,-0.0018867,0.0049406,0.010892
-0.013714,0.0074513,-0.00070947,0.010986,-0.0012037,0.0072838,-0.0043089,0.014611,-0.0048738,-2.8134e-005,0.018781,-0.0043858,-0.2338,-0.047738,-0.036916,-0.095511,0.0023981,-0.0070441,0.018221,0.025551,-0.022235,0.0029326,0.0030557,0.020884
-0.0084709,0.01244,0.0043894,0.012302,-0.0031556,0.010078,-0.0037414,0.011247,-0.0016728,-0.00057357,0.017538,-0.0029566,-0.24349,-0.012715,-0.032763,-0.090777,0.0039528,-0.010407,0.0085722,0.01236,-0.018321,0.0088069,0.00032841,0.026474
-0.003647,0.015354,0.010676,0.0084567,-0.0034794,0.01216,-0.0013933,0.0062605,-0.00034717,-0.0039581,0.015383,-0.0014019,-0.23745,0.0050996,-0.028593,-0.078415,0.0044911,-0.014917,0.00095049,-0.0014791,-0.016371,0.012711,-0.0013401,0.023777
-0.0010698,0.014852,0.012613,0.0025212,-0.0018354,0.011844,0.001702,0.0024223,0.00077005,-0.00997,0.01166,-0.00083433,-0.21503,0.0072039,-0.025582,-0.05919,0.003085,-0.017089,-0.0020099,-0.011887,-0.015738,0.013325,9.6534e-005,0.015219
-0.00063224,0.01204,0.0081642,-0.00068227,0.0003384,0.0077993,0.0037748,0.0012421,0.0030975,-0.015914,0.0074065,-0.00033763,-0.18146,0.0029088,-0.025617,-0.037169,0.00031282,-0.015721,-0.0015669,-0.014692,-0.015613,0.011223,0.0046901,0.0069328
-0.00060532,0.0092488,0.00046571,0.0015476,0.0012798,0.00051081,0.0039798,0.0025468,0.0064889,-0.018524,0.004765,0.0016222,-0.14611,0.0024137,-0.029789,-0.018059,-0.0023761,-0.012569,-0.001804,-0.0099387,-0.015393,0.0077243,0.0099285,0.0031955
0.00069674,0.0078739,-0.0048214,0.0076019,0.00075,-0.0070621,0.0031557,0.0051303,0.0095478,-0.016761,0.0050265,0.005092,-0.118,0.0099444,-0.036987,-0.0069882,-0.003967,-0.010579,-0.0060262,-0.0029064,-0.014624,0.0037071,0.012567,0.0030933
0.0033986,0.0071797,-0.0041386,0.013033,0.00051968,-0.010832,0.0029826,0.0075532,0.011078,-0.012913,0.0072762,0.0080806,-0.1014,0.022209,-0.044074,-0.0071289,-0.00468,-0.011492,-0.013758,-0.00024163,-0.012992,-0.00060527,0.011367,0.0023482
0.0060072,0.005154,0.0013022,0.014335,0.0028756,-0.0084687,0.0043907,0.0086026,0.011216,-0.010809,0.0090434,0.0082281,-0.094718,0.032986,-0.047793,-0.019247,-0.0056751,-0.014841,-0.021071,-0.0044456,-0.010582,-0.0050151,0.0082576,-0.0017462
0.0067747,0.0006045,0.0069258,0.0116,0.00836,-0.0015702,0.0067074,0.0075895,0.011243,-0.012518,0.0083797,0.0050855,-0.09315,0.039649,-0.046841,-0.041446,-0.007991,-0.018887,-0.02401,-0.011829,-0.0080374,-0.0087804,0.0067742,-0.0072319
0.0052112,-0.0054535,0.0088369,0.0077407,0.014813,0.0050632,0.00826,0.0047106,0.012358,-0.016414,0.0053597,0.00076012,-0.092552,0.045954,-0.042311,-0.06893,-0.011532,-0.022236,-0.022036,-0.015896,-0.0061396,-0.01081,0.009071,-0.0092472
0.0024844,-0.010419,0.0069178,0.0052967,0.018754,0.0069225,0.0077968,0.0012423,0.014524,-0.018408,0.0015576,-0.0016977,-0.091254,0.05872,-0.036249,-0.094625,-0.014777,-0.024541,-0.018288,-0.012948,-0.0049648,-0.010482,0.014062,-0.0048402
0.00054463,-0.012169,0.0044594,0.0039773,0.018031,0.0032876,0.0054354,-0.00091162,0.016322,-0.015439,-0.0019298,-0.00061873,-0.088779,0.081315,-0.029795,-0.11147,-0.015436,-0.02593,-0.016351,-0.0047369,-0.0034856,-0.0083125,0.018258,0.0038891
0.00086099,-0.010688,0.0049636,0.0012713,0.013438,-0.0023507,0.0023681,-0.00035119,0.015923,-0.008314,-0.0058793,0.0033453,-0.083631,0.1097,-0.02262,-0.11568,-0.011818,-0.026163,-0.016537,0.0038934,-0.00029589,-0.0058324,0.018503,0.011316
0.0037179,-0.0078526,0.0091184,-0.0045925,0.0078768,-0.0053944,-0.00031306,0.0027247,0.012477,-0.0014157,-0.012263,0.0082456,-0.073098,0.13467,-0.013897,-0.10876,-0.0042322,-0.024679,-0.015326,0.0094489,0.0049307,-0.0046929,0.014288,0.01297
0.0082854,-0.0057201,0.014491,-0.012249,0.0038563,-0.0039794,-0.0025794,0.0064085,0.0069906,0.00064848,-0.022036,0.012504,-0.055663,0.1486,-0.003516,-0.096305,0.0044834,-0.021471,-0.0087911,0.011744,0.010596,-0.0056297,0.0078057,0.0090165
0.013058,-0.0049954,0.017833,-0.017699,0.0016105,-7.9775e-005,-0.005355,0.0082427,0.0020472,-0.0031819,-0.033485,0.015568,-0.033478,0.15124,0.0077674,-0.084023,0.010032,-0.01768,0.0029804,0.011925,0.014013,-0.0080075,0.0019424,0.0035835
0.016329,-0.0049897,0.017635,-0.017359,-0.0005348,0.0029268,-0.0094063,0.0068819,0.00040602,-0.009339,-0.042776,0.017287,-0.011852,0.14965,0.019159,-0.073762,0.0091006,-0.015019,0.014752,0.0095046,0.013518,-0.010246,-0.0019415,0.00097123
0.016751,-0.0048305,0.01469,-0.011041,-0.0040729,0.0035891,-0.014192,0.0029901,0.0032198,-0.012274,-0.046345,0.017207,0.0044763,0.15265,0.030387,-0.062943,0.0017604,-0.014423,0.019834,0.0021498,0.010091,-0.010831,-0.0046353,0.0023076
0.014049,-0.0045275,0.010632,-0.0023661,-0.0085707,0.003222,-0.017756,-0.0013263,0.0090022,-0.0088839,-0.043164,0.014891,0.015065,0.16445,0.041107,-0.047947,-0.0080621,-0.015285,0.015676,-0.011468,0.0068914,-0.0092659,-0.007836,0.0052649
0.0094428,-0.0048457,0.0063159,0.0036896,-0.011869,0.0036123,-0.017985,-0.0040745,0.01414,-0.0012371,-0.03511,0.010922,0.023787,0.18242,0.049721,-0.028599,-0.014875,-0.016133,0.0063413,-0.029304,0.0068265,-0.0063417,-0.012345,0.0063997
0.0051529,-0.0062965,0.0017374,0.0041382,-0.011919,0.0043404,-0.01439,-0.0046614,0.014813,0.0046546,-0.025442,0.0071696,0.034709,0.20035,0.053128,-0.0095048,-0.015346,-0.016113,-0.00064351,-0.04728,0.010114,-0.0035943,-0.017295,0.0037137
0.0029616,-0.0084448,-0.002751,-0.00031119,-0.0085072,0.0029037,-0.0089578,-0.003949,0.0092223,0.0032234,-0.016906,0.0055491,0.047415,0.21367,0.048268,0.0034776,-0.010642,-0.015779,-0.00047835,-0.063377,0.013967,-0.0023084,-0.02093,-0.0023926
0.0028857,-0.010275,-0.005686,-0.0062239,-0.0033824,-0.0022323,-0.0051689,-0.0032232,-0.0012127,-0.0064319,-0.010916,0.0062251,0.056236,0.22226,0.034603,0.0089373,-0.0052906,-0.016315,0.0051942,-0.079931,0.014823,-0.0027364,-0.022087,-0.0097446
0.0032698,-0.011158,-0.0054363,-0.01007,0.0010885,-0.0089048,-0.0057152,-0.0031162,-0.012462,-0.019734,-0.0079439,0.0071814,0.054518,0.22894,0.015541,0.012543,-0.0032793,-0.01793,0.010458,-0.10098,0.011312,-0.0040279,-0.021061,-0.015566
0.0024828,-0.011325,-0.0020624,-0.010446,0.0034091,-0.01212,-0.010633,-0.0034047,-0.01998,-0.029836,-0.008099,0.0059822,0.040526,0.23566,-0.0026138,0.023496,-0.0046209,-0.019104,0.011131,-0.1267,0.0054506,-0.0048945,-0.0192,-0.017576
0.00074482,-0.011363,0.0019852,-0.0084418,0.0033876,-0.008236,-0.01735,-0.0036429,-0.02117,-0.032334,-0.011057,0.0023652,0.019961,0.24084,-0.013745,0.047019,-0.0054737,-0.0177,0.0088667,-0.15062,0.0010194,-0.0045509,-0.017749,-0.015026
0.00017325,-0.011334,0.0034668,-0.0062763,0.0015274,0.0013941,-0.022599,-0.0037668,-0.016825,-0.027901,-0.015558,-0.00083679,0.0028738,0.23988,-0.015006,0.079073,-0.0018483,-0.013148,0.0093552,-0.16344,0.00047722,-0.0032976,-0.017021,-0.0094272
0.0026788,-0.010528,0.0010538,-0.0055336,-0.0016728,0.01098,-0.024595,-0.0039589,-0.010657,-0.02105,-0.019411,0.00028532,-0.0026275,0.22823,-0.007894,0.10827,0.0063825,-0.0077028,0.016265,-0.16058,0.002975,-0.0023131,-0.016564,-0.0041523
0.0075648,-0.0081835,-0.0034204,-0.0063135,-0.0057355,0.014829,-0.023774,-0.0040138,-0.007005,-0.016371,-0.020479,0.007167,0.0049309,0.20475,0.0031614,0.124,0.01491,-0.0053421,0.026878,-0.14666,0.005082,-0.0027302,-0.016055,-0.0024309
0.01133,-0.0044682,-0.00654,-0.0076531,-0.0097373,0.011789,-0.021789,-0.0031337,-0.0080451,-0.015431,-0.018039,0.016804,0.02045,0.17339,0.013378,0.12425,0.018561,-0.0088323,0.033946,-0.13219,0.0035423,-0.0046055,-0.015995,-0.0048425
0.010287,-0.00072058,-0.0064289,-0.0085409,-0.01222,0.0056107,-0.019935,-0.00068591,-0.012366,-0.016609,-0.013313,0.023479,0.036337,0.14217,0.019533,0.11624,0.015895,-0.017246,0.032392,-0.12499,-0.0022226,-0.0066037,-0.017508,-0.0085278
0.0038282,0.0013657,-0.0045471,-0.0085735,-0.011967,0.0011301,-0.018453,0.0027004,-0.01605,-0.017451,-0.0085897,0.023189,0.047218,0.1199,0.020316,0.10921,0.01067,-0.02612,0.024615,-0.12386,-0.0097907,-0.0068281,-0.021347,-0.009368
-0.0047577,0.00098688,-0.0044139,-0.0078495,-0.0091016,6.1689e-005,-0.017013,0.0049988,-0.015583,-0.017069,-0.0055596,0.017215,0.052343,0.11185,0.015678,0.10537,0.0087974,-0.030445,0.019138,-0.12056,-0.015648,-0.0043322,-0.026939,-0.0056885
-0.010865,-0.0010688,-0.0083363,-0.0064544,-0.0053388,0.00028539,-0.015558,0.0042052,-0.01039,-0.016487,-0.0041902,0.011588,0.055152,0.11681,0.0063009,0.097112,0.013481,-0.028297,0.023423,-0.10798,-0.017651,-0.00011609,-0.032299,-0.000181
-0.012277,-0.0027962,-0.015093,-0.0041962,-0.0028864,-0.0010979,-0.014591,0.00032283,-0.0030189,-0.016965,-0.0030332,0.012458,0.061384,0.12747,-0.006367,0.073154,0.022798,-0.022214,0.03722,-0.08719,-0.016155,0.0033991,-0.035016,0.0021039
-0.010567,-0.0022141,-0.020693,-0.00091282,-0.0027823,-0.0043308,-0.014741,-0.00398,0.0030236,-0.018261,-0.0006564,0.02095,0.077027,0.13505,-0.020052,0.028333,0.031679,-0.017126,0.052503,-0.066644,-0.013211,0.0042101,-0.033717,-0.0016866
-0.0089997,0.0012545,-0.021602,0.002948,-0.0042073,-0.0066944,-0.016234,-0.0050435,0.0058125,-0.018633,0.0030128,0.031779,0.10643,0.13554,-0.032326,-0.031359,0.036278,-0.016493,0.060088,-0.054643,-0.010806,0.0023975,-0.029066,-0.0091394
-0.0091479,0.0060977,-0.01766,0.0061037,-0.005511,-0.005493,-0.018722,-0.0011319,0.0058389,-0.016563,0.0065402,0.037028,0.15048,0.13324,-0.041878,-0.09277,0.036748,-0.019839,0.056946,-0.052223,-0.0096771,6.4071e-005,-0.023607,-0.014066
-0.0096209,0.0092889,-0.012243,0.0069594,-0.0060096,-0.0011307,-0.021482,0.0058926,0.0048231,-0.012478,0.0081465,0.03218,0.20555,0.13827,-0.049325,-0.14472,0.036159,-0.023716,0.047703,-0.053089,-0.0094687,-0.00056387,-0.020428,-0.011594
-0.0080366,0.0080589,-0.0095576,0.0046466,-0.0067164,0.0029329,-0.023652,0.011826,0.0040373,-0.0087546,0.0072416,0.019625,0.26426,0.15905,-0.056635,-0.18406,0.036929,-0.025098,0.03935,-0.050295,-0.0097118,0.00077111,-0.021346,-0.0024586
-0.0040007,0.0019465,-0.011363,-0.00016199,-0.0091284,0.0033476,-0.024431,0.013505,0.0037567,-0.0079481,0.0050888,0.0068911,0.31875,0.19493,-0.065343,-0.21378,0.038261,-0.024106,0.034423,-0.043001,-0.010484,0.0020565,-0.025713,0.0074406
0.00010664,-0.0063288,-0.015749,-0.0053638,-0.013213,9.2125e-006,-0.023391,0.011495,0.0039419,-0.01077,0.0040136,0.0011591,0.3645,0.23509,-0.074888,-0.23576,0.036899,-0.023629,0.029128,-0.036851,-0.012126,0.0009089,-0.030714,0.012011
0.001366,-0.012158,-0.018877,-0.0085456,-0.016742,-0.0039231,-0.020844,0.0096268,0.0049275,-0.015537,0.0056766,0.0044461,0.40233,0.26493,-0.082382,-0.24579,0.030378,-0.026393,0.017931,-0.037927,-0.014477,-0.0030277,-0.033155,0.010117
-0.00077097,-0.01198,-0.018196,-0.0084244,-0.016935,-0.005108,-0.017897,0.011614,0.0071442,-0.019477,0.0096867,0.012953,0.43677,0.27533,-0.084032,-0.23583,0.019691,-0.032388,-3.2441e-005,-0.046381,-0.016673,-0.0074839,-0.031621,0.0063019
-0.0039108,-0.005839,-0.014528,-0.0056036,-0.012992,-0.0031572,-0.015798,0.017564,0.010258,-0.020743,0.013667,0.020515,0.47219,0.26791,-0.077257,-0.20166,0.0089997,-0.039087,-0.019015,-0.05582,-0.017926,-0.009457,-0.027421,0.0064214
-0.0050607,0.0024916,-0.01138,-0.0020801,-0.0070362,-0.00082484,-0.01491,0.023497,0.012891,-0.019535,0.01489,0.023025,0.5095,0.25215,-0.062271,-0.14895,0.0026809,-0.04401,-0.031059,-0.058794,-0.018539,-0.0079305,-0.023497,0.012102
-0.0035169,0.0081291,-0.012106,0.00016151,-0.002404,-0.0011979,-0.014216,0.024455,0.013445,-0.017606,0.012386,0.02055,0.54601,0.23743,-0.042408,-0.092216,0.0022324,-0.046831,-0.032589,-0.053021,-0.019866,-0.0049083,-0.022043,0.019075
-0.0014738,0.0084839,-0.017211,0.00045725,-0.0008543,-0.0047133,-0.012073,0.018691,0.01126,-0.016765,0.007943,0.016186,0.57763,0.2265,-0.023189,-0.047268,0.0054892,-0.04883,-0.027125,-0.042936,-0.022843,-0.003757,-0.022764,0.020937
-0.0018564,0.0047731,-0.023967,-0.00025211,-0.0013983,-0.0088366,-0.0078257,0.0094053,0.0069782,-0.017673,0.005044,0.013262,0.60121,0.21545,-0.010501,-0.02314,0.0085034,-0.050453,-0.021891,-0.036064,-0.026383,-0.0063096,-0.023258,0.015002
-0.0055199,0.00053365,-0.02857,-0.00031327,-0.0018043,-0.010525,-0.0028937,0.0025581,0.0018196,-0.019781,0.0063354,0.013177,0.61457,0.19925,-0.0084372,-0.019148,0.0083524,-0.049923,-0.021819,-0.038387,-0.02746,-0.011293,-0.021197,0.0049575
-0.010377,-0.0014466,-0.029027,0.0012683,-0.0011121,-0.008948,-0.00014477,0.0025295,-0.0033715,-0.022198,0.011475,0.015032,0.6148,0.17759,-0.017584,-0.02827,0.0047279,-0.044839,-0.026503,-0.052687,-0.023399,-0.015423,-0.016429,-0.0020996
-0.013075,-0.001142,-0.026386,0.0039802,-0.00050521,-0.005922,-0.0017711,0.0091088,-0.0083423,-0.024554,0.017164,0.016703,0.59727,0.15572,-0.034656,-0.043138,-0.00051902,-0.035416,-0.032392,-0.079781,-0.014566,-0.016145,-0.011167,-0.0016488
-0.0116,-0.00073975,-0.023421,0.0060811,-0.0017177,-0.0039286,-0.0073207,0.017978,-0.012865,-0.027067,0.019565,0.016321,0.55731,0.14053,-0.053915,-0.059909,-0.005039,-0.025832,-0.037365,-0.11949,-0.0048321,-0.013674,-0.0081952,0.0045889
-0.0066598,-0.0023688,-0.022023,0.0058397,-0.00482,-0.0039096,-0.013596,0.023919,-0.016239,-0.029883,0.017333,0.013374,0.49384,0.13568,-0.069811,-0.078004,-0.0074051,-0.021678,-0.04291,-0.16929,0.0010454,-0.010733,-0.0087075,0.010519
-0.00095973,-0.0062868,-0.021628,0.002939,-0.0078732,-0.0049415,-0.016645,0.024039,-0.017599,-0.032443,0.012762,0.0090481,0.41199,0.1402,-0.079338,-0.097341,-0.0074935,-0.025293,-0.052036,-0.22244,0.0010782,-0.01042,-0.011614,0.011274
0.0027847,-0.010937,-0.019981,-0.00091821,-0.0088573,-0.0057506,-0.014349,0.018866,-0.016821,-0.033598,0.0099098,0.0056895,0.32197,0.15096,-0.08277,-0.1162,-0.0060284,-0.03326,-0.065455,-0.26872,-0.0024949,-0.014033,-0.014647,0.0073792
0.0035449,-0.014402,-0.015498,-0.0027765,-0.0077611,-0.0061838,-0.0076676,0.011269,-0.015083,-0.032446,0.011097,0.0054583,0.23449,0.16594,-0.082565,-0.13154,-0.0039446,-0.03867,-0.080053,-0.29877,-0.0052534,-0.020468,-0.016071,0.0037443
0.002327,-0.015709,-0.0090739,-0.00031753,-0.0065297,-0.0070763,0.00018991,0.0046375,-0.014405,-0.029139,0.014733,0.0087911,0.15606,0.18494,-0.081474,-0.14118,-0.0019725,-0.036478,-0.090974,-0.30879,-0.0041834,-0.027341,-0.015531,0.0045973
0.0011874,-0.015048,-0.0037273,0.0062658,-0.0069242,-0.0089153,0.0057751,0.0014992,-0.016458,-0.024916,0.016486,0.013712,0.087639,0.20758,-0.081202,-0.14564,-0.0004634,-0.02733,-0.094944,-0.30165,0.00048997,-0.032707,-0.013677,0.0092918
0.0017717,-0.013265,-0.0023236,0.013865,-0.0086548,-0.011032,0.0071183,0.002695,-0.021589,-0.021271,0.013007,0.016783,0.027399,0.23119,-0.082166,-0.14802,0.00062415,-0.016599,-0.091564,-0.28377,0.0065788,-0.036049,-0.011338,0.013003
0.0043965,-0.011476,-0.0052486,0.018214,-0.0098556,-0.012325,0.0043553,0.0068963,-0.02876,-0.018954,0.0050638,0.015353,-0.02511,0.25102,-0.083945,-0.15176,0.001549,-0.0096821,-0.081872,-0.26112,0.012491,-0.038054,-0.0091437,0.011584
0.0081727,-0.010958,-0.0099345,0.016896,-0.0093657,-0.012622,-0.0005565,0.010846,-0.036278,-0.017602,-0.0027264,0.0096,-0.06714,0.26246,-0.085736,-0.15788,0.0024317,-0.0078292,-0.066487,-0.23804,0.018184,-0.039673,-0.0076407,0.0057936
0.011859,-0.012773,-0.012631,0.011387,-0.0082209,-0.012931,-0.0046176,0.010989,-0.042587,-0.016225,-0.0055277,0.0026635,-0.094785,0.26285,-0.086616,-0.16383,0.0029636,-0.0080245,-0.045702,-0.21866,0.023719,-0.04136,-0.0073061,0.00069225
0.014623,-0.016887,-0.011045,0.0062648,-0.0085297,-0.014078,-0.0049961,0.0060778,-0.046567,-0.014019,-0.0022494,-0.0014874,-0.10686,0.25098,-0.085848,-0.16472,0.0025319,-0.0065324,-0.02128,-0.20722,0.027539,-0.043038,-0.0081367,0.00072364
0.016116,-0.021553,-0.0058668,0.005822,-0.010776,-0.015187,-0.00060802,-0.0012122,-0.047427,-0.01076,0.0035636,-0.0010188,-0.10693,0.22513,-0.083314,-0.15645,0.00081406,-0.0025174,0.0026447,-0.20482,0.026969,-0.044697,-0.0092685,0.0052412
0.016048,-0.024008,-0.0001221,0.010592,-0.012496,-0.013989,0.0066943,-0.005642,-0.044722,-0.0065294,0.0066912,0.0022959,-0.10162,0.18203,-0.079641,-0.13843,-0.0016124,0.0015598,0.021438,-0.20496,0.020937,-0.047051,-0.0093313,0.0089047
0.013966,-0.022448,0.003008,0.016695,-0.010124,-0.0091021,0.012603,-0.0034066,-0.038756,-0.0012446,0.004509,0.0044068,-0.09662,0.11816,-0.075609,-0.11416,-0.003278,0.0028255,0.033351,-0.19369,0.012086,-0.051664,-0.0075357,0.0066937
0.0096929,-0.017716,0.0022265,0.018762,-0.002575,-0.0021796,0.012949,0.0043237,-0.031028,0.005335,-0.001026,0.0022104,-0.093905,0.032464,-0.071121,-0.089025,-0.0026318,0.0011943,0.04108,-0.15731,0.0056277,-0.060339,-0.004558,-0.0011737
0.0040188,-0.012984,-0.0013508,0.014168,0.0068714,0.0025115,0.0069273,0.011678,-0.02403,0.012992,-0.0051977,-0.003886,-0.09219,-0.071916,-0.06477,-0.067026,0.00090828,-0.0001537,0.049425,-0.093514,0.0053804,-0.074027,-0.0022553,-0.009084
-0.0011974,-0.011361,-0.0052782,0.0050814,0.012544,0.0012603,-0.0017374,0.012461,-0.020072,0.020474,-0.0044388,-0.010175,-0.089723,-0.18797,-0.054747,-0.048574,0.0065612,0.0025841,0.060659,-0.016583,0.010425,-0.091887,-0.0022785,-0.010833
-0.003921,-0.013347,-0.0074621,-0.0033454,0.01082,-0.0057779,-0.007208,0.0051175,-0.019747,0.025789,0.00095542,-0.012481,-0.086566,-0.30645,-0.040567,-0.030631,0.012844,0.010479,0.071669,0.049396,0.015584,-0.11112,-0.0047498,-0.0050122
-0.0032607,-0.0164,-0.007276,-0.0070416,0.0032132,-0.014242,-0.006026,-0.0060792,-0.021189,0.027505,0.0073128,-0.0092612,-0.084472,-0.41731,-0.023976,-0.0085255,0.018722,0.020707,0.075625,0.085534,0.015574,-0.12779,-0.0081607,0.0037885
-0.0001492,-0.017093,-0.0056184,-0.0058453,-0.0046661,-0.018835,2.8222e-006,-0.014728,-0.020946,0.026074,0.010555,-0.002444,-0.085053,-0.51046,-0.0079018,0.022202,0.024146,0.028418,0.067,0.090041,0.0093059,-0.13842,-0.010517,0.0087867
0.003209,-0.014034,-0.0041719,-0.0028746,-0.007456,-0.017527,0.0052339,-0.017596,-0.016073,0.023886,0.0091596,0.0044381,-0.088508,-0.57664,0.0059132,0.064839,0.029371,0.02993,0.04574,0.077304,0.0006104,-0.14145,-0.010669,0.0062118
0.0047267,-0.00902,-0.0043921,-0.0013833,-0.004015,-0.013014,0.0049695,-0.016807,-0.0060008,0.02363,0.0049922,0.0089099,-0.09419,-0.60911,0.018385,0.12092,0.03366,0.024612,0.017142,0.064862,-0.0052366,-0.1379,-0.008766,-0.0025092
0.0036506,-0.0055047,-0.0066496,-0.0021754,0.002198,-0.010086,-0.00047145,-0.017178,0.0071941,0.026138,0.0016953,0.010631,-0.10206,-0.60531,0.032062,0.18915,0.034822,0.014307,-0.01225,0.059243,-0.0061768,-0.13083,-0.0057649,-0.012863
0.00080996,-0.0057673,-0.0098517,-0.0038093,0.0063301,-0.011252,-0.0060532,-0.021441,0.020206,0.029667,0.002012,0.010342,-0.11295,-0.56712,0.048321,0.26414,0.030459,0.0013501,-0.039139,0.052431,-0.005176,-0.12406,-0.0027226,-0.021103
-0.0021463,-0.0091881,-0.011859,-0.0049461,0.0059506,-0.014593,-0.006546,-0.027857,0.030387,0.031566,0.0059014,0.0083271,-0.12691,-0.4991,0.065454,0.33678,0.020255,-0.012749,-0.064775,0.031295,-0.0075668,-0.1208,-0.00049943,-0.026327
-0.0038928,-0.012924,-0.010756,-0.0061482,0.0023645,-0.015782,-0.0013089,-0.032183,0.036684,0.031189,0.010617,0.0043028,-0.14099,-0.40656,0.079774,0.39738,0.0073185,-0.026893,-0.09253,-0.0090446,-0.016103,-0.12272,0.0002326,-0.029587
-0.0041538,-0.01419,-0.0063727,-0.0091795,-0.001191,-0.012377,0.0049312,-0.031792,0.039306,0.031372,0.012651,-0.0012164,-0.1492,-0.29551,0.089045,0.4402,-0.0030642,-0.039204,-0.12429,-0.05991,-0.027891,-0.12956,-0.00086456,-0.031744
-0.0035788,-0.012173,-0.0009181,-0.014603,-0.0024418,-0.0063447,0.0060233,-0.027915,0.039023,0.036668,0.01029,-0.0060187,-0.14547,-0.17486,0.095162,0.46606,-0.0068529,-0.046898,-0.15868,-0.10615,-0.035929,-0.13907,-0.0034468,-0.032533
-0.0029694,-0.008234,0.0021187,-0.02038,-0.0015405,-0.0024221,-0.000406,-0.024109,0.037029,0.049233,0.0050167,-0.0074282,-0.12801,-0.058202,0.10343,0.48036,-0.0044047,-0.047981,-0.1919,-0.13859,-0.034258,-0.14727,-0.0064374,-0.031442
-0.002554,-0.0046482,0.00036931,-0.023288,-0.00027835,-0.0038164,-0.01099,-0.022812,0.035251,0.065685,0.00060053,-0.0049601,-0.10168,0.038207,0.11876,0.48785,-0.00068044,-0.043426,-0.21993,-0.1605,-0.022699,-0.14965,-0.0086583,-0.028938
-0.0019614,-0.0031822,-0.0054435,-0.022026,-0.00025345,-0.0092569,-0.019425,-0.023453,0.03611,0.078058,0.00030388,-0.0016662,-0.076253,0.10191,0.14201,0.48841,-0.0019257,-0.037464,-0.23998,-0.18244,-0.0073377,-0.14312,-0.0097562,-0.02638
-0.00091207,-0.0045055,-0.011701,-0.018923,-0.0017525,-0.014135,-0.021399,-0.023726,0.041181,0.078798,0.0042071,-0.0021927,-0.061356,0.13127,0.16943,0.47771,-0.011062,-0.035008,-0.25078,-0.21108,0.0037596,-0.12794,-0.010514,-0.024652
9.1395e-005,-0.0083265,-0.014409,-0.018174,-0.0040139,-0.014633,-0.017404,-0.022363,0.049671,0.066242,0.0088833,-0.008715,-0.061452,0.1374,0.19544,0.45211,-0.025217,-0.037855,-0.25223,-0.2425,0.006299,-0.10813,-0.01207,-0.023197
-8.9581e-005,-0.013555,-0.012246,-0.021874,-0.0061462,-0.010983,-0.011416,-0.020449,0.058365,0.046154,0.0099483,-0.018397,-0.074231,0.13809,0.21608,0.41307,-0.037325,-0.042891,-0.24492,-0.26618,0.0024982,-0.089384,-0.014666,-0.020802
-0.0021798,-0.018247,-0.0076907,-0.02752,-0.0075997,-0.0069316,-0.0071721,-0.020087,0.063714,0.027785,0.0055714,-0.02512,-0.093294,0.14716,0.23019,0.36653,-0.040683,-0.044154,-0.22954,-0.27558,-0.0011645,-0.075657,-0.017124,-0.01755
-0.0054788,-0.019908,-0.0052427,-0.029685,-0.0078874,-0.0061125,-0.0055698,-0.022057,0.064648,0.017363,-0.0019939,-0.024438,-0.11287,0.16669,0.23782,0.3175,-0.033228,-0.037426,-0.20589,-0.27486,0.00087321,-0.066483,-0.017707,-0.015793
-0.0080258,-0.016758,-0.0080071,-0.024805,-0.0062383,-0.0088769,-0.005166,-0.025048,0.063639,0.014063,-0.0082513,-0.017548,-0.13112,0.18784,0.2381,0.26498,-0.018659,-0.02367,-0.17216,-0.27515,0.0093871,-0.057083,-0.015662,-0.018643
-0.0080775,-0.0094767,-0.015271,-0.014927,-0.0019877,-0.012479,-0.0046064,-0.027189,0.064782,0.011503,-0.010123,-0.010646,-0.14994,0.19924,0.22887,0.20253,-0.0038936,-0.0084291,-0.12583,-0.28311,0.020596,-0.041272,-0.012037,-0.026907
-0.0056855,-0.0018107,-0.022907,-0.0067943,0.0043685,-0.014143,-0.0042305,-0.02816,0.070329,0.0032361,-0.0082247,-0.010036,-0.17201,0.1957,0.20854,0.12474,0.0051871,0.0023254,-0.066276,-0.29225,0.029705,-0.015293,-0.0088975,-0.037297
-0.0028409,0.0012366,-0.026283,-0.0066505,0.010522,-0.013801,-0.0053216,-0.029531,0.07867,-0.012399,-0.005804,-0.017147,-0.19785,0.17973,0.17807,0.034177,0.0068981,0.0064726,0.0022191,-0.28485,0.034492,0.019844,-0.0075694,-0.04406
-0.0018634,-0.0030559,-0.023566,-0.015033,0.013179,-0.013814,-0.0080718,-0.032921,0.085673,-0.031753,-0.005488,-0.02764,-0.22497,0.15525,0.14129,-0.057331,0.0040667,0.0067133,0.070013,-0.24371,0.036226,0.058798,-0.0074611,-0.043176
-0.0034103,-0.012529,-0.017052,-0.026132,0.010235,-0.016146,-0.010632,-0.037831,0.088316,-0.049388,-0.0069498,-0.035172,-0.24962,0.11968,0.10306,-0.13433,0.0016458,0.0077388,0.12547,-0.16411,0.037899,0.094596,-0.0065768,-0.035708
-0.005972,-0.021057,-0.011606,-0.032453,0.0026867,-0.020021,-0.010437,-0.041444,0.087423,-0.062084,-0.0076091,-0.036382,-0.26941,0.063074,0.067103,-0.18552,0.0033226,0.012229,0.16077,-0.056796,0.04181,0.12186,-0.0033136,-0.027229
-0.0073785,-0.022872,-0.011272,-0.030968,-0.0055175,-0.022519,-0.0066286,-0.040751,0.087026,-0.069989,-0.0054928,-0.03293,-0.28481,-0.0238,0.035235,-0.20749,0.0092413,0.018983,0.17632,0.059677,0.04843,0.13887,0.0020446,-0.023585
-0.0068752,-0.017093,-0.016354,-0.025551,-0.010007,-0.021525,-0.0011993,-0.03513,0.090819,-0.074733,-0.0013615,-0.029332,-0.29863,-0.13858,0.008352,-0.20247,0.01617,0.024348,0.18055,0.17041,0.056731,0.14759,0.007472,-0.026442
-0.0057064,-0.0086066,-0.023046,-0.023665,-0.009059,-0.018009,0.0023929,-0.027034,0.098778,-0.0771,0.0019294,-0.028937,-0.31407,-0.26362,-0.012378,-0.17388,0.019877,0.025343,0.18493,0.27026,0.06491,0.15218,0.010848,-0.032358
-0.0056008,-0.0042574,-0.025997,-0.030052,-0.0046572,-0.015257,0.0020473,-0.020226,0.1069,-0.076757,0.0020686,-0.031639,-0.33243,-0.37399,-0.025564,-0.12479,0.018042,0.021831,0.19721,0.36102,0.070742,0.15676,0.011618,-0.035978
-0.0067116,-0.0073771,-0.022158,-0.042665,-0.00057817,-0.015744,-0.0011933,-0.017182,0.11028,-0.073945,-0.00073571,-0.034836,-0.35187,-0.45235,-0.030946,-0.060549,0.011726,0.016381,0.21765,0.44387,0.071882,0.16384,0.011021,-0.034391
-0.0072309,-0.01524,-0.013156,-0.054045,0.00084757,-0.018674,-0.0040225,-0.017876,0.10682,-0.070884,-0.0042996,-0.036207,-0.36759,-0.49934,-0.03064,0.0082781,0.0045101,0.012512,0.24042,0.51482,0.066758,0.1736,0.010768,-0.028992
-0.0052627,-0.021595,-0.0043522,-0.056883,0.00044669,-0.020616,-0.0037087,-0.020693,0.098537,-0.070996,-0.006791,-0.035571,-0.37368,-0.53159,-0.028808,0.067197,0.00019186,0.012932,0.25899,0.56745,0.055854,0.18405,0.011526,-0.023735
-0.0011496,-0.021984,-0.0011261,-0.049288,0.00097186,-0.018646,-0.00043923,-0.02418,0.089527,-0.076433,-0.0083972,-0.034428,-0.36607,-0.568,-0.029674,0.10376,0.00079679,0.018698,0.27132,0.60026,0.042123,0.1915,0.01263,-0.021872
0.0022332,-0.017192,-0.0050682,-0.035833,0.0042511,-0.013071,0.0028845,-0.027825,0.082634,-0.086172,-0.010729,-0.034104,-0.34538,-0.61397,-0.035314,0.11374,0.0061039,0.02908,0.28082,0.62115,0.029611,0.19145,0.01318,-0.024134
0.0018324,-0.012022,-0.012939,-0.024022,0.0094489,-0.0072717,0.0032389,-0.031307,0.077782,-0.096481,-0.01477,-0.034575,-0.31774,-0.6538,-0.044874,0.10241,0.014416,0.041603,0.29239,0.64383,0.020896,0.17985,0.013208,-0.029295
-0.0026521,-0.010834,-0.019149,-0.019213,0.013956,-0.0049363,0.00019958,-0.033473,0.073128,-0.10335,-0.019659,-0.03508,-0.2923,-0.65623,-0.055723,0.07987,0.023503,0.05236,0.30665,0.67778,0.015386,0.15506,0.013557,-0.035706
-0.0081183,-0.014021,-0.01982,-0.021727,0.015884,-0.0072162,-0.0035813,-0.032546,0.067545,-0.1049,-0.023604,-0.035669,-0.27598,-0.58969,-0.06557,0.054471,0.031078,0.057182,0.31738,0.71962,0.010103,0.11977,0.014489,-0.041991
-0.010517,-0.018364,-0.015344,-0.027762,0.01579,-0.012132,-0.0045458,-0.027696,0.061883,-0.10192,-0.025891,-0.037854,-0.26835,-0.43911,-0.073949,0.0291,0.035123,0.053659,0.31465,0.75355,0.0025229,0.081629,0.014617,-0.046703
-0.0082614,-0.02046,-0.0096282,-0.032745,0.016168,-0.016357,-0.0011612,-0.020419,0.057865,-0.096596,-0.02772,-0.043358,-0.26039,-0.21589,-0.082109,0.0023317,0.034503,0.042799,0.29168,0.76166,-0.006941,0.051535,0.011645,-0.048221
-0.0034516,-0.019765,-0.0068383,-0.034358,0.01938,-0.017565,0.0048649,-0.01404,0.055963,-0.090684,-0.03082,-0.05195,-0.23855,0.043421,-0.091569,-0.027802,0.029626,0.028744,0.25022,0.73639,-0.015076,0.039582,0.0046334,-0.045679
0.00017905,-0.018539,-0.0082384,-0.033286,0.025823,-0.01551,0.0099861,-0.011402,0.054593,-0.084515,-0.035213,-0.060501,-0.19224,0.28898,-0.1025,-0.060867,0.022251,0.016229,0.20003,0.68564,-0.018603,0.050351,-0.0043322,-0.040115
0.00062071,-0.019135,-0.011477,-0.031757,0.033584,-0.011486,0.011497,-0.012624,0.051653,-0.07731,-0.038584,-0.064573,-0.11981,0.4747,-0.11305,-0.09361,0.014202,0.0074986,0.15291,0.62653,-0.017022,0.080238,-0.011034,-0.034261
-0.00090567,-0.021463,-0.012675,-0.03146,0.039501,-0.007149,0.009232,-0.015008,0.047048,-0.068277,-0.038241,-0.061622,-0.029239,0.5726,-0.12005,-0.12135,0.0059984,0.0012138,0.11588,0.57331,-0.012857,0.1188,-0.012289,-0.030719
-0.0015604,-0.023038,-0.0095883,-0.03244,0.040726,-0.0037178,0.0051021,-0.015312,0.043772,-0.057695,-0.033951,-0.0532,0.066776,0.57837,-0.12051,-0.13967,-0.0030958,-0.0056221,0.088697,0.52923,-0.0089476,0.15387,-0.0087636,-0.030057
0.0001221,-0.021381,-0.0034472,-0.033445,0.036024,-0.0018036,0.0012042,-0.012498,0.046308,-0.047247,-0.028848,-0.044119,0.15732,0.5069,-0.11309,-0.14568,-0.013389,-0.014345,0.066947,0.48781,-0.0053731,0.1775,-0.0047799,-0.030708
0.0028078,-0.016417,0.0018779,-0.033061,0.026435,-0.0015026,-0.001734,-0.0085804,0.057482,-0.039291,-0.027217,-0.038958,0.23686,0.3825,-0.098758,-0.13915,-0.023101,-0.022935,0.04695,0.44103,0.00085327,0.18902,-0.0049697,-0.030763
0.0037726,-0.010663,0.002726,-0.03067,0.014994,-0.002506,-0.0044214,-0.0068687,0.076283,-0.035365,-0.030905,-0.038671,0.30405,0.23062,-0.080733,-0.12346,-0.02877,-0.027591,0.028106,0.387,0.012645,0.1932,-0.01048,-0.02981
0.0016199,-0.0071763,-0.0016331,-0.026702,0.0053644,-0.0042958,-0.0078733,-0.0091411,0.098276,-0.034904,-0.037546,-0.04007,0.35811,0.074561,-0.063763,-0.10567,-0.027908,-0.026206,0.011224,0.33175,0.029014,0.19508,-0.017972,-0.028982
-0.0023681,-0.0071766,-0.0084717,-0.022286,-0.00015854,-0.0064544,-0.012289,-0.014154,0.11808,-0.035348,-0.042286,-0.038648,0.39659,-0.065197,-0.053052,-0.095089,-0.021627,-0.0205,-0.0043004,0.28653,0.044327,0.19545,-0.02228,-0.029282
-0.0054192,-0.0093821,-0.013701,-0.01866,-0.0020154,-0.0088376,-0.016857,-0.018647,0.13187,-0.033932,-0.041629,-0.032375,0.41678,-0.17327,-0.052732,-0.10034,-0.014492,-0.014726,-0.020778,0.26442,0.051891,0.19047,-0.020471,-0.030091
-0.0056817,-0.011412,-0.01499,-0.016662,-0.0028985,-0.01137,-0.020431,-0.01986,0.13826,-0.029956,-0.03617,-0.023352,0.41891,-0.24451,-0.064157,-0.12644,-0.011243,-0.012047,-0.039393,0.27806,0.049076,0.17527,-0.013936,-0.02953
-0.00354,-0.011837,-0.013448,-0.016494,-0.0054935,-0.013668,-0.022351,-0.017414,0.13758,-0.02557,-0.029988,-0.016009,0.40775,-0.28727,-0.084841,-0.17355,-0.013051,-0.011943,-0.057395,0.33615,0.039545,0.14838,-0.0069933,-0.02631
-0.00083618,-0.011118,-0.012503,-0.017809,-0.010167,-0.015025,-0.022779,-0.013167,0.13088,-0.02409,-0.02734,-0.013434,0.3905,-0.31899,-0.1092,-0.23811,-0.016709,-0.011081,-0.068828,0.43688,0.030474,0.11314,-0.0034807,-0.021126
0.00090938,-0.010863,-0.014853,-0.020032,-0.014622,-0.014968,-0.022494,-0.0094573,0.11962,-0.02704,-0.029454,-0.014812,0.37222,-0.35415,-0.1314,-0.31567,-0.017594,-0.0068613,-0.068882,0.56137,0.027037,0.075126,-0.0043398,-0.016133
0.0014539,-0.012267,-0.020037,-0.022638,-0.01594,-0.013887,-0.022439,-0.0073927,0.10583,-0.032467,-0.03389,-0.01596,0.35257,-0.39319,-0.14895,-0.40312,-0.013792,-0.00030703,-0.058109,0.6742,0.028863,0.037645,-0.00792,-0.013024
0.0013001,-0.015095,-0.024701,-0.025153,-0.013231,-0.012955,-0.023328,-0.0064885,0.091827,-0.036161,-0.036698,-0.012399,0.32648,-0.42227,-0.16438,-0.49867,-0.0076665,0.0044164,-0.0426,0.73504,0.031349,-0.00075862,-0.012153,-0.011621
0.00064953,-0.01785,-0.025458,-0.026956,-0.0085051,-0.013238,-0.025364,-0.0056502,0.079079,-0.034855,-0.035427,-0.0026189,0.28815,-0.42656,-0.1835,-0.59903,-0.0035702,0.0034666,-0.029925,0.71653,0.030345,-0.044911,-0.016222,-0.010298
-0.00082748,-0.01876,-0.021972,-0.027256,-0.0049905,-0.014806,-0.028112,-0.0043935,0.06736,-0.02868,-0.030719,0.010794,0.23531,-0.40753,-0.21057,-0.69617,-0.003922,-0.0033529,-0.024625,0.61667,0.025809,-0.098683,-0.02024,-0.0076566
-0.0032097,-0.016802,-0.017582,-0.0255,-0.0045308,-0.016859,-0.030624,-0.0032727,0.055149,-0.020766,-0.02561,0.02284,0.17029,-0.39005,-0.24391,-0.77659,-0.0072769,-0.012355,-0.027255,0.45617,0.021245,-0.16099,-0.023729,-0.0037919
-0.0056041,-0.012226,-0.016789,-0.021953,-0.0064643,-0.018862,-0.031889,-0.003378,0.041187,-0.014463,-0.023392,0.029387,0.097685,-0.41179,-0.27515,-0.82531,-0.0099981,-0.018969,-0.037253,0.2631,0.019759,-0.22504,-0.024967,-6.9551e-005
-0.00655,-0.006485,-0.021594,-0.017794,-0.0088384,-0.021489,-0.031434,-0.0055054,0.02559,-0.010704,-0.025625,0.02986,0.020558,-0.50104,-0.29313,-0.83307,-0.009776,-0.02133,-0.055923,0.056991,0.020707,-0.28145,-0.022325,0.0020949
-0.0053606,-0.0016682,-0.029774,-0.014393,-0.010483,-0.026114,-0.029674,-0.0096099,0.0091635,-0.0077242,-0.031415,0.027556,-0.061504,-0.65787,-0.29034,-0.80238,-0.0076792,-0.021467,-0.085772,-0.15485,0.020161,-0.32298,-0.016406,0.0021787
-0.0030781,0.00046384,-0.036626,-0.012251,-0.011758,-0.033007,-0.027758,-0.014684,-0.0084686,-0.0030506,-0.0381,0.027255,-0.15117,-0.8507,-0.26761,-0.7477,-0.0069704,-0.023296,-0.12627,-0.36713,0.014718,-0.34778,-0.010597,0.0005591
-0.0019196,-0.00051308,-0.038717,-0.010603,-0.013372,-0.039965,-0.026982,-0.018926,-0.029676,0.0043729,-0.042716,0.031627,-0.25003,-1.0296,-0.23412,-0.68877,-0.0099485,-0.029299,-0.17017,-0.5633,0.005031,-0.35875,-0.0088899,-0.0019688
-0.0034859,-0.0032799,-0.036424,-0.008214,-0.014814,-0.04315,-0.02819,-0.020201,-0.056995,0.01388,-0.043441,0.038918,-0.35594,-1.147,-0.2026,-0.64041,-0.015754,-0.038631,-0.20472,-0.71306,-0.0042427,-0.35968,-0.012579,-0.0044211
-0.0072615,-0.0055263,-0.03308,-0.0048017,-0.014394,-0.040015,-0.031471,-0.01693,-0.089795,0.024519,-0.040326,0.043808,-0.46276,-1.1755,-0.18248,-0.6052,-0.021022,-0.047967,-0.21784,-0.78512,-0.008064,-0.35105,-0.018894,-0.0055442
-0.010837,-0.0056132,-0.031606,-0.0017415,-0.011045,-0.031962,-0.03616,-0.0092463,-0.12262,0.036342,-0.035022,0.041149,-0.5626,-1.1153,-0.175,-0.57331,-0.022628,-0.054088,-0.20516,-0.76612,-0.0050288,-0.32887,-0.023146,-0.004021
-0.011841,-0.0039356,-0.031737,-0.0012037,-0.0060163,-0.024091,-0.040978,0.00039168,-0.14741,0.04988,-0.029672,0.029994,-0.64833,-0.99142,-0.17289,-0.52944,-0.020069,-0.055995,-0.17243,-0.67068,0.0016101,-0.28783,-0.022722,0.00071212
-0.010014,-0.0026946,-0.030454,-0.0042157,-0.0024288,-0.021669,-0.044272,0.0079889,-0.15843,0.064213,-0.025649,0.01482,-0.71477,-0.84234,-0.1649,-0.46253,-0.015523,-0.055032,-0.13211,-0.53439,0.006588,-0.22673,-0.01933,0.0076312
-0.0075939,-0.0040006,-0.025254,-0.0092326,-0.0027664,-0.025949,-0.044495,0.010236,-0.15612,0.075746,-0.022964,0.0028313,-0.7586,-0.70395,-0.14259,-0.37237,-0.011843,-0.053285,-0.097007,-0.39548,0.006591,-0.15217,-0.017336,0.014267
-0.0075144,-0.0078289,-0.017267,-0.012603,-0.0065588,-0.032981,-0.040985,0.0068044,-0.14668,0.079412,-0.020724,-0.00071398,-0.7783,-0.5957,-0.10534,-0.26971,-0.010374,-0.051812,-0.076031,-0.27911,0.0024244,-0.077184,-0.019661,0.018091
-0.010816,-0.011747,-0.011224,-0.010907,-0.010495,-0.036724,-0.034649,0.00085848,-0.1377,0.071769,-0.018258,0.0043527,-0.77497,-0.5157,-0.060616,-0.1704,-0.01035,-0.050119,-0.074006,-0.19491,-0.0019177,-0.015271,-0.025062,0.018187
-0.015505,-0.012888,-0.011983,-0.003593,-0.010966,-0.034063,-0.027903,-0.0029906,-0.13337,0.053569,-0.015932,0.013686,-0.75309,-0.44833,-0.019371,-0.087125,-0.0099782,-0.047036,-0.093415,-0.14652,-0.0020777,0.026488,-0.029328,0.015817
-0.018009,-0.010521,-0.020406,0.0061043,-0.0067952,-0.027421,-0.02354,-0.0019542,-0.13264,0.02964,-0.014935,0.02185,-0.7191,-0.38002,0.010635,-0.023551,-0.0079262,-0.041964,-0.13423,-0.14177,0.0042324,0.050606,-0.029178,0.013351
-0.016138,-0.0068197,-0.032089,0.012945,0.00013866,-0.022593,-0.023055,0.0029889,-0.13131,0.0062035,-0.016117,0.02566,-0.67783,-0.31201,0.029014,0.026173,-0.0038772,-0.035371,-0.1908,-0.19314,0.016607,0.06681,-0.025135,0.012438
-0.011073,-0.0049642,-0.040199,0.013182,0.0066515,-0.023584,-0.025592,0.0081386,-0.12581,-0.012171,-0.018855,0.025166,-0.62938,-0.2605,0.041629,0.07264,0.0019261,-0.028305,-0.24914,-0.30787,0.032871,0.086085,-0.020706,0.012941
-0.0065615,-0.0062149,-0.040308,0.007368,0.01059,-0.028986,-0.028432,0.010292,-0.11573,-0.023724,-0.020968,0.022336,-0.56965,-0.24477,0.054999,0.12424,0.0091996,-0.021648,-0.28956,-0.47694,0.050332,0.11527,-0.018863,0.013421
-0.0059115,-0.008691,-0.033447,0.00027557,0.011841,-0.033146,-0.028816,0.0094025,-0.10362,-0.028456,-0.019966,0.019275,-0.49509,-0.27374,0.07049,0.18224,0.017361,-0.015911,-0.29567,-0.67374,0.066438,0.15522,-0.019341,0.012603
-0.0093168,-0.0091015,-0.025015,-0.0023328,0.011656,-0.031108,-0.025812,0.0083895,-0.092854,-0.02649,-0.014804,0.017419,-0.40783,-0.34221,0.082832,0.24094,0.024762,-0.011614,-0.26468,-0.86525,0.078875,0.20266,-0.019316,0.010485
-0.013804,-0.005932,-0.020518,0.0021204,0.011372,-0.022923,-0.020834,0.010309,-0.085369,-0.017629,-0.0068554,0.017531,-0.31626,-0.43831,0.08431,0.2924,0.028554,-0.0095698,-0.21063,-1.0282,0.085742,0.2533,-0.016592,0.0082149
-0.015785,-0.0011736,-0.021516,0.011095,0.011689,-0.013525,-0.016447,0.015478,-0.080773,-0.0024423,0.00071035,0.019558,-0.22989,-0.55323,0.071394,0.33255,0.025957,-0.010499,-0.15665,-1.1587,0.08617,0.30372,-0.012021,0.0070342
-0.013924,0.0010561,-0.024894,0.018912,0.012656,-0.0084278,-0.014463,0.021138,-0.076956,0.016457,0.0047943,0.02211,-0.15215,-0.6826,0.048482,0.36409,0.016359,-0.01425,-0.12056,-1.2681,0.081056,0.35108,-0.0087458,0.0073763
-0.0098714,-0.0021424,-0.025761,0.021212,0.013886,-0.0091774,-0.014787,0.023922,-0.071602,0.034457,0.004216,0.022513,-0.077444,-0.81807,0.0256,0.39409,0.0024747,-0.019557,-0.10455,-1.3692,0.073137,0.39177,-0.0090271,0.0088921
-0.0064175,-0.010014,-0.021496,0.018296,0.014686,-0.012498,-0.015831,0.022803,-0.06359,0.046661,0.00029067,0.018285,0.0051306,-0.93858,0.011864,0.42793,-0.010849,-0.024906,-0.096898,-1.4632,0.065959,0.42084,-0.011784,0.011186
-0.0049381,-0.018633,-0.013746,0.014551,0.0143,-0.01353,-0.015955,0.019852,-0.053573,0.050205,-0.0041977,0.0093543,0.10421,-1.0124,0.010029,0.46451,-0.019794,-0.029901,-0.084543,-1.5361,0.06212,0.43334,-0.013285,0.014329
-0.0044793,-0.023778,-0.0069951,0.014497,0.012357,-0.0099424,-0.014702,0.01824,-0.043487,0.045614,-0.0068462,-0.00096122,0.22066,-1.0112,0.016444,0.49656,-0.024439,-0.035807,-0.066054,-1.5679,0.061913,0.42712,-0.010455,0.018501
-0.0031427,-0.023743,-0.0050682,0.018918,0.0091167,-0.003295,-0.012863,0.019456,-0.035334,0.036327,-0.0070135,-0.0076779,0.34769,-0.926,0.025947,0.51612,-0.028893,-0.044487,-0.053992,-1.5476,0.063322,0.40513,-0.0038441,0.023118
-0.00025365,-0.020006,-0.0083159,0.02449,0.0051148,0.0030673,-0.011476,0.022303,-0.029971,0.026649,-0.0058704,-0.0077921,0.47516,-0.77236,0.036925,0.52038,-0.038244,-0.056473,-0.064446,-1.4834,0.063395,0.37525,0.0024275,0.026461
0.0028437,-0.015651,-0.013481,0.027057,0.00046178,0.0071518,-0.010744,0.02439,-0.026639,0.019318,-0.0052415,-0.0030817,0.59362,-0.57995,0.051823,0.51272,-0.05453,-0.069918,-0.10215,-1.3995,0.059987,0.34703,0.0037554,0.026479
0.0041073,-0.013175,-0.016113,0.025395,-0.0052994,0.0095315,-0.0098382,0.024443,-0.023488,0.014086,-0.0061699,0.00048516,0.69542,-0.37549,0.07272,0.49751,-0.074905,-0.081511,-0.15341,-1.3214,0.05267,0.32721,-0.0014053,0.022264
0.0029028,-0.013351,-0.013644,0.021961,-0.012316,0.011949,-0.0077534,0.023224,-0.018676,0.008157,-0.0082163,-0.0032466,0.77357,-0.17195,0.096323,0.47343,-0.093491,-0.088701,-0.19296,-1.2585,0.042362,0.31686,-0.010446,0.014885
0.00079915,-0.015496,-0.0069937,0.020166,-0.01929,0.015181,-0.0044594,0.022379,-0.011326,-0.0017568,-0.0098642,-0.01604,0.82137,0.029019,0.11343,0.43141,-0.1054,-0.09132,-0.19996,-1.1969,0.030317,0.31226,-0.01873,0.0067145
0.00020655,-0.018356,0.00022885,0.021052,-0.023494,0.018411,-0.0013011,0.022675,-0.001868,-0.017058,-0.0095977,-0.033727,0.83462,0.22608,0.11415,0.36029,-0.10975,-0.091208,-0.17158,-1.1086,0.017451,0.30858,-0.023052,-0.00026021
0.0020879,-0.020736,0.0042104,0.022684,-0.022503,0.020524,-0.00019358,0.023451,0.0081749,-0.036213,-0.0068363,-0.049173,0.81479,0.41005,0.095026,0.25618,-0.10947,-0.090325,-0.12499,-0.97444,0.0044261,0.30313,-0.023613,-0.005626
0.0049319,-0.0218,0.0034219,0.022604,-0.01641,0.021725,-0.0021481,0.023666,0.016604,-0.055822,-0.0021831,-0.057651,0.77024,0.56633,0.062807,0.12858,-0.10853,-0.089204,-0.086637,-0.80422,-0.0079815,0.29562,-0.023116,-0.010108
0.0060695,-0.021333,-0.00047691,0.020539,-0.008477,0.023676,-0.0062616,0.023197,0.020986,-0.073009,0.002993,-0.060453,0.71357,0.68574,0.031784,-0.0014463,-0.10908,-0.087162,-0.076638,-0.63825,-0.018917,0.28549,-0.024026,-0.013923
0.0042361,-0.019963,-0.0038499,0.018405,-0.0032546,0.027952,-0.010014,0.022877,0.019221,-0.087265,0.007247,-0.063763,0.6564,0.77398,0.016713,-0.10948,-0.11065,-0.083889,-0.097963,-0.52635,-0.028057,0.26958,-0.026436,-0.015601
0.0010268,-0.018864,-0.0036079,0.017667,-0.0033817,0.034323,-0.010764,0.023255,0.010343,-0.10022,0.0096383,-0.073523,0.60473,0.85112,0.025773,-0.17684,-0.11143,-0.080672,-0.13657,-0.49559,-0.036252,0.24297,-0.028226,-0.012709
-0.0002264,-0.018802,0.00062229,0.017072,-0.0075749,0.040572,-0.0074364,0.023511,-0.0047641,-0.11356,0.010006,-0.090337,0.5576,0.94045,0.057422,-0.1956,-0.11022,-0.079895,-0.17109,-0.52867,-0.045507,0.20293,-0.027173,-0.0041718
0.0026599,-0.019236,0.0061912,0.013506,-0.011496,0.044131,-0.0012626,0.021872,-0.023342,-0.12688,0.0088582,-0.10849,0.50933,1.0546,0.10205,-0.1689,-0.10729,-0.083213,-0.18527,-0.56872,-0.058131,0.15212,-0.023061,0.0077083
0.0085463,-0.018565,0.0092884,0.0054209,-0.010915,0.044177,0.0049109,0.01728,-0.041815,-0.13759,0.0068817,-0.1199,0.45344,1.1885,0.14669,-0.1087,-0.10385,-0.090135,-0.17527,-0.54912,-0.075512,0.097427,-0.017944,0.017524
0.013498,-0.015676,0.007738,-0.0046367,-0.0048214,0.042384,0.00826,0.01063,-0.057536,-0.14301,0.0043181,-0.11982,0.38611,1.3236,0.18008,-0.032993,-0.10097,-0.098346,-0.14805,-0.43,-0.097223,0.045005,-0.014428,0.019613
0.01375,-0.011468,0.0026914,-0.011291,0.0037734,0.041645,0.0075231,0.0042264,-0.070135,-0.14331,0.00072128,-0.10998,0.30799,1.4404,0.19615,0.03784,-0.09886,-0.10545,-0.11289,-0.21954,-0.12096,-0.004002,-0.013499,0.01166
0.0087437,-0.0086659,-0.0021475,-0.010695,0.0098001,0.043761,0.0035537,-0.00018705,-0.081466,-0.14264,-0.0044933,-0.096912,0.22418,1.5292,0.19493,0.086053,-0.096747,-0.11045,-0.072717,0.031319,-0.14339,-0.052337,-0.0138,-0.0035516
0.0017479,-0.009658,-0.0032972,-0.0041117,0.0094044,0.047973,-0.0013383,-0.0029743,-0.094081,-0.14731,-0.010969,-0.087277,0.14286,1.5944,0.18117,0.10211,-0.093327,-0.1137,-0.021713,0.25498,-0.16165,-0.10015,-0.012969,-0.019686
-0.0025033,-0.014129,-0.00016127,0.0026566,0.0023768,0.051548,-0.0047653,-0.0061816,-0.1093,-0.16179,-0.016788,-0.083947,0.072529,1.6481,0.16156,0.087768,-0.087379,-0.11549,0.048955,0.39784,-0.17466,-0.1388,-0.0098405,-0.030785
-0.0013011,-0.018827,0.0045994,0.0036861,-0.007615,0.051965,-0.0055163,-0.011479,-0.12622,-0.18531,-0.019229,-0.085324,0.018519,1.6989,0.14184,0.054323,-0.078333,-0.11497,0.14124,0.43971,-0.1835,-0.15156,-0.0055936,-0.034908
0.0041352,-0.02002,0.0073892,-0.002557,-0.014906,0.049009,-0.0039922,-0.018408,-0.1424,-0.21151,-0.01668,-0.087596,-0.019578,1.7434,0.1248,0.016978,-0.066516,-0.11037,0.24354,0.39565,-0.19024,-0.12286,-0.0028121,-0.034929
0.0097625,-0.016645,0.0068166,-0.012379,-0.014672,0.045134,-0.0016635,-0.02461,-0.15525,-0.23158,-0.010188,-0.087574,-0.047519,1.7664,0.10979,-0.011091,-0.052882,-0.10049,0.33275,0.30397,-0.19563,-0.050259,-0.0032735,-0.035907
0.011853,-0.011321,0.0049347,-0.020153,-0.0053048,0.043808,6.0068e-006,-0.027781,-0.163,-0.23907,-0.0030535,-0.084132,-0.072689,1.7494,0.09378,-0.02156,-0.038399,-0.085754,0.38464,0.20874,-0.19755,0.049847,-0.0063968,-0.040934
0.0096558,-0.0082324,0.0053759,-0.022723,0.010724,0.047079,0.00042199,-0.027471,-0.16431,-0.23293,0.0015469,-0.077993,-0.09929,1.6824,0.073316,-0.010511,-0.023679,-0.068016,0.38638,0.1444,-0.19148,0.14806,-0.0097592,-0.048494
0.0055587,-0.0096859,0.0098872,-0.021265,0.027931,0.054098,-1.8172e-005,-0.025121,-0.15744,-0.21683,0.0030241,-0.070761,-0.12597,1.5718,0.046845,0.022605,-0.0092695,-0.049336,0.34295,0.12685,-0.17369,0.21645,-0.011292,-0.053314
0.0028089,-0.014347,0.01634,-0.01955,0.040417,0.061564,-0.00048756,-0.022567,-0.14037,-0.19524,0.0036753,-0.063981,-0.14763,1.4372,0.016163,0.074266,0.0037202,-0.031035,0.27324,0.15273,-0.14472,0.24235,-0.01125,-0.050113
0.0027961,-0.018555,0.020156,-0.020596,0.04486,0.065684,-0.00042913,-0.0207,-0.11238,-0.1695,0.0063935,-0.058421,-0.15966,1.301,-0.01379,0.13522,0.013638,-0.013789,0.19862,0.20597,-0.11056,0.23212,-0.012111,-0.037541
0.0041668,-0.019381,0.018108,-0.024671,0.042288,0.064373,0.00015515,-0.019512,-0.076103,-0.13702,0.011789,-0.053619,-0.16073,1.1768,-0.036916,0.19106,0.019459,0.0016825,0.13206,0.26842,-0.079894,0.20282,-0.016294,-0.019514
0.0043878,-0.01671,0.011184,-0.029812,0.037429,0.05841,0.00092516,-0.018987,-0.037748,-0.094574,0.017409,-0.048115,-0.15204,1.0647,-0.048701,0.22708,0.02225,0.014343,0.075081,0.32865,-0.058904,0.16796,-0.023494,-0.0031166
0.0022402,-0.01279,0.0039088,-0.033676,0.035743,0.050958,0.0015887,-0.01938,-0.0046747,-0.042938,0.019883,-0.040527,-0.13442,0.9561,-0.048084,0.2353,0.02518,0.023313,0.023636,0.38419,-0.047445,0.12753,-0.02998,0.0053113
-0.0010596,-0.010056,0.00059634,-0.034841,0.039818,0.045748,0.0020744,-0.020398,0.018224,0.01106,0.018084,-0.03086,-0.10691,0.84215,-0.037414,0.21851,0.031325,0.02843,-0.023276,0.43646,-0.039361,0.069541,-0.030743,0.003254
-0.0031046,-0.0093529,0.0018668,-0.032883,0.047545,0.044863,0.0024443,-0.020536,0.030646,0.057272,0.014403,-0.020755,-0.068798,0.72128,-0.020823,0.18772,0.040704,0.030125,-0.060157,0.48277,-0.027009,-0.018382,-0.023012,-0.0074788
-0.0026561,-0.0099246,0.0045668,-0.028122,0.053554,0.0474,0.002784,-0.01802,0.035939,0.088082,0.012953,-0.012154,-0.02331,0.6,-0.0023529,0.15443,0.049359,0.028802,-0.079708,0.5119,-0.0067669,-0.13627,-0.0084308,-0.02264
-0.00079145,-0.010724,0.0051294,-0.021895,0.053143,0.049924,0.0032372,-0.012987,0.038136,0.10298,0.016276,-0.0054071,0.020994,0.48925,0.015022,0.12385,0.051929,0.024586,-0.081124,0.50692,0.018328,-0.2674,0.0078726,-0.038224
0.00031363,-0.011508,0.0031769,-0.016921,0.045973,0.048715,0.0040713,-0.0085352,0.0396,0.10824,0.023428,0.0013243,0.053508,0.39971,0.029354,0.094431,0.046015,0.017935,-0.074074,0.45346,0.04064,-0.38541,0.020636,-0.052235
-0.00025176,-0.012726,0.0018986,-0.016477,0.036658,0.042457,0.0055492,-0.0088056,0.04095,0.11197,0.030933,0.010539,0.067609,0.33876,0.039396,0.063582,0.034559,0.010422,-0.074247,0.34813,0.053183,-0.46771,0.027632,-0.064759
-0.0010705,-0.01454,0.0047765,-0.022138,0.031615,0.033435,0.0076205,-0.01518,0.0425,0.11839,0.035485,0.022984,0.064653,0.30907,0.044599,0.03379,0.023796,0.0044843,-0.09406,0.202,0.054377,-0.50538,0.03033,-0.076627
0.00015059,-0.016161,0.011755,-0.031811,0.034394,0.026109,0.0097424,-0.024121,0.045094,0.12582,0.035945,0.036568,0.052365,0.30747,0.045409,0.013156,0.018236,0.0018856,-0.1365,0.036709,0.049098,-0.50389,0.031885,-0.087676
0.0039799,-0.01626,0.018583,-0.040372,0.043071,0.023867,0.01112,-0.029252,0.049328,0.12959,0.03315,0.047652,0.038606,0.32407,0.043391,0.0094331,0.016987,0.0021322,-0.19708,-0.12502,0.045369,-0.47614,0.034387,-0.095799
0.0082153,-0.014121,0.020137,-0.043215,0.051738,0.026416,0.011265,-0.026401,0.054381,0.12709,0.028248,0.053574,0.025602,0.34298,0.040917,0.022927,0.014764,0.0024902,-0.27133,-0.2695,0.049036,-0.43485,0.037623,-0.097658
0.0097018,-0.010456,0.014807,-0.040008,0.054905,0.029924,0.010401,-0.017266,0.05836,0.12056,0.021563,0.054223,0.0097555,0.34599,0.040403,0.044912,0.0067592,-6.1385e-005,-0.35984,-0.3965,0.060066,-0.38969,0.039944,-0.090943
0.0074242,-0.007099,0.005979,-0.035175,0.051315,0.029939,0.0093133,-0.0082603,0.060299,0.11552,0.013101,0.051519,-0.0123,0.31858,0.043188,0.06346,-0.0070157,-0.0064941,-0.46584,-0.51398,0.072861,-0.34868,0.040017,-0.076837
0.0037797,-0.0057375,-0.00068467,-0.034216,0.044322,0.024743,0.0087384,-0.0054355,0.061587,0.11639,0.0039039,0.047638,-0.036303,0.25549,0.048236,0.072026,-0.021819,-0.015082,-0.58731,-0.62557,0.080194,-0.31905,0.037764,-0.060661
0.0024988,-0.0066979,-0.0017161,-0.038896,0.038879,0.016453,0.0088396,-0.0099041,0.064611,0.12328,-0.0035724,0.04371,-0.048514,0.16278,0.051349,0.07375,-0.032526,-0.023041,-0.71212,-0.72009,0.077964,-0.30444,0.033963,-0.04953
0.0049864,-0.0087514,0.0018373,-0.045624,0.037818,0.0090494,0.0092323,-0.017625,0.069259,0.13224,-0.0068936,0.039876,-0.032435,0.054691,0.046123,0.078166,-0.038093,-0.028911,-0.82197,-0.77272,0.067596,-0.30041,0.029355,-0.048089
0.0086499,-0.010087,0.0059993,-0.04861,0.040335,0.0050345,0.0095054,-0.023343,0.070793,0.13852,-0.0057022,0.036072,0.020005,-0.053403,0.027334,0.093295,-0.041942,-0.033417,-0.90333,-0.75977,0.054691,-0.29366,0.02431,-0.055326
0.0091257,-0.0096757,0.0075808,-0.044978,0.04339,0.0034441,0.0097045,-0.024886,0.062128,0.13966,-0.0022757,0.032417,0.10142,-0.15275,-0.0044882,0.11949,-0.048033,-0.038,-0.95627,-0.67705,0.045085,-0.26814,0.019176,-0.065127
0.0045633,-0.0079645,0.0065795,-0.037208,0.044359,0.00059736,0.010297,-0.02418,0.039611,0.13616,0.00027556,0.028863,0.19226,-0.24523,-0.040502,0.14935,-0.056489,-0.042543,-0.9933,-0.54675,0.04101,-0.21474,0.014545,-0.070555
-0.0021077,-0.0064245,0.005386,-0.030808,0.042686,-0.0072425,0.011646,-0.024702,0.0075435,0.12978,0.00067295,0.024769,0.27247,-0.34097,-0.066018,0.17291,-0.063026,-0.044686,-1.0286,-0.40589,0.03981,-0.13752,0.010883,-0.068709
-0.0053807,-0.0063719,0.005994,-0.029511,0.039578,-0.021403,0.013492,-0.028197,-0.022933,0.12152,0.00042429,0.019166,0.33262,-0.45045,-0.067828,0.18382,-0.062763,-0.041676,-1.0664,-0.28444,0.035896,-0.051359,0.0078887,-0.062425
-0.0021184,-0.0080096,0.0080712,-0.032451,0.036584,-0.040104,0.014924,-0.033549,-0.040334,0.11126,0.0019832,0.0116,0.37599,-0.57586,-0.042221,0.18224,-0.054765,-0.033148,-1.0985,-0.19078,0.024579,0.027235,0.004433,-0.057537
0.005285,-0.010392,0.0095921,-0.035649,0.034441,-0.059586,0.014904,-0.03823,-0.039746,0.09894,0.0057981,0.002751,0.41073,-0.70748,0.0019168,0.17375,-0.043037,-0.022122,-1.1123,-0.11602,0.0052754,0.089176,-0.00069058,-0.058045
0.01066,-0.012258,0.009123,-0.036057,0.032876,-0.076025,0.012931,-0.040445,-0.024812,0.086037,0.0092372,-0.0057743,0.44025,-0.82765,0.047622,0.16599,-0.033096,-0.012934,-1.1032,-0.052005,-0.017971,0.13515,-0.0079151,-0.063159
0.0093848,-0.013018,0.0073567,-0.034218,0.03104,-0.08711,0.0093556,-0.040105,-0.0037582,0.075625,0.0087124,-0.012273,0.46075,-0.91942,0.079404,0.16564,-0.027379,-0.0076902,-1.0792,-0.0060009,-0.038949,0.17031,-0.016819,-0.068401
0.0025156,-0.013101,0.0064118,-0.033219,0.027993,-0.092736,0.0051179,-0.038352,0.016634,0.071167,0.0031379,-0.015762,0.46803,-0.9733,0.091601,0.17704,-0.023713,-0.0044128,-1.0539,0.0021625,-0.05301,0.19637,-0.026743,-0.069557
-0.004066,-0.013425,0.0076647,-0.035281,0.023069,-0.094775,0.0010952,-0.036657,0.034133,0.074938,-0.0047061,-0.016392,0.46611,-0.98752,0.090287,0.20201,-0.018041,0.0012892,-1.0333,-0.041445,-0.059412,0.20732,-0.037165,-0.066067
-0.0047651,-0.014448,0.010237,-0.039353,0.016283,-0.09613,-0.0024663,-0.036299,0.049583,0.087149,-0.010538,-0.015517,0.46821,-0.962,0.088195,0.24005,-0.0086466,0.012304,-1.0076,-0.12628,-0.060585,0.19125,-0.04719,-0.061249
0.00096639,-0.015625,0.011546,-0.041902,0.0087037,-0.099376,-0.0059797,-0.038114,0.063402,0.10608,-0.01267,-0.015486,0.48761,-0.89148,0.096779,0.28854,0.0021276,0.027261,-0.95603,-0.2143,-0.058871,0.13601,-0.054793,-0.059544
0.0084277,-0.015755,0.0093817,-0.039962,0.0023197,-0.10553,-0.0099116,-0.042124,0.073823,0.12882,-0.013911,-0.018904,0.52569,-0.76337,0.12073,0.34321,0.010202,0.041425,-0.8617,-0.2557,-0.053333,0.033776,-0.057106,-0.063329
0.011989,-0.013926,0.0037323,-0.033565,-0.0009247,-0.11357,-0.013991,-0.04724,0.078206,0.1521,-0.019141,-0.027256,0.56803,-0.56263,0.15757,0.39938,0.013892,0.050535,-0.72635,-0.21297,-0.039388,-0.11805,-0.052214,-0.07177
0.0098561,-0.010251,-0.0030815,-0.025527,-0.00048362,-0.12115,-0.017003,-0.051668,0.075515,0.17292,-0.030504,-0.039567,0.59288,-0.28191,0.20109,0.45345,0.016027,0.054282,-0.57357,-0.078826,-0.012059,-0.31905,-0.041177,-0.082186
0.0050892,-0.0057711,-0.0078947,-0.019085,0.002092,-0.12604,-0.017617,-0.054073,0.067243,0.18874,-0.044616,-0.052323,0.58525,0.067716,0.24519,0.50387,0.022062,0.056391,-0.43812,0.12094,0.029167,-0.56791,-0.028308,-0.092154
0.0023507,-0.0016494,-0.0086423,-0.015669,0.0038318,-0.12763,-0.015798,-0.054597,0.055976,0.19757,-0.054592,-0.061277,0.54556,0.45044,0.28565,0.55046,0.035719,0.06125,-0.34764,0.33922,0.077455,-0.86161,-0.019062,-0.10021
0.0036922,0.0015989,-0.0055356,-0.014586,0.0020012,-0.12742,-0.013559,-0.054688,0.043282,0.19809,-0.05537,-0.064075,0.4861,0.80861,0.31969,0.59259,0.055742,0.070003,-0.3084,0.52745,0.12034,-1.1904,-0.017038,-0.10457
0.0071564,0.0041813,-0.00095654,-0.014397,-0.0045125,-0.12822,-0.014066,-0.055817,0.029067,0.19018,-0.04773,-0.061648,0.41942,1.0774,0.34481,0.62758,0.076366,0.079508,-0.3033,0.65536,0.14565,-1.5302,-0.022411,-0.10152
0.0090329,0.0064483,0.0017553,-0.014377,-0.015051,-0.13254,-0.019431,-0.058325,0.012847,0.17558,-0.037496,-0.057101,0.34891,1.2083,0.35845,0.65113,0.091036,0.085081,-0.30284,0.72223,0.14818,-1.8372,-0.032687,-0.085643
0.0073178,0.0083005,7.8838e-005,-0.014762,-0.028101,-0.14117,-0.028884,-0.061582,-0.0046201,0.15793,-0.03075,-0.053057,0.26907,1.1918,0.35894,0.65953,0.096467,0.084678,-0.28166,0.75419,0.13272,-2.0497,-0.044564,-0.052804
0.0032723,0.0091681,-0.0061229,-0.015927,-0.042254,-0.15278,-0.039013,-0.065163,-0.021165,0.1414,-0.029387,-0.049852,0.17367,1.0653,0.34684,0.65175,0.094142,0.080843,-0.23029,0.78816,0.11109,-2.1039,-0.055019,-0.0038333
9.8435e-005,0.0085546,-0.014165,-0.017634,-0.056476,-0.16471,-0.04613,-0.069618,-0.034756,0.12819,-0.030797,-0.046163,0.063566,0.89785,0.32546,0.62889,0.088505,0.078581,-0.15495,0.85125,0.094913,-1.9596,-0.061171,0.054075
0.00027895,0.0066155,-0.019828,-0.019102,-0.069927,-0.17452,-0.048926,-0.075853,-0.04521,0.1167,-0.031431,-0.041315,-0.052915,0.75739,0.29963,0.59064,0.083599,0.080857,-0.066466,0.94917,0.088808,-1.6252,-0.060244,0.10991
0.0038418,0.0042572,-0.019939,-0.019617,-0.082128,-0.18127,-0.049197,-0.083798,-0.054258,0.10205,-0.0305,-0.036903,-0.16661,0.67872,0.27279,0.5319,0.080747,0.085648,0.032766,1.0715,0.088556,-1.1666,-0.050868,0.15374
0.0085588,0.0026846,-0.014661,-0.018893,-0.093673,-0.18594,-0.050129,-0.09204,-0.063682,0.078911,-0.030323,-0.036072,-0.27438,0.65265,0.24409,0.44352,0.078757,0.087398,0.15316,1.2085,0.085385,-0.68835,-0.035036,0.18027
0.011474,0.0027454,-0.007714,-0.016858,-0.10663,-0.19058,-0.053708,-0.099102,-0.073085,0.044809,-0.033436,-0.041142,-0.37959,0.64312,0.20757,0.31881,0.07607,0.081988,0.30917,1.3629,0.073096,-0.29317,-0.018434,0.1887
0.010537,0.0045096,-0.0040831,-0.013354,-0.12357,-0.19678,-0.05947,-0.10507,-0.079432,0.0010044,-0.039743,-0.051797,-0.4861,0.61901,0.15513,0.16214,0.07288,0.07108,0.50359,1.5449,0.052866,-0.040226,-0.007711,0.17998
0.0055243,0.0073178,-0.0066725,-0.0083004,-0.14547,-0.2041,-0.065391,-0.11154,-0.079102,-0.04964,-0.046644,-0.065462,-0.59147,0.57656,0.082354,-0.0067851,0.071391,0.061798,0.71743,1.7513,0.032506,0.073894,-0.0061853,0.15498
-0.0019599,0.010236,-0.014319,-0.0022184,-0.16996,-0.20964,-0.069682,-0.1193,-0.071021,-0.10576,-0.05175,-0.079338,-0.68595,0.53626,-0.0064235,-0.15769,0.07393,0.061453,0.91476,1.9502,0.021265,0.10064,-0.01146,0.1159
-0.0092755,0.012609,-0.022583,0.0035825,-0.19194,-0.20902,-0.071721,-0.12592,-0.058344,-0.16825,-0.055123,-0.092184,-0.75824,0.51891,-0.097541,-0.26218,0.080367,0.071294,1.0606,2.085,0.02446,0.10219,-0.017307,0.069513
-0.014016,0.014324,-0.026684,0.0075842,-0.20648,-0.19863,-0.07147,-0.12603,-0.047048,-0.23759,-0.058631,-0.10436,-0.80307,0.52252,-0.1736,-0.30704,0.086986,0.084514,1.1392,2.1032,0.041726,0.11602,-0.018488,0.027816
-0.015183,0.015574,-0.024473,0.0090094,-0.21193,-0.1777,-0.068459,-0.11498,-0.042166,-0.30984,-0.063231,-0.11638,-0.82449,0.52044,-0.22226,-0.30053,0.088023,0.090489,1.1604,1.9867,0.06939,0.14291,-0.014441,0.0037241
-0.013572,0.016329,-0.01752,0.0082825,-0.21062,-0.14917,-0.061743,-0.093358,-0.044276,-0.37569,-0.067223,-0.12749,-0.83268,0.48203,-0.24263,-0.26842,0.079082,0.082239,1.149,1.7634,0.10411,0.16155,-0.008666,0.0040883
-0.01109,0.016096,-0.0098599,0.0066039,-0.20657,-0.11855,-0.05109,-0.068178,-0.048881,-0.42432,-0.067505,-0.13536,-0.83755,0.39821,-0.24484,-0.24256,0.060136,0.061336,1.1274,1.4905,0.1444,0.15455,-0.0045468,0.025588
-0.0094519,0.014381,-0.0054483,0.0051347,-0.20213,-0.091478,-0.038192,-0.048995,-0.049254,-0.44968,-0.062715,-0.13712,-0.84439,0.28967,-0.24277,-0.24822,0.035955,0.036469,1.1046,1.2236,0.18909,0.12508,-0.0017049,0.057318
-0.009209,0.011569,-0.0059349,0.0046085,-0.19677,-0.07126,-0.026449,-0.041346,-0.040864,-0.45393,-0.055077,-0.13077,-0.85399,0.19168,-0.24515,-0.29584,0.013606,0.016964,1.0776,0.99529,0.23453,0.093141,0.0035688,0.088237
