3.0676e-010,8.4697e-010,1.0129e-009,8.5082e-010,4.8233e-011,7.3892e-010,6.2702e-010,-7.6208e-010,1.3312e-010,1.0901e-009,3.3377e-010,2.5448e-009,2.4116e-010,9.7044e-010,5.5371e-010,2.6104e-009,-3.029e-010,5.5757e-010,1.1441e-009,-1.4643e-009,-2.894e-011,6.0387e-010,4.8426e-010,6.6947e-010
8.2801e-009,2.3173e-008,2.7967e-008,2.3805e-008,1.1013e-009,2.0492e-008,1.7335e-008,-2.126e-008,3.8832e-009,3.0084e-008,9.4509e-009,7.066e-008,6.5562e-009,2.6925e-008,1.5031e-008,7.2168e-008,-8.432e-009,1.5431e-008,3.1461e-008,-4.0446e-008,-8.2286e-010,1.6502e-008,1.3598e-008,1.7902e-008
1.087e-007,3.0814e-007,3.7528e-007,3.2415e-007,1.1445e-008,2.762e-007,2.3285e-007,-2.8823e-007,5.4809e-008,4.0328e-007,1.301e-007,9.5397e-007,8.6538e-008,3.6319e-007,1.9852e-007,9.7027e-007,-1.1401e-007,2.0773e-007,4.2056e-007,-5.4291e-007,-1.1178e-008,2.1891e-007,1.8594e-007,2.3223e-007
9.2476e-007,2.6532e-006,3.2603e-006,2.8624e-006,6.868e-008,2.4106e-006,2.0248e-006,-2.5297e-006,4.9878e-007,3.4983e-006,1.16e-006,8.343e-006,7.3852e-007,3.1734e-006,1.6997e-006,8.4519e-006,-9.9747e-007,1.8124e-006,3.6412e-006,-4.7183e-006,-9.6607e-008,1.8779e-006,1.6498e-006,1.9466e-006
5.732e-006,1.6628e-005,2.061e-005,1.8423e-005,2.3081e-007,1.5313e-005,1.281e-005,-1.6148e-005,3.2897e-006,2.2068e-005,7.5283e-006,5.3125e-005,4.577e-006,2.019e-005,1.0603e-005,5.3617e-005,-6.3449e-006,1.1518e-005,2.2948e-005,-2.984e-005,-5.9625e-007,1.1706e-005,1.0677e-005,1.1846e-005
2.7588e-005,8.0811e-005,0.000101,9.2094e-005,1.0542e-007,7.5444e-005,6.2822e-005,-7.9863e-005,1.6758e-005,0.00010786,3.7893e-005,0.00026244,2.1928e-005,9.9661e-005,5.1345e-005,0.00026395,-3.1252e-005,5.6821e-005,0.00011217,-0.00014631,-2.7932e-006,5.6483e-005,5.3712e-005,5.5735e-005
0.00010728,0.00031684,0.00039905,0.00037192,-3.6796e-006,0.00029991,0.00024843,-0.00031816,6.8604e-005,0.00042483,0.00015388,0.0010463,8.4383e-005,0.00039709,0.00020077,0.0010489,-0.00012391,0.00022632,0.00044239,-0.00057852,-1.0291e-005,0.00021938,0.00021853,0.00021078
0.0003463,0.001029,0.0013052,0.0012461,-2.529e-005,0.00098788,0.00081343,-0.0010478,0.00023186,0.0013845,0.00051763,0.0034566,0.00026735,0.0013115,0.00065074,0.0034556,-0.00040566,0.00074743,0.0014454,-0.001894,-3.0417e-005,0.00070403,0.00073857,0.00065734
0.00094561,0.0028197,0.0035991,0.0035282,-0.00010492,0.0027469,0.0022463,-0.002904,0.0006595,0.0038022,0.0014694,0.0096412,0.00070877,0.0036582,0.0017806,0.0096145,-0.001115,0.0020848,0.003985,-0.0052291,-7.2625e-005,0.0019008,0.002113,0.0017198
0.0022144,0.0066036,0.0084763,0.0085539,-0.00032378,0.0065336,0.0053005,-0.0068546,0.0016013,0.0089137,0.003566,0.023002,0.0015874,0.0087322,0.004165,0.022892,-0.0025998,0.0049761,0.0093932,-0.012331,-0.00013876,0.0043719,0.0051869,0.0038171
0.004491,0.013332,0.017201,0.017918,-0.00079211,0.013416,0.010784,-0.013882,0.003355,0.017994,0.0074651,0.047367,0.0030146,0.018003,0.0083993,0.047071,-0.0051628,0.010255,0.019099,-0.025054,-0.00020313,0.0086376,0.011031,0.0072302
0.0079401,0.023317,0.030244,0.032618,-0.0015743,0.023923,0.019024,-0.024199,0.0061181,0.031444,0.013552,0.084676,0.0048391,0.032246,0.014674,0.084087,-0.0087023,0.018353,0.033686,-0.044076,-0.00019203,0.014729,0.020455,0.011694
0.012287,0.035371,0.046193,0.051747,-0.0025512,0.037158,0.02918,-0.036242,0.0097803,0.047652,0.021378,0.13176,0.0064769,0.050323,0.022245,0.13089,-0.012257,0.028599,0.051661,-0.067239,1.4082e-005,0.021707,0.033202,0.016043
0.016673,0.046404,0.061279,0.071559,-0.0033114,0.050289,0.038921,-0.046223,0.013798,0.06253,0.029246,0.17838,0.0069763,0.068421,0.029218,0.17757,-0.013806,0.038805,0.068849,-0.088731,0.00053742,0.027597,0.047234,0.018303
0.019857,0.052205,0.07042,0.086059,-0.0032342,0.05918,0.045031,-0.049105,0.017304,0.070655,0.034458,0.20938,0.0054545,0.080795,0.033104,0.20951,-0.010779,0.045741,0.079442,-0.10054,0.0014325,0.030106,0.058829,0.01648
0.020829,0.049535,0.069834,0.089699,-0.0018584,0.060353,0.04503,-0.041119,0.019452,0.068061,0.034466,0.21169,0.0017347,0.082363,0.032183,0.21418,-0.0013933,0.046705,0.078871,-0.096385,0.002638,0.027973,0.063961,0.0097571
0.019554,0.038494,0.059766,0.081047,0.00063167,0.053357,0.038905,-0.022463,0.019781,0.055167,0.028498,0.18302,-0.0033282,0.07199,0.026902,0.18944,0.013738,0.04144,0.067041,-0.07617,0.0039883,0.02208,0.060545,-0.00077584
0.017289,0.02336,0.045114,0.064814,0.003218,0.041766,0.029565,0.0019824,0.018321,0.037497,0.018573,0.13577,-0.0083078,0.054092,0.020126,0.1472,0.030915,0.032965,0.049379,-0.047451,0.0052637,0.015296,0.050179,-0.012625
0.016018,0.010721,0.032826,0.049955,0.0045003,0.031594,0.021214,0.025157,0.015383,0.022909,0.0089056,0.091571,-0.012332,0.036719,0.015585,0.10777,0.044549,0.026181,0.034147,-0.021834,0.0062099,0.010816,0.03784,-0.023517
0.017078,0.0056227,0.027506,0.044244,0.0036289,0.027711,0.016499,0.042193,0.011331,0.016745,0.0036802,0.068245,-0.015989,0.026761,0.015333,0.08734,0.05004,0.024779,0.027199,-0.0078634,0.0065174,0.010042,0.029239,-0.03288
0.019858,0.0083492,0.028499,0.04897,0.0010109,0.030699,0.014595,0.053312,0.0066424,0.018359,0.0045499,0.068147,-0.02103,0.025488,0.018157,0.087154,0.04662,0.02855,0.027962,-0.0054151,0.0058574,0.011651,0.027335,-0.041773
0.021712,0.014389,0.030937,0.058106,-0.0019053,0.036575,0.012003,0.062571,0.0021729,0.021915,0.009646,0.07715,-0.028792,0.028024,0.020493,0.093485,0.038015,0.033439,0.030072,-0.0062167,0.004071,0.012724,0.030516,-0.051114
0.019602,0.017879,0.029966,0.063099,-0.0037165,0.039708,0.0057028,0.073289,-0.0008627,0.021072,0.014954,0.075942,-0.038581,0.027504,0.01937,0.089272,0.030055,0.034711,0.026609,-0.00052078,0.0014241,0.011087,0.033913,-0.059817
0.012593,0.015932,0.024592,0.059654,-0.0041,0.036732,-0.003884,0.084199,-0.001558,0.013852,0.017103,0.055111,-0.047591,0.020767,0.014981,0.068349,0.026725,0.030901,0.015803,0.015263,-0.0013576,0.0069572,0.03297,-0.064872
0.0032595,0.010378,0.017892,0.050788,-0.0038065,0.02848,-0.012804,0.090176,-0.00025286,0.0037594,0.01547,0.021893,-0.052755,0.010874,0.010494,0.040287,0.027618,0.02525,0.002321,0.036255,-0.0034671,0.0025616,0.02658,-0.06382
-0.0034964,0.0055715,0.01364,0.043488,-0.0035878,0.018758,-0.016706,0.087321,0.0012181,-0.0036449,0.012028,-0.0067501,-0.053065,0.0042462,0.0091255,0.021582,0.028834,0.02313,-0.0071391,0.053979,-0.0045957,0.0001123,0.017525,-0.057615
-0.0037816,0.0043117,0.012625,0.042024,-0.0031702,0.011386,-0.014678,0.077804,0.00058164,-0.0055911,0.0092361,-0.018509,-0.050243,0.0048059,0.011058,0.020958,0.026622,0.027389,-0.010101,0.064029,-0.0051845,-5.545e-005,0.010144,-0.051007
0.0022718,0.0055385,0.012033,0.044034,-0.0014562,0.0080037,-0.0104,0.069527,-0.0030831,-0.0041392,0.0078798,-0.015201,-0.047044,0.01022,0.013127,0.031842,0.020666,0.035499,-0.01073,0.069713,-0.0060132,0.00040107,0.0072801,-0.049466
0.010408,0.0057897,0.0082932,0.042956,0.0020941,0.0079342,-0.0093838,0.070149,-0.0083106,-0.0038498,0.006755,-0.0097623,-0.044703,0.013525,0.011687,0.038486,0.014218,0.041083,-0.016057,0.078449,-0.0074279,-0.00049599,0.0087546,-0.054783
0.015408,0.0028636,0.00058688,0.034381,0.0063191,0.009393,-0.014416,0.080443,-0.012065,-0.0074553,0.0044026,-0.01433,-0.041998,0.0087409,0.0060399,0.029738,0.011054,0.038737,-0.029306,0.094266,-0.0089315,-0.0030935,0.012078,-0.063096
0.014985,-0.0018909,-0.0082093,0.020288,0.0088598,0.010559,-0.023024,0.093116,-0.011953,-0.01353,0.0011923,-0.030397,-0.036891,-0.0043176,-0.00087923,0.0077516,0.012094,0.028248,-0.046361,0.11326,-0.0095715,-0.0056261,0.014355,-0.067348
0.011116,-0.0048605,-0.013837,0.0073156,0.0081483,0.0099275,-0.02923,0.098649,-0.0080646,-0.01811,-0.00035758,-0.049255,-0.029158,-0.019984,-0.0052418,-0.015721,0.014722,0.014787,-0.058608,0.12625,-0.0087761,-0.0057098,0.013862,-0.062572
0.0077168,-0.0037475,-0.014037,0.00091483,0.0050583,0.0065106,-0.028298,0.093357,-0.0029061,-0.018548,0.0024019,-0.061208,-0.021322,-0.031161,-0.0058855,-0.030928,0.015276,0.0049996,-0.059681,0.12644,-0.0068393,-0.0026102,0.010536,-0.049862
0.0068969,8.4098e-005,-0.010127,0.00094885,0.0024238,0.00042517,-0.020626,0.082625,0.00049643,-0.015984,0.0095335,-0.064553,-0.016761,-0.034336,-0.0051959,-0.038095,0.012256,0.0022183,-0.05027,0.11552,-0.0046275,0.0016817,0.0055612,-0.035848
0.0072555,0.0028335,-0.0057547,0.0025015,0.0025666,-0.0065857,-0.01157,0.076324,0.00070293,-0.014272,0.01763,-0.066424,-0.016634,-0.031278,-0.0064092,-0.044686,0.0073469,0.004549,-0.037106,0.10278,-0.0028835,0.0036741,0.00058443,-0.028005
0.0056812,0.0019127,-0.004223,0.00052466,0.005027,-0.011695,-0.0073333,0.080362,-0.0014948,-0.016539,0.021904,-0.075572,-0.018593,-0.026743,-0.0099769,-0.055837,0.0036213,0.0070317,-0.027481,0.09792,-0.0018629,0.0011128,-0.0031333,-0.029337
0.00073469,-0.0015236,-0.0066167,-0.0063636,0.0067703,-0.012757,-0.010234,0.091681,-0.0041785,-0.022512,0.019772,-0.094175,-0.018631,-0.024688,-0.012644,-0.068281,0.0029219,0.0058067,-0.024241,0.10348,-0.0015739,-0.0049492,-0.0053971,-0.03631
-0.005722,-0.0036629,-0.011821,-0.01609,0.0049511,-0.010045,-0.017123,0.10091,-0.0060008,-0.028903,0.012945,-0.11584,-0.014508,-0.026071,-0.01029,-0.073871,0.0048271,0.00086791,-0.025135,0.11315,-0.0021609,-0.010591,-0.0072653,-0.041335
-0.010158,-0.0017367,-0.017783,-0.02617,-0.00018271,-0.0063334,-0.022053,0.10006,-0.0070597,-0.032248,0.0060943,-0.13086,-0.0076541,-0.029267,-0.0018999,-0.068656,0.0077107,-0.0045159,-0.026138,0.11741,-0.0038172,-0.011829,-0.010447,-0.037785
-0.010592,0.0031976,-0.022672,-0.035887,-0.00503,-0.0049656,-0.020858,0.088514,-0.0084718,-0.031555,0.0030967,-0.13373,-0.0018459,-0.031908,0.0091418,-0.057821,0.01034,-0.0068196,-0.025142,0.11155,-0.0062329,-0.0076134,-0.016084,-0.024017
-0.0083161,0.0070549,-0.025244,-0.045539,-0.0055197,-0.0073768,-0.013987,0.072357,-0.011242,-0.028602,0.0040374,-0.12662,0.00012663,-0.032457,0.017719,-0.051277,0.012327,-0.0050564,-0.022841,0.099567,-0.008261,-0.00053346,-0.023713,-0.0039835
-0.0066662,0.006342,-0.024808,-0.054327,-0.00071313,-0.012153,-0.0055867,0.058484,-0.015358,-0.025985,0.0055724,-0.11705,-0.0011898,-0.03075,0.021137,-0.054363,0.01338,-0.0012363,-0.020837,0.090631,-0.0084077,0.0053762,-0.031262,0.015472
-0.0082412,0.0012188,-0.021439,-0.059966,0.0061145,-0.016438,4.2531e-005,0.048994,-0.019632,-0.024946,0.0042887,-0.11235,-0.0025561,-0.027833,0.020956,-0.063161,0.012699,0.001508,-0.019501,0.091235,-0.0059245,0.0078761,-0.036265,0.028555
-0.013186,-0.0047455,-0.016394,-0.060924,0.010015,-0.018455,0.0015532,0.040693,-0.022279,-0.024864,-2.7106e-005,-0.11558,-0.0010004,-0.025438,0.020975,-0.069139,0.0095022,0.0013038,-0.017795,0.099771,-0.0015503,0.0080129,-0.037482,0.033286
-0.019769,-0.0077185,-0.012019,-0.058793,0.0084346,-0.018944,0.00089499,0.029377,-0.021906,-0.024502,-0.0042575,-0.12494,0.0035396,-0.025194,0.023437,-0.068359,0.0041448,-0.0014994,-0.014902,0.10793,0.0028589,0.0086143,-0.035714,0.031851
-0.026145,-0.0066934,-0.010633,-0.057708,0.0033356,-0.020298,0.0010239,0.014478,-0.018412,-0.023482,-0.0051181,-0.13599,0.008121,-0.02766,0.027007,-0.065938,-0.0016201,-0.0052893,-0.011623,0.10748,0.0055889,0.011231,-0.033193,0.028809
-0.031369,-0.0038897,-0.012971,-0.060707,-0.00038839,-0.024191,0.0031961,-5.6936e-005,-0.013229,-0.02251,-0.0026481,-0.14445,0.0092314,-0.031806,0.028152,-0.071201,-0.005817,-0.008936,-0.0099459,0.096544,0.006174,0.014391,-0.03199,0.028439
-0.035021,-0.0024696,-0.017556,-0.066492,0.0011838,-0.029856,0.0061158,-0.0089661,-0.0085735,-0.02234,-0.00061195,-0.14815,0.005659,-0.035522,0.024378,-0.088273,-0.0078338,-0.01271,-0.011177,0.080227,0.0054625,0.014851,-0.032684,0.032647
-0.03654,-0.0038594,-0.021831,-0.070195,0.0080457,-0.034533,0.0074151,-0.0098111,-0.0060644,-0.022764,-0.0031724,-0.14757,-0.00053297,-0.036996,0.016323,-0.11128,-0.0088069,-0.017663,-0.014485,0.065679,0.0047079,0.010764,-0.034238,0.040386
-0.035548,-0.0069217,-0.024312,-0.067981,0.016527,-0.035684,0.0059461,-0.0047047,-0.0057526,-0.022799,-0.010728,-0.14525,-0.005593,-0.035892,0.0071539,-0.12883,-0.010364,-0.024173,-0.0173,0.056363,0.0045653,0.003828,-0.035078,0.048731
-0.032952,-0.00929,-0.02589,-0.061307,0.022261,-0.033069,0.0028346,0.0011776,-0.0064096,-0.021863,-0.018802,-0.14407,-0.0067822,-0.033348,0.00025522,-0.13351,-0.01301,-0.031072,-0.017238,0.050301,0.0048108,-0.001645,-0.034433,0.054899
-0.031285,-0.0093753,-0.02895,-0.056573,0.02325,-0.028902,0.0004958,0.0026288,-0.006838,-0.020602,-0.021307,-0.14496,-0.0039307,-0.030883,-0.0026397,-0.12753,-0.015845,-0.036238,-0.013856,0.043082,0.0048424,-0.0020691,-0.032871,0.058063
-0.033218,-0.0073974,-0.034932,-0.060047,0.020637,-0.026061,0.00063379,-0.0031587,-0.0069332,-0.020312,-0.015556,-0.14573,0.0013071,-0.029282,-0.0016749,-0.11964,-0.017926,-0.038222,-0.008821,0.03224,0.0043692,0.0026004,-0.0317,0.059917
-0.039185,-0.0049801,-0.042524,-0.07241,0.016997,-0.025922,0.0030174,-0.015754,-0.0074245,-0.021426,-0.0046839,-0.14222,0.0075846,-0.028382,0.0020388,-0.11648,-0.019784,-0.037533,-0.0045232,0.019111,0.0037079,0.0090388,-0.03184,0.06374
-0.046326,-0.0040074,-0.048294,-0.087789,0.013947,-0.027603,0.0059576,-0.03209,-0.0086085,-0.022659,0.0047167,-0.13136,0.015247,-0.02768,0.0072891,-0.11655,-0.023315,-0.036368,-0.0024681,0.0071585,0.0035807,0.013465,-0.033142,0.072542
-0.05015,-0.0056339,-0.049372,-0.098108,0.011199,-0.029065,0.007835,-0.047999,-0.0095213,-0.021923,0.007829,-0.11409,0.025571,-0.026922,0.013025,-0.11212,-0.029879,-0.036862,-0.0026855,-0.0010628,0.0046848,0.014588,-0.034649,0.087296
-0.047878,-0.0098235,-0.045856,-0.099033,0.0076003,-0.028948,0.0082377,-0.060171,-0.0085963,-0.018337,0.0052516,-0.095416,0.038585,-0.026111,0.018299,-0.097054,-0.038381,-0.039231,-0.0043027,-0.0055308,0.0073025,0.013979,-0.035439,0.10611
-0.040693,-0.015347,-0.040763,-0.092589,0.002866,-0.027541,0.0078773,-0.067694,-0.0052384,-0.013347,0.0019777,-0.081368,0.051772,-0.025214,0.02228,-0.073246,-0.04536,-0.041458,-0.0064176,-0.0080768,0.011059,0.013812,-0.035213,0.12473
-0.032914,-0.020171,-0.037536,-0.084777,-0.0017652,-0.02619,0.0076805,-0.072189,-0.00064143,-0.0096495,0.0026853,-0.075012,0.06133,-0.024169,0.024261,-0.050292,-0.047375,-0.040968,-0.0084368,-0.010615,0.014894,0.014411,-0.034181,0.1381
-0.028627,-0.022285,-0.037279,-0.080697,-0.0045472,-0.025886,0.0080354,-0.076241,0.0031438,-0.0087123,0.0074798,-0.074696,0.065309,-0.023225,0.023515,-0.03879,-0.043723,-0.037013,-0.0098779,-0.014009,0.017343,0.014051,-0.032552,0.14266
-0.028505,-0.020811,-0.038078,-0.081304,-0.0048445,-0.026402,0.0087134,-0.081232,0.0050612,-0.0092679,0.011785,-0.075668,0.065789,-0.023029,0.019207,-0.043064,-0.037077,-0.031727,-0.010247,-0.018274,0.017127,0.011123,-0.030385,0.13811
-0.029355,-0.016776,-0.036847,-0.083872,-0.0037471,-0.026753,0.0091968,-0.086372,0.005959,-0.0084124,0.010441,-0.073488,0.067786,-0.024007,0.010886,-0.058932,-0.031412,-0.028751,-0.0093494,-0.023525,0.013779,0.0063313,-0.028063,0.1278
-0.026688,-0.012841,-0.032028,-0.084903,-0.0031162,-0.026419,0.0089432,-0.089778,0.0075905,-0.0045106,0.0024469,-0.066518,0.075282,-0.025462,-0.00049585,-0.077587,-0.028975,-0.030421,-0.0076758,-0.030592,0.0079342,0.0026081,-0.026759,0.11729
-0.018193,-0.011818,-0.024922,-0.082653,-0.0040325,-0.026065,0.0075397,-0.09053,0.010668,0.00077615,-0.0077718,-0.056039,0.087663,-0.025445,-0.011999,-0.09187,-0.028927,-0.035828,-0.0062352,-0.040644,0.0011389,0.0026627,-0.02801,0.11137
-0.0054598,-0.014786,-0.018757,-0.077563,-0.0061326,-0.026925,0.0050235,-0.089701,0.01391,0.003428,-0.01367,-0.044705,0.099795,-0.02193,-0.019596,-0.099978,-0.0287,-0.041443,-0.0057829,-0.053972,-0.0046343,0.006432,-0.032326,0.1115
0.0071326,-0.02012,-0.0164,-0.071109,-0.0083407,-0.029397,0.002323,-0.08945,0.015042,0.00042408,-0.01171,-0.035001,0.10595,-0.01458,-0.020407,-0.10445,-0.026687,-0.043837,-0.0061253,-0.068893,-0.00752,0.010813,-0.038035,0.11507
0.015299,-0.024316,-0.018458,-0.064648,-0.010089,-0.032252,0.0012407,-0.091266,0.012805,-0.007306,-0.0040599,-0.028552,0.10436,-0.005618,-0.014647,-0.10831,-0.023744,-0.042204,-0.0062386,-0.081881,-0.0063254,0.011997,-0.041786,0.11739
0.017297,-0.024209,-0.022974,-0.059109,-0.011724,-0.033425,0.0034814,-0.095214,0.008107,-0.014967,0.0032449,-0.025873,0.098355,0.0011534,-0.0055096,-0.11216,-0.022205,-0.038614,-0.0051697,-0.08934,-0.0011836,0.0084338,-0.040782,0.11505
0.014444,-0.019131,-0.026705,-0.055058,-0.013778,-0.031865,0.0091462,-0.10076,0.0033563,-0.017122,0.0049733,-0.025929,0.093161,0.0026764,0.0031144,-0.11454,-0.023449,-0.03595,-0.0029226,-0.09003,0.0060075,0.0019436,-0.035057,0.10844
0.0097681,-0.011484,-0.027038,-0.052407,-0.016038,-0.028769,0.015973,-0.1079,0.00071702,-0.011539,0.00027365,-0.025776,0.091233,-0.0012844,0.0091402,-0.11463,-0.026334,-0.035507,-0.00054922,-0.086288,0.012016,-0.0038659,-0.027692,0.1015
0.0060413,-0.0052709,-0.023355,-0.049908,-0.017553,-0.026868,0.020349,-0.11697,0.00083697,-0.00067396,-0.0075494,-0.021284,0.09037,-0.0078022,0.012826,-0.11434,-0.027978,-0.036369,0.00059311,-0.082747,0.013877,-0.006501,-0.022562,0.09868
0.0044739,-0.0036108,-0.017121,-0.045444,-0.01762,-0.028158,0.01968,-0.12717,0.0028748,0.010212,-0.014355,-0.0093265,0.086284,-0.012473,0.015053,-0.11751,-0.026166,-0.036878,-0.00022759,-0.083278,0.010868,-0.006407,-0.021499,0.1014
0.0045825,-0.0069346,-0.010765,-0.037545,-0.016654,-0.031965,0.014344,-0.13557,0.0053661,0.016661,-0.018374,0.0097091,0.07709,-0.012059,0.015362,-0.12651,-0.021257,-0.036532,-0.0026629,-0.088563,0.005299,-0.0062924,-0.023304,0.10669
0.0049494,-0.013037,-0.0061728,-0.027139,-0.015892,-0.035153,0.0075292,-0.13822,0.0069565,0.017601,-0.020648,0.031157,0.065369,-0.0064205,0.012028,-0.13942,-0.015965,-0.036441,-0.0054778,-0.096354,0.0011083,-0.0086198,-0.025339,0.10912
0.0042865,-0.018769,-0.0037857,-0.017642,-0.016113,-0.034515,0.0028957,-0.13315,0.006629,0.015264,-0.022883,0.048224,0.055767,0.0014706,0.0042636,-0.15021,-0.013263,-0.037974,-0.0071377,-0.10411,0.0010871,-0.013433,-0.02599,0.1046
0.0022835,-0.022044,-0.0028213,-0.012604,-0.016689,-0.029463,0.0018785,-0.1227,0.0038357,0.012935,-0.025291,0.056004,0.050413,0.0074207,-0.0058673,-0.15236,-0.014189,-0.04109,-0.0064694,-0.11146,0.004886,-0.018375,-0.025635,0.093083
-0.00012661,-0.022787,-0.00227,-0.012448,-0.01608,-0.022711,0.0027923,-0.11288,-0.0010686,0.012492,-0.026621,0.054582,0.046601,0.0085814,-0.014264,-0.14319,-0.017263,-0.04406,-0.0031857,-0.12003,0.0094787,-0.020855,-0.02543,0.078312
-0.0012688,-0.022422,-0.0017674,-0.013242,-0.013437,-0.018309,0.0024441,-0.10958,-0.006445,0.013412,-0.026067,0.048893,0.039167,0.0050084,-0.018135,-0.12572,-0.01978,-0.044847,0.0019055,-0.13082,0.011653,-0.020416,-0.025457,0.064861
0.00017612,-0.022548,-0.0016694,-0.0092104,-0.0098164,-0.01856,-0.0011197,-0.11438,-0.0098463,0.013611,-0.024723,0.045347,0.025471,-0.00075781,-0.018846,-0.1066,-0.019827,-0.042763,0.007179,-0.14186,0.010333,-0.019177,-0.024292,0.054892
0.0041193,-0.02384,-0.0024215,0.0025067,-0.0076677,-0.022342,-0.0069781,-0.12316,-0.0095465,0.011208,-0.024786,0.047695,0.0083133,-0.0056331,-0.021271,-0.091708,-0.017491,-0.038838,0.010913,-0.14865,0.0068038,-0.019917,-0.020409,0.046997
0.0088666,-0.025804,-0.0039207,0.018693,-0.0088622,-0.02617,-0.012046,-0.12887,-0.0061118,0.0059196,-0.027233,0.055139,-0.0061136,-0.0079346,-0.029794,-0.082845,-0.014548,-0.034642,0.012052,-0.14751,0.0029546,-0.023558,-0.01393,0.037813
0.012094,-0.027296,-0.0054948,0.031539,-0.012919,-0.027062,-0.013421,-0.12668,-0.0024952,-0.0006597,-0.030543,0.063855,-0.013492,-0.007993,-0.04439,-0.077634,-0.013036,-0.030868,0.010502,-0.13883,-0.00052123,-0.028328,-0.0069407,0.025107
0.0124,-0.027348,-0.0065074,0.034071,-0.017076,-0.024828,-0.01044,-0.11766,-0.0021248,-0.0059201,-0.032104,0.070474,-0.015068,-0.0073297,-0.060394,-0.072469,-0.013753,-0.027093,0.0068477,-0.1273,-0.0042205,-0.031377,-0.0020823,0.0099835
0.010255,-0.025825,-0.0070226,0.025337,-0.018316,-0.021964,-0.0049567,-0.10821,-0.0062355,-0.0076574,-0.031131,0.074735,-0.016406,-0.0074288,-0.072307,-0.06588,-0.015625,-0.022868,0.0019132,-0.11874,-0.0085501,-0.03133,-0.00073478,-0.0034717
0.0076015,-0.023603,-0.0079009,0.011141,-0.01574,-0.02141,0.00011775,-0.10527,-0.012622,-0.005286,-0.030071,0.079438,-0.022426,-0.0091394,-0.078281,-0.059653,-0.016286,-0.018871,-0.0033448,-0.11602,-0.012478,-0.02942,-0.0022862,-0.010961
0.0064133,-0.022115,-0.010143,-0.00024803,-0.011295,-0.024123,0.0027219,-0.11101,-0.017036,-0.0001898,-0.032671,0.088007,-0.03333,-0.012771,-0.081316,-0.057009,-0.013551,-0.016744,-0.0076753,-0.1174,-0.014063,-0.028228,-0.0048162,-0.011216
0.0074081,-0.022434,-0.013907,-0.0037934,-0.0081871,-0.028427,0.002623,-0.1209,-0.016307,0.0050292,-0.040218,0.10157,-0.044972,-0.018179,-0.08618,-0.059558,-0.0069602,-0.017622,-0.0096929,-0.11826,-0.012419,-0.029304,-0.0063655,-0.0072536
0.0098585,-0.024421,-0.01796,-0.00021221,-0.0082407,-0.031457,0.0010418,-0.12689,-0.010739,0.0080386,-0.049564,0.11757,-0.052967,-0.02444,-0.094893,-0.065652,0.0015315,-0.020797,-0.0086969,-0.11477,-0.0091391,-0.031935,-0.0058529,-0.0045988
0.012428,-0.026609,-0.020166,0.0062143,-0.010371,-0.031299,-0.00049783,-0.12337,-0.0038575,0.0081067,-0.0552,0.1306,-0.05641,-0.02961,-0.1048,-0.071454,0.008299,-0.023994,-0.005588,-0.10672,-0.0075272,-0.034139,-0.0033581,-0.0077143
0.014105,-0.027116,-0.018906,0.011927,-0.011442,-0.028067,-0.0011743,-0.11144,0.00029856,0.0063729,-0.053829,0.13514,-0.057813,-0.031405,-0.11081,-0.073686,0.0099773,-0.025228,-0.0027904,-0.097755,-0.0099854,-0.034785,1.2973e-005,-0.017349
0.014447,-0.025024,-0.014489,0.016438,-0.0088197,-0.02335,-0.0011635,-0.098078,0.00014976,0.0048268,-0.047361,0.12861,-0.059716,-0.028695,-0.1097,-0.071612,0.0055058,-0.024565,-0.0027684,-0.093096,-0.015739,-0.034694,0.0025558,-0.030708
0.013246,-0.021163,-0.0093531,0.021077,-0.0025732,-0.018864,-0.0012483,-0.090848,-0.002529,0.0047369,-0.041468,0.11317,-0.061573,-0.022552,-0.10271,-0.066603,-0.0030439,-0.024003,-0.0061297,-0.096376,-0.021008,-0.035625,0.0027558,-0.043964
0.010364,-0.0176,-0.0065738,0.026124,0.0043967,-0.015588,-0.0021467,-0.092234,-0.0043731,0.0057527,-0.040905,0.095205,-0.059978,-0.015612,-0.094392,-0.059868,-0.01151,-0.025405,-0.011007,-0.10728,-0.021722,-0.038174,0.00025843,-0.054765
0.0061361,-0.016152,-0.0075992,0.029606,0.0083313,-0.013831,-0.0040157,-0.097963,-0.0032734,0.0063901,-0.045769,0.082105,-0.051859,-0.010007,-0.088949,-0.050598,-0.015981,-0.028352,-0.01446,-0.12129,-0.016713,-0.040713,-0.0036322,-0.062746
0.0018692,-0.017129,-0.011003,0.029013,0.0071245,-0.013647,-0.0064113,-0.10043,3.8926e-005,0.0054557,-0.051936,0.078164,-0.037449,-0.0057114,-0.087246,-0.036339,-0.014975,-0.030071,-0.0148,-0.13182,-0.0087873,-0.04054,-0.0065552,-0.068263
-0.00044325,-0.019268,-0.013451,0.024071,0.0015859,-0.01486,-0.0086734,-0.094336,0.0028127,0.0031454,-0.054969,0.082094,-0.020303,-0.0010059,-0.086817,-0.015345,-0.01011,-0.027731,-0.0128,-0.13366,-0.0027651,-0.036303,-0.0066219,-0.071239
0.00062952,-0.020839,-0.012297,0.017605,-0.0051936,-0.016692,-0.010408,-0.080259,0.0026147,0.0008484,-0.053691,0.088175,-0.0045946,0.0052273,-0.084397,0.011141,-0.0049567,-0.021123,-0.010716,-0.12593,-0.0019856,-0.029521,-0.0037953,-0.071582
0.0046755,-0.020887,-0.007733,0.013485,-0.0096488,-0.017668,-0.011649,-0.063663,-0.0008304,-0.00015342,-0.050287,0.090485,0.007637,0.011619,-0.078609,0.038694,-0.0028942,-0.013218,-0.010105,-0.11269,-0.0059988,-0.023738,7.0335e-006,-0.070515
0.0094082,-0.019659,-0.0027136,0.013482,-0.0094831,-0.016351,-0.012561,-0.050729,-0.0056836,9.2603e-005,-0.047376,0.087109,0.016996,0.01493,-0.070767,0.06188,-0.0052874,-0.0079682,-0.010547,-0.10047,-0.011168,-0.021908,0.0022438,-0.070817
0.012183,-0.018086,-0.00068364,0.015922,-0.0045691,-0.012486,-0.013013,-0.044352,-0.0096267,0.00016057,-0.045328,0.081061,0.02511,0.012919,-0.06364,0.077251,-0.010939,-0.0072639,-0.010467,-0.094284,-0.013574,-0.024161,0.0015199,-0.075
0.011908,-0.017024,-0.002992,0.01735,0.0030901,-0.0074986,-0.012562,-0.04302,-0.011578,-0.0015883,-0.042468,0.077227,0.032875,0.006845,-0.059596,0.085196,-0.016991,-0.0097124,-0.0091574,-0.094645,-0.011857,-0.027822,-0.0015179,-0.082877
0.0097106,-0.01691,-0.0080344,0.01575,0.010176,-0.0036772,-0.011054,-0.042676,-0.012155,-0.0056322,-0.037647,0.078002,0.040097,0.0010457,-0.059496,0.089657,-0.020673,-0.012215,-0.0078995,-0.097611,-0.0078246,-0.029681,-0.0047323,-0.091134
0.0077731,-0.017864,-0.012636,0.012463,0.013499,-0.0025186,-0.0093202,-0.039594,-0.012737,-0.010841,-0.032193,0.081333,0.046248,-0.00038576,-0.062635,0.096075,-0.020885,-0.012745,-0.0089134,-0.097663,-0.0045922,-0.028662,-0.0059739,-0.095944
0.0074209,-0.019784,-0.014396,0.011117,0.011693,-0.0036195,-0.0091547,-0.032202,-0.014102,-0.015261,-0.029067,0.08267,0.050921,0.0029835,-0.067181,0.10863,-0.018696,-0.011788,-0.013054,-0.091358,-0.0039908,-0.026697,-0.004387,-0.09661
0.0082199,-0.022194,-0.013206,0.014359,0.0062498,-0.0051206,-0.012256,-0.021155,-0.015726,-0.017445,-0.03,0.078792,0.053386,0.007505,-0.070673,0.12791,-0.016441,-0.011315,-0.018487,-0.079316,-0.0053999,-0.027078,-0.00071437,-0.096769
0.0088249,-0.024169,-0.01106,0.021085,0.0008802,-0.0053738,-0.018827,-0.0083785,-0.01618,-0.017323,-0.033499,0.070038,0.052136,0.0085052,-0.07063,0.15006,-0.016049,-0.012541,-0.021773,-0.065496,-0.0067858,-0.031609,0.0034503,-0.10159
0.0085903,-0.024719,-0.010579,0.026633,-0.00086018,-0.0043616,-0.027064,0.0039537,-0.014221,-0.0161,-0.035767,0.05928,0.045588,0.0041822,-0.065388,0.16793,-0.017781,-0.01467,-0.020584,-0.054536,-0.0067886,-0.038872,0.0068065,-0.11302
0.0082256,-0.023533,-0.013307,0.026104,0.0017808,-0.003565,-0.034164,0.014084,-0.0097679,-0.015421,-0.033735,0.049096,0.033757,-0.0030253,-0.054836,0.17441,-0.020304,-0.01567,-0.015699,-0.048991,-0.0058913,-0.045013,0.0090377,-0.12725
0.0088009,-0.021388,-0.018647,0.018435,0.0059934,-0.0043848,-0.038143,0.021098,-0.004142,-0.016469,-0.027403,0.040047,0.01925,-0.0086449,-0.040401,0.16632,-0.021965,-0.01417,-0.010542,-0.048005,-0.0056645,-0.046451,0.010599,-0.13682
0.010182,-0.019689,-0.023938,0.0078628,0.0075145,-0.0065839,-0.038954,0.025199,0.0006107,-0.019477,-0.019466,0.031377,0.006216,-0.0098199,-0.024173,0.14668,-0.022156,-0.010643,-0.0086661,-0.047918,-0.0069172,-0.042358,0.011879,-0.1361
0.01067,-0.019393,-0.025769,0.0012585,0.0041975,-0.0082464,-0.038026,0.027612,0.0029383,-0.023773,-0.012823,0.022853,-0.0021859,-0.007171,-0.0078278,0.12335,-0.021627,-0.0069208,-0.011272,-0.044282,-0.0086152,-0.035027,0.012534,-0.12551
0.0084612,-0.020274,-0.022112,0.0030477,-0.0018995,-0.0073537,-0.036761,0.029924,0.0028109,-0.028156,-0.0084316,0.015492,-0.005665,-0.0035361,0.0076997,0.10457,-0.02161,-0.0046603,-0.016679,-0.034197,-0.008711,-0.027993,0.011668,-0.11134
0.0036129,-0.021228,-0.014086,0.011673,-0.0059104,-0.0035467,-0.035524,0.033161,0.0018242,-0.031377,-0.0054057,0.010447,-0.0063439,-0.0011998,0.021546,0.094199,-0.022644,-0.0041614,-0.021865,-0.01788,-0.0061961,-0.023532,0.0087855,-0.10113
-0.0014856,-0.021365,-0.0059375,0.020586,-0.004152,0.001539,-0.034026,0.037276,0.0021513,-0.032572,-0.0028678,0.0074833,-0.0064917,-0.00039099,0.032082,0.090071,-0.024189,-0.0043749,-0.024578,0.0012813,-0.0024492,-0.02154,0.004654,-0.098632
-0.0038417,-0.020805,-0.0026938,0.023188,0.0025865,0.0056326,-0.032505,0.041508,0.0049332,-0.031567,-0.0013811,0.0049102,-0.0066347,-0.00022314,0.037014,0.086488,-0.025214,-0.0038418,-0.024412,0.018291,-0.00049119,-0.020438,0.0011736,-0.10194
-0.0023523,-0.020363,-0.0067978,0.017826,0.0093924,0.0075799,-0.032252,0.045331,0.0092497,-0.02898,-0.0023655,0.0011626,-0.005721,-0.00062615,0.034698,0.07887,-0.025076,-0.0016866,-0.022378,0.029095,-0.002623,-0.019071,0.00015274,-0.10611
0.0012,-0.020444,-0.016193,0.0088961,0.011125,0.0079139,-0.034722,0.049213,0.012566,-0.026041,-0.0060967,-0.0036115,-0.0028738,-0.0028717,0.02568,0.066942,-0.023841,0.0019584,-0.019797,0.032843,-0.0084057,-0.017835,0.0019196,-0.10753
0.003598,-0.020325,-0.025535,0.0033522,0.006636,0.0079307,-0.04008,0.054497,0.012515,-0.02414,-0.010439,-0.0076982,0.0012635,-0.0079384,0.013084,0.054283,-0.021922,0.0061182,-0.017563,0.032451,-0.014688,-0.018146,0.0049725,-0.10646
0.0028154,-0.018717,-0.029784,0.0056305,-0.00033607,0.00841,-0.046741,0.062508,0.0087762,-0.024212,-0.011847,-0.0096753,0.0049948,-0.014472,0.0013178,0.045086,-0.019625,0.0094211,-0.01616,0.032838,-0.017658,-0.020872,0.0070692,-0.10618
-0.00046679,-0.01523,-0.027441,0.014972,-0.0043934,0.0092878,-0.052494,0.073524,0.0035847,-0.02628,-0.0079939,-0.010207,0.0072506,-0.018818,-0.0060375,0.041008,-0.017124,0.010604,-0.016005,0.037625,-0.015262,-0.025176,0.0069307,-0.10962
-0.0036381,-0.011325,-0.020988,0.026717,-0.003044,0.010373,-0.056169,0.086302,0.00034069,-0.029456,0.00020999,-0.011996,0.0086173,-0.017673,-0.0077015,0.040567,-0.01478,0.0090161,-0.017455,0.046434,-0.0082313,-0.028781,0.0051703,-0.1166
-0.0043549,-0.0096101,-0.014522,0.035836,0.0013712,0.011974,-0.058189,0.098377,0.0012579,-0.032499,0.008999,-0.017773,0.010592,-0.011165,-0.0047431,0.041197,-0.013231,0.0050128,-0.020336,0.054909,0.00078044,-0.029464,0.0036842,-0.12363
-0.0021996,-0.01182,-0.0108,0.039708,0.0039777,0.014459,-0.059538,0.10697,0.0058197,-0.034574,0.014267,-0.027956,0.013831,-0.0033611,0.0003807,0.041993,-0.012919,-1.1281e-005,-0.02352,0.057859,0.0089562,-0.026593,0.0040242,-0.12633
0.0014031,-0.017088,-0.010063,0.038597,0.001734,0.017135,-0.060349,0.11016,0.011253,-0.035636,0.014206,-0.039864,0.017187,0.00065546,0.0048236,0.044785,-0.013473,-0.0041392,-0.02525,0.053515,0.014627,-0.021583,0.0061251,-0.12233
0.0045804,-0.022071,-0.011038,0.03451,-0.0040204,0.017933,-0.059644,0.10791,0.014657,-0.036124,0.010118,-0.049116,0.018554,-0.0011668,0.0059077,0.052649,-0.013687,-0.0058208,-0.024309,0.04564,0.017511,-0.016978,0.0084477,-0.11279
0.0063405,-0.023062,-0.012549,0.029955,-0.0089055,0.014785,-0.056496,0.10246,0.015098,-0.03627,0.0050938,-0.052251,0.016705,-0.0062228,0.0015665,0.066897,-0.012371,-0.0046093,-0.021245,0.041502,0.018216,-0.014826,0.0093943,-0.10137
0.0068771,-0.018558,-0.014093,0.027211,-0.009275,0.0077954,-0.051285,0.097467,0.013994,-0.035756,0.0019117,-0.048803,0.012449,-0.0095846,-0.0089036,0.084769,-0.0094672,-0.0012629,-0.018441,0.046825,0.017681,-0.015461,0.0087619,-0.091854
0.0069767,-0.010405,-0.015232,0.027728,-0.0050074,0.00013942,-0.045682,0.096148,0.013544,-0.034096,0.0018007,-0.041577,0.0080401,-0.0083169,-0.024063,0.099645,-0.0063396,0.0028216,-0.018559,0.061391,0.016854,-0.017455,0.0079407,-0.0861
0.0072982,-0.0026615,-0.015056,0.031345,0.00085953,-0.0036026,-0.04133,0.099233,0.014621,-0.03132,0.0045799,-0.034955,0.0054144,-0.0039687,-0.040376,0.10402,-0.0047545,0.0064001,-0.022275,0.078729,0.016493,-0.018672,0.0086343,-0.083614
0.0081048,0.00097019,-0.012673,0.035943,0.0048491,-0.00068645,-0.038547,0.10429,0.015952,-0.02813,0.0094162,-0.03229,0.00473,-0.0010266,-0.05353,0.093561,-0.0052298,0.0088778,-0.027203,0.090315,0.016925,-0.017645,0.011194,-0.082629
0.0094281,-0.00064197,-0.0082891,0.03837,0.0054893,0.0075729,-0.036251,0.10722,0.015267,-0.025209,0.015214,-0.033958,0.0043658,-0.0027477,-0.060306,0.069772,-0.0061988,0.01033,-0.029217,0.091267,0.017897,-0.014319,0.014083,-0.081435
0.011285,-0.0056115,-0.003555,0.036463,0.0036266,0.016535,-0.033081,0.10516,0.011315,-0.022389,0.020506,-0.037379,0.0022977,-0.0081669,-0.059689,0.03945,-0.0049506,0.011254,-0.025515,0.083387,0.018745,-0.009755,0.015071,-0.078969
0.013634,-0.010456,-0.00054278,0.030682,0.00097272,0.021431,-0.028619,0.098717,0.0049328,-0.018694,0.023569,-0.039113,-0.0022515,-0.013014,-0.052524,0.01137,0.00016766,0.012327,-0.017073,0.07355,0.018849,-0.0051691,0.013201,-0.074724
0.016064,-0.012267,-0.00015352,0.023841,-0.0013706,0.020478,-0.023749,0.091633,-0.0017027,-0.013436,0.023286,-0.037655,-0.0081516,-0.013718,-0.040392,-0.0076951,0.0080582,0.014212,-0.0083834,0.068946,0.018013,-0.0011646,0.0098005,-0.068645
0.017478,-0.010185,-0.0014492,0.018981,-0.0031938,0.015556,-0.020017,0.088067,-0.0067553,-0.0073298,0.020222,-0.034847,-0.013204,-0.010842,-0.024921,-0.015207,0.015284,0.017265,-0.0044367,0.072727,0.016455,0.0022886,0.007541,-0.06137
0.016177,-0.0053797,-0.0025549,0.017069,-0.004536,0.010227,-0.018611,0.089454,-0.0096293,-0.0023125,0.016709,-0.034633,-0.015886,-0.008782,-0.0079279,-0.012462,0.018507,0.021142,-0.007182,0.082777,0.014507,0.005318,0.0082438,-0.054305
0.010575,0.0001366,-0.0023007,0.016397,-0.0051807,0.006998,-0.019601,0.093464,-0.010238,4.7905e-005,0.015384,-0.039907,-0.016655,-0.011901,0.0084398,-0.0025709,0.017047,0.024655,-0.014171,0.093782,0.012427,0.007756,0.011285,-0.048937
0.00035063,0.0048656,-0.0011114,0.014057,-0.0048439,0.0060388,-0.021769,0.095837,-0.0075286,0.00017944,0.017164,-0.0498,-0.017689,-0.020457,0.022459,0.011417,0.0134,0.026249,-0.020377,0.10067,0.010523,0.0093448,0.013976,-0.045613
-0.012656,0.0084183,-0.00039893,0.0081859,-0.0036381,0.0059806,-0.023055,0.093564,0.00095252,0.00052477,0.020447,-0.05966,-0.021107,-0.029897,0.034087,0.027167,0.011232,0.025013,-0.021718,0.10128,0.0093369,0.010258,0.013618,-0.042882
-0.024691,0.01117,-0.0011053,-0.00074935,-0.0021121,0.005638,-0.021495,0.086874,0.017473,0.003681,0.022389,-0.063908,-0.027016,-0.034188,0.045196,0.042604,0.012562,0.021535,-0.017618,0.097123,0.0094398,0.011242,0.0095267,-0.038256
-0.031747,0.01352,-0.0027567,-0.010293,-0.00077251,0.0050026,-0.016316,0.078639,0.041454,0.010156,0.021212,-0.059756,-0.033084,-0.030412,0.057822,0.055125,0.016547,0.017742,-0.010857,0.092227,0.010858,0.013051,0.0034319,-0.030038
-0.031861,0.01547,-0.0038507,-0.01743,0.0003211,0.0048548,-0.0086198,0.071936,0.06795,0.017689,0.017545,-0.049101,-0.036204,-0.020861,0.071563,0.061245,0.02073,0.01563,-0.0050948,0.090777,0.012662,0.01568,-0.0019106,-0.018809
-0.026491,0.01677,-0.0031702,-0.020112,0.0013624,0.0056576,-0.0010788,0.067835,0.089017,0.022793,0.013723,-0.037324,-0.034985,-0.011034,0.082632,0.057052,0.023391,0.015732,-0.0021153,0.09454,0.013263,0.018244,-0.0046017,-0.0073445
-0.019775,0.017322,-0.00082861,-0.018214,0.0022205,0.0068823,0.0034383,0.064998,0.097649,0.02329,0.011882,-0.029963,-0.03099,-0.0053296,0.08608,0.039548,0.024771,0.016588,-0.00081869,0.10153,0.011353,0.019751,-0.0044865,0.0010405
-0.01591,0.017358,0.0018512,-0.013645,0.0022321,0.0073349,0.0036464,0.061123,0.091925,0.019864,0.012601,-0.029535,-0.027599,-0.0040208,0.079769,0.0084104,0.026273,0.015757,0.0014545,0.10699,0.0067378,0.020071,-0.0026177,0.004563
-0.016379,0.017267,0.0034796,-0.0094623,0.00078848,0.0061412,0.00084764,0.055007,0.076432,0.015534,0.014989,-0.034417,-0.027463,-0.0038468,0.066643,-0.032818,0.028734,0.011656,0.0064826,0.10645,0.00035597,0.020089,-0.00012588,0.0040754
-0.019034,0.017352,0.0037791,-0.0081816,-0.0017696,0.0035712,-0.0017285,0.04774,0.059698,0.013643,0.017641,-0.04023,-0.030741,-0.0014587,0.052924,-0.077173,0.031532,0.0048478,0.013576,0.098777,-0.0065545,0.020779,0.0023648,0.0025374
-0.019779,0.017798,0.0038535,-0.010168,-0.0039453,0.0010924,-0.0010462,0.042252,0.049049,0.015933,0.019373,-0.042739,-0.035573,0.0034269,0.043377,-0.11651,0.033222,-0.0022135,0.020057,0.08695,-0.01343,0.02208,0.0044315,0.003195
-0.015597,0.018803,0.0053781,-0.013399,-0.0040209,0.00060541,0.0035596,0.041421,0.046288,0.02197,0.01946,-0.040498,-0.040182,0.0079382,0.037649,-0.14439,0.032779,-0.0067477,0.023338,0.075801,-0.020623,0.02275,0.005335,0.0075501
-0.0066871,0.020573,0.0093438,-0.015162,-0.0014422,0.0033202,0.0098339,0.045906,0.047152,0.029925,0.017835,-0.035652,-0.044548,0.0090273,0.031054,-0.15793,0.030176,-0.0073566,0.022893,0.068444,-0.028636,0.021498,0.0041759,0.014391
0.0037818,0.023088,0.015212,-0.014528,0.0026227,0.008925,0.01427,0.053192,0.044918,0.037839,0.015473,-0.032287,-0.050135,0.0067354,0.019318,-0.15783,0.025973,-0.0046923,0.020554,0.064244,-0.036961,0.018377,0.00080928,0.02065
0.011851,0.025921,0.020993,-0.013409,0.0061588,0.015551,0.014809,0.058796,0.035579,0.044421,0.01432,-0.03332,-0.058049,0.0046333,0.0031541,-0.1472,0.020662,-0.00072179,0.019008,0.059875,-0.043627,0.015124,-0.0034047,0.023732
0.015067,0.028443,0.024223,-0.01498,0.0078875,0.020613,0.012414,0.059063,0.020934,0.049137,0.016138,-0.038107,-0.067446,0.0068531,-0.011524,-0.13041,0.014585,0.0028025,0.019789,0.052479,-0.046135,0.014025,-0.0060652,0.023788
0.013288,0.030257,0.023398,-0.02063,0.0081509,0.022108,0.010224,0.053556,0.0075557,0.051978,0.020842,-0.042717,-0.07574,0.014286,-0.018172,-0.11224,0.0083301,0.0055824,0.022378,0.04229,-0.043347,0.016258,-0.0054321,0.024119
0.0079485,0.031379,0.019153,-0.02826,0.0083655,0.019656,0.011016,0.045064,0.0025515,0.053292,0.02593,-0.042883,-0.080451,0.023427,-0.015048,-0.096843,0.0029015,0.0088792,0.024925,0.032697,-0.036827,0.02111,-0.0020694,0.029059
0.000934,0.031887,0.014387,-0.033639,0.0096596,0.014692,0.015153,0.03712,0.0090876,0.053676,0.028061,-0.037375,-0.081055,0.029042,-0.0066995,-0.085952,-0.00075542,0.014388,0.025775,0.027769,-0.03024,0.026583,0.0011539,0.040636
-0.0059268,0.031492,0.012891,-0.033753,0.01196,0.0097272,0.020656,0.031133,0.024463,0.053683,0.025763,-0.029002,-0.079261,0.02839,-0.00013189,-0.077615,-0.0024336,0.022616,0.024485,0.029198,-0.026882,0.030758,0.0010648,0.056478
-0.010889,0.02974,0.016947,-0.02912,0.014183,0.0071194,0.025042,0.025775,0.041601,0.053379,0.020887,-0.022344,-0.077517,0.023287,0.001021,-0.067076,-0.0027205,0.031938,0.021701,0.034892,-0.027149,0.032766,-0.0032369,0.070744
-0.012674,0.026927,0.025433,-0.023029,0.015077,0.0080323,0.02708,0.019161,0.052772,0.052216,0.017287,-0.020144,-0.077038,0.018296,-0.00073388,-0.050225,-0.0022037,0.039158,0.018344,0.040233,-0.028188,0.032838,-0.0093845,0.077618
-0.011381,0.024748,0.034054,-0.018577,0.013867,0.012058,0.027027,0.01162,0.053387,0.049569,0.017692,-0.021402,-0.077001,0.016828,0.00068487,-0.027317,-0.00058257,0.041416,0.015016,0.041069,-0.026282,0.031752,-0.013338,0.074975
-0.0089764,0.025576,0.038052,-0.016321,0.01041,0.017578,0.025617,0.0061115,0.044023,0.045609,0.021486,-0.022652,-0.075484,0.018716,0.0094737,-0.0036647,0.0032766,0.03818,0.012085,0.036336,-0.020143,0.030278,-0.012404,0.065655
-0.0082378,0.03048,0.035675,-0.014553,0.005222,0.022583,0.023279,0.0056254,0.029842,0.041577,0.025344,-0.021026,-0.071358,0.021213,0.024403,0.013918,0.010136,0.031804,0.010157,0.028483,-0.012236,0.028909,-0.007253,0.055565
-0.010524,0.037615,0.029632,-0.011477,-0.00040287,0.025534,0.020422,0.010024,0.017745,0.038922,0.026061,-0.016362,-0.065562,0.022095,0.040025,0.022367,0.019062,0.026086,0.010225,0.021476,-0.006864,0.027807,-0.0012707,0.05008
-0.014273,0.042796,0.025095,-0.0069015,-0.0045643,0.02589,0.018114,0.015629,0.012674,0.037898,0.023043,-0.010763,-0.060736,0.021706,0.051165,0.024876,0.027379,0.023787,0.013176,0.017941,-0.0065736,0.026862,0.0021495,0.051228
-0.01597,0.042344,0.025603,-0.0019178,-0.0056984,0.024116,0.017884,0.018243,0.015004,0.037037,0.018422,-0.0064701,-0.059442,0.022119,0.056549,0.028302,0.032296,0.02495,0.018962,0.017613,-0.010024,0.025923,0.0020861,0.057305
-0.013165,0.03607,0.03023,0.0026836,-0.0038887,0.021251,0.020429,0.016825,0.020575,0.03428,0.015016,-0.0041416,-0.062283,0.024514,0.058701,0.037477,0.033013,0.027295,0.026142,0.018199,-0.013172,0.025146,0.00035719,0.064666
-0.0068978,0.027778,0.034529,0.007261,-0.0012594,0.018346,0.024558,0.014122,0.023521,0.028927,0.014169,-0.0028471,-0.067329,0.027612,0.060833,0.051188,0.031484,0.028361,0.032365,0.017739,-0.012659,0.025132,-0.00038984,0.070116
-0.0010936,0.022524,0.034588,0.012523,-0.00057424,0.016112,0.027774,0.013487,0.020224,0.022588,0.015223,-0.001219,-0.071281,0.028739,0.063975,0.063189,0.031053,0.027666,0.035667,0.01637,-0.0083715,0.02653,0.0011048,0.072311
0.00083461,0.022742,0.030714,0.018162,-0.0028571,0.014887,0.028276,0.014966,0.011846,0.018074,0.016654,0.0016436,-0.071579,0.026442,0.066856,0.067357,0.033997,0.027192,0.03579,0.01596,-0.0030665,0.029288,0.0040883,0.071705
-0.00082737,0.026447,0.027457,0.02267,-0.0061798,0.014746,0.026532,0.014724,0.0036834,0.017163,0.017454,0.0062099,-0.067934,0.022017,0.068074,0.062791,0.040006,0.029857,0.034487,0.018044,0.00027142,0.032244,0.0070035,0.069631
-0.0021866,0.029066,0.029822,0.02473,-0.0070742,0.015519,0.024825,0.008725,0.0017447,0.019304,0.017524,0.01291,-0.062242,0.018463,0.067963,0.054909,0.046728,0.037186,0.034331,0.022028,0.00076082,0.033625,0.0090967,0.067394
0.00077568,0.027288,0.038857,0.024723,-0.003629,0.016728,0.025131,-0.0026736,0.0088469,0.022451,0.017101,0.021946,-0.057058,0.017865,0.068201,0.051899,0.051669,0.04796,0.036676,0.025383,-0.00025321,0.032216,0.010865,0.0658
0.0084706,0.021646,0.050395,0.024642,0.0025119,0.017685,0.027411,-0.013765,0.022795,0.025081,0.016154,0.032448,-0.053884,0.0197,0.069729,0.059286,0.053686,0.05878,0.040296,0.025731,-0.00084811,0.028266,0.013141,0.064989
0.017229,0.01572,0.058018,0.026311,0.007296,0.017889,0.029968,-0.017504,0.037666,0.027244,0.014461,0.041996,-0.052592,0.021543,0.071346,0.0764,0.052989,0.066023,0.04202,0.022923,4.3398e-006,0.023337,0.015965,0.064351
0.022597,0.012892,0.057807,0.029671,0.0077214,0.017455,0.031393,-0.011209,0.047104,0.029614,0.012154,0.047485,-0.052247,0.021398,0.070643,0.096909,0.050203,0.067765,0.039169,0.019107,0.002404,0.019229,0.018443,0.062551
0.023318,0.013637,0.051013,0.032905,0.0044574,0.01712,0.032005,0.00099449,0.047439,0.03168,0.0099396,0.047117,-0.052344,0.019434,0.066509,0.11288,0.045814,0.064414,0.031993,0.01659,0.0063546,0.016859,0.019638,0.05793
0.022205,0.01561,0.042711,0.034387,0.0011152,0.017674,0.033278,0.011151,0.038946,0.031263,0.0086228,0.041994,-0.053193,0.017674,0.060685,0.11969,0.040536,0.05786,0.023945,0.015396,0.012068,0.015928,0.019519,0.049342
0.023073,0.016155,0.037828,0.034508,0.00081039,0.019264,0.03593,0.013373,0.025007,0.026184,0.0083514,0.035728,-0.055073,0.018167,0.05667,0.11878,0.035779,0.049959,0.019297,0.012974,0.019334,0.015402,0.019038,0.037085
0.026756,0.014751,0.037884,0.035495,0.0033232,0.021213,0.038768,0.0078537,0.010155,0.016552,0.0084091,0.031994,-0.057157,0.021487,0.056803,0.11637,0.033159,0.04152,0.019835,0.0067149,0.026985,0.014226,0.019359,0.023208
0.030167,0.013231,0.040831,0.039238,0.0056337,0.022501,0.039622,1.0226e-005,-0.0018001,0.0053043,0.0078797,0.031818,-0.057587,0.026852,0.060182,0.119,0.033197,0.032479,0.023411,-0.0027261,0.033524,0.011761,0.020964,0.010737
0.029419,0.013797,0.043564,0.045196,0.0052875,0.022449,0.03749,-0.0041394,-0.0088902,-0.0037782,0.0066342,0.032945,-0.055052,0.033471,0.063368,0.12877,0.034607,0.022983,0.02571,-0.010524,0.038541,0.007898,0.023313,0.0021306
0.02396,0.01681,0.044611,0.050508,0.0031711,0.020974,0.033701,-0.0024925,-0.011299,-0.0088368,0.0056584,0.032094,-0.050564,0.041537,0.063236,0.1417,0.035262,0.014384,0.023863,-0.010716,0.043295,0.0031265,0.025173,-0.0020334
0.017567,0.020346,0.044728,0.052365,0.0027829,0.018362,0.030884,0.0020625,-0.011064,-0.010977,0.006237,0.028384,-0.047602,0.051807,0.059367,0.15071,0.034238,0.0090868,0.018919,-0.0012314,0.049538,-0.0014532,0.025332,-0.0031277
0.014973,0.021805,0.045322,0.050482,0.0066007,0.015041,0.030702,0.0043819,-0.011255,-0.012766,0.008561,0.024946,-0.049994,0.064192,0.05395,0.15097,0.032962,0.0090648,0.015048,0.013273,0.05752,-0.0044519,0.02336,-0.003208
0.01726,0.020103,0.046518,0.047277,0.013189,0.01168,0.032576,0.0011812,-0.014703,-0.015813,0.01101,0.026991,-0.058912,0.076864,0.049568,0.14373,0.034145,0.014014,0.016103,0.023794,0.065276,-0.0049567,0.020086,-0.00342
0.020544,0.016587,0.046797,0.04549,0.018127,0.0093396,0.034541,-0.0065684,-0.022626,-0.019766,0.010982,0.037602,-0.071354,0.086889,0.047164,0.13534,0.039297,0.02077,0.022383,0.023375,0.070113,-0.003261,0.017399,-0.0033802
0.019459,0.013971,0.044467,0.045511,0.018066,0.0090952,0.035259,-0.014473,-0.033881,-0.02343,0.0068959,0.054629,-0.081462,0.091943,0.045984,0.13233,0.047126,0.024901,0.030232,0.012622,0.070991,-0.00080753,0.017149,-0.001972
0.012374,0.014233,0.039473,0.045057,0.013987,0.011128,0.03508,-0.017888,-0.045496,-0.026564,-0.00013154,0.071329,-0.083879,0.091646,0.04513,0.13617,0.054398,0.023712,0.034725,-0.0004278,0.069466,0.00086832,0.019671,0.0012506
0.0034303,0.017171,0.033796,0.041632,0.010336,0.014155,0.035185,-0.01503,-0.054417,-0.030347,-0.0064148,0.080424,-0.076862,0.08743,0.04481,0.14218,0.058563,0.018469,0.033264,-0.0064396,0.068268,0.0014084,0.023112,0.0053247
-0.00069217,0.020733,0.030051,0.035415,0.01073,0.016076,0.035888,-0.0079356,-0.059416,-0.036066,-0.0078472,0.078546,-0.063228,0.081211,0.045898,0.14336,0.059744,0.013848,0.027289,-0.0021799,0.068885,0.0019151,0.024547,0.008373
0.0035137,0.022749,0.029538,0.029624,0.014394,0.015595,0.036094,-0.00084862,-0.06178,-0.043455,-0.0027065,0.067916,-0.048749,0.074102,0.048411,0.13606,0.060279,0.014682,0.021,0.0069706,0.070452,0.0038201,0.022398,0.0087901
0.013334,0.022591,0.031454,0.027761,0.016879,0.013393,0.034612,0.002588,-0.064152,-0.050488,0.0068733,0.054451,-0.039153,0.066152,0.050704,0.12307,0.062264,0.02227,0.018276,0.011623,0.070771,0.007291,0.018184,0.0061476
0.02217,0.021364,0.033853,0.030235,0.014408,0.011584,0.031909,0.0013556,-0.06835,-0.054932,0.015923,0.044058,-0.037353,0.057048,0.05046,0.11166,0.065406,0.033152,0.020194,0.0063437,0.068241,0.010762,0.015723,0.0013395
0.025055,0.020589,0.035329,0.033695,0.0076259,0.011784,0.030181,-0.0028282,-0.073835,-0.056261,0.019613,0.039725,-0.042172,0.046918,0.046683,0.10839,0.067193,0.041383,0.024789,-0.0057214,0.062858,0.012254,0.017935,-0.0038347
0.022348,0.020645,0.035836,0.033892,0.0010415,0.013595,0.031241,-0.0069693,-0.078105,-0.056221,0.016297,0.040806,-0.049105,0.036527,0.040827,0.11475,0.065215,0.042627,0.028889,-0.015435,0.055754,0.011413,0.023851,-0.0072997
0.018439,0.020454,0.036005,0.029478,-0.0013023,0.015066,0.034147,-0.008604,-0.078764,-0.057589,0.0086166,0.044217,-0.052777,0.026823,0.035891,0.1268,0.059518,0.037032,0.030405,-0.015201,0.048304,0.010279,0.028728,-0.007458
0.01705,0.018664,0.035836,0.023077,0.0002539,0.014753,0.035201,-0.0069136,-0.075709,-0.062233,0.0018943,0.046405,-0.049883,0.01827,0.034194,0.13833,0.052827,0.028911,0.029369,-0.0050598,0.04188,0.011828,0.027727,-0.0039972
0.017731,0.015177,0.034272,0.01855,0.0012204,0.013329,0.03091,-0.0028577,-0.071757,-0.070017,0.00076758,0.045145,-0.040831,0.010295,0.035665,0.14469,0.048464,0.023794,0.02726,0.0075881,0.038075,0.017368,0.020247,0.0016976
0.01679,0.011559,0.030217,0.017136,-0.0029603,0.013081,0.021527,0.0014325,-0.071231,-0.079164,0.0062494,0.040582,-0.028964,0.00099348,0.038075,0.14443,0.047822,0.025136,0.025494,0.014036,0.038405,0.025125,0.011007,0.0071291
0.011546,0.0099505,0.024056,0.016328,-0.012879,0.015678,0.011754,0.003683,-0.077459,-0.087456,0.015187,0.035093,-0.017867,-0.012779,0.038959,0.1384,0.049622,0.032732,0.024484,0.01086,0.043141,0.031408,0.0065142,0.010226
0.0036554,0.011481,0.018034,0.012712,-0.024791,0.020379,0.0074557,0.0026272,-0.090895,-0.093209,0.022503,0.031829,-0.0089233,-0.034655,0.037596,0.12815,0.051475,0.043299,0.023904,0.00187,0.050337,0.033464,0.0097047,0.010762
-0.0017082,0.015541,0.01484,0.0059767,-0.0339,0.024468,0.010883,-0.0011852,-0.10901,-0.095518,0.02462,0.032505,-0.0011008,-0.067208,0.0354,0.11542,0.052165,0.05228,0.023576,-0.0055282,0.056369,0.03155,0.017447,0.010339
-0.00011823,0.020302,0.015442,-6.6867e-005,-0.038018,0.025543,0.018573,-0.0054697,-0.12797,-0.094126,0.021616,0.035917,0.0069935,-0.11013,0.03443,0.10254,0.052569,0.055751,0.023855,-0.0060343,0.057947,0.028444,0.023248,0.010712
0.0083134,0.023793,0.018073,-0.00076476,-0.038427,0.023515,0.023968,-0.007338,-0.14487,-0.089479,0.016611,0.038472,0.014939,-0.15919,0.035283,0.09233,0.054474,0.051797,0.025032,0.00025413,0.053959,0.026891,0.022895,0.011822
0.018989,0.02465,0.01947,0.0047427,-0.037773,0.020454,0.022643,-0.0048987,-0.15912,-0.082985,0.013079,0.03662,0.020471,-0.20702,0.036208,0.086921,0.058565,0.041164,0.026445,0.0088359,0.045556,0.027287,0.018004,0.011414
0.026576,0.022347,0.017494,0.012046,-0.037497,0.018533,0.015711,0.0016835,-0.17207,-0.076885,0.012343,0.029364,0.021708,-0.24573,0.034327,0.086231,0.063468,0.026957,0.026482,0.014482,0.034605,0.027565,0.014284,0.0068372
0.029086,0.017334,0.012984,0.014827,-0.037209,0.01807,0.0085072,0.010322,-0.18504,-0.07325,0.013169,0.0188,0.01937,-0.27014,0.028052,0.088048,0.066577,0.013237,0.023826,0.014526,0.022166,0.025252,0.016102,-0.002341
0.02887,0.011257,0.0091862,0.010183,-0.03604,0.017511,0.0058986,0.018127,-0.19714,-0.072438,0.013512,0.0082855,0.016598,-0.27987,0.018763,0.089961,0.065693,0.0029761,0.018905,0.0098231,0.0084411,0.019761,0.02234,-0.013175
0.029984,0.0067777,0.0090885,0.0011531,-0.034072,0.015283,0.0084086,0.022728,-0.20467,-0.072241,0.012668,-5.0097e-005,0.016324,-0.27888,0.010214,0.091446,0.059921,-0.0033876,0.013973,0.0035372,-0.006109,0.012963,0.027259,-0.020773
0.034517,0.0064403,0.012859,-0.0058014,-0.03229,0.011659,0.012447,0.023126,-0.20295,-0.0688,0.011928,-0.0062516,0.018659,-0.27275,0.0059965,0.093911,0.049308,-0.0076521,0.011344,-0.00085171,-0.019941,0.0077114,0.02551,-0.021352
0.041062,0.010949,0.01758,-0.0060694,-0.031402,0.0088161,0.014071,0.019914,-0.18971,-0.059093,0.013326,-0.011366,0.020892,-0.26543,0.0069867,0.098421,0.034108,-0.011893,0.011134,-0.001069,-0.030906,0.0057294,0.016704,-0.014648
0.046335,0.018178,0.019579,-0.00036333,-0.031103,0.0089847,0.01257,0.014979,-0.16769,-0.043347,0.017728,-0.015661,0.020192,-0.2573,0.010789,0.10332,0.014838,-0.016421,0.01069,0.0033144,-0.037504,0.0066569,0.0055678,-0.0039937
0.048108,0.024108,0.017392,0.0063322,-0.030683,0.012354,0.01059,0.010744,-0.14417,-0.025431,0.023958,-0.01818,0.016459,-0.24597,0.013636,0.10441,-0.0068401,-0.019497,0.0066328,0.010968,-0.039686,0.0088026,-0.0021377,0.0057995
0.046704,0.025407,0.012835,0.0090451,-0.030218,0.016653,0.010919,0.00904,-0.12735,-0.010642,0.029592,-0.017973,0.012623,-0.22897,0.013233,0.097932,-0.027645,-0.019191,-0.0019953,0.019374,-0.038613,0.01068,-0.0040561,0.011153
0.043925,0.021766,0.009301,0.00657,-0.030816,0.018812,0.01326,0.010084,-0.12187,-0.0023733,0.032627,-0.015466,0.012182,-0.2067,0.010345,0.083927,-0.043706,-0.015712,-0.012265,0.025739,-0.035936,0.011909,-0.0022528,0.011325
0.040781,0.01604,0.0088281,0.0018749,-0.033447,0.017318,0.014195,0.012351,-0.12667,-0.00014658,0.032646,-0.012299,0.016367,-0.18369,0.0080052,0.066624,-0.052747,-0.011939,-0.019202,0.028038,-0.033368,0.01288,-0.00043473,0.0082182
0.036417,0.011912,0.010522,-0.00060612,-0.037573,0.013358,0.010455,0.01383,-0.13652,-0.00046883,0.030697,-0.0097016,0.02357,-0.16744,0.0091667,0.05129,-0.055651,-0.011378,-0.01965,0.025794,-0.032569,0.013767,-0.00035937,0.004849
0.029296,0.010964,0.011586,0.0017304,-0.041186,0.0099028,0.0023653,0.014017,-0.14559,0.00031687,0.028269,-0.0071598,0.031263,-0.16524,0.014744,0.040099,-0.05585,-0.01523,-0.014868,0.020213,-0.034792,0.013973,-0.00069987,0.0034828
0.019402,0.011663,0.0098572,0.0081748,-0.042536,0.0095949,-0.0058159,0.015064,-0.15013,0.0035768,0.026335,-0.0029773,0.038265,-0.1805,0.023514,0.030629,-0.056789,-0.021239,-0.0095153,0.013519,-0.040124,0.01256,0.0010153,0.0043995
0.009209,0.011117,0.0055294,0.015595,-0.041943,0.013045,-0.0090815,0.020673,-0.1483,0.0081763,0.025153,0.0036146,0.045115,-0.20995,0.03367,0.018333,-0.059461,-0.025508,-0.007772,0.0078032,-0.047024,0.0092408,0.0055969,0.0059121
0.0022992,0.0079885,0.00068437,0.020567,-0.041734,0.018611,-0.0055599,0.033038,-0.13857,0.012263,0.024679,0.010844,0.052477,-0.2435,0.044441,0.00083709,-0.062023,-0.025737,-0.0099569,0.0040263,-0.052958,0.0050079,0.011196,0.0056941
0.00070448,0.0038688,-0.0026208,0.021246,-0.04397,0.023512,0.0022683,0.049955,-0.11902,0.015121,0.024879,0.015073,0.059575,-0.26741,0.056224,-0.019607,-0.061708,-0.022988,-0.012605,0.001789,-0.05599,0.0017793,0.014812,0.0026963
0.0032339,0.0017946,-0.0037897,0.018123,-0.047922,0.025366,0.0098423,0.064735,-0.089021,0.01742,0.025477,0.013494,0.064482,-0.27003,0.069107,-0.037541,-0.057343,-0.020391,-0.011901,4.7674e-005,-0.056073,0.0012724,0.01469,-0.0016645
0.0062137,0.0032868,-0.0034807,0.013622,-0.049818,0.023316,0.013997,0.069791,-0.052045,0.01999,0.025434,0.0066655,0.065942,-0.24775,0.081197,-0.048291,-0.050411,-0.020067,-0.0073808,-0.0016816,-0.054893,0.0039413,0.011436,-0.0041403
0.0060821,0.0067119,-0.0023553,0.010856,-0.045594,0.018355,0.014595,0.061938,-0.016461,0.022641,0.023033,-0.0013134,0.064756,-0.20759,0.088529,-0.051258,-0.043991,-0.021159,-0.0025768,-0.0024928,-0.054396,0.0087169,0.0071219,-0.0019503
0.0018587,0.0085862,-0.00030733,0.012063,-0.034562,0.012852,0.013361,0.045615,0.0072384,0.024253,0.017023,-0.0053298,0.063212,-0.16439,0.086982,-0.050071,-0.040667,-0.020767,-0.0020159,-0.00034513,-0.055332,0.013602,0.0034741,0.0048751
-0.0042806,0.0066898,0.003036,0.017415,-0.020735,0.0094031,0.011685,0.031109,0.011743,0.023813,0.0081875,-0.0026454,0.063137,-0.13333,0.074835,-0.049865,-0.041055,-0.016795,-0.0071986,0.0065712,-0.057012,0.016551,0.00085071,0.013054
-0.0086171,0.0021215,0.0072229,0.024911,-0.010303,0.0094378,0.0097891,0.028253,-0.00268,0.021092,-0.00013665,0.0053579,0.064572,-0.12184,0.053827,-0.054136,-0.043801,-0.010013,-0.015081,0.018132,-0.058219,0.01609,-0.001336,0.018131
-0.0084596,-0.0016361,0.010632,0.031514,-0.0070894,0.012322,0.0077823,0.039611,-0.027849,0.016272,-0.0036237,0.01432,0.066366,-0.12559,0.027794,-0.063553,-0.046705,-0.0035013,-0.020406,0.031389,-0.058168,0.011668,-0.0034837,0.017628
-0.0039096,-0.0018149,0.011432,0.034888,-0.0096934,0.015688,0.0068622,0.058097,-0.051906,0.0092693,3.856e-005,0.020012,0.067944,-0.13103,6.2455e-005,-0.077058,-0.048036,-0.00013603,-0.019936,0.041332,-0.056658,0.0040314,-0.0051611,0.012857
0.0022809,0.0012034,0.0090897,0.034571,-0.012744,0.016982,0.0087801,0.071265,-0.065576,-7.2673e-005,0.0089017,0.02105,0.070236,-0.12297,-0.028055,-0.093521,-0.047381,-0.00042305,-0.015004,0.043222,-0.053652,-0.0044596,-0.0054607,0.007899
0.0065554,0.0043371,0.0050959,0.031865,-0.011188,0.015213,0.013776,0.069622,-0.066516,-0.010846,0.017353,0.019251,0.074631,-0.092791,-0.056277,-0.11193,-0.045719,-0.0024103,-0.010271,0.035391,-0.049158,-0.010263,-0.0038446,0.0065285
0.0068006,0.0047146,0.002205,0.028724,-0.0040045,0.011529,0.019247,0.053131,-0.059139,-0.020391,0.019627,0.017523,0.080873,-0.042389,-0.082912,-0.12982,-0.044762,-0.0033997,-0.0097506,0.020835,-0.043714,-0.010337,-0.00067757,0.0094156
0.0034869,0.0023663,0.0026514,0.026568,0.0056377,0.0081224,0.021061,0.031084,-0.050378,-0.025389,0.013857,0.017164,0.086148,0.017815,-0.10359,-0.14202,-0.045765,-0.0018334,-0.013472,0.0062479,-0.038763,-0.0043557,0.0028979,0.013749
-0.00099945,0.0002156,0.0065468,0.025787,0.013529,0.006362,0.016824,0.015383,-0.04459,-0.024288,0.0035612,0.016869,0.086744,0.07515,-0.11302,-0.14182,-0.048457,0.0019638,-0.017566,-0.0014598,-0.036008,0.004367,0.0055295,0.015507
-0.0042445,0.0013335,0.011562,0.025873,0.017872,0.0058039,0.0082095,0.012281,-0.041188,-0.018929,-0.0047707,0.014291,0.081312,0.12108,-0.10881,-0.125,-0.050918,0.0062644,-0.01765,0.0006643,-0.035936,0.010591,0.0063015,0.012594
-0.0054792,0.0059156,0.014224,0.025703,0.020123,0.0049097,3.7925e-005,0.018693,-0.036377,-0.013566,-0.0062998,0.0087455,0.073034,0.15416,-0.094175,-0.09356,-0.050723,0.0089496,-0.012604,0.0095118,-0.036911,0.010729,0.0052201,0.0064284
-0.0058326,0.010744,0.012154,0.023726,0.022944,0.0027415,-0.0033224,0.025493,-0.027135,-0.011747,-0.0011879,0.0026304,0.068463,0.17876,-0.0767,-0.055689,-0.046666,0.0084981,-0.0055185,0.017752,-0.036115,0.0055527,0.0033246,0.00082202
-0.0071034,0.011737,0.0058374,0.018383,0.027616,-6.5825e-006,-0.0011644,0.024725,-0.013947,-0.01364,0.0058502,0.00019438,0.073421,0.2013,-0.063537,-0.020745,-0.039641,0.0047733,-0.001057,0.018843,-0.031927,-0.00037547,0.0021903,-0.00087309
-0.010135,0.0074831,-0.0014224,0.0090422,0.033346,-0.0016196,0.0033993,0.01497,-8.72e-005,-0.01614,0.0093598,0.0045763,0.088801,0.22696,-0.056624,0.007152,-0.031866,-0.00062993,-0.0015254,0.01184,-0.02567,-0.0023476,0.0028809,0.001974
-0.014108,0.00072882,-0.005633,-0.0029574,0.03875,-0.001018,0.0062416,0.0011156,0.01167,-0.015658,0.007312,0.015476,0.1095,0.25823,-0.05186,0.031569,-0.025085,-0.0049247,-0.0050132,0.0022613,-0.020808,0.00074463,0.0050026,0.0073679
-0.017248,-0.0034811,-0.0049742,-0.014214,0.043612,0.0011122,0.0054464,-0.010395,0.021743,-0.011152,0.0024543,0.029226,0.12742,0.29549,-0.042994,0.05962,-0.019429,-0.0056418,-0.0071172,-0.0020289,-0.019931,0.0057267,0.0067765,0.012845
-0.018282,-0.0015477,-0.0012079,-0.020795,0.049018,0.0027623,0.0023928,-0.016465,0.033291,-0.0048532,-2.3973e-005,0.041061,0.13641,0.33813,-0.027034,0.094306,-0.01398,-0.0022496,-0.0046883,0.0029898,-0.022137,0.0080794,0.006387,0.017602
-0.017462,0.0060352,0.0016632,-0.0207,0.055926,0.0022145,0.0002254,-0.018659,0.048978,-0.0002144,0.0034699,0.047798,0.13567,0.38529,-0.0066419,0.12985,-0.0083768,0.0034851,0.0015986,0.0141,-0.023451,0.0059184,0.0036599,0.022594
-0.016396,0.015104,0.00058221,-0.015405,0.063991,-0.00058371,0.001292,-0.020704,0.067934,0.0010099,0.012338,0.049225,0.1295,0.43594,0.012297,0.15437,-0.0036379,0.0089591,0.0079021,0.02312,-0.020283,0.0015985,0.00055813,0.028596
-0.016902,0.020779,-0.0041063,-0.0090467,0.072125,-0.0039951,0.0055219,-0.024978,0.085834,0.00013316,0.02248,0.047673,0.12419,0.48846,0.025542,0.15794,-0.0012,0.012939,0.010341,0.023144,-0.012952,-0.00033748,-0.00017437,0.034254
-0.019781,0.020565,-0.0090162,-0.0055978,0.08022,-0.0059235,0.010613,-0.030937,0.09822,0.00036791,0.029477,0.046394,0.1245,0.54025,0.033423,0.13952,-0.0010829,0.016552,0.0078788,0.013708,-0.0058983,0.0029754,0.0027599,0.036295
-0.024331,0.01545,-0.010586,-0.0061413,0.089987,-0.0052116,0.013607,-0.036179,0.10419,0.0042007,0.031627,0.047673,0.13198,0.5877,0.039488,0.10703,-0.0012156,0.022055,0.0027468,0.00073541,-0.0040413,0.010284,0.0080007,0.032032
-0.028847,0.0086596,-0.0079758,-0.0083932,0.10365,-0.0021353,0.012804,-0.038564,0.10714,0.011397,0.030504,0.05141,0.14519,0.62688,0.046575,0.071133,0.0010727,0.03045,-0.0015474,-0.0084652,-0.008329,0.01711,0.012442,0.022025
-0.031686,0.0034397,-0.0035655,-0.0087993,0.12159,0.0022024,0.0090063,-0.037449,0.11168,0.0191,0.028889,0.054864,0.16084,0.65463,0.054172,0.03823,0.006603,0.040153,-0.0026629,-0.010779,-0.014527,0.019138,0.013563,0.01044
-0.032187,0.0014842,-0.00080635,-0.0054761,0.1414,0.0068531,0.0053192,-0.033434,0.11958,0.023894,0.028056,0.054036,0.17483,0.66926,0.059402,0.0083443,0.013289,0.048017,-0.00041987,-0.008873,-0.016551,0.015406,0.011282,0.002609
-0.030947,0.0026792,-0.0014368,0.00029686,0.15958,0.01146,0.0053614,-0.02751,0.12812,0.024323,0.026817,0.046386,0.18315,0.6703,0.060294,-0.021311,0.017641,0.051755,0.0039115,-0.0079242,-0.011582,0.0089433,0.0078747,0.0017323
-0.029336,0.0057248,-0.0043876,0.0050083,0.17433,0.015842,0.01073,-0.020698,0.13257,0.02202,0.023007,0.033239,0.18319,0.65744,0.057891,-0.051303,0.017591,0.051516,0.008805,-0.010772,-0.00256,0.0045381,0.0061496,0.0072906
-0.02862,0.0089134,-0.0069985,0.0053331,0.18638,0.019307,0.019441,-0.01434,0.13052,0.020601,0.015876,0.01978,0.17483,0.63031,0.05509,-0.078278,0.014136,0.049222,0.012983,-0.015671,0.0041388,0.0054125,0.0073892,0.016154
-0.029272,0.010756,-0.0072108,0.00020795,0.19677,0.020573,0.026791,-0.010292,0.12424,0.023046,0.0070971,0.01193,0.16051,0.59001,0.053459,-0.097585,0.010365,0.046471,0.015276,-0.018123,0.0038175,0.011209,0.010594,0.025126
-0.030873,0.01053,-0.0048956,-0.0086615,0.20385,0.018661,0.028419,-0.010295,0.11903,0.029468,-0.00048418,0.012031,0.14332,0.54169,0.051294,-0.10716,0.0088308,0.043115,0.014758,-0.014685,-0.0029662,0.018592,0.013415,0.032768
-0.032594,0.0087092,-0.0015716,-0.017826,0.20294,0.014074,0.023383,-0.014753,0.11893,0.037011,-0.0050449,0.016768,0.1246,0.49555,0.04493,-0.10886,0.0096271,0.03784,0.011573,-0.0054593,-0.011226,0.023812,0.013896,0.039352
-0.033823,0.0068992,0.0008499,-0.023823,0.18991,0.0090695,0.014773,-0.021939,0.12362,0.042047,-0.0067767,0.01939,0.10294,0.46392,0.032074,-0.10657,0.010782,0.030013,0.0076574,0.00629,-0.015778,0.025219,0.011728,0.045487
-0.034461,0.0069587,0.0012002,-0.024785,0.16571,0.0064295,0.0072814,-0.028507,0.12892,0.043111,-0.0068691,0.014778,0.075931,0.455,0.013939,-0.10339,0.01042,0.020888,0.0061254,0.016386,-0.015111,0.02392,0.0082271,0.05085
-0.03476,0.0096311,-0.00050105,-0.021347,0.13728,0.0074883,0.0037267,-0.031212,0.13048,0.042342,-0.0057531,0.0033332,0.04318,0.46711,-0.0059294,-0.10095,0.0086591,0.012959,0.009196,0.02181,-0.011764,0.022301,0.0052884,0.05407
-0.034953,0.013676,-0.0032037,-0.016444,0.11338,0.011062,0.0034034,-0.028733,0.12726,0.044329,-0.0025817,-0.0095399,0.0079519,0.48785,-0.025006,-0.10087,0.0075611,0.0081125,0.016224,0.021504,-0.0093428,0.021774,0.0041702,0.053705
-0.035016,0.016394,-0.0053306,-0.013736,0.098754,0.01436,0.0034598,-0.022333,0.12189,0.053212,0.0034657,-0.017887,-0.024463,0.4996,-0.044004,-0.10625,0.009253,0.0063228,0.023751,0.016216,-0.009144,0.021653,0.0049562,0.049486
-0.034683,0.015455,-0.005514,-0.015173,0.091479,0.015247,0.0017759,-0.014908,0.11794,0.070146,0.011468,-0.019808,-0.050448,0.48831,-0.065561,-0.12036,0.013895,0.006005,0.027905,0.0081218,-0.0093979,0.020039,0.006866,0.042893
-0.033621,0.010769,-0.0034095,-0.019174,0.085881,0.013925,-0.0013332,-0.0091387,0.1166,0.092794,0.018574,-0.018433,-0.070641,0.45028,-0.090334,-0.14318,0.019273,0.0055502,0.027243,0.00035948,-0.0075113,0.015915,0.0089486,0.036538
-0.031649,0.0048798,-0.00012813,-0.021141,0.077902,0.012466,-0.0038991,-0.0060365,0.11585,0.11689,0.021772,-0.01875,-0.089,0.39273,-0.1141,-0.16866,0.022385,0.0045821,0.023557,-0.003912,-0.002949,0.010581,0.010555,0.032652
-0.028972,0.0013876,0.002252,-0.016576,0.068086,0.012621,-0.0044384,-0.0048659,0.11274,0.13849,0.020101,-0.023278,-0.10908,0.32885,-0.12896,-0.18597,0.02174,0.0039071,0.019926,-0.0029407,0.002008,0.0070464,0.011388,0.031621
-0.026344,0.0024354,0.0020853,-0.0048274,0.059886,0.013953,-0.0032194,-0.0043596,0.1068,0.15552,0.015305,-0.030254,-0.13072,0.27089,-0.12829,-0.18493,0.018494,0.0044137,0.017881,0.0025054,0.0042451,0.0076976,0.011388,0.031779
-0.0249,0.0071433,-0.00041475,0.0096139,0.055569,0.014146,-0.0015705,-0.0041822,0.10124,0.16798,0.010419,-0.035454,-0.15,0.22599,-0.11177,-0.16223,0.015515,0.0060404,0.016323,0.0093694,0.0025614,0.01209,0.010737,0.030899
-0.025495,0.012206,-0.0029624,0.019794,0.05388,0.011287,-0.00020717,-0.0054218,0.1008,0.17737,0.0076304,-0.035622,-0.16231,0.19644,-0.086318,-0.1237,0.015145,0.007701,0.01312,0.014057,-0.0014053,0.01684,0.0099196,0.028386
-0.027859,0.014224,-0.0027094,0.021233,0.051342,0.005958,0.001564,-0.0096434,0.10767,0.1859,0.0072015,-0.03046,-0.16572,0.18241,-0.061901,-0.080708,0.017452,0.0081055,0.0076291,0.014627,-0.0048337,0.017987,0.0095354,0.026255
-0.030303,0.01203,0.0014377,0.015197,0.045412,0.0011066,0.0049467,-0.017173,0.11882,0.19565,0.0080434,-0.021939,-0.16163,0.18418,-0.045169,-0.042907,0.020302,0.0066778,0.0016157,0.011828,-0.006256,0.01411,0.009864,0.027619
-0.030535,0.0073204,0.0075347,0.0075142,0.036334,-0.00031253,0.010012,-0.025952,0.12728,0.20763,0.0090311,-0.012284,-0.1527,0.20148,-0.035633,-0.012661,0.021065,0.0038185,-0.0022733,0.0082341,-0.0065298,0.0076779,0.010601,0.033605
-0.027246,0.0032664,0.011659,0.0038574,0.026431,0.0022285,0.015004,-0.032004,0.12677,0.22102,0.0097665,-0.0028051,-0.14044,0.23112,-0.026973,0.014751,0.018456,0.00041656,-0.002836,0.0061851,-0.0074176,0.0033702,0.011198,0.041378
-0.021294,0.002257,0.010811,0.0055052,0.018185,0.0065393,0.01737,-0.031445,0.11653,0.23295,0.010387,0.0055887,-0.12509,0.26549,-0.012231,0.045455,0.013086,-0.0028596,-0.0011128,0.0061416,-0.0093247,0.0045586,0.011591,0.045484
-0.015359,0.0044233,0.0054791,0.0091721,0.013043,0.0097698,0.015674,-0.022868,0.10289,0.23945,0.011026,0.01142,-0.1078,0.29379,0.011035,0.080413,0.0065015,-0.0058576,0.00096736,0.0066239,-0.01059,0.010709,0.01251,0.041889
-0.012099,0.0078432,-0.00032494,0.010846,0.011393,0.010834,0.010773,-0.0085467,0.096239,0.23737,0.011635,0.012868,-0.092352,0.30557,0.039031,0.11333,-0.00019001,-0.0086338,0.0024934,0.0055755,-0.0091891,0.017769,0.014814,0.031427
-0.012183,0.010045,-0.0018864,0.0099659,0.012673,0.010954,0.005236,0.0064549,0.1052,0.22623,0.012209,0.0093924,-0.084112,0.29409,0.063977,0.13479,-0.006864,-0.010924,0.004009,0.0019822,-0.0052665,0.021188,0.018324,0.019479
-0.013811,0.0096261,0.0025871,0.010051,0.014987,0.011957,0.0014493,0.016877,0.13179,0.20877,0.012888,0.0030841,-0.086624,0.25798,0.0782,0.13936,-0.013774,-0.011991,0.0061879,-0.0033743,-0.0018821,0.019128,0.021344,0.011861
-0.014233,0.0069366,0.01042,0.015218,0.014971,0.014121,-0.00011449,0.020055,0.1702,0.18986,0.013641,-0.0021058,-0.098861,0.20115,0.077463,0.12992,-0.02063,-0.011104,0.0084116,-0.0083018,-0.0029117,0.013381,0.021607,0.010288
-0.012115,0.0035534,0.016332,0.025857,0.0090979,0.01572,-0.0011303,0.017166,0.20975,0.17386,0.013935,-0.0032407,-0.11586,0.13206,0.062224,0.11591,-0.026393,-0.0082889,0.0090051,-0.010236,-0.0097505,0.0075442,0.01801,0.011331
-0.0088139,0.0010784,0.016275,0.0375,-0.0038527,0.014657,-0.0039645,0.012126,0.2399,0.16243,0.012983,-0.0010714,-0.13238,0.062614,0.037136,0.10686,-0.030015,-0.0046366,0.0070182,-0.0073317,-0.019815,0.0042002,0.011603,0.0097578
-0.0074189,0.00011911,0.010186,0.043952,-0.021171,0.010522,-0.0096163,0.0088197,0.25442,0.15381,0.010567,0.00015325,-0.14641,0.0054705,0.0094614,0.10638,-0.03134,-0.0017561,0.0036336,0.0006947,-0.028385,0.0034296,0.0048574,0.0033621
-0.010229,7.0327e-005,0.0015551,0.041926,-0.037354,0.0050155,-0.016637,0.0085526,0.25288,0.14457,0.0076398,-0.003825,-0.15961,-0.030803,-0.013251,0.11082,-0.031222,-0.00073941,0.0014895,0.012137,-0.032299,0.0035714,-0.0001913,-0.0048939
-0.016637,-0.00027354,-0.0055894,0.033193,-0.04765,0.00036874,-0.021929,0.0094912,0.23922,0.13231,0.0058234,-0.013096,-0.1745,-0.046516,-0.025898,0.11299,-0.030702,-0.0015179,0.0023094,0.023591,-0.032276,0.0031903,-0.0033154,-0.0091996
-0.023209,-0.001777,-0.0095908,0.022629,-0.051288,-0.0026321,-0.022929,0.0085004,0.21896,0.11768,0.0059677,-0.022408,-0.19122,-0.051626,-0.027895,0.10736,-0.030014,-0.0032062,0.0050809,0.031238,-0.031868,0.0023901,-0.0058264,-0.0056475
-0.026054,-0.0043354,-0.011642,0.014247,-0.05164,-0.0050619,-0.019529,0.0039733,0.19663,0.10397,0.0070456,-0.024536,-0.20642,-0.060273,-0.023064,0.092833,-0.028445,-0.005104,0.0066758,0.032815,-0.034125,0.0024719,-0.0090683,0.0045748
-0.023735,-0.0069049,-0.013852,0.0087932,-0.053072,-0.0083826,-0.014197,-0.0025446,0.1747,0.094702,0.0066663,-0.015947,-0.21502,-0.0819,-0.016774,0.071586,-0.02522,-0.0073477,0.0045048,0.029096,-0.039074,0.0044907,-0.013137,0.016077
-0.018407,-0.0080767,-0.017,0.0046908,-0.057136,-0.012647,-0.010105,-0.0072408,0.15383,0.091062,0.0030986,-0.00029151,-0.21298,-0.11548,-0.011949,0.046074,-0.020629,-0.010513,-0.0011823,0.023603,-0.044128,0.0081178,-0.016923,0.02331
-0.014154,-0.0068306,-0.020013,0.00079335,-0.06134,-0.016201,-0.0087539,-0.0067416,0.13376,0.091277,-0.0028866,0.013338,-0.19906,-0.15166,-0.0068995,0.017025,-0.01629,-0.014553,-0.0074237,0.020302,-0.046719,0.011745,-0.019238,0.024362
-0.013733,-0.0031344,-0.02134,-0.0020874,-0.061466,-0.017141,-0.0090604,-0.00049061,0.11394,0.092161,-0.0082045,0.016387,-0.17496,-0.18126,0.0030889,-0.015887,-0.014209,-0.018213,-0.010887,0.020713,-0.046498,0.013599,-0.019812,0.021607
-0.016337,0.0018218,-0.020551,-0.0023803,-0.055365,-0.015014,-0.0086544,0.0090109,0.093706,0.091375,-0.0098416,0.0066853,-0.1447,-0.20289,0.021427,-0.051576,-0.015411,-0.01972,-0.01022,0.022675,-0.045169,0.012849,-0.019263,0.019087
-0.018276,0.0059278,-0.018591,-0.000201,-0.044991,-0.011127,-0.0061635,0.018089,0.072402,0.088461,-0.0075025,-0.010167,-0.11377,-0.22327,0.046495,-0.08559,-0.019311,-0.018254,-0.006446,0.022011,-0.044514,0.0099038,-0.018261,0.019152
-0.016097,0.0070719,-0.016635,0.0017868,-0.03511,-0.0073139,-0.0023844,0.024219,0.04994,0.084071,-0.0040768,-0.024815,-0.08778,-0.25034,0.071468,-0.11064,-0.024368,-0.014871,-0.0014753,0.016075,-0.044747,0.005927,-0.01688,0.021114
-0.0095605,0.0043856,-0.014944,0.0003087,-0.029973,-0.0045072,0.00067536,0.027022,0.027557,0.078539,-0.003256,-0.030488,-0.070065,-0.2859,0.087822,-0.11988,-0.02936,-0.011921,0.0034552,0.0064473,-0.044694,0.0021887,-0.014789,0.022664
-0.0019346,-0.00094953,-0.012957,-0.0055254,-0.030774,-0.0024948,0.0018503,0.027593,0.0080861,0.071296,-0.0062208,-0.02709,-0.058894,-0.32472,0.089848,-0.11125,-0.034089,-0.011356,0.0079303,-0.0015147,-0.043291,-0.00023983,-0.01201,0.022411
0.0026852,-0.0061155,-0.01043,-0.013171,-0.03566,-0.0008504,0.001914,0.027195,-0.0048511,0.061502,-0.010351,-0.020433,-0.046626,-0.36093,0.077047,-0.090332,-0.03885,-0.013336,0.011407,-0.0022704,-0.040663,-0.00052676,-0.0093457,0.021216
0.0027421,-0.0083074,-0.0082629,-0.018758,-0.0417,0.00015206,0.0026936,0.026472,-0.0085406,0.048901,-0.01129,-0.017656,-0.022741,-0.39509,0.053271,-0.06953,-0.043272,-0.016264,0.012738,0.0056832,-0.037775,0.0017576,-0.0079551,0.021365
0.00040367,-0.0065538,-0.0079991,-0.020457,-0.046808,-0.00032575,0.0051723,0.025396,-0.0027441,0.03393,-0.0067416,-0.022355,0.019829,-0.4347,0.023892,-0.063458,-0.045802,-0.018168,0.011091,0.0181,-0.035228,0.0062558,-0.0083892,0.024572
-0.00039963,-0.0022937,-0.010333,-0.019913,-0.050209,-0.0026909,0.0085038,0.02344,0.009927,0.017193,0.0012859,-0.032704,0.078809,-0.48672,-0.0067489,-0.082718,-0.044614,-0.01824,0.0073914,0.027204,-0.032585,0.011623,-0.009941,0.030607
0.0026583,0.0018081,-0.014061,-0.020404,-0.051769,-0.0061774,0.010859,0.019741,0.025147,-0.00072392,0.0078332,-0.043364,0.14168,-0.5483,-0.0363,-0.12921,-0.039319,-0.017346,0.0044827,0.026483,-0.028885,0.015983,-0.010947,0.037568
0.0083723,0.0038474,-0.016629,-0.023574,-0.05148,-0.0091801,0.01118,0.013575,0.038839,-0.018645,0.008869,-0.049416,0.19144,-0.60423,-0.063878,-0.19528,-0.031953,-0.017218,0.0052876,0.014859,-0.023718,0.017944,-0.0099467,0.043306
0.01299,0.0038214,-0.016005,-0.027928,-0.049746,-0.010387,0.010098,0.0053539,0.048793,-0.034254,0.0043772,-0.049499,0.2159,-0.63432,-0.088945,-0.26668,-0.026117,-0.019035,0.010305,-0.0025781,-0.017797,0.017411,-0.0069401,0.046719
0.013071,0.0030683,-0.01238,-0.030463,-0.047813,-0.0096898,0.0092239,-0.0025842,0.055135,-0.044796,-0.0019646,-0.046232,0.21438,-0.62539,-0.11026,-0.3275,-0.024673,-0.022445,0.016739,-0.017772,-0.012569,0.015462,-0.0038047,0.047967
0.007817,0.0027187,-0.0082155,-0.029707,-0.047287,-0.0081172,0.0096105,-0.0066012,0.059611,-0.048987,-0.0060732,-0.043991,0.19712,-0.57937,-0.1253,-0.36473,-0.027672,-0.025726,0.020287,-0.024731,-0.0093434,0.013354,-0.003362,0.047672
-0.00075964,0.0026891,-0.0065362,-0.027214,-0.048743,-0.006971,0.010874,-0.0040845,0.064407,-0.048453,-0.0066582,-0.045731,0.17797,-0.51161,-0.13046,-0.37147,-0.032155,-0.026971,0.018269,-0.023001,-0.0086091,0.011541,-0.007462,0.045983
-0.0094909,0.0020681,-0.0087944,-0.026196,-0.050727,-0.0069492,0.011675,0.0040204,0.07128,-0.047033,-0.005502,-0.051044,0.16568,-0.44159,-0.12265,-0.34834,-0.034064,-0.025512,0.011538,-0.017311,-0.0098225,0.0096129,-0.015308,0.042403
-0.015952,0.00028635,-0.014024,-0.028779,-0.050508,-0.0079063,0.010981,0.012781,0.081282,-0.048211,-0.004859,-0.056675,0.16004,-0.38308,-0.10179,-0.30315,-0.030935,-0.022528,0.0036675,-0.013799,-0.011547,0.0071436,-0.023387,0.036624
-0.01933,-0.0022551,-0.019842,-0.034437,-0.046379,-0.0092465,0.0089895,0.01595,0.094769,-0.052977,-0.004762,-0.059037,0.1551,-0.33983,-0.072863,-0.2487,-0.0235,-0.020268,-0.0017475,-0.015668,-0.011897,0.0045292,-0.027423,0.0297
-0.020181,-0.0047048,-0.024278,-0.040757,-0.039586,-0.010461,0.0070171,0.010154,0.11124,-0.060218,-0.0030293,-0.056856,0.14634,-0.30785,-0.045297,-0.19856,-0.015158,-0.020329,-0.0034053,-0.021402,-0.0093588,0.0028964,-0.025204,0.024412
-0.019759,-0.0067109,-0.026806,-0.045431,-0.033929,-0.011367,0.0065705,-0.0025604,0.12903,-0.069195,0.0020108,-0.052009,0.13583,-0.28052,-0.028899,-0.1626,-0.0097601,-0.022313,-0.0025796,-0.026586,-0.0037381,0.0031141,-0.018208,0.024076
-0.019393,-0.0086218,-0.027886,-0.047608,-0.032985,-0.011998,0.008302,-0.01599,0.14557,-0.081394,0.0088963,-0.047963,0.13173,-0.25262,-0.028353,-0.14406,-0.0092127,-0.024067,-0.0015998,-0.02757,0.0034451,0.0048865,-0.010627,0.030233
-0.01995,-0.010679,-0.027828,-0.047802,-0.037202,-0.012405,0.011545,-0.024097,0.15857,-0.099449,0.013406,-0.047056,0.14279,-0.22156,-0.040092,-0.13982,-0.012412,-0.023488,-0.0020771,-0.023979,0.0097357,0.0068604,-0.0064159,0.040898
-0.021352,-0.012221,-0.026366,-0.047004,-0.043485,-0.012615,0.014717,-0.025176,0.16765,-0.12385,0.011957,-0.048734,0.17242,-0.18715,-0.05433,-0.14317,-0.016091,-0.020436,-0.0041664,-0.018385,0.013369,0.0076794,-0.0066058,0.051086
-0.022475,-0.012059,-0.023364,-0.045984,-0.047808,-0.012774,0.016336,-0.022752,0.17498,-0.15066,0.0049619,-0.050079,0.21639,-0.15129,-0.061204,-0.1472,-0.016965,-0.017068,-0.0069585,-0.013979,0.014506,0.0069889,-0.0089656,0.055812
-0.021782,-0.0099235,-0.019686,-0.045021,-0.04858,-0.013251,0.015951,-0.02263,0.1837,-0.17296,-0.0031468,-0.048128,0.2653,-0.11775,-0.056581,-0.14676,-0.013798,-0.016191,-0.0092652,-0.012507,0.014988,0.0054768,-0.010137,0.053632
-0.018405,-0.0075013,-0.016988,-0.04378,-0.047712,-0.014491,0.014245,-0.028459,0.19488,-0.18513,-0.007544,-0.042123,0.30931,-0.091533,-0.043273,-0.13875,-0.0081598,-0.018994,-0.010182,-0.013982,0.0168,0.0040205,-0.0083662,0.047871
-0.012806,-0.0076713,-0.016406,-0.041305,-0.048413,-0.016609,0.012174,-0.039075,0.2055,-0.1864,-0.0071474,-0.033976,0.34172,-0.077607,-0.027302,-0.12214,-0.003455,-0.024076,-0.0093587,-0.017755,0.020612,0.002851,-0.0045985,0.044199
-0.0063623,-0.0122,-0.017479,-0.036536,-0.051888,-0.019011,0.0098952,-0.049291,0.20961,-0.1805,-0.0054823,-0.026767,0.3598,-0.079896,-0.013034,-0.098533,-0.0028595,-0.028524,-0.007129,-0.02346,0.025595,0.0015129,-0.0012636,0.046077
-0.00024719,-0.019839,-0.018583,-0.029375,-0.056131,-0.020457,0.0065779,-0.053179,0.20237,-0.17195,-0.0074172,-0.022664,0.36344,-0.10084,-0.0014912,-0.073023,-0.0073954,-0.030043,-0.0044616,-0.030974,0.030457,-0.00050139,-2.5508e-005,0.051622
0.00521,-0.026714,-0.018609,-0.021425,-0.058016,-0.01971,0.0014702,-0.047431,0.18378,-0.16267,-0.014711,-0.022004,0.3536,-0.14099,0.007446,-0.053512,-0.015225,-0.028368,-0.0025699,-0.03991,0.03449,-0.0032257,-0.00049054,0.054613
0.010015,-0.028965,-0.018119,-0.015365,-0.056578,-0.016428,-0.0046783,-0.032956,0.15867,-0.15201,-0.024442,-0.024126,0.33194,-0.19769,0.012282,-0.047572,-0.022513,-0.025004,-0.0022741,-0.049544,0.037759,-0.0063318,-0.00082716,0.049149
0.013482,-0.025579,-0.018661,-0.013027,-0.054213,-0.011588,-0.0093249,-0.014381,0.13266,-0.14,-0.031717,-0.028844,0.30142,-0.26324,0.010237,-0.058218,-0.025364,-0.021805,-0.0035417,-0.059247,0.040616,-0.0095935,0.00046877,0.03449
0.01411,-0.019051,-0.020763,-0.013764,-0.054559,-0.0069732,-0.0096204,0.0018395,0.10741,-0.13002,-0.034096,-0.036856,0.26688,-0.32461,0.00059581,-0.081617,-0.021803,-0.019656,-0.0055878,-0.068583,0.043392,-0.012999,0.0033061,0.016257
0.010946,-0.013382,-0.022701,-0.014693,-0.059083,-0.0040307,-0.0046912,0.0098948,0.079314,-0.12805,-0.033583,-0.048415,0.23452,-0.36714,-0.012763,-0.10889,-0.01279,-0.01811,-0.0074592,-0.076612,0.046559,-0.016283,0.0062589,0.0029232
0.0053176,-0.011158,-0.02156,-0.01283,-0.065685,-0.0030276,0.0032099,0.0070577,0.042939,-0.1386,-0.03442,-0.061513,0.21023,-0.38177,-0.023124,-0.1311,-0.0017465,-0.015932,-0.0086288,-0.081123,0.050767,-0.01848,0.0079577,0.00013023
0.00099706,-0.01213,-0.015843,-0.0072828,-0.070621,-0.003208,0.0098725,-0.0047987,-0.0039399,-0.16131,-0.038907,-0.071734,0.19766,-0.37174,-0.026061,-0.14382,0.0071932,-0.011985,-0.0091747,-0.079106,0.056263,-0.018314,0.0082731,0.0069879
0.0020085,-0.014221,-0.0072454,0.00034241,-0.071857,-0.0037384,0.011919,-0.019706,-0.058316,-0.19127,-0.045296,-0.074665,0.1968,-0.35352,-0.023192,-0.14804,0.011278,-0.0059664,-0.0095437,-0.068747,0.062165,-0.015427,0.0082871,0.016948
0.0095461,-0.01575,0.000233,0.0074439,-0.070672,-0.0044603,0.009075,-0.030539,-0.11464,-0.22304,-0.04966,-0.069262,0.20433,-0.34958,-0.020723,-0.14712,0.010414,0.0011941,-0.010222,-0.051528,0.066653,-0.011374,0.0092319,0.022395
0.020627,-0.01678,0.003223,0.012265,-0.070139,-0.0057053,0.0040862,-0.033127,-0.16954,-0.25468,-0.049756,-0.059182,0.21556,-0.37624,-0.023875,-0.14304,0.0068736,0.0074384,-0.011568,-0.032486,0.06838,-0.0091662,0.01148,0.019533
0.029894,-0.018555,0.0014372,0.014522,-0.072129,-0.0074634,0.00032409,-0.028878,-0.22392,-0.28808,-0.047033,-0.050402,0.22719,-0.43412,-0.032372,-0.13503,0.003655,0.010379,-0.013741,-0.018002,0.067821,-0.011263,0.014478,0.010276
0.033324,-0.021823,-0.0024908,0.014758,-0.075737,-0.008924,-0.0009445,-0.023765,-0.28053,-0.32517,-0.044929,-0.046652,0.23894,-0.50704,-0.041087,-0.12153,0.0025774,0.0086758,-0.016532,-0.012476,0.066972,-0.017491,0.017505,0.00023277
0.030913,-0.025759,-0.0055289,0.013585,-0.078477,-0.009022,-0.0013328,-0.024007,-0.33948,-0.36296,-0.045324,-0.046421,0.25257,-0.57005,-0.044911,-0.1027,0.0033821,0.0032518,-0.019099,-0.016127,0.067305,-0.024742,0.02036,-0.0053921
0.026216,-0.028452,-0.0067471,0.011652,-0.078831,-0.0075008,-0.0034996,-0.031448,-0.39601,-0.39174,-0.046753,-0.04425,0.26892,-0.60086,-0.04284,-0.080955,0.0043737,-0.0027091,-0.019965,-0.025206,0.067934,-0.029,0.023267,-0.0050932
0.023298,-0.028394,-0.0075219,0.0099813,-0.077602,-0.0053779,-0.0083219,-0.04212,-0.44267,-0.39826,-0.046021,-0.035454,0.28532,-0.58794,-0.037427,-0.058815,0.0040457,-0.0054519,-0.017637,-0.034247,0.066118,-0.028205,0.026178,-0.0015866
0.02374,-0.025566,-0.0094183,0.0097313,-0.076868,-0.004253,-0.013626,-0.049188,-0.47368,-0.3727,-0.041439,-0.020331,0.29619,-0.53211,-0.03068,-0.036479,0.0024406,-0.0031404,-0.01172,-0.03892,0.060018,-0.023641,0.028318,0.00038649
0.02602,-0.021251,-0.011977,0.011179,-0.077751,-0.0050524,-0.015721,-0.048026,-0.4872,-0.3156,-0.034368,-0.004203,0.29707,-0.44348,-0.021211,-0.011805,0.0012184,0.0026888,-0.0037428,-0.038055,0.051144,-0.018737,0.028544,-0.0027024
0.027399,-0.016943,-0.012752,0.012899,-0.079287,-0.0073455,-0.012504,-0.039553,-0.48381,-0.24051,-0.027697,0.0068928,0.28885,-0.33755,-0.0060688,0.016967,0.0023695,0.0080376,0.0032012,-0.034005,0.043818,-0.016382,0.026273,-0.010959
0.026321,-0.013474,-0.0097242,0.012294,-0.079462,-0.0097773,-0.0054357,-0.029425,-0.46347,-0.16963,-0.02301,0.011313,0.27799,-0.23244,0.014327,0.048076,0.0065208,0.0092309,0.0061352,-0.031152,0.041737,-0.017064,0.022145,-0.021081
0.02332,-0.01104,-0.0037902,0.0074802,-0.077317,-0.011124,0.001407,-0.023966,-0.42484,-0.12344,-0.019411,0.013456,0.27156,-0.14589,0.033301,0.075608,0.012127,0.0054543,0.0042329,-0.033089,0.044631,-0.019211,0.017778,-0.028371
0.020056,-0.0097926,0.0012878,-0.00083714,-0.074057,-0.011043,0.0044317,-0.026081,-0.3683,-0.10931,-0.015079,0.020479,0.27074,-0.090862,0.040744,0.092267,0.016242,-0.00095844,-0.00033336,-0.039931,0.048234,-0.021031,0.014769,-0.029391
0.017802,-0.010064,0.0017503,-0.0092093,-0.072157,-0.010042,0.003156,-0.034006,-0.29952,-0.11625,-0.0097542,0.036609,0.2684,-0.071072,0.029992,0.093611,0.016406,-0.0065904,-0.0035795,-0.047633,0.047773,-0.021965,0.013675,-0.023738
0.016809,-0.011854,-0.0029488,-0.013456,-0.073358,-0.0089414,0.00017429,-0.043275,-0.22931,-0.1207,-0.0055056,0.059482,0.2533,-0.079879,0.0031016,0.08058,0.012336,-0.0094733,-0.0022854,-0.050341,0.041941,-0.022545,0.013753,-0.014138
0.016792,-0.014155,-0.009591,-0.011533,-0.077415,-0.0083804,-0.001342,-0.049991,-0.16853,-0.1013,-0.0049359,0.08132,0.21753,-0.1045,-0.030069,0.0583,0.0061669,-0.0099726,0.0038159,-0.044646,0.033829,-0.023159,0.013631,-0.0050756
0.017604,-0.015124,-0.013925,-0.0050709,-0.082597,-0.0086176,-0.00033939,-0.053005,-0.12193,-0.053216,-0.0086161,0.094012,0.16097,-0.13311,-0.058341,0.031892,0.0010474,-0.0096162,0.011806,-0.032708,0.028093,-0.023232,0.01244,-0.00084657
0.019242,-0.013323,-0.014218,0.0017287,-0.087292,-0.009529,0.0014669,-0.053859,-0.086544,0.0083294,-0.014267,0.094325,0.089634,-0.15944,-0.075906,0.0021743,-0.00089232,-0.0093766,0.01748,-0.02151,0.026955,-0.021662,0.010529,-0.0038865
0.021276,-0.0091295,-0.01237,0.0051124,-0.091147,-0.010646,0.0012868,-0.054993,-0.056475,0.058914,-0.018489,0.085565,0.01052,-0.18158,-0.083943,-0.035506,0.0002445,-0.0091766,0.018037,-0.018289,0.02852,-0.018006,0.0091609,-0.01386
0.022581,-0.0049247,-0.011642,0.0043824,-0.094847,-0.011268,-0.0023672,-0.057636,-0.030248,0.082546,-0.019415,0.074864,-0.07148,-0.19692,-0.086551,-0.087967,0.0025237,-0.0088435,0.013748,-0.025377,0.028671,-0.013222,0.009411,-0.027728
0.021969,-0.003596,-0.013313,0.0019984,-0.098958,-0.010772,-0.0085777,-0.060734,-0.013824,0.082748,-0.017855,0.06841,-0.15209,-0.19873,-0.085365,-0.15797,0.00375,-0.0091124,0.0075641,-0.038485,0.024683,-0.0092679,0.011194,-0.040891
0.019271,-0.0063466,-0.01554,0.0011115,-0.10311,-0.0090277,-0.014817,-0.061604,-0.016127,0.078404,-0.015968,0.068134,-0.22448,-0.1782,-0.078113,-0.23901,0.0029475,-0.011278,0.00307,-0.049894,0.017425,-0.0079561,0.01337,-0.049233
0.015812,-0.011556,-0.015489,0.0026568,-0.10623,-0.0066325,-0.018724,-0.057933,-0.040451,0.087899,-0.014774,0.071842,-0.27929,-0.1299,-0.062395,-0.31519,0.00070989,-0.015688,0.0022258,-0.054081,0.010447,-0.0099333,0.014912,-0.051251
0.013591,-0.015705,-0.012537,0.0045366,-0.10757,-0.0046764,-0.019467,-0.049756,-0.079093,0.11469,-0.012884,0.076085,-0.30895,-0.055592,-0.040781,-0.36752,-0.0016366,-0.020696,0.0043509,-0.051345,0.0069388,-0.014355,0.016019,-0.048974
0.013677,-0.015783,-0.0092625,0.0035825,-0.10731,-0.0041167,-0.017962,-0.039832,-0.1161,0.14604,-0.0076881,0.079199,-0.31253,0.036856,-0.02178,-0.38373,-0.003217,-0.023421,0.0068898,-0.046678,0.0071377,-0.019249,0.017938,-0.046681
0.01519,-0.011399,-0.0091131,-0.0015118,-0.10631,-0.0051866,-0.016103,-0.031852,-0.13638,0.16539,0.0019844,0.08221,-0.29641,0.13724,-0.014814,-0.3653,-0.0041796,-0.021904,0.0072835,-0.045075,0.0082451,-0.022273,0.021437,-0.047852
0.015863,-0.005086,-0.012964,-0.00894,-0.10519,-0.0072917,-0.015636,-0.027738,-0.13439,0.16692,0.014131,0.087187,-0.27035,0.23489,-0.022955,-0.32637,-0.0053312,-0.016775,0.0046132,-0.047285,0.0067804,-0.021637,0.025344,-0.052339
0.013857,-0.0005982,-0.017937,-0.015264,-0.10388,-0.0094666,-0.017243,-0.02627,-0.11635,0.15964,0.02447,0.094549,-0.24318,0.31751,-0.039674,-0.28443,-0.0072876,-0.010865,-1.4741e-005,-0.049441,0.0014469,-0.01693,0.026815,-0.056036
0.0093095,-0.00047806,-0.019805,-0.018145,-0.10189,-0.010995,-0.020249,-0.024337,-0.095163,0.15775,0.029382,0.10157,-0.22202,0.37094,-0.052782,-0.24902,-0.0098699,-0.0070353,-0.004378,-0.046692,-0.0057108,-0.0094883,0.023499,-0.053709
0.0042772,-0.0045351,-0.016873,-0.017811,-0.099122,-0.011675,-0.023076,-0.019753,-0.082419,0.16661,0.028469,0.10341,-0.21434,0.38409,-0.052672,-0.21667,-0.012162,-0.0061055,-0.0065092,-0.03763,-0.010684,-0.001929,0.0159,-0.043209
0.0011089,-0.010158,-0.011764,-0.016137,-0.096247,-0.011583,-0.02426,-0.013058,-0.082987,0.17739,0.024503,0.096099,-0.22812,0.35741,-0.03829,-0.17616,-0.013117,-0.0066678,-0.0055835,-0.025812,-0.010325,0.0031184,0.0077304,-0.027911
0.00066956,-0.014095,-0.0093708,-0.014569,-0.094132,-0.010692,-0.023412,-0.00665,-0.09465,0.1753,0.020805,0.079627,-0.26758,0.30692,-0.016354,-0.11961,-0.012275,-0.0068197,-0.0019818,-0.017174,-0.0045318,0.0044557,0.0035833,-0.015256
0.0019018,-0.014443,-0.012665,-0.01306,-0.092942,-0.00883,-0.021433,-0.0021728,-0.11155,0.15399,0.018427,0.058715,-0.32757,0.25734,0.0047831,-0.050274,-0.010179,-0.0061134,0.0031522,-0.015548,0.003707,0.003018,0.0055935,-0.012112
0.0029286,-0.011613,-0.020019,-0.010868,-0.091753,-0.0060697,-0.019785,0.0011852,-0.12827,0.12307,0.015709,0.040609,-0.39291,0.22695,0.020767,0.01936,-0.0082506,-0.0058641,0.0084005,-0.019938,0.010277,0.001275,0.01173,-0.020168
0.0025591,-0.007791,-0.026353,-0.0080267,-0.089144,-0.0030863,-0.019375,0.0057956,-0.14225,0.10214,0.010613,0.031071,-0.4458,0.21596,0.031637,0.077099,-0.0081223,-0.0075528,0.01245,-0.025666,0.012433,0.0016071,0.017183,-0.034721
0.00090879,-0.0053864,-0.027128,-0.00567,-0.084244,-0.00096024,-0.019966,0.013067,-0.15363,0.10627,0.0035392,0.031252,-0.47658,0.20885,0.037597,0.11944,-0.010695,-0.010922,0.014456,-0.028183,0.010177,0.0046922,0.017856,-0.047803
-0.0011205,-0.0055559,-0.021815,-0.0047964,-0.077242,-0.00044251,-0.020598,0.021916,-0.16365,0.13534,-0.0022849,0.037634,-0.48942,0.18976,0.035321,0.15158,-0.015428,-0.013726,0.014349,-0.026269,0.0058579,0.0090259,0.013329,-0.053405
-0.0027077,-0.0077105,-0.014081,-0.004905,-0.068973,-0.001308,-0.020605,0.029781,-0.17272,0.17522,-0.0035296,0.04503,-0.49785,0.15769,0.019374,0.17986,-0.020415,-0.013543,0.012812,-0.02206,0.0025208,0.011982,0.0071002,-0.051023
-0.0034874,-0.010195,-0.0087759,-0.004165,-0.060097,-0.0024429,-0.02028,0.035047,-0.17967,0.20899,-0.00023761,0.050345,-0.51395,0.12806,-0.011852,0.20459,-0.023402,-0.010024,0.010737,-0.018307,0.0021635,0.011713,0.0039933,-0.045115
-0.0033833,-0.011506,-0.0083946,-0.0011849,-0.050835,-0.0026581,-0.020557,0.038314,-0.18276,0.22826,0.0033486,0.054247,-0.53986,0.11889,-0.051124,0.22017,-0.023205,-0.005394,0.0084795,-0.01562,0.0048065,0.0085082,0.0067173,-0.041175
-0.0024628,-0.011138,-0.011827,0.0033039,-0.041555,-0.0015304,-0.021994,0.041205,-0.18162,0.23634,0.0018358,0.059687,-0.56811,0.13401,-0.083627,0.22216,-0.020533,-0.0026029,0.0055604,-0.012238,0.0087036,0.004552,0.014074,-0.041615
-0.0011418,-0.0095404,-0.016009,0.0065823,-0.03343,0.00044894,-0.02402,0.044052,-0.17842,0.24261,-0.006681,0.0688,-0.58921,0.15825,-0.094714,0.21373,-0.017519,-0.0027947,0.0011964,-0.0062707,0.011444,0.0022262,0.021978,-0.044553
-0.00037692,-0.0074715,-0.018668,0.0059484,-0.028181,0.0024686,-0.025187,0.045109,-0.17675,0.25397,-0.01833,0.08092,-0.59909,0.16853,-0.078662,0.20469,-0.016249,-0.0044568,-0.004723,0.0019706,0.011363,0.00225,0.026345,-0.046115
-0.0012641,-0.0054288,-0.019725,0.00091471,-0.02675,0.0041085,-0.024317,0.042389,-0.17878,0.27014,-0.025666,0.093141,-0.60068,0.15041,-0.041774,0.20394,-0.017412,-0.0050089,-0.011132,0.0098969,0.0085481,0.0031382,0.025633,-0.044061
-0.004068,-0.0036319,-0.020468,-0.0062144,-0.028029,0.0055298,-0.021581,0.036447,-0.18291,0.28468,-0.022771,0.10241,-0.59985,0.10529,0.0023965,0.21237,-0.020125,-0.0032413,-0.016363,0.01485,0.0048209,0.0024195,0.021311,-0.039636
-0.0075176,-0.0023728,-0.021673,-0.011756,-0.029005,0.0070959,-0.01855,0.031152,-0.18471,0.28886,-0.0092967,0.10684,-0.60055,0.043116,0.041724,0.22276,-0.022936,-0.00027518,-0.019415,0.016445,0.0025993,-0.0013625,0.016247,-0.036274
-0.0092617,-0.0021896,-0.022614,-0.012855,-0.026567,0.0089078,-0.017103,0.031198,-0.18066,0.27523,0.0095427,0.10516,-0.60332,-0.030425,0.071367,0.22669,-0.025,0.0017055,-0.020793,0.016856,0.0032465,-0.0074722,0.012579,-0.036511
-0.0074507,-0.0035679,-0.0218,-0.0089238,-0.019665,0.010687,-0.018058,0.038169,-0.172,0.23946,0.026635,0.095388,-0.60638,-0.11855,0.093009,0.22159,-0.026369,0.0014813,-0.022024,0.018886,0.0060454,-0.013542,0.010726,-0.039892
-0.0022923,-0.0064384,-0.018557,-0.0016095,-0.010065,0.011975,-0.020657,0.048609,-0.16498,0.18164,0.037178,0.074986,-0.60587,-0.2246,0.10943,0.21208,-0.027339,-0.00045714,-0.024144,0.023624,0.008673,-0.017356,0.009976,-0.043617
0.0037808,-0.0099995,-0.013853,0.0063301,-0.0010585,0.012341,-0.023349,0.056036,-0.16654,0.1069,0.0404,0.043197,-0.59399,-0.33868,0.11995,0.20527,-0.027771,-0.0029297,-0.026567,0.029711,0.0089978,-0.018391,0.0097162,-0.045171
0.0076567,-0.013083,-0.0096171,0.012401,0.0048208,0.011458,-0.025148,0.055519,-0.17876,0.024469,0.038256,0.0035354,-0.55776,-0.43398,0.12093,0.20538,-0.02724,-0.0054378,-0.02755,0.034672,0.0068849,-0.017965,0.010041,-0.04449
0.0076691,-0.01477,-0.0072709,0.015364,0.0072764,0.0091974,-0.026371,0.047239,-0.19624,-0.055679,0.032991,-0.036344,-0.48263,-0.4792,0.1103,0.21255,-0.025864,-0.0082798,-0.02607,0.037045,0.0044775,-0.018024,0.011377,-0.043828
0.0045906,-0.014782,-0.0068489,0.015539,0.0079466,0.0058525,-0.028091,0.036254,-0.20867,-0.12656,0.025856,-0.068223,-0.36102,-0.45894,0.091548,0.22593,-0.024769,-0.011421,-0.023356,0.037569,0.0045208,-0.019638,0.013759,-0.04562
0.00067686,-0.013464,-0.0073941,0.014365,0.0088617,0.0022311,-0.030816,0.028745,-0.20651,-0.18484,0.01761,-0.087871,-0.20026,-0.38571,0.072826,0.24645,-0.025415,-0.013665,-0.022309,0.038624,0.0079476,-0.022336,0.016585,-0.05034
-0.0023863,-0.011496,-0.0080919,0.013329,0.011045,-0.00074583,-0.03366,0.02777,-0.18564,-0.22702,0.009612,-0.096784,-0.022761,-0.29354,0.061323,0.27559,-0.028163,-0.013381,-0.02493,0.042453,0.012736,-0.024609,0.018996,-0.056072
-0.0048056,-0.0095758,-0.0090114,0.012804,0.014233,-0.0028419,-0.034791,0.031658,-0.14837,-0.24458,0.0039246,-0.099488,0.14355,-0.21758,0.057453,0.31111,-0.031419,-0.010215,-0.029969,0.04945,0.015143,-0.025025,0.020351,-0.059854
-0.0080838,-0.0081424,-0.010841,0.01157,0.017611,-0.004965,-0.032801,0.035905,-0.10127,-0.22407,0.0020758,-0.098741,0.27892,-0.17502,0.053933,0.34402,-0.032374,-0.005916,-0.033298,0.057643,0.012476,-0.023155,0.020299,-0.059438
-0.013066,-0.0071315,-0.014007,0.0075942,0.020729,-0.0085757,-0.027778,0.036751,-0.052108,-0.15486,0.0035833,-0.092927,0.38027,-0.16068,0.041002,0.36073,-0.028988,-0.0031325,-0.031192,0.063739,0.0052132,-0.019772,0.018533,-0.054235
-0.018504,-0.0059229,-0.018071,-0.00023774,0.023851,-0.014261,-0.021182,0.03368,-0.0074816,-0.040143,0.0057299,-0.078145,0.45889,-0.15839,0.01396,0.34953,-0.021732,-0.003084,-0.023805,0.065176,-0.0031825,-0.016348,0.014652,-0.045274
-0.021633,-0.0036954,-0.021918,-0.010684,0.027628,-0.020702,-0.014744,0.029299,0.028967,0.097772,0.005078,-0.053218,0.52994,-0.1578,-0.022845,0.30707,-0.013596,-0.0043734,-0.015543,0.061949,-0.0085647,-0.014184,0.0083801,-0.03474
-0.020459,-0.00016633,-0.024497,-0.02029,0.032473,-0.025207,-0.0094632,0.027174,0.057953,0.22399,-0.00025656,-0.023136,0.60217,-0.16438,-0.058677,0.24011,-0.0082463,-0.004303,-0.011612,0.056932,-0.0086827,-0.013679,-7.727e-005,-0.025405
-0.015757,0.0037653,-0.025427,-0.025368,0.038134,-0.025656,-0.0055116,0.029433,0.08443,0.30691,-0.0092587,0.0023704,0.67462,-0.19801,-0.083586,0.1619,-0.0076601,-0.0016954,-0.01361,0.054164,-0.0042261,-0.014173,-0.0098946,-0.019792
-0.010893,0.0061296,-0.02503,-0.02454,0.043714,-0.022275,-0.0028078,0.03563,0.11449,0.33337,-0.018676,0.014277,0.74038,-0.28401,-0.094593,0.085514,-0.01103,0.0014054,-0.018167,0.05597,0.0020717,-0.014531,-0.019785,-0.019037
-0.009391,0.0049815,-0.023921,-0.019905,0.04812,-0.017638,-0.0013596,0.04317,0.15007,0.31311,-0.025296,0.0094625,0.79153,-0.44325,-0.096716,0.018525,-0.015697,0.0010323,-0.019991,0.060906,0.007249,-0.014103,-0.028269,-0.022135
-0.012234,-0.00011088,-0.022591,-0.015782,0.050696,-0.014797,-0.00091944,0.048659,0.18547,0.27038,-0.028242,-0.0083254,0.82016,-0.68432,-0.099137,-0.038621,-0.019239,-0.005163,-0.016602,0.064345,0.0095355,-0.013312,-0.033941,-0.026431
-0.017214,-0.0072999,-0.021348,-0.015862,0.051657,-0.015136,-0.00051127,0.049381,0.20953,0.22938,-0.029594,-0.032068,0.81596,-0.99711,-0.11029,-0.090312,-0.020987,-0.01512,-0.010419,0.061795,0.0088165,-0.013263,-0.035863,-0.029297
-0.020924,-0.013194,-0.020537,-0.020913,0.052001,-0.017721,0.0012447,0.044444,0.21332,0.20328,-0.032845,-0.056321,0.76619,-1.3481,-0.13516,-0.14138,-0.021803,-0.023063,-0.0062979,0.052752,0.0063994,-0.014628,-0.034104,-0.029693
-0.021636,-0.014797,-0.020691,-0.028744,0.052863,-0.020496,0.004916,0.035316,0.19745,0.1925,-0.040207,-0.07938,0.66202,-1.6814,-0.17478,-0.19303,-0.022583,-0.023618,-0.0069139,0.041991,0.0044803,-0.016798,-0.030112,-0.028202
-0.020543,-0.011378,-0.022323,-0.03625,0.054778,-0.022028,0.0092529,0.025414,0.17227,0.1904,-0.050648,-0.1016,0.50821,-1.9302,-0.22556,-0.24126,-0.023022,-0.016207,-0.010355,0.036774,0.0053897,-0.018229,-0.026345,-0.025499
-0.020353,-0.004915,-0.025406,-0.041687,0.057475,-0.0223,0.011655,0.018552,0.15018,0.19018,-0.060089,-0.12215,0.3275,-2.0358,-0.27761,-0.27906,-0.021875,-0.0059704,-0.012123,0.041595,0.010573,-0.017807,-0.025063,-0.020861
-0.022634,0.0011642,-0.02897,-0.045302,0.060426,-0.022176,0.010115,0.016724,0.13645,0.18807,-0.063742,-0.13748,0.15322,-1.9676,-0.31452,-0.3016,-0.018377,-0.0001237,-0.0094904,0.054338,0.019632,-0.015953,-0.027022,-0.01242
-0.026423,0.0040056,-0.031302,-0.048138,0.063565,-0.022434,0.0051037,0.018494,0.12683,0.18244,-0.059121,-0.14306,0.013308,-1.7308,-0.31787,-0.31107,-0.013326,-0.0025125,-0.0040464,0.067052,0.030122,-0.014288,-0.031095,0.00080614
-0.029309,0.0026804,-0.030825,-0.05049,0.067313,-0.023375,-0.00033526,0.019362,0.11451,0.17202,-0.047768,-0.13669,-0.083295,-1.3604,-0.27652,-0.31697,-0.0086279,-0.010778,-0.00012614,0.071112,0.0386,-0.013999,-0.035225,0.016972
-0.029843,-0.0018484,-0.027192,-0.051623,0.071751,-0.025055,-0.0025904,0.014378,0.099451,0.15604,-0.034539,-0.1208,-0.1475,-0.90601,-0.19525,-0.32983,-0.0056829,-0.018454,-0.00084369,0.063087,0.042527,-0.014433,-0.037959,0.031671
-0.028866,-0.0077148,-0.021718,-0.05087,0.075836,-0.027467,-7.2676e-005,0.001568,0.091043,0.13621,-0.024858,-0.10179,-0.19793,-0.41739,-0.095591,-0.3515,-0.0042148,-0.020166,-0.0055408,0.046937,0.04187,-0.013403,-0.039253,0.040629
-0.028534,-0.01312,-0.016682,-0.048734,0.077807,-0.030251,0.0056363,-0.016121,0.10059,0.11789,-0.021683,-0.087263,-0.24586,0.06075,-0.006197,-0.36951,-0.0027377,-0.015555,-0.010824,0.03094,0.039255,-0.0090872,-0.039927,0.042752
-0.030071,-0.01674,-0.013893,-0.046709,0.076792,-0.032357,0.010903,-0.031982,0.13029,0.10836,-0.024073,-0.082899,-0.28883,0.48928,0.051863,-0.36178,-0.00017727,-0.0088987,-0.013816,0.021757,0.038427,-0.0018369,-0.040435,0.040847
-0.032546,-0.017787,-0.013596,-0.045993,0.074152,-0.032417,0.012474,-0.03939,0.16882,0.11242,-0.028161,-0.09062,-0.31671,0.83619,0.075339,-0.31108,0.0030329,-0.0051985,-0.014374,0.02013,0.041909,0.005833,-0.040252,0.039213
-0.033841,-0.016176,-0.014594,-0.046578,0.072952,-0.029895,0.0094094,-0.035967,0.19827,0.12848,-0.02975,-0.10832,-0.32317,1.0829,0.077807,-0.21961,0.0055072,-0.0063534,-0.014464,0.021212,0.049306,0.011077,-0.038567,0.040058
-0.032752,-0.012767,-0.01538,-0.047725,0.075608,-0.02602,0.003338,-0.025337,0.20658,0.14808,-0.026799,-0.13071,-0.31238,1.2314,0.078987,-0.11222,0.0065014,-0.010448,-0.015822,0.018823,0.057312,0.012709,-0.035611,0.041896
-0.030057,-0.0091993,-0.015193,-0.049233,0.081685,-0.023367,-0.0028468,-0.015118,0.1952,0.15999,-0.020289,-0.15081,-0.29612,1.3041,0.092591,-0.023387,0.006841,-0.014077,-0.018383,0.010079,0.061487,0.011643,-0.033237,0.041467
-0.027451,-0.007045,-0.014061,-0.051882,0.087983,-0.024053,-0.0067786,-0.012343,0.17609,0.15653,-0.013191,-0.16203,-0.28551,1.3349,0.12075,0.024211,0.0081938,-0.015106,-0.02071,-0.0029967,0.058791,0.0096614,-0.033971,0.037524
-0.025519,-0.0067762,-0.012047,-0.056344,0.091031,-0.027921,-0.0077752,-0.019327,0.16176,0.13815,-0.0084609,-0.16051,-0.28497,1.3549,0.15696,0.034434,0.011428,-0.013549,-0.021438,-0.015489,0.04943,0.0079183,-0.039196,0.032955
-0.022956,-0.0074787,-0.0087623,-0.06166,0.089804,-0.03242,-0.0068102,-0.032817,0.15721,0.1132,-0.0074629,-0.14656,-0.29278,1.3825,0.19284,0.03419,0.015717,-0.01049,-0.020051,-0.023023,0.036848,0.0065125,-0.048009,0.032882
-0.018021,-0.0077244,-0.0039056,-0.065184,0.086182,-0.034526,-0.0054721,-0.046962,0.15966,0.092728,-0.0096244,-0.12421,-0.30556,1.422,0.22257,0.05383,0.01923,-0.0068007,-0.016555,-0.023887,0.025784,0.0051262,-0.057726,0.040009
-0.010884,-0.0069199,0.0017324,-0.064473,0.082848,-0.033256,-0.0046555,-0.057759,0.1641,0.083359,-0.013165,-0.098491,-0.3215,1.4695,0.24254,0.10576,0.02066,-0.0030544,-0.011028,-0.018913,0.01948,0.0036431,-0.065601,0.051271
-0.0043427,-0.0058707,0.0061253,-0.0595,0.080733,-0.030622,-0.0039193,-0.06546,0.16804,0.082938,-0.016054,-0.072305,-0.33938,1.5177,0.24889,0.17692,0.020114,-0.00024006,-0.0038635,-0.010299,0.017807,0.0020246,-0.070337,0.059218
-0.0017887,-0.0059411,0.0073624,-0.052903,0.078488,-0.030119,-0.002056,-0.073112,0.17141,0.081822,-0.016558,-0.04499,-0.35593,1.5591,0.23707,0.23978,0.018713,0.00011431,0.0036797,-0.0009197,0.017616,-0.00012603,-0.072311,0.057617
-0.0039809,-0.0075442,0.0054777,-0.047754,0.074322,-0.034001,0.0015079,-0.082697,0.17338,0.069188,-0.013485,-0.014104,-0.36532,1.5867,0.20486,0.27229,0.017554,-0.0029781,0.0097228,0.0057522,0.015204,-0.003427,-0.072713,0.046781
-0.0076425,-0.0094606,0.0029068,-0.044822,0.068229,-0.041618,0.0056705,-0.09243,0.17095,0.040392,-0.0066867,0.020903,-0.36227,1.5967,0.15631,0.27139,0.017124,-0.0087204,0.012923,0.0062387,0.0092435,-0.007946,-0.072632,0.03387
-0.007547,-0.0098044,0.0027677,-0.04195,0.062334,-0.050134,0.0080288,-0.097703,0.16152,0.00074129,0.0020336,0.056191,-0.34606,1.5917,0.10226,0.25117,0.017501,-0.014679,0.013362,-0.0012243,0.0020699,-0.012763,-0.072802,0.027354
-0.00064095,-0.0078735,0.0062385,-0.036258,0.059109,-0.056779,0.0065474,-0.09482,0.14665,-0.036664,0.0084613,0.084625,-0.32149,1.5798,0.056041,0.22978,0.018734,-0.018549,0.012006,-0.01503,-0.0016866,-0.01668,-0.073742,0.029994
0.011269,-0.0051441,0.011383,-0.027138,0.059331,-0.060616,0.0011581,-0.084167,0.13238,-0.057643,0.0071633,0.099938,-0.29563,1.5687,0.026803,0.21689,0.020763,-0.01996,0.0092087,-0.030582,0.0018027,-0.019541,-0.075604,0.036333
0.022677,-0.0043294,0.014639,-0.017181,0.061726,-0.062469,-0.0061068,-0.070144,0.12526,-0.05429,-0.0055385,0.10075,-0.27302,1.5571,0.015116,0.21129,0.022985,-0.020456,0.0040428,-0.043174,0.012998,-0.02265,-0.077642,0.037193
0.028503,-0.0071876,0.013793,-0.010081,0.064373,-0.063551,-0.012524,-0.058252,0.12759,-0.028952,-0.028523,0.09115,-0.25324,1.5336,0.013997,0.20799,0.024211,-0.021561,-0.0044226,-0.05124,0.028802,-0.027467,-0.078113,0.027618
0.027783,-0.012975,0.0098726,-0.0074243,0.066178,-0.064361,-0.016313,-0.052097,0.13655,0.0070798,-0.055294,0.077353,-0.23232,1.4833,0.014457,0.20664,0.023455,-0.022867,-0.015016,-0.057001,0.044778,-0.033683,-0.075332,0.011545
0.023963,-0.018905,0.0063022,-0.0073332,0.066967,-0.064788,-0.01714,-0.05254,0.14749,0.039164,-0.076985,0.06335,-0.20608,1.3998,0.011497,0.21307,0.021038,-0.022241,-0.023993,-0.063688,0.058004,-0.038705,-0.069386,-0.00097147
0.021851,-0.022197,0.0061268,-0.0062152,0.066515,-0.064858,-0.015456,-0.058625,0.15784,0.056058,-0.087207,0.049035,-0.17247,1.2909,0.0064727,0.2327,0.018939,-0.018123,-0.027382,-0.07174,0.068477,-0.039494,-0.062879,-0.0018035
0.023968,-0.02194,0.0096934,-0.001993,0.064091,-0.064931,-0.011816,-0.068372,0.1675,0.054268,-0.085229,0.032138,-0.13191,1.1729,0.0047178,0.26234,0.019759,-0.011622,-0.024409,-0.077559,0.078283,-0.035327,-0.059545,0.0086781
0.029168,-0.01932,0.014648,0.0041413,0.059411,-0.065012,-0.0070328,-0.078556,0.17595,0.038026,-0.075095,0.011916,-0.086707,1.0587,0.010699,0.28832,0.024823,-0.006123,-0.018682,-0.07613,0.089478,-0.028911,-0.061413,0.021964
0.034169,-0.016278,0.017984,0.0090003,0.053995,-0.064114,-0.0026717,-0.084794,0.18008,0.015614,-0.061655,-0.0087091,-0.041327,0.94954,0.024298,0.29336,0.032817,-0.0045472,-0.015492,-0.0653,0.10245,-0.024616,-0.066894,0.028195
0.036296,-0.013988,0.018239,0.010468,0.051084,-0.060763,-0.0006631,-0.0835,0.17602,-0.005045,-0.047024,-0.02435,-0.0026073,0.8378,0.040489,0.26776,0.040158,-0.0068694,-0.017223,-0.048038,0.11581,-0.025202,-0.071713,0.02354
0.035263,-0.012396,0.016144,0.0095234,0.053446,-0.05447,-0.0017586,-0.074971,0.1635,-0.01864,-0.030451,-0.030646,0.022032,0.71797,0.052164,0.21664,0.043082,-0.010343,-0.020988,-0.030808,0.12753,-0.029787,-0.072231,0.012239
0.033034,-0.010941,0.013582,0.0093843,0.06071,-0.04673,-0.0042255,-0.064493,0.1478,-0.021964,-0.011239,-0.027404,0.029315,0.59509,0.054089,0.15801,0.040088,-0.012208,-0.020957,-0.019502,0.1361,-0.034686,-0.068415,0.0022946
0.032367,-0.0095083,0.012052,0.012567,0.068734,-0.040253,-0.0045167,-0.059194,0.13636,-0.012656,0.0085284,-0.019259,0.025091,0.48303,0.045851,0.11327,0.032999,-0.012145,-0.013625,-0.016135,0.14097,-0.03625,-0.063801,-0.00096721
0.035131,-0.0086935,0.011863,0.018485,0.072042,-0.036858,5.2732e-005,-0.062374,0.13211,0.010245,0.024375,-0.013603,0.024905,0.39418,0.032382,0.096514,0.025762,-0.012027,-0.0014235,-0.018493,0.14206,-0.033312,-0.062323,0.0018371
0.041212,-0.0091964,0.012336,0.023679,0.067654,-0.035936,0.0087807,-0.070235,0.12978,0.043664,0.032637,-0.017073,0.047687,0.33009,0.021752,0.10903,0.02175,-0.013373,0.0087194,-0.022485,0.13922,-0.027496,-0.064755,0.0059201
0.048364,-0.011001,0.012489,0.024451,0.057278,-0.035064,0.01767,-0.074608,0.11914,0.078342,0.033245,-0.032374,0.10534,0.28147,0.020929,0.14055,0.021494,-0.01532,0.010802,-0.025178,0.1322,-0.021604,-0.067939,0.0066447
0.053138,-0.013123,0.011619,0.019643,0.046068,-0.032414,0.022387,-0.069936,0.092752,0.10023,0.029232,-0.05683,0.19511,0.23723,0.031446,0.17471,0.022569,-0.015398,0.0045758,-0.026458,0.12093,-0.01771,-0.06755,0.0024925
0.052647,-0.014205,0.00958,0.011357,0.038978,-0.028817,0.021628,-0.058462,0.05217,0.09562,0.023509,-0.083225,0.30048,0.19414,0.047632,0.19501,0.021785,-0.012394,-0.0043374,-0.028535,0.10563,-0.016339,-0.061999,-0.005124
0.046331,-0.013539,0.006795,0.0033072,0.037549,-0.027533,0.017885,-0.048712,0.0073293,0.056651,0.016323,-0.10252,0.40095,0.15861,0.059251,0.18996,0.018029,-0.0081906,-0.0090106,-0.033911,0.08655,-0.016944,-0.05404,-0.013957
0.036531,-0.011705,0.0040043,-0.001624,0.039424,-0.031779,0.014938,-0.048348,-0.029806,-0.017072,0.0062293,-0.10723,0.48416,0.13972,0.057726,0.15744,0.013454,-0.0063867,-0.0064866,-0.043258,0.063632,-0.018814,-0.048686,-0.02253
0.027264,-0.010212,0.0018034,-0.0026878,0.040477,-0.042013,0.014415,-0.057717,-0.052003,-0.12155,-0.0063876,-0.094016,0.55236,0.14029,0.042227,0.10729,0.011953,-0.0087594,0.00055076,-0.054599,0.036904,-0.02157,-0.049247,-0.030143
0.021887,-0.010333,0.0002475,-0.00085676,0.037579,-0.055167,0.014554,-0.069846,-0.058959,-0.25284,-0.017174,-0.064358,0.61833,0.1537,0.021151,0.059039,0.015981,-0.013056,0.0066587,-0.064359,0.0076679,-0.024982,-0.054822,-0.036078
0.021228,-0.012005,-0.0010815,0.0023643,0.030027,-0.066379,0.012186,-0.076705,-0.054475,-0.40809,-0.020074,-0.023401,0.69358,0.16771,0.0072164,0.032835,0.024272,-0.014506,0.0081814,-0.069579,-0.020521,-0.028516,-0.061115,-0.039443
0.023438,-0.013796,-0.0024886,0.0056754,0.019222,-0.071831,0.0059073,-0.075885,-0.042171,-0.58211,-0.012699,0.022169,0.77711,0.16984,0.0089189,0.036902,0.032372,-0.0098927,0.0056034,-0.069754,-0.042506,-0.031143,-0.063583,-0.040021
0.02547,-0.014083,-0.0035749,0.0080007,0.0075117,-0.07067,-0.0025513,-0.071766,-0.023492,-0.76269,-3.0027e-005,0.066071,0.85298,0.14893,0.024098,0.060272,0.035679,-0.00046285,0.0022356,-0.066958,-0.054181,-0.03173,-0.06026,-0.039167
0.025037,-0.012479,-0.0033273,0.0084903,-0.0028526,-0.064931,-0.0098975,-0.070602,0.0012134,-0.92991,0.0074954,0.10352,0.89868,0.09388,0.040357,0.07829,0.032625,0.0089541,0.00098858,-0.064267,-0.05559,-0.029854,-0.052309,-0.03953
0.021845,-0.010207,-0.0010114,0.0070491,-0.010458,-0.05788,-0.014109,-0.074528,0.030607,-1.0608,0.00075068,0.13146,0.8985,-0.0043089,0.04253,0.069644,0.025518,0.013719,0.0021765,-0.063742,-0.051842,-0.026471,-0.042573,-0.04345
0.017621,-0.0089693,0.0028468,0.0049205,-0.015361,-0.052098,-0.015836,-0.079992,0.061581,-1.1362,-0.021506,0.14832,0.85194,-0.1436,0.022464,0.033393,0.018516,0.012558,0.0038067,-0.065533,-0.050394,-0.023774,-0.033761,-0.051249
0.01513,-0.0093043,0.0063851,0.0042957,-0.01932,-0.048424,-0.017289,-0.081599,0.090258,-1.1452,-0.05132,0.15366,0.77151,-0.30123,-0.015366,-0.007741,0.014504,0.0075434,0.0034839,-0.068511,-0.056143,-0.024027,-0.02756,-0.060902
0.016637,-0.010022,0.0075585,0.006701,-0.025009,-0.046082,-0.019994,-0.077296,0.1135,-1.0857,-0.076416,0.14776,0.67264,-0.43496,-0.056134,-0.022121,0.013373,0.0014942,7.6914e-005,-0.071593,-0.068047,-0.027928,-0.024658,-0.069556
0.022408,-0.0093755,0.0057406,0.011353,-0.034189,-0.043579,-0.02365,-0.070072,0.12965,-0.96566,-0.087548,0.13143,0.56486,-0.50114,-0.083267,0.0080098,0.012827,-0.0043112,-0.0058628,-0.07445,-0.080187,-0.033713,-0.024873,-0.075723
0.030066,-0.0068981,0.0024391,0.01516,-0.046091,-0.039686,-0.026932,-0.065112,0.13836,-0.80507,-0.083304,0.10614,0.45137,-0.48074,-0.087709,0.072933,0.010739,-0.010054,-0.012603,-0.077133,-0.086676,-0.037922,-0.026983,-0.080307
0.035512,-0.0040837,0.00035942,0.014789,-0.057558,-0.033977,-0.029034,-0.065634,0.14044,-0.6376,-0.069761,0.074527,0.33578,-0.39451,-0.07207,0.1416,0.0069724,-0.015607,-0.01791,-0.079272,-0.086376,-0.037591,-0.028738,-0.08548
0.035326,-0.0031279,0.0013797,0.009263,-0.065202,-0.026759,-0.030235,-0.071383,0.13807,-0.50439,-0.056137,0.041034,0.22747,-0.29338,-0.047676,0.18261,0.0033417,-0.019469,-0.019709,-0.079816,-0.083432,-0.032352,-0.027675,-0.092257
0.029213,-0.0049146,0.0049978,0.00085634,-0.0679,-0.01859,-0.031076,-0.080661,0.13517,-0.43815,-0.04959,0.011639,0.13876,-0.22931,-0.027255,0.18377,0.0020289,-0.019776,-0.016969,-0.077709,-0.083305,-0.024819,-0.022638,-0.098871
0.020584,-0.0082716,0.0085872,-0.0065562,-0.067502,-0.0097745,-0.031381,-0.093156,0.13676,-0.44517,-0.051901,-0.0077303,0.075431,-0.22697,-0.018268,0.15619,0.0038883,-0.016321,-0.010689,-0.072884,-0.088013,-0.01881,-0.014921,-0.10151
0.014423,-0.011266,0.0093972,-0.010281,-0.067148,-0.00017304,-0.030382,-0.11025,0.14706,-0.49943,-0.059217,-0.013916,0.03011,-0.2764,-0.020449,0.12206,0.0079081,-0.011269,-0.0041302,-0.066652,-0.094895,-0.016758,-0.0079243,-0.097111
0.013758,-0.013162,0.0067433,-0.01035,-0.068784,0.010592,-0.027849,-0.1323,0.16711,-0.55695,-0.064599,-0.0089909,-0.01398,-0.34901,-0.02765,0.098193,0.01202,-0.0075923,-0.0015351,-0.061009,-0.09968,-0.018303,-0.005189,-0.086128
0.017391,-0.014917,0.0025692,-0.0087201,-0.072044,0.022733,-0.024861,-0.15559,0.19355,-0.58333,-0.062209,-0.00072246,-0.070691,-0.42127,-0.031534,0.088467,0.014467,-0.0066447,-0.005745,-0.057325,-0.10055,-0.021124,-0.0080217,-0.073041
0.020806,-0.017612,-0.00012731,-0.0072114,-0.075247,0.036002,-0.023161,-0.17244,0.21976,-0.57454,-0.051149,3.6122e-006,-0.1405,-0.48689,-0.024795,0.088703,0.014741,-0.0072778,-0.016292,-0.055391,-0.099207,-0.023175,-0.014444,-0.064068
0.019678,-0.020576,0.00032523,-0.0062256,-0.077255,0.049677,-0.023611,-0.17521,0.23906,-0.55408,-0.036589,-0.015805,-0.21117,-0.55116,-0.0033665,0.096093,0.013612,-0.0074062,-0.029483,-0.05365,-0.098235,-0.024332,-0.020415,-0.063608
0.01327,-0.021472,0.0031191,-0.0052095,-0.07848,0.062862,-0.025276,-0.16129,0.2481,-0.54709,-0.026719,-0.0501,-0.26874,-0.61762,0.031828,0.11282,0.01244,-0.0064297,-0.040471,-0.050605,-0.097922,-0.02608,-0.022648,-0.07179
0.005034,-0.018619,0.005943,-0.003917,-0.080441,0.07494,-0.026044,-0.13511,0.24798,-0.55157,-0.026697,-0.095557,-0.30875,-0.68173,0.073822,0.14106,0.012288,-0.0060004,-0.045743,-0.046398,-0.095968,-0.029648,-0.021116,-0.08468
-6.4517e-005,-0.013282,0.0070314,-0.0028475,-0.084706,0.086004,-0.024239,-0.10516,0.24226,-0.53052,-0.033555,-0.13818,-0.33771,-0.73682,0.11079,0.17589,0.013293,-0.0082438,-0.044312,-0.043194,-0.090326,-0.034432,-0.019436,-0.096781
0.00069435,-0.0093253,0.0063345,-0.0023829,-0.092183,0.096958,-0.019785,-0.078023,0.2333,-0.4336,-0.036452,-0.16394,-0.36402,-0.78379,0.13064,0.20498,0.014508,-0.013156,-0.037275,-0.043678,-0.081999,-0.03823,-0.022773,-0.10407
0.0059437,-0.010091,0.0048916,-0.0017728,-0.10291,0.10904,-0.014132,-0.054166,0.21978,-0.23356,-0.023415,-0.16569,-0.38721,-0.83276,0.12753,0.2166,0.014299,-0.017897,-0.026844,-0.048457,-0.074731,-0.039162,-0.034662,-0.10568
0.011689,-0.015281,0.0033776,0.00058889,-0.11585,0.12275,-0.0093578,-0.028822,0.19771,0.049648,0.0094414,-0.14596,-0.3959,-0.89337,0.10616,0.20909,0.011232,-0.018977,-0.015955,-0.054381,-0.071845,-0.037527,-0.054855,-0.10355
0.014713,-0.020859,0.0015534,0.0055673,-0.12854,0.13682,-0.0073428,0.0027363,0.16409,0.35481,0.053086,-0.11379,-0.37692,-0.96264,0.080156,0.19256,0.0051292,-0.015454,-0.0082614,-0.055464,-0.073403,-0.035816,-0.079518,-0.10051
0.015012,-0.022287,-0.00082985,0.011933,-0.13731,0.14807,-0.0093441,0.039843,0.12022,0.61099,0.089606,-0.078237,-0.32831,-1.0227,0.064539,0.18087,-0.0023448,-0.01008,-0.007332,-0.046253,-0.076525,-0.036698,-0.10338,-0.098381
0.015316,-0.018242,-0.002928,0.016842,-0.13876,0.15264,-0.015651,0.075502,0.07144,0.7721,0.103,-0.043419,-0.26561,-1.0518,0.067086,0.18058,-0.0081865,-0.0070566,-0.014666,-0.025362,-0.078408,-0.040645,-0.12219,-0.097241
0.018283,-0.011541,-0.003129,0.01803,-0.13172,0.14825,-0.025138,0.10083,0.023473,0.83229,0.08896,-0.0088133,-0.21553,-1.0402,0.084158,0.18683,-0.0097063,-0.0082665,-0.027908,0.0035591,-0.078989,-0.045332,-0.13396,-0.096039
0.023989,-0.0066107,-0.00081347,0.015847,-0.11839,0.13581,-0.035222,0.11145,-0.021701,0.81612,0.056296,0.026428,-0.20079,-0.9965,0.10378,0.1892,-0.0064083,-0.011437,-0.041415,0.034271,-0.080697,-0.04746,-0.13866,-0.093874
0.029906,-0.0059566,0.0023238,0.013209,-0.10301,0.11939,-0.042841,0.1108,-0.066759,0.75588,0.019086,0.059553,-0.22608,-0.93945,0.11351,0.18197,-0.00065255,-0.012092,-0.049667,0.0619,-0.085679,-0.045542,-0.13726,-0.090772
0.03325,-0.0086723,0.0032017,0.013357,-0.089,0.10433,-0.046149,0.10774,-0.11593,0.67369,-0.01366,0.084447,-0.27435,-0.88052,0.10778,0.16881,0.0037417,-0.0077091,-0.051205,0.08521,-0.093281,-0.041206,-0.131,-0.087473
0.033385,-0.011899,0.00011729,0.017306,-0.076563,0.09482,-0.045685,0.11042,-0.17065,0.57723,-0.042248,0.095656,-0.31632,-0.81289,0.090176,0.15764,0.00422,-0.00036928,-0.049717,0.10543,-0.10016,-0.037808,-0.12138,-0.084659
0.032068,-0.013481,-0.0052282,0.023173,-0.063057,0.092532,-0.04388,0.12096,-0.22784,0.46496,-0.07145,0.092322,-0.32763,-0.71542,0.069791,0.15042,0.001476,0.0045511,-0.050964,0.12298,-0.10291,-0.037521,-0.11016,-0.082515
0.031417,-0.013387,-0.0086887,0.027887,-0.045881,0.096628,-0.043256,0.13488,-0.28233,0.33127,-0.10181,0.07843,-0.30341,-0.56956,0.054531,0.13764,-0.0011202,0.0026243,-0.057939,0.13529,-0.10078,-0.039496,-0.099004,-0.081027
0.031704,-0.013013,-0.0071047,0.029746,-0.025377,0.10468,-0.044842,0.14529,-0.33081,0.16756,-0.12584,0.059349,-0.26137,-0.37706,0.045626,0.10296,-0.00048299,-0.0060779,-0.068383,0.13805,-0.096378,-0.040757,-0.088774,-0.080491
0.031156,-0.013454,-0.001159,0.029614,-0.0050194,0.11357,-0.048055,0.14834,-0.37367,-0.036363,-0.13313,0.03793,-0.23138,-0.16612,0.036871,0.034815,0.0032048,-0.017088,-0.07674,0.12902,-0.093692,-0.038982,-0.079133,-0.081419
0.027897,-0.014424,0.0050621,0.029835,0.011403,0.1201,-0.051746,0.14562,-0.41283,-0.28415,-0.11979,0.013441,-0.23779,0.019217,0.019114,-0.064635,0.0061894,-0.025017,-0.078725,0.11104,-0.095399,-0.034608,-0.068886,-0.083736
0.022083,-0.014584,0.007503,0.031926,0.023036,0.12181,-0.055089,0.14185,-0.44764,-0.55952,-0.093375,-0.016155,-0.28542,0.1413,-0.012814,-0.18006,0.0041122,-0.0273,-0.074507,0.09133,-0.10134,-0.030386,-0.056876,-0.086166
0.016091,-0.01271,0.0054399,0.035051,0.032493,0.11806,-0.057491,0.13993,-0.47309,-0.81797,-0.067802,-0.050938,-0.35808,0.19148,-0.055483,-0.29218,-0.0040904,-0.025174,-0.068039,0.077221,-0.10909,-0.028959,-0.042826,-0.086757
0.01257,-0.0086266,0.0016646,0.03653,0.04301,0.11073,-0.058099,0.1376,-0.48219,-0.99464,-0.052224,-0.087486,-0.43016,0.20013,-0.098147,-0.3881,-0.014745,-0.021598,-0.063666,0.071584,-0.11581,-0.030827,-0.027592,-0.08433
0.012191,-0.0032978,-0.00045976,0.033908,0.05488,0.10346,-0.056019,0.12832,-0.47108,-1.0292,-0.043151,-0.11994,-0.48304,0.22613,-0.12942,-0.46533,-0.021897,-0.018472,-0.063176,0.071544,-0.11969,-0.034529,-0.012824,-0.079474
0.013098,0.0018339,-0.00015402,0.026899,0.064632,0.099482,-0.051321,0.1059,-0.4424,-0.89529,-0.026961,-0.14246,-0.51486,0.32729,-0.1445,-0.52791,-0.02175,-0.015715,-0.065414,0.071415,-0.12028,-0.038565,-0.00032095,-0.073914
0.012427,0.0056381,0.00039311,0.017686,0.067972,0.099104,-0.045652,0.069404,-0.40434,-0.61572,0.008855,-0.15147,-0.53741,0.52576,-0.14741,-0.57929,-0.015456,-0.012604,-0.067846,0.0674,-0.11783,-0.042893,0.0086104,-0.06872
0.0084138,0.0076678,-0.0013765,0.009403,0.063912,0.098956,-0.041295,0.024918,-0.36619,-0.25453,0.064605,-0.14683,-0.56357,0.78911,-0.14646,-0.61779,-0.008026,-0.0094811,-0.068082,0.060365,-0.11287,-0.048449,0.013648,-0.063175
0.0013867,0.0079712,-0.0054827,0.003998,0.05628,0.093808,-0.039169,-0.016744,-0.33415,0.11053,0.12623,-0.13195,-0.59631,1.0422,-0.14704,-0.63743,-0.0044826,-0.007815,-0.064331,0.054674,-0.10655,-0.055302,0.015628,-0.055626
-0.0067924,0.0066994,-0.0090806,0.0011168,0.051155,0.080039,-0.037656,-0.044787,-0.31039,0.41814,0.17355,-0.11337,-0.62816,1.206,-0.14796,-0.63231,-0.0065283,-0.0085809,-0.055511,0.054152,-0.10103,-0.06151,0.01623,-0.045584
-0.013971,0.0040206,-0.0090301,-0.0011753,0.052409,0.058347,-0.033682,-0.052933,-0.29499,0.64048,0.19244,-0.099352,-0.6512,1.2408,-0.14425,-0.60118,-0.01225,-0.010806,-0.04203,0.058269,-0.099065,-0.064087,0.017174,-0.03491
-0.01858,0.00048466,-0.0048667,-0.0044867,0.059215,0.033653,-0.025392,-0.041775,-0.28757,0.78118,0.18195,-0.097516,-0.66842,1.164,-0.13352,-0.54942,-0.018556,-0.012053,-0.026773,0.061337,-0.10243,-0.061322,0.019389,-0.026648
-0.019896,-0.002636,0.00066449,-0.0086365,0.067489,0.012078,-0.014082,-0.018371,-0.28659,0.8602,0.15224,-0.11188,-0.69544,1.0318,-0.1195,-0.48794,-0.023786,-0.010607,-0.014759,0.055455,-0.1103,-0.054313,0.022777,-0.022466
-0.018109,-0.0036965,0.00397,-0.011915,0.073715,-0.0029517,-0.0035604,0.0066475,-0.28723,0.89728,0.11654,-0.14034,-0.74964,0.89787,-0.10942,-0.42974,-0.028148,-0.0072467,-0.010751,0.035493,-0.11926,-0.046268,0.026837,-0.021145
-0.014387,-0.0017832,0.0035876,-0.012862,0.077661,-0.012695,0.0025792,0.023546,-0.28121,0.90337,0.083961,-0.17378,-0.83457,0.78123,-0.10772,-0.38511,-0.031964,-0.004758,-0.016303,0.0029771,-0.12532,-0.040158,0.03159,-0.019604
-0.01061,0.0022935,0.0010509,-0.011948,0.081754,-0.021758,0.0034773,0.027862,-0.26056,0.88183,0.058051,-0.1979,-0.93188,0.66472,-0.11197,-0.35735,-0.033877,-0.005428,-0.028721,-0.033826,-0.1266,-0.036761,0.037938,-0.01545
-0.0084737,0.0062188,-0.00095495,-0.011519,0.088049,-0.034611,0.001326,0.022373,-0.22307,0.83462,0.039964,-0.19757,-1.008,0.52281,-0.11471,-0.34103,-0.031191,-0.0087941,-0.042913,-0.064013,-0.12461,-0.034605,0.04702,-0.0085695
-0.0083992,0.0077705,-0.0011789,-0.01392,0.095821,-0.052792,-0.00046483,0.015046,-0.17472,0.76651,0.031589,-0.16295,-1.031,0.3527,-0.1094,-0.32511,-0.022416,-0.011795,-0.054408,-0.079835,-0.12277,-0.031581,0.059124,-0.00037237
-0.0092624,0.006593,-0.00065332,-0.019454,0.10206,-0.074967,0.00050681,0.013652,-0.12599,0.68454,0.035151,-0.09462,-0.98673,0.18294,-0.095117,-0.30052,-0.0096593,-0.011309,-0.060935,-0.080261,-0.12331,-0.02665,0.073135,0.0083
-0.0094461,0.0045271,-0.0012118,-0.026129,0.10431,-0.099373,0.0046502,0.020358,-0.084337,0.59471,0.050141,-0.0048713,-0.88253,0.053509,-0.076431,-0.26836,0.0017657,-0.0068648,-0.06169,-0.069941,-0.12509,-0.020264,0.087012,0.018273
-0.0084605,0.0040242,-0.0033596,-0.031485,0.1032,-0.12593,0.010797,0.03023,-0.048649,0.50099,0.071484,0.08696,-0.73996,-0.014862,-0.059547,-0.24277,0.0068551,-0.0011205,-0.055993,-0.054812,-0.1241,-0.013522,0.098826,0.030974
-0.0076459,0.0059413,-0.0056427,-0.034765,0.1022,-0.15568,0.017042,0.035054,-0.010557,0.40874,0.091574,0.16331,-0.58255,-0.036017,-0.048716,-0.2445,0.0048911,0.0023013,-0.043499,-0.038158,-0.1163,-0.0072056,0.10752,0.046324
-0.0091703,0.0087119,-0.0060176,-0.037267,0.10479,-0.18787,0.021279,0.029816,0.03824,0.32927,0.1048,0.21636,-0.42724,-0.046028,-0.045498,-0.28729,0.00032214,0.0017422,-0.025938,-0.020136,-0.10054,-0.0017431,0.11298,0.061818
-0.014136,0.0097361,-0.0037684,-0.040558,0.11156,-0.2179,0.021621,0.01684,0.098449,0.2793,0.11047,0.24978,-0.28185,-0.072896,-0.049938,-0.36533,-0.00060825,-0.0012594,-0.0080434,-0.00020679,-0.079114,0.0019159,0.11569,0.073861
-0.02152,0.0077987,-0.00016013,-0.044433,0.11986,-0.23876,0.017213,0.0041844,0.16146,0.27256,0.11147,0.27307,-0.14535,-0.11206,-0.06109,-0.45122,0.0050961,-0.003333,0.0043937,0.020732,-0.055696,0.0015407,0.11655,0.080194
-0.028952,0.0043167,0.0025779,-0.046914,0.12629,-0.24563,0.0091536,-0.00056251,0.21458,0.30817,0.11001,0.2927,-0.0082315,-0.12686,-0.076048,-0.50786,0.014715,-0.0019819,0.0085377,0.040864,-0.032491,-0.005997,0.11691,0.081255
-0.034588,0.002217,0.0027669,-0.046458,0.13,-0.23972,0.00047498,0.0039064,0.24888,0.36549,0.10475,0.30716,0.14548,-0.074805,-0.089329,-0.50821,0.022046,0.002517,0.0072089,0.059543,-0.009228,-0.023106,0.11838,0.079365
-0.038352,0.0033778,-6.179e-005,-0.044107,0.13393,-0.22769,-0.0054739,0.011889,0.2634,0.41186,0.09213,0.30932,0.33133,0.058291,-0.094723,-0.4502,0.022406,0.0072498,0.0075021,0.077844,0.015092,-0.049599,0.1222,0.076743
-0.041482,0.0068832,-0.005539,-0.043063,0.14293,-0.21669,-0.0073526,0.015504,0.2631,0.41983,0.070693,0.29346,0.55356,0.24027,-0.088958,-0.35676,0.016169,0.0084217,0.015956,0.096201,0.03932,-0.081836,0.12843,0.074342
-0.044978,0.0096366,-0.01293,-0.045718,0.16034,-0.20894,-0.0068904,0.010923,0.25286,0.38171,0.044028,0.26062,0.79765,0.40479,-0.073904,-0.26107,0.0081181,0.0033772,0.033962,0.11143,0.058981,-0.11355,0.13577,0.072466
-0.048591,0.0088188,-0.020946,-0.050945,0.18561,-0.20067,-0.0074142,0.00084166,0.23288,0.31035,0.019282,0.21781,1.0344,0.48741,-0.054741,-0.18702,0.0036534,-0.0081972,0.056921,0.11685,0.068338,-0.13796,0.14222,0.072163
-0.051339,0.0041255,-0.027278,-0.054628,0.21469,-0.18626,-0.010773,-0.0085074,0.19884,0.22589,0.0022223,0.17248,1.2355,0.46186,-0.035279,-0.13836,0.0052884,-0.024146,0.07748,0.10641,0.064372,-0.15009,0.1462,0.075492
-0.052916,-0.0019946,-0.028968,-0.053338,0.24271,-0.16379,-0.015291,-0.012751,0.14615,0.13975,-0.0069028,0.12792,1.3901,0.35085,-0.014651,-0.10239,0.011966,-0.040535,0.089992,0.079644,0.049434,-0.14816,0.14743,0.083918
-0.054403,-0.0061407,-0.024028,-0.047784,0.26677,-0.1371,-0.016762,-0.012374,0.074504,0.0492,-0.013202,0.083311,1.5102,0.20202,0.011347,-0.063562,0.020828,-0.052904,0.092868,0.042892,0.030176,-0.13375,0.14677,0.096184
-0.057302,-0.0062567,-0.013308,-0.042512,0.28683,-0.11242,-0.011878,-0.01111,-0.010648,-0.053623,-0.02308,0.037327,1.6189,0.045363,0.04533,-0.015767,0.029198,-0.05784,0.087846,0.0057063,0.013396,-0.11072,0.1454,0.10796
-0.061622,-0.0027384,-0.00083208,-0.041792,0.30446,-0.092983,-0.0011484,-0.011821,-0.1001,-0.16789,-0.039897,-0.0095805,1.7318,-0.13558,0.084365,0.035183,0.035233,-0.054391,0.077847,-0.024293,0.0020815,-0.083741,0.14381,0.11415
-0.064906,0.0021549,0.0081413,-0.045425,0.32099,-0.076405,0.011357,-0.01395,-0.18442,-0.27952,-0.062695,-0.057111,1.8449,-0.3932,0.12069,0.078521,0.037638,-0.044517,0.065661,-0.043802,-0.0051802,-0.056786,0.14156,0.11247
-0.063474,0.0058178,0.010258,-0.04858,0.33644,-0.057132,0.021306,-0.014641,-0.25653,-0.3714,-0.088068,-0.10873,1.9369,-0.76857,0.14646,0.10749,0.035767,-0.032092,0.054075,-0.052338,-0.0112,-0.032165,0.13779,0.10517
-0.055279,0.0066198,0.0061274,-0.046001,0.34983,-0.031585,0.027484,-0.011874,-0.31223,-0.43975,-0.11261,-0.17142,1.9829,-1.2397,0.15817,0.1228,0.030469,-0.020829,0.046243,-0.049731,-0.016539,-0.01021,0.13236,0.09762
-0.04212,0.0044437,-0.00021648,-0.03676,0.36009,-0.0012499,0.032197,-0.0062307,-0.34972,-0.50101,-0.13367,-0.24929,1.967,-1.7052,0.15724,0.12892,0.024572,-0.012378,0.044941,-0.036041,-0.018684,0.010346,0.12643,0.094366
-0.029207,0.00051317,-0.0040169,-0.025087,0.36645,0.028822,0.038359,0.00036386,-0.36913,-0.58095,-0.14871,-0.33533,1.8853,-2.0222,0.14673,0.12795,0.021832,-0.0057983,0.050897,-0.014017,-0.014801,0.03147,0.1222,0.095991
-0.022013,-0.0032225,-0.0026336,-0.016536,0.36807,0.054331,0.046061,0.0072493,-0.37286,-0.69303,-0.15526,-0.40993,1.7407,-2.0795,0.12808,0.11678,0.024658,0.0013503,0.061814,0.009241,-0.0053742,0.054749,0.1215,0.099019
-0.022609,-0.0049786,0.003375,-0.013133,0.36348,0.074661,0.051893,0.015838,-0.36587,-0.82333,-0.1525,-0.45001,1.5382,-1.8625,0.10068,0.090012,0.032393,0.011182,0.073397,0.024549,0.0049509,0.080513,0.12441,0.098923
