4.8233e-011,3.4149e-010,6.386e-010,7.8137e-010,4.4374e-011,7.2735e-010,4.9583e-010,8.5468e-010,-9.8395e-011,9.7044e-010,5.8072e-010,1.447e-010,-1.0611e-010,9.28e-010,1.1016e-009,1.4643e-009,2.8747e-010,5.3442e-010,8.2381e-010,9.5501e-010,-4.4374e-011,7.1577e-010,9.5887e-010,1.036e-009
1.302e-009,9.7954e-009,1.7628e-008,2.1604e-008,1.3034e-009,2.0115e-008,1.3844e-008,2.3641e-008,-2.9119e-009,2.6666e-008,1.5974e-008,3.9754e-009,-2.7123e-009,2.5297e-008,3.0465e-008,4.0403e-008,7.9283e-009,1.5065e-008,2.2827e-008,2.6332e-008,-1.122e-009,1.9718e-008,2.6412e-008,2.8521e-008
1.7268e-008,1.3675e-007,2.3658e-007,2.9052e-007,1.8396e-008,2.7018e-007,1.8806e-007,3.1797e-007,-4.1699e-008,3.562e-007,2.1335e-007,5.329e-008,-3.3382e-008,3.3488e-007,4.0944e-007,5.417e-007,1.0614e-007,2.0658e-007,3.0741e-007,3.5317e-007,-1.357e-008,2.6391e-007,3.5348e-007,3.8172e-007
1.5003e-007,1.2379e-006,2.057e-006,2.5316e-006,1.6613e-007,2.3479e-006,1.6558e-006,2.7707e-006,-3.8504e-007,3.0816e-006,1.843e-006,4.645e-007,-2.63e-007,2.8679e-006,3.5624e-006,4.7014e-006,9.1854e-007,1.8358e-006,2.6805e-006,3.0697e-006,-1.0412e-007,2.2866e-006,3.0621e-006,3.3092e-006
9.5987e-007,8.1641e-006,1.3023e-005,1.6067e-005,1.0776e-006,1.4834e-005,1.0621e-005,1.758e-005,-2.5774e-006,1.9408e-005,1.157e-005,2.9597e-006,-1.4862e-006,1.7855e-005,2.2551e-005,2.9684e-005,5.7716e-006,1.1882e-005,1.7008e-005,1.9433e-005,-5.6566e-007,1.4414e-005,1.9296e-005,2.0888e-005
4.8141e-006,4.1796e-005,6.3973e-005,7.9119e-005,5.34e-006,7.2591e-005,5.2881e-005,8.6555e-005,-1.3327e-005,9.4816e-005,5.6234e-005,1.4691e-005,-6.3873e-006,8.6079e-005,0.00011065,0.00014525,2.8036e-005,5.9676e-005,8.3665e-005,9.5465e-005,-2.292e-006,7.0434e-005,9.4237e-005,0.00010229
1.9654e-005,0.00017276,0.00025368,0.00031443,2.0965e-005,0.00028613,0.00021258,0.00034399,-5.5377e-005,0.00037382,0.00022004,5.91e-005,-2.1548e-005,0.0003342,0.0004377,0.00057288,0.00010941,0.00024189,0.00033185,0.0003785,-7.0524e-006,0.00027754,0.00037099,0.00040433
6.6877e-005,0.00059195,0.00083388,0.0010353,6.6651e-005,0.00093257,0.00070843,0.0011333,-0.00018988,0.0012214,0.00071152,0.00019789,-5.7784e-005,0.0010726,0.001433,0.0018695,0.00035182,0.00081248,0.0010896,0.0012435,-1.6136e-005,0.00090557,0.0012088,0.0013247
0.00019244,0.0017126,0.002315,0.0028764,0.00017344,0.0025596,0.0019935,0.003153,-0.00054725,0.0033695,0.0019362,0.00056205,-0.00012207,0.0028971,0.0039543,0.0051402,0.00094806,0.0023031,0.0030163,0.0034467,-2.4199e-005,0.0024923,0.0033205,0.0036649
0.00047189,0.0042381,0.0055005,0.0068281,0.0003692,0.0059918,0.0047981,0.0075071,-0.0013429,0.0079529,0.0044906,0.0013727,-0.00019263,0.006668,0.009316,0.012057,0.0021644,0.0055806,0.00713,0.0081627,-5.7578e-006,0.0058622,0.007789,0.0086759
0.0009875,0.0090517,0.011289,0.013965,0.00063153,0.012066,0.0099631,0.015437,-0.0028305,0.016209,0.0089522,0.0029125,-0.0001793,0.013184,0.018899,0.024323,0.0042108,0.011659,0.014517,0.016652,0.00010161,0.01189,0.015742,0.017736
0.0017528,0.016778,0.020136,0.024719,0.00081839,0.02101,0.017939,0.027581,-0.0051512,0.028695,0.015422,0.0054113,0.00010055,0.022493,0.033181,0.042382,0.0069888,0.021112,0.025589,0.029387,0.00040172,0.02091,0.027564,0.031494
0.0025906,0.02706,0.031315,0.037891,0.00063659,0.031692,0.028049,0.042941,-0.00811,0.044257,0.023012,0.0088632,0.00087251,0.033142,0.050506,0.0638,0.0098506,0.033186,0.039124,0.044874,0.0010116,0.031962,0.041912,0.048719
0.0030432,0.03795,0.042494,0.050093,-0.00025686,0.04136,0.037993,0.058274,-0.01103,0.059476,0.029749,0.012885,0.0022386,0.042063,0.066534,0.082591,0.011649,0.045198,0.051814,0.059013,0.0019985,0.04242,0.055312,0.065665
0.0024569,0.046105,0.050231,0.056508,-0.0019825,0.046481,0.044253,0.068765,-0.012892,0.069454,0.033293,0.016773,0.0039405,0.045718,0.075417,0.090871,0.011294,0.05299,0.059146,0.06604,0.0033184,0.048642,0.063133,0.076916
0.00034076,0.048185,0.051556,0.053196,-0.0041289,0.044658,0.04368,0.070259,-0.012824,0.070125,0.032346,0.019827,0.0052271,0.042279,0.072812,0.082957,0.0086413,0.052819,0.057723,0.061336,0.0048151,0.047738,0.061982,0.077941
-0.0031151,0.042987,0.045836,0.039879,-0.0057039,0.036523,0.035634,0.062009,-0.010703,0.060939,0.027818,0.021777,0.005045,0.033481,0.059094,0.059764,0.0050632,0.043865,0.047759,0.044788,0.0063018,0.039552,0.052187,0.068098
-0.0067497,0.032874,0.035521,0.02111,-0.0055807,0.026012,0.023163,0.047939,-0.0073829,0.045926,0.022629,0.02298,0.002612,0.024376,0.04019,0.029962,0.002975,0.029572,0.033725,0.022164,0.0076603,0.027396,0.03837,0.051814
-0.0088052,0.023047,0.024819,0.004288,-0.0033,0.018286,0.01194,0.034941,-0.004214,0.03179,0.019839,0.024174,-0.0018913,0.02043,0.024581,0.0058791,0.0042527,0.016245,0.021954,0.0026632,0.0088346,0.016575,0.027037,0.036406
-0.0080018,0.018566,0.016935,-0.0047959,0.00034949,0.016397,0.0071412,0.02879,-0.0020903,0.023834,0.020322,0.025903,-0.0070271,0.023659,0.017944,-0.0039667,0.0085489,0.0092695,0.016436,-0.0064865,0.0096649,0.011334,0.02244,0.027492
-0.0046743,0.020968,0.01192,-0.0058511,0.0035822,0.019142,0.010248,0.030412,-0.00075254,0.022551,0.021926,0.028125,-0.010605,0.030803,0.019343,-0.00042289,0.012987,0.0094775,0.01597,-0.0047172,0.0096908,0.012272,0.02374,0.025259
-0.00096426,0.027107,0.0070502,-0.0042336,0.0047358,0.021965,0.018181,0.035442,0.00098158,0.023629,0.021168,0.030306,-0.010871,0.035422,0.022213,0.0072532,0.013895,0.012682,0.015276,0.0016974,0.0081926,0.01617,0.025937,0.024772
0.00045978,0.031402,-0.00033291,-0.0067843,0.0035147,0.020439,0.02559,0.037643,0.0041459,0.021604,0.016335,0.031884,-0.0076707,0.032687,0.019627,0.0085689,0.0095584,0.01317,0.0095398,0.0044857,0.0046433,0.018438,0.024047,0.020449
-0.0015266,0.029971,-0.0098565,-0.016391,0.0013469,0.013686,0.028567,0.03367,0.0085787,0.014324,0.0093798,0.032544,-0.00276,0.023165,0.0096535,-0.00038628,0.0018116,0.0085609,-0.0013284,-0.00047467,-0.00061157,0.016347,0.01721,0.011161
-0.0052869,0.023406,-0.017758,-0.02965,0.00046014,0.0050101,0.026887,0.025427,0.012816,0.0045616,0.0047237,0.032034,0.0010838,0.012465,-0.0036494,-0.014839,-0.0050424,0.0019181,-0.012493,-0.01073,-0.0059878,0.010626,0.0092444,0.0015587
-0.0073873,0.01594,-0.019798,-0.039639,0.0023102,-0.00077083,0.023162,0.018178,0.015047,-0.0025191,0.0056715,0.029858,0.0016198,0.0069266,-0.014186,-0.026493,-0.0073844,-0.00095684,-0.018358,-0.020389,-0.0091432,0.0043865,0.0051819,-0.0018103
-0.0053623,0.01176,-0.015137,-0.041544,0.0065242,-0.0011268,0.02001,0.016025,0.014351,-0.0038004,0.011382,0.025493,-0.0016406,0.0088484,-0.018967,-0.031163,-0.005049,0.0030853,-0.017422,-0.025691,-0.0082888,0.00050823,0.0068428,0.0035869
-0.00012159,0.011656,-0.0077121,-0.036426,0.011099,0.0022883,0.017928,0.018508,0.011287,-0.00068968,0.017095,0.019199,-0.0073174,0.015034,-0.019823,-0.032031,-0.0014074,0.011199,-0.013405,-0.027759,-0.0035506,-0.00031276,0.011347,0.013487
0.0042824,0.012832,-0.0035869,-0.03002,0.013629,0.0050674,0.015612,0.021037,0.0075428,0.0023462,0.01766,0.012613,-0.013086,0.019583,-0.02059,-0.035781,-0.00063472,0.01644,-0.011671,-0.030192,0.0027258,0.00048163,0.013753,0.019822
0.003762,0.011833,-0.0062383,-0.027761,0.012694,0.0035637,0.011995,0.018686,0.0050777,0.0016416,0.011569,0.0081905,-0.016893,0.018377,-0.023031,-0.045492,-0.0043851,0.013504,-0.014334,-0.034326,0.0072498,0.00090889,0.011279,0.017121
-0.0022383,0.0077754,-0.013771,-0.030392,0.008587,-0.0023118,0.0077357,0.010209,0.0052923,-0.002919,0.0022113,0.0075757,-0.017709,0.011672,-0.02566,-0.057084,-0.010577,0.0033741,-0.01864,-0.03728,0.0079437,4.4549e-006,0.0052603,0.0069106
-0.0099023,0.0029197,-0.020561,-0.033817,0.0031354,-0.0091074,0.0047036,-0.00090773,0.0084034,-0.0084583,-0.0046443,0.010195,-0.01562,0.003179,-0.02632,-0.062739,-0.015163,-0.0072873,-0.020004,-0.035012,0.0053904,-0.0018501,-0.0006668,-0.0036396
-0.013962,0.00021877,-0.022014,-0.032987,-0.0012237,-0.012536,0.0041278,-0.0090565,0.013071,-0.012027,-0.0050938,0.013475,-0.011591,-0.0030455,-0.025358,-0.058196,-0.015282,-0.011561,-0.016643,-0.027253,0.002314,-0.0037281,-0.004081,-0.0076216
-0.012027,0.00033129,-0.018292,-0.026232,-0.0026884,-0.010758,0.0053848,-0.010661,0.016605,-0.013009,0.00027452,0.014695,-0.0072274,-0.0052485,-0.025711,-0.047171,-0.011214,-0.0078462,-0.011314,-0.01899,0.001346,-0.0050948,-0.0054898,-0.003784
-0.0064919,0.0010318,-0.013758,-0.016358,-0.0011224,-0.0057807,0.0066004,-0.0066746,0.016176,-0.013004,0.007208,0.012946,-0.004424,-0.0045012,-0.029687,-0.038745,-0.0058176,-0.00081561,-0.0085588,-0.016431,0.0028381,-0.0060789,-0.0068406,0.0030685
-0.0022529,-0.00045151,-0.01273,-0.0079756,0.0017547,-0.0019555,0.0063625,-0.0016527,0.010771,-0.013748,0.011117,0.0095381,-0.0046045,-0.0033704,-0.035879,-0.039843,-0.0022856,0.002887,-0.010269,-0.021057,0.0046087,-0.0071058,-0.0087496,0.0066919
-0.0022648,-0.0045354,-0.015502,-0.0037525,0.0033724,-0.0027017,0.0048242,-0.00027113,0.0025336,-0.015326,0.010187,0.0066511,-0.0076644,-0.0041185,-0.039738,-0.049375,-0.0021908,0.00023241,-0.013919,-0.027668,0.0039548,-0.0084596,-0.009561,0.0047546
-0.0050366,-0.0087393,-0.018278,-0.0028292,0.0020934,-0.0079195,0.003225,-0.0039957,-0.0040287,-0.016298,0.00608,0.0055871,-0.011448,-0.0075294,-0.037587,-0.059137,-0.0050893,-0.0062059,-0.015151,-0.028709,0.0002594,-0.01017,-0.0072654,0.00025851
-0.0063364,-0.010088,-0.016951,-0.0023546,-0.0014376,-0.014082,0.0024739,-0.010337,-0.0050068,-0.015419,0.0021348,0.0061621,-0.012649,-0.012652,-0.03025,-0.060671,-0.009394,-0.011274,-0.012153,-0.021086,-0.0041369,-0.012129,-0.0021972,-0.0018871
-0.0033913,-0.0081097,-0.011024,-0.00032027,-0.0045752,-0.016956,0.0022544,-0.01505,-0.00018484,-0.013127,0.00077875,0.0074433,-0.0090175,-0.017322,-0.022662,-0.052145,-0.013379,-0.012118,-0.0075399,-0.0090575,-0.0057167,-0.014146,0.0024578,0.00030666
0.0024773,-0.0054439,-0.0039792,0.002911,-0.0046133,-0.01482,0.0014526,-0.015422,0.0064364,-0.011409,0.0021057,0.0087328,-0.0013799,-0.019299,-0.019714,-0.039407,-0.015606,-0.010301,-0.0059112,-0.00043054,-0.0027874,-0.015879,0.003078,0.0041644
0.0072517,-0.0054321,0.00013093,0.0054455,-0.0009549,-0.0096258,-0.00061448,-0.012083,0.0095395,-0.012183,0.0043718,0.0097186,0.0063761,-0.017665,-0.022195,-0.030538,-0.014995,-0.0094325,-0.0094033,0.00041498,0.0029139,-0.016843,-0.0013255,0.0050779
0.0081553,-0.0090132,0.0004351,0.0059841,0.0043141,-0.0052551,-0.0033699,-0.0081449,0.0066895,-0.015665,0.0056507,0.009919,0.0098237,-0.013666,-0.02652,-0.028844,-0.011107,-0.010923,-0.01546,-0.0038027,0.0074886,-0.016652,-0.0083405,0.00088993
0.0062033,-0.013938,-0.00028032,0.0052821,0.0080383,-0.0044789,-0.0052791,-0.0065746,0.0003184,-0.020124,0.0052133,0.008485,0.0073447,-0.010163,-0.028218,-0.030396,-0.004678,-0.012213,-0.01895,-0.0061548,0.0079726,-0.015315,-0.014339,-0.0062725
0.0049197,-0.017008,0.0012958,0.0058432,0.008499,-0.0072036,-0.0050004,-0.0080436,-0.0043044,-0.02322,0.0036632,0.0049993,0.0016123,-0.0097096,-0.02566,-0.028017,0.0022042,-0.0092461,-0.016682,-0.0020091,0.0045815,-0.013274,-0.017393,-0.012295
0.0066368,-0.017083,0.0054411,0.010227,0.0066889,-0.011271,-0.0024814,-0.010819,-0.0034594,-0.023801,0.0019561,0.00055199,-0.0022064,-0.012619,-0.020663,-0.017922,0.0068017,-0.00073214,-0.010173,0.0069807,0.00021206,-0.011089,-0.018184,-0.015076
0.010164,-0.015933,0.0089158,0.019214,0.0052797,-0.01469,0.00077014,-0.012483,0.0020224,-0.022673,0.00030605,-0.0023571,-0.00028296,-0.016721,-0.01591,-0.0030634,0.0070917,0.010065,-0.0041859,0.014881,-0.0021991,-0.0090463,-0.018389,-0.016292
0.012142,-0.016202,0.0080012,0.030938,0.0062266,-0.017021,0.0024295,-0.011859,0.0076587,-0.021746,-0.0019845,-0.0016239,0.007017,-0.01921,-0.01221,0.0095664,0.0029016,0.017891,-0.0024236,0.017235,-0.0019897,-0.0070509,-0.018614,-0.019314
0.010638,-0.018609,0.0021543,0.041445,0.009119,-0.01878,0.00071551,-0.009638,0.009183,-0.022326,-0.0055695,0.0022446,0.015524,-0.019067,-0.0083507,0.015004,-0.0039881,0.020025,-0.0043185,0.015051,-0.00076531,-0.0049154,-0.018185,-0.025491
0.0072825,-0.021207,-0.0051206,0.046469,0.011668,-0.019869,-0.0043812,-0.0075452,0.0059189,-0.024043,-0.0098613,0.0056936,0.020494,-0.017831,-0.0033282,0.014334,-0.010813,0.018455,-0.0057749,0.013548,-0.0003781,-0.0027599,-0.016852,-0.03257
0.005765,-0.021393,-0.0089357,0.04371,0.011808,-0.019022,-0.010797,-0.0070275,0.00083559,-0.025379,-0.012872,0.004427,0.019989,-0.017976,0.0018036,0.013375,-0.015177,0.01764,-0.0031035,0.017215,-0.0010514,-0.0011429,-0.016197,-0.036856
0.0081952,-0.018656,-0.0068358,0.034455,0.0095022,-0.015048,-0.015423,-0.0085726,-0.0024734,-0.02529,-0.012591,-0.0030587,0.015771,-0.020409,0.0046491,0.017507,-0.015988,0.020038,0.0034405,0.025895,-0.0014608,-0.0007737,-0.018734,-0.036997
0.012994,-0.015313,-0.00056473,0.023363,0.0066884,-0.0086134,-0.016068,-0.011892,-0.0029877,-0.024374,-0.0089112,-0.013684,0.011345,-0.023536,0.004049,0.027209,-0.013631,0.02362,0.0096731,0.03518,-0.00049173,-0.0020195,-0.025232,-0.035653
0.016409,-0.01444,0.0054611,0.016037,0.0054959,-0.0025119,-0.013104,-0.016431,-0.0028186,-0.024361,-0.0043093,-0.021583,0.0091183,-0.024822,0.0017142,0.037851,-0.0095329,0.023622,0.010991,0.040243,0.0012837,-0.0045959,-0.033016,-0.037308
0.016114,-0.016942,0.0074793,0.015582,0.0063571,0.00023862,-0.009497,-0.021632,-0.00485,-0.026279,-0.0022569,-0.02235,0.009095,-0.023353,0.00099236,0.043514,-0.0054334,0.01677,0.0062552,0.039411,0.0019858,-0.0076719,-0.037432,-0.044164
0.013288,-0.020572,0.0048303,0.020486,0.0076727,-0.0010865,-0.0088978,-0.026886,-0.0097664,-0.029012,-0.0044084,-0.016375,0.0098294,-0.020826,0.0037776,0.041536,-0.0026219,0.0041249,-0.0013045,0.034605,0.00027446,-0.010284,-0.03565,-0.053886
0.011127,-0.021935,-0.00011146,0.025679,0.0072557,-0.0041563,-0.013006,-0.03153,-0.01516,-0.029795,-0.0089949,-0.0084826,0.01027,-0.019943,0.0085431,0.03432,-0.0013733,-0.0097775,-0.0068019,0.028942,-0.0032207,-0.011728,-0.029385,-0.061243
0.011362,-0.019713,-0.0040715,0.02633,0.0042082,-0.0054831,-0.02023,-0.035102,-0.017436,-0.026497,-0.012114,-0.0041104,0.010595,-0.021742,0.011482,0.027368,-0.00089601,-0.020335,-0.0075655,0.024109,-0.0063183,-0.011709,-0.023738,-0.062212
0.01235,-0.016083,-0.005211,0.021589,-0.00043862,-0.0034204,-0.026814,-0.037659,-0.014778,-0.019743,-0.011057,-0.0051832,0.011426,-0.024484,0.0097952,0.025329,2.1817e-005,-0.025729,-0.004853,0.019766,-0.0071238,-0.010309,-0.022906,-0.056984
0.010792,-0.014887,-0.003963,0.015167,-0.0048053,0.00042793,-0.029654,-0.039827,-0.008606,-0.012879,-0.0067598,-0.0090562,0.012548,-0.025274,0.0041323,0.029031,0.001966,-0.02713,-0.0021767,0.014997,-0.0055253,-0.0079912,-0.026604,-0.049557
0.0054069,-0.01806,-0.0020384,0.012138,-0.0078619,0.002724,-0.02857,-0.04243,-0.0023476,-0.0095458,-0.0030591,-0.01125,0.012698,-0.022867,-0.0019673,0.035437,0.004255,-0.026837,-0.0019891,0.010068,-0.003059,-0.005667,-0.030603,-0.044603
-0.001126,-0.023573,-0.00070442,0.014575,-0.010104,0.0014983,-0.026196,-0.045927,0.0013406,-0.010827,-0.0032745,-0.0094731,0.010805,-0.018892,-0.0050275,0.04026,0.0054055,-0.02643,-0.003743,0.006754,-0.0015129,-0.0044891,-0.031009,-0.044381
-0.0041221,-0.026924,0.00013819,0.019778,-0.012598,-0.0020193,-0.025658,-0.050061,0.0024827,-0.014442,-0.0071899,-0.0054153,0.0074315,-0.016229,-0.0042602,0.041097,0.0045244,-0.02636,-0.0048827,0.0069699,-0.0016944,-0.0051517,-0.028229,-0.047882
-0.0011169,-0.025039,0.0014049,0.022701,-0.015412,-0.0045803,-0.028047,-0.054004,0.0032326,-0.016727,-0.011178,-0.0028821,0.0048371,-0.016052,-0.0016358,0.038765,0.0024663,-0.02665,-0.003616,0.01093,-0.0032895,-0.0070464,-0.026754,-0.052233
0.0055773,-0.019162,0.0035086,0.02044,-0.017103,-0.0040438,-0.031812,-0.056915,0.0054597,-0.015719,-0.01129,-0.0040586,0.0052745,-0.016481,0.00037808,0.036006,0.0015345,-0.027445,-0.00080004,0.016461,-0.005456,-0.0081734,-0.030815,-0.054778
0.010492,-0.01405,0.0056566,0.014754,-0.015945,-0.0014994,-0.034427,-0.058537,0.0087487,-0.012631,-0.0064493,-0.0073026,0.0089084,-0.014304,0.0011208,0.034872,0.0036733,-0.028817,0.00077351,0.020182,-0.0072626,-0.0063736,-0.039986,-0.054417
0.0094644,-0.01403,0.0064925,0.010355,-0.011824,-0.00032248,-0.034729,-0.059329,0.010728,-0.010469,0.0010174,-0.0084253,0.013292,-0.0082667,0.0019697,0.035049,0.0085527,-0.030348,-0.0010032,0.019791,-0.0077594,-0.0012372,-0.048976,-0.051851
0.0029853,-0.019295,0.0054309,0.010492,-0.0069333,-0.0029756,-0.033833,-0.059985,0.0094647,-0.011096,0.0075878,-0.0043246,0.015102,-0.0007877,0.0044748,0.03448,0.013306,-0.031311,-0.0054347,0.015744,-0.006267,0.0049681,-0.051901,-0.04905
-0.0044574,-0.025728,0.0033047,0.013926,-0.0043764,-0.0085431,-0.033912,-0.060722,0.0056188,-0.013438,0.011125,0.0041818,0.012809,0.0036565,0.0083501,0.031584,0.014413,-0.031451,-0.0093345,0.010948,-0.0031967,0.0085591,-0.047166,-0.048162
-0.0082509,-0.028409,0.0016297,0.016078,-0.0057496,-0.013335,-0.036008,-0.061056,0.0021388,-0.014477,0.011577,0.012719,0.0080054,0.0021699,0.011314,0.02698,0.010372,-0.031476,-0.0095744,0.0085432,-0.00061161,0.00723,-0.038551,-0.050068
-0.0071839,-0.025735,0.0012194,0.01333,-0.0098315,-0.014033,-0.038905,-0.060433,0.00161,-0.0121,0.0097747,0.016552,0.004144,-0.0041299,0.010945,0.023153,0.0030042,-0.032526,-0.0057552,0.0094329,-0.0013439,0.0020599,-0.03175,-0.053307
-0.003679,-0.020529,0.0015664,0.0064993,-0.013598,-0.010488,-0.040097,-0.059173,0.0037719,-0.007202,0.0061549,0.013937,0.0036984,-0.011011,0.0068136,0.022431,-0.0037086,-0.034967,-0.00075552,0.011542,-0.0067137,-0.0032364,-0.029719,-0.054483
-0.00099854,-0.017271,0.0016012,0.00021475,-0.014712,-0.0056819,-0.038107,-0.058681,0.0057382,-0.003096,0.00080994,0.0070156,0.0061416,-0.014487,0.0009063,0.025058,-0.00637,-0.03771,0.001373,0.011458,-0.014703,-0.0054151,-0.030983,-0.050521
-0.00033657,-0.018062,0.00097236,-0.0013002,-0.013316,-0.0030247,-0.034127,-0.060406,0.0048406,-0.0027344,-0.0055886,-0.00021624,0.0084668,-0.013681,-0.0039851,0.028987,-0.0043698,-0.038869,-0.0014274,0.0071869,-0.020711,-0.00447,-0.031928,-0.04145
-0.00040665,-0.020972,0.00041517,0.0017819,-0.011635,-0.0035504,-0.031452,-0.064337,0.0013062,-0.0061724,-0.011525,-0.0049784,0.007767,-0.01091,-0.0063895,0.031402,4.044e-005,-0.037292,-0.0074536,-0.00020783,-0.020932,-0.0034658,-0.030455,-0.031261
0.00053704,-0.022135,0.0007372,0.0048138,-0.01188,-0.0054686,-0.032924,-0.068532,-0.0020054,-0.010495,-0.015667,-0.0073875,0.0036652,-0.0092818,-0.0068843,0.030605,0.0036352,-0.033598,-0.012301,-0.0074163,-0.015747,-0.0054934,-0.027501,-0.025522
0.0025974,-0.019495,0.0014856,0.0026683,-0.014372,-0.0062011,-0.038385,-0.070407,-0.0026388,-0.012244,-0.018116,-0.0097401,-0.0013645,-0.010141,-0.0069423,0.026846,0.0044372,-0.02977,-0.012044,-0.011473,-0.0099299,-0.01058,-0.025416,-0.027093
0.0041847,-0.0147,0.00086052,-0.0056975,-0.017418,-0.0048169,-0.044288,-0.068787,-0.0012559,-0.010241,-0.020387,-0.014401,-0.0038717,-0.012444,-0.0072055,0.021728,0.0026071,-0.027702,-0.0062026,-0.012047,-0.0090258,-0.015528,-0.025236,-0.033397
0.0038756,-0.011492,-0.0027,-0.016122,-0.018803,-0.0026652,-0.046058,-0.064829,-0.0011048,-0.0064365,-0.023944,-0.022166,-0.0018492,-0.014234,-0.0069456,0.016911,-0.00039212,-0.027967,0.0017248,-0.011623,-0.01473,-0.016889,-0.02564,-0.037854
0.0020869,-0.012243,-0.0085837,-0.022535,-0.017482,-0.0018859,-0.041512,-0.060845,-0.0046016,-0.0041429,-0.028744,-0.03218,0.0040909,-0.01461,-0.0051961,0.013107,-0.0033197,-0.029653,0.0066082,-0.013491,-0.023255,-0.014226,-0.024396,-0.034788
0.00074476,-0.015878,-0.013683,-0.021808,-0.014146,-0.0034199,-0.032681,-0.058122,-0.010472,-0.0052298,-0.033323,-0.043008,0.011305,-0.014485,-0.0023312,0.0099071,-0.0059245,-0.031123,0.0052324,-0.019102,-0.028255,-0.010496,-0.020688,-0.023968
0.0012443,-0.018984,-0.014432,-0.016071,-0.010554,-0.0063883,-0.024517,-0.055835,-0.014537,-0.0086172,-0.036352,-0.053617,0.016673,-0.015653,-0.00038137,0.0063615,-0.0083889,-0.030882,-0.0015319,-0.026789,-0.02589,-0.0092052,-0.016061,-0.010927
0.0028036,-0.018911,-0.0098122,-0.010703,-0.0083992,-0.009221,-0.021408,-0.052134,-0.013619,-0.011234,-0.038106,-0.063443,0.018027,-0.019117,-0.0015626,0.0018561,-0.010221,-0.028087,-0.0094798,-0.032724,-0.017743,-0.011125,-0.013245,-0.0026325
0.0030089,-0.016022,-0.0027401,-0.0099319,-0.0085078,-0.011256,-0.024176,-0.046273,-0.0088116,-0.010535,-0.040381,-0.071804,0.014938,-0.024047,-0.0062319,-0.0032797,-0.0099432,-0.022818,-0.014124,-0.033407,-0.009208,-0.013783,-0.014018,-0.0020236
0.00021055,-0.013225,0.001696,-0.013778,-0.010582,-0.013217,-0.029791,-0.039586,-0.0047847,-0.006479,-0.044976,-0.077553,0.0088099,-0.028173,-0.012139,-0.0078711,-0.006162,-0.01625,-0.013752,-0.027984,-0.0049418,-0.014161,-0.01787,-0.0059958
-0.0044874,-0.013432,0.00013686,-0.018666,-0.013338,-0.016154,-0.033859,-0.034257,-0.0055999,-0.0014211,-0.052174,-0.079564,0.0022821,-0.029312,-0.015817,-0.01074,0.00081159,-0.010475,-0.010267,-0.018897,-0.005384,-0.011899,-0.022347,-0.0084111
-0.0076974,-0.017227,-0.0060948,-0.020761,-0.014995,-0.019954,-0.033794,-0.031105,-0.010936,0.0018074,-0.06048,-0.077743,-0.0020525,-0.026966,-0.015118,-0.011726,0.0084008,-0.0076433,-0.0073687,-0.010516,-0.0071678,-0.0097903,-0.024595,-0.0053491
-0.006518,-0.022555,-0.011673,-0.018948,-0.014125,-0.022896,-0.030274,-0.028651,-0.016278,0.0019168,-0.06757,-0.073623,-0.0031457,-0.022849,-0.010869,-0.011982,0.01311,-0.0087015,-0.0076176,-0.0066279,-0.0066447,-0.01107,-0.023002,0.0020424
-0.0012336,-0.026348,-0.011439,-0.015086,-0.010566,-0.022835,-0.026188,-0.024519,-0.016885,-0.00040026,-0.071463,-0.069796,-0.0021788,-0.019901,-0.0062357,-0.013041,0.012945,-0.012692,-0.010726,-0.0083293,-0.0031323,-0.016118,-0.018001,0.0093547
0.004542,-0.026595,-0.0048772,-0.011788,-0.0057139,-0.01907,-0.024245,-0.017884,-0.011816,-0.0037685,-0.071145,-0.068365,-0.0016313,-0.020385,-0.0042135,-0.015251,0.0089679,-0.017337,-0.014253,-0.013573,0.00093159,-0.021771,-0.011731,0.0133
0.0065884,-0.023397,0.0029502,-0.010074,-0.0017431,-0.013339,-0.025187,-0.010549,-0.0044274,-0.007723,-0.066715,-0.069463,-0.0031876,-0.024326,-0.0052313,-0.01702,0.0046001,-0.020558,-0.015913,-0.018577,0.0027141,-0.023958,-0.0067523,0.014376
0.0034503,-0.018584,0.0051339,-0.0089528,-0.00013966,-0.0089589,-0.027648,-0.0055185,0.00083906,-0.012904,-0.059453,-0.071007,-0.0061746,-0.029445,-0.0068582,-0.015914,0.003143,-0.021649,-0.015443,-0.020154,0.0017959,-0.021268,-0.0045184,0.015485
-0.0023685,-0.014517,-0.0014413,-0.006928,-0.00071732,-0.0086481,-0.02931,-0.0042626,0.002154,-0.019574,-0.051727,-0.070091,-0.008058,-0.032672,-0.0059617,-0.011053,0.0054343,-0.02119,-0.014491,-0.017488,0.00043041,-0.016222,-0.0045749,0.018268
-0.0063644,-0.012904,-0.01321,-0.0036774,-0.0019912,-0.012602,-0.028253,-0.0051875,0.0011145,-0.025974,-0.046219,-0.065145,-0.0067655,-0.032201,-0.001606,-0.0046855,0.0094399,-0.020038,-0.014784,-0.012289,0.0011856,-0.013187,-0.0051462,0.021097
-0.0054777,-0.014156,-0.022408,-0.00031183,-0.0025975,-0.018308,-0.023782,-0.0047414,0.00033534,-0.028497,-0.044406,-0.057339,-0.0027888,-0.028607,0.0037886,-0.0011177,0.011965,-0.01857,-0.016284,-0.0074151,0.0043688,-0.01482,-0.0048072,0.020801
-0.00023169,-0.017404,-0.023107,0.0017288,-0.0024398,-0.022321,-0.01663,-0.00023128,0.00055801,-0.024045,-0.045253,-0.050055,0.0010038,-0.024268,0.006189,-0.0033607,0.01104,-0.016916,-0.017007,-0.0050507,0.0077316,-0.020088,-0.0039035,0.016287
0.005967,-0.02102,-0.015909,0.0017763,-0.002481,-0.022745,-0.0087046,0.0080855,0.00022162,-0.012783,-0.045469,-0.0466,0.0018741,-0.021602,0.0032837,-0.010235,0.007191,-0.015629,-0.01471,-0.0056505,0.0086846,-0.025364,-0.0043546,0.010205
0.0095156,-0.023383,-0.007384,-2.2629e-005,-0.0034225,-0.020577,-0.002396,0.017367,-0.0022564,0.0013019,-0.04162,-0.047756,-0.00020123,-0.021478,-0.0034306,-0.01679,0.0028388,-0.015696,-0.0090297,-0.0081238,0.0068301,-0.027452,-0.0077918,0.0067711
0.0090134,-0.023531,-0.0047186,-0.0033981,-0.0046313,-0.018828,0.00050689,0.024545,-0.0060581,0.012872,-0.032721,-0.051029,-0.0023793,-0.022878,-0.0097393,-0.018254,0.00051686,-0.017568,-0.0022803,-0.010786,0.0043424,-0.025923,-0.013605,0.0077374
0.0056654,-0.02141,-0.010023,-0.0082519,-0.0044509,-0.020022,-0.00017637,0.028526,-0.0081288,0.018892,-0.021237,-0.052394,-0.0015633,-0.023867,-0.012161,-0.014401,0.0012837,-0.020224,0.0018464,-0.012297,0.0038282,-0.023005,-0.018793,0.010504
0.0018016,-0.017738,-0.018969,-0.014095,-0.0016775,-0.023998,-0.0028666,0.030418,-0.0060395,0.020369,-0.011579,-0.049389,0.0025485,-0.02297,-0.010778,-0.010397,0.0043138,-0.021535,0.00078219,-0.012181,0.0057529,-0.021406,-0.020032,0.010338
-0.00097694,-0.013695,-0.024691,-0.019459,0.0031654,-0.027854,-0.0052821,0.031842,-0.0008444,0.020677,-0.0072216,-0.043208,0.0068873,-0.019988,-0.0089351,-0.012885,0.0076945,-0.01999,-0.0050299,-0.010975,0.0079569,-0.022103,-0.016304,0.0047309
-0.0025658,-0.010631,-0.023509,-0.022444,0.0079516,-0.028211,-0.0060551,0.033115,0.0030306,0.021988,-0.0086889,-0.038013,0.0076258,-0.015895,-0.010125,-0.024241,0.0096919,-0.016317,-0.012269,-0.0101,0.0077688,-0.023915,-0.0098513,-0.0041901
-0.0037558,-0.0097366,-0.017675,-0.022371,0.010386,-0.024054,-0.0056088,0.033024,0.0011941,0.023064,-0.013793,-0.037792,0.0036926,-0.012208,-0.014912,-0.039805,0.0096126,-0.01328,-0.016867,-0.011299,0.0046931,-0.025015,-0.0046104,-0.011427
-0.0051182,-0.011515,-0.013126,-0.021042,0.0095387,-0.017795,-0.0055072,0.030264,-0.0068069,0.020396,-0.019587,-0.043127,-0.0020658,-0.01034,-0.020654,-0.050685,0.0078243,-0.013508,-0.016699,-0.015613,0.0010495,-0.02481,-0.0034662,-0.013397
-0.0064302,-0.015203,-0.014442,-0.022048,0.006297,-0.013566,-0.0068295,0.025058,-0.01658,0.011602,-0.02423,-0.050493,-0.0052635,-0.01117,-0.024033,-0.050193,0.0051315,-0.017073,-0.012966,-0.02241,-0.00011744,-0.0244,-0.0065278,-0.010792
-0.0070006,-0.01869,-0.021334,-0.028223,0.0025952,-0.014085,-0.0090623,0.019347,-0.021998,-0.002024,-0.027383,-0.054796,-0.0038295,-0.014722,-0.023847,-0.038875,0.0021206,-0.021016,-0.009335,-0.029415,0.0020893,-0.025191,-0.011533,-0.0075716
-0.0064226,-0.019421,-0.029317,-0.039208,0.00020087,-0.01865,-0.01055,0.015397,-0.019879,-0.016116,-0.029323,-0.053218,0.00013742,-0.019923,-0.021431,-0.024159,-0.00098665,-0.021474,-0.0094462,-0.03411,0.0055026,-0.027085,-0.015646,-0.007249
-0.0050279,-0.016013,-0.033541,-0.051247,-7.0313e-005,-0.023872,-0.010075,0.014124,-0.012393,-0.026423,-0.030036,-0.047326,0.0022073,-0.024698,-0.018682,-0.014907,-0.0039531,-0.016817,-0.014566,-0.03567,0.0068366,-0.028163,-0.017046,-0.010011
-0.0037224,-0.0095007,-0.032348,-0.059563,0.0015476,-0.026396,-0.0080315,0.014601,-0.0052888,-0.031759,-0.029272,-0.041693,-0.00049183,-0.026656,-0.016041,-0.015206,-0.0061463,-0.0091977,-0.022929,-0.035762,0.0046921,-0.026398,-0.015406,-0.013098
-0.0034543,-0.0030527,-0.027806,-0.061499,0.0040902,-0.025249,-0.0060464,0.015033,-0.0035168,-0.034246,-0.027306,-0.040115,-0.0067893,-0.024273,-0.012635,-0.022203,-0.0067244,-0.003121,-0.031024,-0.037292,0.00080781,-0.021929,-0.011509,-0.013708
-0.004754,-4.8589e-005,-0.023367,-0.058042,0.0063165,-0.021983,-0.0053921,0.014203,-0.0078249,-0.036906,-0.025307,-0.042426,-0.012487,-0.017863,-0.0082845,-0.029405,-0.0053728,-0.0020668,-0.035741,-0.04193,-0.0016068,-0.017644,-0.0067364,-0.011508
-0.0075442,-0.0017764,-0.021104,-0.052778,0.0072356,-0.01886,-0.0057238,0.012168,-0.014812,-0.040913,-0.024637,-0.04446,-0.013799,-0.0096254,-0.0048993,-0.032447,-0.0028939,-0.0058694,-0.035912,-0.048515,-0.00088092,-0.017215,-0.0026857,-0.0085614
-0.011128,-0.0064857,-0.020842,-0.049366,0.0066351,-0.016965,-0.0053949,0.0098741,-0.019937,-0.044901,-0.025575,-0.041181,-0.010128,-0.0025369,-0.0053292,-0.032491,-0.00092439,-0.011003,-0.032521,-0.053827,0.0016067,-0.022086,-0.00063622,-0.0071332
-0.014282,-0.010606,-0.021426,-0.049504,0.0052861,-0.015905,-0.0031045,0.0082993,-0.020813,-0.046742,-0.026749,-0.030529,-0.0040252,0.0012298,-0.010517,-0.034589,-0.00083788,-0.01354,-0.027828,-0.055159,0.0028433,-0.029943,-0.00077334,-0.0076897
-0.015589,-0.011282,-0.022424,-0.052597,0.0044786,-0.015017,0.0006571,0.0079113,-0.018356,-0.04596,-0.026023,-0.015036,0.0011278,0.0013305,-0.017901,-0.042691,-0.0027533,-0.012286,-0.024147,-0.052476,0.0011955,-0.036071,-0.0017464,-0.0088806
-0.014128,-0.0083269,-0.024512,-0.05681,0.0050249,-0.014545,0.0037563,0.0086278,-0.015429,-0.044501,-0.022203,-0.00010456,0.0033277,-0.00093411,-0.023089,-0.05573,-0.0055512,-0.0094161,-0.022839,-0.048351,-0.0018465,-0.036569,-0.0013029,-0.0091384
-0.01025,-0.0041528,-0.028319,-0.060402,0.0064928,-0.015481,0.0041096,0.0099401,-0.014465,-0.045106,-0.016082,0.0096319,0.0023586,-0.0037477,-0.023601,-0.068165,-0.0078317,-0.0081285,-0.023844,-0.045852,-0.0029299,-0.030961,0.0020538,-0.0080624
-0.0057738,-0.0017638,-0.03311,-0.062454,0.0074513,-0.01826,0.0014608,0.010956,-0.015881,-0.048619,-0.009851,0.013128,-0.0011859,-0.0059205,-0.021173,-0.074426,-0.0088241,-0.0094955,-0.025866,-0.046325,-4.7322e-005,-0.022339,0.0075609,-0.0062843
-0.0031361,-0.0023842,-0.036812,-0.062904,0.0067025,-0.021785,-0.0023081,0.010554,-0.018105,-0.052558,-0.0053671,0.01304,-0.0066359,-0.0072146,-0.020243,-0.073409,-0.0084297,-0.011479,-0.027195,-0.048868,0.0052605,-0.015183,0.012265,-0.0042918
-0.0038506,-0.0045393,-0.037498,-0.062303,0.0044947,-0.023964,-0.0045963,0.0079502,-0.018868,-0.05232,-0.0028231,0.013363,-0.012922,-0.0077951,-0.023867,-0.069219,-0.0066732,-0.01107,-0.026751,-0.051571,0.008865,-0.012547,0.01297,-0.0017804
-0.0073725,-0.005292,-0.035035,-0.061584,0.0025332,-0.023424,-0.0040263,0.0034508,-0.016783,-0.044327,-0.00095236,0.01654,-0.018047,-0.0075113,-0.030912,-0.067648,-0.0035572,-0.0074849,-0.024705,-0.053095,0.0075068,-0.014483,0.0087524,0.0016185
-0.011356,-0.0026815,-0.031319,-0.061753,0.0025777,-0.02079,-0.0013387,-0.0012832,-0.012238,-0.028834,0.0014973,0.022072,-0.019662,-0.0057905,-0.037266,-0.071387,0.00028914,-0.0031979,-0.022225,-0.053214,0.0017512,-0.018455,0.0020483,0.0050855
-0.013261,0.0025443,-0.028788,-0.063389,0.0047493,-0.018248,0.0013539,-0.0039978,-0.007095,-0.010227,0.0044325,0.027352,-0.016758,-0.0022605,-0.039941,-0.07787,0.0030494,-0.0015812,-0.020642,-0.052333,-0.0042334,-0.021174,-0.0026899,0.0065109
-0.012147,0.007317,-0.028453,-0.066079,0.0071205,-0.017655,0.002214,-0.0032807,-0.0033933,0.0055637,0.0064436,0.029791,-0.010922,0.0025627,-0.040075,-0.081376,0.0024522,-0.00335,-0.020773,-0.050924,-0.0060056,-0.0206,-0.0019047,0.0041552
-0.0092997,0.0085475,-0.029145,-0.068284,0.007177,-0.018879,0.00092801,0.0003888,-0.0019789,0.014697,0.0061278,0.028544,-0.0056496,0.0072897,-0.041842,-0.077649,-0.0023195,-0.0054734,-0.022832,-0.049583,-0.002484,-0.016957,0.0046914,-0.0012827
-0.0072267,0.0055833,-0.028698,-0.067996,0.0040578,-0.019902,-0.001221,0.0048379,-0.0021466,0.017412,0.0034778,0.024756,-0.003976,0.010459,-0.048209,-0.067489,-0.0092949,-0.0040094,-0.026603,-0.049293,0.0032043,-0.012342,0.013982,-0.0063607
-0.007834,0.00086145,-0.02603,-0.064018,-0.00038347,-0.018653,-0.002299,0.0075244,-0.0025748,0.017019,8.9736e-005,0.020448,-0.0063953,0.011402,-0.057539,-0.056676,-0.014667,0.0016422,-0.031308,-0.051064,0.0063364,-0.00931,0.021576,-0.0071491
-0.011138,-0.0018478,-0.022287,-0.057027,-0.0028214,-0.014964,-0.00095942,0.0070016,-0.0026638,0.016915,-0.0019717,0.017206,-0.010858,0.010389,-0.064304,-0.052221,-0.015651,0.007391,-0.035261,-0.054864,0.0043987,-0.0093244,0.024598,-0.0023912
-0.015342,-0.00028856,-0.019956,-0.049547,-0.0011692,-0.010879,0.0027291,0.0035568,-0.0029534,0.018228,-0.0016603,0.015662,-0.014732,0.0080191,-0.063367,-0.057527,-0.012766,0.0078539,-0.036107,-0.058888,-0.0010846,-0.011973,0.023164,0.0052367
-0.018053,0.0045671,-0.020664,-0.044576,0.0034764,-0.0090032,0.0072552,-0.0011797,-0.0042278,0.019937,0.00042042,0.015893,-0.016816,0.004635,-0.054092,-0.069852,-0.0092627,0.001661,-0.032165,-0.060224,-0.0060441,-0.015303,0.01969,0.011115
-0.01769,0.0092869,-0.023577,-0.043635,0.0074194,-0.010289,0.010475,-0.0051529,-0.0063315,0.020927,0.0026485,0.017937,-0.017623,0.00042919,-0.040824,-0.081951,-0.0080843,-0.0064788,-0.024124,-0.056834,-0.0071874,-0.016992,0.016801,0.012389
-0.014223,0.01059,-0.025863,-0.045599,0.007186,-0.013185,0.010906,-0.0067392,-0.0080768,0.021689,0.0036483,0.021682,-0.017976,-0.0039134,-0.029584,-0.086921,-0.009184,-0.0094339,-0.015401,-0.049305,-0.0042979,-0.015658,0.015566,0.010216
-0.0089861,0.007712,-0.024913,-0.047222,0.0023568,-0.014882,0.0087516,-0.0053032,-0.0084182,0.023865,0.0031858,0.026291,-0.017611,-0.0069371,-0.023952,-0.082825,-0.0098113,-0.0040728,-0.010258,-0.040773,0.00019387,-0.011586,0.015358,0.0086147
-0.0039038,0.0027152,-0.020473,-0.045146,-0.0039398,-0.013617,0.0058683,-0.0014396,-0.007565,0.028115,0.0021622,0.03007,-0.015367,-0.007101,-0.023325,-0.073589,-0.0074687,0.0055008,-0.010783,-0.034803,0.0036217,-0.0065044,0.015155,0.011012
-0.00065934,-0.001331,-0.014874,-0.038008,-0.0073527,-0.010102,0.0045169,0.0032203,-0.0066656,0.032624,0.0019252,0.031411,-0.010758,-0.0039844,-0.024357,-0.065421,-0.0026123,0.011244,-0.015226,-0.032788,0.0051992,-0.0025333,0.014942,0.017562
-0.0001563,-0.0026614,-0.011129,-0.027187,-0.0056152,-0.0068816,0.0057378,0.0068091,-0.0063037,0.034029,0.0034905,0.030206,-0.0051997,0.0011292,-0.023796,-0.061562,0.0015776,0.0082956,-0.019268,-0.032921,0.0061483,-0.00090418,0.015844,0.025445
-0.0023418,-0.0017494,-0.010489,-0.015721,-0.00018396,-0.0061735,0.0086586,0.0084245,-0.0055445,0.03018,0.0070955,0.028296,-0.001434,0.0059863,-0.020398,-0.059719,0.0021122,-0.00056024,-0.019342,-0.031578,0.0080925,-0.0012571,0.01888,0.03149
-0.0062901,-0.00033385,-0.011459,-0.0062833,0.005049,-0.0079834,0.011357,0.0089491,-0.0028484,0.022245,0.01215,0.028166,-0.0014662,0.0088987,-0.014961,-0.054377,-0.001077,-0.0073411,-0.01519,-0.02603,0.011402,-0.0020219,0.023545,0.034467
-0.010459,0.00033501,-0.011089,0.00025108,0.0068176,-0.010065,0.012539,0.010655,0.0018968,0.014112,0.017463,0.030785,-0.0048614,0.0097881,-0.0091675,-0.042001,-0.0052144,-0.0060887,-0.0095422,-0.016443,0.01492,-0.0016344,0.027672,0.035109
-0.01314,0.00038881,-0.007467,0.0047403,0.0047755,-0.0097608,0.012533,0.015574,0.006467,0.0094428,0.021667,0.03459,-0.0090104,0.0098783,-0.0044045,-0.024563,-0.0073622,0.001771,-0.0053557,-0.0057722,0.017054,0.00034603,0.028905,0.034435
-0.013111,0.00073722,-0.0013646,0.0085934,0.0012731,-0.0062022,0.012752,0.023728,0.007874,0.0089141,0.023742,0.036684,-0.011195,0.010403,-0.0011609,-0.0083081,-0.0069999,0.0089012,-0.0032495,0.0021966,0.017034,0.0031147,0.026609,0.032548
-0.010328,0.0018122,0.0042999,0.012659,-0.00091349,-0.001023,0.014235,0.032691,0.0052252,0.009989,0.023471,0.035248,-0.010661,0.011553,0.0010173,0.0010983,-0.0060383,0.0089591,-0.0014563,0.0051832,0.015275,0.0055316,0.022554,0.029245
-0.0061498,0.0030491,0.0067276,0.017053,-0.00077268,0.0029936,0.01673,0.038991,0.0010746,0.0093395,0.021497,0.03092,-0.0089415,0.012591,0.0031567,0.0027525,-0.0064455,0.0024507,0.0018405,0.0036359,0.012795,0.0071599,0.019669,0.025448
-0.0026929,0.0036253,0.0053971,0.021742,0.00065133,0.0041675,0.019162,0.040436,-0.00035166,0.005743,0.018864,0.025892,-0.0082424,0.01288,0.0061332,0.00057625,-0.0079872,-0.0039056,0.0062017,0.00031792,0.01045,0.008462,0.019843,0.023367
-0.0014288,0.0036037,0.0023901,0.026956,0.0018067,0.0031284,0.020876,0.037588,0.0033063,0.00099286,0.016256,0.021807,-0.009415,0.012738,0.0098852,-0.00034265,-0.0083521,-0.003597,0.0090264,-0.0012507,0.0086644,0.01008,0.02253,0.024678
-0.0019712,0.0041502,0.00068815,0.032842,0.0023234,0.0019847,0.022274,0.03331,0.010455,-0.0018051,0.013524,0.018621,-0.011273,0.01317,0.013204,0.0024641,-0.0054949,0.0036153,0.0080764,0.0014522,0.0076112,0.012072,0.025275,0.028369
-0.0021817,0.0064066,0.0018961,0.038739,0.0032193,0.002311,0.024154,0.030766,0.016932,-0.00094242,0.0099793,0.015445,-0.011772,0.01471,0.014574,0.008144,0.00014135,0.011663,0.0040516,0.0088252,0.0073892,0.013933,0.025646,0.030748
0.000178,0.010034,0.0052494,0.043068,0.0055812,0.0038703,0.026487,0.031417,0.01968,0.0024627,0.0054332,0.012139,-0.0099187,0.016535,0.013637,0.014835,0.005704,0.01406,0.00063909,0.019081,0.0079124,0.015308,0.022949,0.02818
0.0054506,0.012954,0.0085978,0.044287,0.0091626,0.0052145,0.028059,0.0344,0.019353,0.0053362,0.0012012,0.0097124,-0.0067201,0.016881,0.011972,0.022105,0.0082629,0.010012,0.0017205,0.029221,0.0087185,0.016511,0.018503,0.020353
0.01152,0.012817,0.010358,0.042203,0.012325,0.0054399,0.027547,0.037518,0.019492,0.0048981,3.4525e-005,0.0090883,-0.0043447,0.014644,0.012129,0.030933,0.0072539,0.0049885,0.008084,0.036568,0.0090694,0.018233,0.014528,0.010982
0.01536,0.009129,0.010691,0.038339,0.01336,0.0052393,0.025074,0.03888,0.023095,0.00044886,0.0045182,0.0098247,-0.0042265,0.010773,0.015328,0.041546,0.0048555,0.0053455,0.016564,0.040041,0.0083963,0.02075,0.01277,0.0050531
0.015423,0.0041809,0.010998,0.034814,0.011898,0.0061621,0.022597,0.03796,0.029796,-0.0064844,0.014778,0.010486,-0.0057431,0.0080559,0.019733,0.051743,0.0040472,0.012197,0.022445,0.040477,0.0067284,0.023511,0.013837,0.0048635
0.012699,0.0018009,0.01241,0.03263,0.0091198,0.0088919,0.022486,0.035495,0.036245,-0.013382,0.027352,0.010417,-0.0066418,0.0091395,0.021133,0.057885,0.0061407,0.020278,0.023073,0.039833,0.0046811,0.025534,0.017324,0.0083114
0.0094858,0.0047151,0.014772,0.030968,0.0066961,0.012413,0.02543,0.032604,0.03922,-0.018192,0.03668,0.010864,-0.004936,0.014273,0.01599,0.057898,0.0098953,0.02275,0.019611,0.039858,0.0029815,0.026163,0.022135,0.01088
0.0071489,0.012472,0.016968,0.028251,0.0055792,0.015008,0.029593,0.029957,0.038535,-0.020068,0.03871,0.01392,-0.0007044,0.020749,0.0045384,0.053413,0.012803,0.017408,0.01557,0.041087,0.0019499,0.025452,0.02664,0.0094674
0.0051325,0.021521,0.018073,0.024017,0.0057037,0.016063,0.031923,0.027502,0.03706,-0.019293,0.03402,0.020208,0.003799,0.024733,-0.0087851,0.048765,0.013236,0.008683,0.01365,0.04276,0.0014072,0.02393,0.028957,0.0046842
0.0021358,0.027414,0.018071,0.019811,0.0065899,0.01673,0.030553,0.024703,0.037959,-0.016862,0.02768,0.027789,0.005953,0.024143,-0.018289,0.047475,0.011555,0.0038579,0.013777,0.043498,0.0010561,0.022164,0.027703,-0.00017674
-0.0019346,0.02757,0.017558,0.018131,0.0079122,0.018658,0.026211,0.020915,0.041764,-0.014131,0.025516,0.033642,0.005025,0.0202,-0.021115,0.04925,0.0093908,0.0071435,0.013914,0.042187,0.0009009,0.020569,0.022991,-0.002242
-0.0054624,0.02269,0.016981,0.020263,0.009319,0.022097,0.021464,0.01574,0.045963,-0.012475,0.029575,0.036265,0.0028548,0.016314,-0.019061,0.050252,0.0079526,0.016834,0.012597,0.038535,0.0012295,0.019452,0.016777,-0.0012993
-0.0067056,0.016019,0.016409,0.024928,0.0098718,0.025388,0.01858,0.0094051,0.047366,-0.012775,0.036613,0.036571,0.0022085,0.015231,-0.016521,0.046525,0.0070235,0.027662,0.010679,0.033171,0.0021609,0.018972,0.01191,0.00064043
-0.0057745,0.011194,0.016006,0.028999,0.0081498,0.026504,0.017945,0.0030785,0.045011,-0.0149,0.040935,0.036009,0.0041481,0.016892,-0.016326,0.037713,0.0055008,0.035774,0.010666,0.02742,0.003289,0.018957,0.010342,0.0016605
-0.004763,0.010263,0.016379,0.029776,0.0034472,0.025088,0.01834,-0.0012696,0.041002,-0.017709,0.039124,0.033946,0.0068261,0.018813,-0.017184,0.027863,0.0028711,0.041737,0.014366,0.022853,0.003937,0.018934,0.011848,0.0017389
-0.0056893,0.01306,0.018009,0.027008,-0.0028759,0.022876,0.018554,-0.0018004,0.038688,-0.019897,0.03256,0.027489,0.0069737,0.01852,-0.015057,0.022543,0.00011341,0.049144,0.021033,0.020624,0.0039075,0.018638,0.014335,0.0023972
-0.008276,0.017911,0.020176,0.023038,-0.0074729,0.021989,0.018666,0.00181,0.039991,-0.021188,0.025752,0.014584,0.0028775,0.015786,-0.0072535,0.024563,-0.00094049,0.060461,0.027671,0.020821,0.0039606,0.018608,0.015501,0.0047484
-0.0099143,0.022765,0.020769,0.020965,-0.0070857,0.022816,0.019771,0.0076291,0.044299,-0.022779,0.022389,-0.0022949,-0.0038821,0.01271,0.0045738,0.031743,0.00070125,0.074062,0.031185,0.022283,0.0053337,0.020106,0.014458,0.0079502
-0.0080101,0.025944,0.017806,0.022205,-0.0012513,0.023652,0.022494,0.012332,0.049719,-0.026324,0.022856,-0.015802,-0.0096472,0.011753,0.015416,0.038495,0.0040056,0.085084,0.030559,0.023293,0.0084933,0.024034,0.012026,0.0095738
-0.0024982,0.026394,0.011645,0.025262,0.0067198,0.022507,0.025815,0.013398,0.055199,-0.03207,0.025149,-0.017931,-0.011809,0.013664,0.02116,0.039978,0.0064629,0.089246,0.027368,0.022865,0.012215,0.029624,0.0096775,0.0075801
0.0038891,0.023842,0.0056791,0.026691,0.011737,0.019306,0.027418,0.011011,0.061303,-0.037839,0.02766,-0.0058489,-0.010916,0.01712,0.022303,0.035552,0.0060819,0.086259,0.024453,0.021611,0.01404,0.03422,0.0083161,0.0021905
0.0078325,0.019043,0.004298,0.023615,0.01065,0.016295,0.025394,0.0079273,0.068846,-0.040107,0.030659,0.015433,-0.0097465,0.020164,0.023662,0.028932,0.00317,0.07996,0.02396,0.021263,0.012031,0.034765,0.0079805,-0.0039126
0.0080148,0.01379,0.0094313,0.016058,0.0047653,0.016233,0.019884,0.0071839,0.076804,-0.036643,0.035034,0.035965,-0.010288,0.021838,0.03018,0.025054,0.00028019,0.075199,0.02621,0.023021,0.0064667,0.03012,0.0084685,-0.0072392
0.0057964,0.010239,0.018644,0.0073117,-0.0010455,0.020066,0.013246,0.0094619,0.081821,-0.028542,0.039949,0.047272,-0.011662,0.022531,0.042444,0.026235,0.00020858,0.074171,0.029948,0.026146,-7.185e-005,0.022356,0.0098597,-0.0057916
0.0036501,0.0097327,0.026668,0.0019003,-0.0020964,0.026175,0.0085104,0.012424,0.080183,-0.019791,0.042325,0.0474,-0.011112,0.023037,0.05586,0.030582,0.003635,0.075178,0.033432,0.028253,-0.0044616,0.01576,0.012173,-0.00041437
0.0030565,0.011995,0.029254,0.0024513,0.0024823,0.031701,0.0073145,0.012698,0.070742,-0.014533,0.039181,0.040972,-0.0070943,0.023584,0.06423,0.033702,0.008388,0.074523,0.035452,0.027305,-0.0052861,0.014039,0.014601,0.005697
0.0037331,0.015457,0.026118,0.0077484,0.0092046,0.034589,0.0089212,0.0088277,0.056103,-0.01423,0.030803,0.034741,-0.0013304,0.02387,0.064687,0.032112,0.011008,0.069718,0.035718,0.023599,-0.0036832,0.017734,0.015518,0.0090176
0.0044892,0.018573,0.020574,0.013526,0.013183,0.034624,0.01108,0.0025976,0.040807,-0.016951,0.021529,0.032509,0.0023279,0.02379,0.059829,0.025628,0.0093797,0.061312,0.0347,0.019811,-0.0021213,0.023812,0.013782,0.0079863
0.0044768,0.020968,0.016451,0.015546,0.012026,0.032963,0.011971,-0.0023416,0.027904,-0.019128,0.016924,0.033329,0.0012159,0.023757,0.055387,0.017123,0.0043211,0.052124,0.033227,0.018863,-0.0022581,0.02779,0.010275,0.0041085
0.0036058,0.023369,0.015187,0.012689,0.0073841,0.030991,0.011586,-0.0032605,0.016885,-0.018116,0.019455,0.033766,-0.0038187,0.024124,0.055555,0.010285,-0.001077,0.044922,0.032072,0.021427,-0.0037812,0.026858,0.0078757,0.0010897
0.0021045,0.026335,0.015495,0.0077034,0.0029945,0.029578,0.01139,-0.00016089,0.004812,-0.013574,0.026343,0.031606,-0.0092415,0.024429,0.059853,0.0073717,-0.0037621,0.04064,0.031615,0.025322,-0.0051079,0.021711,0.0093328,0.0024675
0.00012587,0.029076,0.015402,0.005037,0.0011847,0.028976,0.012641,0.0046124,-0.010357,-0.007067,0.031599,0.027578,-0.011882,0.023615,0.063898,0.0084028,-0.0028256,0.038431,0.031662,0.02739,-0.0050669,0.015851,0.014663,0.0092715
-0.0020237,0.029646,0.014368,0.0074442,0.0010544,0.028901,0.01497,0.0081493,-0.027188,-0.00075439,0.030709,0.023936,-0.011258,0.021252,0.063086,0.011756,0.00013281,0.03707,0.031578,0.026193,-0.0039009,0.012967,0.020644,0.019314
-0.003474,0.026584,0.013571,0.013975,-0.00013877,0.028544,0.016588,0.0084821,-0.041236,0.0037266,0.024172,0.021762,-0.0091808,0.01849,0.056046,0.015189,0.0024644,0.036161,0.03074,0.023251,-0.0027924,0.014423,0.023278,0.028609
-0.0030316,0.020563,0.014441,0.020797,-0.0038772,0.026826,0.01596,0.0050582,-0.048176,0.0058227,0.017036,0.019923,-0.0074416,0.017417,0.045325,0.016686,0.0024961,0.03606,0.029087,0.021879,-0.0026177,0.018619,0.021225,0.033888
-0.00016117,0.014422,0.017181,0.024089,-0.0085645,0.023192,0.01339,-0.0012947,-0.046945,0.006298,0.01486,0.016747,-0.0061053,0.019137,0.035284,0.015212,0.00061986,0.036802,0.027298,0.024765,-0.003243,0.022505,0.016947,0.034441
0.0042195,0.01129,0.020604,0.02277,-0.010658,0.018513,0.010985,-0.0082742,-0.040342,0.0071407,0.019386,0.012567,-0.0040337,0.022398,0.029269,0.011448,-0.0011978,0.037335,0.026411,0.032211,-0.0039062,0.023896,0.014351,0.032146
0.0081139,0.012306,0.023162,0.019122,-0.007648,0.015055,0.01097,-0.01225,-0.032763,0.010746,0.027292,0.010239,-0.0008033,0.02439,0.028151,0.0078749,-0.00095677,0.035993,0.027086,0.042082,-0.0040642,0.02274,0.015104,0.029949
0.0098691,0.015872,0.024005,0.017003,-0.00019994,0.015054,0.013855,-0.009586,-0.027088,0.018327,0.032814,0.012685,0.002202,0.023221,0.030687,0.0074897,0.0019461,0.031898,0.029099,0.051094,-0.0037643,0.02053,0.017283,0.030069
0.0093943,0.019071,0.023285,0.019071,0.0082725,0.018765,0.018056,0.00091475,-0.023222,0.028502,0.032053,0.019606,0.0027889,0.01971,0.034783,0.011573,0.0063361,0.025948,0.031521,0.056403,-0.0033107,0.018615,0.01776,0.033062
0.0080193,0.019932,0.021819,0.024966,0.013991,0.023736,0.021222,0.016164,-0.019191,0.037467,0.025675,0.026709,9.9362e-005,0.016577,0.038559,0.018296,0.010082,0.020334,0.033457,0.056751,-0.0027974,0.017031,0.015912,0.03804
0.0071481,0.018603,0.020614,0.031677,0.015076,0.026288,0.022015,0.029625,-0.013571,0.041206,0.018177,0.028656,-0.0042425,0.0156,0.040991,0.023776,0.011489,0.016843,0.034718,0.052964,-0.0020876,0.014861,0.014707,0.043521
0.0070511,0.016614,0.020458,0.035769,0.012149,0.02428,0.020833,0.035045,-0.0071327,0.038398,0.014511,0.023431,-0.0071792,0.015551,0.042296,0.025142,0.010347,0.015374,0.035787,0.047672,-0.001167,0.011655,0.017776,0.048281
0.0069627,0.015223,0.021489,0.035917,0.007383,0.018889,0.019079,0.030674,-0.0024898,0.031707,0.016634,0.014231,-0.0065604,0.013173,0.043947,0.023006,0.0079949,0.013956,0.037057,0.044142,-0.00033615,0.0084375,0.025207,0.051805
0.0062684,0.014469,0.022927,0.033919,0.0031416,0.013774,0.01787,0.02068,-0.0022498,0.026186,0.022387,0.0070062,-0.0026713,0.0065596,0.047874,0.020953,0.0064325,0.010287,0.03804,0.044495,4.4466e-005,0.0072276,0.032369,0.054244
0.0054237,0.01359,0.023463,0.033365,0.0010838,0.012153,0.01737,0.012447,-0.0071719,0.025793,0.027296,0.0056104,0.0023504,-0.0022932,0.054945,0.022328,0.007052,0.0034462,0.037443,0.048308,-4.3536e-005,0.0093958,0.033335,0.055981
0.005554,0.012028,0.02234,0.036855,0.0017695,0.014198,0.017126,0.01172,-0.015583,0.030668,0.02783,0.008663,0.0065219,-0.0084363,0.063811,0.02731,0.0097539,-0.0056693,0.034261,0.05275,-0.00022234,0.014315,0.026004,0.057104
0.0071185,0.0098929,0.020308,0.043832,0.0045224,0.016985,0.016867,0.01921,-0.024254,0.037209,0.023752,0.010735,0.0094983,-0.007905,0.071371,0.033118,0.01294,-0.015493,0.029001,0.054476,-9.2077e-005,0.019526,0.014249,0.057239
0.0090888,0.0076312,0.019317,0.050801,0.0076316,0.017096,0.016958,0.03095,-0.030023,0.040814,0.017969,0.0068018,0.012204,-0.00118,0.074778,0.037112,0.014389,-0.025444,0.023753,0.052039,0.00040207,0.022317,0.0050528,0.055934
0.0096561,0.005644,0.020823,0.053874,0.009163,0.013629,0.018183,0.041611,-0.031247,0.039092,0.014144,-0.0037181,0.015141,0.0069914,0.073364,0.039598,0.012563,-0.036649,0.020697,0.046925,0.0010465,0.021447,0.0031469,0.053283
0.0079507,0.0044591,0.024104,0.0517,0.008171,0.0090013,0.021104,0.047901,-0.028394,0.033224,0.01395,-0.016438,0.01721,0.011311,0.068704,0.043319,0.0076254,-0.051156,0.020171,0.04233,0.0017903,0.017733,0.0077699,0.050096
0.0051522,0.0050708,0.026326,0.046416,0.005441,0.0068423,0.025445,0.049711,-0.023622,0.026753,0.016051,-0.025135,0.016391,0.0099251,0.062803,0.050035,0.0015367,-0.070369,0.02011,0.040594,0.0029799,0.013262,0.014021,0.047286
0.0037958,0.0085206,0.024703,0.041858,0.0029705,0.0088468,0.029852,0.048894,-0.019577,0.022999,0.017448,-0.025927,0.011803,0.0053722,0.056284,0.057713,-0.0029733,-0.093981,0.017671,0.041374,0.0050004,0.010032,0.017142,0.044984
0.0056826,0.01459,0.018999,0.040503,0.0024011,0.013397,0.032251,0.047383,-0.018025,0.023046,0.015997,-0.019446,0.0052211,0.0020216,0.048425,0.061548,-0.004072,-0.12012,0.011818,0.042007,0.0075865,0.0090147,0.015837,0.042341
0.010128,0.020847,0.012066,0.041645,0.0036492,0.017132,0.030821,0.046206,-0.019025,0.025469,0.012022,-0.0097915,0.00043072,0.0025721,0.038901,0.058249,-0.0021099,-0.14628,0.0045313,0.039694,0.0095548,0.010015,0.012192,0.038418
0.014137,0.023529,0.0076908,0.042191,0.0049698,0.017954,0.025232,0.045579,-0.021125,0.027673,0.0078209,-0.0014569,0.00064697,0.0065409,0.029197,0.049578,0.0004268,-0.17019,-0.00065751,0.033644,0.0094551,0.012087,0.0090751,0.033375
0.01455,0.020212,0.0075158,0.039239,0.0045054,0.016676,0.017318,0.04522,-0.022431,0.027772,0.0056839,0.0034173,0.0059947,0.011475,0.021925,0.041498,0.00044749,-0.18978,-0.001631,0.025463,0.0067751,0.01408,0.0077742,0.028642
0.01056,0.012192,0.0097663,0.032218,0.0020354,0.015867,0.010445,0.044297,-0.021831,0.025823,0.0061611,0.0057318,0.013168,0.015212,0.01855,0.039333,-0.003637,-0.20278,0.00054823,0.017617,0.0026591,0.015096,0.0077366,0.025647
0.0045577,0.0042355,0.010981,0.022986,-0.00062026,0.017083,0.007618,0.041359,-0.019564,0.023753,0.0079093,0.0080056,0.017688,0.017114,0.017847,0.043205,-0.010678,-0.20663,0.0027834,0.011395,-0.00067426,0.014819,0.0078891,0.024198
0.00047267,0.0013732,0.0092447,0.014161,-0.00099873,0.019215,0.0095464,0.034935,-0.016807,0.024013,0.0089621,0.01218,0.01707,0.017706,0.016754,0.047984,-0.017362,-0.19916,0.0029616,0.0061305,-0.001573,0.013604,0.0077507,0.022225
0.00077435,0.0051829,0.0060089,0.0074124,0.001883,0.019552,0.014143,0.024781,-0.014716,0.027778,0.0081638,0.018242,0.012463,0.017679,0.0129,0.047874,-0.02029,-0.17986,0.001917,0.00022115,-0.0003902,0.012244,0.0073189,0.017472
0.0044432,0.012657,0.0047991,0.003103,0.0064233,0.016538,0.017984,0.012789,-0.013686,0.033846,0.0056769,0.024421,0.0075413,0.017353,0.0063349,0.041511,-0.01813,-0.15073,0.0023386,-0.0071134,0.00056658,0.011496,0.0063335,0.0098012
0.0076404,0.018661,0.0079161,0.0011487,0.0093245,0.011593,0.018645,0.0024332,-0.013331,0.039159,0.0025208,0.028526,0.0056111,0.016753,-0.0010533,0.032986,-0.012351,-0.11611,0.0056018,-0.01496,-0.0012483,0.011661,0.0041559,0.0019268
0.0067183,0.019861,0.014071,0.0017583,0.0078809,0.0082029,0.016107,-0.003225,-0.013024,0.040776,-0.00013428,0.029372,0.0072422,0.015802,-0.0075542,0.028013,-0.0060293,-0.081282,0.0096981,-0.021463,-0.0064655,0.012499,0.00061055,-0.0023612
0.0012689,0.016822,0.019105,0.0050748,0.0019701,0.0090366,0.01225,-0.0036181,-0.012451,0.037953,-0.0013533,0.027403,0.010194,0.014362,-0.012812,0.02886,-0.0016835,-0.050628,0.010557,-0.025423,-0.012945,0.013451,-0.0031339,-0.0012021
-0.005279,0.012766,0.019227,0.010152,-0.0057134,0.01364,0.0091164,-0.0011155,-0.011762,0.032687,-0.00057084,0.02431,0.011485,0.012363,-0.01711,0.032642,0.00023303,-0.026325,0.0058029,-0.027217,-0.017053,0.013911,-0.0047992,0.0035998
-0.0081363,0.010525,0.01399,0.014638,-0.011323,0.018748,0.0075748,0.00072766,-0.011366,0.028166,0.0022234,0.022076,0.0097807,0.010138,-0.020009,0.034269,0.0010962,-0.0083101,-0.0025817,-0.028238,-0.016233,0.013382,-0.0024704,0.0076138
-0.0048245,0.010604,0.0065384,0.015932,-0.012211,0.020899,0.0073277,-0.00016263,-0.011643,0.026311,0.0063284,0.02206,0.0062235,0.0086123,-0.02032,0.031108,0.0024791,0.0046005,-0.0094305,-0.029457,-0.010952,0.011586,0.0037919,0.0068169
0.0028816,0.011846,0.0010857,0.013054,-0.0083762,0.019101,0.0078243,-0.0029813,-0.012731,0.026469,0.010627,0.024531,0.0032357,0.0088216,-0.017684,0.025057,0.0045796,0.013346,-0.01064,-0.030567,-0.0044615,0.0086963,0.011525,0.0002818
0.010305,0.013461,-0.0001265,0.0075019,-0.002181,0.015325,0.008847,-0.0051299,-0.014345,0.026377,0.014403,0.028791,0.0025323,0.010981,-0.013876,0.020434,0.0060431,0.018176,-0.0066862,-0.030613,-0.00049505,0.0055458,0.017035,-0.0094158
0.013401,0.015967,0.0020537,0.0021822,0.0032716,0.012625,0.010187,-0.0048199,-0.015646,0.024519,0.018004,0.033737,0.0040182,0.014026,-0.011904,0.019959,0.0052719,0.019494,-0.0021189,-0.029557,-0.00061199,0.0034868,0.017402,-0.01816
0.011602,0.019986,0.0050117,-0.00081483,0.0059333,0.012625,0.011025,-0.002769,-0.015408,0.021685,0.022487,0.038561,0.0062693,0.016303,-0.013381,0.022622,0.0020396,0.019129,-0.0013767,-0.029224,-0.0032301,0.0037027,0.01202,-0.023056
0.0077514,0.024364,0.0066231,-0.0017126,0.0056855,0.014459,0.010067,-0.0013279,-0.012658,0.020276,0.028277,0.043099,0.007874,0.016937,-0.01677,0.025104,-0.0019826,0.020578,-0.0047408,-0.032422,-0.005069,0.0063519,0.0028278,-0.024097
0.0053687,0.02602,0.0065288,-0.002589,0.0039474,0.015801,0.0066044,-0.0018443,-0.0075053,0.021957,0.034033,0.047545,0.0083621,0.016574,-0.018612,0.025022,-0.004214,0.027481,-0.0081626,-0.040612,-0.0038483,0.01026,-0.006778,-0.023799
0.0056674,0.022278,0.0057747,-0.0054451,0.0024925,0.014895,0.0015379,-0.0029365,-0.0014231,0.025854,0.03706,0.051697,0.0081009,0.016713,-0.016805,0.022798,-0.0028574,0.041211,-0.0071307,-0.051869,-9.8328e-005,0.013566,-0.013634,-0.025215
0.0068329,0.013717,0.005608,-0.010487,0.0023371,0.011879,-0.0028468,-0.0016357,0.0034724,0.029029,0.035266,0.054424,0.0075987,0.018221,-0.012769,0.020603,0.0019621,0.059466,-0.00099248,-0.060999,0.0033345,0.014921,-0.016162,-0.02966
0.0060328,0.0046675,0.0065746,-0.015943,0.0033416,0.0085383,-0.0044129,0.0034649,0.005727,0.028898,0.029067,0.054058,0.0070518,0.020489,-0.010184,0.019769,0.0082962,0.077142,0.0062821,-0.062168,0.0036535,0.014317,-0.014767,-0.035691
0.0022656,0.00040929,0.008375,-0.019348,0.004561,0.006924,-0.0027981,0.01011,0.0053476,0.025505,0.021426,0.049602,0.0064618,0.022038,-0.011377,0.019372,0.013448,0.089028,0.0096083,-0.052516,0.00042112,0.012858,-0.011209,-0.040115
-0.0025315,0.00321,0.010197,-0.019122,0.0048907,0.0079167,0.00029345,0.013627,0.0033885,0.021628,0.015797,0.041798,0.0059256,0.021913,-0.014817,0.017322,0.015242,0.092451,0.0073445,-0.034262,-0.0040426,0.011713,-0.0074737,-0.040494
-0.0051325,0.010548,0.011151,-0.015387,0.0035358,0.010655,0.0023801,0.010668,0.00077299,0.020592,0.013698,0.032976,0.0055883,0.020496,-0.016188,0.012715,0.012858,0.088208,0.0027315,-0.013726,-0.0064754,0.011165,-0.0048216,-0.037273
-0.0039753,0.017062,0.010717,-0.009763,0.00021421,0.013084,0.0019144,0.0020874,-0.0024314,0.023603,0.014011,0.025607,0.0052911,0.018988,-0.012073,0.0070758,0.0069884,0.079553,0.0009032,0.002218,-0.0052309,0.010563,-0.0034749,-0.033622
-0.00074471,0.018561,0.0091874,-0.0045529,-0.0046961,0.013271,-0.0010144,-0.0076704,-0.0065481,0.028784,0.014476,0.020723,0.0044529,0.018213,-0.0028154,0.003263,-0.00059117,0.070325,0.004174,0.0099672,-0.0015436,0.0091316,-0.0029256,-0.032715
0.00095225,0.014763,0.0078054,-0.0017183,-0.010012,0.010724,-0.0053347,-0.014072,-0.011187,0.032672,0.013816,0.017556,0.002559,0.017968,0.0079495,0.0031614,-0.0078544,0.063461,0.0098364,0.010788,0.0014847,0.006833,-0.0025233,-0.034514
-0.0012274,0.008807,0.0082414,-0.001865,-0.013924,0.0068657,-0.010043,-0.01565,-0.014808,0.032929,0.01246,0.014685,-8.0155e-005,0.017456,0.016361,0.0063165,-0.013412,0.060319,0.012444,0.0093097,0.0013643,0.0044859,-0.0019787,-0.035011
-0.0061291,0.0044004,0.011504,-0.0036175,-0.014824,0.0042158,-0.014495,-0.014165,-0.015637,0.030105,0.011387,0.011588,-0.0021196,0.016232,0.020991,0.010654,-0.016988,0.060542,0.0085736,0.010156,-0.0017765,0.0030851,-0.001579,-0.029142
-0.0099306,0.0032867,0.017054,-0.0039964,-0.012442,0.0046959,-0.017834,-0.012118,-0.013254,0.027098,0.010572,0.0091611,-0.0019937,0.01465,0.022916,0.014393,-0.019152,0.062246,-8.2102e-005,0.015073,-0.0052064,0.0030152,-0.0020371,-0.015313
-0.009464,0.0048724,0.022942,-7.8649e-005,-0.0083621,0.0082363,-0.018574,-0.010343,-0.0093349,0.026802,0.0088183,0.0087753,0.00073556,0.013435,0.023787,0.017283,-0.02049,0.062718,-0.007943,0.022351,-0.0056058,0.0038758,-0.0039746,0.0023393
-0.0051333,0.0076532,0.027029,0.0088317,-0.0051619,0.012783,-0.015231,-0.0079123,-0.0067359,0.02985,0.0051912,0.010801,0.0046783,0.012931,0.024266,0.020199,-0.020916,0.059753,-0.0099656,0.028594,-0.0015328,0.0049814,-0.0072175,0.016301
-0.00074431,0.010632,0.02831,0.020145,-0.0046199,0.015756,-0.0077015,-0.0039759,-0.007513,0.03424,0.00043201,0.013967,0.0074094,0.012827,0.02422,0.023818,-0.019801,0.053084,-0.0054516,0.031357,0.0055293,0.0059526,-0.010369,0.021136
-0.00025311,0.013461,0.027255,0.029212,-0.0064113,0.01582,0.0019977,0.00072269,-0.011487,0.037086,-0.0033592,0.016099,0.0073551,0.012571,0.023806,0.027834,-0.016882,0.04482,0.0018987,0.030803,0.012293,0.0068332,-0.011199,0.017702
-0.0042329,0.015673,0.024936,0.032282,-0.0084607,0.013547,0.010605,0.0043552,-0.016514,0.036985,-0.0046614,0.015548,0.005245,0.011958,0.023601,0.031384,-0.013068,0.038231,0.0074652,0.029344,0.016039,0.00776,-0.007948,0.012592
-0.0091791,0.016278,0.021875,0.029082,-0.0086703,0.010568,0.015589,0.0059392,-0.02022,0.034996,-0.0041475,0.01219,0.0037059,0.011256,0.023395,0.033978,-0.010215,0.03554,0.0094762,0.029693,0.016403,0.0086855,-0.00078634,0.01315
-0.010277,0.014391,0.017783,0.022999,-0.0065109,0.008137,0.016564,0.0065698,-0.021753,0.033469,-0.0041389,0.0073575,0.0050575,0.010742,0.021293,0.035834,-0.0098073,0.036358,0.0097895,0.032799,0.015295,0.0095009,0.0077612,0.022002
-0.0052351,0.010252,0.012407,0.01872,-0.0031821,0.0064569,0.014988,0.008542,-0.022143,0.033849,-0.0061761,0.0029883,0.0090752,0.010201,0.01489,0.037313,-0.011589,0.038025,0.011291,0.037191,0.015154,0.010342,0.014108,0.035288
0.0040294,0.0054527,0.0065559,0.019161,-0.00045604,0.0052585,0.012565,0.013097,-0.023054,0.035473,-0.0090316,0.0006798,0.012795,0.0089271,0.004038,0.038205,-0.013436,0.037595,0.014619,0.040244,0.016988,0.011579,0.015926,0.045717
0.013003,0.0019845,0.0020917,0.023981,0.00054475,0.0047771,0.010004,0.018979,-0.025091,0.036399,-0.0093434,0.0011054,0.012817,0.0063118,-0.0075174,0.037728,-0.012773,0.033853,0.017406,0.040394,0.019614,0.013365,0.013763,0.047808
0.017836,0.00092369,0.0007286,0.030517,-0.00035691,0.0058875,0.0072304,0.023335,-0.027223,0.035394,-0.0046622,0.0038414,0.0082709,0.0025066,-0.013924,0.035256,-0.008496,0.027863,0.016705,0.03849,0.020519,0.015195,0.010573,0.041353
0.017526,0.0019153,0.0026527,0.036036,-0.0028297,0.0091014,0.0046016,0.024339,-0.02783,0.033188,0.0037265,0.0075174,0.0018009,-0.0014462,-0.011578,0.031023,-0.0018027,0.021805,0.012198,0.037121,0.017589,0.01607,0.0094172,0.030909
0.013702,0.0037933,0.0062631,0.039413,-0.0062988,0.013487,0.0035418,0.023204,-0.026401,0.031856,0.010962,0.010302,-0.0024655,-0.0041664,-0.002358,0.026111,0.0047811,0.017237,0.00699,0.038422,0.010539,0.015288,0.011175,0.022258
0.0089041,0.0055823,0.0093194,0.041154,-0.0096672,0.016859,0.0056267,0.023587,-0.024232,0.032981,0.012053,0.010705,-0.0022793,-0.0047614,0.0074409,0.021793,0.0093596,0.014175,0.005146,0.042249,0.001262,0.013169,0.014127,0.018663
0.0050824,0.0069137,0.010514,0.042182,-0.011153,0.017395,0.010821,0.02858,-0.023392,0.036303,0.005983,0.0083882,0.0010337,-0.003308,0.011989,0.018898,0.01196,0.011504,0.0081813,0.046347,-0.0070455,0.010993,0.015688,0.019419
0.0031679,0.0077024,0.010155,0.042677,-0.0090722,0.015265,0.016676,0.037717,-0.024858,0.039986,-0.0029653,0.0044639,0.0040611,-0.00067613,0.010496,0.017646,0.014128,0.0082067,0.013757,0.048406,-0.011511,0.010089,0.014672,0.021173
0.0032658,0.0077921,0.0095058,0.041923,-0.0033447,0.012621,0.019606,0.04668,-0.027624,0.042121,-0.0080065,0.00097769,0.0045533,0.0020909,0.0074491,0.017818,0.017305,0.0043739,0.017745,0.048151,-0.011152,0.010859,0.012121,0.020685
0.0047424,0.0072119,0.0095335,0.039135,0.0036815,0.011747,0.017488,0.050239,-0.029696,0.042096,-0.0048183,-0.00020061,0.0033794,0.0043244,0.0082798,0.01888,0.021484,0.0012755,0.017735,0.047569,-0.0074771,0.012589,0.01011,0.016994
0.00624,0.0067552,0.010219,0.034426,0.008313,0.013017,0.011436,0.046196,-0.030045,0.040832,0.0051295,0.0015641,0.0034009,0.0058344,0.014406,0.01997,0.025275,0.00042651,0.014815,0.048985,-0.0036231,0.014189,0.009836,0.011733
0.0062013,0.0079274,0.010934,0.02904,0.0081142,0.014618,0.0051665,0.037099,-0.029575,0.039943,0.015515,0.0052263,0.0064327,0.0066353,0.022111,0.020078,0.027173,0.0022764,0.012181,0.052646,-0.0023638,0.015116,0.010793,0.0076609
0.0039832,0.011794,0.011357,0.024587,0.0039999,0.014347,0.0023073,0.028324,-0.030039,0.040648,0.019711,0.0083997,0.011247,0.0066771,0.026139,0.018622,0.02685,0.0055061,0.012062,0.055919,-0.0042122,0.015572,0.011654,0.0066105
0.00065258,0.017552,0.011986,0.021845,-0.00016067,0.011793,0.0037402,0.024125,-0.031911,0.043138,0.015474,0.0083253,0.014501,0.0058905,0.024519,0.016028,0.025393,0.0076691,0.013836,0.054875,-0.0069861,0.015868,0.011744,0.0082805
-0.0015901,0.022353,0.013719,0.020139,-0.0004644,0.0087712,0.0070346,0.024919,-0.033389,0.04651,0.0062142,0.0031595,0.013639,0.004468,0.020052,0.013643,0.024461,0.0069865,0.014889,0.047092,-0.007339,0.015717,0.011488,0.010622
-0.0012399,0.023058,0.016866,0.017935,0.0037899,0.0076097,0.0083725,0.027757,-0.031744,0.049106,-0.0019379,-0.0068504,0.0090136,0.0030072,0.017227,0.012759,0.025137,0.0040001,0.013172,0.033563,-0.0033506,0.014333,0.011453,0.011433
0.00096626,0.018777,0.020485,0.014309,0.0092657,0.0089773,0.0054851,0.029137,-0.025997,0.049185,-0.0047267,-0.018921,0.0033379,0.00225,0.017675,0.013409,0.027263,0.0015314,0.0090454,0.018322,0.0036425,0.011373,0.011169,0.0099429
0.0023884,0.012018,0.022679,0.010025,0.011044,0.011385,-0.00054461,0.027477,-0.018444,0.045901,-0.0023417,-0.02856,-0.00081297,0.0025861,0.018673,0.014047,0.029547,0.0025654,0.0048929,0.0060887,0.0094606,0.0077661,0.0092374,0.0071936
0.00068687,0.0071707,0.021769,0.0071121,0.0065434,0.012794,-0.0058709,0.023382,-0.013427,0.040187,0.0017954,-0.031569,-0.002987,0.0037921,0.016114,0.012567,0.030268,0.0075852,0.0031153,-0.00040564,0.0097336,0.005443,0.0048703,0.0049431
-0.0039911,0.0073346,0.017528,0.007076,-0.00224,0.012668,-0.0064682,0.018169,-0.014131,0.034782,0.0045079,-0.026212,-0.0045518,0.0053168,0.0089656,0.007979,0.028223,0.013744,0.0043914,-0.001691,0.0030968,0.0059695,-0.00067458,0.0039948
-0.008917,0.012048,0.011542,0.0092849,-0.010025,0.012396,-0.0010091,0.012572,-0.020004,0.032866,0.0053929,-0.014149,-0.0066432,0.0068928,0.0007538,0.0013117,0.023487,0.016948,0.0075208,-0.0007261,-0.0074185,0.0092051,-0.0044406,0.0033486
-0.011006,0.017783,0.0063663,0.011171,-0.012097,0.013665,0.0078697,0.0068756,-0.026945,0.035876,0.0064428,0.00057578,-0.0085488,0.0088737,-0.0035136,-0.005051,0.017511,0.015307,0.010606,-0.00068925,-0.01609,0.013214,-0.0039718,0.00095017
-0.009387,0.020717,0.0040221,0.01032,-0.0076715,0.016457,0.014873,0.0018533,-0.030137,0.042093,0.0096219,0.013766,-0.008186,0.011873,-0.0020853,-0.0091086,0.012308,0.010905,0.012328,-0.0029274,-0.018374,0.0156,0.00045498,-0.0045563
-0.0059648,0.019402,0.0048708,0.0066144,-0.00020589,0.018697,0.015276,-0.00101,-0.027295,0.047382,0.014926,0.022966,-0.0042587,0.015914,0.0017124,-0.010632,0.0091342,0.0081191,0.012357,-0.0063707,-0.014185,0.015201,0.0056412,-0.012616
-0.0034901,0.015245,0.0076282,0.0023078,0.0053829,0.017981,0.0080812,-0.00062954,-0.019908,0.047919,0.020568,0.027858,0.0019457,0.019831,0.002389,-0.011125,0.0076734,0.0098284,0.010948,-0.0086587,-0.0080107,0.012776,0.0076861,-0.021254
-0.0030545,0.010853,0.010406,-0.0002334,0.0061917,0.01377,-0.0030559,0.0023043,-0.011745,0.042973,0.02468,0.029368,0.0068845,0.0216,-0.0027583,-0.012507,0.0064914,0.014898,0.0084125,-0.0080584,-0.0055652,0.010204,0.004865,-0.028878
-0.0034124,0.0080593,0.011944,-0.0010035,0.0028099,0.008023,-0.011962,0.0052836,-0.0060251,0.035537,0.02664,0.028612,0.0071273,0.019574,-0.011262,-0.015661,0.0044415,0.019288,0.0049893,-0.0047515,-0.0094476,0.0089425,-0.001165,-0.035695
-0.0026837,0.0073189,0.012166,-0.0024956,-0.0019632,0.003693,-0.013892,0.0056558,-0.0034709,0.030179,0.026945,0.026572,0.001909,0.01384,-0.017793,-0.019893,0.0017206,0.019824,0.0010611,-0.00058559,-0.017194,0.0089955,-0.0067301,-0.043226
-0.00060355,0.0084292,0.011838,-0.0071193,-0.005624,0.0024969,-0.0086396,0.0026584,-0.0025028,0.029709,0.026179,0.024316,-0.0061821,0.0066353,-0.0189,-0.023538,-0.00049476,0.017188,-0.0026744,0.0024336,-0.023272,0.0091048,-0.0088852,-0.052191
0.0010166,0.011199,0.011764,-0.014301,-0.0074746,0.0039253,-0.00062069,-0.0020237,-0.0011056,0.033253,0.024413,0.022962,-0.012953,0.0013201,-0.015798,-0.025141,-0.0015037,0.015363,-0.0053556,0.003631,-0.023376,0.007866,-0.0073921,-0.060768
9.9101e-005,0.015147,0.012167,-0.020265,-0.0082376,0.006208,0.004166,-0.0057402,0.0013016,0.037138,0.021505,0.023049,-0.015453,0.00038849,-0.012912,-0.024493,-0.0021033,0.018031,-0.0063678,0.0038585,-0.017582,0.0048611,-0.0045943,-0.065183
-0.0034647,0.018849,0.012563,-0.02109,-0.0087184,0.0081169,0.0021917,-0.0071243,0.0034416,0.037745,0.01768,0.02391,-0.013752,0.0038023,-0.013815,-0.023047,-0.0039664,0.025151,-0.005727,0.0042339,-0.0099307,0.0010321,-0.0035412,-0.062539
-0.0074367,0.020273,0.01206,-0.016437,-0.0090618,0.0098079,-0.0053623,-0.0071549,0.0033944,0.033993,0.013589,0.023993,-0.010391,0.0088535,-0.018364,-0.023452,-0.007825,0.032801,-0.0041513,0.0046327,-0.005078,-0.0018773,-0.0058645,-0.053581
-0.0091444,0.01834,0.0098473,-0.010457,-0.0091433,0.011959,-0.013641,-0.0081502,0.00036858,0.027648,0.0098226,0.022202,-0.0080996,0.0118,-0.02326,-0.028197,-0.012277,0.036367,-0.0027116,0.0035204,-0.004897,-0.0024154,-0.010824,-0.042739
-0.0078547,0.014267,0.0057162,-0.0087795,-0.0092843,0.014207,-0.017537,-0.011627,-0.0044133,0.02159,0.0065659,0.019178,-0.0077208,0.010278,-0.025072,-0.037821,-0.014637,0.034298,-0.0022306,-0.0004397,-0.0076582,-0.00039368,-0.015948,-0.035034
-0.005348,0.010961,0.00047508,-0.013959,-0.010218,0.01467,-0.014999,-0.016906,-0.0084097,0.017717,0.003756,0.01716,-0.0079963,0.0048842,-0.022843,-0.049795,-0.013319,0.029221,-0.0028227,-0.006397,-0.010001,0.0028566,-0.018637,-0.032194
-0.004186,0.010577,-0.0040443,-0.023182,-0.012242,0.011343,-0.0079993,-0.021617,-0.0094893,0.016165,0.0013894,0.018165,-0.0072,-0.0011615,-0.018416,-0.05927,-0.0096196,0.025667,-0.0039273,-0.011074,-0.0096757,0.0051864,-0.017625,-0.031293
-0.0053328,0.012417,-0.0056692,-0.030166,-0.014537,0.0043114,-0.00073422,-0.023609,-0.0073743,0.016049,-0.00057401,0.021874,-0.0050118,-0.0040777,-0.014865,-0.06179,-0.0070775,0.026507,-0.0048094,-0.011062,-0.0067994,0.004974,-0.013426,-0.027249
-0.0073233,0.013389,-0.0031559,-0.029731,-0.015556,-0.003351,0.0034169,-0.022567,-0.0037318,0.016592,-0.002625,0.025149,-0.0028812,-0.0019523,-0.014661,-0.05639,-0.0087079,0.031124,-0.005063,-0.0059596,-0.0030437,0.0022803,-0.0076903,-0.017247
-0.0076634,0.01085,0.0026759,-0.021489,-0.014257,-0.0072189,0.0039305,-0.020028,-0.00091736,0.017462,-0.0057343,0.024052,-0.002595,0.0039987,-0.018644,-0.046689,-0.014362,0.036558,-0.0046312,0.0005723,5.1271e-005,-0.0010657,-0.0020562,-0.0033677
-0.0051279,0.0051786,0.008916,-0.0099359,-0.011029,-0.0047408,0.002863,-0.017896,-0.00038142,0.018267,-0.010574,0.017047,-0.0044773,0.010103,-0.025754,-0.038756,-0.020516,0.040243,-0.0033929,0.0032863,0.0020399,-0.0026574,0.0026399,0.0088674
-0.00090728,-0.00048754,0.012042,-0.0010908,-0.0073933,0.0025058,0.0027287,-0.016856,-0.0019155,0.01816,-0.016507,0.0068135,-0.0069982,0.012408,-0.033234,-0.037038,-0.022782,0.041789,-0.00094248,-0.00038914,0.0032838,-0.0011934,0.0063379,0.014908
0.0023356,-0.0031964,0.010164,0.0017105,-0.0047398,0.0095853,0.0043356,-0.01605,-0.0041514,0.016339,-0.021481,-0.0011175,-0.0081895,0.0090683,-0.03752,-0.041348,-0.0192,0.042454,0.0029126,-0.0080003,0.0041253,0.0026218,0.0091573,0.014801
0.0026225,-0.0029044,0.0044821,-0.00010603,-0.0032619,0.011676,0.0063159,-0.014142,-0.0057407,0.01308,-0.023327,-0.0022007,-0.0074847,0.001567,-0.03603,-0.047276,-0.011712,0.043225,0.0072644,-0.013947,0.0044999,0.0066659,0.010876,0.012883
0.000215,-0.0022337,-0.0012517,-0.0016714,-0.0020038,0.0075994,0.0066524,-0.010687,-0.0062423,0.010107,-0.021538,0.0036683,-0.0061551,-0.0060468,-0.029114,-0.049602,-0.0047152,0.043628,0.0099123,-0.014165,0.0042463,0.0089551,0.010953,0.013796
-0.0026394,-0.0035035,-0.0031301,0.0017412,0.00010167,0.00056591,0.0047953,-0.0065661,-0.0061825,0.0095671,-0.017927,0.011882,-0.0058819,-0.0095688,-0.020472,-0.045942,-0.0018755,0.042444,0.0085992,-0.0095025,0.0035736,0.0088538,0.0090384,0.018335
-0.0034589,-0.0061174,0.00024344,0.011413,0.0031842,-0.0044854,0.0023809,-0.0032148,-0.0064895,0.012263,-0.015388,0.016365,-0.0068699,-0.0072954,-0.015026,-0.037789,-0.0036273,0.039489,0.0030149,-0.0046842,0.0030806,0.0070223,0.0055136,0.022906
-0.0013215,-0.0071234,0.0067268,0.024331,0.0062553,-0.0047413,0.0017542,-0.0014937,-0.0078762,0.016707,-0.01565,0.013823,-0.0074112,-0.0011347,-0.015382,-0.028478,-0.0071766,0.036496,-0.0042176,-0.0037855,0.0033185,0.0044186,0.0016656,0.02316
0.0026657,-0.0045417,0.012063,0.035211,0.0079571,-0.001393,0.0035721,-0.0012143,-0.01051,0.019961,-0.017973,0.0056862,-0.00543,0.004758,-0.019695,-0.020192,-0.0088599,0.036005,-0.0088486,-0.0064091,0.0044113,0.0015296,-0.00063641,0.018529
0.006441,-7.9396e-005,0.012804,0.039875,0.0075697,0.0018732,0.0058459,-0.0015697,-0.013906,0.019647,-0.019969,-0.0035701,-0.00057895,0.0069994,-0.02301,-0.012681,-0.0069739,0.039171,-0.0079115,-0.0081807,0.0061444,-0.0013834,0.00033011,0.013423
0.0086025,0.0017958,0.0086595,0.037706,0.0055367,0.0022524,0.005654,-0.0018354,-0.016891,0.015507,-0.019853,-0.010028,0.0051494,0.0054488,-0.021244,-0.0045668,-0.0029106,0.044547,-0.0019026,-0.0051154,0.008365,-0.0034813,0.0052173,0.013752
0.0092472,-0.0020523,0.0026047,0.031695,0.0032413,4.6177e-005,0.0022015,-0.0016145,-0.017773,0.0092776,-0.018089,-0.012802,0.008971,0.0031706,-0.014523,0.0043361,0.00019573,0.049051,0.0056857,0.002325,0.011153,-0.0032104,0.012869,0.021718
0.0094849,-0.009932,-0.0012943,0.026305,0.0022563,-0.0020608,-0.0017111,-0.00058353,-0.01498,0.0032137,-0.016852,-0.013659,0.0096457,0.0038346,-0.0069287,0.012041,0.00013902,0.050301,0.011128,0.0094547,0.014463,0.00055679,0.020329,0.033522
0.010221,-0.015976,-0.00071439,0.024739,0.00347,-0.0017577,-0.0016311,0.001668,-0.0081003,-0.0013658,-0.017738,-0.014705,0.0084477,0.0085725,-0.002856,0.015755,-0.0025666,0.048243,0.013139,0.011795,0.017591,0.0069865,0.024,0.042118
0.011332,-0.014805,0.003492,0.027329,0.0064612,0.00072498,0.0044911,0.0052604,0.0013563,-0.004414,-0.019873,-0.016478,0.0078771,0.014803,-0.0032192,0.014354,-0.0052124,0.044724,0.013253,0.0095652,0.019145,0.013029,0.021612,0.042639
0.011879,-0.0062725,0.0081971,0.031756,0.0094725,0.0029024,0.013713,0.0094394,0.010299,-0.0064743,-0.020317,-0.017927,0.0093181,0.017989,-0.0048752,0.0096966,-0.0052194,0.041645,0.013854,0.0079053,0.017843,0.015194,0.013811,0.035799
0.011067,0.0039301,0.010384,0.034666,0.010239,0.0023159,0.019652,0.012609,0.015635,-0.0079338,-0.016613,-0.017763,0.011813,0.014969,-0.0037078,0.0055302,-0.0022325,0.039612,0.015916,0.012466,0.013612,0.012157,0.0040324,0.026456
0.009032,0.0085179,0.0091259,0.033601,0.0074808,-0.0013402,0.017319,0.013335,0.016146,-0.0089212,-0.0092326,-0.015636,0.01304,0.0063242,0.0015016,0.0048313,0.0017844,0.038272,0.018429,0.02433,0.0079947,0.0059259,-0.0035832,0.018964
0.006821,0.0041847,0.0057647,0.028273,0.0021776,-0.0060237,0.0072768,0.011608,0.013242,-0.0096647,-0.0016093,-0.012184,0.011527,-0.0039584,0.0079394,0.0077453,0.0044043,0.037654,0.019707,0.03888,0.003335,0.00038324,-0.0068715,0.013721
0.0056306,-0.006095,0.0024232,0.020641,-0.0025915,-0.0090275,-0.0044553,0.0090967,0.0099114,-0.010644,0.0024597,-0.0083282,0.0080165,-0.011224,0.011315,0.011784,0.0047761,0.038719,0.018979,0.049558,0.0012762,-0.0016843,-0.0068695,0.0079454
0.0059446,-0.01572,0.00027458,0.01378,-0.0036495,-0.0089728,-0.010866,0.0078762,0.0085847,-0.012244,0.0018473,-0.0046646,0.0048196,-0.013212,0.0097226,0.014063,0.0040193,0.042245,0.016794,0.053052,0.001768,-0.00051471,-0.0065485,-0.0004069
0.0071725,-0.019555,-0.001029,0.010054,-0.00039175,-0.0065704,-0.0091521,0.0085585,0.0095631,-0.014318,-0.0010639,-0.0012644,0.0038822,-0.011245,0.0053401,0.013706,0.0037834,0.047175,0.014175,0.051333,0.0033785,0.0013234,-0.0080849,-0.0096926
0.0079771,-0.017197,-0.0025199,0.0096228,0.0041272,-0.003839,-0.0024705,0.0094942,0.011229,-0.016237,-0.0024081,0.0023319,0.0053961,-0.008764,0.0025695,0.012441,0.0045003,0.05041,0.011696,0.049046,0.004545,0.0014426,-0.010998,-0.015626
0.007077,-0.012177,-0.0046382,0.010291,0.0051224,-0.0026463,0.0029721,0.0079123,0.011779,-0.01744,0.00012943,0.0069806,0.0080493,-0.0084422,0.0043713,0.012932,0.0050255,0.048841,0.0093647,0.048995,0.0046252,-0.00038399,-0.012758,-0.015373
0.0041273,-0.0084738,-0.0067079,0.0090194,-2.0271e-005,-0.0036655,0.002879,0.0021715,0.010922,-0.017929,0.0058776,0.013311,0.010363,-0.010165,0.0099688,0.016273,0.0039005,0.042045,0.0071113,0.049905,0.0039489,-0.002404,-0.011269,-0.010629
0.00023203,-0.0076631,-0.0075345,0.0041594,-0.0090168,-0.0062448,-0.0022106,-0.0067215,0.010053,-0.018181,0.012308,0.020589,0.011695,-0.01146,0.015663,0.020811,0.00088027,0.033138,0.0050441,0.048239,0.0031311,-0.0027302,-0.0069125,-0.0065112
-0.0023299,-0.0087492,-0.0064532,-0.0032058,-0.015804,-0.0090043,-0.0081047,-0.015575,0.010771,-0.018641,0.01732,0.026041,0.012147,-0.0099309,0.017774,0.023358,-0.0027837,0.026718,0.0031999,0.042021,0.0025303,-0.00096303,-0.0022762,-0.0071042
-0.0013256,-0.010013,-0.0038622,-0.0099134,-0.015084,-0.010682,-0.010829,-0.021086,0.013197,-0.019438,0.020461,0.025932,0.011918,-0.005583,0.01517,0.021801,-0.0054818,0.02544,0.0013067,0.032956,0.0023281,0.0017448,0.00013353,-0.011846
0.0037387,-0.010674,-0.00087659,-0.012919,-0.0067175,-0.010802,-0.0097668,-0.021936,0.015775,-0.020693,0.022221,0.018378,0.011059,-0.0009855,0.0096373,0.016839,-0.0065971,0.028087,-0.00088712,0.025007,0.0028186,0.0038655,-2.9514e-005,-0.016196
0.010601,-0.011002,0.0014348,-0.011361,0.0038182,-0.0098726,-0.0076407,-0.01948,0.016892,-0.023026,0.022584,0.0058011,0.0098429,0.00084139,0.0043007,0.011352,-0.0067787,0.030722,-0.0029707,0.020926,0.0042257,0.0046063,-0.0010549,-0.015963
0.015044,-0.011401,0.0025105,-0.0069557,0.0094576,-0.0089949,-0.0077517,-0.016731,0.016781,-0.027456,0.020652,-0.0055697,0.0090058,-0.001091,0.0016756,0.00799,-0.0070327,0.029888,-0.0037736,0.020062,0.0060609,0.0040997,-0.0012368,-0.011135
0.013506,-0.011802,0.0022101,-0.002614,0.0067469,-0.0090502,-0.011071,-0.016483,0.01771,-0.034457,0.015825,-0.0095766,0.0092356,-0.0051,0.002641,0.0072267,-0.0076859,0.025157,-0.002227,0.019354,0.0068534,0.0029249,-0.00070287,-0.0056096
0.0058778,-0.011951,0.00055569,-0.00051943,-0.0020263,-0.0099665,-0.015591,-0.019779,0.021941,-0.042923,0.0092285,-0.0046252,0.010299,-0.0085082,0.0064859,0.0075875,-0.0082639,0.01905,0.0014941,0.016403,0.0049539,0.0016697,-0.0010938,-0.0032498
-0.0038433,-0.011896,-0.0022396,-0.0011311,-0.011186,-0.010659,-0.01821,-0.025484,0.02922,-0.050223,0.0036762,0.0050882,0.010893,-0.0099817,0.011459,0.0076203,-0.0082663,0.014674,0.0057238,0.011633,-3.6755e-006,0.00079546,-0.0034547,-0.0042829
-0.010047,-0.011877,-0.0054961,-0.0035515,-0.016038,-0.0098129,-0.017348,-0.03104,0.036282,-0.053707,0.001876,0.012967,0.0096782,-0.010369,0.015423,0.0074818,-0.0078802,0.013193,0.0083832,0.0075401,-0.0063266,0.00051897,-0.0066587,-0.0055725
-0.0095736,-0.011727,-0.0080611,-0.0065806,-0.015496,-0.0069961,-0.014122,-0.033935,0.039177,-0.052674,0.0043648,0.015298,0.0066246,-0.011415,0.016632,0.0084984,-0.0078044,0.013164,0.0084979,0.0059023,-0.011139,0.00054994,-0.008228,-0.0043032
-0.0041146,-0.010713,-0.0089171,-0.0095026,-0.011366,-0.0032329,-0.011329,-0.033134,0.03653,-0.049131,0.0090256,0.013868,0.0032549,-0.013752,0.014607,0.011249,-0.0083687,0.012036,0.0067621,0.0057132,-0.012388,3.4325e-005,-0.0069267,-0.0011763
0.0012063,-0.0083226,-0.0080423,-0.012218,-0.0059406,-0.00050491,-0.011298,-0.029714,0.030806,-0.046526,0.012657,0.013684,0.0013629,-0.01613,0.010558,0.014326,-0.0089443,0.0083884,0.0046287,0.0038936,-0.010302,-0.0018888,-0.0044762,0.00018874
0.0020636,-0.0053093,-0.0066733,-0.014981,-0.00053994,-0.00048353,-0.014307,-0.026277,0.026358,-0.04728,0.013277,0.017953,0.001378,-0.016538,0.0067647,0.015264,-0.0083869,0.0030632,0.0028402,-0.0018799,-0.0070507,-0.005176,-0.0043731,-0.0029994
-0.0016259,-0.0037296,-0.0064966,-0.018106,0.004042,-0.0033998,-0.018586,-0.025364,0.025998,-0.051045,0.011292,0.0249,0.0020055,-0.01406,0.0050388,0.012816,-0.0061802,-0.0015807,0.00086642,-0.010886,-0.004943,-0.0085099,-0.0085941,-0.0096752
-0.0060581,-0.0055075,-0.0082889,-0.021733,0.0065656,-0.0078476,-0.021581,-0.027809,0.029156,-0.055094,0.0087024,0.02922,0.0015494,-0.0097455,0.0053969,0.0082535,-0.0031449,-0.0035521,-0.0022003,-0.01972,-0.0048183,-0.010083,-0.015246,-0.015672
-0.0073113,-0.010595,-0.011175,-0.025585,0.0055668,-0.011611,-0.021496,-0.032171,0.03307,-0.056527,0.007158,0.026704,-0.00037598,-0.0057909,0.0061414,0.0042073,-0.00091323,-0.0026899,-0.0062443,-0.024918,-0.005943,-0.009061,-0.019626,-0.017435
-0.0050064,-0.016463,-0.013245,-0.028829,0.00079175,-0.012928,-0.018209,-0.035759,0.035647,-0.054525,0.0064711,0.017839,-0.0024462,-0.003871,0.0054167,0.0020703,-0.00055906,-0.00059969,-0.0097469,-0.025452,-0.0072046,-0.0064386,-0.0181,-0.014952
-0.0024535,-0.019662,-0.013066,-0.030339,-0.0058016,-0.0114,-0.013261,-0.036633,0.037256,-0.050873,0.0047342,0.0072807,-0.0029067,-0.0040481,0.0029265,0.00054258,-0.0016556,0.0007781,-0.010973,-0.023024,-0.0082075,-0.0044353,-0.01146,-0.011182
-0.0032393,-0.018355,-0.010787,-0.029368,-0.010882,-0.0081192,-0.0090674,-0.035069,0.040114,-0.048432,-6.2986e-005,-0.00012627,-0.0012092,-0.0049963,0.00027057,-0.0031039,-0.0026837,0.00073801,-0.0096459,-0.020256,-0.0091973,-0.00485,-0.0046466,-0.0089395
-0.0076058,-0.013702,-0.0078669,-0.026188,-0.011988,-0.0050264,-0.0077426,-0.033313,0.04637,-0.04885,-0.0080899,-0.0032049,0.0016135,-0.0051321,-0.00040398,-0.010103,-0.0024503,0.00021862,-0.0074024,-0.018632,-0.010137,-0.0077501,-0.0028395,-0.008586
-0.012127,-0.0089065,-0.0057439,-0.022055,-0.0092825,-0.0038974,-0.010045,-0.033717,0.056957,-0.05134,-0.016851,-0.0049761,0.0040755,-0.0036629,0.0018134,-0.018381,-0.0012222,0.00074567,-0.0064012,-0.017924,-0.01021,-0.011523,-0.0071417,-0.0086215
-0.012958,-0.0067313,-0.0046961,-0.01841,-0.0053066,-0.0054467,-0.014938,-0.036732,0.07193,-0.053415,-0.022282,-0.0097191,0.0055436,-0.00088951,0.0059713,-0.023687,-0.00056574,0.0028523,-0.0072676,-0.017143,-0.0085103,-0.014098,-0.013599,-0.0079115
-0.0094637,-0.0076348,-0.0039048,-0.015918,-0.002968,-0.0089717,-0.020054,-0.040421,0.091055,-0.052854,-0.021321,-0.019308,0.0063289,0.002172,0.010207,-0.022777,-0.0020835,0.0053854,-0.0083314,-0.01573,-0.0052834,-0.014245,-0.016459,-0.006728
-0.0047391,-0.01003,-0.0025203,-0.014185,-0.0034121,-0.012728,-0.022903,-0.041929,0.11321,-0.049283,-0.014345,-0.031871,0.0066405,0.0043473,0.013216,-0.015898,-0.006171,0.006364,-0.007004,-0.01386,-0.002299,-0.012078,-0.01293,-0.0055506
-0.0025917,-0.012163,-0.00058877,-0.01235,-0.0053533,-0.014879,-0.022164,-0.03972,0.13494,-0.044194,-0.0055871,-0.043573,0.0058485,0.0046598,0.014854,-0.0064956,-0.011753,0.0047097,-0.002145,-0.011921,-0.0017067,-0.0087553,-0.0053841,-0.0034788
-0.0040108,-0.013674,0.0010706,-0.0099383,-0.0061889,-0.01453,-0.018335,-0.034751,0.15034,-0.039536,-0.00080929,-0.05163,0.0031802,0.0025037,0.015576,0.0014148,-0.017023,0.0013823,0.0047097,-0.010053,-0.0042536,-0.0059046,0.00081519,0.0013412
-0.0065245,-0.01543,0.0018253,-0.0071275,-0.0039741,-0.012213,-0.013335,-0.02966,0.15366,-0.03619,-0.0035063,-0.055951,-0.000769,-0.0021524,0.015595,0.0058327,-0.020473,-0.0010695,0.010379,-0.0082751,-0.0084963,-0.0050975,0.0019057,0.0093678
-0.0069209,-0.018036,0.0019574,-0.0042765,0.0010687,-0.0095097,-0.0093482,-0.026745,0.14336,-0.033523,-0.012384,-0.058295,-0.003575,-0.008506,0.014781,0.0073189,-0.021557,-0.00022482,0.012405,-0.0068756,-0.011785,-0.0072488,-0.0012643,0.0181
-0.0045,-0.020744,0.002368,-0.0013644,0.0064154,-0.0079972,-0.0076254,-0.026446,0.12425,-0.030241,-0.022242,-0.060149,-0.0026353,-0.014899,0.013282,0.0075723,-0.020806,0.0045447,0.01069,-0.0063598,-0.012176,-0.011934,-0.0043141,0.02355
-0.0016094,-0.02193,0.003559,0.0019081,0.008603,-0.0082248,-0.0079667,-0.027436,0.10503,-0.025619,-0.027879,-0.061439,0.0022521,-0.01935,0.01191,0.0077522,-0.01956,0.011629,0.0071239,-0.0068471,-0.0096589,-0.017136,-0.0033751,0.023758
-0.0010299,-0.020586,0.0049611,0.0053841,0.0054204,-0.0094334,-0.0090958,-0.027946,0.092485,-0.020047,-0.02809,-0.061135,0.0079368,-0.020533,0.011575,0.0080278,-0.019391,0.018065,0.0038298,-0.0075975,-0.0058093,-0.020066,0.0015397,0.020834
-0.002949,-0.017253,0.005334,0.0079384,-0.0023283,-0.010221,-0.009556,-0.027007,0.086756,-0.014625,-0.026502,-0.058861,0.0099946,-0.018597,0.012218,0.0082844,-0.021277,0.020909,0.0017764,-0.0073823,-0.002459,-0.018923,0.0067071,0.019211
-0.0046177,-0.013487,0.0038785,0.0079948,-0.010774,-0.0096553,-0.0084953,-0.024674,0.081757,-0.010415,-0.028466,-0.055796,0.0064179,-0.015162,0.012425,0.0087944,-0.024801,0.018193,0.00088049,-0.0055606,-0.00063392,-0.014421,0.0080517,0.021566
-0.003039,-0.010524,0.0010037,0.0048835,-0.015066,-0.0080054,-0.0059477,-0.021398,0.070518,-0.0081023,-0.036499,-0.053962,-0.0003136,-0.012368,0.010436,0.010022,-0.027972,0.009235,0.0010673,-0.0028454,-0.00042877,-0.0097241,0.0046312,0.026354
0.0020094,-0.0085526,-0.0019316,-0.00013463,-0.012493,-0.0065357,-0.0026661,-0.017461,0.051176,-0.0081239,-0.048046,-0.054641,-0.0048836,-0.011601,0.0058741,0.011929,-0.028076,-0.0052985,0.0028296,-0.00085555,-0.0014523,-0.0085965,-0.00068727,0.029407
0.0076211,-0.0072208,-0.003572,-0.004289,-0.0044905,-0.006547,0.00020518,-0.01303,0.02864,-0.010729,-0.057358,-0.057434,-0.0033924,-0.012793,0.00062764,0.013753,-0.023273,-0.023255,0.0065264,-0.00067984,-0.0031368,-0.01304,-0.0036888,0.028015
0.010395,-0.0065715,-0.0033093,-0.0050891,0.0041919,-0.0083796,0.0014719,-0.0085053,0.010619,-0.015575,-0.059853,-0.060731,0.0033127,-0.014731,-0.0021038,0.014632,-0.013947,-0.040977,0.011211,-0.0017622,-0.0047536,-0.022168,-0.0021336,0.023546
0.0094541,-0.0071895,-0.0013116,-0.0021195,0.0087797,-0.011092,0.00032547,-0.0045352,0.0015064,-0.021249,-0.055362,-0.062998,0.010098,-0.016024,-3.8647e-005,0.01441,-0.0028207,-0.053983,0.014501,-0.0022778,-0.0055465,-0.033021,0.0027699,0.020162
0.0069556,-0.0093189,0.0018438,0.0026843,0.0078208,-0.013014,-0.0031203,-0.0014772,-0.00078788,-0.025499,-0.047811,-0.063699,0.011471,-0.015975,0.0064148,0.01375,0.0063466,-0.058558,0.014074,-0.00080051,-0.0052193,-0.042502,0.0076367,0.021004
0.0057584,-0.01201,0.0053287,0.0065832,0.0039317,-0.012778,-0.0075352,0.0011223,-0.0026492,-0.026454,-0.04202,-0.063249,0.0057491,-0.014816,0.014291,0.013465,0.010652,-0.053681,0.0096726,0.0022661,-0.0043581,-0.048914,0.0095642,0.025512
0.0066439,-0.013473,0.0079386,0.0081408,0.0013485,-0.010165,-0.0108,0.0043583,-0.009397,-0.023999,-0.040453,-0.062355,-0.0038236,-0.013339,0.020054,0.013878,0.0093381,-0.042088,0.0037383,0.0049452,-0.0041484,-0.052202,0.0079901,0.030205
0.0077774,-0.012547,0.0082269,0.0081069,0.0023622,-0.0062512,-0.011184,0.0090486,-0.021357,-0.020046,-0.042346,-0.061452,-0.011644,-0.012308,0.021923,0.014974,0.0037818,-0.029495,-0.00016452,0.0055407,-0.0053931,-0.053157,0.004547,0.031864
0.0067698,-0.0098808,0.0052937,0.0083459,0.0056557,-0.002814,-0.0085618,0.014786,-0.034353,-0.017234,-0.045284,-0.0605,-0.013641,-0.012014,0.020828,0.017131,-0.0035597,-0.022073,3.7147e-005,0.0044207,-0.0076704,-0.052538,0.0014196,0.029992
0.0031871,-0.0075161,-0.00024043,0.0097916,0.007863,-0.001351,-0.0046523,0.019838,-0.043682,-0.017027,-0.047365,-0.059002,-0.0094246,-0.012152,0.01935,0.021367,-0.010392,-0.023469,0.0034562,0.0039875,-0.009502,-0.050764,-0.0002818,0.026481
-0.0009255,-0.0070887,-0.0061196,0.011271,0.0068234,-0.00232,-0.0019642,0.022157,-0.047903,-0.018817,-0.04813,-0.056222,-0.0015495,-0.012074,0.019542,0.028398,-0.015276,-0.033161,0.007186,0.0066913,-0.0094838,-0.048174,-0.00093837,0.023256
-0.0029055,-0.0083163,-0.0097034,0.010287,0.0035629,-0.0050425,-0.0021636,0.020858,-0.04939,-0.020799,-0.047991,-0.051768,0.0067342,-0.011339,0.021334,0.03712,-0.017621,-0.047198,0.0088183,0.012761,-0.0074028,-0.045356,-0.0015986,0.020463
-0.0018763,-0.00928,-0.0097852,0.0051438,0.0012752,-0.008302,-0.0051244,0.017084,-0.051668,-0.021782,-0.047242,-0.046405,0.013063,-0.010234,0.022695,0.044136,-0.017308,-0.060787,0.0083491,0.019652,-0.0044095,-0.043129,-0.002855,0.016918
0.00049892,-0.0082992,-0.0074341,-0.0033713,0.0023204,-0.011189,-0.0093352,0.013502,-0.056212,-0.022251,-0.045719,-0.042309,0.016054,-0.0097402,0.021386,0.04537,-0.014356,-0.070936,0.0078763,0.023728,-0.0022321,-0.042173,-0.0044085,0.01215
0.001457,-0.0056079,-0.005029,-0.01216,0.0060018,-0.013572,-0.0132,0.012596,-0.061444,-0.023714,-0.043151,-0.041981,0.014879,-0.010705,0.016869,0.038966,-0.0088329,-0.077423,0.0094552,0.02272,-0.0022048,-0.042614,-0.0055392,0.0077607
-0.00062715,-0.0031711,-0.0042869,-0.017768,0.0090809,-0.015834,-0.016101,0.014837,-0.064473,-0.026998,-0.039504,-0.046169,0.0095487,-0.012762,0.010788,0.0271,-0.0010069,-0.081756,0.013037,0.016904,-0.0047704,-0.043918,-0.0058806,0.0065346
-0.0050851,-0.0027682,-0.0050576,-0.018651,0.0084861,-0.018119,-0.018424,0.018088,-0.063741,-0.031113,-0.03486,-0.052541,0.0017387,-0.014106,0.005582,0.014793,0.008375,-0.085333,0.016251,0.0082233,-0.0094455,-0.045137,-0.0057506,0.0099422
-0.0096244,-0.0041843,-0.0059436,-0.016122,0.0037842,-0.019778,-0.020668,0.018901,-0.060243,-0.03381,-0.029175,-0.056669,-0.0052159,-0.012722,0.0024038,0.0062529,0.017891,-0.088409,0.016181,-0.0015502,-0.014926,-0.045284,-0.0058324,0.016324
-0.012034,-0.0052924,-0.006045,-0.013382,-0.0026417,-0.01963,-0.02251,0.015026,-0.056528,-0.033396,-0.022497,-0.055023,-0.0080517,-0.0083285,0.00021439,0.0016302,0.025604,-0.090413,0.011635,-0.01175,-0.019343,-0.043556,-0.0065998,0.021563
-0.011536,-0.0040111,-0.0060468,-0.013395,-0.0076317,-0.016989,-0.022679,0.0073572,-0.054632,-0.030238,-0.015587,-0.047571,-0.0060008,-0.0032567,-0.0030344,-0.0029282,0.029717,-0.090827,0.0041149,-0.022154,-0.020997,-0.039402,-0.0079689,0.021914
-0.0089674,-0.00032199,-0.007548,-0.017094,-0.0095732,-0.012648,-0.019847,-0.00031093,-0.054738,-0.026591,-0.010101,-0.03763,-0.0016798,-0.0011126,-0.0081291,-0.011714,0.029467,-0.089466,-0.003258,-0.031776,-0.019471,-0.032653,-0.0093121,0.016728
-0.0059871,0.0035413,-0.011303,-0.023051,-0.0091048,-0.0088369,-0.013917,-0.0038277,-0.055413,-0.024855,-0.0076187,-0.028971,0.00076332,-0.0039996,-0.013407,-0.025332,0.025612,-0.085962,-0.0080754,-0.038766,-0.01622,-0.023845,-0.0096992,0.0088302
-0.004064,0.0048998,-0.016141,-0.02872,-0.0079583,-0.0079287,-0.0066897,-0.0017501,-0.054856,-0.0257,-0.0080485,-0.022773,-0.001033,-0.01062,-0.015988,-0.03968,0.02002,-0.079379,-0.010617,-0.041836,-0.013726,-0.014439,-0.0083022,0.00221
-0.0038801,0.0027633,-0.019667,-0.032291,-0.0073124,-0.010754,-0.0011607,0.0034934,-0.052008,-0.027654,-0.0089362,-0.017197,-0.0056987,-0.017057,-0.014526,-0.049087,0.014502,-0.068907,-0.014094,-0.041829,-0.013465,-0.0064831,-0.005002,-0.0010953
-0.0053052,-0.0015882,-0.020121,-0.033819,-0.0071568,-0.015861,0.00029786,0.0074079,-0.046906,-0.028495,-0.0068856,-0.0098136,-0.0093644,-0.019754,-0.01095,-0.050982,0.0097758,-0.055331,-0.022828,-0.041617,-0.01439,-0.0015939,-0.00096433,-0.0024056
-0.0077237,-0.0059187,-0.017672,-0.034824,-0.0069295,-0.020408,-0.0023749,0.0068465,-0.040422,-0.027231,-0.00039156,-0.00036219,-0.0090678,-0.01818,-0.0093753,-0.04799,0.0054019,-0.0418,-0.039262,-0.043951,-0.013538,8.4748e-005,0.0014561,-0.0049966
-0.010391,-0.0088402,-0.014042,-0.036732,-0.0064356,-0.022053,-0.0067539,0.0022504,-0.033819,-0.02491,0.0082809,0.0089296,-0.0053496,-0.014932,-0.012867,-0.045583,0.00074855,-0.032651,-0.061558,-0.04897,-0.0085844,6.6189e-005,-4.0399e-005,-0.011082
-0.012616,-0.01043,-0.010955,-0.03943,-0.0060021,-0.020396,-0.0095802,-0.0031162,-0.028328,-0.023544,0.014223,0.0157,-0.001772,-0.013291,-0.020819,-0.047353,-0.0039351,-0.030835,-0.083483,-0.053675,-0.00018322,0.00054207,-0.0058387,-0.019638
-0.013778,-0.011337,-0.0089907,-0.041208,-0.0058496,-0.016956,-0.0090268,-0.0061546,-0.024724,-0.024157,0.013604,0.019946,-0.0018637,-0.014508,-0.029309,-0.052133,-0.0074078,-0.035952,-0.097147,-0.054092,0.00812,0.0029619,-0.013471,-0.026829
-0.013326,-0.011607,-0.007818,-0.040187,-0.0055961,-0.01388,-0.0057688,-0.0064311,-0.023,-0.025798,0.0070403,0.023968,-0.0062481,-0.017156,-0.034181,-0.055513,-0.0084934,-0.044643,-0.097297,-0.048528,0.012475,0.0072909,-0.018874,-0.0287
-0.01097,-0.010604,-0.0073485,-0.036121,-0.0046416,-0.012541,-0.0020515,-0.0060352,-0.022369,-0.026442,-0.00040708,0.029745,-0.012401,-0.018842,-0.034233,-0.05431,-0.0073636,-0.053067,-0.08455,-0.039218,0.011575,0.012395,-0.019335,-0.024106
-0.0070178,-0.0081096,-0.0083888,-0.03104,-0.0031084,-0.013008,0.0002786,-0.007173,-0.021732,-0.024935,-0.0029416,0.036405,-0.01701,-0.018483,-0.031817,-0.04992,-0.0057656,-0.059308,-0.065233,-0.030978,0.0073179,0.016937,-0.015784,-0.015705
-0.0025822,-0.0052728,-0.011976,-0.028123,-0.0022127,-0.014467,0.00095752,-0.0099473,-0.020388,-0.022093,0.0015342,0.040534,-0.018649,-0.017036,-0.030549,-0.047448,-0.0057902,-0.063724,-0.047712,-0.027937,0.0029301,0.019856,-0.01219,-0.0083263
0.00069709,-0.0041029,-0.018008,-0.029593,-0.0033571,-0.015915,0.00077702,-0.012414,-0.018495,-0.019883,0.0099578,0.03925,-0.018442,-0.016304,-0.03229,-0.051374,-0.0081433,-0.06728,-0.037549,-0.030991,0.00051304,0.020298,-0.012187,-0.0059554
0.0014553,-0.0057259,-0.024614,-0.03517,-0.0065723,-0.016524,0.00017509,-0.01266,-0.016956,-0.019474,0.016759,0.033164,-0.018455,-0.01716,-0.036002,-0.061572,-0.011466,-0.069764,-0.03486,-0.037902,0.00020968,0.017747,-0.01575,-0.0094127
-0.00052594,-0.0090499,-0.029039,-0.042171,-0.0098557,-0.015723,-0.0014006,-0.010713,-0.016797,-0.020085,0.018193,0.026324,-0.019575,-0.018854,-0.039157,-0.073161,-0.013435,-0.069731,-0.035609,-0.045712,0.0012904,0.012891,-0.019074,-0.016203
-0.004042,-0.011365,-0.029406,-0.047134,-0.010396,-0.013403,-0.0046253,-0.0084578,-0.018489,-0.019805,0.014646,0.023018,-0.020858,-0.019791,-0.040114,-0.080192,-0.012808,-0.066129,-0.035671,-0.053169,0.0035,0.0085129,-0.01806,-0.022416
-0.0071004,-0.010627,-0.02585,-0.047807,-0.006949,-0.01032,-0.0088987,-0.0078653,-0.021706,-0.01763,0.0093336,0.024286,-0.020704,-0.018844,-0.039252,-0.079934,-0.010661,-0.059859,-0.034344,-0.061049,0.0070356,0.0088507,-0.01239,-0.025237
-0.0081103,-0.0074379,-0.020147,-0.044264,-0.0013254,-0.0081847,-0.012086,-0.0094453,-0.025728,-0.014751,0.0051524,0.027211,-0.018543,-0.016079,-0.038076,-0.074313,-0.0096766,-0.053618,-0.034495,-0.070223,0.011357,0.016921,-0.0063093,-0.024414
-0.0068226,-0.0047565,-0.014364,-0.038581,0.0026107,-0.0088675,-0.011995,-0.012314,-0.030239,-0.013747,0.002773,0.027542,-0.015402,-0.01251,-0.037489,-0.067841,-0.012024,-0.050128,-0.039266,-0.079438,0.014571,0.031522,-0.00508,-0.021915
-0.0043869,-0.0053938,-0.0097919,-0.03342,0.0019379,-0.012967,-0.0083684,-0.01538,-0.035885,-0.016277,0.0013591,0.023242,-0.012977,-0.0093789,-0.037032,-0.064308,-0.017603,-0.050338,-0.048146,-0.085096,0.014625,0.046836,-0.010159,-0.02029
-0.0025305,-0.0094447,-0.0069144,-0.030435,-0.0027263,-0.018874,-0.0034665,-0.018081,-0.044032,-0.021311,0.00047946,0.01594,-0.012165,-0.0075462,-0.035747,-0.064989,-0.024097,-0.053138,-0.055865,-0.083573,0.011476,0.055904,-0.017508,-0.020972
-0.0024486,-0.01406,-0.0059693,-0.029379,-0.0073885,-0.023422,-0.0004428,-0.019926,-0.055753,-0.025509,0.00082745,0.009308,-0.012375,-0.0072375,-0.033628,-0.069058,-0.02873,-0.056633,-0.055336,-0.074257,0.0079882,0.05579,-0.02076,-0.023566
-0.0041281,-0.01588,-0.0071611,-0.028408,-0.0077582,-0.023976,-0.00077301,-0.019776,-0.070806,-0.0255,0.0030305,0.0060862,-0.012081,-0.0080904,-0.032045,-0.074891,-0.030162,-0.059629,-0.042474,-0.060654,0.0082014,0.050182,-0.016503,-0.026304
-0.0064754,-0.013972,-0.010212,-0.025383,-0.002829,-0.020429,-0.0029938,-0.016245,-0.08756,-0.020193,0.0061473,0.0063604,-0.010088,-0.0094141,-0.032615,-0.080737,-0.028972,-0.061969,-0.019046,-0.048415,0.014041,0.046844,-0.0070583,-0.027122
-0.0080952,-0.010583,-0.013921,-0.019396,0.0040902,-0.015375,-0.0039853,-0.0092609,-0.10413,-0.011349,0.0078582,0.0082843,-0.0064604,-0.010599,-0.035565,-0.084694,-0.026525,-0.063483,0.0086801,-0.041718,0.023276,0.0516,0.0016177,-0.024639
-0.0081963,-0.0090409,-0.016554,-0.011488,0.007935,-0.01218,-0.0018031,-0.0011811,-0.11984,-0.0021689,0.0064478,0.010149,-0.0025025,-0.011473,-0.039274,-0.08496,-0.023415,-0.062565,0.034129,-0.040919,0.030718,0.063689,0.0048341,-0.01868
-0.0070497,-0.010782,-0.016968,-0.0039407,0.006018,-0.012444,0.0023914,0.0041186,-0.13563,0.0047808,0.0025793,0.011712,0.0001538,-0.012296,-0.041624,-0.080797,-0.01895,-0.055804,0.053707,-0.043333,0.031939,0.076278,0.0025447,-0.010376
-0.0057123,-0.014257,-0.015431,0.0014428,0.00028216,-0.014952,0.0050909,0.0038798,-0.15288,0.0087107,-0.0011233,0.0137,0.00065049,-0.013324,-0.042045,-0.073382,-0.012032,-0.039314,0.06651,-0.046303,0.026553,0.08157,-0.0014401,-0.0018639
-0.0052021,-0.016612,-0.013245,0.0047422,-0.0042666,-0.016909,0.0033814,-0.0013296,-0.17159,0.010287,-0.0024771,0.016234,-0.00058087,-0.014334,-0.04234,-0.065367,-0.0025508,-0.011245,0.071431,-0.049727,0.018362,0.076224,-0.0031852,0.0044669
-0.0057067,-0.016374,-0.011461,0.0077109,-0.0036667,-0.016361,-0.0024032,-0.0078657,-0.18965,0.0105,-0.001826,0.017902,-0.0022462,-0.014651,-0.045293,-0.059129,0.0079953,0.026046,0.065353,-0.055703,0.012261,0.062934,-0.0017624,0.0070877
-0.0064285,-0.014561,-0.0099896,0.011973,0.0017779,-0.013743,-0.0086534,-0.011653,-0.20398,0.0097735,-0.0017007,0.016445,-0.0031976,-0.013802,-0.052072,-0.055086,0.017135,0.065786,0.045086,-0.065575,0.010497,0.047657,0.00068398,0.0062189
-0.0062211,-0.013318,-0.0080746,0.017185,0.0078147,-0.011375,-0.01124,-0.011057,-0.21266,0.0078491,-0.0042896,0.01043,-0.0031916,-0.012204,-0.060673,-0.051587,0.022774,0.099158,0.01175,-0.077111,0.011375,0.035464,0.0013786,0.003688
-0.0045471,-0.013673,-0.0056719,0.020998,0.0097705,-0.011456,-0.0088048,-0.0076794,-0.2157,0.0043335,-0.0091149,0.00044562,-0.0027805,-0.011148,-0.066952,-0.046463,0.024242,0.11929,-0.026803,-0.084566,0.011326,0.02843,-0.0006838,0.001542
-0.0019809,-0.014718,-0.0041925,0.021134,0.006354,-0.014295,-0.003815,-0.0046238,-0.2137,-0.00057985,-0.013171,-0.011131,-0.0025263,-0.01192,-0.067608,-0.038897,0.022429,0.12459,-0.058859,-0.081975,0.0083922,0.026362,-0.0043386,0.00033223
0.00018434,-0.01491,-0.0055468,0.017775,0.00069375,-0.018126,-0.00047948,-0.0038975,-0.2055,-0.0056722,-0.013481,-0.021414,-0.0023874,-0.014762,-0.062712,-0.030035,0.01913,0.11924,-0.075671,-0.06726,0.0039474,0.028581,-0.0076971,-0.0014288
0.00092594,-0.013936,-0.010133,0.013892,-0.0021156,-0.020505,-0.0012911,-0.0051181,-0.18757,-0.0088839,-0.0097608,-0.02825,-0.0019313,-0.018584,-0.055651,-0.021994,0.016136,0.11039,-0.076845,-0.043944,0.0011548,0.034671,-0.0098084,-0.0059287
0.00025788,-0.013116,-0.015709,0.012874,0.0010441,-0.020084,-0.0050924,-0.0063555,-0.15641,-0.0082125,-0.0047951,-0.030734,-0.0010964,-0.021647,-0.050502,-0.016286,0.014536,0.10377,-0.069581,-0.019187,0.0016252,0.043927,-0.011165,-0.013834
-0.00085621,-0.013953,-0.018568,0.015407,0.0089075,-0.017433,-0.0081886,-0.0060952,-0.11255,-0.0029544,-0.0021553,-0.029203,-0.00053561,-0.022594,-0.049039,-0.012999,0.014459,0.10069,-0.062188,0.00035823,0.0034707,0.054771,-0.01298,-0.0232
-0.0013203,-0.016415,-0.016426,0.018541,0.016694,-0.014469,-0.0074338,-0.0045406,-0.062432,0.0055243,-0.0032657,-0.025209,-0.00096534,-0.021041,-0.049807,-0.011227,0.015264,0.098359,-0.057431,0.011899,0.002741,0.0652,-0.016098,-0.030702
-0.00069495,-0.018775,-0.010614,0.018054,0.019526,-0.01309,-0.0027058,-0.0032759,-0.015971,0.014198,-0.006336,-0.021449,-0.0020877,-0.017511,-0.049873,-0.010094,0.01609,0.092862,-0.051465,0.017014,-0.002902,0.073849,-0.020397,-0.03423
0.000714,-0.01914,-0.0054771,0.012198,0.015866,-0.014018,0.0030581,-0.0038122,0.019106,0.019848,-0.0080366,-0.021043,-0.0023179,-0.01309,-0.047568,-0.0093535,0.016471,0.082406,-0.039035,0.01958,-0.011626,0.080401,-0.024885,-0.034518
0.0024183,-0.017102,-0.0051088,0.0034692,0.008487,-0.01651,0.0059926,-0.006425,0.041772,0.020523,-0.0064362,-0.025898,0.00011622,-0.0091829,-0.04384,-0.0090831,0.016607,0.068272,-0.019849,0.023118,-0.01848,0.084766,-0.028276,-0.034225
0.0042733,-0.013962,-0.0099735,-0.0033384,0.0023256,-0.018919,0.003814,-0.010271,0.057435,0.015894,-0.0026936,-0.035057,0.0055391,-0.0072353,-0.041153,-0.0089487,0.016926,0.053221,5.4145e-005,0.02944,-0.019278,0.085909,-0.029686,-0.035313
0.0063865,-0.011519,-0.016298,-0.0051791,0.00084676,-0.019624,-0.002951,-0.014498,0.073009,0.0064376,-0.00010014,-0.044532,0.012176,-0.008153,-0.041051,-0.0078787,0.017142,0.039196,0.013324,0.039024,-0.013856,0.081741,-0.029127,-0.037262
0.0085668,-0.010773,-0.018939,-0.0033199,0.0036804,-0.017867,-0.01147,-0.019129,0.09135,-0.0074111,-0.0013284,-0.049402,0.017186,-0.011546,-0.042517,-0.0045945,0.015586,0.026512,0.018013,0.051994,-0.0058024,0.07056,-0.027525,-0.037905
0.01006,-0.011636,-0.015501,-0.0020832,0.0072938,-0.014164,-0.018224,-0.024729,0.10957,-0.025038,-0.0062297,-0.04704,0.018546,-0.015514,-0.042531,0.0013833,0.0096785,0.015036,0.019585,0.068322,0.00092483,0.052953,-0.026166,-0.036065
0.010052,-0.013453,-0.008311,-0.0048613,0.0080638,-0.010116,-0.020794,-0.031163,0.12229,-0.04459,-0.012017,-0.039088,0.016235,-0.017566,-0.038386,0.0090998,-0.0023277,0.0057465,0.026224,0.086931,0.00519,0.032386,-0.025875,-0.033287
0.0085381,-0.015396,-0.0026125,-0.010981,0.0051667,-0.0075795,-0.018995,-0.036798,0.12664,-0.062593,-0.015627,-0.030514,0.011902,-0.016328,-0.029919,0.016453,-0.019372,0.00074559,0.041668,0.10469,0.0087739,0.01362,-0.026482,-0.032726
0.006587,-0.016407,-0.0024391,-0.016248,0.00090275,-0.0074859,-0.014839,-0.039269,0.12458,-0.075388,-0.016217,-0.026316,0.0075661,-0.012793,-0.019936,0.021193,-0.036984,0.0014296,0.062011,0.11673,0.013659,-0.00012919,-0.027015,-0.036099
0.0055143,-0.015326,-0.007562,-0.016674,-0.0016717,-0.0090626,-0.011249,-0.037446,0.12081,-0.081655,-0.015686,-0.028344,0.0045467,-0.0099539,-0.012452,0.021921,-0.049006,0.006573,0.079047,0.11849,0.019543,-0.0091648,-0.02641,-0.041658
0.0056193,-0.011804,-0.013927,-0.012041,-0.0015619,-0.010198,-0.010223,-0.032822,0.11846,-0.083713,-0.016828,-0.034608,0.0032467,-0.010859,-0.010044,0.018511,-0.050945,0.012314,0.086691,0.10841,0.024129,-0.016772,-0.024143,-0.045347
0.0057788,-0.0073722,-0.017056,-0.0061428,-0.00053095,-0.0089703,-0.011655,-0.02882,0.11679,-0.085957,-0.020812,-0.041309,0.0035026,-0.016468,-0.012205,0.011967,-0.042894,0.014308,0.084551,0.089326,0.025638,-0.026438,-0.02029,-0.044291
0.0045094,-0.0052024,-0.015497,-0.0035269,-0.0011377,-0.0052846,-0.013759,-0.028285,0.11277,-0.091335,-0.026194,-0.045672,0.0048441,-0.02495,-0.015847,0.0040484,-0.029873,0.010309,0.076029,0.067187,0.0247,-0.038981,-0.015226,-0.039371
0.0016336,-0.0079222,-0.011571,-0.0056771,-0.0040855,-0.0011669,-0.014777,-0.031292,0.1049,-0.098893,-0.0303,-0.047274,0.0064619,-0.03298,-0.017506,-0.0031009,-0.019,0.0011171,0.063829,0.047787,0.023574,-0.051937,-0.0095321,-0.034447
-0.0011153,-0.014961,-0.0090991,-0.0099185,-0.0074619,0.00077544,-0.01453,-0.035287,0.095623,-0.10472,-0.031602,-0.047198,0.007212,-0.038029,-0.015625,-0.007431,-0.015096,-0.010568,0.047903,0.03365,0.023634,-0.06171,-0.0043362,-0.032885
-0.0013893,-0.022024,-0.010295,-0.01188,-0.0085944,-0.00040346,-0.01443,-0.037525,0.089976,-0.10557,-0.030895,-0.046319,0.0059783,-0.039906,-0.011327,-0.0076611,-0.017622,-0.022038,0.027758,0.023172,0.023897,-0.066638,-0.0015437,-0.034687
0.0015618,-0.023879,-0.014437,-0.0092908,-0.0067204,-0.0030196,-0.015967,-0.037579,0.091591,-0.10188,-0.030213,-0.044525,0.0022566,-0.040421,-0.0072966,-0.0039083,-0.021265,-0.031536,0.0060583,0.01262,0.022165,-0.068317,-0.0031746,-0.036927
0.0058074,-0.018595,-0.019088,-0.0039237,-0.0038845,-0.0041221,-0.019068,-0.037517,0.099431,-0.097313,-0.030648,-0.041398,-0.0034902,-0.041587,-0.0057783,0.0022289,-0.019997,-0.037874,-0.011086,-0.00037843,0.017528,-0.070112,-0.0097909,-0.037027
0.0079835,-0.0096068,-0.022356,-0.00023747,-0.0031544,-0.0021903,-0.021885,-0.039565,0.10814,-0.0951,-0.03127,-0.037249,-0.0099885,-0.04388,-0.0071725,0.0083899,-0.011808,-0.039712,-0.018275,-0.014036,0.011527,-0.074344,-0.019203,-0.035595
0.0059734,-0.0034775,-0.024034,-0.0019817,-0.0057754,0.0011906,-0.022239,-0.043571,0.1118,-0.094844,-0.030282,-0.033209,-0.015692,-0.045973,-0.010106,0.012626,-0.00041451,-0.03562,-0.015598,-0.022002,0.0067825,-0.080711,-0.026957,-0.035983
0.00073106,-0.0049434,-0.02489,-0.0094497,-0.0098951,0.0023503,-0.019471,-0.046886,0.10821,-0.092721,-0.027251,-0.030278,-0.019357,-0.046117,-0.012672,0.014282,0.0076177,-0.025027,-0.0090906,-0.015704,0.004511,-0.08717,-0.028876,-0.040885
-0.0043825,-0.013349,-0.025249,-0.019267,-0.012094,-0.0013521,-0.015141,-0.046979,0.10013,-0.085079,-0.02414,-0.028485,-0.020413,-0.0439,-0.013754,0.01403,0.0082345,-0.0091628,-0.0059176,0.011432,0.0035263,-0.092091,-0.024001,-0.049245
-0.0062164,-0.023444,-0.024542,-0.026592,-0.010437,-0.0088704,-0.01203,-0.04427,0.092771,-0.072001,-0.023935,-0.027127,-0.019059,-0.040848,-0.013457,0.013087,0.0033016,0.0088889,-0.0086124,0.059686,0.0016961,-0.095475,-0.015511,-0.056572
-0.0041829,-0.029674,-0.022258,-0.028062,-0.006392,-0.01567,-0.012279,-0.042214,0.089524,-0.057479,-0.028041,-0.025778,-0.016103,-0.039298,-0.012471,0.012253,-0.001004,0.025094,-0.013804,0.12091,-0.0016762,-0.098267,-0.0085851,-0.058541
-0.00042775,-0.030151,-0.019122,-0.023657,-0.0038587,-0.016941,-0.016062,-0.044204,0.08974,-0.04606,-0.03491,-0.024818,-0.012563,-0.040552,-0.011036,0.011443,0.00038299,0.035732,-0.016586,0.18039,-0.0050261,-0.10089,-0.0067023,-0.054636
0.0021417,-0.027074,-0.017027,-0.016564,-0.0060317,-0.011433,-0.0216,-0.050059,0.090308,-0.039149,-0.041251,-0.024858,-0.0092135,-0.043957,-0.0084231,0.010104,0.0068824,0.03843,-0.016152,0.22287,-0.0061502,-0.10281,-0.0093159,-0.048464
0.0021389,-0.023854,-0.01755,-0.011285,-0.012649,-0.0028212,-0.026321,-0.055536,0.089412,-0.03438,-0.044671,-0.025755,-0.0063472,-0.047733,-0.0033934,0.008253,0.01272,0.03274,-0.017072,0.24009,-0.0046859,-0.10367,-0.012745,-0.044466
0.00039413,-0.022013,-0.020377,-0.011037,-0.019946,0.0026905,-0.028294,-0.055665,0.088717,-0.028361,-0.045223,-0.026509,-0.0039611,-0.050706,0.0046869,0.0073781,0.012043,0.020176,-0.024985,0.23535,-0.0029263,-0.10458,-0.013397,-0.044064
-0.0012444,-0.020632,-0.023219,-0.015799,-0.023423,0.00085488,-0.027105,-0.049039,0.091583,-0.019959,-0.044456,-0.0263,-0.0021719,-0.053257,0.014993,0.010302,0.0041415,0.0035428,-0.041056,0.22149,-0.0040017,-0.10788,-0.010528,-0.044744
-0.0016427,-0.018287,-0.023457,-0.02214,-0.021196,-0.0074262,-0.023848,-0.039148,0.098773,-0.01098,-0.043086,-0.025525,-0.0013732,-0.056501,0.025401,0.019673,-0.0058374,-0.014393,-0.060777,0.21277,-0.0090173,-0.11528,-0.0063496,-0.042763
-0.0010371,-0.015056,-0.020209,-0.025131,-0.01526,-0.016666,-0.020353,-0.031457,0.1059,-0.0039055,-0.039836,-0.02552,-0.0018253,-0.060473,0.033678,0.0358,-0.011122,-0.032247,-0.07822,0.21574,-0.015834,-0.12609,-0.0037667,-0.036822
-0.00025429,-0.012524,-0.015083,-0.021397,-0.0097497,-0.020701,-0.018121,-0.028836,0.1057,0.00080223,-0.032803,-0.027072,-0.0029868,-0.063168,0.038854,0.055431,-0.0085093,-0.050379,-0.09129,0.22563,-0.020736,-0.1374,-0.0040196,-0.029269
0.0004416,-0.012077,-0.010989,-0.011451,-0.0078087,-0.017004,-0.017524,-0.029451,0.093718,0.0051318,-0.022016,-0.029257,-0.0033511,-0.061597,0.041731,0.072872,1.0522e-005,-0.069826,-0.10252,0.23066,-0.021571,-0.14657,-0.0063091,-0.023856
0.0015854,-0.013445,-0.0099715,0.00036647,-0.0096476,-0.0082638,-0.017738,-0.028894,0.072511,0.011512,-0.01048,-0.029974,-0.0012608,-0.054186,0.044067,0.083228,0.010072,-0.09062,-0.11454,0.2208,-0.019529,-0.15405,-0.0093721,-0.022301
0.0036182,-0.014974,-0.011757,0.0085128,-0.013126,-0.00026039,-0.017481,-0.0244,0.050132,0.020629,-0.0023124,-0.027777,0.0037611,-0.042491,0.04702,0.085647,0.019039,-0.11101,-0.12509,0.19363,-0.017967,-0.16396,-0.013106,-0.022908
0.0058898,-0.015166,-0.014095,0.0097445,-0.015905,0.0021847,-0.016084,-0.017255,0.033762,0.031268,0.00051977,-0.023203,0.010327,-0.030643,0.050053,0.083838,0.027517,-0.1284,-0.12708,0.15282,-0.019345,-0.18155,-0.018439,-0.022485
0.0067357,-0.013859,-0.014537,0.0050543,-0.017122,-0.0017838,-0.014036,-0.011371,0.023857,0.042085,-0.00017453,-0.01823,0.015957,-0.022778,0.051159,0.082875,0.037389,-0.14122,-0.11455,0.10165,-0.023074,-0.20896,-0.025562,-0.019667
0.0047662,-0.012049,-0.012267,-0.001325,-0.017382,-0.0090143,-0.012507,-0.0096152,0.014086,0.053183,-0.00047475,-0.014463,0.018824,-0.020369,0.048239,0.08439,0.048824,-0.1501,-0.089039,0.038273,-0.026194,-0.24265,-0.032445,-0.01652
0.00027858,-0.010858,-0.0086521,-0.0050378,-0.017606,-0.014943,-0.012189,-0.011323,-0.0026635,0.065706,0.0021411,-0.011923,0.018964,-0.021435,0.040568,0.084081,0.0593,-0.15723,-0.060169,-0.04195,-0.026211,-0.27454,-0.035495,-0.016899
-0.0045287,-0.010814,-0.0061526,-0.0044802,-0.018034,-0.016777,-0.012545,-0.013048,-0.027367,0.079864,0.0066657,-0.0096161,0.017782,-0.022145,0.029288,0.074176,0.065342,-0.16477,-0.039331,-0.13893,-0.023489,-0.29659,-0.032203,-0.022983
-0.0068837,-0.011965,-0.0064626,-0.0013856,-0.018053,-0.015076,-0.012235,-0.01152,-0.053099,0.093497,0.0097463,-0.0070892,0.016312,-0.01955,0.016668,0.049576,0.065046,-0.17336,-0.031682,-0.24209,-0.021075,-0.3053,-0.023591,-0.033022
-0.0053407,-0.014312,-0.0092455,0.0010348,-0.016571,-0.012873,-0.010428,-0.0060183,-0.070009,0.10285,0.0089713,-0.0051618,0.014055,-0.013471,0.0048143,0.013062,0.059133,-0.18185,-0.033387,-0.33212,-0.022187,-0.30284,-0.014111,-0.042243
-0.00078156,-0.017794,-0.012393,0.00070762,-0.012481,-0.013141,-0.0077252,0.0016505,-0.072839,0.10505,0.0050853,-0.0050007,0.0097884,-0.0063114,-0.0052493,-0.02484,0.050095,-0.18781,-0.036219,-0.38958,-0.027624,-0.29388,-0.0086957,-0.046172
0.0042318,-0.02179,-0.013604,-0.0019559,-0.0052812,-0.016494,-0.0057241,0.0090571,-0.064693,0.1002,0.0010819,-0.0065824,0.0037128,-0.0010879,-0.013688,-0.051738,0.040754,-0.18849,-0.035073,-0.40365,-0.035229,-0.28073,-0.0092019,-0.043642
0.0072169,-0.024833,-0.012113,-0.0047455,0.0040652,-0.020726,-0.0055696,0.014896,-0.054173,0.091159,-0.00078334,-0.0082635,-0.0013935,0.00083186,-0.021334,-0.0608,0.033604,-0.18194,-0.031584,-0.37525,-0.041644,-0.26121,-0.013126,-0.03714
0.0073152,-0.025131,-0.0092508,-0.0055063,0.012658,-0.022518,-0.0068556,0.019165,-0.048593,0.081361,-0.00099628,-0.0079443,-0.0018031,0.00066629,-0.028963,-0.054215,0.030877,-0.16856,-0.031032,-0.31409,-0.044656,-0.23128,-0.015721,-0.030453
0.0055779,-0.021723,-0.0074105,-0.0036409,0.016675,-0.020038,-0.0079426,0.022112,-0.048908,0.07237,-0.0017916,-0.0045918,0.0036524,0.001183,-0.036634,-0.040375,0.0343,-0.1522,-0.036019,-0.23414,-0.044212,-0.19058,-0.013795,-0.025723
0.0039563,-0.015374,-0.0081742,-0.00034303,0.013975,-0.014455,-0.0073539,0.023375,-0.050099,0.063342,-0.0042346,0.0013858,0.011403,0.0044605,-0.043282,-0.027382,0.044082,-0.13959,-0.043173,-0.15133,-0.041618,-0.14594,-0.00812,-0.022344
0.0038569,-0.0084219,-0.011061,0.0022602,0.0064713,-0.0091267,-0.0049016,0.022308,-0.045997,0.052604,-0.0065009,0.0090129,0.014941,0.010113,-0.04682,-0.01808,0.057973,-0.13733,-0.045935,-0.08288,-0.037992,-0.10916,-0.0025286,-0.018399
0.0052911,-0.0035257,-0.013898,0.0022607,-0.00024565,-0.0070073,-0.0015766,0.019102,-0.034242,0.039843,-0.0053779,0.017568,0.009818,0.015342,-0.044987,-0.010019,0.071726,-0.14767,-0.040609,-0.04447,-0.033497,-0.089927,-0.00059029,-0.01313
0.0071032,-0.0021155,-0.014565,-0.001232,-0.00067196,-0.0083352,0.0014562,0.015413,-0.017598,0.026866,0.00026352,0.026309,-0.0022424,0.016807,-0.036719,0.00053444,0.081135,-0.16618,-0.029814,-0.04436,-0.027879,-0.088868,-0.0026818,-0.0080987
0.0079754,-0.0035931,-0.012773,-0.0078134,0.0060864,-0.010538,0.0036119,0.013627,-0.0012342,0.016264,0.0075186,0.033659,-0.014044,0.012876,-0.023137,0.014512,0.084251,-0.18332,-0.02006,-0.078495,-0.021549,-0.096533,-0.005854,-0.0059105
0.0074124,-0.0058529,-0.01041,-0.015922,0.015031,-0.010528,0.0047428,0.015146,0.0113,0.0091662,0.011365,0.037367,-0.018439,0.0044526,-0.007218,0.029296,0.082031,-0.18943,-0.015715,-0.13245,-0.015965,-0.099354,-0.0064758,-0.0076361
0.0059823,-0.006799,-0.010129,-0.023331,0.018899,-0.0074804,0.0045879,0.019112,0.020222,0.004183,0.0091409,0.036185,-0.014224,-0.0062253,0.0078849,0.041435,0.076976,-0.17976,-0.01498,-0.19114,-0.012771,-0.088443,-0.0033267,-0.011341
0.0046753,-0.005823,-0.013216,-0.028,0.014039,-0.0036565,0.0027618,0.022745,0.028606,-0.0014433,0.0035573,0.03162,-0.0072622,-0.017614,0.020634,0.049924,0.071085,-0.15623,-0.011566,-0.2495,-0.012369,-0.064741,0.0014689,-0.013296
0.0039276,-0.004187,-0.018452,-0.029083,0.003535,-0.0024192,-0.00050051,0.023229,0.039716,-0.0094333,0.0011534,0.027635,-0.0055899,-0.029677,0.031508,0.056919,0.064901,-0.12533,-0.00052634,-0.31451,-0.013241,-0.037074,0.0043499,-0.011054
0.0031558,-0.0039975,-0.022922,-0.027543,-0.0052486,-0.005097,-0.003689,0.019749,0.054793,-0.018921,0.0070842,0.027943,-0.012592,-0.042493,0.041666,0.065237,0.05823,-0.094302,0.017077,-0.39515,-0.012815,-0.015265,0.0033242,-0.0057486
0.0012717,-0.0064844,-0.024207,-0.02579,-0.0066689,-0.0094926,-0.0044784,0.014056,0.072647,-0.027109,0.020551,0.033024,-0.024127,-0.05394,0.05117,0.074931,0.051437,-0.068557,0.034814,-0.48726,-0.009347,-0.0038848,-0.00051834,-0.0014418
-0.0021639,-0.010854,-0.022237,-0.026314,-0.0011342,-0.011535,-0.001318,0.0091125,0.090803,-0.031526,0.034881,0.039682,-0.032095,-0.05909,0.058466,0.082181,0.045727,-0.051292,0.046058,-0.56656,-0.003309,-0.00096675,-0.004175,-0.0018666
-0.0061064,-0.014616,-0.019367,-0.030094,0.0058891,-0.008814,0.0050487,0.0068625,0.10702,-0.031949,0.042376,0.043786,-0.031264,-0.052861,0.061591,0.08177,0.041934,-0.04403,0.04887,-0.59784,0.0029576,-0.0013969,-0.0054281,-0.0072967
-0.0083497,-0.015196,-0.018594,-0.035955,0.0090268,-0.0029594,0.011546,0.0069282,0.12017,-0.030528,0.040037,0.043815,-0.023406,-0.03443,0.059766,0.071334,0.039007,-0.046424,0.046225,-0.55597,0.0071369,-0.001142,-0.0046871,-0.014292
-0.0069934,-0.011703,-0.021341,-0.041429,0.0075033,0.0013382,0.014538,0.0071995,0.13026,-0.030277,0.031579,0.04197,-0.015309,-0.0096327,0.053719,0.053808,0.033902,-0.055292,0.041776,-0.4442,0.008817,0.0013322,-0.0044747,-0.018599
-0.0020857,-0.0055797,-0.026448,-0.044518,0.0050681,-4.817e-006,0.012254,0.0057345,0.13783,-0.033334,0.024278,0.041862,-0.012702,0.011599,0.044547,0.035844,0.023485,-0.064502,0.035537,-0.29606,0.0097331,0.006787,-0.0071419,-0.018703
0.0038526,0.00027865,-0.031048,-0.044998,0.0057998,-0.0071361,0.0060908,0.0023541,0.14339,-0.04017,0.023375,0.045004,-0.01552,0.021837,0.032631,0.023282,0.0072056,-0.067111,0.023836,-0.15888,0.012158,0.017418,-0.012817,-0.017008
0.007072,0.003279,-0.032516,-0.044302,0.0099719,-0.016083,-0.00020602,-0.0013229,0.14712,-0.049823,0.028401,0.049431,-0.018464,0.022101,0.018086,0.017322,-0.011652,-0.059012,0.0036016,-0.069883,0.016877,0.036794,-0.019228,-0.01772
0.004995,0.0025531,-0.03004,-0.044205,0.013835,-0.021847,-0.0029662,-0.003295,0.14916,-0.060493,0.033977,0.051632,-0.01594,0.022261,0.0023994,0.014511,-0.027404,-0.04149,-0.023217,-0.039992,0.022547,0.067339,-0.023365,-0.02336
-0.0018513,-0.00078529,-0.024859,-0.04547,0.013314,-0.022133,-0.00091627,-0.0027718,0.15022,-0.07005,0.034053,0.049812,-0.0068279,0.034944,-0.010831,0.010289,-0.035328,-0.020498,-0.049561,-0.054004,0.026957,0.10764,-0.023524,-0.032845
-0.0099102,-0.004528,-0.019287,-0.047464,0.0080056,-0.018602,0.0041879,-0.00065298,0.15188,-0.076605,0.026208,0.045283,0.0049063,0.067096,-0.017617,0.0027569,-0.034595,-0.0029372,-0.067831,-0.08386,0.028953,0.15212,-0.020197,-0.04246
-0.014887,-0.0066902,-0.015408,-0.048817,0.0017574,-0.014793,0.0089725,0.0013669,0.15597,-0.07931,0.013064,0.040784,0.013803,0.11518,-0.016821,-0.0067053,-0.028673,0.0074117,-0.075068,-0.1047,0.029241,0.19349,-0.015383,-0.048562
-0.014721,-0.0064442,-0.014227,-0.04839,-0.00056892,-0.012772,0.010797,0.0021788,0.16324,-0.078954,0.00027866,0.037596,0.017231,0.1672,-0.011949,-0.01618,-0.022981,0.01143,-0.074171,-0.10435,0.029409,0.22627,-0.011135,-0.049685
-0.010959,-0.0042613,-0.015544,-0.045875,0.0028474,-0.011566,0.0093335,0.0019295,0.17209,-0.077606,-0.0071266,0.034455,0.01679,0.20944,-0.0092997,-0.026175,-0.021556,0.012973,-0.070428,-0.083765,0.030218,0.24907,-0.0084913,-0.046683
-0.0073471,-0.0013943,-0.018328,-0.041881,0.009427,-0.00868,0.0063468,0.0015112,0.17884,-0.077154,-0.0075898,0.029327,0.016059,0.23305,-0.013413,-0.039468,-0.025085,0.015706,-0.066919,-0.051578,0.030859,0.26458,-0.0073164,-0.041429
-0.0067252,0.00086239,-0.021286,-0.037734,0.01444,-0.0031248,0.0040338,0.0014778,0.1795,-0.077744,-0.0034276,0.022039,0.017087,0.23633,-0.023437,-0.057709,-0.031405,0.021021,-0.063103,-0.018043,0.029871,0.2781,-0.0067963,-0.035528
-0.0088276,0.0017309,-0.02345,-0.035071,0.014711,0.0030124,0.0033522,0.0014723,0.17212,-0.07757,0.0010263,0.014848,0.018693,0.2229,-0.033604,-0.078225,-0.037681,0.028276,-0.057444,0.0089596,0.026824,0.2954,-0.0060141,-0.029918
-0.010886,0.0011713,-0.024585,-0.035088,0.010745,0.0060463,0.0036202,0.00070814,0.15776,-0.074452,0.0021762,0.010121,0.017741,0.19851,-0.037655,-0.094745,-0.042416,0.036528,-0.050857,0.025425,0.023169,0.32079,-0.0043579,-0.025039
-0.010418,-0.00018477,-0.025175,-0.037609,0.0059211,0.0039456,0.0035335,-0.0010206,0.13963,-0.068,-0.00087486,0.0074491,0.011982,0.16897,-0.033661,-0.10219,-0.04594,0.045956,-0.047106,0.031116,0.021439,0.3554,-0.0018423,-0.0209
-0.0075555,-0.0013162,-0.025916,-0.04068,0.0038201,-0.0016403,0.0025607,-0.0028994,0.12103,-0.060401,-0.0061801,0.0033429,0.0020814,0.13945,-0.025409,-0.10161,-0.04944,0.057725,-0.049463,0.028506,0.023413,0.39607,0.00064678,-0.016925
-0.004714,-0.0012949,-0.027,-0.041442,0.0058642,-0.0065551,0.0014502,-0.0037991,0.10387,-0.054904,-0.010489,-0.0057796,-0.0086294,0.1136,-0.019371,-0.10052,-0.053594,0.072523,-0.056893,0.02116,0.028684,0.43588,0.0015021,-0.01213
-0.0039856,0.00013215,-0.027797,-0.038104,0.010758,-0.0075805,0.0014568,-0.0035151,0.088327,-0.053149,-0.011347,-0.019983,-0.016273,0.091892,-0.019904,-0.10781,-0.05791,0.089009,-0.063668,0.012083,0.034681,0.46655,-0.00075166,-0.0059658
-0.0049382,0.002193,-0.027309,-0.031561,0.015717,-0.0050963,0.0030589,-0.0032474,0.073565,-0.053624,-0.0084205,-0.035155,-0.018843,0.070308,-0.026486,-0.12687,-0.06108,0.10349,-0.063236,0.0027635,0.038128,0.4818,-0.0062025,0.00072391
-0.005099,0.0033827,-0.025051,-0.025069,0.018414,-0.0025404,0.0053417,-0.0046243,0.058481,-0.052676,-0.0033296,-0.046234,-0.017383,0.041383,-0.034859,-0.15262,-0.06193,0.11131,-0.053194,-0.0066471,0.036965,0.47973,-0.012898,0.0056533
-0.0026824,0.0024237,-0.021582,-0.021819,0.018375,-0.0031373,0.0065678,-0.0079908,0.042096,-0.047343,0.0016143,-0.051537,-0.015378,-0.0019693,-0.040684,-0.17499,-0.06024,0.10943,-0.037156,-0.016236,0.031526,0.46273,-0.017709,0.0063731
0.0012466,-0.0007214,-0.018106,-0.022231,0.017067,-0.0068697,0.0054088,-0.01156,0.023743,-0.037685,0.0047516,-0.054229,-0.016858,-0.061826,-0.042602,-0.18611,-0.056908,0.098596,-0.021956,-0.025022,0.024283,0.43543,-0.018483,0.0021042
0.0035118,-0.0046652,-0.015435,-0.023382,0.01672,-0.01046,0.0018268,-0.012421,0.0032701,-0.026774,0.0056237,-0.059498,-0.02436,-0.13288,-0.042493,-0.18559,-0.053353,0.083673,-0.012596,-0.030259,0.018333,0.40274,-0.015898,-0.0052786
0.0018863,-0.0075466,-0.013261,-0.021306,0.018659,-0.010366,-0.0029692,-0.0087667,-0.018909,-0.018474,0.0046345,-0.069984,-0.037845,-0.20399,-0.043248,-0.17983,-0.050503,0.071348,-0.0090371,-0.027882,0.015586,0.36917,-0.013281,-0.011943
-0.0025441,-0.0084103,-0.010463,-0.014315,0.022331,-0.0060472,-0.0072658,-0.0015222,-0.042093,-0.01489,0.0023807,-0.083529,-0.054977,-0.26275,-0.046192,-0.17632,-0.048021,0.066345,-0.0071626,-0.01405,0.015843,0.33913,-0.014133,-0.014015
-0.0061522,-0.0078271,-0.0062553,-0.004454,0.025722,-0.00052853,-0.0096474,0.0060708,-0.065643,-0.015411,-0.00076033,-0.095115,-0.07242,-0.30039,-0.050199,-0.17763,-0.044363,0.068571,-0.0026939,0.013024,0.017311,0.31656,-0.019194,-0.0093976
-0.0060257,-0.0072035,-0.0011866,0.0042167,0.026862,0.0021821,-0.0094448,0.01068,-0.088844,-0.017729,-0.0046513,-0.10101,-0.087297,-0.31438,-0.052887,-0.18012,-0.037743,0.073392,0.0053869,0.05237,0.018071,0.30323,-0.025608,0.0015776
-0.0025704,-0.0074441,0.0029458,0.008957,0.025205,0.00043726,-0.0068452,0.011198,-0.1101,-0.019674,-0.0092856,-0.10133,-0.098056,-0.30822,-0.052623,-0.17803,-0.027407,0.07513,0.014553,0.10177,0.01729,0.29718,-0.029149,0.016698
0.0010513,-0.008233,0.0043062,0.010322,0.021827,-0.0038907,-0.0028233,0.0093676,-0.12619,-0.020376,-0.014759,-0.098956,-0.10452,-0.28896,-0.049663,-0.16939,-0.014334,0.071301,0.021387,0.16104,0.015317,0.29334,-0.027789,0.032817
0.0020467,-0.0085626,0.002419,0.011179,0.018412,-0.0072593,0.0011209,0.0083436,-0.13267,-0.020217,-0.021209,-0.096362,-0.10735,-0.26392,-0.045749,-0.15852,-0.00084192,0.06433,0.024614,0.23454,0.012857,0.28668,-0.023506,0.04651
0.00061859,-0.007905,-0.0013815,0.013941,0.016034,-0.0074504,0.0035249,0.010457,-0.12572,-0.020071,-0.02849,-0.093466,-0.10738,-0.23802,-0.042777,-0.15275,0.010654,0.059367,0.026038,0.33008,0.010167,0.27563,-0.020625,0.054513
-0.00037645,-0.0068283,-0.0048236,0.018685,0.01475,-0.0050685,0.0037101,0.015909,-0.10439,-0.020593,-0.035656,-0.088452,-0.10501,-0.21236,-0.041733,-0.15616,0.018914,0.059962,0.028976,0.45317,0.0069999,0.26267,-0.022072,0.054605
0.0017465,-0.0064794,-0.0061878,0.023665,0.01409,-0.0025342,0.0022601,0.02312,-0.071922,-0.021857,-0.040776,-0.080312,-0.09994,-0.18507,-0.042575,-0.16545,0.024352,0.065175,0.035927,0.59984,0.0030852,0.25129,-0.026866,0.047038
0.0069689,-0.0074917,-0.0052461,0.027278,0.013678,-0.0018466,0.00077281,0.029991,-0.035003,-0.023266,-0.04161,-0.070384,-0.091271,-0.15397,-0.044787,-0.17158,0.028467,0.070435,0.047364,0.75297,-0.0016303,0.24175,-0.03109,0.035493
0.012593,-0.0093882,-0.00302,0.029326,0.013322,-0.003189,0.00089295,0.034802,-0.0015451,-0.023716,-0.036994,-0.061339,-0.078037,-0.11963,-0.047846,-0.16594,0.032595,0.071273,0.062098,0.8859,-0.0073094,0.22904,-0.031388,0.026011
0.015519,-0.010984,-0.0007466,0.030507,0.012686,-0.0053033,0.0032135,0.036239,0.021949,-0.022216,-0.027991,-0.054738,-0.060015,-0.086593,-0.051212,-0.14626,0.036839,0.066663,0.078159,0.97187,-0.014615,0.20483,-0.027748,0.023599
0.014521,-0.011309,0.00097195,0.031073,0.011184,-0.0068604,0.0068168,0.03322,0.032229,-0.018919,-0.017714,-0.049685,-0.038475,-0.061199,-0.054108,-0.118,0.039901,0.059214,0.093236,0.99409,-0.02444,0.16132,-0.023087,0.028496
0.010695,-0.010153,0.0022055,0.030386,0.0084125,-0.0074319,0.0098126,0.025381,0.029837,-0.015935,-0.0096532,-0.043914,-0.016346,-0.047133,-0.055569,-0.090623,0.040015,0.052296,0.10487,0.95077,-0.036962,0.094211,-0.02019,0.035262
0.0061903,-0.0078307,0.0031366,0.027859,0.0046778,-0.0074324,0.010533,0.01406,0.018286,-0.01702,-0.0055946,-0.036235,0.0025621,-0.042177,-0.054866,-0.072102,0.036353,0.046875,0.11111,0.85369,-0.050851,0.0035581,-0.019052,0.036205
0.0027625,-0.0045829,0.0036324,0.024126,0.00095808,-0.0074834,0.0085884,0.0025779,0.0022085,-0.025865,-0.0047539,-0.027898,0.015234,-0.039224,-0.051894,-0.065362,0.029804,0.04086,0.11154,0.72263,-0.063449,-0.10633,-0.017132,0.027065
0.0012084,-0.00037676,0.0033917,0.020951,-0.0017721,-0.0079689,0.0050928,-0.0051382,-0.014825,-0.043824,-0.0048013,-0.02147,0.021253,-0.031444,-0.047098,-0.068242,0.022372,0.03136,0.10722,0.57947,-0.071828,-0.22642,-0.012151,0.010492
0.0015297,0.0046216,0.0024135,0.019759,-0.0032123,-0.0090325,0.0018934,-0.0069912,-0.031702,-0.068565,-0.0038425,-0.018204,0.023526,-0.0178,-0.040956,-0.075668,0.015517,0.017599,0.098589,0.44389,-0.073865,-0.34258,-0.0046536,-0.005744
