3.1448e-010,4.1094e-010,9.8588e-010,1.6264e-009,-3.029e-010,1.2135e-009,7.7365e-010,1.6303e-009,-1.91e-010,1.1286e-009,1.6399e-010,-1.3698e-010,-4.8233e-011,8.2767e-010,8.0066e-010,1.0978e-009,-1.7364e-011,6.6175e-010,5.4214e-010,1.7267e-009,-2.2573e-010,9.8588e-010,3.029e-010,9.087e-010
8.4895e-009,1.1529e-008,2.7108e-008,4.4754e-008,-8.5169e-009,3.3473e-008,2.1313e-008,4.4792e-008,-5.2048e-009,3.0818e-008,4.6551e-009,-3.5846e-009,-1.1746e-009,2.2856e-008,2.2029e-008,3.0301e-008,-6.6952e-011,1.8456e-008,1.5178e-008,4.7349e-008,-5.9445e-009,2.7047e-008,8.5362e-009,2.5099e-008
1.1103e-007,1.573e-007,3.6249e-007,5.9875e-007,-1.1613e-007,4.4875e-007,2.8537e-007,5.9798e-007,-6.8846e-008,4.0881e-007,6.4118e-008,-4.5389e-008,-1.3402e-008,3.0672e-007,2.946e-007,4.0649e-007,4.8477e-009,2.5003e-007,2.0692e-007,6.3096e-007,-7.6053e-008,3.6055e-007,1.1715e-007,3.3718e-007
9.3672e-007,1.3904e-006,3.1408e-006,5.1889e-006,-1.0229e-006,3.896e-006,2.4742e-006,5.1679e-006,-5.8887e-007,3.5096e-006,5.7105e-007,-3.6991e-007,-9.342e-008,2.6646e-006,2.5513e-006,3.5304e-006,9.3987e-008,2.1917e-006,1.8304e-006,5.4435e-006,-6.2998e-007,3.1115e-006,1.0429e-006,2.9352e-006
5.7268e-006,8.9489e-006,1.9819e-005,3.2741e-005,-6.5411e-006,2.462e-005,1.5613e-005,3.2494e-005,-3.6603e-006,2.1913e-005,3.6974e-006,-2.1758e-006,-4.2671e-007,1.6843e-005,1.6082e-005,2.2308e-005,9.3523e-007,1.3969e-005,1.1811e-005,3.4171e-005,-3.7987e-006,1.9535e-005,6.7699e-006,1.861e-005
2.7011e-005,4.4682e-005,9.704e-005,0.00016028,-3.2357e-005,0.00012066,7.6408e-005,0.00015838,-1.7613e-005,0.00010601,1.8549e-005,-9.8079e-006,-1.1818e-006,8.253e-005,7.8615e-005,0.00010924,6.3243e-006,6.8966e-005,5.9243e-005,0.00016629,-1.7772e-005,9.5064e-005,3.4135e-005,9.1573e-005
0.00010215,0.00018004,0.00038353,0.00063321,-0.0001288,0.00047708,0.00030167,0.00062243,-6.8232e-005,0.00041333,7.5034e-005,-3.5063e-005,-5.7211e-007,0.00032607,0.00030999,0.00043114,3.2171e-005,0.0002743,0.00024037,0.00065251,-6.7122e-005,0.00037294,0.00013907,0.00036378
0.00031767,0.00060112,0.0012562,0.0020733,-0.00042375,0.0015627,0.00098675,0.0020252,-0.00021843,0.0013333,0.00025145,-0.00010121,1.3544e-005,0.0010665,0.0010123,0.0014077,0.00012982,0.00090233,0.00081027,0.0021198,-0.00021017,0.0012109,0.00047007,0.0011982
0.00082627,0.0016943,0.003473,0.0057315,-0.0011741,0.00432,0.002724,0.0055568,-0.00058825,0.0036238,0.0007116,-0.00023669,8.6733e-005,0.0029416,0.0027888,0.0038716,0.00042928,0.0025003,0.0023128,0.0058075,-0.00055565,0.0033139,0.0013427,0.003333
0.0018175,0.0040844,0.0082086,0.013554,-0.0027776,0.010211,0.0064309,0.013026,-0.001349,0.0084063,0.001725,-0.00044062,0.00034082,0.0069315,0.0065648,0.0090826,0.0011883,0.0059109,0.0056663,0.013591,-0.0012555,0.0077416,0.003284,0.0079354
0.0034027,0.0084997,0.01673,0.027666,-0.0056692,0.020823,0.013103,0.026321,-0.0026541,0.016787,0.0036201,-0.00060946,0.0010205,0.014079,0.013321,0.018324,0.0027938,0.012027,0.012032,0.027412,-0.0024416,0.01557,0.0069394,0.01632
0.0054337,0.015363,0.029548,0.04902,-0.010062,0.036842,0.023176,0.046094,-0.004495,0.029008,0.0066326,-0.00045219,0.002487,0.02479,0.023424,0.031937,0.0056322,0.02117,0.022293,0.047899,-0.0040913,0.027094,0.012743,0.029167
0.0073919,0.024199,0.045298,0.075581,-0.015627,0.056702,0.035695,0.070126,-0.0065459,0.043458,0.010683,0.00052176,0.0050743,0.037942,0.035772,0.048133,0.0097911,0.032304,0.036178,0.07267,-0.0058684,0.040859,0.020395,0.045451
0.0085394,0.033265,0.060155,0.10131,-0.021368,0.075875,0.047892,0.092615,-0.0081445,0.056368,0.015227,0.0028432,0.0087695,0.050473,0.047398,0.06253,0.014711,0.042666,0.051494,0.095598,-0.0070571,0.053304,0.028458,0.061812
0.0083994,0.039903,0.06878,0.1175,-0.025908,0.087945,0.055877,0.10576,-0.0085463,0.06301,0.019371,0.0067513,0.012843,0.058191,0.054267,0.069448,0.019088,0.048515,0.064206,0.10849,-0.0067326,0.059843,0.034553,0.073302
0.0072943,0.04181,0.067005,0.11674,-0.028142,0.087689,0.056565,0.10376,-0.0074149,0.060276,0.022269,0.01188,0.015748,0.05786,0.05332,0.064957,0.02132,0.047029,0.069884,0.1052,-0.0042113,0.05735,0.036413,0.07574
0.0064162,0.038593,0.054905,0.097689,-0.027835,0.074603,0.049844,0.087051,-0.0052492,0.049156,0.023609,0.017274,0.015644,0.049432,0.044692,0.049976,0.020439,0.038363,0.066097,0.086037,0.00038434,0.04666,0.033377,0.068553
0.0070797,0.032419,0.037868,0.067039,-0.025664,0.054192,0.039321,0.063517,-0.0033275,0.034989,0.023774,0.021895,0.011526,0.036673,0.032284,0.030848,0.016945,0.02623,0.054332,0.058944,0.0058192,0.032949,0.027264,0.055941
0.0094917,0.026884,0.024027,0.036365,-0.022676,0.035309,0.030556,0.04463,-0.0029951,0.024561,0.023477,0.02536,0.0043625,0.025227,0.02171,0.016045,0.012768,0.016088,0.039817,0.035603,0.01007,0.022967,0.021614,0.044862
0.012042,0.024597,0.019137,0.015133,-0.019709,0.024771,0.027571,0.038368,-0.0046519,0.021618,0.023104,0.028308,-0.002772,0.019173,0.016659,0.010744,0.01009,0.011818,0.02883,0.024411,0.011333,0.020566,0.019401,0.040646
0.012031,0.025265,0.022511,0.0048253,-0.017366,0.023095,0.030084,0.043835,-0.0072159,0.024129,0.02235,0.031906,-0.0061695,0.018594,0.016396,0.013262,0.0097496,0.013238,0.025006,0.02534,0.009216,0.023877,0.020782,0.043291
0.0076579,0.026033,0.027517,-0.0010585,-0.016456,0.024855,0.033771,0.051983,-0.0086622,0.025797,0.020528,0.036699,-0.0039817,0.020147,0.016614,0.016466,0.010552,0.01645,0.027236,0.030851,0.0052609,0.026718,0.022829,0.047528
-0.00016702,0.024048,0.02677,-0.010769,-0.018099,0.023578,0.033638,0.0524,-0.0074463,0.021049,0.017364,0.041688,0.002011,0.020175,0.013153,0.013391,0.010263,0.016894,0.030822,0.032317,0.0021561,0.023521,0.021878,0.046937
-0.0078918,0.019146,0.01809,-0.026855,-0.022833,0.017138,0.027969,0.041157,-0.003775,0.009648,0.01356,0.044581,0.0070458,0.017721,0.0054975,0.0026327,0.0076296,0.01276,0.031119,0.026735,0.0019077,0.013874,0.016815,0.038969
-0.011598,0.014176,0.006302,-0.043802,-0.029263,0.0090528,0.019612,0.02358,0.00039497,-0.0029295,0.010516,0.043282,0.0064933,0.014887,-0.0030335,-0.010889,0.0037086,0.0061012,0.026844,0.018152,0.0042208,0.002824,0.010443,0.026767
-0.0098724,0.012471,-0.00075419,-0.052791,-0.033817,0.0046612,0.013504,0.0097492,0.0028143,-0.0098794,0.0093315,0.037585,-0.00063364,0.014377,-0.0085166,-0.020291,0.0011552,0.00088084,0.020536,0.012883,0.0065102,-0.003413,0.0074153,0.016373
-0.004882,0.014642,0.0012903,-0.049347,-0.03264,0.0058331,0.012497,0.0064214,0.0027559,-0.0086592,0.0098627,0.029661,-0.010601,0.016575,-0.01002,-0.022344,0.0019052,-0.00030853,0.015979,0.013149,0.0058626,-0.0026368,0.010207,0.011856
-0.00062932,0.017727,0.0097999,-0.037108,-0.02467,0.0091556,0.015039,0.011881,0.0016142,-0.0030827,0.010667,0.022763,-0.017485,0.018832,-0.010147,-0.019613,0.0052299,0.0018383,0.014946,0.015063,0.0015963,0.001774,0.016587,0.012615
0.00020443,0.017681,0.017394,-0.024589,-0.013296,0.0092222,0.016689,0.017713,0.0016415,-0.00010103,0.010006,0.019059,-0.017564,0.017604,-0.012113,-0.017675,0.0080152,0.0041673,0.015974,0.012665,-0.0037469,0.0041653,0.021056,0.014858
-0.001888,0.013053,0.017826,-0.018216,-0.0045838,0.0038191,0.014074,0.01577,0.0038323,-0.0039914,0.007229,0.01829,-0.01209,0.011509,-0.016353,-0.020272,0.0072227,0.0037072,0.015914,0.0039683,-0.006107,0.0016111,0.019276,0.015337
-0.0042311,0.0064665,0.010376,-0.018046,-0.0028994,-0.0039098,0.0077911,0.0045137,0.0068604,-0.01289,0.0034796,0.018342,-0.0061335,0.0026831,-0.020095,-0.02667,0.0024925,-0.00014121,0.012569,-0.0069419,-0.0031875,-0.0039756,0.011751,0.013637
-0.0047164,0.0024133,-0.00067771,-0.019639,-0.0073723,-0.0082715,0.0017434,-0.010263,0.0081718,-0.020547,0.001085,0.017209,-0.0044885,-0.0047062,-0.020361,-0.033098,-0.0033973,-0.0054935,0.0060902,-0.013817,0.0033673,-0.0083381,0.0034703,0.011212
-0.0036419,0.0032902,-0.010479,-0.01964,-0.012419,-0.0060673,-0.00046534,-0.020552,0.0064001,-0.021655,0.0019483,0.014606,-0.0080634,-0.0075287,-0.017337,-0.036467,-0.0066769,-0.0097272,-0.0016754,-0.014405,0.0089129,-0.0092942,-0.00022852,0.0088435
-0.0029851,0.0072497,-0.017651,-0.019371,-0.012256,0.00078073,0.0011577,-0.022629,0.0029433,-0.016101,0.0060829,0.011847,-0.013697,-0.0058955,-0.014662,-0.036902,-0.0055282,-0.011454,-0.0087482,-0.012873,0.009334,-0.0086774,0.0019863,0.005583
-0.0040568,0.0097892,-0.024507,-0.023171,-0.0057412,0.0071534,0.0028716,-0.0197,0.0011286,-0.0086003,0.011462,0.010207,-0.017232,-0.0028788,-0.0162,-0.037155,-0.0013669,-0.011193,-0.013915,-0.016067,0.0043537,-0.0099986,0.0066231,0.0002451
-0.00606,0.0075875,-0.033676,-0.033495,0.0027091,0.0090527,0.00035434,-0.018886,0.0034928,-0.0043279,0.015412,0.0094404,-0.016907,-0.002117,-0.02232,-0.0398,0.0024716,-0.010508,-0.01659,-0.027079,-0.0021664,-0.014346,0.0086017,-0.0064902
-0.0070406,0.0011327,-0.044582,-0.047806,0.007057,0.0062378,-0.0076006,-0.025393,0.0094773,-0.0046095,0.016497,0.0079421,-0.014182,-0.0052096,-0.029236,-0.044786,0.0033429,-0.010577,-0.016538,-0.042189,-0.0052781,-0.018836,0.0055034,-0.012066
-0.0061582,-0.0060456,-0.05314,-0.060214,0.005076,0.0011365,-0.017957,-0.038683,0.015617,-0.0064393,0.015339,0.0044508,-0.011687,-0.010785,-0.032052,-0.049315,0.00099553,-0.011412,-0.014255,-0.054039,-0.0028742,-0.01939,-0.0008539,-0.01446
-0.0047756,-0.010541,-0.054942,-0.066114,0.0004246,-0.0043031,-0.025738,-0.053401,0.018206,-0.0059738,0.013658,-0.00038223,-0.010618,-0.01574,-0.028746,-0.049963,-0.0027602,-0.01213,-0.011531,-0.058044,0.0027603,-0.015184,-0.0065112,-0.014526
-0.0050855,-0.011599,-0.049093,-0.065378,-0.00058308,-0.010447,-0.027767,-0.063778,0.016255,-0.0025315,0.012438,-0.004169,-0.010003,-0.017548,-0.021572,-0.045282,-0.005712,-0.011817,-0.011037,-0.056126,0.007027,-0.010185,-0.0088235,-0.015574
-0.0076109,-0.01092,-0.039299,-0.061408,0.005296,-0.018819,-0.024854,-0.067648,0.012238,0.00067805,0.010987,-0.0046763,-0.008149,-0.01591,-0.014863,-0.036901,-0.0066982,-0.01019,-0.014604,-0.054495,0.006895,-0.0098312,-0.008129,-0.020305
-0.010238,-0.010424,-0.031281,-0.057512,0.015121,-0.029465,-0.020873,-0.067081,0.0099552,-0.00030613,0.0078942,-0.0017417,-0.0045044,-0.012667,-0.011425,-0.028334,-0.0059755,-0.0076647,-0.021491,-0.0578,0.0032452,-0.015687,-0.0066036,-0.028046
-0.010027,-0.01049,-0.028711,-0.054371,0.022093,-0.039774,-0.019757,-0.065819,0.011278,-0.0062545,0.0029596,0.0025426,-0.00012754,-0.010308,-0.010725,-0.022422,-0.0047535,-0.0050005,-0.028432,-0.065136,-0.00026325,-0.023239,-0.0059495,-0.035129
-0.0062409,-0.010332,-0.030986,-0.05076,0.021292,-0.046132,-0.022841,-0.066213,0.014504,-0.01378,-0.0018868,0.0055461,0.0033492,-0.010321,-0.010161,-0.01937,-0.0045336,-0.002927,-0.031867,-0.071314,-0.00065587,-0.025381,-0.0062054,-0.038212
-0.0016469,-0.009728,-0.034458,-0.0461,0.013807,-0.0469,-0.02838,-0.06815,0.01574,-0.018274,-0.0038384,0.0061719,0.0049118,-0.012563,-0.0078755,-0.016901,-0.0064825,-0.0019728,-0.030663,-0.071785,0.001752,-0.01885,-0.0063475,-0.037342
-0.00057464,-0.0098966,-0.035742,-0.041697,0.0057104,-0.043836,-0.033179,-0.070163,0.012238,-0.017983,-0.0016668,0.005492,0.0044034,-0.015842,-0.0044265,-0.012389,-0.010759,-0.0024114,-0.026982,-0.066441,0.0039336,-0.0078019,-0.0055072,-0.035772
-0.0052183,-0.012338,-0.034208,-0.039237,0.0029388,-0.04052,-0.034802,-0.07102,0.0049685,-0.015422,0.0028975,0.0055103,0.0020408,-0.018905,-0.0019605,-0.0051866,-0.016052,-0.0041649,-0.024484,-0.059073,0.0032564,-0.00096849,-0.003474,-0.036648
-0.013396,-0.016815,-0.031769,-0.03836,0.0066063,-0.039145,-0.032838,-0.070195,-0.0017307,-0.014862,0.006262,0.0072349,-0.0017931,-0.02097,-0.0019403,0.0028304,-0.019987,-0.0066736,-0.025412,-0.053595,0.0001126,-0.0044944,-0.00042115,-0.039784
-0.019832,-0.020787,-0.030599,-0.036265,0.012675,-0.038563,-0.028767,-0.067383,-0.0033121,-0.018297,0.0056799,0.0096914,-0.00612,-0.021613,-0.0036575,0.0089628,-0.020649,-0.0089192,-0.029049,-0.051009,-0.0024294,-0.016577,0.0032687,-0.041699
-0.020048,-0.021266,-0.031059,-0.03016,0.015939,-0.035384,-0.024974,-0.062376,0.0014478,-0.02361,0.0012278,0.010558,-0.0090594,-0.020604,-0.0048532,0.012131,-0.018273,-0.0097562,-0.032702,-0.049788,-0.0015862,-0.028633,0.0066809,-0.038961
-0.013768,-0.017553,-0.031549,-0.020245,0.014635,-0.02719,-0.023667,-0.055941,0.0093272,-0.026561,-0.0045398,0.0077813,-0.0085529,-0.018186,-0.0037659,0.013914,-0.015511,-0.0084663,-0.034105,-0.048641,0.0024324,-0.032114,0.0082289,-0.03169
-0.0051943,-0.012218,-0.030046,-0.010086,0.011725,-0.015112,-0.026035,-0.050621,0.014885,-0.024638,-0.0086986,0.0009373,-0.0039069,-0.015509,-0.00068528,0.017298,-0.015603,-0.0052239,-0.033074,-0.048304,0.0065533,-0.025234,0.0064816,-0.023873
-5.4942e-006,-0.0091973,-0.025742,-0.0037324,0.012053,-0.003559,-0.031704,-0.049843,0.014313,-0.019245,-0.0098428,-0.0084628,0.0032071,-0.014392,0.0023703,0.024252,-0.019687,-0.0011405,-0.031189,-0.050323,0.0076219,-0.01404,0.001562,-0.020093
-0.001423,-0.010593,-0.019463,-0.0021311,0.018137,0.0027292,-0.03867,-0.055213,0.0079244,-0.014337,-0.0083476,-0.017709,0.009473,-0.016102,0.0035221,0.034165,-0.025565,0.0022254,-0.030155,-0.054289,0.0051201,-0.007171,-0.0043386,-0.021634
-0.0081775,-0.015029,-0.01292,-0.0022199,0.02827,0.0019768,-0.044031,-0.064186,-0.0005428,-0.01293,-0.0053548,-0.024117,0.012057,-0.020009,0.0027751,0.044266,-0.029221,0.0036837,-0.030469,-0.056874,0.001291,-0.0089619,-0.0082591,-0.025478
-0.015634,-0.018997,-0.0076956,0.00044018,0.038357,-0.0034642,-0.045437,-0.0707,-0.0069572,-0.014697,-0.0018544,-0.026147,0.010475,-0.023537,0.0020967,0.05144,-0.027959,0.0031006,-0.031421,-0.054316,-0.0012245,-0.016611,-0.0087057,-0.027033
-0.019045,-0.019901,-0.0046513,0.0078812,0.04562,-0.0088252,-0.042479,-0.069133,-0.0095299,-0.016708,0.0013629,-0.023992,0.0066924,-0.023883,0.0037219,0.0539,-0.02254,0.001506,-0.032096,-0.046332,-0.0017473,-0.023314,-0.0067925,-0.024073
-0.016588,-0.018099,-0.0036878,0.018156,0.050831,-0.010098,-0.036926,-0.058721,-0.0091679,-0.016408,0.0034013,-0.019402,0.0034851,-0.020297,0.0080908,0.051658,-0.016495,0.00046578,-0.032256,-0.037537,-0.0016582,-0.024169,-0.0051264,-0.018413
-0.010198,-0.016255,-0.0036805,0.027197,0.057233,-0.0063681,-0.031492,-0.044665,-0.0076832,-0.01396,0.0035107,-0.014767,0.0025389,-0.014913,0.013184,0.045956,-0.013263,0.0010395,-0.032351,-0.034391,-0.0024443,-0.019703,-0.0054596,-0.014035
-0.0038718,-0.016796,-0.0028091,0.032234,0.06727,0.00018943,-0.02799,-0.034597,-0.0059384,-0.011872,0.0018896,-0.011856,0.003778,-0.011217,0.01592,0.038487,-0.013621,0.0030025,-0.032824,-0.039849,-0.0039578,-0.014454,-0.007359,-0.01361
-0.00077541,-0.01977,0.00040229,0.033687,0.080036,0.0063425,-0.026319,-0.033007,-0.0036903,-0.012422,8.4855e-006,-0.010971,0.0061039,-0.011356,0.014568,0.030966,-0.015503,0.0049253,-0.033497,-0.050272,-0.0046991,-0.01254,-0.0090908,-0.016528
-0.0012098,-0.022809,0.0057586,0.034073,0.091555,0.010186,-0.024996,-0.038061,-0.00087485,-0.015365,-0.00035485,-0.011123,0.0084849,-0.014573,0.010207,0.024959,-0.016111,0.0051423,-0.033698,-0.057564,-0.0036292,-0.014345,-0.0096424,-0.01995
-0.0027438,-0.023013,0.011003,0.035236,0.097483,0.012104,-0.022594,-0.043276,0.0014827,-0.018045,0.001218,-0.011123,0.010338,-0.018067,0.0059521,0.021617,-0.014336,0.0029705,-0.033027,-0.055076,-0.0014084,-0.016923,-0.009704,-0.021567
-0.0022637,-0.019151,0.013191,0.036559,0.095901,0.01376,-0.018817,-0.042493,0.0020248,-0.017713,0.0030427,-0.010694,0.011199,-0.01943,0.0045057,0.021258,-0.011468,-0.00071698,-0.032056,-0.042608,0.00028713,-0.017071,-0.010661,-0.021453
0.0016547,-0.012588,0.011024,0.035761,0.088091,0.016137,-0.014452,-0.034007,0.00075298,-0.013938,0.0025209,-0.010609,0.010532,-0.018431,0.0060387,0.023092,-0.0098194,-0.0040326,-0.032141,-0.026564,0.00055429,-0.013965,-0.012859,-0.021565
0.0077793,-0.0064782,0.0060846,0.031411,0.07711,0.018398,-0.01059,-0.020789,-0.00037349,-0.0090281,-0.0015819,-0.01168,0.008202,-0.016746,0.0081824,0.025391,-0.010629,-0.0053896,-0.034274,-0.0152,0.00016659,-0.0092219,-0.015178,-0.023703
0.013252,-0.0038926,0.0015994,0.024765,0.065704,0.018613,-0.0079309,-0.0072261,0.00099351,-0.0062339,-0.0078554,-0.01353,0.0051131,-0.016162,0.0081301,0.026152,-0.013034,-0.0046573,-0.037818,-0.012738,0.00062072,-0.0049924,-0.016424,-0.027973
0.0157,-0.0060278,-0.00031674,0.019178,0.055215,0.015742,-0.0066055,0.0043762,0.0051203,-0.0073484,-0.013295,-0.01437,0.0030007,-0.0171,0.0050482,0.023972,-0.014792,-0.0033127,-0.040381,-0.016764,0.0023788,-0.0022817,-0.016973,-0.033065
0.014805,-0.011487,-0.00031549,0.017542,0.045874,0.011078,-0.0062628,0.014595,0.0093458,-0.011579,-0.015852,-0.012254,0.0031574,-0.018686,0.00076365,0.018803,-0.014014,-0.0034472,-0.039296,-0.020537,0.0041967,-0.00091149,-0.018707,-0.037771
0.012283,-0.017064,-0.00070043,0.01995,0.037632,0.0076833,-0.0060967,0.024863,0.01007,-0.016325,-0.01614,-0.0068659,0.0051637,-0.019974,-0.0017829,0.01221,-0.010494,-0.0062972,-0.033747,-0.018168,0.0042517,-0.00053845,-0.023143,-0.042093
0.010489,-0.019667,-0.0026595,0.023616,0.030552,0.0080768,-0.0049317,0.035041,0.0060121,-0.018989,-0.016672,-0.00032231,0.0070311,-0.020862,-0.00094366,0.0068216,-0.0057375,-0.01132,-0.025734,-0.0087278,0.0018889,-0.0012058,-0.029631,-0.046828
0.010806,-0.018294,-0.0047831,0.025076,0.0246,0.012004,-0.0017315,0.043102,-0.00028443,-0.018432,-0.01931,0.003867,0.0069409,-0.021802,0.0023581,0.0049986,-0.001828,-0.016476,-0.018845,0.0035068,-0.0018117,-0.0028283,-0.035523,-0.052134
0.012892,-0.014695,-0.0045807,0.022812,0.019394,0.016151,0.0035252,0.047151,-0.0043095,-0.015272,-0.023372,0.0030139,0.0050691,-0.022842,0.0054062,0.0073099,-2.8139e-005,-0.019542,-0.015673,0.012484,-0.0052105,-0.0045174,-0.038203,-0.056663
0.015124,-0.01214,-0.0015211,0.018131,0.014354,0.015997,0.00932,0.047669,-0.0032965,-0.011169,-0.026248,-0.0029936,0.0036323,-0.023232,0.005769,0.011831,-7.7587e-005,-0.01955,-0.015987,0.014743,-0.0077849,-0.0049349,-0.037057,-0.058374
0.015772,-0.013004,0.0017135,0.013781,0.0091211,0.008218,0.013178,0.047614,0.0014958,-0.0077968,-0.025976,-0.011687,0.0048608,-0.022153,0.0030286,0.014993,-0.0005846,-0.017328,-0.017215,0.011554,-0.010541,-0.0036048,-0.033645,-0.056485
0.014096,-0.016972,0.0014524,0.011669,0.0037381,-0.0082658,0.013263,0.050083,0.0059499,-0.0061098,-0.023338,-0.019689,0.008693,-0.019808,-0.0010349,0.013691,-0.00015935,-0.01479,-0.016762,0.0075258,-0.014656,-0.0017827,-0.030204,-0.052728
0.010768,-0.021294,-0.0031967,0.011647,-0.0015882,-0.033001,0.0098585,0.055556,0.0065803,-0.0061668,-0.021415,-0.024776,0.012471,-0.017625,-0.003782,0.0073028,0.0015543,-0.013547,-0.01409,0.0070653,-0.019646,-0.0016696,-0.028092,-0.050455
0.0073946,-0.022973,-0.0088878,0.012158,-0.0068283,-0.06513,0.0054465,0.061313,0.0031846,-0.0073496,-0.022938,-0.026958,0.013113,-0.017146,-0.0035636,-0.0018063,0.0037218,-0.013899,-0.01079,0.011521,-0.022966,-0.0043973,-0.027427,-0.052032
0.0054432,-0.021131,-0.010735,0.011804,-0.012133,-0.10331,0.0031041,0.063695,-0.0015536,-0.0087132,-0.02784,-0.028057,0.0098173,-0.018589,-0.00086258,-0.0097404,0.005162,-0.014904,-0.0087688,0.018984,-0.021706,-0.0086308,-0.027748,-0.056706
0.0052354,-0.017635,-0.0069009,0.010284,-0.01751,-0.14431,0.0043172,0.061346,-0.0048067,-0.0093028,-0.03322,-0.030349,0.0047311,-0.020502,0.0019607,-0.013548,0.0054955,-0.01535,-0.0083623,0.026407,-0.01515,-0.011294,-0.028656,-0.06097
0.0057153,-0.015507,-0.00064871,0.0080575,-0.022632,-0.18203,0.0078472,0.056558,-0.0059355,-0.008482,-0.03571,-0.035239,0.00092656,-0.020989,0.0021706,-0.01307,0.0055636,-0.014789,-0.0081359,0.031915,-0.0060056,-0.010032,-0.029873,-0.061373
0.0052527,-0.016533,0.002368,0.0054269,-0.027104,-0.20877,0.010537,0.053423,-0.0063498,-0.0063251,-0.034106,-0.04265,-0.00032846,-0.019472,-0.0014823,-0.010973,0.0066391,-0.013888,-0.0064865,0.03545,0.00092312,-0.0053209,-0.031074,-0.0575
0.0029643,-0.020053,-0.00072419,0.0022521,-0.030927,-0.21887,0.0095124,0.054229,-0.0074053,-0.0038553,-0.030041,-0.051223,-0.00034776,-0.017353,-0.0077264,-0.010957,0.009054,-0.01396,-0.0034616,0.037745,0.0018039,-0.00032686,-0.032032,-0.052532
-0.00047018,-0.023786,-0.0072184,-0.0013905,-0.034557,-0.21232,0.0042586,0.057234,-0.0087039,-0.0027008,-0.026392,-0.059009,-0.0011862,-0.016844,-0.013354,-0.015337,0.01155,-0.01605,-0.0010276,0.039167,-0.0036536,0.0014827,-0.032949,-0.050837
-0.0032212,-0.025705,-0.011127,-0.0044687,-0.038358,-0.19546,-0.0028451,0.057827,-0.0085446,-0.0040383,-0.025058,-0.06427,-0.0031895,-0.018934,-0.015219,-0.023536,0.012147,-0.02015,-0.0014509,0.039694,-0.012027,-0.0010177,-0.034401,-0.054576
-0.0036852,-0.02527,-0.00856,-0.0052797,-0.04204,-0.17767,-0.0079131,0.052251,-0.0059708,-0.00748,-0.025991,-0.066097,-0.0045328,-0.022318,-0.012389,-0.032517,0.0099452,-0.024955,-0.0051867,0.039687,-0.018496,-0.0059197,-0.036689,-0.062055
-0.0016917,-0.023224,-0.0012636,-0.0028421,-0.044837,-0.166,-0.0080349,0.040795,-0.0022264,-0.011015,-0.027942,-0.064717,-0.0032241,-0.024404,-0.0068815,-0.03885,0.0062356,-0.028347,-0.010166,0.040067,-0.019913,-0.010034,-0.03925,-0.06901
0.001492,-0.020612,0.0048486,0.0017707,-0.046411,-0.16142,-0.003291,0.027777,-6.5498e-005,-0.012459,-0.029816,-0.061399,0.00057428,-0.023618,-0.0023166,-0.040986,0.0037415,-0.028533,-0.013206,0.041248,-0.01649,-0.011471,-0.040859,-0.071495
0.0043221,-0.018249,0.0047494,0.0055159,-0.047536,-0.15909,0.0030752,0.018354,-0.0015101,-0.011405,-0.031319,-0.05793,0.0043995,-0.020979,-0.001389,-0.040109,0.0044511,-0.025268,-0.012454,0.041932,-0.011156,-0.010827,-0.040611,-0.06807
0.0061915,-0.017001,-0.0016443,0.0051298,-0.049644,-0.15221,0.0066339,0.014811,-0.0061434,-0.0097869,-0.032592,-0.055801,0.0057027,-0.019378,-0.0040759,-0.038926,0.0078971,-0.020336,-0.0088701,0.039473,-0.0073327,-0.010115,-0.038784,-0.059966
0.007546,-0.018049,-0.0098156,-0.0006547,-0.053477,-0.13653,0.0047206,0.01531,-0.011449,-0.01019,-0.033544,-0.055468,0.0041058,-0.021004,-0.0080145,-0.039371,0.011489,-0.01672,-0.0055059,0.032141,-0.0068047,-0.010653,-0.036684,-0.049787
0.0088554,-0.022235,-0.014704,-0.010085,-0.058158,-0.11245,-0.0017109,0.015788,-0.014756,-0.013198,-0.033673,-0.056182,0.001371,-0.02515,-0.010706,-0.041036,0.012709,-0.016799,-0.0051579,0.021382,-0.0089713,-0.011931,-0.035569,-0.040154
0.009577,-0.02877,-0.014668,-0.019358,-0.061754,-0.083827,-0.0088419,0.013135,-0.014991,-0.016362,-0.032477,-0.056622,-0.00073786,-0.028509,-0.011601,-0.041524,0.01125,-0.020798,-0.008266,0.011639,-0.011579,-0.012408,-0.035628,-0.033026
0.0083132,-0.034734,-0.012097,-0.024937,-0.062866,-0.055334,-0.012935,0.0070098,-0.012897,-0.016133,-0.029978,-0.055981,-0.0022273,-0.027934,-0.012202,-0.038392,0.0091245,-0.026633,-0.012717,0.0072865,-0.012182,-0.011279,-0.035942,-0.029411
0.0041922,-0.036539,-0.010682,-0.025639,-0.061648,-0.030351,-0.013172,-0.00075341,-0.0099995,-0.011262,-0.026922,-0.054679,-0.0042582,-0.023362,-0.014122,-0.031122,0.0086245,-0.031271,-0.015638,0.0090692,-0.0094552,-0.0094492,-0.035422,-0.028977
-0.0017922,-0.032677,-0.012141,-0.02314,-0.059188,-0.010614,-0.011994,-0.0080378,-0.0075915,-0.0044657,-0.024587,-0.054071,-0.0068978,-0.01824,-0.017057,-0.021674,0.0099875,-0.032602,-0.01566,0.013236,-0.0038735,-0.0088127,-0.033827,-0.029822
-0.0068652,-0.025493,-0.015114,-0.020573,-0.055932,0.003309,-0.012589,-0.013749,-0.006572,-0.00054871,-0.024308,-0.055282,-0.0080326,-0.016883,-0.018783,-0.01332,0.010993,-0.030505,-0.013813,0.014398,0.0023982,-0.01063,-0.031959,-0.029116
-0.0081459,-0.020045,-0.016697,-0.020184,-0.050991,0.011868,-0.015755,-0.017726,-0.0076804,-0.0024976,-0.026862,-0.058126,-0.005149,-0.020911,-0.017316,-0.0086675,0.0089732,-0.026593,-0.012398,0.009842,0.0064449,-0.014538,-0.030928,-0.024669
-0.0046616,-0.020437,-0.014885,-0.021679,-0.043346,0.01686,-0.019022,-0.019975,-0.011235,-0.0090777,-0.031878,-0.061029,0.0015485,-0.027792,-0.013134,-0.0082052,0.0034691,-0.023055,-0.012894,0.0016821,0.0061823,-0.018935,-0.031141,-0.016421
0.0018768,-0.026445,-0.0099323,-0.022523,-0.033887,0.021204,-0.018939,-0.020375,-0.016336,-0.016098,-0.037661,-0.062062,0.0081325,-0.032746,-0.0091099,-0.010232,-0.0029126,-0.021485,-0.014697,-0.0049202,0.0018437,-0.022147,-0.031871,-0.0065433
0.0081016,-0.033392,-0.0039802,-0.020098,-0.026081,0.02746,-0.014443,-0.01908,-0.020582,-0.020027,-0.041819,-0.060218,0.0097587,-0.032414,-0.0080223,-0.012164,-0.0063657,-0.022277,-0.015736,-0.0059089,-0.0037463,-0.023237,-0.03172,0.002047
0.011001,-0.035689,0.00038938,-0.014111,-0.024108,0.035974,-0.0081662,-0.016869,-0.021257,-0.02052,-0.042623,-0.055927,0.0050721,-0.027248,-0.010043,-0.012365,-0.0049526,-0.024709,-0.014343,-0.0014131,-0.0067389,-0.022068,-0.029587,0.00754
0.009509,-0.031295,0.0015561,-0.0072487,-0.029787,0.044511,-0.0043758,-0.014773,-0.017406,-0.019739,-0.040239,-0.050513,-0.0020738,-0.020775,-0.012723,-0.011291,-0.00024491,-0.027474,-0.010751,0.0045896,-0.0048949,-0.019083,-0.025413,0.0099754
0.0047954,-0.023322,-0.00044254,-0.0033619,-0.040993,0.050223,-0.0054169,-0.013285,-0.010967,-0.019596,-0.036771,-0.045224,-0.0056755,-0.016565,-0.013572,-0.011051,0.0038933,-0.0294,-0.0069413,0.0074534,0.00066817,-0.015356,-0.020213,0.01051
-0.00063659,-0.017355,-0.0040766,-0.0045229,-0.053117,0.052396,-0.009947,-0.012143,-0.0055895,-0.019968,-0.034788,-0.040662,-0.0029071,-0.01555,-0.012633,-0.013582,0.0043511,-0.029981,-0.0050526,0.0051481,0.0062194,-0.012673,-0.015409,0.010237
-0.0042969,-0.016751,-0.007207,-0.0093712,-0.062431,0.05329,-0.014524,-0.011079,-0.0038894,-0.019503,-0.035311,-0.036874,0.003243,-0.015816,-0.012437,-0.018795,0.0010888,-0.029469,-0.0057368,-0.00083318,0.0082973,-0.01295,-0.012009,0.0097967
-0.0047889,-0.019989,-0.0083102,-0.014167,-0.068434,0.055888,-0.016912,-0.010742,-0.0055205,-0.017758,-0.036919,-0.033729,0.0066651,-0.014777,-0.015345,-0.024342,-0.0031351,-0.028459,-0.0078001,-0.0072459,0.0064428,-0.016906,-0.01015,0.0099279
-0.0022694,-0.022357,-0.007411,-0.015663,-0.073185,0.060515,-0.017874,-0.012555,-0.0078524,-0.01607,-0.036884,-0.031079,0.0037479,-0.011645,-0.020965,-0.027431,-0.0052496,-0.027334,-0.0093294,-0.011732,0.003436,-0.023039,-0.0092199,0.011929
0.0017731,-0.020381,-0.0060789,-0.013398,-0.078419,0.063673,-0.019778,-0.017309,-0.0085549,-0.016133,-0.033538,-0.028677,-0.0033411,-0.008048,-0.026303,-0.027296,-0.0043875,-0.026022,-0.0092766,-0.014151,0.0027851,-0.028187,-0.0083226,0.017072
0.0053228,-0.014951,-0.0063457,-0.0096405,-0.083248,0.060624,-0.023523,-0.023799,-0.0075309,-0.017937,-0.027889,-0.026152,-0.0087893,-0.0063811,-0.028518,-0.026077,-0.0023773,-0.024258,-0.0081862,-0.015861,0.0056464,-0.02966,-0.006705,0.025256
0.0069192,-0.01034,-0.0091881,-0.0073232,-0.084654,0.049565,-0.026988,-0.029148,-0.0063471,-0.019416,-0.023026,-0.023177,-0.0085939,-0.0074934,-0.027569,-0.027113,-0.0019613,-0.022022,-0.0075351,-0.018029,0.0098706,-0.027305,-0.0040092,0.034315
0.0064388,-0.010144,-0.013652,-0.0079355,-0.080319,0.033569,-0.026697,-0.030949,-0.0059644,-0.01833,-0.021694,-0.019665,-0.0041143,-0.0098246,-0.026141,-0.032021,-0.0043531,-0.019647,-0.0082915,-0.020598,0.01196,-0.023601,-0.00042039,0.041043
0.0050018,-0.013933,-0.017347,-0.01099,-0.071138,0.018376,-0.021245,-0.029443,-0.0053966,-0.014482,-0.024054,-0.015709,-0.0004309,-0.010748,-0.026981,-0.039202,-0.008164,-0.017499,-0.0099028,-0.022626,0.010129,-0.021525,0.0032306,0.043388
0.0039687,-0.017658,-0.018086,-0.015035,-0.061034,0.007997,-0.013153,-0.027567,-0.0029212,-0.010025,-0.027476,-0.011365,-0.001279,-0.008888,-0.030293,-0.045222,-0.010505,-0.015631,-0.010573,-0.023294,0.0057571,-0.022044,0.0055835,0.041953
0.0037899,-0.017313,-0.015545,-0.018899,-0.054142,0.0020698,-0.0072209,-0.028544,0.0014005,-0.0076497,-0.02852,-0.0066164,-0.0055548,-0.0053156,-0.033693,-0.0478,-0.0093009,-0.013884,-0.0086861,-0.02244,0.0020714,-0.023521,0.0053148,0.03933
0.0037488,-0.012391,-0.011702,-0.02208,-0.051751,-0.0028556,-0.0066871,-0.033064,0.0047995,-0.0085166,-0.025441,-0.0016673,-0.008712,-0.0025628,-0.034658,-0.047571,-0.0049486,-0.012364,-0.0043034,-0.02029,0.0013983,-0.023546,0.0020409,0.037731
0.0029083,-0.0060752,-0.0095522,-0.0244,-0.051564,-0.0096282,-0.010613,-0.038616,0.0039134,-0.01185,-0.019315,0.0028026,-0.0075127,-0.0023624,-0.03297,-0.047006,-3.5302e-005,-0.011688,0.00048595,-0.017084,0.0034593,-0.021395,-0.0030446,0.037065
0.0013573,-0.0022191,-0.010907,-0.02579,-0.049765,-0.017959,-0.014898,-0.041684,-0.0018208,-0.016173,-0.013135,0.0059045,-0.0033524,-0.0041678,-0.030795,-0.047676,0.0026291,-0.012532,0.0028287,-0.013308,0.0060573,-0.018708,-0.007468,0.03528
0.00037437,-0.0020875,-0.014918,-0.026574,-0.044,-0.025158,-0.016038,-0.040875,-0.0088775,-0.020521,-0.0097682,0.0073543,-0.00086854,-0.0057707,-0.030426,-0.048705,0.0021017,-0.014792,0.0011946,-0.01023,0.0072607,-0.017745,-0.0087791,0.03074
0.0010996,-0.0037673,-0.018628,-0.027737,-0.034821,-0.028978,-0.014247,-0.03822,-0.012042,-0.024347,-0.010257,0.0081632,-0.0032253,-0.0053887,-0.032019,-0.047985,-9.7691e-005,-0.017263,-0.0032847,-0.009676,0.0069587,-0.018925,-0.0060811,0.024359
0.0029348,-0.0044462,-0.019342,-0.030455,-0.024622,-0.029526,-0.013099,-0.037585,-0.0085692,-0.02659,-0.01336,0.01042,-0.0087499,-0.003236,-0.033516,-0.044797,-0.001276,-0.018391,-0.0074133,-0.012618,0.0064605,-0.020131,-0.00066823,0.019345
0.0034984,-0.0031253,-0.016992,-0.035062,-0.015307,-0.028361,-0.015991,-0.041616,-0.00041952,-0.025499,-0.016328,0.016052,-0.012293,-0.0011,-0.032783,-0.041045,0.00036074,-0.017578,-0.0081995,-0.017647,0.0067542,-0.018569,0.0047852,0.018604
0.00063674,-0.0012139,-0.014438,-0.040456,-0.0068096,-0.025835,-0.02266,-0.049764,0.0074011,-0.019893,-0.016405,0.025347,-0.010106,-0.0003809,-0.0298,-0.039693,0.004489,-0.015801,-0.0050848,-0.021116,0.0072794,-0.013538,0.0079546,0.022109
-0.0051648,-0.00071808,-0.015206,-0.044733,0.0024317,-0.019411,-0.029012,-0.058749,0.010828,-0.010768,-0.012374,0.036364,-0.0035902,-0.00057374,-0.026778,-0.041978,0.0091095,-0.01479,-0.00028076,-0.019481,0.0064745,-0.0074983,0.0082629,0.026726
-0.010432,-0.0020321,-0.02036,-0.046611,0.013668,-0.0048674,-0.030595,-0.064724,0.009576,-0.001432,-0.0054654,0.045742,0.0016681,0.00022414,-0.026146,-0.046273,0.012067,-0.015388,0.0031338,-0.012173,0.0035707,-0.0043127,0.0069321,0.028756
-0.011217,-0.0035152,-0.02715,-0.046309,0.026346,0.020297,-0.026701,-0.065354,0.006634,0.0044007,0.0010232,0.050448,0.00077262,0.0032093,-0.028357,-0.049794,0.012358,-0.016611,0.0037389,-0.0024158,-0.00017607,-0.0060605,0.0057134,0.026969
-0.006525,-0.0031457,-0.030723,-0.045056,0.038061,0.053832,-0.021426,-0.060602,0.0053105,0.0051215,0.0035267,0.049354,-0.0061764,0.0072739,-0.031556,-0.051418,0.010389,-0.016421,0.002684,0.0049985,-0.0021763,-0.011141,0.0053643,0.023393
0.00045749,-0.00054997,-0.027701,-0.043814,0.045891,0.088398,-0.020569,-0.052319,0.0066294,0.0022302,0.00057035,0.043704,-0.014193,0.0096435,-0.033299,-0.052703,0.0073924,-0.01362,0.0022029,0.0072379,-0.0006807,-0.01535,0.00514,0.021206
0.004681,0.0025407,-0.018843,-0.042535,0.048091,0.1144,-0.026949,-0.043411,0.0091258,-0.001022,-0.0059114,0.036264,-0.017679,0.0083194,-0.032622,-0.056001,0.0046784,-0.0091183,0.0032251,0.0052815,0.0034926,-0.015117,0.0037232,0.021738
0.0032206,0.0038026,-0.0087141,-0.040637,0.045117,0.12441,-0.0381,-0.037008,0.010717,-0.0021685,-0.011519,0.029798,-0.014893,0.0040415,-0.030591,-0.061531,0.0031957,-0.005364,0.0044624,0.0026264,0.0073536,-0.010301,0.00076201,0.023351
-0.0025321,0.0024078,-0.0026777,-0.037993,0.039459,0.11687,-0.048244,-0.035541,0.010651,-0.0011628,-0.012262,0.025787,-0.0087981,-0.00017633,-0.029035,-0.066376,0.0033207,-0.0043523,0.0038894,0.0021918,0.0080837,-0.0042823,-0.0024119,0.023124
-0.0083374,-0.00014488,-0.0034953,-0.035269,0.034425,0.097009,-0.052773,-0.03967,0.0098565,4.6021e-005,-0.0074052,0.024058,-0.0039856,-0.0015924,-0.02882,-0.066554,0.0047257,-0.0059717,0.0011114,0.004178,0.0053476,-0.0012929,-0.0036538,0.019643
-0.010788,-0.0011461,-0.0099368,-0.033319,0.032495,0.07447,-0.051379,-0.04763,0.0097277,-0.00060471,-7.5907e-005,0.023334,-0.0028684,9.0849e-006,-0.029277,-0.060381,0.0064557,-0.0080894,-0.0018278,0.0064629,0.0015343,-0.0031573,-0.0017891,0.014259
-0.009865,0.0012084,-0.018077,-0.032504,0.034183,0.058468,-0.047445,-0.055786,0.010698,-0.0035878,0.0049871,0.022182,-0.0044779,0.0024739,-0.029121,-0.050096,0.0074396,-0.0082203,-0.0021145,0.0067204,-0.00030413,-0.0080301,0.002294,0.0097735
-0.0082948,0.0064081,-0.024003,-0.032785,0.038164,0.053011,-0.044609,-0.060534,0.011916,-0.007485,0.0049431,0.019768,-0.0063247,0.0036322,-0.027781,-0.040263,0.0072555,-0.0053243,0.0012553,0.0042101,0.0010063,-0.012035,0.0063007,0.007958
-0.0086528,0.01199,-0.025928,-0.034305,0.04275,0.054934,-0.043764,-0.060528,0.012142,-0.010061,0.00092501,0.016125,-0.0069342,0.0034968,-0.025856,-0.034317,0.006508,-0.00037599,0.0064698,3.0572e-008,0.003961,-0.012329,0.0083843,0.0083013
-0.01105,0.015309,-0.024528,-0.037399,0.04775,0.05632,-0.042936,-0.057624,0.010897,-0.009727,-0.0029322,0.01202,-0.0065727,0.0041102,-0.024415,-0.032148,0.0063236,0.0044631,0.010406,-0.0039792,0.0059147,-0.0090273,0.0084987,0.0089655
-0.013321,0.015286,-0.021759,-0.041621,0.055276,0.050096,-0.039692,-0.055641,0.0087961,-0.0063942,-0.0027349,0.0086077,-0.0060098,0.007161,-0.02401,-0.03057,0.0072675,0.0072113,0.011176,-0.0059562,0.005436,-0.0045836,0.0080287,0.0087507
-0.013178,0.01284,-0.019304,-0.044849,0.068636,0.035175,-0.033527,-0.057618,0.0068367,-0.0013625,0.0022162,0.0069294,-0.005216,0.011727,-0.024356,-0.026048,0.0086582,0.0070578,0.0093608,-0.0049343,0.0033367,-0.0014392,0.0081882,0.008038
-0.010191,0.0098517,-0.017712,-0.043991,0.089854,0.017504,-0.026109,-0.063517,0.0054311,0.0034279,0.0090388,0.007347,-0.0035741,0.014489,-0.024788,-0.017331,0.0090215,0.0046498,0.0070144,-0.0011654,0.0016097,-0.00017898,0.0088837,0.0079466
-0.0060425,0.0076933,-0.016508,-0.037348,0.11755,0.0061986,-0.019504,-0.070131,0.004142,0.0062538,0.013639,0.0091917,-0.0011255,0.012477,-0.024806,-0.0060093,0.0073827,0.0017726,0.0056493,0.0034241,0.0014833,0.00030898,0.0091975,0.0088639
-0.0032215,0.006562,-0.014913,-0.026659,0.1468,0.0076473,-0.01433,-0.073314,0.0023781,0.00623,0.013871,0.01106,0.00094268,0.0059867,-0.024116,0.0050565,0.0042381,0.00053111,0.0052176,0.0055024,0.00247,0.0011685,0.0088651,0.010061
-0.0033941,0.0059673,-0.012554,-0.016532,0.17131,0.02196,-0.0095403,-0.070864,0.00032311,0.0035967,0.011008,0.0118,0.0014491,-0.0010336,-0.022369,0.01382,0.0012662,0.0022018,0.0048528,0.0019608,0.0031306,0.0022578,0.0089888,0.010793
-0.0064824,0.0056186,-0.0097319,-0.011097,0.18648,0.044108,-0.0037635,-0.063813,-0.00091198,-0.00034751,0.0085298,0.011531,0.00081635,-0.0036909,-0.019198,0.019967,-1.4203e-005,0.0063232,0.0043293,-0.0076517,0.0025776,0.00248,0.011,0.011555
-0.010685,0.0057214,-0.0071417,-0.010483,0.1914,0.068288,0.0032834,-0.055272,-0.00020529,-0.0037216,0.009333,0.011698,0.0011213,0.00016095,-0.014706,0.024324,0.00055647,0.010851,0.004597,-0.019788,0.0011915,0.0012715,0.014833,0.0139
-0.013278,0.0064774,-0.0052462,-0.010407,0.1886,0.091681,0.010555,-0.047993,0.0023789,-0.0049176,0.013598,0.013879,0.0041182,0.0082707,-0.0097815,0.027764,0.0017678,0.013608,0.0068451,-0.028354,1.9837e-005,-0.00043682,0.018343,0.018763
-0.011987,0.0075231,-0.0037408,-0.0056824,0.18185,0.11481,0.016509,-0.042841,0.0052895,-0.0035043,0.018799,0.018218,0.0090557,0.015722,-0.005588,0.030762,0.0021315,0.014013,0.011095,-0.028575,-0.00030502,-0.00089343,0.018944,0.02493
-0.0064988,0.0081175,-0.001574,0.0050753,0.17374,0.13895,0.019986,-0.039255,0.0065071,-0.0005841,0.021632,0.02294,0.012686,0.018582,-0.0025241,0.03374,0.0010003,0.013492,0.015797,-0.020561,3.6573e-005,0.00077703,0.016183,0.029387
0.00086467,0.0080095,0.0023388,0.017699,0.16474,0.16331,0.020427,-0.036798,0.0050633,0.0018451,0.020281,0.025505,0.011887,0.016479,0.0002284,0.037378,-0.0012469,0.013969,0.01888,-0.0096369,0.00059954,0.0035936,0.01277,0.02954
0.0062017,0.0080376,0.0081359,0.025516,0.15418,0.18466,0.017695,-0.035858,0.0017079,0.0022942,0.015455,0.024464,0.0066682,0.012183,0.0038626,0.042168,-0.0038764,0.015771,0.019321,-0.0028062,0.0013836,0.0055779,0.012788,0.025465
0.0065856,0.009626,0.014566,0.024887,0.14213,0.19927,0.012115,-0.036705,-0.0018692,0.00098618,0.0097405,0.020372,0.00064415,0.0089262,0.008497,0.047567,-0.0064214,0.017113,0.017802,-0.0039377,0.002842,0.0057657,0.018354,0.020169
0.0023663,0.013413,0.019618,0.018532,0.13049,0.20528,0.0048309,-0.038143,-0.0044879,-0.0001851,0.0059555,0.015047,-0.0017204,0.0080038,0.012683,0.05184,-0.0085845,0.015934,0.015959,-0.011387,0.0051933,0.005414,0.027569,0.017576
-0.0028206,0.018244,0.021901,0.013611,0.12233,0.2034,-0.0021255,-0.037664,-0.0061826,0.00089992,0.0056765,0.010067,0.0011795,0.0086156,0.014643,0.053206,-0.009735,0.012386,0.015003,-0.019829,0.0078337,0.0070204,0.035593,0.019839
-0.004718,0.021647,0.02172,0.015969,0.11998,0.19576,-0.0065598,-0.033449,-0.0075382,0.0048093,0.008668,0.0060085,0.0067176,0.0095862,0.014184,0.05148,-0.0088885,0.0093464,0.014987,-0.024609,0.0095505,0.011801,0.038081,0.026083
-0.0017908,0.02166,0.02088,0.025329,0.12374,0.18446,-0.0072971,-0.026277,-0.0084926,0.0099689,0.013279,0.0029291,0.010253,0.010873,0.013272,0.048581,-0.0055214,0.010119,0.015238,-0.024972,0.0094089,0.017927,0.034275,0.033324
0.0036036,0.018563,0.021293,0.035549,0.13184,0.17117,-0.0048664,-0.01911,-0.0080716,0.013861,0.017408,0.0011741,0.008998,0.013293,0.014395,0.047126,-0.00049024,0.015405,0.015312,-0.023734,0.0075305,0.021438,0.027346,0.038601
0.0073413,0.014955,0.023507,0.039759,0.1418,0.15784,-0.0010606,-0.014305,-0.0055508,0.015033,0.019553,0.0013439,0.0041868,0.017,0.018058,0.048119,0.0040717,0.022544,0.015441,-0.02415,0.005094,0.019428,0.021885,0.040654
0.007155,0.013841,0.026419,0.036071,0.15154,0.14695,0.0022737,-0.011078,-0.0018682,0.014159,0.019496,0.0034767,-0.00023726,0.020605,0.021873,0.049843,0.0061374,0.027866,0.016106,-0.02695,0.0035579,0.012867,0.020611,0.040142
0.0045181,0.016159,0.028379,0.0291,0.15941,0.14037,0.0042264,-0.0059349,0.00047042,0.013222,0.018318,0.0066493,-0.0010937,0.022087,0.022416,0.049161,0.0053836,0.029841,0.017331,-0.029998,0.0036862,0.006396,0.02283,0.038634
0.0030735,0.01983,0.028652,0.026135,0.16343,0.13763,0.004908,0.0039454,-0.00057339,0.01366,0.017637,0.0098242,0.0014742,0.020618,0.018411,0.044276,0.0035187,0.029857,0.018548,-0.030441,0.0050352,0.0049316,0.025613,0.037325
0.0050704,0.02136,0.02792,0.031284,0.16102,0.13542,0.0048006,0.017487,-0.0042736,0.015233,0.018482,0.013178,0.0044254,0.01743,0.012328,0.036571,0.0028911,0.029987,0.019161,-0.027092,0.0062202,0.0097552,0.026523,0.0364
0.0091603,0.01885,0.02747,0.042386,0.15016,0.1296,0.0040796,0.02989,-0.0069841,0.016621,0.02056,0.018221,0.0046148,0.014833,0.0087269,0.029843,0.0044812,0.030256,0.019086,-0.021007,0.0058196,0.017394,0.025597,0.035305
0.011653,0.013924,0.027964,0.053013,0.1312,0.11842,0.0024367,0.036311,-0.0048455,0.016972,0.022583,0.026089,0.0014144,0.014449,0.010542,0.027537,0.0069889,0.028524,0.018552,-0.014139,0.0034019,0.022325,0.025023,0.033566
0.010057,0.01071,0.028988,0.057545,0.10772,0.10427,-0.00060473,0.035747,0.0026746,0.016748,0.023475,0.035528,-0.002958,0.016354,0.016548,0.030289,0.0078077,0.023204,0.01733,-0.0076458,1.454e-005,0.021309,0.026891,0.031397
0.0055341,0.012468,0.029669,0.055049,0.085031,0.091807,-0.0052216,0.031444,0.011621,0.016997,0.023453,0.042903,-0.0053935,0.019632,0.022347,0.035775,0.0050756,0.015898,0.014395,-0.0013925,-0.0023063,0.015851,0.030975,0.02952
0.0019082,0.018628,0.029548,0.049041,0.066917,0.083964,-0.01098,0.027406,0.016201,0.017933,0.02393,0.044869,-0.0042794,0.023344,0.024168,0.040749,-0.00085339,0.010863,0.0087526,0.0052661,-0.0018234,0.01088,0.034493,0.028275
0.0021718,0.024936,0.028761,0.043869,0.053013,0.079151,-0.016844,0.024377,0.013315,0.018424,0.026161,0.041548,-0.00040486,0.026737,0.022153,0.04335,-0.007604,0.011451,0.00090968,0.012503,0.0016485,0.010888,0.034199,0.02688
0.0058347,0.026875,0.027504,0.041137,0.039154,0.07237,-0.021558,0.019265,0.0051589,0.017048,0.029823,0.037085,0.0040391,0.028834,0.02008,0.043741,-0.012349,0.016909,-0.0064813,0.019778,0.0064767,0.016609,0.029145,0.023744
0.0096059,0.023591,0.02566,0.039144,0.020758,0.059293,-0.024294,0.0088029,-0.0024346,0.013663,0.032923,0.036625,0.0072093,0.028519,0.021642,0.042912,-0.013487,0.022813,-0.0098587,0.026287,0.0102,0.02469,0.021773,0.017933
0.010638,0.018849,0.023226,0.035384,-0.0033041,0.039566,-0.025163,-0.0059743,-0.0046035,0.0098784,0.033386,0.042045,0.0086075,0.025613,0.026613,0.041142,-0.01128,0.024933,-0.0071973,0.031409,0.011042,0.030304,0.016238,0.01058
0.0090773,0.017976,0.021049,0.029492,-0.029598,0.016318,-0.02513,-0.018905,-0.0011215,0.0078445,0.031007,0.050214,0.0087606,0.021862,0.030583,0.037705,-0.0072517,0.02293,0.00033951,0.034776,0.0087962,0.03054,0.015183,0.0047301
0.0074221,0.02327,0.020745,0.0238,-0.052848,-0.0072991,-0.025175,-0.022809,0.003926,0.0085125,0.027963,0.055411,0.008239,0.020289,0.0288,0.031943,-0.0030249,0.020424,0.0090899,0.036259,0.0045388,0.02613,0.017632,0.0032733
0.0074368,0.031838,0.023395,0.021131,-0.070264,-0.03069,-0.025313,-0.015128,0.0059947,0.010979,0.027205,0.053888,0.0070797,0.022849,0.020831,0.024401,0.00047852,0.021378,0.01547,0.036197,-0.00031016,0.020584,0.019839,0.006468
0.0078837,0.037858,0.028082,0.02203,-0.083711,-0.054582,-0.024293,-3.6866e-006,0.0039812,0.013461,0.030009,0.046739,0.0050637,0.028349,0.011698,0.016723,0.0030543,0.026231,0.018292,0.035636,-0.0046128,0.017672,0.018486,0.011296
0.0055727,0.037359,0.031914,0.024151,-0.097777,-0.077273,-0.020386,0.015236,0.00082095,0.014882,0.034809,0.038797,0.0023678,0.032901,0.0081537,0.010385,0.0047039,0.031333,0.018963,0.035943,-0.007436,0.019142,0.013536,0.01352
-0.0011104,0.031442,0.03202,0.024411,-0.11535,-0.092881,-0.012654,0.026116,0.0004824,0.015589,0.038416,0.034753,-0.00023093,0.032967,0.013123,0.0055622,0.0052271,0.032098,0.01971,0.037766,-0.0078427,0.024041,0.0082965,0.010909
-0.0096881,0.025198,0.027994,0.021863,-0.1346,-0.094592,-0.0016742,0.034106,0.0042188,0.016691,0.038556,0.03579,-0.0018851,0.028441,0.023133,0.0012657,0.0043661,0.026939,0.021682,0.040217,-0.0053,0.029734,0.0066196,0.0048931
-0.014856,0.023389,0.022592,0.018544,-0.14996,-0.080807,0.010799,0.044016,0.0094152,0.018836,0.0355,0.039223,-0.0024202,0.022863,0.030997,-0.0034615,0.0023666,0.018513,0.02458,0.04137,-0.00057958,0.033627,0.009642,-0.00082427
-0.01277,0.026629,0.019804,0.017486,-0.15627,-0.058431,0.022811,0.058262,0.011894,0.021604,0.031431,0.040923,-0.0025067,0.020338,0.031444,-0.0085503,0.0003453,0.011418,0.027705,0.039998,0.0039334,0.034438,0.01483,-0.0034424
-0.0045808,0.031214,0.021814,0.019789,-0.15259,-0.039399,0.032926,0.073515,0.0094613,0.023911,0.028378,0.038293,-0.0030388,0.021865,0.024931,-0.013087,-9.0917e-005,0.0085885,0.030929,0.037116,0.0054123,0.032411,0.018077,-0.0031933
0.0040881,0.03246,0.02739,0.023528,-0.14249,-0.032713,0.040284,0.082967,0.0035192,0.024829,0.026801,0.031623,-0.004307,0.024499,0.016653,-0.016338,0.0021015,0.0094884,0.03446,0.035687,0.0027194,0.028724,0.016999,-0.0026028
0.0074931,0.028506,0.032987,0.025505,-0.13113,-0.038743,0.044353,0.08213,-0.0025014,0.024034,0.026042,0.023345,-0.0057717,0.02421,0.012015,-0.018391,0.0064445,0.0113,0.037871,0.038421,-0.0023047,0.024741,0.012664,-0.0037704
0.0042563,0.021489,0.035479,0.02411,-0.12164,-0.050861,0.044943,0.072796,-0.0062616,0.021748,0.025808,0.016199,-0.0066404,0.019858,0.012665,-0.019688,0.010945,0.01163,0.039781,0.045428,-0.0058562,0.021597,0.0084275,-0.0063512
-0.0018141,0.015467,0.034147,0.02058,-0.11382,-0.062773,0.042551,0.061509,-0.0082683,0.018589,0.026767,0.011714,-0.0066363,0.014529,0.016186,-0.020004,0.013251,0.010253,0.038873,0.053823,-0.0050202,0.020098,0.0070055,-0.0081226
-0.005126,0.013169,0.03048,0.017576,-0.10556,-0.074676,0.038521,0.054041,-0.010752,0.015611,0.029432,0.0097227,-0.006176,0.012821,0.019053,-0.018184,0.012215,0.0086979,0.035349,0.059757,-0.00017869,0.020593,0.0083354,-0.0074519
-0.0028671,0.014275,0.02638,0.016635,-0.095258,-0.092581,0.03452,0.050942,-0.014878,0.014223,0.032641,0.0088346,-0.0058099,0.016449,0.019727,-0.01317,0.0086982,0.0085151,0.031268,0.061154,0.0051778,0.022671,0.009924,-0.0051529
0.003089,0.016328,0.022598,0.016991,-0.082907,-0.1217,0.031551,0.04807,-0.01904,0.015517,0.03368,0.0073649,-0.0055531,0.022254,0.019242,-0.0054477,0.0050332,0.0099837,0.02922,0.05883,0.0072209,0.025027,0.0092248,-0.0038703
0.0081851,0.017069,0.018639,0.016714,-0.069653,-0.16028,0.029262,0.041278,-0.019991,0.019222,0.030535,0.0042421,-0.0048218,0.024686,0.019336,0.0026443,0.0035064,0.012218,0.03039,0.055169,0.0048189,0.025984,0.0058828,-0.0055718
0.0089781,0.016111,0.013858,0.014799,-0.056786,-0.19952,0.026199,0.030691,-0.015921,0.023242,0.024297,-0.00046778,-0.0030341,0.02074,0.02046,0.008354,0.004949,0.01417,0.033702,0.051799,0.00023103,0.024655,0.001919,-0.00957
0.0054515,0.014736,0.0084977,0.01203,-0.045396,-0.22934,0.020942,0.020643,-0.0086819,0.024682,0.01912,-0.0055961,-0.00025364,0.012894,0.02163,0.010609,0.0083534,0.015412,0.036742,0.04848,-0.0030663,0.021881,-0.00020335,-0.012985
0.00030634,0.014361,0.0038091,0.0099016,-0.036574,-0.24437,0.013359,0.015534,-0.0029455,0.021982,0.019167,-0.0094188,0.0027475,0.0072139,0.021965,0.010892,0.01166,0.016119,0.037545,0.044095,-0.0033962,0.019946,0.00018378,-0.013216
-0.0035951,0.0152,0.0013334,0.0088981,-0.03125,-0.24531,0.0051352,0.015686,-0.0026989,0.01654,0.024933,-0.010439,0.0050129,0.0080819,0.02199,0.011988,0.013077,0.016606,0.035762,0.038502,-0.0020424,0.020898,0.0014566,-0.010115
-0.0052554,0.016265,0.0020578,0.0079358,-0.029374,-0.23552,-0.00082738,0.017098,-0.0079005,0.012225,0.032285,-0.0080596,0.0059951,0.014222,0.023254,0.015613,0.012031,0.017035,0.032416,0.033217,-0.0016556,0.024701,0.0013854,-0.0058626
-0.0056495,0.01649,0.0059364,0.0054926,-0.029368,-0.21741,-0.0018331,0.015228,-0.014182,0.012758,0.035401,-0.0029148,0.0057728,0.019668,0.026695,0.020996,0.0092017,0.017444,0.028789,0.030172,-0.0035503,0.028869,-0.00057362,-0.002778
-0.0063599,0.015812,0.01183,0.0012468,-0.028879,-0.19214,0.0031176,0.009157,-0.016035,0.018862,0.031361,0.0032054,0.0049021,0.018959,0.031486,0.0257,0.0057955,0.017803,0.02559,0.029787,-0.0064419,0.030169,-0.0025514,-0.0011708
-0.0081223,0.015188,0.017756,-0.0033334,-0.026526,-0.16229,0.012654,0.0023157,-0.011005,0.027502,0.022585,0.0078547,0.0041602,0.011985,0.035511,0.02792,0.0026764,0.017934,0.02297,0.030333,-0.0076858,0.027146,-0.0018665,0.00074895
-0.010282,0.01557,0.021487,-0.0059249,-0.022923,-0.1335,0.023677,-0.00071043,-0.0015414,0.033975,0.015021,0.0088187,0.0042763,0.0041712,0.036979,0.028192,2.0611e-005,0.017522,0.021032,0.029314,-0.0057131,0.021318,0.0024508,0.0049089
-0.011284,0.016855,0.02149,-0.0049392,-0.019631,-0.11264,0.033082,0.0019176,0.0069594,0.035264,0.013531,0.0051641,0.0055683,0.0018536,0.035668,0.028928,-0.0023528,0.016505,0.02007,0.025621,-0.0013824,0.015945,0.0085225,0.011272
-0.0097765,0.017831,0.017855,-0.0005138,-0.016672,-0.10364,0.039545,0.0083025,0.010269,0.032006,0.018277,-0.0020688,0.0075713,0.0069335,0.032829,0.032192,-0.0043897,0.015584,0.020214,0.020526,0.0028344,0.013376,0.01296,0.017576
-0.0057411,0.017248,0.012503,0.0056728,-0.011016,-0.10487,0.044181,0.015324,0.0082905,0.027581,0.024995,-0.010093,0.0090549,0.015427,0.030116,0.037728,-0.0055563,0.01612,0.020957,0.016635,0.0048591,0.013259,0.013502,0.021131
-0.00092842,0.015048,0.0082541,0.011424,0.002005,-0.11018,0.049542,0.021826,0.0046207,0.025272,0.028727,-0.015643,0.0087107,0.020947,0.028591,0.043016,-0.0051962,0.019068,0.021224,0.015761,0.00432,0.013129,0.010627,0.021038
0.0019955,0.012599,0.007141,0.015155,0.024967,-0.11274,0.057644,0.029214,0.003311,0.025967,0.027749,-0.01666,0.0061621,0.019879,0.02848,0.045286,-0.0031708,0.023655,0.020093,0.017502,0.0022288,0.010798,0.0068447,0.01889
0.0014015,0.0116,0.0091165,0.016576,0.055245,-0.10823,0.06849,0.039056,0.005564,0.028149,0.024401,-0.013364,0.0024429,0.013824,0.029468,0.043673,-0.00019116,0.027167,0.017563,0.019523,-0.0002761,0.0063826,0.0045183,0.01745
-0.0016267,0.012544,0.012167,0.016746,0.08531,-0.095687,0.080192,0.050416,0.0089554,0.029788,0.022368,-0.0079604,-0.00059998,0.0076375,0.031038,0.039671,0.0024749,0.026571,0.014605,0.019123,-0.0027278,0.0022432,0.0043182,0.018571
-0.0036088,0.014075,0.013856,0.017528,0.10657,-0.076477,0.090454,0.059877,0.0095958,0.03011,0.023085,-0.0031265,-0.0015776,0.0052551,0.032577,0.03566,0.0037012,0.020995,0.012417,0.014862,-0.0050586,0.00097342,0.0055337,0.022071
-0.0012837,0.013964,0.013176,0.020626,0.11396,-0.053353,0.098109,0.06438,0.0053633,0.029704,0.024591,-0.00030358,-0.00045314,0.0070134,0.033419,0.032982,0.0030717,0.013013,0.011569,0.0073132,-0.0068818,0.0032609,0.0075391,0.026292
0.0054218,0.011006,0.011286,0.026603,0.108,-0.03005,0.10347,0.064013,-0.0023121,0.029228,0.0238,0.0010414,0.0016318,0.010331,0.032995,0.031255,0.00095695,0.0072508,0.011793,-0.0012133,-0.0073294,0.0074217,0.01066,0.029597
0.012855,0.0063016,0.010538,0.034385,0.092939,-0.010631,0.10749,0.061887,-0.0093583,0.028344,0.019922,0.0026786,0.003292,0.012478,0.031119,0.029292,-0.0018216,0.0070872,0.012506,-0.0076984,-0.0057005,0.010866,0.015503,0.03145
0.016442,0.0027374,0.012519,0.04164,0.073011,0.0022071,0.11065,0.0612,-0.011866,0.026058,0.015654,0.0059906,0.0036906,0.012696,0.028235,0.026479,-0.0043839,0.012042,0.013367,-0.0098508,-0.0022223,0.01211,0.021573,0.032401
0.014582,0.0028931,0.01666,0.04592,0.049818,0.0090224,0.1126,0.062458,-0.0087144,0.022051,0.014832,0.010741,0.0026538,0.012107,0.025397,0.023255,-0.0060021,0.018158,0.014262,-0.0075172,0.0018979,0.011629,0.02682,0.033344
0.010047,0.0069793,0.020492,0.045906,0.022766,0.013844,0.11263,0.063638,-0.0021981,0.017492,0.018644,0.015236,0.00038227,0.012129,0.023832,0.0204,-0.0061966,0.021213,0.014843,-0.0032778,0.0052064,0.010994,0.028848,0.034904
0.0074267,0.012484,0.021388,0.042024,-0.0083307,0.021901,0.1101,0.063031,0.0036584,0.014363,0.024048,0.01777,-0.0026687,0.013219,0.024118,0.018057,-0.0048933,0.020062,0.014366,-0.0013949,0.0068411,0.011264,0.026825,0.037347
0.0088903,0.015918,0.018451,0.03609,-0.041095,0.036284,0.10462,0.061693,0.0058419,0.013831,0.026123,0.018143,-0.0056501,0.014927,0.025493,0.015565,-0.0026011,0.017171,0.012254,-0.005172,0.006807,0.012096,0.022305,0.04067
0.012279,0.015356,0.013133,0.030318,-0.070963,0.056114,0.096031,0.062812,0.0041997,0.015146,0.022451,0.017934,-0.0073966,0.016693,0.026014,0.012245,-0.00031887,0.015917,0.0088855,-0.014257,0.0056877,0.012264,0.018108,0.044391
0.013339,0.01181,0.0081626,0.026313,-0.093944,0.077597,0.08492,0.068458,0.0011518,0.016073,0.015539,0.019193,-0.0070628,0.01824,0.023882,0.008313,0.0010029,0.017238,0.0056579,-0.024126,0.0042961,0.010957,0.01614,0.047172
0.0099196,0.0083779,0.0056387,0.024549,-0.10953,0.096857,0.073018,0.07696,-0.00042093,0.014566,0.010908,0.022639,-0.0049127,0.019185,0.019137,0.0050338,0.0011387,0.018823,0.0040338,-0.028768,0.0035753,0.0086362,0.016047,0.046998
0.0040499,0.0078548,0.0056728,0.024397,-0.12131,0.11211,0.062764,0.083694,0.00053541,0.010338,0.012387,0.026896,-0.0024216,0.018669,0.014238,0.0039552,0.00075628,0.017625,0.0043755,-0.025033,0.0044965,0.0067493,0.015886,0.042337
-4.8215e-005,0.01065,0.0065197,0.024515,-0.13447,0.12364,0.055573,0.084757,0.002546,0.0051184,0.018786,0.029542,-0.0013445,0.015831,0.012609,0.0058618,0.00074298,0.01319,0.0057354,-0.015355,0.0075447,0.0066233,0.014234,0.033637
4.6215e-005,0.014541,0.0060392,0.023404,-0.15189,0.13231,0.050075,0.080208,0.0030147,0.0014139,0.024954,0.029168,-0.0024392,0.010947,0.015978,0.010201,0.0011892,0.0084425,0.0068409,-0.006434,0.011946,0.0084856,0.01183,0.023704
0.0028863,0.016353,0.0034403,0.01999,-0.17155,0.13836,0.04242,0.073938,0.00058551,0.00068929,0.026283,0.026732,-0.0049692,0.0060181,0.022667,0.015284,0.0010726,0.0070777,0.00728,-0.0045883,0.015459,0.011319,0.011152,0.016166
0.0048839,0.014299,6.8768e-005,0.014102,-0.1874,0.14168,0.029314,0.070447,-0.0034937,0.0023263,0.022553,0.024991,-0.0074142,0.0038193,0.028442,0.019047,-0.00078441,0.010051,0.0076778,-0.011242,0.015412,0.013548,0.014142,0.01292
0.0038748,0.0093192,-0.001406,0.0066692,-0.1933,0.14279,0.011758,0.071544,-0.0061737,0.004176,0.017688,0.026376,-0.0086445,0.0058759,0.02942,0.019977,-0.0041747,0.014626,0.0087404,-0.022004,0.010602,0.014027,0.020003,0.012701
0.00087699,0.0045545,0.0010121,-0.00055514,-0.18718,0.14309,-0.004031,0.075783,-0.004975,0.0043375,0.015806,0.031033,-0.0084211,0.011058,0.024728,0.017793,-0.0069451,0.016887,0.010246,-0.029919,0.0025998,0.012714,0.025189,0.012234
-0.0015398,0.0033361,0.0068134,-0.0057044,-0.17252,0.14381,-0.010223,0.080616,-6.9832e-006,0.0027809,0.017355,0.036655,-0.0069047,0.016218,0.016848,0.013566,-0.0063728,0.015222,0.011086,-0.030213,-0.0048919,0.010712,0.02591,0.009162
-0.0022981,0.0069763,0.012783,-0.007674,-0.15582,0.14487,-0.0032127,0.084854,0.0060304,0.0014218,0.018952,0.04022,-0.004006,0.018561,0.0096025,0.0091,-0.0016349,0.011379,0.010306,-0.022958,-0.0084643,0.0096477,0.02122,0.0041835
-0.0029159,0.013779,0.014907,-0.0066926,-0.14183,0.14489,0.013103,0.089149,0.0098668,0.0024456,0.016973,0.040119,0.00041975,0.017771,0.0056173,0.0058296,0.0048524,0.0082867,0.0080401,-0.01209,-0.0074476,0.010693,0.014004,0.00042687
-0.0054893,0.019965,0.011259,-0.0041778,-0.13048,0.14248,0.029763,0.094501,0.010024,0.0062204,0.011361,0.036882,0.0056047,0.016011,0.005187,0.0039126,0.0088369,0.0070596,0.0054324,-0.0021843,-0.0043517,0.013777,0.0087961,0.00054687
-0.0097681,0.022029,0.0036947,-0.0018534,-0.11777,0.13722,0.039245,0.1006,0.0075933,0.010659,0.0059507,0.032096,0.0093629,0.015747,0.0069598,0.0022741,0.0075925,0.0063217,0.0037462,0.0042105,-0.0028319,0.01755,0.008146,0.0042033
-0.01261,0.019058,-0.0031412,-0.00067077,-0.10022,0.12893,0.040701,0.10569,0.0049013,0.012753,0.0049263,0.026801,0.0091268,0.017378,0.0093389,-0.00029709,0.0023955,0.004383,0.0036408,0.00703,-0.0047813,0.020242,0.010639,0.0082524
-0.010714,0.013404,-0.005026,-0.00036934,-0.079042,0.11598,0.039587,0.10775,0.0034025,0.011069,0.0087444,0.021025,0.0040616,0.018898,0.01133,-0.003856,-0.0023105,0.001739,0.0051943,0.0074308,-0.008914,0.020885,0.012343,0.0094661
-0.0040937,0.0091059,-0.0012105,-0.00010123,-0.060342,0.094579,0.042249,0.10581,0.0027093,0.0070325,0.013382,0.014805,-0.0036397,0.017959,0.012517,-0.0070293,-0.0026293,0.0010374,0.0082807,0.0065,-0.011973,0.019933,0.010456,0.007248
0.0032198,0.0090646,0.0050767,0.00038823,-0.050978,0.060844,0.050334,0.10012,0.0015156,0.0038306,0.01373,0.0093304,-0.0098416,0.01436,0.012729,-0.0081979,0.0013979,0.0043703,0.012552,0.0049907,-0.011513,0.018726,0.0059338,0.0038653
0.0062496,0.012978,0.0090811,0.00016243,-0.053483,0.014428,0.059745,0.091421,-0.00069215,0.0038622,0.008097,0.0066337,-0.011411,0.010501,0.011977,-0.0071727,0.0058674,0.010668,0.016956,0.0037418,-0.0079727,0.018244,0.00276,0.0020962
0.0032609,0.017627,0.0079709,-0.0022122,-0.064488,-0.039442,0.064513,0.08017,-0.002966,0.0069554,-0.000227,0.0077729,-0.008572,0.0092088,0.010625,-0.005697,0.0066158,0.016028,0.01958,0.0038207,-0.0043828,0.018275,0.0044806,0.0025933
-0.0027615,0.019319,0.0026125,-0.0072091,-0.077939,-0.091724,0.061702,0.066445,-0.003992,0.010821,-0.0057666,0.011242,-0.0044821,0.01096,0.0094056,-0.0059712,0.0031081,0.01693,0.018535,0.0060326,-0.0040375,0.017806,0.011046,0.0034272
-0.00675,0.016614,-0.0034897,-0.013505,-0.090063,-0.13418,0.053135,0.050468,-0.0038035,0.013166,-0.0054775,0.013475,-0.0022905,0.013289,0.0090865,-0.0082744,-0.00099001,0.013365,0.013475,0.010354,-0.0079829,0.016244,0.018648,0.0021045
-0.0059293,0.011246,-0.0069358,-0.018658,-0.10146,-0.16332,0.043138,0.033237,-0.0042105,0.013459,-0.0010809,0.011429,-0.0023736,0.013163,0.01003,-0.0099248,-0.0011184,0.0088918,0.0064117,0.015972,-0.014237,0.014228,0.022589,-0.0019964
-0.001979,0.0066315,-0.0066013,-0.020762,-0.11462,-0.18066,0.035094,0.016884,-0.0072279,0.012863,0.0028508,0.0051365,-0.0023704,0.010118,0.012017,-0.0069666,0.0040128,0.0075168,0.00078167,0.021899,-0.019249,0.013156,0.020694,-0.0071118
0.00087403,0.0053151,-0.0038365,-0.019616,-0.12961,-0.18961,0.029955,0.004496,-0.012821,0.012643,0.0031548,-0.0021519,1.1953e-005,0.0069953,0.014411,0.0024294,0.01118,0.010301,-0.0007756,0.027489,-0.020426,0.013828,0.014545,-0.010868
-6.8874e-005,0.0073817,-0.0010342,-0.016463,-0.14262,-0.19195,0.027325,-0.00077617,-0.018184,0.012787,0.00074379,-0.0065223,0.0042219,0.0072573,0.016438,0.015713,0.015367,0.014749,0.0017666,0.032349,-0.017848,0.015585,0.0078851,-0.012479
-0.0035558,0.010852,7.3065e-005,-0.012771,-0.14894,-0.18703,0.027094,0.0027251,-0.019557,0.012218,-0.00066478,-0.0065092,0.0070174,0.01134,0.01738,0.027113,0.013927,0.017357,0.0058976,0.035904,-0.013945,0.016841,0.0038223,-0.013185
-0.0057849,0.013347,-0.00068924,-0.0093357,-0.14748,-0.17385,0.029615,0.013612,-0.015316,0.010327,0.0015964,-0.0040617,0.0056327,0.015724,0.016759,0.031654,0.008514,0.016745,0.008463,0.037279,-0.011476,0.016569,0.003095,-0.014605
-0.0041824,0.013502,-0.0020479,-0.0063684,-0.14196,-0.15381,0.034476,0.027144,-0.0077234,0.0081804,0.0064071,-0.0026052,0.0009619,0.016013,0.014686,0.028868,0.0033426,0.014458,0.0078268,0.035834,-0.011401,0.015229,0.0043856,-0.016742
6.6338e-005,0.01128,-0.0020788,-0.004092,-0.13734,-0.13116,0.039672,0.03703,-0.0016625,0.0080252,0.0098028,-0.0040178,-0.0025129,0.011319,0.012238,0.023056,0.0015679,0.012952,0.0046611,0.031923,-0.012307,0.014201,0.0059176,-0.01769
0.0031165,0.0075149,0.00066645,-0.0028758,-0.13471,-0.11096,0.042501,0.038719,-0.0011152,0.011327,0.008673,-0.0071832,-0.0003688,0.0056453,0.011371,0.019829,0.0030038,0.013009,0.0010038,0.02713,-0.011814,0.014259,0.0068431,-0.015343
0.0021341,0.0035124,0.0060986,-0.0026907,-0.12993,-0.096249,0.04151,0.032038,-0.0060845,0.01706,0.0037311,-0.0091964,0.0076699,0.0045634,0.013919,0.021887,0.0048977,0.01325,-0.0013635,0.023623,-0.0087567,0.014672,0.0075059,-0.0094312
-0.0019334,0.00088923,0.012224,-0.0026119,-0.11775,-0.08679,0.037586,0.021081,-0.01245,0.021899,-0.00099517,-0.0079086,0.016981,0.010034,0.020034,0.027531,0.0047399,0.01207,-0.0018435,0.023019,-0.0042963,0.01394,0.0087317,-0.0019644
-0.0051145,0.001189,0.016041,-0.0011591,-0.097569,-0.080212,0.033046,0.011198,-0.014966,0.022403,-0.0016385,-0.0035364,0.021518,0.018244,0.027269,0.032923,0.0025327,0.0098431,-0.00077039,0.025472,-0.0010187,0.011517,0.010909,0.0043215
-0.004037,0.0049678,0.015488,0.0026375,-0.075032,-0.074137,0.029527,0.0053266,-0.011118,0.017533,0.0022743,0.0017992,0.018601,0.022683,0.031524,0.035707,0.00067758,0.0089157,0.0013971,0.029521,-0.00080543,0.0087646,0.013542,0.0080709
0.00090112,0.010948,0.01113,0.0083888,-0.057291,-0.067401,0.026616,0.0025349,-0.0028555,0.0095288,0.0076876,0.0058088,0.010933,0.019771,0.029743,0.036689,0.0017618,0.011267,0.0044854,0.032721,-0.0033135,0.0080209,0.015505,0.01016
0.0057278,0.016278,0.0060978,0.014509,-0.045808,-0.059641,0.022358,-0.00020357,0.0050493,0.0024203,0.010896,0.0073973,0.0042299,0.011841,0.022538,0.038373,0.0061851,0.016176,0.0082958,0.032784,-0.0063079,0.010482,0.015808,0.012707
0.0062916,0.018151,0.0039715,0.019251,-0.033602,-0.050194,0.015078,-0.0046936,0.0085769,-0.00067249,0.010663,0.0067623,0.0026928,0.0048151,0.014398,0.042133,0.011562,0.020399,0.012097,0.028787,-0.0074456,0.014855,0.014398,0.017242
0.0018049,0.015709,0.0061386,0.021765,-0.010258,-0.037897,0.0048354,-0.0095683,0.0070986,0.00052761,0.0088417,0.0046692,0.0061989,0.0029176,0.010724,0.046846,0.014354,0.020921,0.014657,0.021937,-0.0059292,0.018149,0.012443,0.023559
-0.0045749,0.010634,0.010805,0.022438,0.028922,-0.022304,-0.0065475,-0.011258,0.0031944,0.0036032,0.008262,0.0018675,0.011261,0.0054472,0.013669,0.050042,0.012461,0.017741,0.014978,0.015267,-0.0027553,0.018006,0.011729,0.030041
-0.0084897,0.0058841,0.01457,0.0225,0.077416,-0.0052274,-0.016614,-0.0068757,0.0002151,0.0053868,0.010134,-0.0009549,0.014368,0.0084001,0.020215,0.050135,0.0067845,0.013964,0.01309,0.012033,0.00037216,0.01453,0.013371,0.034971
-0.0078744,0.0036321,0.015241,0.023288,0.1207,0.0091335,-0.023389,0.0034565,-0.00012533,0.004224,0.013329,-0.0030643,0.014522,0.0089291,0.024435,0.047483,0.00059205,0.012997,0.010113,0.013437,0.0023408,0.010029,0.016687,0.037711
-0.0041698,0.0040941,0.013473,0.025592,0.14595,0.016142,-0.025727,0.016555,0.0017369,0.0010349,0.015834,-0.0038802,0.013056,0.0080452,0.022376,0.043501,-0.0028392,0.015418,0.0074,0.017262,0.0031304,0.0070335,0.019247,0.038889
-0.0005116,0.0060325,0.011879,0.029263,0.15032,0.01357,-0.023125,0.028096,0.004505,-0.0013913,0.016606,-0.0033367,0.011526,0.0090253,0.01549,0.039039,-0.0025207,0.018444,0.0054755,0.018873,0.0034256,0.006463,0.01844,0.039623
0.0011213,0.0081493,0.012577,0.033254,0.14135,0.0032076,-0.015746,0.03482,0.0074634,-0.00027013,0.016017,-0.0018493,0.01005,0.013433,0.0094958,0.033787,-0.00028223,0.018498,0.0037672,0.014448,0.0039525,0.0074779,0.013624,0.040511
0.001184,0.0099604,0.015418,0.036242,0.12945,-0.010004,-0.004895,0.035621,0.010645,0.0053865,0.014794,0.0002956,0.0075522,0.018961,0.0094903,0.02718,0.00081056,0.014486,0.0014442,0.0042588,0.0050753,0.0087976,0.0071614,0.041227
0.0014486,0.011506,0.018394,0.037571,0.1195,-0.020635,0.0066477,0.031423,0.013876,0.014165,0.012924,0.0035224,0.003326,0.021306,0.01551,0.019707,-0.0011121,0.008796,-0.0014012,-0.0067852,0.006695,0.0099315,0.0032148,0.040976
0.0029378,0.012532,0.019575,0.037805,0.10824,-0.025251,0.015257,0.024624,0.01606,0.023151,0.0097986,0.0086917,-0.0018526,0.018188,0.022484,0.013146,-0.0053187,0.0051849,-0.0034408,-0.012289,0.0082661,0.011152,0.0048843,0.039325
0.0049391,0.012246,0.018667,0.03819,0.089103,-0.023171,0.018137,0.018592,0.01575,0.02971,0.0053147,0.015936,-0.0061101,0.011561,0.024629,0.0093993,-0.0091349,0.0055756,-0.0031684,-0.0091023,0.008954,0.012562,0.011819,0.036628
0.005775,0.010017,0.016861,0.039287,0.059339,-0.015542,0.015057,0.016902,0.012561,0.032939,0.00058057,0.023674,-0.0078625,0.0059437,0.02035,0.0089733,-0.010104,0.008634,-0.0004875,0.00013491,0.0081111,0.013552,0.020294,0.033721
0.0043222,0.0063086,0.015387,0.040007,0.022972,-0.0039919,0.00884,0.021839,0.0079987,0.033834,-0.0026539,0.02906,-0.006898,0.004577,0.013307,0.010457,-0.0079438,0.011225,0.0027335,0.0088895,0.0059536,0.013356,0.025847,0.031258
0.00086743,0.002777,0.014359,0.038213,-0.01263,0.010027,0.004041,0.032686,0.0047382,0.034118,-0.0032469,0.029957,-0.0043663,0.0070156,0.0088417,0.011475,-0.0047865,0.01122,0.003971,0.011747,0.003833,0.012024,0.026423,0.029411
-0.0031879,0.0012718,0.012933,0.032646,-0.042926,0.025124,0.0045447,0.045289,0.004835,0.034687,-0.0012964,0.026928,-0.0019526,0.010181,0.0092019,0.010339,-0.0034818,0.0091047,0.0023423,0.0085223,0.003536,0.010634,0.023486,0.02813
-0.0062154,0.002508,0.010431,0.024499,-0.069397,0.039795,0.011591,0.054124,0.008357,0.034891,0.0023838,0.023373,-0.0010124,0.011515,0.011892,0.0071167,-0.0052695,0.0071481,-0.00017085,0.004107,0.0058411,0.010371,0.020312,0.027449
-0.0070988,0.0055436,0.0071591,0.017005,-0.09708,0.052748,0.02345,0.056092,0.013475,0.033158,0.0071499,0.023266,-0.0021061,0.011077,0.012424,0.0034186,-0.0086489,0.0071721,-2.7037e-006,0.0042123,0.0094676,0.011441,0.019101,0.027239
-0.0055713,0.0084879,0.004171,0.013128,-0.12901,0.063587,0.036858,0.053337,0.017746,0.02839,0.012642,0.028075,-0.0048514,0.01073,0.0086381,0.0011645,-0.01042,0.0090235,0.0049196,0.010562,0.011553,0.012952,0.019471,0.026643
-0.0022636,0.0098267,0.0023424,0.01325,-0.16272,0.073262,0.049175,0.052433,0.01947,0.020973,0.018023,0.035359,-0.0079691,0.011558,0.0025514,0.0012751,-0.0081896,0.010965,0.012855,0.019501,0.0096314,0.013874,0.019478,0.02414
0.0015087,0.0093006,0.0017309,0.014862,-0.19191,0.083809,0.059802,0.059905,0.01826,0.012687,0.021447,0.040345,-0.0097047,0.012352,-0.0017568,0.0031564,-0.0023863,0.011356,0.018952,0.025095,0.0036954,0.013995,0.017918,0.018827
0.0043057,0.0077676,0.0017416,0.014563,-0.21189,0.09736,0.069959,0.077225,0.014877,0.0057237,0.020837,0.039411,-0.0088088,0.010811,-0.0019494,0.005221,0.0038807,0.0099622,0.018793,0.024032,-0.0034274,0.013858,0.015578,0.011979
0.0053108,0.0063661,0.0017494,0.010677,-0.22382,0.11484,0.081076,0.099237,0.010818,0.0016594,0.015644,0.032773,-0.0056511,0.0062581,0.00065749,0.0060007,0.0071178,0.007839,0.012021,0.018251,-0.0079187,0.013813,0.014281,0.0070549
0.0047488,0.0057728,0.0014919,0.0043697,-0.23415,0.13503,0.093047,0.11746,0.0078862,0.00096974,0.0079733,0.024313,-0.0024698,0.00097127,0.0025755,0.0050635,0.0061142,0.0061705,0.0029475,0.013159,-0.0077617,0.013372,0.014807,0.0073205
0.0035692,0.0060578,0.00098872,-0.0014876,-0.24933,0.15456,0.10372,0.12572,0.0075179,0.0030418,0.0016631,0.018738,-0.0020875,-0.0015723,0.0012711,0.0031343,0.0028506,0.005358,-0.0025047,0.013054,-0.0043021,0.011719,0.015821,0.012695
0.0026217,0.0069813,0.00030619,-0.0045576,-0.27017,0.1692,0.11001,0.12381,0.0098893,0.0063354,-0.00032673,0.01836,-0.0057388,-8.615e-005,-0.0030502,0.0013962,0.00092421,0.0051547,-0.001101,0.017657,-0.0012604,0.0089051,0.014935,0.018831
0.0020451,0.0082374,-0.00047642,-0.0045764,-0.29037,0.1759,0.1098,0.11636,0.013408,0.0086975,0.0018122,0.021932,-0.011765,0.0028841,-0.0083158,0.00053698,0.0027559,0.0054222,0.005638,0.022662,-0.0018696,0.0063562,0.010927,0.019946
0.0013607,0.0093968,-0.0011815,-0.00322,-0.30086,0.17443,0.10304,0.1085,0.015393,0.0081837,0.0048167,0.02615,-0.016556,0.0031,-0.012773,0.00028054,0.0077471,0.0064183,0.013072,0.023734,-0.0063455,0.0059088,0.0050711,0.013474
4.0951e-005,0.009798,-0.001641,-0.0027713,-0.29642,0.16766,0.091137,0.102,0.013897,0.0043831,0.0049153,0.028254,-0.017231,-0.0010988,-0.016149,-0.00025545,0.012723,0.0081565,0.017119,0.020447,-0.011695,0.0081165,0.0003295,0.0025105
-0.00207,0.0087811,-0.0019741,-0.0047612,-0.27969,0.16021,0.07531,0.095038,0.0093833,-0.00067388,0.00086171,0.027509,-0.013865,-0.0065099,-0.018871,-0.0017154,0.014231,0.0096198,0.016856,0.016693,-0.014048,0.011485,-0.00093526,-0.0064105
-0.0047748,0.0062662,-0.0025738,-0.0093629,-0.2592,0.15646,0.055295,0.08511,0.0046952,-0.0032755,-0.0050753,0.024668,-0.0092329,-0.0074453,-0.020568,-0.0039116,0.011001,0.0090647,0.014214,0.017168,-0.011679,0.013528,0.0011624,-0.0085652
-0.0077014,0.0031592,-0.0035434,-0.015503,-0.24311,0.15922,0.029697,0.071827,0.0029997,-0.00060916,-0.0090051,0.020472,-0.0062779,-0.0010671,-0.019763,-0.0059784,0.0049062,0.0056181,0.011656,0.022989,-0.0063235,0.012786,0.0040465,-0.0048308
-0.010302,0.0010231,-0.004114,-0.021288,-0.23336,0.16943,-0.0022341,0.056988,0.0052493,0.0065665,-0.008617,0.014921,-0.0056403,0.009229,-0.015287,-0.0070978,-0.00016452,0.00077296,0.010172,0.030296,-0.0017546,0.0099831,0.0045152,-0.00076469
-0.011803,0.0010454,-0.0029841,-0.024579,-0.2246,0.18645,-0.038778,0.042194,0.009348,0.013657,-0.0050408,0.0079408,-0.005573,0.015962,-0.0080261,-0.0071144,-0.00079596,-0.0020331,0.0091516,0.033129,-0.00081051,0.0072476,0.00097006,-0.0018768
-0.011528,0.0030574,0.00027376,-0.023832,-0.20826,0.20814,-0.075351,0.026947,0.011864,0.015282,-0.0019039,0.00042163,-0.0042318,0.01382,-0.0011365,-0.006493,0.0036225,-3.3819e-005,0.0076979,0.028174,-0.0033052,0.0061769,-0.0055575,-0.0092393
-0.0095799,0.0054942,0.0039953,-0.01909,-0.1783,0.23077,-0.10594,0.0096029,0.010871,0.0095951,-0.0024708,-0.0058588,-0.0019354,0.0045136,0.0018162,-0.0057234,0.010249,0.0060419,0.005778,0.017346,-0.0064631,0.0065669,-0.012193,-0.018998
-0.007204,0.0064926,0.0050292,-0.012484,-0.13451,0.24923,-0.12556,-0.0094928,0.0074595,0.00020535,-0.0072155,-0.0096247,-0.00097412,-0.0043587,-0.00057273,-0.0048098,0.014438,0.011665,0.0041214,0.0061357,-0.0073832,0.0069176,-0.016129,-0.025772
-0.006122,0.0053187,0.0012816,-0.0075245,-0.081344,0.25825,-0.13229,-0.026037,0.0046531,-0.0063676,-0.013599,-0.011443,-0.0030434,-0.0057153,-0.0063249,-0.0033745,0.012828,0.011566,0.0032196,-0.00070763,-0.0053683,0.0060691,-0.016278,-0.026767
-0.0071397,0.0029194,-0.0058738,-0.0072195,-0.024534,0.25415,-0.12794,-0.033652,0.0047944,-0.0059538,-0.01791,-0.013463,-0.0069255,0.00093804,-0.011232,-0.0012466,0.0058318,0.0039758,0.0026062,-0.0023807,-0.0021994,0.004296,-0.013625,-0.023373
-0.0092773,0.0010511,-0.011886,-0.012147,0.031684,0.23609,-0.11699,-0.028765,0.0077199,-0.00031796,-0.017546,-0.017525,-0.0090156,0.009159,-0.011603,0.0011532,-0.0024162,-0.0075643,0.0011716,-0.0016285,-0.00030218,0.0028431,-0.010239,-0.019506
-0.010459,0.00067846,-0.012405,-0.019968,0.084767,0.20592,-0.10452,-0.014436,0.011125,0.0042048,-0.012221,-0.023267,-0.0065536,0.011192,-0.006701,0.0031551,-0.0069117,-0.016577,-0.0018041,-0.0015859,-0.00057814,0.0024957,-0.0078499,-0.01855
-0.0093386,0.0010628,-0.0070987,-0.026902,0.13268,0.16719,-0.094145,0.0005269,0.012469,0.0020965,-0.0037559,-0.028031,-0.00060928,0.0045071,0.00075774,0.0046601,-0.0054541,-0.018438,-0.0058666,-0.0030415,-0.0018193,0.0026876,-0.0070673,-0.021244
-0.0065638,0.00042437,-0.00037638,-0.03011,0.17343,0.12392,-0.086982,0.0069676,0.010592,-0.0064871,0.0048737,-0.028791,0.004215,-0.0064129,0.0063602,0.0065529,-0.00028986,-0.013635,-0.0095493,-0.0045375,-0.0020737,0.0020162,-0.0076206,-0.025605
-0.0041625,-0.0023499,0.001996,-0.029169,0.20607,0.079897,-0.082085,0.0011527,0.0059195,-0.015666,0.01054,-0.024517,0.0034921,-0.014209,0.0068911,0.01008,0.0037039,-0.0068903,-0.011358,-0.004775,-0.00054486,-0.00041531,-0.0091023,-0.028414
-0.0035596,-0.0065107,-0.0023189,-0.025622,0.23194,0.038155,-0.077754,-0.013639,-0.0003819,-0.018789,0.010906,-0.017091,-0.0030169,-0.014698,0.002529,0.015578,0.0029206,-0.0031059,-0.010819,-0.0045843,0.0017765,-0.0041731,-0.011357,-0.027149
-0.0041944,-0.0099295,-0.010193,-0.02124,0.25415,0.00026335,-0.072738,-0.03069,-0.0071202,-0.014215,0.005355,-0.010146,-0.010668,-0.0095928,-0.0031283,0.021745,-0.002158,-0.0037087,-0.0088162,-0.0063321,0.0032623,-0.0079137,-0.014198,-0.02142
-0.0041819,-0.010891,-0.015563,-0.016668,0.27528,-0.034083,-0.066577,-0.045231,-0.013136,-0.0069613,-0.0044386,-0.0068907,-0.013392,-0.0040875,-0.0053761,0.026324,-0.0075398,-0.0063166,-0.0069874,-0.01135,0.0033987,-0.010515,-0.016953,-0.013293
-0.002368,-0.0095553,-0.014343,-0.011522,0.29528,-0.066257,-0.059217,-0.057064,-0.017173,-0.004726,-0.01498,-0.0084908,-0.0084888,-0.0021322,-0.0016486,0.027776,-0.0091485,-0.0075122,-0.0066287,-0.018055,0.0034153,-0.011781,-0.018583,-0.0063064
0.00035003,-0.0076975,-0.0075028,-0.0055012,0.31177,-0.09658,-0.050616,-0.068719,-0.018218,-0.011573,-0.022626,-0.013881,0.0013105,-0.0036981,0.0065063,0.02649,-0.0061582,-0.005913,-0.0079203,-0.022834,0.0051373,-0.012159,-0.018486,-0.0035708
0.0018364,-0.0069741,9.7939e-005,0.0007644,0.32269,-0.12246,-0.040895,-0.08157,-0.016217,-0.02451,-0.025561,-0.020728,0.010217,-0.0059391,0.014232,0.024333,-0.0014761,-0.0029002,-0.010033,-0.023117,0.0090779,-0.011997,-0.017237,-0.0060229
0.00083141,-0.0073859,0.003783,0.0059571,0.32887,-0.13893,-0.030797,-0.093938,-0.012366,-0.03573,-0.024625,-0.02671,0.01406,-0.0064802,0.016556,0.02292,0.00083963,-0.00084602,-0.011967,-0.019845,0.013535,-0.011228,-0.016387,-0.012056
-0.0018214,-0.007457,0.0023768,0.0090313,0.33393,-0.14208,-0.021828,-0.10289,-0.0084549,-0.03858,-0.022348,-0.030458,0.01316,-0.0055537,0.011796,0.022175,-0.0011642,-0.0009242,-0.013361,-0.017024,0.015632,-0.0098413,-0.017281,-0.018861
-0.004043,-0.0059639,-0.001775,0.0099171,0.34126,-0.13293,-0.015779,-0.10771,-0.0056986,-0.032392,-0.020977,-0.031875,0.011034,-0.0052857,0.0027577,0.020575,-0.006173,-0.0025647,-0.01455,-0.01861,0.013553,-0.0085138,-0.019878,-0.024459
-0.0044477,-0.0034789,-0.0054531,0.0094608,0.35071,-0.11817,-0.014096,-0.11153,-0.0040788,-0.022492,-0.02113,-0.031803,0.010446,-0.0072346,-0.0051202,0.016854,-0.01124,-0.0046562,-0.015913,-0.025384,0.0081792,-0.0085731,-0.02268,-0.028741
-0.0032353,-0.0021256,-0.0071108,0.0089008,0.35784,-0.10661,-0.017674,-0.11926,-0.0027403,-0.015773,-0.022006,-0.031167,0.010733,-0.010688,-0.0073477,0.011523,-0.01441,-0.0068472,-0.017264,-0.034392,0.0027198,-0.011074,-0.023874,-0.032699
-0.0012384,-0.0036849,-0.0072373,0.0094085,0.3566,-0.10354,-0.027071,-0.13382,-0.000986,-0.015683,-0.022614,-0.030051,0.0089645,-0.013239,-0.0031956,0.0066845,-0.015856,-0.009473,-0.018041,-0.041267,0.00054817,-0.015714,-0.022681,-0.036658
0.0015112,-0.0078697,-0.0069073,0.011791,0.3433,-0.10785,-0.04244,-0.15384,0.0010977,-0.020484,-0.022692,-0.0274,0.0036794,-0.012983,0.0040418,0.0042346,-0.016711,-0.012361,-0.018162,-0.043331,0.0028373,-0.020617,-0.019705,-0.039267
0.0057435,-0.012491,-0.0064747,0.016125,0.31887,-0.11401,-0.062748,-0.17461,0.0028947,-0.025564,-0.022559,-0.021794,-0.0026953,-0.010251,0.009289,0.004093,-0.017087,-0.014117,-0.018588,-0.041006,0.0077637,-0.023351,-0.01613,-0.038348
0.011262,-0.015423,-0.0056897,0.02138,0.28815,-0.11732,-0.084906,-0.19101,0.00401,-0.027271,-0.022365,-0.012903,-0.0053951,-0.0073714,0.0088149,0.0041551,-0.015544,-0.013018,-0.020794,-0.036795,0.011859,-0.022535,-0.012695,-0.032898
0.015642,-0.016473,-0.0046371,0.02556,0.25728,-0.1178,-0.10413,-0.19997,0.0047185,-0.025016,-0.021778,-0.00248,-0.0015694,-0.0067117,0.0023017,0.0021069,-0.010703,-0.0088312,-0.025371,-0.033167,0.01251,-0.018799,-0.0095161,-0.024399
0.015415,-0.017289,-0.0040114,0.026761,0.23146,-0.1196,-0.11608,-0.20085,0.0057086,-0.020504,-0.020477,0.0061282,0.006803,-0.0087767,-0.0072218,-0.0024841,-0.0034388,-0.003656,-0.031034,-0.031231,0.0097863,-0.014356,-0.0067915,-0.016135
0.0092964,-0.019336,-0.0042421,0.024615,0.21423,-0.12717,-0.11946,-0.19447,0.0074415,-0.015554,-0.018788,0.0098515,0.014192,-0.012018,-0.015354,-0.007702,0.0027659,-0.00066185,-0.035095,-0.030851,0.0063277,-0.011482,-0.0054085,-0.010997
0.00043693,-0.021935,-0.0045849,0.020877,0.20782,-0.14211,-0.1169,-0.18213,0.0097703,-0.01079,-0.01757,0.0078669,0.015867,-0.014441,-0.018946,-0.010914,0.0041273,-0.0015736,-0.035281,-0.031428,0.0053782,-0.011078,-0.0065094,-0.0096467
-0.0050985,-0.022424,-0.0035483,0.018301,0.21347,-0.16342,-0.11281,-0.16537,0.012134,-0.0060586,-0.017304,0.0021928,0.01136,-0.015484,-0.017823,-0.011075,-0.00023692,-0.005134,-0.031482,-0.032288,0.0083969,-0.012352,-0.010251,-0.010587
-0.0030754,-0.018564,-0.00055152,0.018488,0.23131,-0.19035,-0.10966,-0.14557,0.014049,-0.0015063,-0.017336,-0.0035546,0.004109,-0.016394,-0.014553,-0.0096271,-0.0071413,-0.0080148,-0.02597,-0.032527,0.013923,-0.013715,-0.015044,-0.011936
0.0049014,-0.011057,0.0028858,0.020475,0.26027,-0.22416,-0.10562,-0.1234,0.01534,0.0021427,-0.016252,-0.0063436,-0.0019148,-0.018715,-0.012429,-0.0091617,-0.011573,-0.007483,-0.0218,-0.031034,0.018509,-0.014029,-0.018331,-0.013169
0.012038,-0.0037622,0.0039705,0.021433,0.29832,-0.26669,-0.095652,-0.098284,0.015896,0.0043532,-0.013268,-0.0053411,-0.005141,-0.022324,-0.013063,-0.011019,-0.010688,-0.003546,-0.020604,-0.02716,0.019093,-0.01319,-0.0185,-0.015214
0.011699,-0.0011556,0.001079,0.019027,0.34256,-0.31682,-0.075256,-0.06927,0.01524,0.0055064,-0.0093216,-0.0019784,-0.006424,-0.02495,-0.015389,-0.01401,-0.006182,0.0012257,-0.021454,-0.021504,0.015176,-0.011757,-0.016257,-0.018908
0.0031104,-0.00504,-0.0043989,0.013421,0.38856,-0.36845,-0.044122,-0.036931,0.012511,0.006579,-0.0066513,0.0013779,-0.0069004,-0.023861,-0.016866,-0.015484,-0.0029211,0.0039424,-0.021677,-0.015802,0.0092583,-0.01024,-0.01401,-0.023496
-0.0076303,-0.013238,-0.0087657,0.0071884,0.42931,-0.4122,-0.0067922,-0.0046235,0.0070685,0.0080701,-0.0069715,0.0031008,-0.0064336,-0.018335,-0.015856,-0.01384,-0.0049503,0.0037247,-0.018986,-0.011645,0.0051607,-0.0088524,-0.013642,-0.026798
-0.012412,-0.021277,-0.0089393,0.0031842,0.45577,-0.43963,0.029995,0.022702,-0.00067149,0.0094411,-0.0098614,0.0031627,-0.0042355,-0.010697,-0.013095,-0.010288,-0.012265,0.0022294,-0.013324,-0.0090754,0.0053589,-0.0078528,-0.014695,-0.027043
-0.0078247,-0.025525,-0.0051076,0.00228,0.45992,-0.44674,0.061238,0.041906,-0.0089135,0.0098396,-0.012959,0.0026746,-0.0005276,-0.0048223,-0.010893,-0.0081986,-0.020996,0.0021638,-0.0070709,-0.0065194,0.0091823,-0.00788,-0.014811,-0.024585
0.0020342,-0.02519,-0.00071396,0.0028885,0.43915,-0.43451,0.086099,0.054616,-0.015083,0.009418,-0.013938,0.0025853,0.0030417,-0.0032602,-0.010812,-0.010483,-0.026624,0.0052267,-0.0034456,-0.0023806,0.013209,-0.009582,-0.012163,-0.02174
0.0090758,-0.02186,0.00029453,0.0025508,0.39832,-0.40719,0.10738,0.066848,-0.017069,0.0097713,-0.012489,0.0026724,0.0048801,-0.0053913,-0.01208,-0.017142,-0.027343,0.011129,-0.0043076,0.0030803,0.013646,-0.012701,-0.0075577,-0.020729
0.0079792,-0.017549,-0.003401,4.7413e-005,0.34717,-0.37021,0.1287,0.084893,-0.014354,0.012819,-0.01044,0.0017396,0.0051119,-0.008153,-0.012423,-0.025047,-0.024865,0.018156,-0.0089522,0.0074957,0.0090472,-0.015605,-0.0040047,-0.021653
0.00035063,-0.013309,-0.0096116,-0.0037996,0.2944,-0.32914,0.15156,0.11037,-0.0083699,0.019051,-0.0099217,-0.0011061,0.005359,-0.0086377,-0.010618,-0.030207,-0.022435,0.024394,-0.014717,0.008327,0.0013855,-0.016136,-0.0039616,-0.022493
-0.007131,-0.0094691,-0.014597,-0.0071073,0.24312,-0.28895,0.17431,0.1383,-0.0019294,0.026774,-0.011423,-0.0052847,0.006719,-0.0063099,-0.008211,-0.030719,-0.022125,0.028457,-0.018833,0.0054,-0.0053228,-0.013391,-0.0068999,-0.021203
-0.0086627,-0.0066743,-0.01601,-0.0085423,0.19131,-0.25296,0.19351,0.15991,0.0019868,0.033104,-0.013643,-0.008915,0.0081785,-0.0030814,-0.0084353,-0.028019,-0.023632,0.029383,-0.020086,0.0016184,-0.0078884,-0.0089122,-0.0097377,-0.017917
-0.0040323,-0.0061092,-0.014347,-0.0080609,0.13671,-0.22194,0.20663,0.16802,0.0015884,0.035837,-0.015139,-0.010384,0.0073957,-0.0014538,-0.013039,-0.025478,-0.025098,0.026324,-0.019164,0.0008854,-0.0061682,-0.0058998,-0.0099395,-0.015156
0.0017954,-0.0083638,-0.011962,-0.0063873,0.081289,-0.1949,0.21384,0.16112,-0.0027831,0.03464,-0.0159,-0.0099406,0.0032466,-0.0025324,-0.020025,-0.025557,-0.024733,0.01879,-0.017698,0.0048373,-0.0029334,-0.0067457,-0.0082864,-0.015826
0.0033945,-0.012133,-0.010826,-0.0041621,0.031173,-0.17159,0.21744,0.14348,-0.0086664,0.030773,-0.017079,-0.0097335,-0.002507,-0.0055525,-0.024753,-0.027933,-0.021789,0.0073987,-0.016939,0.01127,-0.0014731,-0.010903,-0.0083813,-0.020849
-0.00055547,-0.014442,-0.011078,-0.0018528,-0.0080476,-0.15483,0.21953,0.12166,-0.012666,0.025882,-0.019226,-0.012071,-0.0063485,-0.0090181,-0.023754,-0.030117,-0.016547,-0.0057005,-0.017,0.015806,-0.002861,-0.01513,-0.013048,-0.028525
-0.0067261,-0.012717,-0.01136,-0.00040152,-0.036216,-0.1496,0.21982,0.10044,-0.012349,0.021016,-0.021131,-0.017445,-0.006048,-0.012152,-0.017889,-0.029886,-0.0098863,-0.017485,-0.016953,0.015504,-0.0051821,-0.016161,-0.021,-0.035994
-0.010594,-0.0071175,-0.010282,-0.0014842,-0.059444,-0.15887,0.21558,0.080784,-0.0077377,0.016446,-0.02084,-0.024186,-0.0027207,-0.015303,-0.011804,-0.027288,-0.0029739,-0.025593,-0.015448,0.011312,-0.0054538,-0.013573,-0.027223,-0.041303
-0.010399,-0.00095903,-0.0075373,-0.006485,-0.086265,-0.17919,0.2041,0.060731,-0.0013215,0.012046,-0.01803,-0.030083,0.00013729,-0.019072,-0.0099624,-0.024433,0.0030337,-0.029591,-0.011512,0.0072569,-0.0026427,-0.010202,-0.027146,-0.044334
-0.0080763,0.0014387,-0.0038184,-0.014767,-0.12235,-0.2004,0.18555,0.037832,0.0035057,0.0076553,-0.01518,-0.034313,-0.00020958,-0.023092,-0.012778,-0.023343,0.0075392,-0.030941,-0.0052681,0.0071329,0.00094243,-0.0095712,-0.020934,-0.04617
-0.0067417,-0.0020597,3.3537e-005,-0.023018,-0.16767,-0.21059,0.16411,0.0113,0.0045436,0.0032099,-0.015942,-0.037719,-0.0033296,-0.025675,-0.016363,-0.023888,0.011028,-0.031705,0.0017176,0.011546,0.0013497,-0.012587,-0.013835,-0.047874
-0.0074323,-0.0097058,0.0036021,-0.026898,-0.21738,-0.20293,0.14609,-0.017346,0.0019873,-0.0012236,-0.021855,-0.041173,-0.0061467,-0.024785,-0.016104,-0.023705,0.014852,-0.033119,0.0068723,0.017728,-0.0034768,-0.016567,-0.011948,-0.049803
-0.0082248,-0.017032,0.0066536,-0.024157,-0.26506,-0.1793,0.1363,-0.045251,-0.001947,-0.0053878,-0.030442,-0.043889,-0.0058478,-0.019736,-0.010763,-0.020131,0.020037,-0.035142,0.0079391,0.021959,-0.011394,-0.017614,-0.017026,-0.051691
-0.0063851,-0.019965,0.0085684,-0.016724,-0.30602,-0.14816,0.13505,-0.070044,-0.0045249,-0.0088777,-0.036654,-0.043756,-0.0024811,-0.012296,-0.0034138,-0.012478,0.025959,-0.037081,0.0045114,0.022281,-0.017214,-0.014188,-0.024976,-0.052971
-0.0013352,-0.017493,0.0083545,-0.00972,-0.33944,-0.11857,0.13783,-0.091371,-0.0041018,-0.011396,-0.036635,-0.039683,0.001076,-0.0061338,0.0014428,-0.0028061,0.030237,-0.038379,-0.0014101,0.019286,-0.016612,-0.0085686,-0.029439,-0.052927
0.0044484,-0.011953,0.0055134,-0.0078007,-0.36873,-0.095177,0.1377,-0.1111,-0.001034,-0.013042,-0.030614,-0.03364,0.001672,-0.00466,0.0017073,0.005223,0.030318,-0.038769,-0.0065211,0.014814,-0.0095824,-0.0048376,-0.027272,-0.050824
0.0074655,-0.0069941,0.0009694,-0.011595,-0.40005,-0.077014,0.12899,-0.13186,0.0024048,-0.01431,-0.022513,-0.029982,-0.0013631,-0.0086332,-0.0010212,0.0084281,0.025647,-0.037951,-0.0083329,0.010247,-0.00058032,-0.0053224,-0.021051,-0.046323
0.0062681,-0.0049879,-0.0030737,-0.017113,-0.43879,-0.059966,0.10996,-0.1547,0.0030799,-0.015738,-0.016732,-0.03213,-0.0056519,-0.015397,-0.0035183,0.0057572,0.018583,-0.035595,-0.0066907,0.0060365,0.0047854,-0.0088394,-0.016457,-0.039975
0.0027442,-0.0058674,-0.0046137,-0.018724,-0.48568,-0.040033,0.083007,-0.17748,-0.0012558,-0.017538,-0.014896,-0.039378,-0.0077784,-0.020599,-0.0040085,-0.0011999,0.013082,-0.031986,-0.0034814,0.0025041,0.003755,-0.012253,-0.017089,-0.033204
0.00043897,-0.0079681,-0.0035682,-0.013442,-0.53487,-0.015248,0.052847,-0.19547,-0.010277,-0.019614,-0.015173,-0.046848,-0.0060486,-0.02131,-0.003245,-0.008835,0.012078,-0.028563,-0.00085987,0.00058044,-0.0019841,-0.013621,-0.021449,-0.02746
0.0014639,-0.0097904,-0.0020999,-0.0032243,-0.57607,0.014133,0.02397,-0.20376,-0.02063,-0.021915,-0.014444,-0.048987,-0.0016931,-0.018138,-0.0029181,-0.013015,0.015578,-0.027347,0.00042136,0.0013832,-0.0080254,-0.013786,-0.024665,-0.023112
0.0048047,-0.011049,-0.0029329,0.0064528,-0.60007,0.046292,-0.00080939,-0.20005,-0.027504,-0.024683,-0.011288,-0.043885,0.0022956,-0.01459,-0.0034375,-0.011037,0.020961,-0.029299,0.0011911,0.0049772,-0.010559,-0.014978,-0.023113,-0.019072
0.007504,-0.012283,-0.0068678,0.010566,-0.6042,0.078737,-0.020161,-0.18584,-0.027627,-0.02824,-0.0072547,-0.034898,0.0034834,-0.014142,-0.0035164,-0.0032166,0.025155,-0.033016,0.0026017,0.0096906,-0.0086671,-0.01805,-0.01754,-0.013644
0.0075136,-0.013732,-0.011669,0.0080085,-0.59404,0.10928,-0.033138,-0.16558,-0.021694,-0.032464,-0.0054839,-0.02826,0.0015385,-0.017391,-0.0018468,0.0070283,0.026881,-0.035234,0.0047592,0.012918,-0.0042762,-0.02124,-0.011994,-0.0059911
0.0054977,-0.014761,-0.013554,0.0019963,-0.58034,0.13681,-0.038558,-0.14454,-0.014205,-0.036545,-0.0078676,-0.028555,-0.0019585,-0.021613,0.0011,0.015131,0.027221,-0.033109,0.0065027,0.012913,-0.00036978,-0.021703,-0.0098745,0.0029805
0.0039369,-0.014444,-0.010282,-0.0026724,-0.57345,0.16125,-0.035675,-0.12704,-0.010474,-0.039412,-0.013118,-0.035436,-0.0048439,-0.022942,0.0031552,0.018358,0.028167,-0.026499,0.0064017,0.010081,0.00097183,-0.01826,-0.010972,0.011097
0.0045154,-0.012633,-0.0032743,-0.0031934,-0.5786,0.18219,-0.025696,-0.11556,-0.012917,-0.040599,-0.017381,-0.043879,-0.0056026,-0.019309,0.0023554,0.01759,0.030476,-0.018258,0.0039612,0.0066791,-0.00044809,-0.012643,-0.012103,0.016426
0.0064291,-0.010368,0.0032015,-0.00040488,-0.59411,0.1973,-0.012778,-0.11056,-0.019474,-0.040814,-0.017047,-0.047606,-0.0038306,-0.011851,-0.0012776,0.016256,0.03265,-0.012188,9.9867e-006,0.00509,-0.0031765,-0.0080916,-0.01038,0.018655
0.0073239,-0.0091331,0.0053197,0.0025469,-0.61223,0.20216,-0.0033154,-0.11071,-0.025484,-0.0416,-0.01163,-0.043248,-0.00012261,-0.0040091,-0.0057957,0.017129,0.03191,-0.010308,-0.0038941,0.0059609,-0.0051641,-0.006668,-0.0057836,0.019313
0.005938,-0.0096738,0.0028171,0.0031705,-0.62175,0.19253,-0.0034301,-0.11347,-0.027481,-0.04417,-0.0043343,-0.03246,0.0042094,0.00064118,-0.0089972,0.019699,0.026418,-0.011625,-0.0064382,0.0075324,-0.005046,-0.0077843,-0.00078481,0.020692
0.0037577,-0.011486,-0.00071132,0.0017252,-0.61157,0.16772,-0.015896,-0.11629,-0.025813,-0.048291,0.00031902,-0.02066,0.0075702,0.00016521,-0.0099853,0.020575,0.016948,-0.013253,-0.0072081,0.0066723,-0.0030056,-0.0091208,0.0022031,0.024241
0.0038818,-0.013372,-0.00070617,0.00086474,-0.575,0.13221,-0.038384,-0.11794,-0.023941,-0.052182,2.7845e-005,-0.013248,0.0088357,-0.0051849,-0.0092921,0.016645,0.0066159,-0.012804,-0.0067278,0.0010372,-0.00065755,-0.0088603,0.0027938,0.029538
0.0080145,-0.014391,0.0045725,0.0032938,-0.51327,0.093722,-0.064362,-0.1193,-0.025142,-0.053716,-0.0035013,-0.011873,0.00816,-0.013422,-0.0078923,0.0081378,-0.0011798,-0.010073,-0.0059972,-0.0089526,0.00014561,-0.0071261,0.0022856,0.034478
0.01444,-0.01426,0.012453,0.0093821,-0.43626,0.05863,-0.086482,-0.12286,-0.02949,-0.052106,-0.0060922,-0.013399,0.0070772,-0.021668,-0.006429,-0.0012943,-0.0049919,-0.0068464,-0.00583,-0.019694,-0.0011446,-0.0055099,0.001862,0.036551
0.019041,-0.01302,0.017749,0.016547,-0.35893,0.028216,-0.10061,-0.13133,-0.033687,-0.048671,-0.0047357,-0.012463,0.0074232,-0.02712,-0.0053594,-0.0075721,-0.0059787,-0.0052216,-0.0063713,-0.026157,-0.0031257,-0.0054513,0.0015362,0.034411
0.018613,-0.01064,0.016602,0.020789,-0.29469,-0.0014234,-0.10796,-0.14628,-0.033771,-0.045873,-0.00020167,-0.0057878,0.0096729,-0.028064,-0.0054216,-0.0095032,-0.0065346,-0.0059423,-0.0071358,-0.025068,-0.0034384,-0.0071296,0.00085871,0.028749
0.013553,-0.007182,0.0092022,0.019246,-0.2494,-0.035621,-0.11381,-0.16753,-0.028232,-0.045243,0.0036748,0.0050916,0.012118,-0.024649,-0.0074318,-0.0093888,-0.0081268,-0.0080234,-0.0075808,-0.017504,-0.00078083,-0.009732,0.00022424,0.021892
0.0075307,-0.0033506,-0.00064778,0.012034,-0.21974,-0.076518,-0.12347,-0.19325,-0.018887,-0.045991,0.0034087,0.014985,0.011885,-0.018813,-0.011364,-0.010521,-0.01016,-0.0098127,-0.0077266,-0.0087947,0.0037603,-0.012457,0.00092271,0.016404
0.0044758,-0.00059381,-0.0085205,0.0022214,-0.19679,-0.12114,-0.13819,-0.22027,-0.0090319,-0.045707,-0.0010674,0.019224,0.0072564,-0.013151,-0.015774,-0.01409,-0.010715,-0.010462,-0.0081504,-0.0052675,0.007394,-0.01499,0.0036204,0.013622
0.0055275,-0.00031467,-0.012334,-0.0060487,-0.17222,-0.16358,-0.15394,-0.24418,-0.00082586,-0.04273,-0.0064351,0.017368,-0.00057839,-0.0093674,-0.01853,-0.018407,-0.0083966,-0.010515,-0.0092256,-0.0098347,0.0079312,-0.016993,0.0069404,0.013152
0.0084708,-0.002743,-0.013029,-0.010075,-0.14278,-0.19938,-0.16398,-0.26006,0.0056708,-0.038067,-0.0090742,0.013287,-0.0079875,-0.0074765,-0.018497,-0.020998,-0.0036705,-0.011125,-0.010369,-0.019781,0.0057197,-0.017461,0.0079798,0.013571
0.0098519,-0.0065273,-0.012834,-0.010178,-0.11046,-0.22873,-0.1634,-0.26408,0.011264,-0.034814,-0.0083939,0.011606,-0.011437,-0.0063916,-0.016677,-0.021328,0.0013339,-0.012645,-0.010293,-0.028782,0.0033495,-0.015072,0.0046765,0.013606
0.0077324,-0.0095351,-0.013022,-0.0092822,-0.079019,-0.25567,-0.15249,-0.25562,0.01588,-0.035249,-0.0073795,0.013777,-0.010121,-0.0052892,-0.015627,-0.021486,0.0042649,-0.013949,-0.0083668,-0.031862,0.0032146,-0.0095892,-0.0020735,0.012784
0.0028344,-0.010266,-0.013177,-0.010761,-0.050006,-0.28404,-0.13661,-0.23835,0.018348,-0.038166,-0.0098276,0.017275,-0.0064725,-0.0044174,-0.017504,-0.024275,0.0040238,-0.013263,-0.0058542,-0.029347,0.0050872,-0.002974,-0.0086312,0.011223
-0.0024498,-0.0087616,-0.012328,-0.016033,-0.021306,-0.31301,-0.12289,-0.2189,0.017945,-0.039196,-0.016696,0.01848,-0.0040758,-0.004554,-0.022392,-0.030622,0.0012427,-0.0098668,-0.0055623,-0.02641,0.006046,0.0012293,-0.01116,0.0091411
-0.0058982,-0.0063952,-0.010488,-0.023644,0.01103,-0.33583,-0.11635,-0.20355,0.015909,-0.034357,-0.024784,0.01634,-0.0047816,-0.0056989,-0.028343,-0.038729,-0.0023692,-0.0051434,-0.0097417,-0.028427,0.0030554,0.00022059,-0.0083818,0.006807
-0.0065749,-0.0048502,-0.0089417,-0.030483,0.049523,-0.34313,-0.11795,-0.19529,0.015018,-0.023905,-0.028923,0.013316,-0.0074997,-0.0064495,-0.033013,-0.045527,-0.0051293,-0.0018498,-0.017875,-0.036039,-0.004009,-0.0057808,-0.0022749,0.0048812
-0.0047799,-0.0050822,-0.009033,-0.034153,0.093163,-0.32902,-0.12541,-0.19328,0.017312,-0.012902,-0.025876,0.012797,-0.0096356,-0.0049306,-0.035386,-0.048917,-0.0061248,-0.0020471,-0.026415,-0.044228,-0.011682,-0.013343,0.0036616,0.0043823
-0.0015331,-0.0068548,-0.010742,-0.034601,0.13784,-0.2957,-0.13571,-0.19531,0.022072,-0.007518,-0.01677,0.015638,-0.0097131,-0.00061032,-0.036057,-0.048768,-0.0052803,-0.0053745,-0.030982,-0.04631,-0.015371,-0.018109,0.0069361,0.0058423
0.0017065,-0.0089495,-0.012529,-0.033803,0.1786,-0.25309,-0.14718,-0.20098,0.026087,-0.0099707,-0.0061959,0.019247,-0.0086813,0.0047022,-0.035984,-0.046157,-0.0030413,-0.0091876,-0.029356,-0.039467,-0.012918,-0.017823,0.0073205,0.0083423
0.0032103,-0.0098448,-0.012626,-0.033921,0.21207,-0.21324,-0.15987,-0.21269,0.026176,-0.016462,0.0011035,0.020056,-0.0087095,0.0078311,-0.03505,-0.042017,-0.00015385,-0.010562,-0.022861,-0.027115,-0.0061677,-0.01369,0.0061763,0.0096886
0.0016097,-0.0085599,-0.010587,-0.035608,0.23757,-0.18317,-0.17441,-0.23326,0.02177,-0.020072,0.0032796,0.016879,-0.010698,0.0065894,-0.031968,-0.036695,0.002337,-0.0085892,-0.015138,-0.016235,0.00075147,-0.0090519,0.0048929,0.0080688
-0.0030314,-0.0052784,-0.007723,-0.037796,0.25698,-0.16124,-0.19049,-0.26194,0.015347,-0.016307,0.0019063,0.011828,-0.012999,0.0015679,-0.025712,-0.030718,0.0032141,-0.0051173,-0.0095354,-0.0121,0.0048049,-0.0066465,0.0039536,0.003874
-0.0086543,-0.0013441,-0.0061093,-0.038939,0.27376,-0.13989,-0.20585,-0.29228,0.010435,-0.0066798,-4.2733e-005,0.0079465,-0.012702,-0.0042375,-0.017112,-0.025659,0.0016762,-0.0033241,-0.0072804,-0.014836,0.0060607,-0.0067623,0.0031897,-0.00021621
-0.012129,0.0015055,-0.0070745,-0.038416,0.29158,-0.11256,-0.21667,-0.31418,0.0090073,0.0026273,-0.00082507,0.006032,-0.0084164,-0.007706,-0.0089029,-0.023793,-0.0018774,-0.0052488,-0.007628,-0.020282,0.0067365,-0.0076482,0.0025301,-0.0013836
-0.011405,0.0022461,-0.010335,-0.036922,0.31274,-0.079518,-0.219,-0.31942,0.01042,0.005762,-0.00097881,0.0039084,-0.0019449,-0.0078298,-0.0038835,-0.026406,-0.0056825,-0.010219,-0.0093117,-0.023841,0.0084842,-0.0075099,0.0022367,0.00066433
-0.0072437,0.001203,-0.01428,-0.035686,0.3367,-0.047555,-0.21085,-0.3066,0.01248,0.0016261,-0.0021472,-0.0010987,0.0028389,-0.0060072,-0.0026392,-0.032108,-0.007607,-0.015373,-0.011706,-0.023771,0.010604,-0.0061693,0.0023911,0.003024
-0.0028908,-0.00033793,-0.017027,-0.035411,0.35951,-0.023946,-0.19378,-0.28199,0.013407,-0.0057453,-0.0049899,-0.0089776,0.0031002,-0.0043033,-0.0029364,-0.036886,-0.0067562,-0.017798,-0.01477,-0.021526,0.010786,-0.0049927,0.0023404,0.0018055
-0.0016851,-0.0012914,-0.017504,-0.035877,0.37494,-0.0093836,-0.17284,-0.25503,0.012915,-0.010746,-0.0082164,-0.016393,-0.00051568,-0.0034756,-0.0015865,-0.036454,-0.004285,-0.016521,-0.018215,-0.019662,0.0074944,-0.005378,0.00093446,-0.0045243
-0.0044791,-0.0017539,-0.01598,-0.0364,0.37718,0.0040036,-0.1544,-0.23199,0.011744,-0.010464,-0.0096921,-0.019363,-0.0042757,-0.0027003,0.0026325,-0.029491,-0.0024859,-0.012817,-0.021005,-0.019673,0.0016626,-0.0073527,-0.0024299,-0.013565
-0.0090528,-0.0029243,-0.013834,-0.036577,0.36362,0.027541,-0.14296,-0.21227,0.01042,-0.0062941,-0.0086277,-0.016751,-0.0043091,-0.0011409,0.0075641,-0.01919,-0.0028082,-0.0087881,-0.02183,-0.02152,-0.0038489,-0.0095936,-0.0068608,-0.020603
-0.01199,-0.0059216,-0.012718,-0.036623,0.33623,0.067579,-0.1389,-0.19009,0.0085675,-0.0021498,-0.0067854,-0.011318,0.00036848,0.00044721,0.0092473,-0.011508,-0.0046249,-0.0056605,-0.02012,-0.024575,-0.0064578,-0.010743,-0.01013,-0.022128
-0.01133,-0.010427,-0.013529,-0.037061,0.30068,0.1204,-0.13892,-0.15998,0.0054022,-0.0012575,-0.0074155,-0.0073842,0.0072534,-1.5673e-005,0.0053821,-0.011025,-0.0059663,-0.0033589,-0.016688,-0.028474,-0.0057781,-0.010668,-0.010081,-0.01838
-0.0077246,-0.014363,-0.015776,-0.03811,0.2637,0.17457,-0.13878,-0.12122,0.00087504,-0.0041487,-0.012643,-0.0073458,0.012513,-0.0038321,-0.0022656,-0.017595,-0.0055182,-0.0015497,-0.013391,-0.032947,-0.003727,-0.010416,-0.0063165,-0.012997
-0.0033789,-0.015136,-0.017806,-0.039303,0.23048,0.21888,-0.13621,-0.077944,-0.0036555,-0.0089156,-0.021496,-0.010151,0.013911,-0.0096947,-0.0088311,-0.026711,-0.003884,-0.00081377,-0.012031,-0.037124,-0.0029286,-0.010989,-0.00079965,-0.010192
-0.00014101,-0.01169,-0.017847,-0.039666,0.20327,0.24961,-0.13188,-0.035299,-0.0059391,-0.012875,-0.03035,-0.012841,0.012049,-0.01421,-0.010189,-0.033529,-0.0028473,-0.0024851,-0.013257,-0.039515,-0.0048184,-0.012255,0.0032933,-0.011726
0.0013436,-0.0057607,-0.015219,-0.038329,0.18183,0.27157,-0.12785,0.0045515,-0.00429,-0.01413,-0.035565,-0.013421,0.0092046,-0.014622,-0.0065291,-0.037208,-0.0034547,-0.0071504,-0.016173,-0.039071,-0.0088395,-0.013186,0.0037768,-0.015862
0.00096609,-0.0010932,-0.010856,-0.035147,0.16485,0.29266,-0.12529,0.043023,0.0010472,-0.012234,-0.036164,-0.012424,0.0071729,-0.011294,-0.0024781,-0.041553,-0.0049674,-0.013367,-0.0189,-0.036395,-0.013079,-0.013172,0.0011157,-0.018842
-0.0016689,-0.00087618,-0.006732,-0.030878,0.15136,0.31718,-0.12358,0.082332,0.0076762,-0.0081178,-0.034349,-0.012055,0.0061313,-0.0075028,-0.0033828,-0.051029,-0.0057837,-0.018143,-0.019735,-0.03378,-0.01563,-0.012907,-0.0018198,-0.017692
-0.0067755,-0.0052782,-0.0046137,-0.026799,0.1411,0.34346,-0.12127,0.1225,0.012263,-0.0036708,-0.033406,-0.014102,0.0052638,-0.0066001,-0.010727,-0.065453,-0.0052944,-0.019026,-0.01821,-0.033705,-0.015668,-0.013739,-0.0018905,-0.012351
-0.012958,-0.011158,-0.0050374,-0.023962,0.13407,0.36764,-0.11762,0.16119,0.01245,-0.0010558,-0.034831,-0.018602,0.0041032,-0.0091238,-0.020597,-0.078257,-0.0046092,-0.015941,-0.015378,-0.036923,-0.013681,-0.016046,0.0018061,-0.0057084
-0.016777,-0.014415,-0.0072084,-0.022552,0.1301,0.38937,-0.11298,0.19618,0.008212,-0.0017333,-0.037128,-0.024117,0.0030777,-0.012543,-0.026647,-0.080414,-0.0053004,-0.011044,-0.013092,-0.041775,-0.010976,-0.018414,0.0070357,-0.0015276
-0.014699,-0.013181,-0.0097523,-0.021677,0.12929,0.41389,-0.10786,0.22781,0.0017663,-0.0055792,-0.037262,-0.028881,0.0028307,-0.013824,-0.02518,-0.067188,-0.0074924,-0.0067526,-0.012721,-0.04539,-0.0089023,-0.018746,0.0099883,-0.0017029
-0.0063042,-0.0092057,-0.011634,-0.019751,0.13279,0.44833,-0.10194,0.25856,-0.0038107,-0.010834,-0.033396,-0.031598,0.003272,-0.01234,-0.018105,-0.042217,-0.0094216,-0.0039177,-0.014206,-0.0458,-0.0082403,-0.016378,0.0082071,-0.0048345
0.0042482,-0.0062169,-0.012572,-0.015337,0.143,0.49532,-0.094312,0.29036,-0.0062386,-0.015214,-0.026413,-0.031544,0.0035351,-0.010393,-0.011322,-0.01551,-0.0091083,-0.0018759,-0.016193,-0.043219,-0.008927,-0.013052,0.0025738,-0.0072522
0.010477,-0.0066914,-0.012831,-0.0081097,0.16207,0.54953,-0.084669,0.3223,-0.0049264,-0.017488,-0.018938,-0.028516,0.0029197,-0.010956,-0.0099659,0.0031517,-0.0065201,-0.00011919,-0.017181,-0.039535,-0.010169,-0.011593,-0.0033168,-0.005802
0.0082424,-0.0099025,-0.012774,0.00060557,0.18926,0.60036,-0.074241,0.35105,-0.00081076,-0.018216,-0.012916,-0.02313,0.0017423,-0.01487,-0.014514,0.010252,-0.0039558,0.00044735,-0.016728,-0.036612,-0.010853,-0.013447,-0.0059291,-0.00025028
-0.00097926,-0.012916,-0.012613,0.0082248,0.21924,0.63835,-0.065342,0.37341,0.0043785,-0.018964,-0.0081376,-0.017075,0.0010733,-0.02011,-0.020822,0.0096505,-0.0040893,-0.0017474,-0.015687,-0.034941,-0.010061,-0.017467,-0.0044031,0.006638
-0.011092,-0.013477,-0.012395,0.012292,0.24297,0.66048,-0.059908,0.38841,0.0088101,-0.02069,-0.0031019,-0.012586,0.0015617,-0.023656,-0.023728,0.008506,-0.0074989,-0.0068277,-0.015248,-0.033703,-0.00744,-0.021095,-0.00082923,0.011401
-0.015876,-0.011988,-0.012026,0.012145,0.25145,0.67038,-0.058341,0.39704,0.011017,-0.022869,0.0027423,-0.011074,0.0026062,-0.024069,-0.021007,0.011677,-0.012124,-0.012337,-0.015734,-0.031915,-0.0032545,-0.022686,0.0019266,0.012578
-0.013238,-0.010765,-0.011227,0.0096413,0.24015,0.67425,-0.059444,0.40049,0.010321,-0.024241,0.0077473,-0.011978,0.0028467,-0.022414,-0.014603,0.018834,-0.015251,-0.014686,-0.016323,-0.029496,0.0017827,-0.022629,0.0027756,0.01149
-0.0059283,-0.011421,-0.0095901,0.0080919,0.21148,0.67626,-0.06113,0.39911,0.0072373,-0.024399,0.0092299,-0.013061,0.0015637,-0.020926,-0.0086784,0.025806,-0.016111,-0.012185,-0.016011,-0.027305,0.0066946,-0.022315,0.0029903,0.010578
0.0013219,-0.013099,-0.0069399,0.0099166,0.17373,0.67697,-0.061057,0.39339,0.003484,-0.024527,0.0060785,-0.012163,-0.00045602,-0.020946,-0.0065252,0.028315,-0.016524,-0.0068396,-0.014843,-0.026315,0.010353,-0.02227,0.004397,0.01099
0.0053372,-0.013384,-0.0038069,0.014722,0.13733,0.67505,-0.05701,0.38549,0.0012242,-0.026345,0.00032654,-0.0089425,-0.0015677,-0.022102,-0.008754,0.024927,-0.01887,-0.0029698,-0.014086,-0.026789,0.011705,-0.021548,0.007042,0.011702
0.0059005,-0.010994,-0.0014973,0.019499,0.11045,0.66989,-0.047577,0.37915,0.0017982,-0.030147,-0.0039338,-0.0050035,-0.00087108,-0.023226,-0.013545,0.017343,-0.023339,-0.0036734,-0.015038,-0.028198,0.010265,-0.018966,0.0086789,0.010828
0.0046477,-0.0075015,-0.0013877,0.021009,0.096393,0.66245,-0.033352,0.37734,0.0048515,-0.033886,-0.0035218,-0.0022268,0.00082559,-0.023722,-0.018069,0.0085472,-0.027172,-0.0082499,-0.017578,-0.029777,0.0066541,-0.014725,0.0066476,0.0075711
0.0032713,-0.0061978,-0.0037855,0.018529,0.093552,0.65419,-0.017789,0.37965,0.0086388,-0.034386,0.0014682,-0.00089888,0.0017083,-0.023858,-0.019864,0.00073392,-0.026803,-0.012916,-0.019918,-0.031056,0.0025963,-0.010628,0.00039146,0.0027993
0.0027537,-0.0090277,-0.0073113,0.014595,0.097542,0.64574,-0.0063177,0.38217,0.011323,-0.029793,0.0078731,0.00053044,0.00070826,-0.023834,-0.017721,-0.0054879,-0.021096,-0.014142,-0.019935,-0.031828,4.0411e-005,-0.0086833,-0.0077754,-0.0022427
0.0036453,-0.014515,-0.0095851,0.012949,0.10376,0.6369,-0.0034776,0.38033,0.012188,-0.021168,0.011991,0.003794,-0.0013969,-0.022944,-0.012178,-0.010512,-0.012753,-0.011595,-0.016971,-0.031728,-0.00013976,-0.0096246,-0.014406,-0.0075123
0.0062346,-0.018785,-0.0089555,0.015315,0.10895,0.62811,-0.0097617,0.37256,0.01178,-0.011891,0.012313,0.0088796,-0.0026513,-0.02008,-0.0054891,-0.014759,-0.0065873,-0.0081592,-0.012496,-0.030047,0.0011665,-0.012741,-0.017581,-0.014206
0.010026,-0.018916,-0.0059586,0.019732,0.11129,0.6215,-0.020693,0.36154,0.011053,-0.0054814,0.010336,0.013787,-0.0017788,-0.015252,-0.00065771,-0.018244,-0.0060261,-0.0072399,-0.0090498,-0.026222,0.0019479,-0.016869,-0.018086,-0.02311
0.013286,-0.01559,-0.0031654,0.021948,0.10983,0.62012,-0.029257,0.35218,0.010503,-0.0036566,0.009083,0.016308,0.00051675,-0.01046,0.00038044,-0.020806,-0.010677,-0.0099145,-0.0083261,-0.020632,0.00065159,-0.021136,-0.018127,-0.032997
0.013733,-0.012605,-0.0033239,0.018816,0.1044,0.62532,-0.030201,0.34805,0.010132,-0.005958,0.010752,0.016171,0.0020696,-0.0086129,-0.0017521,-0.022465,-0.016792,-0.014363,-0.0099363,-0.014838,-0.0025823,-0.024661,-0.018958,-0.040909
0.010266,-0.013558,-0.0072201,0.010895,0.096307,0.63426,-0.023148,0.34959,0.010045,-0.010716,0.015351,0.015429,0.0011728,-0.011149,-0.0041897,-0.023424,-0.020072,-0.017751,-0.011756,-0.010723,-0.0061014,-0.025934,-0.019763,-0.044323
0.004207,-0.018614,-0.013046,0.0021298,0.088736,0.63981,-0.012371,0.35497,0.010732,-0.016177,0.021101,0.01662,-0.001815,-0.01651,-0.004166,-0.023752,-0.018564,-0.018596,-0.011526,-0.0090089,-0.0081782,-0.023267,-0.01888,-0.043318
-0.0013555,-0.024171,-0.017814,-0.003123,0.085823,0.63367,-0.003643,0.36243,0.012553,-0.020966,0.025888,0.020341,-0.0046253,-0.021072,-0.0016377,-0.023195,-0.013617,-0.017531,-0.008516,-0.0084316,-0.0084158,-0.016446,-0.016111,-0.040728
-0.0038687,-0.025819,-0.019575,-0.0033349,0.090193,0.61124,-0.0007159,0.37115,0.015005,-0.024,0.028492,0.024522,-0.0048914,-0.021931,0.00024386,-0.021397,-0.008535,-0.016123,-0.0041005,-0.0065168,-0.0078692,-0.0079544,-0.013722,-0.040048
-0.0033257,-0.022138,-0.018535,-0.0007893,0.10079,0.57523,-0.0038921,0.37993,0.016765,-0.024492,0.028852,0.026128,-0.0020805,-0.019109,-0.0023723,-0.018385,-0.0061715,-0.015188,-0.00085109,-0.00159,-0.007831,-0.002006,-0.014932,-0.042808
-0.0021422,-0.016168,-0.0163,0.00035757,0.11314,0.53502,-0.011177,0.38538,0.016739,-0.022232,0.027585,0.023742,0.0020632,-0.015262,-0.010453,-0.014915,-0.0071562,-0.014296,-0.00075053,0.0055839,-0.0084851,-0.0015795,-0.021084,-0.047547
-0.0029154,-0.013245,-0.014203,-0.0026308,0.12236,0.50174,-0.02042,0.38199,0.015083,-0.017848,0.025419,0.018669,0.0048902,-0.013238,-0.020538,-0.012337,-0.0097614,-0.012763,-0.0037526,0.012073,-0.0087429,-0.0058664,-0.030029,-0.051141
-0.0060114,-0.016825,-0.0124,-0.0089269,0.12697,0.48179,-0.03046,0.36481,0.013033,-0.012623,0.022938,0.013547,0.004859,-0.013825,-0.026813,-0.011989,-0.011262,-0.01095,-0.0077486,0.015001,-0.0074263,-0.010637,-0.037253,-0.051319
-0.0091068,-0.02552,-0.010446,-0.014701,0.13044,0.47311,-0.04071,0.33272,0.011562,-0.0079347,0.020542,0.009856,0.0025586,-0.015655,-0.025295,-0.014396,-0.0098193,-0.010393,-0.010043,0.013993,-0.0046229,-0.011571,-0.038915,-0.048334
-0.0090789,-0.033726,-0.0084682,-0.015945,0.13896,0.46713,-0.050366,0.28914,0.010246,-0.0046745,0.018418,0.0066904,6.0176e-006,-0.017047,-0.016783,-0.018745,-0.0057152,-0.012516,-0.0092889,0.011716,-0.0018277,-0.0078058,-0.034374,-0.044577
-0.0045986,-0.035464,-0.0075146,-0.011518,0.15718,0.45521,-0.058636,0.23961,0.0076633,-0.0029769,0.016474,0.0019841,-0.0010718,-0.017719,-0.0062875,-0.023073,-0.0011917,-0.017073,-0.0063852,0.011836,-0.00063626,-0.0025901,-0.026349,-0.042579
0.002725,-0.02863,-0.0086417,-0.0042113,0.18506,0.4351,-0.066014,0.18807,0.0030809,-0.0022558,0.014342,-0.005024,-0.00049164,-0.018651,0.00042855,-0.025306,0.0010172,-0.021884,-0.0035955,0.015944,-0.0012095,-0.00039974,-0.018885,-0.043053
0.0094518,-0.016467,-0.01171,0.00091537,0.21828,0.41272,-0.075062,0.13515,-0.0022951,-0.001443,0.011525,-0.012506,0.000567,-0.02042,0.00046949,-0.024677,-0.00047958,-0.024345,-0.0026046,0.022035,-0.0020463,-0.0030941,-0.014856,-0.04453
0.012584,-0.0052013,-0.015201,-0.00023832,0.25216,0.398,-0.089282,0.079907,-0.0059798,0.00060612,0.0076431,-0.017308,0.00084967,-0.021981,-0.0049058,-0.022547,-0.004783,-0.023522,-0.0031755,0.025974,-0.0014127,-0.008508,-0.014732,-0.044758
0.011186,0.00032581,-0.017335,-0.0083572,0.28663,0.39816,-0.11052,0.02307,-0.0063869,0.0045527,0.0027026,-0.017744,0.0001758,-0.021396,-0.011711,-0.021716,-0.0093551,-0.020977,-0.0036071,0.024855,0.00085033,-0.01263,-0.01708,-0.042668
0.0063852,-0.00032252,-0.017466,-0.020699,0.32882,0.41334,-0.13712,-0.031234,-0.0044841,0.010059,-0.0026924,-0.015425,-0.00055548,-0.017903,-0.015909,-0.024338,-0.011831,-0.019443,-0.0025972,0.019494,0.0028945,-0.01324,-0.020008,-0.039271
0.00026795,-0.0037196,-0.016472,-0.033297,0.39043,0.43725,-0.16476,-0.077091,-0.0032055,0.015704,-0.0073105,-0.01437,-0.00038448,-0.01323,-0.015539,-0.029811,-0.011646,-0.020378,-0.00077014,0.013925,0.0023559,-0.011634,-0.022449,-0.036839
-0.005193,-0.00596,-0.015885,-0.043484,0.47956,0.461,-0.18955,-0.11032,-0.0049757,0.019598,-0.0096612,-0.017939,0.00070595,-0.010595,-0.011382,-0.034481,-0.01024,-0.022578,-0.0003217,0.012239,-0.0014853,-0.010939,-0.024568,-0.037136
-0.0085336,-0.0058988,-0.016653,-0.050806,0.59071,0.47636,-0.21089,-0.13086,-0.0095492,0.020502,-0.0088027,-0.026042,0.0017339,-0.012083,-0.0062393,-0.033876,-0.0097048,-0.023176,-0.002937,0.015386,-0.0068226,-0.012719,-0.027241,-0.040209
-0.0088181,-0.0055443,-0.01861,-0.056019,0.69992,0.47647,-0.23151,-0.14196,-0.014171,0.018785,-0.0051935,-0.034907,0.0015802,-0.016686,-0.0033617,-0.026121,-0.011005,-0.020231,-0.0078607,0.020496,-0.010546,-0.015137,-0.03098,-0.044599
-0.0058581,-0.0075194,-0.020914,-0.05954,0.77186,0.4556,-0.25466,-0.14679,-0.01598,0.016497,-0.0008742,-0.039719,-9.2508e-005,-0.02084,-0.0047057,-0.013878,-0.013197,-0.014551,-0.012058,0.023155,-0.010517,-0.014447,-0.035034,-0.04855
-0.00065508,-0.01212,-0.022754,-0.060983,0.77829,0.41057,-0.28082,-0.14519,-0.014511,0.016296,0.00147,-0.038152,-0.0026641,-0.021102,-0.009802,-0.0029449,-0.014248,-0.0090477,-0.012567,0.020675,-0.0069754,-0.0085481,-0.037438,-0.051017
0.0045611,-0.016756,-0.023629,-0.060025,0.71778,0.34439,-0.30649,-0.1332,-0.012068,0.019764,0.00016873,-0.032108,-0.0051354,-0.01675,-0.01596,0.0016944,-0.012724,-0.0061944,-0.0090398,0.013776,-0.0020274,0.00057895,-0.036278,-0.051726
0.0072368,-0.018273,-0.023174,-0.057291,0.6211,0.26857,-0.32608,-0.10584,-0.011625,0.026159,-0.0042137,-0.026371,-0.0067996,-0.010223,-0.019867,-0.00060389,-0.0089269,-0.0059613,-0.00412,0.0056889,0.0020763,0.0078056,-0.031463,-0.050596
0.0060294,-0.015905,-0.021069,-0.053946,0.53468,0.2,-0.33507,-0.0616,-0.014154,0.032541,-0.0091634,-0.025223,-0.007408,-0.0051986,-0.019635,-0.0058981,-0.0045855,-0.0061643,-0.0011938,-0.00023284,0.0042939,0.0085434,-0.025477,-0.047396
0.0018649,-0.012053,-0.017371,-0.050199,0.49073,0.15244,-0.33228,-0.0057046,-0.017778,0.03539,-0.011981,-0.029616,-0.0068598,-0.0040241,-0.015846,-0.008869,-0.0014137,-0.0048818,-0.0015098,-0.0023704,0.0048218,0.0022702,-0.022074,-0.042041
-0.0024771,-0.010135,-0.012897,-0.044433,0.48569,0.12793,-0.32013,0.050248,-0.019514,0.03276,-0.011741,-0.036881,-0.0049265,-0.0064488,-0.010835,-0.006794,0.00018104,-0.0026424,-0.0032921,-0.0010825,0.0042375,-0.0069163,-0.023518,-0.035139
-0.0041748,-0.011512,-0.0090293,-0.034374,0.48456,0.11518,-0.30316,0.092915,-0.018045,0.025502,-0.0098844,-0.042968,-0.0014061,-0.010332,-0.0068715,-0.0010638,0.0011432,-0.0023022,-0.0036627,0.0022366,0.0028873,-0.013172,-0.028513,-0.028041
-0.0023215,-0.014394,-0.0068452,-0.019664,0.44937,0.097452,-0.28569,0.11411,-0.014998,0.016623,-0.0089294,-0.045305,0.0034229,-0.013403,-0.0047751,0.0047127,0.0025681,-0.00666,-0.0015562,0.0061115,0.0011022,-0.013021,-0.032844,-0.02222
0.0014752,-0.015753,-0.0063229,-0.0034189,0.36982,0.0647,-0.2695,0.11592,-0.013521,0.0091372,-0.010429,-0.044207,0.0085454,-0.014626,-0.0040115,0.0080018,0.0043713,-0.015883,0.0011305,0.0093091,-0.0002586,-0.0076325,-0.032567,-0.018462
0.0043617,-0.0144,-0.0064754,0.0091264,0.27175,0.020731,-0.25236,0.11002,-0.015444,0.0039804,-0.013961,-0.042126,0.012506,-0.014382,-0.0038404,0.0090669,0.005097,-0.026915,0.0012616,0.01083,0.00014017,-0.0016822,-0.027243,-0.016469
0.0044025,-0.012252,-0.0064286,0.01419,0.19706,-0.020404,-0.22858,0.1105,-0.019684,-0.00039195,-0.018043,-0.041659,0.014117,-0.013689,-0.0041639,0.0099036,0.0031536,-0.035293,-0.0025303,0.010136,0.0031838,0.00017266,-0.020407,-0.015061
0.0019302,-0.012451,-0.0064377,0.012247,0.17253,-0.046107,-0.19223,0.12418,-0.023472,-0.0063075,-0.022039,-0.043858,0.013076,-0.013248,-0.0052039,0.011809,-0.0015326,-0.037856,-0.0083494,0.0076011,0.0082691,-0.0035389,-0.016664,-0.012696
-0.00095625,-0.01602,-0.0077234,0.0075061,0.19327,-0.055534,-0.14183,0.14522,-0.025305,-0.014349,-0.027133,-0.047766,0.010044,-0.012988,-0.006559,0.01401,-0.0069368,-0.034372,-0.012466,0.0045329,0.013246,-0.01055,-0.017819,-0.0080676
-0.0022184,-0.020289,-0.011057,0.0044622,0.23284,-0.06012,-0.08335,0.15868,-0.026757,-0.022095,-0.035204,-0.051205,0.0061855,-0.012295,-0.0070025,0.014438,-0.010109,-0.027211,-0.012395,0.0023513,0.015663,-0.016982,-0.02138,-0.00068843
-0.0014073,-0.020856,-0.01531,0.0046313,0.2686,-0.074092,-0.028444,0.15105,-0.031118,-0.025412,-0.046484,-0.05218,0.0025854,-0.010666,-0.0056382,0.011602,-0.0093084,-0.019688,-0.00888,0.0014001,0.014443,-0.020181,-0.022758,0.0086381
0.00037215,-0.0156,-0.017464,0.0063208,0.2984,-0.10317,0.011568,0.12022,-0.039844,-0.021594,-0.058242,-0.050113,-3.0224e-005,-0.0082844,-0.0033927,0.0057125,-0.0054154,-0.01436,-0.0050532,0.00049701,0.010621,-0.020021,-0.019254,0.017827
0.0018362,-0.0071464,-0.014494,0.0073077,0.33452,-0.14091,0.031873,0.077183,-0.050087,-0.011988,-0.066146,-0.046183,-0.0012112,-0.0060378,-0.0030455,-0.0017636,-0.0014185,-0.012158,-0.0036152,-0.0021736,0.006498,-0.018053,-0.012391,0.024324
0.0027716,-0.001281,-0.0058882,0.0074891,0.38272,-0.17531,0.035712,0.038388,-0.055994,-0.001793,-0.067571,-0.042417,-0.00066243,-0.0049094,-0.0071469,-0.009354,-0.00029703,-0.012477,-0.0045926,-0.0074526,0.0039377,-0.015738,-0.0066409,0.026478
0.0039194,-0.0023645,0.0051952,0.0087791,0.42821,-0.19915,0.030355,0.014963,-0.053152,0.003214,-0.064096,-0.03999,0.0015891,-0.0051593,-0.015353,-0.016349,-0.0029133,-0.013818,-0.0056262,-0.014263,0.0032154,-0.013487,-0.0057636,0.024611
0.0057225,-0.009599,0.013313,0.012499,0.44382,-0.21464,0.021491,0.0077583,-0.042485,0.00084404,-0.060698,-0.038011,0.0048421,-0.0059935,-0.023762,-0.022607,-0.0075256,-0.014591,-0.0044093,-0.020194,0.0033205,-0.0111,-0.0099016,0.020893
0.0074018,-0.01752,0.013967,0.01718,0.41412,-0.22857,0.011101,0.01158,-0.029932,-0.0056365,-0.061801,-0.034072,0.007678,-0.0061172,-0.0274,-0.027942,-0.011221,-0.013765,-0.00097788,-0.02315,0.0032527,-0.0086948,-0.01573,0.018014
0.0075161,-0.020492,0.0064826,0.019309,0.35351,-0.24323,1.1096e-005,0.023768,-0.021678,-0.0095716,-0.067298,-0.026482,0.0085757,-0.0048444,-0.024168,-0.031884,-0.012051,-0.011188,0.0022701,-0.02272,0.0030149,-0.006923,-0.019232,0.01757
0.0055523,-0.017417,-0.0055248,0.016464,0.30008,-0.25213,-0.0086893,0.048336,-0.018682,-0.0055804,-0.072088,-0.016396,0.0068815,-0.0028486,-0.016881,-0.034017,-0.010183,-0.0074938,0.0028644,-0.02027,0.0034017,-0.0062999,-0.018605,0.019328
0.0028392,-0.012573,-0.016465,0.0096832,0.28808,-0.24517,-0.0099701,0.091251,-0.015195,0.0065821,-0.069887,-0.0076825,0.0033157,-0.0017952,-0.011384,-0.034454,-0.007334,-0.0037254,0.00078457,-0.017885,0.0049066,-0.0065583,-0.015066,0.021753
0.0015883,-0.011775,-0.022202,0.0025578,0.32083,-0.21866,-0.001166,0.15118,-0.0028732,0.021824,-0.058254,-0.0040993,-0.00054912,-0.0029888,-0.012082,-0.033941,-0.0051852,-0.00089721,-0.0011292,-0.017052,0.0069237,-0.0068859,-0.011314,0.023182
0.0027625,-0.017185,-0.022201,-0.002168,0.36621,-0.18096,0.014416,0.21505,0.02255,0.033251,-0.040526,-0.0059875,-0.0034707,-0.0061013,-0.018565,-0.033457,-0.0042175,0.00037001,0.00059828,-0.017911,0.0080907,-0.0068194,-0.0092881,0.022667
0.0048584,-0.025257,-0.019048,-0.0050798,0.37875,-0.14825,0.029228,0.2641,0.057274,0.036718,-0.022962,-0.0095159,-0.0053004,-0.0091474,-0.026155,-0.033577,-0.0038165,0.00012074,0.0070204,-0.019275,0.0074655,-0.0067482,-0.009032,0.020063
0.0050349,-0.029586,-0.016047,-0.0090664,0.33082,-0.13406,0.03781,0.28628,0.091232,0.033082,-0.0097462,-0.009538,-0.0065853,-0.0099134,-0.0298,-0.03406,-0.0032514,-0.00081961,0.015489,-0.019249,0.0053905,-0.0073994,-0.009263,0.015692
0.0017872,-0.026186,-0.014896,-0.015769,0.2295,-0.14128,0.041789,0.28444,0.11423,0.026791,-0.00041511,-0.0038272,-0.0074461,-0.0077519,-0.02788,-0.034011,-0.0024208,-0.0011084,0.021334,-0.016193,0.0031961,-0.0088722,-0.0087966,0.010185
-0.0032958,-0.016668,-0.015158,-0.023205,0.10839,-0.16325,0.0483,0.27273,0.12184,0.022248,0.0081234,0.005023,-0.0070196,-0.0041983,-0.022805,-0.032653,-0.0016808,0.00033271,0.021228,-0.0097835,0.0020273,-0.01037,-0.0075494,0.0046251
-0.0065387,-0.0067497,-0.015584,-0.027246,0.0033151,-0.19188,0.063011,0.26368,0.11705,0.020902,0.017356,0.011835,-0.0042642,-0.0017761,-0.018281,-0.030225,-0.0011047,0.003378,0.015599,-0.0016198,0.0019384,-0.011031,-0.0064315,0.00055568
-0.0053176,-0.0015941,-0.015883,-0.025707,-0.068758,-0.22535,0.084619,0.25727,0.10734,0.021105,0.025228,0.013335,0.00054486,-0.001925,-0.016051,-0.028175,-0.00011719,0.0064303,0.0082075,0.0052484,0.0021245,-0.010978,-0.0063842,-0.00062549
-0.00062226,-0.0020485,-0.017271,-0.020982,-0.11405,-0.26862,0.10668,0.24181,0.09988,0.020482,0.028587,0.01093,0.0052546,-0.0038215,-0.015033,-0.028201,0.0019853,0.0074043,0.0033564,0.0079567,0.0020155,-0.011327,-0.0074015,0.0012908
0.0033609,-0.0047959,-0.021352,-0.01836,-0.15046,-0.32721,0.12533,0.20602,0.098095,0.018669,0.027414,0.0093454,0.00711,-0.0051396,-0.013266,-0.030659,0.0050999,0.0054746,0.0029601,0.0057075,0.0020671,-0.012997,-0.0082919,0.0047085
0.0025215,-0.0058438,-0.028354,-0.021394,-0.19221,-0.40016,0.14518,0.15176,0.10104,0.018251,0.026102,0.012397,0.0049398,-0.0041059,-0.010416,-0.033736,0.0079669,0.0021386,0.0056912,0.00046039,0.0033513,-0.015531,-0.0073798,0.0068542
-0.003708,-0.003998,-0.036338,-0.028736,-0.24237,-0.47819,0.17671,0.095913,0.10493,0.023255,0.029818,0.019669,0.00021933,-0.0010606,-0.0083404,-0.034505,0.0089369,0.00039451,0.0085946,-0.004294,0.0062585,-0.017301,-0.0036847,0.0055353
-0.011644,-0.0013469,-0.042149,-0.035511,-0.29629,-0.54801,0.22668,0.059551,0.10544,0.036439,0.039071,0.026946,-0.0041351,0.0018286,-0.0092805,-0.031375,0.0073414,0.0023982,0.009624,-0.0058528,0.0095917,-0.0171,0.0022456,0.00082056
-0.016092,-0.00074076,-0.043425,-0.037891,-0.35004,-0.59871,0.29005,0.053415,0.099648,0.057372,0.047919,0.029819,-0.0062507,0.0024257,-0.013584,-0.025897,0.0043048,0.0075021,0.009028,-0.0038782,0.011087,-0.015546,0.0084754,-0.0047745
-0.014346,-0.0029291,-0.040109,-0.03642,-0.40539,-0.62573,0.35133,0.071724,0.087331,0.082537,0.048136,0.027182,-0.0067752,0.00044083,-0.019196,-0.022052,0.0022041,0.012518,0.008671,1.267e-005,0.0091101,-0.014742,0.012759,-0.0079647
-0.0082353,-0.0060286,-0.034292,-0.034992,-0.46765,-0.63068,0.39493,0.098658,0.071228,0.10717,0.035984,0.021705,-0.0079443,-0.0023282,-0.023367,-0.023191,0.0030685,0.014189,0.010104,0.0041122,0.0041328,-0.016269,0.013821,-0.0070722
-0.0026455,-0.0075515,-0.028644,-0.036733,-0.53899,-0.61896,0.41583,0.12097,0.055898,0.12742,0.015428,0.017204,-0.01113,-0.0034757,-0.024904,-0.029073,0.0071025,0.0118,0.013051,0.0080665,-0.0013019,-0.019362,0.011938,-0.0032752
-0.0018222,-0.0068032,-0.024775,-0.040989,-0.61398,-0.5976,0.42149,0.13568,0.045403,0.14134,-0.0053082,0.015534,-0.015247,-0.0019178,-0.024891,-0.035708,0.012465,0.0076205,0.015439,0.01248,-0.0042097,-0.021186,0.00844,0.00023681
-0.0064095,-0.0053177,-0.022769,-0.044272,-0.68172,-0.57429,0.4239,0.14737,0.040907,0.1484,-0.020836,0.015731,-0.017619,0.0012926,-0.025281,-0.038371,0.016492,0.0047888,0.014853,0.017171,-0.0031617,-0.019221,0.0046343,0.00047678
-0.01334,-0.0050868,-0.021977,-0.043923,-0.73347,-0.55656,0.42918,0.1591,0.039781,0.14823,-0.032878,0.015792,-0.016584,0.0038505,-0.026797,-0.035295,0.017455,0.0046081,0.010283,0.020089,0.00082664,-0.013756,0.0010345,-0.0035072
-0.018299,-0.0064823,-0.022015,-0.040629,-0.76984,-0.55014,0.43379,0.16602,0.037096,0.13995,-0.047872,0.015031,-0.01338,0.0040027,-0.028126,-0.028834,0.01556,0.0057303,0.0029867,0.018414,0.00509,-0.0081943,-0.0025171,-0.010408
-0.018634,-0.0078968,-0.022903,-0.037443,-0.80146,-0.55703,0.42983,0.1574,0.02875,0.12286,-0.070257,0.014617,-0.011389,0.0018349,-0.027156,-0.023123,0.012466,0.0058388,-0.004122,0.011151,0.0071182,-0.0066467,-0.0061033,-0.017804
-0.014658,-0.0073033,-0.024394,-0.036667,-0.84182,-0.57469,0.41323,0.12437,0.014161,0.097951,-0.097788,0.015907,-0.013214,-0.00090286,-0.023088,-0.020386,0.0097964,0.0040187,-0.0081802,0.00072934,0.0060687,-0.010674,-0.0091578,-0.023455
-0.008848,-0.0041015,-0.025499,-0.037973,-0.89674,-0.59742,0.38699,0.06628,-0.0034291,0.06882,-0.12318,0.018455,-0.018083,-0.0022083,-0.017448,-0.01923,0.0079017,0.0014453,-0.008136,-0.0082923,0.0030041,-0.017831,-0.010652,-0.025868
-0.0039654,0.00044145,-0.025029,-0.039495,-0.95797,-0.61951,0.35677,-0.0090631,-0.019251,0.040852,-0.14033,0.019918,-0.02198,-0.0013366,-0.013044,-0.016306,0.0059391,-0.00015407,-0.0053725,-0.01268,-0.00019473,-0.023297,-0.009895,-0.024316
-0.0015292,0.0043121,-0.022759,-0.040224,-1.0051,-0.63833,0.32418,-0.0902,-0.030191,0.018778,-0.14918,0.018075,-0.020621,0.00072844,-0.011804,-0.0096117,0.0031802,-0.00048866,-0.0026849,-0.013148,-0.0023897,-0.023403,-0.0072167,-0.019017
-0.0013587,0.0061779,-0.01991,-0.040807,-1.0148,-0.6553,0.28519,-0.1667,-0.036494,0.0043339,-0.15455,0.012966,-0.012895,0.0021177,-0.013377,-0.00029687,0.00027511,-0.00096266,-0.0022687,-0.013626,-0.0040366,-0.018317,-0.0039202,-0.011563
-0.0020988,0.0059201,-0.018171,-0.041917,-0.97103,-0.67385,0.23553,-0.2306,-0.040886,-0.0041876,-0.16048,0.0069227,-0.0019575,0.0014879,-0.015653,0.0085708,-0.00089825,-0.0029246,-0.0042251,-0.01763,-0.0065952,-0.011789,-0.0014886,-0.0048092
-0.0022233,0.0042312,-0.018043,-0.042345,-0.87173,-0.69542,0.17823,-0.27572,-0.046075,-0.01006,-0.16558,0.0023393,0.0069542,-0.001131,-0.01656,0.014901,0.0010785,-0.0058313,-0.0067943,-0.024962,-0.010837,-0.0081445,-0.00064304,-0.0015249
-0.0010094,0.0020471,-0.018182,-0.03945,-0.72796,-0.71594,0.12542,-0.29824,-0.052744,-0.015406,-0.16407,-0.00060805,0.010188,-0.0046427,-0.015431,0.019309,0.0054018,-0.0074136,-0.0081264,-0.031775,-0.01541,-0.0089315,-0.00091127,-0.0023676
0.00096054,0.00029366,-0.016602,-0.031904,-0.55867,-0.72569,0.091914,-0.29939,-0.059488,-0.019869,-0.1516,-0.0039823,0.0079207,-0.0079291,-0.012796,0.024167,0.0090552,-0.0058704,-0.0080158,-0.034004,-0.017096,-0.011887,-0.00095701,-0.0049109
0.0021134,-0.00030592,-0.012688,-0.021856,-0.38347,-0.71346,0.085501,-0.28736,-0.064419,-0.021688,-0.13007,-0.0097637,0.00342,-0.010608,-0.0091118,0.031104,0.0090077,-0.0019505,-0.0079849,-0.031038,-0.013035,-0.013046,0.0005796,-0.0050602
0.00099422,0.00030645,-0.0080166,-0.013846,-0.2167,-0.673,0.10167,-0.275,-0.066855,-0.02009,-0.10682,-0.017512,0.00025848,-0.01283,-0.0040108,0.039454,0.0049098,0.001241,-0.0096081,-0.026256,-0.0033643,-0.010224,0.0042114,-0.00020277
-0.0024623,0.0011372,-0.0050426,-0.011046,-0.064644,-0.60772,0.127,-0.27313,-0.067726,-0.01675,-0.08883,-0.024428,-6.9426e-005,-0.014434,0.0029412,0.046977,-0.00018505,0.00072631,-0.012703,-0.02398,0.0079653,-0.0049426,0.0091252,0.0083824
-0.0064984,0.00057115,-0.0048772,-0.012332,0.072781,-0.52991,0.14802,-0.28442,-0.068577,-0.014969,-0.077276,-0.027872,0.0015919,-0.014521,0.01069,0.051906,-0.0020302,-0.0037535,-0.015261,-0.025667,0.01534,-0.0012163,0.013345,0.016101
-0.0085237,-0.0023065,-0.0063448,-0.013154,0.19578,-0.45433,0.15838,-0.30283,-0.070188,-0.01726,-0.067374,-0.02794,0.003605,-0.012101,0.01618,0.054215,0.0013277,-0.0093367,-0.015359,-0.028831,0.015242,-0.0022054,0.014582,0.018447
-0.0070068,-0.0065681,-0.0072304,-0.0095849,0.29654,-0.39031,0.15939,-0.31955,-0.071938,-0.023407,-0.05339,-0.027583,0.0051421,-0.0073836,0.01602,0.055067,0.0077453,-0.012153,-0.013243,-0.029592,0.0087127,-0.0075569,0.011514,0.014547
-0.0028166,-0.0097879,-0.0063771,-0.0018424,0.35448,-0.33779,0.15505,-0.33065,-0.072253,-0.030614,-0.033936,-0.030066,0.0064566,-0.0023706,0.0093725,0.055348,0.012493,-0.010139,-0.011407,-0.026392,0.00043526,-0.013623,0.004828,0.0078333
0.0012295,-0.009923,-0.0044653,0.006005,0.34037,-0.28981,0.14688,-0.33994,-0.069585,-0.035562,-0.012719,-0.03607,0.0079904,0.00013301,-0.00040169,0.054953,0.011859,-0.0043626,-0.012335,-0.021427,-0.0048368,-0.016346,-0.0027591,0.0032484
0.0024792,-0.007161,-0.0028029,0.0098708,0.22967,-0.23912,0.13314,-0.35499,-0.063134,-0.036751,0.0054888,-0.042972,0.0095795,-0.0014419,-0.0071966,0.053465,0.0058616,0.0019068,-0.01593,-0.018533,-0.005554,-0.014432,-0.0078184,0.0033682
0.00061058,-0.0039239,-0.0016566,0.0094749,0.018249,-0.18298,0.11232,-0.38005,-0.052969,-0.035411,0.019468,-0.046826,0.010657,-0.0060174,-0.0060899,0.051227,-0.0020661,0.005352,-0.019211,-0.019558,-0.0037214,-0.010305,-0.0082237,0.0067602
-0.0019818,-0.0028237,-0.00012114,0.0086619,-0.27046,-0.12241,0.086984,-0.41237,-0.039795,-0.034507,0.032373,-0.045192,0.011075,-0.010432,0.0031316,0.049473,-0.0078571,0.0043768,-0.018839,-0.022618,-0.0023717,-0.0081717,-0.0044793,0.0098356
-0.0020428,-0.0043573,0.0023205,0.011938,-0.59358,-0.0576,0.063957,-0.44494,-0.024765,-0.036725,0.04838,-0.038495,0.011423,-0.01169,0.015657,0.049244,-0.0095827,-0.0004026,-0.014286,-0.023804,-0.0027044,-0.010836,0.00071898,0.010313
0.0018722,-0.0064949,0.0045016,0.020328,-0.90802,0.014865,0.050278,-0.4726,-0.0094453,-0.04296,0.068704,-0.029124,0.012319,-0.0090921,0.024871,0.05023,-0.0080895,-0.0067591,-0.0087017,-0.020732,-0.0034558,-0.017786,0.0044761,0.0090738
