8.6819e-011,1.0553e-009,2.6817e-010,1.1557e-009,-2.2573e-010,1.0399e-009,2.4502e-010,1.9486e-010,-1.0611e-010,8.1224e-010,7.3507e-010,1.8714e-010,1.4856e-010,4.7268e-010,8.5082e-010,5.8844e-010,-6.3667e-011,7.968e-010,6.0387e-010,1.1904e-009,9.0677e-011,7.8523e-010,9.4729e-010,9.1642e-010
2.2486e-009,2.9028e-008,7.3257e-009,3.2109e-008,-6.2493e-009,2.8408e-008,6.8364e-009,5.1223e-009,-2.6737e-009,2.2329e-008,2.0243e-008,5.3026e-009,4.1978e-009,1.3228e-008,2.3589e-008,1.6261e-008,-1.5085e-009,2.2073e-008,1.6818e-008,3.291e-008,2.5289e-009,2.1436e-008,2.6046e-008,2.517e-008
2.8124e-008,3.882e-007,9.7381e-008,4.3397e-007,-8.3998e-008,3.7693e-007,9.2757e-008,6.4964e-008,-3.23e-008,2.9851e-007,2.7081e-007,7.3315e-008,5.7775e-008,1.8035e-007,3.1787e-007,2.1799e-007,-1.6862e-008,2.9724e-007,2.2771e-007,4.4251e-007,3.4374e-008,2.8425e-007,3.4811e-007,3.3614e-007
2.2582e-007,3.3629e-006,8.3939e-007,3.8013e-006,-7.2997e-007,3.2362e-006,8.1531e-007,5.2879e-007,-2.481e-007,2.5859e-006,2.3445e-006,6.5918e-007,5.158e-007,1.596e-006,2.774e-006,1.8881e-006,-1.1673e-007,2.5925e-006,1.9968e-006,3.8557e-006,3.035e-007,2.439e-006,3.0133e-006,2.9083e-006
1.3042e-006,2.1211e-005,5.2742e-006,2.4251e-005,-4.6079e-006,2.0209e-005,5.218e-006,3.0983e-006,-1.3521e-006,1.6319e-005,1.4762e-005,4.3329e-006,3.356e-006,1.0301e-005,1.762e-005,1.187e-005,-5.4666e-007,1.646e-005,1.2746e-005,2.447e-005,1.9571e-006,1.5217e-005,1.8988e-005,1.8325e-005
5.7457e-006,0.00010378,2.5745e-005,0.00012004,-2.2501e-005,9.7798e-005,2.5906e-005,1.3881e-005,-5.5033e-006,7.9951e-005,7.2008e-005,2.219e-005,1.6946e-005,5.1666e-005,8.6792e-005,5.7676e-005,-1.7207e-006,8.1058e-005,6.3099e-005,0.00012053,9.8251e-006,7.3548e-005,9.2805e-005,8.9589e-005
1.9933e-005,0.00040974,0.00010158,0.0004795,-8.8388e-005,0.00038156,0.00010379,4.9241e-005,-1.7011e-005,0.00031644,0.000283,9.2119e-005,6.9038e-005,0.00020941,0.00034488,0.00022515,-2.9002e-006,0.00032206,0.00025199,0.00047931,3.9959e-005,0.00028635,0.000366,0.00035355
5.5189e-005,0.0013404,0.00033281,0.0015866,-0.00028669,0.0012325,0.0003445,0.00014098,-3.8975e-005,0.0010394,0.00091981,0.00031837,0.00023287,0.00070417,0.0011351,0.00072432,3.7796e-006,0.00106,0.00083345,0.0015805,0.00013525,0.0009219,0.0011959,0.0011565
0.0001211,0.0037008,0.00092259,0.0044281,-0.00078203,0.0033583,0.00096506,0.00032773,-5.755e-005,0.002887,0.0025172,0.00093327,0.00066194,0.0020007,0.0031519,0.0019534,4.8996e-005,0.002944,0.0023253,0.0044021,0.00038833,0.0024988,0.0032982,0.0031943
0.00020102,0.0087359,0.0021935,0.010554,-0.0018174,0.0078232,0.0023111,0.00061144,-6.5332e-006,0.0068745,0.0058717,0.0023512,0.0016048,0.0048645,0.0074793,0.0044653,0.00021292,0.0069887,0.0055431,0.010495,0.00095894,0.0057731,0.0077777,0.0075475
0.00020696,0.017786,0.0045157,0.021653,-0.0036313,0.015729,0.0047724,0.00087227,0.00027655,0.014169,0.011766,0.0051374,0.0033436,0.010211,0.015299,0.0087039,0.0006496,0.014304,0.011388,0.021616,0.0020573,0.011461,0.015822,0.015393
-6.1809e-005,0.031398,0.0081002,0.038392,-0.006277,0.027472,0.0085388,0.00078622,0.0010541,0.025438,0.020333,0.0097902,0.0060083,0.0186,0.027115,0.01448,0.0015753,0.025373,0.020271,0.03869,0.0038623,0.019631,0.027918,0.027248
-0.00089798,0.048143,0.012703,0.058811,-0.0094199,0.041855,0.013251,-0.00014502,0.0025764,0.039927,0.03029,0.016309,0.0093058,0.029469,0.041707,0.020444,0.0031842,0.039073,0.031323,0.060372,0.0063764,0.029031,0.042816,0.041969
-0.0025437,0.063982,0.01742,0.077368,-0.012286,0.055747,0.017769,-0.0023461,0.0048246,0.054824,0.038695,0.023708,0.012348,0.040571,0.055554,0.024124,0.0054937,0.052126,0.041972,0.082162,0.009284,0.036927,0.056998,0.056209
-0.0049439,0.073182,0.020828,0.086103,-0.013907,0.065003,0.020383,-0.0057379,0.0072185,0.065701,0.041873,0.02986,0.013839,0.048332,0.063648,0.022962,0.0081979,0.05983,0.048558,0.097326,0.011935,0.04006,0.065514,0.065214
-0.0075453,0.071009,0.021569,0.078403,-0.013603,0.066546,0.019595,-0.0093916,0.0085582,0.068316,0.037528,0.032045,0.012734,0.049469,0.061924,0.016122,0.010653,0.058299,0.048161,0.099994,0.013545,0.036558,0.064394,0.065122
-0.0093708,0.056919,0.019161,0.053713,-0.011411,0.060427,0.01521,-0.011648,0.007452,0.061059,0.026824,0.028214,0.0090555,0.043204,0.050136,0.0058224,0.012064,0.04715,0.040716,0.088979,0.013571,0.02766,0.053451,0.055676
-0.0094817,0.035936,0.014499,0.019792,-0.0081341,0.050149,0.0089937,-0.010862,0.0031748,0.046435,0.014682,0.018382,0.0042618,0.03249,0.033034,-0.0032411,0.011809,0.030667,0.029731,0.069519,0.012069,0.017688,0.037407,0.041306
-0.0076321,0.016574,0.0095753,-0.010162,-0.0049453,0.040588,0.0042264,-0.0064222,-0.0035452,0.030279,0.0073086,0.0051763,0.00061681,0.022832,0.018267,-0.0066527,0.0097112,0.01598,0.020539,0.050845,0.0097903,0.011683,0.023884,0.029167
-0.0046408,0.0060978,0.0063989,-0.024723,-0.0028293,0.034754,0.004057,0.00069182,-0.01051,0.01885,0.0081876,-0.0071252,-0.00023656,0.018936,0.01178,-0.0035482,0.0061197,0.0088986,0.016849,0.040497,0.0079103,0.012046,0.019019,0.024906
-0.0020506,0.0062594,0.0057484,-0.021146,-0.0021855,0.03191,0.0095188,0.0084139,-0.015111,0.015608,0.015404,-0.014759,0.0014716,0.021434,0.013801,0.0023075,0.0017947,0.010179,0.01816,0.039347,0.0074862,0.016733,0.023611,0.028999
-0.0011312,0.012703,0.0066459,-0.0067467,-0.0026995,0.028686,0.018561,0.014975,-0.015953,0.019805,0.022698,-0.016582,0.0036592,0.026392,0.018633,0.0050272,-0.0022882,0.015116,0.020308,0.041424,0.0089192,0.020682,0.032756,0.036571
-0.0018803,0.018532,0.0070268,0.0066464,-0.0033855,0.022344,0.027003,0.020164,-0.013896,0.02763,0.023827,-0.014695,0.0038793,0.028387,0.018821,0.001126,-0.0051548,0.017048,0.019007,0.039073,0.011686,0.019564,0.039481,0.041132
-0.0028638,0.019192,0.0052102,0.011032,-0.0028122,0.013388,0.031012,0.025371,-0.011588,0.034714,0.016978,-0.01303,0.001186,0.024907,0.010703,-0.0076022,-0.0061013,0.012218,0.013501,0.029382,0.014495,0.012935,0.039666,0.03943
-0.0022008,0.014823,0.0011193,0.0069592,0.00028886,0.0052238,0.029489,0.032231,-0.011647,0.038106,0.0056547,-0.014724,-0.0031813,0.018405,-0.0029613,-0.015516,-0.0050118,0.0022619,0.0070922,0.01641,0.015869,0.004274,0.034449,0.033606
0.00094174,0.0085957,-0.0036546,0.0012543,0.0060444,0.0011779,0.024607,0.040941,-0.014758,0.036759,-0.0046137,-0.019998,-0.0069149,0.014129,-0.015347,-0.017882,-0.0025288,-0.0074954,0.0039635,0.0072294,0.014928,-0.001942,0.028366,0.02891
0.0055352,0.0031164,-0.0069597,0.00025829,0.012714,0.0015753,0.020052,0.049762,-0.019195,0.031089,-0.01084,-0.02597,-0.0085767,0.015494,-0.020907,-0.014844,0.00018706,-0.012306,0.0050895,0.0053324,0.011991,-0.0035094,0.025058,0.02896
0.0093277,-0.0015527,-0.0074731,0.004549,0.017146,0.0034509,0.01826,0.056265,-0.022193,0.022579,-0.014415,-0.02861,-0.0086197,0.021,-0.019323,-0.010978,0.0021098,-0.011272,0.0070236,0.0074056,0.0085245,-0.0014792,0.024296,0.032592
0.010532,-0.0066791,-0.0053233,0.0093036,0.016632,0.0030603,0.018784,0.059257,-0.022104,0.013566,-0.018762,-0.025571,-0.0086652,0.025401,-0.014981,-0.010772,0.002984,-0.0072303,0.0048069,0.0064339,0.0062734,0.001512,0.022783,0.034927
0.0092048,-0.012233,-0.0016133,0.0092749,0.01106,-0.0010981,0.019003,0.059625,-0.019505,0.0065423,-0.025149,-0.017948,-0.0099013,0.02407,-0.012815,-0.014245,0.0033855,-0.0039479,-0.0034945,-0.0018116,0.0059796,0.0036035,0.017754,0.031631
0.0071343,-0.016003,0.0025628,0.0035899,0.0035321,-0.0072883,0.016477,0.059274,-0.016341,0.0027093,-0.030684,-0.0096351,-0.012253,0.016702,-0.014292,-0.016961,0.0040801,-0.0034066,-0.014652,-0.014991,0.0066151,0.0046025,0.0099778,0.022619
0.0062888,-0.015649,0.0067146,-0.0036847,-0.0013992,-0.012158,0.010924,0.059181,-0.013925,0.00077072,-0.030406,-0.0045855,-0.015024,0.0072497,-0.016899,-0.014541,0.0051993,-0.0053151,-0.022476,-0.026572,0.0059025,0.0050594,0.0033817,0.012019
0.0071439,-0.01164,0.010779,-0.0072052,-0.00076847,-0.013378,0.0042773,0.058443,-0.011705,-0.0025569,-0.021683,-0.0038518,-0.018051,0.00042014,-0.017159,-0.0074396,0.0059741,-0.0085518,-0.022503,-0.0319,0.0020085,0.004995,0.0016018,0.0046061
0.008335,-0.0078229,0.014567,-0.0047207,0.0048163,-0.011185,-0.00099844,0.055265,-0.008022,-0.010087,-0.0070333,-0.0046242,-0.021864,-0.0019899,-0.014104,-0.0012643,0.0052876,-0.012547,-0.015276,-0.032045,-0.0047622,0.0037927,0.0044881,0.0019481
0.0079377,-0.0085514,0.017506,0.0014646,0.011786,-0.0079708,-0.0037012,0.048931,-0.0021875,-0.02152,0.0070399,-0.0021503,-0.026534,-0.0018373,-0.010045,-0.0020601,0.0026007,-0.017188,-0.0055902,-0.031781,-0.011707,0.0012448,0.0077206,0.0016133
0.0052689,-0.014732,0.018941,0.0066814,0.016234,-0.006613,-0.004286,0.040879,0.004177,-0.033044,0.014193,0.0067363,-0.030522,-0.0022358,-0.0082083,-0.010705,-0.0014657,-0.021776,0.0014405,-0.033925,-0.015372,-0.0016009,0.0060454,-0.00018226
0.0016587,-0.022478,0.018644,0.0074895,0.016412,-0.0088121,-0.0038267,0.03388,0.0079921,-0.039945,0.012037,0.021072,-0.031098,-0.004546,-0.0097436,-0.021486,-0.0052559,-0.024661,0.0042295,-0.035827,-0.014034,-0.0029399,-0.0024499,-0.0051936
-0.00046336,-0.025903,0.01702,0.0037565,0.013303,-0.014251,-0.00281,0.030078,0.0072021,-0.040292,0.0029214,0.036148,-0.026366,-0.0074677,-0.012921,-0.026155,-0.0067563,-0.024293,0.0054981,-0.031741,-0.0091141,-0.0017415,-0.014567,-0.012151
0.00057705,-0.021868,0.014854,-0.0019585,0.0092441,-0.020769,-0.00097641,0.029625,0.00273,-0.036581,-0.008241,0.046563,-0.017175,-0.0087173,-0.015025,-0.019979,-0.0044778,-0.020685,0.009628,-0.01896,-0.0043325,0.0011455,-0.024277,-0.018715
0.0043716,-0.012678,0.012877,-0.0066372,0.0060809,-0.025435,0.0018108,0.030902,-0.0018715,-0.033775,-0.016911,0.049666,-0.0070494,-0.0074061,-0.014847,-0.0048402,0.001721,-0.01564,0.018796,-0.0018125,-0.0031497,0.0034583,-0.027298,-0.024068
0.0086079,-0.0044241,0.011515,-0.0086903,0.0043117,-0.026149,0.0047855,0.03192,-0.0028587,-0.035335,-0.020541,0.046912,-5.3103e-007,-0.0048733,-0.013332,0.012641,0.01016,-0.011343,0.030797,0.010598,-0.0064179,0.0032664,-0.024305,-0.029443
0.01056,-0.0023665,0.010835,-0.0083772,0.0035122,-0.023008,0.0065714,0.031621,0.001144,-0.040587,-0.018584,0.042373,0.0020391,-0.003423,-0.012047,0.02581,0.017665,-0.0086558,0.040051,0.011175,-0.01198,0.00051376,-0.020216,-0.036254
0.0088097,-0.0071664,0.010514,-0.0070432,0.003217,-0.018436,0.0063687,0.030196,0.0084131,-0.045602,-0.011981,0.039783,0.00013429,-0.0043665,-0.011345,0.031645,0.020986,-0.0068291,0.04106,0.00022031,-0.016386,-0.0029727,-0.020172,-0.044004
0.0040881,-0.014896,0.0097906,-0.0061325,0.0033489,-0.015646,0.0048765,0.028529,0.015557,-0.046659,-0.002985,0.04038,-0.0028725,-0.0071796,-0.010245,0.031278,0.018772,-0.0048469,0.032039,-0.01522,-0.017282,-0.0050035,-0.025497,-0.050279
-0.0011733,-0.02052,0.0076808,-0.0066022,0.0040191,-0.016315,0.0039694,0.027424,0.01978,-0.043151,0.0050725,0.042825,-0.0044487,-0.010303,-0.0080401,0.028132,0.012711,-0.0029365,0.016395,-0.027206,-0.014702,-0.0047576,-0.032871,-0.052848
-0.0042233,-0.021774,0.0036459,-0.0087154,0.0051835,-0.019282,0.005288,0.027151,0.020296,-0.03754,0.0089276,0.044782,-0.0036443,-0.012568,-0.0057055,0.025701,0.0066378,-0.0025794,0.0010387,-0.032634,-0.010594,-0.0032719,-0.037286,-0.051694
-0.0034852,-0.02032,-0.001621,-0.011986,0.0066097,-0.021502,0.0089034,0.027343,0.018192,-0.032779,0.0072974,0.044642,-0.00093791,-0.013891,-0.0053818,0.026172,0.0038759,-0.0049466,-0.0076189,-0.034089,-0.0073252,-0.0023557,-0.036258,-0.048959
0.00062431,-0.019556,-0.0060682,-0.015316,0.0080895,-0.020669,0.013156,0.027064,0.015263,-0.029853,0.0020608,0.042176,0.0026676,-0.014823,-0.0082655,0.029792,0.0047879,-0.0093578,-0.0075531,-0.03582,-0.0064299,-0.0029528,-0.031846,-0.046977
0.0059725,-0.021278,-0.0072864,-0.017519,0.0095062,-0.017336,0.015769,0.025019,0.012865,-0.027666,-0.0027559,0.038027,0.0063261,-0.015705,-0.013028,0.034731,0.0066038,-0.013407,-0.0023416,-0.039152,-0.0082438,-0.0043801,-0.028903,-0.046448
0.0099351,-0.024102,-0.0041546,-0.018144,0.010611,-0.014598,0.015314,0.020016,0.011486,-0.024983,-0.0038521,0.032887,0.0094937,-0.016359,-0.016491,0.037782,0.0057967,-0.014767,0.0013447,-0.041571,-0.012129,-0.0050206,-0.031159,-0.046471
0.010869,-0.024876,0.0021228,-0.017985,0.010859,-0.015457,0.011954,0.011643,0.011045,-0.022154,-0.0011538,0.027195,0.011882,-0.016519,-0.016156,0.03618,0.001027,-0.013037,-0.0015194,-0.039861,-0.016781,-0.0037814,-0.038368,-0.046188
0.0089277,-0.021646,0.0085694,-0.018681,0.0097381,-0.020114,0.0070484,0.00080401,0.011472,-0.020752,0.0022735,0.021477,0.013507,-0.016359,-0.012374,0.029678,-0.0058512,-0.0099447,-0.010658,-0.033828,-0.020561,-0.0010568,-0.046708,-0.046228
0.0056782,-0.015521,0.01235,-0.021493,0.0074765,-0.025605,0.0021141,-0.010353,0.013058,-0.021519,0.0029368,0.016684,0.014653,-0.016494,-0.0082295,0.021133,-0.011468,-0.0077829,-0.020732,-0.026997,-0.022137,0.001541,-0.051838,-0.048499
0.0028257,-0.0098816,0.012663,-0.026159,0.0053739,-0.028218,-0.0020058,-0.019279,0.016261,-0.022824,-7.617e-005,0.013952,0.015522,-0.017444,-0.0071891,0.014647,-0.013643,-0.0075847,-0.02548,-0.023788,-0.021362,0.002388,-0.051967,-0.054542
0.0010149,-0.0077263,0.011166,-0.030922,0.0050825,-0.026616,-0.0052362,-0.02431,0.021108,-0.021356,-0.0044195,0.013846,0.015783,-0.019136,-0.010434,0.012469,-0.012685,-0.0086347,-0.022654,-0.025962,-0.019597,0.0010431,-0.048662,-0.063924
-0.00035311,-0.009489,0.01063,-0.033878,0.0071533,-0.022891,-0.0077762,-0.025678,0.026643,-0.01459,-0.0066608,0.015864,0.014681,-0.020947,-0.01598,0.013299,-0.010413,-0.0095383,-0.015831,-0.031528,-0.018803,-0.0014078,-0.045209,-0.073977
-0.002199,-0.01311,0.012865,-0.034628,0.010141,-0.020587,-0.0095915,-0.025607,0.030983,-0.0028366,-0.0052774,0.018812,0.011915,-0.022245,-0.020182,0.013541,-0.0082226,-0.0095938,-0.011556,-0.036776,-0.01976,-0.0030751,-0.044244,-0.081039
-0.0045931,-0.016047,0.017453,-0.034774,0.011404,-0.021481,-0.010376,-0.02729,0.032165,0.010908,-0.0018028,0.021784,0.0085539,-0.022927,-0.020402,0.0104,-0.0062487,-0.0090932,-0.014063,-0.039356,-0.02098,-0.0026071,-0.046441,-0.082349
-0.0064165,-0.017282,0.022108,-0.036683,0.0092531,-0.024068,-0.0099884,-0.03315,0.029328,0.023019,0.00077976,0.024695,0.0068476,-0.023487,-0.016837,0.0039874,-0.0042136,-0.0084585,-0.021872,-0.039705,-0.019651,-0.0002947,-0.050715,-0.077517
-0.0062082,-0.017592,0.024262,-0.041449,0.004634,-0.025158,-0.0089037,-0.043298,0.023408,0.031278,0.00082134,0.027664,0.0086673,-0.024594,-0.012247,-0.0033931,-0.0026001,-0.0074224,-0.029047,-0.040001,-0.014207,0.0018821,-0.055163,-0.068829
-0.0034864,-0.01813,0.022654,-0.047724,0.00058869,-0.023074,-0.0081907,-0.05517,0.01674,0.03519,-0.00055611,0.02978,0.01371,-0.026486,-0.0098751,-0.0097523,-0.002501,-0.0054028,-0.030062,-0.042035,-0.0063628,0.0014908,-0.057892,-0.060146
0.0006208,-0.018925,0.017914,-0.052428,-0.0003168,-0.01941,-0.0088802,-0.064807,0.011749,0.03475,-0.00057546,0.028729,0.019193,-0.028626,-0.011101,-0.014988,-0.0041807,-0.0027875,-0.024243,-0.045999,-0.00050138,-0.0025507,-0.057583,-0.054783
0.0040417,-0.018796,0.011978,-0.052808,0.0016332,-0.017635,-0.011138,-0.069217,0.0095984,0.029361,0.0026205,0.022205,0.021613,-0.029848,-0.014468,-0.019897,-0.0061591,-0.0015514,-0.016243,-0.050908,-0.00048517,-0.0089504,-0.054013,-0.053404
0.0052362,-0.016679,0.0069118,-0.048271,0.0034564,-0.019817,-0.013885,-0.068384,0.0097224,0.018316,0.0082377,0.010237,0.019301,-0.028977,-0.016748,-0.023879,-0.0063486,-0.0039913,-0.012326,-0.055735,-0.00639,-0.014739,-0.048418,-0.053364
0.0043092,-0.012944,0.0039938,-0.040668,0.0022429,-0.024569,-0.015277,-0.065441,0.010502,0.0024678,0.013395,-0.0036909,0.013636,-0.025619,-0.015266,-0.024181,-0.0044924,-0.010283,-0.015651,-0.059955,-0.014022,-0.017295,-0.043124,-0.050284
0.002884,-0.0094074,0.0034365,-0.032997,-0.0019329,-0.028188,-0.013832,-0.06464,0.010524,-0.014764,0.015394,-0.014224,0.0079084,-0.020659,-0.0098503,-0.018097,-0.0032889,-0.017191,-0.024276,-0.063171,-0.017874,-0.016109,-0.040194,-0.04116
0.0028595,-0.0080015,0.0046449,-0.027556,-0.0057808,-0.027931,-0.0095193,-0.068385,0.0094867,-0.028551,0.013709,-0.017605,0.0048446,-0.016036,-0.0030069,-0.0062766,-0.0064246,-0.019704,-0.033125,-0.06466,-0.015241,-0.012879,-0.03988,-0.026885
0.0050363,-0.0093059,0.0066021,-0.024781,-0.0056582,-0.024371,-0.0040479,-0.075412,0.008162,-0.035483,0.010138,-0.01434,0.004874,-0.013779,0.0017972,0.0063193,-0.014822,-0.014825,-0.037946,-0.063684,-0.0081857,-0.0099595,-0.040232,-0.01214
0.0086286,-0.012146,0.0081254,-0.023337,-0.00097156,-0.020665,-7.088e-005,-0.08154,0.0075232,-0.035803,0.0072459,-0.0087787,0.0064054,-0.014799,0.0025388,0.01343,-0.024661,-0.0044325,-0.038015,-0.060371,-0.0017587,-0.0086638,-0.038554,-0.0024473
0.011916,-0.014495,0.0080598,-0.021204,0.005066,-0.019505,0.00026076,-0.082491,0.0077749,-0.033072,0.0066097,-0.005821,0.0075389,-0.018268,-2.7749e-005,0.012266,-0.029601,0.0055081,-0.0358,-0.056101,2.2501e-005,-0.0088727,-0.033729,-0.00039377
0.013419,-0.014917,0.0056055,-0.017057,0.0080924,-0.02069,-0.0034574,-0.076728,0.0080789,-0.031359,0.0082422,-0.0074243,0.0075528,-0.022084,-0.0030852,0.0057555,-0.025792,0.0091556,-0.034422,-0.052641,-0.002818,-0.0099816,-0.027405,-0.0038031
0.012688,-0.013516,0.00076425,-0.011211,0.0062357,-0.021558,-0.0096187,-0.066259,0.0072581,-0.032234,0.011179,-0.011741,0.0070154,-0.024246,-0.0039518,-7.1085e-006,-0.015397,0.0051544,-0.035271,-0.0506,-0.0065514,-0.011878,-0.022733,-0.0071774
0.010261,-0.011779,-0.0054321,-0.0056341,0.0014144,-0.019742,-0.015522,-0.055006,0.0049645,-0.034027,0.014162,-0.015412,0.0067806,-0.024199,-0.0020419,-0.0010095,-0.0053234,-0.0024254,-0.037557,-0.048688,-0.0069782,-0.014783,-0.021523,-0.0052827
0.0070465,-0.011462,-0.011281,-0.0029365,-0.0027495,-0.015537,-0.018954,-0.046179,0.0023001,-0.033853,0.015632,-0.016859,0.0070233,-0.023172,0.00094591,0.0014544,-0.0020047,-0.007342,-0.039704,-0.044703,-0.0028159,-0.018246,-0.022286,0.0036968
0.0037392,-0.013216,-0.015307,-0.0048091,-0.004246,-0.011632,-0.019458,-0.040689,0.0011893,-0.030511,0.0135,-0.017673,0.0071675,-0.023209,0.0027024,0.0025386,-0.0066283,-0.0059295,-0.041004,-0.037596,0.0034757,-0.020716,-0.021153,0.017416
0.00069333,-0.015927,-0.017112,-0.010834,-0.0040565,-0.010554,-0.018464,-0.03756,0.0028342,-0.025704,0.0058263,-0.021009,0.0065735,-0.025505,0.0023759,-0.0010913,-0.014737,0.0004804,-0.042035,-0.028809,0.0079271,-0.020604,-0.015148,0.031116
-0.0018295,-0.01733,-0.017509,-0.018513,-0.0045223,-0.012332,-0.018146,-0.035577,0.0065269,-0.022582,-0.0073359,-0.028513,0.0052056,-0.029313,0.0012199,-0.0076755,-0.020268,0.0071598,-0.043616,-0.021604,0.0083434,-0.018028,-0.0050587,0.04037
-0.0034566,-0.015606,-0.017802,-0.024635,-0.0066209,-0.014555,-0.01979,-0.034558,0.0099781,-0.023051,-0.022403,-0.038451,0.003674,-0.032291,0.0012355,-0.011704,-0.020313,0.009921,-0.045501,-0.018869,0.005896,-0.015358,0.0047942,0.043155
-0.0038741,-0.010798,-0.018792,-0.027107,-0.0089782,-0.014694,-0.022857,-0.03524,0.011033,-0.026289,-0.033074,-0.046604,0.0026978,-0.032163,0.0030139,-0.0090434,-0.016657,0.0080142,-0.046197,-0.021173,0.0038364,-0.015557,0.009905,0.040426
-0.0032761,-0.0049125,-0.02036,-0.025997,-0.0094787,-0.012386,-0.025482,-0.038162,0.0093035,-0.029733,-0.033919,-0.049137,0.002501,-0.028496,0.0047949,-0.0011373,-0.013319,0.0038913,-0.044245,-0.026542,0.0046009,-0.019501,0.0092493,0.035325
-0.0026036,-0.00055107,-0.021895,-0.023069,-0.0076384,-0.0095953,-0.026089,-0.042721,0.0062247,-0.031459,-0.024478,-0.045204,0.0026212,-0.023173,0.003792,0.0056689,-0.012816,0.00060375,-0.039824,-0.031866,0.0078271,-0.024797,0.0060301,0.031584
-0.0031079,0.0008082,-0.023055,-0.020255,-0.0052349,-0.0086122,-0.024818,-0.047307,0.0035274,-0.031657,-0.010417,-0.037421,0.0022555,-0.019121,-0.0011575,0.0052693,-0.01449,-0.00059223,-0.035069,-0.034614,0.010873,-0.027533,0.0047901,0.031718
-0.005342,-0.00050098,-0.024057,-0.0183,-0.0045967,-0.0099001,-0.023581,-0.05034,0.0016765,-0.031878,-0.00014407,-0.030117,0.00089648,-0.018214,-0.0078948,-0.0030111,-0.015849,-0.00051428,-0.032563,-0.033705,0.011217,-0.025691,0.0074244,0.035716
-0.0083799,-0.0030751,-0.02522,-0.016613,-0.006369,-0.011771,-0.024557,-0.051329,-0.00018813,-0.032939,0.00097463,-0.026783,-0.0011766,-0.020039,-0.011913,-0.013685,-0.015095,-0.00052212,-0.033177,-0.029435,0.0085934,-0.021168,0.011622,0.040907
-0.010172,-0.005715,-0.026349,-0.014259,-0.009026,-0.012061,-0.028279,-0.051111,-0.0028944,-0.033702,-0.005633,-0.02844,-0.0029407,-0.022533,-0.0095806,-0.019512,-0.012399,-0.0010268,-0.035237,-0.023084,0.0050842,-0.01836,0.013078,0.043357
-0.0091011,-0.0080157,-0.026755,-0.011109,-0.010543,-0.010147,-0.032903,-0.051167,-0.0060717,-0.03207,-0.013169,-0.0337,-0.0032869,-0.023949,-0.0011897,-0.017366,-0.0092178,-0.0014628,-0.035903,-0.016532,0.0032851,-0.020321,0.0094524,0.040198
-0.0055799,-0.0099605,-0.026105,-0.0080616,-0.010453,-0.0074833,-0.035409,-0.052519,-0.008511,-0.027294,-0.015029,-0.040062,-0.001909,-0.024396,0.0087472,-0.01068,-0.0069024,-0.0014333,-0.033637,-0.011655,0.0042307,-0.025891,0.0025382,0.031484
-0.0021371,-0.011281,-0.025291,-0.0062269,-0.010192,-0.0063148,-0.033929,-0.054957,-0.0096045,-0.021244,-0.0099969,-0.045389,0.00027002,-0.025549,0.014498,-0.0064762,-0.0060491,-0.0015795,-0.029506,-0.0093362,0.0068255,-0.030445,-0.0031947,0.020272
-0.0015686,-0.011435,-0.026297,-0.0059035,-0.011424,-0.0078383,-0.029349,-0.057065,-0.01014,-0.017123,-0.0028596,-0.04877,0.0016082,-0.028718,0.013287,-0.0094312,-0.0067322,-0.0031726,-0.026067,-0.0087315,0.0090701,-0.029757,-0.0043026,0.010788
-0.0045601,-0.010168,-0.030864,-0.0063608,-0.014093,-0.011341,-0.024766,-0.05702,-0.011431,-0.016557,-8.4516e-005,-0.050572,0.00095209,-0.033026,0.0073801,-0.017827,-0.0086963,-0.0068607,-0.024859,-0.0076799,0.0098345,-0.023604,-0.0010746,0.00595
-0.008959,-0.0078718,-0.038909,-0.0065938,-0.016215,-0.014837,-0.02311,-0.053663,-0.013717,-0.017737,-0.0043972,-0.051921,-0.0013685,-0.035503,0.0023106,-0.024677,-0.011009,-0.011866,-0.024903,-0.0043433,0.009602,-0.016,0.0029447,0.0059587
-0.011566,-0.0052189,-0.04809,-0.0062399,-0.015685,-0.016463,-0.024851,-0.047142,-0.01571,-0.016577,-0.01287,-0.053924,-0.0036368,-0.033273,0.0025038,-0.023158,-0.011863,-0.016422,-0.023714,0.0012057,0.0096649,-0.011977,0.0039706,0.0087802
-0.010965,-0.0025324,-0.055066,-0.005699,-0.012359,-0.015552,-0.027773,-0.038734,-0.015958,-0.01023,-0.019918,-0.056969,-0.0039851,-0.026105,0.0077579,-0.012053,-0.0094772,-0.018995,-0.01987,0.0069903,0.010652,-0.013813,0.0008527,0.011817
-0.0087775,0.00024908,-0.057625,-0.0053408,-0.0083705,-0.012798,-0.029094,-0.030076,-0.014573,-2.4136e-005,-0.022257,-0.060443,-0.0018539,-0.017126,0.013472,0.0031091,-0.0038117,-0.019162,-0.014615,0.01091,0.011795,-0.019876,-0.0044613,0.013331
-0.0081086,0.0028205,-0.056077,-0.0046837,-0.0062854,-0.0096607,-0.028082,-0.022398,-0.013338,0.0088448,-0.021338,-0.063078,0.001502,-0.010968,0.014524,0.014096,0.0025517,-0.017494,-0.010841,0.012697,0.011579,-0.026636,-0.0089116,0.012745
-0.010622,0.0038822,-0.052925,-0.0025605,-0.0068281,-0.0074669,-0.02678,-0.016237,-0.01384,0.010901,-0.021289,-0.063754,0.0039163,-0.010724,0.0096542,0.015982,0.0057521,-0.014848,-0.010395,0.014126,0.009174,-0.031573,-0.010816,0.01012
-0.015033,0.0016868,-0.05107,0.0016552,-0.0083236,-0.0066598,-0.028087,-0.011504,-0.015545,0.0045188,-0.024632,-0.062179,0.0039678,-0.016061,0.0026308,0.010395,0.0035972,-0.011911,-0.01236,0.017238,0.0052995,-0.034346,-0.0108,0.0057551
-0.018434,-0.0043468,-0.051897,0.0068501,-0.0084244,-0.0065108,-0.032895,-0.0075481,-0.015975,-0.0067154,-0.029943,-0.058907,0.0021143,-0.023707,-0.00092267,0.0036448,-0.0023326,-0.0093529,-0.014026,0.022288,0.0017388,-0.035657,-0.010694,0.00031777
-0.019069,-0.012391,-0.054494,0.010321,-0.0065132,-0.0055272,-0.038934,-0.0032465,-0.013086,-0.01653,-0.033571,-0.054767,0.0004036,-0.029634,0.0014996,0.0014877,-0.0075268,-0.0080992,-0.013607,0.027496,-0.0001256,-0.035605,-0.011651,-0.0050029
-0.017785,-0.018787,-0.056407,0.0095434,-0.0045053,-0.0024746,-0.042518,0.0024341,-0.0076238,-0.020427,-0.033499,-0.050366,0.00092876,-0.03116,0.0067565,0.0048885,-0.0079488,-0.0090483,-0.011917,0.030827,-0.00046217,-0.033493,-0.013177,-0.0089912
-0.016817,-0.020359,-0.055316,0.004322,-0.0052206,0.0025499,-0.041713,0.0091944,-0.0030384,-0.018611,-0.031432,-0.04619,0.0041586,-0.0278,0.0082982,0.0099344,-0.0032379,-0.012242,-0.011293,0.032028,-0.00079639,-0.029161,-0.013716,-0.011397
-0.017283,-0.0167,-0.050556,-0.0025532,-0.00974,0.0078172,-0.038073,0.014335,-0.0027798,-0.015233,-0.031064,-0.043064,0.0084076,-0.020986,0.0014465,0.011437,0.0030564,-0.016321,-0.012838,0.032838,-0.0026172,-0.024088,-0.012062,-0.013401
-0.018041,-0.010536,-0.043561,-0.0069823,-0.016126,0.010853,-0.035323,0.013341,-0.0072854,-0.014741,-0.034289,-0.042128,0.010887,-0.013359,-0.01271,0.0068791,0.0064603,-0.019082,-0.014898,0.035166,-0.0060065,-0.020738,-0.0083535,-0.016762
-0.017053,-0.0058312,-0.036979,-0.0064805,-0.020709,0.010012,-0.03611,0.0026467,-0.013325,-0.018346,-0.03914,-0.043961,0.0095949,-0.0079231,-0.028123,-0.0023511,0.0052507,-0.018977,-0.014469,0.039012,-0.0095015,-0.020543,-0.0039926,-0.022161
-0.013714,-0.0051339,-0.03298,-0.0020094,-0.020901,0.0055713,-0.039694,-0.017016,-0.016329,-0.023361,-0.041482,-0.04761,0.0046887,-0.006877,-0.038532,-0.012745,0.0017127,-0.016364,-0.010253,0.042161,-0.011291,-0.02249,-0.00074307,-0.02829
-0.0096609,-0.0081477,-0.031892,0.0029191,-0.017175,-0.00052849,-0.042656,-0.039632,-0.013812,-0.025721,-0.038823,-0.050787,-0.0016115,-0.010316,-0.042005,-0.021284,-3.3586e-006,-0.013357,-0.0042716,0.041942,-0.010648,-0.023825,0.00025112,-0.03274
-0.0072074,-0.012352,-0.032199,0.0052565,-0.012623,-0.0060824,-0.041985,-0.056945,-0.0071743,-0.023414,-0.032615,-0.051574,-0.0063937,-0.015759,-0.041474,-0.02667,0.00251,-0.012313,-0.0002141,0.037417,-0.008331,-0.022418,-0.0010114,-0.034064
-0.0071161,-0.014918,-0.031983,0.0050398,-0.010533,-0.010003,-0.037829,-0.063869,-0.00064515,-0.017952,-0.026941,-0.050272,-0.0076666,-0.019405,-0.041245,-0.028886,0.0079455,-0.014217,6.1977e-005,0.030085,-0.0056894,-0.018723,-0.0034706,-0.033135
-0.0080781,-0.01445,-0.03062,0.0053321,-0.012018,-0.012608,-0.033529,-0.062072,0.0016586,-0.012795,-0.024966,-0.049454,-0.005216,-0.018662,-0.043011,-0.028448,0.012521,-0.0183,-0.0015048,0.022636,-0.0034003,-0.015608,-0.0055778,-0.03245
-0.0083822,-0.01153,-0.02914,0.0094895,-0.015505,-0.014758,-0.032912,-0.058426,-0.0016752,-0.01027,-0.026476,-0.051741,-0.00044572,-0.014083,-0.044947,-0.026412,0.013216,-0.023001,-0.00084128,0.016987,-0.0010555,-0.016153,-0.00611,-0.033961
-0.007864,-0.0080414,-0.028783,0.018126,-0.018245,-0.016767,-0.037157,-0.059135,-0.0087492,-0.009727,-0.028645,-0.057064,0.0044055,-0.0089783,-0.044226,-0.024722,0.010177,-0.027152,0.0043055,0.013256,0.0020647,-0.021206,-0.0048195,-0.037413
-0.0079369,-0.0059311,-0.029075,0.028412,-0.018435,-0.018083,-0.043752,-0.064235,-0.015789,-0.0085007,-0.029086,-0.06207,0.0071822,-0.0068882,-0.03999,-0.025641,0.0063382,-0.030225,0.011788,0.010288,0.0058324,-0.028602,-0.0024717,-0.040756
-0.009653,-0.0061702,-0.027528,0.036246,-0.016276,-0.017916,-0.048262,-0.067239,-0.019397,-0.0047086,-0.028209,-0.062568,0.0066058,-0.0089998,-0.033832,-0.030059,0.0047919,-0.031722,0.01646,0.0070337,0.0088888,-0.034582,-0.00016133,-0.042178
-0.011997,-0.0084112,-0.021689,0.039306,-0.013382,-0.016115,-0.047334,-0.060522,-0.018239,0.00073203,-0.028712,-0.057097,0.0027813,-0.013592,-0.027693,-0.036077,0.0062937,-0.030834,0.014572,0.003522,0.0094853,-0.036257,0.0016011,-0.041773
-0.012489,-0.011392,-0.011879,0.038399,-0.011262,-0.013456,-0.040694,-0.042108,-0.013483,0.0047654,-0.032755,-0.048511,-0.0028336,-0.017695,-0.02179,-0.039676,0.0089382,-0.027187,0.0072954,0.00077844,0.0068976,-0.033298,0.0032504,-0.041212
-0.0097015,-0.013762,-0.0018812,0.036245,-0.010158,-0.011114,-0.030929,-0.018152,-0.0080835,0.0049734,-0.039482,-0.042053,-0.0081292,-0.019214,-0.014888,-0.037568,0.010005,-0.022043,0.00010479,-6.469e-005,0.0022297,-0.027743,0.0056345,-0.041721
-0.0050784,-0.014807,0.0035518,0.035137,-0.0090097,-0.0098261,-0.021632,0.0010686,-0.0053653,0.0019227,-0.045186,-0.041432,-0.011407,-0.017699,-0.0064974,-0.030179,0.0081487,-0.018397,-0.0016555,0.0013037,-0.0021224,-0.022311,0.0090779,-0.042373
-0.0019306,-0.014671,0.0024954,0.035606,-0.0064058,-0.0094331,-0.015395,0.0084672,-0.0074064,-0.0011365,-0.046064,-0.046083,-0.012117,-0.013602,0.0015795,-0.022158,0.0041153,-0.019163,0.0028014,0.0039957,-0.0040157,-0.01865,0.012919,-0.040471
-0.0023162,-0.014034,-0.0024106,0.036856,-0.0017517,-0.0091609,-0.012811,0.0049604,-0.013772,-0.0010355,-0.041207,-0.051639,-0.010791,-0.0074026,0.0062491,-0.01966,-0.00027236,-0.024602,0.0091773,0.0062035,-0.0029713,-0.016762,0.015913,-0.033887
-0.0048456,-0.013547,-0.0060256,0.037966,0.004133,-0.0084251,-0.012675,-0.0017577,-0.021292,0.0025423,-0.033272,-0.053045,-0.0083879,0.00024067,0.0057963,-0.026346,-0.0035735,-0.031337,0.011919,0.0059051,-0.00038152,-0.015741,0.017048,-0.023263
-0.0057527,-0.013449,-0.0049025,0.038408,0.0093404,-0.0075398,-0.012887,-0.0030461,-0.025385,0.006793,-0.026281,-0.047822,-0.00573,0.0076425,0.0014902,-0.041074,-0.0053214,-0.034303,0.0089667,0.001715,0.0016432,-0.01486,0.016034,-0.012003
-0.0024053,-0.013595,2.746e-005,0.037581,0.01193,-0.0077089,-0.011515,0.0050126,-0.02263,0.00826,-0.022442,-0.037306,-0.0034867,0.012023,-0.0036539,-0.058864,-0.0056232,-0.030472,0.0032192,-0.0063836,0.0018895,-0.013959,0.013222,-0.0038655
0.0040943,-0.013785,0.0045531,0.034354,0.011101,-0.010111,-0.0076582,0.02006,-0.013165,0.0057992,-0.020679,-0.025422,-0.0024221,0.01101,-0.0078642,-0.074046,-0.0046518,-0.021437,-0.00044771,-0.016753,0.00087461,-0.01302,0.0093614,-0.00016054
0.009838,-0.014081,0.0049192,0.027661,0.0077605,-0.014624,-0.0018996,0.036262,-0.0011545,0.0014078,-0.018018,-0.01612,-0.0033191,0.0047614,-0.012401,-0.083041,-0.0026965,-0.012577,0.00029316,-0.026602,0.00030073,-0.011673,0.0055768,0.0010678
0.011793,-0.014802,0.00080799,0.017887,0.004058,-0.019263,0.0038728,0.048546,0.0074298,-0.0017004,-0.012537,-0.011138,-0.006412,-0.0032934,-0.020215,-0.085027,-0.00046589,-0.0092944,0.0033056,-0.033283,0.0016364,-0.0094162,0.0033744,0.0031959
0.010698,-0.016144,-0.0048942,0.0076267,0.002062,-0.021129,0.0073438,0.055122,0.0085029,-0.0018954,-0.0052791,-0.0092244,-0.010878,-0.0081759,-0.032555,-0.080847,0.0011028,-0.013185,0.0042624,-0.035747,0.0049742,-0.00636,0.0041507,0.0081589
0.010275,-0.017741,-0.0089446,0.00064747,0.002414,-0.018493,0.0070144,0.057292,0.0024862,-0.00026679,0.00050962,-0.0071436,-0.015079,-0.0065493,-0.046693,-0.071855,0.001598,-0.021095,0.00077697,-0.035153,0.0089827,-0.0036262,0.0081931,0.014978
0.013378,-0.018614,-0.010393,-0.00054782,0.0039396,-0.012408,0.0031161,0.057682,-0.006089,0.00077277,0.0021057,-0.0018776,-0.017562,0.0010086,-0.057089,-0.05979,0.0016138,-0.027638,-0.0054756,-0.033987,0.011825,-0.002748,0.014003,0.020721
0.018758,-0.017747,-0.010769,0.0032992,0.0046223,-0.0062939,-0.00244,0.058483,-0.011724,-5.1089e-005,-0.00037282,0.007252,-0.018004,0.010419,-0.05926,-0.047133,0.0022178,-0.029049,-0.010411,-0.034198,0.012228,-0.0044762,0.018865,0.022795
0.021686,-0.014944,-0.012048,0.0084546,0.0033085,-0.0034882,-0.0071367,0.06041,-0.011486,-0.0016455,-0.0040243,0.017957,-0.01725,0.016877,-0.053114,-0.03664,0.0038211,-0.02538,-0.011172,-0.035768,0.010001,-0.0080556,0.020556,0.020559
0.018118,-0.011263,-0.014573,0.010709,0.00080733,-0.0046822,-0.009288,0.062325,-0.0064054,-0.001559,-0.0054882,0.026452,-0.016415,0.017884,-0.042927,-0.029768,0.0057329,-0.019648,-0.0083638,-0.036909,0.0059483,-0.011627,0.018886,0.015185
0.0086579,-0.0085006,-0.016816,0.0082589,-0.00062296,-0.007496,-0.0088863,0.061566,9.9402e-006,0.0018139,-0.0035023,0.030116,-0.015964,0.014409,-0.034027,-0.025382,0.0070722,-0.015083,-0.0051,-0.035784,0.0015381,-0.013354,0.015656,0.0083997
-0.0014185,-0.0080015,-0.016915,0.002639,0.0008563,-0.0086541,-0.0072975,0.055241,0.0046083,0.0077954,0.00046735,0.029366,-0.015626,0.0096311,-0.029025,-0.020445,0.0081186,-0.0129,-0.0041102,-0.032232,-0.001475,-0.012301,0.012957,0.0014887
-0.0063432,-0.0097391,-0.014382,-0.0029914,0.0049315,-0.0068341,-0.0060694,0.042235,0.006492,0.013849,0.0039304,0.027211,-0.015122,0.0065243,-0.026621,-0.012684,0.010409,-0.012194,-0.0056113,-0.0279,-0.0016398,-0.008518,0.011287,-0.0047597
-0.0046289,-0.012456,-0.010497,-0.0066554,0.009096,-0.0036045,-0.0057646,0.024704,0.0067792,0.017328,0.0057527,0.026832,-0.01479,0.0061186,-0.023666,-0.0029974,0.015038,-0.011513,-0.0075346,-0.024623,0.0013201,-0.0026585,0.0091841,-0.0096997
-0.00019765,-0.014733,-0.0073087,-0.0089564,0.010523,-0.0016719,-0.0056872,0.0076053,0.0069298,0.017073,0.007001,0.029199,-0.015362,0.0074436,-0.018398,0.0048505,0.020683,-0.010368,-0.0074127,-0.02255,0.0058728,0.0042577,0.0047422,-0.012916
0.0011865,-0.015998,-0.0063033,-0.0119,0.008379,-0.0022247,-0.0046625,-0.0039098,0.0073413,0.013809,0.0094973,0.03274,-0.017122,0.0087635,-0.012037,0.0074334,0.02365,-0.0093232,-0.0040471,-0.01988,0.0091189,0.010801,-0.002346,-0.014856
-0.0029644,-0.016572,-0.0077686,-0.016375,0.0045732,-0.0039485,-0.0021768,-0.0075755,0.0073522,0.0093729,0.0135,0.035218,-0.019398,0.0089429,-0.0075594,0.0050454,0.020581,-0.0089232,0.0022091,-0.014589,0.0085036,0.01529,-0.010015,-0.017184
-0.0097439,-0.016836,-0.01099,-0.020811,0.0021625,-0.0045486,0.0011001,-0.0051984,0.0063442,0.0055711,0.016833,0.035978,-0.020993,0.0080348,-0.0069223,0.0020301,0.011782,-0.0088145,0.010219,-0.0065674,0.0037554,0.016516,-0.015039,-0.022047
-0.013599,-0.01649,-0.014724,-0.022382,0.0027044,-0.0031109,0.0038479,-0.0009911,0.0046649,0.0034243,0.016523,0.036475,-0.021098,0.0069777,-0.0091492,0.003414,0.0020234,-0.0080516,0.018809,0.0019003,-0.0025799,0.014673,-0.015287,-0.030428
-0.011441,-0.014768,-0.017505,-0.019698,0.0048568,-0.00089564,0.0051824,0.0016197,0.0033951,0.0030334,0.01166,0.038643,-0.019719,0.0068683,-0.010853,0.010658,-0.002446,-0.0062268,0.026894,0.0079005,-0.0067387,0.011547,-0.01126,-0.040819
-0.0055087,-0.011421,-0.017897,-0.014427,0.0055331,0.00014835,0.0053053,0.0021927,0.0031915,0.0038767,0.0048258,0.042691,-0.01728,0.0083022,-0.0087614,0.020318,0.001381,-0.0041232,0.033288,0.010319,-0.0064064,0.0094681,-0.0057532,-0.049464
-0.0013992,-0.0074302,-0.014989,-0.010277,0.0026854,-0.00046254,0.005152,0.0029238,0.0033994,0.0052566,0.00055464,0.046408,-0.014052,0.011015,-0.0022941,0.026877,0.010687,-0.003065,0.036812,0.010714,-0.0023445,0.0096437,-0.0018903,-0.052358
-0.0030473,-0.0045439,-0.0090801,-0.010194,-0.0026987,-0.0011387,0.0054487,0.0063318,0.0024426,0.006693,0.0018825,0.04671,-0.010238,0.013906,0.0057901,0.027249,0.018727,-0.0035342,0.036879,0.011909,0.002332,0.011286,-0.00093944,-0.04778
-0.0091458,-0.0038855,-0.0019157,-0.014249,-0.0071715,0.00026823,0.0061494,0.012984,-0.00069276,0.008109,0.007941,0.042163,-0.006639,0.015529,0.01123,0.023046,0.019863,-0.0044859,0.034092,0.015726,0.0045721,0.012466,-0.0014944,-0.037612
-0.014183,-0.0048389,0.004046,-0.019906,-0.0075536,0.004365,0.0067912,0.020926,-0.0051954,0.0096942,0.014769,0.034416,-0.0048504,0.014976,0.011323,0.018835,0.01371,-0.004188,0.030239,0.021973,0.0034858,0.012091,-0.00067048,-0.026374
-0.013175,-0.0053202,0.0070516,-0.024218,-0.0035446,0.009552,0.0073046,0.026952,-0.0086595,0.011498,0.018671,0.027328,-0.0062596,0.012705,0.0069712,0.018265,0.0051174,-0.0018803,0.02753,0.029325,0.00054803,0.011192,0.0034742,-0.01849
-0.0059674,-0.0033689,0.0070896,-0.025918,0.0019459,0.013332,0.008292,0.028598,-0.0088023,0.013059,0.019112,0.024374,-0.010465,0.010547,0.0021128,0.021579,0.00014169,0.0013593,0.02747,0.036837,-0.0019561,0.01212,0.010074,-0.015606
0.0025522,0.0012105,0.0056019,-0.025886,0.0049935,0.01429,0.010363,0.025499,-0.0052781,0.013469,0.018598,0.026212,-0.014774,0.01054,0.00082236,0.026381,0.0014772,0.003474,0.030071,0.044331,-0.0027406,0.016188,0.015687,-0.015811
0.0064008,0.0065682,0.0040648,-0.02608,0.0035804,0.013003,0.013213,0.019455,-3.4918e-005,0.011982,0.019842,0.030194,-0.015732,0.013253,0.0042478,0.030378,0.0069902,0.0032815,0.033863,0.051425,-0.0021564,0.021945,0.016654,-0.015331
0.0032278,0.010198,0.0027525,-0.028146,-0.0010457,0.011332,0.015564,0.013376,0.0040523,0.0087986,0.023094,0.032271,-0.011734,0.017014,0.0098356,0.033295,0.012225,0.0015835,0.036678,0.056635,-0.0014293,0.025999,0.011916,-0.011459
-0.0040302,0.010879,0.00092695,-0.032605,-0.0055067,0.010961,0.016282,0.0097468,0.0050417,0.005374,0.026165,0.030023,-0.0044271,0.019028,0.013585,0.036372,0.0144,0.00046852,0.036787,0.058006,-0.0014003,0.025982,0.0040634,-0.0045844
-0.0096745,0.0095348,-0.0016765,-0.038565,-0.0068807,0.012454,0.015667,0.0094286,0.0027815,0.0038016,0.026879,0.024639,0.0025127,0.017755,0.013544,0.040385,0.014419,0.0014786,0.033799,0.054988,-0.0018547,0.022982,-0.0023616,0.002111
-0.0096327,0.0082935,-0.0036055,-0.043668,-0.0046924,0.015274,0.015535,0.011374,-0.0015814,0.0055208,0.025281,0.020252,0.0063143,0.014518,0.011533,0.044352,0.015408,0.0043904,0.028868,0.049614,-0.0018634,0.020941,-0.004103,0.0049764
-0.0041346,0.0085715,-0.0021989,-0.044518,-0.00090595,0.018319,0.017727,0.013435,-0.0065311,0.010183,0.023303,0.020904,0.0071542,0.012668,0.011459,0.046144,0.019344,0.0077149,0.024088,0.045392,-0.00072156,0.02321,-0.0014809,0.0024434
0.0031787,0.0098878,0.0042676,-0.038184,0.0018483,0.020384,0.022325,0.013819,-0.010619,0.015575,0.022378,0.027272,0.0074528,0.014713,0.015531,0.044288,0.02486,0.010296,0.021303,0.044521,0.0013262,0.029272,0.0020695,-0.004009
0.0085403,0.010495,0.014638,-0.024466,0.0022877,0.02048,0.027308,0.012361,-0.01251,0.01885,0.02168,0.035689,0.0091462,0.019844,0.021786,0.039251,0.028087,0.012326,0.020982,0.045895,0.0031675,0.034781,0.0028212,-0.01098
0.01082,0.0092976,0.02507,-0.007234,0.0011939,0.018279,0.0302,0.010822,-0.011401,0.018345,0.018943,0.040379,0.011602,0.024216,0.025396,0.033167,0.025768,0.014777,0.021834,0.04591,0.003677,0.035152,-0.00030771,-0.015342
0.011671,0.0073167,0.031499,0.0069991,0.00044246,0.014669,0.030302,0.011929,-0.0079388,0.014691,0.013063,0.037353,0.012239,0.024034,0.022928,0.028424,0.018,0.017929,0.021588,0.041572,0.0026859,0.029597,-0.0049789,-0.01588
0.013377,0.0072532,0.032459,0.013107,0.0013001,0.011777,0.029424,0.017621,-0.0045865,0.010313,0.0057326,0.027068,0.009279,0.018868,0.015851,0.026306,0.0083868,0.020674,0.018582,0.033198,0.0012331,0.021954,-0.0073167,-0.013396
0.016587,0.011331,0.029899,0.011159,0.0034332,0.011903,0.030302,0.027425,-0.0043605,0.0076028,0.00031417,0.013873,0.0039379,0.012273,0.0099098,0.026595,0.001556,0.02147,0.013164,0.024255,0.00075905,0.017505,-0.0048731,-0.0095098
0.019879,0.019185,0.027359,0.0066044,0.0053721,0.015747,0.034087,0.03804,-0.0084131,0.0071716,-0.0010017,0.0028404,-0.00014175,0.0090391,0.01052,0.028111,1.5967e-005,0.020096,0.0078125,0.018493,0.001788,0.01861,0.001619,-0.005203
0.021282,0.027692,0.027085,0.0060925,0.00592,0.021347,0.039271,0.044704,-0.014564,0.0076134,0.0010291,-0.0034238,0.00019455,0.01142,0.017985,0.029519,0.0027446,0.018406,0.0056936,0.016992,0.0032151,0.023001,0.0089076,-0.00020929
0.020152,0.033074,0.028497,0.01204,0.0052409,0.025031,0.043132,0.043958,-0.018559,0.0070016,0.0037059,-0.0055751,0.0049971,0.017543,0.026838,0.029794,0.0063835,0.019093,0.0085237,0.017741,0.0029784,0.026091,0.013599,0.0064194
0.017694,0.033655,0.02913,0.020535,0.0047203,0.0241,0.044427,0.036266,-0.017457,0.0048286,0.0050876,-0.0056899,0.011244,0.023281,0.030169,0.0283,0.007895,0.02338,0.015284,0.017932,-0.00021856,0.025034,0.014368,0.015103
0.015822,0.030957,0.027046,0.02454,0.0057886,0.019203,0.044741,0.026572,-0.012289,0.0026779,0.0056996,-0.004768,0.015397,0.025761,0.025433,0.024815,0.0065624,0.029638,0.022784,0.016638,-0.0054788,0.020844,0.012494,0.024914
0.015518,0.0282,0.022563,0.019783,0.0087386,0.014173,0.047093,0.021831,-0.0074487,0.0030143,0.0076408,-0.0019613,0.01608,0.025377,0.016788,0.019792,0.003963,0.03426,0.027703,0.015314,-0.0098814,0.01692,0.010648,0.033916
0.01614,0.027491,0.0179,0.0084047,0.012452,0.013127,0.052929,0.026664,-0.0070461,0.0071367,0.012098,0.0038221,0.014556,0.024696,0.011896,0.014653,0.0022676,0.034242,0.028579,0.015799,-0.01035,0.015709,0.011117,0.040477
0.016125,0.028205,0.015207,-0.0026093,0.015108,0.017062,0.060247,0.04002,-0.011336,0.014029,0.017782,0.011592,0.012811,0.025605,0.01586,0.011566,0.0024644,0.029477,0.026331,0.017956,-0.0058981,0.01677,0.014723,0.044518
0.014365,0.02796,0.014778,-0.0066675,0.015223,0.022926,0.064737,0.055482,-0.01638,0.020987,0.021794,0.01772,0.011303,0.027546,0.027299,0.012378,0.0039056,0.022955,0.023091,0.019429,0.0015128,0.017854,0.020795,0.047518
0.011118,0.025247,0.014998,-0.0020977,0.01237,0.026075,0.063161,0.065348,-0.017314,0.025368,0.022048,0.018168,0.0085716,0.028445,0.039633,0.017231,0.0052524,0.01874,0.020471,0.017878,0.008238,0.017566,0.027694,0.051156
0.0078331,0.021172,0.013998,0.0073921,0.0073724,0.024081,0.056127,0.065708,-0.012411,0.026049,0.01895,0.011948,0.0030579,0.027199,0.046177,0.023966,0.0056962,0.019249,0.018615,0.013574,0.011427,0.016754,0.033368,0.055721
0.0061003,0.018646,0.011495,0.016023,0.0020949,0.018658,0.04782,0.058813,-0.0044717,0.023719,0.014877,0.0027599,-0.00465,0.025047,0.04473,0.0291,0.0053069,0.02385,0.016556,0.0097186,0.01081,0.017286,0.035963,0.059839
0.0064514,0.01973,0.0091301,0.019949,-0.0011415,0.014096,0.042754,0.051032,0.0015387,0.020175,0.012114,-0.0030337,-0.011382,0.024328,0.038246,0.029923,0.0044036,0.029621,0.013285,0.0098816,0.0084478,0.019622,0.03474,0.061935
0.0078211,0.023648,0.0089364,0.01904,-0.00057589,0.013699,0.042221,0.048122,0.0024596,0.017347,0.011274,-0.00092909,-0.013417,0.025794,0.031746,0.026142,0.0028474,0.033526,0.0085866,0.014616,0.0067475,0.021868,0.03091,0.062174
0.0081239,0.027317,0.011301,0.015881,0.0038006,0.017289,0.043371,0.051477,-0.00084585,0.016532,0.011529,0.0082771,-0.0094266,0.027265,0.028488,0.019727,0.00013546,0.034268,0.0031781,0.020244,0.0064651,0.021408,0.027465,0.062922
0.0057247,0.027908,0.014295,0.013501,0.0096888,0.021768,0.041711,0.057972,-0.0046524,0.017893,0.012105,0.019132,-0.0018841,0.025252,0.028344,0.013116,-0.0037887,0.032614,-0.0016439,0.021118,0.0063909,0.017572,0.027467,0.066969
0.00083326,0.025065,0.015085,0.013625,0.013389,0.023961,0.034907,0.063019,-0.005595,0.020319,0.013276,0.025945,0.0043866,0.018365,0.028947,0.007282,-0.0079365,0.030254,-0.0044675,0.013829,0.0049402,0.012657,0.031739,0.074863
-0.0043409,0.020898,0.012278,0.016172,0.012062,0.023178,0.024756,0.064031,-0.0030878,0.021909,0.015788,0.027337,0.0055326,0.0094181,0.027996,0.0012203,-0.010655,0.028373,-0.0042085,0.00018943,0.002152,0.010176,0.037924,0.083795
-0.0070532,0.017975,0.0071794,0.019647,0.005922,0.021392,0.015754,0.061669,0.00086463,0.021131,0.019472,0.027033,0.001339,0.0040269,0.024781,-0.0069319,-0.010762,0.027051,-0.00059476,-0.013347,0.00015507,0.011861,0.042085,0.089294
-0.0061075,0.017286,0.0028915,0.021862,-0.0014358,0.021166,0.011573,0.0584,0.0038213,0.018038,0.022806,0.030195,-0.0048303,0.0064571,0.020233,-0.018246,-0.0084302,0.025776,0.0054437,-0.019606,0.0014799,0.016164,0.041768,0.088532
-0.0028189,0.017922,0.0020346,0.020776,-0.0052289,0.023306,0.012423,0.056114,0.0048546,0.014472,0.024227,0.038618,-0.0087502,0.015984,0.016021,-0.032019,-0.005013,0.02434,0.011886,-0.015356,0.0066033,0.019616,0.037907,0.082475
7.8522e-005,0.018394,0.0049343,0.015399,-0.0028115,0.026258,0.015365,0.054902,0.0047515,0.012819,0.023967,0.049097,-0.0085241,0.02687,0.013516,-0.045785,-0.0020236,0.023275,0.016492,-0.0035643,0.012997,0.019797,0.033775,0.075019
0.00068418,0.018101,0.0095725,0.0064932,0.0043834,0.027614,0.017063,0.053684,0.0047925,0.014126,0.024301,0.056391,-0.0056956,0.032271,0.013088,-0.055983,-0.0002257,0.023468,0.018052,0.0083737,0.016773,0.017253,0.031896,0.069877
-0.00068405,0.017621,0.013093,-0.0034132,0.011885,0.026276,0.016477,0.051633,0.0056057,0.017163,0.027488,0.057941,-0.0034711,0.029167,0.013922,-0.05902,0.00039752,0.025352,0.017141,0.013418,0.015724,0.014783,0.031795,0.067881
-0.0022208,0.017843,0.013606,-0.010976,0.015454,0.023371,0.015245,0.048906,0.007065,0.019379,0.033155,0.055924,-0.0036858,0.020485,0.014515,-0.05282,-2.1689e-005,0.028292,0.015691,0.0095882,0.011151,0.014839,0.030722,0.066903
-0.0026751,0.018992,0.01115,-0.013597,0.013991,0.021157,0.015696,0.046144,0.0088472,0.019043,0.0378,0.054836,-0.0052115,0.012691,0.013798,-0.038477,-0.0017061,0.030618,0.015612,0.0013633,0.0068139,0.017418,0.026616,0.064156
-0.0026054,0.02048,0.0074827,-0.010735,0.009838,0.021002,0.018479,0.043539,0.010697,0.016777,0.037354,0.057013,-0.0052162,0.010736,0.012211,-0.020797,-0.0048836,0.030341,0.017449,-0.0033966,0.0058286,0.020199,0.020418,0.058672
-0.0035755,0.021496,0.0050482,-0.0041261,0.0064543,0.022258,0.021969,0.040581,0.012186,0.015125,0.030767,0.060396,-0.002082,0.014375,0.011718,-0.0064812,-0.00898,0.026254,0.020048,0.00091555,0.0081579,0.020665,0.015454,0.051841
-0.0061685,0.021648,0.0056833,0.0032578,0.0056268,0.023069,0.023874,0.036723,0.012686,0.016493,0.021405,0.060596,0.0027902,0.018793,0.014383,-0.00034844,-0.012383,0.018909,0.021362,0.01339,0.010837,0.018283,0.014487,0.045893
-0.0089665,0.021106,0.0095861,0.0088469,0.006533,0.022316,0.023436,0.032127,0.012084,0.021159,0.014797,0.055196,0.0060974,0.018943,0.02043,-0.0020525,-0.013358,0.010776,0.019731,0.026896,0.010625,0.014969,0.017243,0.041959
-0.0096932,0.020354,0.015084,0.011672,0.0071357,0.020829,0.022146,0.027571,0.011559,0.026927,0.014542,0.046255,0.0057163,0.013944,0.027498,-0.0061369,-0.011463,0.0051972,0.014807,0.032896,0.0066856,0.013566,0.020728,0.039446
-0.0074739,0.019915,0.019523,0.012433,0.0062931,0.020637,0.02232,0.023569,0.013124,0.030656,0.019797,0.038807,0.002815,0.0078667,0.032049,-0.0059162,-0.008074,0.0044182,0.0077252,0.027364,0.001055,0.015654,0.021918,0.036974
-0.0039395,0.020221,0.020945,0.012575,0.0045519,0.022872,0.024837,0.01975,0.017691,0.0304,0.026277,0.036896,0.0008432,0.0062705,0.031991,0.0015646,-0.0052765,0.0079487,0.00067154,0.013481,-0.0032176,0.020334,0.020222,0.033749
-0.0019571,0.021438,0.019466,0.013122,0.0031007,0.026335,0.02809,0.015371,0.023269,0.026594,0.029695,0.040689,0.0022277,0.011452,0.02836,0.013427,-0.0039881,0.01262,-0.0039304,-0.00072633,-0.0043799,0.024733,0.017495,0.0301
-0.0030905,0.023202,0.017166,0.014069,0.0022011,0.028219,0.029118,0.010522,0.025476,0.021567,0.028639,0.04687,0.0059433,0.020389,0.024515,0.023431,-0.0031194,0.014679,-0.0044195,-0.0078236,-0.0027757,0.025772,0.015814,0.026902
-0.0061685,0.024497,0.01638,0.014566,0.00080732,0.026576,0.025986,0.0066235,0.020665,0.017891,0.024793,0.051429,0.0084364,0.027057,0.023475,0.026959,-0.00075574,0.012542,-0.00083827,-0.0053385,0.00012487,0.022041,0.015366,0.024608
-0.0083146,0.02403,0.017679,0.013615,-0.002234,0.022333,0.019436,0.0052819,0.0093061,0.016832,0.020861,0.052181,0.0071494,0.027139,0.025594,0.024415,0.0036229,0.0080118,0.0047343,0.003837,0.0031146,0.014724,0.014491,0.022773
-0.0074834,0.021078,0.019357,0.010818,-0.0066497,0.018933,0.012519,0.0063128,-0.0035397,0.017846,0.018284,0.049166,0.0032308,0.021237,0.028514,0.020437,0.0080754,0.0047917,0.0090098,0.01458,0.005675,0.0070982,0.011725,0.020344
-0.0041841,0.016225,0.019002,0.0067811,-0.010461,0.01967,0.0085072,0.0069152,-0.011543,0.01928,0.016568,0.043391,0.00065845,0.014082,0.029266,0.01987,0.0095723,0.0054031,0.0093627,0.02323,0.0073738,0.0028649,0.0076868,0.01638
-0.00090092,0.011334,0.015845,0.0029758,-0.011359,0.024845,0.0087097,0.0032619,-0.01171,0.019572,0.014292,0.03567,0.0024701,0.010584,0.026616,0.023957,0.0067692,0.0090688,0.0056465,0.029069,0.007311,0.0041728,0.004861,0.010671
0.00012927,0.0086049,0.011689,0.00095417,-0.0085891,0.031149,0.011705,-0.0064233,-0.0064365,0.018082,0.010554,0.026696,0.0077087,0.012049,0.021723,0.029694,0.001616,0.01239,0.00048112,0.033179,0.0045253,0.01041,0.0053857,0.0039591
-0.001284,0.0092729,0.009419,0.0012209,-0.0037589,0.033854,0.014413,-0.019846,-0.0012853,0.015101,0.0056273,0.017829,0.012101,0.015537,0.016865,0.032502,-0.0018984,0.012209,-0.0025415,0.036417,-0.00088396,0.018505,0.0089594,-0.0022981
-0.0034108,0.012817,0.010396,0.0025423,0.00013022,0.030145,0.014198,-0.031613,-0.00045533,0.011314,0.0006039,0.011308,0.011883,0.016605,0.013622,0.02978,-0.00097648,0.0081765,-0.0015975,0.038484,-0.007069,0.02461,0.012907,-0.0065549
-0.0042983,0.017213,0.013141,0.0025628,0.00071318,0.021065,0.010635,-0.036691,-0.0037573,0.0073045,-0.0033404,0.0092119,0.0071372,0.013013,0.012089,0.022563,0.0035861,0.0028824,0.0018601,0.03857,-0.011101,0.026199,0.014416,-0.0080197
-0.0033652,0.020074,0.014604,-0.00025211,-0.0021088,0.010759,0.0058383,-0.033758,-0.0074,0.003501,-0.0053709,0.011897,0.0015082,0.0064064,0.011425,0.014319,0.0079997,-0.00031519,0.0042383,0.036539,-0.010782,0.023305,0.012876,-0.0072959
-0.0015649,0.019943,0.012879,-0.0046884,-0.0060644,0.003727,0.0030949,-0.025907,-0.0075288,0.00037055,-0.0050079,0.017283,-0.0012803,0.00086148,0.010764,0.0082052,0.0085976,0.00026937,0.0028456,0.033383,-0.0063508,0.01819,0.010145,-0.0062978
-0.00026508,0.01697,0.0088406,-0.0067697,-0.0080152,0.002169,0.0045564,-0.018328,-0.0033349,-0.0015451,-0.0021014,0.021806,-0.00066681,-0.00028297,0.0095149,0.0050956,0.0047529,0.0039331,-0.0016582,0.030575,-0.00069835,0.013757,0.0085438,-0.0072186
-6.5535e-005,0.01263,0.0052709,-0.0023175,-0.0061033,0.0050988,0.0094592,-0.01484,0.0026665,-0.0019121,0.0029212,0.022511,0.00074958,0.0032638,0.0070832,0.0037175,-0.00086637,0.0087571,-0.0055759,0.02899,0.0023106,0.011785,0.008563,-0.011029
-0.00053257,0.0088148,0.0044256,0.0095716,-0.0011148,0.0095265,0.014261,-0.015758,0.0069529,-0.00088937,0.0086993,0.01883,0.00016999,0.0088821,0.002862,0.0023767,-0.004701,0.013187,-0.0051123,0.028316,0.00044977,0.01213,0.0085371,-0.016553
-0.00076908,0.0069302,0.0063773,0.025072,0.0039536,0.012612,0.014924,-0.018258,0.0076423,0.00099116,0.013001,0.012753,-0.0025547,0.013173,-0.0030684,0.00054062,-0.0050531,0.016569,0.00050727,0.027361,-0.0051413,0.013294,0.0065921,-0.020979
-8.2998e-005,0.007509,0.0095111,0.037816,0.0059914,0.013281,0.0099341,-0.018607,0.0053599,0.0033153,0.013546,0.0072809,-0.0048974,0.014256,-0.009177,-0.0010386,-0.002844,0.018618,0.0083887,0.025007,-0.010506,0.013823,0.0029357,-0.021687
0.0017167,0.010286,0.012347,0.043269,0.0041336,0.012404,0.0017937,-0.014605,0.0020235,0.0061097,0.0092856,0.0042471,-0.0042586,0.012628,-0.012801,-0.0014804,-0.00013701,0.018921,0.014288,0.021148,-0.01152,0.013429,0.00017284,-0.018174
0.0042789,0.014373,0.014707,0.041713,0.00057388,0.011682,-0.0044068,-0.0068528,-0.0010545,0.0095181,0.0012583,0.0030859,-0.00054599,0.010315,-0.011835,-0.00088965,0.0017668,0.017283,0.015826,0.016957,-0.0068278,0.013003,0.0012008,-0.012587
0.0067271,0.018359,0.017199,0.037371,-0.00099222,0.012202,-0.0045012,0.0016689,-0.0040886,0.013036,-0.0077173,0.0013575,0.0036824,0.0092425,-0.0066049,-0.0003269,0.002834,0.014454,0.013871,0.014231,0.0011354,0.013536,0.0065483,-0.0083045
0.0079242,0.020571,0.019931,0.034524,0.001736,0.013693,0.0017542,0.0073387,-0.008197,0.015156,-0.014463,-0.0034191,0.0054789,0.010036,-0.00017548,-0.00077742,0.0033644,0.012125,0.011169,0.014171,0.0078809,0.01489,0.013572,-0.0075081
0.0072343,0.019832,0.0221,0.034165,0.0076959,0.014893,0.01054,0.0079851,-0.013995,0.014109,-0.017073,-0.011948,0.003974,0.011895,0.0035779,-0.0022221,0.0031209,0.011787,0.0097437,0.016444,0.010055,0.015542,0.018243,-0.0095298
0.0053903,0.016449,0.023012,0.034028,0.01312,0.014637,0.016798,0.0041908,-0.020683,0.0093815,-0.015736,-0.022524,0.0008871,0.013392,0.0028424,-0.0036976,0.0016739,0.013416,0.0094996,0.019298,0.0076212,0.013708,0.017976,-0.011311
0.0044789,0.012559,0.02334,0.031609,0.014424,0.012773,0.017765,-0.00098147,-0.026349,0.0027601,-0.01236,-0.031854,-0.0011675,0.013568,-0.0006399,-0.0041996,-0.00058321,0.015375,0.0090047,0.020711,0.0034127,0.0090329,0.013185,-0.0097051
0.0065369,0.011048,0.024988,0.027076,0.011034,0.010277,0.01448,-0.0037515,-0.029204,-0.0022851,-0.0094656,-0.036722,-0.00091357,0.012618,-0.0028792,-0.0035434,-0.0022881,0.015845,0.0073136,0.019733,0.00063532,0.0033993,0.006543,-0.0038702
0.011669,0.013465,0.029322,0.023365,0.0058085,0.0085531,0.010323,-0.0018277,-0.028726,-0.0027644,-0.0090595,-0.035578,0.00074333,0.011717,-0.00090487,-0.0024924,-0.0024198,0.014518,0.0048626,0.016928,0.00054271,-4.3736e-005,0.00090122,0.0041431
0.017475,0.01847,0.035362,0.023618,0.0026898,0.0084764,0.0080824,0.0043302,-0.025865,0.0016025,-0.011884,-0.029383,0.0018042,0.012132,0.0045764,-0.0021886,-0.0017823,0.012911,0.0026679,0.013655,0.0021853,0.00089903,-0.0022716,0.011131
0.02067,0.0224,0.039862,0.028576,0.0035083,0.0098228,0.0080945,0.011978,-0.022195,0.0078635,-0.017099,-0.021307,0.0010518,0.014253,0.0093803,-0.003381,-0.0027865,0.012866,0.00092982,0.010895,0.0041406,0.0056691,-0.0029643,0.015376
0.019691,0.021917,0.039644,0.036266,0.0065853,0.011417,0.0087908,0.017938,-0.018755,0.011601,-0.022427,-0.015239,-0.00098627,0.017335,0.0089249,-0.0058888,-0.0072488,0.01459,-0.0012538,0.0087192,0.0063067,0.011088,-0.0017428,0.01795
0.015951,0.016787,0.034397,0.043868,0.008285,0.011885,0.0087795,0.020625,-0.015472,0.0098532,-0.024934,-0.013582,-0.0027417,0.020151,0.0018563,-0.0085197,-0.014161,0.016125,-0.0046019,0.006743,0.0098785,0.013484,0.00086311,0.021509
0.012485,0.010351,0.027467,0.049647,0.0062159,0.010579,0.0083372,0.020994,-0.011573,0.0031723,-0.022399,-0.015517,-0.0032029,0.021947,-0.0086436,-0.0095704,-0.019825,0.014909,-0.0081464,0.0049878,0.015507,0.011278,0.0041522,0.027587
0.011241,0.0069967,0.023659,0.053173,0.001409,0.0081447,0.0089457,0.021867,-0.0065828,-0.0045949,-0.01467,-0.017176,-0.0028579,0.022759,-0.016944,-0.0078651,-0.020646,0.010118,-0.0093372,0.0041889,0.021586,0.0060759,0.0068251,0.034783
0.011585,0.0085659,0.02562,0.054122,-0.0023575,0.0062797,0.01149,0.026044,-0.0010477,-0.0086554,-0.0040399,-0.014204,-0.0030917,0.022829,-0.018852,-0.0038102,-0.016237,0.0037092,-0.0061027,0.0051976,0.024707,0.001446,0.0073131,0.039538
0.011364,0.01276,0.031716,0.051455,-0.0015692,0.0066942,0.015045,0.034322,0.0035896,-0.0062381,0.0058118,-0.0053467,-0.004625,0.021837,-0.014321,0.00044861,-0.0099092,-0.00084292,0.00085774,0.0079805,0.022269,0.00038096,0.005,0.038921
0.0093327,0.015059,0.037249,0.044198,0.0041266,0.0098607,0.017565,0.044614,0.0058898,0.001655,0.011771,0.0056818,-0.0065347,0.018999,-0.007009,0.002292,-0.0059701,-0.0010884,0.007848,0.011069,0.015017,0.0033685,0.0012756,0.033049
0.0063921,0.012581,0.03813,0.033125,0.011493,0.014503,0.017855,0.052816,0.0054335,0.010761,0.012854,0.012035,-0.006902,0.014103,-0.0012687,0.00062753,-0.006219,0.002692,0.010636,0.011954,0.006976,0.0084319,-0.00090419,0.025038
0.0044221,0.0065503,0.034052,0.021343,0.016071,0.018378,0.016796,0.055024,0.0032218,0.016055,0.010419,0.008535,-0.0045953,0.0084196,0.00094968,-0.0030201,-0.0088334,0.0079408,0.0077265,0.008298,0.002504,0.012861,0.00089564,0.018582
0.0040128,0.0012484,0.028557,0.012662,0.015387,0.019889,0.016452,0.049856,0.001161,0.014799,0.0070473,-0.0039757,-0.00053223,0.0042387,0.00095091,-0.0055078,-0.010575,0.011861,0.0016144,-0.00063854,0.002894,0.015102,0.0063722,0.015312
0.0035921,0.00045035,0.02602,0.008762,0.010455,0.019209,0.017791,0.039435,0.00093614,0.0083167,0.0049856,-0.018246,0.0028695,0.0031357,0.001593,-0.0045432,-0.010087,0.01322,-0.0031515,-0.013047,0.0055578,0.015366,0.012186,0.014206
0.0009823,0.0045019,0.028146,0.0075939,0.0045259,0.017896,0.019332,0.028304,0.0029818,0.0013042,0.0051103,-0.024891,0.0037139,0.0044812,0.0047435,-0.00051025,-0.0090493,0.012571,-0.0034885,-0.024756,0.0065285,0.014752,0.014246,0.013344
-0.0041539,0.010416,0.032889,0.0046777,0.00039274,0.017252,0.018282,0.020839,0.0062166,-0.0010902,0.006814,-0.018394,0.0023426,0.005767,0.010001,0.0040589,-0.010086,0.011137,0.00014066,-0.030813,0.0039587,0.013942,0.010936,0.012127
-0.0095341,0.014555,0.036506,-0.0034181,-0.0014156,0.016958,0.013288,0.018664,0.0087478,0.0033366,0.0086538,-0.00052915,0.0011255,0.0046878,0.015422,0.0069465,-0.013579,0.0097056,0.0047703,-0.027986,-0.00059148,0.012684,0.0045771,0.011771
-0.012071,0.015337,0.036693,-0.016073,-0.0022117,0.015361,0.006144,0.019696,0.0091174,0.012245,0.009322,0.02112,0.0023969,0.0011936,0.019248,0.0083416,-0.0167,0.008542,0.0079445,-0.016851,-0.0040839,0.010418,-0.00029823,0.013663
-0.010592,0.013817,0.034012,-0.028557,-0.0032607,0.011309,0.00056402,0.019486,0.0072636,0.02023,0.0084573,0.038198,0.0063352,-0.002365,0.02102,0.010536,-0.015867,0.0080023,0.0098401,-0.0019772,-0.0050291,0.0072918,-0.00047897,0.017341
-0.0068493,0.012167,0.030634,-0.035145,-0.0043789,0.0058342,-0.0010039,0.014081,0.0045136,0.022545,0.0068521,0.046422,0.010719,-0.0031764,0.021342,0.015492,-0.010349,0.0087435,0.012587,0.010333,-0.0045618,0.0044692,0.0035693,0.020328
-0.0038637,0.011841,0.027954,-0.033148,-0.0042879,0.001957,0.00050762,0.0026635,0.002596,0.018511,0.0058698,0.047034,0.012834,-0.00028721,0.020882,0.022652,-0.0034427,0.010978,0.017544,0.015536,-0.00468,0.0033604,0.0084812,0.020209
-0.0032472,0.012927,0.025564,-0.024881,-0.0021979,0.0025067,0.001899,-0.011741,0.0024049,0.012038,0.0064145,0.044422,0.011836,0.0047011,0.01974,0.029194,0.00020049,0.013529,0.023204,0.013262,-0.0057539,0.0044196,0.011008,0.01705
-0.0040062,0.014735,0.022397,-0.016107,0.0010469,0.0077082,0.0010337,-0.02396,0.0034686,0.0087245,0.0082674,0.042216,0.0094263,0.0090402,0.017719,0.032535,-0.0012539,0.014021,0.025834,0.0069817,-0.0061033,0.0066106,0.01046,0.013697
-0.0038083,0.016546,0.018579,-0.01218,0.0034262,0.014624,-0.00095136,-0.029679,0.0045204,0.01163,0.010429,0.040859,0.0082383,0.010978,0.015041,0.032673,-0.0051222,0.010611,0.022484,0.0012337,-0.004137,0.0080899,0.0085505,0.013412
-0.0013464,0.017799,0.015795,-0.014661,0.0034044,0.019009,-0.00091386,-0.027805,0.0046521,0.018946,0.012216,0.038191,0.0094371,0.010759,0.012672,0.032064,-0.0067169,0.0039606,0.01384,-0.0014118,-0.00069145,0.0075924,0.0072055,0.016886
0.0024205,0.017955,0.015604,-0.020689,0.0012881,0.018143,0.0026822,-0.020776,0.0040352,0.025457,0.014009,0.032113,0.011746,0.0098193,0.011907,0.03319,-0.0037992,-0.0025019,0.0043941,-0.0014513,0.0011418,0.0053786,0.0067272,0.021435
0.0051188,0.016655,0.017423,-0.025259,-0.00093517,0.012485,0.0075036,-0.012887,0.0035982,0.026668,0.016751,0.022912,0.012769,0.0091645,0.01358,0.03621,0.0012372,-0.0048032,-0.00040838,-0.0010866,-0.0011763,0.0029645,0.0060147,0.023268
0.0049252,0.014236,0.018413,-0.024533,-0.0011607,0.0051035,0.009036,-0.0079417,0.0040086,0.022291,0.020514,0.013338,0.01132,0.0085888,0.017559,0.038983,0.0035496,-0.0015905,0.0021133,-0.0018425,-0.0069127,0.0019147,0.00428,0.020826
0.0018731,0.01193,0.015777,-0.017924,0.0011295,-0.0003949,0.0049528,-0.0076849,0.0049591,0.016314,0.023632,0.0064884,0.0085716,0.0073919,0.022833,0.039309,0.00035838,0.0044731,0.010188,-0.003158,-0.012276,0.0027677,0.0022237,0.016185
-0.0024091,0.011184,0.0094779,-0.0078643,0.0043514,-0.0018234,-0.0020164,-0.011535,0.0054573,0.013642,0.023646,0.0034793,0.0069696,0.0057323,0.027976,0.037029,-0.0064316,0.0085975,0.019206,-0.0028487,-0.013594,0.0049735,0.0013779,0.013217
-0.0059809,0.012507,0.0027802,0.0021639,0.0058705,0.0008699,-0.0058379,-0.017232,0.004844,0.016187,0.01954,0.0029663,0.0079643,0.0050733,0.031638,0.033904,-0.011871,0.0077486,0.025244,0.0012404,-0.010556,0.0077296,0.0023643,0.014173
-0.007683,0.014934,-0.00015495,0.0097995,0.0038469,0.0061125,-0.0024106,-0.021825,0.0035246,0.021585,0.013267,0.0028539,0.010694,0.0070476,0.032897,0.031557,-0.01222,0.003286,0.027582,0.0097723,-0.0064793,0.010764,0.0039905,0.017734
-0.0073452,0.016802,0.0023355,0.014883,-0.0014255,0.011747,0.0063444,-0.022793,0.0026483,0.025456,0.0088143,0.0024685,0.012815,0.011681,0.031548,0.029756,-0.0078689,-7.472e-005,0.028224,0.021526,-0.0053715,0.014244,0.0042469,0.020182
-0.005379,0.017237,0.008013,0.019009,-0.0076065,0.01597,0.013499,-0.019285,0.0029846,0.025076,0.0092341,0.0030275,0.012646,0.016732,0.028272,0.026869,-0.0024654,0.0016873,0.029076,0.034023,-0.0084737,0.017966,0.002299,0.018555
-0.0024505,0.016954,0.01264,0.02406,-0.011761,0.017894,0.012757,-0.012948,0.004068,0.02134,0.014112,0.0059066,0.010625,0.019077,0.02446,0.021945,0.00055576,0.0082209,0.02952,0.04459,-0.013355,0.02079,-0.00049866,0.013038
0.00046936,0.017468,0.013596,0.030716,-0.012185,0.017659,0.0039696,-0.0074684,0.0044782,0.017559,0.019814,0.010451,0.008774,0.017189,0.021541,0.016142,0.00063912,0.014767,0.026763,0.051343,-0.01616,0.021133,-0.0016517,0.0066978
0.0020561,0.019414,0.012086,0.037946,-0.009351,0.016048,-0.0063482,-0.0064273,0.0030644,0.016438,0.022439,0.013683,0.0087691,0.012602,0.020154,0.011913,-0.00023527,0.015991,0.01876,0.053762,-0.014846,0.01826,0.0002564,0.0030462
0.0011193,0.021644,0.012032,0.043801,-0.0053335,0.013824,-0.010184,-0.010613,2.2241e-005,0.017959,0.020906,0.012523,0.01046,0.0089377,0.019827,0.010748,-7.9817e-006,0.010533,0.0069424,0.052648,-0.010591,0.013238,0.0042305,0.0035731
-0.0024218,0.022099,0.016603,0.046945,-0.0021874,0.011256,-0.0045785,-0.016949,-0.0031424,0.019777,0.01746,0.0066195,0.012136,0.009143,0.019544,0.011809,0.0016148,0.0023927,-0.004025,0.049433,-0.0064198,0.0085832,0.0076874,0.0070801
-0.0068892,0.01973,0.025349,0.04768,-0.00055673,0.0082527,0.0060077,-0.020418,-0.0047099,0.019434,0.015251,-0.00094087,0.01213,0.013255,0.01874,0.012883,0.0035653,-0.0020978,-0.0095886,0.04517,-0.0045164,0.0067479,0.008722,0.010956
-0.0094204,0.015568,0.034302,0.04757,0.00042534,0.0049661,0.013544,-0.017933,-0.0039336,0.016277,0.015361,-0.0059665,0.010186,0.018629,0.017785,0.012685,0.0051354,0.0007792,-0.0088635,0.039957,-0.0046056,0.0085681,0.0077633,0.013086
-0.0077694,0.011826,0.038849,0.047894,0.0019709,0.0021453,0.013152,-0.011055,-0.0013761,0.011623,0.016042,-0.0066115,0.0074147,0.022406,0.017446,0.01213,0.0068197,0.0093449,-0.0051251,0.033325,-0.0046013,0.012835,0.0071187,0.012981
-0.0021374,0.0098719,0.036951,0.048247,0.0043146,0.00071058,0.0069332,-0.0049777,0.0016941,0.0074757,0.014739,-0.0048414,0.0050844,0.023987,0.01786,0.01324,0.0093196,0.018082,-0.0027121,0.025391,-0.0027295,0.017202,0.0088252,0.011629
0.0045191,0.0090964,0.030192,0.046614,0.006452,0.00082528,0.0017309,-0.0042647,0.0041568,0.0051925,0.010792,-0.0045131,0.0035318,0.025293,0.01814,0.016814,0.011978,0.022023,-0.0031972,0.017709,0.00078859,0.019632,0.012752,0.010563
0.0082398,0.0078198,0.022205,0.04098,0.0071635,0.0014433,0.0029964,-0.0088127,0.0054508,0.005094,0.0061995,-0.0077675,0.0021388,0.028666,0.017105,0.021308,0.012657,0.020257,-0.0043932,0.012869,0.0038769,0.019384,0.016639,0.010892
0.0067394,0.0052486,0.016123,0.031177,0.0063388,0.0010165,0.010225,-0.013648,0.0054721,0.0068432,0.003824,-0.013035,0.00017786,0.03446,0.014478,0.024182,0.0095429,0.015875,-0.0030412,0.01289,0.0043639,0.017038,0.018005,0.012791
0.001014,0.002374,0.013158,0.019444,0.0053107,-0.0010692,0.017818,-0.012978,0.004385,0.0098092,0.0048687,-0.016507,-0.0024318,0.040571,0.011339,0.024463,0.0032186,0.012869,0.0015316,0.017633,0.001842,0.013878,0.016206,0.015532
-0.0053572,0.00082857,0.012958,0.0092577,0.0058042,-0.0036352,0.020265,-0.0051311,0.0026635,0.013059,0.0079819,-0.015745,-0.0051282,0.044227,0.0093362,0.023888,-0.0031618,0.01291,0.0064008,0.024615,-0.0019353,0.011198,0.01289,0.017997
-0.0086606,0.0009658,0.014714,0.0034673,0.0083984,-0.0044158,0.016796,0.0059036,0.0011966,0.015364,0.010612,-0.012106,-0.0072778,0.044148,0.0093808,0.025284,-0.006052,0.014623,0.0076798,0.030456,-0.0044536,0.0098798,0.010549,0.019368
-0.0073969,0.0013722,0.017668,0.0031509,0.011886,-0.0019696,0.011487,0.013719,0.0010663,0.01569,0.011119,-0.0097687,-0.0086248,0.04102,0.011034,0.029583,-0.0042607,0.015491,0.0042494,0.032819,-0.0044653,0.010231,0.010525,0.01961
-0.002903,0.00052945,0.020826,0.0077523,0.014142,0.0027408,0.0091682,0.014706,0.0029068,0.013939,0.0097129,-0.012229,-0.009225,0.036067,0.013021,0.034383,0.00011652,0.014311,-0.00098422,0.031295,-0.0029155,0.011922,0.012139,0.019352
0.0019605,-0.0010986,0.022853,0.015868,0.01379,0.0065561,0.011213,0.010736,0.0062648,0.01118,0.0076664,-0.019353,-0.00911,0.029532,0.014219,0.03571,0.0034004,0.012008,-0.0034644,0.026708,-0.0019299,0.014004,0.013478,0.019223
0.0048946,-0.0010138,0.022879,0.025727,0.011238,0.0062139,0.014963,0.0071656,0.0095573,0.0089077,0.0059263,-0.027475,-0.0081771,0.02087,0.01417,0.031618,0.0032426,0.010456,-0.00075283,0.01981,-0.0027098,0.015185,0.012967,0.019211
0.0055142,0.0028349,0.021629,0.035122,0.0082595,0.00088671,0.016813,0.0081795,0.010859,0.0078624,0.0045115,-0.032281,-0.0064481,0.010436,0.012873,0.024386,0.00038414,0.010757,0.005682,0.010707,-0.0042188,0.01439,0.010404,0.018696
0.0051837,0.0093296,0.021414,0.041422,0.0065365,-0.0067718,0.015625,0.01367,0.0091282,0.0075108,0.0030294,-0.031929,-0.0043458,0.00061289,0.010457,0.019084,-0.0020724,0.012652,0.01203,-0.00056958,-0.0039635,0.01141,0.0068515,0.017229
0.0056686,0.014179,0.024371,0.042324,0.0064461,-0.012045,0.013255,0.020107,0.005082,0.0067421,0.0014918,-0.028004,-0.0025757,-0.005306,0.0073006,0.019564,-0.001219,0.015334,0.015381,-0.013301,-0.00033349,0.0071782,0.003825,0.015349
0.0076693,0.01319,0.030247,0.037133,0.0070438,-0.011252,0.012182,0.024091,0.001016,0.0051185,0.00051079,-0.023916,-0.0016273,-0.0058142,0.0043761,0.025261,0.003261,0.018477,0.015728,-0.026214,0.005556,0.0033722,0.0025521,0.01453
0.010292,0.0060992,0.03587,0.027585,0.0070978,-0.0044543,0.013005,0.025077,-0.00049341,0.0034005,0.00076543,-0.022329,-0.0013391,-0.0028998,0.0030483,0.031616,0.0086268,0.022222,0.015242,-0.038454,0.010325,0.0015107,0.0036419,0.016102
0.01179,-0.0026489,0.037221,0.017293,0.0061707,0.0042256,0.014331,0.025036,0.0017119,0.002757,0.0023633,-0.023554,-0.00093194,-0.0007948,0.0040456,0.033696,0.010884,0.026178,0.015871,-0.050117,0.01094,0.0021201,0.0069683,0.019976
0.010973,-0.0071827,0.032576,0.0098981,0.0048622,0.0091141,0.014827,0.02598,0.006459,0.0034581,0.0046994,-0.025716,0.00051226,-0.0025485,0.0064173,0.029813,0.0076008,0.028721,0.017555,-0.06133,0.0073027,0.0045428,0.011566,0.024306
0.0081536,-0.0048575,0.024025,0.007083,0.0041626,0.0067739,0.014909,0.028075,0.010949,0.0044797,0.0068427,-0.026206,0.0034929,-0.0074334,0.0077266,0.022156,-0.00026705,0.027769,0.018457,-0.070556,0.0024976,0.0074685,0.015711,0.026516
0.0048652,0.0017591,0.015975,0.007813,0.0046089,-0.0015585,0.016121,0.030001,0.01278,0.0045697,0.0080425,-0.023321,0.007771,-0.011638,0.0057827,0.014278,-0.0089035,0.022642,0.016715,-0.074147,0.00031778,0.0097111,0.01751,0.02492
0.0025794,0.007226,0.011892,0.0093298,0.0059428,-0.010722,0.018853,0.030668,0.011846,0.0037311,0.0080102,-0.01717,0.01235,-0.011747,0.00063833,0.0081004,-0.014234,0.015321,0.012049,-0.068397,0.0021428,0.010641,0.015877,0.019697
0.0015254,0.0076821,0.01203,0.0091361,0.0074003,-0.015148,0.020939,0.030166,0.010511,0.00345,0.0069733,-0.0094393,0.015726,-0.0079126,-0.0050314,0.0031178,-0.014701,0.0096066,0.0059766,-0.052892,0.0058828,0.010103,0.011293,0.012534
0.00064646,0.0034741,0.013877,0.0064798,0.0082273,-0.012623,0.0189,0.029,0.011718,0.0051616,0.0056693,-0.0022257,0.016441,-0.0038236,-0.0078356,-0.002032,-0.012063,0.0085148,0.00072442,-0.032192,0.0079109,0.0081857,0.0056465,0.0053544
-0.0012575,-0.0020461,0.014576,0.0022652,0.0079809,-0.0055577,0.010957,0.026715,0.01644,0.0083699,0.0052989,0.0032922,0.013908,-0.0034959,-0.0064207,-0.0077686,-0.0095696,0.011968,-0.0021407,-0.013769,0.0062407,0.0052352,0.0011635,-0.00079912
-0.0042269,-0.0059357,0.013044,-0.002383,0.0065357,0.0010862,-0.00090989,0.021734,0.022639,0.010497,0.0072297,0.0074551,0.009062,-0.0077515,-0.0026282,-0.013504,-0.0090593,0.016782,-0.0024028,-0.0033375,0.0021198,0.0020946,-0.00087167,-0.0059651
-0.0068954,-0.0078654,0.010139,-0.0075347,0.004027,0.0034609,-0.011876,0.012889,0.026762,0.0090307,0.012289,0.011627,0.0041736,-0.013514,0.00015369,-0.018957,-0.0095335,0.019074,-0.0010135,-0.0013028,-0.001288,5.4314e-005,-0.00071152,-0.010613
-0.0075967,-0.0092862,0.0071949,-0.014475,0.00091708,0.0012188,-0.017545,0.0012147,0.026662,0.0041492,0.019888,0.017071,0.0015922,-0.016468,0.00011356,-0.024788,-0.0084662,0.01713,0.00055893,-0.0033764,-0.0017732,0.00018491,0.00028218,-0.014855
-0.0058893,-0.010934,0.0046193,-0.024178,-0.0019357,-0.0030205,-0.016951,-0.0099241,0.023451,-0.00083185,0.027673,0.024081,0.0021719,-0.014667,-0.0012195,-0.031339,-0.0046114,0.012418,0.00098324,-0.0048619,0.00018684,0.0024036,0.00067216,-0.018202
-0.0031118,-0.011586,0.0018593,-0.035555,-0.0035056,-0.0063139,-0.01293,-0.016858,0.020592,-0.0020333,0.03233,0.031867,0.0047113,-0.0099441,-0.00034832,-0.036749,0.00039143,0.0080528,-0.00046995,-0.0048157,0.0022927,0.0051636,-0.00019146,-0.02003
-0.0013902,-0.0094262,-0.0014781,-0.045175,-0.0032178,-0.0077706,-0.009711,-0.018318,0.020894,0.0014776,0.031465,0.038936,0.0070686,-0.0060739,0.0047375,-0.03698,0.0032513,0.0061526,-0.003673,-0.0063858,0.0028001,0.0063452,-0.0020287,-0.020328
-0.0019086,-0.0045008,-0.0046497,-0.049067,-0.0015728,-0.0088093,-0.0097648,-0.016605,0.024014,0.0065219,0.02538,0.043537,0.0080768,-0.0055192,0.012121,-0.028629,0.0020817,0.0063307,-0.0076678,-0.013155,0.001978,0.0048924,-0.0041956,-0.020081
-0.0039846,0.00050074,-0.0060323,-0.045434,-0.0001288,-0.01141,-0.012307,-0.016161,0.026722,0.0083381,0.017273,0.044122,0.0084666,-0.0077323,0.016905,-0.012405,-0.001515,0.0064096,-0.011086,-0.025023,0.0013286,0.001896,-0.0064503,-0.020809
-0.0058173,0.0021891,-0.0045069,-0.036204,-0.00052755,-0.016087,-0.014358,-0.020538,0.025812,0.0047393,0.011278,0.040104,0.0098093,-0.010381,0.014984,0.0061217,-0.003345,0.0045253,-0.012875,-0.037573,0.0016032,3.4334e-005,-0.0092671,-0.023461
-0.0062316,-0.00058276,-0.00081046,-0.026108,-0.0030833,-0.021285,-0.013303,-0.029962,0.021123,-0.001854,0.0096166,0.032726,0.012444,-0.012096,0.0064999,0.019756,0.00010864,0.00073859,-0.012923,-0.045562,0.0018199,0.0015504,-0.01337,-0.02747
-0.0057504,-0.0055926,0.0024048,-0.019827,-0.0061037,-0.024536,-0.0089615,-0.041256,0.015916,-0.0064702,0.011132,0.025075,0.014526,-0.013911,-0.003973,0.024565,0.0087223,-0.0031242,-0.012079,-0.047284,0.00032841,0.0062527,-0.018777,-0.030949
-0.0058979,-0.0090563,0.0021533,-0.019258,-0.0068385,-0.02426,-0.0037563,-0.050054,0.014135,-0.0059749,0.012593,0.020472,0.013406,-0.01784,-0.010737,0.022389,0.018493,-0.005103,-0.01144,-0.04571,-0.0032393,0.01123,-0.024184,-0.032207
-0.0073624,-0.0087477,-0.0026112,-0.022782,-0.0036992,-0.020776,-0.0010441,-0.053621,0.016884,-0.0018258,0.011745,0.0199,0.0082285,-0.023911,-0.011074,0.018882,0.024207,-0.0047483,-0.011369,-0.04534,-0.0072262,0.012751,-0.027383,-0.03153
-0.0088908,-0.0056516,-0.0097488,-0.026881,0.0019146,-0.01593,-0.0028877,-0.052296,0.021265,0.0013403,0.009313,0.020675,0.0012374,-0.028763,-0.0069066,0.018808,0.022982,-0.0034461,-0.011027,-0.047713,-0.009234,0.0090495,-0.026648,-0.031546
-0.0082396,-0.0027986,-0.014981,-0.028655,0.0059413,-0.011825,-0.0087928,-0.04877,0.022687,2.3565e-005,0.007979,0.018109,-0.0036926,-0.027779,-0.0029128,0.022539,0.016134,-0.0032481,-0.0089041,-0.049718,-0.0081604,0.0018388,-0.022109,-0.03537
-0.004516,-0.0024884,-0.01487,-0.027361,0.0043532,-0.0096628,-0.016154,-0.046028,0.018759,-0.0048639,0.0092059,0.0094233,-0.0041952,-0.019338,-0.0028757,0.026444,0.008221,-0.0052083,-0.0040083,-0.046204,-0.0050004,-0.0047721,-0.015979,-0.043711
0.00033399,-0.004421,-0.0096314,-0.024112,-0.0036614,-0.0094079,-0.021957,-0.04559,0.011452,-0.0087865,0.011092,-0.0033185,-0.0013912,-0.0073403,-0.0071812,0.02638,0.0040738,-0.0085287,0.0032581,-0.03443,-0.0017526,-0.0072706,-0.011367,-0.053432
0.0026217,-0.0062759,-0.0033627,-0.020464,-0.01468,-0.010246,-0.024476,-0.047096,0.0056802,-0.0077543,0.0096906,-0.014213,0.0011687,0.00089368,-0.013085,0.021022,0.005846,-0.011116,0.011291,-0.016376,0.00031353,-0.0053377,-0.010546,-0.059274
5.5049e-006,-0.0060395,-0.001079,-0.017293,-0.0233,-0.01131,-0.023867,-0.049053,0.0054834,-0.0020923,0.0029055,-0.018086,0.00069365,0.00022633,-0.01702,0.012361,0.011899,-0.011073,0.018421,0.0028944,0.0012829,-0.0019423,-0.013887,-0.057816
-0.0060685,-0.0039028,-0.0046884,-0.014715,-0.026013,-0.012115,-0.021486,-0.049864,0.010888,0.0036459,-0.0067318,-0.014836,-0.002422,-0.0078411,-0.016897,0.0034669,0.018121,-0.0079914,0.024031,0.018976,0.001704,-0.00080646,-0.020032,-0.050498
-0.010956,-0.0020581,-0.011308,-0.012591,-0.023527,-0.012475,-0.01878,-0.048461,0.017911,0.0045982,-0.013368,-0.0095655,-0.0051346,-0.016026,-0.012872,-0.0040761,0.020782,-0.0031529,0.028731,0.030455,0.0014138,-0.0033165,-0.026832,-0.042928
-0.010276,-0.002643,-0.015623,-0.010743,-0.019587,-0.012172,-0.016727,-0.044591,0.021571,-0.00015022,-0.012442,-0.0081852,-0.0046812,-0.017132,-0.0066473,-0.010805,0.019055,0.0014079,0.033548,0.038169,-0.00049032,-0.007489,-0.032253,-0.040639
-0.0034949,-0.0057173,-0.014471,-0.0086716,-0.017453,-0.010849,-0.01607,-0.039003,0.019491,-0.0067964,-0.0045266,-0.012342,-0.0011354,-0.010028,-0.00030888,-0.017938,0.015454,0.0041884,0.03892,0.042892,-0.0044711,-0.0098722,-0.034844,-0.044634
0.005433,-0.0090951,-0.0096474,-0.0054577,-0.017284,-0.0084236,-0.017626,-0.033441,0.013424,-0.010215,0.0051382,-0.018231,0.0027657,-0.00047527,0.0044394,-0.025622,0.013741,0.0049256,0.044231,0.04427,-0.0094942,-0.0086929,-0.033994,-0.050483
0.011003,-0.010199,-0.0062877,-0.00050809,-0.016775,-0.005686,-0.02186,-0.029994,0.0077405,-0.0084381,0.010989,-0.020314,0.0042832,0.0039843,0.0066017,-0.032576,0.015725,0.0043648,0.047957,0.042056,-0.013353,-0.0054238,-0.030183,-0.051881
0.010331,-0.0083025,-0.0081514,0.0052822,-0.014256,-0.0043459,-0.027854,-0.029779,0.0061911,-0.0041789,0.011311,-0.016419,0.0032757,0.00055642,0.0060852,-0.037154,0.019414,0.0034692,0.047953,0.03784,-0.014218,-0.0033633,-0.02503,-0.045821
0.0051728,-0.0051783,-0.014038,0.0092899,-0.011033,-0.0060103,-0.032835,-0.031819,0.009339,-0.0020879,0.0085236,-0.0095265,0.0023172,-0.0066672,0.0037828,-0.038418,0.020257,0.0027394,0.041796,0.034707,-0.012017,-0.0045791,-0.020755,-0.035086
0.00027202,-0.0035583,-0.018663,0.0087056,-0.01047,-0.01061,-0.033333,-0.033263,0.014389,-0.0043507,0.0057764,-0.0047954,0.004276,-0.010704,0.0012403,-0.036124,0.014802,0.0020143,0.027549,0.034436,-0.0084319,-0.008107,-0.019071,-0.026031
-0.00044792,-0.0047762,-0.017269,0.0030084,-0.014543,-0.015667,-0.027595,-0.031236,0.017342,-0.0087178,0.0036908,-0.0048561,0.0096343,-0.00799,-0.00016711,-0.030001,0.0039691,0.00067553,0.0051853,0.034854,-0.0055835,-0.011114,-0.020195,-0.023564
0.0033024,-0.0076917,-0.009827,-0.0047781,-0.021269,-0.017511,-0.017385,-0.025068,0.015822,-0.010742,0.00063,-0.0078395,0.015984,-0.0012593,-6.2312e-005,-0.019659,-0.0069575,-0.0019736,-0.02209,0.030465,-0.0046292,-0.011876,-0.022748,-0.027494
0.0084551,-0.0098729,-0.0010845,-0.0095905,-0.025797,-0.013991,-0.0073515,-0.017072,0.010591,-0.008048,-0.0040586,-0.0097274,0.020063,0.0033436,0.00075169,-0.0056982,-0.011984,-0.006253,-0.048016,0.016718,-0.0053368,-0.011611,-0.024698,-0.033107
0.011376,-0.0099672,0.0034905,-0.0078498,-0.02452,-0.0066092,-0.0020091,-0.011035,0.0048182,-0.0025926,-0.0077786,-0.008412,0.020414,0.0018848,0.00086933,0.0090762,-0.008993,-0.011628,-0.065617,-0.0053119,-0.0067214,-0.013289,-0.024681,-0.035219
0.010678,-0.0090722,0.002145,-0.00030007,-0.018543,-4.0392e-005,-0.0025435,-0.0095015,0.0017529,0.0011754,-0.0064892,-0.0054521,0.018288,-0.0042875,-0.00094324,0.020076,-0.0015113,-0.016482,-0.070631,-0.027992,-0.0079534,-0.018436,-0.022746,-0.032133
0.0078657,-0.00977,-0.0022073,0.008285,-0.013108,0.0010098,-0.0060577,-0.012008,0.0025278,0.00044658,0.0007378,-0.0040782,0.016174,-0.010514,-0.0053852,0.023351,0.0039366,-0.01856,-0.063748,-0.041316,-0.0087694,-0.025055,-0.020074,-0.026338
0.0056782,-0.013615,-0.0050641,0.012519,-0.013173,-0.0046881,-0.007968,-0.015641,0.0055625,-0.0034615,0.0091703,-0.0057505,0.015436,-0.013445,-0.012665,0.018272,0.0028287,-0.016198,-0.05002,-0.039411,-0.0092577,-0.028801,-0.018005,-0.021732
0.0057803,-0.019349,-0.004399,0.010342,-0.018899,-0.013882,-0.0056253,-0.017337,0.0078531,-0.0065607,0.011285,-0.0087522,0.015212,-0.013678,-0.022454,0.008057,-0.0040453,-0.0097012,-0.035778,-0.024527,-0.0094436,-0.026575,-0.017104,-0.020059
0.0077173,-0.023576,-0.0020496,0.0044084,-0.02514,-0.021262,-0.00020355,-0.015936,0.0071245,-0.0061103,0.0032475,-0.0099528,0.013426,-0.014152,-0.033538,-0.0025903,-0.011575,-0.0017795,-0.025136,-0.0055478,-0.0091248,-0.019365,-0.01687,-0.019639
0.009691,-0.023434,-0.0014539,-8.4153e-005,-0.025574,-0.023407,0.0046035,-0.012397,0.0033403,-0.0032143,-0.01084,-0.0076481,0.0088223,-0.016356,-0.043633,-0.010874,-0.014583,0.0036366,-0.018318,0.0078702,-0.0080748,-0.011732,-0.016176,-0.017252
0.010212,-0.018994,-0.0041047,0.00069658,-0.018075,-0.021094,0.0058208,-0.0083276,-0.0013815,-0.0016523,-0.021375,-0.0025883,0.0022113,-0.018452,-0.050015,-0.017541,-0.011651,0.003729,-0.012592,0.011301,-0.0064051,-0.0083347,-0.014101,-0.011264
0.0091971,-0.013249,-0.0080587,0.0066464,-0.0067124,-0.018208,0.0035634,-0.004416,-0.0042514,-0.0041227,-0.020869,0.0034853,-0.0040687,-0.017201,-0.050855,-0.025558,-0.0054764,-0.0012462,-0.004904,0.0076416,-0.0047538,-0.010437,-0.010613,-0.0031934
0.0077883,-0.0096778,-0.0097633,0.014272,0.001377,-0.018295,0.00063262,-0.00023123,-0.0035802,-0.0095115,-0.01025,0.0098081,-0.0078526,-0.011659,-0.046222,-0.037242,8.654e-005,-0.0078629,0.0056521,0.0041965,-0.0040432,-0.01532,-0.0066731,0.0035045
0.0073063,-0.0094822,-0.0074028,0.019571,0.0016422,-0.021623,-0.00011358,0.0046131,0.00035727,-0.01378,0.0018291,0.016774,-0.0085763,-0.0047904,-0.03781,-0.052419,0.0033258,-0.011582,0.017063,0.0071172,-0.0048208,-0.018895,-0.0036471,0.0061947
0.0082942,-0.010854,-0.0026849,0.020767,-0.0043957,-0.025051,0.0017659,0.0093094,0.0057971,-0.013634,0.0062356,0.02425,-0.0074075,-0.0012209,-0.0276,-0.068835,0.0053913,-0.0096744,0.025701,0.017069,-0.0065941,-0.019089,-0.002385,0.004927
0.010328,-0.010837,0.00049532,0.0189,-0.010602,-0.024662,0.00405,0.012034,0.010714,-0.0095575,0.00083643,0.030153,-0.0061891,-0.0031944,-0.016734,-0.083897,0.0081638,-0.0030069,0.028773,0.028894,-0.0078097,-0.017143,-0.0026027,0.0019698
0.012496,-0.0080748,-0.00073175,0.016271,-0.011226,-0.018979,0.0038713,0.011389,0.013771,-0.0054394,-0.0082687,0.031245,-0.0061319,-0.0085617,-0.0056337,-0.095851,0.011655,0.0045877,0.026284,0.035273,-0.0068146,-0.015952,-0.0031006,-0.00028928
0.01393,-0.0040192,-0.005935,0.014416,-0.0052333,-0.010255,0.0001341,0.0077135,0.014441,-0.0051713,-0.012602,0.025747,-0.0071998,-0.012722,0.0049975,-0.10366,0.013546,0.0089273,0.021219,0.031848,-0.0032943,-0.017188,-0.002744,-0.0010944
0.013956,-0.0015613,-0.011901,0.013342,0.0034183,-0.0029064,-0.005673,0.0029057,0.012633,-0.0093362,-0.0088035,0.015349,-0.0084794,-0.012721,0.013625,-0.10644,0.011258,0.0082516,0.01789,0.020458,0.0010216,-0.019791,-0.0014717,-0.001338
0.011994,-0.0023057,-0.015316,0.012307,0.0093649,-0.0003567,-0.010729,-0.001187,0.0085707,-0.014904,-0.0011257,0.0045893,-0.0090949,-0.0097421,0.018619,-0.10364,0.0045183,0.0042333,0.019644,0.0084516,0.0032972,-0.020968,-0.00045576,-0.0022063
0.0077045,-0.0049074,-0.01526,0.011006,0.010042,-0.0027215,-0.01294,-0.0043398,0.003152,-0.018045,0.0029617,-0.0020341,-0.0088965,-0.0077801,0.019565,-0.095731,-0.0039768,0.00061367,0.027444,0.0045602,0.0017572,-0.018639,-0.0011737,-0.0039769
0.0015347,-0.0059954,-0.013592,0.0098666,0.0071259,-0.0070194,-0.012121,-0.0079727,-0.0018005,-0.017395,-0.00027453,-0.0028253,-0.0084052,-0.0098439,0.017635,-0.084425,-0.010367,0.00052769,0.039977,0.01401,-0.0026174,-0.013169,-0.0041102,-0.0060615
-0.0049104,-0.0030034,-0.013295,0.0092241,0.0044714,-0.0096038,-0.0096658,-0.013565,-0.0041559,-0.014863,-0.0076296,0.00060745,-0.0081383,-0.015213,0.014429,-0.071473,-0.012244,0.0044146,0.054697,0.03601,-0.0064832,-0.0071331,-0.0082102,-0.0079563
-0.0094249,0.0034328,-0.016379,0.0083296,0.0047084,-0.0088208,-0.0073457,-0.020967,-0.0028431,-0.013464,-0.012087,0.0051439,-0.0079883,-0.020222,0.010354,-0.057268,-0.0099257,0.0098629,0.068824,0.065066,-0.0065827,-0.003541,-0.011613,-0.0098775
-0.010672,0.0095683,-0.022886,0.0052752,0.0073921,-0.0058524,-0.0063299,-0.028268,0.0011538,-0.014407,-0.0090875,0.0084245,-0.0073096,-0.021788,0.0042815,-0.040997,-0.0056278,0.013322,0.079876,0.094901,-0.0023493,-0.0039731,-0.013056,-0.012357
-0.0094256,0.011182,-0.031256,-0.0019584,0.0099236,-0.0032895,-0.0069402,-0.033396,0.0052774,-0.016184,-0.00026901,0.0098024,-0.0057062,-0.02048,-0.0050053,-0.022834,-0.001657,0.0124,0.086128,0.12201,0.0035449,-0.0078135,-0.012725,-0.015333
-0.0082557,0.0067247,-0.039296,-0.014144,0.010061,-0.0028322,-0.0088902,-0.035928,0.0071992,-0.016403,0.0082813,0.0096976,-0.0037735,-0.020416,-0.016922,-0.0061211,0.00074497,0.007232,0.087377,0.14643,0.0072257,-0.012764,-0.011819,-0.017852
-0.0095291,-0.0014691,-0.044981,-0.030147,0.0077896,-0.0040761,-0.011556,-0.037304,0.0064533,-0.014441,0.011158,0.0084566,-0.0029415,-0.026101,-0.028632,0.0032447,0.0012679,0.0001723,0.085561,0.16975,0.0065316,-0.01612,-0.011279,-0.018839
-0.013298,-0.0088181,-0.046968,-0.04734,0.0051685,-0.0052246,-0.014149,-0.039138,0.004425,-0.012285,0.0074188,0.005859,-0.0043465,-0.03887,-0.036627,0.00077357,-0.0001613,-0.0058314,0.084336,0.19262,0.0023762,-0.016149,-0.010865,-0.018137
-0.017037,-0.011666,-0.044968,-0.06269,0.0045003,-0.0048504,-0.015972,-0.041186,0.00272,-0.012689,0.00012998,0.0014471,-0.0076483,-0.055777,-0.039079,-0.012223,-0.0035744,-0.009066,0.087336,0.2139,-0.0024028,-0.013013,-0.0094186,-0.016678
-0.017702,-0.0095971,-0.039932,-0.073832,0.0063341,-0.0030421,-0.016831,-0.041019,0.0015173,-0.016385,-0.0070267,-0.0049408,-0.010943,-0.071574,-0.037077,-0.02792,-0.0084505,-0.0099539,0.096185,0.23187,-0.0054125,-0.0087853,-0.0060384,-0.015512
-0.014443,-0.0053181,-0.033787,-0.07968,0.0087493,-0.0010244,-0.017355,-0.03597,-0.00045142,-0.021039,-0.012439,-0.012963,-0.012046,-0.08199,-0.033914,-0.036359,-0.013273,-0.010527,0.10979,0.24545,-0.0061024,-0.0063286,-0.0011435,-0.014673
-0.0095338,-0.0024685,-0.028702,-0.08045,0.0084278,0.00019112,-0.018796,-0.025823,-0.0042644,-0.023053,-0.016269,-0.021839,-0.010159,-0.085835,-0.033131,-0.031918,-0.015968,-0.012862,0.12533,0.254,-0.0052373,-0.007494,0.0035083,-0.013113
-0.0065734,-0.0031385,-0.02627,-0.0772,0.0029105,0.00075086,-0.022193,-0.013893,-0.0091791,-0.02068,-0.01829,-0.030355,-0.0065274,-0.084818,-0.036654,-0.016838,-0.01514,-0.017517,0.13984,0.2559,-0.0034961,-0.011748,0.0058921,-0.0098591
-0.0074607,-0.0068074,-0.02702,-0.071126,-0.0073234,0.0016364,-0.027328,-0.0053359,-0.012742,-0.015631,-0.016753,-0.036796,-0.0034774,-0.081772,-0.043922,0.00091908,-0.0111,-0.023041,0.15081,0.24814,-0.00094705,-0.01635,0.0050816,-0.0053001
-0.010789,-0.011131,-0.030326,-0.063007,-0.018403,0.0034745,-0.032308,-0.0038248,-0.012704,-0.011637,-0.0097779,-0.039152,-0.002646,-0.078824,-0.05211,0.013551,-0.005793,-0.026955,0.15581,0.22798,0.0020982,-0.018167,0.00189,-0.0012664
-0.013054,-0.013686,-0.034583,-0.053146,-0.024914,0.0056866,-0.034373,-0.009105,-0.009017,-0.011158,0.0021444,-0.035816,-0.0038399,-0.076459,-0.057247,0.018378,-0.0016228,-0.027533,0.15231,0.1955,0.0041292,-0.015891,-0.0017053,0.00027419
-0.011593,-0.013358,-0.037639,-0.041844,-0.023243,0.0068249,-0.031717,-0.017276,-0.0040696,-0.013139,0.015277,-0.026494,-0.0053702,-0.07357,-0.055886,0.018493,-7.8922e-005,-0.025075,0.13907,0.15439,0.0029583,-0.010994,-0.0039562,-0.0012742
-0.0067039,-0.010646,-0.03771,-0.029933,-0.014267,0.0058065,-0.025117,-0.023551,-0.0009107,-0.013875,0.024473,-0.012691,-0.0054468,-0.068175,-0.046762,0.019542,-0.0011152,-0.021634,0.11813,0.10988,-0.0022996,-0.0066829,-0.0045096,-0.0048242
-0.0012553,-0.0070321,-0.034567,-0.018807,-0.0032409,0.0029195,-0.017996,-0.025389,-0.0010508,-0.010336,0.026108,0.002587,-0.0034456,-0.058565,-0.03155,0.025778,-0.0035128,-0.019354,0.094949,0.06582,-0.0096558,-0.0056947,-0.0044257,-0.0087403
0.001707,-0.0040668,-0.030133,-0.0097711,0.0034821,-0.0002988,-0.0145,-0.023739,-0.0036864,-0.0030586,0.01958,0.015691,-0.00015885,-0.044556,-0.014079,0.038204,-0.0057589,-0.018745,0.075289,0.023601,-0.014981,-0.0085665,-0.0050149,-0.012265
0.0012421,-0.0027523,-0.027576,-0.0032106,0.002736,-0.0021741,-0.016748,-0.021693,-0.0067904,0.0039688,0.0065233,0.023267,0.0029377,-0.028133,0.0017341,0.055191,-0.0068257,-0.018359,0.060564,-0.016058,-0.014895,-0.013515,-0.0064605,-0.01582
-0.0010844,-0.0033677,-0.029038,0.0016749,-0.0033891,-0.0020075,-0.023311,-0.021784,-0.0088405,0.0064227,-0.010756,0.023046,0.0046952,-0.01275,0.013913,0.074021,-0.0065383,-0.016206,0.045634,-0.051043,-0.0094726,-0.017762,-0.0074411,-0.019908
-0.0027355,-0.0055825,-0.033649,0.0062697,-0.0093995,-0.00030071,-0.030171,-0.02404,-0.009598,0.0030945,-0.029713,0.014595,0.0049054,-0.0014294,0.023034,0.091787,-0.0055121,-0.011752,0.021787,-0.078298,-0.002322,-0.019237,-0.0061445,-0.023808
-0.0022346,-0.0086493,-0.037647,0.011484,-0.010745,0.0018989,-0.033521,-0.026113,-0.0094886,-0.0032702,-0.04684,-7.4263e-005,0.0043065,0.0050273,0.031073,0.10536,-0.0047246,-0.0067265,-0.016655,-0.096852,0.0021556,-0.017613,-0.001846,-0.025522
-0.00012464,-0.011598,-0.036935,0.017042,-0.0071636,0.0037725,-0.032211,-0.025179,-0.0085284,-0.008376,-0.057594,-0.016592,0.0041276,0.008175,0.03947,0.11124,-0.0048725,-0.003988,-0.067196,-0.11014,0.0020484,-0.014279,0.0043129,-0.023272
0.0016596,-0.013457,-0.030181,0.021634,-0.0023984,0.0049549,-0.028029,-0.020059,-0.0060661,-0.009825,-0.058365,-0.029698,0.0053902,0.010156,0.047917,0.10614,-0.0058706,-0.0052769,-0.11994,-0.12437,-0.00094824,-0.011455,0.010038,-0.017238
0.001319,-0.013528,-0.019926,0.023773,-0.00072577,0.0052686,-0.023807,-0.012012,-0.0016642,-0.0086246,-0.049391,-0.03586,0.0081998,0.011577,0.054658,0.088272,-0.0069074,-0.009738,-0.16394,-0.14355,-0.0033025,-0.010934,0.013496,-0.0098516
-0.0015491,-0.01169,-0.0107,0.02271,-0.0033649,0.0045372,-0.021117,-0.0037676,0.0037697,-0.0076731,-0.035765,-0.035541,0.011407,0.011057,0.057939,0.058845,-0.0071036,-0.014464,-0.19419,-0.16515,-0.0025944,-0.01302,0.01448,-0.0042087
-0.0057366,-0.008615,-0.0057659,0.018783,-0.0077021,0.0028041,-0.019477,0.0023857,0.0078318,-0.0088612,-0.024794,-0.033251,0.013065,0.006966,0.05745,0.022505,-0.0062297,-0.016666,-0.21345,-0.18079,0.00078714,-0.016224,0.014221,-0.0018896
-0.0092434,-0.0057448,-0.0051835,0.013073,-0.0096995,0.00064729,-0.01744,0.0060698,0.0078812,-0.011457,-0.02128,-0.034782,0.011693,-0.00033803,0.054757,-0.01366,-0.0047947,-0.015706,-0.22795,-0.18153,0.0042615,-0.018055,0.014113,-0.0020714
-0.010485,-0.0048404,-0.0066365,0.0067357,-0.0072207,-0.00095145,-0.014299,0.0088666,0.0029169,-0.013006,-0.024491,-0.043256,0.0075971,-0.0080934,0.052477,-0.04245,-0.0033973,-0.013355,-0.24079,-0.16379,0.0051179,-0.016625,0.014497,-0.0026403
-0.0091091,-0.0071257,-0.0079192,0.00056777,-0.001536,-0.0012491,-0.010791,0.013001,-0.005367,-0.011623,-0.029457,-0.05684,0.0030804,-0.013249,0.05274,-0.059112,-0.0020133,-0.012101,-0.24905,-0.1315,0.0023364,-0.01209,0.014527,-0.0021879
-0.0059994,-0.012381,-0.0086579,-0.0048896,0.0039031,-0.00033306,-0.0083032,0.019616,-0.013319,-0.0075475,-0.031427,-0.069968,0.00099079,-0.015311,0.055875,-0.062715,1.7419e-006,-0.012975,-0.24684,-0.093302,-0.0029036,-0.0068048,0.013144,-0.0010475
-0.0026013,-0.018652,-0.0098507,-0.0089245,0.0060633,0.00093119,-0.0075556,0.027831,-0.017555,-0.002832,-0.029587,-0.07724,0.0024965,-0.01726,0.060101,-0.055556,0.0031545,-0.014732,-0.23115,-0.057877,-0.0080042,-0.0038548,0.010248,-0.00056613
-8.5528e-005,-0.023065,-0.012062,-0.010457,0.0041648,0.0015622,-0.0080641,0.035203,-0.01716,0.00020249,-0.026899,-0.07701,0.0059255,-0.023521,0.06243,-0.041159,0.0070765,-0.015032,-0.20517,-0.030767,-0.010367,-0.0048863,0.0070157,-0.0015379
0.0011557,-0.023506,-0.014363,-0.0085066,-0.00033671,0.0011042,-0.0087536,0.039239,-0.014176,0.00030419,-0.026557,-0.0719,0.0079088,-0.03666,0.060257,-0.022461,0.010587,-0.012505,-0.17616,-0.013837,-0.0087421,-0.0088659,0.0050626,-0.0034327
0.001496,-0.020075,-0.015175,-0.0031662,-0.0050761,-0.00028901,-0.008906,0.038922,-0.011859,-0.0023569,-0.028588,-0.065947,0.0061281,-0.055675,0.05266,-0.0015834,0.012532,-0.0078571,-0.15024,-0.0061556,-0.0039144,-0.012818,0.0051226,-0.0050981
0.0016728,-0.015122,-0.01412,0.003735,-0.0081174,-0.0022319,-0.0084409,0.035254,-0.011983,-0.0065702,-0.029755,-0.06091,0.0013817,-0.077284,0.040582,0.018863,0.012633,-0.0030722,-0.12884,-0.0048816,0.0016977,-0.014065,0.0063913,-0.0060413
0.0022664,-0.01161,-0.012821,0.009117,-0.0084878,-0.0044144,-0.0074219,0.030591,-0.013405,-0.010642,-0.026687,-0.054911,-0.0029693,-0.098846,0.025851,0.034567,0.011651,0.00042788,-0.10985,-0.0061792,0.005486,-0.012238,0.0071552,-0.0068469
0.0033306,-0.010983,-0.01363,0.010323,-0.0060374,-0.0065334,-0.0056172,0.027363,-0.013225,-0.012994,-0.019167,-0.044623,-0.0039032,-0.12003,0.0097935,0.040233,0.010829,0.0028819,-0.091408,-0.0068886,0.0063343,-0.0094599,0.0062599,-0.0082768
0.0043791,-0.012239,-0.017321,0.0068994,-0.0012093,-0.0080983,-0.0028202,0.02704,-0.0096604,-0.012904,-0.010492,-0.029089,-0.0015533,-0.14149,-0.0074429,0.032415,0.011148,0.0054952,-0.074316,-0.0065777,0.0053055,-0.0085571,0.0041846,-0.01005
0.0047751,-0.013066,-0.021974,0.001023,0.0049842,-0.0085442,0.0003972,0.029796,-0.0040736,-0.011127,-0.004639,-0.011723,0.00060006,-0.16187,-0.026327,0.012455,0.012851,0.008702,-0.06034,-0.0081044,0.0046754,-0.010728,0.0027207,-0.010686
0.0042968,-0.012077,-0.024286,-0.0039495,0.011,-0.0076776,0.0025693,0.034747,-0.00013749,-0.0096627,-0.0028796,0.0015699,-0.0014905,-0.17614,-0.046597,-0.013321,0.015366,0.011217,-0.048424,-0.015251,0.0059963,-0.014525,0.0034033,-0.0087214
0.0034214,-0.010147,-0.022285,-0.0057788,0.015168,-0.0059932,0.0023947,0.040415,-0.0006614,-0.010368,-0.0028785,0.0068718,-0.0089502,-0.17793,-0.066302,-0.037159,0.017556,0.010993,-0.033155,-0.028613,0.0088156,-0.016931,0.0059786,-0.0042043
0.0029893,-0.0095999,-0.017067,-0.0046744,0.016439,-0.0044433,0.00014528,0.045276,-0.0048879,-0.013295,-0.0010035,0.0056413,-0.018771,-0.16458,-0.08216,-0.054992,0.018244,0.0073232,-0.0080844,-0.043288,0.011185,-0.015679,0.0082918,0.00095173
0.003421,-0.01193,-0.011963,-0.0026775,0.014985,-0.0037896,-0.002104,0.048372,-0.0088801,-0.016296,0.0042299,0.0039246,-0.026005,-0.14095,-0.091181,-0.068994,0.016867,0.0020497,0.028169,-0.051181,0.011484,-0.011039,0.0078388,0.0041265
0.004171,-0.016213,-0.0098346,-0.0018231,0.012152,-0.004099,-0.0020335,0.049747,-0.0088806,-0.016652,0.010549,0.0076932,-0.027608,-0.11812,-0.092451,-0.085014,0.013841,-0.0015075,0.068334,-0.046849,0.0098594,-0.0057496,0.0037867,0.0036752
0.0040475,-0.019765,-0.010883,-0.0027679,0.0096747,-0.0047799,0.00076053,0.050248,-0.0046825,-0.013584,0.013486,0.017987,-0.024764,-0.10666,-0.087811,-0.10657,0.010255,-0.001231,0.099461,-0.032096,0.0079299,-0.0031413,-0.0022142,-0.00023111
0.0023019,-0.020528,-0.012855,-0.0049022,0.0087034,-0.0050301,0.0040634,0.050494,0.00014514,-0.0094056,0.0098637,0.02995,-0.021769,-0.10903,-0.080937,-0.13034,0.0070479,0.0017746,0.11143,-0.014848,0.0071191,-0.0048463,-0.0071468,-0.0061282
-0.00040532,-0.018962,-0.013345,-0.0074299,0.0092758,-0.0042808,0.0047262,0.049702,0.0015128,-0.008032,0.000475,0.036731,-0.022415,-0.117,-0.075462,-0.14742,0.0044071,0.0037408,0.10516,-0.0025737,0.0072501,-0.0097376,-0.0088051,-0.012491
-0.0021379,-0.017634,-0.012004,-0.010114,0.01054,-0.0024314,0.0014388,0.045577,-0.0013982,-0.011878,-0.010012,0.035126,-0.026888,-0.1169,-0.073345,-0.14971,0.0020829,0.0011723,0.093934,0.0042898,0.0067584,-0.014831,-0.0073055,-0.018575
-0.001038,-0.018833,-0.010636,-0.013043,0.011438,1.8251e-005,-0.003906,0.035878,-0.0053549,-0.019781,-0.01584,0.02829,-0.03164,-0.099245,-0.074359,-0.13635,0.00036678,-0.0061177,0.095953,0.012824,0.0042735,-0.017406,-0.0047935,-0.024311
0.0030779,-0.022393,-0.011196,-0.016005,0.011322,0.001903,-0.0076405,0.020709,-0.006094,-0.027768,-0.013677,0.023285,-0.032209,-0.06585,-0.076696,-0.11462,0.00062592,-0.014393,0.12244,0.031113,3.8343e-005,-0.016709,-0.0037089,-0.029598
0.0082332,-0.025691,-0.01364,-0.018445,0.010185,0.0016813,-0.0073977,0.0035688,-0.0023607,-0.031995,-0.0045328,0.025564,-0.026508,-0.029005,-0.078068,-0.094416,0.0045488,-0.01846,0.16954,0.060281,-0.0041404,-0.014033,-0.0050866,-0.0338
0.011488,-0.025795,-0.015702,-0.020148,0.0085445,-0.0016646,-0.0040975,-0.010095,0.0028062,-0.031343,0.0070195,0.034987,-0.015988,-0.0036253,-0.076675,-0.08085,0.012571,-0.01541,0.21996,0.092353,-0.0063113,-0.011319,-0.0081984,-0.035964
0.011041,-0.021813,-0.014848,-0.021763,0.0071466,-0.0075252,-0.0010172,-0.016042,0.0047658,-0.027615,0.015639,0.04641,-0.0040501,0.0014936,-0.071758,-0.071317,0.02298,-0.0068234,0.25354,0.11609,-0.005885,-0.009617,-0.011613,-0.035561
0.0076314,-0.015536,-0.010638,-0.024345,0.0065989,-0.01342,-0.00077864,-0.013733,0.0014733,-0.023568,0.018115,0.053951,0.0065219,-0.013105,-0.063778,-0.059209,0.032709,0.0021895,0.25932,0.12554,-0.0040066,-0.0086416,-0.014565,-0.033112
0.0040456,-0.010044,-0.0053814,-0.028184,0.006999,-0.016351,-0.00302,-0.0062877,-0.0046257,-0.020773,0.014621,0.055127,0.014832,-0.041167,-0.054239,-0.040715,0.03921,0.0062876,0.24078,0.12355,-0.0026449,-0.0075466,-0.017393,-0.030105
0.0029821,-0.0076312,-0.0024975,-0.032119,0.0077739,-0.015082,-0.0048874,0.0018936,-0.0086253,-0.019101,0.0078318,0.051711,0.021071,-0.076732,-0.045136,-0.018529,0.041662,0.0030455,0.21081,0.11704,-0.003249,-0.0059417,-0.02078,-0.02823
0.0048994,-0.0085987,-0.0039825,-0.034236,0.0080196,-0.011414,-0.0038375,0.0078053,-0.0071647,-0.017795,0.00090116,0.047283,0.024949,-0.11666,-0.038075,0.0006724,0.040515,-0.0061931,0.18084,0.10901,-0.0059647,-0.0041803,-0.024661,-0.028433
0.0076228,-0.011486,-0.0090073,-0.033486,0.0073069,-0.0089537,-7.3816e-005,0.010865,-0.00087212,-0.016679,-0.0041945,0.044101,0.025189,-0.15784,-0.033459,0.012404,0.036128,-0.01798,0.15241,0.095182,-0.0097765,-0.002851,-0.027982,-0.030501
0.0081437,-0.014201,-0.014608,-0.03077,0.0063536,-0.010004,0.0036714,0.012058,0.0065927,-0.016273,-0.0070126,0.041844,0.020617,-0.19248,-0.030275,0.018473,0.028241,-0.029333,0.11737,0.068432,-0.01324,-0.0021945,-0.029592,-0.033441
0.0051883,-0.015194,-0.017711,-0.028387,0.006781,-0.01322,0.0047302,0.012494,0.011584,-0.016931,-0.0079673,0.038612,0.011559,-0.20688,-0.026792,0.025407,0.016984,-0.039243,0.065272,0.026742,-0.015232,-0.0020729,-0.029455,-0.036315
0.00035906,-0.014158,-0.016915,-0.028217,0.0098171,-0.014405,0.0029092,0.012708,0.012741,-0.018121,-0.0075631,0.032684,-4.108e-005,-0.18556,-0.021828,0.038813,0.004228,-0.048322,-0.0083353,-0.023441,-0.015363,-0.0024003,-0.028908,-0.03886
-0.003206,-0.012065,-0.012952,-0.030194,0.014864,-0.010148,0.00040021,0.012834,0.010873,-0.018689,-0.0062187,0.023471,-0.011978,-0.11827,-0.015682,0.058741,-0.0065686,-0.05731,-0.099152,-0.071685,-0.014027,-0.0034556,-0.029592,-0.041377
-0.0035233,-0.010557,-0.0079245,-0.032418,0.019281,-0.0012448,-0.00062041,0.012875,0.007342,-0.01789,-0.0045731,0.011439,-0.02316,-0.0054571,-0.0099542,0.079872,-0.012406,-0.065847,-0.19797,-0.11157,-0.012189,-0.0056842,-0.031915,-0.044032
-0.00139,-0.010897,-0.0041058,-0.032867,0.019947,0.0072584,-0.00021223,0.012497,0.0029603,-0.016215,-0.0036699,-0.0021881,-0.033471,0.14053,-0.0062686,0.096004,-0.012994,-0.07242,-0.29654,-0.14452,-0.010988,-0.0091431,-0.034466,-0.046244
0.00055017,-0.013083,-0.0029667,-0.031239,0.0156,0.0097266,-0.00044085,0.010733,-0.0017136,-0.015222,-0.0046203,-0.015417,-0.042263,0.29798,-0.0048416,0.10481,-0.011065,-0.075347,-0.39011,-0.17621,-0.011196,-0.013078,-0.035058,-0.046787
0.00042408,-0.015827,-0.0046658,-0.029288,0.0081212,0.0042577,-0.0029585,0.006342,-0.0056064,-0.016466,-0.0079261,-0.02554,-0.047225,0.44092,-0.0040832,0.10918,-0.010331,-0.073965,-0.47518,-0.20966,-0.012751,-0.016036,-0.03259,-0.044657
-0.0010641,-0.017563,-0.0080156,-0.029283,0.0015299,-0.0059729,-0.0069559,-0.0011154,-0.0073115,-0.020369,-0.013007,-0.02994,-0.045193,0.54593,-0.0016035,0.11456,-0.012864,-0.069162,-0.54615,-0.24214,-0.014694,-0.016562,-0.028176,-0.040016
-0.001398,-0.017739,-0.011011,-0.031824,-0.00074221,-0.015327,-0.0097335,-0.010399,-0.0063211,-0.025873,-0.018339,-0.027557,-0.034473,0.59947,0.0041704,0.12492,-0.018089,-0.062953,-0.59534,-0.26913,-0.0157,-0.014178,-0.024536,-0.034393
0.0011069,-0.01725,-0.011897,-0.034946,0.0017284,-0.019817,-0.0094552,-0.018941,-0.0039381,-0.031125,-0.02217,-0.019934,-0.016518,0.60271,0.013072,0.14021,-0.023922,-0.057446,-0.61734,-0.29103,-0.014974,-0.0099931,-0.024067,-0.029864
0.0053135,-0.017556,-0.01031,-0.035474,0.0061338,-0.019252,-0.0072822,-0.024417,-0.0025801,-0.034616,-0.023397,-0.010717,0.0047427,0.57014,0.023617,0.15683,-0.028604,-0.053846,-0.61387,-0.31561,-0.012868,-0.0063732,-0.027112,-0.027774
0.0078988,-0.019245,-0.0076465,-0.031719,0.0086532,-0.016142,-0.0065159,-0.02629,-0.003804,-0.03588,-0.022083,-0.0036462,0.025347,0.521,0.034194,0.16995,-0.031516,-0.052018,-0.59386,-0.35291,-0.01069,-0.0055597,-0.031735,-0.02796
0.0061346,-0.021394,-0.0061552,-0.025265,0.0074419,-0.013051,-0.0093219,-0.02599,-0.0067933,-0.035286,-0.019285,-0.00047857,0.0432,0.4685,0.043836,0.17619,-0.03263,-0.050717,-0.56754,-0.40639,-0.0097496,-0.0080513,-0.035116,-0.029033
0.00032744,-0.022383,-0.0072111,-0.020173,0.0040633,-0.011027,-0.01418,-0.025509,-0.0087857,-0.033278,-0.016297,-0.00046683,0.057724,0.4146,0.051974,0.17482,-0.031753,-0.048241,-0.53871,-0.46819,-0.010366,-0.012013,-0.035492,-0.029444
-0.0062489,-0.021427,-0.010088,-0.019961,0.0021955,-0.010024,-0.016779,-0.025658,-0.0072137,-0.029884,-0.013805,-0.0017342,0.06799,0.35444,0.057741,0.16724,-0.02864,-0.04318,-0.5018,-0.52307,-0.011601,-0.014412,-0.033243,-0.028487
-0.0098154,-0.019404,-0.012328,-0.024689,0.0045631,-0.010056,-0.013864,-0.025546,-0.0018278,-0.025031,-0.011622,-0.0032016,0.071702,0.28645,0.059877,0.15515,-0.023759,-0.035009,-0.4467,-0.55864,-0.011901,-0.013201,-0.030433,-0.026507
-0.0087728,-0.01814,-0.011564,-0.03052,0.010484,-0.011451,-0.0066008,-0.023744,0.0049025,-0.019279,-0.0092237,-0.0052549,0.066527,0.21891,0.05758,0.13879,-0.018569,-0.024418,-0.36795,-0.5742,-0.010135,-0.0088693,-0.029225,-0.024279
-0.0044546,-0.018741,-0.0073833,-0.032221,0.016026,-0.014086,-0.00017054,-0.020089,0.0094146,-0.014103,-0.0066324,-0.0086139,0.052621,0.16637,0.051456,0.1165,-0.014678,-0.013244,-0.27109,-0.58142,-0.0062983,-0.004087,-0.03028,-0.022154
0.00032177,-0.020492,-0.0016769,-0.026701,0.01677,-0.016891,0.00035915,-0.016399,0.0094857,-0.011171,-0.0047805,-0.012712,0.033702,0.13864,0.043346,0.086031,-0.012622,-0.0039413,-0.17089,-0.5964,-0.0015491,-0.0017209,-0.032235,-0.019693
0.0033256,-0.021368,0.0028431,-0.014953,0.01112,-0.018554,-0.0055808,-0.015295,0.0057436,-0.011139,-0.0049234,-0.015475,0.01515,0.13184,0.034814,0.046789,-0.011592,0.001294,-0.082883,-0.62881,0.0022866,-0.0028232,-0.032638,-0.016056
0.0038728,-0.019829,0.0047435,-0.0011941,0.0016117,-0.018783,-0.013307,-0.017989,0.0012276,-0.01307,-0.0075959,-0.015052,0.00048517,0.12982,0.025509,0.0012927,-0.010541,0.0013795,-0.014956,-0.67554,0.0034947,-0.006128,-0.029741,-0.0108
0.0023585,-0.016337,0.0048187,0.0098304,-0.0067888,-0.018626,-0.016562,-0.022913,-0.00069533,-0.015138,-0.012125,-0.011979,-0.01072,0.11523,0.013044,-0.045169,-0.0096234,-0.0032765,0.034525,-0.72232,0.0013347,-0.0092429,-0.023963,-0.0044129
-0.00056914,-0.013182,0.0051184,0.015277,-0.01003,-0.01932,-0.012578,-0.026498,0.0013452,-0.016038,-0.017166,-0.0095972,-0.02161,0.081119,-0.0051461,-0.086278,-0.010488,-0.011094,0.07124,-0.75115,-0.0032903,-0.010404,-0.017894,0.0018662
-0.0041371,-0.012588,0.0069389,0.014924,-0.0073994,-0.020794,-0.0042731,-0.025624,0.0057769,-0.015793,-0.02165,-0.011999,-0.034624,0.034138,-0.029234,-0.11647,-0.015008,-0.020155,0.097417,-0.74825,-0.007859,-0.0094489,-0.014625,0.0068434
-0.0070101,-0.014669,0.0095356,0.010309,-0.001351,-0.021501,0.0022437,-0.019814,0.0092526,-0.015247,-0.02508,-0.021034,-0.049041,-0.012057,-0.055785,-0.13191,-0.023548,-0.029049,0.10888,-0.70851,-0.0093374,-0.007542,-0.015415,0.01018
-0.0073449,-0.017074,0.010653,0.0034552,0.0047167,-0.019911,0.0027094,-0.011368,0.0091539,-0.014857,-0.026961,-0.034857,-0.061689,-0.045929,-0.078995,-0.13094,-0.034336,-0.037277,0.098916,-0.63586,-0.0060082,-0.006174,-0.018409,0.012601
-0.0039413,-0.016817,0.0083747,-0.0037687,0.0086661,-0.0162,-0.0018887,-0.0033909,0.0055701,-0.014151,-0.026284,-0.049145,-0.070085,-0.061614,-0.093602,-0.1148,-0.044493,-0.045001,0.06532,-0.54063,0.0011838,-0.0062868,-0.019632,0.015348
0.0022988,-0.012841,0.0027055,-0.009558,0.010181,-0.012402,-0.0062555,0.0025509,0.0011819,-0.012493,-0.022125,-0.059834,-0.07496,-0.055528,-0.097482,-0.088426,-0.051821,-0.052399,0.01468,-0.43553,0.0089728,-0.0079644,-0.015859,0.019281
0.0081874,-0.0070922,-0.0043947,-0.012044,0.0098524,-0.010784,-0.0051784,0.0071386,-0.00089817,-0.010329,-0.015075,-0.065128,-0.079723,-0.022101,-0.09227,-0.059955,-0.055875,-0.059085,-0.039424,-0.33091,0.013819,-0.010606,-0.0073587,0.024294
0.010077,-0.0031099,-0.010423,-0.0098508,0.0082273,-0.012012,0.0022389,0.011922,0.00040946,-0.009374,-0.0079111,-0.065545,-0.087302,0.044753,-0.081876,-0.03784,-0.057597,-0.06398,-0.082611,-0.2311,0.014198,-0.013303,0.0017519,0.029409
0.0065612,-0.0032812,-0.01394,-0.003282,0.0058224,-0.014868,0.011788,0.017289,0.0034024,-0.01122,-0.0042507,-0.062596,-0.097265,0.14467,-0.070113,-0.026585,-0.058024,-0.065732,-0.10569,-0.13407,0.011341,-0.015258,0.0061754,0.033376
-0.00019917,-0.0071112,-0.015139,0.0048323,0.0036257,-0.017679,0.017258,0.021729,0.0051224,-0.015572,-0.0058977,-0.057651,-0.10585,0.26551,-0.058981,-0.02407,-0.057259,-0.06338,-0.10684,-0.035724,0.0078915,-0.016159,0.0033356,0.035331
-0.005867,-0.011889,-0.01518,0.0098134,0.0029019,-0.019873,0.014872,0.023019,0.0037784,-0.019962,-0.011255,-0.05175,-0.10894,0.38638,-0.048393,-0.023079,-0.054574,-0.056888,-0.089886,0.063609,0.0057882,-0.016384,-0.0045569,0.035116
-0.0071411,-0.014977,-0.015132,0.0075483,0.0040118,-0.022058,0.00571,0.020152,3.4517e-006,-0.021563,-0.016527,-0.045857,-0.10525,0.48779,-0.037099,-0.016595,-0.049472,-0.047315,-0.060982,0.1557,0.0052644,-0.016822,-0.012111,0.033262
-0.0042388,-0.015596,-0.015464,-0.0027249,0.0054349,-0.024666,-0.0054445,0.014186,-0.0039601,-0.019604,-0.018853,-0.04071,-0.097295,0.56061,-0.024092,-0.0031429,-0.042748,-0.036614,-0.0264,0.22811,0.0056585,-0.018307,-0.014907,0.030779
-0.00060867,-0.014674,-0.01629,-0.017427,0.0044355,-0.026792,-0.013605,0.0072623,-0.0061772,-0.016127,-0.018538,-0.036247,-0.089446,0.60589,-0.0097511,0.011968,-0.036551,-0.027158,0.0082098,0.27374,0.0068735,-0.020993,-0.012808,0.028871
-0.00010412,-0.01326,-0.017777,-0.030579,-0.00069158,-0.026694,-0.016631,0.00077206,-0.0062356,-0.014249,-0.018272,-0.031457,-0.085281,0.62651,0.003695,0.020472,-0.033237,-0.02101,0.038259,0.29954,0.0097276,-0.024155,-0.0096191,0.028535
-0.0039307,-0.011334,-0.02008,-0.037494,-0.0086773,-0.023565,-0.015795,-0.0056318,-0.0048547,-0.015476,-0.020146,-0.02523,-0.086273,0.61904,0.012648,0.016838,-0.033816,-0.019073,0.061756,0.32694,0.014725,-0.026615,-0.0093781,0.030029
-0.009809,-0.0081943,-0.022852,-0.037393,-0.015655,-0.018693,-0.014015,-0.013252,-0.0026274,-0.018543,-0.023431,-0.017595,-0.092313,0.57405,0.013511,0.0012106,-0.037172,-0.020454,0.081567,0.38197,0.02062,-0.027449,-0.012582,0.032462
-0.013908,-0.003873,-0.024995,-0.0329,-0.017935,-0.014595,-0.013623,-0.022507,0.00061885,-0.020834,-0.025298,-0.010089,-0.10268,0.48429,0.0044591,-0.022378,-0.040683,-0.022568,0.10625,0.48059,0.024577,-0.026427,-0.015745,0.033923
-0.013867,0.00010087,-0.025238,-0.027053,-0.014958,-0.012754,-0.015362,-0.031726,0.0051727,-0.020926,-0.023678,-0.004678,-0.11608,0.35262,-0.013346,-0.050289,-0.041823,-0.022216,0.14707,0.61857,0.024165,-0.023881,-0.014699,0.032385
-0.010464,0.0016201,-0.023252,-0.020703,-0.0098327,-0.012203,-0.018824,-0.037789,0.010297,-0.019763,-0.019385,-0.0021211,-0.12979,0.19161,-0.035965,-0.081795,-0.039621,-0.017245,0.2113,0.77243,0.01947,-0.020345,-0.0086023,0.027048
-0.0067644,-0.00013394,-0.020289,-0.01268,-0.0068658,-0.010503,-0.023201,-0.038318,0.013975,-0.019397,-0.015453,-0.0013378,-0.13938,0.01524,-0.058345,-0.1176,-0.035074,-0.0078181,0.29502,0.91065,0.013248,-0.016455,-0.00095488,0.019206
-0.0056213,-0.0036769,-0.018517,-0.0023583,-0.0081377,-0.0063121,-0.027421,-0.033743,0.014064,-0.020659,-0.014522,-0.00042833,-0.13985,-0.16958,-0.076453,-0.15612,-0.030363,0.0035621,0.38092,1.0076,0.0088297,-0.013247,0.0033443,0.011809
-0.0076044,-0.0061657,-0.019385,0.0081805,-0.012035,-0.0010027,-0.02993,-0.027557,0.0099466,-0.022164,-0.016898,0.0015998,-0.12778,-0.36381,-0.088463,-0.19153,-0.027509,0.01337,0.44446,1.0522,0.007582,-0.012382,0.0022274,0.0077316
-0.010866,-0.0056031,-0.02236,0.014798,-0.014904,0.0024262,-0.029109,-0.024326,0.0032269,-0.021622,-0.020916,0.0040142,-0.10275,-0.56931,-0.094396,-0.21584,-0.027233,0.018912,0.46623,1.0464,0.008183,-0.015709,-0.0018376,0.0078806
-0.012801,-0.0024107,-0.025279,0.014426,-0.014273,0.0022224,-0.024626,-0.026741,-0.0031911,-0.018092,-0.02476,0.005128,-0.067015,-0.78092,-0.094825,-0.22373,-0.028568,0.019582,0.44358,0.99883,0.0081852,-0.02423,-0.0041071,0.010591
-0.012035,0.00097721,-0.026129,0.0078628,-0.010832,-0.00026871,-0.018576,-0.033832,-0.0069242,-0.012914,-0.027595,0.0037892,-0.023918,-0.98435,-0.090003,-0.21615,-0.029327,0.016815,0.39301,0.91753,0.0062599,-0.037218,-0.0016373,0.012901
-0.0092634,0.0021181,-0.024743,-0.00036659,-0.0076131,-0.0017247,-0.014841,-0.041651,-0.0074378,-0.0084776,-0.029088,0.00013292,0.023354,-1.1599,-0.080135,-0.19966,-0.02717,0.012907,0.3409,0.80864,0.0030757,-0.052311,0.0044552,0.012772
-0.006519,0.00045256,-0.022807,-0.0050514,-0.0073108,3.2116e-005,-0.016486,-0.046032,-0.0060078,-0.0061667,-0.028468,-0.0049471,0.071874,-1.2863,-0.066289,-0.18183,-0.020797,0.009547,0.30761,0.67874,0.00028641,-0.066644,0.010312,0.010468
-0.0056471,-0.002408,-0.022157,-0.0037342,-0.010177,0.0039414,-0.023097,-0.045404,-0.0045459,-0.0055367,-0.02481,-0.010792,0.11845,-1.3411,-0.050653,-0.16619,-0.010692,0.0069457,0.29566,0.53655,-0.001087,-0.07815,0.012715,0.0080342
-0.0071449,-0.0040623,-0.022952,0.0021096,-0.014183,0.0067297,-0.030546,-0.041606,-0.0042636,-0.0053717,-0.018482,-0.017249,0.15978,-1.3003,-0.035475,-0.15039,0.00098591,0.0040159,0.28989,0.39086,-0.0012868,-0.086069,0.011403,0.0074003
-0.010028,-0.0031374,-0.023526,0.0087226,-0.016989,0.0060646,-0.033872,-0.038098,-0.0050607,-0.0052683,-0.011927,-0.02399,0.19362,-1.1438,-0.021481,-0.12852,0.011371,-0.00062926,0.26946,0.2465,-0.001155,-0.090425,0.0085782,0.0087915
-0.012575,-0.00017794,-0.02211,0.012872,-0.017809,0.0027399,-0.031133,-0.036993,-0.0058902,-0.0059477,-0.0082611,-0.029821,0.21999,-0.8687,-0.0073788,-0.095967,0.018273,-0.0074979,0.22278,0.10338,-0.0012209,-0.091191,0.0065667,0.010731
-0.013328,0.0028417,-0.018752,0.013614,-0.01762,-0.00018987,-0.024998,-0.037321,-0.005723,-0.0079949,-0.0085756,-0.033054,0.24093,-0.50319,0.0086465,-0.05309,0.021286,-0.015537,0.15511,-0.038738,-0.0015883,-0.088076,0.0060435,0.011429
-0.011767,0.0038184,-0.015545,0.012118,-0.01786,-0.00031662,-0.020588,-0.036021,-0.0044573,-0.010534,-0.010639,-0.03286,0.25866,-0.10663,0.026493,-0.005686,0.022054,-0.022297,0.084153,-0.17335,-0.0025055,-0.081136,0.0062055,0.01017
-0.0084596,0.0017167,-0.01485,0.010302,-0.019072,0.0021495,-0.021331,-0.030927,-0.0032024,-0.0115,-0.010736,-0.03035,0.27367,0.24884,0.043002,0.037909,0.02351,-0.024844,0.027728,-0.28583,-0.0046229,-0.07148,0.0061602,0.007538
-0.0047857,-0.0029287,-0.01721,0.0095936,-0.020685,0.0051781,-0.0263,-0.023237,-0.0036906,-0.0094737,-0.0072774,-0.028165,0.2843,0.50742,0.053611,0.070891,0.02846,-0.02098,-0.0075963,-0.36193,-0.008371,-0.061125,0.0058322,0.0045411
-0.0023776,-0.0083046,-0.02095,0.010501,-0.021796,0.0073784,-0.031189,-0.017146,-0.0070608,-0.0052587,-0.002746,-0.028607,0.28809,0.65124,0.055877,0.090862,0.03821,-0.010269,-0.029976,-0.40138,-0.013097,-0.051846,0.0056227,0.0017286
-0.0024163,-0.012195,-0.023832,0.012736,-0.021867,0.0094009,-0.031895,-0.016611,-0.012746,-0.0014497,-0.0018034,-0.031799,0.28312,0.70081,0.052028,0.10019,0.051877,0.0055106,-0.057085,-0.42498,-0.017113,-0.04392,0.0056121,-0.00081977
-0.0049721,-0.013085,-0.025089,0.015433,-0.020637,0.012888,-0.027557,-0.021735,-0.018368,-0.00019089,-0.0070438,-0.035486,0.26808,0.6956,0.048161,0.10417,0.066652,0.022655,-0.10659,-0.4663,-0.018922,-0.035995,0.0054784,-0.0028691
-0.0087596,-0.011012,-0.02583,0.017395,-0.017644,0.018289,-0.02067,-0.027955,-0.021044,-0.001226,-0.01631,-0.036791,0.24125,0.66946,0.050387,0.10833,0.078812,0.036614,-0.18765,-0.55056,-0.018558,-0.026457,0.0052266,-0.0037681
-0.011674,-0.007634,-0.027456,0.017665,-0.01233,0.023997,-0.014606,-0.0291,-0.019457,-0.002211,-0.024208,-0.034605,0.20053,0.63717,0.060839,0.11622,0.085087,0.043709,-0.29664,-0.67517,-0.017629,-0.015338,0.0056597,-0.0031045
-0.01204,-0.0053294,-0.029748,0.016332,-0.0049241,0.027715,-0.010994,-0.02217,-0.015158,-0.001096,-0.026557,-0.03066,0.14547,0.59718,0.076631,0.12857,0.083998,0.042909,-0.41766,-0.80723,-0.017896,-0.0051632,0.0077124,-0.0016299
-0.0098045,-0.0057388,-0.030628,0.014938,0.0028256,0.028517,-0.0091202,-0.0099247,-0.011796,0.0017157,-0.023708,-0.028355,0.080308,0.54351,0.092391,0.14371,0.076769,0.036701,-0.5272,-0.90216,-0.019741,0.00019737,0.011148,-0.0012023
-0.0066417,-0.0087068,-0.027913,0.015794,0.008241,0.02737,-0.0074361,0.0010441,-0.012492,0.0036156,-0.019738,-0.030202,0.014791,0.47538,0.1041,0.15899,0.067295,0.03015,-0.60179,-0.9315,-0.022021,-0.0018951,0.014113,-0.0033218
-0.0045775,-0.012427,-0.021376,0.020413,0.0095505,0.025668,-0.0054116,0.0054006,-0.017261,0.0023134,-0.018397,-0.035836,-0.039287,0.39886,0.11118,0.17213,0.06071,0.028234,-0.62599,-0.90077,-0.023448,-0.01057,0.014393,-0.0074043
-0.0040937,-0.01475,-0.013118,0.028219,0.0074522,0.02351,-0.0040223,0.0031778,-0.022697,-0.0017909,-0.019683,-0.042155,-0.074295,0.32289,0.11556,0.18173,0.060844,0.032865,-0.5976,-0.84511,-0.024,-0.021115,0.011478,-0.010616
-0.0034376,-0.014685,-0.0059155,0.036711,0.0047998,0.019711,-0.0046569,-0.00049527,-0.024452,-0.0057611,-0.020221,-0.045462,-0.091577,0.25511,0.11913,0.18686,0.06785,0.041677,-0.52718,-0.80673,-0.024848,-0.026998,0.0074036,-0.0099452
-0.00010892,-0.012946,-0.0011858,0.04308,0.0044019,0.013583,-0.0076504,0.000225,-0.020664,-0.0067364,-0.016943,-0.044039,-0.10109,0.19984,0.12183,0.18611,0.077711,0.049636,-0.43238,-0.81013,-0.026769,-0.023191,0.0052736,-0.00505
0.0064819,-0.011175,0.0015562,0.045955,0.0067539,0.0064924,-0.011771,0.0071803,-0.013522,-0.0044791,-0.010479,-0.039291,-0.1157,0.15679,0.12175,0.17743,0.084397,0.052475,-0.33062,-0.85074,-0.028682,-0.0089215,0.0064848,0.00065627
0.013631,-0.010577,0.0034433,0.04582,0.0097352,0.0013053,-0.014983,0.017118,-0.0076291,-0.0013606,-0.0049753,-0.034707,-0.14383,0.11925,0.11674,0.15942,0.083444,0.049354,-0.23449,-0.90179,-0.027922,0.011665,0.0091483,0.0020557
0.01694,-0.011129,0.0047338,0.043865,0.010593,3.5918e-006,-0.015759,0.024915,-0.0064738,0.00016299,-0.0044438,-0.033444,-0.18502,0.073931,0.10595,0.13314,0.07448,0.042702,-0.15159,-0.93175,-0.022227,0.031349,0.0093703,-0.0038011
0.013973,-0.011892,0.0046865,0.040505,0.0084662,0.0017375,-0.013909,0.028053,-0.009934,-1.7556e-005,-0.0089613,-0.036182,-0.23099,0.0059997,0.09041,0.10298,0.060855,0.035561,-0.086412,-0.92027,-0.011782,0.043273,0.0045736,-0.015093
0.0068036,-0.011982,0.0028911,0.035046,0.0052204,0.0033439,-0.010448,0.028387,-0.014751,0.00014533,-0.014235,-0.040599,-0.27112,-0.091016,0.072531,0.075133,0.046857,0.028892,-0.040575,-0.86473,0.00048183,0.044228,-0.0039204,-0.026183
0.0008351,-0.011266,0.0004523,0.02678,0.0039363,0.0020323,-0.0067203,0.029891,-0.017397,0.0022193,-0.015074,-0.042698,-0.29891,-0.20682,0.055054,0.054465,0.034914,0.021295,-0.010328,-0.77702,0.010567,0.036063,-0.011409,-0.031508
0.00047623,-0.010309,-0.00051838,0.016363,0.0064463,-0.0021679,-0.003505,0.034706,-0.016826,0.0050047,-0.0098713,-0.039113,-0.31569,-0.31551,0.040062,0.041916,0.02498,0.011242,0.015608,-0.67504,0.015695,0.024415,-0.01321,-0.029319
0.0053369,-0.0098194,0.0011246,0.0059959,0.012037,-0.0064504,-0.00072965,0.041119,-0.014905,0.0051942,-0.0022515,-0.029039,-0.32948,-0.38824,0.028328,0.034649,0.016105,-0.00046649,0.053533,-0.5738,0.015517,0.015495,-0.008223,-0.022301
0.010479,-0.010176,0.0040331,-0.0018999,0.018225,-0.0077492,0.0020665,0.045127,-0.014406,0.00063061,0.0016109,-0.01476,-0.34944,-0.41003,0.019169,0.028852,0.0082809,-0.010531,0.11697,-0.47933,0.011768,0.012875,0.00026946,-0.01481
0.010741,-0.011273,0.0050186,-0.006369,0.022657,-0.0054933,0.0050044,0.0439,-0.016436,-0.0069829,-0.002055,-0.00048787,-0.3788,-0.38852,0.010758,0.022861,0.0026564,-0.015532,0.20835,-0.3872,0.0071271,0.016244,0.0071696,-0.0092886
0.0053422,-0.012567,0.0016337,-0.0084396,0.024425,-0.0022179,0.0075799,0.037908,-0.019472,-0.012825,-0.011354,0.0098183,-0.41091,-0.34809,0.00069482,0.017837,0.00021304,-0.014627,0.31678,-0.28655,0.004255,0.022721,0.0092889,-0.0049367
-0.0014362,-0.013174,-0.0054883,-0.010018,0.023908,-0.0016032,0.0091005,0.029943,-0.020658,-0.012857,-0.019822,0.014456,-0.43132,-0.31393,-0.013377,0.01531,0.00059063,-0.010029,0.42406,-0.16836,0.005186,0.029407,0.0071794,0.00051529
-0.0041726,-0.012098,-0.012677,-0.012192,0.02176,-0.0056927,0.0093753,0.022187,-0.018159,-0.0074578,-0.021149,0.014617,-0.42567,-0.29849,-0.033154,0.013831,0.002436,-0.004935,0.51459,-0.033759,0.010637,0.035115,0.0038361,0.0078772
-0.0012383,-0.0087381,-0.015775,-0.014475,0.018258,-0.013538,0.0088697,0.014211,-0.012626,-0.0014032,-0.013966,0.013299,-0.38861,-0.2997,-0.058992,0.0081318,0.0047672,-0.0010326,0.58183,0.10285,0.019185,0.040133,0.0017846,0.015207
0.0038121,-0.0034972,-0.013153,-0.015613,0.013618,-0.0221,0.0080842,0.0037749,-0.0067511,-4.1435e-005,-0.0030355,0.013262,-0.32791,-0.31003,-0.089269,-0.007671,0.0076085,0.0020383,0.62762,0.2188,0.02716,0.044865,0.0012538,0.01923
0.0056319,0.00201,-0.006783,-0.01507,0.0087036,-0.028351,0.0068257,-0.010304,-0.0034542,-0.0049926,0.0041092,0.015419,-0.26075,-0.32588,-0.12023,-0.034832,0.011005,0.0050203,0.65742,0.29397,0.030138,0.049086,0.00079988,0.017996
0.0020408,0.00553,-0.00065789,-0.013744,0.0051232,-0.030868,0.0043045,-0.025896,-0.0041486,-0.013105,0.0026047,0.018715,-0.20462,-0.34835,-0.14679,-0.066947,0.013572,0.0072305,0.67669,0.32096,0.025697,0.052677,-0.000691,0.012334
-0.004054,0.0053531,0.0020106,-0.013202,0.0043925,-0.029975,0.00018939,-0.038087,-0.0081828,-0.0194,-0.0062421,0.021353,-0.16888,-0.37544,-0.16414,-0.092234,0.012582,0.0067084,0.69089,0.30857,0.015506,0.056757,-0.002844,0.0049408
-0.007424,0.0013847,0.00064037,-0.014231,0.0068092,-0.026903,-0.004372,-0.042294,-0.013484,-0.021149,-0.015931,0.022252,-0.15195,-0.39528,-0.16941,-0.10021,0.0061019,0.0021882,0.70611,0.27726,0.004771,0.063419,-0.0045481,-0.001859
-0.0052307,-0.0046422,-0.0029173,-0.016169,0.011082,-0.022937,-0.0069614,-0.03754,-0.017688,-0.019449,-0.019415,0.021625,-0.14484,-0.38941,-0.16257,-0.08828,-0.0047885,-0.0053744,0.72637,0.24985,-0.0010421,0.073587,-0.0055265,-0.0076409
0.00070628,-0.010032,-0.0060041,-0.017764,0.015133,-0.019101,-0.0054483,-0.027261,-0.019099,-0.017215,-0.013963,0.020427,-0.13739,-0.34563,-0.14608,-0.063465,-0.016278,-0.013719,0.74794,0.24273,0.00013635,0.084793,-0.0067595,-0.01355
0.0059348,-0.012585,-0.0067822,-0.018762,0.017482,-0.016196,0.00033386,-0.01699,-0.017263,-0.015948,-0.0028208,0.019336,-0.12293,-0.2697,-0.12374,-0.038129,-0.02499,-0.02212,0.75598,0.26067,0.0058688,0.091378,-0.009148,-0.020702
0.0074426,-0.011779,-0.0049212,-0.020583,0.018152,-0.014725,0.0082911,-0.010716,-0.013136,-0.014564,0.0072638,0.018143,-0.099333,-0.18462,-0.09937,-0.022846,-0.031363,-0.033386,0.72856,0.29631,0.011563,0.087767,-0.011926,-0.028832
0.0058576,-0.0089517,-0.0013857,-0.025142,0.01839,-0.014693,0.01549,-0.008676,-0.0087047,-0.011244,0.010594,0.01594,-0.067668,-0.11633,-0.075692,-0.021291,-0.039915,-0.052635,0.64784,0.33392,0.014237,0.072454,-0.012866,-0.036234
0.0040243,-0.0063747,0.0021611,-0.032664,0.019462,-0.015576,0.020131,-0.0080168,-0.005962,-0.0061959,0.0059295,0.011923,-0.030645,-0.076328,-0.05352,-0.029848,-0.055669,-0.083265,0.51158,0.35702,0.014453,0.049181,-0.010484,-0.04079
0.0038103,-0.0057762,0.0040094,-0.040506,0.021478,-0.016691,0.022463,-0.0054626,-0.0056692,-0.002278,-0.0032943,0.0062925,0.0083403,-0.055093,-0.031683,-0.040868,-0.079693,-0.12317,0.33697,0.3577,0.014924,0.023859,-0.0060753,-0.041204
0.0044538,-0.0072329,0.0030755,-0.044445,0.023204,-0.017702,0.024007,0.00026936,-0.0068556,-0.0026744,-0.011549,0.00070809,0.045949,-0.031598,-0.0081043,-0.046488,-0.10764,-0.16434,0.15395,0.34263,0.017388,-0.00051186,-0.0031543,-0.037709
0.0038509,-0.0091607,-0.00052887,-0.041798,0.02303,-0.018781,0.025914,0.0079638,-0.0076905,-0.0077631,-0.014488,-0.0021482,0.079905,0.0089929,0.01807,-0.040949,-0.13254,-0.19642,-0.0083272,0.33071,0.020837,-0.026545,-0.0043202,-0.03207
0.0011207,-0.0094496,-0.0054129,-0.034,0.020372,-0.020258,0.027889,0.015169,-0.0071617,-0.014195,-0.010856,6.1245e-005,0.10968,0.063443,0.044585,-0.021557,-0.14935,-0.21192,-0.13399,0.34139,0.022701,-0.060121,-0.0084617,-0.027037
-0.0023014,-0.0070321,-0.0095913,-0.026322,0.016327,-0.022113,0.028453,0.019805,-0.0060034,-0.017165,-0.0023437,0.0077117,0.13597,0.11306,0.066171,0.010743,-0.15733,-0.20973,-0.2255,0.38101,0.021611,-0.10446,-0.011353,-0.025373
-0.0040304,-0.0028357,-0.011643,-0.024563,0.012967,-0.023853,0.026135,0.020917,-0.0057915,-0.013972,0.007843,0.018551,0.15917,0.13745,0.07727,0.051307,-0.15891,-0.195,-0.2989,0.43741,0.018856,-0.15534,-0.00958,-0.028671
-0.0029876,0.00058914,-0.011535,-0.030962,0.011774,-0.024942,0.020481,0.018519,-0.0069244,-0.0059174,0.016499,0.028802,0.17856,0.1276,0.075817,0.093328,-0.15657,-0.17587,-0.37232,0.48818,0.017115,-0.20158,-0.0042209,-0.036441
-0.00023634,0.00063863,-0.010446,-0.042395,0.012521,-0.025413,0.01215,0.013195,-0.0076097,0.002827,0.021313,0.035474,0.19356,0.08848,0.065228,0.13114,-0.15112,-0.15912,-0.45382,0.51627,0.017862,-0.23088,-0.00049362,-0.04617
0.0022686,-0.0035276,-0.009759,-0.052324,0.013586,-0.026089,0.0022835,0.0058485,-0.0052978,0.0081913,0.021195,0.038086,0.20639,0.030762,0.052753,0.16321,-0.14222,-0.147,-0.53594,0.51997,0.02017,-0.23693,-0.0032261,-0.054558
0.0035454,-0.010145,-0.010074,-0.055181,0.013396,-0.028121,-0.0080984,-0.0026201,0.00045076,0.0086216,0.016379,0.038262,0.22316,-0.03994,0.045117,0.19204,-0.12991,-0.13676,-0.60067,0.50829,0.022098,-0.2225,-0.012186,-0.059257
0.004132,-0.015688,-0.011057,-0.050009,0.01168,-0.032128,-0.018122,-0.011912,0.0065153,0.0054313,0.0083948,0.037508,0.25114,-0.12718,0.044545,0.22029,-0.11502,-0.12299,-0.63197,0.48667,0.023108,-0.19654,-0.021783,-0.059898
0.0049188,-0.017029,-0.012067,-0.040741,0.00935,-0.037566,-0.026673,-0.022684,0.0081302,0.0013883,-0.00028081,0.035346,0.29295,-0.23865,0.047941,0.24628,-0.097989,-0.10118,-0.62721,0.44757,0.024903,-0.16775,-0.025703,-0.057721
0.0056896,-0.013552,-0.012764,-0.032967,0.0072239,-0.042887,-0.032245,-0.035859,0.0029489,-0.0010998,-0.0070171,0.029839,0.34174,-0.37729,0.049485,0.26305,-0.077899,-0.070747,-0.59846,0.37706,0.029717,-0.13985,-0.022329,-0.054284
0.0050532,-0.0076858,-0.01302,-0.029748,0.0049596,-0.046527,-0.033435,-0.050941,-0.0063871,-0.0011032,-0.0099991,0.020239,0.38176,-0.53575,0.044455,0.26266,-0.053273,-0.035381,-0.56228,0.2734,0.037788,-0.11183,-0.015963,-0.050579
0.001937,-0.0033291,-0.012329,-0.029664,0.0013724,-0.048104,-0.029888,-0.064762,-0.013879,0.0006598,-0.0088678,0.0091833,0.39518,-0.69743,0.031684,0.24253,-0.024368,-0.00077001,-0.52626,0.16058,0.04662,-0.082244,-0.012755,-0.047246
