-2.2959e-010,9.1642e-010,2.566e-010,1.9814e-009,1.3312e-010,8.5082e-010,3.2991e-010,2.8071e-009,1.1769e-010,7.1577e-010,4.3409e-010,3.2818e-009,-6.5789e-010,1.5627e-010,1.1904e-009,-3.2991e-010,3.2798e-011,1.1016e-009,7.9102e-011,2.9133e-010,6.849e-010,8.1996e-010,5.6529e-010,2.537e-009
-6.0009e-009,2.5667e-008,7.0097e-009,5.4788e-008,3.9333e-009,2.3214e-008,9.2826e-009,7.7649e-008,3.5068e-009,1.9868e-008,1.2104e-008,9.0339e-008,-1.8253e-008,4.222e-009,3.3037e-008,-9.1591e-009,9.1791e-010,3.0068e-008,2.3827e-009,8.3668e-009,1.9054e-008,2.2504e-008,1.5671e-008,6.9807e-008
-7.586e-008,3.4906e-007,9.294e-008,7.3668e-007,5.6238e-008,3.0787e-007,1.2674e-007,1.0442e-006,5.0547e-008,2.6811e-007,1.638e-007,1.2088e-006,-2.4621e-007,5.5357e-008,4.4585e-007,-1.2362e-007,1.2429e-008,3.9878e-007,3.4883e-008,1.1671e-007,2.5762e-007,3.0031e-007,2.111e-007,9.3372e-007
-6.1732e-007,3.07e-006,7.9656e-007,6.4172e-006,5.1843e-007,2.6444e-006,1.1188e-006,9.0941e-006,4.6968e-007,2.3434e-006,1.4329e-006,1.0475e-005,-2.1509e-006,4.6913e-007,3.8981e-006,-1.0806e-006,1.085e-007,3.4242e-006,3.3075e-007,1.0537e-006,2.2553e-006,2.5963e-006,1.8411e-006,8.0888e-006
-3.63e-006,1.9624e-005,4.9583e-006,4.0703e-005,3.4632e-006,1.6536e-005,7.176e-006,5.7658e-005,3.1628e-006,1.491e-005,9.1058e-006,6.6072e-005,-1.3679e-005,2.8867e-006,2.4819e-005,-6.8776e-006,6.863e-007,2.1397e-005,2.2831e-006,6.924e-006,1.4367e-005,1.6344e-005,1.1686e-005,5.1008e-005
-1.6404e-005,9.7102e-005,2.3875e-005,0.00020029,1.7859e-005,8.022e-005,3.5632e-005,0.00028353,1.6449e-005,7.3572e-005,4.4768e-005,0.00032318,-6.7467e-005,1.3732e-005,0.00012263,-3.3959e-005,3.3512e-006,0.00010368,1.2223e-005,3.5295e-005,7.0957e-005,7.9821e-005,5.7516e-005,0.00024946
-5.9112e-005,0.0003868,9.2477e-005,0.00079542,7.3927e-005,0.00031413,0.00014247,0.0011249,6.8734e-005,0.00029288,0.00017707,0.0012751,-0.00026847,5.2476e-005,0.00048913,-0.00013535,1.3141e-005,0.00040533,5.2795e-005,0.00014527,0.00028259,0.0003146,0.00022842,0.00098423
-0.00017373,0.0012731,0.0002958,0.0026176,0.00025214,0.0010198,0.00047103,0.0036974,0.00023699,0.00096564,0.00057824,0.0041666,-0.00088503,0.00016517,0.0016176,-0.0004473,4.2492e-005,0.001313,0.00018888,0.000496,0.00093175,0.0010273,0.00075182,0.0032165
-0.0004216,0.0035256,0.00079586,0.0072723,0.00072128,0.0027966,0.0013115,0.010256,0.00068685,0.0026856,0.0015872,0.011485,-0.0024624,0.00043515,0.0045188,-0.0012493,0.00011545,0.0035906,0.00057006,0.0014323,0.0025903,0.0028306,0.00209,0.0088684
-0.00084687,0.0083166,0.0018254,0.017282,0.0017517,0.0065663,0.0031155,0.024321,0.0016952,0.0063814,0.0037073,0.02705,-0.0058585,0.0009688,0.010807,-0.0029903,0.00026722,0.0084021,0.0014703,0.0035482,0.006149,0.0066638,0.004975,0.020896
-0.0013927,0.016849,0.0036049,0.035458,0.003639,0.013327,0.0063702,0.049755,0.0035948,0.013065,0.0074272,0.05491,-0.01203,0.0018285,0.022333,-0.0061967,0.00053249,0.016984,0.0032692,0.0076201,0.012571,0.013513,0.010241,0.042445
-0.0018039,0.029451,0.0061779,0.063191,0.0064901,0.023528,0.011272,0.088305,0.0065843,0.023162,0.012817,0.096563,-0.021444,0.0029137,0.040123,-0.011202,0.00092106,0.029843,0.0063006,0.014302,0.022237,0.023697,0.018356,0.074698
-0.0016153,0.044457,0.009254,0.098166,0.009931,0.03627,0.0173,0.13632,0.010437,0.035602,0.019071,0.14736,-0.033277,0.0038603,0.062874,-0.017761,0.001392,0.045749,0.010548,0.023613,0.034075,0.035927,0.02878,0.11406
-0.00033592,0.057808,0.012217,0.13311,0.012962,0.048881,0.023012,0.18296,0.014292,0.047323,0.024416,0.1948,-0.044936,0.0040977,0.085972,-0.024797,0.0018461,0.06125,0.015316,0.034499,0.045096,0.046804,0.039566,0.15071
0.0021778,0.064339,0.014394,0.15752,0.014238,0.057538,0.026438,0.21278,0.016807,0.053987,0.026806,0.22169,-0.052568,0.0031673,0.10232,-0.0306,0.002146,0.071533,0.019174,0.044953,0.051108,0.051623,0.047727,0.17088
0.005381,0.060738,0.015446,0.16284,0.012822,0.059029,0.026119,0.21312,0.016779,0.052112,0.025287,0.2148,-0.052729,0.0012107,0.10541,-0.033575,0.0021497,0.072687,0.020429,0.052946,0.048784,0.04669,0.050499,0.16333
0.0080773,0.048444,0.015557,0.14826,0.0089886,0.05275,0.02225,0.18281,0.013975,0.041581,0.021163,0.17447,-0.044429,-0.00072689,0.093267,-0.033221,0.0017355,0.064203,0.018053,0.057833,0.038062,0.032148,0.046918,0.12691
0.0090111,0.033918,0.015187,0.12274,0.0043633,0.041488,0.017015,0.13542,0.0095455,0.026626,0.017766,0.1178,-0.030118,-0.001007,0.070428,-0.030699,0.00083248,0.049829,0.012523,0.061206,0.02303,0.013227,0.038606,0.073629
0.0077515,0.025051,0.014572,0.10033,0.0010249,0.03003,0.013514,0.092768,0.0055071,0.013926,0.018397,0.070636,-0.014654,0.0016061,0.045958,-0.028438,-0.00049833,0.035686,0.0058188,0.066236,0.010048,-0.0017065,0.02906,0.023515
0.0052184,0.025655,0.013486,0.090938,5.7098e-005,0.02226,0.013769,0.071483,0.003469,0.0085949,0.023627,0.051798,-0.0027272,0.0068388,0.028162,-0.028848,-0.0019273,0.02656,0.0003508,0.075482,0.0038733,-0.0058266,0.021755,-0.0066849
0.0032846,0.032264,0.011612,0.093332,0.00073873,0.018782,0.017214,0.072151,0.0034949,0.010816,0.030147,0.06059,0.0035003,0.012669,0.019722,-0.032832,-0.0027997,0.023006,-0.0025729,0.088551,0.0044729,0.0016443,0.018361,-0.013338
0.0035268,0.036376,0.0091976,0.096368,0.0012347,0.016931,0.020971,0.079853,0.0040903,0.015912,0.03267,0.077729,0.0048961,0.016503,0.01706,-0.039014,-0.0023645,0.021556,-0.0035442,0.10153,0.0071587,0.014569,0.018268,-0.0069282
0.005956,0.030981,0.0072498,0.088137,0.00035814,0.013278,0.021952,0.076464,0.0034656,0.018053,0.027949,0.080059,0.0039007,0.017151,0.014433,-0.044275,-0.0003157,0.017968,-0.0043868,0.10906,0.0062226,0.023826,0.01957,-0.0032781
0.0087593,0.016278,0.0068338,0.065818,-0.0011689,0.0066345,0.019249,0.055036,0.0010781,0.014726,0.017851,0.057864,0.0025528,0.015973,0.009165,-0.045399,0.0027085,0.010916,-0.0064951,0.10785,-0.00064988,0.023501,0.020496,-0.011875
0.0094494,-0.00029202,0.008027,0.037997,-0.0012764,-0.00088082,0.014872,0.02447,-0.0019039,0.0082854,0.0086804,0.020907,0.0015794,0.015953,0.0034484,-0.041001,0.0052291,0.0030475,-0.009568,0.099173,-0.010687,0.014734,0.020198,-0.030329
0.0067128,-0.0099116,0.0096287,0.017498,0.0014037,-0.0055746,0.012129,0.00092477,-0.003691,0.0033304,0.0067893,-0.011446,0.00086074,0.019102,0.0013366,-0.032569,0.0058486,-0.0014541,-0.011833,0.0883,-0.018352,0.0042838,0.018623,-0.048541
0.0015751,-0.009264,0.010165,0.010982,0.0058832,-0.0052443,0.012891,-0.0061082,-0.0035575,0.002368,0.013755,-0.027079,0.00030289,0.024369,0.0041381,-0.023825,0.0044399,-0.00064699,-0.011537,0.081231,-0.019658,-0.00095325,0.01607,-0.057992
-0.0031293,-0.002646,0.0094058,0.014217,0.0092804,-0.0010442,0.015996,-0.00086266,-0.0025529,0.0036872,0.025024,-0.030286,0.00012818,0.028102,0.0088368,-0.01855,0.0025591,0.00335,-0.0083502,0.080984,-0.014949,0.0010078,0.013066,-0.058003
-0.0047209,0.0022359,0.0088665,0.016651,0.0091792,0.003299,0.018166,0.0039559,-0.0025407,0.0033005,0.033222,-0.035807,0.00059578,0.02701,0.011026,-0.018139,0.0024669,0.006068,-0.0035178,0.085989,-0.0081322,0.0065129,0.010452,-0.054586
-0.0026263,0.00082367,0.010532,0.010635,0.0057686,0.0041605,0.016726,-0.0011271,-0.0044617,-0.00097888,0.033483,-0.053954,0.001859,0.021129,0.0092237,-0.020596,0.0053283,0.0043934,0.0011887,0.091471,-0.0034143,0.0099254,0.0091752,-0.054479
0.0012259,-0.0051318,0.014769,-0.0029675,0.001713,0.00039983,0.011931,-0.015248,-0.0074814,-0.0072089,0.026538,-0.080698,0.0042481,0.01404,0.0060382,-0.021863,0.010062,-0.00097678,0.0045771,0.092566,-0.0024149,0.0081394,0.0096509,-0.06034
0.00391,-0.010167,0.019413,-0.017102,-0.00019729,-0.0062668,0.0069663,-0.030418,-0.0098137,-0.010955,0.017359,-0.10151,0.0084065,0.0099615,0.0049119,-0.018639,0.013963,-0.0064201,0.0062697,0.087011,-0.0038228,0.0022092,0.011253,-0.070599
0.0037023,-0.010583,0.021161,-0.025703,0.0005588,-0.012869,0.0055786,-0.040689,-0.01036,-0.0094004,0.01093,-0.10496,0.014672,0.010241,0.0058421,-0.010593,0.014755,-0.0087456,0.0062458,0.075902,-0.0053683,-0.0046099,0.012615,-0.082349
0.0012002,-0.0076781,0.018293,-0.028804,0.0020094,-0.017271,0.0091568,-0.047853,-0.0095273,-0.0041439,0.0088408,-0.093429,0.022117,0.012452,0.0046734,-0.00031933,0.012385,-0.0080265,0.0045968,0.062489,-0.006062,-0.0099132,0.012607,-0.093509
-0.0014588,-0.0060975,0.01236,-0.031422,0.0017456,-0.019185,0.015516,-0.058558,-0.008488,-9.0584e-005,0.0092157,-0.081245,0.02849,0.012903,-0.0029863,0.0087294,0.0090311,-0.0074366,0.0019164,0.050121,-0.0067679,-0.013367,0.011094,-0.10256
-0.0024541,-0.0092662,0.0071829,-0.038175,-0.00081037,-0.019691,0.020331,-0.076461,-0.0078266,-0.0013507,0.0093171,-0.082318,0.031746,0.010188,-0.016961,0.014482,0.0072917,-0.010281,-0.00032911,0.040611,-0.0088814,-0.015529,0.008757,-0.10757
-0.001565,-0.016254,0.0058828,-0.049158,-0.0040994,-0.019979,0.020177,-0.097524,-0.0071235,-0.0077341,0.0080479,-0.098407,0.032119,0.0064739,-0.031698,0.016934,0.008152,-0.016861,-0.00038039,0.033727,-0.012563,-0.016225,0.0062629,-0.10673
6.3141e-005,-0.022709,0.0084545,-0.060686,-0.0062392,-0.020402,0.014948,-0.11295,-0.0059692,-0.014886,0.0062433,-0.11829,0.03268,0.0053675,-0.040573,0.017227,0.01043,-0.023946,0.0023725,0.027755,-0.016263,-0.014601,0.0038352,-0.10046
0.0011325,-0.024659,0.011969,-0.069503,-0.0070164,-0.020399,0.0078691,-0.11677,-0.0052023,-0.017933,0.0050626,-0.12802,0.037336,0.0084043,-0.041453,0.016458,0.012003,-0.027344,0.0064236,0.020598,-0.018019,-0.010878,0.0017206,-0.09246
0.0011002,-0.021667,0.013185,-0.075942,-0.0080204,-0.019146,0.0030764,-0.11094,-0.0067436,-0.015517,0.0045114,-0.12286,0.047523,0.013386,-0.038314,0.015338,0.011538,-0.025395,0.0089439,0.010799,-0.017329,-0.0077247,0.00085598,-0.087974
0.00011533,-0.016767,0.011257,-0.082986,-0.010814,-0.016402,0.0025548,-0.10365,-0.011805,-0.01081,0.0036239,-0.1106,0.06035,0.016038,-0.037454,0.01451,0.009199,-0.020368,0.0080249,-0.0018426,-0.015814,-0.0092883,0.0025499,-0.090152
-0.0015206,-0.01367,0.0082199,-0.092407,-0.015027,-0.012983,0.0047631,-0.10279,-0.019122,-0.0087708,0.0018922,-0.10402,0.069975,0.013494,-0.04186,0.014578,0.0060013,-0.016607,0.0044617,-0.016153,-0.015883,-0.018181,0.0070277,-0.097587
-0.0035251,-0.013882,0.0069907,-0.10204,-0.018319,-0.010556,0.0060318,-0.11027,-0.025199,-0.01202,0.00020613,-0.10972,0.071392,0.0066548,-0.048934,0.0156,0.0027831,-0.017026,0.0013012,-0.029971,-0.018474,-0.032915,0.012241,-0.1052
-0.0053545,-0.016091,0.0087345,-0.10712,-0.018313,-0.010732,0.0036654,-0.12165,-0.026773,-0.018814,0.00014559,-0.12321,0.063759,-0.00043742,-0.053401,0.016896,-0.00012712,-0.020962,0.0013518,-0.040996,-0.021967,-0.048249,0.014607,-0.10777
-0.0062063,-0.017942,0.011911,-0.10471,-0.014674,-0.013919,-0.0017293,-0.13038,-0.023513,-0.02465,0.0022504,-0.13369,0.050803,-0.0035498,-0.052424,0.017956,-0.0024856,-0.025129,0.0048138,-0.047899,-0.023436,-0.058544,0.011669,-0.10324
-0.005782,-0.018384,0.013702,-0.097154,-0.0094317,-0.018722,-0.0066253,-0.13279,-0.018406,-0.02597,0.0050505,-0.13373,0.03811,-0.0011661,-0.048084,0.019831,-0.0038065,-0.026651,0.0091759,-0.051119,-0.021322,-0.061558,0.0045065,-0.093606
-0.0051413,-0.018493,0.01246,-0.091122,-0.005372,-0.022538,-0.0074163,-0.13003,-0.015278,-0.022795,0.0060106,-0.12499,0.029462,0.0047497,-0.04522,0.02535,-0.0037515,-0.025382,0.011464,-0.052702,-0.017141,-0.059607,-0.0025707,-0.083056
-0.0063785,-0.020184,0.0090524,-0.092607,-0.0040555,-0.023184,-0.0034009,-0.12627,-0.015514,-0.018283,0.0037288,-0.11555,0.024877,0.010434,-0.046997,0.037231,-0.0028265,-0.023542,0.010771,-0.055049,-0.014576,-0.057165,-0.0053356,-0.07532
-0.010793,-0.02407,0.0060257,-0.10188,-0.0051429,-0.020478,0.0025828,-0.12525,-0.016937,-0.015889,-0.00053748,-0.11213,0.021545,0.012943,-0.052409,0.055281,-0.0024152,-0.023251,0.0087915,-0.059355,-0.016594,-0.057008,-0.0033152,-0.071828
-0.016975,-0.028426,0.005437,-0.11285,-0.0072569,-0.016439,0.0064213,-0.12775,-0.015938,-0.016698,-0.0034803,-0.11464,0.016666,0.011714,-0.057726,0.075152,-0.0038072,-0.024477,0.0080333,-0.064977,-0.023089,-0.058178,-0.0004794,-0.071441
-0.020887,-0.030292,0.0072417,-0.11766,-0.0092312,-0.013799,0.0059946,-0.13155,-0.011006,-0.018985,-0.0021554,-0.11755,0.0099218,0.0081319,-0.060059,0.090172,-0.0070277,-0.025354,0.009527,-0.0703,-0.03107,-0.057414,-0.0020411,-0.071378
-0.018543,-0.027957,0.0095456,-0.11302,-0.01061,-0.013918,0.0027051,-0.13325,-0.0044276,-0.019971,0.0036564,-0.11598,0.0037195,0.003846,-0.059563,0.095225,-0.010635,-0.024466,0.012212,-0.074411,-0.037122,-0.052584,-0.0099933,-0.068702
-0.0094096,-0.022725,0.010358,-0.10293,-0.011373,-0.015864,2.8097e-005,-0.13075,-0.0005204,-0.018036,0.010989,-0.11039,0.0011178,-0.00049945,-0.058506,0.08989,-0.012769,-0.022691,0.014434,-0.07809,-0.039884,-0.044988,-0.021293,-0.061851
0.0024593,-0.018315,0.0092296,-0.095427,-0.011669,-0.017463,0.00039868,-0.12453,-0.0019164,-0.013645,0.015498,-0.10549,0.0031143,-0.0050361,-0.058589,0.078628,-0.012517,-0.022652,0.015888,-0.083241,-0.040447,-0.038475,-0.030306,-0.051616
0.010876,-0.018112,0.0073472,-0.095972,-0.011964,-0.017389,0.0031364,-0.11727,-0.0071839,-0.0086654,0.014224,-0.10513,0.0075004,-0.0094308,-0.059329,0.067992,-0.010415,-0.026119,0.017955,-0.091246,-0.040675,-0.036272,-0.033296,-0.040921
0.011813,-0.022417,0.0061312,-0.10298,-0.013152,-0.016323,0.0051312,-0.112,-0.011926,-0.0049972,0.0073798,-0.10842,0.010292,-0.012197,-0.058911,0.062881,-0.0078188,-0.031831,0.022001,-0.10168,-0.041301,-0.038388,-0.031032,-0.033172
0.0060685,-0.028025,0.0057165,-0.10925,-0.015978,-0.016091,0.003575,-0.11012,-0.012387,-0.0036086,-0.0019676,-0.11078,0.0087023,-0.011613,-0.056361,0.064171,-0.0058955,-0.035958,0.027323,-0.1124,-0.041609,-0.041808,-0.027482,-0.029971
-0.0018219,-0.030668,0.0047697,-0.10809,-0.020001,-0.017615,-0.0017045,-0.11063,-0.0084222,-0.004347,-0.0099732,-0.10851,0.003316,-0.0075674,-0.052671,0.068932,-0.0051271,-0.035099,0.030895,-0.12093,-0.040695,-0.043137,-0.026232,-0.029732
-0.0072997,-0.028415,0.001793,-0.098688,-0.023223,-0.019718,-0.0082701,-0.11084,-0.0033519,-0.0062399,-0.01442,-0.10189,-0.0023357,-0.0024425,-0.049778,0.072817,-0.0054074,-0.029236,0.029455,-0.12587,-0.038743,-0.04127,-0.028062,-0.028439
-0.0088465,-0.023213,-0.0033351,-0.086398,-0.023165,-0.02004,-0.013243,-0.10826,-0.0010127,-0.0079299,-0.015903,-0.09407,-0.00457,0.00026733,-0.048497,0.073081,-0.0062377,-0.021974,0.022238,-0.12764,-0.036839,-0.037859,-0.031522,-0.022306
-0.0080144,-0.019272,-0.009022,-0.077908,-0.018862,-0.017251,-0.015547,-0.10209,-0.0026508,-0.0081405,-0.017085,-0.086954,-0.0025564,-0.0012734,-0.047544,0.070431,-0.0067843,-0.017697,0.011962,-0.12803,-0.035556,-0.035439,-0.035209,-0.010518
-0.0069707,-0.019605,-0.013112,-0.075873,-0.01207,-0.012401,-0.016296,-0.093496,-0.0061752,-0.006165,-0.020545,-0.078869,0.00087757,-0.0055295,-0.044681,0.068519,-0.0061634,-0.018054,0.003159,-0.12924,-0.033892,-0.035041,-0.039053,0.0040461
-0.0062221,-0.023578,-0.014455,-0.077607,-0.0064222,-0.0080545,-0.017286,-0.084727,-0.0080791,-0.0022198,-0.026712,-0.066447,0.0013523,-0.0087537,-0.038909,0.071307,-0.0042458,-0.02087,-0.00076319,-0.13255,-0.029917,-0.035278,-0.04346,0.016796
-0.0046041,-0.027402,-0.013561,-0.078415,-0.0048813,-0.0060385,-0.019267,-0.07774,-0.0061917,0.0025728,-0.033402,-0.048875,-0.0036501,-0.008264,-0.031579,0.080032,-0.0024011,-0.022375,0.00061357,-0.13744,-0.022756,-0.033425,-0.047761,0.024759
-0.0011595,-0.027094,-0.011956,-0.075952,-0.0074352,-0.0060122,-0.02166,-0.073402,-0.0011105,0.0066195,-0.037449,-0.030022,-0.012747,-0.0049658,-0.025309,0.092007,-0.0030597,-0.020649,0.0051087,-0.14153,-0.014045,-0.027378,-0.050132,0.028792
0.0032478,-0.021494,-0.011024,-0.071606,-0.01093,-0.0062024,-0.023721,-0.071401,0.0044405,0.0084905,-0.037305,-0.015996,-0.0216,-0.0026945,-0.021678,0.10234,-0.0078063,-0.017087,0.0097518,-0.14188,-0.0072491,-0.01693,-0.049339,0.033045
0.0062506,-0.013077,-0.011362,-0.068229,-0.011365,-0.0054008,-0.025642,-0.070537,0.0074905,0.0074766,-0.034534,-0.010164,-0.026047,-0.0047722,-0.019892,0.10738,-0.015405,-0.014652,0.012289,-0.13722,-0.0050908,-0.0036656,-0.046438,0.042083
0.005871,-0.0061272,-0.012944,-0.067059,-0.0069944,-0.0040294,-0.028263,-0.069015,0.0065777,0.0039284,-0.032751,-0.010234,-0.0249,-0.01082,-0.017716,0.10725,-0.021841,-0.014782,0.011573,-0.12965,-0.0071385,0.010112,-0.04438,0.057732
0.0021974,-0.0038101,-0.015617,-0.066966,0.00015473,-0.0031523,-0.031707,-0.064812,0.0025169,-0.00069438,-0.034632,-0.010104,-0.020247,-0.0168,-0.013778,0.10527,-0.022996,-0.016051,0.007458,-0.12413,-0.0097119,0.022446,-0.045589,0.077774
-0.0025707,-0.0062589,-0.019291,-0.06624,0.0056593,-0.0026415,-0.034565,-0.056424,-0.0019974,-0.0042005,-0.039446,-0.0048039,-0.01531,-0.018418,-0.0089929,0.10491,-0.018005,-0.01586,0.0010418,-0.1254,-0.00843,0.032172,-0.049686,0.097189
-0.0055994,-0.010822,-0.023723,-0.06449,0.0060769,-0.00078049,-0.034821,-0.043907,-0.003746,-0.0045635,-0.043388,0.0058202,-0.011948,-0.014908,-0.0056664,0.10671,-0.010332,-0.013331,-0.0050134,-0.13422,-0.0015023,0.038791,-0.053563,0.11099
-0.0051888,-0.014013,-0.028259,-0.062451,0.0017746,0.0038864,-0.031897,-0.029494,-0.0008065,-0.0010639,-0.042727,0.017666,-0.0099492,-0.0098265,-0.0051009,0.10791,-0.0053143,-0.010349,-0.0072383,-0.14597,0.008844,0.042239,-0.053863,0.11689
-0.0016914,-0.013692,-0.031909,-0.060172,-0.0030922,0.010242,-0.027809,-0.016946,0.0060643,0.0050311,-0.037232,0.026244,-0.0083773,-0.0080968,-0.0060322,0.10488,-0.0060815,-0.0096577,-0.0035587,-0.15315,0.017963,0.042923,-0.04982,0.11644
0.0027601,-0.010121,-0.033797,-0.056064,-0.0036286,0.014521,-0.026037,-0.0095968,0.013543,0.010909,-0.030869,0.030255,-0.007199,-0.011922,-0.0054795,0.096181,-0.011299,-0.011948,0.0045595,-0.15032,0.022158,0.041888,-0.044106,0.11407
0.0054122,-0.0054313,-0.033672,-0.048311,0.0019815,0.01318,-0.028784,-0.0081814,0.01768,0.013709,-0.028988,0.032047,-0.0073314,-0.019126,-0.0013085,0.083713,-0.016554,-0.014978,0.012288,-0.13776,0.021203,0.040684,-0.041011,0.11452
0.004399,-0.0020411,-0.032112,-0.037386,0.0109,0.0063498,-0.034921,-0.010034,0.016568,0.012153,-0.03422,0.035224,-0.0090899,-0.025249,0.0057937,0.071079,-0.01799,-0.015681,0.014514,-0.12118,0.018147,0.040669,-0.043346,0.12005
-7.7046e-005,-0.0011174,-0.030238,-0.026783,0.017623,-0.0015631,-0.040526,-0.010489,0.011703,0.0071913,-0.044449,0.041976,-0.010924,-0.027353,0.012667,0.060911,-0.015002,-0.013155,0.0096147,-0.10774,0.016781,0.042108,-0.050301,0.12893
-0.0056521,-0.0020016,-0.029037,-0.020604,0.017986,-0.005165,-0.041721,-0.0057599,0.0067853,0.0012581,-0.054445,0.052262,-0.010229,-0.026142,0.015986,0.053325,-0.0099666,-0.0095462,0.00066755,-0.10156,0.018898,0.043898,-0.057742,0.13653
-0.0091763,-0.0028868,-0.028714,-0.019931,0.012035,-0.0026393,-0.037617,0.0045585,0.0047823,-0.0032701,-0.059681,0.06474,-0.0058892,-0.024651,0.014542,0.046476,-0.0058151,-0.0079706,-0.0070607,-0.10188,0.023435,0.044422,-0.060747,0.13853
-0.0088981,-0.00221,-0.028566,-0.021484,0.0035913,0.0025568,-0.031058,0.017134,0.0057263,-0.0053571,-0.059213,0.077802,-0.00012875,-0.024999,0.0097736,0.038337,-0.0039281,-0.0095986,-0.010149,-0.10462,0.027835,0.043011,-0.056734,0.13435
-0.0058593,0.00025337,-0.027596,-0.020264,-0.0028757,0.0046418,-0.02666,0.027046,0.0071651,-0.0056103,-0.055551,0.089634,0.0025141,-0.026341,0.004454,0.028073,-0.0039612,-0.012737,-0.0090321,-0.10531,0.030232,0.04073,-0.047141,0.12803
-0.0031742,0.003387,-0.025463,-0.014034,-0.0053298,0.00067407,-0.027684,0.031129,0.0067851,-0.0055733,-0.052112,0.097978,-0.0012586,-0.025944,0.00084007,0.016135,-0.0050493,-0.014639,-0.0065224,-0.1014,0.030645,0.039606,-0.036527,0.12563
-0.0035362,0.0057644,-0.022971,-0.0055195,-0.0048179,-0.0066831,-0.033977,0.030345,0.0046953,-0.0065227,-0.050659,0.10089,-0.010374,-0.022305,-0.00036549,0.003418,-0.0066801,-0.01408,-0.0047395,-0.092918,0.030531,0.040841,-0.029614,0.13074
-0.0069812,0.006804,-0.021552,-3.6454e-005,-0.0035851,-0.011405,-0.042228,0.029506,0.003194,-0.0084965,-0.050711,0.098496,-0.019643,-0.017293,0.00013732,-0.009542,-0.0083902,-0.012202,-0.0036433,-0.081974,0.031475,0.043663,-0.028273,0.14159
-0.010912,0.0070418,-0.02207,-0.00045515,-0.0026943,-0.0094567,-0.048155,0.034312,0.004294,-0.01022,-0.050873,0.094037,-0.023545,-0.015078,0.001046,-0.022668,-0.0090997,-0.011058,-0.0023215,-0.071814,0.034231,0.046059,-0.030538,0.15202
-0.012424,0.0073471,-0.024026,-0.004039,-0.0013041,-0.002457,-0.049082,0.047414,0.0074891,-0.010165,-0.050414,0.092367,-0.020521,-0.018621,0.0012248,-0.035848,-0.0074038,-0.011526,-0.0011502,-0.06544,0.03865,0.046851,-0.032363,0.15565
-0.010806,0.0079188,-0.025973,-0.0041834,0.0020079,0.0037164,-0.045375,0.066104,0.010027,-0.0081514,-0.04962,0.096471,-0.014103,-0.026772,0.00015673,-0.048479,-0.0029259,-0.012624,-0.002124,-0.063908,0.044043,0.047107,-0.030735,0.15007
-0.0078945,0.0080944,-0.026894,0.0042522,0.007376,0.0041386,-0.040014,0.083442,0.0095131,-0.0061428,-0.048908,0.10481,-0.0098875,-0.034688,-0.0018989,-0.05957,0.0026761,-0.012626,-0.0068338,-0.065187,0.049355,0.04933,-0.025733,0.13786
-0.0060209,0.0071357,-0.027292,0.020574,0.013048,-0.0008847,-0.03667,0.092503,0.0063565,-0.0071422,-0.047995,0.11221,-0.010916,-0.037386,-0.0040351,-0.068393,0.0064868,-0.010658,-0.014299,-0.064866,0.053117,0.054905,-0.019959,0.12417
-0.0056769,0.0050992,-0.028876,0.038588,0.016545,-0.0063865,-0.037446,0.091088,0.003671,-0.01257,-0.046128,0.11411,-0.01535,-0.033456,-0.0051637,-0.075065,0.0066333,-0.0073147,-0.021171,-0.058941,0.053651,0.062171,-0.015975,0.11303
-0.0052839,0.0028027,-0.032974,0.051273,0.016459,-0.0075543,-0.041633,0.08349,0.0046066,-0.020249,-0.043096,0.11048,-0.018258,-0.025835,-0.0046772,-0.080359,0.0041018,-0.0040199,-0.024381,-0.04695,0.049848,0.067132,-0.014039,0.1053
-0.0032864,0.00091527,-0.039022,0.05575,0.013367,-0.0042234,-0.046221,0.077665,0.0095166,-0.025213,-0.039818,0.10598,-0.015791,-0.019148,-0.002872,-0.084735,0.0021645,-0.0019842,-0.023742,-0.032868,0.042071,0.06654,-0.012107,0.099255
-0.00030066,-0.00076332,-0.044545,0.054524,0.0092593,-0.00082473,-0.047862,0.079553,0.015526,-0.02339,-0.037717,0.1058,-0.0081772,-0.01609,-0.00071177,-0.08744,0.0035787,-0.0016299,-0.02197,-0.022592,0.032363,0.060768,-0.0080358,0.09265
0.0011451,-0.0029104,-0.046806,0.052429,0.0061911,-0.0019238,-0.045027,0.088748,0.018873,-0.015381,-0.0374,0.11085,0.0007348,-0.015976,0.00099588,-0.086787,0.0078971,-0.0025795,-0.022125,-0.01965,0.023571,0.053843,-0.001965,0.084326
-0.00070405,-0.0055222,-0.044888,0.052405,0.005297,-0.0077127,-0.038933,0.098995,0.017934,-0.0068188,-0.037934,0.11675,0.0065949,-0.016352,0.0023742,-0.081822,0.011374,-0.0038384,-0.02494,-0.022514,0.017932,0.050365,0.0033314,0.074492
-0.0043964,-0.0073672,-0.040532,0.053798,0.0066867,-0.013824,-0.032667,0.1033,0.014318,-0.0043787,-0.037498,0.11757,0.0075318,-0.015765,0.004482,-0.07411,0.0098001,-0.0040367,-0.028509,-0.025771,0.016139,0.05176,0.0044988,0.064138
-0.0058744,-0.0069556,-0.037001,0.054153,0.0098531,-0.015614,-0.029113,0.099573,0.011279,-0.010396,-0.034854,0.11101,0.0047395,-0.014959,0.0084161,-0.067813,0.0020218,-0.0019815,-0.030454,-0.024267,0.017485,0.054989,0.00032642,0.054436
-0.0020422,-0.00428,-0.036743,0.052254,0.013956,-0.012703,-0.029144,0.092267,0.011026,-0.020669,-0.030332,0.10039,0.00072256,-0.015572,0.014164,-0.067367,-0.008763,0.0024212,-0.030356,-0.016892,0.020776,0.054776,-0.0071636,0.046365
0.0058885,-0.0014785,-0.039566,0.049374,0.017844,-0.009308,-0.031265,0.088539,0.013289,-0.0276,-0.025483,0.091744,-0.0028971,-0.017947,0.020157,-0.074233,-0.017007,0.007499,-0.030129,-0.0070296,0.025163,0.047455,-0.014093,0.040335
0.012662,-0.0013725,-0.042717,0.047867,0.020234,-0.010011,-0.0329,0.092342,0.016093,-0.026267,-0.021788,0.088615,-0.0061663,-0.020383,0.02398,-0.085357,-0.018506,0.010307,-0.03209,0.00050425,0.030256,0.033274,-0.017274,0.035723
0.013065,-0.0049558,-0.042837,0.048896,0.020352,-0.015129,-0.032322,0.1013,0.017671,-0.018413,-0.019552,0.089373,-0.0098891,-0.020598,0.023794,-0.094921,-0.012964,0.008438,-0.036621,0.0033395,0.035615,0.015478,-0.015801,0.030801
0.0063904,-0.010227,-0.038415,0.051706,0.018616,-0.020276,-0.029813,0.10882,0.017703,-0.011013,-0.017859,0.089125,-0.014218,-0.01788,0.019472,-0.098281,-0.0037519,0.0020263,-0.041631,0.0031603,0.04019,-0.0027111,-0.010696,0.023478
-0.0026954,-0.013734,-0.030927,0.054943,0.016538,-0.020642,-0.027203,0.10939,0.017071,-0.0107,-0.015438,0.0843,-0.018158,-0.013771,0.012674,-0.0951,0.0045256,-0.0057702,-0.044295,0.0040518,0.042261,-0.020537,-0.003513,0.012542
-0.0077325,-0.013623,-0.023828,0.058343,0.01555,-0.015864,-0.02618,0.1025,0.016837,-0.018655,-0.011608,0.075636,-0.020362,-0.010638,0.0059008,-0.089224,0.0086174,-0.010542,-0.043542,0.0092904,0.040055,-0.039755,0.0044811,-0.0015234
-0.005369,-0.011349,-0.020193,0.062837,0.015653,-0.010692,-0.026737,0.092174,0.017577,-0.029983,-0.0066219,0.067063,-0.020404,-0.0095953,0.0012575,-0.085514,0.0077537,-0.0095793,-0.041131,0.019239,0.03273,-0.062768,0.011983,-0.016879
0.0025197,-0.010322,-0.020788,0.068982,0.015268,-0.010655,-0.027065,0.083319,0.019397,-0.037743,-0.0013689,0.061829,-0.019304,-0.0098298,-0.0002936,-0.086292,0.0031867,-0.0038138,-0.040399,0.031656,0.021134,-0.090773,0.017193,-0.031518
0.010892,-0.012653,-0.023919,0.075466,0.012738,-0.016865,-0.02504,0.078154,0.022078,-0.038108,0.0030829,0.059551,-0.018778,-0.0098759,0.0010173,-0.09017,-0.0028931,0.0028,-0.04367,0.043577,0.0077487,-0.12323,0.01848,-0.044256
0.015504,-0.017085,-0.026926,0.079423,0.0082629,-0.024922,-0.020105,0.075585,0.024884,-0.032672,0.0057673,0.056794,-0.019782,-0.0094172,0.0040916,-0.093842,-0.0082087,0.0060096,-0.050295,0.052959,-0.0043434,-0.15836,0.015954,-0.054726
0.015329,-0.02009,-0.027961,0.078415,0.0042807,-0.029015,-0.01389,0.073163,0.026416,-0.026539,0.0059829,0.050396,-0.02154,-0.0096891,0.0073195,-0.094992,-0.010935,0.0040478,-0.0568,0.059105,-0.012948,-0.19345,0.012208,-0.062625
0.012043,-0.019116,-0.026703,0.072316,0.003589,-0.027256,-0.0089647,0.069325,0.025164,-0.02422,0.0035565,0.040339,-0.021954,-0.01205,0.0090224,-0.093886,-0.010234,-0.001531,-0.05909,0.062351,-0.017669,-0.22464,0.010828,-0.067257
0.0079718,-0.014906,-0.023844,0.063519,0.006701,-0.023165,-0.0067585,0.064102,0.020693,-0.026632,-0.00084011,0.029595,-0.019211,-0.016207,0.0081876,-0.09266,-0.0067381,-0.0073424,-0.055224,0.063903,-0.019553,-0.24714,0.013435,-0.068043
0.0047471,-0.01081,-0.020192,0.05552,0.010977,-0.021963,-0.00651,0.05839,0.014371,-0.031178,-0.0056717,0.02126,-0.013399,-0.020003,0.0052868,-0.093368,-0.0024335,-0.010613,-0.046899,0.065871,-0.019796,-0.25687,0.017921,-0.065585
0.0033414,-0.0099003,-0.016298,0.051197,0.012627,-0.025392,-0.0062261,0.053056,0.00866,-0.034272,-0.009086,0.015714,-0.006822,-0.02111,0.0024286,-0.096519,0.00040977,-0.010709,-0.038521,0.070683,-0.018725,-0.25286,0.01984,-0.062126
0.0044371,-0.012649,-0.012649,0.051824,0.0099464,-0.030038,-0.0047419,0.048681,0.0053134,-0.034046,-0.0098313,0.01039,-0.0025842,-0.019115,0.0022715,-0.101,0.00072994,-0.0089129,-0.034355,0.079468,-0.016004,-0.23856,0.016159,-0.060668
0.0080682,-0.017077,-0.0097858,0.056825,0.0048257,-0.030702,-0.0028541,0.045613,0.004047,-0.031322,-0.0079725,0.0022444,-0.0024102,-0.015994,0.0061595,-0.10497,-0.00060191,-0.0070571,-0.035636,0.090546,-0.011732,-0.22001,0.0081479,-0.063254
0.012905,-0.020795,-0.0079325,0.063852,0.0010185,-0.025456,-0.002334,0.043783,0.0030052,-0.028555,-0.0048988,-0.0093837,-0.0054093,-0.01449,0.012906,-0.10678,-0.001574,-0.0062941,-0.039786,0.099857,-0.0071356,-0.20183,0.00077379,-0.069792
0.016475,-0.022788,-0.0065204,0.06932,0.0007449,-0.017581,-0.0037359,0.042387,0.00066163,-0.027913,-0.0025795,-0.022032,-0.0088827,-0.015837,0.019397,-0.10551,-0.00077964,-0.0067456,-0.042481,0.10385,-0.0039335,-0.18398,-0.0010234,-0.078427
0.016769,-0.023503,-0.0043926,0.069856,0.0028034,-0.012667,-0.0052679,0.040083,-0.0026357,-0.029904,-0.0024913,-0.032014,-0.010632,-0.018845,0.022695,-0.10121,0.0013967,-0.0078525,-0.041099,0.10284,-0.002937,-0.16215,0.0039728,-0.087093
0.014018,-0.023708,-0.00082945,0.064347,0.003953,-0.013764,-0.0041068,0.03588,-0.0049763,-0.033195,-0.0048156,-0.037174,-0.010848,-0.02107,0.021991,-0.09512,0.0032384,-0.0088405,-0.036765,0.1016,-0.0034291,-0.13182,0.012567,-0.09482
0.010786,-0.023601,0.0034584,0.055036,0.0021829,-0.019028,0.00089449,0.030015,-0.0047747,-0.035424,-0.0083475,-0.03818,-0.011838,-0.020922,0.018825,-0.089464,0.0033792,-0.0090264,-0.033176,0.10593,-0.0041525,-0.092719,0.019712,-0.10165
0.0099452,-0.022923,0.0064801,0.046235,-0.0012978,-0.023756,0.007745,0.023861,-0.0024149,-0.034448,-0.011188,-0.037541,-0.015653,-0.018864,0.015587,-0.086535,0.002122,-0.0081036,-0.033054,0.11762,-0.0049895,-0.049698,0.021861,-0.10743
0.012129,-0.021593,0.0064278,0.04107,-0.0032291,-0.024592,0.012749,0.018819,-4.0837e-005,-0.029512,-0.011854,-0.037546,-0.021659,-0.016782,0.013703,-0.087266,0.0011293,-0.0064695,-0.035329,0.1321,-0.0074694,-0.0093581,0.018454,-0.11093
0.01501,-0.019964,0.0033187,0.038868,-0.0014381,-0.022009,0.013699,0.015181,0.00037451,-0.021892,-0.010141,-0.038956,-0.026341,-0.016268,0.01297,-0.090237,0.0017662,-0.0052726,-0.035688,0.14138,-0.013266,0.024879,0.010989,-0.11049
0.015231,-0.01851,-0.00066953,0.035696,0.0030895,-0.019119,0.011847,0.01204,-0.0010728,-0.014554,-0.0071088,-0.041311,-0.025843,-0.017327,0.012237,-0.092185,0.0036746,-0.0058072,-0.030257,0.14013,-0.021942,0.054948,0.0013441,-0.10576
0.011434,-0.017475,-0.0026152,0.02798,0.0071351,-0.018366,0.010701,0.0083147,-0.0021068,-0.010665,-0.0041458,-0.044113,-0.019172,-0.018483,0.010523,-0.090028,0.0049731,-0.0084584,-0.019303,0.12992,-0.030239,0.085734,-0.0088363,-0.098786
0.0057248,-0.016878,-0.00094625,0.016145,0.0082001,-0.019308,0.012738,0.0038759,-0.00013383,-0.01162,-0.001815,-0.047582,-0.0092452,-0.018019,0.0076555,-0.083099,0.0039657,-0.012049,-0.0076024,0.11804,-0.03397,0.1202,-0.017524,-0.092985
0.0021585,-0.016692,0.0034676,0.0048701,0.0066527,-0.019335,0.017166,-0.00029937,0.0054505,-0.015893,0.00050223,-0.052349,-0.00072619,-0.015303,0.0043048,-0.073843,0.00083194,-0.014368,-0.0009546,0.1118,-0.031136,0.15619,-0.021921,-0.090664
0.0034301,-0.016741,0.008058,-0.00058643,0.0051148,-0.016333,0.020828,-0.0030596,0.012434,-0.019809,0.0037279,-0.058579,0.0035338,-0.011279,0.0017222,-0.066237,-0.0022436,-0.013718,-0.0016276,0.11327,-0.023606,0.18751,-0.019548,-0.091229
0.008546,-0.01641,0.010457,0.0011032,0.0057983,-0.010766,0.021275,-0.0041841,0.017163,-0.019956,0.0077048,-0.065421,0.0043469,-0.007865,0.001299,-0.063,-0.0026563,-0.010354,-0.0065151,0.11854,-0.015836,0.20809,-0.010333,-0.091958
0.013479,-0.014741,0.010026,0.0059756,0.0083606,-0.0054019,0.018945,-0.0046492,0.017107,-0.015554,0.010708,-0.07126,0.0048291,-0.0066657,0.0037877,-0.063671,0.00066935,-0.0065518,-0.0095437,0.12158,-0.011702,0.21578,0.0022497,-0.090806
0.014293,-0.011207,0.0079227,0.0078932,0.010219,-0.0031303,0.016419,-0.0058747,0.012659,-0.0089049,0.010615,-0.074512,0.0072746,-0.007775,0.0084133,-0.065019,0.0065729,-0.0051355,-0.0063928,0.11895,-0.012086,0.21308,0.012559,-0.08868
0.010141,-0.0066056,0.0058857,0.0035368,0.0088988,-0.0047907,0.015707,-0.0086978,0.0068551,-0.0035475,0.0069341,-0.074408,0.011219,-0.0094414,0.012723,-0.06339,0.012637,-0.007504,0.0021942,0.11151,-0.015051,0.20484,0.016175,-0.088897
0.0036941,-0.0030308,0.0048333,-0.0049345,0.0041728,-0.0086821,0.016417,-0.013,0.003215,-0.0016064,0.0018348,-0.071397,0.014301,-0.0090054,0.01385,-0.057162,0.016852,-0.012666,0.010991,0.10255,-0.018031,0.19539,0.01287,-0.094078
-0.0012442,-0.0025725,0.0043661,-0.011712,-0.001854,-0.011935,0.016593,-0.01823,0.0033287,-0.0024718,-0.0010097,-0.067033,0.014735,-0.0047315,0.010626,-0.047543,0.018577,-0.01797,0.01417,0.095036,-0.019876,0.18695,0.0067723,-0.10323
-0.0027961,-0.005664,0.0033887,-0.012033,-0.0065715,-0.012537,0.015138,-0.024191,0.0059503,-0.0037159,0.00094202,-0.063344,0.012809,0.0026528,0.004818,-0.037399,0.0183,-0.020873,0.0094847,0.090257,-0.021086,0.17955,0.0033864,-0.11177
-0.0021588,-0.010548,0.0011998,-0.0059342,-0.0087741,-0.010482,0.013138,-0.031174,0.0082079,-0.0032402,0.0071502,-0.061847,0.010023,0.010022,0.00011988,-0.029299,0.016878,-0.020388,-0.00023034,0.088382,-0.022489,0.17146,0.005647,-0.11471
-0.0020262,-0.014469,-0.0018345,0.0017439,-0.0090141,-0.0073575,0.012635,-0.039188,0.0079061,-0.00077722,0.014393,-0.062607,0.0070583,0.013836,-0.00055908,-0.024227,0.015114,-0.017247,-0.0091108,0.089129,-0.024005,0.1598,0.011989,-0.1104
-0.0038846,-0.015613,-0.0044293,0.004794,-0.0084088,-0.0048415,0.014189,-0.046995,0.0050566,0.0022826,0.019168,-0.06408,0.0028882,0.012782,0.0027159,-0.021602,0.013822,-0.012966,-0.012153,0.091442,-0.02473,0.14175,0.017855,-0.10178
-0.0066867,-0.014099,-0.0050887,-0.00020168,-0.0073424,-0.0034016,0.015893,-0.052128,0.0014412,0.0041891,0.020089,-0.064104,-0.0039532,0.0089836,0.0071689,-0.020149,0.013766,-0.0087845,-0.0081548,0.092903,-0.024037,0.11682,0.019378,-0.094105
-0.0080377,-0.011229,-0.0028142,-0.011866,-0.0053912,-0.0021997,0.015075,-0.05236,-0.0013007,0.0039407,0.018472,-0.061564,-0.013281,0.0065501,0.0097755,-0.018848,0.015134,-0.0052923,0.00014596,0.090449,-0.022414,0.089071,0.016318,-0.091121
-0.0066648,-0.007884,0.0025211,-0.025181,-0.0023921,-0.0001979,0.011097,-0.047641,-0.0032753,0.0014679,0.016965,-0.057432,-0.022562,0.0083733,0.0096559,-0.017475,0.017042,-0.0026964,0.0084359,0.08257,-0.021132,0.066912,0.012039,-0.092569
-0.0037777,-0.0037898,0.010085,-0.034632,0.00064672,0.0026012,0.0064161,-0.040743,-0.0061348,-0.002749,0.01757,-0.054137,-0.02846,0.013679,0.008263,-0.016732,0.017899,-0.0011009,0.013698,0.071107,-0.021108,0.059418,0.010672,-0.09474
-0.0020187,0.0016257,0.018133,-0.037213,0.0019363,0.0049758,0.0046903,-0.035572,-0.011257,-0.0078783,0.020519,-0.053542,-0.029261,0.01845,0.0073897,-0.01793,0.016642,-0.00034935,0.015529,0.060544,-0.022084,0.070773,0.013829,-0.093315
-0.0030125,0.0077993,0.024292,-0.033591,0.00039161,0.0055916,0.0075731,-0.034184,-0.018045,-0.012584,0.024443,-0.055187,-0.026055,0.018546,0.0070929,-0.022151,0.0138,0.00029108,0.015319,0.054842,-0.022837,0.09673,0.019417,-0.086297
-0.0058749,0.012742,0.026327,-0.027106,-0.0031779,0.0043578,0.013231,-0.035097,-0.024042,-0.015092,0.027389,-0.05643,-0.021787,0.013087,0.0056267,-0.02903,0.011272,0.0019475,0.014462,0.054351,-0.022163,0.12622,0.02334,-0.075166
-0.0081172,0.014466,0.023359,-0.021486,-0.0064002,0.0026767,0.018027,-0.034714,-0.026886,-0.013989,0.028011,-0.054544,-0.019155,0.0053167,0.0014502,-0.035936,0.010855,0.005279,0.013303,0.055629,-0.019745,0.14763,0.022634,-0.063831
-0.0080563,0.012847,0.016819,-0.018731,-0.0070568,0.0022569,0.01984,-0.03099,-0.026401,-0.0094106,0.026442,-0.048998,-0.01908,0.00023443,-0.0046775,-0.038513,0.012806,0.0096414,0.011558,0.054481,-0.016298,0.15573,0.017584,-0.056307
-0.0063588,0.010013,0.010182,-0.018295,-0.0047595,0.0035882,0.019939,-0.02601,-0.024891,-0.0035241,0.024446,-0.041912,-0.020612,0.00091735,-0.009647,-0.032854,0.015696,0.013262,0.0094094,0.049638,-0.013005,0.1542,0.01137,-0.054521
-0.0051732,0.0086887,0.0071577,-0.01789,-0.0011563,0.005576,0.021698,-0.024676,-0.025296,0.0005247,0.024557,-0.036278,-0.021813,0.0065202,-0.010263,-0.018117,0.017596,0.014583,0.0078818,0.043777,-0.010761,0.15215,0.0077472,-0.057351
-0.005696,0.0099478,0.0093549,-0.015309,0.0015027,0.0067215,0.027371,-0.030121,-0.028678,0.00076531,0.028426,-0.033543,-0.020734,0.013436,-0.0059647,0.0023717,0.017443,0.013676,0.007977,0.040975,-0.0096655,0.15701,0.0086037,-0.061274
-0.0066518,0.012438,0.015191,-0.010115,0.0022209,0.0066841,0.035862,-0.039874,-0.033133,-0.0019141,0.035364,-0.032661,-0.01608,0.018408,0.00037232,0.022719,0.015503,0.012332,0.0095041,0.042836,-0.0089882,0.16922,0.013079,-0.062192
-0.0053707,0.013746,0.021124,-0.0041413,0.0019877,0.0066517,0.04341,-0.046717,-0.035029,-0.0040628,0.042344,-0.031315,-0.0076965,0.020813,0.0043687,0.037989,0.012779,0.012505,0.010983,0.046677,-0.0075433,0.18234,0.018528,-0.057451
-0.00060945,0.012539,0.024375,-0.00043436,0.0028048,0.0081299,0.046405,-0.044173,-0.03166,-0.0020197,0.045808,-0.028039,0.0031448,0.022287,0.0033883,0.047182,0.010137,0.01445,0.010946,0.047311,-0.0042981,0.18841,0.02232,-0.046995
0.0056073,0.0094555,0.024936,-0.0011806,0.0058259,0.011348,0.043874,-0.032147,-0.023348,0.0053029,0.044146,-0.023352,0.014054,0.024334,-0.0014365,0.053475,0.0078725,0.016362,0.0094335,0.040843,0.0010906,0.18408,0.023133,-0.033179
0.0091462,0.0061248,0.025094,-0.0059441,0.01014,0.01487,0.03778,-0.017567,-0.013467,0.015349,0.038943,-0.019061,0.022673,0.026418,-0.0059922,0.061481,0.0058642,0.016009,0.0081022,0.027358,0.0081308,0.17286,0.021166,-0.019545
0.0071864,0.0035748,0.026926,-0.011506,0.013225,0.016788,0.031403,-0.0090695,-0.0063742,0.023492,0.033894,-0.016593,0.028084,0.026412,-0.0061796,0.07357,0.0039653,0.012934,0.0086707,0.010609,0.015844,0.16187,0.017581,-0.0093114
0.00090007,0.0017887,0.030099,-0.013672,0.012778,0.016349,0.027464,-0.010088,-0.0046667,0.026141,0.032129,-0.015898,0.031292,0.022984,-0.00082846,0.087921,0.0022768,0.0091452,0.011165,-0.0045801,0.023333,0.15546,0.013895,-0.0042297
-0.0051703,0.00073147,0.032092,-0.0099908,0.0085043,0.014503,0.02724,-0.016333,-0.0076284,0.023064,0.033996,-0.015709,0.034171,0.017514,0.0076132,0.099646,0.0011345,0.0075365,0.013748,-0.014907,0.030116,0.15081,0.011586,-0.0040362
-0.0067035,0.001396,0.03071,-0.0014848,0.0024631,0.012985,0.030614,-0.019819,-0.011895,0.017289,0.036998,-0.01468,0.037669,0.013519,0.014969,0.10413,0.00080759,0.0094141,0.014424,-0.019529,0.035993,0.13904,0.011708,-0.0065997
-0.0030892,0.005266,0.026525,0.0080157,-0.0023488,0.012959,0.036324,-0.015818,-0.013836,0.01283,0.037866,-0.012272,0.040891,0.013872,0.018223,0.10019,0.0010639,0.013339,0.012998,-0.01947,0.04072,0.11121,0.014315,-0.0088623
0.0022559,0.012352,0.022836,0.014547,-0.0040481,0.014474,0.042176,-0.0066489,-0.011959,0.01214,0.03507,-0.0087788,0.041963,0.018252,0.017272,0.091021,0.00096132,0.016302,0.01132,-0.016706,0.043905,0.065137,0.018052,-0.0084646
0.0049889,0.019833,0.023019,0.016692,-0.0029741,0.017009,0.045693,0.00081848,-0.0076753,0.01512,0.029829,-0.0047925,0.039855,0.023133,0.014509,0.082183,-0.00075867,0.016174,0.011496,-0.013614,0.045241,0.0080431,0.020595,-0.0053189
0.0035431,0.023231,0.027563,0.016181,-0.0011082,0.020223,0.045398,0.0013866,-0.0039843,0.02005,0.024972,-0.00080865,0.035345,0.024413,0.012889,0.078116,-0.0047121,0.013343,0.013774,-0.012479,0.044706,-0.046942,0.020119,-0.0019228
0.00016151,0.01977,0.033485,0.016032,-0.0004679,0.023972,0.041946,-0.0041244,-0.0031952,0.025284,0.022748,0.0027654,0.03016,0.020455,0.014029,0.079293,-0.010009,0.010339,0.016177,-0.01455,0.042416,-0.08809,0.016829,-0.0016898
-0.001466,0.011171,0.036683,0.017909,-0.001857,0.027658,0.037868,-0.0099902,-0.0053922,0.0302,0.023386,0.0055211,0.025184,0.013078,0.017485,0.081958,-0.014329,0.0099274,0.016321,-0.019038,0.038257,-0.11115,0.013069,-0.0060492
0.00039441,0.0031362,0.035193,0.020928,-0.0047963,0.029898,0.035675,-0.010708,-0.0086462,0.034882,0.025412,0.0072647,0.01964,0.005882,0.021314,0.080586,-0.015165,0.013215,0.013725,-0.023207,0.031848,-0.1202,0.011456,-0.012404
0.0041734,0.0014098,0.030558,0.022758,-0.0083015,0.029244,0.03573,-0.0053733,-0.010579,0.039205,0.027174,0.008399,0.012186,0.0015409,0.023248,0.07139,-0.011446,0.018967,0.010461,-0.024151,0.023041,-0.12324,0.012355,-0.014876
0.0066575,0.0074168,0.026244,0.021807,-0.011575,0.025575,0.035808,0.0022915,-0.009988,0.042402,0.028097,0.0099106,0.0028506,0.00029007,0.021737,0.054403,-0.0043753,0.024335,0.009514,-0.021242,0.012508,-0.12633,0.013079,-0.0078718
0.0058119,0.017106,0.024654,0.018531,-0.014106,0.020805,0.032959,0.0077187,-0.0074561,0.043494,0.028641,0.012683,-0.0062391,0.00050085,0.016436,0.032787,0.0031653,0.026392,0.012338,-0.017205,0.0016983,-0.1307,0.0099985,0.0097643
0.0021522,0.024061,0.025373,0.014925,-0.015486,0.017939,0.026172,0.0093224,-0.0047801,0.042112,0.029278,0.016597,-0.012256,0.00041826,0.0081229,0.010191,0.0081552,0.02372,0.017744,-0.016538,-0.0080059,-0.13441,0.0020644,0.033028
-0.0022067,0.024353,0.026043,0.012991,-0.015482,0.018946,0.017534,0.009071,-0.0038661,0.03887,0.029657,0.020285,-0.013943,-0.00056729,-0.0017718,-0.011491,0.0088805,0.017318,0.022954,-0.022211,-0.016222,-0.13623,-0.007475,0.053017
-0.0054333,0.019209,0.02483,0.013635,-0.014382,0.023124,0.010876,0.0097841,-0.0058404,0.034979,0.028844,0.021947,-0.012538,-0.0019476,-0.011729,-0.03212,0.0055152,0.010303,0.025724,-0.033178,-0.023673,-0.13787,-0.013116,0.061993
-0.0068785,0.013526,0.022115,0.016641,-0.013068,0.027466,0.0090939,0.012043,-0.010735,0.031481,0.026337,0.020722,-0.010395,-0.0029669,-0.020523,-0.05139,-0.00018713,0.0063021,0.025711,-0.044762,-0.031239,-0.14245,-0.011483,0.058075
-0.0065469,0.011827,0.019918,0.021187,-0.012467,0.028919,0.01236,0.01362,-0.017674,0.0288,0.022804,0.017572,-0.0086596,-0.0033117,-0.027306,-0.067097,-0.0056853,0.0072928,0.024161,-0.051689,-0.038761,-0.151,-0.0042361,0.046495
-0.0043451,0.015155,0.019721,0.026097,-0.012806,0.02676,0.018447,0.011775,-0.025299,0.026945,0.019752,0.01498,-0.0063491,-0.0030647,-0.031542,-0.075518,-0.0085999,0.012275,0.022631,-0.051427,-0.044742,-0.16053,0.0032254,0.036498
-0.00032596,0.021136,0.020885,0.02979,-0.013478,0.02308,0.024491,0.0061076,-0.032246,0.026036,0.018413,0.015662,-0.0017677,-0.0022197,-0.033017,-0.073731,-0.0076692,0.017889,0.02206,-0.045381,-0.047387,-0.16603,0.0062157,0.03575
0.0043499,0.026479,0.0212,0.030559,-0.013784,0.020884,0.02855,-0.00067023,-0.037566,0.026553,0.018866,0.02112,0.005161,-0.00042737,-0.031998,-0.061905,-0.0034413,0.020709,0.022796,-0.037314,-0.046251,-0.16499,0.0044046,0.045765
0.0072091,0.029316,0.019066,0.027521,-0.013797,0.021401,0.029975,-0.0047252,-0.041013,0.028926,0.020187,0.030872,0.012063,0.0026966,-0.029347,-0.043566,0.0018061,0.019599,0.024976,-0.030467,-0.043094,-0.1607,0.0014456,0.061348
0.0059053,0.02963,0.015186,0.021585,-0.014322,0.023002,0.02895,-0.0040673,-0.043112,0.032809,0.021437,0.042643,0.015758,0.0069946,-0.026314,-0.023674,0.0052173,0.016281,0.028422,-0.025562,-0.041043,-0.16134,0.0011692,0.074428
0.00033499,0.028217,0.012078,0.01532,-0.0158,0.022744,0.026125,5.0418e-005,-0.044858,0.036734,0.022516,0.053252,0.014954,0.011502,-0.02398,-0.0060849,0.0050993,0.013726,0.032088,-0.020927,-0.042478,-0.17468,0.0040716,0.079679
-0.0066516,0.025846,0.011793,0.011412,-0.017261,0.019252,0.022616,0.0044091,-0.047084,0.038692,0.023998,0.059802,0.011553,0.0148,-0.022693,0.0077888,0.0020463,0.013701,0.034014,-0.014351,-0.047246,-0.202,0.0073477,0.077895
-0.011022,0.023399,0.013985,0.010743,-0.016578,0.014329,0.01985,0.0066332,-0.049764,0.037384,0.026061,0.060778,0.0094192,0.015762,-0.021927,0.018555,-0.0015436,0.015511,0.032482,-0.0052551,-0.052742,-0.23527,0.0081622,0.074682
-0.01059,0.022177,0.01616,0.01173,-0.012115,0.011729,0.01879,0.0072007,-0.05179,0.033194,0.027587,0.056722,0.011681,0.014161,-0.020718,0.027417,-0.0033347,0.016906,0.027745,0.0043401,-0.056001,-0.25995,0.0067426,0.075558
-0.0067069,0.023293,0.015891,0.011595,-0.0043868,0.014023,0.019026,0.0090532,-0.05152,0.028021,0.02657,0.050092,0.018657,0.010804,-0.018357,0.03495,-0.0028355,0.016258,0.022629,0.010814,-0.0562,-0.26216,0.0062007,0.081456
-0.003087,0.026405,0.012905,0.0086217,0.003817,0.020243,0.018769,0.015134,-0.047871,0.02393,0.021869,0.044136,0.02769,0.0071936,-0.014823,0.040772,-0.0015937,0.014067,0.020941,0.011456,-0.05543,-0.23648,0.0093017,0.088275
-0.0027361,0.029345,0.0091137,0.0035979,0.0091241,0.02641,0.016153,0.02575,-0.041174,0.021647,0.014916,0.041195,0.034622,0.0049795,-0.010648,0.044071,-0.0016407,0.012548,0.024547,0.0068939,-0.05686,-0.18978,0.015414,0.090668
-0.0056388,0.029625,0.0066371,-0.00068362,0.0097568,0.028567,0.010924,0.037759,-0.033095,0.020158,0.009568,0.041426,0.035819,0.0053367,-0.0063995,0.044505,-0.0035868,0.013727,0.031506,0.001541,-0.061713,-0.13827,0.020671,0.086575
-0.0090807,0.026776,0.0057366,-0.0013817,0.0065086,0.025836,0.0049431,0.046272,-0.025621,0.017787,0.0096099,0.042959,0.029892,0.008377,-0.002226,0.042841,-0.0060802,0.017743,0.037086,0.0012191,-0.067647,-0.098573,0.021281,0.07854
-0.01012,0.02317,0.0045522,0.0025494,0.0019035,0.02099,0.00087856,0.047782,-0.019855,0.013855,0.015555,0.043496,0.018601,0.012833,0.0021179,0.040776,-0.0070776,0.02274,0.037119,0.0092079,-0.070147,-0.077639,0.016926,0.070947
-0.0079702,0.022151,0.00078974,0.0098888,-0.0016287,0.018133,0.00011508,0.042607,-0.015471,0.0094959,0.023522,0.042223,0.0065105,0.016436,0.0068007,0.039861,-0.0057057,0.026307,0.031034,0.023505,-0.06596,-0.067911,0.011182,0.066147
-0.004417,0.024938,-0.0062111,0.018052,-0.0031705,0.019461,0.0017274,0.034847,-0.011068,0.0069171,0.027661,0.040483,-0.00094713,0.017153,0.0114,0.040177,-0.0029893,0.027137,0.02204,0.037538,-0.055705,-0.052013,0.0086485,0.063213
-0.0022415,0.029236,-0.014741,0.024396,-0.0035107,0.023681,0.0034452,0.029723,-0.0050141,0.0077486,0.024637,0.040638,-0.00044965,0.014663,0.014837,0.039932,-0.00083644,0.025616,0.014315,0.044068,-0.043367,-0.014931,0.011397,0.060104
-0.0031828,0.031084,-0.021726,0.027078,-0.0042772,0.027204,0.0037332,0.03001,0.0037428,0.011864,0.016502,0.044052,0.0069654,0.010909,0.015947,0.03668,-0.00030824,0.023129,0.0096375,0.039501,-0.03302,0.044144,0.017721,0.056492
-0.0069646,0.028386,-0.024504,0.025405,-0.0067413,0.026951,0.0031123,0.034184,0.015136,0.017534,0.0092406,0.049901,0.016276,0.0089506,0.01435,0.029533,-0.00081303,0.020943,0.0063141,0.025552,-0.025592,0.10917,0.023885,0.053998
-0.011757,0.022839,-0.022133,0.020112,-0.010986,0.022499,0.003565,0.037837,0.027708,0.022597,0.0078557,0.055708,0.021699,0.010692,0.010982,0.020544,-0.00091937,0.019589,0.0012289,0.0073891,-0.018514,0.15673,0.026993,0.053654
-0.015383,0.018408,-0.015622,0.013535,-0.015795,0.016057,0.0065995,0.03745,0.038789,0.025616,0.012093,0.059039,0.020586,0.015219,0.0077562,0.013707,6.6492e-005,0.018919,-0.0069282,-0.0098197,-0.008569,0.17147,0.0265,0.053719
-0.016379,0.017737,-0.0073048,0.0090743,-0.019259,0.010643,0.011695,0.033546,0.045416,0.026267,0.016675,0.058884,0.014959,0.019259,0.0064536,0.011915,0.0012986,0.018402,-0.016158,-0.023197,0.0045791,0.15638,0.023598,0.050759
-0.014496,0.019845,0.00016988,0.0095412,-0.019788,0.0081683,0.016458,0.030465,0.045883,0.025042,0.01606,0.055852,0.0094317,0.019617,0.0075348,0.014275,0.0011286,0.017324,-0.022672,-0.032027,0.01737,0.13012,0.019688,0.04336
-0.010657,0.021224,0.0048036,0.015156,-0.017004,0.0087991,0.018345,0.032701,0.04099,0.022761,0.0096086,0.051459,0.007317,0.015685,0.0097495,0.016347,-0.0013106,0.015008,-0.024003,-0.036276,0.024829,0.11334,0.01558,0.034556
-0.0064865,0.019247,0.0058879,0.022938,-0.011982,0.011615,0.016535,0.040787,0.033892,0.020255,0.0024949,0.047398,0.0082559,0.0099555,0.01087,0.013665,-0.0051413,0.011308,-0.020914,-0.03569,0.024439,0.11448,0.011765,0.029809
-0.0035455,0.014647,0.0041053,0.028522,-0.0067107,0.015469,0.01249,0.050298,0.028242,0.018172,0.001402,0.045108,0.0092539,0.0060661,0.0090993,0.0058646,-0.0082809,0.0071541,-0.01645,-0.030282,0.018073,0.12545,0.0088513,0.031769
-0.0025231,0.010775,0.0010736,0.029397,-0.0030843,0.019171,0.0088349,0.055014,0.02582,0.016779,0.0087618,0.045263,0.0078628,0.0059987,0.0042429,-0.0022657,-0.0090142,0.0045185,-0.013145,-0.021306,0.010324,0.12965,0.0072976,0.036715
-0.0028321,0.010392,-0.0014104,0.026914,-0.0020308,0.021238,0.0074502,0.051671,0.025527,0.015849,0.020609,0.047011,0.0043938,0.0087806,-0.0020422,-0.0042717,-0.0072469,0.0054208,-0.011038,-0.011265,0.0047387,0.11514,0.0068023,0.036656
-0.0029844,0.013054,-0.0020465,0.025119,-0.0031968,0.020112,0.0082328,0.042335,0.024705,0.01482,0.029839,0.04771,0.0011857,0.011685,-0.0070196,0.0024403,-0.0044305,0.010476,-0.0083357,-0.002608,0.0012683,0.082964,0.0063608,0.025999
-0.0016392,0.015498,-0.0004065,0.027169,-0.005247,0.015225,0.0094363,0.03253,0.021772,0.013197,0.031847,0.044196,-7.8561e-005,0.012743,-0.0082215,0.013727,-0.0023309,0.018117,-0.003976,0.0038159,-0.0028898,0.045145,0.0053266,0.007156
0.0013483,0.014616,0.0029894,0.032422,-0.0065615,0.0079876,0.0092904,0.026866,0.017934,0.010908,0.027611,0.035323,-0.00014563,0.012276,-0.0047417,0.021364,-0.0017381,0.025266,0.00054395,0.0090944,-0.009898,0.015748,0.0044538,-0.010154
0.0047031,0.010256,0.0068583,0.036893,-0.0060241,0.0014235,0.0075975,0.025842,0.016413,0.0083604,0.021895,0.023777,-0.0012176,0.012159,0.0021101,0.019465,-0.0021154,0.029106,0.0020337,0.015017,-0.018454,0.0026355,0.0055771,-0.015825
0.0066268,0.0053279,0.0096711,0.036784,-0.0035695,-0.001799,0.0059837,0.026183,0.01978,0.0062046,0.018734,0.014995,-0.0042597,0.013661,0.0092164,0.0093709,-0.0022899,0.028679,-0.0014628,0.022304,-0.024165,0.0055119,0.0098538,-0.0069957
0.0062174,0.0032337,0.010465,0.031953,-0.00016358,-0.0014456,0.0065282,0.023975,0.027714,0.0050216,0.018466,0.013319,-0.0074518,0.015964,0.013172,-0.0013505,-0.0014682,0.025162,-0.0084039,0.029789,-0.022898,0.019704,0.016153,0.0099073
0.0042799,0.0050199,0.0095583,0.026143,0.0028809,8.5376e-005,0.0098433,0.017846,0.037209,0.0050496,0.018635,0.01828,-0.0076004,0.016776,0.012314,-0.0051775,0.00020603,0.020764,-0.014395,0.035212,-0.014189,0.040896,0.02137,0.024305
0.0027666,0.0087086,0.0085433,0.023755,0.0048637,-5.7997e-005,0.014227,0.0098872,0.0451,0.0059744,0.017281,0.024433,-0.0033637,0.014391,0.0080406,-0.00087284,0.0018039,0.017253,-0.015362,0.03697,-0.0016512,0.066678,0.022766,0.029438
0.0031802,0.011173,0.009301,0.026077,0.0061699,-0.0024234,0.016709,0.0040935,0.05071,0.0068841,0.015128,0.025312,0.0028404,0.0092603,0.0043021,0.005804,0.0022142,0.015273,-0.010597,0.035406,0.010056,0.09478,0.020348,0.026707
0.0052164,0.010696,0.0126,0.030298,0.0077513,-0.0045505,0.015255,0.0037507,0.05625,0.0066298,0.014705,0.018437,0.006364,0.0036742,0.0052172,0.0075817,0.00082903,0.014698,-0.0031267,0.032683,0.019038,0.121,0.017024,0.02324
0.0068431,0.0080035,0.017355,0.032049,0.0099872,-0.0032482,0.010358,0.0094538,0.064566,0.0046408,0.017615,0.007162,0.0042334,-1.6897e-005,0.01225,0.0024445,-0.0019521,0.015331,0.0027689,0.031362,0.027305,0.1395,0.01611,0.025268
0.0058673,0.0051975,0.02123,0.029076,0.012,0.0020732,0.0046564,0.018636,0.076168,0.0017015,0.02275,-0.0021641,-0.0020281,-0.00095273,0.022959,-0.0044727,-0.0046518,0.01706,0.0047593,0.032788,0.038131,0.14543,0.018261,0.033053
0.0017642,0.0038525,0.022211,0.022884,0.012222,0.0082063,0.00082507,0.026669,0.088132,-0.00013947,0.027112,-0.005183,-0.0073844,0.00016626,0.032353,-0.0056206,-0.0053362,0.019394,0.0038783,0.036455,0.052004,0.13732,0.020616,0.041342
-0.0037456,0.0040202,0.019976,0.01723,0.0098437,0.010515,-0.0005672,0.029055,0.095911,0.0011459,0.02826,-0.0024499,-0.0074608,0.0021908,0.035963,0.001948,-0.0028442,0.021149,0.0032972,0.040721,0.064956,0.11719,0.019139,0.044413
-0.0078736,0.0047146,0.016086,0.015098,0.0058172,0.0069706,-0.0014179,0.023787,0.096625,0.005877,0.026087,0.0018546,-0.002344,0.0044855,0.032466,0.013762,0.0021118,0.021007,0.0056524,0.044195,0.071106,0.088526,0.012339,0.04104
-0.0087443,0.0050579,0.012936,0.016766,0.0024088,0.00017667,-0.0042899,0.01258,0.091154,0.012047,0.022519,0.0038175,0.003377,0.0068466,0.024109,0.021884,0.0070121,0.018695,0.010989,0.046707,0.067449,0.053822,0.0031443,0.035185
-0.0065791,0.0049211,0.012302,0.020184,0.0015819,-0.0046421,-0.0098968,8.7874e-006,0.083365,0.016584,0.019747,0.0027565,0.0044598,0.0087851,0.014917,0.021864,0.0091161,0.01562,0.016701,0.049244,0.056842,0.013633,-0.0028948,0.032138
-0.0031913,0.004694,0.014386,0.022824,0.0035685,-0.004076,-0.016043,-0.0091713,0.077129,0.017654,0.018702,0.0010488,-0.00056023,0.0093165,0.008253,0.016176,0.007572,0.014039,0.019405,0.053062,0.046488,-0.032899,-0.001898,0.033724
-0.00034668,0.0047334,0.017819,0.023225,0.0067639,0.0005532,-0.019105,-0.012811,0.073574,0.016047,0.018869,0.0015675,-0.0081861,0.007773,0.0054242,0.011138,0.004279,0.015209,0.017419,0.058756,0.043052,-0.087144,0.0049911,0.036807
0.0015347,0.0051499,0.020447,0.02128,0.0089058,0.0044587,-0.01703,-0.012253,0.07072,0.014327,0.019154,0.0052009,-0.012963,0.004866,0.0059187,0.010623,0.0025407,0.018048,0.012173,0.065846,0.048319,-0.15064,0.012058,0.036251
0.0032423,0.0059771,0.020513,0.017609,0.0085362,0.0037393,-0.011418,-0.010701,0.0656,0.014475,0.018762,0.010268,-0.011934,0.0026902,0.0085116,0.01283,0.0044442,0.019655,0.0074899,0.072908,0.058735,-0.22487,0.01319,0.029668
0.0054433,0.0072702,0.017686,0.012948,0.0057723,-0.0010836,-0.0067771,-0.010449,0.056933,0.016165,0.017464,0.013743,-0.0066899,0.0032506,0.012127,0.013074,0.0091857,0.017446,0.0070845,0.078061,0.068818,-0.31016,0.0066158,0.019774
0.0075072,0.0088747,0.013381,0.0080277,0.0021032,-0.0055074,-0.0072854,-0.011238,0.046064,0.017336,0.015406,0.013013,-0.0014752,0.0066261,0.015976,0.0093731,0.013865,0.011215,0.011965,0.079618,0.075331,-0.40323,-0.003546,0.01235
0.0077221,0.010184,0.0099847,0.0036939,-0.00047787,-0.0050338,-0.013533,-0.01095,0.035494,0.016476,0.012965,0.0070748,0.00057082,0.010508,0.019367,0.0048572,0.016076,0.0034176,0.019655,0.076855,0.078894,-0.49501,-0.010246,0.011551
0.0048617,0.010387,0.0092617,0.00076615,-0.00053637,0.00089084,-0.021928,-0.0078228,0.026524,0.014358,0.010717,-0.0030957,-0.00044845,0.011816,0.021755,0.0044672,0.01592,-0.0025293,0.025931,0.070547,0.08232,-0.57098,-0.0087007,0.01652
-0.000283,0.0091927,0.01099,-0.00043743,0.0020137,0.0084413,-0.027395,-0.0021872,0.018237,0.01341,0.0092626,-0.014859,-0.0023192,0.0092155,0.023086,0.0094382,0.015545,-0.004515,0.027816,0.062789,0.087772,-0.61519,0.00026962,0.022051
-0.0049447,0.007361,0.013023,-0.00047136,0.0058399,0.012731,-0.027233,0.0036573,0.0087318,0.015241,0.0087489,-0.024813,-0.0035367,0.0044015,0.023919,0.015451,0.016595,-0.0028262,0.025514,0.055895,0.095413,-0.61649,0.011311,0.022631
-0.0062377,0.0063838,0.012986,-0.00050735,0.0090273,0.011813,-0.02297,0.0071384,-0.0026411,0.018722,0.0085191,-0.030144,-0.0048088,0.00093918,0.024909,0.016609,0.018014,0.00054592,0.021786,0.050985,0.10421,-0.57334,0.018954,0.016484
-0.00341,0.0074229,0.010354,-0.0014254,0.010364,0.0078557,-0.018671,0.0071225,-0.014278,0.020619,0.0074021,-0.029932,-0.0078529,0.0015293,0.025998,0.011387,0.016424,0.0035199,0.019417,0.047342,0.11334,-0.49412,0.021608,0.0064516
0.0014505,0.010399,0.0070403,-0.002899,0.010097,0.004719,-0.017177,0.0042989,-0.023539,0.018383,0.0046362,-0.025635,-0.012964,0.0059508,0.02619,0.0045812,0.0090235,0.0050958,0.018994,0.043111,0.12235,-0.39285,0.021889,-0.0026209
0.0049622,0.014058,0.0057861,-0.003352,0.0094621,0.0043925,-0.017602,0.000187,-0.029016,0.012563,0.00067259,-0.020329,-0.018047,0.011343,0.024379,0.0031399,-0.0034227,0.0054362,0.018904,0.036816,0.13001,-0.28379,0.023289,-0.0075157
0.004995,0.016945,0.0076203,-0.0011053,0.0093958,0.0056231,-0.016355,-0.0041181,-0.031629,0.0065549,-0.002968,-0.017066,-0.020266,0.014489,0.020643,0.0097213,-0.016235,0.0052658,0.017339,0.028429,0.13373,-0.17897,0.026346,-0.0082903
0.0020635,0.018395,0.010737,0.0040028,0.009668,0.0057859,-0.010844,-0.0083017,-0.033545,0.0038244,-0.0048105,-0.017307,-0.018773,0.014139,0.016718,0.019967,-0.023723,0.0053557,0.014281,0.019195,0.13079,-0.08993,0.027803,-0.0070367
-0.0015249,0.018686,0.012018,0.0098683,0.0092997,0.0039544,-0.0025352,-0.012142,-0.036076,0.0050514,-0.0046003,-0.020259,-0.015854,0.011577,0.014932,0.025879,-0.023219,0.0063692,0.011535,0.010537,0.12065,-0.030811,0.023473,-0.005459
-0.0038176,0.01841,0.0099803,0.013113,0.0077983,0.0020755,0.0035447,-0.014726,-0.038727,0.0077521,-0.0034862,-0.023417,-0.015255,0.0092278,0.016346,0.022105,-0.017066,0.0087415,0.010849,0.0030982,0.1058,-0.017788,0.012282,-0.0037722
-0.0046055,0.017838,0.0064479,0.011323,0.0058431,0.0030844,0.0027331,-0.014635,-0.040249,0.0086466,-0.0030289,-0.023979,-0.019081,0.0086737,0.01973,0.0096412,-0.010933,0.012311,0.012116,-0.0033823,0.089721,-0.062677,-0.0020835,-0.0017771
-0.0049053,0.016967,0.0051945,0.0049,0.0046273,0.0077999,-0.0051727,-0.011169,-0.040414,0.0065859,-0.0039038,-0.020506,-0.025977,0.0096708,0.022426,-0.0056522,-0.0096925,0.016014,0.013536,-0.0095107,0.073557,-0.1638,-0.013348,-0.00056938
-0.0053404,0.016072,0.0085833,-0.0029357,0.0045436,0.013653,-0.015266,-0.005471,-0.040418,0.0034313,-0.0054132,-0.013955,-0.032176,0.010663,0.022444,-0.01766,-0.014003,0.018283,0.013596,-0.015628,0.054832,-0.30087,-0.016861,-0.002582
-0.0052659,0.015941,0.015176,-0.0080903,0.0046703,0.016588,-0.021114,-0.00021776,-0.041384,0.00223,-0.0061523,-0.0073202,-0.034547,0.010105,0.019993,-0.023525,-0.020145,0.018217,0.012722,-0.021553,0.03018,-0.4388,-0.012479,-0.009384
-0.0035691,0.017263,0.02058,-0.0080987,0.003695,0.014494,-0.019684,0.0022474,-0.042642,0.0044592,-0.0051575,-0.0037488,-0.033022,0.0075204,0.017122,-0.023816,-0.02307,0.016621,0.012739,-0.026644,-4.0572e-005,-0.53964,-0.0040361,-0.019231
-0.00021495,0.019618,0.02095,-0.0034852,0.0013538,0.0090474,-0.013476,0.0018746,-0.041934,0.0088222,-0.00256,-0.0041436,-0.030394,0.0037208,0.015873,-0.020475,-0.020186,0.0157,0.01456,-0.030033,-0.029679,-0.57586,0.0038295,-0.027158
0.0032363,0.021192,0.01612,0.0027844,-0.0011454,0.0043238,-0.0080689,0.0010953,-0.037695,0.012534,0.00064414,-0.0060656,-0.029687,0.00033871,0.016593,-0.015058,-0.012973,0.017232,0.016529,-0.031067,-0.049948,-0.53784,0.00882,-0.02834
0.004834,0.0199,0.0096622,0.0072133,-0.002238,0.0034287,-0.0072806,0.0027767,-0.031147,0.013773,0.0033003,-0.0051622,-0.031423,-0.00089654,0.017798,-0.0084083,-0.0054347,0.020654,0.015401,-0.029979,-0.055778,-0.43297,0.011821,-0.022196
0.0040029,0.015266,0.0058621,0.0078156,-0.001593,0.0061535,-0.010149,0.007562,-0.025767,0.013052,0.0046469,0.0015737,-0.033193,0.0011675,0.017517,-0.00093274,-0.00096769,0.022956,0.0092747,-0.028425,-0.050073,-0.27896,0.015231,-0.013534
0.0020396,0.0094293,0.006308,0.0052071,-0.00058843,0.0095935,-0.012225,0.013,-0.024216,0.01241,0.004484,0.013156,-0.031918,0.0065804,0.014878,0.007526,-0.00028394,0.020943,-0.00034573,-0.029285,-0.041986,-0.096703,0.020432,-0.0091954
0.00077165,0.0060922,0.0089968,0.0022458,-0.001112,0.010942,-0.0097822,0.015432,-0.025568,0.013321,0.003165,0.024845,-0.026836,0.014022,0.010746,0.017901,-0.001866,0.014124,-0.0095664,-0.035428,-0.040392,0.094243,0.026385,-0.012673
0.00072926,0.0079068,0.010524,0.0023543,-0.0036973,0.0098267,-0.0030709,0.013139,-0.025724,0.015299,0.0015664,0.0313,-0.020524,0.021043,0.0071294,0.031066,-0.0040925,0.0056525,-0.015442,-0.047992,-0.047769,0.27748,0.030169,-0.021179
0.00074197,0.014332,0.0092315,0.0072959,-0.0066506,0.008205,0.0041396,0.0080166,-0.021011,0.016392,0.00085867,0.030258,-0.01697,0.024989,0.0059486,0.046019,-0.0068133,0.00020506,-0.018495,-0.065337,-0.059112,0.4403,0.028853,-0.027803
-0.00056422,0.021821,0.0065449,0.015676,-0.0070405,0.0082471,0.0080087,0.0042799,-0.011754,0.014999,0.001863,0.023874,-0.018321,0.02437,0.0079065,0.058964,-0.010914,0.00045007,-0.021938,-0.083631,-0.066113,0.57366,0.021354,-0.02714
-0.0029072,0.026342,0.0055551,0.023348,-0.0029363,0.01038,0.007769,0.0052794,-0.0024029,0.011301,0.0042799,0.016897,-0.02309,0.019909,0.012006,0.06516,-0.016505,0.0050837,-0.028244,-0.098945,-0.062701,0.67162,0.0092215,-0.01983
-0.0041587,0.026208,0.0083134,0.02586,0.004743,0.013241,0.0059029,0.01111,0.0021047,0.0070988,0.0065418,0.013344,-0.02735,0.014439,0.015961,0.06284,-0.02181,0.010054,-0.036318,-0.10951,-0.047826,0.73061,-0.0039694,-0.012427
-0.0022277,0.022879,0.014199,0.021524,0.012256,0.015249,0.0056058,0.01885,0.00055439,0.0043746,0.0067752,0.014254,-0.027824,0.011403,0.017455,0.055752,-0.024132,0.011772,-0.041999,-0.11649,-0.024492,0.74954,-0.014194,-0.012745
0.0027495,0.019204,0.020493,0.012913,0.015201,0.016,0.008115,0.024929,-0.0035923,0.0039699,0.0043557,0.017821,-0.024242,0.012766,0.015687,0.051216,-0.022178,0.0095057,-0.04153,-0.1224,0.0028445,0.73144,-0.018697,-0.024218
0.008154,0.016813,0.024362,0.0054698,0.011524,0.01613,0.012178,0.027478,-0.0053589,0.0054556,0.00072613,0.021165,-0.019146,0.017703,0.012187,0.054407,-0.017432,0.0052127,-0.034891,-0.12821,0.030067,0.68496,-0.017049,-0.043174
0.011,0.015064,0.024571,0.0040061,0.0032365,0.016064,0.015653,0.02693,-0.0026257,0.0079803,-0.0014946,0.022161,-0.015617,0.023054,0.010025,0.063599,-0.013008,0.0015225,-0.026045,-0.1314,0.053916,0.62351,-0.011048,-0.060507
0.0105,0.012396,0.021905,0.0095456,-0.0046225,0.015236,0.017367,0.024931,0.0022707,0.010997,-0.0006429,0.020309,-0.014986,0.025355,0.011683,0.071052,-0.010829,-1.4433e-005,-0.019949,-0.12682,0.072307,0.56089,-0.003553,-0.066383
0.0086237,0.0085906,0.018471,0.018768,-0.0073503,0.012735,0.017573,0.022906,0.0050856,0.014139,0.0023642,0.016657,-0.016261,0.023079,0.017046,0.069541,-0.0097631,0.00087638,-0.018901,-0.1103,0.085104,0.50562,0.0030944,-0.055217
0.0081036,0.0055892,0.016604,0.026384,-0.0038936,0.0086865,0.017028,0.021431,0.0038972,0.016638,0.0044664,0.01319,-0.017243,0.017594,0.023235,0.059134,-0.0066468,0.0039528,-0.021165,-0.082479,0.094495,0.45805,0.0081671,-0.028493
0.00978,0.0059027,0.017829,0.02866,0.0024648,0.0047915,0.016049,0.02038,0.0010357,0.017259,0.0028281,0.011888,-0.016046,0.012216,0.0266,0.048021,0.00061978,0.008782,-0.022684,-0.049686,0.10375,0.41238,0.012496,0.0057613
0.01183,0.010058,0.022013,0.025633,0.0067001,0.0032743,0.014555,0.0192,0.00091686,0.015128,-0.0027471,0.013577,-0.011877,0.01009,0.025406,0.046113,0.010814,0.014233,-0.020216,-0.020674,0.11467,0.36209,0.017328,0.036687
0.011572,0.015576,0.027028,0.020696,0.0058917,0.0050906,0.012815,0.017014,0.0058077,0.010712,-0.0094288,0.017102,-0.0050409,0.012284,0.021009,0.056654,0.020244,0.018152,-0.013413,-0.0012404,0.12571,0.30446,0.022924,0.055916
0.0081045,0.018646,0.029501,0.018085,0.0011935,0.0090253,0.011766,0.012916,0.01346,0.0058382,-0.013426,0.019657,0.003221,0.01726,0.016631,0.073162,0.026055,0.018299,-0.004558,0.0092551,0.13275,0.24126,0.027971,0.061771
0.0033156,0.017147,0.026772,0.020039,-0.0036168,0.0125,0.012311,0.0067558,0.018809,0.0025105,-0.012851,0.018509,0.010839,0.021852,0.014914,0.084501,0.028913,0.014131,0.0033966,0.016736,0.13229,0.17607,0.030345,0.059698
0.00040932,0.012333,0.01902,0.025368,-0.0055889,0.013422,0.014234,-4.151e-005,0.018193,0.0015192,-0.0090477,0.013116,0.015382,0.023052,0.016418,0.083791,0.032442,0.0077488,0.0087803,0.027417,0.12443,0.11178,0.028662,0.058292
0.0013105,0.0077031,0.0097857,0.030181,-0.0049379,0.011617,0.015919,-0.0045772,0.012297,0.002114,-0.0053527,0.0058862,0.015224,0.019542,0.020116,0.073556,0.039789,0.0027447,0.01187,0.042893,0.11312,0.050596,0.023411,0.06339
0.0051581,0.0060742,0.003966,0.03032,-0.00429,0.008853,0.015395,-0.0039646,0.0052576,0.0030024,-0.0044179,0.00058679,0.01083,0.012276,0.024937,0.06292,0.050427,0.0016598,0.014178,0.059158,0.10319,-0.0038205,0.016742,0.074394
0.0089672,0.0074963,0.0044143,0.024128,-0.0057598,0.0075611,0.011908,0.0025757,0.00090121,0.0036253,-0.0063059,-0.0006043,0.0049504,0.0039515,0.030545,0.0597,0.060173,0.0042017,0.017208,0.070179,0.096545,-0.045031,0.011151,0.085505
0.0097486,0.0097356,0.0097699,0.013855,-0.0087361,0.0091508,0.0066435,0.012549,-0.00038295,0.0044064,-0.0087954,0.00098994,0.0011241,-0.0022512,0.036629,0.064418,0.064536,0.0077655,0.021564,0.072925,0.090738,-0.065266,0.0081834,0.090639
0.0064774,0.010652,0.015429,0.0046244,-0.010469,0.012977,0.0018777,0.021024,-0.0013879,0.0057474,-0.0094388,0.0014572,0.0014136,-0.0040509,0.041861,0.071148,0.062491,0.0097014,0.026777,0.069692,0.08114,-0.058947,0.0080974,0.087808
0.00072135,0.010125,0.017023,0.0012716,-0.0088282,0.016594,-0.00074146,0.02318,-0.0049144,0.006884,-0.0075808,-0.0025524,0.0051465,-0.00095367,0.044153,0.073737,0.057343,0.0092614,0.031665,0.066035,0.065083,-0.025839,0.01041,0.079457
-0.0042404,0.0097799,0.01361,0.0049683,-0.004528,0.017244,-0.0013308,0.01701,-0.010798,0.0059747,-0.004791,-0.01105,0.0097165,0.0056721,0.042403,0.071411,0.053894,0.0076702,0.034924,0.066343,0.044735,0.02795,0.014448,0.06911
-0.0052187,0.010957,0.0079881,0.012076,-0.00064459,0.013784,-0.001355,0.0045263,-0.015956,0.0016555,-0.0035625,-0.020652,0.012703,0.013289,0.037996,0.068844,0.054298,0.0066376,0.035795,0.070857,0.026423,0.090892,0.019314,0.058027
-0.00094253,0.013015,0.0040729,0.016407,0.00018648,0.0077399,-0.0020664,-0.0093136,-0.017363,-0.0052076,-0.0054276,-0.027172,0.013463,0.019298,0.034213,0.071192,0.056182,0.0069163,0.034652,0.076275,0.016817,0.14789,0.023631,0.045207
0.0069992,0.013683,0.003759,0.013583,-0.0017159,0.0025483,-0.0032068,-0.019318,-0.015145,-0.011283,-0.0098828,-0.028454,0.012992,0.022109,0.033683,0.079074,0.054655,0.0080845,0.033196,0.07891,0.018801,0.18304,0.025874,0.030352
0.014749,0.011152,0.0059286,0.0043254,-0.0032424,0.0012424,-0.0031365,-0.022825,-0.012846,-0.012664,-0.014754,-0.025098,0.012538,0.021781,0.036113,0.08811,0.046557,0.0093134,0.033844,0.077445,0.029972,0.18408,0.025435,0.016198
0.018227,0.0059624,0.0081252,-0.0059788,-0.0013019,0.0041907,-0.00030078,-0.020924,-0.014521,-0.0076821,-0.017614,-0.01899,0.012492,0.019949,0.038546,0.093028,0.033381,0.010062,0.038297,0.073296,0.044652,0.14817,0.02352,0.0072291
0.015552,0.00089205,0.0089763,-0.011329,0.0041813,0.0087364,0.0051948,-0.017438,-0.021185,0.0015202,-0.017278,-0.011624,0.012524,0.018979,0.038072,0.092164,0.020392,0.010105,0.046024,0.068944,0.057606,0.085534,0.022754,0.0056698
0.0082573,-0.0011408,0.009002,-0.0097071,0.0097812,0.011219,0.011211,-0.016346,-0.029712,0.010085,-0.014456,-0.0040157,0.012446,0.020618,0.034513,0.088193,0.012644,0.0092642,0.053882,0.0661,0.06651,0.016576,0.025454,0.0087753
0.00036236,0.00060612,0.00929,-0.0045452,0.011141,0.0098607,0.014721,-0.019227,-0.035155,0.01358,-0.011188,0.0022165,0.012576,0.024809,0.030581,0.084824,0.011199,0.0074734,0.057635,0.06498,0.071503,-0.038415,0.031846,0.010459
-0.0041459,0.0040924,0.0097167,-0.0018321,0.0065089,0.0061319,0.013632,-0.024275,-0.034504,0.010903,-0.0094371,0.0045966,0.013086,0.029523,0.02935,0.083014,0.012619,0.0051864,0.054713,0.064598,0.072734,-0.071505,0.039731,0.0060622
-0.0036567,0.006069,0.008771,-0.0052604,-0.0017304,0.0033868,0.0080074,-0.027464,-0.028802,0.0047488,-0.0097938,0.0014227,0.013127,0.031909,0.031394,0.080413,0.012046,0.0034685,0.046311,0.063297,0.068495,-0.092429,0.045914,-0.0041661
0.00048116,0.0045406,0.0052486,-0.013442,-0.0088285,0.0039202,-6.8765e-005,-0.025191,-0.022069,-0.00066365,-0.011213,-0.006151,0.010965,0.030148,0.034184,0.07431,0.0072049,0.0033393,0.03703,0.05928,0.055887,-0.12166,0.048247,-0.016188
0.00531,0.00020759,-2.2424e-006,-0.021409,-0.011342,0.0069962,-0.0077511,-0.01686,-0.018193,-0.0027078,-0.012006,-0.014157,0.0053741,0.024711,0.034218,0.064917,4.4147e-005,0.0048097,0.031947,0.051438,0.033505,-0.17505,0.046755,-0.026713
0.0082967,-0.0041192,-0.0043206,-0.024868,-0.0097083,0.0095667,-0.012924,-0.0058422,-0.018412,-0.0018158,-0.011301,-0.018711,-0.0028629,0.018029,0.02993,0.055656,-0.0051284,0.0066065,0.033131,0.040434,0.0035995,-0.25089,0.043247,-0.036574
0.0085386,-0.0055791,-0.0055376,-0.023362,-0.0076682,0.0090053,-0.015,0.0020318,-0.021197,-0.00029308,-0.0097495,-0.019344,-0.010848,0.012799,0.022892,0.05019,-0.0052479,0.0070607,0.038253,0.0291,-0.028476,-0.32936,0.04006,-0.049489
0.0066045,-0.0032352,-0.0042098,-0.019743,-0.0090483,0.0053881,-0.014684,0.0019048,-0.024157,0.000193,-0.0088758,-0.019359,-0.015228,0.010254,0.01647,0.049096,-0.00085306,0.0054811,0.042413,0.02113,-0.057382,-0.38468,0.038919,-0.067351
0.0036242,0.0013968,-0.0034581,-0.016928,-0.014557,0.0012907,-0.013088,-0.0066982,-0.026059,6.9151e-005,-0.0096576,-0.02243,-0.014415,0.0097235,0.013229,0.04926,0.0044399,0.0027227,0.041755,0.018379,-0.080959,-0.4011,0.040368,-0.086759
0.00056029,0.005498,-0.0062518,-0.01538,-0.021166,-0.00066966,-0.010963,-0.01897,-0.027354,0.00099888,-0.011636,-0.028513,-0.009608,0.0096852,0.013218,0.046419,0.0065568,0.00031199,0.036053,0.018743,-0.10083,-0.38104,0.04356,-0.10049
-0.0019803,0.0068151,-0.012487,-0.01376,-0.024491,-0.00027214,-0.0085784,-0.027635,-0.029116,0.003683,-0.013338,-0.033247,-0.0038119,0.0092148,0.01428,0.038454,0.0034853,-0.0011176,0.028399,0.016725,-0.12006,-0.34092,0.046319,-0.10297
-0.0036855,0.0048873,-0.018605,-0.011724,-0.022184,0.00013262,-0.0061347,-0.027964,-0.031665,0.0065496,-0.01354,-0.031817,0.00034852,0.0085132,0.013873,0.02671,-0.0039481,-0.0025487,0.022547,0.0069148,-0.13996,-0.29929,0.045751,-0.094757
-0.004571,0.00090158,-0.020306,-0.01151,-0.015634,-0.0021015,-0.0040742,-0.021318,-0.034172,0.0067214,-0.012148,-0.023848,0.0023226,0.0081519,0.010896,0.014663,-0.013075,-0.005627,0.020235,-0.011949,-0.15875,-0.26668,0.039652,-0.082042
-0.0050495,-0.0034243,-0.016131,-0.016195,-0.008769,-0.0072428,-0.0028596,-0.014109,-0.035529,0.0025148,-0.0099669,-0.014575,0.0036301,0.0079667,0.0062786,0.0054637,-0.021044,-0.010811,0.020447,-0.035531,-0.17283,-0.24345,0.028179,-0.071446
-0.0057654,-0.0068673,-0.0088432,-0.026147,-0.0051233,-0.01257,-0.0024418,-0.012633,-0.035613,-0.0047312,-0.0078046,-0.01091,0.0063265,0.006876,0.0021538,0.00035988,-0.026084,-0.016401,0.020757,-0.056493,-0.1792,-0.22431,0.01448,-0.064958
-0.0071727,-0.0089074,-0.0034121,-0.037478,-0.0055394,-0.01448,-0.0021152,-0.017874,-0.035747,-0.0112,-0.0059793,-0.015828,0.011218,0.0039548,0.0003531,-0.001282,-0.027994,-0.019557,0.01925,-0.06942,-0.17696,-0.20408,0.0033511,-0.059525
-0.0091848,-0.0093443,-0.0032594,-0.044583,-0.0081422,-0.011548,-0.0011359,-0.024798,-0.037774,-0.013227,-0.0046651,-0.026057,0.017169,-0.00025173,0.0012726,-0.00098873,-0.027981,-0.018599,0.015471,-0.074402,-0.16704,-0.1799,-0.0015434,-0.051416
-0.011202,-0.0080929,-0.0077847,-0.044809,-0.010249,-0.0058867,0.00039557,-0.026865,-0.042349,-0.0099729,-0.0044052,-0.034936,0.021908,-0.0036194,0.0037577,-0.00016159,-0.028005,-0.014571,0.010088,-0.076568,-0.15128,-0.14996,4.5292e-005,-0.040946
-0.012452,-0.0055196,-0.013016,-0.040817,-0.010447,-0.0015942,0.0013619,-0.02184,-0.047834,-0.0040558,-0.0058654,-0.037679,0.023639,-0.0039624,0.0059275,0.00057867,-0.02974,-0.010581,0.0040993,-0.081919,-0.1321,-0.11174,0.005013,-0.032788
-0.012341,-0.0028228,-0.014697,-0.038173,-0.0092401,-0.0015576,0.00057983,-0.013745,-0.05098,0.00034869,-0.0088676,-0.034514,0.022248,-0.00099563,0.0062764,0.0016753,-0.033546,-0.0093777,-0.0015693,-0.092636,-0.11275,-0.062618,0.0093768,-0.031392
-0.010622,-0.0016969,-0.011328,-0.040237,-0.0080763,-0.0053039,-0.0018629,-0.0092928,-0.049287,0.00046999,-0.011866,-0.029594,0.019321,0.0030735,0.0042987,0.0043993,-0.038102,-0.01123,-0.0060252,-0.10532,-0.097127,-0.0021035,0.011209,-0.035827
-0.0074576,-0.0032371,-0.0049678,-0.045091,-0.0078752,-0.0096287,-0.0041936,-0.012183,-0.043361,-0.0032354,-0.012884,-0.027368,0.01705,0.0050743,0.00033126,0.0098487,-0.041149,-0.013976,-0.0085349,-0.11332,-0.088225,0.066528,0.011602,-0.039125
-0.0034574,-0.0069815,0.00058298,-0.047386,-0.0083589,-0.011368,-0.0040563,-0.020398,-0.037193,-0.0076554,-0.011386,-0.029683,0.016818,0.0033554,-0.0050562,0.017477,-0.040998,-0.015133,-0.0090898,-0.11127,-0.086249,0.13702,0.012878,-0.03313
0.00040791,-0.011068,0.0026478,-0.043359,-0.0085567,-0.0099271,-0.00032944,-0.028633,-0.035599,-0.0094123,-0.0092568,-0.035389,0.018352,-0.0009294,-0.011501,0.024258,-0.037822,-0.014154,-0.0088781,-0.098552,-0.08811,0.20267,0.015661,-0.014664
0.0031403,-0.013524,0.0014321,-0.034346,-0.007811,-0.0075239,0.0058772,-0.033162,-0.040481,-0.0072263,-0.0094797,-0.041734,0.019923,-0.0049148,-0.01877,0.025647,-0.033763,-0.012799,-0.0098414,-0.079711,-0.089379,0.25826,0.017516,0.012394
0.0041535,-0.01366,-0.00049478,-0.025711,-0.0063234,-0.0071312,0.011932,-0.034455,-0.048925,-0.0025815,-0.013357,-0.045951,0.019494,-0.0065482,-0.026397,0.018269,-0.031628,-0.013366,-0.013256,-0.061792,-0.087541,0.30006,0.014541,0.040712
0.0034445,-0.012423,-0.00040569,-0.022418,-0.004858,-0.0099629,0.015542,-0.035477,-0.055044,0.0016019,-0.018808,-0.046231,0.016151,-0.0062652,-0.033536,0.0026177,-0.032983,-0.016486,-0.018389,-0.050805,-0.084119,0.32422,0.004723,0.065122
0.0013342,-0.011525,0.0024882,-0.025351,-0.0040045,-0.014556,0.016286,-0.037867,-0.05442,0.0031349,-0.021679,-0.042285,0.010943,-0.0063098,-0.039285,-0.016512,-0.036864,-0.020486,-0.022551,-0.04923,-0.083925,0.32543,-0.0097584,0.084994
-0.0018683,-0.012183,0.0066322,-0.031412,-0.0037013,-0.018014,0.015663,-0.040052,-0.047634,0.001936,-0.019229,-0.035684,0.0064864,-0.0083968,-0.043196,-0.032664,-0.040126,-0.02282,-0.022829,-0.055493,-0.091901,0.2975,-0.023322,0.10163
-0.0057485,-0.014445,0.0095668,-0.036746,-0.0033647,-0.018227,0.01571,-0.039046,-0.03985,-0.00026975,-0.012717,-0.029528,0.0054054,-0.011989,-0.045455,-0.04184,-0.039404,-0.022146,-0.018291,-0.065139,-0.10982,0.23581,-0.030394,0.11408
-0.0092283,-0.017438,0.0098882,-0.039797,-0.0024003,-0.015263,0.017291,-0.033853,-0.036682,-0.0015204,-0.0065907,-0.027029,0.0085736,-0.014873,-0.046578,-0.045056,-0.033573,-0.019211,-0.010885,-0.072921,-0.13495,0.13999,-0.028901,0.11819
-0.010348,-0.020069,0.0081145,-0.041649,-0.00062215,-0.011004,0.019337,-0.026921,-0.039727,-0.0011808,-0.0048361,-0.029547,0.014459,-0.01549,-0.046947,-0.047194,-0.024929,-0.015924,-0.0042132,-0.07501,-0.16139,0.014596,-0.021383,0.11036
-0.0071943,-0.021594,0.0059115,-0.043923,0.0016851,-0.0075187,0.019627,-0.022159,-0.045448,-0.00035483,-0.0077104,-0.035476,0.020174,-0.01474,-0.046676,-0.052829,-0.017933,-0.013709,-0.0010415,-0.070552,-0.18283,-0.1332,-0.013292,0.092216
0.00030023,-0.021816,0.0045681,-0.046705,0.0039737,-0.0055229,0.016605,-0.02153,-0.048251,-0.00091966,-0.011762,-0.041031,0.023523,-0.015396,-0.045886,-0.062137,-0.016098,-0.01267,-0.0014042,-0.061856,-0.19525,-0.298,-0.010006,0.071231
0.0091992,-0.021001,0.0041106,-0.048457,0.0056915,-0.0040139,0.010952,-0.023475,-0.04507,-0.0039565,-0.013018,-0.042549,0.02443,-0.019541,-0.045009,-0.070187,-0.01926,-0.012077,-0.0027134,-0.052883,-0.1983,-0.47868,-0.014571,0.055878
0.014598,-0.019648,0.0036564,-0.047646,0.0065104,-0.0011949,0.0056215,-0.024507,-0.037667,-0.0087479,-0.010375,-0.03864,0.024639,-0.026373,-0.044666,-0.070417,-0.023515,-0.01135,-0.0017418,-0.046704,-0.19497,-0.67501,-0.027013,0.049336
0.012743,-0.018146,0.0024185,-0.0442,0.0065412,0.004065,0.004032,-0.022338,-0.030943,-0.013084,-0.0062402,-0.030618,0.025997,-0.032492,-0.045174,-0.05985,-0.024108,-0.010446,0.0030156,-0.043468,-0.18976,-0.87751,-0.044725,0.047465
0.0040922,-0.016494,0.00033523,-0.039384,0.0064396,0.011246,0.0075141,-0.017669,-0.028878,-0.014692,-0.0041345,-0.021106,0.02889,-0.034595,-0.046168,-0.042036,-0.019041,-0.0094768,0.010323,-0.040392,-0.18596,-1.0565,-0.063165,0.043103
-0.0062979,-0.014365,-0.0021028,-0.034496,0.0071555,0.018282,0.013998,-0.01336,-0.0315,-0.01279,-0.0056697,-0.012102,0.032133,-0.032257,-0.046741,-0.025243,-0.010447,-0.0083034,0.017212,-0.034016,-0.18332,-1.1607,-0.076775,0.033054
-0.011854,-0.011632,-0.0043932,-0.029945,0.0092614,0.022677,0.019231,-0.012039,-0.035165,-0.0086513,-0.0095546,-0.0040713,0.034248,-0.028352,-0.045973,-0.016986,-0.0026313,-0.0067643,0.021189,-0.02318,-0.17751,-1.1334,-0.080508,0.021587
-0.0090145,-0.0089594,-0.0062731,-0.025684,0.012284,0.022945,0.019849,-0.014238,-0.035672,-0.0047282,-0.013112,0.0034623,0.034739,-0.026676,-0.043387,-0.018926,0.0014298,-0.0052474,0.021921,-0.010452,-0.16231,-0.94138,-0.071921,0.017296
0.00019977,-0.0077371,-0.0075514,-0.02229,0.014732,0.019499,0.015909,-0.018243,-0.031563,-0.0029473,-0.014531,0.010679,0.034177,-0.028738,-0.039048,-0.026041,0.0021106,-0.0047143,0.021121,-0.00071696,-0.13362,-0.5995,-0.052772,0.02592
0.0096467,-0.009114,-0.0079613,-0.021226,0.015056,0.014412,0.010677,-0.021319,-0.025024,-0.0034561,-0.013809,0.016803,0.033196,-0.032428,-0.033416,-0.030774,0.0021494,-0.005857,0.020848,0.0021255,-0.092994,-0.17345,-0.028769,0.045222
0.013533,-0.012798,-0.007411,-0.023681,0.012875,0.010195,0.0077178,-0.021262,-0.019861,-0.0047967,-0.011961,0.020464,0.031672,-0.033715,-0.027181,-0.028854,0.0038399,-0.0081736,0.021771,-0.0020845,-0.048022,0.24664,-0.0070974,0.066164
0.010507,-0.016781,-0.0064169,-0.029012,0.009328,0.0083863,0.0077604,-0.017471,-0.018315,-0.0053587,-0.0097629,0.02054,0.029052,-0.029987,-0.021055,-0.022179,0.0070347,-0.010076,0.022989,-0.0096476,-0.0090763,0.58631,0.0070066,0.079285
0.0042908,-0.01851,-0.0060836,-0.034497,0.0060825,0.0088781,0.0081335,-0.011205,-0.019322,-0.0048596,-0.0073728,0.016673,0.025476,-0.022312,-0.015418,-0.016516,0.0095823,-0.010157,0.0235,-0.015505,0.015686,0.81534,0.012512,0.080948
0.00050965,-0.016725,-0.0073213,-0.036937,0.0038369,0.010331,0.0053208,-0.0049302,-0.019577,-0.0044939,-0.0048944,0.009321,0.022327,-0.01477,-0.010038,-0.016209,0.0095277,-0.0084583,0.023743,-0.016371,0.023737,0.94752,0.012296,0.074587
0.0023322,-0.012443,-0.009832,-0.034909,0.0017959,0.011221,-0.0016588,-0.00092588,-0.016452,-0.0055173,-0.0029002,-0.00021172,0.021391,-0.011338,-0.0044027,-0.020613,0.0069851,-0.0064143,0.025455,-0.012243,0.018062,1.0158,0.010721,0.066515
0.0083572,-0.0081921,-0.011905,-0.029736,-0.0012628,0.010677,-0.010102,0.00020069,-0.010301,-0.0075186,-0.0021337,-0.0095058,0.023273,-0.012816,0.0012817,-0.02536,0.0041439,-0.005451,0.029734,-0.0055901,0.0042286,1.0447,0.010948,0.060338
0.014217,-0.0060929,-0.011564,-0.024354,-0.0053369,0.0086466,-0.015716,4.9806e-005,-0.0041996,-0.0081439,-0.0027214,-0.015066,0.026616,-0.016178,0.0052959,-0.027141,0.0036074,-0.0056153,0.035223,0.00071662,-0.012805,1.0396,0.0137,0.054743
0.016316,-0.0064008,-0.0083769,-0.021038,-0.0087206,0.0055841,-0.016022,0.001366,-0.0013316,-0.0049135,-0.0038818,-0.013483,0.028995,-0.016846,0.00504,-0.027362,0.0065661,-0.00563,0.038545,0.0050123,-0.030123,0.99697,0.017881,0.046092
0.014513,-0.0076568,-0.0043359,-0.019851,-0.0094032,0.002141,-0.012077,0.005869,-0.0022739,0.0021886,-0.0045953,-0.0036025,0.028752,-0.012057,-0.00078318,-0.031061,0.012193,-0.004323,0.037053,0.0071627,-0.046507,0.92051,0.021963,0.032968
0.011659,-0.0081336,-0.0027158,-0.018952,-0.0071192,-0.00096824,-0.0072067,0.012538,-0.0045119,0.0097219,-0.004605,0.011868,0.026148,-0.0027707,-0.010095,-0.041914,0.018484,-0.0019486,0.0315,0.0079596,-0.061779,0.82691,0.024841,0.01838
0.010687,-0.0071735,-0.0054714,-0.016339,-0.0039723,-0.0031171,-0.0041927,0.017855,-0.0045795,0.012734,-0.004668,0.027189,0.022917,0.0071653,-0.017719,-0.058019,0.023662,-1.7155e-005,0.025931,0.0084261,-0.076781,0.73688,0.02577,0.00768
0.011968,-0.0053124,-0.011257,-0.01154,-0.0027899,-0.0040445,-0.0035168,0.018166,-0.00092597,0.008503,-0.005696,0.037034,0.020787,0.01365,-0.018569,-0.072531,0.027056,0.0002201,0.024496,0.0094574,-0.093502,0.66182,0.02409,0.0042025
0.013199,-0.0033973,-0.015967,-0.0060136,-0.0045815,-0.0039803,-0.003902,0.012591,0.004969,-0.00089146,-0.0075893,0.040236,0.020359,0.014629,-0.011569,-0.07879,0.028967,-0.00091566,0.027898,0.011645,-0.11413,0.59954,0.019555,0.0064704
0.011715,-0.0018453,-0.015738,-0.0020954,-0.0074859,-0.0033103,-0.0041269,0.0042549,0.010089,-0.0095508,-0.0089742,0.040623,0.021153,0.010584,-0.00094219,-0.075353,0.029854,-0.0017811,0.032723,0.015008,-0.13898,0.54213,0.013116,0.009218
0.0070111,-0.00081088,-0.010131,-0.0013892,-0.0083074,-0.0020391,-0.0041295,-0.0013773,0.012538,-0.011891,-0.0082419,0.043809,0.022392,0.0035149,0.0066794,-0.066508,0.029588,-0.0010111,0.034393,0.018703,-0.16483,0.48697,0.0070819,0.0070899
0.0012131,-0.00081856,-0.002824,-0.0037123,-0.0053274,0.00020072,-0.0045224,-6.5437e-005,0.013017,-0.0068271,-0.0050108,0.052351,0.023507,-0.004248,0.007318,-0.058059,0.02733,0.0011127,0.031109,0.021097,-0.18563,0.43959,0.0039034,-0.0021372
-0.0028213,-0.0027626,0.00092475,-0.0071799,0.00014276,0.0032704,-0.0054221,0.0083266,0.013975,0.001368,-0.00064154,0.063478,0.023959,-0.010497,0.0027839,-0.052512,0.022083,0.0028913,0.025223,0.020461,-0.19566,0.40603,0.0042265,-0.016995
-0.0039395,-0.0069011,-0.0018835,-0.0092369,0.0048427,0.005605,-0.0060661,0.019904,0.017383,0.0063344,0.0027659,0.071551,0.02288,-0.013231,-0.00086941,-0.048018,0.013544,0.0028215,0.020848,0.016062,-0.19302,0.3832,0.0059918,-0.03399
-0.0034456,-0.011818,-0.0099155,-0.0079917,0.0062484,0.0046285,-0.0056398,0.029767,0.023117,0.0044962,0.0040875,0.073226,0.019337,-0.011225,0.0015652,-0.041665,0.0027133,0.0010203,0.019987,0.0088939,-0.18074,0.35795,0.0058091,-0.049459
-0.0035495,-0.014756,-0.018748,-0.0032098,0.0044623,-0.0011674,-0.0043302,0.035568,0.029179,-0.002339,0.0041171,0.070624,0.013221,-0.0051277,0.0099969,-0.033561,-0.0081768,-0.00091092,0.020757,0.0013677,-0.16465,0.31685,0.0018129,-0.060325
-0.0050664,-0.01355,-0.024231,0.0034534,0.0017931,-0.01007,-0.003376,0.038657,0.033338,-0.0086889,0.0048876,0.069545,0.005879,0.001999,0.018925,-0.027538,-0.016504,-0.001404,0.019219,-0.0041163,-0.14967,0.25797,-0.0044286,-0.064259
-0.0066347,-0.0086298,-0.025191,0.0091584,0.00065485,-0.01726,-0.0039667,0.041951,0.034716,-0.0099469,0.0079128,0.074282,-0.00040014,0.0057709,0.021721,-0.027687,-0.020552,-0.00030111,0.012998,-0.006842,-0.13739,0.19318,-0.0088747,-0.060394
-0.0062826,-0.0031333,-0.023509,0.01138,0.0017533,-0.017896,-0.0060564,0.046544,0.034165,-0.0060326,0.012808,0.083808,-0.0039135,0.0028759,0.015724,-0.03393,-0.020555,0.0012485,0.0033792,-0.0083804,-0.12631,0.13833,-0.0083243,-0.050535
-0.0038387,-0.00064824,-0.021998,0.0095399,0.0039534,-0.011047,-0.0082622,0.0503,0.033394,-0.001232,0.017415,0.092808,-0.0048408,-0.0069332,0.0040495,-0.040905,-0.018717,0.0021917,-0.0058613,-0.011404,-0.11401,0.099453,-0.0033197,-0.039335
-0.0016854,-0.0023504,-0.022127,0.0056874,0.0055588,-0.0010731,-0.008964,0.049864,0.033714,-0.00050077,0.01931,0.096424,-0.0050868,-0.020832,-0.0070417,-0.041586,-0.017944,0.0027691,-0.011593,-0.017398,-0.099114,0.067553,0.001971,-0.032202
-0.0027827,-0.0060521,-0.023375,0.0034399,0.0056687,0.00515,-0.0076035,0.044315,0.03531,-0.0053717,0.017468,0.094141,-0.0067098,-0.034841,-0.012682,-0.03289,-0.019903,0.0042103,-0.013596,-0.025059,-0.081705,0.026481,0.0029457,-0.031863
-0.0075941,-0.0081181,-0.02425,0.0055443,0.0046203,0.0032186,-0.0050573,0.036953,0.037431,-0.012795,0.012855,0.0893,-0.010316,-0.046021,-0.012128,-0.018688,-0.023741,0.0071831,-0.014173,-0.030899,-0.062193,-0.033114,-0.0018418,-0.0363
-0.012914,-0.0066533,-0.023706,0.011749,0.0035703,-0.0055905,-0.0028507,0.033233,0.039213,-0.017695,0.0076391,0.085145,-0.014841,-0.053328,-0.0079982,-0.0075659,-0.026579,0.010598,-0.015842,-0.031846,-0.039931,-0.10634,-0.009771,-0.040128
-0.014111,-0.0031854,-0.021697,0.018796,0.0038283,-0.01551,-0.0019774,0.036367,0.040502,-0.016991,0.0038024,0.081665,-0.018761,-0.05698,-0.0034862,-0.006861,-0.025674,0.012118,-0.019295,-0.027868,-0.012675,-0.17972,-0.016655,-0.038644
-0.0091246,-0.0013663,-0.018741,0.022804,0.0063021,-0.020819,-0.0023054,0.044426,0.04206,-0.011787,0.0022288,0.076368,-0.021376,-0.057513,-0.00033404,-0.01749,-0.020709,0.010052,-0.023225,-0.022392,0.022754,-0.24472,-0.020394,-0.031297
-0.0006597,-0.0038269,-0.015253,0.022243,0.011021,-0.019952,-0.0028994,0.051621,0.044941,-0.0061852,0.0026918,0.067836,-0.02282,-0.055595,0.0010479,-0.033522,-0.014328,0.0049085,-0.025781,-0.019988,0.068973,-0.30705,-0.022587,-0.021739
0.0055841,-0.0098724,-0.011371,0.019033,0.016812,-0.015989,-0.0028035,0.052831,0.049433,-0.0039818,0.0043619,0.057967,-0.022992,-0.05242,0.00032478,-0.046809,-0.010331,-0.00089107,-0.026143,-0.023001,0.12645,-0.3832,-0.026798,-0.014525
0.0053063,-0.015905,-0.0072647,0.016806,0.021547,-0.013523,-0.0015923,0.047544,0.054406,-0.0060275,0.0061982,0.050294,-0.020861,-0.049623,-0.0032466,-0.05307,-0.01089,-0.0048844,-0.025008,-0.029688,0.19262,-0.4868,-0.035155,-0.01141
-0.0010979,-0.018119,-0.0034379,0.017885,0.023262,-0.014826,0.00059025,0.039934,0.057719,-0.010158,0.0070484,0.046081,-0.015246,-0.048278,-0.0098794,-0.054687,-0.01508,-0.0062734,-0.023893,-0.035201,0.26218,-0.61556,-0.046333,-0.010369
-0.0090494,-0.015247,-0.00063976,0.021639,0.02157,-0.018436,0.0032688,0.0352,0.057559,-0.013305,0.0058169,0.042449,-0.0063793,-0.047794,-0.018091,-0.058042,-0.019914,-0.0059715,-0.02405,-0.034592,0.32856,-0.74904,-0.056573,-0.0079142
-0.013425,-0.0093012,0.00053276,0.025513,0.018187,-0.02092,0.0057995,0.03546,0.053765,-0.013781,0.002003,0.034834,0.0035761,-0.046047,-0.02489,-0.067557,-0.02284,-0.0052178,-0.025778,-0.025719,0.38582,-0.8587,-0.062675,-0.002474
-0.0121,-0.0040122,7.3958e-006,0.027558,0.015814,-0.019887,0.0074235,0.038587,0.04808,-0.012015,-0.0036842,0.021618,0.011992,-0.041005,-0.027487,-0.081316,-0.023488,-0.0043827,-0.028357,-0.010321,0.42968,-0.92299,-0.064308,0.0041117
-0.0067007,-0.0023612,-0.0016464,0.028026,0.016101,-0.015664,0.0074725,0.040551,0.04306,-0.0095875,-0.0093679,0.0063745,0.017971,-0.032533,-0.025077,-0.091972,-0.023271,-0.003212,-0.030423,0.0070106,0.45726,-0.93721,-0.063828,0.0081162
-0.0005941,-0.0049596,-0.0033652,0.0287,0.018406,-0.010564,0.0058574,0.038795,0.040406,-0.0078069,-0.013061,-0.0046529,0.02296,-0.02262,-0.019132,-0.092339,-0.023614,-0.0020257,-0.03056,0.021042,0.46618,-0.91255,-0.064136,0.0071023
0.0036781,-0.010079,-0.0039361,0.030918,0.020537,-0.0068467,0.0035274,0.033714,0.039945,-0.0070841,-0.014119,-0.0076446,0.028911,-0.013642,-0.01207,-0.081192,-0.024725,-0.002224,-0.027996,0.028146,0.45446,-0.8661,-0.066597,0.0022652
0.0055575,-0.014899,-0.0024889,0.034308,0.020827,-0.0052736,0.0023255,0.027467,0.039971,-0.0073232,-0.013831,-0.0042864,0.035689,-0.0061806,-0.0056355,-0.064499,-0.025964,-0.0051868,-0.023182,0.027764,0.42201,-0.80911,-0.070632,-0.0017173
0.0060107,-0.016997,0.00099344,0.037253,0.019564,-0.0052521,0.0039974,0.021828,0.038658,-0.0085681,-0.014394,-0.00020643,0.040468,0.0015785,-0.00033081,-0.051055,-0.027035,-0.010545,-0.017891,0.022655,0.37277,-0.74118,-0.074796,0.00079834
0.0065061,-0.015369,0.0054461,0.038235,0.018415,-0.0059859,0.0088526,0.017258,0.035499,-0.011093,-0.01692,-0.00044795,0.040021,0.012238,0.0039757,-0.046097,-0.028439,-0.015777,-0.014479,0.017723,0.31518,-0.6536,-0.077917,0.013062
0.0082341,-0.010761,0.0090955,0.036568,0.018463,-0.0073169,0.015073,0.013678,0.031752,-0.014873,-0.020169,-0.0061057,0.033856,0.026807,0.0072562,-0.048007,-0.030646,-0.017944,-0.014475,0.017698,0.25932,-0.53935,-0.07923,0.033637
0.011569,-0.0053166,0.010424,0.03211,0.018895,-0.0095331,0.019402,0.01154,0.029548,-0.019094,-0.021327,-0.014754,0.025145,0.043668,0.0092549,-0.050471,-0.033047,-0.016139,-0.017335,0.02462,0.21189,-0.4026,-0.077779,0.056544
0.015644,-0.0016031,0.0092012,0.024921,0.01772,-0.012565,0.019012,0.011643,0.030273,-0.022328,-0.018387,-0.023619,0.01843,0.059684,0.010074,-0.047891,-0.034032,-0.01232,-0.020433,0.036572,0.1725,-0.26083,-0.072179,0.07402
0.018455,-0.0012727,0.006784,0.015774,0.013797,-0.015547,0.013433,0.013759,0.03338,-0.023393,-0.012125,-0.032199,0.016185,0.072254,0.01061,-0.03947,-0.032253,-0.0095776,-0.020689,0.048626,0.13467,-0.13772,-0.061372,0.080622
0.017945,-0.0040293,0.0052657,0.0069916,0.0081257,-0.01726,0.0052159,0.015654,0.036561,-0.022206,-0.0058485,-0.042066,0.017372,0.080409,0.01223,-0.028993,-0.027811,-0.0093901,-0.016928,0.055634,0.091528,-0.051157,-0.045839,0.076274
0.013611,-0.0076998,0.0058917,0.0020521,0.003098,-0.017036,-0.0012858,0.013965,0.037259,-0.019884,-0.0029539,-0.05453,0.019102,0.084261,0.01589,-0.021165,-0.022159,-0.010448,-0.01112,0.055171,0.042305,-0.0044153,-0.028137,0.066028
0.0072006,-0.0096214,0.0079161,0.0033375,0.00047411,-0.01531,-0.0024431,0.0065939,0.034465,-0.017935,-0.0043929,-0.068722,0.019547,0.083881,0.021403,-0.017884,-0.016884,-0.01017,-0.0071888,0.048738,-0.0057165,0.014065,-0.012162,0.05627
0.001571,-0.0085171,0.0089505,0.0095959,3.6855e-005,-0.013335,0.0023511,-0.0053768,0.029436,-0.01713,-0.0082659,-0.081899,0.019326,0.079154,0.027383,-0.017236,-0.012672,-0.0074568,-0.0079313,0.040489,-0.041893,0.023093,-0.0015941,0.049776
-0.0015079,-0.0054543,0.0067672,0.015727,0.00010513,-0.012338,0.010167,-0.018102,0.024724,-0.016947,-0.011849,-0.091473,0.02034,0.070865,0.031857,-0.015359,-0.0093692,-0.0040284,-0.012407,0.034474,-0.060221,0.039247,0.0015099,0.043393
-0.0025623,-0.0030643,0.0012197,0.015893,-0.00077687,-0.01277,0.016333,-0.027658,0.022248,-0.016081,-0.014097,-0.096781,0.023612,0.061653,0.033124,-0.0092546,-0.0068726,-0.0030451,-0.016179,0.032383,-0.06421,0.07142,-0.0026933,0.030563
-0.0034056,-0.0035765,-0.0053796,0.0078544,-0.0026542,-0.014093,0.017485,-0.032886,0.021902,-0.013649,-0.016271,-0.099171,0.028285,0.055304,0.03042,0.0014007,-0.0056883,-0.0062408,-0.014611,0.03327,-0.06433,0.12079,-0.012053,0.007183
-0.0049204,-0.007214,-0.0099318,-0.005152,-0.0044369,-0.015118,0.01376,-0.036027,0.021819,-0.010175,-0.020225,-0.10074,0.032456,0.054505,0.024094,0.014154,-0.0065003,-0.012207,-0.0067174,0.035188,-0.069887,0.18321,-0.023165,-0.023715
-0.005991,-0.012175,-0.010986,-0.016851,-0.0051003,-0.014625,0.0084555,-0.040538,0.02001,-0.0075234,-0.026178,-0.10311,0.034598,0.058844,0.015282,0.024994,-0.0091889,-0.017439,0.0036989,0.037193,-0.082019,0.25069,-0.032458,-0.05246
-0.0048336,-0.016084,-0.0098322,-0.02279,-0.0045681,-0.011975,0.0052916,-0.047881,0.016037,-0.0077423,-0.032225,-0.10711,0.03411,0.064988,0.0052776,0.030262,-0.012373,-0.019275,0.010828,0.040021,-0.093763,0.3116,-0.037466,-0.068475
-0.0014179,-0.01766,-0.0092256,-0.023475,-0.0036221,-0.007474,0.0053893,-0.055941,0.011389,-0.011518,-0.036,-0.11294,0.030856,0.069115,-0.0049353,0.028623,-0.014098,-0.018172,0.011393,0.044894,-0.097132,0.35248,-0.037885,-0.067024
0.0016689,-0.017379,-0.010833,-0.023175,-0.0031988,-0.0022488,0.0064472,-0.060432,0.0083773,-0.017294,-0.036717,-0.1199,0.024731,0.069681,-0.014616,0.022186,-0.013232,-0.017275,0.0071571,0.05159,-0.090937,0.36306,-0.035682,-0.051803
0.0011577,-0.016843,-0.013742,-0.02572,-0.0037931,0.0023418,0.0048806,-0.058195,0.0085566,-0.021749,-0.035512,-0.12579,0.016009,0.068305,-0.022761,0.015789,-0.010408,-0.019554,0.003258,0.057596,-0.082418,0.34277,-0.033895,-0.031579
-0.0037731,-0.017574,-0.015439,-0.031237,-0.0052634,0.0054379,-0.00084797,-0.049785,0.011855,-0.021612,-0.03389,-0.1271,0.0059813,0.068193,-0.02784,0.014323,-0.0076264,-0.024894,0.0037779,0.05934,-0.081219,0.30362,-0.034675,-0.013814
-0.010188,-0.020033,-0.014342,-0.036606,-0.0068772,0.0069897,-0.0085837,-0.039361,0.016817,-0.015874,-0.032031,-0.12092,-0.003192,0.071584,-0.028478,0.019592,-0.0066777,-0.029665,0.0083551,0.054734,-0.091094,0.26632,-0.037923,-0.00048192
-0.013388,-0.023323,-0.011448,-0.038768,-0.0074892,0.0074071,-0.013982,-0.032052,0.021462,-0.0070182,-0.028785,-0.10765,-0.0096822,0.078331,-0.024902,0.029056,-0.0076352,-0.029325,0.01266,0.045047,-0.10678,0.25113,-0.041601,0.010873
-0.010634,-0.025581,-0.0094811,-0.037459,-0.0060222,0.0069442,-0.013888,-0.030861,0.024075,-7.8933e-005,-0.023299,-0.092265,-0.013242,0.086416,-0.019951,0.037664,-0.0087558,-0.022108,0.012161,0.034507,-0.11878,0.26916,-0.043521,0.022282
-0.0034074,-0.024927,-0.010318,-0.034917,-0.0022818,0.0055241,-0.0087359,-0.035265,0.023725,0.00036973,-0.016446,-0.081941,-0.015223,0.093494,-0.018251,0.041521,-0.0080521,-0.010822,0.0058126,0.027704,-0.12161,0.31927,-0.043158,0.031186
0.0036976,-0.020681,-0.013211,-0.033363,0.0024334,0.0032313,-0.0020627,-0.042199,0.020634,-0.0064701,-0.010457,-0.081219,-0.017196,0.097921,-0.023505,0.040459,-0.0052505,-0.0012103,-0.0033743,0.026532,-0.11813,0.39136,-0.041988,0.030613
0.006395,-0.014194,-0.015563,-0.03314,0.005719,0.00085226,0.0022065,-0.048359,0.016293,-0.01653,-0.0070487,-0.088224,-0.019425,0.098611,-0.035616,0.037523,-0.0022935,0.0019727,-0.011045,0.028825,-0.11621,0.47208,-0.04212,0.013703
0.003581,-0.0084693,-0.01554,-0.033362,0.0055823,-0.00039054,0.0023219,-0.052117,0.012908,-0.023351,-0.0058931,-0.095494,-0.020602,0.094434,-0.05005,0.036156,-0.0017047,-0.0018518,-0.014823,0.029631,-0.12097,0.54887,-0.044513,-0.020894
-0.0024388,-0.0063752,-0.013923,-0.033946,0.0020668,5.4652e-005,-0.00077789,-0.053962,0.01205,-0.022728,-0.0049253,-0.095385,-0.019081,0.084226,-0.060408,0.037763,-0.004158,-0.0090495,-0.015449,0.024298,-0.12999,0.61078,-0.048345,-0.066858
-0.0080815,-0.008488,-0.013363,-0.036381,-0.0024754,0.0012012,-0.0048905,-0.055577,0.013275,-0.01601,-0.0022021,-0.086001,-0.014459,0.067714,-0.062611,0.041604,-0.0075402,-0.014771,-0.015247,0.011334,-0.1357,0.64851,-0.051991,-0.11304
-0.010957,-0.012342,-0.015696,-0.042031,-0.0049742,0.0010709,-0.008284,-0.058389,0.013991,-0.0091763,0.0024028,-0.072708,-0.0080706,0.046566,-0.057585,0.046375,-0.0085491,-0.016463,-0.01582,-0.0067982,-0.13287,0.65568,-0.054632,-0.1497
-0.010872,-0.014075,-0.019963,-0.049726,-0.0039638,-0.0014784,-0.010334,-0.062506,0.01112,-0.0081087,0.0071083,-0.063797,-0.0020542,0.024494,-0.050334,0.051257,-0.005459,-0.015142,-0.017159,-0.025344,-0.12399,0.63128,-0.056999,-0.17445
-0.0091347,-0.011471,-0.023119,-0.05559,-0.00071683,-0.0052946,-0.011027,-0.066572,0.003539,-0.013865,0.0096973,-0.06382,0.0020601,0.0060216,-0.046107,0.055172,0.0005286,-0.013769,-0.018493,-0.040178,-0.11776,0.58078,-0.060659,-0.19423
-0.0072026,-0.0059223,-0.022852,-0.056016,0.0018157,-0.0075286,-0.010339,-0.068569,-0.0066825,-0.021964,0.0092628,-0.070144,0.0039851,-0.0054959,-0.046693,0.055484,0.0066118,-0.014476,-0.019515,-0.049998,-0.12174,0.51371,-0.066521,-0.2219
-0.0058555,-0.0014774,-0.019855,-0.051329,0.0014146,-0.006149,-0.0082533,-0.067116,-0.015445,-0.026341,0.0069307,-0.075419,0.0041423,-0.0094766,-0.049739,0.048392,0.011043,-0.017096,-0.020573,-0.056443,-0.13551,0.43881,-0.073792,-0.26884
-0.0051928,-0.0015678,-0.017342,-0.046384,-0.0016165,-0.0021899,-0.0052732,-0.062492,-0.019398,-0.024491,0.0051947,-0.073542,0.0027068,-0.0084077,-0.051418,0.031585,0.01446,-0.019944,-0.021935,-0.062296,-0.15024,0.35969,-0.080151,-0.33756
-0.0050357,-0.0061544,-0.018141,-0.046837,-0.0046661,0.00059755,-0.0026162,-0.056683,-0.018113,-0.019286,0.0064302,-0.063955,-0.00072683,-0.0065608,-0.050037,0.0070815,0.01862,-0.021639,-0.023324,-0.069206,-0.15468,0.27387,-0.082952,-0.41867
-0.0052043,-0.011797,-0.021982,-0.05396,-0.0047467,-0.0012067,-0.0016413,-0.052334,-0.013925,-0.015955,0.011483,-0.051073,-0.0065566,-0.007719,-0.047523,-0.018665,0.023919,-0.022092,-0.024407,-0.076564,-0.14261,0.17536,-0.080696,-0.49487
-0.0055437,-0.014613,-0.025477,-0.062758,-0.0005881,-0.007498,-0.0028602,-0.051265,-0.009762,-0.017149,0.019037,-0.040115,-0.014358,-0.013202,-0.047627,-0.038112,0.028333,-0.021942,-0.025611,-0.082098,-0.11588,0.058626,-0.073997,-0.54996
-0.0059141,-0.013518,-0.024926,-0.065613,0.0065563,-0.014328,-0.0053747,-0.053575,-0.006942,-0.020597,0.026081,-0.033377,-0.022781,-0.021523,-0.052551,-0.047079,0.028969,-0.021391,-0.028044,-0.083531,-0.081747,-0.078356,-0.065607,-0.57754
-0.0063064,-0.010901,-0.019588,-0.058735,0.013718,-0.017053,-0.0073017,-0.057855,-0.0047811,-0.02136,0.029357,-0.029748,-0.030362,-0.030052,-0.060899,-0.046887,0.024792,-0.019908,-0.032345,-0.080023,-0.047476,-0.23272,-0.059448,-0.58331
-0.0069559,-0.010262,-0.012562,-0.045857,0.017909,-0.014311,-0.0069798,-0.062196,-0.0020253,-0.016399,0.027153,-0.026825,-0.036473,-0.037502,-0.068585,-0.042758,0.017924,-0.017105,-0.037639,-0.072685,-0.016941,-0.3961,-0.058888,-0.57897
-0.0081988,-0.013055,-0.0084962,-0.035677,0.017685,-0.0092235,-0.0041314,-0.065162,0.0014952,-0.0072908,0.020437,-0.022956,-0.041419,-0.045123,-0.071731,-0.040161,0.012255,-0.013746,-0.041869,-0.0642,0.0091075,-0.55406,-0.064885,-0.57157
-0.010054,-0.017593,-0.0099882,-0.034969,0.01387,-0.006613,-0.0001324,-0.06616,0.0045964,0.0011602,0.012485,-0.017581,-0.04551,-0.055368,-0.069078,-0.042051,0.010631,-0.011598,-0.0434,-0.058002,0.030824,-0.68614,-0.074843,-0.556
-0.011906,-0.020825,-0.015649,-0.043181,0.0091642,-0.0086938,0.0028569,-0.065289,0.0059318,0.004848,0.0070162,-0.010584,-0.048044,-0.069019,-0.062165,-0.048581,0.013048,-0.012002,-0.042371,-0.057168,0.047929,-0.76846,-0.083048,-0.51689
-0.012738,-0.021155,-0.021312,-0.053146,0.0067616,-0.013144,0.0033222,-0.063083,0.0052767,0.0032868,0.0059164,-0.0022373,-0.047373,-0.083514,-0.05362,-0.058416,0.017175,-0.014434,-0.040422,-0.063079,0.060258,-0.78025,-0.08289,-0.43937
-0.011936,-0.01968,-0.023257,-0.057195,0.0085213,-0.015296,0.0013457,-0.060346,0.0035728,-0.00067749,0.0080604,0.0060291,-0.042272,-0.09437,-0.045366,-0.069731,0.020434,-0.016526,-0.039069,-0.074264,0.068926,-0.71301,-0.070115,-0.32179
-0.010004,-0.018892,-0.020741,-0.053297,0.013718,-0.012347,-0.001646,-0.057929,0.0017844,-0.0035473,0.010119,0.011452,-0.033489,-0.098753,-0.038173,-0.080095,0.021726,-0.015797,-0.038361,-0.08643,0.076382,-0.57764,-0.045433,-0.1809
-0.0084214,-0.020298,-0.015951,-0.046049,0.01936,-0.0056676,-0.004098,-0.056322,-0.00012691,-0.0036504,0.008841,0.011464,-0.023978,-0.097892,-0.032396,-0.086159,0.021638,-0.011794,-0.037148,-0.094398,0.085158,-0.40389,-0.014746,-0.045312
-0.0085224,-0.023232,-0.011812,-0.042069,0.022174,0.00075959,-0.005431,-0.055271,-0.0029526,-0.0016049,0.0032456,0.0060063,-0.017335,-0.095771,-0.028704,-0.084456,0.02147,-0.0068142,-0.034594,-0.095251,0.096616,-0.22993,0.01359,0.05921
-0.010266,-0.025734,-0.0097847,-0.044208,0.020982,0.0040007,-0.0060716,-0.053863,-0.0069411,0.00093384,-0.0047474,-0.0016825,-0.015545,-0.095004,-0.027887,-0.07329,0.02221,-0.004411,-0.031272,-0.09048,0.11081,-0.085906,0.03317,0.12296
-0.012092,-0.026425,-0.0094882,-0.049601,0.017581,0.0042859,-0.0065031,-0.051223,-0.010862,0.0026968,-0.011623,-0.0070134,-0.017865,-0.093747,-0.03004,-0.054123,0.024134,-0.0067195,-0.028686,-0.085109,0.12711,0.018907,0.042867,0.15526
-0.012207,-0.025493,-0.010026,-0.052774,0.015173,0.0037437,-0.0064559,-0.047406,-0.012594,0.0033159,-0.014548,-0.0073369,-0.021777,-0.08692,-0.034087,-0.03092,0.026876,-0.012715,-0.027763,-0.083929,0.14437,0.096848,0.046691,0.17578
-0.010265,-0.024068,-0.011312,-0.050507,0.01547,0.0034542,-0.0052295,-0.043709,-0.010916,0.003085,-0.013102,-0.0037286,-0.025241,-0.07108,-0.038197,-0.0076517,0.029544,-0.018902,-0.027926,-0.087648,0.16011,0.16952,0.05008,0.20078
-0.0078816,-0.022836,-0.013921,-0.044084,0.016983,0.0021283,-0.0028846,-0.041993,-0.0068673,0.002688,-0.0094167,0.00026537,-0.028361,-0.04865,-0.040682,0.014045,0.030933,-0.021964,-0.027724,-0.092251,0.16991,0.2507,0.055258,0.23407
-0.0073245,-0.021376,-0.01773,-0.037452,0.016224,-0.0021882,-0.0009421,-0.04335,-0.0032587,0.0031546,-0.0067436,0.0016933,-0.033105,-0.027389,-0.040598,0.035021,0.030168,-0.021201,-0.026301,-0.092372,0.16879,0.33625,0.059339,0.26831
-0.0094451,-0.018817,-0.021046,-0.033566,0.010999,-0.0093252,-0.0015603,-0.047074,-0.0025031,0.0056647,-0.0074221,0.00036029,-0.041318,-0.015051,-0.037716,0.056466,0.027675,-0.018716,-0.024138,-0.085974,0.15465,0.40743,0.056979,0.29434
-0.01273,-0.015065,-0.021532,-0.032382,0.0028459,-0.016264,-0.0057255,-0.050752,-0.0045296,0.010876,-0.011516,-0.0015158,-0.052717,-0.013511,-0.032264,0.077518,0.02559,-0.017241,-0.022342,-0.076253,0.13123,0.44336,0.045703,0.31021
-0.014459,-0.011344,-0.018341,-0.031865,-0.0038079,-0.019463,-0.012191,-0.051551,-0.0066397,0.018107,-0.016951,-0.0013805,-0.064585,-0.017295,-0.024897,0.09502,0.02668,-0.017655,-0.021294,-0.069057,0.10766,0.43225,0.02954,0.32276
-0.013019,-0.0094181,-0.013373,-0.030469,-0.0053245,-0.017984,-0.01834,-0.047874,-0.005587,0.025145,-0.021053,0.0018747,-0.073487,-0.017822,-0.016802,0.10592,0.032038,-0.018512,-0.020176,-0.068097,0.093667,0.37353,0.017519,0.34095
-0.0092988,-0.01012,-0.010167,-0.028507,-0.0021998,-0.014299,-0.022291,-0.040289,-0.00024313,0.029061,-0.022408,0.0076433,-0.077647,-0.0099812,-0.0093952,0.11022,0.039308,-0.01795,-0.017886,-0.072196,0.093452,0.272,0.017568,0.36703
-0.0058463,-0.012427,-0.011128,-0.027373,0.0010382,-0.011983,-0.024259,-0.031121,0.0073836,0.027603,-0.021713,0.014423,-0.078079,0.0041438,-0.003414,0.11153,0.043391,-0.01597,-0.014387,-0.07689,0.10296,0.13153,0.030299,0.39313
-0.0045471,-0.014001,-0.015544,-0.027759,-0.00048207,-0.012605,-0.025916,-0.023027,0.013716,0.020235,-0.020961,0.020601,-0.077602,0.017061,0.0018861,0.11438,0.039809,-0.014723,-0.011065,-0.078624,0.11285,-0.044692,0.047728,0.40644
-0.0049864,-0.012914,-0.020269,-0.028792,-0.0077947,-0.014744,-0.028489,-0.017525,0.016549,0.0082275,-0.021646,0.02477,-0.078661,0.02144,0.0084411,0.12031,0.028391,-0.01642,-0.00969,-0.077538,0.11513,-0.24765,0.058352,0.39872
-0.0050698,-0.0092765,-0.022512,-0.028816,-0.017071,-0.015834,-0.031563,-0.014378,0.016914,-0.006023,-0.023542,0.026001,-0.081791,0.015063,0.017855,0.12644,0.014063,-0.021011,-0.010965,-0.076444,0.10824,-0.45583,0.055104,0.37245
-0.0033508,-0.0054053,-0.022174,-0.026882,-0.022716,-0.014732,-0.03375,-0.012098,0.018217,-0.019852,-0.025124,0.024469,-0.085867,0.0017519,0.029853,0.12797,0.0035387,-0.026037,-0.013992,-0.077399,0.096856,-0.63505,0.040349,0.3389
-0.0008128,-0.0042266,-0.021608,-0.023439,-0.021984,-0.012509,-0.034356,-0.0090841,0.023207,-0.030934,-0.025255,0.021953,-0.089598,-0.011744,0.042246,0.12279,0.00023184,-0.028857,-0.017042,-0.079368,0.087005,-0.74634,0.024339,0.30961
-0.00023838,-0.0070105,-0.02316,-0.019686,-0.017216,-0.010986,-0.034144,-0.0046156,0.031261,-0.037706,-0.024514,0.02131,-0.092686,-0.020067,0.05265,0.11399,0.0016363,-0.028968,-0.018791,-0.079166,0.081111,-0.75858,0.0184,0.28866
-0.0035214,-0.012197,-0.026939,-0.016357,-0.013826,-0.010805,-0.034389,0.00082328,0.038364,-0.039791,-0.024877,0.024785,-0.095562,-0.021707,0.060345,0.10785,0.0016761,-0.028049,-0.018929,-0.074464,0.077097,-0.66045,0.027811,0.27164
-0.0093422,-0.016314,-0.030958,-0.013152,-0.01576,-0.01101,-0.03529,0.0059647,0.040028,-0.038282,-0.028005,0.032294,-0.098147,-0.018571,0.066261,0.10879,-0.0037485,-0.027786,-0.017817,-0.065839,0.071847,-0.46735,0.049036,0.25189
-0.013554,-0.016365,-0.033317,-0.0092481,-0.022209,-0.010331,-0.035599,0.0096016,0.034876,-0.035425,-0.033718,0.041171,-0.099074,-0.01388,0.070839,0.11551,-0.012864,-0.027884,-0.015836,-0.056063,0.065289,-0.22007,0.072489,0.22842
-0.012326,-0.011876,-0.034085,-0.0043085,-0.028243,-0.0086255,-0.033996,0.011394,0.025901,-0.033512,-0.040042,0.047826,-0.096358,-0.010332,0.071863,0.1217,-0.019441,-0.026484,-0.013193,-0.047623,0.061066,0.026259,0.088208,0.20851
-0.0055053,-0.0050785,-0.034926,0.00095924,-0.02875,-0.0070013,-0.03085,0.012189,0.018226,-0.033561,-0.044666,0.050134,-0.089047,-0.0094898,0.064878,0.12049,-0.018491,-0.022563,-0.010305,-0.041006,0.063199,0.22108,0.090598,0.20247
0.0027705,0.00076226,-0.036919,0.0051158,-0.022436,-0.0066659,-0.028475,0.013565,0.015167,-0.034838,-0.046397,0.048733,-0.078406,-0.012026,0.046558,0.10872,-0.011129,-0.017665,-0.008154,-0.035177,0.072032,0.33848,0.079902,0.21456
0.0070338,0.0034492,-0.038981,0.0068715,-0.012739,-0.0078376,-0.029444,0.016735,0.015915,-0.035726,-0.045366,0.046365,-0.067508,-0.017997,0.018406,0.087842,-0.0039943,-0.014922,-0.0080253,-0.02945,0.083389,0.38816,0.06064,0.23751
0.0047219,0.0028267,-0.038773,0.0059263,-0.0051361,-0.0097984,-0.034403,0.021492,0.016795,-0.035277,-0.042159,0.045933,-0.059425,-0.026947,-0.012671,0.061362,-0.0034938,-0.016128,-0.010655,-0.024722,0.091711,0.40906,0.038807,0.25507
-0.0017969,0.00022013,-0.035358,0.0033363,-0.0031664,-0.011849,-0.041371,0.026116,0.014948,-0.034056,-0.037123,0.048814,-0.055314,-0.038327,-0.037903,0.031979,-0.0099698,-0.019777,-0.015453,-0.022886,0.0941,0.44711,0.019538,0.25122
-0.0071523,-0.0027909,-0.030879,0.0012499,-0.0063063,-0.01402,-0.0471,0.028643,0.011134,-0.03349,-0.030667,0.054412,-0.053788,-0.05256,-0.051728,0.0011413,-0.01716,-0.022149,-0.020507,-0.02503,0.091391,0.52801,0.0058877,0.21933
-0.0072933,-0.0051608,-0.029231,0.0020266,-0.011033,-0.016773,-0.049295,0.028693,0.009149,-0.034362,-0.024056,0.060884,-0.052013,-0.072241,-0.054392,-0.029186,-0.017574,-0.02052,-0.023534,-0.030045,0.085408,0.64135,-0.0014036,0.16494
-0.0026382,-0.0064207,-0.032573,0.0069802,-0.013803,-0.020102,-0.047904,0.028317,0.012389,-0.035976,-0.019427,0.066284,-0.047811,-0.10224,-0.05026,-0.055184,-0.0090413,-0.015449,-0.023255,-0.034767,0.075336,0.74585,-0.0035188,0.10084
0.0025012,-0.0064784,-0.038884,0.015387,-0.013381,-0.023052,-0.044669,0.030789,0.020656,-0.036849,-0.018523,0.069496,-0.041326,-0.14785,-0.04373,-0.072374,0.0033711,-0.0099976,-0.0203,-0.035483,0.057097,0.79347,-0.0027326,0.038677
0.0036298,-0.0056384,-0.043168,0.024608,-0.010933,-0.02425,-0.041661,0.03796,0.030063,-0.036212,-0.021184,0.070723,-0.035049,-0.21139,-0.036463,-0.078661,0.011639,-0.0067621,-0.016992,-0.029751,0.026655,0.75848,-0.0013365,-0.016556
-0.00025687,-0.0046541,-0.041611,0.03166,-0.0083882,-0.02299,-0.040068,0.048277,0.036157,-0.034698,-0.025168,0.071439,-0.032047,-0.28917,-0.027981,-0.076369,0.011342,-0.0056584,-0.016008,-0.017531,-0.015658,0.65454,-0.00071457,-0.065674
-0.0060545,-0.0043294,-0.035105,0.035346,-0.0068569,-0.019926,-0.039929,0.05728,0.037567,-0.033484,-0.027729,0.073634,-0.033506,-0.3709,-0.018326,-0.071111,0.0048308,-0.004507,-0.018722,-0.0012016,-0.0638,0.5298,-0.0010505,-0.1098
-0.0093465,-0.0047501,-0.028785,0.037241,-0.0063581,-0.016806,-0.040582,0.060529,0.037085,-0.032798,-0.027563,0.07845,-0.037412,-0.44234,-0.0096591,-0.068137,-0.0013677,-0.0016127,-0.0243,0.015421,-0.10887,0.44332,-0.0018339,-0.14563
-0.008115,-0.0049755,-0.027692,0.040371,-0.006562,-0.015507,-0.041178,0.056811,0.039263,-0.031518,-0.025338,0.084941,-0.039529,-0.49035,-0.0050637,-0.069137,-0.002147,0.002351,-0.030164,0.028658,-0.14362,0.43637,-0.0027495,-0.16584
-0.004229,-0.0038617,-0.032279,0.046334,-0.0073585,-0.017063,-0.040946,0.04913,0.046513,-0.028453,-0.022395,0.090054,-0.036183,-0.50757,-0.0058075,-0.072131,0.0025342,0.0049446,-0.033533,0.036502,-0.16491,0.51444,-0.0041777,-0.16468
-0.0016002,-0.0014997,-0.037843,0.053288,-0.0085585,-0.021228,-0.039362,0.042693,0.056841,-0.024013,-0.019161,0.090314,-0.026809,-0.49473,-0.0099304,-0.074395,0.0086165,0.0042526,-0.033015,0.039348,-0.17289,0.64857,-0.0068126,-0.1439
-0.0027593,0.00024088,-0.038547,0.05689,-0.0092434,-0.02669,-0.036406,0.04144,0.064986,-0.020359,-0.01504,0.084306,-0.014284,-0.45944,-0.013705,-0.075704,0.011907,0.0004955,-0.029276,0.039407,-0.16898,0.79279,-0.010686,-0.1137
-0.006829,-0.00095715,-0.032506,0.053832,-0.007807,-0.03173,-0.032744,0.045674,0.066089,-0.019563,-0.0098531,0.074031,-0.0027723,-0.4126,-0.014653,-0.078867,0.011213,-0.0044444,-0.024486,0.039059,-0.15521,0.90646,-0.014536,-0.087246
-0.010483,-0.0055338,-0.023367,0.045137,-0.0030326,-0.035005,-0.02949,0.052317,0.05911,-0.02145,-0.0049881,0.063806,0.0051212,-0.36429,-0.013246,-0.086897,0.008273,-0.0087416,-0.021055,0.039273,-0.13557,0.96985,-0.016309,-0.072734
-0.010824,-0.01098,-0.016921,0.03618,0.0046257,-0.036108,-0.027462,0.05726,0.047529,-0.023359,-0.0025846,0.057311,0.009588,-0.32109,-0.011707,-0.099285,0.0053741,-0.011648,-0.020462,0.039347,-0.11676,0.98685,-0.014671,-0.069184
-0.0075776,-0.013475,-0.01587,0.033013,0.012797,-0.035596,-0.026438,0.057901,0.036966,-0.02231,-0.0032809,0.055085,0.012454,-0.28535,-0.01116,-0.11099,0.0033977,-0.012972,-0.022739,0.038243,-0.10649,0.97628,-0.010382,-0.069254
-0.0028413,-0.01114,-0.017549,0.037812,0.018417,-0.034483,-0.025175,0.054218,0.031579,-0.017636,-0.0049718,0.05456,0.015025,-0.25604,-0.010016,-0.11564,0.0019711,-0.012092,-0.026724,0.036367,-0.10979,0.95748,-0.0062497,-0.066385
0.0010569,-0.0059799,-0.016692,0.047239,0.019597,-0.033545,-0.022452,0.048125,0.031816,-0.011575,-0.0043386,0.052587,0.017116,-0.23044,-0.00533,-0.11079,0.00099116,-0.0081077,-0.030828,0.03606,-0.12626,0.93776,-0.0054107,-0.060193
0.0034578,-0.0024297,-0.010595,0.055108,0.016749,-0.032955,-0.018421,0.042012,0.034871,-0.0072062,-4.445e-005,0.048232,0.018086,-0.20551,0.0039792,-0.10076,0.0014948,-0.0012674,-0.033875,0.040069,-0.15045,0.90799,-0.0090551,-0.055927
0.0053895,-0.0035521,-0.0018197,0.057104,0.01216,-0.032445,-0.014999,0.037564,0.037109,-0.0057292,0.0055995,0.043371,0.018596,-0.17881,0.015058,-0.094363,0.0048226,0.0059526,-0.035554,0.04912,-0.17445,0.84966,-0.015365,-0.059184
0.0079901,-0.0083002,0.0040663,0.053604,0.0084361,-0.031748,-0.01458,0.035315,0.03651,-0.005703,0.0085493,0.040688,0.021046,-0.1488,0.02235,-0.098777,0.010982,0.0098089,-0.036207,0.060815,-0.19016,0.75026,-0.020612,-0.07101
0.011064,-0.012487,0.0035669,0.048484,0.0069748,-0.030868,-0.017894,0.034786,0.03348,-0.0049197,0.0070494,0.041053,0.028001,-0.11492,0.021437,-0.1144,0.017983,0.0080169,-0.03616,0.071132,-0.19004,0.61735,-0.021702,-0.087472
0.013173,-0.012688,-0.0016172,0.04536,0.0074821,-0.030008,-0.022864,0.034889,0.02989,-0.0029728,0.0038909,0.042786,0.039974,-0.077866,0.01243,-0.13477,0.022941,0.001942,-0.03518,0.077499,-0.16762,0.47986,-0.018303,-0.10333
0.013049,-0.0094719,-0.0062191,0.044753,0.0086481,-0.029346,-0.025864,0.034453,0.027382,-0.0019178,0.0043905,0.04341,0.054669,-0.03971,0.00010787,-0.15153,0.024002,-0.0039802,-0.032653,0.080773,-0.11976,0.37279,-0.013047,-0.11597
0.010866,-0.0068743,-0.0061046,0.044421,0.0092843,-0.028926,-0.024702,0.03276,0.026238,-0.0043333,0.011595,0.042083,0.068417,-0.0035414,-0.0094072,-0.16027,0.021475,-0.0055081,-0.028375,0.084195,-0.049834,0.31414,-0.009805,-0.12647
0.0081304,-0.0085368,-0.001608,0.042004,0.0090407,-0.028659,-0.020926,0.029879,0.025429,-0.010643,0.023026,0.040215,0.078535,0.027713,-0.012817,-0.16241,0.017366,-0.0019418,-0.023213,0.090092,0.031554,0.29105,-0.011418,-0.13797
0.0063955,-0.014077,0.0033765,0.037197,0.0082971,-0.028276,-0.019203,0.026537,0.023549,-0.018275,0.032071,0.039638,0.084566,0.052781,-0.011428,-0.16225,0.013957,0.0033311,-0.018876,0.097291,0.11101,0.26699,-0.018363,-0.15388
0.0060388,-0.019095,0.005292,0.031614,0.0075207,-0.027255,-0.023898,0.023597,0.019862,-0.023467,0.032994,0.040132,0.087592,0.072778,-0.0093333,-0.16225,0.012665,0.0056606,-0.01683,0.10178,0.17983,0.20608,-0.028848,-0.17764
0.0062075,-0.018909,0.0039132,0.026996,0.0067404,-0.02498,-0.035528,0.021539,0.014736,-0.024115,0.025286,0.038892,0.088541,0.090427,-0.0097108,-0.16102,0.013762,0.002985,-0.017272,0.10022,0.23877,0.09681,-0.039796,-0.21278
0.005822,-0.012707,0.00183,0.023886,0.0055858,-0.021325,-0.050089,0.02034,0.0091852,-0.021207,0.013769,0.032714,0.087163,0.10815,-0.012325,-0.15558,0.016625,-0.0025324,-0.019038,0.093227,0.29547,-0.04201,-0.047952,-0.26146
0.0045867,-0.004443,0.0014459,0.021926,0.0037858,-0.017316,-0.061916,0.019697,0.0039066,-0.017814,0.0046171,0.021002,0.082476,0.12644,-0.014125,-0.14537,0.019925,-0.0064058,-0.0205,0.085367,0.35586,-0.1762,-0.050812,-0.32144
0.0031051,0.00028749,0.0027479,0.020974,0.001611,-0.015104,-0.067649,0.019217,-0.0013927,-0.016704,0.0008524,0.0067972,0.074113,0.14376,-0.012168,-0.13382,0.021739,-0.0055771,-0.020623,0.081777,0.41678,-0.27917,-0.04736,-0.38435
0.0021679,-0.0013146,0.0038743,0.021398,-0.00019028,-0.016793,-0.067985,0.018321,-0.0076762,-0.018553,0.00096306,-0.0052368,0.063373,0.1581,-0.0063307,-0.126,0.020064,-0.0008444,-0.019387,0.084254,0.46614,-0.34551,-0.038449,-0.43786
0.0020338,-0.0072492,0.0034181,0.023064,-0.00093014,-0.022699,-0.065965,0.016108,-0.015389,-0.021845,0.0012798,-0.012132,0.053171,0.16871,0.00033273,-0.12452,0.013906,0.0039362,-0.017436,0.090146,0.49116,-0.38819,-0.026413,-0.4714
0.0023568,-0.01268,0.0018043,0.024312,-0.00051349,-0.030478,-0.063713,0.011617,-0.023375,-0.024078,-0.00040213,-0.014325,0.046974,0.17686,0.003632,-0.12758,0.0042443,0.0050007,-0.01549,0.094786,0.48785,-0.42589,-0.013854,-0.48148
0.0026442,-0.014026,0.0004746,0.02247,0.00052407,-0.036219,-0.060783,0.0045224,-0.029017,-0.023186,-0.0031208,-0.014424,0.047323,0.18506,0.00089488,-0.13079,-0.0061449,0.0014666,-0.013956,0.095111,0.46378,-0.47359,-0.0022872,-0.47265
0.00265,-0.011698,0.00019414,0.015901,0.0015169,-0.037049,-0.05548,-0.0043767,-0.029778,-0.018489,-0.0040546,-0.014503,0.054619,0.19558,-0.0077585,-0.13094,-0.014237,-0.0043852,-0.012821,0.091398,0.43168,-0.54255,0.0083633,-0.45321
0.0023716,-0.009326,0.00062051,0.0057559,0.0022712,-0.033302,-0.047554,-0.013544,-0.025061,-0.011073,-0.001263,-0.014668,0.066747,0.20937,-0.020159,-0.12836,-0.018614,-0.009214,-0.01172,0.086037,0.39896,-0.64482,0.018987,-0.42885
0.0018895,-0.010349,0.0015213,-0.0044255,0.003247,-0.028302,-0.039412,-0.021851,-0.016873,-0.0036179,0.0046517,-0.014161,0.079852,0.22589,-0.033896,-0.12566,-0.020105,-0.011104,-0.010174,0.081015,0.36203,-0.79243,0.029872,-0.39836
0.0014166,-0.014953,0.0038555,-0.011244,0.0051716,-0.025678,-0.034577,-0.02946,-0.008647,0.00051875,0.011176,-0.01348,0.090134,0.24338,-0.047627,-0.12453,-0.020651,-0.010452,-0.0080199,0.07657,0.31032,-0.98747,0.039802,-0.35385
0.0014665,-0.019905,0.0089562,-0.014024,0.0084049,-0.026378,-0.03486,-0.037403,-0.0030984,-0.0010639,0.015946,-0.014859,0.095874,0.25923,-0.061035,-0.12357,-0.021448,-0.0089268,-0.0057132,0.071895,0.23717,-1.2103,0.046391,-0.28446
0.0026661,-0.021327,0.01636,-0.015171,0.012545,-0.02801,-0.038847,-0.045973,-0.0007406,-0.0082268,0.01835,-0.020112,0.098442,0.27042,-0.073746,-0.11936,-0.022076,-0.007833,-0.0040611,0.066593,0.14942,-1.4181,0.047388,-0.18195
0.0050555,-0.018006,0.0228,-0.017967,0.016527,-0.02721,-0.042988,-0.053372,-0.0001449,-0.018027,0.019504,-0.027895,0.10136,0.27456,-0.084386,-0.10989,-0.021354,-0.0073963,-0.0033594,0.061064,0.067692,-1.5602,0.042072,-0.04621
0.0075082,-0.012444,0.024099,-0.023726,0.019115,-0.022996,-0.044152,-0.056249,0.00043043,-0.026395,0.020904,-0.033564,0.10765,0.27174,-0.090739,-0.097062,-0.018969,-0.007329,-0.002713,0.055474,0.016651,-1.6024,0.031932,0.11048
0.0081628,-0.0087256,0.018687,-0.030777,0.019465,-0.017959,-0.041441,-0.052225,0.0014531,-0.03083,0.023036,-0.032639,0.1169,0.26608,-0.091061,-0.086176,-0.016165,-0.0077306,-0.0004889,0.048757,0.011603,-1.5434,0.020308,0.2628
0.0059247,-0.0089745,0.0094089,-0.036029,0.017491,-0.016054,-0.036009,-0.042591,0.0018488,-0.032118,0.024985,-0.025185,0.12418,0.2654,-0.085539,-0.082455,-0.014738,-0.0092084,0.0041113,0.039213,0.050387,-1.4104,0.01118,0.37774
0.0018285,-0.011385,0.001541,-0.037582,0.013863,-0.018869,-0.029546,-0.032624,0.00018245,-0.0336,0.025174,-0.016918,0.1218,0.27801,-0.076616,-0.087255,-0.015306,-0.012076,0.009683,0.026588,0.11564,-1.2378,0.007566,0.42604
-0.001242,-0.011642,-0.0014273,-0.036061,0.0096492,-0.023855,-0.02303,-0.028662,-0.0037843,-0.038536,0.022574,-0.015302,0.10321,0.30794,-0.067619,-0.096667,-0.016618,-0.015555,0.01301,0.013655,0.1851,-1.0449,0.010217,0.39525
-0.0006843,-0.0067368,-0.00037973,-0.033715,0.0057124,-0.026336,-0.016707,-0.033786,-0.0085495,-0.047744,0.017538,-0.023503,0.067106,0.35168,-0.06054,-0.10329,-0.016665,-0.017962,0.011349,0.0053099,0.24245,-0.83337,0.01727,0.29684
0.0034709,0.0019576,0.00092952,-0.032414,0.0021888,-0.023674,-0.010902,-0.045567,-0.011927,-0.059543,0.011787,-0.037378,0.018982,0.39899,-0.054688,-0.099801,-0.014588,-0.017922,0.0048546,0.0052284,0.282,-0.60439,0.02516,0.16182
0.0081517,0.0090958,-4.8797e-005,-0.032517,-0.0015971,-0.01788,-0.006512,-0.057923,-0.012958,-0.071862,0.0075271,-0.048411,-0.030735,0.43789,-0.047435,-0.082097,-0.011506,-0.01557,-0.0030507,0.01251,0.30571,-0.38115,0.030333,0.026619
0.0094174,0.0092827,-0.0020786,-0.033416,-0.0066164,-0.014202,-0.0045697,-0.065811,-0.013098,-0.084335,0.0061976,-0.050377,-0.071286,0.46051,-0.036649,-0.050551,-0.009436,-0.012656,-0.0079218,0.021238,0.31631,-0.21271,0.030762,-0.082277
0.0055292,0.0015064,-0.0016526,-0.034774,-0.013291,-0.016791,-0.0052886,-0.068919,-0.015533,-0.098091,0.0075584,-0.044199,-0.096369,0.466,-0.022931,-0.0091911,-0.0093425,-0.011334,-0.0073976,0.023828,0.31257,-0.15198,0.026402,-0.15542
-0.0016677,-0.0096046,0.002924,-0.036888,-0.020922,-0.025171,-0.0075676,-0.071246,-0.022862,-0.11321,0.0097474,-0.036976,-0.10645,0.45878,-0.0097788,0.036385,-0.010241,-0.012552,-0.0026011,0.016023,0.28953,-0.22223,0.018587,-0.19623
-0.0082011,-0.016965,0.0090876,-0.039834,-0.027895,-0.034584,-0.0095123,-0.077012,-0.034845,-0.12639,0.01037,-0.036176,-0.10737,0.4441,-0.0014423,0.081205,-0.010289,-0.015331,0.0032121,-0.00012745,0.24295,-0.39769,0.0091516,-0.21089
-0.010951,-0.016255,0.01192,-0.042628,-0.032644,-0.039929,-0.009617,-0.086541,-0.048039,-0.13166,0.0079828,-0.043967,-0.10621,0.42508,-9.0318e-005,0.12215,-0.0088116,-0.017504,0.0073787,-0.017625,0.17409,-0.61339,3.8252e-005,-0.20135
-0.0096527,-0.0089701,0.0088224,-0.043736,-0.034726,-0.039876,-0.0077033,-0.095723,-0.057844,-0.12439,0.0030037,-0.056189,-0.10705,0.40327,-0.0044425,0.1577,-0.0072307,-0.01738,0.0094708,-0.029359,0.091703,-0.7967,-0.0066888,-0.16654
-0.0065207,-0.00086358,0.0024864,-0.042741,-0.035184,-0.03767,-0.0049468,-0.099423,-0.061486,-0.1056,-0.0025566,-0.066278,-0.10927,0.3814,-0.010784,0.18657,-0.0078465,-0.015061,0.010618,-0.032908,0.0099233,-0.89843,-0.0090618,-0.1088
-0.0042626,0.0027714,-0.00092888,-0.041376,-0.035821,-0.037996,-0.0030248,-0.09574,-0.059682,-0.082551,-0.006305,-0.070394,-0.10901,0.36479,-0.015405,0.20675,-0.011527,-0.012423,0.011541,-0.031876,-0.056269,-0.90498,-0.0060244,-0.038307
-0.0043444,0.00091414,0.0029459,-0.042411,-0.037818,-0.04271,-0.0029627,-0.087457,-0.055668,-0.0645,-0.0067815,-0.0696,-0.10253,0.35892,-0.016586,0.21617,-0.016502,-0.011759,0.011448,-0.032865,-0.095627,-0.83038,0.0017245,0.030004
-0.0066083,-0.0033284,0.012667,-0.046981,-0.040704,-0.049109,-0.0043463,-0.079674,-0.052511,-0.056526,-0.0041205,-0.067942,-0.088974,0.36466,-0.01488,0.21498,-0.019561,-0.014079,0.0089415,-0.040408,-0.10324,-0.70052,0.011847,0.085335
-0.0098477,-0.0061996,0.021891,-0.052814,-0.042522,-0.052193,-0.0053262,-0.075871,-0.05102,-0.056442,0.00010817,-0.068751,-0.07074,0.37497,-0.011946,0.20739,-0.018725,-0.018338,0.0039611,-0.053533,-0.080636,-0.54162,0.021705,0.12862
-0.012388,-0.0066037,0.024529,-0.055396,-0.041151,-0.048907,-0.0034922,-0.075691,-0.049994,-0.05724,0.0035714,-0.072458,-0.051833,0.37623,-0.0092032,0.20061,-0.015035,-0.022127,-0.0013397,-0.066333,-0.034227,-0.37549,0.029936,0.1722
-0.012426,-0.0062992,0.019664,-0.051491,-0.035885,-0.040695,0.0027063,-0.075931,-0.048312,-0.052918,0.0040334,-0.077252,-0.035511,0.35394,-0.0073153,0.20045,-0.011752,-0.023278,-0.0039093,-0.072006,0.026854,-0.21761,0.036827,0.23078
-0.0086544,-0.0073063,0.012005,-0.042037,-0.028099,-0.032241,0.01274,-0.073511,-0.046696,-0.042758,0.00026218,-0.081315,-0.022927,0.29959,-0.0065228,0.20625,-0.011585,-0.021202,-0.0022963,-0.067502,0.092584,-0.075599,0.04306,0.30966
-0.0013318,-0.0095265,0.0076485,-0.031762,-0.020548,-0.027588,0.02388,-0.067873,-0.047326,-0.030676,-0.0072325,-0.084327,-0.01321,0.21487,-0.0070516,0.20943,-0.014354,-0.01705,0.0019387,-0.055681,0.15339,0.04982,0.047946,0.3983
0.0070273,-0.011044,0.0089918,-0.025701,-0.01581,-0.027006,0.032562,-0.061164,-0.051675,-0.020785,-0.016127,-0.087054,-0.0044318,0.11154,-0.0089642,0.19787,-0.017203,-0.012765,0.0053113,-0.043702,0.20105,0.15952,0.048911,0.47394
0.012519,-0.010558,0.01321,-0.025611,-0.014949,-0.027184,0.036541,-0.056437,-0.058731,-0.013471,-0.023304,-0.089796,0.0053848,0.0075954,-0.011658,0.16381,-0.017223,-0.009853,0.0051781,-0.038816,0.22939,0.24977,0.042938,0.51303
0.012226,-0.00912,0.015353,-0.029289,-0.017164,-0.024333,0.036282,-0.055446,-0.065472,-0.0054083,-0.026641,-0.091412,0.017602,-0.078294,-0.013798,0.10978,-0.014172,-0.0087802,0.0018228,-0.044218,0.23491,0.31155,0.028864,0.50317
0.006423,-0.009179,0.013069,-0.033084,-0.020455,-0.017324,0.0344,-0.057557,-0.069258,0.0069747,-0.026361,-0.089913,0.032505,-0.13236,-0.014162,0.048067,-0.01076,-0.0092522,-0.0019184,-0.057381,0.21751,0.33716,0.0086059,0.44848
-0.0013691,-0.011913,0.0087799,-0.035008,-0.022742,-0.0082373,0.033458,-0.060225,-0.06991,0.0241,-0.024751,-0.084139,0.048952,-0.14974,-0.01286,-0.0062999,-0.010159,-0.010892,-0.0031019,-0.071731,0.18107,0.32745,-0.013774,0.36609
-0.0067783,-0.015728,0.007567,-0.035657,-0.022815,-0.00024164,0.033965,-0.060506,-0.069464,0.042936,-0.02431,-0.074985,0.06441,-0.13555,-0.011722,-0.043842,-0.012914,-0.013618,-0.0010201,-0.080609,0.13306,0.2913,-0.034431,0.27674
-0.0075607,-0.017596,0.012832,-0.036517,-0.02075,0.0049679,0.03436,-0.05666,-0.069857,0.059607,-0.025813,-0.065105,0.075763,-0.10233,-0.013132,-0.064469,-0.01617,-0.017388,0.0025399,-0.081145,0.082479,0.23639,-0.051752,0.19579
