-7.1384e-011,4.4181e-010,2.4502e-010,2.0045e-009,1.447e-010,8.7783e-010,6.6561e-010,2.2978e-009,-1.3698e-010,6.3474e-010,7.8523e-010,6.3667e-011,2.894e-011,5.923e-010,5.7686e-010,6.3474e-010,4.0323e-010,6.7719e-010,7.042e-010,2.9653e-009,-1.3505e-011,9.3186e-010,9.1256e-010,2.5332e-009
-1.826e-009,1.2344e-008,7.2879e-009,5.52e-008,3.9754e-009,2.4019e-008,1.8389e-008,6.3288e-008,-3.6734e-009,1.7255e-008,2.1456e-008,1.3272e-009,7.2639e-010,1.6634e-008,1.6018e-008,1.7567e-008,1.1023e-008,1.8651e-008,1.9475e-008,8.175e-008,7.0544e-011,2.5616e-008,2.504e-008,7.0097e-008
-2.2432e-008,1.6773e-007,1.0506e-007,7.3845e-007,5.3039e-008,3.1937e-007,2.4709e-007,8.4729e-007,-4.7985e-008,2.279e-007,2.8484e-007,1.1676e-008,8.6937e-009,2.2715e-007,2.1635e-007,2.3633e-007,1.4641e-007,2.4984e-007,2.6176e-007,1.0955e-006,6.8321e-009,3.423e-007,3.337e-007,9.4309e-007
-1.7577e-007,1.4766e-006,9.7806e-007,6.3931e-006,4.5793e-007,2.7495e-006,2.1513e-006,7.3458e-006,-4.0718e-007,1.9486e-006,2.4477e-006,4.4629e-008,6.5539e-008,2.0095e-006,1.8938e-006,2.0584e-006,1.2588e-006,2.1689e-006,2.2777e-006,9.5056e-006,1.0965e-007,2.9625e-006,2.8773e-006,8.2192e-006
-9.8318e-007,9.4657e-006,6.6104e-006,4.0254e-005,2.8763e-006,1.7227e-005,1.3642e-005,4.6356e-005,-2.5256e-006,1.2121e-005,1.5302e-005,-1.031e-007,3.4478e-007,1.2943e-005,1.2075e-005,1.3042e-005,7.8729e-006,1.3718e-005,1.4415e-005,6.003e-005,1.0038e-006,1.8662e-005,1.8041e-005,5.2155e-005
-4.1561e-006,4.7074e-005,3.4564e-005,0.00019638,1.4006e-005,8.3688e-005,6.7139e-005,0.00022687,-1.2215e-005,5.8445e-005,7.4149e-005,-2.5442e-006,1.3115e-006,6.4673e-005,5.9753e-005,6.4016e-005,3.8163e-005,6.7364e-005,7.0679e-005,0.00029397,6.3924e-006,9.1176e-005,8.7636e-005,0.00025676
-1.3673e-005,0.00018891,0.00014546,0.000772,5.5012e-005,0.00032792,0.00026675,0.00089583,-4.7993e-005,0.00022721,0.00028968,-1.8826e-005,3.5132e-006,0.00026075,0.00023875,0.00025309,0.00014914,0.00026725,0.00027913,0.0011611,3.083e-005,0.00035935,0.00034302,0.0010201
-3.5317e-005,0.00062814,0.000506,0.0025106,0.00017898,0.0010641,0.00087853,0.0029306,-0.0001575,0.0007312,0.00093683,-9.3139e-005,5.3472e-006,0.00087097,0.00079097,0.00082698,0.00048245,0.0008798,0.00091118,0.0037979,0.000118,0.0011732,0.0011107,0.0033591
-7.0417e-005,0.0017627,0.0014823,0.0068777,0.00049136,0.0029131,0.0024431,0.0080915,-0.00044049,0.0019841,0.0025544,-0.00035369,-4.4809e-006,0.002455,0.0022136,0.0022728,0.0013161,0.0024489,0.0025026,0.010479,0.00036898,0.0032318,0.0030303,0.0093392
-0.00010014,0.0042294,0.0037056,0.016073,0.0011529,0.0068145,0.005811,0.019107,-0.0010653,0.0045985,0.0059485,-0.0010903,-6.2483e-005,0.0059154,0.0053029,0.0053156,0.0030673,0.005841,0.005854,0.024706,0.00096021,0.0076111,0.0070546,0.022214
-6.6268e-005,0.0087558,0.0079786,0.03231,0.0023314,0.013742,0.011925,0.038945,-0.0022518,0.0091844,0.011934,-0.0028115,-0.00024933,0.012293,0.010977,0.010654,0.0061644,0.01205,0.011753,0.050218,0.0021034,0.015464,0.014135,0.045618
0.00012875,0.01573,0.014884,0.056122,0.0040821,0.024019,0.02122,0.06893,-0.0041916,0.015895,0.020731,-0.0061744,-0.00069354,0.022151,0.019756,0.018348,0.010747,0.021632,0.020336,0.088478,0.0039008,0.027264,0.024497,0.081356
0.00057327,0.024594,0.024132,0.084304,0.0061929,0.03646,0.032793,0.10629,-0.0069061,0.023897,0.031244,-0.011681,-0.0015318,0.034694,0.031023,0.027072,0.016303,0.033884,0.03034,0.13543,0.0061264,0.04183,0.036783,0.12637
0.0012505,0.033466,0.03402,0.10912,0.0081126,0.048015,0.043909,0.14292,-0.010102,0.031198,0.040788,-0.019173,-0.0028139,0.047201,0.042558,0.033872,0.021534,0.046293,0.038902,0.17994,0.0081047,0.055851,0.047768,0.17094
0.0019576,0.039521,0.041619,0.12053,0.009102,0.054613,0.050583,0.16738,-0.01314,0.035258,0.045892,-0.027416,-0.0043872,0.05558,0.050963,0.03508,0.024716,0.054918,0.042571,0.20664,0.0089297,0.064699,0.053375,0.20078
0.0023364,0.040276,0.044035,0.11143,0.0086396,0.053257,0.04947,0.17053,-0.01522,0.034327,0.044157,-0.034253,-0.0058444,0.056324,0.053205,0.028382,0.024546,0.056024,0.039404,0.20355,0.0080891,0.064633,0.050915,0.20362
0.0020494,0.035161,0.040269,0.082956,0.0068877,0.044241,0.040241,0.15174,-0.015741,0.028747,0.03615,-0.037589,-0.0066101,0.048966,0.048544,0.014905,0.020986,0.048297,0.030865,0.1705,0.0061384,0.05522,0.041278,0.1773
0.0009894,0.026223,0.032336,0.045678,0.0048517,0.031699,0.026684,0.12095,-0.01466,0.021168,0.025784,-0.036822,-0.0061623,0.03718,0.039443,-0.00046797,0.015435,0.034183,0.021717,0.12175,0.0047556,0.040139,0.029178,0.13328
-0.00068475,0.017147,0.02442,0.014214,0.0039582,0.021486,0.01518,0.093642,-0.012544,0.01521,0.018339,-0.033707,-0.0042841,0.027093,0.030411,-0.011518,0.0099481,0.019076,0.017263,0.078873,0.0057618,0.025328,0.020581,0.091545
-0.0027749,0.011082,0.020197,-0.0017083,0.0051779,0.017424,0.010949,0.081001,-0.010238,0.013344,0.017074,-0.031658,-0.001211,0.023368,0.025199,-0.014663,0.0060112,0.0084621,0.019531,0.057303,0.0095563,0.015513,0.0187,0.068676
-0.0053444,0.0088447,0.020201,-0.0032973,0.0082523,0.018629,0.014514,0.082474,-0.008299,0.015481,0.020844,-0.033545,0.0023918,0.025755,0.024293,-0.011642,0.0038094,0.0048155,0.025436,0.056268,0.014217,0.011673,0.021575,0.067294
-0.008715,0.0089355,0.021499,-0.00076536,0.011654,0.020243,0.021189,0.086854,-0.0066401,0.019338,0.024784,-0.039384,0.0055986,0.029062,0.024736,-0.0084902,0.0025816,0.0064729,0.02884,0.06048,0.016331,0.011445,0.023525,0.075222
-0.012971,0.0092579,0.020246,-0.0046879,0.013436,0.017313,0.024385,0.081559,-0.0046467,0.022227,0.023868,-0.045849,0.0074829,0.027045,0.022603,-0.011144,0.0016521,0.0093735,0.025233,0.052998,0.013299,0.011929,0.019721,0.07556
-0.017313,0.0089217,0.015101,-0.017758,0.012422,0.0088348,0.020437,0.062789,-0.0017014,0.022784,0.016729,-0.048364,0.00743,0.017414,0.01625,-0.020912,0.0010909,0.010258,0.015288,0.029015,0.0054221,0.012187,0.010283,0.059898
-0.019983,0.0084838,0.008454,-0.033786,0.0088691,-0.0014004,0.011205,0.038138,0.0022768,0.021367,0.006703,-0.044483,0.0054355,0.0038906,0.0076842,-0.033437,0.0013361,0.0087316,0.0042193,-0.00089746,-0.0040364,0.013103,0.00035503,0.034054
-0.019251,0.008592,0.0041919,-0.044324,0.0041256,-0.0079475,0.0023004,0.01965,0.00664,0.019077,-0.00082864,-0.035919,0.0022402,-0.0065371,0.00093117,-0.042108,0.0022301,0.0065961,-0.002492,-0.020619,-0.01102,0.015007,-0.0041154,0.01198
-0.014983,0.0086246,0.0039786,-0.046506,-0.00036297,-0.0081805,-0.0015723,0.013536,0.010232,0.016544,-0.0026383,-0.027431,-0.00088738,-0.0090303,-0.0011956,-0.043207,0.0026398,0.0053108,-0.0032679,-0.02255,-0.013395,0.015887,-0.0014183,0.0035949
-0.0094789,0.0069048,0.0055966,-0.044957,-0.0038434,-0.0042642,-0.00025325,0.015486,0.011835,0.013602,2.6678e-005,-0.023219,-0.0027473,-0.0045399,0.00078898,-0.03859,0.0013004,0.0041103,-0.00091957,-0.013614,-0.012006,0.012536,0.0044325,0.0071087
-0.0063936,0.0023947,0.0051034,-0.04659,-0.0062576,-0.0010018,0.0022726,0.015262,0.010654,0.010025,0.0028491,-0.023641,-0.0029031,0.0012396,0.0037048,-0.033829,-0.0018205,0.000657,0.00062176,-0.0084872,-0.0093842,0.0038881,0.0071222,0.011836
-0.00804,-0.0038403,0.00085866,-0.053802,-0.0076902,-0.0016137,0.0017675,0.0059129,0.0067602,0.0064256,0.0022584,-0.024964,-0.0019919,0.0025411,0.0043838,-0.033518,-0.0051195,-0.0063566,-1.5099e-005,-0.016827,-0.0074738,-0.0068337,0.0034444,0.0079397
-0.013041,-0.0089831,-0.004528,-0.062654,-0.0080088,-0.0052845,-0.0024578,-0.010734,0.0013853,0.0042958,-0.0016355,-0.022412,-0.0013175,-0.0021715,0.0019978,-0.03774,-0.0066201,-0.015212,-0.0010036,-0.036077,-0.0064433,-0.013825,-0.0040131,-0.006025
-0.016614,-0.010476,-0.0064652,-0.06733,-0.0071347,-0.008547,-0.00719,-0.026704,-0.0032055,0.0049534,-0.005409,-0.014069,-0.0018905,-0.0096314,-0.0017594,-0.042487,-0.0058874,-0.021895,1.4672e-005,-0.05548,-0.0053974,-0.013345,-0.0092642,-0.023845
-0.013931,-0.0079337,-0.0029199,-0.066036,-0.0055609,-0.008944,-0.0085202,-0.035431,-0.0045283,0.008203,-0.0055181,-0.0024401,-0.0035746,-0.014894,-0.0044215,-0.043334,-0.0046749,-0.023162,0.0029339,-0.066474,-0.0039377,-0.0072757,-0.0083184,-0.038676
-0.0042774,-0.0032998,0.0031153,-0.062541,-0.0043319,-0.0073702,-0.0054795,-0.037054,-0.0012198,0.011943,-0.0014774,0.0075639,-0.0050449,-0.015147,-0.0046775,-0.039015,-0.0054164,-0.019283,0.0049546,-0.069477,-0.002878,-0.0021361,-0.0028455,-0.049098
0.0075267,0.00076688,0.0058197,-0.062228,-0.0042507,-0.0069526,-0.00073635,-0.037173,0.0058565,0.013334,0.0036556,0.012512,-0.0047055,-0.011133,-0.0029371,-0.031975,-0.0088351,-0.013973,0.0032887,-0.071588,-0.0034754,-0.0040185,0.0011467,-0.058917
0.01416,0.0027659,0.0016249,-0.066877,-0.0050494,-0.0097791,0.002095,-0.041161,0.013671,0.01087,0.0057674,0.013012,-0.0019228,-0.005679,-0.00045846,-0.025881,-0.013042,-0.011508,-0.0019766,-0.078656,-0.0060885,-0.013593,-0.0014422,-0.071944
0.011348,0.0029403,-0.0074441,-0.07324,-0.0055395,-0.014795,0.0017734,-0.049836,0.018576,0.0057629,0.0029449,0.012966,0.0024196,-0.0013333,0.0018324,-0.02267,-0.01521,-0.013497,-0.0077013,-0.089855,-0.0096482,-0.025394,-0.010147,-0.087444
0.001468,0.0023668,-0.015318,-0.076401,-0.0048492,-0.018848,0.00017039,-0.060095,0.018539,0.0013102,-0.0031577,0.016326,0.0065372,0.00064896,0.0037545,-0.021745,-0.01433,-0.017981,-0.010367,-0.099417,-0.012401,-0.031976,-0.018956,-0.10054
-0.0080174,0.0016792,-0.017007,-0.074358,-0.0035911,-0.019644,-0.00010456,-0.068912,0.014557,0.00045793,-0.0087409,0.024142,0.0090416,-0.00038346,0.0054095,-0.021608,-0.012294,-0.021341,-0.0090741,-0.10279,-0.013143,-0.029493,-0.021116,-0.10673
-0.010338,0.00068157,-0.012729,-0.069488,-0.0035959,-0.017589,0.0013473,-0.076172,0.010094,0.0033852,-0.010672,0.034177,0.0098389,-0.0053283,0.0065309,-0.021938,-0.012062,-0.021104,-0.0061709,-0.10074,-0.011849,-0.020298,-0.014713,-0.10602
-0.0046846,-0.00093759,-0.0073958,-0.065922,-0.0061511,-0.014865,0.0021966,-0.083703,0.0087512,0.0071848,-0.0084083,0.043074,0.0099427,-0.014857,0.0063182,-0.023952,-0.01464,-0.017289,-0.0050957,-0.097749,-0.0093634,-0.010865,-0.0042892,-0.10299
0.0035066,-0.0027227,-0.0060925,-0.06566,-0.010332,-0.012978,-0.00021107,-0.092192,0.011752,0.0081149,-0.0038061,0.049014,0.010501,-0.027905,0.0038619,-0.028879,-0.017937,-0.01168,-0.0074516,-0.097335,-0.0066667,-0.0070866,0.0028391,-0.10306
0.0074966,-0.0034827,-0.0096919,-0.067044,-0.013243,-0.011471,-0.0059531,-0.0997,0.017071,0.0046802,0.00058071,0.052729,0.011947,-0.040937,-0.0012025,-0.036282,-0.018825,-0.0062826,-0.011775,-0.099162,-0.0044008,-0.010633,0.0024107,-0.10851
0.0050863,-0.0023727,-0.014446,-0.066624,-0.01234,-0.0090055,-0.012002,-0.10349,0.020896,-0.0010462,0.0031272,0.056452,0.013861,-0.04938,-0.0082554,-0.04407,-0.016438,-0.002491,-0.014828,-0.10061,-0.002816,-0.018677,-0.0037401,-0.1173
0.0002357,-1.0829e-005,-0.015644,-0.062323,-0.007888,-0.0054138,-0.014613,-0.10312,0.020388,-0.0050472,0.003588,0.06205,0.015366,-0.05053,-0.015734,-0.050179,-0.013288,-0.0011793,-0.014161,-0.10033,-0.0018958,-0.026457,-0.0098061,-0.12518
-0.00083312,0.0016144,-0.011831,-0.054996,-0.0032092,-0.0023748,-0.012426,-0.10142,0.015708,-0.0046057,0.0025002,0.069852,0.015521,-0.045617,-0.021692,-0.054123,-0.01283,-0.0027584,-0.0099228,-0.099796,-0.0014819,-0.030381,-0.011164,-0.12884
0.004609,0.00066829,-0.0058594,-0.047325,-0.002182,-0.0019459,-0.0075377,-0.10207,0.0098132,-0.00046354,0.00043763,0.078666,0.013538,-0.039075,-0.024663,-0.056639,-0.015722,-0.006631,-0.0046745,-0.10132,-0.0014428,-0.02967,-0.0079825,-0.12769
0.013375,-0.0027782,-0.0021256,-0.041464,-0.0059704,-0.0045107,-0.0037536,-0.10612,0.0062229,0.0038335,-0.0022026,0.086451,0.0091018,-0.035394,-0.024369,-0.057627,-0.018606,-0.010769,-0.0015506,-0.10517,-0.0018668,-0.026014,-0.0043916,-0.12343
0.019234,-0.0064449,-0.0027878,-0.037603,-0.011794,-0.008294,-0.0036968,-0.11102,0.0064762,0.0047228,-0.0049679,0.09111,0.0028743,-0.03592,-0.021789,-0.054486,-0.016997,-0.012577,-0.0021652,-0.10882,-0.0030297,-0.022064,-0.0044364,-0.11839
0.018196,-0.0075403,-0.0063206,-0.034394,-0.014914,-0.010941,-0.0071706,-0.11303,0.0092043,0.0011883,-0.0072256,0.091352,-0.0032551,-0.038048,-0.018479,-0.04296,-0.009769,-0.010929,-0.0056852,-0.1093,-0.0049818,-0.019837,-0.0087346,-0.11414
0.011427,-0.0051542,-0.0093409,-0.030376,-0.012306,-0.011564,-0.011823,-0.11091,0.011455,-0.0048287,-0.0084815,0.087641,-0.0068039,-0.037298,-0.015639,-0.020427,-0.00090555,-0.0075964,-0.009606,-0.10587,-0.007096,-0.019822,-0.014673,-0.11118
0.0036016,-0.0011763,-0.0096484,-0.024976,-0.0051337,-0.01129,-0.015175,-0.10724,0.011142,-0.010173,-0.0088905,0.082675,-0.0061107,-0.030584,-0.013644,0.010844,0.0034784,-0.0062343,-0.011601,-0.10037,-0.0082183,-0.021032,-0.019413,-0.10929
-0.0011752,0.0012763,-0.0077021,-0.018497,0.0019152,-0.011882,-0.016224,-0.10621,0.0086397,-0.012771,-0.0093888,0.080464,-0.0015215,-0.018316,-0.012373,0.043405,0.00037126,-0.0093014,-0.011114,-0.095124,-0.0075797,-0.021864,-0.022448,-0.10791
-0.001945,0.00065554,-0.0056237,-0.011661,0.003904,-0.013887,-0.01556,-0.10992,0.0062744,-0.012793,-0.011137,0.083938,0.0047203,-0.0040777,-0.01191,0.068113,-0.0073884,-0.015535,-0.009575,-0.09065,-0.005711,-0.021272,-0.025286,-0.10628
-0.00019021,-0.0015559,-0.0051618,-0.0054004,-0.00085815,-0.01607,-0.014339,-0.11638,0.0062163,-0.012187,-0.014589,0.092551,0.0099036,0.0075783,-0.012831,0.079278,-0.013406,-0.020564,-0.0091315,-0.085632,-0.0042965,-0.019513,-0.028925,-0.10349
0.0024853,-0.0021922,-0.0066022,-0.00084426,-0.0095453,-0.016586,-0.013254,-0.12108,0.0085712,-0.013227,-0.018906,0.10198,0.01244,0.013593,-0.015704,0.077931,-0.012996,-0.020472,-0.010924,-0.078925,-0.0047982,-0.017909,-0.032027,-0.098975
0.0054588,0.00055309,-0.0091787,0.0010798,-0.016609,-0.01469,-0.012363,-0.12028,0.011298,-0.017134,-0.022296,0.10671,0.012341,0.013652,-0.020194,0.070983,-0.0067183,-0.015192,-0.014268,-0.071303,-0.0070119,-0.017745,-0.031788,-0.092929
0.0082089,0.0051865,-0.011951,0.00058129,-0.017417,-0.011445,-0.011645,-0.1134,0.011988,-0.023403,-0.023136,0.10381,0.010398,0.009729,-0.024685,0.066836,0.00071125,-0.008579,-0.017345,-0.065058,-0.0090513,-0.019131,-0.026701,-0.086459
0.009308,0.0079636,-0.014038,-0.000329,-0.011301,-0.0088687,-0.011511,-0.10286,0.0099523,-0.030044,-0.021154,0.095052,0.0070654,0.0045016,-0.026943,0.070314,0.0046826,-0.0049713,-0.018731,-0.061861,-0.0090059,-0.020811,-0.018399,-0.080944
0.0072587,0.0061088,-0.014327,0.0015279,-0.0019465,-0.0083617,-0.012609,-0.092006,0.0067651,-0.034568,-0.01776,0.085513,0.0021957,-0.00023374,-0.025543,0.080031,0.0040296,-0.0054113,-0.018389,-0.061119,-0.0068111,-0.021155,-0.010685,-0.077105
0.0026551,0.000379,-0.011657,0.0085741,0.0052124,-0.0097682,-0.015035,-0.083311,0.0047891,-0.035304,-0.015248,0.079873,-0.0041931,-0.0041366,-0.021,0.089734,0.00079711,-0.0070033,-0.017289,-0.06049,-0.0044564,-0.019546,-0.0065607,-0.074483
-0.00097541,-0.005302,-0.0059163,0.020627,0.0067533,-0.011727,-0.017798,-0.077884,0.0049755,-0.032399,-0.015395,0.079316,-0.011008,-0.0076221,-0.015641,0.092753,-0.0025034,-0.0059169,-0.016105,-0.058024,-0.0041501,-0.016949,-0.0059202,-0.071785
0.00058895,-0.0068432,0.00090425,0.034739,0.0034313,-0.012841,-0.019249,-0.075895,0.0059262,-0.027838,-0.018412,0.08135,-0.016047,-0.010576,-0.012111,0.086815,-0.0049547,-0.0011168,-0.014355,-0.053785,-0.0060785,-0.015072,-0.0058825,-0.067824
0.0084114,-0.0031013,0.0051524,0.047006,-0.00090551,-0.012603,-0.01836,-0.076818,0.0051241,-0.024355,-0.022945,0.082247,-0.017035,-0.011702,-0.011525,0.076104,-0.0067952,0.0046903,-0.010947,-0.049446,-0.0079448,-0.014788,-0.0033152,-0.062358
0.018555,0.00338,0.0037749,0.054964,-0.0027133,-0.011411,-0.015781,-0.079224,0.0013147,-0.023838,-0.026992,0.079795,-0.013,-0.0092861,-0.012666,0.068948,-0.0077085,0.0076609,-0.0057265,-0.04641,-0.0068848,-0.015198,0.0026675,-0.056271
0.024464,0.0084082,-0.0031318,0.058736,-0.0015647,-0.0099168,-0.013605,-0.080832,-0.0040712,-0.026258,-0.029012,0.074286,-0.0049921,-0.0029537,-0.012953,0.072339,-0.0063773,0.0063865,-0.00049122,-0.044474,-0.0020983,-0.014268,0.010121,-0.051112
0.021946,0.0091461,-0.011722,0.060298,3.7985e-005,-0.0084932,-0.013754,-0.079521,-0.0078245,-0.029829,-0.028502,0.067525,0.004269,0.005146,-0.010491,0.086933,-0.0020933,0.0030521,0.0017895,-0.042413,0.0042183,-0.010582,0.015701,-0.048387
0.012556,0.0057588,-0.016697,0.061841,-0.00043388,-0.0072869,-0.016259,-0.074799,-0.0075563,-0.032244,-0.025894,0.061247,0.011538,0.011126,-0.0056121,0.10619,0.0034855,0.0012143,-0.00080364,-0.039812,0.0085456,-0.0047297,0.016768,-0.048999
0.0024496,0.00073525,-0.01505,0.064677,-0.0027298,-0.0065778,-0.018975,-0.068405,-0.0038092,-0.032086,-0.022093,0.056292,0.014319,0.011974,-0.00066866,0.1206,0.0068861,0.0024419,-0.0073074,-0.038073,0.008855,0.00091686,0.012754,-0.052893
-0.0022965,-0.0032206,-0.0084188,0.069161,-0.0038625,-0.0067833,-0.019213,-0.063168,0.00019877,-0.029519,-0.0181,0.05265,0.011769,0.0080377,0.0017585,0.12399,0.0057727,0.0050245,-0.014195,-0.039197,0.0060876,0.0039561,0.0053051,-0.05882
1.8071e-005,-0.0050011,-0.0020407,0.074981,-0.0010301,-0.0078979,-0.016005,-0.060796,0.0010938,-0.025936,-0.014812,0.049668,0.0050114,0.0031043,0.00077823,0.11741,0.0015674,0.0058628,-0.017834,-0.043201,0.003085,0.0037918,-0.0025716,-0.064267
0.0061476,-0.0054615,-0.00094748,0.081128,0.005374,-0.0089602,-0.011049,-0.060366,-0.0019488,-0.023007,-0.012853,0.046011,-0.0032058,0.0015737,-0.0022844,0.10758,-0.0011667,0.0035962,-0.017116,-0.046668,0.0020774,0.0020196,-0.0078828,-0.065898
0.011034,-0.0064226,-0.0062796,0.08579,0.011626,-0.00837,-0.0073798,-0.058827,-0.0066188,-0.021789,-0.012372,0.039776,-0.0095037,0.0048127,-0.0051111,0.10149,0.0014471,-8.0485e-005,-0.01402,-0.044304,0.0030516,0.0010517,-0.0090722,-0.060766
0.01169,-0.0092116,-0.014568,0.087086,0.013653,-0.0051421,-0.0068329,-0.053233,-0.0095043,-0.022386,-0.012975,0.029338,-0.011344,0.0097978,-0.006297,0.10137,0.0088485,-0.0021316,-0.01162,-0.032772,0.0043561,0.0021556,-0.0068412,-0.048023
0.0087667,-0.013693,-0.020493,0.084727,0.01039,-0.00012079,-0.0085111,-0.042998,-0.0089582,-0.024121,-0.013935,0.014666,-0.008356,0.011449,-0.0063757,0.10382,0.015953,-0.001195,-0.011353,-0.01383,0.0047177,0.0045286,-0.003743,-0.030115
0.0051248,-0.018297,-0.020867,0.08127,0.0044448,0.0040944,-0.0096624,-0.030461,-0.0062821,-0.025976,-0.014592,-0.0019858,-0.0026523,0.0068881,-0.0071715,0.10341,0.017145,0.0010683,-0.01202,0.0060314,0.0045417,0.0061021,-0.0025877,-0.012322
0.0032144,-0.021015,-0.016747,0.081231,-0.00038723,0.0047902,-0.0082383,-0.019382,-0.0042459,-0.027023,-0.014597,-0.016937,0.0023622,-0.0019771,-0.010073,0.097275,0.011033,0.001629,-0.01134,0.019564,0.00517,0.0053085,-0.0046739,-0.00035888
0.003589,-0.020869,-0.012227,0.087942,-0.0022388,0.0012009,-0.0048679,-0.012513,-0.0044041,-0.026714,-0.013843,-0.027165,0.00414,-0.0098365,-0.014684,0.08724,0.0018463,-0.00081592,-0.0084997,0.023532,0.0069264,0.002327,-0.0091664,0.0028352
0.0053571,-0.018918,-0.011194,0.10037,-0.0020232,-0.0047082,-0.0024644,-0.010027,-0.0057775,-0.025005,-0.012317,-0.032102,0.0026536,-0.012242,-0.018967,0.077918,-0.0037501,-0.0042853,-0.0051876,0.020723,0.0081479,-0.0011257,-0.014053,-0.001002
0.0075369,-0.017914,-0.014727,0.11282,-0.0015902,-0.0094844,-0.0037638,-0.0098409,-0.0061575,-0.02229,-0.010251,-0.03372,0.00024468,-0.0091448,-0.020768,0.072894,-0.0017177,-0.0050711,-0.0040937,0.017788,0.0065411,-0.0031609,-0.017747,-0.006406
0.0097625,-0.02045,-0.020919,0.11837,-0.0014616,-0.010541,-0.0089112,-0.009416,-0.0047351,-0.019191,-0.0084779,-0.03484,-0.00034141,-0.0047321,-0.019479,0.072088,0.0065602,-0.0011107,-0.0063071,0.020641,0.001795,-0.0030788,-0.01993,-0.0076363
0.011829,-0.026726,-0.026734,0.1137,-0.00061056,-0.0077982,-0.015149,-0.0075637,-0.0033735,-0.016347,-0.0084028,-0.037074,0.0017902,-0.0038112,-0.016527,0.07213,0.015738,0.0058333,-0.010132,0.030753,-0.0032065,-0.0017092,-0.021104,-0.0023089
0.012942,-0.033822,-0.030067,0.10146,0.0016847,-0.0034399,-0.018848,-0.004901,-0.0050403,-0.014304,-0.011127,-0.040051,0.0050218,-0.0079019,-0.014365,0.069061,0.020615,0.011191,-0.012491,0.044696,-0.0042302,-0.00061235,-0.021639,0.0074361
0.011872,-0.037529,-0.030513,0.08829,0.0042635,-0.00016947,-0.018181,-0.0027492,-0.010667,-0.01353,-0.016165,-0.042419,0.0067303,-0.014304,-0.014836,0.061078,0.019447,0.011045,-0.011623,0.056763,0.00065254,-0.00087885,-0.021423,0.017077
0.0081507,-0.035708,-0.028823,0.080002,0.0048727,0.00057708,-0.014344,-0.0015205,-0.017441,-0.014413,-0.021006,-0.043587,0.0056272,-0.018704,-0.01814,0.049404,0.014197,0.0051946,-0.0085411,0.062568,0.0088995,-0.0024618,-0.020355,0.023383
0.003181,-0.030428,-0.026061,0.077793,0.0027391,-0.00074364,-0.01049,2.6617e-005,-0.020459,-0.017125,-0.022416,-0.044612,0.0028034,-0.018853,-0.023034,0.036979,0.0082723,-0.0026822,-0.0059649,0.061339,0.015111,-0.004448,-0.018907,0.026587
-0.00016118,-0.026706,-0.023254,0.078208,0.00011191,-0.0024278,-0.009374,0.0040599,-0.016665,-0.021383,-0.018845,-0.047462,0.00052353,-0.016134,-0.027816,0.026211,0.0040141,-0.0078551,-0.0058119,0.055889,0.015322,-0.0059029,-0.01797,0.029385
0.00046321,-0.028448,-0.021403,0.076518,0.00068604,-0.0027157,-0.011516,0.01207,-0.007721,-0.026308,-0.012009,-0.053338,-4.2522e-005,-0.013913,-0.031226,0.01743,0.0017999,-0.0080606,-0.007677,0.050691,0.010247,-0.0065214,-0.018129,0.033933
0.0047716,-0.034878,-0.021293,0.070551,0.0059731,-0.00079567,-0.015089,0.023625,0.00083365,-0.030571,-0.0060728,-0.061542,0.00011702,-0.014416,-0.03271,0.0090318,0.00078718,-0.0049639,-0.0096509,0.049275,0.004553,-0.0065708,-0.019203,0.039787
0.00967,-0.040752,-0.022947,0.062056,0.013092,0.0026956,-0.017442,0.036374,0.0036542,-0.032861,-0.0047914,-0.069881,-0.00087166,-0.017005,-0.03219,-0.00096217,9.7969e-005,-0.0025763,-0.010525,0.052304,0.002807,-0.0063046,-0.02054,0.044759
0.011467,-0.040521,-0.025315,0.054909,0.016504,0.0057854,-0.017085,0.047288,-0.00042335,-0.032469,-0.0088114,-0.076286,-0.0034064,-0.019189,-0.029828,-0.013072,-0.00062013,-0.0040679,-0.011131,0.05731,0.005785,-0.0055288,-0.021674,0.047696
0.0088311,-0.033033,-0.026767,0.051886,0.01258,0.0060317,-0.014777,0.054298,-0.0077458,-0.029643,-0.015309,-0.080268,-0.0054824,-0.01914,-0.026058,-0.025602,-0.0013426,-0.0095269,-0.013499,0.060339,0.01037,-0.0038513,-0.022528,0.0502
0.0039581,-0.022653,-0.026225,0.052521,0.0030068,0.0020351,-0.012996,0.057363,-0.012966,-0.025468,-0.020183,-0.083033,-0.0044579,-0.017247,-0.021768,-0.035554,-0.001983,-0.016238,-0.018704,0.058697,0.012825,-0.0014312,-0.02298,0.055286
0.00082449,-0.015769,-0.02399,0.053428,-0.0061961,-0.0051919,-0.014095,0.058321,-0.01321,-0.021278,-0.020931,-0.086219,-1.5953e-005,-0.015382,-0.01829,-0.040637,-0.0024994,-0.02094,-0.025528,0.053035,0.012141,0.00056547,-0.022455,0.064104
0.00191,-0.015758,-0.021492,0.050612,-0.0094076,-0.01221,-0.018394,0.059638,-0.0098779,-0.017961,-0.017961,-0.090412,0.004697,-0.014864,-0.017021,-0.040967,-0.0028848,-0.022108,-0.031243,0.047193,0.010397,0.0004662,-0.02026,0.074082
0.006138,-0.02079,-0.020153,0.041986,-0.0058237,-0.015049,-0.023638,0.062797,-0.0068835,-0.015616,-0.013652,-0.094717,0.0053185,-0.015294,-0.018753,-0.039184,-0.0032328,-0.020599,-0.033724,0.045686,0.010159,-0.0026372,-0.016518,0.080707
0.0097213,-0.026125,-0.020402,0.028414,0.0002498,-0.012027,-0.026429,0.067379,-0.0071041,-0.013808,-0.010361,-0.097636,0.00019091,-0.015405,-0.023037,-0.03886,-0.0037767,-0.018543,-0.032921,0.050595,0.01178,-0.0078598,-0.012699,0.081645
0.0091105,-0.028402,-0.021652,0.01283,0.0033603,-0.0053755,-0.024766,0.071557,-0.010087,-0.012179,-0.0091287,-0.098362,-0.0076906,-0.014946,-0.028027,-0.042355,-0.004653,-0.017669,-0.030441,0.06026,0.013266,-0.012751,-0.010921,0.079305
0.0035856,-0.027903,-0.0231,-0.0016601,0.0015259,-0.00012616,-0.01974,0.073759,-0.012723,-0.010877,-0.0097569,-0.097296,-0.012852,-0.015524,-0.031133,-0.049665,-0.0054733,-0.018392,-0.027935,0.07069,0.012624,-0.014845,-0.012371,0.079113
-0.0044163,-0.027079,-0.02437,-0.013223,-0.0024938,-0.00079254,-0.014866,0.074251,-0.012088,-0.010411,-0.011579,-0.095499,-0.012006,-0.019313,-0.030382,-0.059012,-0.0052191,-0.020054,-0.026017,0.078381,0.010114,-0.013469,-0.01618,0.084679
-0.011124,-0.027404,-0.025365,-0.021496,-0.0041083,-0.0082155,-0.013384,0.075269,-0.0080426,-0.011089,-0.013891,-0.093848,-0.0070651,-0.026717,-0.025824,-0.068502,-0.0028737,-0.021759,-0.024662,0.082121,0.0081043,-0.010365,-0.019893,0.09417
-0.013738,-0.027953,-0.025674,-0.026913,-0.0011049,-0.018956,-0.015635,0.079359,-0.0035433,-0.01258,-0.015836,-0.092822,-0.0036268,-0.0352,-0.019933,-0.077384,0.0015245,-0.023006,-0.02428,0.082612,0.0087288,-0.008515,-0.021323,0.10134
-0.011634,-0.02693,-0.024467,-0.030101,0.0046315,-0.027668,-0.018748,0.087145,-0.0024867,-0.014069,-0.016398,-0.09295,-0.0061193,-0.040563,-0.016436,-0.085925,0.0063623,-0.023778,-0.025909,0.080882,0.011707,-0.0099663,-0.020312,0.10054
-0.0061685,-0.024131,-0.021317,-0.031875,0.009151,-0.030634,-0.019008,0.096441,-0.0066936,-0.014903,-0.015022,-0.095079,-0.013892,-0.03979,-0.018109,-0.094179,0.0091774,-0.024311,-0.030006,0.07739,0.01444,-0.014308,-0.018876,0.091286
0.00025494,-0.02146,-0.017173,-0.033427,0.010041,-0.027901,-0.015014,0.1036,-0.014271,-0.015173,-0.012455,-0.099737,-0.021761,-0.033201,-0.025017,-0.10094,0.0082806,-0.024883,-0.035134,0.07258,0.014229,-0.019037,-0.019527,0.078503
0.0051333,-0.020906,-0.014251,-0.036049,0.0082222,-0.022742,-0.0090171,0.10606,-0.020619,-0.015681,-0.010743,-0.10604,-0.024496,-0.024259,-0.034493,-0.10398,0.0040104,-0.025731,-0.038222,0.067754,0.010487,-0.021566,-0.023133,0.068173
0.0066335,-0.022263,-0.014471,-0.04034,0.0065081,-0.019158,-0.005354,0.10393,-0.021491,-0.017286,-0.01192,-0.11138,-0.021244,-0.017288,-0.042865,-0.10157,-0.0014568,-0.026978,-0.036658,0.064754,0.0050108,-0.021282,-0.028082,0.062496
0.0042172,-0.023223,-0.017551,-0.04571,0.0066012,-0.019384,-0.0072703,0.099312,-0.015998,-0.02011,-0.016277,-0.11271,-0.016019,-0.014951,-0.047569,-0.094045,-0.0056172,-0.02847,-0.030417,0.064422,0.00030969,-0.019977,-0.031473,0.058757
-0.0010854,-0.021911,-0.020595,-0.05091,0.0074911,-0.022967,-0.014649,0.094258,-0.0073503,-0.023215,-0.021789,-0.10863,-0.014048,-0.017172,-0.048148,-0.084052,-0.0072272,-0.029673,-0.022202,0.065473,-0.0023245,-0.020274,-0.031369,0.052627
-0.0070961,-0.01918,-0.019983,-0.055329,0.0067001,-0.027671,-0.024257,0.089346,-0.00071215,-0.025012,-0.025484,-0.10053,-0.017376,-0.021882,-0.0457,-0.075189,-0.0067339,-0.02989,-0.015315,0.065322,-0.0033211,-0.023349,-0.028267,0.042632
-0.011579,-0.018075,-0.014372,-0.059845,0.0030296,-0.031258,-0.03205,0.084247,0.00034085,-0.024171,-0.025729,-0.091833,-0.023536,-0.0266,-0.041669,-0.069927,-0.0054075,-0.028784,-0.011195,0.062399,-0.0037873,-0.027852,-0.024666,0.0317
-0.01337,-0.020753,-0.0063669,-0.066226,-0.0019225,-0.032874,-0.035623,0.079291,-0.0038295,-0.020494,-0.023443,-0.085857,-0.028101,-0.029611,-0.037132,-0.068389,-0.0041454,-0.026807,-0.0088326,0.057744,-0.0041833,-0.030948,-0.023154,0.024614
-0.012773,-0.025956,-0.0011561,-0.075411,-0.0049635,-0.033216,-0.035144,0.075967,-0.0094657,-0.015177,-0.021125,-0.084012,-0.028495,-0.030266,-0.03292,-0.068816,-0.0030196,-0.025034,-0.006387,0.054089,-0.0039992,-0.030588,-0.024599,0.023941
-0.011036,-0.029724,-0.0027875,-0.086135,-0.0041125,-0.033541,-0.032523,0.075478,-0.012312,-0.01024,-0.020583,-0.085483,-0.025663,-0.028714,-0.029906,-0.06921,-0.0017554,-0.024356,-0.0032122,0.053022,-0.0025608,-0.027095,-0.027767,0.02811
-0.0094376,-0.028897,-0.010848,-0.095295,-0.00038658,-0.034347,-0.029851,0.076803,-0.010583,-0.0073496,-0.021471,-0.088134,-0.022522,-0.025627,-0.02879,-0.068809,-0.00042664,-0.024654,-0.00028641,0.052872,-1.7958e-005,-0.022718,-0.030428,0.033063
-0.0087409,-0.024038,-0.020319,-0.10001,0.0030903,-0.034774,-0.028273,0.07671,-0.005826,-0.0067882,-0.021957,-0.089573,-0.02105,-0.022041,-0.02946,-0.068297,0.00039827,-0.024782,0.0011442,0.049543,0.0024596,-0.019646,-0.030923,0.035599
-0.0092303,-0.01893,-0.024997,-0.099822,0.0038144,-0.033303,-0.027756,0.072357,-0.001315,-0.0073306,-0.020739,-0.08788,-0.020825,-0.019136,-0.030734,-0.068838,0.00011405,-0.023575,0.0010418,0.039877,0.0034023,-0.018305,-0.029077,0.03532
-0.010915,-0.017125,-0.021976,-0.097213,0.0019562,-0.029257,-0.02747,0.06425,0.00052072,-0.0072211,-0.018388,-0.082249,-0.020091,-0.017798,-0.030992,-0.070921,-0.0014205,-0.02108,0.00054613,0.024744,0.0020159,-0.017485,-0.026052,0.033751
-0.013416,-0.018901,-0.013641,-0.095863,-7.2608e-005,-0.023845,-0.026355,0.056412,-0.00037384,-0.0055625,-0.016725,-0.07376,-0.01795,-0.018146,-0.029295,-0.073983,-0.0038156,-0.018811,0.00056628,0.0091044,-0.0013111,-0.016096,-0.023463,0.031978
-0.015645,-0.021492,-0.0055948,-0.097862,1.2384e-005,-0.019674,-0.023732,0.053002,-0.0020864,-0.0029948,-0.016957,-0.065607,-0.015411,-0.019399,-0.026004,-0.076994,-0.0064495,-0.018581,0.00063119,-0.0012079,-0.0051862,-0.014777,-0.022357,0.0293
-0.015905,-0.022127,-0.0022292,-0.10203,0.0023746,-0.018872,-0.01985,0.054201,-0.002428,-0.0010518,-0.018499,-0.061746,-0.014328,-0.02025,-0.022299,-0.079365,-0.0087597,-0.020803,-0.00070278,-0.0034694,-0.0078347,-0.015629,-0.022511,0.024141
-0.012862,-0.020732,-0.0035858,-0.10475,0.0052416,-0.021337,-0.016048,0.055365,-0.0004946,-0.00069424,-0.019633,-0.06416,-0.015396,-0.01955,-0.019035,-0.081447,-0.010369,-0.023824,-0.004314,0.00026782,-0.0078515,-0.020125,-0.022446,0.016128
-0.0069049,-0.019699,-0.0059731,-0.10278,0.0068631,-0.024695,-0.014126,0.050669,0.0029056,-0.001276,-0.019216,-0.070687,-0.017222,-0.016871,-0.015949,-0.084333,-0.01118,-0.025029,-0.0094778,0.0049611,-0.004878,-0.027083,-0.020346,0.0071707
-0.00063973,-0.02116,-0.0055299,-0.096009,0.0071315,-0.026181,-0.01504,0.038201,0.0059892,-0.00088753,-0.017636,-0.075714,-0.017394,-0.012621,-0.011863,-0.089191,-0.011491,-0.022906,-0.014387,0.0062049,1.1838e-005,-0.032799,-0.015523,0.00035133
0.0023587,-0.024629,-0.0015078,-0.087849,0.007233,-0.024897,-0.017884,0.021896,0.0071933,0.0021194,-0.016054,-0.073964,-0.014532,-0.0076897,-0.0056818,-0.096518,-0.011901,-0.018329,-0.017631,0.0028471,0.0045322,-0.03358,-0.009382,-0.0024642
2.1169e-005,-0.027272,0.0034598,-0.082978,0.0078274,-0.022389,-0.020232,0.0084222,0.0060191,0.0076096,-0.014831,-0.064706,-0.0094151,-0.0028845,0.0026495,-0.10561,-0.012816,-0.013958,-0.019078,-0.0031444,0.0061683,-0.028728,-0.0048262,-0.0022172
-0.0063713,-0.026359,0.0060018,-0.083964,0.0078238,-0.020964,-0.019911,0.0018339,0.0030972,0.013352,-0.012909,-0.052791,-0.0041785,0.0014555,0.011891,-0.11449,-0.013904,-0.012232,-0.019346,-0.0089757,0.0035639,-0.021356,-0.0041612,-0.0020521
-0.012704,-0.021476,0.0049527,-0.089395,0.0052207,-0.021266,-0.016851,0.00075269,-0.00041525,0.016221,-0.0088875,-0.045274,-0.00038697,0.00542,0.020072,-0.12042,-0.014172,-0.013624,-0.01859,-0.013347,-0.00252,-0.01615,-0.0070535,-0.0050224
-0.014868,-0.014587,0.0020091,-0.094884,-0.00069766,-0.021476,-0.013287,0.0004169,-0.0035955,0.01413,-0.0027454,-0.046107,0.0021878,0.009145,0.025479,-0.12119,-0.012844,-0.016479,-0.016064,-0.017022,-0.0094144,-0.015783,-0.010468,-0.011973
-0.011849,-0.0082886,-0.00017184,-0.096133,-0.0080359,-0.019022,-0.011876,-0.002634,-0.0061128,0.0074743,0.0035849,-0.053146,0.0049756,0.012449,0.027518,-0.1164,-0.010278,-0.018461,-0.011058,-0.021574,-0.013933,-0.018907,-0.011003,-0.021174
-0.006517,-0.0041244,-0.00039735,-0.091676,-0.013334,-0.013292,-0.013257,-0.0076849,-0.0079609,-0.00084659,0.0075299,-0.059778,0.008823,0.014862,0.026915,-0.10805,-0.0078565,-0.018385,-0.0042724,-0.027682,-0.014137,-0.021429,-0.0078179,-0.029747
-0.0033376,-0.0023055,0.00033627,-0.083376,-0.014207,-0.0067137,-0.015313,-0.011197,-0.0089042,-0.0068642,0.0079551,-0.059701,0.012768,0.016099,0.02505,-0.099625,-0.0067475,-0.016992,0.0019007,-0.034448,-0.010388,-0.019971,-0.0035447,-0.035564
-0.0048022,-0.0025276,0.00018253,-0.074669,-0.011231,-0.0029523,-0.014985,-0.010723,-0.0082995,-0.0076807,0.0061275,-0.051024,0.014626,0.016552,0.022751,-0.094066,-0.0067022,-0.016137,0.0047952,-0.040072,-0.0050754,-0.014633,-0.0021681,-0.038246
-0.0095338,-0.0045784,-0.001726,-0.068231,-0.0073923,-0.0036928,-0.011159,-0.0075376,-0.0056572,-0.0031226,0.0046779,-0.036883,0.012959,0.017285,0.019472,-0.092009,-0.0062365,-0.017005,0.0035295,-0.043097,-0.0012287,-0.0087504,-0.0055893,-0.038864
-0.013624,-0.008039,-0.0046915,-0.064835,-0.0056791,-0.0069848,-0.0059737,-0.0057136,-0.0015363,0.0040888,0.0054779,-0.022795,0.008659,0.019316,0.013768,-0.091581,-0.0042109,-0.018752,-7.4562e-005,-0.043222,-0.00084382,-0.0059737,-0.011875,-0.038917
-0.013943,-0.011652,-0.0073123,-0.063771,-0.0069695,-0.008855,-0.0031866,-0.0087579,0.0021915,0.0098816,0.008257,-0.013205,0.0046139,0.022666,0.0050114,-0.089917,-0.0012875,-0.018744,-0.0026573,-0.041294,-0.0038792,-0.0072233,-0.016762,-0.039382
-0.010469,-0.013408,-0.008552,-0.063823,-0.0098595,-0.0069118,-0.0048284,-0.016936,0.0033209,0.0113,0.011044,-0.0095138,0.0035373,0.025964,-0.0050076,-0.085165,0.00030459,-0.014505,-0.0017845,-0.038799,-0.0084427,-0.010097,-0.017082,-0.040211
-0.0056879,-0.011618,-0.007913,-0.063773,-0.012149,-0.0026902,-0.0090809,-0.027348,0.0010119,0.0084005,0.011908,-0.010132,0.0057289,0.02715,-0.012295,-0.077417,-0.0013524,-0.006091,0.002191,-0.037253,-0.012013,-0.011063,-0.013078,-0.040365
-0.0018482,-0.0061379,-0.004978,-0.062448,-0.01238,-0.00044497,-0.011405,-0.036197,-0.0032189,0.0042481,0.010469,-0.011766,0.0086992,0.024975,-0.013093,-0.067981,-0.0060461,0.0030704,0.006353,-0.037611,-0.012933,-0.0083846,-0.0077107,-0.038454
0.0011359,0.0013587,0.00056934,-0.059017,-0.010259,-0.0032657,-0.008196,-0.04105,-0.0063088,0.0028318,0.0080483,-0.011015,0.009107,0.020214,-0.0068627,-0.057888,-0.011374,0.0079858,0.0074254,-0.039728,-0.01124,-0.0032661,-0.0038379,-0.033802
0.0051042,0.0083436,0.0080705,-0.053794,-0.0062161,-0.0099199,5.4403e-005,-0.041507,-0.0058535,0.0061743,0.0065848,-0.0058637,0.0054933,0.01555,0.0027773,-0.047086,-0.014487,0.0056498,0.0043532,-0.042203,-0.0083513,0.0015251,-0.0020172,-0.027329
0.011026,0.012894,0.015237,-0.048651,-0.0010887,-0.01536,0.008864,-0.038476,-0.0019543,0.012688,0.0073218,0.003289,-0.00042645,0.013912,0.01033,-0.035025,-0.014088,-0.0023181,-0.00065601,-0.04307,-0.0059197,0.0040305,-0.00078849,-0.021304
0.017063,0.014604,0.019056,-0.04604,0.0037213,-0.014674,0.013223,-0.033324,0.0028956,0.018128,0.010182,0.013678,-0.0049781,0.01633,0.012356,-0.021972,-0.011087,-0.01035,-0.0034946,-0.041331,-0.0047787,0.0043107,0.0012393,-0.017771
0.019464,0.014476,0.018044,-0.046924,0.0062515,-0.0071854,0.01159,-0.027673,0.0058371,0.018629,0.013954,0.021682,-0.0052542,0.02093,0.0098726,-0.0096787,-0.0077036,-0.012837,-0.0011046,-0.038298,-0.0047418,0.0037153,0.0038469,-0.016753
0.01573,0.0141,0.013865,-0.049413,0.0048142,0.0028333,0.0070363,-0.023424,0.0058452,0.013668,0.016903,0.025124,-0.001167,0.024081,0.0071658,-0.00061057,-0.0060055,-0.0083664,0.0060151,-0.037377,-0.0052617,0.0033454,0.0057166,-0.016031
0.0071786,0.014754,0.010416,-0.049732,-0.00069563,0.009492,0.0045108,-0.022196,0.0042325,0.0066412,0.017473,0.024733,0.004688,0.023069,0.0079825,0.0037365,-0.0069436,-0.00074734,0.013681,-0.041822,-0.006212,0.0033717,0.0061771,-0.013126
-0.001568,0.01685,0.010786,-0.045118,-0.0082223,0.009858,0.0066073,-0.024148,0.0031296,0.0025303,0.01505,0.023496,0.0090411,0.018347,0.012386,0.0039876,-0.010101,0.0042056,0.01671,-0.051797,-0.0080204,0.0036564,0.0060633,-0.0079156
-0.0059197,0.019799,0.014749,-0.036235,-0.014505,0.0059435,0.011529,-0.027295,0.0034127,0.0043293,0.010604,0.02434,0.010143,0.013493,0.016941,0.0025193,-0.013882,0.0035534,0.012748,-0.063153,-0.011055,0.00459,0.0066616,-0.0032536
-0.0046287,0.022289,0.019206,-0.026846,-0.017053,0.0025697,0.015007,-0.02842,0.0039606,0.010937,0.0066566,0.028125,0.0086152,0.012693,0.017939,0.0019158,-0.016044,-0.0003915,0.0043945,-0.069394,-0.014896,0.0068772,0.0079551,-0.00253
-0.00025486,0.022919,0.021249,-0.020914,-0.01571,0.0031432,0.014345,-0.02538,0.0028464,0.018047,0.0060757,0.033649,0.0066878,0.017595,0.014726,0.0036111,-0.01473,-0.0022671,-0.0023181,-0.065837,-0.018222,0.010352,0.0083019,-0.0061277
0.0034477,0.021056,0.020909,-0.019661,-0.012664,0.0070742,0.010806,-0.019106,-0.00066601,0.021276,0.010089,0.039435,0.006704,0.026029,0.010221,0.0077676,-0.009721,0.0015062,-0.0022809,-0.052966,-0.019461,0.013266,0.0061978,-0.010262
0.004702,0.017475,0.020864,-0.021062,-0.010934,0.010943,0.0081833,-0.013409,-0.0051271,0.019153,0.01694,0.045304,0.0098766,0.033596,0.0083417,0.014119,-0.0029648,0.0095629,0.0047719,-0.0363,-0.0177,0.013265,0.0024254,-0.0097907
0.0045715,0.014246,0.023366,-0.021933,-0.012343,0.012091,0.0090153,-0.012337,-0.0078112,0.013897,0.022583,0.052076,0.01573,0.036802,0.010798,0.022531,0.0024705,0.01688,0.014032,-0.022773,-0.013202,0.0095574,0.00019603,-0.0027928
0.0049849,0.013684,0.027495,-0.020436,-0.016244,0.011185,0.012186,-0.016926,-0.0068167,0.0096403,0.023322,0.059815,0.022199,0.035212,0.016063,0.032491,0.0045873,0.019261,0.019399,-0.016362,-0.007281,0.0042168,0.0027221,0.0072973
0.0061365,0.016865,0.029642,-0.016845,-0.019826,0.011342,0.014255,-0.02393,-0.0026607,0.009554,0.018519,0.066728,0.02637,0.031078,0.02115,0.042205,0.0040461,0.016926,0.018188,-0.016193,-0.0017643,0.0010437,0.010254,0.014244
0.0059919,0.022725,0.026957,-0.012404,-0.019932,0.014709,0.013164,-0.027745,0.00192,0.013806,0.011137,0.070226,0.025857,0.027127,0.024266,0.048812,0.0035756,0.014032,0.012834,-0.018169,0.0016327,0.0025816,0.01937,0.014167
0.0024421,0.028553,0.020472,-0.0079474,-0.015344,0.019807,0.010557,-0.024227,0.0038447,0.019538,0.0055329,0.069307,0.020375,0.024592,0.025842,0.050291,0.0054851,0.014748,0.0083596,-0.018364,0.0018989,0.0078509,0.025363,0.0086817
-0.0040642,0.031749,0.014738,-0.0037373,-0.0079085,0.022377,0.010304,-0.013612,0.0018485,0.02271,0.0042554,0.06583,0.012417,0.022963,0.027273,0.047614,0.009445,0.019567,0.0080731,-0.01539,-0.00071975,0.012997,0.025766,0.0032333
-0.010143,0.031632,0.014122,-0.00020642,-0.0014138,0.019161,0.0146,-0.00040104,-0.0026451,0.02068,0.0064389,0.063136,0.0061314,0.021208,0.028956,0.044768,0.012655,0.025082,0.011335,-0.010346,-0.0044428,0.014491,0.022007,0.0022652
-0.011924,0.029892,0.01908,0.0018125,0.001196,0.011254,0.021511,0.009573,-0.0065216,0.013996,0.0089938,0.06321,0.0047314,0.019019,0.029717,0.045865,0.012385,0.027181,0.014973,-0.0051847,-0.0064326,0.012099,0.017888,0.0057332
-0.0081552,0.029183,0.025848,0.0020922,0.00013027,0.0037931,0.02647,0.012701,-0.0070731,0.0062973,0.009369,0.065106,0.0082126,0.017046,0.028087,0.051459,0.0086147,0.024552,0.016508,-0.0012726,-0.0042368,0.0089304,0.016382,0.0099681
-0.0011193,0.030932,0.02977,0.0022232,-0.0014706,0.0020113,0.026329,0.0093586,-0.0037366,0.002216,0.0074504,0.066203,0.013316,0.016209,0.023976,0.057622,0.0042912,0.019478,0.015997,0.00089966,0.00244,0.0085688,0.0176,0.011661
0.0053714,0.034164,0.029183,0.0053129,-0.00028843,0.0070059,0.022086,0.0030304,0.0016088,0.0044637,0.0051638,0.064991,0.015999,0.016901,0.018973,0.059249,0.0029203,0.015618,0.015144,0.0012979,0.010976,0.011998,0.019504,0.010928
0.0089448,0.036379,0.026448,0.013738,0.0042097,0.01494,0.017711,-0.0021787,0.0058477,0.012035,0.004493,0.062536,0.014523,0.018696,0.015041,0.055084,0.0056172,0.015119,0.015196,0.00012548,0.017082,0.017135,0.020363,0.010629
0.009883,0.035717,0.02547,0.026621,0.009243,0.020383,0.016381,-0.0038264,0.0065134,0.020889,0.0058704,0.061176,0.010598,0.020564,0.013018,0.049771,0.010219,0.017565,0.016021,-0.0019415,0.017572,0.021174,0.020484,0.012993
0.009782,0.032518,0.028232,0.039475,0.011124,0.020816,0.017814,-0.0019883,0.0032657,0.02673,0.0082303,0.061888,0.0076141,0.021399,0.012443,0.050425,0.013153,0.021151,0.017051,-0.00362,0.012682,0.02325,0.021626,0.017137
0.009401,0.028916,0.033425,0.046904,0.0084328,0.018351,0.019122,0.0013881,-0.0018224,0.027819,0.010301,0.063161,0.0075384,0.020642,0.012641,0.060211,0.012374,0.024461,0.018537,-0.0035346,0.0059552,0.024823,0.02487,0.019987
0.0080822,0.026945,0.038021,0.046599,0.0031415,0.017332,0.01803,0.0039063,-0.0053512,0.02571,0.011699,0.062583,0.0092279,0.018705,0.013744,0.074637,0.008913,0.027119,0.021352,-0.0011687,0.0015507,0.027661,0.029197,0.019543
0.0052494,0.026926,0.039962,0.041397,-0.0011762,0.020206,0.015088,0.0040483,-0.0045586,0.023465,0.012889,0.059473,0.0096549,0.016785,0.016492,0.084338,0.0059515,0.029181,0.025471,0.0025814,0.0010441,0.031731,0.032253,0.017119
0.0021153,0.027538,0.039482,0.037485,-0.0022762,0.025452,0.012837,0.0017937,0.00090878,0.023059,0.014369,0.055717,0.0069011,0.015921,0.021187,0.082505,0.0063301,0.030474,0.029053,0.0058814,0.0024362,0.035183,0.032575,0.016264
0.0013618,0.027328,0.03822,0.039832,-0.00070742,0.029315,0.01304,-0.0016613,0.0085867,0.024185,0.016082,0.053773,0.002185,0.015973,0.027118,0.070733,0.010455,0.030769,0.029603,0.0072217,0.0022726,0.036266,0.031067,0.01939
0.0046839,0.026137,0.037402,0.048382,0.001229,0.029479,0.014984,-0.0048089,0.014622,0.025276,0.017559,0.053773,-0.00096754,0.015518,0.033142,0.058178,0.016011,0.030431,0.026404,0.0065097,-0.00096353,0.035022,0.030218,0.02535
0.010559,0.025141,0.036852,0.058111,0.0017628,0.027203,0.016536,-0.0067073,0.016239,0.025451,0.018413,0.052696,0.00024066,0.013049,0.038658,0.054513,0.01953,0.030424,0.021737,0.0051078,-0.0052523,0.033027,0.031786,0.030261
0.014774,0.025603,0.0355,0.063013,0.0010461,0.025975,0.016726,-0.0072136,0.013492,0.025379,0.018534,0.046705,0.0052577,0.008502,0.043672,0.062486,0.018684,0.031361,0.019319,0.0047623,-0.0067576,0.031696,0.035146,0.03079
0.01372,0.027562,0.032547,0.060859,0.00063721,0.028087,0.017085,-0.0065168,0.0089595,0.02629,0.01792,0.034701,0.010288,0.0036055,0.047765,0.076043,0.01381,0.032558,0.021114,0.0062679,-0.0033745,0.031116,0.037874,0.026897
0.0076486,0.029627,0.028159,0.054909,0.0018487,0.032347,0.020259,-0.0045928,0.0055895,0.028275,0.016596,0.01992,0.011131,0.0005586,0.049261,0.085214,0.0076499,0.032361,0.025481,0.0089674,0.0031412,0.030581,0.037954,0.02167
0.00081899,0.029984,0.023283,0.05124,0.0045246,0.035032,0.027229,-0.0012844,0.0045212,0.029733,0.014914,0.0080354,0.0064643,0.00023954,0.046011,0.083431,0.0034489,0.029748,0.028564,0.011547,0.0084937,0.029906,0.035518,0.018654
-0.0018313,0.027733,0.01903,0.053986,0.007149,0.033179,0.035869,0.0030104,0.0047043,0.028665,0.013823,0.0032206,-0.0010843,0.0016608,0.037485,0.071494,0.0027131,0.025724,0.027823,0.013504,0.0094983,0.029763,0.03253,0.019176
0.00133,0.023501,0.016184,0.062357,0.0079782,0.027271,0.042351,0.0068987,0.0044978,0.024668,0.014467,0.005291,-0.0068958,0.0031227,0.02617,0.055668,0.0043431,0.022929,0.024484,0.01599,0.0067414,0.030542,0.030864,0.021913
0.0074069,0.018972,0.014989,0.071633,0.0062353,0.021008,0.044185,0.0086101,0.003583,0.019706,0.017141,0.01006,-0.0077558,0.00376,0.016465,0.042293,0.005895,0.023522,0.022571,0.021108,0.003779,0.031226,0.030644,0.024669
0.011441,0.015784,0.015129,0.076894,0.0026158,0.018456,0.042138,0.0074101,0.0032796,0.016797,0.020574,0.012502,-0.0040334,0.0038705,0.011526,0.03356,0.0059473,0.0272,0.025305,0.02998,0.0036077,0.02999,0.030324,0.026468
0.010292,0.014618,0.015851,0.076264,-0.001062,0.020998,0.039323,0.0044829,0.0049825,0.017583,0.022519,0.01027,0.00091218,0.003901,0.010732,0.027388,0.0054389,0.031288,0.0321,0.041142,0.005744,0.02634,0.028243,0.028089
0.0046825,0.015033,0.016379,0.071309,-0.0027962,0.026491,0.038309,0.0021796,0.0083491,0.020818,0.021528,0.0050424,0.0034306,0.0035328,0.010296,0.020609,0.0066274,0.032962,0.038859,0.050791,0.0067494,0.022539,0.024093,0.030916
-0.0019372,0.015987,0.016451,0.064987,-0.0014787,0.031045,0.038895,0.002062,0.011143,0.023126,0.018441,0.00091927,0.0021941,0.002129,0.006792,0.012202,0.010536,0.03164,0.041304,0.055072,0.0038052,0.022265,0.019074,0.035461
-0.0062739,0.016548,0.016533,0.059432,0.0024257,0.031818,0.03854,0.0035592,0.010987,0.021589,0.016079,0.0011684,-0.0011761,3.5008e-005,0.00054881,0.003908,0.015375,0.029302,0.038346,0.052864,-0.0020427,0.027133,0.014869,0.040933
-0.0072584,0.016266,0.017301,0.055328,0.0070683,0.028756,0.035036,0.0047186,0.0073829,0.016191,0.017096,0.0057131,-0.0036858,-0.0010507,-0.0043246,-0.001829,0.017716,0.028477,0.032604,0.046847,-0.0062066,0.034236,0.012607,0.045946
-0.0059556,0.015122,0.018702,0.052712,0.010329,0.024317,0.029008,0.004537,0.0021204,0.010143,0.021706,0.011101,-0.0033092,0.00044061,-0.0035711,-0.0043393,0.015574,0.029798,0.027805,0.041863,-0.0044293,0.037544,0.012637,0.049395
-0.0040201,0.013318,0.019504,0.051734,0.011212,0.021692,0.023945,0.0045754,-0.0022075,0.0076369,0.027348,0.012935,-0.00028072,0.0039127,0.0031111,-0.0053232,0.010532,0.031447,0.025594,0.041636,0.0031935,0.032667,0.014885,0.050695
-0.0023537,0.011251,0.018057,0.052437,0.010469,0.02275,0.023603,0.0079377,-0.0040826,0.010605,0.0307,0.0090189,0.0034548,0.0063723,0.011368,-0.0071478,0.0067158,0.030942,0.024622,0.046289,0.01176,0.021091,0.019006,0.049567
-0.00093117,0.0096041,0.013833,0.054089,0.0098218,0.026837,0.028895,0.016154,-0.0036962,0.01703,0.030338,0.0010244,0.0059502,0.0047958,0.015808,-0.010538,0.0073334,0.027489,0.022528,0.052495,0.015273,0.0098989,0.024062,0.046106
0.0005462,0.0092177,0.0083807,0.055174,0.010312,0.031028,0.036919,0.026809,-0.0021116,0.022321,0.027682,-0.006495,0.0066521,-0.00089334,0.014851,-0.013794,0.011896,0.022656,0.018722,0.056071,0.011412,0.0066171,0.028343,0.041291
0.0020956,0.010539,0.0045584,0.054371,0.011196,0.031827,0.043004,0.034502,-0.00011604,0.022886,0.025408,-0.0090321,0.0064428,-0.0072368,0.01239,-0.014193,0.016676,0.01886,0.015229,0.05498,0.0033363,0.013208,0.030069,0.0372
0.0034707,0.013003,0.0043972,0.051561,0.01051,0.027553,0.044173,0.034841,0.0020944,0.019024,0.024864,-0.0049955,0.00648,-0.0099612,0.014611,-0.010247,0.017956,0.017298,0.014766,0.050557,-0.0028926,0.024273,0.028731,0.036136
0.0044548,0.015039,0.0073293,0.04772,0.0069897,0.019947,0.04115,0.028217,0.004415,0.014642,0.024962,0.0033586,0.0069701,-0.0076416,0.024667,-0.0028479,0.015056,0.017336,0.017891,0.04625,-0.0029567,0.031184,0.025853,0.039019
0.004916,0.015048,0.010426,0.043687,0.0016538,0.013596,0.037302,0.019913,0.0063917,0.013811,0.023544,0.011412,0.0070086,-0.0028381,0.039853,0.0054868,0.010432,0.017681,0.02193,0.045045,0.0027857,0.028845,0.024114,0.044407
0.0045622,0.012731,0.010613,0.039089,-0.0025029,0.013063,0.035493,0.016148,0.0074188,0.017042,0.019836,0.014991,0.0056281,0.00042561,0.053665,0.012305,0.0070492,0.017826,0.022846,0.047534,0.010116,0.019504,0.025207,0.049282
0.0028502,0.0096213,0.0070587,0.032647,-0.0026922,0.01947,0.035685,0.01926,0.0072572,0.020585,0.015497,0.012709,0.0030476,0.00041669,0.060765,0.016185,0.0057194,0.018106,0.018547,0.051805,0.014373,0.010539,0.028231,0.051159
-0.00057058,0.0081164,0.0017087,0.023772,0.0013649,0.029186,0.035399,0.026081,0.0062008,0.01955,0.013172,0.0065818,0.00083333,-0.00095144,0.06045,0.016337,0.0049079,0.018498,0.010823,0.054911,0.01358,0.0082713,0.030224,0.049819
-0.0051274,0.0096027,-0.002408,0.013907,0.0069944,0.036006,0.032496,0.030859,0.0047342,0.012246,0.013929,0.00075253,0.00060738,-0.00041143,0.055897,0.011713,0.0029179,0.017834,0.0041978,0.054715,0.0091791,0.013113,0.028665,0.047254
-0.0091037,0.013247,-0.0035467,0.006129,0.010437,0.035552,0.027567,0.030136,0.0031542,0.0019278,0.016135,-0.00086454,0.0023509,0.0030742,0.050449,0.001017,5.929e-005,0.014707,0.0025402,0.050935,0.0044714,0.019981,0.023861,0.045994
-0.010507,0.016618,-0.0022278,0.0030173,0.0095531,0.028576,0.023616,0.025409,0.0015774,-0.0056634,0.016948,0.0032371,0.0039389,0.0070377,0.044744,-0.01601,-0.0014148,0.0093156,0.0060993,0.045033,0.0023326,0.023186,0.018999,0.047276
-0.0086428,0.017759,-0.00018919,0.0045136,0.0052514,0.020433,0.023334,0.02152,0.00017013,-0.006848,0.015051,0.011279,0.0026287,0.007826,0.037279,-0.037113,0.00049962,0.0041613,0.011299,0.03925,0.0037366,0.021249,0.017622,0.050389
-0.0050988,0.016935,0.0014399,0.0076678,0.00066486,0.016871,0.026593,0.022428,-0.00085912,-0.0027048,0.011968,0.019175,-0.0025311,0.0042656,0.027448,-0.057389,0.0053963,0.0023929,0.013445,0.035427,0.0075792,0.017495,0.020618,0.05334
-0.0029784,0.016396,0.0029113,0.0086917,-0.0011225,0.019423,0.030549,0.028134,-0.0015811,0.0023352,0.010635,0.022952,-0.0094254,-0.00088149,0.017686,-0.071058,0.01036,0.0050243,0.010244,0.034155,0.011482,0.01631,0.025387,0.054082
-0.004576,0.018221,0.0049738,0.0057726,0.00096471,0.024188,0.032133,0.03514,-0.0025038,0.0045484,0.012562,0.021236,-0.014027,-0.0031106,0.012343,-0.074192,0.011986,0.0096311,0.0034421,0.034613,0.013041,0.018805,0.027963,0.051522
-0.0092669,0.022079,0.0074628,0.0004146,0.0056051,0.02515,0.030476,0.03966,-0.0041495,0.0038856,0.0163,0.016168,-0.013266,-5.0993e-005,0.014171,-0.06668,0.0087697,0.011993,-0.0026173,0.035192,0.011046,0.021837,0.026251,0.046036
-0.013628,0.025059,0.0090008,-0.0037472,0.010233,0.019388,0.027001,0.040522,-0.0063194,0.0032732,0.018685,0.011995,-0.0073657,0.0064292,0.02166,-0.052215,0.0020673,0.0094519,-0.004326,0.034605,0.0061639,0.021051,0.021554,0.039466
-0.014114,0.023972,0.008241,-0.0036929,0.012712,0.0097862,0.023396,0.039386,-0.007833,0.0051516,0.017679,0.012206,0.00022649,0.011668,0.029704,-0.036347,-0.004796,0.0031074,-0.0014312,0.032796,0.00063311,0.014928,0.017118,0.034469
-0.010217,0.018309,0.005421,0.00080173,0.012419,0.0028416,0.019787,0.038502,-0.0072026,0.0086874,0.014134,0.017232,0.0052864,0.011864,0.033146,-0.023737,-0.0083514,-0.0030489,0.0030424,0.030933,-0.0030542,0.0062067,0.015135,0.033218
-0.0052056,0.011186,0.0025435,0.0070781,0.010235,0.0033251,0.015026,0.038353,-0.0037989,0.010371,0.010863,0.024341,0.0056828,0.0068551,0.030311,-0.016162,-0.0066081,-0.0052924,0.0053637,0.03038,-0.0037175,-0.00034505,0.014979,0.036019
-0.0034136,0.007162,0.0017665,0.011424,0.0076844,0.010278,0.0086653,0.037402,0.0014693,0.007469,0.0099871,0.02967,0.0025123,-6.9656e-005,0.023847,-0.012317,7.9674e-005,-0.0029286,0.0039992,0.031388,-0.002173,-0.0015664,0.014244,0.040865
-0.0062413,0.0085685,0.0033574,0.011317,0.0059179,0.017734,0.0023424,0.03397,0.0065558,0.001061,0.011095,0.030811,-0.0011686,-0.0048545,0.0185,-0.0094252,0.0089842,0.0015211,0.00054862,0.032627,-0.000455,0.0021502,0.011481,0.044525
-0.010571,0.013451,0.00514,0.006605,0.0051787,0.019518,-0.0011247,0.028296,0.0094556,-0.0042796,0.011879,0.028153,-0.0027795,-0.0055186,0.017745,-0.0055318,0.015898,0.0045894,-0.0018671,0.032064,-0.00016747,0.0077921,0.0079689,0.044586
-0.011389,0.017089,0.0041352,-0.00079806,0.0049776,0.014021,-0.00025476,0.022715,0.0093138,-0.0040977,0.01054,0.024307,-0.0018568,-0.0030766,0.021681,-0.00086556,0.016981,0.004495,-0.0012604,0.02849,-0.0013422,0.012143,0.0067469,0.0409
-0.0065465,0.015954,-0.00087104,-0.0080933,0.0047128,0.0050637,0.0034218,0.019718,0.0068172,0.0021241,0.0076075,0.022304,0.00017752,-0.00025347,0.027342,0.0027137,0.010974,0.0020487,0.0017141,0.022398,-0.002749,0.013479,0.0097725,0.035294
0.00067092,0.010748,-0.008029,-0.012859,0.0042037,-0.0015571,0.0063188,0.019724,0.0037729,0.01028,0.0054759,0.023771,0.0015761,0.0006412,0.030816,0.0036877,0.00044414,-0.00052381,0.0044383,0.015476,-0.0032833,0.011659,0.015852,0.029835
0.0038173,0.0057775,-0.013618,-0.013948,0.0037482,-0.0026302,0.0057007,0.020665,0.002165,0.014745,0.0061446,0.02798,0.0016581,-0.00095528,0.029601,0.002563,-0.0092011,-0.0014672,0.0044069,0.0093341,-0.0030574,0.0074128,0.021319,0.025194
-0.0012771,0.0051279,-0.014861,-0.011876,0.0037276,0.00063417,0.0019642,0.019842,0.0030923,0.012686,0.0093167,0.032158,0.00094002,-0.0039538,0.023772,0.0017487,-0.01281,-0.00046346,0.00099227,0.0047355,-0.003149,0.0019687,0.022871,0.020495
-0.012584,0.0090219,-0.012069,-0.0085255,0.0041317,0.0045767,-0.0017664,0.01639,0.006046,0.0060294,0.012624,0.033,0.00019724,-0.00661,0.015464,0.0036921,-0.0087898,0.0017611,-0.0042669,0.0018909,-0.0043128,-0.0028952,0.020015,0.01463
-0.02301,0.013643,-0.0083193,-0.0060567,0.0044143,0.006602,-0.0023505,0.012089,0.0090166,-0.0003834,0.013714,0.028787,-0.00041396,-0.0075064,0.0072412,0.0089366,-0.00019935,0.0043602,-0.0087497,0.0011067,-0.0060259,-0.0051853,0.015016,0.0077286
-0.025748,0.014627,-0.0069234,-0.005427,0.0038303,0.0069657,0.00078953,0.0097152,0.0096233,-0.0026755,0.012226,0.020898,-0.0012742,-0.006031,0.00056879,0.015835,0.0073519,0.00682,-0.010268,0.0026568,-0.0069123,-0.0037828,0.010641,0.0013906
-0.019394,0.01104,-0.0087968,-0.0055818,0.0020567,0.0075767,0.0054372,0.010299,0.0067672,-0.00053548,0.009853,0.013418,-0.0024836,-0.0024481,-0.0045332,0.022054,0.0095548,0.0087756,-0.0081147,0.0058083,-0.0061739,0.00054398,0.0079624,-0.0025181
-0.0086555,0.0062137,-0.011915,-0.0042067,-0.00033232,0.0094421,0.0086934,0.011704,0.0016909,0.0033896,0.0085659,0.010683,-0.0033732,0.0021871,-0.0085656,0.026287,0.0061731,0.0097918,-0.0032679,0.0082739,-0.0045611,0.005445,0.006189,-0.0034212
-0.00041354,0.0046638,-0.013215,0.00024088,-0.0019595,0.011449,0.009353,0.0099155,-0.0025115,0.0063204,0.0087875,0.01431,-0.0030615,0.0062704,-0.011337,0.028527,0.00075886,0.0095843,0.0021698,0.0073317,-0.0037919,0.0087178,0.0043706,-0.0026005
0.0013062,0.0079609,-0.011195,0.0068174,-0.0014401,0.011595,0.0084569,0.0022268,-0.0028317,0.0076327,0.0092612,0.02202,-0.0015499,0.0082355,-0.011731,0.028872,-0.0022691,0.0084332,0.0060399,0.0021734,-0.0048606,0.0099928,0.0030351,-0.0023115
-0.0026359,0.013347,-0.0069649,0.012345,0.0015139,0.0092881,0.0078236,-0.010132,0.001544,0.0087157,0.0086146,0.029278,-7.2572e-005,0.0074263,-0.0088028,0.0265,-0.0008122,0.0071804,0.0072594,-0.0046529,-0.0068623,0.010701,0.0040387,-0.0041583
-0.0084851,0.016315,-0.0029778,0.013733,0.0055095,0.0062935,0.0082408,-0.022114,0.008513,0.010981,0.0069612,0.032415,-4.6042e-005,0.0047141,-0.0032129,0.020268,0.0038006,0.0066458,0.0064181,-0.0085614,-0.0075756,0.012272,0.0087619,-0.0079512
-0.013131,0.014685,-0.00079855,0.010578,0.0081101,0.0053061,0.0090713,-0.027929,0.014321,0.014234,0.0059179,0.030669,-0.0014799,0.0021884,0.0024863,0.010512,0.0083042,0.0070095,0.0053601,-0.0064896,-0.0053996,0.014375,0.016394,-0.011829
-0.015879,0.010386,-2.3319e-005,0.0058146,0.0075183,0.0074257,0.009398,-0.024983,0.015945,0.016958,0.0070667,0.025726,-0.0025299,0.0018426,0.0052236,1.7144e-005,0.010086,0.0077964,0.0058665,0.00015859,-0.00089941,0.015141,0.023951,-0.013502
-0.017407,0.0073937,0.0007821,0.003711,0.004093,0.01092,0.0092665,-0.015795,0.012907,0.017975,0.010441,0.019761,-0.00095291,0.0041156,0.0034051,-0.0073303,0.0087639,0.0084463,0.0083066,0.0059728,0.0035113,0.013296,0.028121,-0.011776
-0.017762,0.0078963,0.0022336,0.0067522,0.00030139,0.01249,0.0096446,-0.0063436,0.0073036,0.017595,0.014518,0.014148,0.003678,0.0075303,-0.0021153,-0.0093651,0.005751,0.0088186,0.011329,0.0054364,0.0055268,0.01004,0.027466,-0.0074106
-0.015865,0.010339,0.0032965,0.013887,-0.0011386,0.010004,0.011226,-0.0019327,0.0022225,0.017063,0.017615,0.0098162,0.0091127,0.0099184,-0.0087966,-0.0073782,0.0025702,0.0091047,0.012943,-0.0027452,0.0047949,0.0085354,0.02329,-0.0028369
-0.011062,0.01111,0.0023096,0.021456,0.00048689,0.0043456,0.013496,-0.0035851,-0.0001688,0.016999,0.019216,0.0081221,0.011958,0.010306,-0.014066,-0.0049172,-0.0004112,0.0093643,0.012203,-0.014445,0.0029826,0.011102,0.018571,-0.00087857
-0.004788,0.0081481,-0.0011731,0.025907,0.0032505,-0.0011676,0.015175,-0.0076508,0.00048662,0.016575,0.019959,0.010448,0.010435,0.0097644,-0.016435,-0.0045232,-0.0037338,0.0093555,0.01008,-0.023058,0.0020411,0.016683,0.015842,-0.0031864
-0.00021541,0.0030107,-0.0055995,0.026097,0.0042987,-0.0032744,0.015587,-0.0089024,0.0031847,0.014406,0.020506,0.016429,0.0059563,0.010317,-0.015493,-0.005329,-0.0074899,0.0089432,0.0087496,-0.02419,0.0023244,0.021171,0.015648,-0.0092468
0.00018856,-0.00050236,-0.0085709,0.023556,0.0024956,-0.00113,0.015416,-0.0047209,0.0065905,0.010313,0.020687,0.022808,0.0020884,0.012826,-0.011425,-0.0037699,-0.010326,0.0085835,0.0098185,-0.018398,0.0023583,0.020689,0.016615,-0.016552
-0.0030775,0.00020017,-0.0089466,0.020903,-0.00044137,0.0032713,0.015922,0.0028335,0.009681,0.0061886,0.019874,0.024903,0.0017521,0.01591,-0.0049594,0.0031725,-0.0099798,0.0091597,0.012967,-0.010106,0.00049075,0.015113,0.016943,-0.021884
-0.0067607,0.0042289,-0.0079585,0.019922,-0.0014798,0.0067665,0.01737,0.0085939,0.011764,0.004971,0.018136,0.020228,0.005019,0.017136,0.0022786,0.015087,-0.0051076,0.011139,0.016144,-0.0040141,-0.0031646,0.008654,0.015993,-0.023016
-0.0075207,0.008153,-0.0082282,0.020697,0.00084607,0.007372,0.018436,0.0082314,0.012388,0.0085072,0.016766,0.011184,0.0092335,0.01551,0.007886,0.028116,0.0031173,0.013882,0.017128,-0.0020616,-0.0064399,0.0067474,0.014686,-0.019883
-0.0046484,0.0091375,-0.011442,0.02205,0.0048994,0.0055689,0.017423,0.0015742,0.011586,0.016065,0.017423,0.0039178,0.01116,0.012858,0.0098326,0.037708,0.011171,0.015968,0.015114,-0.0030545,-0.006928,0.011676,0.014503,-0.014541
-0.0003732,0.0073021,-0.016652,0.022501,0.0072696,0.0037529,0.01422,-0.0071059,0.010148,0.024692,0.020567,0.0036862,0.009272,0.012512,0.0079395,0.041692,0.015247,0.016382,0.011106,-0.0045706,-0.0043201,0.020551,0.016058,-0.009903
0.0023851,0.0052131,-0.020673,0.020975,0.0058019,0.0044218,0.010964,-0.011951,0.0092447,0.031045,0.024725,0.010429,0.0044621,0.016322,0.0042635,0.041225,0.013765,0.015453,0.0069896,-0.0050633,-0.0010354,0.027336,0.018566,-0.0079388
0.0025819,0.005209,-0.020343,0.017087,0.0015178,0.0084269,0.010539,-0.0094276,0.0093856,0.033221,0.02743,0.018527,-0.0010134,0.022748,0.0017531,0.039218,0.0083691,0.014528,0.0043064,-0.0044652,-0.00034315,0.027313,0.020618,-0.0083835
0.0015603,0.0072488,-0.014864,0.011289,-0.0023817,0.014399,0.014144,-0.00059018,0.009696,0.03134,0.027163,0.021249,-0.0051428,0.027938,0.0021675,0.037919,0.0026471,0.014593,0.0037105,-0.0033287,-0.0034848,0.020427,0.021472,-0.0088486
0.0012829,0.0093119,-0.0064413,0.0049964,-0.0034991,0.019614,0.020202,0.0097587,0.0085524,0.02681,0.024665,0.016229,-0.007,0.028929,0.0050237,0.037627,-0.00045096,0.015184,0.0051831,-0.0018375,-0.0083665,0.011001,0.021622,-0.0064788
0.00224,0.0097847,0.0012329,0.00034634,-0.0023862,0.021661,0.025618,0.016365,0.0053186,0.021196,0.022441,0.0073228,-0.0065273,0.026062,0.0083992,0.03719,-0.00049544,0.014707,0.0082833,0.00021745,-0.011127,0.0043033,0.022157,-0.00023273
0.0031,0.0092965,0.0054631,-0.00069776,-0.0018158,0.019866,0.02822,0.017015,0.0015132,0.015614,0.022769,0.001292,-0.0039937,0.022455,0.010683,0.0354,0.00057064,0.011972,0.011979,0.0026905,-0.0093296,0.0028497,0.023583,0.0078387
0.0022481,0.010059,0.0061669,0.002398,-0.0038801,0.015613,0.028125,0.013841,-7.5467e-005,0.010873,0.02574,0.0022703,8.4325e-005,0.02115,0.011592,0.032023,0.00029242,0.0074902,0.014498,0.0046719,-0.0039966,0.0052093,0.025273,0.013542
-0.00050978,0.013333,0.0055533,0.0080366,-0.0077284,0.011405,0.026952,0.011536,0.0021173,0.0078167,0.028919,0.0087699,0.0045976,0.022665,0.011701,0.027866,-0.0023296,0.0032882,0.013981,0.0051695,0.0013406,0.0078371,0.026022,0.013385
-0.003777,0.017628,0.0062589,0.013137,-0.010195,0.0093091,0.025904,0.013723,0.0066028,0.007272,0.029021,0.015544,0.0078163,0.025128,0.011315,0.024218,-0.0062721,0.0013891,0.0098919,0.0043986,0.0037149,0.0080755,0.025102,0.0073302
-0.0059163,0.019636,0.0093925,0.014976,-0.008806,0.0097455,0.024727,0.020155,0.0096486,0.0095345,0.024469,0.018313,0.0081961,0.026588,0.010083,0.022265,-0.0095434,0.0022896,0.0039713,0.0043409,0.003132,0.0059041,0.022753,-0.00082253
-0.0063946,0.017192,0.013864,0.013013,-0.0043055,0.011381,0.022526,0.026887,0.0082897,0.013856,0.016927,0.017095,0.0055737,0.027032,0.0078036,0.022742,-0.010766,0.0046923,-0.00050013,0.0076671,0.0021468,0.0034159,0.019733,-0.0059464
-0.0058095,0.011462,0.017348,0.009273,-0.00017942,0.012129,0.019378,0.029336,0.0028726,0.018475,0.010502,0.015521,0.0016551,0.028096,0.0054204,0.025721,-0.0099324,0.006539,-0.0009978,0.015549,0.0031029,0.0029016,0.016508,-0.0051581
-0.0048367,0.0061602,0.018078,0.0068383,0.0005241,0.010596,0.016841,0.02584,-0.0032738,0.021326,0.0089411,0.017256,-0.00088212,0.030848,0.0048896,0.030416,-0.0078868,0.0063531,0.0021685,0.026094,0.0057361,0.0052162,0.013049,0.00039684
-0.0034904,0.0044077,0.016142,0.0074509,-0.0018484,0.0070495,0.016609,0.018884,-0.0067971,0.021039,0.012736,0.022981,-0.00015964,0.033955,0.0076919,0.035219,-0.0052546,0.003917,0.0058658,0.034952,0.0074691,0.0094249,0.0094609,0.0068852
-0.0016207,0.0061214,0.013381,0.01004,-0.0036538,0.0033283,0.018588,0.013105,-0.0071654,0.017664,0.018362,0.030339,0.003609,0.034237,0.013218,0.038257,-0.0019893,0.00012151,0.0064341,0.03805,0.0060965,0.013543,0.0066571,0.010922
-3.7362e-005,0.0083258,0.011951,0.011376,-0.0011265,0.0017316,0.020448,0.011835,-0.0067688,0.012649,0.020461,0.036295,0.0083309,0.029328,0.018616,0.038343,0.0020143,-0.00357,0.0024741,0.034553,0.0021995,0.015624,0.0061175,0.011777
-0.00074604,0.0080266,0.01261,0.0084873,0.0062305,0.0035126,0.019408,0.015051,-0.0082858,0.0080466,0.015584,0.039397,0.011551,0.020145,0.020559,0.035695,0.0059403,-0.0056822,-0.0041044,0.027656,-0.001147,0.014683,0.0086223,0.011045
-0.0055553,0.0049347,0.014019,0.001103,0.015104,0.0078785,0.014752,0.02015,-0.011906,0.0053377,0.0047728,0.040078,0.012025,0.010861,0.017731,0.031691,0.0079233,-0.0052972,-0.0095236,0.022307,-0.0011822,0.011276,0.013035,0.010624
-0.014057,0.0015951,0.013719,-0.007656,0.021088,0.012214,0.0087154,0.024444,-0.015059,0.004551,-0.0070048,0.039396,0.010122,0.0061596,0.012057,0.0277,0.006286,-0.0025917,-0.010789,0.021454,0.0018936,0.0075197,0.016448,0.011116
-0.02295,0.00098065,0.010146,-0.012912,0.022104,0.013596,0.0047663,0.026977,-0.014823,0.0043222,-0.014183,0.037959,0.0068868,0.007848,0.0075403,0.023976,0.0012678,0.0010439,-0.0074751,0.023828,0.0049899,0.0061742,0.015963,0.011907
-0.027765,0.0038882,0.0041181,-0.010979,0.019494,0.010762,0.0047858,0.028358,-0.010666,0.0029747,-0.014202,0.036063,0.0027926,0.013506,0.0073742,0.019744,-0.0044094,0.0036948,-0.0015039,0.025213,0.004873,0.0089166,0.010909,0.012255
-0.025963,0.0084338,-0.0015072,-0.0017837,0.0161,0.0051792,0.0076986,0.029343,-0.0049298,-4.6393e-005,-0.0087595,0.034416,-0.0025367,0.018271,0.011446,0.014573,-0.0070543,0.004173,0.0045551,0.022284,0.0010042,0.014848,0.0037087,0.01196
-0.01898,0.011834,-0.0038619,0.010759,0.013439,0.00021035,0.010718,0.029894,-0.00073628,-0.0034629,-0.0020318,0.034133,-0.0092496,0.018399,0.016235,0.0097507,-0.0046981,0.0028938,0.0092014,0.0158,-0.0041197,0.020664,-0.0014855,0.011072
-0.011423,0.012619,-0.0022013,0.020716,0.010712,-0.0012272,0.011875,0.029507,0.00062644,-0.0048443,0.0024582,0.035685,-0.015893,0.013857,0.017364,0.0080094,0.0012217,0.0015555,0.012577,0.010281,-0.0072693,0.022845,-0.0015584,0.0094404
-0.0078655,0.011339,0.0016,0.023448,0.0063661,0.0011691,0.011372,0.028064,0.0004097,-0.0023306,0.0038297,0.037925,-0.019381,0.0080099,0.012945,0.011363,0.0067958,0.0018035,0.015791,0.010316,-0.0071431,0.020366,0.0033594,0.0069791
-0.0096534,0.0094835,0.0045651,0.018408,0.00039399,0.0048746,0.010637,0.026005,0.00076718,0.0038147,0.0034659,0.038515,-0.016942,0.0047567,0.0051002,0.01877,0.00863,0.0039941,0.019731,0.016569,-0.0049883,0.015599,0.009867,0.0043851
-0.014164,0.0080577,0.0048491,0.0096579,-0.0050334,0.0065825,0.010319,0.023611,0.0025713,0.011016,0.0031234,0.035685,-0.0087509,0.0054621,-0.0015924,0.02602,0.0064324,0.0070908,0.024251,0.024905,-0.002931,0.012392,0.013523,0.0031629
-0.01701,0.0072179,0.0029033,0.0034978,-0.0072235,0.0049138,0.0094921,0.020416,0.0048294,0.015835,0.0034264,0.029832,0.0011917,0.0081039,-0.0034959,0.028545,0.0029643,0.0096713,0.028188,0.029374,-0.001894,0.012843,0.011809,0.0043958
-0.015372,0.0070164,0.00081903,0.00439,-0.0052715,0.0015732,0.0069106,0.015665,0.0060682,0.016151,0.0039045,0.023398,0.0072774,0.0092112,-0.00039398,0.02516,0.0013974,0.011047,0.030059,0.026512,-0.0010995,0.015593,0.0057977,0.0072216
-0.0098552,0.0080156,0.00061792,0.011787,-0.00084442,-4.1932e-006,0.0029087,0.0095285,0.0060273,0.01258,0.0041159,0.018996,0.0063051,0.006896,0.0048505,0.019441,0.0024581,0.011522,0.028945,0.017435,0.00062984,0.017183,-0.0005839,0.0087045
-0.0035872,0.010793,0.0028983,0.020253,0.0031891,0.0026146,-0.00028489,0.0037316,0.0057818,0.0080741,0.0044623,0.017351,3.3177e-005,0.0024529,0.008913,0.017167,0.0039374,0.011727,0.025005,0.0063018,0.0033054,0.015217,-0.0032065,0.0057362
0.00047737,0.014779,0.0066774,0.023181,0.0049225,0.0089515,-0.00043682,0.00066875,0.0061919,0.0058493,0.0058028,0.016788,-0.006137,-0.00075834,0.010508,0.021693,0.0029647,0.011818,0.019447,-0.0031571,0.0055449,0.010458,-0.00048661,-0.0023649
0.0017306,0.017863,0.010235,0.01765,0.0044795,0.015939,0.0023437,0.0014921,0.0064663,0.0070866,0.008289,0.014691,-0.0075178,-0.0001514,0.010762,0.031161,-0.0011167,0.01133,0.014036,-0.0099355,0.0058356,0.0060377,0.0056333,-0.012834
0.0018988,0.017619,0.012209,0.0068136,0.0033093,0.020027,0.0052466,0.004779,0.0046267,0.01013,0.010662,0.0096941,-0.0039036,0.0039251,0.011536,0.040069,-0.0059745,0.0097571,0.010436,-0.01526,0.004028,0.0046415,0.011155,-0.021172
0.0031045,0.013333,0.012314,-0.0021905,0.002635,0.01935,0.0050249,0.0070296,-0.00031911,0.011922,0.010867,0.00287,0.00054278,0.0084866,0.013567,0.043876,-0.0083273,0.007197,0.0095701,-0.020343,0.001692,0.0063061,0.012904,-0.024429
0.005801,0.0069887,0.011454,-0.0033866,0.0024922,0.014517,0.00090372,0.0047866,-0.0066389,0.010631,0.0076486,-0.0029624,0.0011988,0.010361,0.016091,0.042578,-0.006877,0.0044353,0.011208,-0.024796,0.0010489,0.0086971,0.01073,-0.023479
0.0083028,0.0020972,0.011211,0.0037291,0.0020071,0.0078658,-0.0046316,-0.0031145,-0.010564,0.0073253,0.0018389,-0.0051934,-0.0028,0.0086865,0.017977,0.040076,-0.0033921,0.0023742,0.014003,-0.027096,0.0033497,0.0093789,0.0073783,-0.022373
0.0081691,0.0011633,0.012866,0.013994,0.00042011,0.0020992,-0.0080144,-0.014732,-0.0091576,0.0051539,-0.0038271,-0.00317,-0.0077775,0.0053732,0.018932,0.040062,-0.00096432,0.0013588,0.016168,-0.026321,0.0078815,0.0078879,0.0060982,-0.025231
0.0042106,0.0038537,0.016416,0.020503,-0.0021106,-0.00073183,-0.0077566,-0.026162,-0.0029317,0.0065774,-0.0064427,0.0014807,-0.0087842,0.0032429,0.01955,0.042359,-0.0011168,0.0010137,0.016558,-0.023199,0.012241,0.0058466,0.0078359,-0.033063
-0.002443,0.0073589,0.020277,0.019453,-0.0045323,0.00032248,-0.0056395,-0.033856,0.0042034,0.010982,-0.0050277,0.006086,-0.0039233,0.0035233,0.020335,0.043173,-0.0025064,0.00072577,0.015433,-0.019429,0.013703,0.005277,0.010284,-0.042979
-0.0088948,0.0085656,0.022178,0.01222,-0.0056459,0.0049375,-0.0048631,-0.036645,0.0077719,0.014868,-0.0013695,0.0087703,0.0040432,0.0048779,0.020937,0.038971,-0.0024454,0.00032637,0.014157,-0.016089,0.010912,0.0067973,0.0096857,-0.050287
-0.012141,0.0062103,0.020817,0.0035436,-0.0049964,0.011446,-0.0069837,-0.036211,0.0060412,0.014651,0.001202,0.0095933,0.010004,0.0047473,0.0205,0.030264,0.00020264,0.00034302,0.013906,-0.012924,0.0049277,0.0092405,0.004089,-0.051701
-0.010733,0.0014085,0.016995,-0.0021981,-0.0032738,0.017148,-0.010553,-0.035725,0.0011251,0.0097543,0.00033117,0.010207,0.010505,0.001763,0.018728,0.021642,0.0035275,0.0015621,0.014479,-0.0093367,-0.001134,0.0108,-0.0045506,-0.047159
-0.0055245,-0.0035184,0.013125,-0.0034778,-0.0019203,0.019314,-0.012632,-0.037518,-0.0028777,0.0032904,-0.0034799,0.012325,0.0060643,-0.0029013,0.016476,0.017996,0.0040057,0.0042496,0.014397,-0.0060041,-0.0039193,0.01052,-0.011266,-0.039092
0.00080486,-0.0066715,0.011313,-0.0013902,-0.0021551,0.016633,-0.011572,-0.041365,-0.0030448,-0.00039986,-0.0072082,0.016158,0.00024762,-0.0063935,0.01518,0.020403,-0.00029246,0.007699,0.012351,-0.0052145,-0.0021217,0.0088864,-0.011524,-0.030283
0.0051543,-0.0073821,0.011637,0.0022339,-0.004054,0.010187,-0.0083786,-0.044631,0.00041266,0.00070782,-0.0077171,0.020018,-0.0032006,-0.0064762,0.015683,0.025426,-0.0075526,0.010525,0.008648,-0.009103,0.0023885,0.0072266,-0.0046947,-0.022442
0.0056432,-0.0059539,0.01226,0.0062232,-0.0063626,0.0030837,-0.0055411,-0.044254,0.0046748,0.0047184,-0.0042971,0.021441,-0.0026273,-0.0032557,0.017698,0.028323,-0.013101,0.011503,0.0051625,-0.017165,0.0057127,0.0066071,0.0051658,-0.016577
0.0026295,-0.0030184,0.011393,0.0099425,-0.0072666,-0.0012977,-0.0047165,-0.039142,0.0065707,0.0075244,0.0008024,0.019004,0.0013011,0.001088,0.020416,0.027131,-0.012724,0.010287,0.003749,-0.025543,0.004813,0.007139,0.011933,-0.01411
-0.0015057,0.0007989,0.0092417,0.012478,-0.0056434,-0.0014062,-0.0055552,-0.031196,0.0047049,0.0063011,0.0042928,0.0135,0.0068446,0.0042363,0.023546,0.023918,-0.0057831,0.0074776,0.0046438,-0.029368,5.8335e-006,0.00807,0.011576,-0.016798
-0.0037619,0.0048351,0.0079835,0.012567,-0.0019082,0.001485,-0.0065697,-0.024167,5.8593e-005,0.0017573,0.0044994,0.0075857,0.012404,0.0055863,0.027557,0.02236,0.0042618,0.0040747,0.0064412,-0.026722,-0.005083,0.0083958,0.0047798,-0.024904
-0.0023149,0.0083496,0.0096031,0.0096153,0.0021966,0.0041667,-0.0068457,-0.021205,-0.0049813,-0.0026999,0.0024054,0.0041992,0.016869,0.0064454,0.032779,0.024235,0.012182,0.00087864,0.0075739,-0.020927,-0.0063154,0.0074653,-0.0038518,-0.035391
0.0024045,0.010712,0.013629,0.0046642,0.0047547,0.0037236,-0.0067727,-0.022865,-0.0081761,-0.0039759,0.00028536,0.0048949,0.019465,0.0085101,0.038353,0.028283,0.014265,-0.0016773,0.0076561,-0.01874,-0.0024294,0.005227,-0.0092888,-0.042633
0.0080158,0.011637,0.017083,3.5426e-005,0.0049358,-0.00043993,-0.0072695,-0.026981,-0.0085159,-0.0017606,-0.00060828,0.0091388,0.019814,0.012073,0.042343,0.032384,0.010228,-0.0033094,0.0072924,-0.02527,0.0038116,0.0020895,-0.0095308,-0.042074
0.011642,0.011222,0.016963,-0.0023389,0.0034247,-0.0062224,-0.0086208,-0.030347,-0.0063891,0.0015648,-0.0010352,0.014834,0.018282,0.015559,0.043248,0.036626,0.0027704,-0.0037425,0.0067679,-0.039408,0.0077269,-0.0014028,-0.0064902,-0.034111
0.011564,0.0098156,0.013111,-0.0024678,0.0017034,-0.010349,-0.010275,-0.03093,-0.0030386,0.0032188,-0.0025696,0.019566,0.016028,0.016762,0.041592,0.043919,-0.0044853,-0.00293,0.0053639,-0.053645,0.0063226,-0.004828,-0.0039204,-0.024527
0.0081012,0.0079664,0.0087523,-0.0022866,0.00075619,-0.010649,-0.011684,-0.029016,0.00023042,0.0023086,-0.0055579,0.021848,0.014373,0.014647,0.039941,0.057182,-0.0090435,-0.001367,0.0023087,-0.058956,0.00038221,-0.0079155,-0.0043168,-0.020379
0.0033124,0.0064739,0.0079906,-0.004009,0.00023655,-0.0074126,-0.013036,-0.026559,0.0026769,0.00018789,-0.0083824,0.021809,0.013893,0.010173,0.040959,0.075656,-0.010415,8.1315e-006,-0.0016625,-0.05135,-0.0065462,-0.010366,-0.0073175,-0.024354
-0.0001725,0.0062069,0.012277,-0.0082391,-0.0012068,-0.002938,-0.01493,-0.025363,0.0042858,-0.0011438,-0.0088215,0.021021,0.014061,0.0054869,0.045009,0.09398,-0.0096866,0.00041108,-0.0041493,-0.035087,-0.011108,-0.011686,-0.010642,-0.032407
-0.00049597,0.0074938,0.018918,-0.013417,-0.0046538,0.00022093,-0.017338,-0.025546,0.0053694,-0.00095495,-0.0061635,0.021419,0.013753,0.002265,0.049421,0.1053,-0.0084441,-0.000229,-0.0029795,-0.019963,-0.012361,-0.011319,-0.012397,-0.036965
0.0025774,0.009494,0.022984,-0.017001,-0.0096977,0.00089077,-0.019158,-0.02548,0.0058761,-0.00032512,-0.0019724,0.023769,0.012134,0.00063503,0.050277,0.10595,-0.0078672,-0.0013354,0.0015478,-0.014597,-0.011564,-0.0091361,-0.012585,-0.033163
0.0076584,0.010365,0.021102,-0.017369,-0.014334,-0.0003108,-0.019065,-0.023173,0.0050538,-0.001023,0.0012352,0.026689,0.0091623,-0.00048908,0.045385,0.097855,-0.0083979,-0.002295,0.0064798,-0.020816,-0.010264,-0.0059662,-0.012621,-0.022912
0.012517,0.0085238,0.014046,-0.014943,-0.016173,-0.001805,-0.016937,-0.017925,0.0020311,-0.0038684,0.0020588,0.027262,0.0055083,-0.0021107,0.036008,0.086724,-0.0098765,-0.0029072,0.0085713,-0.033262,-0.0088396,-0.0036093,-0.013616,-0.01341
0.01522,0.0041584,0.0061372,-0.011747,-0.014131,-0.0022641,-0.014368,-0.010954,-0.0029088,-0.0080293,0.00098822,0.02322,0.0021945,-0.0041468,0.025845,0.077978,-0.011784,-0.00317,0.0070228,-0.044153,-0.0068303,-0.0040234,-0.015258,-0.011525
0.015044,-0.00047455,0.0020639,-0.0098325,-0.0092684,-0.0013476,-0.013553,-0.0046216,-0.0075293,-0.011778,-0.00076229,0.015213,0.00028012,-0.0056258,0.018084,0.073686,-0.013381,-0.0027642,0.0039064,-0.049089,-0.0043228,-0.008031,-0.016361,-0.018819
0.012709,-0.002596,0.003737,-0.0097493,-0.0041217,0.00027644,-0.015462,-0.0010288,-0.0085317,-0.013963,-0.0029512,0.0071391,0.0004888,-0.0058455,0.012921,0.072431,-0.013854,-0.0010807,0.001893,-0.049252,-0.0025522,-0.01444,-0.016389,-0.03099
0.0098762,-0.0012267,0.0094352,-0.010145,-0.0010144,0.0013531,-0.018981,-0.0010946,-0.0040151,-0.01489,-0.0065581,0.0037801,0.0026467,-0.0053603,0.0076185,0.071065,-0.012655,0.0019675,0.0016594,-0.048656,-0.0028381,-0.02039,-0.016234,-0.041538
0.0082399,0.0017624,0.015474,-0.0087712,-0.00066961,0.00062169,-0.021846,-0.0045269,0.0043514,-0.015856,-0.012172,0.0072782,0.0052927,-0.0058191,-0.00094446,0.066179,-0.009946,0.0051931,0.001652,-0.049409,-0.0049441,-0.022938,-0.017284,-0.04614
0.0086835,0.0030198,0.018739,-0.0041818,-0.0020901,-0.0025379,-0.022514,-0.010272,0.011677,-0.01776,-0.018252,0.015285,0.0061698,-0.008705,-0.013304,0.054591,-0.0067109,0.0065455,0.00034338,-0.049482,-0.0067761,-0.020915,-0.019664,-0.044483
0.010895,0.00052767,0.018193,0.003092,-0.0035945,-0.0075483,-0.021253,-0.016824,0.013117,-0.020056,-0.021432,0.022495,0.0037467,-0.013995,-0.026456,0.034036,-0.0042242,0.0046931,-0.0015881,-0.045017,-0.0060696,-0.015749,-0.021543,-0.039092
0.013612,-0.0045389,0.014712,0.010777,-0.0040441,-0.012593,-0.019542,-0.022312,0.0077582,-0.021061,-0.019114,0.024522,-0.0012521,-0.019831,-0.035761,0.0050918,-0.0031444,0.00038973,-0.0016895,-0.034912,-0.0025946,-0.010565,-0.020549,-0.033114
0.015398,-0.0086146,0.010008,0.016336,-0.0033791,-0.015466,-0.018526,-0.024815,-0.00024706,-0.019451,-0.012143,0.021029,-0.0058434,-0.023474,-0.038276,-0.026889,-0.0029985,-0.0038525,0.0014889,-0.023162,0.0013507,-0.0081232,-0.016199,-0.028942
0.015571,-0.0086384,0.005691,0.018539,-0.0023279,-0.015019,-0.018125,-0.023163,-0.0046426,-0.01563,-0.0048625,0.015618,-0.0068051,-0.022844,-0.034975,-0.05258,-0.0026151,-0.0057202,0.0061831,-0.016369,0.0028722,-0.0090237,-0.011023,-0.027931
0.014655,-0.0046187,0.0028997,0.017918,-0.0017614,-0.012146,-0.017645,-0.017815,-0.0019623,-0.011667,-0.0020637,0.01273,-0.003303,-0.017611,-0.03015,-0.063361,-0.0012072,-0.0049236,0.008338,-0.018298,0.001149,-0.011484,-0.0089636,-0.030301
0.013941,0.00032009,0.0022224,0.015899,-0.002157,-0.0092531,-0.017084,-0.010978,0.0057277,-0.0097326,-0.0052729,0.014256,0.00219,-0.0092518,-0.028405,-0.057155,0.00089579,-0.0031293,0.005125,-0.026358,-0.0017254,-0.012835,-0.012126,-0.034823
0.01431,0.0024657,0.003607,0.013602,-0.0033159,-0.0083663,-0.017567,-0.0055653,0.012618,-0.010366,-0.011602,0.018601,0.0057225,-0.00025053,-0.031486,-0.040532,0.0026306,-0.0020993,-0.0022357,-0.03346,-0.0026789,-0.011592,-0.0187,-0.038927
0.015244,0.00050023,0.0063553,0.011449,-0.0043417,-0.0093637,-0.020211,-0.003585,0.013926,-0.012103,-0.016217,0.022581,0.0049944,0.0069272,-0.037194,-0.024484,0.0034025,-0.0019882,-0.0092007,-0.033971,-0.00065773,-0.0085481,-0.024109,-0.039898
0.015042,-0.0035568,0.0094421,0.0097648,-0.0039962,-0.010023,-0.024503,-0.0051134,0.0094966,-0.012824,-0.016278,0.024136,0.0010322,0.010596,-0.041106,-0.016645,0.0039209,-0.0015813,-0.01173,-0.028542,0.0021711,-0.0061123,-0.024648,-0.036708
0.012333,-0.0061972,0.012062,0.0094131,-0.0014976,-0.0080949,-0.027992,-0.0085746,0.0032487,-0.011613,-0.012945,0.023451,-0.0030533,0.010236,-0.039796,-0.016189,0.0057243,-0.00014203,-0.0097797,-0.02335,0.002295,-0.0064864,-0.020511,-0.031005
0.0077342,-0.005449,0.01394,0.011493,0.0026057,-0.0036672,-0.027979,-0.012002,-0.00069489,-0.0094648,-0.0098975,0.021907,-0.0049386,0.0066117,-0.033319,-0.015671,0.0096976,0.0013027,-0.0072526,-0.0242,-0.001784,-0.010129,-0.015483,-0.026234
0.0040095,-0.0024647,0.015116,0.016263,0.0062598,0.00042861,-0.023868,-0.014261,-0.0014587,-0.008235,-0.009926,0.020331,-0.0048208,0.001587,-0.025321,-0.0081219,0.014969,0.00088702,-0.0084154,-0.030755,-0.0077937,-0.015593,-0.013519,-0.025388
0.0042342,-0.00031174,0.015477,0.02244,0.0069385,0.00081919,-0.017981,-0.015431,-0.0014135,-0.0088613,-0.012719,0.018386,-0.0045196,-0.0025751,-0.020751,0.0068376,0.019359,-0.0017625,-0.014014,-0.036319,-0.011282,-0.020632,-0.015286,-0.029091
0.0092547,-0.001063,0.014666,0.027808,0.0034281,-0.0033668,-0.013849,-0.016371,-0.0031437,-0.010491,-0.015609,0.015464,-0.0051731,-0.0043859,-0.022634,0.022954,0.021125,-0.004366,-0.020536,-0.033643,-0.0092829,-0.023523,-0.017875,-0.035442
0.016654,-0.0038348,0.01259,0.030743,-0.0029686,-0.0093397,-0.013317,-0.018008,-0.0066098,-0.011311,-0.016251,0.011797,-0.0060787,-0.0041529,-0.029921,0.032849,0.020456,-0.003603,-0.023221,-0.021667,-0.0028626,-0.023619,-0.017935,-0.04153
0.02232,-0.0056259,0.010016,0.03132,-0.0089678,-0.012595,-0.015012,-0.020846,-0.0092791,-0.010288,-0.014572,0.0084366,-0.0058207,-0.003899,-0.037822,0.033756,0.019287,0.0017664,-0.02009,-0.0069537,0.0036949,-0.021079,-0.015262,-0.045313
0.02346,-0.0042731,0.0084681,0.030992,-0.011441,-0.010465,-0.015566,-0.024738,-0.0089106,-0.0082013,-0.012302,0.0060741,-0.0042631,-0.0058234,-0.040551,0.028569,0.019547,0.0093131,-0.013499,0.001717,0.0063283,-0.016494,-0.013312,-0.046451
0.020558,-0.00081428,0.0092172,0.031225,-0.0096254,-0.004306,-0.012602,-0.028839,-0.0060926,-0.0070029,-0.010866,0.0040795,-0.0030429,-0.010255,-0.034936,0.022038,0.021467,0.014621,-0.0079572,0.00085296,0.0042489,-0.010935,-0.016028,-0.045764
0.016646,0.0010401,0.012108,0.032351,-0.0056688,0.0015657,-0.0068632,-0.031779,-0.0039736,-0.008093,-0.009906,0.000946,-0.0038851,-0.014885,-0.022595,0.016321,0.02355,0.014807,-0.0062433,-0.0049223,6.3901e-005,-0.006107,-0.023884,-0.044015
0.014616,-0.0019672,0.0153,0.033624,-0.0030063,0.0032931,-0.0016459,-0.032162,-0.0054218,-0.011074,-0.0079171,-0.0041512,-0.0065139,-0.016365,-0.0091447,0.010016,0.024241,0.010649,-0.0072211,-0.0073166,-0.0028383,-0.0038793,-0.032929,-0.041081
0.014976,-0.0096596,0.016341,0.034222,-0.0037879,0.00045218,-5.9196e-005,-0.029265,-0.010299,-0.014111,-0.004284,-0.010272,-0.0084829,-0.013303,-0.00081161,0.00093935,0.023636,0.0054622,-0.0072088,-0.0020263,-0.0030622,-0.005085,-0.037846,-0.036096
0.015895,-0.018304,0.013891,0.034134,-0.0073274,-0.0037843,-0.0024829,-0.02345,-0.015367,-0.015534,-0.00054925,-0.015386,-0.0072888,-0.0080878,-0.00067908,-0.010683,0.023447,0.0020392,-0.0036167,0.0073957,-0.0016925,-0.0085865,-0.036307,-0.028429
0.015274,-0.023521,0.0087847,0.034125,-0.01075,-0.005288,-0.0063416,-0.015918,-0.016896,-0.015193,0.0005015,-0.018365,-0.0027533,-0.0054829,-0.0071911,-0.021894,0.025089,0.00065048,0.0023927,0.012946,-0.00042999,-0.011805,-0.030662,-0.018795
0.012829,-0.023665,0.0035689,0.034936,-0.011313,-0.0022251,-0.0082448,-0.0079648,-0.01364,-0.014337,-0.0027715,-0.020383,0.0026449,-0.0086691,-0.01589,-0.029664,0.027681,-0.00020133,0.0066193,0.0096448,0.00045599,-0.012668,-0.025545,-0.0096283
0.010351,-0.020768,0.00076917,0.03654,-0.0086057,0.0035854,-0.0065874,-0.00037458,-0.0077191,-0.014211,-0.0091658,-0.024132,0.0057728,-0.015998,-0.022886,-0.033726,0.028105,-0.0014558,0.0053728,0.00021916,0.0022406,-0.011334,-0.023727,-0.0042097
0.010094,-0.018387,0.0010959,0.038091,-0.0049119,0.0080956,-0.0025219,0.0065681,-0.0028332,-0.014772,-0.015228,-0.031242,0.0052481,-0.021641,-0.027259,-0.036888,0.023474,-0.0022122,-0.0011971,-0.0072032,0.0059471,-0.0099092,-0.024091,-0.0047806
0.012826,-0.018465,0.0029181,0.038546,-0.0034106,0.008019,0.0012075,0.012582,-0.0014893,-0.014772,-0.017698,-0.040188,0.0021192,-0.020125,-0.030629,-0.0427,0.014033,-0.00079724,-0.0089321,-0.0061507,0.01067,-0.010183,-0.023425,-0.010778
0.017221,-0.01997,0.0034855,0.037431,-0.0055469,0.0031522,0.0022929,0.017049,-0.0034475,-0.013102,-0.015763,-0.046829,-0.0014821,-0.011131,-0.034673,-0.05277,0.0038103,0.0030575,-0.012911,0.0027978,0.013893,-0.011519,-0.020064,-0.018553
0.020928,-0.020264,0.001097,0.035216,-0.0096884,-0.0035844,2.5952e-005,0.019294,-0.0063543,-0.010027,-0.011316,-0.047514,-0.0041726,-0.00026519,-0.039113,-0.066007,-0.0019378,0.0073302,-0.011381,0.012979,0.013596,-0.0112,-0.015793,-0.023124
0.02225,-0.017698,-0.0034177,0.033068,-0.012324,-0.0083101,-0.0050432,0.019326,-0.0077319,-0.0070446,-0.0071462,-0.042229,-0.0059909,0.0052117,-0.042087,-0.080028,-0.00061267,0.0091825,-0.0070194,0.017826,0.010078,-0.0072166,-0.014177,-0.021061
0.021059,-0.01309,-0.007183,0.032099,-0.011042,-0.0089315,-0.012152,0.018333,-0.0066768,-0.0054876,-0.0046957,-0.03497,-0.007725,0.0022043,-0.042393,-0.093037,0.0056798,0.0074529,-0.0044737,0.016591,0.00567,-0.00089357,-0.016977,-0.012541
0.018455,-0.0090192,-0.0075337,0.032514,-0.0068475,-0.006466,-0.020834,0.018365,-0.00417,-0.0052557,-0.0032413,-0.030773,-0.0099855,-0.0058514,-0.041219,-0.10443,0.011661,0.0037532,-0.0063935,0.014645,0.0026463,0.0034403,-0.022124,-0.0011037
0.015752,-0.0078294,-0.0042995,0.033252,-0.0036017,-0.0039766,-0.030466,0.021211,-0.0020858,-0.0050083,-0.0010488,-0.031834,-0.012992,-0.012143,-0.041419,-0.11394,0.012723,0.0010345,-0.011398,0.018446,0.0013759,0.0018698,-0.025262,0.0087595
0.013719,-0.010064,-0.00014575,0.032521,-0.0046923,-0.0039349,-0.039551,0.027182,-0.0018022,-0.0036932,0.0026122,-0.036042,-0.016917,-0.01234,-0.044812,-0.1205,0.0079569,0.00088668,-0.015594,0.029829,0.00047354,-0.0055455,-0.023569,0.014417
0.012497,-0.014337,0.0014759,0.029086,-0.0096914,-0.0060778,-0.04579,0.034656,-0.0033427,-0.0018991,0.0063871,-0.039181,-0.021975,-0.007997,-0.050042,-0.12229,0.00011594,0.00206,-0.016052,0.04454,-0.0013691,-0.014375,-0.018444,0.016332
0.011876,-0.018362,-0.00088152,0.02342,-0.014187,-0.0075025,-0.047198,0.040881,-0.0054678,-0.0015871,0.0076862,-0.038819,-0.027934,-0.0046731,-0.053204,-0.11796,-0.0069978,0.0015994,-0.013036,0.055836,-0.003835,-0.019114,-0.014596,0.017035
0.011462,-0.020237,-0.005534,0.017669,-0.013395,-0.0049943,-0.043439,0.043673,-0.0065407,-0.0042807,0.0048719,-0.036396,-0.033715,-0.0067292,-0.051008,-0.10806,-0.011236,-0.002415,-0.0091994,0.059646,-0.005268,-0.017371,-0.016175,0.018848
0.01068,-0.019263,-0.0091836,0.014191,-0.0065722,0.0022676,-0.036256,0.042901,-0.0056073,-0.0093432,-0.00097418,-0.035725,-0.037858,-0.013568,-0.043833,-0.095537,-0.01283,-0.0090012,-0.0068701,0.056896,-0.0044056,-0.011418,-0.023144,0.022173
0.0089279,-0.016153,-0.0096897,0.013635,0.0018787,0.011856,-0.028542,0.040626,-0.0030269,-0.014023,-0.0062715,-0.039367,-0.039649,-0.020469,-0.036022,-0.084689,-0.01317,-0.014953,-0.0061886,0.051603,-0.0017488,-0.0060306,-0.030947,0.025481
0.0060754,-0.012655,-0.0076264,0.014163,0.0060258,0.019826,-0.022764,0.039617,-0.00022697,-0.015405,-0.0072409,-0.046196,-0.039732,-0.02284,-0.03305,-0.079304,-0.013278,-0.017408,-0.0057236,0.047126,0.00074738,-0.0047579,-0.033805,0.026776
0.0029671,-0.010653,-0.0053942,0.012671,0.0037575,0.023611,-0.01987,0.041271,0.0013123,-0.012686,-0.0026865,-0.052267,-0.039285,-0.019845,-0.037853,-0.080916,-0.013317,-0.01598,-0.0046149,0.044074,0.0012526,-0.0077362,-0.029065,0.025296
0.0012851,-0.011024,-0.0049657,0.0072416,-0.0010168,0.023703,-0.019339,0.044607,0.0011492,-0.0078781,0.004903,-0.05403,-0.038405,-0.014399,-0.049161,-0.088223,-0.013053,-0.012672,-0.0038538,0.041198,-0.00061584,-0.012402,-0.019194,0.02222
0.0025199,-0.012929,-0.0064599,-0.0011118,-0.0015777,0.02283,-0.020044,0.047231,0.00018823,-0.0043712,0.010927,-0.050961,-0.03546,-0.010139,-0.062824,-0.098033,-0.012305,-0.009886,-0.0053626,0.037641,-0.0037661,-0.015875,-0.0099183,0.020001
0.0066632,-0.014259,-0.0086531,-0.008948,0.0056478,0.023457,-0.021084,0.047511,-0.00013897,-0.004544,0.011831,-0.045427,-0.028502,-0.0085531,-0.074621,-0.10726,-0.010883,-0.0085709,-0.0098582,0.033939,-0.0066147,-0.016808,-0.0060787,0.020858
0.011738,-0.013214,-0.010515,-0.012912,0.017689,0.025779,-0.021951,0.045996,0.00077272,-0.0082721,0.0074343,-0.040285,-0.017731,-0.0087333,-0.082222,-0.1148,-0.0084856,-0.0081115,-0.015706,0.030982,-0.0080726,-0.01562,-0.0083912,0.025442
0.014801,-0.0099024,-0.011996,-0.012339,0.027302,0.027795,-0.022169,0.044769,0.0019723,-0.013329,0.00067784,-0.036626,-0.0065652,-0.009319,-0.085259,-0.12183,-0.0050819,-0.0077151,-0.019948,0.028428,-0.0079076,-0.013648,-0.013452,0.032464
0.013853,-0.0065207,-0.013396,-0.0098607,0.028949,0.02716,-0.021003,0.045321,0.0016055,-0.017142,-0.0048594,-0.033606,0.00018856,-0.010226,-0.084394,-0.13029,-0.0015491,-0.0075905,-0.020551,0.024591,-0.0065969,-0.012293,-0.016669,0.039433
0.0092307,-0.0056992,-0.014329,-0.0095156,0.023272,0.023133,-0.017732,0.047052,-0.0014634,-0.018468,-0.0074935,-0.03017,-0.00010359,-0.01241,-0.080774,-0.1403,0.00035615,-0.0086632,-0.017848,0.018113,-0.0050057,-0.012587,-0.015631,0.043961
0.0033597,-0.0082491,-0.013744,-0.013847,0.016296,0.017025,-0.012398,0.047967,-0.0064206,-0.017839,-0.0079925,-0.026721,-0.0056449,-0.016222,-0.076108,-0.14875,-0.00090972,-0.011285,-0.014038,0.0097215,-0.0039702,-0.014864,-0.011393,0.044847
-0.00090126,-0.012279,-0.011167,-0.022216,0.014254,0.010994,-0.0063882,0.046975,-0.010813,-0.016731,-0.0080177,-0.025102,-0.01142,-0.020335,-0.072398,-0.15051,-0.0052683,-0.014494,-0.011463,0.0021168,-0.0037841,-0.018396,-0.0070397,0.042402
-0.0020138,-0.0146,-0.0077787,-0.031445,0.018606,0.0063714,-0.0021699,0.045446,-0.012251,-0.016301,-0.0081898,-0.026976,-0.013011,-0.022479,-0.07068,-0.14178,-0.010601,-0.016721,-0.011319,-0.0021152,-0.0038912,-0.021458,-0.0050716,0.038032
-0.00036127,-0.013318,-0.00591,-0.038007,0.025298,0.0029632,-0.002064,0.046211,-0.010106,-0.016683,-0.0076605,-0.032208,-0.009786,-0.021266,-0.069701,-0.12311,-0.013902,-0.01721,-0.01365,-0.0026558,-0.003254,-0.022252,-0.0058175,0.033493
0.0024219,-0.0093732,-0.0071143,-0.039993,0.028484,-0.00021058,-0.0067295,0.050729,-0.0057682,-0.017217,-0.0054311,-0.038724,-0.0047561,-0.017314,-0.066281,-0.099717,-0.013256,-0.01663,-0.01808,-0.001564,-0.0013586,-0.020304,-0.0078531,0.030151
0.0045453,-0.0056788,-0.010579,-0.037686,0.025278,-0.0035223,-0.014412,0.05713,-0.0013508,-0.017245,-0.0019026,-0.043934,-0.0013969,-0.012615,-0.057844,-0.078466,-0.0091484,-0.016207,-0.024144,-0.0011383,0.00097817,-0.017072,-0.0096129,0.028451
0.0047824,-0.0046451,-0.013514,-0.032942,0.017665,-0.0060067,-0.021645,0.061277,0.0019088,-0.016714,0.0010255,-0.046436,-0.00043564,-0.0088366,-0.045218,-0.063859,-0.0041619,-0.016315,-0.030884,-0.0015216,0.001952,-0.014942,-0.010558,0.027752
0.0027581,-0.0063368,-0.013359,-0.028294,0.010413,-0.0060146,-0.025135,0.060124,0.0041034,-0.016143,0.001483,-0.046643,0.00048331,-0.0061723,-0.03294,-0.055914,-0.0012616,-0.016063,-0.036487,-0.00040271,0.00024356,-0.015229,-0.011019,0.026712
-0.00085298,-0.0088457,-0.0099154,-0.026216,0.007166,-0.0027253,-0.023641,0.054333,0.0057432,-0.016037,-0.00069609,-0.045954,0.0040738,-0.0037317,-0.026205,-0.051338,-0.0018578,-0.014367,-0.038897,0.0047113,-0.0036069,-0.016953,-0.011252,0.024242
-0.0042626,-0.010353,-0.0055112,-0.028327,0.0080585,0.0028378,-0.018573,0.047634,0.0066216,-0.016334,-0.003794,-0.045365,0.010285,-0.00093735,-0.026821,-0.046654,-0.00495,-0.011443,-0.037261,0.013601,-0.0072944,-0.017658,-0.010917,0.02049
-0.0051804,-0.010793,-0.0030943,-0.034375,0.010492,0.0083065,-0.012835,0.043534,0.0057568,-0.016431,-0.0057337,-0.044733,0.01578,0.0015291,-0.031771,-0.040588,-0.0079393,-0.0091354,-0.03294,0.022476,-0.0084213,-0.015655,-0.0095635,0.016988
-0.0022991,-0.011544,-0.0039804,-0.041741,0.011922,0.011675,-0.0087375,0.042485,0.0025127,-0.015802,-0.0059042,-0.043241,0.016607,0.002191,-0.035812,-0.034074,-0.0085778,-0.009561,-0.0289,0.026139,-0.0063284,-0.011636,-0.0074875,0.015599
0.0032264,-0.013606,-0.0071863,-0.046499,0.012019,0.012763,-0.0065163,0.042138,-0.0023044,-0.014628,-0.005637,-0.040554,0.011731,0.00020671,-0.035773,-0.028518,-0.0066474,-0.013186,-0.027658,0.021573,-0.002427,-0.0081044,-0.0058826,0.016932
0.0077926,-0.016236,-0.010722,-0.045979,0.01245,0.013116,-0.0045646,0.040238,-0.0066213,-0.013768,-0.0069636,-0.037526,0.0042844,-0.0036298,-0.032598,-0.024287,-0.0040187,-0.018089,-0.029358,0.010151,0.0012401,-0.0071168,-0.0058905,0.019576
0.0074638,-0.017522,-0.013446,-0.041027,0.014863,0.014436,-0.0011373,0.037097,-0.0085344,-0.01399,-0.010828,-0.03577,-0.00060056,-0.0073311,-0.029382,-0.020707,-0.002917,-0.021189,-0.031622,-0.0032157,0.0037743,-0.0085016,-0.0073701,0.020914
0.000941,-0.016315,-0.015749,-0.035735,0.019136,0.016999,0.0039377,0.035152,-0.0077071,-0.015193,-0.016316,-0.036383,0.00038326,-0.009268,-0.027614,-0.017076,-0.0037923,-0.020554,-0.03133,-0.013259,0.0057735,-0.01026,-0.0086496,0.018857
-0.0089932,-0.013555,-0.01859,-0.034306,0.023452,0.019514,0.0090103,0.036068,-0.0054208,-0.016442,-0.02144,-0.038977,0.0063306,-0.009459,-0.025561,-0.013321,-0.0047734,-0.016928,-0.026876,-0.017485,0.0079433,-0.010699,-0.0077414,0.013005
-0.017035,-0.011592,-0.022036,-0.037469,0.025857,0.020445,0.012022,0.03837,-0.003257,-0.016874,-0.024656,-0.041942,0.012971,-0.009458,-0.020481,-0.0096088,-0.0034688,-0.013249,-0.019095,-0.017169,0.0094664,-0.010121,-0.004151,0.00433
-0.019019,-0.012137,-0.024836,-0.041718,0.025635,0.019397,0.012303,0.038089,-0.0016717,-0.016548,-0.025773,-0.043804,0.01591,-0.010961,-0.012296,-0.005653,0.00034147,-0.012497,-0.010355,-0.01586,0.0079982,-0.010356,0.00027131,-0.0060646
-0.014915,-0.014798,-0.025464,-0.042398,0.023246,0.017126,0.011116,0.031961,0.00022432,-0.016228,-0.025669,-0.044455,0.013674,-0.014361,-0.004706,-0.00082363,0.0037539,-0.01549,-0.0028911,-0.016703,0.0016287,-0.012639,0.0023317,-0.017705
-0.0087282,-0.017523,-0.023613,-0.038056,0.01926,0.014232,0.010461,0.02029,0.0035372,-0.016191,-0.025305,-0.045038,0.0084045,-0.018437,-0.0022004,0.0048244,0.0028673,-0.020236,0.0021554,-0.02042,-0.0088531,-0.016083,-0.00023445,-0.030293
-0.0053139,-0.018394,-0.020689,-0.03203,0.01371,0.0099949,0.011241,0.0068822,0.0082127,-0.015343,-0.025065,-0.046493,0.0039889,-0.021293,-0.0056977,0.0098347,-0.0035594,-0.023246,0.0045514,-0.025116,-0.019582,-0.018365,-0.0068983,-0.04268
-0.00658,-0.017049,-0.018838,-0.029585,0.0066492,0.0027413,0.012441,-0.0038546,0.01267,-0.011824,-0.024888,-0.04813,0.0032715,-0.02161,-0.011153,0.012147,-0.012265,-0.021834,0.0044567,-0.027837,-0.025794,-0.017964,-0.014357,-0.052575
-0.010136,-0.014585,-0.019331,-0.03307,-0.00082977,-0.0083573,0.012059,-0.010095,0.014756,-0.00489,-0.024825,-0.047746,0.0063392,-0.019236,-0.012799,0.011073,-0.017529,-0.015844,0.0024722,-0.026838,-0.024992,-0.015627,-0.018551,-0.05755
-0.011484,-0.012371,-0.021706,-0.039594,-0.0065694,-0.021697,0.008904,-0.01347,0.013213,0.0036293,-0.025282,-0.043423,0.010814,-0.014925,-0.008181,0.0085651,-0.015697,-0.0077395,8.1716e-005,-0.023059,-0.018647,-0.013498,-0.017311,-0.056555
-0.0079751,-0.011091,-0.024262,-0.043512,-0.0087763,-0.033501,0.0037086,-0.017207,0.0084975,0.0098932,-0.02664,-0.035425,0.013598,-0.0098531,-0.0003179,0.0081163,-0.008298,-0.0011142,-0.00055639,-0.019775,-0.011108,-0.012774,-0.011803,-0.050609
-0.0012771,-0.010758,-0.025375,-0.041543,-0.0077174,-0.04005,-0.0013699,-0.023435,0.0024429,0.010576,-0.028673,-0.026338,0.012708,-0.0054325,0.0050297,0.011747,-0.00091004,0.0013517,0.0019992,-0.020413,-0.0066332,-0.012353,-0.0057603,-0.042106
0.0037318,-0.011291,-0.024533,-0.035792,-0.0059288,-0.040304,-0.00437,-0.031901,-0.0028558,0.0054728,-0.030408,-0.019103,0.0080809,-0.0032915,0.004423,0.017615,0.001326,-0.0007646,0.0068674,-0.025909,-0.0067759,-0.0099994,-0.0030567,-0.033483
0.0028363,-0.012787,-0.022474,-0.031878,-0.0064197,-0.036885,-0.0049647,-0.040828,-0.006082,-0.0019456,-0.030647,-0.014672,0.0011051,-0.0048594,-0.00055666,0.020698,-0.0023504,-0.0056889,0.010806,-0.033477,-0.0098848,-0.0049789,-0.0052639,-0.026444
-0.0039968,-0.015169,-0.020584,-0.033873,-0.010254,-0.034556,-0.0046758,-0.048682,-0.0070756,-0.0066484,-0.028701,-0.011489,-0.0065371,-0.010439,-0.0053298,0.016459,-0.0082416,-0.010694,0.01043,-0.037964,-0.012783,0.00047382,-0.01081,-0.022154
-0.012343,-0.017799,-0.020159,-0.040677,-0.015614,-0.037148,-0.0057816,-0.055154,-0.0065431,-0.0053889,-0.024743,-0.0073514,-0.013818,-0.018498,-0.0069331,0.004636,-0.01173,-0.013635,0.0051655,-0.035113,-0.013163,0.0025186,-0.016193,-0.021649
-0.016583,-0.019656,-0.021873,-0.046964,-0.019243,-0.045005,-0.0096785,-0.060731,-0.005485,0.0010695,-0.019584,-0.0019112,-0.020525,-0.026099,-0.0067293,-0.010143,-0.011067,-0.013875,-0.0018094,-0.024558,-0.010971,-0.0010933,-0.018312,-0.025483
-0.014123,-0.020044,-0.02551,-0.047649,-0.019107,-0.054753,-0.015719,-0.065651,-0.0046989,0.008389,-0.014204,0.0026616,-0.026706,-0.030554,-0.0086532,-0.021645,-0.0082081,-0.012223,-0.0059709,-0.010369,-0.0079978,-0.0087673,-0.016277,-0.032666
-0.0071953,-0.019096,-0.029915,-0.041842,-0.016042,-0.061624,-0.021266,-0.069467,-0.0044839,0.01147,-0.0094535,0.0036093,-0.032003,-0.031138,-0.014768,-0.026545,-0.0064905,-0.010169,-0.0055662,0.0013128,-0.0062377,-0.015815,-0.011555,-0.040157
-0.00085188,-0.017537,-0.033375,-0.033126,-0.013023,-0.06279,-0.023097,-0.071567,-0.0045551,0.007805,-0.006,0.00034483,-0.035564,-0.02946,-0.022515,-0.026378,-0.0077065,-0.0089583,-0.0038167,0.0059675,-0.0063695,-0.01774,-0.0065962,-0.044129
0.0011505,-0.015955,-0.034448,-0.026513,-0.012729,-0.05927,-0.019473,-0.071939,-0.004237,-0.00076998,-0.0042376,-0.0046822,-0.036653,-0.028088,-0.026467,-0.025328,-0.011166,-0.0089901,-0.0067935,0.0031941,-0.0074955,-0.013518,-0.0031479,-0.042647
-0.00081461,-0.014336,-0.032862,-0.025027,-0.015457,-0.054891,-0.011611,-0.071305,-0.002997,-0.0090775,-0.0040262,-0.0080425,-0.035439,-0.028576,-0.023154,-0.025954,-0.01502,-0.0097308,-0.018212,-0.0035276,-0.008211,-0.0063598,-0.0014934,-0.037636
-0.002938,-0.01232,-0.029761,-0.028473,-0.019097,-0.053017,-0.0033371,-0.070528,-0.0010978,-0.011792,-0.004524,-0.0085062,-0.03316,-0.030559,-0.014535,-0.026735,-0.018036,-0.010149,-0.035392,-0.0094222,-0.0079953,-0.0014269,-0.00094397,-0.034039
-0.0014801,-0.0098794,-0.026935,-0.034562,-0.021037,-0.053721,0.0011927,-0.069998,0.00019939,-0.0068529,-0.0045351,-0.0082401,-0.031395,-0.032557,-0.0068263,-0.023587,-0.020076,-0.0094876,-0.050109,-0.011446,-0.007658,-0.0022329,-0.00083603,-0.03621
0.0039369,-0.0076542,-0.025537,-0.040687,-0.020279,-0.053932,0.00028545,-0.069686,-0.00064855,0.0031293,-0.0033804,-0.010552,-0.030964,-0.033595,-0.0055524,-0.013834,-0.021275,-0.0079704,-0.054172,-0.0097982,-0.0084262,-0.0083098,-0.0010526,-0.044184
0.01,-0.0065846,-0.025299,-0.044917,-0.017966,-0.050661,-0.00411,-0.069715,-0.0040989,0.012535,-0.0016507,-0.015978,-0.031385,-0.034079,-0.01105,0.0011132,-0.021261,-0.0069043,-0.045485,-0.0072322,-0.010535,-0.015715,-0.0017753,-0.053094
0.012524,-0.0071706,-0.024925,-0.046129,-0.016039,-0.044477,-0.0079384,-0.070683,-0.0086088,0.016445,-0.0010568,-0.020442,-0.031392,-0.035199,-0.018248,0.016801,-0.019444,-0.0078851,-0.029707,-0.0070402,-0.012729,-0.019874,-0.0029974,-0.05662
0.0099645,-0.009043,-0.023304,-0.044062,-0.015393,-0.039873,-0.0081892,-0.073185,-0.011269,0.013834,-0.003266,-0.017774,-0.030033,-0.037595,-0.020792,0.029356,-0.016011,-0.011471,-0.016126,-0.011365,-0.013287,-0.01866,-0.0044398,-0.051904
0.0046669,-0.0112,-0.020542,-0.039581,-0.015279,-0.041767,-0.0050783,-0.076899,-0.0098989,0.0078816,-0.0085777,-0.0050356,-0.027403,-0.040627,-0.015959,0.038198,-0.012406,-0.016325,-0.011042,-0.020975,-0.011674,-0.01356,-0.0058929,-0.041872
0.00089583,-0.012678,-0.017965,-0.034649,-0.014416,-0.051038,-0.0014118,-0.080233,-0.0050238,0.0031434,-0.015573,0.01387,-0.024376,-0.042871,-0.0064379,0.045418,-0.010642,-0.019756,-0.01389,-0.036289,-0.0091811,-0.0082781,-0.0074511,-0.032939
0.0013781,-0.01313,-0.017168,-0.03145,-0.012616,-0.063228,0.00022554,-0.081155,0.00012095,0.001794,-0.022077,0.029923,-0.021629,-0.043176,0.0020529,0.052788,-0.011939,-0.019574,-0.018879,-0.058291,-0.0077557,-0.0060234,-0.0092835,-0.030001
0.0052365,-0.012939,-0.018896,-0.030958,-0.011199,-0.071881,-0.00017966,-0.078747,0.0019662,0.00203,-0.026564,0.035364,-0.018903,-0.041214,0.0050241,0.05965,-0.015819,-0.015997,-0.020311,-0.087943,-0.0079979,-0.0075287,-0.011241,-0.032959
0.0088775,-0.012853,-0.022535,-0.032081,-0.011741,-0.073728,-0.00036048,-0.074238,-0.00040367,-3.9724e-005,-0.028776,0.029785,-0.015187,-0.037152,0.0019935,0.063823,-0.020302,-0.011944,-0.016972,-0.12398,-0.0083176,-0.0111,-0.012872,-0.037596
0.0089131,-0.013404,-0.026456,-0.032243,-0.014391,-0.071069,0.001672,-0.070548,-0.0042353,-0.0066658,-0.029178,0.020754,-0.0096205,-0.031159,-0.0038317,0.064454,-0.022949,-0.011171,-0.01219,-0.16074,-0.0063073,-0.014313,-0.013922,-0.039725
0.004677,-0.014429,-0.028884,-0.029188,-0.017578,-0.069197,0.0053841,-0.070494,-0.0051667,-0.01619,-0.028136,0.018111,-0.0023179,-0.023554,-0.0080595,0.063649,-0.022059,-0.015458,-0.010082,-0.18844,-0.0012541,-0.015829,-0.014715,-0.03872
-0.0015132,-0.015041,-0.028744,-0.022663,-0.019553,-0.071325,0.0080475,-0.074903,-0.00080335,-0.024277,-0.025947,0.026377,0.0055978,-0.015479,-0.0076883,0.065036,-0.017448,-0.023037,-0.011602,-0.19691,0.0046074,-0.015981,-0.015861,-0.037348
-0.0062389,-0.014174,-0.026101,-0.014653,-0.020322,-0.075783,0.0073493,-0.081975,0.0071965,-0.027537,-0.023669,0.041467,0.012642,-0.0090591,-0.0022805,0.070617,-0.010603,-0.029608,-0.013799,-0.18141,0.0075584,-0.015993,-0.017537,-0.03842
-0.0073396,-0.011471,-0.02207,-0.007971,-0.021936,-0.078059,0.0037255,-0.088364,0.014345,-0.026241,-0.023434,0.054296,0.017662,-0.0063163,0.0063661,0.079087,-0.0041622,-0.031264,-0.012615,-0.1466,0.0055298,-0.01677,-0.0192,-0.041693
-0.0050538,-0.0078881,-0.018309,-0.0043129,-0.026597,-0.075568,0.00010858,-0.091296,0.016812,-0.023699,-0.02714,0.058127,0.020108,-0.0074701,0.015352,0.087363,-0.00076841,-0.027064,-0.0065285,-0.10523,0.00014305,-0.018282,-0.020199,-0.044015
-0.0014495,-0.0054053,-0.016327,-0.0033239,-0.034236,-0.070463,-0.00072833,-0.090355,0.014173,-0.022998,-0.034259,0.053481,0.019993,-0.010292,0.021968,0.093789,-0.0016895,-0.019319,0.0021008,-0.071661,-0.0043094,-0.01984,-0.020667,-0.042473
0.0011261,-0.0057831,-0.01688,-0.0032865,-0.04188,-0.067716,0.0012456,-0.087786,0.0091801,-0.024266,-0.041086,0.046825,0.017924,-0.011544,0.02477,0.099776,-0.0059774,-0.011594,0.0089175,-0.054003,-0.004225,-0.020717,-0.02156,-0.037383
0.001459,-0.0091753,-0.019673,-0.0026685,-0.04556,-0.070334,0.0031844,-0.08709,0.0050424,-0.025065,-0.042973,0.04469,0.015168,-0.0095787,0.024105,0.1082,-0.010914,-0.0062522,0.010821,-0.05034,0.00044504,-0.020478,-0.023581,-0.032207
1.6002e-005,-0.013696,-0.02348,-0.0011072,-0.043199,-0.076343,0.0017614,-0.090758,0.0028613,-0.023358,-0.038255,0.048516,0.013278,-0.0057881,0.021726,0.12009,-0.013701,-0.0035351,0.0078228,-0.051666,0.0062491,-0.01889,-0.025993,-0.030452
-0.0014911,-0.016459,-0.026639,0.00090144,-0.036043,-0.080479,-0.0040762,-0.098653,0.0014482,-0.019964,-0.030336,0.054318,0.013117,-0.0033639,0.019555,0.133,-0.013329,-0.002557,0.0022529,-0.04917,0.0090929,-0.015811,-0.026755,-0.032471
-0.0012268,-0.015452,-0.027754,0.0030208,-0.027571,-0.079078,-0.012328,-0.10814,-0.00070528,-0.01794,-0.025489,0.056735,0.013981,-0.0042802,0.018355,0.14262,-0.011223,-0.0028695,-0.0036162,-0.040285,0.0074422,-0.01144,-0.02414,-0.035194
0.0015179,-0.010885,-0.026315,0.0055707,-0.020969,-0.073636,-0.019592,-0.11589,-0.0035519,-0.019481,-0.027755,0.053416,0.013934,-0.0072365,0.017388,0.14642,-0.010074,-0.0049253,-0.0093226,-0.029179,0.0032877,-0.0067127,-0.018473,-0.035085
0.0056495,-0.0049875,-0.022955,0.0089649,-0.017298,-0.06973,-0.023542,-0.12003,-0.0056125,-0.02353,-0.035408,0.046103,0.011527,-0.008599,0.015467,0.14574,-0.011685,-0.0091002,-0.01602,-0.022063,0.0003075,-0.0032111,-0.012251,-0.0316
0.0087425,-0.00045448,-0.019158,0.012826,-0.01552,-0.072252,-0.024202,-0.12105,-0.0057735,-0.026598,-0.042365,0.038204,0.0075391,-0.0056551,0.012564,0.14454,-0.01551,-0.014478,-0.024815,-0.021725,0.00094856,-0.0022794,-0.0083734,-0.027924
0.0086107,0.0012035,-0.016541,0.015984,-0.013898,-0.081134,-0.023303,-0.12081,-0.0046868,-0.026065,-0.043433,0.031724,0.0048731,0.00069724,0.010482,0.14581,-0.019025,-0.018849,-0.035239,-0.025723,0.0047845,-0.0039019,-0.0079648,-0.028096
0.0050375,0.00017634,-0.016046,0.017627,-0.011337,-0.091234,-0.022661,-0.12084,-0.0041974,-0.022637,-0.03858,0.026391,0.0061855,0.0062658,0.011761,0.14899,-0.019623,-0.020111,-0.045098,-0.029057,0.0092044,-0.0064262,-0.0097146,-0.032955
0.00029415,-0.0024291,-0.017522,0.018489,-0.0077787,-0.09633,-0.023047,-0.12126,-0.0053666,-0.01946,-0.032305,0.021226,0.011151,0.0066679,0.017534,0.15042,-0.0165,-0.017846,-0.051674,-0.02829,0.011559,-0.0076662,-0.011241,-0.038586
-0.0022685,-0.0057027,-0.019921,0.020628,-0.0038232,-0.093809,-0.024273,-0.12115,-0.0071972,-0.018773,-0.02888,0.016412,0.01603,0.00062857,0.026132,0.14629,-0.011105,-0.013591,-0.053283,-0.023433,0.010944,-0.0066206,-0.011169,-0.038992
-0.00076433,-0.0092805,-0.022002,0.025639,-0.00031419,-0.086302,-0.025973,-0.11975,-0.0074939,-0.01951,-0.028201,0.013318,0.016411,-0.009118,0.033804,0.13559,-0.0059781,-0.0095685,-0.050161,-0.016497,0.008419,-0.0042555,-0.010049,-0.03106
0.0035123,-0.012801,-0.02305,0.032829,0.0017585,-0.079332,-0.028126,-0.11702,-0.005116,-0.01833,-0.026233,0.012672,0.011041,-0.017769,0.037183,0.1208,-0.0030988,-0.0070303,-0.044282,-0.0087559,0.0058471,-0.0024926,-0.0094198,-0.017599
0.0068124,-0.015385,-0.023143,0.039244,0.0013503,-0.077221,-0.030819,-0.11319,-0.0013907,-0.013147,-0.019442,0.012859,0.0033375,-0.021483,0.035649,0.10624,-0.0030117,-0.0056632,-0.038362,0.00045794,0.004532,-0.0022602,-0.010042,-0.0055597
0.0058305,-0.016028,-0.022814,0.041836,-0.0021123,-0.080573,-0.033635,-0.10797,0.00083435,-0.005711,-0.0087284,0.01033,-0.00098861,-0.019289,0.03164,0.095597,-0.0050738,-0.0044322,-0.034538,0.012488,0.0046607,-0.0025251,-0.011003,-0.00060548
0.00055042,-0.014667,-0.022414,0.040028,-0.0079349,-0.086963,-0.035474,-0.10061,-0.0002292,-0.0006825,0.00088252,0.0020928,0.0015899,-0.012907,0.028645,0.090474,-0.0081642,-0.0029207,-0.03328,0.027135,0.0056726,-0.0014104,-0.010543,-0.0025295
-0.0054295,-0.012726,-0.021755,0.036339,-0.013913,-0.093825,-0.035197,-0.090779,-0.0034714,-0.0019289,0.0043111,-0.011745,0.0095986,-0.0051144,0.028486,0.090411,-0.011103,-0.0018615,-0.033065,0.041724,0.0069179,0.0015749,-0.0078094,-0.005551
-0.0076296,-0.012224,-0.020373,0.034406,-0.017337,-0.10097,-0.032669,-0.079295,-0.0056168,-0.0093171,0.00027453,-0.027639,0.017742,0.0020259,0.030127,0.093856,-0.012734,-0.0024235,-0.031158,0.052357,0.0079594,0.0044596,-0.0039403,-0.0033739
-0.0043921,-0.014076,-0.018213,0.03609,-0.0169,-0.11077,-0.029236,-0.067748,-0.0040814,-0.018707,-0.0083702,-0.040901,0.020997,0.0080342,0.030915,0.099224,-0.012148,-0.0050035,-0.025317,0.056294,0.0084575,0.0042092,-0.0013727,0.0053415
0.0015627,-0.017194,-0.016084,0.040215,-0.014067,-0.12608,-0.026988,-0.057193,0.00048219,-0.024984,-0.01739,-0.048771,0.018141,0.013671,0.029037,0.10554,-0.0092471,-0.0086706,-0.015457,0.053642,0.0080556,-0.00048414,-0.0018608,0.015877
0.0052092,-0.019444,-0.015326,0.043935,-0.012505,-0.14746,-0.027213,-0.047351,0.004285,-0.025515,-0.023912,-0.051793,0.011951,0.019793,0.024965,0.11251,-0.0050965,-0.011734,-0.0040326,0.047263,0.0065859,-0.0076181,-0.0048542,0.021627
0.0033288,-0.019678,-0.016782,0.045326,-0.015619,-0.17197,-0.029267,-0.037325,0.0033058,-0.021438,-0.026832,-0.052531,0.0063407,0.026276,0.020656,0.12,-0.0014263,-0.012893,0.0053769,0.041121,0.0044106,-0.013127,-0.0077149,0.019791
-0.002781,-0.018872,-0.0199,0.044727,-0.023956,-0.19416,-0.03094,-0.027271,-0.0032801,-0.016212,-0.025615,-0.053059,0.0032053,0.031852,0.017473,0.12726,0.00055721,-0.012021,0.010427,0.038155,0.0024155,-0.013978,-0.0077391,0.013623
-0.0083691,-0.019168,-0.022833,0.043748,-0.034659,-0.20866,-0.030217,-0.019276,-0.012031,-0.012958,-0.019869,-0.053607,0.0015782,0.035052,0.014962,0.13235,0.0010067,-0.010085,0.011557,0.03878,0.0014596,-0.010401,-0.00435,0.0095637
-0.0092299,-0.021652,-0.023655,0.043173,-0.043614,-0.21253,-0.027029,-0.016195,-0.017579,-0.012586,-0.010617,-0.053447,-0.00062106,0.035423,0.011759,0.13245,0.0010291,-0.0084706,0.011479,0.040711,0.0016827,-0.0053691,0.00041529,0.012085
-0.0052284,-0.025005,-0.021791,0.041978,-0.048583,-0.20609,-0.023418,-0.019096,-0.016625,-0.013699,-0.0015381,-0.052846,-0.004251,0.033817,0.007676,0.12535,0.0013766,-0.0083051,0.012971,0.040211,0.0023369,-0.0019744,0.0035684,0.020724
-0.00031472,-0.026389,-0.018469,0.038432,-0.05067,-0.19189,-0.021837,-0.025507,-0.01038,-0.013955,0.0022224,-0.0539,-0.0081698,0.031334,0.0047284,0.11119,0.001602,-0.010097,0.016767,0.034256,0.0024048,-0.0011566,0.0035168,0.031349
0.00095579,-0.023841,-0.0158,0.032108,-0.052813,-0.17302,-0.022988,-0.030248,-0.0034782,-0.011807,-0.0023667,-0.059281,-0.010395,0.027962,0.005783,0.093301,0.00066132,-0.013607,0.021216,0.022436,0.0015502,-0.0016557,0.0010345,0.039809
-0.0026695,-0.018036,-0.015252,0.024718,-0.056613,-0.15183,-0.025132,-0.028563,-0.00031088,-0.0076426,-0.01326,-0.070071,-0.0097647,0.022496,0.011889,0.076819,-0.0015881,-0.01784,0.023878,0.0073878,0.00058628,-0.0018384,-0.0018818,0.044566
-0.0081998,-0.011896,-0.016783,0.018889,-0.06036,-0.12969,-0.025562,-0.019299,-0.0018356,-0.003705,-0.024157,-0.084694,-0.0065053,0.014102,0.020815,0.065814,-0.0036492,-0.021262,0.02358,-0.0066034,0.00099713,-0.0013848,-0.0039846,0.04653
-0.01115,-0.0084722,-0.019196,0.016,-0.060158,-0.10736,-0.022952,-0.0056639,-0.005396,-0.0028216,-0.029007,-0.099689,-0.0014922,0.0039996,0.028409,0.060733,-0.0034563,-0.022464,0.021222,-0.015867,0.0038034,-0.0012571,-0.0055576,0.047238
-0.0094494,-0.0089342,-0.021142,0.015036,-0.053337,-0.085297,-0.018485,0.0070805,-0.007395,-0.0065781,-0.02653,-0.11132,0.0046286,-0.0048077,0.031854,0.058274,-0.00047379,-0.021031,0.018786,-0.018785,0.0085937,-0.0022659,-0.0073149,0.047564
-0.0050721,-0.012169,-0.021779,0.013504,-0.0413,-0.063607,-0.014758,0.01531,-0.0062769,-0.01407,-0.020759,-0.11663,0.011369,-0.010008,0.032083,0.054011,0.0031987,-0.017977,0.01762,-0.01553,0.013469,-0.003933,-0.0087961,0.04792
-0.0020782,-0.015956,-0.020717,0.0095772,-0.029286,-0.041932,-0.013525,0.019387,-0.0032996,-0.022169,-0.017194,-0.11373,0.017591,-0.012433,0.033235,0.045871,0.0040451,-0.015191,0.017497,-0.0068376,0.016057,-0.0048935,-0.0082702,0.04896
-0.0029792,-0.018506,-0.017796,0.0036902,-0.023013,-0.019624,-0.014351,0.022944,-0.00083435,-0.027272,-0.01814,-0.1023,0.02123,-0.015775,0.039481,0.035647,-6.9268e-005,-0.014182,0.017133,0.0065776,0.015058,-0.0043719,-0.0045812,0.051489
-0.0066946,-0.019223,-0.013308,-0.0017089,-0.024715,0.0037968,-0.015297,0.02969,-0.00013864,-0.027391,-0.021383,-0.084526,0.020393,-0.02328,0.051684,0.027266,-0.0078226,-0.015115,0.015481,0.023213,0.01135,-0.0031085,0.00088868,0.055518
-0.0098199,-0.018521,-0.0084744,-0.0040517,-0.031663,0.028338,-0.014792,0.040181,-0.000671,-0.023118,-0.023019,-0.065365,0.015122,-0.034343,0.066431,0.023209,-0.014956,-0.01695,0.012557,0.039656,0.0077718,-0.0026913,0.0044681,0.059702
-0.0099268,-0.017257,-0.0052571,-0.0027644,-0.038359,0.053745,-0.012792,0.05109,-0.0011859,-0.016897,-0.021313,-0.050725,0.0081063,-0.044456,0.077988,0.022079,-0.017172,-0.0185,0.0091453,0.051006,0.0074309,-0.003942,0.0029514,0.0621
-0.007866,-0.016293,-0.0051134,-1.0854e-005,-0.040755,0.079984,-0.010233,0.057663,-0.0011167,-0.011358,-0.017826,-0.043901,0.0032265,-0.048999,0.081618,0.019344,-0.013232,-0.019329,0.0057957,0.053413,0.011426,-0.0060537,-0.003497,0.06178
-0.0069891,-0.016277,-0.0075416,0.00056534,-0.039242,0.10732,-0.0075661,0.057591,-0.00082076,-0.0080502,-0.01511,-0.043092,0.0027865,-0.04752,0.075981,0.010595,-0.0058623,-0.019691,0.0021503,0.047012,0.017634,-0.0074587,-0.011151,0.05977
-0.0099422,-0.017498,-0.0099685,-0.0036986,-0.038063,0.13558,-0.0040964,0.05327,-0.00077661,-0.0072929,-0.013803,-0.042573,0.0056465,-0.044354,0.063337,-0.0053199,0.00020706,-0.019747,-0.0027597,0.036544,0.021804,-0.0075845,-0.015685,0.058345
-0.015839,-0.019801,-0.009547,-0.012575,-0.041555,0.16299,0.0010944,0.050488,-0.00094895,-0.0087756,-0.012336,-0.037173,0.0079591,-0.044764,0.047869,-0.025592,0.0015349,-0.019077,-0.009539,0.028589,0.02057,-0.0076208,-0.015652,0.059213
-0.020377,-0.022668,-0.0055602,-0.023068,-0.050208,0.18583,0.007602,0.054341,-0.001084,-0.012042,-0.0094875,-0.026468,0.0060858,-0.050074,0.033407,-0.045322,-0.0018959,-0.017064,-0.017715,0.027228,0.014224,-0.0093222,-0.013266,0.062094
-0.019023,-0.025405,-0.00024569,-0.031576,-0.059791,0.19956,0.013261,0.065426,-0.0013902,-0.016474,-0.0068202,-0.01504,-0.00059998,-0.056406,0.021812,-0.060283,-0.0071833,-0.013709,-0.026006,0.031557,0.0068726,-0.012924,-0.011851,0.064833
-0.010813,-0.027264,0.0029233,-0.036444,-0.064507,0.20132,0.015524,0.079322,-0.0025496,-0.021113,-0.0080725,-0.0086149,-0.0092718,-0.058211,0.012691,-0.068726,-0.011014,-0.0099157,-0.0334,0.037078,0.0035107,-0.016358,-0.012586,0.064926
0.00033241,-0.027464,0.0021269,-0.038802,-0.061779,0.19212,0.013555,0.08976,-0.0048931,-0.024856,-0.015699,-0.0096108,-0.015866,-0.053267,0.0044037,-0.071596,-0.012039,-0.0069042,-0.04005,0.039738,0.0062061,-0.016854,-0.013771,0.061286
0.0080088,-0.025302,-0.0013006,-0.040968,-0.054772,0.17683,0.009102,0.092927,-0.0077385,-0.027012,-0.027855,-0.015908,-0.018069,-0.044391,-0.004222,-0.071664,-0.011273,-0.0053532,-0.047032,0.039185,0.012555,-0.013609,-0.013149,0.055019
0.0077414,-0.020568,-0.0041049,-0.043845,-0.050293,0.16178,0.0052481,0.089481,-0.0098464,-0.027725,-0.038935,-0.023399,-0.016652,-0.036387,-0.012528,-0.072175,-0.010478,-0.005087,-0.05494,0.038652,0.017711,-0.0089459,-0.010706,0.048726
0.00013628,-0.014013,-0.0039212,-0.0458,-0.053463,0.15131,0.0039812,0.08297,-0.010667,-0.027772,-0.043503,-0.02936,-0.014252,-0.031361,-0.01805,-0.075295,-0.010211,-0.0054127,-0.062416,0.041947,0.018194,-0.0066009,-0.0089424,0.044777
-0.0095864,-0.0073456,-0.0010893,-0.044274,-0.063323,0.14588,0.0046044,0.076447,-0.010999,-0.027847,-0.040194,-0.033465,-0.012867,-0.027082,-0.018167,-0.080754,-0.0093836,-0.0055366,-0.066036,0.050388,0.014198,-0.008506,-0.010362,0.043645
-0.015287,-0.0024929,0.0020755,-0.038789,-0.072996,0.14301,0.0042794,0.070437,-0.012159,-0.027923,-0.032225,-0.036264,-0.012338,-0.020028,-0.012377,-0.085579,-0.0066639,-0.0046393,-0.062077,0.062242,0.0086626,-0.013017,-0.014786,0.043412
-0.014077,-0.00053773,0.003683,-0.032516,-0.074441,0.1403,0.00025364,0.063823,-0.014361,-0.027257,-0.024221,-0.037625,-0.011027,-0.010102,-0.0033801,-0.085743,-0.0022604,-0.0018846,-0.049142,0.074567,0.004425,-0.016304,-0.019288,0.040954
-0.007972,-0.0011665,0.0039814,-0.030601,-0.064143,0.13777,-0.0079609,0.056257,-0.016026,-0.024994,-0.018391,-0.037241,-0.0078799,-0.0022313,0.0041117,-0.079173,0.0017806,0.0031253,-0.02975,0.085283,0.002276,-0.015715,-0.020813,0.03421
-0.0020312,-0.0030424,0.004815,-0.036316,-0.045389,0.1377,-0.018043,0.049314,-0.014935,-0.02082,-0.013404,-0.036359,-0.0038169,-0.0029518,0.0061844,-0.068033,0.0032076,0.0095706,-0.0095787,0.093518,0.0014536,-0.012035,-0.018881,0.024041
-0.00054476,-0.0047294,0.0074703,-0.048158,-0.025665,0.14196,-0.026271,0.045072,-0.010348,-0.01512,-0.006631,-0.038061,-0.0011158,-0.014803,0.0020211,-0.058109,0.0016489,0.015171,0.005317,0.098445,0.0014305,-0.0086218,-0.015818,0.01415
-0.0041202,-0.0053957,0.011061,-0.060424,-0.011497,0.14959,-0.029855,0.043611,-0.0040941,-0.0085444,0.0026549,-0.044857,-0.0013661,-0.033518,-0.0060765,-0.055267,-0.00091017,0.01714,0.011539,0.098447,0.0026937,-0.008294,-0.014421,0.0087493
-0.0096618,-0.0049004,0.013037,-0.066968,-0.0047506,0.15702,-0.028682,0.042226,0.00048944,-0.0014968,0.012183,-0.055624,-0.0039473,-0.050571,-0.014798,-0.061555,-0.0018892,0.013892,0.0097431,0.091961,0.0056355,-0.010924,-0.015382,0.0094404
-0.01301,-0.0035293,0.011387,-0.065292,-0.0026928,0.16108,-0.025366,0.037577,0.00096667,0.0059454,0.018527,-0.0653,-0.0065384,-0.058979,-0.022155,-0.074099,-0.00057027,0.0061427,0.0037452,0.079346,0.0090224,-0.013927,-0.016813,0.013708
-0.012089,-0.0018383,0.0065271,-0.057963,-0.00094962,0.16193,-0.023574,0.02898,-0.0024492,0.013583,0.019968,-0.068398,-0.0072857,-0.057597,-0.028133,-0.087658,0.0011292,-0.0035176,-0.0017853,0.06383,0.010152,-0.015009,-0.016126,0.016485
-0.0081732,-0.00065943,0.0011367,-0.050493,0.0033862,0.16325,-0.025585,0.019689,-0.007188,0.020627,0.01771,-0.063605,-0.0066576,-0.050805,-0.033467,-0.098539,0.00049381,-0.012232,-0.0034914,0.050343,0.0070043,-0.014399,-0.012441,0.013896
-0.0044551,-0.00090803,-0.0019544,-0.047471,0.010648,0.16897,-0.030592,0.014646,-0.010245,0.02582,0.014541,-0.055251,-0.0071727,-0.044617,-0.038036,-0.10652,-0.0031223,-0.018319,-0.00025578,0.042926,0.00037882,-0.014407,-0.0074953,0.0063292
-0.0032639,-0.0029815,-0.0020056,-0.049776,0.019587,0.17974,-0.034996,0.016479,-0.010093,0.02827,0.012431,-0.050111,-0.011,-0.043023,-0.040474,-0.11346,-0.0071623,-0.021619,0.0071638,0.042643,-0.0062942,-0.016847,-0.0044395,-0.001834
-0.0043241,-0.0061501,-0.00078994,-0.0546,0.029037,0.1926,-0.034725,0.023261,-0.0072445,0.028372,0.011331,-0.052177,-0.017376,-0.047446,-0.039262,-0.12044,-0.0078032,-0.022927,0.017096,0.047311,-0.0095863,-0.02102,-0.0055517,-0.0058805
-0.005459,-0.008663,-0.00083929,-0.057906,0.038845,0.20452,-0.028194,0.030079,-0.0034764,0.02796,0.0099967,-0.059815,-0.022157,-0.058876,-0.034127,-0.12645,-0.003434,-0.023332,0.027743,0.052904,-0.0088047,-0.024327,-0.010497,-0.0049444
-0.0049529,-0.0088256,-0.0030398,-0.057347,0.049671,0.21661,-0.017738,0.033055,-0.00064885,0.029285,0.0076704,-0.067454,-0.020279,-0.079692,-0.026459,-0.12979,0.0034785,-0.023835,0.03746,0.055426,-0.0062704,-0.024883,-0.016246,-0.0030798
-0.0032902,-0.0063698,-0.0056886,-0.053682,0.062221,0.23459,-0.0081952,0.03224,4.8637e-005,0.03338,0.004863,-0.069968,-0.0095411,-0.11278,-0.018462,-0.13046,0.0080219,-0.024904,0.044636,0.052268,-0.0049149,-0.023382,-0.018761,-0.0060358
-0.0025978,-0.0029433,-0.0058954,-0.049941,0.076665,0.26413,-0.0034398,0.030927,-0.0016227,0.038977,0.0026533,-0.06592,0.0071388,-0.1583,-0.011858,-0.13067,0.0067388,-0.025798,0.047564,0.04272,-0.0055285,-0.02221,-0.015592,-0.016269
-0.0043215,-0.0010886,-0.0022118,-0.049121,0.092687,0.30477,-0.0034206,0.03223,-0.0048395,0.042871,0.0015251,-0.057396,0.022929,-0.21076,-0.0071741,-0.13272,0.00045349,-0.02435,0.044609,0.027825,-0.0062496,-0.022672,-0.00783,-0.030476
-0.0074143,-0.002328,0.0037254,-0.052091,0.11002,0.34748,-0.0041712,0.036267,-0.0077962,0.041673,0.0010498,-0.047397,0.031182,-0.25907,-0.0040127,-0.13635,-0.0064309,-0.018189,0.034811,0.0097034,-0.0046482,-0.023322,7.4698e-005,-0.041915
-0.0088978,-0.0058544,0.0080117,-0.057069,0.12894,0.37863,-0.0009561,0.040517,-0.0083698,0.033869,0.00059171,-0.037528,0.029572,-0.29004,-0.0019417,-0.13837,-0.009528,-0.0071737,0.018723,-0.0094446,-0.00026751,-0.021353,0.0030058,-0.045632
-0.0064212,-0.009003,0.0072615,-0.060907,0.1502,0.38751,0.0079077,0.042795,-0.0054241,0.020849,2.7093e-005,-0.027738,0.021273,-0.29374,-0.0013156,-0.13564,-0.0078332,0.0049599,-0.0010061,-0.028187,0.0048296,-0.015832,-0.0011415,-0.042097
-0.00050051,-0.0092777,0.0012564,-0.061184,0.17413,0.37197,0.019698,0.043721,4.5357e-005,0.0062399,-0.00043645,-0.017608,0.012388,-0.26798,-0.0034794,-0.12896,-0.0040606,0.011916,-0.019946,-0.045921,0.0079339,-0.0093872,-0.0095149,-0.036235
0.0056619,-0.0063522,-0.0066099,-0.057668,0.19939,0.33828,0.029539,0.04613,0.0050731,-0.0060068,-0.0010548,-0.0074721,0.0077397,-0.21994,-0.010183,-0.12402,-0.0018948,0.0090534,-0.033369,-0.06201,0.0080814,-0.0063106,-0.015955,-0.03303
0.0086865,-0.0023586,-0.011507,-0.052248,0.22252,0.29612,0.034354,0.051911,0.0065054,-0.013534,-0.0028145,0.0016562,0.0082771,-0.16388,-0.022407,-0.12794,-0.0027149,-0.0025551,-0.038389,-0.074823,0.0066786,-0.0086313,-0.015384,-0.033854
0.007668,-0.00014207,-0.010409,-0.047573,0.23899,0.25282,0.035166,0.059372,0.0032597,-0.016355,-0.0065569,0.0089598,0.011795,-0.11561,-0.039164,-0.1436,-0.0045852,-0.015952,-0.035484,-0.081888,0.0058861,-0.014025,-0.0076433,-0.036621
0.0047069,-0.0009145,-0.004046,-0.045441,0.24554,0.2106,0.035849,0.063779,-0.0027433,-0.016168,-0.011715,0.01446,0.015781,-0.085871,-0.057057,-0.16611,-0.0041637,-0.022871,-0.02822,-0.081543,0.006451,-0.017809,0.0023814,-0.038946
0.0029978,-0.0033336,0.0037963,-0.045957,0.24229,0.16795,0.039499,0.060726,-0.0078481,-0.01488,-0.016093,0.01896,0.01961,-0.075816,-0.071195,-0.1847,0.00031519,-0.019756,-0.021088,-0.074879,0.0071276,-0.017258,0.0085309,-0.040729
0.0042592,-0.0048268,0.0090175,-0.047773,0.2328,0.12288,0.045588,0.04935,-0.0092025,-0.01344,-0.01721,0.023605,0.024356,-0.077582,-0.077295,-0.189,0.0075256,-0.01029,-0.016842,-0.066017,0.0061927,-0.014014,0.0079701,-0.043595
0.0076656,-0.0039657,0.0098894,-0.049012,0.2217,0.075375,0.050332,0.03264,-0.0065833,-0.011733,-0.014128,0.029493,0.03099,-0.079796,-0.073826,-0.17535,0.014093,-0.0022008,-0.015218,-0.059858,0.0034831,-0.012184,0.0028432,-0.048276
0.010914,-0.0017173,0.0077701,-0.048257,0.21157,0.027664,0.04993,0.014885,-0.0021843,-0.0094042,-0.0080244,0.037351,0.039149,-0.074549,-0.062642,-0.14884,0.017132,-0.00097138,-0.013876,-0.058697,0.0008628,-0.013994,-0.0021664,-0.053158
0.01218,-0.00042729,0.0055719,-0.045207,0.20148,-0.017376,0.043891,-0.0011855,0.0012338,-0.0067934,-0.00095327,0.047098,0.047742,-0.060853,-0.047495,-0.11989,0.016198,-0.0057444,-0.010539,-0.060477,0.00056279,-0.017395,-0.0039721,-0.055763
0.011205,-0.0015179,0.0054465,-0.040874,0.18849,-0.058129,0.035622,-0.015131,0.0022281,-0.0051371,0.005967,0.057432,0.05642,-0.042174,-0.031467,-0.09821,0.013301,-0.010709,-0.0044217,-0.06043,0.0029329,-0.018114,-0.0032262,-0.055506
0.0089006,-0.0040924,0.0075476,-0.037257,0.1709,-0.095024,0.029771,-0.027383,0.0012541,-0.0058316,0.013031,0.066027,0.065962,-0.020586,-0.015492,-0.088162,0.011248,-0.010454,0.0040764,-0.0551,0.0057839,-0.014152,-0.0028393,-0.054504
0.0062964,-0.0057541,0.010549,-0.036401,0.15026,-0.12958,0.028506,-0.037697,-0.00012348,-0.0093371,0.020572,0.070633,0.076823,0.0068024,0.0006883,-0.087873,0.011702,-0.0044719,0.014595,-0.045602,0.0060592,-0.0081819,-0.0046409,-0.055303
0.004006,-0.0048212,0.01303,-0.039062,0.13028,-0.16236,0.029774,-0.045179,-0.00044833,-0.014625,0.027252,0.070569,0.087229,0.045343,0.016057,-0.0915,0.014231,0.0028763,0.02723,-0.037433,0.0024178,-0.0052909,-0.0074861,-0.057862
0.0024476,-0.0018039,0.01434,-0.043718,0.11377,-0.19122,0.028921,-0.049549,0.00090334,-0.019696,0.030135,0.067464,0.093004,0.096091,0.026949,-0.092356,0.016746,0.006379,0.041428,-0.036868,-0.0035426,-0.0081127,-0.0084977,-0.059138
0.0020588,0.0012143,0.014429,-0.046929,0.10027,-0.2115,0.022303,-0.051848,0.0036995,-0.022886,0.026942,0.064487,0.089776,0.15098,0.028685,-0.085223,0.016811,0.0040726,0.054585,-0.04667,-0.0084777,-0.014058,-0.0060415,-0.056021
0.002865,0.0026062,0.01329,-0.045328,0.086872,-0.21827,0.0099278,-0.053592,0.007188,-0.024054,0.018577,0.064405,0.075947,0.1951,0.019276,-0.067645,0.012988,-0.002015,0.062314,-0.064223,-0.0098495,-0.017445,-0.0014704,-0.048796
0.0038326,0.0026464,0.010862,-0.03815,0.071295,-0.20945,-0.0049211,-0.055286,0.010459,-0.024682,0.0093455,0.067859,0.053989,0.2152,0.0019566,-0.040622,0.0055867,-0.0084418,0.060984,-0.083153,-0.0077056,-0.014688,0.0019999,-0.041551
0.0031059,0.0030464,0.0074236,-0.028245,0.054457,-0.18768,-0.018579,-0.056055,0.012766,-0.026677,0.0042969,0.073112,0.029044,0.20825,-0.016103,-0.0085661,-0.003417,-0.013281,0.050749,-0.09688,-0.0043563,-0.0077666,0.0021266,-0.038916
-0.00049804,0.0051489,0.0037887,-0.02033,0.040141,-0.1594,-0.029803,-0.054895,0.013799,-0.030668,0.0058094,0.077411,0.0061271,0.18322,-0.0283,0.022203,-0.01122,-0.016686,0.036301,-0.10151,-0.0024379,-0.0027401,-0.0004813,-0.042112
-0.0058894,0.0085724,0.00087792,-0.017417,0.032059,-0.13169,-0.040063,-0.052083,0.01375,-0.035154,0.012294,0.078859,-0.011883,0.15527,-0.032652,0.04646,-0.01544,-0.019183,0.024167,-0.096688,-0.003041,-0.0045732,-0.0030389,-0.047991
