2.566e-010,8.5082e-010,4.3795e-010,7.5436e-010,-4.0323e-010,6.6947e-010,3.4535e-010,-3.6078e-010,-1.2155e-010,7.1191e-010,5.4599e-010,1.0322e-009,-4.3024e-010,9.5501e-010,8.0066e-010,8.9713e-010,-6.3667e-011,6.0001e-010,4.7654e-010,7.5436e-010,4.611e-010,6.5403e-010,9.0484e-010,1.4836e-009
7.1293e-009,2.3535e-008,1.223e-008,2.0973e-008,-1.1428e-008,1.8839e-008,9.5818e-009,-1.012e-008,-3.1774e-009,1.9572e-008,1.5508e-008,2.872e-008,-1.158e-008,2.6105e-008,2.206e-008,2.4791e-008,-1.5819e-009,1.6712e-008,1.3188e-008,2.0853e-008,1.2819e-008,1.8232e-008,2.495e-008,4.0967e-008
9.6207e-008,3.1628e-007,1.6625e-007,2.8365e-007,-1.5736e-007,2.5783e-007,1.2942e-007,-1.3782e-007,-4.0112e-008,2.6154e-007,2.1406e-007,3.8874e-007,-1.5131e-007,3.4678e-007,2.956e-007,3.3272e-007,-1.8911e-008,2.2624e-007,1.7767e-007,2.8044e-007,1.7321e-007,2.4719e-007,3.3459e-007,5.4984e-007
8.4008e-007,2.7508e-006,1.4657e-006,2.4866e-006,-1.4025e-006,2.2862e-006,1.1338e-006,-1.2137e-006,-3.2549e-007,2.2632e-006,1.9126e-006,3.4105e-006,-1.2784e-006,2.9827e-006,2.5667e-006,2.8891e-006,-1.4477e-007,1.9831e-006,1.5528e-006,2.4443e-006,1.5152e-006,2.1718e-006,2.9076e-006,4.7784e-006
5.3353e-006,1.7398e-005,9.419e-006,1.5882e-005,-9.094e-006,1.4761e-005,7.2412e-006,-7.7677e-006,-1.9057e-006,1.4253e-005,1.243e-005,2.1798e-005,-7.8493e-006,1.8671e-005,1.6231e-005,1.8238e-005,-7.9693e-007,1.2651e-005,9.8954e-006,1.552e-005,9.642e-006,1.3899e-005,1.8403e-005,3.022e-005
2.6261e-005,8.5238e-005,4.7007e-005,7.8763e-005,-4.5704e-005,7.3933e-005,3.5918e-005,-3.8482e-005,-8.563e-006,6.9612e-005,6.2592e-005,0.00010815,-3.7309e-005,9.0626e-005,7.9647e-005,8.9168e-005,-3.3594e-006,6.2569e-005,4.9001e-005,7.6481e-005,4.7544e-005,6.9033e-005,9.0395e-005,0.00014818
0.00010423,0.00033637,0.00018951,0.00031553,-0.00018519,0.00029879,0.00014393,-0.00015348,-3.0639e-005,0.00027424,0.00025399,0.00043334,-0.00014276,0.00035483,0.00031547,0.00035111,-1.1287e-005,0.00024958,0.00019616,0.00030426,0.00018889,0.00027682,0.00035847,0.00058589
0.00034269,0.0010974,0.0006337,0.0010487,-0.00062119,0.0010004,0.00047836,-0.00050583,-8.9281e-005,0.00089478,0.00085259,0.0014398,-0.0004514,0.0011507,0.0010357,0.001143,-3.1127e-005,0.00082433,0.00065201,0.0010033,0.00062053,0.0009203,0.0011784,0.001918
0.0009512,0.0030133,0.0017905,0.0029466,-0.0017568,0.0028262,0.0013431,-0.0014028,-0.00021437,0.0024629,0.0024111,0.0040416,-0.0012008,0.0031487,0.0028705,0.0031322,-7.2374e-005,0.0022965,0.0018332,0.0027932,0.001716,0.0025838,0.0032711,0.0052943
0.0022602,0.0070494,0.0043309,0.0070929,-0.0042434,0.0068242,0.0032268,-0.0033149,-0.00042433,0.0057935,0.0058186,0.009711,-0.0027206,0.0073644,0.0068053,0.0073163,-0.00014629,0.0054665,0.0044185,0.0066503,0.0040429,0.0062068,0.0077676,0.012481
0.0046453,0.014161,0.009051,0.014766,-0.0088304,0.014207,0.0066929,-0.0067284,-0.00068029,0.011749,0.012087,0.020156,-0.0052908,0.014853,0.013925,0.014685,-0.00026772,0.011218,0.009215,0.013662,0.0081768,0.012871,0.015916,0.025348
0.0083206,0.024522,0.01644,0.026756,-0.015913,0.025634,0.012051,-0.011781,-0.00082876,0.020655,0.02173,0.036348,-0.0088663,0.025974,0.024729,0.025438,-0.00046546,0.019954,0.016731,0.024349,0.014246,0.023167,0.028288,0.04457
0.013063,0.036597,0.026038,0.042349,-0.024878,0.04016,0.018891,-0.017799,-0.00057719,0.031546,0.033887,0.057116,-0.012802,0.039465,0.038219,0.038041,-0.00079667,0.030835,0.026531,0.037747,0.021362,0.036276,0.043675,0.067951
0.018056,0.04683,0.035982,0.058639,-0.033674,0.054526,0.025793,-0.023086,0.00044371,0.041825,0.045814,0.078203,-0.015851,0.05204,0.051384,0.048884,-0.0013376,0.041352,0.036769,0.050899,0.027394,0.049358,0.058437,0.089612
0.022084,0.050766,0.043325,0.071023,-0.039201,0.063744,0.030651,-0.025378,0.0025144,0.047951,0.053511,0.09304,-0.01666,0.059288,0.059903,0.053335,-0.002112,0.047887,0.044452,0.059566,0.029616,0.058066,0.067232,0.10147
0.024106,0.045577,0.045355,0.075263,-0.038736,0.063367,0.031742,-0.022979,0.0056167,0.047232,0.05371,0.09572,-0.014625,0.057927,0.060198,0.048161,-0.0029586,0.047429,0.04671,0.060367,0.026246,0.0585,0.065477,0.097193
0.023918,0.032558,0.041358,0.070216,-0.031762,0.052473,0.029046,-0.015983,0.0092998,0.03977,0.046209,0.084895,-0.010566,0.048248,0.051854,0.03398,-0.0034286,0.039617,0.042563,0.053254,0.018041,0.049777,0.052438,0.076707
0.022398,0.017464,0.033555,0.059259,-0.020877,0.03526,0.024772,-0.0065723,0.01274,0.029006,0.034717,0.065819,-0.0065585,0.0348,0.038542,0.015761,-0.002862,0.02759,0.033973,0.042392,0.00855,0.035381,0.032768,0.047684
0.020988,0.0076094,0.026178,0.048813,-0.01072,0.01946,0.022321,0.0021423,0.015032,0.019966,0.024988,0.04825,-0.0047622,0.024138,0.026228,0.00039893,-0.00071077,0.016616,0.02511,0.034087,0.0022613,0.021781,0.014727,0.022021
0.020644,0.0071949,0.0229,0.044364,-0.005249,0.011918,0.024016,0.0081578,0.015626,0.01608,0.021128,0.040722,-0.0059526,0.020644,0.019456,-0.0073701,0.0030428,0.011028,0.019934,0.032666,0.0015335,0.014641,0.005537,0.008799
0.020989,0.014281,0.024379,0.046717,-0.0051646,0.014197,0.029146,0.011941,0.0147,0.016892,0.022824,0.044939,-0.0088701,0.023373,0.018345,-0.00781,0.0076932,0.011546,0.019685,0.037246,0.0046377,0.015129,0.0068277,0.0086309
0.020468,0.022085,0.027876,0.051577,-0.0075131,0.021585,0.033965,0.015836,0.013212,0.018636,0.02597,0.05469,-0.011037,0.026642,0.018797,-0.0055587,0.012066,0.015051,0.022241,0.042248,0.006825,0.01923,0.013632,0.013872
0.017584,0.023991,0.029468,0.053132,-0.0079187,0.026573,0.033974,0.021749,0.012479,0.017406,0.026391,0.060575,-0.010515,0.024351,0.01598,-0.0059847,0.015077,0.017095,0.02404,0.041697,0.0039985,0.020958,0.01801,0.014763
0.012368,0.018419,0.027159,0.048873,-0.0038137,0.024346,0.026973,0.028942,0.013399,0.012364,0.023525,0.057114,-0.0072351,0.014825,0.0083348,-0.011426,0.016172,0.015216,0.023094,0.034032,-0.0038971,0.017129,0.014735,0.0066757
0.0068239,0.0095921,0.02234,0.04153,0.0038181,0.016022,0.014647,0.033961,0.015789,0.0062396,0.020634,0.046594,-0.0028425,0.0021824,-0.0012424,-0.020182,0.015324,0.010461,0.020543,0.023381,-0.012792,0.0098633,0.0047038,-0.0073444
0.0037345,0.0036026,0.018332,0.036348,0.011439,0.0071662,0.0015656,0.033115,0.018339,0.0026768,0.021202,0.036435,0.00074743,-0.007058,-0.0079892,-0.028642,0.012774,0.0060266,0.019339,0.016064,-0.018017,0.0046399,-0.0064902,-0.02045
0.0045675,0.0032138,0.017307,0.036095,0.015726,0.002959,-0.0075743,0.02571,0.019376,0.0028312,0.024812,0.032298,0.0027714,-0.009323,-0.0093474,-0.034315,0.0089509,0.0043174,0.021127,0.015265,-0.018413,0.0054371,-0.01339,-0.028395
0.0081789,0.0058699,0.018322,0.03838,0.015839,0.0041097,-0.010445,0.015331,0.017997,0.0043129,0.026596,0.032818,0.0038464,-0.0066949,-0.0069545,-0.037072,0.0047822,0.0050043,0.024188,0.018481,-0.017252,0.011053,-0.014742,-0.032618
0.011535,0.0064594,0.01821,0.03783,0.013601,0.0068095,-0.0078385,0.0078746,0.014757,0.0034485,0.021197,0.030558,0.0050137,-0.0046707,-0.0049452,-0.037882,0.0018962,0.0056173,0.024475,0.019948,-0.019028,0.015823,-0.013573,-0.037557
0.012014,0.0021486,0.014475,0.031153,0.011814,0.0064568,-0.0026536,0.0076038,0.011326,-0.0012213,0.007916,0.018538,0.0066933,-0.0071079,-0.0062197,-0.036764,0.0020435,0.0039522,0.019081,0.015783,-0.025054,0.014244,-0.01372,-0.045311
0.0093897,-0.0050929,0.0075696,0.02034,0.012289,0.001733,0.00185,0.014289,0.0093051,-0.0074362,-0.0077179,-0.0030894,0.0085544,-0.012999,-0.010001,-0.032207,0.0057441,2.4257e-005,0.0091132,0.0072499,-0.032016,0.0056279,-0.016242,-0.053122
0.0057505,-0.010378,0.00052389,0.010916,0.015007,-0.004479,0.0034981,0.023702,0.0090855,-0.011093,-0.01771,-0.025876,0.010228,-0.017895,-0.0127,-0.022776,0.011267,-0.0041563,-0.00068195,-0.00060319,-0.034897,-0.0051828,-0.018906,-0.056193
0.0034158,-0.010272,-0.0036531,0.0067867,0.018649,-0.007931,0.0019211,0.031026,0.0096855,-0.0098025,-0.017728,-0.038589,0.011909,-0.018374,-0.011164,-0.0093139,0.015265,-0.0066485,-0.0054279,-0.00342,-0.031559,-0.011697,-0.018801,-0.052932
0.0027512,-0.0056476,-0.0044413,0.006462,0.021736,-0.0069325,-0.0015201,0.034309,0.0096998,-0.0049346,-0.010409,-0.035229,0.014145,-0.015169,-0.0054527,0.0045255,0.015118,-0.0074686,-0.0038234,-0.00092763,-0.024729,-0.010996,-0.015333,-0.047214
0.0019161,-0.00064736,-0.0040134,0.0042475,0.023469,-0.003875,-0.0046011,0.035125,0.0085621,-0.00039775,-0.0030065,-0.019396,0.017096,-0.012098,0.0011372,0.014299,0.011252,-0.0084967,0.0010933,0.0036218,-0.019605,-0.0059401,-0.01076,-0.045098
-0.0012303,0.0010372,-0.0051367,-0.0045897,0.023887,-0.003091,-0.0056722,0.036109,0.0069993,0.00064786,-0.0014584,-0.0017883,0.020178,-0.012122,0.0046753,0.017904,0.0071994,-0.011478,0.0046515,0.0069742,-0.019393,-0.0025944,-0.0079968,-0.048952
-0.0069094,-0.00087761,-0.0087148,-0.019311,0.023478,-0.0069938,-0.0048993,0.03785,0.0062488,-0.0018182,-0.0059323,0.0071538,0.022474,-0.014573,0.0036044,0.01718,0.0068946,-0.016004,0.004221,0.0087361,-0.022853,-0.0051858,-0.007954,-0.05465
-0.013065,-0.0035344,-0.013075,-0.033905,0.022593,-0.013888,-0.0042739,0.038126,0.0067492,-0.0051817,-0.011495,0.003937,0.023434,-0.016174,-0.00025838,0.016472,0.011269,-0.01943,0.00069119,0.010936,-0.025893,-0.012812,-0.0089279,-0.054851
-0.017239,-0.0038593,-0.015483,-0.041797,0.021056,-0.019337,-0.006049,0.03425,0.0075648,-0.0069123,-0.013011,-0.0066183,0.023098,-0.014572,-0.0033931,0.019193,0.017175,-0.018938,-0.0031599,0.015066,-0.025498,-0.020464,-0.0084191,-0.04561
-0.018855,-0.0013589,-0.014489,-0.040972,0.018283,-0.019907,-0.010624,0.026288,0.0071685,-0.006894,-0.0097942,-0.015833,0.021769,-0.010655,-0.0034524,0.025236,0.019846,-0.014022,-0.0054433,0.019825,-0.022345,-0.023204,-0.0055283,-0.030337
-0.019644,0.001582,-0.011155,-0.03521,0.013964,-0.016096,-0.01569,0.018006,0.0049007,-0.0072639,-0.0059717,-0.01775,0.019763,-0.007409,-0.0010072,0.031436,0.016916,-0.0072438,-0.006357,0.021938,-0.019865,-0.019926,-0.0017374,-0.017424
-0.021808,0.0018978,-0.0082704,-0.030759,0.0088532,-0.011968,-0.017667,0.014366,0.001694,-0.010021,-0.0064791,-0.012998,0.017647,-0.0067046,0.0011661,0.034621,0.010525,-0.0025948,-0.0070188,0.019288,-0.020815,-0.013821,0.00043223,-0.013595
-0.025768,-0.0015468,-0.0082827,-0.031579,0.004861,-0.011817,-0.014506,0.017559,-0.00072202,-0.014703,-0.012444,-0.0075491,0.016531,-0.0074506,0.00058242,0.034461,0.0056537,-0.0027774,-0.0076516,0.013248,-0.024511,-0.0096345,-0.00054287,-0.01881
-0.029778,-0.0070957,-0.011604,-0.037125,0.0039985,-0.016656,-0.0075405,0.024955,-0.0014488,-0.018343,-0.020126,-0.0078478,0.017606,-0.0070373,-0.0027373,0.033538,0.006133,-0.0075084,-0.0073181,0.0078735,-0.027151,-0.010222,-0.0042639,-0.026969
-0.031763,-0.011666,-0.0165,-0.043963,0.006766,-0.023439,-0.00066128,0.030837,-0.0013244,-0.01786,-0.024238,-0.016189,0.020978,-0.0044882,-0.0061227,0.034667,0.011744,-0.013984,-0.0054712,0.0065128,-0.024944,-0.014993,-0.0091237,-0.031349
-0.031445,-0.013007,-0.020525,-0.049186,0.01136,-0.027604,0.0026514,0.030604,-0.0021915,-0.012808,-0.022516,-0.029556,0.024927,-0.0019429,-0.006277,0.038119,0.018645,-0.018883,-0.0033999,0.008875,-0.017396,-0.020923,-0.013675,-0.029737
-0.030504,-0.01104,-0.022306,-0.052515,0.014681,-0.026771,0.0019425,0.024117,-0.0051891,-0.0060364,-0.017381,-0.04226,0.026746,-0.0027689,-0.0018336,0.041485,0.022411,-0.020284,-0.0036214,0.011177,-0.0080255,-0.024846,-0.01737,-0.025028
-0.030624,-0.0074835,-0.02236,-0.055705,0.014635,-0.022556,-0.00024776,0.015618,-0.0096974,-0.0015854,-0.013401,-0.049997,0.024835,-0.0080599,0.005567,0.042314,0.020975,-0.018296,-0.0074789,0.0092861,-0.0018277,-0.025252,-0.020308,-0.021536
-0.031538,-0.0043457,-0.022411,-0.060471,0.011861,-0.019099,-0.0010157,0.010422,-0.013929,-0.0015482,-0.013125,-0.052297,0.020238,-0.01503,0.012461,0.040851,0.015348,-0.014408,-0.013328,0.0021835,-0.001447,-0.022697,-0.022647,-0.020962
-0.031282,-0.0026106,-0.023869,-0.067026,0.0093136,-0.019652,0.00011012,0.011061,-0.016555,-0.0045442,-0.015256,-0.051982,0.016039,-0.019089,0.015979,0.039994,0.0081979,-0.01039,-0.017404,-0.0071349,-0.0050485,-0.019107,-0.024343,-0.021595
-0.028519,-0.0019791,-0.026673,-0.07426,0.0098151,-0.02408,0.00084608,0.015767,-0.017764,-0.0070702,-0.016655,-0.052594,0.014948,-0.01784,0.015577,0.042293,0.0019282,-0.007498,-0.01689,-0.013987,-0.0076313,-0.016687,-0.025253,-0.020819
-0.024476,-0.0015965,-0.029375,-0.080804,0.013604,-0.02918,-0.0013533,0.020142,-0.018792,-0.0065128,-0.015869,-0.055975,0.017209,-0.013288,0.012892,0.046876,-0.0023263,-0.0061664,-0.012449,-0.015591,-0.004842,-0.016914,-0.025193,-0.017921
-0.022251,-0.00098271,-0.030309,-0.085731,0.018002,-0.031373,-0.0063492,0.020456,-0.020511,-0.003225,-0.014543,-0.061569,0.020726,-0.01015,0.010117,0.049585,-0.0046657,-0.0060535,-0.0078065,-0.013067,0.0036438,-0.019791,-0.023815,-0.014441
-0.023913,-0.00041043,-0.028946,-0.088459,0.019588,-0.02947,-0.010826,0.016023,-0.022573,1.8309e-005,-0.01538,-0.067422,0.023197,-0.011733,0.008411,0.04664,-0.0060105,-0.0063571,-0.0066962,-0.010444,0.013824,-0.023603,-0.020685,-0.012093
-0.028247,-0.00055052,-0.026442,-0.088478,0.017093,-0.025383,-0.010933,0.0091851,-0.023954,0.00053983,-0.018917,-0.071704,0.024102,-0.017079,0.0075328,0.038603,-0.0077095,-0.0063928,-0.0098885,-0.011628,0.020388,-0.025513,-0.015807,-0.010686
-0.031603,-0.0018149,-0.025032,-0.085606,0.012546,-0.022413,-0.0057689,0.0033646,-0.024226,-0.0020219,-0.022638,-0.07365,0.024609,-0.021888,0.0066234,0.030697,-0.010996,-0.0061497,-0.014876,-0.017702,0.020637,-0.023087,-0.010192,-0.008183
-0.031244,-0.0040137,-0.026657,-0.080603,0.0096761,-0.0226,0.0014878,0.00091232,-0.024179,-0.0056142,-0.023452,-0.073636,0.025632,-0.022256,0.0050761,0.028692,-0.016163,-0.0062912,-0.018263,-0.026397,0.016208,-0.016046,-0.0057093,-0.0027211
-0.028028,-0.0066043,-0.031611,-0.075302,0.010914,-0.025159,0.0059549,0.0021945,-0.025102,-0.0076482,-0.021016,-0.072771,0.026189,-0.017838,0.0026008,0.033774,-0.021959,-0.0073884,-0.018528,-0.033875,0.011346,-0.0070097,-0.0040524,0.0054969
-0.025673,-0.0092345,-0.03795,-0.071766,0.015533,-0.027051,0.0049348,0.006126,-0.027501,-0.0070955,-0.018402,-0.072398,0.023957,-0.011736,-0.0013194,0.041092,-0.025979,-0.0089901,-0.0168,-0.037353,0.0093731,-0.00028918,-0.0055851,0.014233
-0.027159,-0.01197,-0.042093,-0.070901,0.020446,-0.025199,-2.3953e-005,0.011289,-0.030629,-0.0051089,-0.019253,-0.073607,0.017645,-0.0075316,-0.0075915,0.04356,-0.026219,-0.0095792,-0.015335,-0.03676,0.010358,0.00080837,-0.0091082,0.020997
-0.031669,-0.014886,-0.040527,-0.071636,0.022895,-0.018777,-0.0045833,0.016676,-0.033283,-0.0038873,-0.024181,-0.07676,0.0088774,-0.0063661,-0.01667,0.037715,-0.022802,-0.0077967,-0.015469,-0.034483,0.011786,-0.0036777,-0.012743,0.024838
-0.0351,-0.017401,-0.031905,-0.071421,0.022654,-0.010019,-0.005208,0.021759,-0.034978,-0.0048793,-0.02999,-0.081203,0.0014995,-0.0067008,-0.027316,0.026458,-0.018416,-0.0039735,-0.01692,-0.033606,0.011298,-0.010299,-0.015064,0.026609
-0.033773,-0.018215,-0.018347,-0.067802,0.021892,-0.0029592,-0.0018009,0.026227,-0.036146,-0.0076908,-0.032554,-0.085452,-0.0013931,-0.0066382,-0.036386,0.016276,-0.016785,-0.00039294,-0.01873,-0.035962,0.0088535,-0.014705,-0.015489,0.027754
-0.027904,-0.016234,-0.0048322,-0.060054,0.022938,-0.00084326,0.0026528,0.029829,-0.037133,-0.010332,-0.030547,-0.087848,-0.00013706,-0.0062624,-0.040417,0.011563,-0.020085,0.00030856,-0.020538,-0.041245,0.0064998,-0.014853,-0.013867,0.028958
-0.021535,-0.011865,0.0033502,-0.049827,0.026028,-0.0039034,0.0047769,0.032392,-0.037165,-0.010501,-0.026491,-0.087332,0.0016098,-0.0075548,-0.038103,0.011166,-0.027213,-0.002635,-0.02282,-0.047595,0.0062649,-0.01229,-0.01008,0.029874
-0.018967,-0.0073496,0.0036949,-0.040366,0.029057,-0.0091037,0.0033436,0.03377,-0.034702,-0.0070832,-0.024258,-0.083892,-0.00012682,-0.011957,-0.031542,0.010092,-0.034357,-0.0073349,-0.026018,-0.053026,0.0083636,-0.010449,-0.0043218,0.029984
-0.021019,-0.0054734,-0.0020151,-0.034687,0.029473,-0.012235,-0.00031887,0.033641,-0.029182,-0.0010413,-0.025582,-0.078538,-0.0062606,-0.018105,-0.024901,0.0044741,-0.037616,-0.010772,-0.029658,-0.056625,0.011305,-0.011465,0.0022586,0.02957
-0.024492,-0.0075131,-0.009051,-0.03376,0.026544,-0.010995,-0.0039277,0.031402,-0.022471,0.0048206,-0.028877,-0.072905,-0.013842,-0.022237,-0.021355,-0.0049523,-0.035757,-0.011315,-0.032507,-0.058814,0.013464,-0.014361,0.0074971,0.029828
-0.025179,-0.012212,-0.01309,-0.035851,0.021968,-0.0067345,-0.0060911,0.026495,-0.018228,0.0072059,-0.031172,-0.068609,-0.018563,-0.021206,-0.020921,-0.013926,-0.031037,-0.0099073,-0.033679,-0.060758,0.014356,-0.016192,0.0092088,0.031987
-0.021477,-0.016792,-0.013097,-0.037602,0.018353,-0.0033771,-0.0068332,0.01909,-0.019225,0.004149,-0.030936,-0.066448,-0.018421,-0.015422,-0.021177,-0.019022,-0.027448,-0.0088483,-0.033607,-0.0635,0.0145,-0.014973,0.0066035,0.036151
-0.01534,-0.019122,-0.011536,-0.036265,0.016994,-0.0042038,-0.0067991,0.010485,-0.024819,-0.0037262,-0.028941,-0.06574,-0.015375,-0.0088659,-0.020225,-0.021172,-0.027772,-0.0094265,-0.033881,-0.067363,0.014436,-0.011615,0.00097109,0.040788
-0.0099789,-0.019081,-0.01182,-0.031502,0.016876,-0.0090926,-0.0063875,0.0025706,-0.031006,-0.013365,-0.026638,-0.064378,-0.01363,-0.005927,-0.019066,-0.02529,-0.031727,-0.010764,-0.035947,-0.071779,0.014282,-0.0090785,-0.0049504,0.043315
-0.0067439,-0.018033,-0.015167,-0.02531,0.015638,-0.014589,-0.0058153,-0.0035629,-0.033343,-0.020879,-0.024113,-0.059943,-0.016116,-0.0077475,-0.020936,-0.036529,-0.03653,-0.010947,-0.039714,-0.075521,0.014295,-0.0096525,-0.0084698,0.041533
-0.0041684,-0.017271,-0.019433,-0.020008,0.011515,-0.016833,-0.0058172,-0.0087617,-0.030374,-0.023647,-0.020054,-0.051442,-0.022207,-0.011264,-0.028072,-0.056394,-0.039242,-0.0091941,-0.043277,-0.077317,0.015438,-0.012993,-0.0082996,0.035102
0.000165,-0.017163,-0.020845,-0.015949,0.0046268,-0.014818,-0.0078058,-0.015455,-0.024569,-0.021602,-0.013832,-0.040411,-0.028517,-0.011809,-0.038941,-0.081515,-0.038925,-0.0067856,-0.044132,-0.076681,0.018789,-0.016744,-0.0050552,0.026127
0.0069581,-0.017643,-0.017145,-0.011063,-0.0032552,-0.011086,-0.012876,-0.025652,-0.01995,-0.016942,-0.0073708,-0.030286,-0.031855,-0.0070533,-0.048754,-0.10545,-0.036997,-0.0057936,-0.04108,-0.074472,0.024036,-0.018987,-0.00079758,0.018306
0.014336,-0.018991,-0.0095891,-0.0028165,-0.0099846,-0.0092491,-0.020448,-0.038722,-0.018555,-0.012566,-0.0044427,-0.024241,-0.031659,0.00097528,-0.053027,-0.12187,-0.035813,-0.0069501,-0.035381,-0.072611,0.028722,-0.019972,0.0020662,0.014908
0.019481,-0.021552,-0.0022,0.0090382,-0.014232,-0.010661,-0.028059,-0.050992,-0.018936,-0.010395,-0.0075796,-0.023035,-0.029918,0.0073307,-0.051054,-0.12724,-0.036796,-0.00887,-0.030148,-0.07283,0.029557,-0.021386,0.0020561,0.016663
0.021051,-0.024585,0.001069,0.021476,-0.015878,-0.013317,-0.032914,-0.057918,-0.017916,-0.010648,-0.015388,-0.024573,-0.02899,0.0077657,-0.046175,-0.12211,-0.039581,-0.0094578,-0.02826,-0.075266,0.025081,-0.023961,-0.00053039,0.020995
0.020075,-0.025929,-0.00096176,0.030111,-0.01569,-0.013952,-0.034032,-0.057405,-0.013825,-0.012354,-0.023028,-0.025539,-0.029545,0.001715,-0.042706,-0.1109,-0.042556,-0.0080859,-0.030263,-0.078044,0.017304,-0.025997,-0.0037893,0.023354
0.018654,-0.023564,-0.0061672,0.032531,-0.014776,-0.01124,-0.033004,-0.051617,-0.0081281,-0.014441,-0.025806,-0.02377,-0.030481,-0.0074005,-0.042488,-0.10016,-0.044132,-0.0063559,-0.033913,-0.078367,0.01057,-0.024612,-0.0055302,0.020081
0.017912,-0.017938,-0.010996,0.030201,-0.014133,-0.0070216,-0.032507,-0.045601,-0.0039622,-0.016457,-0.022863,-0.019459,-0.030605,-0.014485,-0.04413,-0.095651,-0.043747,-0.0066913,-0.035856,-0.074428,0.008365,-0.018748,-0.004943,0.010984
0.017249,-0.012531,-0.013103,0.027203,-0.014312,-0.0044929,-0.033824,-0.043642,-0.0030526,-0.018465,-0.017708,-0.014376,-0.030161,-0.015924,-0.045268,-0.099414,-0.042038,-0.010154,-0.034236,-0.066778,0.010751,-0.010995,-0.0032287,-0.00023833
0.015509,-0.01145,-0.012608,0.026832,-0.015267,-0.0052418,-0.035653,-0.046223,-0.0039442,-0.020488,-0.015119,-0.009981,-0.030607,-0.01155,-0.045194,-0.10854,-0.040261,-0.015558,-0.030197,-0.058215,0.014672,-0.0061457,-0.0024426,-0.0082687
0.012728,-0.015868,-0.011172,0.028928,-0.016509,-0.0080412,-0.03533,-0.050098,-0.0032202,-0.022195,-0.017171,-0.0062383,-0.032903,-0.004392,-0.045096,-0.11685,-0.039462,-0.020561,-0.02699,-0.05234,0.016785,-0.0073917,-0.0034012,-0.0097236
0.010578,-0.022691,-0.01001,0.030207,-0.017596,-0.010399,-0.031309,-0.051451,0.0014034,-0.023176,-0.021786,-0.0021496,-0.036156,0.0014031,-0.045868,-0.11865,-0.039918,-0.023475,-0.027364,-0.051716,0.016236,-0.013536,-0.0046244,-0.0054935
0.010948,-0.027032,-0.0088302,0.02728,-0.018584,-0.011087,-0.024602,-0.04953,0.0088986,-0.023458,-0.024827,0.0025987,-0.038127,0.0030524,-0.046168,-0.11197,-0.041122,-0.024031,-0.0313,-0.056614,0.014971,-0.019857,-0.0035711,-9.7267e-005
0.014029,-0.026456,-0.0066405,0.019816,-0.019963,-0.011019,-0.017941,-0.047632,0.015573,-0.023634,-0.023596,0.006607,-0.037225,0.00052798,-0.043261,-0.099283,-0.042218,-0.022635,-0.03595,-0.064916,0.015502,-0.022002,0.00074577,0.0016006
0.0178,-0.02307,-0.0034885,0.011244,-0.022037,-0.011709,-0.013648,-0.050493,0.017931,-0.024397,-0.018664,0.0076107,-0.034107,-0.0039097,-0.036166,-0.085256,-0.042539,-0.019309,-0.037787,-0.073178,0.018329,-0.019441,0.006244,-0.0020614
0.019549,-0.021415,-0.001187,0.0064331,-0.024347,-0.013146,-0.012263,-0.060154,0.015299,-0.025935,-0.012753,0.0047203,-0.031318,-0.0075693,-0.02789,-0.073736,-0.041881,-0.013692,-0.035227,-0.078391,0.021426,-0.015398,0.0090605,-0.0084122
0.018115,-0.024081,-0.0020592,0.0082353,-0.025874,-0.013489,-0.012995,-0.073772,0.010136,-0.027817,-0.008141,4.8869e-005,-0.031234,-0.0092003,-0.023954,-0.066081,-0.040402,-0.0060944,-0.029675,-0.079535,0.02215,-0.013506,0.0067218,-0.012667
0.01487,-0.029142,-0.0067313,0.015514,-0.026019,-0.011041,-0.015104,-0.085313,0.0060479,-0.029492,-0.0050582,-0.0020979,-0.034089,-0.0095531,-0.027892,-0.061618,-0.038322,0.0017174,-0.02436,-0.077951,0.019724,-0.014494,0.00032319,-0.011836
0.012575,-0.031832,-0.013094,0.024014,-0.025521,-0.0064529,-0.018537,-0.08986,0.0052992,-0.03085,-0.0022558,0.00169,-0.037763,-0.01035,-0.037624,-0.059096,-0.035676,0.0071843,-0.02201,-0.076118,0.015946,-0.016066,-0.0063834,-0.0072208
0.013161,-0.028903,-0.017603,0.029204,-0.026269,-0.0027148,-0.023206,-0.087078,0.0077094,-0.032197,0.0012143,0.010928,-0.039392,-0.012644,-0.046285,-0.057622,-0.032294,0.008667,-0.023171,-0.075575,0.013468,-0.015855,-0.010189,-0.0034145
0.016324,-0.021683,-0.01794,0.028914,-0.029907,-0.0026949,-0.027948,-0.081114,0.011375,-0.033684,0.0048519,0.021035,-0.037428,-0.015968,-0.047266,-0.05651,-0.028005,0.0065834,-0.026167,-0.075525,0.013265,-0.014253,-0.010904,-0.0044727
0.019954,-0.015078,-0.014745,0.024089,-0.036267,-0.0065036,-0.030643,-0.077193,0.014212,-0.034822,0.0071018,0.026496,-0.032513,-0.018901,-0.039337,-0.054717,-0.022909,0.0028163,-0.02847,-0.073276,0.013741,-0.014099,-0.010839,-0.010355
0.021823,-0.013515,-0.010949,0.017568,-0.042983,-0.011296,-0.029701,-0.077792,0.015056,-0.0347,0.0066263,0.024964,-0.026722,-0.020412,-0.027492,-0.050849,-0.017535,-0.0010212,-0.028368,-0.066296,0.012422,-0.0175,-0.012008,-0.016688
0.020999,-0.017418,-0.0093238,0.01214,-0.046793,-0.013806,-0.025572,-0.081387,0.013866,-0.032796,0.0031517,0.018872,-0.021963,-0.020712,-0.018827,-0.043991,-0.012731,-0.0047066,-0.025943,-0.054311,0.0087764,-0.023066,-0.014031,-0.018252
0.01806,-0.023174,-0.010377,0.0092077,-0.045671,-0.013238,-0.020752,-0.084366,0.011437,-0.029583,-0.0027018,0.0131,-0.018849,-0.020917,-0.017111,-0.034698,-0.0093101,-0.0088267,-0.022874,-0.039817,0.0054005,-0.026564,-0.014871,-0.013424
0.01433,-0.026373,-0.012259,0.0085596,-0.040279,-0.011735,-0.018129,-0.084163,0.009067,-0.026334,-0.010076,0.010807,-0.016741,-0.021936,-0.020608,-0.025192,-0.0076841,-0.013255,-0.02127,-0.02662,0.0061399,-0.02459,-0.013529,-0.00582
0.011071,-0.025371,-0.012558,0.0089199,-0.033642,-0.011994,-0.019031,-0.080943,0.0081812,-0.024253,-0.01814,0.011155,-0.014682,-0.023613,-0.024607,-0.018287,-0.0077102,-0.016514,-0.022203,-0.017548,0.012504,-0.017822,-0.011676,-0.0016257
0.009196,-0.022248,-0.010385,0.0087703,-0.029243,-0.014401,-0.022575,-0.076812,0.0096446,-0.023754,-0.025769,0.010904,-0.012337,-0.024843,-0.025849,-0.015553,-0.0087661,-0.016933,-0.0249,-0.012978,0.021581,-0.010725,-0.012288,-0.0047476
0.009279,-0.020621,-0.0071251,0.0071398,-0.028829,-0.016564,-0.026641,-0.073708,0.012977,-0.024486,-0.031287,0.0081911,-0.010181,-0.024466,-0.024721,-0.015905,-0.009865,-0.014535,-0.027199,-0.011081,0.027633,-0.007932,-0.016561,-0.013814
0.01139,-0.022379,-0.0054543,0.0041508,-0.031409,-0.01581,-0.02944,-0.071997,0.016198,-0.025987,-0.032967,0.0046693,-0.0088882,-0.022234,-0.023668,-0.015805,-0.0097241,-0.011626,-0.027112,-0.0093073,0.026367,-0.010605,-0.022318,-0.023494
0.014726,-0.026107,-0.0074518,0.0010066,-0.034105,-0.012235,-0.030346,-0.070757,0.016864,-0.028171,-0.030145,0.0038545,-0.0084991,-0.019175,-0.024014,-0.011282,-0.0070017,-0.011178,-0.024321,-0.0058775,0.018312,-0.015916,-0.02574,-0.028888
0.017601,-0.028353,-0.013098,-0.0007693,-0.03417,-0.009198,-0.029604,-0.069034,0.013846,-0.031095,-0.02395,0.007264,-0.0081094,-0.017161,-0.024632,-0.00062432,-0.00092159,-0.01432,-0.020355,-0.000285,0.0083029,-0.019745,-0.024852,-0.02915
0.018213,-0.026565,-0.02006,-0.00045938,-0.03073,-0.010503,-0.027579,-0.066656,0.0084589,-0.034231,-0.016806,0.0123,-0.0063649,-0.017861,-0.0236,0.014187,0.0079767,-0.019228,-0.017172,0.0071458,0.0014377,-0.019849,-0.021286,-0.027373
0.015871,-0.021263,-0.024854,0.0012535,-0.025111,-0.016703,-0.024421,-0.063965,0.0038428,-0.036117,-0.010908,0.014283,-0.0024138,-0.021584,-0.020712,0.028538,0.017698,-0.022499,-0.015335,0.015839,-0.00092703,-0.016792,-0.018565,-0.027149
0.011709,-0.01572,-0.024758,0.0028419,-0.019755,-0.024019,-0.020355,-0.0611,0.0028953,-0.035048,-0.0068901,0.01099,0.0033955,-0.026709,-0.0179,0.03818,0.025745,-0.021832,-0.013464,0.024999,-0.0016379,-0.01244,-0.018651,-0.029161
0.0081697,-0.013485,-0.019379,0.0032291,-0.01671,-0.027111,-0.016095,-0.057796,0.0063686,-0.030489,-0.0038403,0.0053537,0.0095824,-0.030291,-0.017045,0.041986,0.030665,-0.017702,-0.0095906,0.033273,-0.004416,-0.0080844,-0.020272,-0.03092
0.007484,-0.015734,-0.010937,0.0026143,-0.016735,-0.023453,-0.01277,-0.053898,0.012621,-0.024028,-0.00060784,0.0033952,0.014297,-0.029811,-0.017588,0.042324,0.032945,-0.012714,-0.0032695,0.038845,-0.010015,-0.0040685,-0.020647,-0.029738
0.010233,-0.020504,-0.0030314,0.0020125,-0.01929,-0.015527,-0.011295,-0.049815,0.01902,-0.018824,0.0028047,0.0088848,0.016231,-0.025051,-0.016705,0.042766,0.03441,-0.0094564,0.0035565,0.040476,-0.015533,-0.00078104,-0.018685,-0.02598
0.015,-0.02434,0.0013586,0.002008,-0.022944,-0.0088905,-0.01166,-0.04622,0.023589,-0.017621,0.0050834,0.019494,0.015107,-0.018622,-0.012094,0.045012,0.036622,-0.0087803,0.0079015,0.038855,-0.017449,0.00068541,-0.016232,-0.023384
0.019261,-0.02496,0.0013848,0.0020965,-0.025796,-0.0077644,-0.012727,-0.043212,0.025579,-0.020722,0.0048622,0.028184,0.011595,-0.014426,-0.0045724,0.047589,0.039753,-0.0097559,0.0082622,0.036897,-0.015309,-0.00068477,-0.016016,-0.025935
0.020822,-0.022805,-0.0015226,0.001393,-0.025939,-0.011858,-0.01276,-0.039909,0.024965,-0.025553,0.0022637,0.028943,0.0068958,-0.014924,0.0023027,0.047387,0.04291,-0.010916,0.006131,0.038174,-0.012392,-0.0043998,-0.018467,-0.034025
0.018881,-0.020288,-0.0047514,-3.1972e-005,-0.022218,-0.016987,-0.010424,-0.035052,0.021958,-0.028363,-0.0007342,0.021967,0.0023808,-0.019262,0.0054068,0.042722,0.045497,-0.011461,0.0050896,0.044283,-0.01266,-0.0081726,-0.020865,-0.043483
0.014278,-0.01952,-0.0059705,-0.00072498,-0.015097,-0.018708,-0.005687,-0.02811,0.017279,-0.026883,-0.0015915,0.013672,-0.00062462,-0.023793,0.0049484,0.03531,0.048113,-0.011509,0.0081164,0.053192,-0.016949,-0.0095028,-0.019896,-0.048612
0.0090564,-0.020464,-0.0041302,0.0010118,-0.0068635,-0.015786,-0.00010187,-0.019779,0.012625,-0.0219,0.00078229,0.011396,-0.00105,-0.024687,0.0042168,0.029425,0.052022,-0.011578,0.01523,0.060185,-0.022131,-0.0078203,-0.01516,-0.04679
0.0056658,-0.021113,0.00024043,0.0054612,-0.00061887,-0.010744,0.0037984,-0.01134,0.01019,-0.016522,0.0049191,0.017331,0.0015666,-0.020624,0.006373,0.028787,0.057629,-0.012044,0.023294,0.061009,-0.024042,-0.005064,-0.010088,-0.040622
0.0060609,-0.019437,0.005273,0.011032,0.0015666,-0.0074306,0.0037947,-0.0034972,0.011046,-0.013738,0.0075872,0.026891,0.0067123,-0.013539,0.011386,0.033541,0.063442,-0.01305,0.028072,0.054981,-0.021355,-0.003935,-0.0091656,-0.035651
0.010895,-0.015381,0.0084482,0.015566,3.288e-005,-0.0079399,-0.00064689,0.004087,0.013785,-0.014278,0.0060483,0.032837,0.01287,-0.0070251,0.016055,0.03975,0.066584,-0.014664,0.026974,0.045622,-0.016724,-0.0053264,-0.013989,-0.035551
0.019088,-0.011114,0.0077637,0.01817,-0.0027301,-0.011395,-0.0077435,0.012025,0.015099,-0.016465,0.00016488,0.031512,0.018049,-0.0038553,0.017051,0.041967,0.064612,-0.016876,0.020617,0.038223,-0.014289,-0.0073438,-0.021797,-0.039058
0.028084,-0.0092729,0.0030727,0.019747,-0.0039067,-0.015186,-0.014059,0.019946,0.01235,-0.018027,-0.0072746,0.025803,0.020695,-0.0045418,0.014005,0.037171,0.057294,-0.019349,0.012345,0.036089,-0.016111,-0.0069163,-0.027761,-0.041437
0.034848,-0.010661,-0.0032937,0.021748,-0.0023371,-0.017217,-0.016291,0.02613,0.0061097,-0.018186,-0.012416,0.022459,0.020407,-0.0077326,0.0097496,0.027217,0.047065,-0.021257,0.0062181,0.038236,-0.020884,-0.0025816,-0.028863,-0.039193
0.037175,-0.013366,-0.0074686,0.024448,0.00093258,-0.017172,-0.013183,0.028695,0.00021139,-0.018227,-0.013134,0.026236,0.018003,-0.011651,0.0075992,0.017849,0.037847,-0.021573,0.0047694,0.040235,-0.025786,0.0040912,-0.025926,-0.033739
0.034653,-0.014096,-0.006347,0.026495,0.0039075,-0.016053,-0.0063124,0.027499,-0.0010782,-0.020134,-0.010625,0.035916,0.014883,-0.015161,0.0083777,0.014759,0.03302,-0.019751,0.0076922,0.037598,-0.029217,0.009714,-0.022364,-0.030596
0.028757,-0.010754,0.00027113,0.026124,0.0055108,-0.014776,0.00086193,0.024946,0.0034639,-0.024533,-0.0084193,0.045373,0.012215,-0.017749,0.0099883,0.019481,0.033755,-0.016305,0.012082,0.029234,-0.031643,0.011776,-0.021181,-0.034732
0.022079,-0.0042334,0.009408,0.022804,0.0063662,-0.013275,0.0050573,0.024584,0.010916,-0.029724,-0.009401,0.048507,0.010546,-0.018933,0.0097743,0.028207,0.038669,-0.012777,0.014144,0.018466,-0.034062,0.010384,-0.022978,-0.046124
0.017078,0.0020269,0.016868,0.017739,0.0078629,-0.010798,0.0049289,0.028259,0.016533,-0.032615,-0.013207,0.043809,0.010021,-0.018063,0.0072687,0.034606,0.044901,-0.010971,0.011569,0.010828,-0.036182,0.0076261,-0.026242,-0.059386
0.014904,0.0044928,0.019981,0.012895,0.010504,-0.0069601,0.0014248,0.034131,0.017564,-0.030804,-0.016311,0.03502,0.01081,-0.014906,0.0046957,0.034584,0.049957,-0.0119,0.0052383,0.01025,-0.036512,0.005416,-0.02899,-0.067684
0.014834,0.0022,0.019076,0.0095807,0.013191,-0.0024543,-0.0032145,0.037482,0.015328,-0.024183,-0.014987,0.02781,0.013133,-0.010357,0.0048581,0.029335,0.053176,-0.015155,-0.0010305,0.016415,-0.034217,0.0039806,-0.030046,-0.067537
0.014693,-0.0024315,0.016741,0.007837,0.014158,0.0012241,-0.0068399,0.034073,0.01387,-0.014874,-0.008805,0.025525,0.016767,-0.0063113,0.0085368,0.024213,0.055902,-0.019124,-0.0028994,0.025232,-0.030525,0.0023251,-0.029179,-0.060707
0.012232,-0.0053541,0.015766,0.0069577,0.01264,0.0028154,-0.0082479,0.02353,0.01643,-0.0056671,-0.0015538,0.027359,0.020561,-0.0044778,0.013873,0.024272,0.060216,-0.021957,0.0013644,0.031957,-0.02785,-5.7722e-005,-0.026695,-0.052191
0.0067712,-0.0039271,0.017443,0.0063921,0.0096935,0.0022144,-0.0073371,0.010009,0.022698,0.0016917,0.0014985,0.029881,0.022682,-0.0049865,0.018187,0.030025,0.067101,-0.022622,0.0093974,0.034459,-0.02739,-0.002156,-0.023216,-0.046535
-4.3795e-005,0.0011681,0.021253,0.0061157,0.0073711,0.00053607,-0.0049207,-0.00049626,0.029006,0.0070467,-0.002114,0.030147,0.021687,-0.0060818,0.02035,0.03684,0.075412,-0.021414,0.016268,0.034087,-0.027746,-0.0022073,-0.019665,-0.045392
-0.0051795,0.0067009,0.025662,0.006217,0.0070607,-0.00068962,-0.0023894,-0.0041231,0.031122,0.011015,-0.009888,0.027709,0.017644,-0.0053789,0.02144,0.038459,0.082484,-0.019647,0.01805,0.033679,-0.026227,0.00051826,-0.016997,-0.047473
-0.006384,0.0096761,0.029131,0.0062227,0.0084745,-0.0005389,-0.0010915,-0.0013082,0.027389,0.013907,-0.016298,0.02429,0.012292,-0.0018211,0.023212,0.031798,0.086038,-0.018789,0.014652,0.03466,-0.021708,0.0047679,-0.015649,-0.049918
-0.0039808,0.009699,0.030781,0.0049165,0.010113,0.0008287,-0.0014698,0.0042483,0.019897,0.015647,-0.017266,0.021976,0.0079831,0.003254,0.026104,0.019232,0.085899,-0.019598,0.0096176,0.035827,-0.01612,0.0082036,-0.015277,-0.04971
-0.00074083,0.0088747,0.030664,0.0010079,0.010634,0.0025127,-0.0025447,0.0085963,0.013054,0.016738,-0.013273,0.021744,0.0062003,0.006939,0.028835,0.0067479,0.084113,-0.021714,0.0071163,0.03478,-0.012875,0.0093187,-0.015205,-0.044721
0.00021371,0.0094893,0.029746,-0.0056979,0.0098223,0.0036679,-0.0024233,0.0099809,0.010718,0.018963,-0.0084243,0.023362,0.0068216,0.0069551,0.029952,-0.00033734,0.083257,-0.023899,0.0087088,0.030529,-0.013583,0.0085374,-0.015139,-0.034702
-0.0021738,0.011801,0.029457,-0.013516,0.0083954,0.0041041,0.00029048,0.0091552,0.013839,0.024495,-0.0064315,0.026203,0.0085563,0.0035029,0.029593,-0.00058093,0.084234,-0.024721,0.012504,0.024836,-0.016263,0.0074775,-0.015303,-0.021986
-0.006152,0.014084,0.030797,-0.019338,0.0070432,0.0042809,0.0053091,0.0080445,0.02,0.033769,-0.0072697,0.029789,0.0099827,-0.00079516,0.029542,0.0037159,0.085386,-0.023302,0.015106,0.021096,-0.016918,0.0071488,-0.015746,-0.010913
-0.008693,0.014735,0.033448,-0.020418,0.0057999,0.0047994,0.010841,0.0083316,0.024975,0.044198,-0.0075259,0.033473,0.01028,-0.0029189,0.031432,0.0092934,0.083687,-0.019738,0.014388,0.021766,-0.013129,0.0068874,-0.01564,-0.0055199
-0.0079859,0.014128,0.035659,-0.016467,0.0043826,0.0058428,0.015082,0.010937,0.025244,0.051587,-0.0039402,0.035831,0.0093269,-0.0018178,0.034921,0.014628,0.077148,-0.014998,0.010747,0.02652,-0.0062993,0.0051132,-0.013575,-0.0067301
-0.0048218,0.014179,0.035195,-0.010399,0.0030499,0.0069889,0.017645,0.016088,0.01995,0.053628,0.0033376,0.034837,0.0075338,0.00089577,0.037795,0.020306,0.066537,-0.010421,0.0062255,0.032525,-0.00037399,0.001252,-0.0087925,-0.011331
-0.0018227,0.016053,0.030722,-0.0067582,0.0029155,0.0075046,0.019531,0.023226,0.011183,0.052435,0.010845,0.029174,0.0057724,0.0025823,0.037996,0.027265,0.055144,-0.0071028,0.0028041,0.036465,0.00181,-0.0030007,-0.0021336,-0.013955
-0.0012954,0.018535,0.022484,-0.0086036,0.0051491,0.0069093,0.021642,0.030645,0.0025384,0.053331,0.015026,0.01974,0.0052585,0.0021295,0.035586,0.03503,0.046868,-0.0054842,0.0014869,0.036718,0.0011695,-0.0044192,0.0044045,-0.010702
-0.0035499,0.01903,0.011724,-0.015134,0.0096728,0.0054416,0.023341,0.03559,-0.0030399,0.060334,0.015372,0.0098426,0.0070011,0.0010847,0.032709,0.041811,0.044099,-0.0052331,0.0025238,0.034207,0.0015186,-0.00064976,0.0092484,-0.0015362
-0.0069825,0.016395,-0.00063061,-0.02213,0.014632,0.0041042,0.022629,0.03537,-0.0047379,0.072126,0.01453,0.0033968,0.010947,0.0022058,0.03159,0.046247,0.046761,-0.0053892,0.0058545,0.031574,0.0059578,0.007557,0.012445,0.010319
-0.009654,0.012689,-0.014801,-0.025188,0.01734,0.0041632,0.018007,0.02906,-0.0038458,0.082309,0.015455,0.0021082,0.015595,0.0066325,0.032607,0.048856,0.052845,-0.0046827,0.010976,0.031332,0.013804,0.016182,0.015275,0.021093
-0.010877,0.011797,-0.031755,-0.023333,0.016069,0.0062948,0.01038,0.018506,-0.0024807,0.084122,0.018553,0.0037909,0.018731,0.012283,0.034351,0.051547,0.059751,-0.0019828,0.016539,0.034218,0.020892,0.020287,0.018705,0.02878
-0.011468,0.015945,-0.051851,-0.020028,0.011225,0.0099064,0.0031091,0.0076969,-0.0020986,0.075674,0.021579,0.0034225,0.018905,0.01513,0.035471,0.05555,0.065497,0.003189,0.0206,0.038727,0.023061,0.017402,0.022292,0.033379
-0.012608,0.023391,-0.07364,-0.020554,0.0049911,0.013237,-0.00013171,0.00073703,-0.0027903,0.061221,0.022268,-0.0034313,0.016437,0.012437,0.036224,0.05979,0.069235,0.010267,0.021756,0.042144,0.019775,0.0094932,0.024707,0.035646
-0.014535,0.029593,-0.093824,-0.027708,-0.00015427,0.014414,0.0019282,-0.00024138,-0.0036471,0.047547,0.020957,-0.017151,0.013003,0.0052268,0.037976,0.06136,0.071003,0.017647,0.020233,0.042417,0.014717,0.0018931,0.025262,0.036049
-0.01636,0.030873,-0.10854,-0.039271,-0.0027592,0.012858,0.0071375,0.0040966,-0.0037351,0.038864,0.020538,-0.033198,0.010175,-0.0021768,0.041152,0.057823,0.07095,0.023279,0.017775,0.039534,0.012838,-0.00026881,0.02475,0.03486
-0.01712,0.027253,-0.11522,-0.049317,-0.0027036,0.0099204,0.011544,0.011079,-0.0029299,0.034665,0.023752,-0.044709,0.0082765,-0.0051694,0.043941,0.049303,0.06856,0.02568,0.01633,0.035323,0.016396,0.0043915,0.024596,0.032688
-0.016937,0.021984,-0.11377,-0.05236,-0.00069013,0.0080111,0.01242,0.017697,-0.0020806,0.031871,0.030376,-0.046864,0.0066268,-0.001984,0.043466,0.038534,0.062553,0.02482,0.016745,0.031799,0.023308,0.012678,0.025142,0.030383
-0.017,0.018508,-0.10648,-0.047064,0.0022993,0.008727,0.010274,0.022061,-0.0024333,0.028558,0.037019,-0.039906,0.0048321,0.0054814,0.03858,0.028877,0.05186,0.022194,0.018617,0.029456,0.029051,0.019354,0.024975,0.028295
-0.018285,0.017806,-0.096446,-0.036727,0.0052071,0.011482,0.0082393,0.023974,-0.0046849,0.025473,0.039779,-0.028716,0.0036934,0.013463,0.031547,0.022076,0.037203,0.019901,0.02116,0.027069,0.03031,0.021035,0.022215,0.025907
-0.020246,0.018417,-0.085731,-0.02641,0.0070753,0.013936,0.0093763,0.024628,-0.0083041,0.024203,0.03744,-0.019387,0.0046591,0.019037,0.026688,0.017613,0.021851,0.019296,0.023929,0.023214,0.027246,0.018313,0.016688,0.022571
-0.020918,0.018555,-0.074305,-0.019217,0.0075224,0.01399,0.014086,0.025789,-0.011673,0.02439,0.032406,-0.015442,0.008231,0.021643,0.026904,0.013958,0.010357,0.020297,0.026662,0.018083,0.0227,0.014549,0.010749,0.018648
-0.018535,0.017936,-0.060689,-0.014668,0.0071897,0.011641,0.019727,0.028821,-0.013097,0.023228,0.028616,-0.016337,0.01291,0.022643,0.031165,0.010305,0.0055882,0.021945,0.028722,0.01378,0.019393,0.012631,0.0076078,0.015652
-0.013316,0.01757,-0.043829,-0.010077,0.0074318,0.0089755,0.022705,0.033859,-0.012018,0.017985,0.028253,-0.018886,0.015916,0.023746,0.035309,0.0071016,0.0062053,0.023716,0.02922,0.012707,0.01779,0.012719,0.0084363,0.015015
-0.0077168,0.018152,-0.024818,-0.0033675,0.0091149,0.0082691,0.021303,0.039548,-0.0094748,0.009069,0.030027,-0.020013,0.015288,0.025718,0.035541,0.005035,0.006983,0.026215,0.027985,0.015494,0.016356,0.01282,0.010967,0.016669
-0.0047479,0.019026,-0.006924,0.0051754,0.011489,0.0099579,0.016988,0.04366,-0.0073283,0.00046703,0.030371,-0.018585,0.011549,0.028172,0.031576,0.0037245,0.0022705,0.030429,0.026232,0.020395,0.013615,0.011367,0.011223,0.019108
-0.0056949,0.018851,0.0063954,0.013458,0.012425,0.01241,0.013185,0.044477,-0.0068355,-0.0031584,0.026468,-0.015339,0.0073401,0.030246,0.026742,0.0016611,-0.0098496,0.036159,0.025781,0.024699,0.0098414,0.0091323,0.0071918,0.020991
-0.0091522,0.017167,0.014093,0.019532,0.010204,0.013701,0.01261,0.042095,-0.0077669,-0.00022945,0.018638,-0.011657,0.0051653,0.03144,0.025127,-0.0023563,-0.026089,0.041356,0.027199,0.026792,0.0068274,0.0086417,0.0011897,0.022604
-0.012184,0.015083,0.018516,0.023031,0.0054327,0.013606,0.015326,0.038608,-0.0088154,0.0064922,0.010257,-0.0085513,0.005179,0.031979,0.028328,-0.007673,-0.040509,0.04342,0.028752,0.026991,0.0061357,0.011783,-0.0014826,0.025444
-0.012568,0.014331,0.023613,0.024955,0.0011609,0.013766,0.018972,0.036803,-0.0088521,0.012263,0.0054316,-0.0064638,0.0050239,0.032544,0.03453,-0.011806,-0.049065,0.04151,0.02765,0.026563,0.0076183,0.017931,0.0031619,0.030192
-0.010189,0.015639,0.031513,0.02642,0.00069738,0.015841,0.020787,0.038195,-0.0078068,0.014202,0.0062855,-0.0054344,0.0019897,0.033602,0.040398,-0.012313,-0.052406,0.037634,0.022841,0.026105,0.0095632,0.024276,0.014119,0.035236
-0.0065372,0.018058,0.040355,0.027794,0.0048002,0.019506,0.019654,0.041902,-0.0063805,0.013258,0.011785,-0.0050203,-0.004352,0.034833,0.043883,-0.008914,-0.054699,0.035121,0.01673,0.024953,0.010183,0.027894,0.025665,0.037611
-0.0030426,0.019867,0.045515,0.029011,0.010777,0.022453,0.016639,0.045344,-0.0050154,0.012771,0.018684,-0.0040823,-0.011395,0.035068,0.045496,-0.0038594,-0.059679,0.03563,0.013782,0.022087,0.008991,0.027645,0.031616,0.035727
3.0138e-005,0.020131,0.043601,0.030443,0.014538,0.022537,0.013885,0.046272,-0.0033094,0.015179,0.023631,-0.0010849,-0.015375,0.03284,0.047204,-4.8443e-005,-0.067344,0.037515,0.016806,0.017489,0.0069188,0.024477,0.030083,0.031243
0.003167,0.019414,0.03593,0.033108,0.013986,0.020023,0.013024,0.044492,-0.00056311,0.019883,0.024915,0.0048432,-0.014316,0.027196,0.050219,0.0014544,-0.073954,0.037294,0.024136,0.012576,0.0053263,0.020328,0.024681,0.028014
0.0063737,0.01906,0.02827,0.037842,0.010754,0.017644,0.014358,0.041851,0.0031004,0.023984,0.022895,0.012821,-0.0095246,0.01827,0.053766,0.0022013,-0.075114,0.032998,0.030472,0.0093365,0.0049291,0.016871,0.021156,0.028835
0.0086862,0.019848,0.026679,0.044284,0.0086467,0.018223,0.017103,0.040499,0.0063096,0.02489,0.019271,0.020248,-0.004454,0.007287,0.055814,0.0046588,-0.069249,0.026179,0.030967,0.0089988,0.0054826,0.014988,0.022452,0.032995
0.0090898,0.021321,0.032811,0.050879,0.010102,0.022048,0.020101,0.040943,0.0073649,0.022305,0.015968,0.024326,-0.0020113,-0.0038158,0.05492,0.0095442,-0.05878,0.020505,0.025164,0.011299,0.0062017,0.014886,0.026562,0.036976
0.0078401,0.022351,0.042829,0.056013,0.013885,0.026516,0.022318,0.041588,0.0057906,0.018023,0.014364,0.02409,-0.0026379,-0.012851,0.051402,0.014618,-0.048345,0.018185,0.017381,0.014666,0.0063547,0.016286,0.028945,0.037677
0.0065595,0.022251,0.051009,0.05915,0.016178,0.02845,0.02304,0.040146,0.0030384,0.01416,0.015017,0.021292,-0.0045916,-0.01783,0.046747,0.016023,-0.041689,0.017689,0.013231,0.016966,0.005599,0.018435,0.027093,0.035078
0.0067161,0.021353,0.054947,0.060784,0.014123,0.026985,0.022035,0.035596,0.0015256,0.011682,0.017619,0.019309,-0.0058509,-0.017604,0.041855,0.011033,-0.039589,0.015052,0.0153,0.016362,0.0040312,0.020225,0.022909,0.031855
0.0079501,0.020588,0.057649,0.061355,0.00858,0.024325,0.01976,0.028931,0.0027242,0.010445,0.020992,0.020803,-0.0057872,-0.012711,0.035797,-7.2493e-006,-0.040076,0.0075749,0.021561,0.012183,0.0020912,0.020634,0.020711,0.030481
0.0081512,0.020644,0.064501,0.060441,0.0035582,0.023668,0.017272,0.022132,0.0059812,0.010207,0.023328,0.025965,-0.0052634,-0.0058423,0.026311,-0.013855,-0.040385,-0.0036692,0.027574,0.0055571,0.00035302,0.019305,0.022872,0.030801
0.0055399,0.021539,0.07777,0.057292,0.0028254,0.026191,0.015617,0.016519,0.0091816,0.011205,0.022972,0.032693,-0.0054252,-0.0011104,0.011747,-0.026262,-0.038976,-0.014948,0.030209,-0.00075124,-0.00081043,0.016771,0.027359,0.030489
0.00083129,0.022869,0.093664,0.052124,0.0067671,0.029852,0.015034,0.012141,0.010708,0.013566,0.01956,0.03848,-0.0065657,-0.0019329,-0.0070752,-0.034183,-0.036174,-0.023471,0.029661,-0.0037906,-0.0015411,0.014104,0.029582,0.027801
-0.0028205,0.024227,0.10483,0.046624,0.012218,0.031109,0.014747,0.0086889,0.010913,0.016366,0.01466,0.042399,-0.0081079,-0.0086309,-0.026551,-0.037169,-0.033299,-0.029894,0.028421,-0.0025912,-0.0025068,0.012227,0.026785,0.023648
-0.0023848,0.025244,0.10629,0.042783,0.015188,0.028014,0.013727,0.0067144,0.011674,0.017699,0.011067,0.045545,-0.0094771,-0.01752,-0.04176,-0.037516,-0.031287,-0.037244,0.028639,0.00062897,-0.0044831,0.011394,0.020762,0.020769
0.0022321,0.025363,0.099755,0.041143,0.013888,0.022016,0.011855,0.0075386,0.014357,0.016184,0.010905,0.049669,-0.010757,-0.022555,-0.048706,-0.039168,-0.030056,-0.047308,0.030436,0.0017128,-0.0077318,0.011196,0.016312,0.020837
0.0078426,0.023917,0.092513,0.040362,0.0095172,0.016928,0.010395,0.011655,0.018041,0.012635,0.01392,0.055309,-0.012371,-0.018808,-0.04598,-0.045627,-0.028998,-0.058103,0.032358,-0.0021382,-0.011607,0.011086,0.016929,0.022602
0.010594,0.020741,0.09179,0.038774,0.0046621,0.015968,0.011176,0.017255,0.019807,0.010098,0.017506,0.061074,-0.014154,-0.0055656,-0.035114,-0.057665,-0.027908,-0.065016,0.033049,-0.0095161,-0.014686,0.011039,0.021795,0.023197
0.0091974,0.016768,0.099247,0.036413,0.001219,0.019278,0.015063,0.020765,0.017108,0.011718,0.018699,0.064671,-0.014915,0.013039,-0.019713,-0.072222,-0.027303,-0.064708,0.032323,-0.015056,-0.015389,0.011788,0.026778,0.021462
0.0057857,0.013776,0.10993,0.035201,-0.00032066,0.023851,0.021013,0.01943,0.010315,0.018038,0.016615,0.064664,-0.013118,0.030358,-0.003959,-0.08363,-0.027733,-0.058179,0.030839,-0.013074,-0.012803,0.014256,0.02827,0.019852
0.0036331,0.013226,0.11625,0.036769,-0.00025101,0.025851,0.026527,0.01378,0.0031302,0.026164,0.013259,0.06134,-0.0082022,0.040982,0.0087976,-0.086798,-0.028812,-0.05012,0.029107,-0.0019164,-0.0073238,0.018409,0.026127,0.022726
0.0039562,0.015117,0.11347,0.039984,0.00095008,0.023511,0.029111,0.0074696,0.00025195,0.031793,0.011897,0.056055,-0.0013037,0.043491,0.016799,-0.080332,-0.029051,-0.045101,0.027059,0.014507,-0.00071476,0.022491,0.023126,0.032283
0.0048273,0.017968,0.10264,0.040936,0.0024069,0.018484,0.027576,0.0042275,0.0039127,0.032504,0.014332,0.049925,0.0053626,0.040558,0.019734,-0.067332,-0.026928,-0.043996,0.024528,0.029318,0.004604,0.023624,0.021875,0.045928
0.0031731,0.020002,0.08901,0.036014,0.0025309,0.014682,0.022333,0.004503,0.011985,0.029412,0.019342,0.04334,0.01003,0.036627,0.017999,-0.053348,-0.022381,-0.043749,0.02184,0.037312,0.006864,0.019836,0.022446,0.057664
-0.0020956,0.020468,0.078052,0.025515,-0.00024106,0.01545,0.014849,0.0049921,0.019197,0.025729,0.023626,0.036729,0.012537,0.03497,0.012092,-0.043203,-0.017368,-0.040413,0.019691,0.037994,0.0061059,0.012028,0.022928,0.06246
-0.0087784,0.019862,0.072125,0.014272,-0.0058056,0.021012,0.0069713,0.0017675,0.020655,0.023595,0.024401,0.031448,0.014151,0.036105,0.0027312,-0.039074,-0.014791,-0.032488,0.018372,0.034899,0.0042822,0.0039949,0.021985,0.059826
-0.01308,0.018988,0.070005,0.0081928,-0.011516,0.028012,0.00052983,-0.0057189,0.015111,0.022242,0.021463,0.029339,0.016258,0.038321,-0.0084979,-0.04078,-0.016509,-0.021539,0.017284,0.03224,0.0039824,-0.00011726,0.020488,0.053595
-0.012713,0.017932,0.068818,0.0093711,-0.013509,0.031559,-0.0029821,-0.013568,0.0056066,0.019198,0.017072,0.030911,0.019047,0.039414,-0.018893,-0.047195,-0.022003,-0.0098782,0.015411,0.031916,0.0065397,0.00089586,0.020501,0.048414
-0.0086475,0.016096,0.066433,0.014086,-0.009624,0.028531,-0.0029177,-0.016578,-0.0029195,0.013288,0.013927,0.03388,0.021268,0.038102,-0.025512,-0.057012,-0.028817,0.0020799,0.012366,0.033072,0.010947,0.0041283,0.022803,0.04626
-0.0041044,0.013234,0.062589,0.015713,-0.0014961,0.019926,9.9214e-005,-0.012929,-0.0072437,0.0063995,0.013106,0.033984,0.021209,0.034349,-0.02681,-0.068364,-0.034427,0.015928,0.0089587,0.033959,0.014525,0.0048789,0.025695,0.045908
-0.0019126,0.010305,0.058379,0.010234,0.0061634,0.010508,0.0044095,-0.0061155,-0.0079787,0.0021369,0.013673,0.027956,0.018083,0.028983,-0.023724,-0.078331,-0.038028,0.03264,0.00666,0.033937,0.014926,0.00068851,0.026498,0.04525
-0.0026017,0.0090797,0.054894,-0.00042608,0.0087083,0.0057774,0.0082987,-0.002181,-0.0086133,0.0025491,0.014019,0.01632,0.01277,0.02346,-0.019124,-0.083589,-0.040859,0.049854,0.0064507,0.033808,0.011919,-0.0064507,0.024237,0.043774
-0.0046701,0.010683,0.052167,-0.010211,0.004627,0.0082021,0.010976,-0.0046026,-0.012264,0.0060114,0.01348,0.0033828,0.0074577,0.019871,-0.015909,-0.082124,-0.04495,0.062129,0.0081079,0.034486,0.0075711,-0.011799,0.020734,0.042733
-0.0063699,0.014414,0.049094,-0.014244,-0.0037552,0.01541,0.012668,-0.011381,-0.018793,0.0083431,0.012662,-0.005821,0.0044845,0.02041,-0.015184,-0.074606,-0.051517,0.064556,0.010473,0.035641,0.0047308,-0.012024,0.018833,0.04316
-0.0071405,0.018014,0.044301,-0.012852,-0.012119,0.021792,0.013798,-0.016923,-0.024757,0.0062343,0.012351,-0.0091486,0.0050744,0.025866,-0.015841,-0.064142,-0.060362,0.056929,0.012276,0.035838,0.0050386,-0.0080751,0.019456,0.044057
-0.007506,0.019246,0.037246,-0.010709,-0.016771,0.022515,0.014171,-0.016951,-0.026383,-7.2849e-005,0.012313,-0.008438,0.0085932,0.033966,-0.015672,-0.054509,-0.070621,0.044791,0.012702,0.034124,0.0079469,-0.0042574,0.020448,0.042828
-0.0079454,0.017493,0.028679,-0.012081,-0.016181,0.01697,0.013089,-0.011963,-0.023108,-0.0071842,0.011406,-0.0072756,0.012654,0.039386,-0.012998,-0.048205,-0.081937,0.036136,0.011385,0.031464,0.011291,-0.0045468,0.01855,0.037563
-0.0081845,0.014103,0.019998,-0.016743,-0.011004,0.0090466,0.010288,-0.0062455,-0.018508,-0.011553,0.0090273,-0.0076218,0.01409,0.036368,-0.007723,-0.045558,-0.094791,0.036246,0.0082764,0.030405,0.012793,-0.0095894,0.012766,0.028874
-0.0076729,0.011309,0.011978,-0.02039,-0.0033478,0.0040107,0.0066655,-0.0036151,-0.017476,-0.012315,0.0063771,-0.0083675,0.010478,0.022622,-0.0014083,-0.045122,-0.10964,0.044773,0.0038729,0.03293,0.011384,-0.016874,0.0058669,0.019438
-0.0065466,0.010655,0.0039434,-0.019032,0.003961,0.0045455,0.003943,-0.0040012,-0.021837,-0.011516,0.0059863,-0.0069375,0.0015286,0.0015788,0.0033972,-0.044667,-0.12569,0.057259,-0.0003849,0.038322,0.007632,-0.023412,0.0023807,0.011754
-0.0057749,0.012039,-0.0057635,-0.013064,0.0081853,0.0090938,0.0035218,-0.0039562,-0.028286,-0.011813,0.009557,-0.0022088,-0.010472,-0.019149,0.0042169,-0.042157,-0.14049,0.069492,-0.0022885,0.043121,0.0032384,-0.028143,0.0046513,0.006379
-0.0061142,0.013884,-0.018323,-0.0071129,0.0078289,0.013631,0.00558,-0.00032455,-0.030767,-0.013989,0.015978,0.0040532,-0.021582,-0.032339,-0.00019015,-0.036605,-0.15086,0.080772,-8.9677e-006,0.043554,-1.5584e-005,-0.032024,0.010517,0.0022677
-0.006951,0.014192,-0.033274,-0.0058317,0.0037199,0.01508,0.0091654,0.0066262,-0.025603,-0.0166,0.021552,0.0084869,-0.028065,-0.035478,-0.0089729,-0.028801,-0.15438,0.093342,0.0064444,0.038528,-0.0013737,-0.03634,0.014873,-0.0014343
-0.0064569,0.011842,-0.048783,-0.0096353,-0.0010416,0.013402,0.013017,0.013567,-0.015015,-0.017847,0.022615,0.008866,-0.028137,-0.031579,-0.019226,-0.021483,-0.15055,0.10881,0.014754,0.030545,-0.0017349,-0.041211,0.01392,-0.0042793
-0.0032125,0.0074634,-0.063194,-0.01432,-0.0028343,0.010839,0.016254,0.017396,-0.0058179,-0.017594,0.01847,0.0058196,-0.022594,-0.026083,-0.027218,-0.018252,-0.14093,0.12508,0.021493,0.02367,-0.0033198,-0.045606,0.0084055,-0.0053199
0.0021635,0.0033044,-0.076438,-0.014796,-3.2943e-005,0.009457,0.018454,0.018122,-0.0041488,-0.01741,0.012041,0.002187,-0.014122,-0.022533,-0.030284,-0.021247,-0.12854,0.13678,0.024231,0.020359,-0.0082849,-0.04832,0.0028914,-0.0047807
0.007078,0.0019745,-0.089951,-0.0094245,0.0056603,0.0093931,0.019427,0.018604,-0.010559,-0.018583,0.0075436,0.00079045,-0.005863,-0.020553,-0.028194,-0.028941,-0.11701,0.13897,0.022887,0.019979,-0.016998,-0.048624,0.0016395,-0.0044415
0.0088862,0.0046452,-0.10514,-0.0011242,0.010351,0.0092065,0.019194,0.021625,-0.019542,-0.02021,0.007123,0.002596,-4.7308e-005,-0.01745,-0.023044,-0.036009,-0.10967,0.13102,0.01926,0.020213,-0.027288,-0.04618,0.0047801,-0.0059364
0.0070044,0.0099451,-0.12194,0.0054349,0.010842,0.0075901,0.018152,0.027286,-0.023828,-0.019502,0.0092889,0.0065869,0.0027344,-0.011591,-0.017769,-0.036057,-0.1086,0.1174,0.015308,0.019748,-0.035575,-0.040851,0.0083011,-0.0086394
0.0032895,0.014573,-0.13903,0.0077537,0.0070074,0.0046222,0.016963,0.033167,-0.019824,-0.014289,0.010405,0.011016,0.0034697,-0.0043006,-0.014408,-0.025634,-0.11376,0.10469,0.011762,0.019468,-0.039363,-0.033069,0.0079759,-0.0096454
0.00038619,0.015456,-0.15558,0.0071169,0.0017556,0.0015234,0.015988,0.036797,-0.0098845,-0.0054353,0.0077974,0.014641,0.0039238,0.00131,-0.013267,-0.0064887,-0.12284,0.097234,0.0082412,0.021057,-0.039235,-0.024336,0.0036933,-0.0064347
-0.00034525,0.011938,-0.17288,0.0069159,-0.0013369,-0.00050923,0.014855,0.037753,1.8539e-005,0.0032856,0.001836,0.016966,0.005424,0.003168,-0.013291,0.015933,-0.13212,0.094688,0.004463,0.024606,-0.038596,-0.016901,9.3962e-005,8.7234e-005
0.00057166,0.0062964,-0.19385,0.0096359,-0.00073156,-0.0010807,0.012846,0.037366,0.0048737,0.0079809,-0.004521,0.017737,0.0079012,0.0018172,-0.013069,0.036739,-0.13809,0.093145,0.0011136,0.027912,-0.041153,-0.012399,0.0026289,0.0053308
0.0019221,0.002121,-0.2203,0.015201,0.0021692,-0.00039938,0.0098937,0.036657,0.0037296,0.0076614,-0.0079483,0.016717,0.0099405,-0.00076402,-0.011646,0.055202,-0.13872,0.088622,-0.00057009,0.028314,-0.048033,-0.01049,0.012357,0.004355
0.0033158,0.0018425,-0.25026,0.021638,0.0044548,0.0013143,0.0070738,0.034966,-0.0006149,0.0047524,-0.0067721,0.014197,0.0099921,-0.0036955,-0.0087938,0.074793,-0.13387,0.080063,-5.2028e-005,0.025247,-0.056902,-0.0088656,0.024195,-0.0038665
0.0053901,0.005291,-0.27777,0.02688,0.0041072,0.003917,0.0057248,0.030867,-0.0043109,0.0026835,-0.0014973,0.011566,0.0078551,-0.0082057,-0.0048604,0.09983,-0.12471,0.069717,0.0017883,0.020854,-0.063796,-0.0048328,0.030491,-0.01512
0.0086103,0.010213,-0.29583,0.02996,0.0014016,0.00685,0.0058546,0.024395,-0.0050497,0.0029099,0.0059266,0.010853,0.00507,-0.015764,-0.00047289,0.13182,-0.11305,0.060996,0.0033087,0.017993,-0.066097,0.0027611,0.027113,-0.023031
0.012151,0.014051,-0.3004,0.031003,-0.0016172,0.0088889,0.0056074,0.018077,-0.0028659,0.0041838,0.013105,0.013146,0.0036551,-0.025062,0.0037761,0.16862,-0.10091,0.055833,0.0035575,0.017642,-0.064206,0.012818,0.016863,-0.02406
0.014263,0.015453,-0.2922,0.030655,-0.0028889,0.008831,0.0028024,0.015389,0.00073254,0.0045818,0.017932,0.017235,0.0041631,-0.031127,0.0075387,0.20673,-0.090266,0.053649,0.0031247,0.018298,-0.060656,0.022971,0.0072597,-0.020112
0.013878,0.014557,-0.27505,0.029699,-0.0018242,0.0067207,-0.002619,0.01791,0.0041572,0.0040383,0.019218,0.02007,0.0048608,-0.028126,0.010636,0.24394,-0.082401,0.052423,0.0035357,0.017861,-0.05769,0.031324,0.0045374,-0.016506
0.011782,0.012243,-0.25224,0.028885,0.00047558,0.0043385,-0.0077527,0.023854,0.0067059,0.0047121,0.017344,0.019153,0.0029716,-0.013918,0.012634,0.27943,-0.077084,0.050599,0.0057129,0.015961,-0.055563,0.037522,0.0089888,-0.017194
0.009991,0.0093265,-0.22414,0.028594,0.0021375,0.0041287,-0.008797,0.029417,0.0087973,0.0088276,0.014375,0.014981,-0.0029559,0.00762,0.012412,0.31125,-0.072403,0.048109,0.0089113,0.014328,-0.052959,0.042513,0.015414,-0.021475
0.0098166,0.0063494,-0.18905,0.028419,0.0017271,0.0072217,-0.0044573,0.031711,0.011513,0.016254,0.01299,0.011207,-0.011628,0.028821,0.0083784,0.3342,-0.06584,0.045922,0.011122,0.014898,-0.048882,0.047429,0.017937,-0.025011
0.010516,0.0038675,-0.14613,0.02728,-0.00099059,0.012288,0.0025204,0.03063,0.015624,0.02432,0.014565,0.012,-0.01986,0.043448,-0.0003968,0.34109,-0.056038,0.044965,0.010649,0.017633,-0.044019,0.052576,0.014806,-0.023966
0.0099656,0.0026344,-0.097593,0.024362,-0.0049526,0.016438,0.0074061,0.0282,0.020616,0.030032,0.017941,0.018618,-0.025021,0.050656,-0.012736,0.32756,-0.043785,0.045578,0.0075398,0.020193,-0.040235,0.057179,0.0092423,-0.0184
0.0068172,0.0032757,-0.048215,0.020156,-0.0082405,0.017566,0.007472,0.026377,0.024531,0.032426,0.020295,0.028147,-0.026993,0.054482,-0.024885,0.29649,-0.031219,0.047762,0.0036765,0.019674,-0.038732,0.059849,0.0061353,-0.011949
0.0020816,0.0056768,-0.0026799,0.016445,-0.0089292,0.016136,0.0042857,0.025509,0.025105,0.032807,0.01967,0.035648,-0.027939,0.059541,-0.031848,0.25787,-0.019878,0.051464,0.0014188,0.014753,-0.03875,0.059354,0.0078851,-0.0084145
-0.001443,0.0087197,0.036711,0.014948,-0.0061581,0.014752,0.0021905,0.024651,0.02154,0.032872,0.016916,0.037991,-0.030121,0.066841,-0.029932,0.22307,-0.0093863,0.05624,0.0018644,0.0064812,-0.038118,0.055302,0.01288,-0.008607
-0.0014877,0.010817,0.070112,0.01575,-0.00093753,0.015814,0.0043952,0.022879,0.0154,0.032854,0.01496,0.036179,-0.033608,0.073314,-0.018696,0.19744,0.001969,0.060609,0.0040882,-0.0025507,-0.035139,0.048544,0.017344,-0.010254
0.0016575,0.010992,0.098346,0.017066,0.0040201,0.019291,0.010263,0.020002,0.0096198,0.031544,0.015831,0.034158,-0.035776,0.075207,-0.00073838,0.17697,0.01535,0.062158,0.0059239,-0.0096495,-0.029981,0.041158,0.018408,-0.010663
0.0051822,0.0096726,0.12128,0.016667,0.0057539,0.02258,0.016126,0.016137,0.0063318,0.02794,0.018291,0.035148,-0.033017,0.072082,0.020605,0.15182,0.03006,0.058793,0.0056085,-0.013018,-0.024312,0.03585,0.015782,-0.0092783
0.0058316,0.0084105,0.13792,0.01368,0.0030767,0.022585,0.018622,0.011129,0.0054254,0.022563,0.018602,0.038623,-0.023282,0.0678,0.043731,0.11419,0.044105,0.050223,0.0029564,-0.012147,-0.019628,0.034818,0.01119,-0.0077019
0.0023007,0.0086039,0.14784,0.0090969,-0.0023372,0.018236,0.017401,0.0049165,0.0051699,0.017008,0.014007,0.040542,-0.0076056,0.067687,0.069184,0.064241,0.05601,0.038156,-0.00080836,-0.0079471,-0.01598,0.038534,0.006725,-0.0074714
-0.0039194,0.010201,0.1522,0.004604,-0.0069137,0.011372,0.014907,-0.0014327,0.0041967,0.012327,0.0056111,0.036676,0.010381,0.074357,0.097366,0.0094347,0.066009,0.024703,-0.0042447,-0.002692,-0.012251,0.045272,0.0036979,-0.0080948
-0.0097471,0.011571,0.15316,0.00097889,-0.0077368,0.0054289,0.013801,-0.0054998,0.0027822,0.0081137,-0.0022587,0.026308,0.026335,0.085562,0.12522,-0.04175,0.075428,0.010286,-0.0067638,0.00057402,-0.007552,0.051946,0.0024853,-0.00739
-0.01266,0.010839,0.15212,-0.0024262,-0.0047663,0.0031373,0.014595,-0.0049999,0.0021291,0.0033121,-0.0057515,0.013262,0.037081,0.09543,0.14479,-0.086305,0.084984,-0.0069865,-0.0086854,-0.0006966,-0.0022284,0.056002,0.0028404,-0.003703
-0.012119,0.0076883,0.14872,-0.006737,-0.00082792,0.0050162,0.015532,-2.3626e-005,0.0025075,-0.00218,-0.0047141,0.003434,0.041388,0.097746,0.14559,-0.12777,0.093891,-0.029666,-0.010458,-0.0072478,0.0024738,0.057149,0.0041063,0.0023321
-0.0093625,0.0040378,0.14173,-0.012156,0.00073002,0.0094886,0.014535,0.0061176,0.0024,-0.0069884,-0.0023293,0.00076569,0.039623,0.088831,0.12013,-0.17134,0.1008,-0.058347,-0.012014,-0.017665,0.0055772,0.057614,0.0054275,0.0083015
-0.0060729,0.0028387,0.13123,-0.017423,-0.0012245,0.014126,0.011235,0.008688,-0.000208,-0.0095526,-0.0016179,0.0047407,0.033025,0.068733,0.069191,-0.21775,0.10568,-0.090395,-0.012972,-0.029354,0.007097,0.060549,0.0062873,0.012306
-0.0031865,0.0057647,0.11987,-0.020583,-0.0048412,0.016963,0.0072861,0.0049,-0.0055693,-0.0099363,-0.0023386,0.011127,0.023261,0.041125,0.0035306,-0.26145,0.11058,-0.12121,-0.013372,-0.040134,0.0076701,0.067647,0.0071316,0.014794
-0.00081071,0.011641,0.11176,-0.020427,-0.0071395,0.017219,0.0048843,-0.0037733,-0.011311,-0.010122,-0.0013529,0.015154,0.012336,0.012749,-0.059954,-0.29443,0.11841,-0.14697,-0.014009,-0.049169,0.0076982,0.077749,0.0092965,0.018139
0.00096077,0.016976,0.1096,-0.017471,-0.0067521,0.015368,0.0049694,-0.012311,-0.014084,-0.012193,0.0039751,0.01464,0.0024832,-0.007651,-0.10553,-0.3115,0.13066,-0.16661,-0.015796,-0.056635,0.0070903,0.087526,0.013863,0.024311
0.0014079,0.018322,0.11231,-0.013721,-0.0050012,0.012769,0.0066838,-0.015496,-0.012364,-0.016028,0.012737,0.010956,-0.0042094,-0.011619,-0.12538,-0.31177,0.14632,-0.18131,-0.018699,-0.062645,0.0059099,0.093649,0.020255,0.032737
-0.00042919,0.014691,0.11539,-0.011279,-0.0043215,0.011,0.0084022,-0.011438,-0.0078124,-0.018915,0.020737,0.0075464,-0.0063119,0.005654,-0.12201,-0.29572,0.16301,-0.19223,-0.021268,-0.06659,0.0051254,0.094776,0.026026,0.040301
-0.0046168,0.0082161,0.11401,-0.010708,-0.0055808,0.01109,0.0092653,-0.0026894,-0.0039376,-0.017795,0.02375,0.0074032,-0.0033801,0.042732,-0.10526,-0.26195,0.17925,-0.19853,-0.021381,-0.067502,0.0064592,0.091945,0.028421,0.043526
-0.0096517,0.0026057,0.10638,-0.010429,-0.0069576,0.012985,0.0098235,0.0057962,-0.0033173,-0.01229,0.020712,0.011268,0.0040127,0.092354,-0.086259,-0.20859,0.19578,-0.19741,-0.01769,-0.06502,0.01126,0.087453,0.026518,0.041113
-0.013171,0.00065307,0.094949,-0.0078392,-0.005582,0.015645,0.011284,0.010263,-0.0059118,-0.0056474,0.014105,0.017456,0.014404,0.14514,-0.072031,-0.13884,0.21474,-0.18608,-0.010715,-0.059992,0.019373,0.083361,0.021971,0.034778
-0.01365,0.0026358,0.08437,-0.0015324,-0.0004799,0.017744,0.014101,0.010616,-0.0098108,-0.0024263,0.0075944,0.023003,0.025633,0.19398,-0.063418,-0.064892,0.23748,-0.16405,-0.0028317,-0.054225,0.029067,0.08068,0.017534,0.027833
-0.011608,0.006608,0.078085,0.0071928,0.0059877,0.018515,0.017184,0.010005,-0.01338,-0.004758,0.0033559,0.025209,0.035226,0.23577,-0.056707,-0.0045025,0.26296,-0.13377,0.0028576,-0.049664,0.038121,0.07927,0.014732,0.022832
-0.0091311,0.010077,0.076223,0.015047,0.0096896,0.018155,0.01846,0.012013,-0.016612,-0.010459,0.0013517,0.022695,0.041092,0.26924,-0.047211,0.028932,0.28809,-0.099488,0.0041025,-0.047673,0.045143,0.078001,0.012916,0.020234
-0.0080749,0.01166,0.076243,0.019353,0.0080329,0.017556,0.016394,0.017768,-0.020536,-0.014756,0.00055633,0.015659,0.042307,0.29179,-0.032565,0.035125,0.3094,-0.065379,0.00075241,-0.048677,0.050072,0.075047,0.010538,0.0189
-0.0085933,0.011597,0.075463,0.020302,0.002134,0.017701,0.011302,0.025278,-0.025614,-0.014166,0.00031697,0.0054508,0.039436,0.29892,-0.014137,0.026794,0.32448,-0.034634,-0.0050011,-0.05203,0.05366,0.068737,0.0071957,0.017593
-0.0093563,0.011041,0.073108,0.02066,-0.0040056,0.019178,0.0054569,0.031371,-0.030917,-0.0091482,0.00040136,-0.0060903,0.034075,0.28748,0.0038676,0.020184,0.33217,-0.0098485,-0.0096665,-0.055982,0.056631,0.058961,0.0042156,0.015936
-0.0091403,0.010906,0.070226,0.023011,-0.0065203,0.022078,0.0018785,0.034475,-0.034867,-0.0033338,0.00014977,-0.017163,0.027891,0.25948,0.016918,0.023778,0.33174,0.0061613,-0.010394,-0.058029,0.059339,0.048117,0.003162,0.014144
-0.0080953,0.011195,0.067815,0.02713,-0.0042839,0.026136,0.0026383,0.035835,-0.036663,-0.00027594,-0.0016979,-0.026257,0.021933,0.22211,0.022817,0.034275,0.32229,0.010509,-0.0067295,-0.055862,0.062063,0.040232,0.0039333,0.012189
-0.0073541,0.011211,0.065203,0.030158,0.00090363,0.030886,0.0077747,0.038218,-0.036868,-0.0007633,-0.0057954,-0.032263,0.016696,0.1829,0.02289,0.042332,0.3032,0.001775,-0.00095266,-0.048599,0.065374,0.038223,0.0045863,0.0095356
-0.0074583,0.010343,0.060403,0.029591,0.0062742,0.035706,0.015398,0.043428,-0.036685,-0.0029156,-0.010785,-0.034638,0.012799,0.14407,0.020873,0.04207,0.27518,-0.018112,0.0033789,-0.037424,0.070002,0.041245,0.0031798,0.0057272
-0.0074203,0.0087523,0.052278,0.026159,0.010184,0.039847,0.022755,0.050824,-0.036727,-0.0044725,-0.013555,-0.033604,0.011542,0.10179,0.020194,0.035716,0.24113,-0.043351,0.0037275,-0.025011,0.07623,0.044597,-0.00025904,0.0010659
-0.0056211,0.0073993,0.042422,0.023566,0.012637,0.042537,0.027532,0.057995,-0.036456,-0.0047679,-0.011516,-0.030144,0.014734,0.051797,0.021569,0.029986,0.20567,-0.065993,7.0186e-005,-0.014091,0.083431,0.042815,-0.0037351,-0.003487
-0.0017151,0.007337,0.034666,0.025093,0.014305,0.043215,0.028743,0.062663,-0.034653,-0.0046052,-0.0050118,-0.025589,0.023725,-0.0035042,0.022764,0.028727,0.17369,-0.079195,-0.0053909,-0.0061656,0.090264,0.033711,-0.0053016,-0.007111
0.0025459,0.0088175,0.032184,0.03029,0.015465,0.041754,0.02694,0.064005,-0.030392,-0.0046466,0.0025798,-0.020953,0.038134,-0.053512,0.020754,0.029281,0.14859,-0.080065,-0.0098476,-0.001132,0.095434,0.020074,-0.0050202,-0.0097091
0.0046798,0.010961,0.034573,0.035144,0.015961,0.038582,0.023851,0.062427,-0.02381,-0.0043922,0.0074626,-0.016512,0.055133,-0.085948,0.014568,0.025818,0.13137,-0.070391,-0.011489,0.0022757,0.098433,0.0075628,-0.0048088,-0.011629
0.0038367,0.012359,0.03768,0.035751,0.015927,0.034549,0.021584,0.058502,-0.016325,-0.0029262,0.008484,-0.012055,0.070032,-0.096307,0.0064727,0.015856,0.12092,-0.054959,-0.010117,0.0057859,0.099733,0.00056283,-0.0062701,-0.012956
0.0017729,0.012199,0.036733,0.032013,0.0161,0.030575,0.021623,0.052455,-0.010245,-0.00045821,0.0077653,-0.0076322,0.078337,-0.091811,0.00045539,0.0034073,0.11492,-0.038649,-0.0068315,0.010884,0.10035,-0.00057462,-0.0086865,-0.013372
0.0013462,0.010964,0.030305,0.027698,0.017155,0.027217,0.023954,0.04469,-0.0077668,0.0012918,0.0083161,-0.0040448,0.078341,-0.085934,-0.00082985,-0.004217,0.11073,-0.024141,-0.0033965,0.018025,0.10115,0.0011553,-0.0092881,-0.012883
0.0039543,0.010009,0.021651,0.026715,0.018713,0.024464,0.026858,0.036521,-0.0095802,0.00056823,0.011029,-0.002374,0.072443,-0.087982,0.0017689,-0.0027,0.10587,-0.011462,-0.00159,0.025967,0.10227,0.0025741,-0.0057079,-0.012468
0.0084206,0.010287,0.01605,0.02916,0.019251,0.021945,0.02772,0.02994,-0.013923,-0.0024881,0.014067,-0.0027582,0.06573,-0.096702,0.0042976,0.0057322,0.098315,0.00066387,-0.0024215,0.031997,0.10297,0.0030174,0.0015986,-0.013475
0.012331,0.011336,0.016349,0.031036,0.017248,0.019386,0.024608,0.026333,-0.017072,-0.005529,0.015187,-0.0035749,0.062274,-0.10323,0.0022799,0.014358,0.086892,0.01279,-0.0053199,0.033575,0.10191,0.0043455,0.0092276,-0.015915
0.014306,0.011556,0.020583,0.027999,0.012641,0.016851,0.017649,0.025326,-0.015446,-0.0058471,0.01445,-0.0021805,0.061785,-0.10022,-0.0064996,0.017191,0.071683,0.023558,-0.0080015,0.030643,0.097763,0.0085635,0.013175,-0.017408
0.014833,0.0097195,0.023764,0.019657,0.0072424,0.014473,0.0091613,0.024994,-0.0080279,-0.002741,0.014356,0.002939,0.059538,-0.088701,-0.020915,0.012561,0.053983,0.030285,-0.0076928,0.02659,0.089772,0.015351,0.011668,-0.014427
0.014966,0.0064297,0.022239,0.010327,0.0036704,0.011938,0.0022901,0.023434,0.0028187,0.0018229,0.017123,0.010327,0.050115,-0.076869,-0.037524,0.0024146,0.035465,0.030997,-0.0032574,0.026452,0.078188,0.021671,0.0062093,-0.0054473
0.014579,0.0040687,0.016741,0.0054938,0.0036283,0.0083962,-0.0009362,0.020344,0.012946,0.0048528,0.021931,0.015982,0.032121,-0.072601,-0.052602,-0.011129,0.017065,0.026415,0.0034652,0.033144,0.064231,0.023734,0.00024383,0.0066565
0.012308,0.0049473,0.011518,0.0072237,0.0068509,0.0031782,-0.00066273,0.01717,0.019174,0.0047099,0.025162,0.016277,0.0098565,-0.076953,-0.063767,-0.028335,-0.0015227,0.020217,0.0086338,0.044679,0.049682,0.019661,-0.0031543,0.015614
0.0073877,0.009054,0.010485,0.012685,0.011407,-0.0031787,0.0013738,0.015671,0.02095,0.0020694,0.023604,0.011218,-0.0096348,-0.08426,-0.070565,-0.051332,-0.021233,0.017033,0.0093419,0.055012,0.036219,0.010804,-0.0027447,0.016042
0.0013565,0.013435,0.013902,0.016971,0.014985,-0.008678,0.0034337,0.016196,0.019772,-0.0011872,0.01751,0.0050839,-0.021709,-0.087949,-0.074216,-0.081418,-0.042383,0.019478,0.0061622,0.058324,0.024764,0.00085303,0.00095715,0.0077952
-0.0024969,0.014095,0.018396,0.017462,0.016201,-0.010982,0.0049016,0.017248,0.01739,-0.0038198,0.010432,0.0033812,-0.027097,-0.086184,-0.076959,-0.11683,-0.063821,0.026468,0.0028969,0.053508,0.015155,-0.00643,0.0065855,-0.003391
-0.0018009,0.0091724,0.019985,0.015671,0.015145,-0.0092449,0.0060323,0.01676,0.014711,-0.0059829,0.0059696,0.0082862,-0.030367,-0.08236,-0.08108,-0.1528,-0.083167,0.034193,0.00345,0.045137,0.006374,-0.0091664,0.012635,-0.0098227
0.0025121,0.00080093,0.017218,0.015051,0.013007,-0.0051281,0.006817,0.013967,0.012243,-0.0083867,0.0046692,0.016388,-0.035561,-0.080749,-0.08761,-0.18364,-0.09791,0.038995,0.0084234,0.039947,-0.002636,-0.0078083,0.017697,-0.0073656
0.0064458,-0.0060689,0.011824,0.017068,0.011163,-0.0019244,0.0063707,0.010207,0.010962,-0.011039,0.0040756,0.020932,-0.04298,-0.081905,-0.09517,-0.205,-0.10657,0.039878,0.014503,0.041596,-0.011982,-0.0041374,0.020656,0.0018666
0.0058151,-0.0072148,0.0068169,0.019409,0.010325,-0.002283,0.0036595,0.0079127,0.012062,-0.01301,0.0017161,0.016982,-0.049581,-0.08209,-0.099961,-0.21507,-0.10922,0.03884,0.017292,0.047906,-0.02036,0.00012626,0.021138,0.011718
-0.00059576,-0.0023026,0.004217,0.018033,0.010167,-0.0062905,-0.0011224,0.008619,0.015523,-0.013387,-0.002138,0.0053374,-0.052008,-0.076878,-0.097515,-0.2144,-0.10733,0.039175,0.015103,0.052842,-0.025656,0.0040249,0.019847,0.017062
-0.010131,0.0048881,0.0043505,0.011107,0.0095486,-0.011473,-0.0060852,0.011634,0.01918,-0.012226,-0.004725,-0.0080736,-0.049222,-0.065384,-0.085575,-0.20533,-0.10302,0.043467,0.010302,0.051533,-0.026447,0.0071016,0.018181,0.017451
-0.018187,0.0093617,0.0067179,0.001046,0.0071322,-0.014713,-0.0088883,0.014407,0.019843,-0.010338,-0.0037096,-0.016752,-0.042744,-0.051428,-0.066161,-0.19175,-0.098298,0.052733,0.0070724,0.044241,-0.02341,0.0087946,0.017133,0.016506
-0.021296,0.0085616,0.010867,-0.0073197,0.0021343,-0.014522,-0.0087467,0.014226,0.015917,-0.0081354,0.00024899,-0.0183,-0.035131,-0.040893,-0.044997,-0.17865,-0.09428,0.066692,0.0077545,0.036057,-0.019461,0.0083124,0.016366,0.017984
-0.01914,0.0038779,0.016163,-0.010832,-0.0050824,-0.011906,-0.0072777,0.0098954,0.0091625,-0.0048844,0.003846,-0.015443,-0.028588,-0.037757,-0.02821,-0.17082,-0.090865,0.084074,0.011164,0.032676,-0.018202,0.0052047,0.014402,0.022218
-0.01436,-0.00099818,0.021036,-0.01067,-0.012845,-0.009327,-0.0071645,0.0023161,0.0036706,0.00063661,0.0040208,-0.012969,-0.024683,-0.041914,-0.018438,-0.17046,-0.087097,0.10237,0.014212,0.035717,-0.021585,4.3858e-005,0.0099776,0.025964
-0.010711,-0.0032444,0.023161,-0.011237,-0.018688,-0.0087976,-0.0096549,-0.0061606,0.002662,0.0085948,0.00058502,-0.01368,-0.024513,-0.050187,-0.013238,-0.17483,-0.08211,0.11769,0.014951,0.041397,-0.028491,-0.0055894,0.0034335,0.025573
-0.010886,-0.0028836,0.021008,-0.016332,-0.020544,-0.010677,-0.013161,-0.01291,0.0057886,0.017261,-0.0038118,-0.016921,-0.028369,-0.059319,-0.0071294,-0.17613,-0.076036,0.12577,0.013972,0.043558,-0.035465,-0.01,-0.0031832,0.020468
-0.015159,-0.0021265,0.015477,-0.025994,-0.018024,-0.013915,-0.014388,-0.016076,0.0092853,0.023874,-0.0061656,-0.020525,-0.035143,-0.068556,0.0041361,-0.16474,-0.070093,0.12413,0.01301,0.038563,-0.039176,-0.012463,-0.0075451,0.013881
-0.021374,-0.0029972,0.0097847,-0.036609,-0.012867,-0.017203,-0.011176,-0.015217,0.0088454,0.02656,-0.0056377,-0.023694,-0.042619,-0.079985,0.020311,-0.1347,-0.065626,0.11371,0.012593,0.02812,-0.038778,-0.013557,-0.0088142,0.010327
-0.026179,-0.0054895,0.0073031,-0.043949,-0.0079545,-0.019871,-0.0046072,-0.011483,0.0028453,0.02557,-0.0039128,-0.027754,-0.049007,-0.096482,0.036869,-0.088007,-0.062785,0.0985,0.011455,0.017912,-0.036287,-0.014471,-0.0081605,0.012047
-0.026935,-0.0077824,0.0091028,-0.046384,-0.0054183,-0.021843,0.001566,-0.0071972,-0.0065531,0.022768,-0.003362,-0.034156,-0.054451,-0.1187,0.048512,-0.034433,-0.060005,0.082974,0.0083432,0.01327,-0.034699,-0.015961,-0.0075358,0.01738
-0.023304,-0.0080951,0.013418,-0.045714,-0.0052531,-0.023012,0.0038239,-0.0047154,-0.015004,0.019988,-0.0049089,-0.042064,-0.060724,-0.14317,0.053221,0.013698,-0.054936,0.069319,0.0040832,0.015419,-0.035476,-0.017927,-0.0078502,0.022223
-0.017491,-0.0063809,0.017522,-0.04529,-0.0056101,-0.022932,0.0017296,-0.004991,-0.018818,0.01788,-0.0074973,-0.048349,-0.068996,-0.16306,0.053762,0.048702,-0.046268,0.056671,0.0013881,0.021107,-0.037501,-0.019906,-0.0082864,0.023272
-0.012859,-0.0043628,0.020206,-0.04727,-0.0045131,-0.021337,-0.0017178,-0.0068015,-0.016994,0.016178,-0.0093672,-0.050252,-0.077673,-0.17169,0.055583,0.07171,-0.035063,0.04295,0.0022945,0.025514,-0.03832,-0.021841,-0.0073805,0.020432
-0.011751,-0.0039796,0.022511,-0.051212,-0.0014679,-0.018952,-0.002597,-0.0074483,-0.011323,0.014708,-0.0096986,-0.048113,-0.082644,-0.16692,0.062752,0.090879,-0.024419,0.027617,0.0057909,0.025785,-0.036417,-0.024223,-0.004733,0.016618
-0.014031,-0.005693,0.026143,-0.054805,0.0024215,-0.017533,0.0006215,-0.0046976,-0.0049242,0.013757,-0.0090462,-0.045278,-0.080167,-0.15352,0.075008,0.11502,-0.017615,0.012903,0.0082174,0.022357,-0.032457,-0.027423,-0.0015761,0.015225
-0.017385,-0.0081295,0.031342,-0.055857,0.0057264,-0.018661,0.0057555,0.0014052,-0.00037751,0.013371,-0.0083392,-0.045004,-0.070022,-0.1413,0.087969,0.14738,-0.016065,0.0024445,0.0062936,0.017458,-0.028456,-0.030946,0.00038796,0.017298
-0.019082,-0.0092806,0.036498,-0.053904,0.00794,-0.022168,0.0087307,0.0083362,0.0014512,0.01266,-0.0076777,-0.047281,-0.056116,-0.13941,0.096218,0.18395,-0.018566,-0.0014831,-4.7039e-005,0.012562,-0.02585,-0.033494,0.0006262,0.020617
-0.017805,-0.0081352,0.039912,-0.050301,0.0094881,-0.025798,0.0070237,0.012804,0.0014196,0.010375,-0.0063157,-0.048758,-0.043938,-0.15003,0.096953,0.21684,-0.02222,0.00028797,-0.0077213,0.0071832,-0.024373,-0.033935,9.8578e-005,0.02146
-0.014235,-0.0053651,0.041775,-0.04685,0.010753,-0.02682,0.001821,0.013091,0.001185,0.0064724,-0.0039322,-0.046101,-0.037007,-0.16599,0.09169,0.23979,-0.024158,0.004575,-0.01336,-0.00018023,-0.022745,-0.032386,-0.00013702,0.017687
-0.010185,-0.0026427,0.044105,-0.044067,0.011433,-0.02449,-0.0029143,0.010191,0.0020172,0.0028851,-0.0018158,-0.03967,-0.035202,-0.17473,0.085081,0.25141,-0.022839,0.008457,-0.016201,-0.010165,-0.020277,-0.030402,-0.00052624,0.010714
-0.007187,-0.0013697,0.048508,-0.040501,0.011062,-0.021098,-0.0036281,0.006887,0.0040617,0.0021296,-0.0024363,-0.03389,-0.035959,-0.16646,0.081876,0.25463,-0.018357,0.011536,-0.018299,-0.021676,-0.017608,-0.030014,-0.002937,0.0046952
-0.0056331,-0.0019268,0.054073,-0.033849,0.010042,-0.020325,0.0001079,0.0056329,0.0064324,0.004683,-0.0073801,-0.033657,-0.036867,-0.14124,0.084179,0.25373,-0.012075,0.01599,-0.021985,-0.032802,-0.015746,-0.032307,-0.008686,0.0034721
-0.0048551,-0.0038485,0.057829,-0.023173,0.0097894,-0.024049,0.0055376,0.0069854,0.0079661,0.0078068,-0.015409,-0.039894,-0.037324,-0.10959,0.090645,0.25165,-0.0060607,0.024416,-0.027126,-0.042546,-0.014517,-0.036582,-0.016541,0.0076917
-0.0037695,-0.0064276,0.05767,-0.010475,0.011512,-0.03044,0.0091265,0.0097011,0.0080622,0.0074846,-0.022645,-0.048392,-0.03828,-0.085851,0.097802,0.24924,-0.0023644,0.037213,-0.030828,-0.051633,-0.01229,-0.040728,-0.022854,0.014381
-0.0014957,-0.0090556,0.054922,-3.2452e-005,0.014788,-0.035285,0.0091809,0.012082,0.0070221,0.0020492,-0.025135,-0.053175,-0.040885,-0.078481,0.10232,0.24625,-0.002053,0.051534,-0.029842,-0.061598,-0.0075628,-0.042566,-0.024059,0.019247
0.0022824,-0.011158,0.053723,0.0043477,0.01759,-0.035624,0.0065113,0.01318,0.0057089,-0.0059585,-0.021797,-0.05148,-0.045471,-0.084363,0.10265,0.24251,-0.0043892,0.062512,-0.023447,-0.072974,-0.0009477,-0.041272,-0.019473,0.019729
0.0071128,-0.01213,0.057389,0.0021634,0.018094,-0.032527,0.0029468,0.012869,0.0048594,-0.011766,-0.015246,-0.045895,-0.051465,-0.091231,0.099284,0.23844,-0.0070609,0.065805,-0.014232,-0.084287,0.0046193,-0.03795,-0.011918,0.016352
0.011708,-0.011615,0.065057,-0.0032454,0.016657,-0.030419,-0.00057008,0.0111,0.0046178,-0.012541,-0.0097787,-0.041745,-0.057826,-0.086537,0.093833,0.23472,-0.007851,0.059739,-0.006223,-0.092882,0.0059954,-0.034962,-0.0056141,0.01157
0.014265,-0.0099031,0.071977,-0.0070952,0.015915,-0.033419,-0.0044588,0.0073939,0.0046331,-0.0098109,-0.0082569,-0.042164,-0.06345,-0.066115,0.087909,0.23185,-0.0067531,0.045875,-0.0021357,-0.096988,0.0024612,-0.034423,-0.0031754,0.0074646
0.013378,-0.007961,0.073477,-0.0066695,0.018543,-0.041885,-0.0093068,0.0012763,0.0045516,-0.007764,-0.010466,-0.045338,-0.067488,-0.03626,0.082622,0.22984,-0.0066432,0.02796,-0.0020603,-0.097276,-0.0036765,-0.036838,-0.0042097,0.004437
0.0091877,-0.0069038,0.069016,-0.0031048,0.02453,-0.052167,-0.014429,-0.0068411,0.0043847,-0.0090713,-0.014003,-0.046339,-0.069781,-0.0081177,0.078694,0.22844,-0.011495,0.010069,-0.0043129,-0.096539,-0.0092183,-0.040802,-0.0064157,0.0017491
0.0038449,-0.007325,0.062527,-4.5055e-005,0.030536,-0.0597,-0.017759,-0.015395,0.0043742,-0.012303,-0.016477,-0.041691,-0.071239,0.010641,0.076721,0.22737,-0.023267,-0.0050912,-0.0071874,-0.097611,-0.012976,-0.043962,-0.0078771,-0.0010763
0.00052931,-0.0090871,0.058716,-0.00041979,0.032173,-0.062575,-0.017265,-0.022526,0.0045217,-0.013391,-0.016952,-0.032415,-0.073698,0.02,0.077137,0.22651,-0.040011,-0.017018,-0.0098452,-0.10114,-0.01663,-0.044587,-0.0084556,-0.003644
0.0013154,-0.011714,0.058833,-0.0041352,0.027453,-0.062527,-0.012641,-0.027394,0.0043682,-0.0095722,-0.015743,-0.022909,-0.079078,0.024829,0.079897,0.22557,-0.056904,-0.027099,-0.011858,-0.10496,-0.022636,-0.042661,-0.0093094,-0.0053742
0.0053872,-0.014912,0.05992,-0.0085319,0.018451,-0.06278,-0.0057689,-0.03078,0.003423,-0.0019044,-0.013394,-0.016949,-0.088411,0.028538,0.084294,0.22361,-0.069422,-0.037315,-0.012471,-0.10544,-0.031144,-0.039776,-0.011326,-0.00646
0.0092422,-0.018621,0.058057,-0.010966,0.0097012,-0.065017,0.00040472,-0.034436,0.0019386,0.0059584,-0.010187,-0.014627,-0.10156,0.029428,0.089191,0.2188,-0.076079,-0.048652,-0.010831,-0.099901,-0.038966,-0.038006,-0.014022,-0.0077973
0.0091503,-0.022514,0.05233,-0.011085,0.0046935,-0.068206,0.0036102,-0.039798,0.0012081,0.011229,-0.0064738,-0.012889,-0.11779,0.022982,0.093537,0.20921,-0.078677,-0.060249,-0.0070907,-0.08827,-0.041782,-0.038589,-0.015799,-0.0098807
0.0041896,-0.025515,0.04565,-0.010852,0.0034253,-0.070016,0.00328,-0.047184,0.002846,0.014081,-0.0030602,-0.008804,-0.13646,0.0075169,0.096753,0.19418,-0.0803,-0.069952,-0.0030498,-0.073145,-0.037793,-0.041318,-0.015183,-0.012009
-0.0026178,-0.025975,0.041793,-0.012522,0.0030009,-0.069126,0.00027174,-0.056003,0.0074571,0.016405,-0.00087252,-0.0022637,-0.15714,-0.012521,0.098703,0.17532,-0.083084,-0.075929,-0.0012072,-0.058388,-0.029586,-0.04495,-0.012,-0.012935
-0.0062522,-0.022615,0.041712,-0.016569,0.00049458,-0.066233,-0.0042113,-0.065501,0.013803,0.018863,-0.00021287,0.0042911,-0.17911,-0.028905,0.099354,0.15592,-0.087497,-0.078031,-0.00274,-0.047211,-0.022453,-0.04824,-0.0076538,-0.012461
-0.003412,-0.015626,0.042718,-0.021403,-0.0046373,-0.063096,-0.0095052,-0.075168,0.019293,0.019595,-0.00052715,0.0084721,-0.201,-0.035519,0.098464,0.1388,-0.093097,-0.077714,-0.0062228,-0.040666,-0.020454,-0.050794,-0.0043934,-0.012167
0.00489,-0.0070744,0.041207,-0.024892,-0.010673,-0.060836,-0.015539,-0.084503,0.021527,0.016136,-0.001062,0.010094,-0.22116,-0.032527,0.095553,0.12413,-0.099449,-0.076597,-0.0084577,-0.037181,-0.023376,-0.053103,-0.0040409,-0.014158
0.013944,-0.00016574,0.036137,-0.026122,-0.015806,-0.059146,-0.022189,-0.092612,0.019742,0.0085659,-0.0017021,0.010867,-0.23836,-0.025478,0.09005,0.10886,-0.10621,-0.075041,-0.0069072,-0.033471,-0.027006,-0.055748,-0.0068716,-0.018772
0.018702,0.0022768,0.02993,-0.025804,-0.019955,-0.056852,-0.028618,-0.098285,0.015123,0.00045778,-0.0030076,0.0123,-0.2519,-0.020699,0.081323,0.088365,-0.1127,-0.072164,-0.0017017,-0.026593,-0.026417,-0.058489,-0.011256,-0.023537
0.017228,-0.00074807,0.026049,-0.025207,-0.024339,-0.05296,-0.033258,-0.10065,0.009904,-0.0037337,-0.0053664,0.014203,-0.26079,-0.02119,0.068511,0.059214,-0.11803,-0.067242,0.0044862,-0.016112,-0.019641,-0.060118,-0.014355,-0.024659
0.011654,-0.0079138,0.025671,-0.024826,-0.029426,-0.04713,-0.034606,-0.099879,0.0060681,-0.0025101,-0.0082116,0.015332,-0.26267,-0.025866,0.050528,0.021354,-0.12183,-0.061002,0.0085579,-0.0047723,-0.0090107,-0.059415,-0.01367,-0.019892
0.0061676,-0.01627,0.0266,-0.024032,-0.033673,-0.039454,-0.032347,-0.097269,0.0045202,0.0013548,-0.010228,0.015274,-0.2537,-0.031311,0.026769,-0.02134,-0.1249,-0.055324,0.0092755,0.003252,0.00053407,-0.056482,-0.0086515,-0.010189
0.0038624,-0.022707,0.02532,-0.021857,-0.034705,-0.030259,-0.027973,-0.09472,0.0050086,0.003453,-0.01041,0.015335,-0.23012,-0.033371,-0.0015003,-0.062286,-0.12864,-0.051527,0.0078761,0.0055814,0.0046454,-0.053199,-0.0013202,0.0013632
0.0049309,-0.025331,0.020208,-0.018031,-0.03188,-0.020421,-0.024285,-0.093842,0.0065223,0.0018835,-0.008942,0.017291,-0.19076,-0.027393,-0.030076,-0.094721,-0.13374,-0.048958,0.0066895,0.0038001,0.0018796,-0.052132,0.0047748,0.012222
0.0072802,-0.024022,0.012966,-0.013297,-0.027523,-0.011769,-0.023935,-0.095241,0.0078006,-0.0011139,-0.0070732,0.021209,-0.13896,-0.0087089,-0.052491,-0.11465,-0.13929,-0.045419,0.0070851,0.0024931,-0.0061516,-0.054606,0.0068421,0.022124
0.0086481,-0.020063,0.0070825,-0.0088606,-0.025255,-0.0066555,-0.027904,-0.098185,0.0078232,-0.001648,-0.0061896,0.024649,-0.082491,0.024725,-0.062882,-0.1229,-0.14349,-0.039175,0.0084691,0.0056653,-0.016305,-0.059541,0.0048765,0.032406
0.0083248,-0.015255,0.0048034,-0.0055043,-0.026853,-0.0065389,-0.034945,-0.10081,0.0062577,0.0016529,-0.006934,0.024294,-0.031141,0.068461,-0.059597,-0.12477,-0.14536,-0.030624,0.0090158,0.013531,-0.025654,-0.064152,0.0018051,0.04388
0.0072672,-0.011094,0.0052942,-0.0030578,-0.030721,-0.010579,-0.042375,-0.10091,0.0036922,0.0059382,-0.0089638,0.018699,0.0071434,0.1104,-0.046855,-0.12691,-0.14583,-0.022023,0.0073295,0.022542,-0.032413,-0.066043,0.0013802,0.05554
0.0068849,-0.0083527,0.0054575,-0.00052773,-0.03356,-0.015665,-0.047599,-0.097141,0.0013714,0.0066752,-0.011231,0.0097061,0.029492,0.13548,-0.032712,-0.1331,-0.14713,-0.015518,0.0035636,0.028627,-0.036011,-0.064997,0.0052858,0.06531
0.0077543,-0.0070364,0.0024971,0.0032098,-0.033611,-0.018221,-0.049298,-0.090045,0.00041209,0.0020441,-0.012386,0.0013121,0.039044,0.13451,-0.02433,-0.14211,-0.15099,-0.011377,-0.00087838,0.030594,-0.036885,-0.063027,0.011771,0.071845
0.0092969,-0.0065706,-0.0040587,0.0084874,-0.032223,-0.016521,-0.047622,-0.082021,0.00096472,-0.0050729,-0.011187,-0.0029947,0.043068,0.1108,-0.023891,-0.14973,-0.15732,-0.00804,-0.0046448,0.030562,-0.036272,-0.062687,0.017029,0.075452
0.01044,-0.0061732,-0.012422,0.014192,-0.032203,-0.011655,-0.043549,-0.075913,0.0020255,-0.0094984,-0.0070472,-0.0021905,0.049342,0.078666,-0.028157,-0.15344,-0.16455,-0.0037834,-0.007488,0.031213,-0.035814,-0.065048,0.018234,0.077296
0.010466,-0.0053637,-0.020272,0.017935,-0.034688,-0.0063649,-0.038109,-0.073008,0.0021873,-0.00836,-0.00060438,0.0023715,0.062737,0.054014,-0.031857,-0.15562,-0.17101,0.0017326,-0.010134,0.032845,-0.036799,-0.068904,0.015694,0.077903
0.0092706,-0.0043908,-0.026384,0.017298,-0.037734,-0.0027927,-0.03202,-0.072006,0.00081056,-0.0036113,0.006202,0.0085275,0.083555,0.043908,-0.032,-0.16202,-0.17592,0.0074854,-0.013188,0.033286,-0.039397,-0.071713,0.012295,0.076587
0.0070038,-0.0041903,-0.030855,0.011618,-0.038043,-0.0010649,-0.02575,-0.070009,-0.0013774,-0.00020344,0.010937,0.014708,0.10803,0.043217,-0.029737,-0.17619,-0.17915,0.012466,-0.016192,0.030638,-0.042586,-0.071502,0.010902,0.072286
0.0037028,-0.0056721,-0.03418,0.0030317,-0.034129,0.00020156,-0.019719,-0.06494,-0.002837,-0.0016988,0.012009,0.020162,0.13037,0.040757,-0.028709,-0.19486,-0.18053,0.016863,-0.017804,0.025798,-0.044968,-0.068355,0.012122,0.064733
-0.00051159,-0.0087066,-0.036449,-0.0043617,-0.02784,0.0021344,-0.014399,-0.057454,-0.0024916,-0.0073551,0.0095581,0.024389,0.14539,0.02955,-0.031792,-0.20859,-0.17982,0.021814,-0.016927,0.021844,-0.04584,-0.064475,0.014354,0.054707
-0.0048343,-0.011666,-0.037551,-0.0070864,-0.02285,0.0043074,-0.010297,-0.050593,-0.00060425,-0.013141,0.0051712,0.026841,0.15078,0.012743,-0.039091,-0.20774,-0.17754,0.027972,-0.013752,0.020774,-0.045562,-0.062854,0.015729,0.043271
-0.0075799,-0.012185,-0.037954,-0.0048896,-0.021609,0.0050991,-0.007859,-0.047274,0.0015131,-0.015456,0.00066611,0.027282,0.14807,0.00081455,-0.0484,-0.18903,-0.17559,0.034349,-0.0097266,0.021067,-0.044976,-0.065476,0.015761,0.031049
-0.0069998,-0.0088777,-0.038988,-0.0011904,-0.023507,0.0033309,-0.0072984,-0.047667,0.002632,-0.014041,-0.003034,0.026123,0.14167,0.0031472,-0.056998,-0.15746,-0.17661,0.038608,-0.0065673,0.018975,-0.044565,-0.072283,0.015105,0.018434
-0.0027222,-0.0027864,-0.042105,-0.00063006,-0.025711,-0.00036015,-0.0083669,-0.048766,0.0024877,-0.011646,-0.0061033,0.023945,0.136,0.021394,-0.062879,-0.12246,-0.18198,0.038701,-0.0052446,0.012562,-0.044264,-0.081575,0.013994,0.0063926
0.0034454,0.0027773,-0.047776,-0.0053429,-0.025646,-0.0037197,-0.010241,-0.046705,0.0016418,-0.011137,-0.0091856,0.020472,0.13236,0.049876,-0.064772,-0.091817,-0.19047,0.034548,-0.0057873,0.0043992,-0.043946,-0.09147,0.01143,-0.0033063
0.0083465,0.0042397,-0.055109,-0.012892,-0.022895,-0.0045351,-0.011715,-0.039931,0.00065229,-0.012913,-0.012725,0.014264,0.12782,0.081822,-0.061864,-0.068466,-0.19875,0.028521,-0.0077836,-0.00016439,-0.043798,-0.10118,0.0063193,-0.0090454
0.0095585,0.00031683,-0.062607,-0.017749,-0.019106,-0.002335,-0.011699,-0.030517,-0.00043745,-0.014864,-0.016856,0.0039888,0.11753,0.11523,-0.054279,-0.051529,-0.20373,0.024365,-0.010781,0.0021316,-0.043931,-0.11104,-0.00059538,-0.010819
0.0070995,-0.0068809,-0.069323,-0.015379,-0.016367,0.0013435,-0.0097182,-0.022395,-0.0017365,-0.014611,-0.021678,-0.0095296,0.099185,0.15252,-0.044019,-0.039191,-0.20464,0.025242,-0.014094,0.0091743,-0.043669,-0.1212,-0.0063177,-0.010781
0.0032834,-0.013242,-0.075368,-0.0057201,-0.015584,0.0043155,-0.0060588,-0.018003,-0.0028172,-0.011796,-0.027284,-0.022559,0.076269,0.19372,-0.034985,-0.029868,-0.20291,0.031988,-0.016428,0.015217,-0.041611,-0.13028,-0.0076566,-0.012138
0.00081452,-0.01562,-0.081361,0.0067531,-0.016072,0.0054873,-0.0014526,-0.016306,-0.0027366,-0.0084123,-0.033262,-0.030319,0.057153,0.22881,-0.031284,-0.02102,-0.20003,0.042501,-0.016137,0.016206,-0.036954,-0.13533,-0.004095,-0.017097
0.00075785,-0.014052,-0.087459,0.016419,-0.016323,0.0054368,0.0034458,-0.01395,-0.0010319,-0.0070999,-0.038159,-0.030388,0.050159,0.23685,-0.034774,-0.008209,-0.19553,0.052641,-0.012306,0.013591,-0.031037,-0.13357,0.0013346,-0.025406
0.0020648,-0.011432,-0.092933,0.020455,-0.015095,0.005462,0.0084195,-0.0084862,0.0013055,-0.0090669,-0.039716,-0.024773,0.058208,0.19515,-0.04383,0.013011,-0.18705,0.058349,-0.0057606,0.012862,-0.027372,-0.12456,0.0042809,-0.034611
0.0028456,-0.010934,-0.096661,0.020121,-0.012043,0.006197,0.013653,-0.00067509,0.002183,-0.013372,-0.036094,-0.018532,0.077128,0.094185,-0.054439,0.043112,-0.17279,0.057994,0.0011222,0.01816,-0.02949,-0.11086,0.0025676,-0.041807
0.0020444,-0.013429,-0.098034,0.018663,-0.0076956,0.0072211,0.01932,0.0062315,0.00017685,-0.017904,-0.027361,-0.015816,0.098793,-0.051696,-0.062712,0.076294,-0.15396,0.053564,0.0059936,0.028142,-0.038046,-0.096504,-0.0021748,-0.045601
4.8577e-005,-0.017098,-0.097418,0.018142,-0.0030985,0.0079199,0.025032,0.0095116,-0.003789,-0.020937,-0.016061,-0.016592,0.11629,-0.20631,-0.066754,0.10289,-0.13467,0.04976,0.0083126,0.037001,-0.049676,-0.084481,-0.0061739,-0.046888
-0.0019945,-0.01944,-0.09579,0.018214,0.00062527,0.0084445,0.029514,0.0093849,-0.0066289,-0.021925,-0.0062042,-0.016928,0.12697,-0.32712,-0.066677,0.11527,-0.11915,0.051323,0.0097755,0.039504,-0.058935,-0.075356,-0.0068745,-0.048007
-0.0031617,-0.019703,-0.09392,0.0177,0.0027194,0.0095043,0.030864,0.0085472,-0.0053226,-0.021143,-0.0011387,-0.012559,0.1314,-0.38553,-0.063374,0.11247,-0.10851,0.060233,0.012915,0.035203,-0.062006,-0.068286,-0.0049391,-0.050958
-0.0030647,-0.019434,-0.091888,0.016892,0.0032156,0.011131,0.027479,0.0093768,0.00064475,-0.018916,-0.0016868,-0.0025985,0.13022,-0.3793,-0.0576,0.099668,-0.099858,0.074661,0.018979,0.028095,-0.059151,-0.063176,-0.0032739,-0.055999
-0.0015234,-0.020684,-0.089367,0.017859,0.0030662,0.011936,0.019174,0.011603,0.0088261,-0.015362,-0.0058056,0.0097973,0.12243,-0.33003,-0.050093,0.083224,-0.088762,0.090276,0.026835,0.022567,-0.053863,-0.061575,-0.0042765,-0.061544
0.0016266,-0.023648,-0.086395,0.022286,0.00366,0.010102,0.0077056,0.012702,0.015769,-0.010795,-0.010058,0.020115,0.10659,-0.26847,-0.042083,0.066139,-0.072863,0.10275,0.033734,0.019791,-0.049478,-0.065085,-0.0079585,-0.065332
0.0061542,-0.026066,-0.083869,0.029095,0.0057999,0.0054906,-0.0038647,0.010543,0.019582,-0.0061641,-0.011914,0.025894,0.083438,-0.21857,-0.035107,0.04814,-0.053751,0.10953,0.037168,0.017716,-0.046296,-0.072662,-0.012467,-0.06589
0.01096,-0.025064,-0.083169,0.034583,0.008849,0.00069895,-0.012658,0.0056337,0.020816,-0.0028188,-0.011304,0.027863,0.056514,-0.18998,-0.030104,0.029756,-0.035649,0.1098,0.036255,0.013963,-0.041742,-0.079646,-0.016117,-0.063253
0.014319,-0.019833,-0.08512,0.035268,0.010908,-0.00047996,-0.017317,0.00081182,0.021119,-0.0016677,-0.01035,0.028183,0.029912,-0.18092,-0.026821,0.015548,-0.022169,0.10341,0.031736,0.0083488,-0.033335,-0.080062,-0.018774,-0.058611
0.014961,-0.012715,-0.089141,0.030798,0.010168,0.0037177,-0.0183,-0.0012189,0.021295,-0.0024776,-0.011507,0.027942,0.0052615,-0.18537,-0.024399,0.012403,-0.013788,0.090278,0.025004,0.0027421,-0.02166,-0.070695,-0.021366,-0.053432
0.013126,-0.007634,-0.093443,0.024038,0.0064964,0.010953,-0.017145,-5.5425e-005,0.020785,-0.0039904,-0.015495,0.02643,-0.018788,-0.19769,-0.022647,0.023808,-0.0078006,0.071171,0.017347,-0.00097339,-0.010588,-0.053628,-0.024316,-0.048912
0.010563,-0.0070792,-0.096268,0.0182,0.0018548,0.016048,-0.015442,0.0024887,0.018932,-0.0047696,-0.020558,0.022688,-0.043772,-0.21258,-0.022613,0.045547,-0.000434,0.048815,0.010006,-0.0023655,-0.0044956,-0.035033,-0.026678,-0.046078
0.0092616,-0.010093,-0.097216,0.013839,-0.00099915,0.014884,-0.014245,0.0043635,0.016418,-0.0040281,-0.023598,0.017456,-0.067962,-0.22448,-0.025609,0.067475,0.010611,0.02776,0.0045857,-0.0019992,-0.0049585,-0.021073,-0.026853,-0.046113
0.009854,-0.012918,-0.097452,0.0086626,-0.00061356,0.0077426,-0.013956,0.0050462,0.015129,-0.0017889,-0.022351,0.013301,-0.085809,-0.22977,-0.031494,0.080613,0.024854,0.012319,0.0028965,-6.7869e-005,-0.0097368,-0.014091,-0.024095,-0.050193
0.010984,-0.011866,-0.098498,0.0002368,0.0019766,-0.00079312,-0.014346,0.0054512,0.016484,0.0015377,-0.017017,0.012641,-0.091111,-0.23071,-0.03791,0.083668,0.039513,0.0038969,0.005954,0.0040087,-0.014761,-0.011818,-0.019242,-0.058694
0.010255,-0.0062133,-0.10056,-0.011175,0.0040219,-0.0053362,-0.014599,0.006382,0.019944,0.0055183,-0.010148,0.015537,-0.081073,-0.23554,-0.041502,0.083305,0.051229,-2.4642e-005,0.012943,0.01049,-0.017199,-0.0097876,-0.014018,-0.070427
0.0061503,0.0010959,-0.1019,-0.022456,0.0031977,-0.0036593,-0.013661,0.0073579,0.023312,0.0095544,-0.004839,0.019363,-0.057539,-0.25185,-0.040303,0.087892,0.057972,-0.0041331,0.021227,0.018065,-0.016984,-0.0047572,-0.0096537,-0.082743
-0.0004998,0.0055694,-0.099984,-0.030222,-0.00060039,0.0020923,-0.011029,0.0071184,0.024594,0.012511,-0.0025158,0.020643,-0.024472,-0.27705,-0.035313,0.10019,0.06015,-0.012017,0.027665,0.024052,-0.015828,0.0033312,-0.0061565,-0.092708
-0.0067445,0.0045424,-0.093571,-0.033565,-0.0051831,0.0076394,-0.0074399,0.0052602,0.023625,0.012825,-0.0019386,0.017379,0.015564,-0.29456,-0.029772,0.11524,0.060369,-0.024016,0.030305,0.026117,-0.015029,0.011797,-0.0027993,-0.0986
-0.0095038,-0.00077167,-0.084099,-0.03443,-0.007684,0.010039,-0.0046494,0.0032208,0.021957,0.0094032,-0.00026881,0.0099387,0.062425,-0.2807,-0.026479,0.12487,0.061982,-0.037914,0.029172,0.023896,-0.014214,0.017198,0.00074231,-0.10066
-0.0079831,-0.0062115,-0.075052,-0.03568,-0.0065784,0.0094412,-0.0041864,0.0034066,0.021233,0.0027282,0.0044705,0.00012441,0.11629,-0.21835,-0.0252,0.12468,0.067273,-0.051655,0.025647,0.018941,-0.011967,0.017325,0.0036611,-0.10061
-0.0046034,-0.0079152,-0.069762,-0.039067,-0.0026705,0.008061,-0.0060301,0.0070901,0.021667,-0.0048665,0.011386,-0.01029,0.1752,-0.10683,-0.022369,0.11722,0.076392,-0.065478,0.021182,0.013077,-0.0074601,0.012266,0.0042892,-0.10044
-0.0034516,-0.0053086,-0.069312,-0.045046,0.0015111,0.0078379,-0.0084476,0.012998,0.021954,-0.010268,0.016881,-0.02015,0.23537,0.039875,-0.013642,0.10929,0.087655,-0.081409,0.016526,0.0068025,-0.0013803,0.0043973,0.0011417,-0.10145
-0.0071847,-0.0013898,-0.072125,-0.053921,0.003376,0.0090523,-0.0092708,0.018039,0.020471,-0.011378,0.01714,-0.028549,0.29417,0.20456,0.0023471,0.10618,0.098865,-0.10058,0.01196,-0.00065146,0.0046869,-0.0024884,-0.0060005,-0.10389
-0.014765,-8.0097e-005,-0.075407,-0.066224,0.0018823,0.010833,-0.0075633,0.019712,0.016561,-0.0083143,0.011097,-0.034565,0.35251,0.37791,0.021863,0.10817,0.10864,-0.12098,0.0079318,-0.0097018,0.009796,-0.0046624,-0.0157,-0.10727
-0.021972,-0.0029061,-0.077114,-0.081198,-0.0018664,0.012542,-0.0042498,0.018158,0.010879,-0.0030954,0.001426,-0.037856,0.41374,0.55993,0.037423,0.11182,0.11687,-0.13792,0.0051198,-0.018908,0.014719,-9.0581e-005,-0.025499,-0.11061
-0.024462,-0.0078586,-0.076925,-0.094982,-0.0053572,0.01444,-0.0012414,0.015967,0.004806,0.001855,-0.0074426,-0.039524,0.47989,0.75112,0.042042,0.11415,0.12428,-0.14717,0.0037308,-0.025253,0.021654,0.010594,-0.033313,-0.11262
-0.020964,-0.01136,-0.075719,-0.1013,-0.006282,0.017091,7.5272e-005,0.015826,-0.00035876,0.0051518,-0.012703,-0.041847,0.54893,0.94195,0.033586,0.11546,0.13172,-0.14808,0.0028637,-0.026217,0.032779,0.024507,-0.038728,-0.11184
-0.014054,-0.01152,-0.074392,-0.095508,-0.0040239,0.020378,-0.00031808,0.018086,-0.0038575,0.0067642,-0.015052,-0.046472,0.61604,1.1101,0.016283,0.11858,0.13965,-0.14406,0.00090998,-0.021884,0.048647,0.038186,-0.04316,-0.10698
-0.0079842,-0.0097416,-0.073126,-0.079064,-3.038e-005,0.023278,-0.0014288,0.020557,-0.0055494,0.007236,-0.01742,-0.052472,0.67745,1.2275,-0.0015509,0.12617,0.14807,-0.14001,-0.003102,-0.015157,0.06745,0.049393,-0.048544,-0.097458
-0.0055202,-0.0092951,-0.071517,-0.060128,0.0032328,0.024617,-0.0022424,0.020821,-0.0058282,0.006801,-0.021762,-0.056373,0.73258,1.2726,-0.011865,0.13889,0.15651,-0.13882,-0.0084876,-0.0097674,0.085569,0.057769,-0.055363,-0.083907
-0.0064166,-0.012215,-0.069045,-0.048457,0.0040536,0.024002,-0.0023898,0.018889,-0.0054527,0.0053074,-0.026958,-0.054771,0.78184,1.2376,-0.010373,0.1559,0.16397,-0.13991,-0.013406,-0.007701,0.099086,0.064096,-0.061706,-0.06829
-0.0084988,-0.017359,-0.065299,-0.048053,0.0026886,0.022065,-0.002079,0.017482,-0.0052114,0.002894,-0.029844,-0.047566,0.82221,1.13,0.0026954,0.17628,0.16908,-0.14069,-0.016636,-0.0081579,0.10546,0.069183,-0.064426,-0.05359
-0.0099898,-0.021333,-0.060009,-0.053666,0.0010948,0.019901,-0.0016527,0.019378,-0.0055081,0.00051025,-0.028441,-0.03885,0.84552,0.9674,0.024237,0.19909,0.17073,-0.13944,-0.018956,-0.0087754,0.10453,0.073515,-0.06175,-0.042922
-0.010868,-0.021423,-0.053288,-0.054738,0.0013661,0.018324,-0.0013456,0.024263,-0.0062199,-0.00046681,-0.024321,-0.03421,0.84221,0.7723,0.050465,0.22201,0.16886,-0.13697,-0.022602,-0.0078818,0.098352,0.077749,-0.055212,-0.03827
-0.012276,-0.017911,-0.046084,-0.044139,0.004084,0.017546,-0.0014068,0.028426,-0.0070906,0.0007295,-0.021779,-0.036455,0.80792,0.56744,0.07803,0.24055,0.16471,-0.13562,-0.029091,-0.00581,0.090047,0.08312,-0.049032,-0.039446
-0.014937,-0.013782,-0.040103,-0.024584,0.0078755,0.017325,-0.0022496,0.028122,-0.0083924,0.0035753,-0.024365,-0.043399,0.74687,0.37094,0.10395,0.24983,0.16037,-0.13682,-0.037385,-0.0043655,0.082321,0.090935,-0.047182,-0.044109
-0.018264,-0.012123,-0.036661,-0.0070695,0.010521,0.017254,-0.0042705,0.023688,-0.011136,0.0066479,-0.031746,-0.049711,0.66879,0.19215,0.12535,0.24792,0.1576,-0.13937,-0.044284,-0.005248,0.076472,0.10151,-0.050443,-0.049156
-0.020893,-0.01345,-0.035123,-0.0022594,0.010731,0.016943,-0.0074054,0.020263,-0.016331,0.0087264,-0.039626,-0.051248,0.58198,0.030955,0.13987,0.2376,0.15707,-0.14025,-0.046923,-0.0089418,0.072354,0.11365,-0.055907,-0.052685
-0.02187,-0.015231,-0.032576,-0.011883,0.0091587,0.016177,-0.010867,0.023752,-0.023678,0.0095237,-0.042831,-0.048085,0.489,-0.11682,0.1466,0.22409,0.15831,-0.13713,-0.045254,-0.014786,0.069154,0.12519,-0.059368,-0.055033
-0.021214,-0.014017,-0.025761,-0.027437,0.0078414,0.015158,-0.013425,0.035277,-0.030906,0.0094048,-0.039123,-0.043678,0.38906,-0.25007,0.14653,0.21041,0.16032,-0.13049,-0.042276,-0.021663,0.066356,0.13404,-0.058591,-0.057922
-0.019484,-0.0084694,-0.01412,-0.037391,0.0085035,0.014679,-0.014105,0.049273,-0.034729,0.0085512,-0.030808,-0.04122,0.28457,-0.35642,0.1419,0.19429,0.16217,-0.12342,-0.041743,-0.028376,0.064189,0.13856,-0.054767,-0.062365
-0.017085,-0.00082127,-0.0012321,-0.036789,0.011152,0.015868,-0.012775,0.057455,-0.033117,0.0066225,-0.023104,-0.040798,0.18479,-0.41609,0.13476,0.16999,0.16309,-0.11907,-0.045233,-0.033492,0.063308,0.13751,-0.051127,-0.067206
-0.014213,0.0044753,0.0072379,-0.031007,0.014169,0.019427,-0.010145,0.055554,-0.027215,0.0033641,-0.020657,-0.040012,0.10214,-0.41431,0.12577,0.13348,0.16245,-0.11811,-0.050965,-0.035345,0.064051,0.13024,-0.050125,-0.069726
-0.011404,0.0039168,0.0078773,-0.030431,0.015862,0.024858,-0.007202,0.046917,-0.021091,-0.00052601,-0.024692,-0.037262,0.043375,-0.35287,0.11411,0.08649,0.16002,-0.11827,-0.055175,-0.032723,0.065969,0.11789,-0.051584,-0.068
-0.0097972,-0.0025121,0.0025334,-0.040677,0.016087,0.0304,-0.0045323,0.039659,-0.019132,-0.0033555,-0.032568,-0.034251,0.0036549,-0.25151,0.098583,0.035763,0.15637,-0.1163,-0.054833,-0.025911,0.06809,0.10479,-0.0532,-0.063124
-0.010428,-0.011395,-0.0028911,-0.05689,0.016409,0.033972,-0.0020599,0.039819,-0.022927,-0.0034742,-0.039678,-0.034963,-0.030348,-0.13763,0.078905,-0.011642,0.15291,-0.11074,-0.049656,-0.0171,0.06967,0.09802,-0.052679,-0.059482
-0.01304,-0.018423,-0.0031093,-0.067117,0.018529,0.034541,0.00064485,0.046553,-0.030166,-0.00042961,-0.042269,-0.041847,-0.069806,-0.033159,0.056519,-0.052328,0.15095,-0.103,-0.042187,-0.0095544,0.070737,0.10453,-0.049615,-0.06268
-0.015698,-0.021336,0.0024094,-0.061965,0.022374,0.032847,0.0037777,0.053574,-0.036512,0.0049458,-0.03942,-0.052775,-0.11402,0.051273,0.034386,-0.086233,0.15031,-0.096031,-0.036269,-0.0060279,0.071924,0.1272,-0.045648,-0.076318
-0.015949,-0.020969,0.0095224,-0.042362,0.025764,0.030833,0.0069068,0.055306,-0.038888,0.011615,-0.033176,-0.061892,-0.15021,0.11219,0.016089,-0.113,0.14871,-0.092009,-0.035079,-0.0075565,0.073842,0.16269,-0.042991,-0.099389
-0.012764,-0.019828,0.013619,-0.018944,0.026204,0.030181,0.0090619,0.052022,-0.037353,0.019372,-0.02699,-0.06402,-0.16388,0.14582,0.0045903,-0.12966,0.14294,-0.090822,-0.039769,-0.013465,0.076744,0.20322,-0.042621,-0.12565
-0.0075114,-0.019706,0.014027,-0.0037446,0.023311,0.031108,0.0092446,0.049313,-0.034114,0.028528,-0.023513,-0.058918,-0.15201,0.14616,0.00093517,-0.13308,0.13134,-0.090487,-0.049152,-0.022408,0.080875,0.241,-0.043526,-0.14549
-0.0029036,-0.020441,0.014509,-0.0012084,0.019545,0.032395,0.0070418,0.052526,-0.030849,0.038357,-0.023074,-0.051642,-0.12842,0.11056,0.0032438,-0.1254,0.11568,-0.088702,-0.060362,-0.033546,0.086986,0.2723,-0.043463,-0.14984
-0.00070719,-0.020669,0.01939,-0.0057935,0.018289,0.032602,0.0029827,0.061389,-0.027065,0.045895,-0.023671,-0.048419,-0.11641,0.046378,0.0066947,-0.11662,0.10071,-0.084168,-0.070171,-0.046956,0.09606,0.29788,-0.04058,-0.13461
-0.00027496,-0.019508,0.029032,-0.007615,0.020757,0.031408,-0.0015941,0.069702,-0.021108,0.04679,-0.022375,-0.05133,-0.1338,-0.028847,0.0051669,-0.12033,0.091264,-0.076916,-0.076364,-0.063097,0.10803,0.31985,-0.034684,-0.10333
0.00068873,-0.01747,0.038983,-0.0009185,0.024537,0.02993,-0.0051681,0.070315,-0.012694,0.038094,-0.017262,-0.056176,-0.18127,-0.094632,-0.0057142,-0.1443,0.08907,-0.067918,-0.078431,-0.081839,0.12061,0.33757,-0.027319,-0.066039
0.0037994,-0.0159,0.043708,0.011708,0.025333,0.029745,-0.0068807,0.060955,-0.0042219,0.020963,-0.0087092,-0.055442,-0.24245,-0.136,-0.025849,-0.18351,0.091499,-0.058543,-0.077155,-0.10182,0.1297,0.34623,-0.020641,-0.034324
0.0082986,-0.015749,0.041451,0.022352,0.020657,0.031417,-0.0070888,0.045982,0.00075242,0.00083874,0.00069561,-0.044188,-0.29537,-0.1464,-0.050537,-0.22185,0.093417,-0.05015,-0.073504,-0.12057,0.1318,0.33954,-0.015967,-0.015191
0.01164,-0.016941,0.035709,0.024789,0.012325,0.033809,-0.0071589,0.03294,0.00067201,-0.015499,0.0075757,-0.024316,-0.32639,-0.12488,-0.073729,-0.2424,0.090671,-0.04366,-0.067881,-0.13521,0.12672,0.31455,-0.013021,-0.0075477
0.011826,-0.018771,0.031933,0.019304,0.005446,0.034791,-0.008485,0.027142,-0.0022791,-0.024064,0.0096741,-0.0038627,-0.33709,-0.073408,-0.092545,-0.23869,0.082588,-0.039133,-0.060494,-0.14325,0.118,0.27457,-0.010371,-0.003751
0.0092863,-0.020657,0.032551,0.011667,0.0045269,0.032827,-0.01135,0.028669,-0.0037515,-0.025962,0.0071184,0.008264,-0.3401,0.0014339,-0.10916,-0.21855,0.071773,-0.035672,-0.05249,-0.14314,0.11043,0.22781,-0.0066209,0.0048126
0.0064965,-0.022395,0.034879,0.0079432,0.0098608,0.028196,-0.014537,0.033529,-0.00094704,-0.026133,0.002268,0.0082747,-0.34858,0.084576,-0.12779,-0.1978,0.061684,-0.031918,-0.04653,-0.13458,0.106,0.1823,-0.0014021,0.022019
0.0057315,-0.023799,0.033777,0.010035,0.017181,0.022836,-0.016146,0.037158,0.004828,-0.029508,-0.0017528,-0.00015909,-0.36766,0.15364,-0.14884,-0.18867,0.054124,-0.026932,-0.045796,-0.11872,0.10204,0.14095,0.0045369,0.045022
0.0070712,-0.024334,0.026474,0.015533,0.020875,0.018955,-0.015072,0.037097,0.0091563,-0.037484,-0.0028903,-0.0088152,-0.39339,0.18822,-0.16559,-0.19196,0.048568,-0.020786,-0.051759,-0.098099,0.093052,0.10051,0.01005,0.066924
0.0085145,-0.023288,0.015109,0.021059,0.018108,0.017521,-0.011975,0.033252,0.0082488,-0.047225,-0.0011994,-0.010822,-0.41839,0.18121,-0.1674,-0.19795,0.043492,-0.014392,-0.062375,-0.075835,0.075283,0.055084,0.014372,0.081676
0.0080318,-0.020345,0.0048124,0.025319,0.010601,0.017811,-0.0088765,0.026591,0.002153,-0.054081,0.0014908,-0.005169,-0.43821,0.14119,-0.14786,-0.19475,0.038212,-0.008746,-0.072282,-0.054355,0.050018,0.0013949,0.017304,0.087548
0.005597,-0.015987,-0.0006515,0.029018,0.0028793,0.018295,-0.0076804,0.018128,-0.0053253,-0.055075,0.0028932,0.0033535,-0.45322,0.08134,-0.11114,-0.17718,0.033561,-0.0042963,-0.075202,-0.034421,0.022961,-0.058068,0.018815,0.087218
0.0033216,-0.011371,-0.0015608,0.0324,-0.0012455,0.018003,-0.0088369,0.0089872,-0.0097558,-0.050777,0.0015959,0.0084405,-0.46562,0.0028284,-0.070509,-0.15034,0.030931,-0.00089243,-0.067066,-0.015547,9.3064e-005,-0.11599,0.018627,0.085253
0.0035908,-0.0078293,-0.0010127,0.033661,-0.00108,0.017139,-0.011276,0.00081838,-0.0093931,-0.044387,-0.0023528,0.0072907,-0.47552,-0.1116,-0.039664,-0.12606,0.030686,0.0018552,-0.047865,0.0022539,-0.016442,-0.16383,0.016303,0.085309
0.0068965,-0.0064168,-0.0014207,0.030334,0.0012628,0.016491,-0.013565,-0.0045537,-0.0058764,-0.039109,-0.0076912,0.002493,-0.48041,-0.28477,-0.024206,-0.1159,0.031379,0.0043445,-0.021119,0.016951,-0.029033,-0.1952,0.011775,0.088729
0.01129,-0.0076507,-0.0023974,0.02237,0.0030667,0.016269,-0.015169,-0.0062968,-0.0021033,-0.03614,-0.012612,-0.0004709,-0.47845,-0.52061,-0.020557,-0.1255,0.030471,0.0071136,0.008494,0.025088,-0.041546,-0.20717,0.005803,0.094638
0.013927,-0.01135,-0.0019963,0.013572,0.0029925,0.015578,-0.016678,-0.0054424,0.00040063,-0.034788,-0.015465,0.0021223,-0.47187,-0.78802,-0.022845,-0.15332,0.026071,0.010984,0.037643,0.024641,-0.055428,-0.20033,-5.924e-005,0.10074
0.013364,-0.016466,0.00028176,0.009473,0.0014205,0.013116,-0.018905,-0.004388,0.0021503,-0.034246,-0.015377,0.0092519,-0.4662,-1.0291,-0.030514,-0.19318,0.018466,0.016733,0.065321,0.017863,-0.068398,-0.17876,-0.0040507,0.10422
0.010677,-0.021097,0.0021243,0.013204,-0.00057231,0.0085613,-0.021807,-0.0052228,0.0041193,-0.03508,-0.012736,0.016129,-0.46534,-1.1889,-0.04874,-0.2378,0.010315,0.02439,0.091779,0.011049,-0.076559,-0.15024,-0.0050258,0.10285
0.0084677,-0.023007,0.00033917,0.022978,-0.0023032,0.0033424,-0.024294,-0.0082629,0.0058802,-0.03896,-0.0092451,0.018122,-0.46641,-1.2466,-0.081004,-0.28111,0.0052107,0.032852,0.11639,0.0104,-0.077716,-0.12496,-0.0031103,0.096066
0.0086289,-0.020703,-0.005754,0.033405,-0.0037276,-5.021e-005,-0.025077,-0.01208,0.0055797,-0.046965,-0.0071994,0.014292,-0.45936,-1.223,-0.12136,-0.31863,0.0053959,0.040445,0.13618,0.016739,-0.072925,-0.11155,0.00019587,0.085601
0.010755,-0.014547,-0.01296,0.039471,-0.0049884,0.00011688,-0.023758,-0.014962,0.0018482,-0.058165,-0.0081059,0.0077514,-0.43245,-1.1617,-0.15492,-0.34716,0.010119,0.046129,0.14635,0.023588,-0.065321,-0.11233,0.0027087,0.074837
0.012531,-0.0070106,-0.016498,0.039875,-0.0060212,0.0032425,-0.021241,-0.016436,-0.0043398,-0.069901,-0.011485,0.0028826,-0.37951,-1.0972,-0.16748,-0.36486,0.015918,0.050237,0.1426,0.02086,-0.057797,-0.1214,0.0028736,0.067083
0.01177,-0.0015618,-0.014053,0.0372,-0.0066557,0.0063904,-0.019179,-0.017513,-0.0098904,-0.079421,-0.014887,0.0020172,-0.30365,-1.0354,-0.15612,-0.37166,0.018845,0.053912,0.12374,0.0018366,-0.051765,-0.12837,0.00093545,0.063874
0.0083863,-0.00061812,-0.0079611,0.035235,-0.00696,0.0060828,-0.018956,-0.019525,-0.011905,-0.085319,-0.015408,0.0042927,-0.2149,-0.95946,-0.13133,-0.36927,0.017117,0.057649,0.092872,-0.031898,-0.047599,-0.12578,-0.0010595,0.064451
0.0046208,-0.0039226,-0.0036186,0.035831,-0.0073183,0.0007223,-0.020921,-0.022765,-0.0099781,-0.087535,-0.011791,0.0072006,-0.12441,-0.85229,-0.10854,-0.36063,0.012164,0.06037,0.056185,-0.071379,-0.045543,-0.11451,-0.00078973,0.066597
0.0033049,-0.0086419,-0.0055049,0.037648,-0.0080886,-0.008128,-0.024265,-0.026248,-0.0062882,-0.086359,-0.0055246,0.0090146,-0.040406,-0.71415,-0.096786,-0.34912,0.0071973,0.060149,0.020332,-0.10604,-0.045708,-0.10286,0.002263,0.067969
0.0056064,-0.011323,-0.014069,0.037389,-0.009213,-0.016658,-0.027517,-0.028759,-0.0033955,-0.081842,1.1452e-005,0.0099312,0.03159,-0.56349,-0.094181,-0.33837,0.0044542,0.056116,-0.010142,-0.12946,-0.047302,-0.099711,0.0059777,0.067028
0.010124,-0.010354,-0.025633,0.032361,-0.010246,-0.021384,-0.029355,-0.030156,-0.0018672,-0.074445,0.0018679,0.011348,0.085716,-0.4234,-0.093215,-0.33247,0.0034889,0.049835,-0.033938,-0.14083,-0.048446,-0.10758,0.0070343,0.063359
0.014051,-0.0070283,-0.034895,0.022532,-0.010842,-0.021544,-0.029297,-0.031681,-4.6802e-005,-0.066008,-0.00034874,0.014417,0.11429,-0.30899,-0.08961,-0.3353,0.0019248,0.044727,-0.052382,-0.14205,-0.047376,-0.12126,0.003686,0.057702
0.015379,-0.0043714,-0.03797,0.010784,-0.01124,-0.019495,-0.027862,-0.034973,0.0038305,-0.059432,-0.0041673,0.019226,0.1105,-0.22533,-0.085857,-0.34832,-0.0021193,0.04385,-0.067682,-0.13431,-0.044127,-0.13275,-0.0024916,0.051814
0.014301,-0.0046659,-0.034238,0.0012032,-0.012192,-0.018765,-0.026058,-0.040633,0.0093087,-0.05661,-0.0060727,0.024877,0.073853,-0.17315,-0.086676,-0.36778,-0.0082282,0.047828,-0.081127,-0.11771,-0.040884,-0.13747,-0.00755,0.047882
0.012715,-0.0077286,-0.026493,-0.0035367,-0.014288,-0.021259,-0.024546,-0.047519,0.01356,-0.056297,-0.004161,0.029872,0.013622,-0.15189,-0.091979,-0.38421,-0.014124,0.054543,-0.092208,-0.093668,-0.040299,-0.13643,-0.0081426,0.04737
0.012384,-0.011306,-0.019681,-0.0039576,-0.017205,-0.025828,-0.023179,-0.053276,0.013676,-0.054291,0.00038241,0.032456,-0.05319,-0.1552,-0.095262,-0.38585,-0.017734,0.060683,-0.099089,-0.066973,-0.04312,-0.13295,-0.00401,0.049932
0.01341,-0.013121,-0.018621,-0.0033729,-0.01957,-0.029374,-0.021383,-0.055651,0.009245,-0.046558,0.0041707,0.031188,-0.10928,-0.16538,-0.089502,-0.36487,-0.018767,0.063779,-0.1001,-0.044377,-0.047348,-0.12827,0.0020812,0.053403
0.014333,-0.012694,-0.025379,-0.005416,-0.019676,-0.029561,-0.019039,-0.053654,0.0027279,-0.033001,0.0042312,0.025938,-0.14544,-0.15659,-0.074776,-0.32238,-0.018315,0.063264,-0.09524,-0.030637,-0.049808,-0.12075,0.0066618,0.055114
0.013721,-0.011393,-0.037635,-0.011295,-0.016533,-0.026846,-0.016966,-0.047867,-0.0027007,-0.018484,0.00028055,0.018646,-0.16481,-0.1089,-0.059776,-0.26829,-0.017156,0.060189,-0.086631,-0.025451,-0.048747,-0.10914,0.0079381,0.053578
0.011773,-0.010854,-0.049522,-0.018988,-0.010466,-0.024091,-0.016377,-0.039869,-0.0057453,-0.009737,-0.0051796,0.012771,-0.18036,-0.022509,-0.055158,-0.21558,-0.01477,0.056207,-0.077561,-0.024106,-0.045108,-0.096026,0.0062948,0.049152
0.010423,-0.011395,-0.055078,-0.025119,-0.0028815,-0.024117,-0.017724,-0.031273,-0.0075449,-0.010421,-0.0089639,0.011293,-0.20761,0.080717,-0.0646,-0.17272,-0.010243,0.052668,-0.070779,-0.021159,-0.041476,-0.08706,0.0030145,0.043225
0.01168,-0.011962,-0.052246,-0.02788,0.0044993,-0.027368,-0.020031,-0.023057,-0.0098049,-0.018428,-0.0096282,0.014686,-0.2568,0.17146,-0.081739,-0.13964,-0.0040344,0.050153,-0.067222,-0.013897,-0.039934,-0.086036,-0.0010954,0.036898
0.015566,-0.011496,-0.044332,-0.028357,0.010279,-0.031739,-0.02146,-0.015555,-0.012528,-0.027674,-0.0081164,0.0206,-0.32895,0.23204,-0.095767,-0.10982,0.0015201,0.048447,-0.065964,-0.0029463,-0.040876,-0.090544,-0.0058222,0.030491
0.01955,-0.010184,-0.037466,-0.028953,0.013567,-0.034633,-0.0207,-0.0089426,-0.013703,-0.032729,-0.0062311,0.025683,-0.41713,0.26515,-0.10048,-0.07677,0.003889,0.046858,-0.06521,0.009566,-0.043594,-0.092633,-0.010719,0.024137
0.020251,-0.0092032,-0.035818,-0.030449,0.013946,-0.035282,-0.017944,-0.0036317,-0.011277,-0.03229,-0.0045894,0.027977,-0.51131,0.28658,-0.098606,-0.039909,0.0027121,0.044836,-0.06347,0.021871,-0.047478,-0.084382,-0.014679,0.01847
0.016233,-0.0092325,-0.038458,-0.030693,0.011626,-0.035179,-0.014638,-7.3043e-005,-0.0054179,-0.02884,-0.0021459,0.027929,-0.60347,0.30985,-0.097809,-0.0055738,0.00035731,0.04255,-0.060133,0.032705,-0.052257,-0.063638,-0.016619,0.014403
0.0095424,-0.0094362,-0.040509,-0.026496,0.0077525,-0.036368,-0.012296,0.0019054,0.0012329,-0.025453,0.0022779,0.027405,-0.68974,0.33639,-0.10256,0.017378,-0.00020359,0.04087,-0.055273,0.040432,-0.05717,-0.035095,-0.016513,0.012209
0.0044592,-0.0082593,-0.037629,-0.017133,0.0043479,-0.039375,-0.011411,0.0034826,0.0056291,-0.023102,0.0080887,0.027948,-0.76876,0.35807,-0.10944,0.024075,0.0016805,0.040534,-0.049093,0.043065,-0.060519,-0.0061899,-0.015519,0.011113
0.0042351,-0.0054122,-0.029952,-0.0059829,0.0034494,-0.042848,-0.011277,0.0062858,0.0067527,-0.020868,0.012711,0.029926,-0.83803,0.36652,-0.10983,0.017523,0.0035452,0.041052,-0.041573,0.039832,-0.0608,0.018274,-0.014918,0.010089
0.0084468,-0.0028973,-0.022064,0.0016692,0.0058002,-0.045113,-0.010651,0.011093,0.0061698,-0.018361,0.013483,0.033017,-0.89149,0.35902,-0.097002,0.0071574,0.0021836,0.040354,-0.032595,0.032727,-0.058601,0.038368,-0.014988,0.0090337
0.01328,-0.0036102,-0.019044,0.0029989,0.010116,-0.045953,-0.0086666,0.0169,0.0063358,-0.017541,0.0099669,0.037067,-0.92075,0.33579,-0.070784,0.003141,-0.0028976,0.035753,-0.022425,0.025904,-0.057055,0.057136,-0.015071,0.008875
0.014651,-0.0084915,-0.022034,0.00022792,0.013744,-0.046731,-0.0054387,0.021373,0.008385,-0.021989,0.0045034,0.042245,-0.91926,0.29408,-0.036316,0.01046,-0.008285,0.025608,-0.01212,0.022731,-0.059628,0.077209,-0.014743,0.010258
0.011608,-0.014982,-0.027175,-0.0011534,0.014426,-0.04881,-0.0021557,0.022529,0.011414,-0.034299,0.00046135,0.048415,-0.88645,0.22771,0.00081607,0.02682,-0.00912,0.010351,-0.0034561,0.022889,-0.066823,0.099227,-0.014702,0.01223
0.0071107,-0.018618,-0.028812,0.002849,0.011874,-0.052001,-0.00058885,0.020219,0.013611,-0.054021,-0.00026937,0.054566,-0.82837,0.13515,0.037516,0.045445,-0.0031759,-0.0080156,0.0017682,0.022303,-0.074923,0.1228,-0.016187,0.012651
0.0055125,-0.016651,-0.024201,0.01118,0.0078828,-0.054679,-0.0021035,0.015969,0.013824,-0.077877,0.0016275,0.058996,-0.75446,0.029316,0.071631,0.060356,0.007114,-0.027504,0.0027448,0.016356,-0.078468,0.14805,-0.019386,0.010318
0.0088713,-0.010456,-0.015658,0.018585,0.0048885,-0.055477,-0.0066181,0.011175,0.012063,-0.10176,0.0039707,0.060029,-0.67289,-0.06105,0.098746,0.070207,0.016561,-0.047354,0.00035356,0.0037884,-0.074633,0.17558,-0.022612,0.0066978
0.015223,-0.0044253,-0.0083907,0.0201,0.004125,-0.054787,-0.01235,0.005287,0.0088512,-0.12266,0.0051046,0.056587,-0.58794,-0.10259,0.1122,0.078292,0.021399,-0.067705,-0.0030742,-0.01204,-0.065691,0.20474,-0.023482,0.0051607
0.020213,-0.0023321,-0.005932,0.015161,0.0047855,-0.054531,-0.016916,-0.0041277,0.0045429,-0.13916,0.0049526,0.048247,-0.50038,-0.074869,0.10769,0.089429,0.022056,-0.087972,-0.0050092,-0.025558,-0.057252,0.23229,-0.021299,0.0079504
0.02061,-0.0044715,-0.007218,0.0077675,0.0047258,-0.056364,-0.019217,-0.019142,-0.0005225,-0.15092,0.0043341,0.035184,-0.40946,0.017612,0.08835,0.10649,0.02224,-0.10547,-0.0043054,-0.032891,-0.053807,0.2532,-0.018342,0.013623
0.016716,-0.0080901,-0.0078738,0.0027645,0.0020593,-0.060016,-0.020464,-0.038809,-0.0054814,-0.15801,0.003536,0.018497,-0.31398,0.147,0.064845,0.12898,0.025409,-0.11589,-0.0019878,-0.033988,-0.055497,0.26322,-0.018437,0.017604
0.01179,-0.010356,-0.0045712,0.0017253,-0.0035225,-0.063292,-0.023038,-0.058533,-0.0090837,-0.161,0.0017817,0.00079412,-0.21205,0.27562,0.049265,0.15413,0.03191,-0.11581,-0.00050862,-0.031487,-0.058787,0.26113,-0.023637,0.015716
0.0091918,-0.010781,0.0014965,0.0020715,-0.010484,-0.063758,-0.027797,-0.072357,-0.010751,-0.16094,-0.0017884,-0.013818,-0.10102,0.37245,0.04747,0.17909,0.039197,-0.10554,-0.0018425,-0.02784,-0.059996,0.24881,-0.03182,0.0076256
0.0097373,-0.010822,0.0053246,-5.1083e-005,-0.016257,-0.060652,-0.032316,-0.076598,-0.011464,-0.15869,-0.0066463,-0.021113,0.021012,0.42326,0.056199,0.20257,0.044523,-0.089908,-0.0057969,-0.023441,-0.058201,0.2295,-0.037574,-0.002928
0.01133,-0.011422,0.0026056,-0.0059843,-0.018597,-0.055477,-0.03224,-0.071939,-0.013203,-0.15362,-0.010559,-0.0192,0.15269,0.43132,0.066975,0.22504,0.047378,-0.075859,-0.0099022,-0.017194,-0.05503,0.20631,-0.036111,-0.011352
0.01086,-0.011368,-0.0059019,-0.013304,-0.016801,-0.050896,-0.02519,-0.062313,-0.017055,-0.14291,-0.01105,-0.010523,0.28818,0.41166,0.072911,0.24782,0.04953,-0.068176,-0.011069,-0.008485,-0.052091,0.18244,-0.027309,-0.015917
0.0066448,-0.0083712,-0.014232,-0.018056,-0.012179,-0.04888,-0.013851,-0.051621,-0.02168,-0.12244,-0.007527,-0.0016348,0.41872,0.38403,0.072611,0.27178,0.052975,-0.066369,-0.0077741,0.001607,-0.04891,0.16234,-0.01652,-0.018611
-0.00042545,-0.001818,-0.015788,-0.018271,-0.0074527,-0.049535,-0.0049357,-0.041167,-0.023828,-0.08917,-0.0021636,-0.00019422,0.53638,0.3676,0.068778,0.29642,0.058055,-0.065277,-0.0010796,0.010982,-0.043426,0.15177,-0.011163,-0.022468
-0.0075823,0.0057117,-0.0088583,-0.015576,-0.0052562,-0.051368,-0.0041624,-0.029986,-0.020749,-0.043659,0.0014218,-0.010667,0.63741,0.37719,0.064217,0.31981,0.063514,-0.059116,0.0062262,0.018278,-0.034326,0.15559,-0.015342,-0.027958
-0.011933,0.0099479,0.0017326,-0.01362,-0.0065534,-0.052591,-0.011266,-0.017494,-0.012485,0.0091927,0.00074351,-0.031481,0.72343,0.42034,0.059679,0.33919,0.068137,-0.045921,0.011564,0.023955,-0.022818,0.17453,-0.026485,-0.031806
-0.01206,0.0082828,0.0083966,-0.014915,-0.010039,-0.052335,-0.019615,-0.0057165,-0.0019073,0.061968,-0.0038452,-0.055773,0.80001,0.4959,0.055143,0.35196,0.072058,-0.028944,0.01399,0.029763,-0.012138,0.20364,-0.036712,-0.029339
-0.0087048,0.0019765,0.0067504,-0.018957,-0.013052,-0.050763,-0.021291,0.0013223,0.0075769,0.10838,-0.0097388,-0.075488,0.87399,0.59534,0.052237,0.35626,0.07635,-0.014029,0.014148,0.037157,-0.0053258,0.23416,-0.038181,-0.018311
-0.0043937,-0.004739,-0.0013681,-0.023158,-0.013432,-0.048137,-0.013595,0.0007084,0.014568,0.14667,-0.014396,-0.086171,0.95073,0.70639,0.054427,0.35113,0.081463,-0.0052984,0.013094,0.046039,-0.0031655,0.25736,-0.028612,-0.00092509
-0.0022257,-0.0078077,-0.010338,-0.025528,-0.010948,-0.043879,-0.0014762,-0.0065692,0.020113,0.18046,-0.017325,-0.089161,1.0321,0.81644,0.06427,0.33612,0.086344,-0.0027032,0.011186,0.054687,-0.0037954,0.26776,-0.01289,0.017591
-0.0042859,-0.0060444,-0.016293,-0.026597,-0.0072171,-0.036795,0.0063269,-0.015868,0.025726,0.21619,-0.020035,-0.089743,1.1151,0.91243,0.080361,0.31132,0.089305,-0.003083,0.0079435,0.060659,-0.0040007,0.26355,0.00052873,0.032601
-0.010399,-0.0013601,-0.020756,-0.028922,-0.0042546,-0.026558,0.0042495,-0.022165,0.03103,0.25824,-0.024152,-0.092787,1.1923,0.97782,0.097249,0.27757,0.089785,-0.0031802,0.0027758,0.061897,-0.0011417,0.24494,0.0056852,0.042954
-0.018017,0.0031704,-0.029197,-0.034728,-0.0028994,-0.015092,-0.0057899,-0.02354,0.033531,0.30474,-0.029538,-0.099208,1.2536,0.99057,0.10891,0.23674,0.08914,-0.0016245,-0.004226,0.057454,0.0054073,0.21227,0.0030748,0.051037
-0.023552,0.0054234,-0.045912,-0.04383,-0.0023936,-0.0061941,-0.016147,-0.021872,0.030974,0.34707,-0.034164,-0.1058,1.2887,0.92683,0.11298,0.19118,0.089537,0.0015561,-0.012139,0.04778,0.013934,0.16563,-0.0014274,0.06028
-0.02453,0.0049172,-0.069734,-0.053603,-0.0013321,-0.003111,-0.019567,-0.020436,0.024124,0.37394,-0.035778,-0.10826,1.2896,0.77111,0.11209,0.14256,0.091982,0.0065917,-0.019741,0.034632,0.021271,0.10557,-0.001551,0.072299
-0.02117,0.002163,-0.094105,-0.060897,0.00098505,-0.0058615,-0.014532,-0.020973,0.017151,0.37765,-0.033786,-0.10471,1.2523,0.52759,0.1109,0.091036,0.095416,0.014457,-0.026185,0.020508,0.024528,0.033941,0.004629,0.085825
-0.01623,-0.0020772,-0.11123,-0.064191,0.0040152,-0.010807,-0.0057437,-0.023025,0.014867,0.35875,-0.029675,-0.096878,1.1767,0.225,0.11136,0.035937,0.097779,0.025554,-0.031274,0.0075706,0.022797,-0.046217,0.01389,0.097942
-0.013112,-0.006782,-0.1168,-0.06427,0.0066283,-0.013315,0.00013795,-0.025737,0.018988,0.32571,-0.025762,-0.088255,1.0668,-0.089641,0.11019,-0.021972,0.098065,0.038384,-0.035197,-0.0034405,0.017771,-0.13138,0.021201,0.10634
-0.013521,-0.010339,-0.11188,-0.063149,0.0082224,-0.011512,-0.00033166,-0.029588,0.026668,0.29007,-0.02352,-0.081037,0.93062,-0.36653,0.10096,-0.078718,0.097486,0.050315,-0.038022,-0.013371,0.01271,-0.21813,0.023974,0.11081
-0.016379,-0.010909,-0.10115,-0.062424,0.0092033,-0.0078115,-0.0053552,-0.035622,0.032616,0.26026,-0.022872,-0.074648,0.78035,-0.57018,0.07908,-0.12803,0.098668,0.060207,-0.039353,-0.023326,0.010339,-0.30326,0.023537,0.1131
-0.018796,-0.0077009,-0.089564,-0.062452,0.010395,-0.006603,-0.010093,-0.042771,0.032989,0.23821,-0.022733,-0.066959,0.63124,-0.68994,0.045434,-0.16519,0.10352,0.070168,-0.038369,-0.032608,0.011176,-0.38336,0.022935,0.11558
-0.018375,-0.0020869,-0.079819,-0.06272,0.011986,-0.01001,-0.01076,-0.046515,0.027768,0.22073,-0.021977,-0.056835,0.49814,-0.7398,0.0054905,-0.19095,0.11142,0.08401,-0.03423,-0.037764,0.013526,-0.45419,0.023492,0.11973
-0.015061,0.0028058,-0.071898,-0.062607,0.01306,-0.015593,-0.0071901,-0.041398,0.019878,0.20388,-0.019943,-0.045508,0.39097,-0.74916,-0.035022,-0.21129,0.11896,0.10321,-0.026626,-0.034174,0.015035,-0.51029,0.023411,0.12544
-0.011105,0.0041474,-0.064039,-0.06162,0.012224,-0.018297,-0.0022208,-0.02601,0.012293,0.18673,-0.016397,-0.035524,0.3111,-0.74966,-0.073641,-0.23201,0.12175,0.12408,-0.016215,-0.019609,0.014445,-0.54535,0.019518,0.13115
-0.0091766,0.0015662,-0.054145,-0.059013,0.0088567,-0.014988,0.0010479,-0.0058693,0.0059845,0.17177,-0.011529,-0.028404,0.25083,-0.76393,-0.11045,-0.252,0.11698,0.13942,-0.0046702,0.0028585,0.012176,-0.55416,0.010234,0.13456
-0.01019,-0.0024827,-0.04096,-0.053598,0.0038839,-0.0073891,0.0015929,0.0092635,0.00033419,0.16212,-0.0062643,-0.023378,0.19649,-0.79975,-0.14415,-0.2616,0.10553,0.14385,0.0058129,0.025349,0.009507,-0.53578,-0.0029981,0.13332
-0.01266,-0.0046118,-0.024828,-0.044414,-0.00060511,-0.00060478,0.00069426,0.012213,-0.0049988,0.15834,-0.0024147,-0.018494,0.13381,-0.85048,-0.16954,-0.24915,0.091898,0.13846,0.013375,0.0394,0.0073561,-0.49601,-0.016869,0.12558
-0.014083,-0.0031409,-0.0077842,-0.031867,-0.00268,0.0013817,0.00030975,0.0037625,-0.0091111,0.15764,-0.0020241,-0.013,0.052936,-0.90092,-0.18011,-0.21145,0.08176,0.13058,0.017272,0.041123,0.0058056,-0.44661,-0.028429,0.11022
-0.013088,0.00071232,0.0072473,-0.018216,-0.0018291,-0.0010533,0.00126,-0.00816,-0.010914,0.15611,-0.0059952,-0.0086537,-0.048209,-0.93583,-0.17403,-0.15936,0.078245,0.12851,0.018062,0.033353,0.00458,-0.40034,-0.036252,0.087003
-0.010451,0.00401,0.017996,-0.0065616,0.00078579,-0.0042252,0.0027362,-0.014872,-0.010927,0.15189,-0.01307,-0.0085823,-0.16305,-0.94749,-0.15785,-0.11252,0.079612,0.1356,0.017066,0.022964,0.0037649,-0.3645,-0.039966,0.056898
-0.0081496,0.0045087,0.02422,0.0011198,0.0032504,-0.0052379,0.0033304,-0.013314,-0.011544,0.14636,-0.020263,-0.014656,-0.27801,-0.93826,-0.14338,-0.086616,0.080261,0.14836,0.015491,0.015391,0.0039847,-0.33736,-0.039402,0.022524
-0.0074544,0.0022512,0.027857,0.0053157,0.0042886,-0.0048622,0.0025301,-0.0070598,-0.015069,0.14261,-0.024699,-0.025705,-0.37673,-0.91659,-0.13944,-0.083188,0.074764,0.1601,0.013873,0.01072,0.0059648,-0.31071,-0.034744,-0.011813
