1.3505e-011,1.1672e-009,7.7751e-010,2.564e-009,2.6431e-010,6.1545e-010,3.3377e-010,2.4521e-009,2.9518e-010,7.6208e-010,7.505e-010,2.2901e-009,-3.2798e-011,6.0387e-010,9.1642e-010,9.1256e-010,1.0225e-010,5.5371e-010,7.8909e-010,-5.4985e-010,-2.1415e-010,8.0838e-010,5.4214e-010,-7.042e-010
6.5488e-010,3.1931e-008,2.1516e-008,7.0765e-008,7.1496e-009,1.7188e-008,9.3545e-009,6.7472e-008,8.2882e-009,2.1209e-008,2.0762e-008,6.3635e-008,-9.2563e-010,1.6598e-008,2.5413e-008,2.4816e-008,2.4706e-009,1.5139e-008,2.1427e-008,-1.5345e-008,-5.7326e-009,2.2196e-008,1.5016e-008,-1.9243e-008
1.2863e-008,4.2449e-007,2.8935e-007,9.497e-007,9.4068e-008,2.334e-007,1.2767e-007,9.0235e-007,1.1315e-007,2.8687e-007,2.7903e-007,8.5947e-007,-1.2716e-008,2.2189e-007,3.4273e-007,3.2775e-007,2.831e-008,2.0149e-007,2.8285e-007,-2.0779e-007,-7.444e-008,2.9635e-007,2.0243e-007,-2.5549e-007
1.4981e-007,3.6535e-006,2.5191e-006,8.2571e-006,8.0199e-007,2.0531e-006,1.1304e-006,7.8141e-006,1.0005e-006,2.5122e-006,2.4265e-006,7.5169e-006,-1.1338e-007,1.9224e-006,2.9945e-006,2.8007e-006,2.0276e-007,1.7396e-006,2.4186e-006,-1.8184e-006,-6.2461e-007,2.5635e-006,1.7694e-006,-2.1959e-006
1.2056e-006,2.2881e-005,1.5955e-005,5.2276e-005,4.9792e-006,1.3149e-005,7.2972e-006,4.9247e-005,6.4388e-006,1.6011e-005,1.5343e-005,4.7847e-005,-7.381e-007,1.2134e-005,1.905e-005,1.7402e-005,1.0003e-006,1.0952e-005,1.5061e-005,-1.1554e-005,-3.8057e-006,1.6147e-005,1.1271e-005,-1.3734e-005
7.2723e-006,0.00011108,7.8324e-005,0.00025678,2.3983e-005,6.5323e-005,3.659e-005,0.00024066,3.213e-005,7.9116e-005,7.5144e-005,0.00023615,-3.7425e-006,5.9456e-005,9.3997e-005,8.3765e-005,3.4719e-006,5.3586e-005,7.2796e-005,-5.6763e-005,-1.7936e-005,7.8913e-005,5.573e-005,-6.6609e-005
3.4555e-005,0.00043482,0.00030993,0.0010179,9.3206e-005,0.00026188,0.00014824,0.00094859,0.00012928,0.00031534,0.00029641,0.00094,-1.5397e-005,0.00023535,0.00037411,0.00032486,7.8169e-006,0.00021198,0.00028417,-0.00022417,-6.8001e-005,0.00031126,0.00022247,-0.00026064
0.00013369,0.001409,0.0010148,0.0033438,0.00030007,0.00086997,0.00049821,0.0030964,0.00043049,0.001041,0.00096667,0.0030984,-5.2887e-005,0.00077293,0.0012329,0.0010422,5.222e-006,0.00069632,0.00092034,-0.00073023,-0.00021291,0.0010175,0.00073601,-0.00084514
0.00043101,0.0038489,0.0028002,0.0092715,0.00081508,0.0024395,0.0014149,0.008526,0.0012078,0.0028997,0.0026541,0.0086139,-0.00015489,0.002146,0.0034254,0.0028162,-4.544e-005,0.0019349,0.0025204,-0.0019968,-0.00056056,0.0028079,0.0020549,-0.0023136
0.0011771,0.0089771,0.0065933,0.021982,0.0018926,0.0058501,0.0034402,0.020061,0.0028902,0.0069051,0.0062133,0.020459,-0.00039327,0.0051049,0.0081246,0.0064919,-0.00025956,0.0046082,0.005916,-0.0046386,-0.0012567,0.0066287,0.0049031,-0.0054184
0.0027548,0.01803,0.013359,0.044956,0.0037912,0.012106,0.0072255,0.040689,0.005944,0.014185,0.01251,0.041878,-0.00087738,0.010502,0.016585,0.012874,-0.00086792,0.0094925,0.012018,-0.0092229,-0.0024181,0.013511,0.010084,-0.010953
0.0055671,0.031338,0.023401,0.079734,0.0065934,0.021739,0.013184,0.071521,0.010543,0.02528,0.021782,0.074265,-0.0017397,0.018792,0.029263,0.022064,-0.0022022,0.017008,0.021262,-0.015752,-0.0040094,0.023926,0.017965,-0.019208
0.0097517,0.047203,0.03548,0.12289,0.0099955,0.033957,0.020952,0.10916,0.016108,0.039187,0.03289,0.11432,-0.0030966,0.029324,0.044651,0.032718,-0.0045599,0.026578,0.032872,-0.023111,-0.0057221,0.036952,0.027779,-0.029253
0.0148,0.061472,0.04643,0.16437,0.01324,0.046101,0.028986,0.14442,0.021047,0.052799,0.043102,0.15251,-0.0049913,0.039858,0.058668,0.041845,-0.0079486,0.036218,0.044427,-0.029012,-0.0069703,0.049886,0.037247,-0.038521
0.019343,0.06874,0.052043,0.18977,0.015352,0.054151,0.034771,0.16466,0.023108,0.061574,0.049031,0.17536,-0.0073451,0.046902,0.065673,0.045765,-0.011846,0.042931,0.052343,-0.030943,-0.0070812,0.058979,0.04315,-0.04329
0.021423,0.065171,0.049283,0.18727,0.015629,0.054567,0.035882,0.15997,0.020514,0.06165,0.048579,0.17201,-0.0099471,0.047117,0.06129,0.042081,-0.015212,0.044103,0.053441,-0.027859,-0.0056309,0.061367,0.043005,-0.040249
0.019357,0.051403,0.038649,0.15581,0.014089,0.046626,0.031489,0.13012,0.013361,0.052415,0.042656,0.14189,-0.012504,0.039257,0.045678,0.03149,-0.016884,0.039287,0.046935,-0.021472,-0.0027284,0.057086,0.036974,-0.028526
0.012807,0.033188,0.02477,0.10837,0.011506,0.033602,0.023261,0.087032,0.0042564,0.037649,0.035027,0.097585,-0.014732,0.025411,0.02469,0.017861,-0.016212,0.031056,0.035495,-0.01574,0.00096427,0.049492,0.028462,-0.010883
0.0032998,0.018554,0.014135,0.066083,0.0089322,0.021409,0.01472,0.049279,-0.0026603,0.023879,0.029844,0.059013,-0.016431,0.010456,0.0072316,0.0059956,-0.013463,0.023849,0.024285,-0.014293,0.0045243,0.043219,0.022358,0.0070476
-0.0063621,0.012958,0.011058,0.045487,0.0070765,0.015117,0.0091718,0.031183,-0.0040875,0.01654,0.028462,0.041353,-0.017463,-0.0002807,-7.0355e-005,-0.0016344,-0.0096365,0.021171,0.018152,-0.017515,0.0071918,0.040843,0.021685,0.019491
-0.013587,0.015887,0.014786,0.047727,0.0060134,0.015596,0.0075655,0.033849,0.00016029,0.016529,0.028244,0.045084,-0.01762,-0.00384,0.0028074,-0.0066697,-0.0057716,0.023068,0.018637,-0.021815,0.0086484,0.040928,0.025094,0.023747
-0.01736,0.02166,0.020198,0.058429,0.0053833,0.018927,0.0080255,0.045162,0.0067435,0.019844,0.024769,0.056258,-0.016501,-0.001093,0.0095589,-0.013492,-0.0023417,0.026026,0.022973,-0.022233,0.0089886,0.039385,0.02753,0.02178
-0.018403,0.023897,0.021808,0.059213,0.0047708,0.019274,0.0075817,0.049085,0.01088,0.020781,0.015877,0.057484,-0.013639,0.0041142,0.012544,-0.025503,0.00070287,0.025716,0.026019,-0.016596,0.008464,0.033287,0.024063,0.018933
-0.018026,0.020058,0.01793,0.041977,0.0038464,0.013201,0.004767,0.037114,0.0096291,0.016296,0.0040647,0.041169,-0.0089553,0.0075195,0.0086053,-0.0419,0.0032963,0.020535,0.023918,-0.0076673,0.0072347,0.023845,0.014117,0.020423
-0.016739,0.012427,0.011554,0.014385,0.0022419,0.0021286,0.00086178,0.013118,0.0039736,0.0080813,-0.0051282,0.014348,-0.0033053,0.0069716,0.00091554,-0.05761,0.0047458,0.01298,0.016785,-0.0011042,0.0053388,0.01565,0.002553,0.02799
-0.014004,0.005139,0.0073091,-0.007768,-0.0004659,-0.008906,-0.0013595,-0.011508,-0.0019779,0.00075971,-0.0075967,-0.0085683,0.0014611,0.0033335,-0.0045799,-0.066528,0.0040422,0.007587,0.0083759,-0.00067298,0.0029046,0.012592,-0.0036009,0.039019
-0.0094269,0.00026704,0.0072693,-0.014324,-0.004388,-0.015033,-0.00030426,-0.027404,-0.0041864,-0.0021535,-0.0041552,-0.018455,0.0033424,-0.00062977,-0.0047573,-0.065661,0.00088938,0.0071962,0.0030276,-0.0048262,0.00041395,0.014105,-0.00043267,0.048724
-0.0041795,-0.0034523,0.0093324,-0.008665,-0.0088286,-0.014796,0.0027736,-0.033378,-0.0018757,-0.0010435,0.00010227,-0.018468,0.0016322,-0.0024414,-0.0018545,-0.057064,-0.0034704,0.010842,0.0024347,-0.0077518,-0.0012606,0.015391,0.0096997,0.053656
-0.0010075,-0.008458,0.0094693,-0.0034746,-0.012269,-0.010499,0.0047007,-0.035023,0.0017935,0.00050924,0.00010291,-0.019762,-0.0021085,-0.0016445,-0.00084156,-0.046278,-0.0065427,0.015057,0.0048834,-0.0041098,-0.0011936,0.011714,0.019685,0.0539
-0.0023794,-0.015244,0.0055817,-0.0091626,-0.013142,-0.0058877,0.003126,-0.038609,0.0021977,-0.00092357,-0.0049685,-0.030506,-0.0046437,4.8003e-005,-0.0044035,-0.038573,-0.0059826,0.017174,0.0073494,0.0066058,0.0010248,0.0029354,0.022665,0.052464
-0.0081968,-0.021425,-0.00065403,-0.025744,-0.010979,-0.0034619,-0.0014017,-0.046288,-0.0029729,-0.0057142,-0.011164,-0.048456,-0.0032279,0.0002188,-0.010429,-0.035756,-0.0011487,0.017355,0.0082905,0.019757,0.004887,-0.005955,0.016642,0.052633
-0.01518,-0.023774,-0.0055557,-0.044756,-0.007055,-0.0035537,-0.0059195,-0.05605,-0.011601,-0.011204,-0.013367,-0.063489,0.002112,-0.0022465,-0.014267,-0.035695,0.0063112,0.017524,0.0084863,0.02936,0.0090768,-0.0090375,0.0053473,0.055587
-0.01879,-0.021158,-0.0069847,-0.057977,-0.0039061,-0.0053222,-0.0076536,-0.064887,-0.01847,-0.014379,-0.0097984,-0.067186,0.0081443,-0.0061155,-0.013326,-0.034632,0.01326,0.018536,0.0093445,0.032575,0.012087,-0.0047329,-0.0049115,0.060013
-0.016383,-0.015614,-0.006246,-0.064003,-0.0038997,-0.0081244,-0.0063646,-0.071343,-0.019123,-0.01457,-0.0035527,-0.060396,0.010597,-0.0086153,-0.0094526,-0.030454,0.016766,0.018776,0.010682,0.031259,0.012962,0.0025559,-0.0096728,0.063631
-0.0091214,-0.010783,-0.0065842,-0.067106,-0.0077484,-0.011791,-0.0043358,-0.075523,-0.013302,-0.013746,5.0662e-005,-0.052204,0.0075041,-0.0076039,-0.0069478,-0.024513,0.015725,0.015832,0.01049,0.029797,0.011708,0.0059233,-0.0087591,0.065044
-0.0011314,-0.0092925,-0.0098075,-0.071046,-0.013958,-0.01585,-0.0041055,-0.077788,-0.0051934,-0.014355,-0.0020537,-0.051871,0.0010477,-0.0034472,-0.0084093,-0.020703,0.011535,0.0095583,0.0070704,0.031569,0.0092105,0.0015313,-0.0054355,0.064404
0.0034348,-0.011316,-0.01434,-0.075094,-0.019618,-0.018982,-0.0060941,-0.078245,-0.00026889,-0.016925,-0.0081739,-0.061425,-0.0038196,0.0010035,-0.012581,-0.022472,0.0073591,0.0031884,0.0013534,0.036978,0.0067874,-0.0084911,-0.0035386,0.062772
0.0031527,-0.015134,-0.016622,-0.076151,-0.022066,-0.019663,-0.0083027,-0.077428,-0.0012059,-0.019702,-0.013333,-0.075181,-0.0030929,0.0025032,-0.016106,-0.029959,0.0062215,0.00089976,-0.0031833,0.044087,0.0055931,-0.018097,-0.0049208,0.061147
-0.00011164,-0.018748,-0.014586,-0.073827,-0.020381,-0.017559,-0.0083009,-0.07675,-0.006167,-0.020513,-0.013367,-0.085607,0.0031676,-1.7166e-005,-0.017089,-0.039411,0.0089728,0.0038988,-0.0032911,0.050584,0.0060315,-0.022315,-0.0087603,0.06007
-0.0030638,-0.021059,-0.0099256,-0.072221,-0.015754,-0.014229,-0.0056321,-0.077648,-0.010712,-0.018953,-0.0082176,-0.089512,0.01089,-0.0045313,-0.016685,-0.045397,0.013571,0.0088282,0.0010084,0.055232,0.0073703,-0.020896,-0.012683,0.059801
-0.0036891,-0.021974,-0.0069523,-0.076097,-0.010559,-0.012185,-0.0024339,-0.080184,-0.011579,-0.016795,-0.0018435,-0.089215,0.015184,-0.0074913,-0.017191,-0.044296,0.016516,0.010305,0.0060051,0.058037,0.0079214,-0.017827,-0.014559,0.060413
-0.002714,-0.021892,-0.0089271,-0.085549,-0.0068191,-0.012912,-0.0017193,-0.082802,-0.0090837,-0.016333,0.0010089,-0.088803,0.01404,-0.006635,-0.018882,-0.03656,0.015665,0.0054632,0.0070916,0.059698,0.0060297,-0.017584,-0.013779,0.061525
-0.0027606,-0.021253,-0.015106,-0.095133,-0.0051802,-0.01553,-0.0048369,-0.083762,-0.0062797,-0.018287,-0.001567,-0.08998,0.0095512,-0.0026928,-0.019176,-0.026171,0.012199,-0.0036209,0.0024406,0.061136,0.0014777,-0.021508,-0.011441,0.062144
-0.0058948,-0.020433,-0.021146,-0.098821,-0.004981,-0.017351,-0.010296,-0.082806,-0.0059312,-0.021213,-0.0074499,-0.09142,0.0058565,0.0013919,-0.015263,-0.017777,0.0098553,-0.011808,-0.0055743,0.063246,-0.003778,-0.02716,-0.0095744,0.061169
-0.01151,-0.019758,-0.022591,-0.095895,-0.0051857,-0.016036,-0.014908,-0.08128,-0.0081973,-0.022909,-0.012468,-0.091364,0.0057382,0.0029578,-0.0075971,-0.013702,0.011664,-0.015234,-0.012377,0.066554,-0.0064993,-0.030749,-0.009945,0.058359
-0.016318,-0.019473,-0.01851,-0.091739,-0.005306,-0.011644,-0.016231,-0.080567,-0.010977,-0.022486,-0.013765,-0.089999,0.0087319,0.0016217,-0.00047195,-0.013013,0.016895,-0.014117,-0.014828,0.070764,-0.0044292,-0.03022,-0.013081,0.054732
-0.016683,-0.019704,-0.012279,-0.092568,-0.0056105,-0.0069091,-0.014284,-0.080552,-0.012226,-0.021242,-0.011874,-0.089013,0.012045,-0.00088372,0.0013363,-0.013096,0.021091,-0.011712,-0.013437,0.074656,0.001725,-0.026484,-0.017947,0.051709
-0.011616,-0.020502,-0.0089587,-0.099245,-0.0065917,-0.0054287,-0.011263,-0.079777,-0.011791,-0.021536,-0.010071,-0.08918,0.013132,-0.0026706,-0.0031149,-0.012194,0.019595,-0.010921,-0.01149,0.076771,0.0083725,-0.022174,-0.022407,0.049556
-0.0040074,-0.021838,-0.011478,-0.10627,-0.0082596,-0.0090987,-0.0096571,-0.077099,-0.011038,-0.024596,-0.011718,-0.088953,0.011593,-0.0034709,-0.0098676,-0.010639,0.011706,-0.012033,-0.012147,0.076506,0.011408,-0.019413,-0.024284,0.046621
0.0012019,-0.023406,-0.018625,-0.10687,-0.0098915,-0.016694,-0.010369,-0.073003,-0.010957,-0.029113,-0.017741,-0.085843,0.0090441,-0.004521,-0.013501,-0.0097637,0.0017205,-0.013585,-0.016157,0.074701,0.009098,-0.018618,-0.022577,0.040391
0.00075027,-0.024414,-0.026164,-0.099302,-0.01044,-0.024591,-0.012259,-0.069155,-0.01094,-0.031907,-0.025997,-0.07925,0.00748,-0.0067417,-0.011957,-0.0096432,-0.004298,-0.014894,-0.021958,0.073073,0.0031419,-0.019023,-0.018194,0.029686
-0.0042369,-0.023818,-0.029915,-0.088261,-0.0092685,-0.029007,-0.013231,-0.066716,-0.0095853,-0.03026,-0.032766,-0.071742,0.0077715,-0.0091152,-0.0081441,-0.0080012,-0.0033777,-0.017259,-0.027633,0.072936,-0.0028828,-0.019936,-0.013634,0.016108
-0.0089365,-0.021145,-0.028332,-0.080507,-0.0066482,-0.028122,-0.011855,-0.065238,-0.0066042,-0.024122,-0.035107,-0.067221,0.0094134,-0.0090324,-0.0067209,-0.0015847,0.0021324,-0.02242,-0.03257,0.074283,-0.006245,-0.021287,-0.011562,0.0033091
-0.0085984,-0.017283,-0.022915,-0.07893,-0.0036494,-0.022712,-0.00829,-0.063304,-0.0036514,-0.016367,-0.032446,-0.067457,0.011345,-0.004501,-0.0091538,0.010998,0.0068828,-0.029996,-0.037266,0.075968,-0.0066022,-0.023037,-0.013011,-0.0054519
-0.0024095,-0.014323,-0.016663,-0.080614,-0.0015025,-0.01521,-0.004019,-0.060197,-0.002957,-0.010759,-0.026552,-0.0702,0.012876,0.0037556,-0.011945,0.027531,0.0072095,-0.036821,-0.041762,0.076642,-0.0053094,-0.024404,-0.016527,-0.0094722
0.005785,-0.014206,-0.012053,-0.080224,-0.00088436,-0.0081417,-0.00082081,-0.056769,-0.00501,-0.0092219,-0.020243,-0.070791,0.013985,0.012316,-0.0099485,0.043294,0.0039267,-0.039207,-0.04463,0.075506,-0.003591,-0.024106,-0.019129,-0.010723
0.010566,-0.017125,-0.0099695,-0.07512,-0.0015852,-0.0030338,0.00023181,-0.054557,-0.0077134,-0.010632,-0.015834,-0.066086,0.014966,0.017342,-0.0016894,0.054226,0.00088389,-0.03615,-0.043852,0.072342,-0.0015565,-0.021625,-0.018636,-0.011988
0.0092479,-0.021083,-0.0098651,-0.067412,-0.0026961,-0.00017393,-0.000773,-0.054023,-0.0081367,-0.012088,-0.014231,-0.057309,0.015882,0.017237,0.0084975,0.059487,0.00096927,-0.0304,-0.038946,0.067139,0.0011163,-0.018224,-0.015587,-0.014771
0.003809,-0.02317,-0.010541,-0.061533,-0.00311,0.0010623,-0.0026966,-0.053695,-0.0053973,-0.011497,-0.014924,-0.049217,0.016298,0.013495,0.013786,0.061273,0.0034972,-0.026266,-0.032187,0.059971,0.0038879,-0.016379,-0.013027,-0.018715
-0.0010459,-0.021583,-0.010801,-0.060043,-0.0020443,0.0017309,-0.0038108,-0.051158,-0.0018677,-0.009154,-0.01658,-0.046146,0.015473,0.0091778,0.010667,0.062314,0.0053207,-0.026106,-0.027452,0.051258,0.0051187,-0.017806,-0.014061,-0.022761
-0.0018114,-0.016806,-0.0098004,-0.061624,0.00058012,0.0028083,-0.002487,-0.045053,-0.0012633,-0.0070346,-0.017768,-0.04831,0.012962,0.0064681,0.0018561,0.063572,0.0042636,-0.028645,-0.02731,0.041892,0.0033062,-0.021813,-0.019043,-0.026678
0.0013069,-0.011119,-0.0072926,-0.062718,0.0039863,0.0046452,0.0019371,-0.03635,-0.0050852,-0.0066255,-0.017532,-0.051646,0.0092514,0.0053846,-0.0063569,0.064243,0.0013022,-0.030512,-0.030796,0.032787,-0.0014634,-0.025649,-0.024829,-0.031437
0.0051889,-0.0069977,-0.0039036,-0.060859,0.0067561,0.0066133,0.0084095,-0.027798,-0.010667,-0.007451,-0.015705,-0.051381,0.0058437,0.004476,-0.0097036,0.063688,-0.00061288,-0.029442,-0.033915,0.02417,-0.0074074,-0.026785,-0.026971,-0.038182
0.0068061,-0.0057086,-0.0011073,-0.05658,0.007512,0.0073654,0.014172,-0.022039,-0.012907,-0.007615,-0.012885,-0.046117,0.0044485,0.0025716,-0.0092051,0.062913,0.00026241,-0.026132,-0.032698,0.015434,-0.012443,-0.025139,-0.023206,-0.046943
0.0056586,-0.006852,-0.00054563,-0.05245,0.0058304,0.0058232,0.016022,-0.019891,-0.008536,-0.0056589,-0.010055,-0.03876,0.0056435,-7.3703e-005,-0.0092538,0.06376,0.0025909,-0.023203,-0.026376,0.0059527,-0.015694,-0.023171,-0.015383,-0.05643
0.0037847,-0.0087744,-0.0028607,-0.050448,0.0027491,0.0022938,0.012446,-0.019969,0.0006777,-0.0018298,-0.0079806,-0.033537,0.0080821,-0.0021059,-0.01266,0.066605,0.0032542,-0.022463,-0.018059,-0.003784,-0.017652,-0.023668,-0.0081775,-0.065135
0.0037859,-0.0093858,-0.0068865,-0.050125,0.00029104,-0.001275,0.0052023,-0.019733,0.0087563,0.0023812,-0.0067382,-0.032004,0.0091984,-0.0023404,-0.017528,0.069221,0.00044217,-0.023211,-0.012322,-0.011922,-0.019009,-0.027214,-0.0055932,-0.072647
0.0067735,-0.007146,-0.010075,-0.049012,0.00012718,-0.0023921,-0.0011915,-0.0171,0.010023,0.0057373,-0.0057546,-0.03183,0.0072114,-0.00075228,-0.018804,0.068513,-0.0046009,-0.023173,-0.011716,-0.016417,-0.019573,-0.031641,-0.0081077,-0.079832
0.011729,-0.0020514,-0.010154,-0.044814,0.0023041,0.0001638,-0.002247,-0.011652,0.0037324,0.0081248,-0.0043634,-0.029346,0.00293,0.0015588,-0.012806,0.063786,-0.008857,-0.021063,-0.015041,-0.016832,-0.018513,-0.03394,-0.012658,-0.087612
0.016351,0.0039342,-0.0068691,-0.037502,0.0050767,0.0052417,0.0031611,-0.0047956,-0.0050226,0.0099574,-0.0024322,-0.023247,-0.00032067,0.0031824,-0.00048616,0.058235,-0.010459,-0.018152,-0.018693,-0.015199,-0.015658,-0.032851,-0.015231,-0.095481
0.018461,0.0077549,-0.0023333,-0.029614,0.0060862,0.0099657,0.011526,0.0012086,-0.0090197,0.010958,-0.00052563,-0.015806,0.0010214,0.0031977,0.013312,0.056724,-0.010311,-0.017235,-0.019758,-0.014975,-0.012371,-0.029787,-0.013762,-0.10131
0.017092,0.0073859,0.00049041,-0.024462,0.0040524,0.011796,0.016847,0.0049153,-0.0043677,0.0098793,0.00052181,-0.010612,0.0078226,0.0014504,0.023487,0.061537,-0.010865,-0.019897,-0.018175,-0.018705,-0.01083,-0.0274,-0.0091005,-0.10287
0.012871,0.0037279,5.5515e-005,-0.023523,-0.00026804,0.010421,0.01488,0.0070557,0.006556,0.0057315,0.00022584,-0.0092079,0.017012,-0.0015906,0.027841,0.070037,-0.013431,-0.024765,-0.016274,-0.026145,-0.012241,-0.027273,-0.0037164,-0.099932
0.0076682,0.00032704,-0.0026511,-0.025046,-0.004537,0.0079059,0.0063318,0.010445,0.016934,-0.00060116,-0.0012586,-0.0099525,0.023268,-0.0050405,0.027445,0.076655,-0.016761,-0.028512,-0.016376,-0.034412,-0.015636,-0.028848,0.00031891,-0.094899
0.003666,0.00053792,-0.0051437,-0.025093,-0.0063234,0.0069038,-0.0035858,0.01807,0.020572,-0.0061238,-0.0033421,-0.0099196,0.022608,-0.0078006,0.024716,0.077611,-0.018299,-0.028773,-0.018756,-0.040171,-0.018469,-0.030332,0.0023274,-0.091302
0.0022299,0.0042942,-0.005719,-0.020423,-0.0045521,0.0083762,-0.0090133,0.030495,0.016234,-0.0075161,-0.0054153,-0.0076507,0.015283,-0.0089846,0.021429,0.074099,-0.01677,-0.026223,-0.021683,-0.042224,-0.018542,-0.030441,0.0025814,-0.091163
0.0032699,0.0076314,-0.0048894,-0.011034,1.7667e-005,0.010755,-0.0077067,0.044713,0.0080786,-0.0036828,-0.0070938,-0.0039398,0.0056986,-0.0086042,0.018128,0.071026,-0.01347,-0.02384,-0.023258,-0.042485,-0.015579,-0.029265,0.0013919,-0.093477
0.0055845,0.0060058,-0.0046173,-0.00021844,0.0054521,0.011328,-0.0023355,0.055757,0.0022018,0.0031016,-0.0081834,-0.00013607,-0.00065683,-0.0079889,0.014675,0.07253,-0.011005,-0.024067,-0.023151,-0.044513,-0.01118,-0.027721,-0.0011733,-0.095152
0.0079459,-0.0011771,-0.0060938,0.0080865,0.0098504,0.0086987,0.0021095,0.060165,0.0022506,0.0086151,-0.0085528,0.0039254,-0.0010242,-0.0092459,0.010763,0.078402,-0.010725,-0.026629,-0.022627,-0.05071,-0.0074126,-0.026488,-0.0048507,-0.093652
0.0099807,-0.0090821,-0.008285,0.012517,0.012276,0.004175,0.0024797,0.058555,0.0074256,0.0097056,-0.0081245,0.0099943,0.0029564,-0.01375,0.0059277,0.084567,-0.01142,-0.029078,-0.022995,-0.060369,-0.0054021,-0.025619,-0.0088394,-0.089087
0.012051,-0.010929,-0.0088085,0.015264,0.01293,0.00076167,-0.00034386,0.05508,0.013938,0.0065181,-0.0070117,0.01933,0.0069215,-0.020722,-0.00047016,0.086911,-0.010581,-0.029414,-0.024108,-0.07012,-0.0050079,-0.024973,-0.012195,-0.083991
0.014321,-0.0038228,-0.0064151,0.019826,0.012679,0.00052011,-0.0029069,0.054142,0.018164,0.0021246,-0.0056472,0.030647,0.0073546,-0.027267,-0.0087892,0.084792,-0.0070361,-0.028076,-0.024411,-0.076452,-0.00546,-0.024658,-0.014618,-0.080997
0.016074,0.0081849,-0.0026332,0.027477,0.01238,0.0025915,-0.0026626,0.057122,0.018755,-0.00010636,-0.0047274,0.040311,0.00413,-0.030236,-0.018506,0.081116,-0.0024133,-0.027284,-0.022486,-0.078381,-0.006049,-0.024791,-0.016679,-0.08049
0.016136,0.016806,-0.00076721,0.035711,0.012448,0.0037349,-0.0001628,0.061835,0.016437,0.00082626,-0.0049087,0.044878,4.9643e-005,-0.028627,-0.028255,0.079232,5.2866e-005,-0.028487,-0.018588,-0.078253,-0.0062391,-0.024918,-0.019065,-0.080305
0.014091,0.015931,-0.0029527,0.040278,0.012779,0.0010687,0.0019255,0.064959,0.012473,0.0030553,-0.0063677,0.043829,-0.0020282,-0.024538,-0.03671,0.079658,-0.0016396,-0.030605,-0.014685,-0.080119,-0.0054469,-0.024031,-0.021554,-0.077764
0.011053,0.0063444,-0.0079839,0.039121,0.012953,-0.005316,0.0017317,0.065101,0.0077008,0.003775,-0.0085089,0.040154,-0.0018488,-0.021687,-0.043521,0.079536,-0.00637,-0.030963,-0.012948,-0.086871,-0.0031312,-0.021505,-0.022897,-0.072267
0.0090255,-0.0051959,-0.012085,0.03463,0.012541,-0.012218,-1.0076e-005,0.063794,0.0029026,0.0017472,-0.010135,0.038281,-0.0018485,-0.022585,-0.049321,0.075016,-0.010732,-0.028006,-0.014043,-0.098157,0.00061897,-0.018095,-0.021956,-0.066137
0.0092832,-0.011532,-0.012106,0.032045,0.011387,-0.015887,-0.0010275,0.06383,-0.0004897,-0.0018598,-0.010147,0.041074,-0.0046485,-0.026678,-0.054757,0.064305,-0.011868,-0.023029,-0.016708,-0.11041,0.0045795,-0.015801,-0.019075,-0.062843
0.011229,-0.010424,-0.0083109,0.035264,0.0097452,-0.015109,-0.00022994,0.066696,-0.00075696,-0.0048706,-0.0083822,0.048225,-0.010292,-0.031048,-0.059529,0.048875,-0.0097296,-0.019118,-0.018871,-0.11891,0.0067319,-0.016348,-0.01625,-0.063987
0.012863,-0.005327,-0.004227,0.043742,0.0081523,-0.012111,0.00083326,0.071428,0.0026084,-0.0062036,-0.0059016,0.057073,-0.015844,-0.033045,-0.062428,0.032235,-0.0067251,-0.01835,-0.019188,-0.12062,0.0055284,-0.01952,-0.015696,-0.067604
0.012511,-0.001607,-0.0036974,0.053168,0.0070456,-0.010542,-0.00062163,0.075616,0.0077887,-0.0066083,-0.0043339,0.064836,-0.017844,-0.03252,-0.062331,0.01768,-0.0051973,-0.020029,-0.017707,-0.116,0.0012075,-0.022959,-0.017997,-0.069321
0.010271,-0.0020401,-0.0077575,0.059233,0.0063581,-0.012338,-0.0057048,0.077314,0.011419,-0.0074907,-0.004629,0.070312,-0.015439,-0.031672,-0.059115,0.006848,-0.0051938,-0.021682,-0.015349,-0.10868,-0.0040005,-0.023892,-0.021497,-0.065617
0.0078569,-0.0054828,-0.014,0.061094,0.0054316,-0.01624,-0.012401,0.076113,0.010999,-0.0092434,-0.0062145,0.073834,-0.011266,-0.032656,-0.053651,-0.00023652,-0.0046467,-0.021728,-0.013039,-0.1032,-0.007168,-0.021456,-0.023559,-0.056646
0.0070446,-0.0091647,-0.018735,0.061555,0.0034412,-0.019156,-0.017125,0.072821,0.0069352,-0.010894,-0.0073484,0.075985,-0.0091322,-0.03518,-0.047039,-0.0043111,-0.0017043,-0.021059,-0.011403,-0.10193,-0.0066045,-0.017589,-0.02262,-0.046339
0.0081499,-0.01172,-0.01986,0.064023,0.00013912,-0.01901,-0.017844,0.068565,0.0023037,-0.011368,-0.0065081,0.076597,-0.010522,-0.036424,-0.040006,-0.0062853,0.0031306,-0.021922,-0.011064,-0.10347,-0.0029439,-0.015544,-0.01932,-0.03965
0.0098889,-0.0139,-0.018045,0.069193,-0.0036125,-0.016501,-0.01578,0.064294,0.00040609,-0.010883,-0.0037323,0.075047,-0.013203,-0.033571,-0.033033,-0.0072818,0.0071694,-0.025245,-0.012766,-0.10365,0.0014779,-0.017174,-0.015857,-0.039071
0.01059,-0.016688,-0.015655,0.07442,-0.0060419,-0.014368,-0.014103,0.060815,0.0021676,-0.010871,-0.00079342,0.071414,-0.013337,-0.026801,-0.026816,-0.0088332,0.0078416,-0.029138,-0.016812,-0.098737,0.0043994,-0.021297,-0.014216,-0.043068
0.0095245,-0.01926,-0.014757,0.076166,-0.0054768,-0.015024,-0.014982,0.05872,0.0055306,-0.012465,-9.0279e-007,0.06713,-0.009222,-0.019948,-0.022236,-0.012578,0.0048955,-0.030208,-0.022246,-0.08853,0.0050757,-0.024598,-0.014786,-0.047506
0.0071856,-0.019212,-0.015944,0.073117,-0.001593,-0.018749,-0.017844,0.05798,0.0072167,-0.015191,-0.0025322,0.064205,-0.0031414,-0.017878,-0.019632,-0.019354,0.00043506,-0.026591,-0.026786,-0.076869,0.0042932,-0.024369,-0.016344,-0.048763
0.0045342,-0.014956,-0.018527,0.067196,0.0040243,-0.023833,-0.020318,0.057664,0.0052711,-0.017336,-0.0075509,0.063609,0.00050976,-0.022537,-0.018154,-0.0283,-0.0031002,-0.01994,-0.02796,-0.068913,0.003231,-0.020723,-0.017237,-0.046011
0.0022103,-0.0078902,-0.021377,0.061807,0.0086145,-0.028212,-0.020699,0.056422,0.00037237,-0.017677,-0.012734,0.064327,-0.00083635,-0.030972,-0.016105,-0.036839,-0.0049359,-0.014485,-0.024726,-0.067228,0.0024291,-0.016328,-0.016648,-0.041121
0.0005163,-0.0020807,-0.023562,0.059177,0.0099492,-0.030935,-0.019401,0.053461,-0.0048662,-0.016814,-0.015774,0.064115,-0.0055892,-0.037209,-0.012297,-0.041915,-0.0060417,-0.013852,-0.018261,-0.069833,0.0018047,-0.013892,-0.015001,-0.036696
-0.00011485,-0.0015122,-0.024541,0.059192,0.0078113,-0.032307,-0.018192,0.049055,-0.007775,-0.01671,-0.015781,0.061434,-0.0094834,-0.03672,-0.0072986,-0.041996,-0.0074275,-0.018259,-0.011266,-0.07186,0.0014153,-0.013635,-0.013359,-0.034116
0.00087325,-0.0071802,-0.024218,0.060427,0.0040426,-0.032938,-0.01829,0.04398,-0.007221,-0.018893,-0.013669,0.056913,-0.0095135,-0.029939,-0.0033804,-0.038554,-0.0085938,-0.024321,-0.0063455,-0.069438,0.0018492,-0.013062,-0.012463,-0.033091
0.0033099,-0.016374,-0.023011,0.061915,0.0010165,-0.032893,-0.019379,0.038492,-0.0039944,-0.023055,-0.011422,0.053006,-0.0066581,-0.02197,-0.0030452,-0.035772,-0.0078242,-0.027562,-0.0047047,-0.062571,0.0036149,-0.0092931,-0.012223,-0.032603
0.0054837,-0.024605,-0.021785,0.063751,-0.00025044,-0.031712,-0.020327,0.032039,-4.7924e-005,-0.027344,-0.010835,0.052054,-0.0048615,-0.018639,-0.0072655,-0.038249,-0.0040521,-0.025599,-0.0059454,-0.054758,0.0061517,-0.0019453,-0.011916,-0.031992
0.0046786,-0.028561,-0.021481,0.066093,-0.00071609,-0.029102,-0.020541,0.024164,0.0027315,-0.029933,-0.012592,0.054318,-0.0072325,-0.022046,-0.014752,-0.047931,0.0016052,-0.019633,-0.0087656,-0.049953,0.0077108,0.0060159,-0.01079,-0.031176
-0.00076548,-0.02793,-0.022623,0.067948,-0.0020739,-0.025486,-0.020392,0.015618,0.003477,-0.030363,-0.016181,0.057585,-0.012975,-0.029105,-0.022636,-0.062408,0.0062367,-0.013328,-0.011802,-0.049654,0.0065876,0.010275,-0.0085642,-0.030182
-0.0094483,-0.025013,-0.025019,0.067363,-0.0047727,-0.02189,-0.020472,0.0082843,0.0025765,-0.029579,-0.020501,0.058654,-0.017879,-0.03414,-0.027855,-0.076061,0.0071891,-0.010131,-0.014073,-0.052375,0.0027421,0.0084026,-0.0055697,-0.028796
-0.017052,-0.022755,-0.027775,0.063094,-0.0072119,-0.019402,-0.020813,0.0036655,0.0011701,-0.028967,-0.024616,0.055546,-0.017942,-0.033338,-0.028293,-0.083583,0.00401,-0.011035,-0.01503,-0.055383,-0.0017678,0.0017019,-0.0026405,-0.026764
-0.01913,-0.022747,-0.029534,0.056097,-0.0070478,-0.018682,-0.021145,0.0013127,0.00028688,-0.029433,-0.028112,0.048715,-0.012902,-0.027504,-0.02331,-0.08348,-0.001258,-0.014225,-0.0145,-0.056673,-0.0041654,-0.0057282,-0.00086113,-0.024109
-0.014587,-0.024513,-0.028907,0.049108,-0.0035527,-0.019796,-0.021798,-0.0011137,0.00019043,-0.03116,-0.030959,0.040415,-0.0065609,-0.021097,-0.013875,-0.07894,-0.0054436,-0.016568,-0.012668,-0.055503,-0.0030887,-0.0098073,-0.0011474,-0.020978
-0.0068773,-0.026346,-0.025147,0.044411,0.001203,-0.022231,-0.023878,-0.0059351,0.00032831,-0.033783,-0.033165,0.03284,-0.0036661,-0.018555,-0.0024481,-0.07532,-0.0060625,-0.015716,-0.010029,-0.051689,0.00037811,-0.0089272,-0.0036631,-0.017147
-0.0016089,-0.026876,-0.018878,0.041764,0.0036891,-0.024964,-0.028075,-0.013356,-0.00016927,-0.036476,-0.034579,0.02654,-0.0060824,-0.020999,0.00762,-0.076093,-0.0024381,-0.011414,-0.007225,-0.045127,0.0037264,-0.0044017,-0.0073976,-0.011885
-0.0022884,-0.026095,-0.01223,0.038523,0.0018314,-0.026667,-0.033194,-0.021179,-0.0018621,-0.037971,-0.034965,0.020353,-0.011511,-0.025831,0.013397,-0.080343,0.0041296,-0.0053636,-0.0048471,-0.036402,0.0052129,0.00097419,-0.010427,-0.0046103
-0.0076643,-0.025106,-0.0078874,0.032005,-0.0030377,-0.026203,-0.036195,-0.026696,-0.0046687,-0.036969,-0.034189,0.012808,-0.015701,-0.029229,0.013926,-0.083711,0.010855,-2.8418e-005,-0.0033228,-0.027612,0.0052522,0.0048531,-0.010983,0.0042391
-0.012879,-0.024874,-0.0073904,0.021974,-0.0070523,-0.023255,-0.034239,-0.029018,-0.0079585,-0.033087,-0.032327,0.0037479,-0.016069,-0.0292,0.010925,-0.081958,0.014461,0.00272,-0.0029085,-0.02187,0.0057351,0.0064097,-0.0086638,0.013058
-0.013415,-0.025153,-0.01003,0.010919,-0.0069084,-0.018606,-0.027132,-0.029656,-0.010907,-0.027637,-0.029696,-0.0051959,-0.013588,-0.026681,0.0077984,-0.074331,0.01269,0.002363,-0.003669,-0.021205,0.0078787,0.0061892,-0.0047337,0.019961
-0.0085077,-0.02461,-0.013439,0.0018722,-0.0025699,-0.013745,-0.017882,-0.030844,-0.012871,-0.023257,-0.026879,-0.011691,-0.011453,-0.024094,0.0073264,-0.064203,0.0058585,-0.00026144,-0.0053691,-0.024505,0.010616,0.0052365,-0.0011123,0.02392
-0.0013205,-0.022116,-0.015554,-0.0041573,0.0027025,-0.010045,-0.010696,-0.033325,-0.013612,-0.022263,-0.02464,-0.014449,-0.011939,-0.022983,0.0095885,-0.056707,-0.0026851,-0.0034406,-0.0073811,-0.027692,0.011159,0.0042413,0.0011511,0.025176
0.003901,-0.017987,-0.016182,-0.0087065,0.0049392,-0.0082345,-0.0080888,-0.035854,-0.013281,-0.024841,-0.023577,-0.014177,-0.014315,-0.022904,0.011732,-0.055367,-0.0081408,-0.0052523,-0.0088302,-0.026537,0.0074627,0.0031924,0.0025374,0.024752
0.0050351,-0.013949,-0.016678,-0.01388,0.0024223,-0.0085708,-0.0095319,-0.036929,-0.012222,-0.028661,-0.023554,-0.012967,-0.01565,-0.022334,0.0099253,-0.060279,-0.0073141,-0.0042949,-0.0090548,-0.020039,0.00052019,0.0016801,0.0042259,0.023838
0.0030787,-0.011721,-0.018,-0.01987,-0.0033194,-0.011325,-0.012544,-0.036955,-0.010757,-0.030469,-0.023436,-0.012679,-0.013674,-0.020447,0.0021793,-0.068895,-0.00099698,-0.00038611,-0.0081285,-0.011415,-0.0056778,-0.00039076,0.0065903,0.023652
0.00063827,-0.011529,-0.019151,-0.024472,-0.0089516,-0.016727,-0.014873,-0.038457,-0.0091671,-0.028517,-0.021666,-0.013713,-0.0090894,-0.017965,-0.010009,-0.078291,0.0064423,0.0050996,-0.0069681,-0.0056119,-0.0068419,-0.0022652,0.008549,0.025543
-0.00028244,-0.012009,-0.017738,-0.02517,-0.011728,-0.0241,-0.015737,-0.043812,-0.0078819,-0.023872,-0.017548,-0.015222,-0.005253,-0.016382,-0.0224,-0.086799,0.010274,0.0097215,-0.0067577,-0.0052354,-0.0017476,-0.0026111,0.0084946,0.030584
0.00066713,-0.011661,-0.012302,-0.021807,-0.010985,-0.031033,-0.015434,-0.052522,-0.0075575,-0.019483,-0.012168,-0.016477,-0.0054433,-0.016426,-0.030604,-0.09384,0.0089439,0.011354,-0.0079852,-0.008294,0.0065182,-0.00063802,0.0059558,0.038574
0.002599,-0.010424,-0.0042377,-0.017191,-0.0080116,-0.033926,-0.014328,-0.060762,-0.0087116,-0.017792,-0.007849,-0.018064,-0.010057,-0.017275,-0.032643,-0.098612,0.0049615,0.0097098,-0.0098652,-0.0097655,0.012667,0.002838,0.0023525,0.047415
0.0042545,-0.0097403,0.0026619,-0.014953,-0.0048899,-0.03019,-0.012577,-0.064062,-0.011069,-0.018885,-0.00626,-0.021666,-0.016101,-0.017226,-0.029718,-0.099416,0.0023942,0.0067907,-0.010763,-0.005812,0.013175,0.0056015,-6.0393e-006,0.053945
0.0044766,-0.010954,0.004836,-0.016635,-0.0032504,-0.020634,-0.01066,-0.061046,-0.01331,-0.020721,-0.0067506,-0.028526,-0.0194,-0.015168,-0.024841,-0.094644,0.0032546,0.0055971,-0.0094215,0.0027491,0.0089376,0.0057791,0.00011608,0.056077
0.0024365,-0.013656,0.0015547,-0.020793,-0.0035156,-0.0097835,-0.0096375,-0.054945,-0.013815,-0.021116,-0.0066406,-0.037918,-0.01768,-0.011536,-0.020548,-0.084586,0.0060641,0.007836,-0.0059979,0.01053,0.004403,0.0037584,0.0017089,0.054567
-0.0018805,-0.015738,-0.0046828,-0.024886,-0.0047948,-0.0032461,-0.010336,-0.051297,-0.012058,-0.019642,-0.0035182,-0.047096,-0.012012,-0.0079537,-0.017463,-0.072159,0.0078039,0.01241,-0.0019642,0.011198,0.0038335,0.0023072,0.0022422,0.052709
-0.0071433,-0.015249,-0.010136,-0.027922,-0.0054685,-0.0038126,-0.012159,-0.053497,-0.0094147,-0.017729,0.002411,-0.052871,-0.0056115,-0.0059578,-0.01459,-0.061447,0.0072466,0.016095,0.0010821,0.0019116,0.0078242,0.0042845,-0.00024775,0.053886
-0.011015,-0.012284,-0.012383,-0.031034,-0.0043025,-0.0094081,-0.013019,-0.05985,-0.0083449,-0.016914,0.0081902,-0.053599,-0.0011848,-0.0058955,-0.010807,-0.055028,0.0063735,0.016083,0.0026122,-0.014584,0.012996,0.0097249,-0.0054333,0.058887
-0.011727,-0.0089392,-0.011408,-0.035394,-0.0014585,-0.014772,-0.011004,-0.064725,-0.010331,-0.01696,0.010532,-0.050037,0.00084957,-0.0068621,-0.0061215,-0.052376,0.0084454,0.012432,0.0032697,-0.031465,0.015047,0.015123,-0.010751,0.065288
-0.0097754,-0.0072727,-0.0087418,-0.039802,0.0014587,-0.015646,-0.0064695,-0.063035,-0.01432,-0.015713,0.0087046,-0.044569,0.0019187,-0.0075873,-0.0016542,-0.050756,0.014513,0.0083356,0.0039089,-0.041596,0.012419,0.016051,-0.013172,0.06945
-0.007907,-0.0072195,-0.0058464,-0.040916,0.0025786,-0.012033,-0.0024291,-0.054468,-0.017264,-0.01103,0.0052467,-0.039639,0.0033191,-0.0074167,0.0015127,-0.047849,0.021664,0.0078478,0.0047072,-0.041023,0.0073808,0.011101,-0.011242,0.069444
-0.0088429,-0.0065795,-0.0032545,-0.036441,0.0012789,-0.0078325,-0.0024184,-0.043958,-0.016535,-0.0031218,0.0038323,-0.03659,0.0047057,-0.0065582,0.0034698,-0.043747,0.024754,0.012758,0.0053664,-0.030323,0.0037473,0.0035292,-0.0058369,0.066422
-0.012483,-0.0032136,-0.00088161,-0.028286,-0.0013612,-0.0072824,-0.0074124,-0.037943,-0.012196,0.0049284,0.0061907,-0.035462,0.00447,-0.0055103,0.005515,-0.040588,0.020285,0.021045,0.0061102,-0.01359,0.003518,-0.0011926,0.00075144,0.063448
-0.015372,0.0026218,0.001262,-0.022158,-0.0036811,-0.01132,-0.014549,-0.039436,-0.0070332,0.0091994,0.010802,-0.035421,0.0015779,-0.0043391,0.0090221,-0.040244,0.0092943,0.028105,0.0081085,0.0039268,0.0055265,1.196e-005,0.0064075,0.063067
-0.013486,0.0081125,0.0028588,-0.023227,-0.0050634,-0.016895,-0.019038,-0.045849,-0.0042298,0.0079995,0.014392,-0.035325,-0.0029598,-0.0025571,0.014146,-0.042211,-0.0029984,0.029825,0.012428,0.018221,0.0071172,0.0051763,0.010077,0.065752
-0.0062198,0.01019,0.0036684,-0.031415,-0.0063599,-0.019556,-0.017829,-0.051219,-0.0047115,0.0033493,0.014736,-0.034274,-0.006484,0.00028454,0.019515,-0.043548,-0.01042,0.025247,0.018308,0.028013,0.0069324,0.0090837,0.011476,0.070237
0.0021269,0.008232,0.003894,-0.040724,-0.0085715,-0.01689,-0.011917,-0.050829,-0.0065359,-0.00052129,0.012308,-0.032196,-0.0067102,0.0039273,0.023152,-0.040921,-0.0096006,0.017071,0.022692,0.034768,0.0059847,0.0079396,0.010404,0.074897
0.0052494,0.0046672,0.0040369,-0.04367,-0.011121,-0.010028,-0.0053187,-0.044413,-0.0068247,-0.00054022,0.0095559,-0.030177,-0.0035996,0.0074203,0.023797,-0.033091,-0.0018097,0.0098704,0.022129,0.041262,0.0060813,0.002718,0.0067417,0.078622
4.8069e-005,0.0028891,0.0044309,-0.037291,-0.011697,-0.0024022,-0.0016889,-0.035605,-0.004404,0.0027731,0.0087903,-0.029975,0.00061469,0.0099227,0.021556,-0.021939,0.0080227,0.0074095,0.015839,0.049375,0.0074099,-0.0017702,0.0012677,0.080657
-0.010324,0.0043623,0.0050264,-0.025629,-0.0081985,0.0027245,-0.0016249,-0.028523,-0.00073379,0.0059169,0.010642,-0.032631,0.0033124,0.011572,0.01756,-0.011438,0.014256,0.010697,0.0072353,0.058484,0.0079349,-0.0011138,-0.0038004,0.080196
-0.018494,0.0075037,0.0056617,-0.016488,-0.0011012,0.0039371,-0.0029394,-0.024622,0.0016134,0.0056311,0.014207,-0.037114,0.0036333,0.013514,0.013256,-0.005452,0.013651,0.01769,0.0021192,0.065663,0.0053751,0.0050148,-0.0056892,0.07666
-0.018554,0.0092778,0.0064364,-0.015209,0.0061521,0.0017723,-0.0033149,-0.022286,0.001349,0.0020372,0.018276,-0.040347,0.0030046,0.016885,0.010062,-0.005874,0.0069573,0.024557,0.0046021,0.067806,-0.00016651,0.012842,-0.00313,0.070488
-0.010671,0.0079993,0.0076598,-0.020639,0.0094507,-0.0020701,-0.002597,-0.019018,-0.00055211,-0.0010492,0.022212,-0.03906,0.0036289,0.02156,0.0094368,-0.012097,-0.0018265,0.02775,0.013959,0.064176,-0.0056706,0.017828,0.0021695,0.063347
-0.00079244,0.0048229,0.0093688,-0.026436,0.0071878,-0.0054873,-0.0025567,-0.013906,-0.0020828,0.00090112,0.025758,-0.032251,0.0063611,0.025805,0.012741,-0.021725,-0.0080549,0.025902,0.025068,0.057398,-0.0075722,0.018196,0.0063415,0.057121
0.0042005,0.0026618,0.010991,-0.026299,0.0015301,-0.0065431,-0.0045989,-0.0082807,-0.0022559,0.0091715,0.028336,-0.022218,0.0099325,0.027361,0.020474,-0.031759,-0.0093109,0.020562,0.0321,0.051913,-0.0049719,0.015747,0.006231,0.052408
0.0016989,0.0035783,0.011672,-0.018642,-0.0033482,-0.0041757,-0.0079199,-0.0043677,-0.0018884,0.020144,0.028943,-0.013148,0.0122,0.025253,0.031344,-0.039527,-0.0066977,0.015201,0.032441,0.051034,-0.00063262,0.013685,0.0020196,0.048025
-0.0052776,0.0069622,0.011069,-0.0071694,-0.0045037,0.0010726,-0.010037,-0.0035105,-0.0024167,0.027511,0.026965,-0.0082495,0.012187,0.020883,0.042184,-0.043136,-0.0036518,0.012908,0.027779,0.05487,0.0013506,0.013761,-0.0028193,0.042199
-0.011241,0.010031,0.009802,0.0024916,-0.0021459,0.0070759,-0.0091179,-0.0054715,-0.0040659,0.026827,0.023074,-0.0076668,0.010948,0.017386,0.049243,-0.041662,-0.0031598,0.014274,0.021939,0.060714,-0.00080449,0.015189,-0.0044105,0.034448
-0.012779,0.01016,0.008991,0.006887,0.0011942,0.011399,-0.0057415,-0.0089922,-0.0053134,0.018877,0.019114,-0.0087456,0.01044,0.017525,0.050172,-0.035322,-0.0055224,0.017161,0.017792,0.06541,-0.0049621,0.015945,-0.0017651,0.026395
-0.010614,0.0070794,0.0092192,0.0063987,0.0031541,0.013104,-0.002349,-0.012672,-0.0042521,0.0091749,0.016846,-0.0083095,0.01154,0.021666,0.045295,-0.025582,-0.0084199,0.018736,0.01592,0.06763,-0.0070563,0.01496,0.0024704,0.020658
-0.0079302,0.0032105,0.0099157,0.0038595,0.0032919,0.013508,-0.0010113,-0.01537,-0.00055377,0.003938,0.01658,-0.0050761,0.013154,0.02744,0.037144,-0.014915,-0.0091315,0.018166,0.015626,0.068277,-0.0048975,0.013191,0.0045023,0.018772
-0.0070371,0.0019715,0.0098379,0.0019867,0.0027169,0.014983,-0.0017205,-0.01622,0.0038809,0.0056742,0.016974,-0.00041183,0.013274,0.031445,0.028595,-0.0060121,-0.006903,0.017499,0.016535,0.069017,-0.00029373,0.01278,0.0028497,0.019996
-0.0075294,0.0053832,0.0082681,0.0018514,0.0023716,0.018694,-0.0027488,-0.014759,0.0062765,0.011825,0.016232,0.0029653,0.010942,0.031721,0.021047,-0.00070188,-0.0033519,0.01969,0.018882,0.070483,0.002493,0.015165,-0.00038311,0.02204
-0.0072719,0.012665,0.005827,0.0030687,0.0018947,0.023352,-0.002499,-0.011281,0.0051905,0.017361,0.013725,0.0031934,0.0071759,0.029041,0.013997,0.00084017,-0.00063549,0.025381,0.022446,0.071724,0.00056731,0.019768,-0.0015519,0.022958
-0.0048626,0.020659,0.0041406,0.0048085,0.00017713,0.026232,-0.00090352,-0.0069279,0.0016597,0.019019,0.010646,0.00069216,0.0040258,0.026033,0.0062418,2.6811e-006,0.00075036,0.031549,0.025811,0.071104,-0.0049531,0.024266,0.0011031,0.022506
-0.0011018,0.025677,0.004653,0.0064557,-0.0030858,0.02558,0.0009119,-0.003173,-0.0016706,0.017654,0.0091531,-0.0021932,0.0027396,0.024933,-0.0024402,-0.0012659,0.0022862,0.033609,0.027237,0.067587,-0.0097864,0.02616,0.0058256,0.021831
0.0017751,0.025607,0.0075953,0.0076005,-0.0065277,0.022185,0.0021338,-0.00099764,-0.002642,0.016933,0.010687,-0.0029788,0.002847,0.025835,-0.010599,-0.0017501,0.0054584,0.029377,0.026403,0.061297,-0.0099831,0.024417,0.0089771,0.022009
0.0021834,0.021099,0.011891,0.0078481,-0.0079055,0.018647,0.0032448,-0.00045552,-0.00111,0.019754,0.01479,-0.00086954,0.0029571,0.026789,-0.016027,-0.0016588,0.0094874,0.021265,0.024984,0.053163,-0.0049894,0.020084,0.0083917,0.022921
0.00058987,0.015226,0.015946,0.0069262,-0.0059093,0.017105,0.005454,-0.00091284,0.0013228,0.025615,0.019353,0.0027659,0.0023308,0.025489,-0.017518,-0.0022523,0.011276,0.014509,0.025054,0.044293,0.0021657,0.015613,0.0053795,0.023444
-0.00097687,0.011806,0.018672,0.0050317,-0.0013626,0.017605,0.0092046,-0.0015649,0.0029954,0.031128,0.022136,0.0055885,0.0015676,0.02108,-0.015976,-0.0047485,0.0080585,0.012864,0.026692,0.035679,0.0073347,0.013448,0.0035862,0.022514
-0.00075834,0.013265,0.02009,0.0029969,0.0032992,0.018545,0.013353,-0.0016862,0.0037094,0.032984,0.022448,0.0061268,0.0017224,0.014733,-0.013906,-0.0093615,0.00046277,0.015643,0.027362,0.028198,0.0080337,0.014742,0.0057682,0.019828
0.0012171,0.01923,0.021256,0.0020084,0.005882,0.018506,0.015962,-0.00060786,0.0046922,0.030619,0.021682,0.0047462,0.0028096,0.0087595,-0.013675,-0.015122,-0.0071089,0.018807,0.024086,0.022502,0.0044349,0.018826,0.011356,0.015532
0.0032013,0.026716,0.023539,0.003005,0.0060625,0.017504,0.016044,0.0021024,0.0070681,0.026305,0.022247,0.0030571,0.0033188,0.0051053,-0.015908,-0.020466,-0.0096303,0.018983,0.016608,0.018696,-0.0015843,0.023642,0.016915,0.0095966
0.0032445,0.031868,0.027586,0.0061141,0.0054152,0.016489,0.014592,0.0060501,0.010319,0.022923,0.02561,0.0024687,0.0014097,0.0042746,-0.019232,-0.024071,-0.0056863,0.016576,0.0084878,0.01616,-0.0078974,0.02692,0.019033,0.0019778
0.00084761,0.032232,0.032551,0.010454,0.0058255,0.015916,0.013827,0.0095867,0.0123,0.021711,0.030965,0.0032553,-0.0032008,0.0052237,-0.021432,-0.025466,0.00096442,0.015045,0.0047549,0.013887,-0.012813,0.027519,0.017129,-0.0063462
-0.0026157,0.028124,0.036286,0.014441,0.0076991,0.01515,0.015232,0.010422,0.010973,0.02198,0.035627,0.0048221,-0.0084229,0.0061487,-0.021003,-0.025248,0.0041452,0.017182,0.0079496,0.011187,-0.015043,0.026104,0.013812,-0.012807
-0.0050292,0.022209,0.036689,0.01653,0.0096101,0.013459,0.018109,0.0073818,0.0063901,0.022648,0.036952,0.0066049,-0.010974,0.0056743,-0.017946,-0.024888,0.00023073,0.022104,0.015978,0.0081388,-0.013847,0.02455,0.012638,-0.014455
-0.0052705,0.017653,0.033414,0.016067,0.0097865,0.011444,0.020045,0.0020993,0.0010611,0.023621,0.034296,0.0085255,-0.0087557,0.0037785,-0.01347,-0.02605,-0.0087939,0.025897,0.023734,0.0053747,-0.0096884,0.024334,0.015239,-0.010444
-0.0040972,0.016155,0.028504,0.01376,0.0081227,0.011111,0.01899,-0.0010545,-0.0017892,0.025525,0.029511,0.010616,-0.0025486,0.0018467,-0.0091398,-0.029498,-0.016762,0.025286,0.027168,0.0034781,-0.0046243,0.025145,0.020233,-0.0034945
-0.0033898,0.017215,0.025135,0.011366,0.0067632,0.014177,0.015175,0.0025552,-0.00069928,0.028279,0.025577,0.012454,0.0043715,0.0016838,-0.0062182,-0.034132,-0.018066,0.020705,0.026382,0.0026264,-0.0014499,0.025039,0.024605,0.0015841
-0.0043198,0.019029,0.025247,0.010639,0.0084389,0.020113,0.011185,0.014346,0.0029185,0.030441,0.024483,0.013252,0.0084332,0.004075,-0.0054334,-0.037042,-0.01187,0.015845,0.025237,0.0027901,-0.0017966,0.022283,0.026197,0.0015982
-0.0060028,0.020138,0.028006,0.012173,0.013797,0.025947,0.010023,0.030679,0.005997,0.030398,0.025928,0.012616,0.0081171,0.0080254,-0.0068617,-0.035013,-0.0025415,0.014185,0.027912,0.0041,-0.0047243,0.017409,0.025141,-0.0022749
-0.0059456,0.020506,0.030483,0.015014,0.02012,0.028292,0.012772,0.044477,0.0063363,0.028283,0.027735,0.011172,0.0047258,0.011459,-0.009691,-0.026707,0.0037608,0.015925,0.035385,0.0067935,-0.0072854,0.013405,0.023221,-0.0054052
-0.0021477,0.021224,0.030032,0.017432,0.022895,0.02599,0.017745,0.049601,0.0043119,0.02639,0.027508,0.010278,0.0011477,0.01295,-0.012126,-0.013889,0.0034723,0.018233,0.044683,0.010703,-0.0068788,0.013478,0.022041,-0.0037795
0.0048052,0.023263,0.026315,0.018332,0.019275,0.021138,0.021773,0.044947,0.0023984,0.027203,0.024259,0.010997,-0.0002954,0.012994,-0.011954,-0.0005115,-0.0022845,0.018339,0.051353,0.014911,-0.003474,0.018095,0.021757,0.002355
0.011573,0.026423,0.021336,0.018168,0.010658,0.017574,0.022505,0.035149,0.0029953,0.03075,0.01892,0.013267,0.00073038,0.013548,-0.0078264,0.0098613,-0.0090685,0.016288,0.052913,0.018124,0.00028265,0.024052,0.0214,0.0086342
0.014279,0.029373,0.017676,0.018543,0.0020602,0.018013,0.019875,0.027276,0.0063988,0.03405,0.013564,0.016022,0.0027922,0.016085,-0.00049722,0.016363,-0.012472,0.014662,0.050379,0.019488,0.0012702,0.02677,0.02021,0.010425
0.011523,0.030697,0.016632,0.020787,-0.0014918,0.022031,0.015747,0.025991,0.010546,0.033628,0.010059,0.018147,0.0041278,0.019918,0.0071092,0.021019,-0.010849,0.015714,0.046745,0.018922,-0.0014527,0.024125,0.018507,0.0068777
0.0056775,0.029979,0.017712,0.024736,0.0012424,0.02638,0.012274,0.030873,0.012665,0.028996,0.009133,0.019433,0.0040224,0.022518,0.011431,0.026688,-0.0057551,0.018938,0.043916,0.016489,-0.0058272,0.018454,0.017249,0.00155
0.0012253,0.028017,0.019496,0.0288,0.0068501,0.027367,0.01043,0.037776,0.011466,0.023715,0.01035,0.020717,0.0030765,0.021772,0.010604,0.034451,-0.00030086,0.021531,0.040914,0.011506,-0.0084956,0.014791,0.016815,-0.00077847
0.0013259,0.026037,0.020761,0.031272,0.010103,0.023547,0.0097527,0.042735,0.0081646,0.022652,0.012743,0.023153,0.0023542,0.018212,0.0059661,0.042596,0.003027,0.021226,0.034981,0.0027294,-0.0075296,0.016636,0.016372,0.0019165
0.0053819,0.024644,0.020977,0.031669,0.008202,0.016838,0.0092228,0.04496,0.0055668,0.02761,0.015408,0.02719,0.0023377,0.015017,0.0015425,0.047981,0.00357,0.0186,0.024615,-0.0099943,-0.0038509,0.022851,0.014576,0.0075929
0.0096234,0.023432,0.020218,0.030882,0.0029247,0.011274,0.0082831,0.046545,0.0059048,0.035266,0.017588,0.03203,0.0026773,0.015503,0.0016608,0.048553,0.0022576,0.016507,0.011827,-0.023946,-0.00021539,0.028401,0.010971,0.012235
0.010214,0.021563,0.018972,0.030084,-0.0010737,0.010251,0.0071279,0.04964,0.0090762,0.039496,0.018391,0.036,0.0028742,0.020175,0.0082369,0.04492,0.00054574,0.017183,0.0014837,-0.033741,0.0012162,0.028396,0.0066743,0.013063
0.0062885,0.018783,0.018005,0.029541,-0.00031149,0.014181,0.0062126,0.054015,0.012644,0.036289,0.016776,0.037647,0.0030702,0.02599,0.019513,0.039703,-0.0005015,0.019844,-0.001917,-0.034266,0.00053774,0.022098,0.0035625,0.010062
0.00046081,0.015972,0.017998,0.028603,0.0045681,0.020243,0.0056657,0.057318,0.013654,0.027088,0.012142,0.036874,0.0039948,0.028722,0.031064,0.035401,-0.00049254,0.021162,0.0025005,-0.024489,-0.00037798,0.013603,0.0026842,0.0050711
-0.003435,0.014659,0.018939,0.026871,0.0093982,0.024435,0.0052489,0.057524,0.010905,0.017704,0.0051834,0.035311,0.0060178,0.02651,0.038375,0.032663,0.00043764,0.018245,0.011291,-0.0089476,0.00015586,0.0087068,0.0034026,-3.5501e-005
-0.003357,0.015826,0.019804,0.025304,0.010041,0.024477,0.0048215,0.054964,0.0058806,0.013735,-0.0018648,0.035463,0.0083068,0.021564,0.039336,0.030418,0.001752,0.01143,0.019012,0.0048391,0.0021256,0.010522,0.0041261,-0.0042814
-0.00036533,0.01892,0.019135,0.025949,0.0058157,0.021413,0.0046741,0.051923,0.001539,0.016356,-0.006153,0.03902,0.0091723,0.018468,0.035108,0.027487,0.0025293,0.0043466,0.021666,0.011474,0.004099,0.017303,0.0039207,-0.0073198
0.0025803,0.021943,0.016248,0.030294,-5.5521e-005,0.018695,0.0052429,0.050374,-5.9808e-005,0.021865,-0.0058637,0.045467,0.0075597,0.020419,0.02896,0.024008,0.0017241,0.0011901,0.018717,0.011395,0.0048157,0.02402,0.0034279,-0.0090041
0.0030586,0.022671,0.011994,0.037683,-0.0032316,0.019448,0.0064615,0.050298,0.00068619,0.025076,-0.0013847,0.052137,0.0043674,0.026566,0.023954,0.021318,-0.0011082,0.0035497,0.012582,0.01016,0.0043698,0.026259,0.004197,-0.0095904
0.0008129,0.020147,0.0082357,0.045308,-0.0017799,0.024029,0.0075253,0.050246,0.0015232,0.023478,0.0049581,0.055907,0.0021629,0.03265,0.021106,0.02055,-0.0050651,0.0093982,0.0065817,0.013793,0.0038406,0.023345,0.0071029,-0.010134
-0.0024952,0.015314,0.0064081,0.049908,0.0025021,0.029794,0.007505,0.049328,0.00054821,0.018715,0.010446,0.055396,0.003228,0.034401,0.019249,0.021509,-0.0080042,0.014854,0.0030927,0.023902,0.003922,0.018398,0.011381,-0.012092
-0.0048262,0.010318,0.006483,0.049822,0.0058747,0.033214,0.0063092,0.048235,-0.0019971,0.014506,0.013585,0.051915,0.0074803,0.03085,0.016577,0.023,-0.0078797,0.017015,0.0028801,0.036449,0.0041415,0.015561,0.015152,-0.016021
-0.0051584,0.007048,0.0072561,0.045757,0.0057834,0.032606,0.0049624,0.04808,-0.0040011,0.013158,0.014584,0.048299,0.012146,0.024893,0.012553,0.024183,-0.0044953,0.015542,0.0052736,0.045031,0.0035648,0.016708,0.016845,-0.020569
-0.0037491,0.0060559,0.0075369,0.039885,0.0026031,0.02926,0.0047207,0.048412,-0.0035432,0.013763,0.014477,0.046503,0.013659,0.020807,0.0085718,0.025398,-0.00013349,0.012059,0.0085278,0.045884,0.0022216,0.020187,0.016191,-0.023028
-0.001409,0.006586,0.0069853,0.034331,-0.0012504,0.026113,0.0057405,0.046917,-0.00075927,0.013416,0.013855,0.045969,0.010359,0.020933,0.0067758,0.027413,0.0018172,0.0084139,0.010321,0.040622,0.0016161,0.022352,0.014069,-0.021385
0.0012909,0.0074522,0.0058998,0.030345,-0.0036922,0.02514,0.0066433,0.041608,0.0022662,0.010067,0.01237,0.044227,0.003793,0.024249,0.0080829,0.029811,-0.0005738,0.0055265,0.0087916,0.034731,0.0035551,0.020504,0.01164,-0.016179
0.0041141,0.007863,0.0045164,0.028476,-0.0045441,0.02569,0.0056128,0.033459,0.0034172,0.0044155,0.0094242,0.039258,-0.0024168,0.027741,0.011206,0.030312,-0.006063,0.0035951,0.0039457,0.033299,0.0082806,0.014948,0.0097076,-0.010428
0.0066244,0.0075455,0.0028435,0.028945,-0.0050612,0.025144,0.0022007,0.026486,0.002349,-0.00061462,0.0052821,0.031585,-0.0052302,0.029116,0.013641,0.02614,-0.010923,0.0029007,-0.0017298,0.037418,0.01374,0.0087445,0.008623,-0.0074624
0.0077982,0.0063368,0.0012134,0.03146,-0.0061964,0.021295,-0.0018,0.024584,0.00046708,-0.0020785,0.0014385,0.024219,-0.0042394,0.02841,0.01381,0.016543,-0.01166,0.0039943,-0.0045431,0.043844,0.016856,0.0055443,0.0083857,-0.0083955
0.0064907,0.0039379,0.00064349,0.034725,-0.0074685,0.014431,-0.0033648,0.027765,-0.0006883,0.001056,-0.00031394,0.020411,-0.0015809,0.02731,0.012463,0.0042977,-0.0076289,0.0069627,-0.002339,0.047763,0.015763,0.0071792,0.0085542,-0.011366
0.002596,0.00025585,0.0021739,0.036625,-0.0075096,0.0073595,-0.00045959,0.031438,-0.00081002,0.0075633,0.00055031,0.021019,2.6881e-005,0.027152,0.012064,-0.0053666,-0.001434,0.010702,0.0034344,0.046246,0.01102,0.012637,0.0082255,-0.013193
-0.0021634,-0.003994,0.0056123,0.035492,-0.0056161,0.0034091,0.0062844,0.029825,-0.00053884,0.014986,0.0024989,0.023618,-0.00062041,0.027634,0.01469,-0.0078386,0.0031718,0.013292,0.0084142,0.039846,0.0047915,0.018891,0.0065655,-0.012025
-0.0048931,-0.0071889,0.0090921,0.031541,-0.002675,0.0040542,0.013799,0.020752,-9.1943e-005,0.020924,0.0028774,0.024017,-0.002673,0.027407,0.020287,-0.0019527,0.0041099,0.013437,0.0086546,0.031596,-0.001066,0.02281,0.0037535,-0.0087292
-0.0035625,-0.0076081,0.010262,0.02697,-0.0005345,0.0080707,0.018559,0.0076424,0.0013515,0.023813,8.6445e-005,0.018951,-0.0044506,0.025761,0.026769,0.0095098,0.0022342,0.011689,0.0039904,0.024684,-0.0060631,0.022858,0.001396,-0.0059021
0.0010751,-0.0046867,0.0082425,0.024267,-0.00045569,0.012733,0.018833,-0.0030827,0.0045734,0.023189,-0.0047623,0.0080387,-0.0050856,0.023564,0.031755,0.021887,0.0001718,0.010169,-0.001547,0.020764,-0.010355,0.019668,0.0016115,-0.0054715
0.005499,0.00031504,0.0045117,0.024025,-0.0021261,0.015852,0.015628,-0.0069641,0.0087314,0.019719,-0.0083627,-0.0060925,-0.0050025,0.022449,0.034348,0.031612,-4.27e-005,0.010836,-0.0028693,0.019833,-0.013292,0.01538,0.0052152,-0.0070325
0.0058134,0.0049335,0.0017896,0.024231,-0.0040837,0.016876,0.011781,-0.0046226,0.011329,0.014972,-0.0078439,-0.019194,-0.0049311,0.023082,0.035428,0.037993,0.00155,0.013762,0.0019775,0.02109,-0.013156,0.012313,0.010573,-0.0083261
0.00084749,0.0070913,0.0018613,0.021795,-0.0050198,0.016339,0.0099602,-0.00062013,0.010275,0.010719,-0.0034509,-0.027261,-0.0046812,0.024354,0.036374,0.042806,0.0033381,0.016997,0.010104,0.023598,-0.0087516,0.011779,0.014404,-0.0073071
-0.0066322,0.0064609,0.004266,0.015069,-0.0047086,0.014535,0.01099,0.00059969,0.0061461,0.0079859,0.001219,-0.028074,-0.0031587,0.024434,0.037528,0.048403,0.0038935,0.018163,0.016012,0.026287,-0.0013166,0.013612,0.014169,-0.0038743
-0.011856,0.0045046,0.0068708,0.0052201,-0.0038587,0.011019,0.013571,-0.0019384,0.0021863,0.0065671,0.0020278,-0.022081,0.00023767,0.022642,0.037853,0.055884,0.0032317,0.016375,0.01586,0.02785,0.0054441,0.016542,0.010148,0.00024024
-0.011738,0.0031577,0.0076001,-0.0045935,-0.0032871,0.0055702,0.015451,-0.0057054,0.0016462,0.0055301,-0.0020389,-0.012401,0.0042995,0.02019,0.036019,0.064514,0.0024839,0.012818,0.010198,0.027225,0.007771,0.01904,0.0054341,0.0031576
-0.0072446,0.0032747,0.0057424,-0.011394,-0.0033184,-0.00041144,0.015187,-0.0074568,0.0048492,0.0043131,-0.0076851,-0.0036411,0.0063756,0.018914,0.031865,0.072437,0.0024812,0.0095524,0.0030685,0.024479,0.0047656,0.020079,0.0037682,0.0044569
-0.002384,0.0041514,0.0019935,-0.014076,-0.0038423,-0.0038481,0.013227,-0.0061031,0.0088566,0.0033422,-0.010001,0.0003236,0.0044367,0.019248,0.026839,0.077925,0.0027713,0.0077539,-0.0014135,0.021085,-0.0008633,0.019406,0.0068905,0.0052899
-0.00064049,0.0044598,-0.0022989,-0.013494,-0.0046885,-0.0019305,0.01155,-0.0033095,0.010176,0.0034852,-0.0069022,-0.0014405,-0.00096261,0.019598,0.023083,0.080293,0.0021078,0.0069561,-0.0019239,0.018949,-0.0049807,0.017353,0.013397,0.0071357
-0.0020179,0.0036705,-0.0057326,-0.01132,-0.005774,0.0053046,0.012133,-0.0017653,0.0079556,0.0048801,-0.0012574,-0.0063081,-0.0067605,0.017916,0.022015,0.080213,-3.6216e-005,0.0058537,-4.0328e-005,0.018803,-0.0051723,0.014536,0.019813,0.010549
-0.0033385,0.0026375,-0.0069735,-0.0088738,-0.0069171,0.014168,0.015397,-0.0029749,0.0045769,0.0064446,0.0015244,-0.0098194,-0.0096305,0.013971,0.023686,0.079531,-0.0024719,0.0037463,0.0019059,0.019458,-0.0020764,0.011678,0.022934,0.015009
-0.0014868,0.0028457,-0.0049004,-0.0067332,-0.007693,0.019495,0.019842,-0.0064117,0.0031263,0.0067823,-0.0014897,-0.0087391,-0.0084634,0.0098873,0.027317,0.080731,-0.0029843,0.0012535,0.0028801,0.018769,0.0019957,0.0094926,0.021766,0.019657
0.0034536,0.005049,0.00075948,-0.004999,-0.0076359,0.018419,0.023158,-0.010352,0.0042828,0.0057292,-0.0077698,-0.0032281,-0.0049032,0.0081719,0.032268,0.085965,-0.00031702,-0.00023392,0.0033181,0.015566,0.0054195,0.0084191,0.017881,0.023891
0.008147,0.0085251,0.0086415,-0.0036166,-0.0066352,0.012706,0.023907,-0.013314,0.0057239,0.0049386,-0.011395,0.0035064,-0.0015731,0.0090444,0.038372,0.095788,0.0043038,0.00029939,0.0037988,0.010822,0.0081555,0.0082648,0.01419,0.027204
0.0091138,0.011555,0.015747,-0.0024456,-0.0050972,0.0075093,0.022431,-0.014887,0.0046032,0.0066557,-0.0085387,0.0077029,0.00023458,0.0098459,0.045338,0.10824,0.0076821,0.0028279,0.0040243,0.0069921,0.010543,0.0081429,0.013023,0.028816
0.0060622,0.012672,0.018774,-0.0012713,-0.003699,0.0073529,0.020324,-0.015624,0.00058085,0.01158,-0.0012931,0.0076114,0.0012495,0.0074594,0.052025,0.11924,0.0070535,0.0065433,0.0032986,0.0061504,0.011673,0.0070247,0.014725,0.027962
0.0022472,0.011677,0.016149,-1.9438e-005,-0.003017,0.012548,0.019079,-0.016436,-0.0036594,0.01776,0.0039281,0.0041928,0.0028309,0.0016673,0.056618,0.1245,0.0024339,0.010557,0.0018623,0.0085223,0.009456,0.0046504,0.017576,0.024841
0.0014482,0.0097042,0.0093189,0.00095185,-0.0034232,0.018991,0.019106,-0.017978,-0.0049575,0.021729,0.0021941,-0.00023469,0.0050824,-0.0038387,0.05778,0.12199,-0.0031908,0.014267,0.0013955,0.012508,0.0025989,0.0020396,0.019064,0.021138
0.004364,0.0083865,0.0021347,0.0008841,-0.0052398,0.021481,0.019821,-0.020119,-0.0027721,0.021108,-0.0052341,-0.0038809,0.0064783,-0.0041423,0.055733,0.11309,-0.0061367,0.017138,0.0038141,0.015841,-0.0074068,0.0010034,0.017694,0.019193
0.0078109,0.0087299,-0.0014632,-0.00086082,-0.0087125,0.017773,0.020464,-0.021549,0.00027353,0.016545,-0.011721,-0.0062521,0.0054257,0.0026004,0.052088,0.10149,-0.0048599,0.01834,0.0092829,0.016758,-0.016466,0.0028628,0.014135,0.020249
0.0075339,0.010442,2.8074e-005,-0.0041568,-0.013511,0.010108,0.020735,-0.019934,0.00099542,0.011291,-0.010961,-0.0075285,0.0021988,0.013049,0.048419,0.090557,-0.00091577,0.016918,0.015338,0.014507,-0.020413,0.0073141,0.010818,0.02334
0.0021188,0.012179,0.004747,-0.0079315,-0.018148,0.0031826,0.020782,-0.0131,-0.0011199,0.0087047,-0.002387,-0.0076576,-0.00077449,0.020826,0.044875,0.081432,0.0027049,0.012591,0.018186,0.0094598,-0.017865,0.012357,0.010198,0.025998
-0.0055061,0.012591,0.0088891,-0.010664,-0.020179,0.00049685,0.020862,-0.00096376,-0.0032589,0.0097231,0.0085879,-0.0062953,-0.00076646,0.021287,0.040211,0.073167,0.0042162,0.006582,0.015398,0.0032208,-0.011001,0.015411,0.012898,0.026246
-0.01031,0.011443,0.0095159,-0.011199,-0.017597,0.0021045,0.02119,0.013241,-0.0019385,0.012373,0.015575,-0.0035232,0.002823,0.014938,0.033274,0.06468,0.004203,0.0015575,0.007931,-0.0014967,-0.0036911,0.014863,0.017172,0.024154
-0.0091755,0.009882,0.0066748,-0.0092966,-0.010612,0.0052925,0.02203,0.024018,0.00351,0.013645,0.016747,-0.00025985,0.0076961,0.0066964,0.024537,0.056452,0.0043888,0.00034651,-0.00014716,-0.001956,0.0013176,0.011003,0.020191,0.021657
-0.0032517,0.0094904,0.00319,-0.0056567,-0.0022648,0.0071664,0.023654,0.02693,0.0099675,0.012093,0.015908,0.0023857,0.010378,0.0018278,0.016129,0.050353,0.0054381,0.0040785,-0.0041644,0.0026228,0.0037816,0.0057799,0.020175,0.020988
0.0032087,0.010853,0.0022931,-0.0015475,0.0031297,0.0067809,0.02593,0.021924,0.013038,0.0089591,0.01836,0.0042482,0.0090352,0.002166,0.010289,0.04781,0.0061073,0.011074,-0.001829,0.0096644,0.0050051,0.0016052,0.017628,0.023178
0.0063555,0.012953,0.0050376,0.0017283,0.002891,0.0052738,0.027988,0.013739,0.010735,0.0069447,0.025583,0.0063582,0.0049573,0.0056685,0.0076909,0.0481,0.0046336,0.01752,0.0054003,0.014245,0.0058099,-6.7688e-006,0.01462,0.027715
0.005544,0.014051,0.0096373,0.0034272,-0.0019368,0.0043881,0.028531,0.008587,0.0049834,0.0078025,0.033577,0.0096917,0.0013412,0.0091531,0.0072332,0.048426,0.00095215,0.019736,0.013449,0.012586,0.0055676,0.00086615,0.012752,0.033199
0.0032338,0.013279,0.013191,0.0038588,-0.0071739,0.0049765,0.026766,0.0095778,-0.00025148,0.010876,0.036201,0.013454,0.00038119,0.011256,0.0073712,0.045727,-0.0025828,0.016599,0.018333,0.0055291,0.0032361,0.0028739,0.011694,0.038077
0.0023627,0.011381,0.014153,0.0043746,-0.0085699,0.0066877,0.023113,0.014782,-0.0022959,0.013818,0.030304,0.014767,0.0011871,0.012837,0.0075466,0.038603,-0.0029186,0.01033,0.018441,-0.0013118,-0.00076765,0.004445,0.0097487,0.040943
0.0036347,0.0098657,0.013314,0.0065072,-0.0050486,0.0087105,0.018911,0.01964,-0.0014838,0.014746,0.018158,0.010555,0.0004252,0.014865,0.0082288,0.027754,0.00094167,0.0049469,0.014894,-0.0016049,-0.0040029,0.004843,0.0059684,0.040693
0.005021,0.0094773,0.012585,0.010621,0.00048879,0.010557,0.015299,0.021461,-4.1688e-005,0.013825,0.005429,0.00036167,-0.0047465,0.016361,0.0096159,0.014739,0.006666,0.0033918,0.010098,0.0064065,-0.0037298,0.0045343,0.0017317,0.037006
0.0037597,0.0096357,0.012952,0.015218,0.0035581,0.012117,0.012422,0.021774,0.00034158,0.012867,-0.003096,-0.012349,-0.013901,0.014808,0.010527,0.00036514,0.010094,0.0054437,0.0059363,0.017979,0.00042306,0.0046597,-7.2434e-006,0.030941
-0.00096199,0.0094133,0.013695,0.017849,0.0018402,0.013166,0.0098148,0.024328,-0.00019949,0.013383,-0.0062761,-0.02176,-0.023131,0.0087902,0.0088864,-0.015838,0.0083667,0.0080326,0.0030823,0.025366,0.0054388,0.0060416,0.0025981,0.024866
-0.006934,0.0088919,0.013493,0.017209,-0.002756,0.013108,0.007594,0.030836,-0.000475,0.014984,-0.0060047,-0.023156,-0.02772,0.00019782,0.0035353,-0.034694,0.0020782,0.0077459,0.001597,0.024016,0.0069089,0.0084927,0.0081217,0.021241
-0.010361,0.0092633,0.012094,0.014611,-0.0054841,0.01144,0.007069,0.038758,0.0001984,0.015665,-0.0045622,-0.015688,-0.025639,-0.0064561,-0.0043852,-0.055945,-0.0053184,0.003553,0.0017074,0.016169,0.0026424,0.010948,0.012499,0.020891
-0.0086978,0.011428,0.010722,0.013257,-0.0025932,0.0085529,0.009856,0.043393,0.0014263,0.01371,-0.0027037,-0.0025103,-0.019134,-0.0073549,-0.011974,-0.07758,-0.010273,-0.0024447,0.0036636,0.0087542,-0.0052565,0.012287,0.012259,0.022157
-0.0027124,0.014606,0.010807,0.015645,0.0054554,0.0059717,0.016121,0.042212,0.0025294,0.0093965,5.4027e-005,0.011529,-0.013222,-0.0025115,-0.016708,-0.096532,-0.01169,-0.0068374,0.0068158,0.0075206,-0.011864,0.012154,0.0076063,0.021867
0.0037761,0.016627,0.012426,0.021326,0.014038,0.0055478,0.023677,0.037092,0.0034932,0.0048584,0.0038579,0.022697,-0.012292,0.0041289,-0.01829,-0.1103,-0.011191,-0.0077337,0.0092134,0.012591,-0.01333,0.011096,0.0025,0.017598
0.0063492,0.015838,0.014101,0.027116,0.017726,0.0080949,0.02909,0.032256,0.0048635,0.0022311,0.0076278,0.029758,-0.017319,0.0078436,-0.018568,-0.11841,-0.011086,-0.0061513,0.0087195,0.019078,-0.0098018,0.0099505,0.0014579,0.0095213
0.0029754,0.012779,0.014169,0.029688,0.014293,0.012605,0.0301,0.030075,0.006786,0.0018432,0.0097785,0.033472,-0.025549,0.0068903,-0.019755,-0.12278,-0.011994,-0.0047727,0.0049985,0.02176,-0.0048063,0.0090767,0.0058199,0.00032509
-0.0044733,0.0098364,0.012336,0.028304,0.0061864,0.016819,0.027338,0.028991,0.0084778,0.0021786,0.0096812,0.03517,-0.032573,0.0036575,-0.022729,-0.12663,-0.012308,-0.0052184,0.00044609,0.019424,-0.0018252,0.0081798,0.012736,-0.0067637
-0.011229,0.0090945,0.0099092,0.025296,-0.0015796,0.018831,0.023795,0.025632,0.0089139,0.0016102,0.0082869,0.035675,-0.035128,0.0022683,-0.02695,-0.13258,-0.0099311,-0.0063692,-0.0012694,0.01532,-0.0013246,0.0069121,0.017723,-0.010255
-0.0126,0.010457,0.0085979,0.024,-0.0052196,0.018478,0.022421,0.01885,0.0080122,0.00018085,0.0072691,0.035115,-0.032755,0.0047869,-0.031736,-0.14111,-0.0046816,-0.0053573,0.0018189,0.013941,-0.00096225,0.0056329,0.018439,-0.011149
-0.0070637,0.011897,0.0091412,0.026037,-0.0044803,0.01742,0.023888,0.011458,0.0068818,-0.00036437,0.007531,0.033338,-0.027494,0.0093655,-0.0372,-0.15028,0.00091141,-0.000397,0.0080552,0.017306,0.0014573,0.0054644,0.016337,-0.011687
0.0025713,0.011582,0.011026,0.03022,-0.0018086,0.01783,0.026383,0.0077681,0.0066593,0.0016015,0.008469,0.030366,-0.022179,0.011917,-0.043603,-0.15692,0.0033204,0.0071619,0.013209,0.023697,0.0053421,0.0073965,0.014856,-0.013342
0.010816,0.0097471,0.013314,0.033765,0.00043528,0.02072,0.027466,0.0093528,0.0071081,0.0056456,0.0085959,0.026588,-0.018637,0.009769,-0.04981,-0.1583,0.00093332,0.013571,0.013799,0.029217,0.0076568,0.011178,0.015978,-0.015803
0.013019,0.0084069,0.015503,0.034525,0.0019686,0.025149,0.026238,0.013298,0.0066322,0.0091691,0.0068715,0.022694,-0.016905,0.0040217,-0.052799,-0.15311,-0.0042976,0.015683,0.0098417,0.030407,0.0059396,0.015114,0.018375,-0.017642
0.008413,0.0091925,0.017532,0.03233,0.0040987,0.028871,0.023886,0.014827,0.003982,0.0094363,0.0035703,0.01947,-0.015716,-0.0014576,-0.049392,-0.14136,-0.0080295,0.013554,0.00462,0.026042,0.0010425,0.017154,0.018811,-0.017746
0.00052524,0.011523,0.01914,0.028612,0.0075972,0.029852,0.022291,0.011806,4.1468e-005,0.0060169,5.9805e-005,0.017539,-0.013737,-0.0034424,-0.039034,-0.124,-0.0068002,0.010263,0.0017552,0.017448,-0.0031357,0.016434,0.015475,-0.016061
-0.0054068,0.013069,0.019585,0.024989,0.011286,0.02758,0.022162,0.0067355,-0.0022976,0.0014215,-0.0021685,0.017118,-0.01062,-0.002063,-0.025042,-0.10273,-0.00086649,0.009125,0.0022586,0.0076785,-0.0028279,0.013864,0.010166,-0.013122
-0.0061641,0.012216,0.018275,0.02216,0.012807,0.023294,0.022509,0.0042387,-0.00045404,-0.0007594,-0.0023904,0.017917,-0.0072263,-0.00042595,-0.012758,-0.080182,0.005735,0.01087,0.0041266,6.134e-005,0.0023287,0.011212,0.0072337,-0.009225
-0.0026181,0.010138,0.015728,0.019856,0.010781,0.019098,0.021811,0.0064739,0.0052838,0.0012973,-0.00090412,0.019226,-0.0049547,-0.0015474,-0.0058386,-0.059415,0.0081521,0.013354,0.0046005,-0.0033893,0.0088597,0.0095517,0.010061,-0.0043632
0.0014104,0.010256,0.013703,0.017517,0.0062324,0.016606,0.019565,0.010959,0.011422,0.0062195,0.0013259,0.020163,-0.004705,-0.0053966,-0.003748,-0.04239,0.0045234,0.013937,0.0028524,-0.0029468,0.012252,0.0085932,0.018075,0.00097583
0.0025043,0.015226,0.014009,0.014866,0.0018955,0.016001,0.016622,0.012942,0.013729,0.010625,0.003272,0.019972,-0.0061817,-0.0086868,-0.0026234,-0.028438,-0.0023717,0.012164,0.00070033,-0.00074495,0.010546,0.0075087,0.026872,0.005281
0.00039223,0.024058,0.016893,0.01196,9.8195e-005,0.01605,0.01407,0.0099909,0.010511,0.011874,0.0043607,0.018256,-0.0080229,-0.0075987,0.0012063,-0.014423,-0.0070733,0.010191,0.00093295,0.0009921,0.0056793,0.006308,0.031447,0.0068024
-0.0022208,0.032098,0.020472,0.0089442,0.0011097,0.015065,0.011962,0.0042896,0.0038726,0.010054,0.0047185,0.015098,-0.0086916,-0.001098,0.0081015,0.0028395,-0.0056434,0.010643,0.0049132,0.0017542,0.0015784,0.0061859,0.029902,0.0052639
-0.0024764,0.034259,0.021907,0.005993,0.0032775,0.012185,0.0093327,0.00038682,-0.0020727,0.0075907,0.0050302,0.011009,-0.0075356,0.007931,0.015044,0.023592,0.0011483,0.014035,0.011497,0.0029657,0.00082513,0.0083265,0.024639,0.0027998
-0.00018989,0.028965,0.019506,0.0034336,0.0045931,0.0081544,0.005535,0.00066257,-0.0043832,0.0069552,0.0059918,0.0066813,-0.0052288,0.01464,0.018575,0.044287,0.0082693,0.018216,0.017918,0.0063174,0.0027789,0.012337,0.020222,0.0027548
0.0019907,0.019515,0.014067,0.0016778,0.0042219,0.0049654,0.0014786,0.003032,-0.003082,0.0084859,0.0076168,0.002649,-0.0031677,0.015668,0.018073,0.060012,0.010286,0.020269,0.02165,0.011752,0.0046079,0.016044,0.019808,0.0069455
0.0012545,0.011646,0.0083819,0.00076395,0.0028338,0.0044706,-0.0006548,0.003177,-0.00029555,0.010181,0.0089527,-0.0009134,-0.0022017,0.011421,0.016458,0.068331,0.0056421,0.019044,0.021768,0.017114,0.0040737,0.017132,0.023033,0.013735
-0.0024721,0.0092557,0.0053075,-7.6335e-005,0.0017366,0.0068774,0.00085352,-0.00093926,0.00201,0.0095831,0.0086658,-0.0040498,-0.0017561,0.0056141,0.017679,0.071115,-0.002086,0.016046,0.019071,0.019893,0.0015031,0.015178,0.026789,0.018948
-0.0063133,0.011788,0.0059178,-0.0021776,0.0016824,0.010315,0.005617,-0.0068317,0.0033748,0.0061266,0.0062769,-0.0066343,-0.0002741,0.0026353,0.023147,0.072601,-0.0069802,0.014019,0.015273,0.019399,-0.00071612,0.012109,0.027921,0.019221
-0.0072358,0.015287,0.0090738,-0.006454,0.0022272,0.012011,0.01114,-0.0098373,0.0042696,0.0019497,0.0030568,-0.008131,0.0031827,0.0048239,0.030233,0.075411,-0.0053918,0.014594,0.012001,0.01718,-0.00048442,0.010454,0.025528,0.014996
-0.0051031,0.016019,0.012518,-0.012442,0.0019891,0.010364,0.014523,-0.0077545,0.004736,0.0004298,0.0015425,-0.0078807,0.0075635,0.011506,0.034208,0.07828,0.001325,0.016992,0.010151,0.015289,0.0020289,0.010971,0.021243,0.010353
-0.0028356,0.013464,0.014456,-0.018318,-0.0003876,0.0062731,0.014423,-0.0031342,0.0040357,0.0035592,0.0036537,-0.0058467,0.010197,0.020092,0.032086,0.077719,0.0080511,0.018684,0.0097202,0.014225,0.0045217,0.011898,0.017621,0.0096076
-0.0033577,0.010278,0.014421,-0.022021,-0.0050871,0.0025541,0.011699,-0.00086234,0.0016867,0.010234,0.0087821,-0.0032049,0.0089926,0.028044,0.025196,0.072053,0.009961,0.017352,0.010073,0.012733,0.0045851,0.010626,0.016091,0.013599
-0.0063707,0.0095896,0.013046,-0.022614,-0.010509,0.0017184,0.0084168,-0.0033691,-0.0015174,0.016835,0.013657,-0.002059,0.0046941,0.034216,0.018296,0.063915,0.0060856,0.012676,0.010456,0.009716,0.0017485,0.006269,0.015996,0.019054
-0.0083913,0.012228,0.011274,-0.020781,-0.013813,0.0038933,0.0062883,-0.0082277,-0.0039584,0.019688,0.01457,-0.0041538,0.00095252,0.03891,0.015914,0.058653,-0.00031239,0.006769,0.010528,0.0061371,-0.0022175,0.00067304,0.01527,0.021698
-0.0062971,0.016232,0.0098511,-0.018167,-0.012609,0.0066247,0.0058647,-0.01058,-0.0048171,0.017542,0.010448,-0.0093663,0.0016639,0.043116,0.018901,0.059926,-0.0045276,0.0029849,0.010541,0.004675,-0.0048539,-0.0031332,0.012172,0.020273
-0.00091023,0.018722,0.0093234,-0.01624,-0.0068409,0.0067809,0.0068203,-0.0080168,-0.0050342,0.012225,0.0042062,-0.01521,0.0075786,0.047751,0.023967,0.066455,-0.0039144,0.0037699,0.010983,0.0071433,-0.0049258,-0.0036192,0.0067722,0.017753
0.0032212,0.018153,0.01014,-0.0156,0.0006486,0.0029929,0.0086395,-0.0030346,-0.0063099,0.0071357,0.00089626,-0.018045,0.015185,0.053332,0.026483,0.072879,0.00058151,0.0088266,0.011926,0.012232,-0.0030483,-0.0020077,0.0010807,0.01859
0.0020603,0.015004,0.01239,-0.016095,0.0056399,-0.003353,0.010876,-0.00054482,-0.0089934,0.0048273,0.0038694,-0.01541,0.019151,0.059926,0.024124,0.073908,0.0056728,0.014897,0.012672,0.016131,-0.00070041,-0.00093109,-0.0023754,0.024569
-0.0036199,0.01071,0.015306,-0.017339,0.0053181,-0.0092585,0.012901,-0.0028451,-0.011128,0.0054869,0.011991,-0.0079093,0.016507,0.067117,0.018347,0.068094,0.0083705,0.017635,0.012176,0.015843,0.001224,-0.0018547,-0.0025118,0.03309
-0.0083012,0.006324,0.017221,-0.01909,0.00026066,-0.012274,0.013721,-0.0070602,-0.00993,0.007181,0.020299,0.00078613,0.0090556,0.074019,0.012643,0.058033,0.0078508,0.014577,0.01006,0.012111,0.0029177,-0.0038417,-0.00062592,0.039431
-0.0065658,0.0022574,0.016438,-0.021235,-0.005994,-0.011885,0.012372,-0.0077092,-0.0045166,0.0073881,0.023663,0.0059729,0.0019029,0.079485,0.0093012,0.047162,0.0053915,0.0070969,0.0073662,0.0089136,0.0048926,-0.0048484,0.00054837,0.040806
0.0016054,-0.0009873,0.01257,-0.023588,-0.0095458,-0.0092674,0.0086632,-0.002031,0.0027307,0.0046119,0.020494,0.0047233,-0.00071577,0.082469,0.007532,0.036294,0.0028935,-0.00035432,0.0062371,0.0097057,0.0069251,-0.0041248,-0.0010009,0.03851
0.010201,-0.0023557,0.0072053,-0.025769,-0.0088797,-0.0060459,0.0035799,0.0070517,0.0075924,-0.00082365,0.013525,-0.0022943,0.0012268,0.082238,0.0044209,0.023008,0.0014318,-0.003457,0.0084877,0.013916,0.0079256,-0.0031177,-0.0049534,0.036335
0.012161,-0.00093154,0.0030853,-0.027213,-0.0056416,-0.0033032,-0.0011269,0.013225,0.0071001,-0.0069673,0.0072559,-0.011079,0.0038226,0.078297,-0.0023949,0.0042432,0.00090297,-0.0012775,0.01401,0.017298,0.0069251,-0.003839,-0.0089547,0.036958
0.0056108,0.0027845,0.0022367,-0.027288,-0.0029866,-0.0014573,-0.0039192,0.012222,0.0016892,-0.011132,0.0043745,-0.016484,0.0027826,0.070293,-0.012799,-0.020373,0.00071929,0.0031018,0.020271,0.016126,0.0041681,-0.0064198,-0.010553,0.039701
-0.0043574,0.0064701,0.0045298,-0.025484,-0.0030031,-0.0006102,-0.0042698,0.0053733,-0.0052285,-0.011129,0.0041532,-0.015116,-0.0027942,0.058285,-0.024533,-0.047373,0.0006512,0.0051779,0.023486,0.011337,0.0011466,-0.0086136,-0.0091063,0.041533
-0.010087,0.007261,0.0078852,-0.021709,-0.0053129,-0.00071936,-0.0027063,-0.001871,-0.0096666,-0.006459,0.0038679,-0.0073627,-0.0095376,0.043283,-0.035139,-0.071273,0.00098545,0.0026868,0.02089,0.0084349,-0.00055193,-0.0080685,-0.0060869,0.040066
-0.0079891,0.0039012,0.0099499,-0.016574,-0.0077821,-0.0015062,-0.00019241,-0.0048323,-0.0094519,0.0011188,0.0016754,0.002674,-0.012391,0.027357,-0.043538,-0.087679,0.0019357,-0.0027722,0.012632,0.012822,-0.00052625,-0.005148,-0.0036897,0.035602
-0.0014371,-0.0020611,0.0097794,-0.011395,-0.0084836,-0.0025346,0.0025355,-0.0033122,-0.0050963,0.008164,-0.0016643,0.0095109,-0.0084382,0.0128,-0.049993,-0.095238,0.0029833,-0.007428,0.0019912,0.024667,0.00022704,-0.0031637,-0.0030798,0.030509
0.0025874,-0.0072175,0.0081232,-0.0077309,-0.0071689,-0.0036625,0.0051203,-0.00096669,0.00090817,0.01123,-0.0035774,0.00964,0.0010328,0.00068327,-0.054928,-0.095357,0.0028967,-0.0086676,-0.0063921,0.038164,0.00034896,-0.0053168,-0.0037445,0.026875
-0.00011977,-0.008783,0.0062557,-0.0066656,-0.0051553,-0.0054134,0.0072482,-0.0014078,0.0055155,0.0087299,-0.0020815,0.0037755,0.011601,-0.010014,-0.058101,-0.090489,0.00055615,-0.0069845,-0.0092315,0.046146,-0.00058597,-0.011145,-0.0042657,0.024865
-0.0073993,-0.0066592,0.0046131,-0.0083379,-0.0039766,-0.0086496,0.0083604,-0.0049316,0.006511,0.0017625,0.002347,-0.0036796,0.018811,-0.021722,-0.058974,-0.082604,-0.0040294,-0.004996,-0.0065257,0.046054,-0.0016923,-0.016189,-0.0036018,0.023154
-0.013013,-0.0033996,0.0025345,-0.012084,-0.0040843,-0.013608,0.0078804,-0.0087511,0.003514,-0.0066505,0.0069524,-0.0077375,0.020882,-0.036282,-0.057698,-0.072745,-0.0093476,-0.0047861,-0.0014085,0.041897,-0.0015922,-0.015707,-0.0017637,0.020618
-0.012409,-0.0021307,-0.00078858,-0.016967,-0.0046477,-0.019168,0.005821,-0.010079,-0.0016889,-0.013318,0.0086506,-0.0063068,0.019262,-0.053083,-0.055471,-0.061439,-0.013019,-0.0062372,0.0019731,0.040449,0.00037015,-0.0092066,0.00044998,0.017369
-0.006573,-0.0041841,-0.0052214,-0.022105,-0.0044423,-0.023184,0.0031285,-0.0088806,-0.0058852,-0.016389,0.0061262,-0.0014587,0.017031,-0.068903,-0.053634,-0.049138,-0.013071,-0.0077776,0.0010607,0.045122,0.0035813,-0.001442,0.0021552,0.014231
-0.00061919,-0.0083797,-0.0095416,-0.026477,-0.0029354,-0.023773,0.0012734,-0.0077759,-0.0062692,-0.01582,0.00054311,0.0024043,0.016588,-0.079839,-0.052248,-0.036267,-0.009052,-0.0084521,-0.0038287,0.053011,0.0066434,0.0013666,0.0028777,0.011569
0.001187,-0.012403,-0.012292,-0.028616,-0.00064756,-0.020534,0.0013236,-0.0094165,-0.0024415,-0.012893,-0.0054339,0.00192,0.018233,-0.084096,-0.049551,-0.023058,-0.0023334,-0.0089953,-0.010248,0.057596,0.0083396,-0.0031678,0.0026451,0.0089365
-0.00086449,-0.014861,-0.012744,-0.026943,0.0014162,-0.014747,0.0032871,-0.013924,0.0029558,-0.0094345,-0.0093555,-0.0029852,0.020367,-0.08355,-0.043099,-0.0096085,0.0045422,-0.010792,-0.015537,0.054487,0.0082315,-0.011572,0.0018632,0.0058987
-0.0028114,-0.016109,-0.01115,-0.020937,0.0026796,-0.0085023,0.0062795,-0.018698,0.0058338,-0.0071217,-0.010184,-0.009506,0.020903,-0.082687,-0.031941,0.0037294,0.0090799,-0.013915,-0.018317,0.045004,0.0065386,-0.017573,0.0011286,0.0028767
-0.0012895,-0.017224,-0.0083613,-0.012277,0.0034447,-0.0035258,0.0092664,-0.020681,0.0036226,-0.0069021,-0.0083796,-0.014332,0.01885,-0.085386,-0.018121,0.015957,0.010004,-0.01645,-0.01863,0.034641,0.0036726,-0.017428,0.00094203,0.0007654
0.0031261,-0.018384,-0.0054262,-0.0046596,0.0045274,-0.00048521,0.011609,-0.019054,-0.0026098,-0.008529,-0.0051915,-0.01592,0.015084,-0.091857,-0.0060215,0.025489,0.0077901,-0.016031,-0.017165,0.028137,3.4416e-005,-0.012751,0.001343,-0.00044683
0.0066696,-0.018465,-0.0035414,-0.0018517,0.0064469,0.0010171,0.012973,-0.016079,-0.0087173,-0.010566,-0.0018616,-0.015075,0.011858,-0.098239,0.00032882,0.030785,0.0042777,-0.012199,-0.014662,0.025745,-0.0037521,-0.0085844,0.0017321,-0.0024621
0.0062877,-0.016326,-0.0039183,-0.0051141,0.0089062,0.0019849,0.012961,-0.015388,-0.010484,-0.011191,0.00081746,-0.013847,0.01135,-0.099525,9.3475e-005,0.031212,0.0015413,-0.0072712,-0.012029,0.023819,-0.0066186,-0.008798,0.0011725,-0.0075952
0.0027786,-0.012428,-0.0070622,-0.012059,0.011012,0.003364,0.011169,-0.019087,-0.0067711,-0.009503,0.0025836,-0.013948,0.014152,-0.093694,-0.003707,0.027536,0.00069022,-0.0046863,-0.010629,0.018759,-0.0074007,-0.013054,-0.00092677,-0.016446
0.00013706,-0.0089169,-0.011786,-0.018158,0.01201,0.0053888,0.0078028,-0.02599,-0.00025884,-0.0063209,0.0035937,-0.015828,0.018786,-0.083611,-0.0064897,0.021653,0.0013582,-0.0062315,-0.011892,0.010463,-0.0057139,-0.017746,-0.0042802,-0.02648
0.0018024,-0.0078467,-0.015143,-0.020047,0.011844,0.0072932,0.0041272,-0.032382,0.0048099,-0.0036388,0.0041819,-0.018751,0.022732,-0.074862,-0.0056714,0.015671,0.0022291,-0.010627,-0.016213,0.0022064,-0.0025659,-0.019545,-0.0078444,-0.033187
0.0073944,-0.009181,-0.014093,-0.018116,0.011076,0.0077778,0.0019755,-0.034771,0.0059631,-0.0029994,0.0045203,-0.021489,0.024336,-0.071172,-0.0025564,0.010962,0.0021938,-0.01475,-0.022131,-0.0026212,0.00013545,-0.018084,-0.010526,-0.033267
0.012934,-0.010628,-0.0080481,-0.01624,0.010324,0.0061462,0.0024118,-0.032445,0.0041096,-0.0041571,0.0043806,-0.023098,0.024069,-0.071355,-0.00089904,0.007795,0.0012439,-0.016339,-0.026823,-0.0037206,0.0010861,-0.015608,-0.011873,-0.027332
0.014247,-0.0096502,-9.6455e-005,-0.018682,0.0098317,0.0032629,0.0046942,-0.027794,0.0021987,-0.0053087,0.0032982,-0.023473,0.023893,-0.070568,-0.0033864,0.0057778,0.00040349,-0.015689,-0.027832,-0.0040766,0.00088256,-0.014436,-0.012164,-0.019786
0.010446,-0.005832,0.0047079,-0.02654,0.0095486,0.0013091,0.0066496,-0.02417,0.0023237,-0.0047952,0.0011492,-0.023457,0.025092,-0.064758,-0.0091815,0.0046394,0.00077626,-0.014858,-0.024721,-0.007083,0.0017472,-0.014952,-0.011903,-0.015809
0.0045297,-0.0013573,0.0031256,-0.036561,0.0094686,0.0022132,0.0063527,-0.023087,0.0039645,-0.002744,-0.0013468,-0.024365,0.026429,-0.054247,-0.014705,0.0046408,0.0025021,-0.01532,-0.019245,-0.013303,0.0055832,-0.015838,-0.011272,-0.017728
0.00080608,0.00091868,-0.0034665,-0.043299,0.0097123,0.0059393,0.0037219,-0.023157,0.0048764,-0.0010711,-0.0028263,-0.02703,0.0246,-0.043225,-0.016837,0.0062129,0.0044994,-0.016471,-0.013848,-0.019797,0.011904,-0.015889,-0.01013,-0.02358
0.0015137,2.5718e-005,-0.00987,-0.042974,0.010187,0.010195,0.00059718,-0.021631,0.0036048,-0.0017344,-0.0022358,-0.030892,0.017034,-0.035812,-0.015521,0.0091989,0.005233,-0.016468,-0.0097735,-0.022634,0.017604,-0.015252,-0.0085415,-0.028896
0.0053535,-0.0023205,-0.011088,-0.036089,0.010279,0.011991,-0.00080025,-0.017133,0.0011089,-0.0048027,0.00022903,-0.03389,0.0047896,-0.032536,-0.013427,0.012571,0.0039138,-0.014496,-0.0064148,-0.020454,0.019095,-0.014862,-0.0072363,-0.030214
0.0088404,-0.0034137,-0.0062691,-0.026916,0.0091241,0.0098284,0.00032888,-0.011157,-9.2091e-005,-0.0081453,0.0031548,-0.033523,-0.0071881,-0.030466,-0.013221,0.015155,0.0011645,-0.012019,-0.002455,-0.016091,0.015205,-0.014928,-0.0073299,-0.027581
0.0091069,-0.0021553,0.0007932,-0.020388,0.0064154,0.0046776,0.0028479,-0.007006,0.0015753,-0.0091072,0.005034,-0.028569,-0.013168,-0.026511,-0.015152,0.016881,-0.0014055,-0.011524,0.0022608,-0.014875,0.0083746,-0.014363,-0.0093302,-0.024263
0.0059179,-0.00011419,0.0049929,-0.018806,0.0030064,-0.00095008,0.0047681,-0.0071289,0.0049965,-0.0067154,0.0054888,-0.020279,-0.010819,-0.020368,-0.017183,0.019306,-0.0024097,-0.01385,0.0058849,-0.02085,0.0029581,-0.012011,-0.012276,-0.024117
0.0015461,-2.653e-005,0.0041202,-0.020719,0.00055745,-0.0048743,0.0048013,-0.01114,0.0070796,-0.0024865,0.0053915,-0.011977,-0.0030258,-0.014297,-0.017283,0.024543,-0.0017244,-0.016823,0.0056631,-0.033714,0.0019149,-0.0084451,-0.014029,-0.028774
-0.0011385,-0.0030811,0.0003684,-0.022558,0.00027506,-0.0064121,0.003,-0.016101,0.0053286,0.00083136,0.0057426,-0.0071155,0.0042927,-0.010321,-0.015492,0.033238,-0.00051137,-0.016853,0.00016713,-0.048714,0.0045441,-0.0062422,-0.012851,-0.036663
-0.00079487,-0.0074951,-0.001928,-0.021587,0.001705,-0.0061263,0.00017631,-0.018662,2.2246e-005,0.0014316,0.006484,-0.0070363,0.0066104,-0.0080958,-0.013762,0.043407,-0.00017932,-0.012259,-0.009192,-0.059634,0.0071137,-0.0079962,-0.0091194,-0.044282
0.0016084,-0.0097785,-0.00012663,-0.017951,0.0027044,-0.0048607,-0.0029935,-0.017182,-0.0058294,-0.00031747,0.0065659,-0.010084,0.0038804,-0.0057037,-0.013836,0.051609,-0.0011189,-0.0051955,-0.018695,-0.06283,0.0058726,-0.013678,-0.0055327,-0.048452
0.0038233,-0.0076996,0.0046414,-0.014408,0.00088619,-0.0032106,-0.006168,-0.012273,-0.0086151,-0.002483,0.0052761,-0.012822,-7.2355e-005,-0.0023198,-0.015281,0.055803,-0.0022879,-0.00018734,-0.024541,-0.059615,4.0996e-005,-0.019917,-0.0052351,-0.047871
0.0042456,-0.002413,0.0087097,-0.014093,-0.0043848,-0.0017385,-0.0088382,-0.005715,-0.0065786,-0.0033069,0.0034049,-0.012488,-0.0010126,0.00042744,-0.015552,0.057408,-0.0020781,-0.00043047,-0.025092,-0.055356,-0.0075293,-0.022249,-0.009176,-0.04325
0.0031307,0.002149,0.0091305,-0.017974,-0.01099,-0.0012338,-0.010032,0.00097243,-0.0008481,-0.00253,0.0028454,-0.008814,0.0024535,0.00017147,-0.012045,0.060361,0.00017885,-0.0052025,-0.021531,-0.055792,-0.012441,-0.018682,-0.015029,-0.036495
0.0020867,0.0022381,0.0061077,-0.023811,-0.015057,-0.0023085,-0.0089054,0.0070879,0.0054125,-0.0013244,0.0048032,-0.0038423,0.0083338,-0.003039,-0.0043093,0.067611,0.0033575,-0.010749,-0.01671,-0.063002,-0.0119,-0.011518,-0.0189,-0.029833
0.0023128,-0.0027436,0.0026444,-0.027341,-0.013538,-0.0045995,-0.0057477,0.012278,0.0089125,-0.0011205,0.0083271,-1.8601e-005,0.01336,-0.0055826,0.0055054,0.078083,0.0052321,-0.013731,-0.013243,-0.07376,-0.0065691,-0.0057546,-0.018597,-0.025295
0.0032292,-0.0096472,0.0018145,-0.024936,-0.0066308,-0.0065876,-0.0022364,0.015914,0.0079995,-0.0024339,0.01071,0.0017392,0.015596,-0.002732,0.014321,0.087141,0.004349,-0.013946,-0.012199,-0.081504,0.00010287,-0.0053322,-0.015629,-0.024343
0.0028947,-0.013837,0.0040017,-0.01601,0.0018553,-0.0066012,-0.0003559,0.0172,0.0034397,-0.0045993,0.0095655,0.0023908,0.015435,0.0072625,0.020475,0.09047,0.0015532,-0.013817,-0.013015,-0.08064,0.0043812,-0.010319,-0.013974,-0.027391
-1.253e-006,-0.012579,0.0064616,-0.0035997,0.0067567,-0.0043041,-0.00083889,0.01602,-0.0020762,-0.0064691,0.0047738,0.0034443,0.014609,0.021265,0.024768,0.088011,-0.00032484,-0.015385,-0.014311,-0.070164,0.0046319,-0.017284,-0.016524,-0.033441
-0.0043721,-0.0069947,0.0056508,0.0073699,0.0050421,-0.0012543,-0.0026685,0.01367,-0.0054716,-0.0073942,-0.0013676,0.005369,0.014503,0.033384,0.029378,0.084214,0.0013113,-0.017917,-0.014927,-0.054076,0.0019554,-0.022289,-0.022284,-0.040326
-0.0070179,-0.001165,0.00040876,0.013075,-0.0019897,0.00017857,-0.0042735,0.01253,-0.0051009,-0.0076758,-0.0058214,0.0072796,0.015228,0.039266,0.035627,0.084166,0.0063948,-0.018572,-0.014669,-0.038425,-0.0011164,-0.023798,-0.026917,-0.045705
-0.0050551,0.00091934,-0.0067685,0.013102,-0.0095507,-0.0012775,-0.0053112,0.014622,-0.0017418,-0.0081625,-0.0068314,0.008074,0.015932,0.038736,0.042552,0.089028,0.011737,-0.015469,-0.01447,-0.027384,-0.0026146,-0.02318,-0.026292,-0.048266
0.0014189,-0.0017486,-0.011607,0.010447,-0.01274,-0.0047359,-0.0071737,0.019992,0.0020083,-0.0093685,-0.0047891,0.0077573,0.015715,0.034748,0.047535,0.094995,0.013247,-0.010079,-0.015884,-0.021262,-0.0022511,-0.022785,-0.01999,-0.048247
0.0087882,-0.0066036,-0.011593,0.0091763,-0.0099422,-0.0079157,-0.011512,0.026288,0.0036185,-0.010916,-0.0016557,0.0075562,0.014274,0.030137,0.048437,0.096715,0.0092125,-0.0064778,-0.020067,-0.017554,-0.0010166,-0.023648,-0.011719,-0.046893
0.01224,-0.0096571,-0.0081035,0.011424,-0.0036673,-0.0090904,-0.018143,0.030124,0.002408,-0.011862,0.00027985,0.0087005,0.011905,0.025514,0.04532,0.091963,0.0018919,-0.0079644,-0.026746,-0.013619,7.5223e-005,-0.024834,-0.0063038,-0.045329
0.0093092,-0.0087015,-0.0052075,0.016019,0.0017199,-0.0085309,-0.024548,0.02949,-0.00018021,-0.011686,-0.00053644,0.01113,0.0090952,0.020087,0.040234,0.083274,-0.0040264,-0.014087,-0.033927,-0.0085937,0.00086085,-0.024675,-0.0059181,-0.043767
0.0018985,-0.0050151,-0.0061542,0.01978,0.0034225,-0.0082307,-0.027741,0.025447,-0.0020019,-0.010982,-0.0043007,0.013497,0.0061595,0.013999,0.035353,0.075237,-0.0049238,-0.020783,-0.038759,-0.0033742,0.0018517,-0.0224,-0.0087381,-0.041619
-0.004865,-0.0021636,-0.010654,0.020385,0.0020005,-0.010193,-0.026893,0.021698,-0.0020634,-0.011063,-0.0096451,0.014568,0.0032184,0.0092817,0.03124,0.070291,-0.00085225,-0.023579,-0.039112,0.00060322,0.0034309,-0.018648,-0.010936,-0.038285
-0.0061709,-0.0028843,-0.015337,0.018375,0.00025353,-0.014731,-0.02414,0.022094,-0.0011918,-0.012698,-0.014048,0.014713,0.00043527,0.0082049,0.026892,0.067081,0.0047862,-0.021121,-0.034756,0.0023127,0.0053742,-0.014654,-0.010011,-0.03385
-0.0008699,-0.0067186,-0.016874,0.01665,0.00045407,-0.020123,-0.022707,0.027831,-0.0010252,-0.015186,-0.015114,0.015966,-0.0017677,0.010762,0.021406,0.062669,0.0079863,-0.016085,-0.027202,0.0012907,0.0071663,-0.011201,-0.0065368,-0.029128
0.0077964,-0.01047,-0.014875,0.017967,0.0024869,-0.023807,-0.024092,0.03644,-0.0023627,-0.016838,-0.012303,0.020397,-0.0027944,0.014129,0.015502,0.056082,0.0069277,-0.012818,-0.018337,-0.0024147,0.0086424,-0.0083825,-0.0031658,-0.02515
0.014531,-0.011096,-0.012021,0.022711,0.0044149,-0.024146,-0.026992,0.04341,-0.0044325,-0.016584,-0.007828,0.028123,-0.0022822,0.014971,0.011268,0.049535,0.0027385,-0.013815,-0.0091054,-0.0079472,0.010111,-0.0061734,-0.0022075,-0.022639
0.015588,-0.0084371,-0.011452,0.02879,0.0046551,-0.021499,-0.028873,0.045264,-0.0056904,-0.015133,-0.0055704,0.036754,-0.00052141,0.012523,0.010278,0.046234,-0.0018831,-0.017958,0.00054318,-0.013449,0.011723,-0.0049103,-0.0040812,-0.021862
0.011036,-0.0053445,-0.013899,0.033534,0.003505,-0.017911,-0.028433,0.041734,-0.005284,-0.01438,-0.0083207,0.042943,0.001536,0.0094123,0.01193,0.047177,-0.0046673,-0.021785,0.010414,-0.016833,0.012808,-0.0049902,-0.0076482,-0.02281
0.0042007,-0.0051243,-0.017047,0.03567,0.0025374,-0.015722,-0.0265,0.035467,-0.003722,-0.015452,-0.015363,0.044847,0.0028226,0.0093886,0.013709,0.050208,-0.0048635,-0.022462,0.018878,-0.017378,0.012126,-0.0060938,-0.011541,-0.02529
-0.00098727,-0.0086458,-0.017552,0.035703,0.0025887,-0.016047,-0.024737,0.02967,-0.0021239,-0.017343,-0.022536,0.043413,0.0029075,0.014054,0.013298,0.052202,-0.0030832,-0.019822,0.023202,-0.016632,0.0090868,-0.0069196,-0.014989,-0.02874
-0.0025857,-0.013659,-0.013826,0.034744,0.0025362,-0.01815,-0.023855,0.025713,-0.00086125,-0.017714,-0.025048,0.041327,0.0023392,0.021572,0.010668,0.052002,-0.00056111,-0.015928,0.021509,-0.017243,0.0048257,-0.0060149,-0.017656,-0.032038
-0.0013241,-0.016771,-0.0073217,0.033334,0.00031929,-0.020091,-0.02333,0.022619,0.00095738,-0.01532,-0.020952,0.040541,0.0022458,0.028308,0.0082242,0.051131,0.0014851,-0.012874,0.014742,-0.020301,0.0018684,-0.0031511,-0.019205,-0.033748
0.00069732,-0.016187,-0.0014941,0.031446,-0.0046326,-0.020175,-0.022729,0.018624,0.0045048,-0.011683,-0.012483,0.040591,0.0034722,0.031627,0.0088414,0.051667,0.0022523,-0.011053,0.0066899,-0.02368,0.0023297,6.0925e-005,-0.019387,-0.032896
0.0018268,-0.012894,0.00050842,0.02932,-0.010014,-0.018104,-0.022815,0.013275,0.00962,-0.010087,-0.0042301,0.03931,0.0059377,0.031327,0.013467,0.05364,0.0016469,-0.009409,0.0015978,-0.023444,0.0061147,0.0011483,-0.018475,-0.0297
0.00166,-0.0095489,-0.0022759,0.027789,-0.011995,-0.014958,-0.024894,0.0080953,0.014197,-0.012518,0.00024651,0.035319,0.008709,0.028911,0.020309,0.054741,0.00040898,-0.0071529,0.0010784,-0.017592,0.010817,-0.0012262,-0.017261,-0.025515
0.00056397,-0.0083286,-0.0082167,0.02748,-0.0084508,-0.012096,-0.028958,0.0052614,0.015433,-0.017385,0.00054066,0.029883,0.010696,0.025962,0.026164,0.052723,-0.00020057,-0.0049764,0.002855,-0.0088154,0.013543,-0.0059018,-0.016384,-0.021862
-0.0011034,-0.0095699,-0.014084,0.027764,-0.0012233,-0.010044,-0.032801,0.0054758,0.012091,-0.020431,-0.0012558,0.026154,0.011413,0.023329,0.028639,0.047997,0.00081099,-0.004416,0.0025059,-0.0033673,0.013066,-0.0098155,-0.015704,-0.019296
-0.0031322,-0.012004,-0.016734,0.026861,0.0048717,-0.0084067,-0.033442,0.0069886,0.0058127,-0.018318,-0.0029909,0.026159,0.011273,0.021339,0.027494,0.043596,0.0033461,-0.0060212,-0.0031251,-0.0065018,0.010383,-0.010265,-0.014547,-0.017169
-0.0050621,-0.014004,-0.014723,0.023321,0.005752,-0.0068346,-0.029817,0.0066983,0.0001921,-0.011758,-0.0042826,0.028185,0.011241,0.02007,0.024256,0.042272,0.0059885,-0.0083439,-0.013617,-0.018247,0.007317,-0.0070228,-0.012641,-0.014539
-0.0061049,-0.014693,-0.0091723,0.017528,0.0014264,-0.0058968,-0.024111,0.002477,-0.001831,-0.0052572,-0.0062236,0.027233,0.012104,0.018972,0.020733,0.043466,0.0066548,-0.0090372,-0.025559,-0.033256,0.0047331,-0.0024812,-0.010625,-0.011308
-0.0057945,-0.014246,-0.0033579,0.011661,-0.0039727,-0.006741,-0.020205,-0.0051881,-0.00014183,-0.0035486,-0.0095866,0.018679,0.013774,0.016462,0.017752,0.043281,0.0038217,-0.0071937,-0.035299,-0.044966,0.0022128,0.00032681,-0.0094318,-0.0084088
-0.0046881,-0.013452,-0.00093914,0.007984,-0.0056637,-0.0096986,-0.020415,-0.013568,0.0026443,-0.0078094,-0.013499,0.0023584,0.015067,0.010609,0.015004,0.037887,-0.0023717,-0.0046241,-0.041285,-0.050462,-0.00065688,0.00013698,-0.0091889,-0.0068061
-0.0041118,-0.01305,-0.0036124,0.0069679,-0.0023065,-0.013287,-0.02345,-0.01974,0.0034621,-0.014913,-0.015934,-0.016461,0.014241,0.00088314,0.011917,0.027426,-0.0098321,-0.0045957,-0.044086,-0.051913,-0.0030482,-0.0017885,-0.0089993,-0.0063501
-0.0049239,-0.013274,-0.0097239,0.0069584,0.00279,-0.014918,-0.025505,-0.02264,0.0012806,-0.020192,-0.015521,-0.030334,0.010157,-0.010615,0.0087775,0.016752,-0.015337,-0.0089145,-0.044518,-0.053692,-0.003351,-0.003119,-0.0080864,-0.0057296
-0.00652,-0.013773,-0.015102,0.0056396,0.0044163,-0.013004,-0.02356,-0.023531,-0.0023388,-0.021109,-0.012903,-0.034735,0.0034355,-0.020055,0.0071595,0.012023,-0.016196,-0.015902,-0.0422,-0.058186,-0.0010233,-0.0026894,-0.0071032,-0.003632
-0.0072931,-0.013896,-0.015887,0.0019882,-0.00013865,-0.0086075,-0.017954,-0.024677,-0.004966,-0.018686,-0.010344,-0.03094,-0.0033656,-0.024645,0.0091633,0.015925,-0.011864,-0.021171,-0.03622,-0.064173,0.0022297,-0.0014348,-0.0079331,6.1033e-005
-0.0062935,-0.013143,-0.011462,-0.0029215,-0.0087346,-0.0049241,-0.012049,-0.027447,-0.0055789,-0.015873,-0.0098717,-0.024478,-0.0070388,-0.024983,0.01576,0.025666,-0.0044622,-0.020714,-0.027179,-0.068805,0.0035667,-0.001253,-0.011763,0.0042363
-0.0044123,-0.011556,-0.0051573,-0.0068402,-0.016,-0.0047904,-0.0094099,-0.031396,-0.0052209,-0.014784,-0.011617,-0.02062,-0.005894,-0.024692,0.025355,0.035536,0.0023425,-0.013867,-0.018194,-0.070682,0.0016465,-0.0029953,-0.017229,0.0076275
-0.0036972,-0.0097889,-0.0019706,-0.0082125,-0.017492,-0.008261,-0.011031,-0.034906,-0.0055006,-0.015398,-0.013786,-0.020788,-0.0012176,-0.027355,0.033927,0.041765,0.0055143,-0.0038188,-0.013287,-0.070753,-0.0018338,-0.0055434,-0.020757,0.0098468
-0.0052927,-0.0088007,-0.0048699,-0.0075967,-0.012939,-0.01241,-0.014831,-0.036652,-0.0065384,-0.01651,-0.014288,-0.022655,0.0033433,-0.033318,0.037198,0.045359,0.0044274,0.0046117,-0.014341,-0.070402,-0.0035411,-0.0068139,-0.019294,0.011407
-0.0080572,-0.0093347,-0.012546,-0.0076266,-0.0060304,-0.013646,-0.017486,-0.036596,-0.0065338,-0.017458,-0.01258,-0.023338,0.0043101,-0.039266,0.033655,0.05041,0.00099083,0.0081378,-0.019482,-0.069192,-0.0017946,-0.0056802,-0.013136,0.01296
-0.0093989,-0.011482,-0.020417,-0.011447,-0.0012518,-0.010671,-0.016831,-0.035812,-0.0035258,-0.018685,-0.010139,-0.022434,0.00095846,-0.041096,0.02609,0.059513,-0.0019053,0.0067807,-0.024597,-0.065066,0.0014546,-0.0029967,-0.0061657,0.01474
-0.0076688,-0.014573,-0.024086,-0.020502,-0.00057213,-0.0056358,-0.012986,-0.035522,0.0023217,-0.020713,-0.0091312,-0.022148,-0.004164,-0.037582,0.020101,0.070611,-0.0023672,0.0032174,-0.026657,-0.057024,0.0021826,-0.00085076,-0.0030041,0.016685
-0.0037952,-0.017438,-0.022474,-0.033076,-0.0025937,-0.0025186,-0.0078191,-0.036258,0.0082325,-0.022881,-0.010502,-0.024766,-0.0072966,-0.031571,0.02031,0.078298,-0.00044939,0.00052724,-0.025763,-0.047421,-0.0017789,-0.00083389,-0.0054313,0.018752
-0.00049275,-0.018883,-0.018204,-0.044749,-0.0044234,-0.0039956,-0.0035892,-0.03775,0.010825,-0.023389,-0.013209,-0.030168,-0.0064182,-0.027605,0.027104,0.078476,0.0023716,0.00015727,-0.024091,-0.041062,-0.0081698,-0.0029229,-0.011199,0.020732
0.00023061,-0.018169,-0.015146,-0.050838,-0.0042756,-0.0092483,-0.0018281,-0.039386,0.0089026,-0.020764,-0.0153,-0.035853,-0.0026378,-0.028072,0.03651,0.072085,0.0044644,0.00145,-0.023022,-0.041343,-0.011838,-0.0058219,-0.016213,0.021802
-0.0011574,-0.015303,-0.015351,-0.049434,-0.0025857,-0.014427,-0.0028378,-0.040741,0.0044815,-0.015328,-0.015759,-0.03933,0.0010153,-0.031309,0.04324,0.064436,0.0049714,0.002725,-0.021466,-0.046748,-0.0093051,-0.0082029,-0.018043,0.020741
-0.0023672,-0.011061,-0.017844,-0.042918,-0.0010945,-0.01547,-0.005709,-0.041793,0.0010538,-0.0092733,-0.015295,-0.040429,0.0021293,-0.033236,0.04439,0.060752,0.0039371,0.0028003,-0.017066,-0.051058,-0.0022024,-0.0095972,-0.017606,0.017212
-0.0016398,-0.0067484,-0.019934,-0.036622,-0.0011725,-0.011229,-0.0087598,-0.042848,0.00063626,-0.0052454,-0.015262,-0.041291,0.00046929,-0.030977,0.040848,0.061989,0.0019366,0.0017435,-0.0089685,-0.047566,0.0037808,-0.010273,-0.017692,0.01304
0.00058255,-0.0037857,-0.019577,-0.035323,-0.0029682,-0.0045601,-0.010377,-0.044307,0.0022323,-0.0047078,-0.01588,-0.044146,-0.0025786,-0.025224,0.035679,0.064622,-0.0002992,0.00046035,0.00069812,-0.034067,0.0037158,-0.010552,-0.019922,0.011784
0.0022781,-0.0032202,-0.016785,-0.04001,-0.0057969,-0.00049809,-0.0099874,-0.046362,0.0030052,-0.0073537,-0.015748,-0.049102,-0.005698,-0.019398,0.031333,0.064264,-0.002077,-0.00030935,0.008145,-0.014653,-0.0022944,-0.010471,-0.023099,0.01625
0.0020121,-0.0053189,-0.013271,-0.04728,-0.0089391,-0.0027107,-0.0085161,-0.048692,0.00097937,-0.011741,-0.013374,-0.054057,-0.0085597,-0.016549,0.028239,0.05946,-0.0028583,-0.00065239,0.010778,0.0031318,-0.0092896,-0.010118,-0.024418,0.025758
0.00038198,-0.0093982,-0.011086,-0.051866,-0.011914,-0.010819,-0.0077981,-0.050354,-0.003213,-0.016318,-0.0092312,-0.056685,-0.011193,-0.01685,0.025606,0.052174,-0.0023672,-0.0012822,0.0089075,0.013506,-0.011882,-0.010091,-0.022266,0.035808
-0.00069189,-0.014035,-0.011457,-0.050425,-0.014184,-0.020613,-0.0091831,-0.050108,-0.0070043,-0.02,-0.0060355,-0.056512,-0.012906,-0.017852,0.02307,0.044948,-0.00062074,-0.002735,0.0049065,0.016033,-0.0088496,-0.01136,-0.017938,0.040937
-1.2097e-005,-0.017673,-0.014371,-0.04385,-0.014983,-0.027076,-0.012365,-0.047162,-0.0081928,-0.022196,-0.0065902,-0.055089,-0.012377,-0.017073,0.021282,0.037946,0.0021386,-0.0047022,0.00087893,0.015016,-0.0037758,-0.014484,-0.014664,0.038674
0.0016711,-0.019397,-0.018714,-0.036533,-0.01371,-0.027921,-0.015476,-0.041878,-0.0067119,-0.022696,-0.011083,-0.054224,-0.0091502,-0.014483,0.02094,0.028994,0.0054766,-0.0060996,-0.0028935,0.015571,-0.001424,-0.018897,-0.014916,0.031273
0.0024994,-0.019419,-0.022702,-0.033285,-0.010546,-0.024908,-0.016512,-0.035921,-0.0043947,-0.021683,-0.016545,-0.05408,-0.004929,-0.012587,0.021565,0.016445,0.0086751,-0.0058724,-0.0075079,0.019681,-0.003446,-0.022996,-0.018409,0.023759
0.0014953,-0.018892,-0.024624,-0.036129,-0.0065618,-0.021978,-0.015009,-0.03159,-0.0031927,-0.019717,-0.019262,-0.052968,-0.002912,-0.014025,0.021512,0.0018338,0.010688,-0.0039488,-0.0138,0.02527,-0.0073679,-0.025028,-0.02249,0.020035
-0.00038581,-0.019033,-0.023795,-0.043101,-0.0030943,-0.021881,-0.012561,-0.030692,-0.0036252,-0.017486,-0.018034,-0.049017,-0.0052646,-0.018824,0.01931,-0.01056,0.01045,-0.0015907,-0.021229,0.028623,-0.009425,-0.024107,-0.024401,0.02037
-0.0012307,-0.020125,-0.021121,-0.049657,-0.00095385,-0.024147,-0.011683,-0.03361,-0.0047941,-0.015457,-0.015244,-0.042129,-0.010907,-0.023786,0.01494,-0.016989,0.0075545,-0.00075591,-0.028183,0.027812,-0.0081845,-0.020683,-0.023403,0.022068
-0.0001666,-0.021213,-0.01858,-0.051576,-0.00015155,-0.026007,-0.013899,-0.03909,-0.0056825,-0.013785,-0.014633,-0.03446,-0.01588,-0.02473,0.0097192,-0.017316,0.0028051,-0.0027731,-0.03311,0.024213,-0.0054681,-0.016316,-0.021083,0.022171
0.0016814,-0.020895,-0.017768,-0.047487,-0.00024244,-0.025254,-0.018559,-0.044869,-0.0062725,-0.012552,-0.017795,-0.029056,-0.016353,-0.019825,0.0049037,-0.015058,-0.0019559,-0.007227,-0.035357,0.021089,-0.0040446,-0.013068,-0.019825,0.019529
0.0022918,-0.018749,-0.018714,-0.039523,-0.00076091,-0.022399,-0.023328,-0.048754,-0.0073673,-0.012018,-0.022594,-0.027851,-0.011818,-0.011321,0.00045204,-0.01439,-0.0048341,-0.011996,-0.035185,0.020747,-0.0047521,-0.012772,-0.0209,0.014726
0.0008403,-0.016186,-0.020119,-0.031872,-0.0013079,-0.020289,-0.025864,-0.049618,-0.0094233,-0.012513,-0.024981,-0.030604,-0.005671,-0.0041858,-0.0048092,-0.016845,-0.0050111,-0.014666,-0.033347,0.022826,-0.0059998,-0.016245,-0.023636,0.0087088
-0.0013221,-0.015769,-0.020858,-0.028245,-0.0014347,-0.021662,-0.025338,-0.0478,-0.011738,-0.014058,-0.022522,-0.035428,-0.0025871,-0.0026377,-0.01181,-0.020496,-0.0031344,-0.014436,-0.030721,0.025032,-0.0059217,-0.022627,-0.026058,0.0019826
-0.0018574,-0.019228,-0.021158,-0.029855,-0.00076766,-0.026827,-0.022703,-0.044733,-0.012954,-0.016161,-0.016476,-0.040248,-0.0049162,-0.0071738,-0.020027,-0.022017,-0.00068301,-0.012953,-0.028055,0.025415,-0.0047058,-0.02931,-0.026303,-0.0048992
0.00028263,-0.025659,-0.022135,-0.035086,0.00057343,-0.033355,-0.019761,-0.042021,-0.01243,-0.018063,-0.010649,-0.043998,-0.011132,-0.014278,-0.027589,-0.019527,0.0011086,-0.013156,-0.025649,0.024033,-0.0045747,-0.032945,-0.023773,-0.010575
0.0037043,-0.031613,-0.024119,-0.040884,0.0017837,-0.037771,-0.017944,-0.040522,-0.011064,-0.019251,-0.0082136,-0.046803,-0.017441,-0.018941,-0.032509,-0.013801,0.0018749,-0.016772,-0.023138,0.022621,-0.0074385,-0.031317,-0.019454,-0.013268
0.0057535,-0.03333,-0.025688,-0.044756,0.0018829,-0.037754,-0.017701,-0.04,-0.010581,-0.019749,-0.0094248,-0.049234,-0.020878,-0.018089,-0.033863,-0.0072418,0.0019064,-0.022506,-0.019832,0.022828,-0.012674,-0.024975,-0.015396,-0.012352
0.0050056,-0.029538,-0.024778,-0.045981,0.00065737,-0.033234,-0.018643,-0.039561,-0.011834,-0.020007,-0.012119,-0.051383,-0.021181,-0.012506,-0.031996,-0.0020392,0.0014953,-0.026609,-0.015639,0.024769,-0.017336,-0.017305,-0.013687,-0.0095311
0.0027085,-0.022521,-0.020995,-0.045365,-0.0008611,-0.026008,-0.019973,-0.038495,-0.013723,-0.020601,-0.014173,-0.052487,-0.020185,-0.0060276,-0.027915,0.00067376,0.00054198,-0.025668,-0.011735,0.027162,-0.018639,-0.012691,-0.015341,-0.0081498
0.0017134,-0.016466,-0.016685,-0.044047,-0.0009847,-0.018538,-0.020825,-0.036842,-0.013915,-0.021995,-0.015372,-0.051394,-0.019855,-0.0027576,-0.022797,0.00021763,-0.0012482,-0.019459,-0.010007,0.028641,-0.016335,-0.013866,-0.019604,-0.010856
0.0037888,-0.014428,-0.015311,-0.042507,0.0013619,-0.01284,-0.020522,-0.035279,-0.010895,-0.024345,-0.016925,-0.047518,-0.020999,-0.0043248,-0.018038,-0.0045758,-0.0038392,-0.011518,-0.011374,0.028794,-0.012765,-0.020247,-0.024158,-0.017513
0.0078064,-0.016365,-0.018376,-0.040539,0.0057724,-0.0098766,-0.018916,-0.034494,-0.0055743,-0.027189,-0.019332,-0.041567,-0.023455,-0.0090712,-0.015405,-0.015285,-0.0065373,-0.0068972,-0.014468,0.027913,-0.010663,-0.028398,-0.026347,-0.025213
0.01057,-0.019714,-0.02384,-0.037959,0.010612,-0.0094364,-0.016656,-0.034703,-0.00091942,-0.02921,-0.020966,-0.035403,-0.02686,-0.013626,-0.016469,-0.032603,-0.008188,-0.0088105,-0.016259,0.025985,-0.010861,-0.034219,-0.024835,-0.030442
0.0096345,-0.021653,-0.027725,-0.035188,0.014096,-0.010397,-0.015002,-0.035737,0.00026152,-0.028608,-0.019053,-0.031032,-0.030673,-0.015637,-0.021397,-0.054938,-0.0078156,-0.016657,-0.014498,0.022291,-0.011909,-0.035283,-0.020607,-0.031678
0.0055829,-0.020971,-0.027551,-0.033074,0.015265,-0.011354,-0.015026,-0.037482,-0.0024618,-0.024276,-0.012321,-0.029398,-0.033502,-0.015596,-0.02818,-0.078282,-0.0053086,-0.026636,-0.0099305,0.016319,-0.011743,-0.031844,-0.01641,-0.030369
0.0017015,-0.018155,-0.024359,-0.032199,0.014209,-0.011405,-0.016725,-0.040045,-0.00682,-0.017039,-0.0028864,-0.02987,-0.033002,-0.016335,-0.03346,-0.097718,-0.0016632,-0.034199,-0.0059872,0.0091365,-0.009659,-0.026101,-0.014819,-0.029691
0.001322,-0.014246,-0.021405,-0.032407,0.011718,-0.010613,-0.018842,-0.043305,-0.00971,-0.0097094,0.0045723,-0.030827,-0.027236,-0.020517,-0.034763,-0.10976,0.0015001,-0.036513,-0.0058667,0.0035348,-0.0068246,-0.020535,-0.016292,-0.032159
0.0051527,-0.0099962,-0.020833,-0.033086,0.008865,-0.0097707,-0.019652,-0.046239,-0.0096116,-0.0054278,0.0059556,-0.03083,-0.016639,-0.028072,-0.032487,-0.1141,0.0029512,-0.033569,-0.0094522,0.002279,-0.0050543,-0.01656,-0.018755,-0.037859
0.010821,-0.0060905,-0.021626,-0.033915,0.0067768,-0.0095788,-0.018159,-0.046913,-0.0074699,-0.0053967,0.00075677,-0.02945,-0.0045563,-0.035756,-0.029785,-0.11375,0.0026917,-0.027749,-0.013011,0.0056924,-0.0051394,-0.014243,-0.019205,-0.044386
0.014829,-0.0037139,-0.020879,-0.035297,0.0063864,-0.0099286,-0.014711,-0.043509,-0.0054179,-0.0079915,-0.0074626,-0.027159,0.0046562,-0.039475,-0.030108,-0.11326,0.0018677,-0.022415,-0.012235,0.010797,-0.0062453,-0.012955,-0.016141,-0.04835
0.015143,-0.0042378,-0.017117,-0.03795,0.0079921,-0.0099454,-0.010664,-0.035789,-0.0047055,-0.010231,-0.013526,-0.024553,0.0087282,-0.037749,-0.034212,-0.11575,0.0016891,-0.02027,-0.0060705,0.013126,-0.0067949,-0.012203,-0.010845,-0.047467
0.01236,-0.007917,-0.012306,-0.041944,0.010878,-0.0087783,-0.0074991,-0.025717,-0.0048227,-0.010422,-0.01413,-0.021718,0.00911,-0.033465,-0.039098,-0.12033,0.0022503,-0.022057,0.0021217,0.0099967,-0.0059425,-0.011998,-0.0064072,-0.04211
0.0088434,-0.012909,-0.010376,-0.046058,0.013458,-0.0064365,-0.0061857,-0.01648,-0.0044866,-0.0095293,-0.0097756,-0.018277,0.0096179,-0.032208,-0.039899,-0.1218,0.0024246,-0.026165,0.0072031,0.0026508,-0.0043431,-0.012632,-0.0052291,-0.035482
0.0068626,-0.015997,-0.013478,-0.048155,0.014064,-0.0039238,-0.0070302,-0.010462,-0.0032588,-0.0098936,-0.0039107,-0.013889,0.013192,-0.03814,-0.033418,-0.11354,0.001072,-0.029515,0.0063765,-0.0045118,-0.0036148,-0.014238,-0.0071461,-0.03214
0.0072518,-0.014842,-0.019534,-0.046448,0.011896,-0.0025673,-0.0097148,-0.0077336,-0.0020129,-0.012476,-0.00016739,-0.0085937,0.019563,-0.05056,-0.020685,-0.092434,-0.0015716,-0.029445,0.0011663,-0.0070237,-0.0049874,-0.016532,-0.0097785,-0.035391
0.0092949,-0.0099436,-0.023605,-0.040763,0.0074707,-0.0031311,-0.013219,-0.0063069,-0.001793,-0.015334,0.00012278,-0.0026782,0.025775,-0.06395,-0.0066892,-0.062602,-0.0038468,-0.025537,-0.0043284,-0.0033895,-0.008214,-0.018857,-0.010791,-0.044922
0.011487,-0.0044341,-0.022075,-0.032814,0.002291,-0.0053995,-0.015871,-0.0039698,-0.0023849,-0.014994,-0.0015837,0.0036011,0.028911,-0.071609,0.0025094,-0.034621,-0.0042422,-0.020035,-0.0070668,0.0040898,-0.01156,-0.020389,-0.0099851,-0.056365
0.0124,-0.001669,-0.01592,-0.025261,-0.0019788,-0.0083964,-0.016023,-0.00018371,-0.0022725,-0.009622,-0.0026343,0.0099305,0.028498,-0.070105,0.003323,-0.019833,-0.0030937,-0.016385,-0.0071863,0.011056,-0.012896,-0.02042,-0.0092686,-0.063588
0.011205,-0.0025652,-0.0099818,-0.020191,-0.0043054,-0.01088,-0.013256,0.0035373,-0.00018175,-0.0010769,-0.0014214,0.015516,0.026533,-0.061304,-0.0033854,-0.023096,-0.002514,-0.016813,-0.0068876,0.013911,-0.011203,-0.018692,-0.010533,-0.06263
0.0078977,-0.0049592,-0.0087705,-0.01804,-0.0046563,-0.011728,-0.0091456,0.0050663,0.0033396,0.006141,0.0014715,0.018987,0.025363,-0.050853,-0.012961,-0.039133,-0.0042965,-0.020711,-0.0075212,0.011739,-0.0075171,-0.015739,-0.013485,-0.054626
0.0033456,-0.0055352,-0.012532,-0.017582,-0.0038417,-0.010188,-0.0065558,0.0036858,0.0060474,0.0082581,0.0039674,0.019167,0.025527,-0.044854,-0.019727,-0.055416,-0.0077367,-0.025052,-0.0078792,0.0062602,-0.0046005,-0.012909,-0.015599,-0.045318
-0.00091753,-0.0026797,-0.017132,-0.016856,-0.00295,-0.0062025,-0.0075459,0.00096718,0.0059307,0.0050466,0.0043098,0.016312,0.025443,-0.047398,-0.020219,-0.059698,-0.0097389,-0.026541,-0.0053086,0.000158,-0.0053101,-0.011798,-0.014344,-0.041059
-0.0033157,0.0021262,-0.017864,-0.014407,-0.0026724,-0.00073823,-0.011474,-0.00027503,0.0031789,-0.00022604,0.0024568,0.012615,0.022973,-0.060144,-0.015023,-0.046899,-0.007529,-0.023909,0.0015445,-0.0049444,-0.010502,-0.013229,-0.009599,-0.044026
-0.0030876,0.0054638,-0.013728,-0.010142,-0.0029202,0.0043052,-0.015077,0.0018669,0.00022559,-0.0034992,-4.0032e-005,0.011127,0.017243,-0.082941,-0.0081654,-0.020809,-0.0016192,-0.01872,0.011021,-0.0095252,-0.017908,-0.016523,-0.0039242,-0.050371
-0.00077903,0.0046427,-0.0083178,-0.0053767,-0.003006,0.0069218,-0.014828,0.0069008,-0.0003457,-0.0028821,-0.0014732,0.013669,0.0091763,-0.11395,-0.0043834,0.0096407,0.0039143,-0.014189,0.019301,-0.015607,-0.023107,-0.019761,-0.00038874,-0.053056
0.0021563,-0.00028637,-0.0066094,-0.0019988,-0.0022572,0.0062125,-0.0098054,0.012354,0.001817,0.0004544,-0.0014559,0.019442,0.00065939,-0.14911,-0.0060132,0.035839,0.0044656,-0.012959,0.022956,-0.025011,-0.022356,-0.021031,-3.4616e-005,-0.047515
0.0044618,-0.0066471,-0.010636,-0.0011053,-0.00054406,0.0030383,-0.0026719,0.015786,0.0044098,0.0037879,-0.0011822,0.025626,-0.0065471,-0.18246,-0.011569,0.05268,-0.0012535,-0.015376,0.020991,-0.03761,-0.015435,-0.019736,-0.0013552,-0.035746
0.0059566,-0.011094,-0.017884,-0.0019455,0.0017253,-0.00058234,0.0022099,0.016724,0.00452,0.0051051,-0.0022813,0.029517,-0.011228,-0.20821,-0.017021,0.058529,-0.0099724,-0.019379,0.014955,-0.050824,-0.0062187,-0.016905,-0.0021432,-0.025377
0.0073236,-0.011811,-0.023593,-0.0021221,0.0040657,-0.0029774,0.0020532,0.01688,0.0013559,0.0042032,-0.0052788,0.030316,-0.012663,-0.22373,-0.018817,0.05399,-0.016384,-0.021969,0.0075406,-0.060833,-0.00013131,-0.014265,-0.0017318,-0.024095
0.0089529,-0.0093955,-0.024624,0.00071632,0.0062881,-0.0039851,-0.0023433,0.018472,-0.0028449,0.0021309,-0.0090035,0.029108,-0.010881,-0.23062,-0.016369,0.041576,-0.017241,-0.021231,0.0011289,-0.064813,-0.00019399,-0.012901,-0.0013751,-0.033623
0.010023,-0.0060568,-0.021467,0.0067804,0.0083714,-0.0047539,-0.0074332,0.022128,-0.0046349,-1.4412e-006,-0.011473,0.027347,-0.0073675,-0.2324,-0.012166,0.025898,-0.013524,-0.017565,-0.0028371,-0.062754,-0.0047852,-0.012657,-0.0025129,-0.048084
0.0089228,-0.0039637,-0.017054,0.013519,0.010045,-0.0063932,-0.009781,0.026251,-0.0023118,-0.0015867,-0.011533,0.025582,-0.0052759,-0.2304,-0.0096416,0.012373,-0.009053,-0.013292,-0.003914,-0.057598,-0.0091078,-0.012653,-0.0048637,-0.058136
0.0048216,-0.0039972,-0.014013,0.017473,0.010711,-0.0087775,-0.0085256,0.028431,0.0026497,-0.0022417,-0.0098788,0.023665,-0.0081556,-0.22152,-0.0107,0.0038893,-0.0070941,-0.010903,-0.0028281,-0.053523,-0.0092868,-0.012274,-0.0064443,-0.05768
-0.001077,-0.0056182,-0.012984,0.017389,0.010018,-0.010657,-0.0055706,0.027703,0.0069464,-0.0014823,-0.0085568,0.021938,-0.017559,-0.20061,-0.014915,-0.0020594,-0.0080156,-0.011186,-0.0016903,-0.053384,-0.0056565,-0.011672,-0.0055827,-0.047885
-0.0059787,-0.007646,-0.013051,0.015812,0.0085735,-0.010951,-0.003673,0.025623,0.0082636,0.00094083,-0.0093553,0.021756,-0.031405,-0.16576,-0.020754,-0.012264,-0.0097297,-0.012679,-0.0034404,-0.056928,-0.002345,-0.011439,-0.0028659,-0.035581
-0.0074704,-0.0091731,-0.013129,0.017243,0.0078957,-0.0099325,-0.0042718,0.02521,0.0069327,0.0043284,-0.012426,0.024473,-0.044916,-0.12214,-0.02734,-0.03228,-0.009993,-0.012948,-0.010097,-0.060937,-0.0034574,-0.012006,-0.00090465,-0.027754
-0.0053531,-0.0099617,-0.01269,0.024041,0.0093191,-0.0091159,-0.0068177,0.028601,0.0050098,0.006897,-0.01633,0.029781,-0.053941,-0.080365,-0.034955,-0.060584,-0.0082207,-0.010755,-0.020788,-0.061262,-0.009214,-0.013415,-0.0019279,-0.02676
-0.0017092,-0.010241,-0.011539,0.033675,0.012659,-0.0099141,-0.0098202,0.03537,0.0038784,0.0067233,-0.019456,0.035197,-0.058152,-0.050194,-0.043848,-0.087886,-0.0053744,-0.0072967,-0.03142,-0.055508,-0.015522,-0.015543,-0.0054646,-0.029862
0.00082711,-0.010316,-0.0096097,0.040221,0.015961,-0.012296,-0.012341,0.042831,0.0028581,0.003138,-0.021506,0.037529,-0.061256,-0.034229,-0.052704,-0.10317,-0.0025334,-0.0053215,-0.036933,-0.044621,-0.017418,-0.018192,-0.0084814,-0.032682
0.0010336,-0.010394,-0.0074577,0.03928,0.016828,-0.014682,-0.014519,0.047986,0.00019739,-0.0026428,-0.023656,0.035251,-0.067668,-0.026677,-0.058505,-0.10205,0.00013213,-0.0066927,-0.034834,-0.032323,-0.013333,-0.020713,-0.0080813,-0.033075
-0.00036497,-0.010659,-0.0067453,0.032106,0.014381,-0.015161,-0.016867,0.049496,-0.0046246,-0.008261,-0.027204,0.02983,-0.07831,-0.01803,-0.058252,-0.090467,0.0029933,-0.01046,-0.027182,-0.022754,-0.0063593,-0.021641,-0.0043178,-0.032101
-0.0018438,-0.011297,-0.0095105,0.025062,0.010121,-0.012968,-0.019279,0.048242,-0.0097068,-0.011742,-0.031928,0.024841,-0.089264,-0.0019333,-0.051256,-0.08034,0.0058273,-0.013263,-0.019147,-0.017981,-0.0014222,-0.019165,-0.00035534,-0.031854
-0.0026641,-0.012304,-0.016249,0.024552,0.0068677,-0.0090088,-0.0209,0.046255,-0.011983,-0.0126,-0.035775,0.023487,-0.094782,0.020956,-0.040048,-0.080648,0.0073456,-0.011987,-0.015095,-0.017119,-0.00097879,-0.012564,0.00041486,-0.032764
-0.0034161,-0.013268,-0.024548,0.031767,0.0065559,-0.0051325,-0.020977,0.045075,-0.0098466,-0.011798,-0.036322,0.026349,-0.092255,0.044479,-0.029069,-0.091121,0.0060747,-0.0065435,-0.015418,-0.017518,-0.0031687,-0.0035221,-0.0022747,-0.03313
-0.0051309,-0.013521,-0.030059,0.041886,0.008761,-0.0029173,-0.019814,0.044753,-0.0046911,-0.010853,-0.032903,0.030926,-0.084753,0.061927,-0.022067,-0.10344,0.0018368,-0.00036425,-0.016788,-0.016912,-0.0039927,0.0041654,-0.0049986,-0.031197
-0.0078831,-0.012691,-0.029549,0.048415,0.011129,-0.0029516,-0.018747,0.044045,8.4763e-005,-0.010902,-0.027602,0.033286,-0.078714,0.070266,-0.020139,-0.10834,-0.0036036,0.0019789,-0.015537,-0.014845,-0.0013178,0.0067765,-0.003654,-0.02747
-0.01021,-0.011243,-0.023543,0.048735,0.011267,-0.004979,-0.019027,0.041389,0.0017297,-0.012268,-0.024161,0.030762,-0.078618,0.070841,-0.021677,-0.10254,-0.0074336,-0.0017755,-0.011075,-0.012559,0.0031563,0.00329,0.0025378,-0.024773
-0.0099476,-0.010379,-0.016077,0.045924,0.0084651,-0.008442,-0.020573,0.035961,0.00010439,-0.01448,-0.025504,0.023931,-0.083293,0.066937,-0.023901,-0.090116,-0.0075652,-0.0097949,-0.0063066,-0.011882,0.0057936,-0.0036896,0.0097603,-0.025785
-0.0059193,-0.011206,-0.011588,0.045468,0.0039433,-0.012749,-0.021756,0.02827,-0.0026524,-0.016493,-0.031605,0.016453,-0.087132,0.060859,-0.024569,-0.078469,-0.0039206,-0.017397,-0.0047702,-0.014232,0.0048224,-0.0096032,0.012437,-0.030324
0.00081604,-0.013731,-0.011628,0.050103,-0.00030779,-0.017084,-0.020508,0.020105,-0.0042557,-0.017079,-0.039237,0.012645,-0.085099,0.052862,-0.022667,-0.073007,0.0016328,-0.020268,-0.0072706,-0.020222,0.0022175,-0.010987,0.0078265,-0.035026
0.0071812,-0.016584,-0.014261,0.057496,-0.0029183,-0.0202,-0.015939,0.013824,-0.004216,-0.015493,-0.043825,0.014295,-0.077096,0.042231,-0.018114,-0.074949,0.0064617,-0.017177,-0.011139,-0.029578,0.001741,-0.007581,-0.0015911,-0.035882
0.009802,-0.017825,-0.016475,0.06253,-0.0036501,-0.020699,-0.0091967,0.011153,-0.0039833,-0.012199,-0.042259,0.018982,-0.067926,0.028996,-0.011418,-0.082927,0.0085557,-0.01036,-0.01277,-0.040986,0.0050578,-0.002034,-0.0099699,-0.031516
0.0071715,-0.016377,-0.017123,0.061698,-0.002948,-0.017821,-0.0029563,0.012038,-0.0053943,-0.0090182,-0.034869,0.021377,-0.063211,0.014648,-0.0039324,-0.095587,0.0073861,-0.0036779,-0.011002,-0.052128,0.009837,0.0022931,-0.01249,-0.024317
0.00079894,-0.012997,-0.017578,0.055551,-0.0013186,-0.012166,0.00010174,0.014369,-0.0089222,-0.0082417,-0.025266,0.016794,-0.06508,0.0014223,0.001699,-0.11229,0.0040204,-0.00015517,-0.0081893,-0.060497,0.01187,0.0036145,-0.0085645,-0.018439
-0.0055077,-0.0099694,-0.019651,0.047427,0.00076756,-0.0057256,-0.001182,0.01512,-0.013187,-0.011031,-0.018101,0.004475,-0.071269,-0.0089807,0.002013,-0.13164,0.00060702,-0.00055658,-0.0079773,-0.064844,0.0092527,0.0025464,-0.0014579,-0.0164
-0.0078476,-0.0095957,-0.02306,0.040287,0.0025934,-0.0010575,-0.0057973,0.012383,-0.015974,-0.016291,-0.016139,-0.011844,-0.077779,-0.016098,-0.0054232,-0.15011,-0.00061206,-0.0035515,-0.011856,-0.066127,0.0045259,0.0012389,0.0048038,-0.017154
-0.0045487,-0.01249,-0.025157,0.034818,0.0032419,-6.5554e-005,-0.011091,0.0068139,-0.01582,-0.021066,-0.018613,-0.026455,-0.082063,-0.020341,-0.019815,-0.16294,0.0015223,-0.0068954,-0.017611,-0.066731,0.0025176,0.0016976,0.0082876,-0.017181
0.0028463,-0.016918,-0.023309,0.030132,0.0022912,-0.0030524,-0.01414,0.0011559,-0.01296,-0.022371,-0.021995,-0.035248,-0.083757,-0.021929,-0.036549,-0.16699,0.0062886,-0.0087095,-0.020973,-0.068146,0.0058073,0.0044247,0.0095888,-0.013565
0.010527,-0.019744,-0.01768,0.025641,0.00052723,-0.0085228,-0.013257,-0.0020386,-0.0091226,-0.019208,-0.0226,-0.03768,-0.082873,-0.019869,-0.049311,-0.16321,0.011302,-0.0082435,-0.018926,-0.068976,0.012114,0.0080698,0.010211,-0.0064897
0.014691,-0.018451,-0.011618,0.021849,-0.00033122,-0.01381,-0.0088616,-0.0026881,-0.0064515,-0.013257,-0.019091,-0.036015,-0.07795,-0.011634,-0.053847,-0.15637,0.013854,-0.0059539,-0.011851,-0.065324,0.016172,0.010215,0.010948,0.00084681
0.013732,-0.012908,-0.0091032,0.019408,0.00092982,-0.016268,-0.0032154,-0.0034361,-0.0063272,-0.0077623,-0.013057,-0.032998,-0.066386,0.006156,-0.050591,-0.15201,0.012615,-0.0030004,-0.0029278,-0.053742,0.014426,0.0089329,0.011744,0.0047002
0.008984,-0.0056936,-0.011455,0.017836,0.0035881,-0.014567,0.00089377,-0.0074684,-0.0087019,-0.0054363,-0.0073836,-0.030023,-0.046641,0.036171,-0.043992,-0.15285,0.008478,-0.00044552,0.0043488,-0.034543,0.0082022,0.0043153,0.012606,0.0036559
0.0035678,-0.00068723,-0.016235,0.015534,0.00513,-0.0095101,0.0017934,-0.015671,-0.01223,-0.0068695,-0.003928,-0.026994,-0.01997,0.078551,-0.038924,-0.1573,0.0039046,0.0013906,0.0083958,-0.012598,0.0024663,-0.0010704,0.014059,-0.00027057
0.00013634,-0.00077952,-0.019288,0.011191,0.0033027,-0.0038206,-0.00012658,-0.025631,-0.015072,-0.010427,-0.002428,-0.023373,0.01007,0.12984,-0.037113,-0.16081,0.0012531,0.0029842,0.010008,0.0053671,0.0014143,-0.0034441,0.016427,-0.0030489
-0.00086138,-0.0061232,-0.018065,0.005042,-0.001508,-0.00077579,-0.0028173,-0.033432,-0.015933,-0.013548,-0.0013496,-0.019174,0.039765,0.18354,-0.036522,-0.15891,0.001373,0.0049942,0.011182,0.015056,0.0049734,-0.00031497,0.018826,-0.0014688
-0.0011314,-0.014007,-0.013371,-0.0013528,-0.0058606,-0.0022516,-0.0040754,-0.036692,-0.014742,-0.014487,0.00038646,-0.015151,0.066941,0.23242,-0.034024,-0.1495,0.0034417,0.0074545,0.013478,0.017131,0.009298,0.0074336,0.019341,0.0046481
-0.0028041,-0.020419,-0.0082773,-0.0066095,-0.0056432,-0.0073771,-0.0030862,-0.036183,-0.012521,-0.01334,0.0025201,-0.012375,0.090912,0.27144,-0.028712,-0.13331,0.0059436,0.0094907,0.01696,0.016071,0.010554,0.015635,0.01663,0.012408
-0.0065054,-0.022322,-0.0054696,-0.010736,0.00041615,-0.012883,-0.00087746,-0.034683,-0.010528,-0.011739,0.00413,-0.011751,0.11142,0.29975,-0.022718,-0.11259,0.0078273,0.0098902,0.02012,0.016398,0.0083722,0.019438,0.011507,0.018004
-0.010864,-0.019265,-0.0054592,-0.014854,0.0090981,-0.015194,0.00063746,-0.034344,-0.0093232,-0.011467,0.0049745,-0.013638,0.12831,0.32051,-0.018895,-0.089728,0.0089383,0.0081039,0.020661,0.019362,0.0058746,0.016706,0.0067796,0.019572
-0.013782,-0.013429,-0.0069348,-0.019772,0.014604,-0.012955,0.00026778,-0.035145,-0.0085568,-0.013007,0.0059599,-0.017494,0.14228,0.33864,-0.017783,-0.066591,0.0096254,0.0048032,0.01685,0.022555,0.0064607,0.0096172,0.0051587,0.01866
-0.014189,-0.0082268,-0.0084506,-0.024886,0.012786,-0.008088,-0.0014642,-0.035782,-0.0076336,-0.015148,0.0081714,-0.021699,0.15556,0.35763,-0.016929,-0.044679,0.010116,0.0014452,0.0088998,0.022434,0.010412,0.003042,0.0070318,0.019131
-0.012654,-0.006356,-0.0096377,-0.028535,0.0043658,-0.0044066,-0.0027359,-0.035793,-0.0065981,-0.016003,0.011467,-0.023991,0.17059,0.37724,-0.013196,-0.025312,0.010268,-0.00083116,-0.00047378,0.017442,0.014381,0.00083754,0.010185,0.024126
-0.010427,-0.0084043,-0.010944,-0.029456,-0.0054999,-0.0046686,-0.0019248,-0.036466,-0.0062519,-0.014603,0.014188,-0.022692,0.18748,0.39352,-0.0057289,-0.0093236,0.0097906,-0.0020203,-0.0070541,0.0092651,0.014155,0.0029703,0.011783,0.033316
-0.0080746,-0.012675,-0.012523,-0.02795,-0.011008,-0.0083656,0.00099709,-0.039423,-0.0072326,-0.011669,0.014468,-0.01801,0.2025,0.40134,0.0033463,0.0035141,0.0085752,-0.003035,-0.0074982,0.001509,0.0082765,0.0058031,0.010782,0.042696
-0.0051624,-0.016236,-0.013639,-0.02573,-0.0098325,-0.012106,0.0043263,-0.044393,-0.0089088,-0.0088563,0.011947,-0.012266,0.20976,0.39819,0.011057,0.014641,0.0068109,-0.0046445,-0.0016882,-0.0028042,-0.00055792,0.0053088,0.0085337,0.047369
-0.0012165,-0.016635,-0.013261,-0.024714,-0.0043987,-0.012407,0.0059471,-0.048737,-0.009372,-0.0071985,0.0081848,-0.0085599,0.20516,0.38668,0.016303,0.026029,0.0048797,-0.0065512,0.0067431,-0.0028428,-0.0074054,0.00052393,0.0071112,0.045371
0.0031647,-0.013398,-0.011183,-0.025921,0.00040451,-0.0086359,0.0051034,-0.049599,-0.0069075,-0.0063193,0.0052992,-0.0087473,0.1894,0.37352,0.020495,0.03892,0.0032083,-0.0075019,0.01244,0.00028905,-0.0087196,-0.0056493,0.0070863,0.039507
0.0063216,-0.0084466,-0.0084599,-0.029297,0.00094407,-0.0036116,0.0031195,-0.046701,-0.0018018,-0.0052007,0.0041394,-0.012295,0.16729,0.36514,0.025709,0.052694,0.0021778,-0.006376,0.011719,0.0049206,-0.0048115,-0.0089142,0.0069424,0.035543
0.00672,-0.0049979,-0.0066372,-0.034236,-0.0029917,-0.0012774,0.0022853,-0.04291,0.0033114,-0.0036427,0.0038616,-0.016902,0.14405,0.36288,0.032428,0.064614,0.0020296,-0.003249,0.004954,0.0097872,0.00072705,-0.0071558,0.0046553,0.037969
0.00418,-0.0054744,-0.0064999,-0.039999,-0.0088628,-0.0033739,0.0036608,-0.041685,0.0052737,-0.002749,0.0033357,-0.020271,0.12225,0.36169,0.039234,0.070706,0.0027285,0.00059297,-0.0038193,0.013879,0.0040455,-0.0020641,-0.00016052,0.046574
2.9313e-005,-0.00974,-0.0075288,-0.045664,-0.013703,-0.007967,0.0056978,-0.043672,0.0030628,-0.0037823,0.0028428,-0.021548,0.10217,0.35393,0.044627,0.067512,0.0038974,0.0037201,-0.0097857,0.015838,0.0039946,0.0024612,-0.0056384,0.056536
-0.0038519,-0.015044,-0.0085619,-0.05006,-0.015913,-0.011122,0.0051668,-0.045741,-0.0011143,-0.0065724,0.0040791,-0.021475,0.084425,0.33559,0.048944,0.053914,0.004964,0.0056817,-0.010585,0.014103,0.0026396,0.0035632,-0.0091445,0.061996
-0.0062012,-0.017933,-0.0089377,-0.052223,-0.015414,-0.010283,-4.7758e-005,-0.043578,-0.0035631,-0.0092994,0.0081958,-0.021473,0.071789,0.30985,0.054146,0.031993,0.0054574,0.0070812,-0.0075847,0.0080978,0.0029983,0.0014422,-0.0094435,0.060328
-0.0069056,-0.016813,-0.008936,-0.052196,-0.012823,-0.0063963,-0.0086068,-0.035671,-0.0023859,-0.010088,0.013822,-0.022616,0.067493,0.28467,0.061322,0.006193,0.0051909,0.0085464,-0.0044572,-0.0006433,0.0060239,-0.0014532,-0.0076016,0.053911
-0.0067636,-0.013142,-0.0091006,-0.051276,-0.0089731,-0.0029579,-0.016147,-0.025137,0.00063282,-0.0088484,0.017361,-0.025171,0.071637,0.26615,0.068071,-0.018923,0.0041643,0.0096916,-0.0043052,-0.008795,0.0095305,-0.0030119,-0.005985,0.04819
-0.0068593,-0.010151,-0.0092507,-0.051085,-0.0051517,-0.0028786,-0.018538,-0.017761,0.001465,-0.0073604,0.015739,-0.028653,0.079587,0.25334,0.068375,-0.040947,0.0023642,0.0092398,-0.0075345,-0.013147,0.010086,-0.0033015,-0.0064366,0.047654
-0.0079081,-0.010084,-0.0083757,-0.052048,-0.0032599,-0.0060174,-0.015331,-0.017841,-0.0024579,-0.0073855,0.0092328,-0.03209,0.084653,0.23899,0.055806,-0.060258,-0.00019107,0.0063201,-0.01192,-0.012607,0.0062218,-0.0040989,-0.0092093,0.052725
-0.0097667,-0.012272,-0.0057023,-0.052704,-0.004987,-0.0095495,-0.010284,-0.02517,-0.0095994,-0.0087134,0.0016094,-0.034357,0.083161,0.21572,0.028251,-0.078486,-0.0031048,0.0017017,-0.014653,-0.0085442,1.5805e-005,-0.0068456,-0.013237,0.059647
-0.011363,-0.013828,-0.0019169,-0.050769,-0.010299,-0.01072,-0.0082381,-0.035334,-0.0153,-0.0092794,-0.0027795,-0.034673,0.077302,0.18217,-0.0091729,-0.096066,-0.0053792,-0.0023467,-0.014762,-0.0031523,-0.0045359,-0.011134,-0.017056,0.063195
-0.011323,-0.012436,0.00080542,-0.045271,-0.016655,-0.0093852,-0.010974,-0.0428,-0.015694,-0.0073848,-0.0024353,-0.033134,0.072904,0.14419,-0.045457,-0.11101,-0.0058053,-0.0036411,-0.014122,0.0026341,-0.004947,-0.015076,-0.019407,0.060175
-0.0091396,-0.0087576,0.00025084,-0.037863,-0.020108,-0.0080203,-0.015759,-0.044348,-0.011053,-0.003775,0.00039151,-0.030843,0.073848,0.11032,-0.068999,-0.11996,-0.0038737,-0.0017953,-0.016275,0.0097559,-0.0022883,-0.016956,-0.019337,0.051358
-0.005988,-0.0061345,-0.0040546,-0.031951,-0.01788,-0.0092717,-0.017938,-0.040573,-0.0054778,-0.0012982,0.0020427,-0.029325,0.078025,0.086304,-0.073717,-0.12061,-0.00042539,0.0014271,-0.023822,0.019676,0.00011647,-0.016487,-0.016328,0.040731
-0.0042477,-0.0076133,-0.010277,-0.030233,-0.01056,-0.01337,-0.015244,-0.0349,-0.0031843,-0.0022465,0.0007372,-0.029518,0.078379,0.073184,-0.06203,-0.11324,0.0027236,0.0034168,-0.036203,0.032407,8.1115e-005,-0.014596,-0.010795,0.032738
-0.0057499,-0.012887,-0.015413,-0.032759,-0.0020721,-0.017777,-0.0099089,-0.031129,-0.0048505,-0.0059222,-0.002216,-0.031083,0.068069,0.069618,-0.0427,-0.10029,0.0040596,0.0025612,-0.049476,0.045767,-0.0013669,-0.012287,-0.0045186,0.029447
-0.010111,-0.018049,-0.017173,-0.037263,0.0027795,-0.019327,-0.0067041,-0.031151,-0.007397,-0.0089607,-0.0041528,-0.032657,0.045236,0.074789,-0.025148,-0.084661,0.003496,-0.00082617,-0.058361,0.056509,-0.0014079,-0.0098813,-0.00019991,0.029519
-0.014738,-0.018672,-0.015162,-0.041353,0.001501,-0.016891,-0.0087658,-0.034054,-0.0072925,-0.0083566,-0.0038109,-0.032872,0.013598,0.088289,-0.014311,-0.068543,0.002318,-0.0050044,-0.059219,0.062264,0.0010304,-0.0072861,-7.2535e-005,0.029576
