4.5725e-010,7.4664e-010,9.743e-010,6.1931e-010,-2.5274e-010,7.0034e-010,4.5725e-010,1.1904e-009,-6.7333e-010,1.5627e-010,6.7719e-010,5.3442e-010,-1.6399e-010,6.0773e-010,4.4181e-010,1.0476e-009,-6.7526e-011,6.1545e-010,6.849e-010,1.2946e-009,1.4528e-009,1.2174e-009,2.0644e-010,5.1898e-010
1.2813e-008,2.0382e-008,2.7089e-008,1.6971e-008,-6.8105e-009,1.9245e-008,1.2716e-008,3.3014e-008,-1.839e-008,4.5229e-009,1.881e-008,1.4837e-008,-4.2268e-009,1.6863e-008,1.2491e-008,2.8864e-008,-1.9702e-009,1.6934e-008,1.8811e-008,3.548e-008,4.0188e-008,3.4305e-008,5.8589e-009,1.4523e-008
1.7414e-007,2.7037e-007,3.6602e-007,2.2585e-007,-8.8968e-008,2.5692e-007,1.7208e-007,4.4503e-007,-2.4369e-007,6.3535e-008,2.5404e-007,1.9997e-007,-5.2533e-008,2.2753e-007,1.7166e-007,3.8661e-007,-2.7965e-008,2.266e-007,2.51e-007,4.7245e-007,5.4067e-007,4.7061e-007,8.0881e-008,1.9753e-007
1.5289e-006,2.322e-006,3.2017e-006,1.9447e-006,-7.5047e-007,2.2197e-006,1.5097e-006,3.8843e-006,-2.0867e-006,5.7711e-007,2.2228e-006,1.7425e-006,-4.1865e-007,1.9888e-006,1.5278e-006,3.3539e-006,-2.5738e-007,1.9651e-006,2.1679e-006,4.0722e-006,4.7134e-006,4.1888e-006,7.233e-007,1.7396e-006
9.7449e-006,1.4511e-005,2.0375e-005,1.2177e-005,-4.5929e-006,1.395e-005,9.6539e-006,2.4673e-005,-1.2975e-005,3.8094e-006,1.4163e-005,1.1029e-005,-2.3982e-006,1.2659e-005,9.8958e-006,2.1182e-005,-1.7272e-006,1.2415e-005,1.3623e-005,2.5534e-005,2.9927e-005,2.7198e-005,4.7076e-006,1.1149e-005
4.8029e-005,7.0313e-005,0.0001005,5.9087e-005,-2.1721e-005,6.7931e-005,4.7944e-005,0.0001215,-6.239e-005,1.9466e-005,7.0024e-005,5.3996e-005,-1.0482e-005,6.2522e-005,4.97e-005,0.00010378,-9.0101e-006,6.0897e-005,6.6364e-005,0.0001241,0.00014746,0.00013733,2.3749e-005,5.54e-005
0.00019036,0.0002748,0.00039964,0.00023111,-8.2538e-005,0.00026664,0.00019239,0.00048254,-0.00024124,8.0077e-005,0.00027946,0.00021257,-3.6148e-005,0.00024925,0.00020131,0.00041037,-3.8033e-005,0.00024127,0.00026071,0.00048628,0.00058662,0.00056134,9.6554e-005,0.00022199
0.00062274,0.00088964,0.0013151,0.00074823,-0.00025858,0.00086617,0.00064066,0.0015867,-0.00076965,0.00027218,0.00092459,0.00069045,-0.00010006,0.00082367,0.00067515,0.0013449,-0.0001335,0.00079301,0.00084811,0.0015773,0.0019347,0.0019088,0.00032467,0.00073651
0.0017123,0.0024306,0.0036475,0.0020426,-0.00067976,0.0023719,0.0018036,0.0043993,-0.002062,0.00077809,0.0025835,0.0018828,-0.00022264,0.0022986,0.0019097,0.0037223,-0.00039729,0.0022031,0.0023274,0.0043133,0.0053891,0.0055078,0.00091932,0.0020607
0.0040068,0.00568,0.0086352,0.0047635,-0.0015171,0.0055469,0.0043493,0.010418,-0.0046938,0.0018937,0.0061783,0.0043609,-0.00038978,0.0054886,0.0046146,0.0088156,-0.0010167,0.0052423,0.005459,0.010073,0.012847,0.013685,0.0022195,0.0049255
0.0080462,0.011461,0.017599,0.0095738,-0.0028942,0.011177,0.009066,0.021254,-0.0091399,0.0039533,0.012762,0.0086394,-0.00049473,0.011317,0.0096099,0.018033,-0.0022608,0.010782,0.011041,0.020263,0.026451,0.029615,0.0046076,0.010147
0.01393,0.020097,0.031026,0.01667,-0.0047303,0.019515,0.016427,0.037543,-0.015255,0.0071043,0.022908,0.014679,-0.00029757,0.020269,0.017339,0.032052,-0.0043995,0.01928,0.019364,0.03529,0.047314,0.05632,0.0082668,0.018114
0.020812,0.030744,0.047382,0.025191,-0.0066003,0.029597,0.025937,0.057507,-0.021736,0.010984,0.035842,0.021345,0.00051885,0.031616,0.027158,0.049661,-0.0075277,0.030048,0.02951,0.0533,0.07374,0.094803,0.012848,0.028095
0.026757,0.041105,0.062527,0.03296,-0.0077671,0.038968,0.035652,0.076225,-0.026082,0.014529,0.0489,0.026344,0.0021429,0.042939,0.036876,0.067097,-0.011352,0.040785,0.039029,0.069674,0.10013,0.14211,0.01729,0.037857
0.029366,0.048044,0.070792,0.037054,-0.0074842,0.04437,0.042471,0.086848,-0.025475,0.016249,0.058056,0.027105,0.0043507,0.050588,0.043166,0.078878,-0.015086,0.047987,0.044559,0.078349,0.11809,0.19069,0.02011,0.044231
0.027104,0.049113,0.067879,0.035234,-0.0054607,0.043386,0.043468,0.084,-0.018411,0.015059,0.059775,0.02244,0.0063751,0.051318,0.043112,0.08033,-0.017628,0.048475,0.04348,0.074984,0.12016,0.23005,0.020194,0.044768
0.02051,0.044141,0.054087,0.027516,-0.0021687,0.036152,0.037787,0.067672,-0.006074,0.011256,0.053358,0.013903,0.0071687,0.044359,0.03619,0.070574,-0.018024,0.04138,0.035768,0.060273,0.1045,0.25013,0.017659,0.039641
0.012229,0.035671,0.035321,0.016706,0.001313,0.025774,0.027814,0.044588,0.0077516,0.0068195,0.042081,0.0055093,0.0060584,0.032441,0.025242,0.053761,-0.016008,0.029215,0.024637,0.040736,0.07693,0.24433,0.014021,0.032244
0.0054909,0.027589,0.020267,0.0071818,0.0039005,0.016783,0.018415,0.0251,0.018578,0.0044036,0.031795,0.0014501,0.0033979,0.020681,0.015295,0.037034,-0.012225,0.01689,0.015091,0.02553,0.048098,0.21016,0.011276,0.027442
0.0019848,0.022723,0.014957,0.0024334,0.0051378,0.012453,0.014261,0.016918,0.023807,0.0054154,0.027412,0.0032011,0.00064794,0.013661,0.010578,0.026174,-0.0078939,0.0089238,0.010978,0.020818,0.026759,0.14752,0.010418,0.028174
0.00083694,0.021141,0.018558,0.0029696,0.0053692,0.012894,0.01681,0.020047,0.024096,0.0086061,0.029616,0.0083448,-0.0003872,0.012674,0.01175,0.022043,-0.0040882,0.0066839,0.012575,0.02571,0.013981,0.057203,0.010646,0.032859
-0.00033857,0.020511,0.023922,0.0061589,0.0053442,0.015392,0.023214,0.027039,0.022383,0.01061,0.034428,0.012348,0.0012131,0.01519,0.015575,0.020744,-0.0011532,0.0077607,0.016647,0.033144,0.0030161,-0.057735,0.010116,0.036035
-0.0031121,0.01826,0.022982,0.0082236,0.0056472,0.016675,0.028212,0.028787,0.021338,0.0084581,0.036278,0.012074,0.0046671,0.017013,0.017548,0.01747,0.0012554,0.0080876,0.019138,0.035337,-0.01469,-0.18789,0.0077512,0.032309
-0.0066955,0.013788,0.012969,0.0069811,0.0064435,0.015213,0.027828,0.021424,0.021364,0.0022547,0.032355,0.0081741,0.0078039,0.015418,0.0155,0.010774,0.0035639,0.005143,0.018419,0.02954,-0.042103,-0.31458,0.0044441,0.020803
-0.0086783,0.0089561,-0.0015504,0.0033358,0.0076326,0.011752,0.022139,0.0088159,0.020784,-0.004329,0.024783,0.0043285,0.0084496,0.010794,0.01125,0.0035175,0.0056865,-0.00040806,0.016395,0.019409,-0.073925,-0.41257,0.002355,0.0063661
-0.0074918,0.0065647,-0.012577,0.00047291,0.0090561,0.007964,0.014984,-0.0012818,0.017902,-0.0065245,0.018794,0.0040563,0.0059659,0.0056897,0.0088668,-0.00021064,0.0070466,-0.0059417,0.016424,0.011015,-0.1007,-0.45908,0.0027821,-0.0037768
-0.0043548,0.0081885,-0.015296,0.0014204,0.010452,0.0047477,0.010835,-0.003971,0.012972,-0.0021334,0.018364,0.0078594,0.0017907,0.0023956,0.010972,0.00080876,0.0072333,-0.0096952,0.019793,0.0071785,-0.11585,-0.44449,0.004637,-0.0054077
-0.0027575,0.013096,-0.011874,0.0067879,0.011315,0.0017579,0.011311,-0.0011055,0.0082482,0.0066203,0.022969,0.012986,-0.0015219,0.0012898,0.01626,0.0037189,0.0066635,-0.012441,0.023923,0.0052565,-0.11957,-0.37746,0.0052057,-0.00026618
-0.0056948,0.018886,-0.0092689,0.014245,0.011082,-0.0016528,0.014068,0.00074318,0.0061174,0.014713,0.028105,0.015643,-0.0021361,0.0011729,0.020389,0.0042826,0.0065397,-0.016387,0.024123,0.0002344,-0.11679,-0.28078,0.002722,0.0059217
-0.012964,0.022998,-0.013057,0.019979,0.0096536,-0.0053083,0.014828,-0.0038559,0.0070415,0.018161,0.029021,0.013533,-0.00027263,0.0008745,0.019527,0.00071093,0.0080239,-0.022404,0.017585,-0.0098946,-0.11202,-0.1802,-0.00166,0.0085192
-0.020954,0.023816,-0.022626,0.021021,0.0076714,-0.0081224,0.010834,-0.014677,0.0091918,0.016899,0.024423,0.0068189,0.0020394,0.0003779,0.013522,-0.0050854,0.011284,-0.028397,0.0061757,-0.021589,-0.10629,-0.093551,-0.0045686,0.0076114
-0.025278,0.020841,-0.031857,0.016892,0.0059897,-0.0090662,0.0030011,-0.026288,0.01008,0.014351,0.017095,-0.0025305,0.0026758,0.00046029,0.0060386,-0.0098088,0.015233,-0.030674,-0.0045601,-0.028515,-0.09832,-0.026426,-0.003387,0.0070676
-0.024137,0.014425,-0.034565,0.0096201,0.0046854,-0.0081412,-0.0048277,-0.032649,0.0087171,0.014228,0.011141,-0.011827,0.0012406,0.001433,0.001569,-0.012102,0.018218,-0.027276,-0.0095021,-0.027168,-0.087912,0.024703,0.0012015,0.010187
-0.019601,0.0057457,-0.029929,0.0023419,0.0027587,-0.0064265,-0.0087701,-0.031745,0.0064164,0.017423,0.0084218,-0.018351,-0.00055143,0.0023859,0.0018999,-0.013538,0.019133,-0.020223,-0.0077105,-0.020245,-0.077114,0.065787,0.0055684,0.016201
-0.015786,-0.0030618,-0.023221,-0.0024806,-0.00075814,-0.0052672,-0.0076227,-0.026604,0.0055906,0.021582,0.0072479,-0.019974,-0.00035049,0.0017236,0.004949,-0.016476,0.018142,-0.014453,-0.0026872,-0.014678,-0.068166,0.10025,0.0062177,0.020944
-0.015535,-0.0093063,-0.021318,-0.0041431,-0.0051177,-0.0054145,-0.0034181,-0.022419,0.007631,0.02346,0.0042715,-0.016236,0.0026771,-0.0015055,0.0068011,-0.021186,0.016537,-0.014144,0.00089098,-0.015994,-0.06076,0.12811,0.0028238,0.020913
-0.018453,-0.01105,-0.026911,-0.0035992,-0.0075145,-0.0067596,0.00039043,-0.022561,0.011649,0.021729,-0.0022734,-0.0093249,0.0068769,-0.0066908,0.0050596,-0.025235,0.015867,-0.019484,0.00092913,-0.023908,-0.052108,0.14799,-0.001542,0.016699
-0.021844,-0.0085868,-0.036317,-0.002479,-0.0050835,-0.0086308,0.0015404,-0.026643,0.015031,0.017798,-0.010867,-0.003559,0.009241,-0.011945,0.00064365,-0.025751,0.01694,-0.026566,-0.0010712,-0.032926,-0.040154,0.15914,-0.0031751,0.012434
-0.023456,-0.004722,-0.042565,-0.0019445,0.0021437,-0.010249,0.00033935,-0.031657,0.01522,0.01423,-0.017954,-0.002839,0.0077855,-0.015378,-0.0033508,-0.022281,0.019303,-0.030391,-0.0022195,-0.037248,-0.026584,0.16218,-0.00094176,0.011776
-0.023396,-0.0031843,-0.040981,-0.0020286,0.010215,-0.011101,-0.001104,-0.034704,0.011298,0.0125,-0.020944,-0.0076413,0.003207,-0.016398,-0.0045238,-0.01745,0.021552,-0.028433,-0.0011755,-0.035541,-0.016154,0.1588,0.0029419,0.014302
-0.023476,-0.0061122,-0.032638,-0.0017241,0.013759,-0.011239,-0.00098316,-0.035004,0.00432,0.012157,-0.020325,-0.01422,-0.0015571,-0.016086,-0.0031548,-0.014828,0.022289,-0.022031,0.0010241,-0.031427,-0.012507,0.1517,0.0051133,0.015771
-0.024804,-0.012538,-0.023091,0.00029959,0.010337,-0.011411,0.00059145,-0.033937,-0.0034834,0.011841,-0.019097,-0.017234,-0.003505,-0.01634,-0.0016026,-0.016003,0.021129,-0.014909,0.0026757,-0.029502,-0.014397,0.14482,0.0040974,0.012061
-0.026122,-0.019131,-0.017864,0.0047413,0.0028353,-0.012764,0.001806,-0.03354,-0.0098324,0.010823,-0.02017,-0.01396,-0.0017356,-0.018345,-0.0018259,-0.019536,0.018959,-0.010388,0.0034728,-0.03073,-0.016235,0.14313,0.0014038,0.0031055
-0.024668,-0.022634,-0.018565,0.010984,-0.0025496,-0.016051,0.00094467,-0.034849,-0.013185,0.0094942,-0.024092,-0.0065432,0.0020274,-0.021502,-0.0034381,-0.022563,0.017126,-0.009492,0.0045864,-0.031493,-0.012831,0.15111,-0.00018203,-0.0068095
-0.018883,-0.022032,-0.022541,0.017138,-0.0012407,-0.020831,-0.0018559,-0.037207,-0.013151,0.0085532,-0.02906,-0.00020083,0.0047994,-0.023753,-0.0041739,-0.023454,0.016123,-0.010947,0.006747,-0.027144,-0.0041428,0.17032,0.00057982,-0.012645
-0.010421,-0.018847,-0.025705,0.020914,0.0061219,-0.025401,-0.0045335,-0.038805,-0.010733,0.0080117,-0.033025,0.0011635,0.0044231,-0.023233,-0.0023409,-0.02312,0.014982,-0.012527,0.0085827,-0.016753,0.0043986,0.19783,0.002066,-0.012857
-0.0034303,-0.015573,-0.025688,0.020928,0.014556,-0.02768,-0.0048739,-0.037912,-0.008243,0.0071458,-0.035762,-0.0018525,0.00087372,-0.019972,0.0011319,-0.023954,0.012142,-0.012513,0.007284,-0.004667,0.0064197,0.22734,0.0011705,-0.010558
-0.001525,-0.013774,-0.022755,0.01759,0.019138,-0.026448,-0.0025919,-0.034022,-0.0084482,0.0053835,-0.038939,-0.0048483,-0.0039404,-0.01613,0.0031532,-0.027489,0.007231,-0.010449,0.001223,0.0025982,6.0992e-005,0.2529,-0.0038163,-0.010709
-0.0049617,-0.013385,-0.018409,0.012934,0.018845,-0.021973,0.00019543,-0.028292,-0.012925,0.003089,-0.0442,-0.0034136,-0.0074888,-0.014336,0.0011973,-0.032864,0.0021008,-0.0070737,-0.0079884,0.0014705,-0.010291,0.27297,-0.011331,-0.015897
-0.010384,-0.013516,-0.013642,0.0093984,0.016534,-0.015689,0.00063127,-0.023027,-0.020573,0.0013675,-0.051196,0.003379,-0.0080539,-0.015459,-0.004188,-0.037332,-0.00018967,-0.0037042,-0.016144,-0.0058912,-0.017223,0.29128,-0.017324,-0.024276
-0.013319,-0.013742,-0.0086686,0.008367,0.015542,-0.0093758,-0.0025005,-0.020418,-0.027717,0.0010716,-0.057495,0.012593,-0.0054795,-0.017817,-0.0095173,-0.038293,0.0020688,-0.0014041,-0.019399,-0.013344,-0.015424,0.31263,-0.018171,-0.03121
-0.011369,-0.014606,-0.0039284,0.009473,0.016446,-0.0045196,-0.0077854,-0.021181,-0.030289,0.0019851,-0.060412,0.019994,-0.0010355,-0.018651,-0.011173,-0.035176,0.0073071,-0.00031956,-0.016962,-0.015388,-0.0044941,0.33626,-0.013391,-0.033058
-0.0056563,-0.016943,-0.0006945,0.011087,0.016945,-0.0020166,-0.012431,-0.02396,-0.026796,0.0029422,-0.058981,0.022969,0.0032741,-0.016528,-0.008393,-0.029746,0.011353,0.00041449,-0.011238,-0.010865,0.012278,0.35237,-0.0060131,-0.029977
0.0003764,-0.020737,-0.00015949,0.011537,0.014533,-0.001955,-0.014564,-0.026072,-0.019677,0.0027491,-0.054305,0.021493,0.0054938,-0.012458,-0.0037616,-0.024738,0.010504,0.0020482,-0.0055033,-0.0031037,0.031274,0.34637,-0.00029716,-0.025671
0.0036084,-0.02461,-0.0018327,0.01013,0.0090612,-0.0034067,-0.014492,-0.025315,-0.013607,0.0011071,-0.048302,0.017085,0.0043473,-0.0087276,-0.00085748,-0.021966,0.0045227,0.0052607,-0.0013627,0.0030309,0.050841,0.30941,0.0013542,-0.024526
0.0032814,-0.026492,-0.0031797,0.0073572,0.0028055,-0.0046609,-0.013922,-0.021692,-0.011852,-0.0011762,-0.042372,0.011465,-0.00026685,-0.0067384,-0.0012952,-0.021333,-0.0031276,0.0096114,0.0018424,0.0044517,0.071033,0.2472,-0.00013324,-0.02844
0.0011282,-0.025048,-0.0013752,0.0043505,-0.0016343,-0.0042401,-0.014117,-0.017683,-0.013628,-0.0027869,-0.037275,0.0062269,-0.0069238,-0.0060517,-0.003804,-0.021354,-0.0081379,0.01386,0.0054863,0.0011261,0.091954,0.17908,-0.001636,-0.035622
-0.00018182,-0.020792,0.0041798,0.0021987,-0.0033531,-0.0021618,-0.014859,-0.016598,-0.014872,-0.002861,-0.033849,0.003105,-0.012787,-0.0054822,-0.0059169,-0.020571,-0.0088733,0.016886,0.0097248,-0.0049994,0.11275,0.12612,-0.00041069,-0.041951
0.0010284,-0.015984,0.010972,0.001579,-0.0033571,-0.00019784,-0.015119,-0.019995,-0.011889,-0.0016648,-0.033141,0.0035458,-0.014651,-0.0048623,-0.0064275,-0.018646,-0.007468,0.018423,0.013031,-0.011887,0.13205,0.096999,0.0040492,-0.04365
0.0044533,-0.013282,0.01518,0.0026888,-0.0032934,-0.00043916,-0.014541,-0.026044,-0.0047964,-0.00056558,-0.035308,0.0073579,-0.010827,-0.0054042,-0.0062917,-0.016315,-0.0076017,0.019064,0.013451,-0.018428,0.14897,0.083209,0.010135,-0.039389
0.0082362,-0.01402,0.014736,0.0051462,-0.0041935,-0.0031106,-0.014086,-0.030273,0.0023558,-0.0012566,-0.038479,0.011885,-0.0027899,-0.0081892,-0.0073691,-0.01448,-0.011083,0.019655,0.010209,-0.024192,0.1631,0.067974,0.015675,-0.030672
0.010351,-0.017304,0.010983,0.0077698,-0.0061393,-0.0057023,-0.01517,-0.028469,0.0049805,-0.0046572,-0.039325,0.013292,0.0049835,-0.012466,-0.010463,-0.013447,-0.016367,0.020678,0.004105,-0.02878,0.17363,0.041265,0.019361,-0.020762
0.0099706,-0.020622,0.0074973,0.0086283,-0.0085251,-0.0046677,-0.018256,-0.019831,0.0019447,-0.010188,-0.035553,0.0095747,0.0075527,-0.015786,-0.014579,-0.013031,-0.020196,0.02205,-0.0035098,-0.031737,0.17855,0.0074481,0.021072,-0.013113
0.0080119,-0.021567,0.0071756,0.0058261,-0.010282,0.0014013,-0.022413,-0.0080409,-0.0033983,-0.01597,-0.028248,0.0027598,0.0029602,-0.016089,-0.017945,-0.013258,-0.020577,0.023296,-0.012014,-0.033081,0.17514,-0.021375,0.021346,-0.010115
0.0066066,-0.019502,0.01011,-0.0011504,-0.01015,0.0098995,-0.026285,0.00078718,-0.0060967,-0.019879,-0.021614,-0.0021335,-0.006133,-0.013716,-0.019688,-0.014746,-0.018198,0.023793,-0.021704,-0.033622,0.16167,-0.039902,0.020858,-0.012362
0.007847,-0.01592,0.013903,-0.010535,-0.007479,0.015614,-0.029376,0.0020923,-0.0038887,-0.020753,-0.019849,-0.0010209,-0.014288,-0.011219,-0.020561,-0.018181,-0.015164,0.022965,-0.032718,-0.034422,0.13886,-0.057759,0.020312,-0.018362
0.012506,-0.013262,0.015856,-0.01889,-0.0033355,0.014573,-0.032194,-0.0039377,0.0009001,-0.018907,-0.023713,0.0056561,-0.017413,-0.011012,-0.022178,-0.023331,-0.012683,0.020534,-0.043846,-0.03573,0.10995,-0.092475,0.020386,-0.024913
0.019435,-0.01305,0.014999,-0.023193,-0.00065524,0.0071978,-0.03509,-0.012376,0.0035367,-0.015724,-0.029866,0.013008,-0.015807,-0.013092,-0.025562,-0.028634,-0.010258,0.016837,-0.052604,-0.036533,0.079185,-0.15278,0.021354,-0.028462
0.026022,-0.014791,0.012369,-0.022932,-0.0025173,-0.0019204,-0.037114,-0.016984,0.0012092,-0.012778,-0.033599,0.015647,-0.013501,-0.015033,-0.030302,-0.031944,-0.0071622,0.01294,-0.056816,-0.035375,0.050002,-0.2274,0.022612,-0.027166
0.02953,-0.016492,0.009687,-0.020424,-0.0094076,-0.0074466,-0.036389,-0.014703,-0.0043515,-0.011185,-0.03247,0.012166,-0.014469,-0.014267,-0.034958,-0.031909,-0.0043455,0.01021,-0.05649,-0.031907,0.024261,-0.29021,0.022741,-0.022417
0.028597,-0.016374,0.0078363,-0.018901,-0.017919,-0.0070701,-0.031957,-0.0078334,-0.0083222,-0.01145,-0.027691,0.0061721,-0.019071,-0.010489,-0.038175,-0.028856,-0.0043393,0.0094242,-0.054293,-0.027678,0.0028208,-0.31818,0.020356,-0.018345
0.023985,-0.014397,0.0064449,-0.019885,-0.02267,-0.0026531,-0.025406,-0.0021283,-0.0070671,-0.013559,-0.022394,0.0029866,-0.023871,-0.0059508,-0.039452,-0.024522,-0.0088407,0.0099978,-0.053969,-0.025257,-0.013423,-0.30704,0.015168,-0.01907
0.01803,-0.012364,0.0046421,-0.022145,-0.02045,0.0018024,-0.020453,-0.0021292,-0.0014622,-0.016986,-0.018803,0.0049856,-0.024882,-0.0034532,-0.03892,-0.020949,-0.016349,0.010043,-0.057736,-0.026285,-0.023294,-0.27198,0.0083646,-0.025423
0.013165,-0.012546,0.0020855,-0.023173,-0.013237,0.0033356,-0.020512,-0.0074017,0.0037252,-0.02068,-0.016974,0.0097736,-0.021225,-0.0039446,-0.036531,-0.019382,-0.022584,0.0074002,-0.064643,-0.030154,-0.026275,-0.23395,0.0020046,-0.033814
0.010547,-0.015974,-0.00066628,-0.021811,-0.0071772,0.001773,-0.026159,-0.012782,0.0039131,-0.023344,-0.015783,0.0127,-0.015959,-0.005857,-0.031721,-0.019804,-0.023835,0.0010184,-0.071251,-0.034515,-0.023842,-0.2044,-0.0020704,-0.038574
0.009778,-0.021732,-0.0025832,-0.019552,-0.0079645,-0.00092249,-0.034711,-0.012565,-0.0013515,-0.024081,-0.014549,0.011278,-0.01349,-0.0066418,-0.024133,-0.021112,-0.020338,-0.0083039,-0.074179,-0.03717,-0.019848,-0.18114,-0.0030219,-0.036318
0.0098218,-0.027643,-0.0028613,-0.019254,-0.016285,-0.0026279,-0.042305,-0.0052396,-0.0080839,-0.022986,-0.013443,0.0074245,-0.016016,-0.0050275,-0.014811,-0.021655,-0.016402,-0.01841,-0.072503,-0.037649,-0.019311,-0.15687,-0.0012184,-0.028874
0.010186,-0.031628,-0.001327,-0.022489,-0.027185,-0.0025904,-0.046682,0.005216,-0.01144,-0.021107,-0.01261,0.0055291,-0.022034,-0.0020283,-0.0064646,-0.01994,-0.01688,-0.02725,-0.068088,-0.037081,-0.026197,-0.13076,0.0018965,-0.022191
0.011245,-0.032637,0.001553,-0.028064,-0.033946,-0.0015919,-0.048353,0.012597,-0.0099177,-0.019687,-0.011448,0.0082262,-0.027913,5.6491e-005,-0.0019918,-0.015369,-0.023059,-0.034363,-0.06361,-0.036552,-0.041724,-0.11236,0.0040697,-0.021824
0.013412,-0.03074,0.0048208,-0.033156,-0.033201,-0.0010841,-0.049363,0.013478,-0.0063859,-0.019272,-0.0091711,0.013774,-0.030812,-0.00031666,-0.0022272,-0.0086675,-0.03165,-0.041394,-0.060036,-0.035557,-0.064383,-0.1158,0.0028653,-0.028528
0.016023,-0.026741,0.0071988,-0.035943,-0.027044,-0.0021742,-0.050968,0.0096166,-0.0050909,-0.019436,-0.0060371,0.017425,-0.030397,-0.0026213,-0.0050293,-0.0015878,-0.037742,-0.051226,-0.055882,-0.032085,-0.091644,-0.15173,-0.0031084,-0.037577
0.017213,-0.021861,0.0074377,-0.037124,-0.020679,-0.0050495,-0.052378,0.0057537,-0.0075591,-0.019353,-0.003646,0.015514,-0.028234,-0.0047603,-0.0070228,0.0041479,-0.038941,-0.06615,-0.048998,-0.024462,-0.12204,-0.22489,-0.012866,-0.042455
0.015199,-0.017523,0.0049635,-0.038844,-0.018018,-0.0089249,-0.051575,0.0050157,-0.011267,-0.018663,-0.0036522,0.0085409,-0.025878,-0.0049347,-0.006827,0.007955,-0.037018,-0.086064,-0.039251,-0.013428,-0.15597,-0.33774,-0.022857,-0.039978
0.010017,-0.014932,0.00052212,-0.042141,-0.019134,-0.012393,-0.047354,0.0062303,-0.012255,-0.01784,-0.006031,0.00048826,-0.023565,-0.0032864,-0.0067845,0.010548,-0.035874,-0.10778,-0.029492,-0.0025683,-0.1946,-0.49335,-0.028811,-0.03272
0.0041339,-0.014452,-0.0038296,-0.045604,-0.021353,-0.014084,-0.040703,0.0055628,-0.0090623,-0.017821,-0.0087236,-0.0049174,-0.020489,-0.0018677,-0.011149,0.012806,-0.037977,-0.12607,-0.023614,0.003597,-0.23753,-0.69117,-0.028887,-0.026813
0.0010783,-0.015324,-0.0057579,-0.046755,-0.0223,-0.013461,-0.03431,0.0007139,-0.004154,-0.019297,-0.0092305,-0.0075028,-0.016082,-0.0028666,-0.02195,0.014237,-0.042513,-0.13609,-0.023263,0.0026376,-0.28107,-0.91789,-0.025809,-0.026947
0.0029368,-0.016249,-0.0042321,-0.044865,-0.02178,-0.011323,-0.030599,-0.0064797,-0.001505,-0.022298,-0.006793,-0.010434,-0.010933,-0.0065583,-0.036304,0.012604,-0.0465,-0.13607,-0.026229,-0.0039073,-0.31844,-1.143,-0.025847,-0.03258
0.008623,-0.016543,-0.00048689,-0.042256,-0.021065,-0.009552,-0.029923,-0.011548,-0.0027574,-0.026251,-0.0031363,-0.016708,-0.0065751,-0.010833,-0.048077,0.0055481,-0.047407,-0.12851,-0.02815,-0.011347,-0.34196,-1.3267,-0.034777,-0.038381
0.014408,-0.016816,0.0025607,-0.042453,-0.020939,-0.010028,-0.030381,-0.011442,-0.0056841,-0.030207,-0.0010414,-0.025684,-0.004419,-0.012893,-0.052842,-0.0067376,-0.0448,-0.1189,-0.026139,-0.014853,-0.34604,-1.4386,-0.053531,-0.038484
0.016474,-0.018364,0.0022358,-0.046699,-0.020821,-0.013339,-0.029436,-0.0071455,-0.0063814,-0.032973,-0.0020104,-0.03303,-0.0048078,-0.01177,-0.05176,-0.020041,-0.039938,-0.11233,-0.021094,-0.012443,-0.32944,-1.4727,-0.076881,-0.031133
0.013629,-0.021705,-0.0019562,-0.052199,-0.019681,-0.018223,-0.026041,-0.0023463,-0.0029995,-0.033299,-0.0051096,-0.034332,-0.0068557,-0.0094338,-0.050636,-0.027635,-0.034233,-0.11021,-0.016586,-0.0056997,-0.29545,-1.4475,-0.096304,-0.02005
0.0081588,-0.025665,-0.0078366,-0.054145,-0.017386,-0.022262,-0.021534,0.00035449,0.0025678,-0.030445,-0.0079679,-0.02915,-0.0090387,-0.0093293,-0.054686,-0.024295,-0.028235,-0.10938,-0.015425,0.0020884,-0.25004,-1.3889,-0.10492,-0.011476
0.0041677,-0.028067,-0.011929,-0.049976,-0.014801,-0.023414,-0.018503,0.0018385,0.0065264,-0.024975,-0.0089328,-0.021775,-0.0099756,-0.013447,-0.063614,-0.010112,-0.021861,-0.10447,-0.017102,0.0086191,-0.19894,-1.3084,-0.10094,-0.0093511
0.0046448,-0.027545,-0.011746,-0.042026,-0.01263,-0.021327,-0.018488,0.0050742,0.0066404,-0.019018,-0.0083741,-0.01783,-0.0088806,-0.020368,-0.071491,0.0089308,-0.015232,-0.091984,-0.018418,0.013767,-0.14515,-1.1964,-0.087408,-0.012518
0.0093762,-0.024813,-0.0074024,-0.035919,-0.010528,-0.017542,-0.020447,0.01138,0.0039875,-0.015347,-0.0079866,-0.019641,-0.005584,-0.025988,-0.071687,0.024446,-0.0090479,-0.072986,-0.016536,0.018474,-0.088502,-1.035,-0.069263,-0.016109
0.015132,-0.022096,-0.001525,-0.035858,-0.0076738,-0.014492,-0.021371,0.018177,0.0015393,-0.015578,-0.0088579,-0.024494,-0.0003875,-0.026383,-0.062576,0.030863,-0.0041492,-0.052516,-0.011469,0.022698,-0.027507,-0.82099,-0.05042,-0.015776
0.017895,-0.021168,0.0023692,-0.040947,-0.004187,-0.014059,-0.018694,0.020654,0.0012277,-0.018867,-0.010226,-0.02732,0.0059652,-0.020571,-0.049061,0.028574,-0.00079015,-0.036026,-0.0057194,0.024621,0.037629,-0.57759,-0.032863,-0.011064
0.015534,-0.021831,0.0019132,-0.04586,-0.0016615,-0.016611,-0.012529,0.015982,0.0024559,-0.022373,-0.01017,-0.025437,0.012221,-0.011124,-0.038726,0.022713,0.001591,-0.025632,-0.0016461,0.022038,0.103,-0.34388,-0.017414,-0.0051532
0.0091368,-0.022288,-0.0028496,-0.045382,-0.0019092,-0.021018,-0.0057728,0.0062096,0.0033069,-0.023363,-0.0075759,-0.021103,0.016752,-0.0023903,-0.03609,0.018661,0.0038925,-0.018897,0.00069559,0.014724,0.1617,-0.15042,-0.0045363,-0.0014342
0.0022498,-0.021059,-0.0095771,-0.038836,-0.0049893,-0.025466,-0.0018965,-0.0028978,0.0028617,-0.02132,-0.003435,-0.019601,0.01811,0.0021781,-0.039844,0.017911,0.0066002,-0.010816,0.0031505,0.005484,0.20696,-0.0019502,0.0057979,-0.00018271
-0.0013607,-0.01854,-0.014938,-0.030529,-0.008532,-0.028439,-0.0021801,-0.00619,0.0020165,-0.018237,-9.446e-005,-0.024509,0.015821,0.0017251,-0.045053,0.017437,0.0093868,0.0027132,0.0070631,-0.0013302,0.23571,0.11776,0.014432,0.0016774
5.7939e-005,-0.01666,-0.016445,-0.025891,-0.0092579,-0.029276,-0.0046746,-0.0029185,0.0019819,-0.01677,0.0009157,-0.034276,0.010842,-0.0021809,-0.047858,0.012739,0.011326,0.022536,0.01146,-0.0028229,0.24978,0.22466,0.022415,0.0076693
0.0053637,-0.016949,-0.013935,-0.026816,-0.0055132,-0.02812,-0.0057406,0.0031822,0.0023045,-0.017876,0.00040455,-0.043099,0.0052246,-0.0070988,-0.048349,0.0017962,0.011527,0.046435,0.01375,0.00037541,0.25394,0.31736,0.029588,0.018529
0.011386,-0.018931,-0.0099098,-0.030315,0.0013565,-0.025506,-0.0029007,0.0074133,0.00088879,-0.020027,0.00080991,-0.045368,0.0010625,-0.011365,-0.049359,-0.013278,0.0097887,0.071279,0.01229,0.0047755,0.25231,0.38032,0.033973,0.031579
0.014841,-0.020459,-0.0082924,-0.031517,0.0079687,-0.022036,0.0032503,0.0080385,-0.0036651,-0.020721,0.003777,-0.040026,-0.00061593,-0.014735,-0.052858,-0.027885,0.0069585,0.095236,0.0082569,0.006956,0.24593,0.40339,0.033193,0.043048
0.014044,-0.019707,-0.012006,-0.028178,0.011361,-0.018364,0.0094959,0.0072213,-0.009816,-0.018867,0.0082623,-0.031315,-0.00027088,-0.017787,-0.057603,-0.038143,0.0048171,0.11846,0.0049275,0.0063217,0.23349,0.39738,0.027102,0.050949
0.0094722,-0.016931,-0.020712,-0.022595,0.010918,-0.01532,0.012356,0.0083317,-0.01364,-0.015804,0.011049,-0.025441,0.00065062,-0.020853,-0.060179,-0.042958,0.0054487,0.14192,0.0049363,0.0053544,0.21421,0.38929,0.019084,0.055827
0.0030923,-0.014319,-0.030415,-0.019323,0.0083537,-0.013815,0.010539,0.01222,-0.012196,-0.01402,0.0094008,-0.025967,0.00075759,-0.023533,-0.058152,-0.043694,0.01023,0.16554,0.0080278,0.0071508,0.19017,0.4004,0.014241,0.05901
-0.0028738,-0.014038,-0.035701,-0.020904,0.0060309,-0.014408,0.0057471,0.015921,-0.0066045,-0.014816,0.0035769,-0.031508,-0.00038753,-0.025237,-0.052191,-0.04234,0.018859,0.18704,0.011291,0.012401,0.16597,0.42775,0.015497,0.060455
-0.0069279,-0.016271,-0.033449,-0.025518,0.0051809,-0.016828,0.001407,0.015019,-0.001571,-0.017161,-0.0030226,-0.037286,-0.0020251,-0.026087,-0.045244,-0.040038,0.029049,0.20266,0.011568,0.018445,0.14583,0.44685,0.020911,0.058587
-0.008656,-0.018987,-0.025403,-0.028616,0.0054294,-0.019947,0.00032551,0.0075671,-0.0013275,-0.018811,-0.0063194,-0.038989,-0.0026835,-0.027046,-0.039808,-0.037013,0.037365,0.20926,0.007859,0.021184,0.1308,0.43377,0.024825,0.052285
-0.0086001,-0.01959,-0.017407,-0.026977,0.0057353,-0.022361,0.0029456,-0.0039342,-0.0056065,-0.018553,-0.0046314,-0.035841,-0.0010714,-0.028884,-0.035997,-0.033429,0.040983,0.20644,0.001788,0.018142,0.11862,0.38724,0.022247,0.04287
-0.0078999,-0.016946,-0.015507,-0.021523,0.0056461,-0.023189,0.0073074,-0.014249,-0.0095914,-0.017344,0.00011645,-0.030733,0.003138,-0.030967,-0.03209,-0.030002,0.039361,0.19701,-0.0039277,0.01008,0.1062,0.33133,0.012951,0.033764
-0.0077907,-0.012095,-0.021703,-0.016469,0.0056575,-0.02247,0.010567,-0.01926,-0.0081824,-0.017249,0.003953,-0.027717,0.0090871,-0.031327,-0.026639,-0.027749,0.03458,0.18537,-0.0074258,0.00010003,0.092586,0.29748,0.0018211,0.027788
-0.0089909,-0.0072219,-0.032607,-0.015663,0.0064494,-0.020884,0.010867,-0.018621,-0.00073181,-0.019299,0.0038716,-0.028996,0.015217,-0.028285,-0.01991,-0.027271,0.029899,0.17501,-0.0084827,-0.0086071,0.079626,0.3029,-0.004891,0.024536
-0.011243,-0.0039756,-0.042081,-0.019382,0.0078809,-0.019089,0.0082537,-0.015157,0.0082129,-0.022431,-7.6932e-005,-0.033559,0.020165,-0.02223,-0.013363,-0.028393,0.027459,0.16716,-0.007904,-0.014335,0.07012,0.34377,-0.0042968,0.020478
-0.013437,-0.0026149,-0.04576,-0.02425,0.0088365,-0.017262,0.0042127,-0.011975,0.012914,-0.024516,-0.0051124,-0.03811,0.023496,-0.01569,-0.0080216,-0.030482,0.026919,0.16181,-0.0065057,-0.016906,0.065313,0.4068,0.0012497,0.012039
-0.014417,-0.0024638,-0.043835,-0.026117,0.0081543,-0.015211,0.00048768,-0.010146,0.011426,-0.024393,-0.0080346,-0.039327,0.025782,-0.011389,-0.0035933,-0.033051,0.026189,0.15986,-0.0046991,-0.016976,0.064232,0.48524,0.0064394,-0.00095829
-0.013931,-0.002905,-0.040064,-0.02331,0.0057838,-0.012861,-0.0017655,-0.0088002,0.0069044,-0.022873,-0.0076404,-0.03592,0.027998,-0.010055,0.00082941,-0.035972,0.023711,0.16394,-0.0027902,-0.015697,0.065233,0.5828,0.007272,-0.01472
-0.012892,-0.0038021,-0.038155,-0.017629,0.0030493,-0.010614,-0.002007,-0.006976,0.004183,-0.021791,-0.005465,-0.029342,0.030692,-0.010117,0.0054306,-0.039074,0.020251,0.17623,-0.0013366,-0.014759,0.067932,0.70227,0.0036817,-0.024608
-0.012639,-0.0050711,-0.03877,-0.012636,0.0016952,-0.0092196,4.2638e-005,-0.0049807,0.0051628,-0.022156,-0.0044346,-0.022919,0.033529,-0.0096463,0.0092948,-0.041545,0.0185,0.19476,-0.0009999,-0.015917,0.073348,0.8311,-0.0013599,-0.029438
-0.013847,-0.006147,-0.039581,-0.010978,0.0025199,-0.0092145,0.0043862,-0.0039591,0.0075068,-0.02325,-0.0065451,-0.019925,0.035591,-0.0086005,0.011491,-0.041843,0.02072,0.21176,-0.002024,-0.019712,0.081978,0.93952,-0.0049973,-0.033089
-0.016076,-0.0061958,-0.037969,-0.012872,0.0047852,-0.01038,0.010202,-0.0045138,0.0076805,-0.023441,-0.011279,-0.021618,0.036274,-0.0090764,0.012493,-0.038397,0.02652,0.21673,-0.0039487,-0.024513,0.091736,0.99466,-0.0068924,-0.04167
-0.018315,-0.0049853,-0.033711,-0.016518,0.0068849,-0.01169,0.015477,-0.0061876,0.0050146,-0.021767,-0.015866,-0.026419,0.036157,-0.013211,0.014358,-0.030691,0.032863,0.20299,-0.0059499,-0.027355,0.097893,0.97903,-0.008931,-0.058342
-0.019866,-0.0034076,-0.029243,-0.019553,0.0076328,-0.01192,0.017676,-0.0084255,0.0026002,-0.018724,-0.017184,-0.030849,0.037092,-0.020736,0.019224,-0.019922,0.036377,0.17298,-0.0075448,-0.026482,0.095384,0.89849,-0.012933,-0.080186
-0.020653,-0.0028219,-0.027445,-0.020236,0.0070277,-0.010578,0.015418,-0.011715,0.0041994,-0.015653,-0.014002,-0.031818,0.041144,-0.028565,0.027345,-0.0085978,0.03589,0.1375,-0.0090041,-0.023466,0.081753,0.77493,-0.018772,-0.10002
-0.02076,-0.0036122,-0.029106,-0.017798,0.0059074,-0.0084474,0.0098958,-0.017229,0.010412,-0.01352,-0.0080079,-0.028732,0.048837,-0.032865,0.036419,0.00074853,0.032915,0.10876,-0.011051,-0.022575,0.058672,0.63253,-0.024614,-0.11185
-0.019964,-0.0043781,-0.032328,-0.012297,0.0049439,-0.0071636,0.0045756,-0.024991,0.017972,-0.012278,-0.002846,-0.023879,0.057961,-0.031775,0.042936,0.0068872,0.029781,0.092058,-0.014077,-0.027385,0.031203,0.48965,-0.028803,-0.11537
-0.017983,-0.0028171,-0.034247,-0.0045773,0.0039821,-0.0078892,0.0029275,-0.032522,0.022776,-0.01121,-0.0017294,-0.020755,0.06414,-0.026453,0.044564,0.010322,0.027376,0.082324,-0.017559,-0.037386,0.0056001,0.36007,-0.03139,-0.11551
-0.01525,0.0022128,-0.033409,0.0036286,0.0023203,-0.010045,0.0057149,-0.035862,0.023495,-0.0096572,-0.0052155,-0.021634,0.063314,-0.019871,0.041726,0.012532,0.024761,0.068092,-0.020209,-0.047802,-0.013121,0.25693,-0.033893,-0.11746
-0.013183,0.009264,-0.030712,0.0099008,-0.00038393,-0.011302,0.010103,-0.032611,0.022225,-0.0074051,-0.0107,-0.026328,0.054642,-0.014713,0.037178,0.014648,0.020892,0.039504,-0.020785,-0.053141,-0.022931,0.19187,-0.037703,-0.12175
-0.013277,0.01496,-0.028264,0.012011,-0.0034491,-0.0092417,0.011613,-0.024374,0.021785,-0.0045893,-0.01404,-0.032931,0.041618,-0.012184,0.03402,0.016623,0.016469,-0.005851,-0.018948,-0.051574,-0.025321,0.16964,-0.042834,-0.12377
-0.015636,0.01639,-0.027356,0.0092195,-0.0053571,-0.0035999,0.0076259,-0.016165,0.022614,-0.0015305,-0.012235,-0.039608,0.03016,-0.012208,0.033703,0.017559,0.013738,-0.063008,-0.015497,-0.046256,-0.024211,0.18592,-0.048131,-0.1185
-0.018432,0.013261,-0.027391,0.0031089,-0.004667,0.0028341,-0.00033555,-0.012908,0.022423,0.0012424,-0.005385,-0.045604,0.024735,-0.014109,0.0355,0.016839,0.014258,-0.12417,-0.011781,-0.042347,-0.023409,0.23334,-0.052515,-0.10573
-0.019151,0.0080005,-0.026659,-0.0028944,-0.00099107,0.0058367,-0.0074909,-0.015827,0.01879,0.0029974,0.0033531,-0.050655,0.025336,-0.016782,0.037589,0.014994,0.016915,-0.18307,-0.0087206,-0.042369,-0.024068,0.31058,-0.055889,-0.090933
-0.016791,0.0038178,-0.024143,-0.0053283,0.0046077,0.0029385,-0.0092781,-0.021732,0.011914,0.0031341,0.0097039,-0.053754,0.027764,-0.018495,0.038679,0.013454,0.018419,-0.236,-0.0061653,-0.044117,-0.0243,0.4242,-0.058883,-0.080836
-0.012996,0.0024863,-0.020693,-0.0027707,0.010017,-0.0043856,-0.0046608,-0.025714,0.0047181,0.0016985,0.010856,-0.052999,0.02711,-0.01722,0.038827,0.013338,0.016093,-0.2802,-0.0030957,-0.04296,-0.021859,0.57831,-0.061928,-0.077546
-0.010861,0.0036608,-0.018416,0.003298,0.013062,-0.011576,0.0033514,-0.024918,0.00031504,-0.00046313,0.0071,-0.047082,0.021681,-0.011864,0.038886,0.014411,0.010369,-0.31282,0.0014608,-0.03633,-0.017951,0.76027,-0.064682,-0.076829
-0.012224,0.0059359,-0.018739,0.0095826,0.012608,-0.014422,0.010242,-0.020307,-0.00055173,-0.0021926,0.0015948,-0.037079,0.014174,-0.0034866,0.039268,0.015209,0.0045427,-0.33203,0.0075156,-0.026171,-0.018363,0.93626,-0.066278,-0.072042
-0.015872,0.0082768,-0.020817,0.013286,0.0092215,-0.012242,0.013345,-0.015268,0.00041986,-0.0027539,-0.0015936,-0.02649,0.0091913,0.0048532,0.03921,0.014274,0.0019867,-0.3388,0.014022,-0.017116,-0.029763,1.0635,-0.06596,-0.060159
-0.018468,0.010419,-0.021849,0.013923,0.0049668,-0.0080656,0.013278,-0.012553,0.0014084,-0.0021192,4.1983e-007,-0.019002,0.0093244,0.0099496,0.037317,0.011332,0.0034554,-0.33644,0.019805,-0.012187,-0.053472,1.1114,-0.06343,-0.044429
-0.01756,0.01219,-0.019304,0.013293,0.0023073,-0.0056904,0.012585,-0.012192,0.0027114,-0.0006072,0.0057368,-0.015796,0.013222,0.010668,0.032984,0.0073541,0.0069442,-0.32754,0.024815,-0.010079,-0.082189,1.0765,-0.058814,-0.031381
-0.013934,0.01293,-0.013278,0.013764,0.0026922,-0.006321,0.013133,-0.011874,0.0066148,0.0015878,0.0124,-0.014937,0.01722,0.0086862,0.027502,0.0035306,0.0099836,-0.31113,0.030518,-0.006477,-0.10357,0.98003,-0.052563,-0.025074
-0.01099,0.011928,-0.0068368,0.016403,0.0057579,-0.0078344,0.014681,-0.0091601,0.015005,0.0043462,0.016488,-0.013578,0.01886,0.0071058,0.023693,0.00032358,0.011932,-0.2833,0.038808,0.0019684,-0.10878,0.85395,-0.045475,-0.023821
-0.011508,0.0094831,-0.003717,0.020455,0.0097455,-0.0072122,0.015621,-0.0035993,0.027048,0.0071427,0.01666,-0.010918,0.01898,0.0081157,0.024087,-0.00244,0.014086,-0.24167,0.050125,0.014782,-0.099311,0.72437,-0.038545,-0.022147
-0.01476,0.0072741,-0.0051082,0.024398,0.012841,-0.0036987,0.014873,0.0028365,0.039165,0.008907,0.014511,-0.0089363,0.02048,0.011603,0.028914,-0.0047082,0.017826,-0.18989,0.0624,0.028408,-0.086014,0.60406,-0.032431,-0.015836
-0.016805,0.0072998,-0.0082791,0.027397,0.014395,0.0003694,0.013008,0.0071645,0.047355,0.0087519,0.013057,-0.010037,0.024987,0.015649,0.035601,-0.0058046,0.022963,-0.13772,0.072015,0.039538,-0.080755,0.49362,-0.026869,-0.0052531
-0.013933,0.010141,-0.0084543,0.029772,0.015087,0.00181,0.011712,0.0075303,0.049779,0.0070633,0.01417,-0.013856,0.030654,0.018229,0.040419,-0.005211,0.027982,-0.095838,0.076302,0.047686,-0.087411,0.38622,-0.020722,0.0060139
-0.0062261,0.014182,-0.0026074,0.032207,0.016051,-0.00029546,0.012331,0.0045599,0.047444,0.0057659,0.017107,-0.016547,0.033243,0.018683,0.0412,-0.0037509,0.031659,-0.069151,0.07561,0.054706,-0.099691,0.27213,-0.012819,0.015606
0.0021174,0.016696,0.0079222,0.034654,0.017824,-0.0036156,0.014915,0.0010031,0.042645,0.0071413,0.019334,-0.01361,0.029639,0.018056,0.038974,-0.0035786,0.034107,-0.053839,0.073127,0.062105,-0.10745,0.14303,-0.0029188,0.025418
0.0061227,0.015959,0.018225,0.036156,0.020041,-0.0046162,0.018458,-0.00011608,0.036849,0.011976,0.018879,-0.0038928,0.020705,0.018416,0.037126,-0.006379,0.036105,-0.040385,0.072435,0.069133,-0.1059,-0.0025219,0.0080936,0.040084
0.0041274,0.012555,0.023464,0.035758,0.021946,-0.0017071,0.021793,0.0023843,0.029967,0.018655,0.016118,0.0088871,0.010949,0.021737,0.038661,-0.011175,0.037643,-0.020036,0.074728,0.073592,-0.09971,-0.15489,0.018899,0.062173
-0.0010107,0.0086881,0.022465,0.033569,0.023016,0.0033694,0.024201,0.0069471,0.021489,0.024132,0.013488,0.018578,0.0052485,0.028802,0.043805,-0.014029,0.037531,0.010084,0.077962,0.074383,-0.098783,-0.29518,0.028509,0.088648
-0.0045402,0.0061997,0.018402,0.030856,0.02304,0.0070595,0.025394,0.010322,0.01212,0.026082,0.013412,0.020991,0.0053399,0.038473,0.049893,-0.010533,0.034698,0.046218,0.078566,0.072962,-0.10963,-0.40465,0.036377,0.11222
-0.003758,0.0052036,0.016178,0.029048,0.021757,0.006991,0.025279,0.0099116,0.0041192,0.024451,0.016258,0.016649,0.0088248,0.047759,0.053573,0.00060161,0.029791,0.080943,0.074235,0.072018,-0.12992,-0.47624,0.042039,0.12687
0.00026764,0.0046426,0.018681,0.028633,0.018724,0.0038959,0.024024,0.0057689,-0.00015125,0.021193,0.020022,0.0099337,0.011293,0.053061,0.053394,0.015862,0.025229,0.10705,0.065515,0.072659,-0.15066,-0.51894,0.045151,0.13279
0.0044286,0.0041089,0.024896,0.029007,0.013836,0.0010446,0.022312,0.00074652,-0.00026052,0.018569,0.021933,0.0057525,0.0096784,0.052213,0.050635,0.028825,0.023408,0.12015,0.05506,0.073059,-0.1635,-0.55004,0.046199,0.13642
0.0067489,0.0049143,0.031144,0.029374,0.0080277,0.0018487,0.021263,-0.0013718,0.0015784,0.017555,0.020659,0.0065482,0.0042529,0.045992,0.047872,0.034341,0.024724,0.11961,0.045425,0.070171,-0.16671,-0.58087,0.046996,0.14496
0.0079012,0.0090564,0.03417,0.02972,0.0032336,0.0075038,0.021754,0.0015704,0.0019382,0.017566,0.017377,0.011594,-0.0020098,0.037785,0.046682,0.031816,0.027265,0.10863,0.037296,0.06304,-0.1648,-0.60772,0.049851,0.16002
0.0099084,0.016879,0.03344,0.030843,0.0012319,0.016202,0.023596,0.0087034,-0.001252,0.017421,0.014921,0.018331,-0.0058914,0.031368,0.046526,0.025188,0.028352,0.093326,0.02945,0.054534,-0.1628,-0.61606,0.05558,0.17544
0.013688,0.025753,0.030954,0.033394,0.0021538,0.02421,0.025367,0.01685,-0.0070499,0.016481,0.015692,0.024189,-0.0062172,0.028424,0.045623,0.019844,0.026398,0.080643,0.020197,0.049686,-0.1607,-0.5948,0.062097,0.18143
0.018007,0.031375,0.029106,0.036887,0.0040067,0.028044,0.025241,0.02271,-0.012167,0.01503,0.019837,0.02765,-0.0044008,0.027784,0.042854,0.019012,0.021524,0.075257,0.0090249,0.051946,-0.15293,-0.54808,0.065254,0.17164
0.020718,0.030888,0.028703,0.039687,0.003862,0.0265,0.022275,0.024826,-0.013537,0.013864,0.025016,0.028443,-0.0031111,0.026938,0.038928,0.022189,0.014874,0.077124,-0.0027351,0.060515,-0.13326,-0.49432,0.06164,0.14765
0.020811,0.025202,0.02882,0.040038,-5.1307e-005,0.02144,0.017149,0.023968,-0.010819,0.013687,0.027916,0.027334,-0.0042385,0.024401,0.035812,0.026304,0.0077649,0.081742,-0.01244,0.070832,-0.10065,-0.45324,0.051048,0.11757
0.019153,0.018434,0.028299,0.037296,-0.006943,0.016764,0.011786,0.021933,-0.0068466,0.014754,0.026537,0.025768,-0.0076539,0.020831,0.034982,0.02831,0.0015228,0.0834,-0.017345,0.077537,-0.061408,-0.43235,0.036415,0.090112
0.017331,0.014882,0.02716,0.032352,-0.013833,0.015972,0.0081825,0.019961,-0.0056301,0.0167,0.021705,0.025294,-0.011508,0.018077,0.036066,0.027202,-0.0023458,0.079228,-0.01578,0.077406,-0.025963,-0.42431,0.021344,0.069106
0.015988,0.016042,0.02649,0.027043,-0.017407,0.019736,0.0073397,0.018069,-0.0093852,0.018337,0.01673,0.026803,-0.013661,0.017267,0.037015,0.02432,-0.002504,0.07094,-0.0078655,0.070358,-0.0028944,-0.41647,0.0075249,0.052265
0.014387,0.020058,0.027007,0.023105,-0.01603,0.025274,0.0089987,0.015596,-0.016835,0.017476,0.015355,0.030001,-0.013107,0.017834,0.035642,0.022114,0.0012519,0.062936,0.0043976,0.058601,0.0055463,-0.40281,-0.0055951,0.034507
0.011577,0.02377,0.02794,0.021418,-0.01065,0.028264,0.012105,0.01216,-0.024012,0.011183,0.019294,0.033601,-0.010414,0.018291,0.031234,0.022406,0.0073937,0.058478,0.017719,0.045228,0.0038355,-0.3867,-0.018853,0.012434
0.0078099,0.025369,0.027518,0.021856,-0.0041941,0.026144,0.015424,0.0080565,-0.026899,-0.0033503,0.027071,0.036218,-0.0070156,0.017867,0.025011,0.025223,0.013366,0.057201,0.028624,0.033194,-0.00018703,-0.37237,-0.031243,-0.013724
0.0046814,0.025352,0.024684,0.023544,3.0989e-005,0.020273,0.017839,0.0038984,-0.023926,-0.027627,0.035028,0.037386,-0.0040421,0.017329,0.019235,0.028796,0.01728,0.055927,0.034626,0.024536,-7.2712e-005,-0.35419,-0.039826,-0.04158
0.0037709,0.025255,0.020355,0.025259,5.7736e-005,0.015032,0.018391,0.00017568,-0.016672,-0.060999,0.039892,0.037948,-0.0016215,0.018199,0.015768,0.030707,0.019133,0.051801,0.034886,0.01947,0.0056989,-0.31525,-0.041813,-0.069186
0.0051053,0.025713,0.0169,0.025867,-0.0037313,0.014389,0.016447,-0.0026326,-0.0085492,-0.10054,0.04104,0.039552,0.00087782,0.021135,0.015138,0.029556,0.020342,0.044841,0.030054,0.015766,0.012988,-0.23814,-0.036893,-0.095686
0.0069354,0.02585,0.016257,0.024818,-0.0087978,0.018692,0.012151,-0.0035842,-0.002703,-0.14153,0.040743,0.043592,0.0039284,0.025014,0.016529,0.026143,0.021939,0.03772,0.021564,0.009462,0.014304,-0.11883,-0.027684,-0.11924
0.0070873,0.024537,0.018417,0.022486,-0.011839,0.024484,0.0067842,-0.0013073,-0.00054072,-0.17828,0.042184,0.0503,0.0070135,0.027602,0.018423,0.023257,0.023087,0.033192,0.010999,-0.0027151,0.0031146,0.028782,-0.017887,-0.13457
0.004705,0.022064,0.021613,0.020032,-0.010715,0.027554,0.0024476,0.0049822,-0.0015395,-0.20521,0.046767,0.058541,0.0085586,0.027273,0.019397,0.023934,0.02141,0.031565,-0.00010233,-0.020597,-0.021915,0.18242,-0.0096768,-0.13356
0.00089971,0.020296,0.023925,0.018648,-0.0057705,0.026576,0.00098618,0.014172,-0.0039632,-0.21837,0.052848,0.066427,0.0067559,0.024286,0.018772,0.029194,0.015006,0.030396,-0.010207,-0.039822,-0.05521,0.32693,-0.0024382,-0.10993
-0.0021712,0.020912,0.02474,0.01861,0.0003808,0.024071,0.0028161,0.023034,-0.005818,-0.21718,0.056851,0.07235,0.00080471,0.020535,0.017008,0.036909,0.004418,0.026476,-0.018008,-0.054354,-0.086538,0.46268,0.0061989,-0.065254
-0.0029461,0.023417,0.024826,0.018906,0.0045828,0.023836,0.0066263,0.027787,-0.0056936,-0.2053,0.0558,0.075781,-0.0082306,0.017979,0.015621,0.04292,-0.0072218,0.018241,-0.023042,-0.060878,-0.10638,0.60054,0.017873,-0.011273
-0.0015054,0.025075,0.025184,0.017897,0.0052392,0.027224,0.010318,0.026512,-0.0034373,-0.18963,0.04923,0.077302,-0.017601,0.017095,0.016399,0.043867,-0.016172,0.0066378,-0.02621,-0.061701,-0.11123,0.74859,0.031514,0.034478
0.00064973,0.02323,0.025915,0.014621,0.0032753,0.031758,0.012482,0.020568,-0.00048041,-0.17708,0.039146,0.077847,-0.024203,0.016666,0.020077,0.039757,-0.020641,-0.0059965,-0.029485,-0.063457,-0.10526,0.90254,0.043487,0.057966
0.0017125,0.018025,0.026142,0.0097518,0.0012507,0.033354,0.0132,0.013775,0.00062788,-0.17089,0.028455,0.077724,-0.026427,0.015072,0.025351,0.034207,-0.021844,-0.017729,-0.034645,-0.072174,-0.096912,1.0466,0.049927,0.056717
0.00067069,0.012857,0.024907,0.0053553,0.0013306,0.030106,0.013508,0.0099185,-0.0023331,-0.16875,0.019389,0.076203,-0.025366,0.011911,0.029217,0.032003,-0.022708,-0.027895,-0.041785,-0.088361,-0.092694,1.1626,0.049626,0.040765
-0.0022521,0.011793,0.022146,0.0035341,0.0037208,0.024123,0.014121,0.01041,-0.0094876,-0.16453,0.013021,0.072051,-0.024378,0.0085148,0.028807,0.03574,-0.025349,-0.036558,-0.048776,-0.10611,-0.092624,1.2383,0.045246,0.025514
-0.0058475,0.016004,0.018923,0.0049787,0.0067785,0.019795,0.014675,0.013735,-0.018108,-0.1524,0.0096734,0.064597,-0.026959,0.0068801,0.023533,0.044046,-0.029427,-0.043505,-0.052318,-0.1171,-0.09073,1.2702,0.041709,0.021539
-0.0085354,0.022384,0.016817,0.0085572,0.0085974,0.020115,0.014194,0.016863,-0.023807,-0.13084,0.0092496,0.054455,-0.034207,0.0079439,0.015819,0.052647,-0.032662,-0.047975,-0.050026,-0.11643,-0.080202,1.2613,0.042755,0.028665
-0.0090578,0.025777,0.016991,0.012259,0.0086303,0.024361,0.012282,0.017413,-0.023186,-0.10337,0.011045,0.043349,-0.043719,0.010696,0.0096415,0.057234,-0.032928,-0.049407,-0.042117,-0.1058,-0.059187,1.2188,0.048215,0.0383
-0.0071096,0.023067,0.019526,0.014706,0.0079324,0.029013,0.0097822,0.015084,-0.016108,-0.075869,0.013538,0.033262,-0.050992,0.012866,0.0078786,0.055886,-0.030045,-0.048375,-0.031461,-0.091725,-0.032704,1.1534,0.05408,0.041553
-0.0037024,0.015762,0.023368,0.015985,0.0079095,0.030816,0.0082192,0.011547,-0.0058287,-0.052433,0.014873,0.025624,-0.052492,0.012585,0.010523,0.049507,-0.025829,-0.046631,-0.02202,-0.080735,-0.0092597,1.0779,0.055328,0.036508
-0.00089701,0.0089121,0.026883,0.017137,0.008865,0.029161,0.0085734,0.00912,0.0032081,-0.032937,0.013952,0.020985,-0.048186,0.009675,0.015065,0.040562,-0.022527,-0.046097,-0.016853,-0.075427,0.0050771,1.0035,0.049298,0.029217
-0.00071493,0.0072908,0.028779,0.018789,0.0098164,0.025935,0.010522,0.0092338,0.0083131,-0.013915,0.011169,0.019054,-0.041545,0.0056615,0.018525,0.031553,-0.02113,-0.047634,-0.017048,-0.074103,0.010523,0.93406,0.037155,0.028386
-0.0036737,0.011921,0.028914,0.020207,0.0097712,0.023426,0.012781,0.011694,0.010062,0.0083333,0.0079712,0.018762,-0.036998,0.0026777,0.019352,0.024279,-0.020973,-0.050621,-0.021923,-0.073334,0.012644,0.86318,0.022677,0.038574
-0.0079977,0.019578,0.028439,0.019737,0.0091135,0.022424,0.014113,0.015124,0.011385,0.035012,0.005563,0.018418,-0.036793,0.0021445,0.017796,0.019756,-0.020748,-0.053674,-0.029755,-0.070673,0.017811,0.77841,0.0096567,0.057204
-0.010394,0.025378,0.028994,0.016411,0.009521,0.022087,0.014089,0.018127,0.015109,0.064345,0.0039062,0.016299,-0.039645,0.0040587,0.014944,0.018121,-0.019871,-0.055831,-0.038203,-0.065434,0.028803,0.66991,-4.6291e-005,0.077004
-0.0081794,0.026189,0.031376,0.011323,0.012264,0.021217,0.013131,0.020183,0.021896,0.093119,0.001939,0.011673,-0.042045,0.0071522,0.011666,0.018425,-0.018948,-0.057239,-0.044427,-0.05782,0.043581,0.5382,-0.0067258,0.091133
-0.0013257,0.02232,0.034674,0.007385,0.016497,0.019417,0.012041,0.021568,0.030016,0.11851,-0.0012345,0.0055141,-0.041,0.0096924,0.0084037,0.018891,-0.019052,-0.058836,-0.04566,-0.048057,0.057418,0.39499,-0.011714,0.096878
0.007207,0.016555,0.036704,0.007332,0.019404,0.017076,0.011449,0.022445,0.036883,0.13877,-0.0053177,-9.7642e-006,-0.036051,0.010468,0.0055572,0.018028,-0.020585,-0.061418,-0.040487,-0.036523,0.066136,0.25594,-0.016052,0.095842
0.013263,0.011767,0.035598,0.011478,0.018391,0.01456,0.011428,0.022111,0.041037,0.15299,-0.008882,-0.0031885,-0.029265,0.009464,0.003633,0.015907,-0.022801,-0.064877,-0.029991,-0.024219,0.068164,0.12997,-0.019821,0.091669
0.014153,0.0090851,0.031319,0.017187,0.013446,0.011734,0.011371,0.019347,0.043095,0.16098,-0.010403,-0.0042748,-0.023554,0.0078135,0.002833,0.014332,-0.024407,-0.068236,-0.017433,-0.012438,0.064715,0.012425,-0.022314,0.087808
0.010223,0.0078065,0.025814,0.020743,0.0074241,0.008381,0.01031,0.013762,0.045144,0.16392,-0.0093301,-0.0053256,-0.020775,0.0069962,0.002685,0.015415,-0.024707,-0.070426,-0.0062039,-0.0016257,0.058809,-0.11219,-0.022735,0.086884
0.0043218,0.0066637,0.021594,0.020235,0.0038697,0.0049256,0.0077454,0.0069258,0.049142,0.16493,-0.0063304,-0.0082317,-0.02087,0.0077792,0.0024125,0.019653,-0.024322,-0.071159,0.0024701,0.0092708,0.053928,-0.25817,-0.020959,0.091414
-0.00022542,0.0051575,0.019951,0.017074,0.0042808,0.0024737,0.004479,0.0020181,0.055512,0.16821,-0.002673,-0.012567,-0.022296,0.009735,0.00186,0.025245,-0.024869,-0.07118,0.010067,0.021891,0.052527,-0.42367,-0.017887,0.10455
-0.0014812,0.0039031,0.020326,0.014817,0.0072527,0.0019407,0.0025234,0.0019188,0.062786,0.17675,0.00057017,-0.015343,-0.02317,0.011769,0.0019664,0.029339,-0.027774,-0.071656,0.018925,0.036573,0.054554,-0.5828,-0.015193,0.12984
0.00053526,0.0039251,0.021215,0.016258,0.0101,0.0030901,0.0037197,0.0071313,0.068427,0.19023,0.0028247,-0.013235,-0.022345,0.013199,0.0040558,0.030079,-0.033063,-0.073134,0.029555,0.051341,0.056851,-0.69241,-0.014522,0.16982
0.0044999,0.00567,0.021554,0.021196,0.011246,0.0045218,0.0079819,0.015262,0.070207,0.20507,0.0037662,-0.005621,-0.019944,0.014361,0.008436,0.027643,-0.039014,-0.074913,0.039473,0.063024,0.054526,-0.7125,-0.016568,0.22415
0.0087593,0.0086064,0.021199,0.026631,0.011147,0.0047695,0.012853,0.022566,0.0673,0.2169,0.0030663,0.0041727,-0.017214,0.016099,0.01368,0.023551,-0.043053,-0.075403,0.044678,0.06967,0.044206,-0.62985,-0.020517,0.28808
0.011937,0.011674,0.020265,0.029099,0.011167,0.0035656,0.015139,0.026362,0.060514,0.2238,0.00061336,0.010699,-0.015821,0.018622,0.017486,0.019226,-0.043405,-0.073268,0.042605,0.072073,0.027222,-0.46991,-0.024199,0.35229
0.013175,0.014097,0.018457,0.027186,0.011883,0.0021003,0.013425,0.026442,0.05166,0.2277,-0.0029633,0.010038,-0.016887,0.020897,0.018528,0.015251,-0.040411,-0.068534,0.03415,0.072922,0.010048,-0.28764,-0.024983,0.40487
0.012344,0.01579,0.015444,0.022334,0.012586,0.0019599,0.0092027,0.024493,0.042606,0.23281,-0.0061919,0.0024823,-0.020265,0.021294,0.017626,0.01174,-0.036447,-0.062781,0.023201,0.074331,0.0010406,-0.14107,-0.021147,0.43557
0.01021,0.01705,0.011911,0.017555,0.012242,0.0036199,0.0054789,0.02223,0.034582,0.24261,-0.0075846,-0.0077967,-0.024542,0.019011,0.017067,0.0089859,-0.034285,-0.0583,0.014101,0.076013,0.0053921,-0.063248,-0.013067,0.44068
0.0082148,0.017927,0.0097758,0.015245,0.010598,0.0058122,0.0041105,0.019924,0.027992,0.25739,-0.0069484,-0.015777,-0.027868,0.014956,0.018536,0.0074769,-0.034951,-0.056841,0.0090099,0.075792,0.021874,-0.050738,-0.0033881,0.42575
0.0076204,0.018066,0.010706,0.015737,0.0081806,0.0063925,0.0043502,0.016478,0.022501,0.27424,-0.0059746,-0.018971,-0.029083,0.011224,0.021465,0.0073754,-0.036825,-0.058825,0.0070638,0.071887,0.043703,-0.075858,0.0043908,0.40343
0.0084953,0.017236,0.014096,0.017498,0.0054222,0.0040734,0.0039291,0.010886,0.017091,0.28897,-0.0072328,-0.018743,-0.028312,0.0095171,0.023278,0.0082681,-0.036929,-0.063391,0.0057461,0.064837,0.062721,-0.11391,0.0084403,0.3865
0.0094096,0.015953,0.016753,0.018624,0.0021883,-0.00037089,0.0015326,0.0037143,0.01015,0.29863,-0.012072,-0.018826,-0.026593,0.0098357,0.021356,0.0095502,-0.033575,-0.068957,0.0032351,0.057263,0.073748,-0.16581,0.010562,0.37976
0.008355,0.015311,0.015248,0.018379,-0.0016137,-0.0044389,-0.0017797,-0.0027067,7.4523e-006,0.30288,-0.019134,-0.022298,-0.024931,0.010528,0.015039,0.010861,-0.028152,-0.073728,-0.00011197,0.051776,0.076204,-0.25962,0.015721,0.37664
0.0043731,0.015968,0.0091289,0.017578,-0.0051681,-0.0055705,-0.003554,-0.0056243,-0.013905,0.30394,-0.024937,-0.029122,-0.023654,0.0096697,0.0060221,0.011856,-0.024257,-0.075975,-0.0021991,0.049,0.072572,-0.42969,0.028798,0.36374
-0.0013764,0.017297,0.0019395,0.017518,-0.0069805,-0.0029011,-0.0023299,-0.0037952,-0.029891,0.30532,-0.026318,-0.035777,-0.022595,0.0066529,-0.0030001,0.011561,-0.024665,-0.074316,-0.0010811,0.047495,0.065615,-0.68786,0.050535,0.33052
-0.0061047,0.017821,-0.0013071,0.018409,-0.006333,0.0021761,0.00084628,0.0014488,-0.044019,0.3101,-0.022802,-0.037104,-0.021733,0.0027152,-0.010099,0.0083793,-0.02873,-0.068268,0.0032688,0.045525,0.056715,-1.0073,0.075824,0.27702
-0.0072249,0.016757,0.0018208,0.018774,-0.0044404,0.0069685,0.0031646,0.0068618,-0.051953,0.31917,-0.016906,-0.02932,-0.021449,2.2922e-005,-0.014833,0.0013052,-0.032749,-0.058825,0.0087143,0.042856,0.046236,-1.33,0.096069,0.21309
-0.0041648,0.015145,0.0091985,0.01655,-0.0037208,0.0091736,0.0023445,0.0093101,-0.051724,0.33025,-0.012107,-0.012547,-0.022073,3.6871e-005,-0.017681,-0.0085887,-0.03321,-0.048399,0.012376,0.040854,0.034915,-1.5929,0.10422,0.1498
0.0012499,0.015142,0.016022,0.011106,-0.0054888,0.0081036,-0.0015264,0.007783,-0.04536,0.33817,-0.010178,0.0086327,-0.02328,0.002418,-0.019122,-0.018071,-0.03009,-0.039749,0.012552,0.040811,0.024552,-1.7543,0.098903,0.090268
0.0061111,0.017829,0.018736,0.004329,-0.0083192,0.004744,-0.0060874,0.0039378,-0.037787,0.33689,-0.010115,0.027147,-0.024165,0.0052761,-0.019391,-0.023619,-0.027034,-0.03437,0.0096966,0.042197,0.017107,-1.8048,0.084716,0.028331
0.0083505,0.021663,0.017403,-0.00044787,-0.0090665,0.00083675,-0.0085229,0.00072503,-0.033518,0.32253,-0.0093668,0.037111,-0.024107,0.0065241,-0.01892,-0.023781,-0.028046,-0.031511,0.0058732,0.042643,0.012897,-1.7594,0.068826,-0.043717
0.0077782,0.023374,0.01461,-0.00098891,-0.0059709,-0.0022344,-0.0075791,5.7232e-005,-0.033664,0.29573,-0.0060921,0.037147,-0.023562,0.0052988,-0.018691,-0.019889,-0.033673,-0.028748,0.0032977,0.039807,0.0095935,-1.6403,0.05668,-0.12546
0.0056334,0.020821,0.012415,0.0020233,-0.00091566,-0.004035,-0.0042764,0.0012919,-0.035746,0.26159,-0.00049133,0.031175,-0.023843,0.0024262,-0.019882,-0.014507,-0.040258,-0.023838,0.0031091,0.033475,0.0032563,-1.4659,0.049824,-0.20598
0.0033206,0.01519,0.010541,0.005657,0.0017025,-0.0049354,-0.0009498,0.0017858,-0.036471,0.22691,0.0056695,0.025882,-0.025939,-0.0003156,-0.023061,-0.0092497,-0.04305,-0.016463,0.0050515,0.025907,-0.0089543,-1.2528,0.046635,-0.27159
0.00153,0.010264,0.0074346,0.0074146,-0.001111,-0.0055399,0.00051705,-0.00079485,-0.035006,0.19663,0.010547,0.026311,-0.029462,-0.0015004,-0.027787,-0.0041474,-0.040291,-0.0084577,0.0079521,0.020021,-0.026294,-1.0239,0.044482,-0.31694
0.00031264,0.0091984,0.0027131,0.007456,-0.0077859,-0.0061787,-5.8386e-005,-0.0062033,-0.033769,0.17179,0.013297,0.032509,-0.032734,-0.0009525,-0.033053,0.0010513,-0.034466,-0.0023324,0.010449,0.016944,-0.044154,-0.81093,0.041337,-0.3497
-0.00033186,0.011713,-0.0018296,0.0081528,-0.01303,-0.006763,-0.0012257,-0.011315,-0.036003,0.15049,0.014106,0.039707,-0.033989,0.00032848,-0.038169,0.0054209,-0.029707,0.00064821,0.011551,0.015144,-0.056374,-0.645,0.036133,-0.38455
-0.00017273,0.014361,-0.0037905,0.011275,-0.012353,-0.0069659,-0.001088,-0.012275,-0.042347,0.13052,0.013688,0.042079,-0.032617,0.0010346,-0.043169,0.007148,-0.028023,0.0012071,0.010921,0.011936,-0.058447,-0.54066,0.028543,-0.43162
0.00094372,0.013664,-0.0026052,0.015554,-0.0063345,-0.0064947,0.0013382,-0.0075462,-0.049552,0.11119,0.012987,0.037434,-0.029478,0.00050833,-0.048314,0.0053781,-0.028019,0.0010882,0.0088976,0.0060532,-0.049176,-0.48669,0.018993,-0.48894
0.0026605,0.0092381,-0.00018829,0.017244,-0.00057094,-0.0052504,0.0055389,0.00059364,-0.052563,0.092632,0.013145,0.029271,-0.026196,-0.00087789,-0.053194,0.0014811,-0.027139,0.0013885,0.0062575,-0.0010471,-0.029682,-0.45306,0.0088523,-0.54415
0.0041479,0.0040448,0.0010247,0.013492,-0.00099268,-0.0033058,0.0099723,0.0074593,-0.04821,0.073961,0.015211,0.024436,-0.024158,-0.0021274,-0.056397,-0.0019327,-0.024914,0.0017818,0.0038484,-0.0063322,-0.0010074,-0.41041,0.00015804,-0.58272
0.0046433,0.001672,0.00064238,0.005426,-0.0085344,-0.00075328,0.013092,0.0093161,-0.037455,0.052658,0.019409,0.027988,-0.023899,-0.0024752,-0.056288,-0.0034173,-0.023748,0.0013211,0.0023367,-0.0077848,0.037153,-0.34853,-0.0053401,-0.59548
0.0039507,0.003248,0.00074921,-0.0021417,-0.017939,0.0024774,0.014136,0.0060811,-0.024527,0.02687,0.024599,0.039183,-0.025008,-0.0020766,-0.052403,-0.0039254,-0.026409,-2.5863e-005,0.0022579,-0.0060423,0.08517,-0.28075,-0.0070965,-0.58076
0.0024235,0.0067637,0.003585,-0.0044861,-0.021932,0.0066734,0.013256,0.0012344,-0.013943,-0.001199,0.028699,0.051815,-0.02634,-0.0020169,-0.046321,-0.0053583,-0.032721,-0.0006761,0.0041799,-0.0035423,0.14068,-0.23191,-0.0057247,-0.54233
0.00053749,0.0091803,0.0087357,-0.00091921,-0.017241,0.012106,0.011159,-0.00092631,-0.0078806,-0.024493,0.029949,0.058686,-0.026441,-0.0035521,-0.041121,-0.0078486,-0.038834,0.0016136,0.008555,-0.0019786,0.197,-0.22019,-0.0019664,-0.48744
-0.0014128,0.0091721,0.012791,0.0046929,-0.0072915,0.018527,0.0087036,0.0015823,-0.0056503,-0.035079,0.027956,0.056608,-0.024203,-0.0070261,-0.039569,-0.0088347,-0.03998,0.0078297,0.015153,-0.000552,0.24465,-0.24687,0.0042232,-0.42649
-0.0031717,0.0080189,0.012133,0.0073772,0.00068666,0.024762,0.006699,0.0073579,-0.005094,-0.030711,0.023592,0.047895,-0.019615,-0.011236,-0.042237,-0.0053744,-0.03434,0.016437,0.02258,0.0031556,0.27524,-0.30152,0.013305,-0.37244
-0.0041898,0.0081049,0.0064168,0.0053633,0.0015728,0.028945,0.0057847,0.013178,-0.0043976,-0.018473,0.018035,0.037308,-0.014046,-0.013841,-0.046986,0.0022699,-0.024653,0.023918,0.028574,0.010377,0.28496,-0.37747,0.024602,-0.33712
-0.0036534,0.010656,-0.00056053,0.0014179,-0.0037285,0.029599,0.0062515,0.016598,-0.0029972,-0.011343,0.012107,0.027422,-0.009601,-0.012747,-0.05036,0.0094507,-0.016269,0.026849,0.031136,0.019162,0.27504,-0.48456,0.035056,-0.32583
-0.0010864,0.014778,-0.0036484,0.00015716,-0.0094324,0.026947,0.0078893,0.0174,-0.0013826,-0.0191,0.0065474,0.016661,-0.0077816,-0.0075895,-0.049988,0.010102,-0.013342,0.024092,0.029704,0.025391,0.24935,-0.64731,0.039863,-0.33492
0.0029242,0.018387,-0.00048426,0.0039146,-0.0097633,0.023282,0.010099,0.017035,-0.00047517,-0.040433,0.0025691,0.0017568,-0.0084123,-0.00023113,-0.046212,0.0017081,-0.016225,0.017577,0.025408,0.026251,0.21125,-0.88737,0.03493,-0.35594
0.0066366,0.01989,0.0065881,0.010827,-0.0033628,0.021669,0.012273,0.017021,-0.001234,-0.063098,0.0015239,-0.017807,-0.009774,0.0062109,-0.041608,-0.011972,-0.021804,0.011178,0.020309,0.023089,0.16254,-1.2006,0.019387,-0.38397
0.008047,0.019049,0.012474,0.016549,0.0061444,0.02364,0.014132,0.017841,-0.0045509,-0.072831,0.0035627,-0.037667,-0.0099075,0.0092028,-0.038715,-0.022942,-0.026061,0.0084845,0.016394,0.020854,0.10488,-1.5446,-0.0038243,-0.42261
0.0062665,0.01653,0.013449,0.017733,0.013317,0.027698,0.015689,0.019015,-0.011089,-0.064197,0.0066698,-0.050995,-0.0080186,0.008219,-0.037837,-0.024272,-0.026657,0.010925,0.015095,0.024277,0.041911,-1.8468,-0.02954,-0.47983
0.0023195,0.012963,0.009962,0.014201,0.014826,0.030113,0.01696,0.019794,-0.020876,-0.044422,0.007525,-0.053477,-0.0048087,0.0048017,-0.036827,-0.014561,-0.023773,0.017409,0.017232,0.033979,-0.020052,-2.0319,-0.052544,-0.55685
-0.001408,0.0086114,0.0059184,0.0083521,0.011157,0.027711,0.017817,0.01965,-0.03289,-0.026829,0.0039274,-0.046571,-0.0015423,0.0013444,-0.033102,0.0016906,-0.019129,0.025559,0.022789,0.045903,-0.073382,-2.0529,-0.068548,-0.63892
-0.0028073,0.0038856,0.0052777,0.0029682,0.005418,0.020501,0.018227,0.01833,-0.045107,-0.01942,-0.0033076,-0.036309,0.0011884,-0.00043208,-0.026171,0.017625,-0.014433,0.033501,0.030395,0.054633,-0.11139,-1.9108,-0.073904,-0.69743
-0.0015394,-9.0267e-005,0.0089141,-0.00037355,0.00084891,0.011956,0.018533,0.015883,-0.05517,-0.018523,-0.010919,-0.028896,0.0038263,-0.00028728,-0.018324,0.028553,-0.010569,0.040866,0.037314,0.057717,-0.12981,-1.652,-0.065664,-0.70372
0.00084911,-0.0017892,0.014212,-0.0012965,-0.00091641,0.0066231,0.019308,0.012931,-0.061409,-0.013182,-0.015946,-0.026919,0.0070807,0.00081002,-0.012763,0.034311,-0.0078014,0.048339,0.04069,0.057249,-0.127,-1.3458,-0.043154,-0.64588
0.0023127,-0.00047196,0.017442,0.00013781,-1.4246e-005,0.0070264,0.020747,0.010861,-0.063565,0.0034936,-0.018168,-0.029012,0.010897,0.0016443,-0.010744,0.038362,-0.0062604,0.056367,0.039497,0.057407,-0.10392,-1.0546,-0.010101,-0.53629
0.0020031,0.0027874,0.016754,0.0036397,0.0024544,0.012355,0.022248,0.011381,-0.06276,0.026142,-0.01995,-0.032509,0.014253,0.0016968,-0.010427,0.044854,-0.0059037,0.064318,0.035496,0.060238,-0.064212,-0.81102,0.025249,-0.40425
0.00078343,0.0054082,0.013349,0.0081963,0.0052057,0.019765,0.022801,0.015458,-0.060685,0.039724,-0.02366,-0.036135,0.016007,0.0014994,-0.0086441,0.05576,-0.0059671,0.070929,0.03197,0.06346,-0.014338,-0.6106,0.053474,-0.27894
0.00016789,0.0050544,0.010106,0.011932,0.0071111,0.02685,0.021974,0.022388,-0.058522,0.031146,-0.029216,-0.040335,0.015942,0.0022204,-0.0040991,0.069668,-0.0047786,0.075576,0.031044,0.06224,0.03759,-0.42261,0.069067,-0.17478
0.00080367,0.0015871,0.0090295,0.01312,0.0073426,0.032987,0.020526,0.029902,-0.056337,0.00018379,-0.034156,-0.045518,0.015015,0.004751,0.0010505,0.082609,-0.00066447,0.079052,0.031934,0.053408,0.084332,-0.21113,0.073438,-0.08851
0.0020405,-0.0024523,0.0097323,0.011684,0.0056617,0.038639,0.019854,0.035442,-0.053384,-0.039574,-0.036073,-0.050494,0.014616,0.0089102,0.0030061,0.09023,0.0064481,0.082942,0.031798,0.038448,0.12209,0.043224,0.073171,-0.00801
0.0029811,-0.003486,0.010107,0.009579,0.0027731,0.043717,0.02068,0.037776,-0.049094,-0.070607,-0.03488,-0.052954,0.01562,0.013397,0.00017642,0.090148,0.014168,0.088052,0.028491,0.022724,0.15119,0.33197,0.074784,0.075682
0.0037971,0.00040212,0.0084325,0.0093531,0.00029372,0.046932,0.022253,0.037759,-0.043905,-0.083882,-0.0326,-0.051545,0.018077,0.016631,-0.0044518,0.083251,0.0187,0.093378,0.022723,0.011566,0.17412,0.62273,0.080168,0.16234
0.0057243,0.00778,0.0049702,0.012016,9.3092e-006,0.046881,0.022981,0.037636,-0.03916,-0.083735,-0.030966,-0.047365,0.021597,0.017876,-0.004912,0.073238,0.017448,0.096674,0.017674,0.0065375,0.19249,0.87515,0.086251,0.24523
0.0095135,0.014614,0.001662,0.016222,0.0026624,0.043701,0.021998,0.039368,-0.036051,-0.081881,-0.02942,-0.043192,0.025808,0.017707,0.0031856,0.064591,0.011184,0.096261,0.016503,0.0049328,0.20516,1.0583,0.088653,0.31774
0.013884,0.016996,0.00030982,0.019539,0.0070933,0.039463,0.020117,0.04317,-0.03454,-0.086473,-0.02569,-0.040953,0.030315,0.017336,0.018978,0.060155,0.0038653,0.092537,0.019986,0.0028286,0.20896,1.1592,0.085761,0.37716
0.015814,0.013827,0.00097304,0.020521,0.01059,0.036673,0.019153,0.04729,-0.033267,-0.095669,-0.018466,-0.039691,0.034354,0.017359,0.036823,0.05981,-7.8827e-005,0.08791,0.026233,-0.0010132,0.20094,1.1799,0.079691,0.42357
0.012823,0.0074513,0.0020562,0.019532,0.010577,0.036184,0.020157,0.049173,-0.030672,-0.10056,-0.0094248,-0.036038,0.036754,0.017059,0.050585,0.061067,0.0010069,0.085192,0.032384,-0.003762,0.18023,1.129,0.073777,0.45699
0.005333,0.0018936,0.0019237,0.017685,0.0066498,0.03649,0.022269,0.04718,-0.026337,-0.093991,-0.0023909,-0.027024,0.036529,0.014966,0.058001,0.061104,0.0048138,0.085783,0.036648,-0.00085603,0.14788,1.0163,0.069387,0.47719
-0.0031813,0.00017045,0.00043254,0.015266,0.0013575,0.035154,0.023353,0.041675,-0.021334,-0.077397,-0.00022049,-0.012996,0.033673,0.010239,0.061394,0.058768,0.0069376,0.088977,0.039104,0.009924,0.10552,0.85543,0.065173,0.48708
-0.0086695,0.0027258,-0.0010929,0.011533,-0.0012684,0.031065,0.021934,0.03479,-0.017246,-0.060211,-0.0022844,0.0018469,0.029413,0.003655,0.064411,0.055114,0.0043465,0.092715,0.041046,0.026114,0.05434,0.66834,0.059188,0.4956
-0.0095948,0.0078766,-0.0013437,0.0061877,0.0012623,0.025452,0.01864,0.029097,-0.014746,-0.053212,-0.0049319,0.011888,0.025577,-0.0026534,0.068049,0.052236,-0.0023005,0.094962,0.04373,0.041958,-0.0040131,0.48648,0.051505,0.51622
-0.0079393,0.013448,-0.00040071,0.00084259,0.0075695,0.020758,0.015801,0.026144,-0.013013,-0.061582,-0.0045519,0.013674,0.023484,-0.0064895,0.069726,0.051413,-0.0092616,0.094604,0.047465,0.052355,-0.065106,0.34376,0.044607,0.56078
-0.0072219,0.018006,0.00043805,-0.0014288,0.012915,0.018524,0.015494,0.025744,-0.010372,-0.082646,-0.00049541,0.0079066,0.02312,-0.0068937,0.066109,0.051994,-0.012631,0.091434,0.051396,0.056089,-0.12024,0.26611,0.041123,0.6327
-0.0092907,0.02085,0.00019706,0.0015133,0.012622,0.018291,0.017711,0.026279,-0.0054854,-0.10878,0.0046293,-0.0015691,0.023195,-0.0045637,0.056831,0.051697,-0.011164,0.085621,0.053956,0.055795,-0.15812,0.26366,0.041116,0.72413
-0.012746,0.021313,-0.00053346,0.0085998,0.0059016,0.01843,0.020216,0.025624,0.0018912,-0.1322,0.0073276,-0.01072,0.022029,-0.001296,0.045486,0.047913,-0.0068519,0.077445,0.053842,0.055111,-0.17012,0.32904,0.041503,0.81874
-0.014367,0.018571,-0.0001007,0.015681,-0.00318,0.01785,0.02017,0.022119,0.010871,-0.1482,0.0060286,-0.017708,0.018741,0.0010102,0.036947,0.039036,-0.0030156,0.067586,0.051142,0.055862,-0.15656,0.4402,0.038159,0.89792
-0.012206,0.012455,0.002303,0.018315,-0.0087379,0.016797,0.016164,0.015274,0.019709,-0.15578,0.0020048,-0.022934,0.013941,0.0011895,0.033574,0.02522,-0.0016412,0.057585,0.047828,0.057847,-0.12935,0.56498,0.028829,0.94703
-0.0075168,0.004454,0.0052625,0.015043,-0.0078225,0.016033,0.0090427,0.0061343,0.026042,-0.15668,-0.0020387,-0.027163,0.0094255,-0.00079242,0.033785,0.0084771,-0.0020508,0.049714,0.046853,0.060999,-0.1077,0.66731,0.014441,0.95933
-0.0037702,-0.0023772,0.0059238,0.0084153,-0.0028811,0.015504,0.001035,-0.0028258,0.027337,-0.15423,-0.0041748,-0.029828,0.0069877,-0.0039177,0.034151,-0.007734,-0.0017619,0.046007,0.050076,0.067139,-0.10802,0.71642,-0.0019341,0.93656
-0.0036327,-0.0050587,0.0025043,0.0028258,0.00028266,0.014102,-0.0059217,-0.0085845,0.021937,-0.1522,-0.0043629,-0.029221,0.0071533,-0.0066294,0.032855,-0.019464,0.0013419,0.046978,0.056512,0.078837,-0.13393,0.69772,-0.017136,0.88679
-0.0066166,-0.0027808,-0.0037641,0.00097266,-0.0026777,0.010846,-0.011217,-0.0092084,0.010404,-0.15337,-0.0038207,-0.024317,0.0088019,-0.0076174,0.031245,-0.023823,0.0072631,0.051044,0.062607,0.095929,-0.17379,0.61948,-0.029167,0.82006
-0.0094983,0.0023157,-0.00928,0.0019142,-0.011289,0.0061928,-0.015227,-0.0054557,-0.0039205,-0.15819,-0.0035768,-0.016282,0.010038,-0.0064904,0.032167,-0.020631,0.013824,0.055288,0.064772,0.11318,-0.20822,0.50965,-0.037118,0.74357
-0.0091315,0.0065451,-0.01101,0.0023794,-0.021217,0.001923,-0.018151,-0.00096746,-0.016077,-0.16464,-0.0036108,-0.0079987,0.0096469,-0.0038811,0.036829,-0.013074,0.018247,0.05713,0.062315,0.12231,-0.22301,0.40307,-0.040691,0.65865
-0.0051842,0.0073144,-0.0091708,0.00017007,-0.028367,-0.0004219,-0.019275,-0.00023302,-0.022023,-0.17003,-0.0032089,-0.0018878,0.007927,-0.0008748,0.043213,-0.0064094,0.019193,0.055776,0.058242,0.11769,-0.21816,0.32695,-0.040335,0.5611
-0.00043807,0.004912,-0.0071347,-0.0033934,-0.032103,-0.00097986,-0.017493,-0.0052751,-0.02089,-0.17372,-0.0019789,0.001927,0.0062304,0.0017957,0.047467,-0.0049857,0.017756,0.052437,0.057002,0.10149,-0.20632,0.29356,-0.03774,0.4451
0.001546,0.0020044,-0.0084607,-0.0043231,-0.034617,-0.0013619,-0.012628,-0.013575,-0.01527,-0.17852,-0.00042528,0.0053158,0.005696,0.004121,0.046912,-0.0093646,0.01665,0.049251,0.060868,0.083086,-0.20208,0.30217,-0.035538,0.30844
-0.0006681,0.0013059,-0.013591,0.00039088,-0.037485,-0.0029541,-0.0062168,-0.019404,-0.0092415,-0.18898,0.00054624,0.010014,0.0063953,0.0064719,0.041933,-0.015783,0.018151,0.047733,0.0679,0.072624,-0.21068,0.34443,-0.03566,0.1565
-0.0053773,0.0034025,-0.01917,0.0094574,-0.039298,-0.0054533,-0.0008024,-0.018113,-0.0055998,-0.20711,0.00079646,0.015853,0.0076538,0.0089356,0.03523,-0.018815,0.022302,0.047817,0.073153,0.073097,-0.22475,0.40614,-0.037462,0.0031583
-0.0093474,0.0064944,-0.020671,0.017439,-0.03704,-0.0071553,0.0018572,-0.010116,-0.0043307,-0.22872,0.0016849,0.02121,0.0091043,0.011016,0.029387,-0.015599,0.026811,0.048021,0.07211,0.077623,-0.23129,0.46526,-0.037517,-0.13191
-0.010523,0.0081038,-0.016121,0.01872,-0.029862,-0.0067291,0.0020829,-0.00097885,-0.0033264,-0.24341,0.0054754,0.025166,0.011271,0.012004,0.025132,-0.0083891,0.028767,0.046552,0.063632,0.07452,-0.22254,0.4932,-0.031837,-0.22897
-0.0094977,0.0071402,-0.0077296,0.012217,-0.021112,-0.0046994,0.001802,0.0028924,-0.0005289,-0.23936,0.013579,0.028969,0.014945,0.011648,0.021688,-0.0030681,0.026888,0.042604,0.050404,0.056585,-0.20174,0.46513,-0.019052,-0.27534
-0.0086226,0.0045757,-0.00012755,0.0027603,-0.016057,-0.0031422,0.0026507,-0.00045212,0.0043418,-0.2101,0.024914,0.034931,0.019898,0.010481,0.018466,-0.0044354,0.022564,0.037,0.036992,0.027312,-0.17949,0.3758,-0.0019078,-0.2712
-0.0097198,0.0023531,0.0032213,-0.0023814,-0.017142,-0.0038635,0.0044189,-0.0068403,0.009785,-0.1588,0.035855,0.043656,0.024282,0.0094863,0.016072,-0.011998,0.018876,0.031676,0.027297,-0.00098273,-0.16438,0.24833,0.014373,-0.23099
-0.012468,0.0016847,0.0023794,0.0007483,-0.021459,-0.006791,0.00536,-0.0095578,0.013982,-0.097098,0.042228,0.052499,0.025618,0.0094505,0.015501,-0.020038,0.018391,0.028285,0.023029,-0.015852,-0.15611,0.12562,0.025655,-0.17885
-0.01478,0.0022366,0.00026569,0.0094879,-0.023224,-0.010058,0.0040845,-0.005167,0.016252,-0.039006,0.042095,0.05725,0.02282,0.010568,0.01646,-0.022331,0.021424,0.026945,0.023583,-0.013582,-0.14693,0.047267,0.031552,-0.14016
-0.014674,0.0026903,-0.00019528,0.016581,-0.019187,-0.011625,0.0011368,0.0034871,0.017242,0.0059944,0.037245,0.055866,0.017537,0.01259,0.01682,-0.017701,0.026056,0.026191,0.026699,-0.0014568,-0.12957,0.027713,0.035107,-0.133
-0.011906,0.0019296,0.0014898,0.015976,-0.011842,-0.0109,-0.0013837,0.0096845,0.017905,0.036223,0.03204,0.05078,0.013461,0.015218,0.014128,-0.011497,0.029759,0.024289,0.029322,0.0081601,-0.10436,0.052439,0.039983,-0.16346
-0.0079887,-0.00025054,0.0033867,0.0076312,-0.0072224,-0.0089363,-0.0018423,0.0084986,0.018538,0.055968,0.030329,0.047418,0.01377,0.018254,0.0079324,-0.011288,0.031317,0.020834,0.028628,0.0072183,-0.079179,0.095057,0.047561,-0.22531
-0.0047468,-0.0033092,0.003359,-0.0026448,-0.0092419,-0.0072198,-0.00070895,0.00082186,0.018909,0.070722,0.032786,0.05002,0.018607,0.021328,0.00060135,-0.020206,0.031519,0.017148,0.023222,-0.0024088,-0.062282,0.14102,0.056096,-0.30305
-0.0028207,-0.0065116,0.0013739,-0.0080198,-0.015904,-0.0063288,-0.00011769,-0.007567,0.019225,0.083365,0.036772,0.058365,0.024673,0.023611,-0.0044224,-0.033653,0.032182,0.015014,0.014044,-0.01122,-0.05452,0.19795,0.0621,-0.377
-0.0014435,-0.0092054,-0.00025456,-0.0059228,-0.020961,-0.0057561,-0.0017101,-0.010852,0.020531,0.093564,0.038777,0.068144,0.027504,0.02401,-0.0054771,-0.042427,0.034392,0.014863,0.0041957,-0.010176,-0.047883,0.28403,0.062451,-0.43009
0.00042167,-0.01074,0.001038,0.00060897,-0.01945,-0.0049649,-0.0048667,-0.0076976,0.023631,0.099691,0.037307,0.074386,0.024828,0.02192,-0.0039999,-0.039854,0.037476,0.015167,-0.0025654,0.0019864,-0.031612,0.40491,0.055586,-0.45522
0.0027522,-0.010509,0.0054761,0.0062468,-0.011928,-0.0045231,-0.0070954,-0.0017725,0.02734,0.10079,0.033808,0.074839,0.018405,0.017951,-0.0030081,-0.02705,0.03959,0.01372,-0.0039081,0.017966,-0.00059009,0.53972,0.041411,-0.45965
0.0042612,-0.0084355,0.010266,0.0079843,-0.003663,-0.0060531,-0.0062726,0.0018015,0.028105,0.096877,0.031036,0.070724,0.012846,0.013876,-0.0041634,-0.012079,0.039399,0.0097008,-0.00027611,0.028063,0.040909,0.64905,0.020626,-0.46264
0.0035935,-0.0055045,0.011667,0.0068969,0.00019106,-0.010841,-0.0026721,0.00081061,0.022183,0.088056,0.030568,0.064998,0.012256,0.011623,-0.0062269,-0.003906,0.037329,0.0045695,0.0053489,0.02813,0.082582,0.69867,-0.005768,-0.48579
0.00088046,-0.0035424,0.0082182,0.0059464,-0.0011888,-0.018266,0.0010534,-0.0025199,0.0090886,0.073822,0.03177,0.060252,0.017292,0.01195,-0.0063642,-0.0061424,0.035238,0.00090986,0.0090372,0.022825,0.11502,0.6787,-0.03664,-0.54104
-0.0018196,-0.0040155,0.0022985,0.0065279,-0.004311,-0.025552,0.0018707,-0.0038476,-0.0067689,0.053574,0.032945,0.057979,0.02484,0.013853,-0.0029728,-0.015305,0.034766,0.00024918,0.0078376,0.021637,0.13448,0.60267,-0.070827,-0.62379
-0.0018085,-0.0066997,-0.0015406,0.0073327,-0.00503,-0.029362,-0.0014239,-0.00069322,-0.018362,0.027645,0.033238,0.058998,0.030391,0.015216,0.0027409,-0.024294,0.035875,0.0018555,0.0010128,0.031043,0.14278,0.48868,-0.10715,-0.71528
0.0021237,-0.0095331,-0.00026546,0.0064031,-0.0020557,-0.028206,-0.0075414,0.0053113,-0.021018,-0.0022432,0.0333,0.063656,0.031118,0.014283,0.0079058,-0.027756,0.036983,0.0035832,-0.0099079,0.049151,0.14412,0.34115,-0.14418,-0.79206
0.0084766,-0.010091,0.0050746,0.003867,0.002767,-0.0238,-0.013844,0.0096973,-0.01613,-0.033499,0.034155,0.071135,0.027344,0.010887,0.010631,-0.025184,0.036641,0.0039131,-0.022156,0.066981,0.14239,0.15024,-0.17967,-0.83571
0.01388,-0.0075855,0.010239,0.0022306,0.0069925,-0.020176,-0.018107,0.0088233,-0.010267,-0.063468,0.035696,0.078768,0.021653,0.0065415,0.01156,-0.020079,0.035265,0.0032616,-0.033287,0.075048,0.14062,-0.090707,-0.21029,-0.83762
0.015485,-0.0036077,0.011455,0.0037857,0.009945,-0.021044,-0.019538,0.0029012,-0.010086,-0.089835,0.036591,0.082733,0.016824,0.0033852,0.012979,-0.01664,0.035224,0.0033977,-0.04244,0.069895,0.14149,-0.36655,-0.23224,-0.79844
0.013021,-0.00085271,0.0085782,0.0078269,0.012672,-0.027324,-0.018619,-0.0040735,-0.017159,-0.11074,0.035768,0.080245,0.014394,0.0027728,0.016551,-0.016785,0.039017,0.0056139,-0.050474,0.055636,0.14693,-0.63876,-0.24271,-0.72583
0.0088367,-0.00089338,0.0048665,0.010704,0.016064,-0.036705,-0.016334,-0.0074395,-0.026996,-0.12527,0.033862,0.071648,0.014649,0.0044841,0.02196,-0.019318,0.046936,0.0093976,-0.058708,0.039902,0.15709,-0.86294,-0.24122,-0.6333
0.005924,-0.0029855,0.0035728,0.0089276,0.019515,-0.045449,-0.013533,-0.0055288,-0.032928,-0.13442,0.032859,0.060509,0.017343,0.0069896,0.027581,-0.02119,0.056199,0.012771,-0.067069,0.02797,0.17011,-1.0102,-0.22988,-0.53926
0.0056293,-0.0049088,0.0046241,0.0024372,0.021539,-0.050913,-0.010734,-0.00089847,-0.031387,-0.14166,0.034067,0.05139,0.022021,0.0084354,0.032159,-0.019667,0.062447,0.013884,-0.073192,0.019912,0.18346,-1.0745,-0.21199,-0.46272
0.006957,-0.0049571,0.0046583,-0.0051569,0.021411,-0.052755,-0.0082348,0.0018928,-0.02412,-0.15197,0.036441,0.047012,0.027615,0.0076128,0.035591,-0.014117,0.062568,0.012407,-0.073569,0.012645,0.1955,-1.0618,-0.1901,-0.41362
0.0078479,-0.0032316,0.00053978,-0.009674,0.019869,-0.05216,-0.0063119,0.0001631,-0.015942,-0.16933,0.037187,0.047079,0.032097,0.0043943,0.038048,-0.0066131,0.056766,0.0096371,-0.066267,0.0045049,0.20506,-0.97608,-0.16508,-0.38195
0.00708,-0.0012358,-0.0069411,-0.0099537,0.018141,-0.050207,-0.0054022,-0.0045832,-0.010547,-0.19438,0.034407,0.049546,0.033097,-0.00037213,0.038612,-0.001108,0.048304,0.0074763,-0.053162,-0.002072,0.20889,-0.81742,-0.13718,-0.33457
0.0050893,-0.00044721,-0.012869,-0.0086146,0.016569,-0.047147,-0.0061707,-0.0079118,-0.008199,-0.22417,0.029331,0.052953,0.029384,-0.0052207,0.035244,-0.0014905,0.041157,0.0072683,-0.03964,-0.0023766,0.20006,-0.59428,-0.1087,-0.22764
0.0032498,-0.0013264,-0.012058,-0.0093538,0.014459,-0.043175,-0.0093245,-0.0063097,-0.006816,-0.25431,0.025823,0.057592,0.022029,-0.0085095,0.026595,-0.0094513,0.037355,0.0092676,-0.031569,0.0057397,0.17031,-0.33465,-0.086165,-0.03273
0.0026179,-0.0034636,-0.0036919,-0.013388,0.011327,-0.039595,-0.015137,-0.00040414,-0.0046539,-0.2819,0.027291,0.064524,0.014063,-0.0089967,0.014097,-0.023333,0.035954,0.012747,-0.031619,0.018454,0.11673,-0.079649,-0.079432,0.23776
0.0033806,-0.0062843,0.0074304,-0.01836,0.0079705,-0.03873,-0.022955,0.0052463,-0.0017596,-0.3066,0.033676,0.073577,0.0086389,-0.0065149,0.0020878,-0.038694,0.034245,0.01631,-0.037719,0.027484,0.047586,0.13963,-0.097279,0.52547
0.0052352,-0.0093528,0.014365,-0.020642,0.0059458,-0.042257,-0.03118,0.0057133,0.00079967,-0.32909,0.041306,0.082399,0.0070496,-0.002341,-0.0047468,-0.050292,0.030089,0.018213,-0.044867,0.025832,-0.018437,0.32233,-0.14174,0.75115
0.0079212,-0.012097,0.013373,-0.018778,0.0057843,-0.049431,-0.037968,-0.00035911,0.0024759,-0.34839,0.045839,0.087611,0.008127,0.0012566,-0.0048605,-0.054346,0.023492,0.01685,-0.048799,0.013146,-0.061415,0.49487,-0.20519,0.85879
0.01119,-0.01364,0.0066248,-0.014847,0.0058075,-0.05711,-0.042289,-0.0097744,0.0036226,-0.36099,0.045664,0.087118,0.0094271,0.0023026,-0.0012846,-0.049838,0.016293,0.0115,-0.048588,-0.0039847,-0.072438,0.68441,-0.27293,0.84997
0.014383,-0.013285,3.341e-005,-0.012547,0.002991,-0.061976,-0.044533,-0.017552,0.0044596,-0.36295,0.042756,0.081589,0.0091353,0.00044343,0.00052946,-0.038282,0.010394,0.0029418,-0.046239,-0.017276,-0.05979,0.89144,-0.33008,0.78253
0.016351,-0.011275,-0.0018642,-0.013881,-0.0046343,-0.063168,-0.046064,-0.020985,0.0040895,-0.35356,0.040341,0.073912,0.0071457,-0.0027373,-0.002977,-0.022301,0.0061059,-0.0066991,-0.043959,-0.023101,-0.043518,1.0865,-0.36834,0.73104
0.016029,-0.0088993,0.00046885,-0.017502,-0.016089,-0.062944,-0.047976,-0.021502,0.00092734,-0.33711,0.039731,0.067197,0.0046083,-0.0047779,-0.010452,-0.0038846,0.00201,-0.015042,-0.041712,-0.024356,-0.041535,1.2347,-0.38797,0.736
0.013195,-0.0075801,0.0024625,-0.020129,-0.02771,-0.064622,-0.050077,-0.022884,-0.0057254,-0.32082,0.039321,0.062983,0.00259,-0.0040236,-0.016502,0.016593,-0.003624,-0.020809,-0.037201,-0.026242,-0.057392,1.3259,-0.39422,0.77852
0.0087009,-0.0077197,-7.2124e-005,-0.019573,-0.03535,-0.069541,-0.051031,-0.02765,-0.014516,-0.31027,0.036564,0.060864,0.0011414,-0.00066691,-0.015875,0.039897,-0.011121,-0.024371,-0.028198,-0.030124,-0.079013,1.3809,-0.39162,0.79917
0.0039947,-0.0084496,-0.0068793,-0.016571,-0.036751,-0.075744,-0.049614,-0.034841,-0.022467,-0.3059,0.030837,0.05943,-0.00046707,0.0035732,-0.0076244,0.066081,-0.018886,-0.026998,-0.0151,-0.031743,-0.089158,1.4284,-0.381,0.74521
0.0004223,-0.0086016,-0.013208,-0.01394,-0.032455,-0.079615,-0.045986,-0.040979,-0.026716,-0.30348,0.024358,0.057484,-0.0027022,0.0067593,0.0040783,0.092428,-0.024507,-0.02944,-0.0015408,-0.026264,-0.079161,1.4715,-0.36114,0.60961
-0.0012311,-0.0079707,-0.013832,-0.014065,-0.024994,-0.078961,-0.041738,-0.043054,-0.026209,-0.29801,0.020311,0.054624,-0.0049655,0.007989,0.012971,0.11305,-0.026476,-0.031119,0.0073169,-0.015967,-0.055116,1.4764,-0.333,0.43309
-0.00093173,-0.0075911,-0.0076483,-0.017083,-0.017266,-0.074728,-0.038586,-0.04079,-0.022213,-0.2877,0.020119,0.051095,-0.0057958,0.0077681,0.014988,0.12124,-0.025048,-0.030712,0.0073544,-0.013019,-0.032218,1.3947,-0.30172,0.27187
0.00050957,-0.0086847,0.0011752,-0.021179,-0.011215,-0.069828,-0.036837,-0.036367,-0.017431,-0.27504,0.022519,0.047377,-0.0039285,0.0074281,0.01047,0.11377,-0.021617,-0.027604,-0.002825,-0.0332,-0.022627,1.2021,-0.27437,0.15996
0.0015861,-0.011271,0.0065535,-0.024308,-0.0072609,-0.06629,-0.03509,-0.032194,-0.01435,-0.26477,0.02514,0.04394,0.00065011,0.0081276,0.0030521,0.094169,-0.017402,-0.022808,-0.021749,-0.084223,-0.026869,0.92012,-0.25482,0.095187
0.00084098,-0.013842,0.0055118,-0.02556,-0.004454,-0.063521,-0.0315,-0.028918,-0.013733,-0.2613,0.026722,0.041119,0.0064803,0.010117,-0.0032384,0.072026,-0.012795,-0.018344,-0.045832,-0.15762,-0.034931,0.60464,-0.24043,0.054426
-0.0019348,-0.014545,0.00058637,-0.025114,-0.0011881,-0.059366,-0.025496,-0.02542,-0.014056,-0.26794,0.027578,0.038886,0.011393,0.01268,-0.0061135,0.058043,-0.0079609,-0.015528,-0.070229,-0.23125,-0.034834,0.31078,-0.22325,0.01851
-0.0050374,-0.01288,-0.0024658,-0.023382,0.0037474,-0.05289,-0.018341,-0.02057,-0.012297,-0.28737,0.027958,0.036553,0.0137,0.014733,-0.0051741,0.057729,-0.0038404,-0.013755,-0.089702,-0.28143,-0.021003,0.062855,-0.1952,-0.016556
-0.005741,-0.010295,0.00031337,-0.020591,0.010248,-0.046009,-0.012037,-0.014993,-0.0057756,-0.3211,0.026394,0.032822,0.013031,0.015643,-0.00090675,0.068213,-0.0021888,-0.01109,-0.099957,-0.29637,0.0036616,-0.14844,-0.15319,-0.047556
-0.0025019,-0.0090076,0.0076473,-0.017241,0.016751,-0.042136,-0.0075979,-0.011125,0.0060619,-0.36668,0.020307,0.026488,0.010352,0.015652,0.0059267,0.080445,-0.0042218,-0.0063565,-0.099383,-0.28149,0.03193,-0.34314,-0.10069,-0.076791
0.0032968,-0.01001,0.014103,-0.014601,0.021114,-0.042905,-0.0043271,-0.011435,0.021217,-0.41487,0.0087115,0.017485,0.0072903,0.015556,0.014002,0.084981,-0.0090122,-0.00083626,-0.090176,-0.25385,0.057748,-0.52441,-0.045171,-0.11275
0.0078878,-0.012069,0.014711,-0.014199,0.021982,-0.046119,-0.00072186,-0.016294,0.036466,-0.45075,-0.0056144,0.0074099,0.0052329,0.01587,0.021127,0.076983,-0.013383,0.0021745,-0.077551,-0.23035,0.07858,-0.66778,0.0062566,-0.15795
0.0079047,-0.012732,0.0091128,-0.016409,0.019604,-0.047137,0.0039168,-0.023316,0.049401,-0.46022,-0.01711,-0.0011755,0.004718,0.016237,0.024918,0.057141,-0.013902,-5.7384e-005,-0.06695,-0.21827,0.094146,-0.73345,0.049994,-0.19937
0.0031692,-0.010512,0.0017381,-0.019502,0.015512,-0.042742,0.0087199,-0.028742,0.059485,-0.43799,-0.021263,-0.0063757,0.0053696,0.015651,0.024248,0.028838,-0.0096017,-0.0070386,-0.060905,-0.21354,0.10435,-0.69107,0.086503,-0.21571
-0.0030184,-0.0062743,-0.0019913,-0.020423,0.01142,-0.03404,0.012017,-0.029778,0.067324,-0.39117,-0.0181,-0.0083123,0.0063139,0.013352,0.020099,-0.0051463,-0.0031177,-0.014674,-0.057855,-0.20594,0.10895,-0.53994,0.11873,-0.19786
-0.0064392,-0.0025802,-9.8852e-006,-0.017068,0.0082852,-0.025587,0.012862,-0.026058,0.073096,-0.3347,-0.012138,-0.0090054,0.006774,0.0095581,0.014728,-0.043447,0.00096373,-0.017771,-0.053924,-0.18667,0.10881,-0.31359,0.14985,-0.16274
-0.0051342,-0.0016168,0.0051776,-0.01024,0.0061678,-0.021396,0.011899,-0.01926,0.075911,-0.2817,-0.0087307,-0.010747,0.0064779,0.0053078,0.0096858,-0.084389,-0.00059037,-0.013594,-0.046295,-0.1535,0.10661,-0.068144,0.18163,-0.14408
-0.00047945,-0.0036122,0.0091649,-0.0034497,0.0047143,-0.021387,0.010902,-0.011495,0.074913,-0.23593,-0.010069,-0.014249,0.0056536,0.0015469,0.0044429,-0.12419,-0.0073257,-0.0036888,-0.035528,-0.11183,0.10566,0.13814,0.21386,-0.16414
0.0044957,-0.0070496,0.0095436,-0.00045837,0.0036416,-0.021542,0.011539,-0.0039629,0.070976,-0.19196,-0.014334,-0.018122,0.0046685,-0.0016659,-0.0029496,-0.15738,-0.015613,0.0073847,-0.025065,-0.072176,0.10775,0.26519,0.24496,-0.20991
0.007672,-0.010197,0.0075679,-0.0024149,0.0028753,-0.017638,0.014512,0.0031555,0.067039,-0.1422,-0.018436,-0.020153,0.0036288,-0.005043,-0.013654,-0.17927,-0.021511,0.015297,-0.018552,-0.04569,0.11205,0.30385,0.27307,-0.23592
0.0089192,-0.012338,0.0064111,-0.0069368,0.0024655,-0.0091353,0.019563,0.0099061,0.066238,-0.084672,-0.021341,-0.019288,0.0023017,-0.0091375,-0.026318,-0.18824,-0.023569,0.018569,-0.017257,-0.03918,0.11621,0.27663,0.29704,-0.19448
0.0091533,-0.01366,0.007945,-0.0099615,0.0024971,0.00026482,0.025894,0.015971,0.069225,-0.025179,-0.024638,-0.016581,0.00047983,-0.013507,-0.037563,-0.18595,-0.023365,0.018724,-0.019538,-0.051567,0.11886,0.22572,0.31669,-0.071069
0.0088957,-0.014321,0.011066,-0.0089364,0.0029429,0.0057612,0.032309,0.020883,0.07315,0.027002,-0.02998,-0.014293,-0.0014787,-0.016821,-0.044427,-0.17584,-0.023639,0.018273,-0.022424,-0.073888,0.1212,0.19256,0.33278,0.10233
0.0079977,-0.013985,0.012909,-0.004792,0.0033401,0.0053222,0.037081,0.024574,0.073519,0.065779,-0.036311,-0.013955,-0.0024382,-0.017902,-0.046709,-0.16173,-0.025831,0.018462,-0.023751,-0.093647,0.1267,0.19839,0.34709,0.26616
0.0065179,-0.012383,0.011602,-0.0011068,0.002553,0.00087047,0.038284,0.027372,0.067685,0.091762,-0.039996,-0.015199,-0.00096922,-0.0168,-0.047195,-0.14766,-0.029064,0.018594,-0.023212,-0.10138,0.13896,0.23619,0.36284,0.36983
0.0053237,-0.010122,0.0080058,-0.0011409,-0.00081552,-0.0039399,0.034974,0.029301,0.05712,0.11068,-0.037929,-0.016452,0.0036096,-0.014971,-0.049621,-0.13813,-0.031102,0.017159,-0.02181,-0.094967,0.15942,0.27889,0.38443,0.39964
0.005436,-0.0085942,0.0049954,-0.005148,-0.0072346,-0.0069947,0.028443,0.029554,0.046528,0.12911,-0.030544,-0.016904,0.010325,-0.014322,-0.05609,-0.13706,-0.030116,0.013519,-0.020466,-0.078269,0.18621,0.29888,0.41568,0.38017
0.0067995,-0.0088642,0.005074,-0.010149,-0.015134,-0.0090523,0.022109,0.027068,0.040419,0.15135,-0.02166,-0.017899,0.016605,-0.015861,-0.065894,-0.14516,-0.025768,0.0086634,-0.018894,-0.055153,0.21465,0.28626,0.45713,0.35223
0.0079931,-0.010636,0.0083977,-0.012327,-0.021158,-0.012286,0.019502,0.021946,0.039824,0.1792,-0.015255,-0.022294,0.019565,-0.018942,-0.07624,-0.15791,-0.019076,0.0045048,-0.01549,-0.024469,0.23905,0.25376,0.50471,0.3455
0.0073918,-0.012459,0.012727,-0.010046,-0.022139,-0.017764,0.021682,0.016293,0.041669,0.2131,-0.012364,-0.032141,0.017841,-0.021642,-0.083848,-0.16674,-0.011643,0.002462,-0.0082845,0.018727,0.25483,0.22592,0.55195,0.36459
0.0046272,-0.013065,0.015117,-0.0050034,-0.017435,-0.024203,0.026327,0.013235,0.041128,0.25246,-0.011131,-0.046595,0.012643,-0.021984,-0.086067,-0.16365,-0.0050118,0.0025579,0.0035807,0.075913,0.26019,0.22085,0.59468,0.39389
0.0008222,-0.012536,0.013868,-0.00065432,-0.0095633,-0.028785,0.029517,0.014522,0.034996,0.29468,-0.009769,-0.061916,0.0071086,-0.01918,-0.081151,-0.1465,-0.00031011,0.0037233,0.018809,0.13837,0.25637,0.23782,0.63448,0.41301
-0.0025794,-0.012132,0.0093576,0.00059404,-0.0023251,-0.028926,0.028824,0.018704,0.023581,0.33437,-0.0091584,-0.073681,0.0042928,-0.014128,-0.068279,-0.12082,0.0020807,0.0049685,0.034279,0.18835,0.24669,0.25857,0.67682,0.4098
-0.0050566,-0.012967,0.0034608,-0.001037,0.0021067,-0.023494,0.025054,0.021705,0.010031,0.36492,-0.01217,-0.079455,0.005267,-0.0089119,-0.04793,-0.096505,0.0028519,0.0063829,0.046936,0.20918,0.23479,0.26012,0.72472,0.3836
-0.0070275,-0.014884,-0.0016922,-0.0035696,0.0045304,-0.012993,0.021172,0.019667,-0.0020113,0.38175,-0.020213,-0.079888,0.0087517,-0.0056191,-0.022346,-0.081709,0.0036377,0.0090788,0.056187,0.19679,0.22332,0.22872,0.77336,0.34044
-0.0088262,-0.0166,-0.0046952,-0.0055036,0.0072741,0.00075182,0.01955,0.011954,-0.010577,0.38512,-0.030564,-0.077642,0.012433,-0.0051535,0.0046197,-0.078251,0.0061308,0.014081,0.064874,0.16296,0.21347,0.1656,0.81191,0.28708
-0.010017,-0.016885,-0.0052414,-0.00715,0.011389,0.014938,0.020116,0.001869,-0.016104,0.37988,-0.037538,-0.075365,0.014746,-0.0067319,0.028605,-0.081724,0.010921,0.02111,0.07756,0.12678,0.20552,0.081834,0.83242,0.22844
-0.0099515,-0.015499,-0.0040901,-0.0098424,0.015252,0.026403,0.020949,-0.0055389,-0.020763,0.37234,-0.036868,-0.074509,0.015674,-0.0083753,0.046168,-0.08562,0.017069,0.028403,0.09687,0.10106,0.19929,-0.01188,0.83863,0.16789
-0.008897,-0.01305,-0.0028323,-0.014001,0.016018,0.032881,0.020453,-0.0069282,-0.027238,0.36673,-0.029425,-0.075633,0.016178,-0.0081429,0.055571,-0.085958,0.022913,0.033916,0.12046,0.084876,0.19426,-0.11202,0.84598,0.10743
-0.0082515,-0.010158,-0.0033472,-0.018169,0.012559,0.03445,0.018872,-0.0027751,-0.037743,0.36396,-0.020821,-0.079348,0.017057,-0.0053578,0.05653,-0.083065,0.027442,0.036982,0.14122,0.06788,0.18917,-0.22081,0.87074,0.046307
-0.0092944,-0.0070576,-0.0068357,-0.020108,0.0070775,0.033889,0.017799,0.0033259,-0.053564,0.36305,-0.017179,-0.086567,0.018383,-0.0010148,0.049546,-0.079849,0.030927,0.03892,0.15094,0.041908,0.18194,-0.33891,0.91604,-0.019633
-0.011648,-0.0041307,-0.012822,-0.018889,0.0037783,0.035084,0.018431,0.0074847,-0.07492,0.36362,-0.02077,-0.097635,0.019792,0.0029093,0.035677,-0.07874,0.034213,0.041841,0.14515,0.0091599,0.17038,-0.45906,0.966,-0.095202
-0.013194,-0.0025376,-0.01899,-0.01586,0.005756,0.040278,0.020411,0.0082831,-0.10088,0.36716,-0.029122,-0.11126,0.021086,0.0047288,0.01696,-0.079967,0.03743,0.046508,0.12578,-0.019717,0.15331,-0.56661,0.9931,-0.18031
-0.011858,-0.0037815,-0.022403,-0.013466,0.012824,0.048271,0.022307,0.0075157,-0.12914,0.37643,-0.037847,-0.12446,0.022421,0.0039553,-0.0032874,-0.082048,0.039506,0.051139,0.09987,-0.034938,0.13149,-0.64715,0.97332,-0.266
-0.0077105,-0.0081262,-0.021515,-0.013049,0.02201,0.05525,0.023033,0.0085179,-0.15583,0.39324,-0.044189,-0.1339,0.023961,0.0012396,-0.021112,-0.083194,0.039035,0.052405,0.075557,-0.035253,0.10733,-0.69613,0.89825,-0.3366
-0.003304,-0.013355,-0.017428,-0.013778,0.029994,0.0578,0.022691,0.013408,-0.17556,0.41589,-0.048229,-0.13757,0.025493,-0.0024012,-0.03342,-0.081905,0.035666,0.047963,0.058038,-0.027466,0.083629,-0.72409,0.77668,-0.37815
-0.0017005,-0.015563,-0.01318,-0.013746,0.035202,0.055714,0.022155,0.021246,-0.18251,0.43736,-0.051386,-0.13564,0.026471,-0.0062475,-0.0392,-0.076496,0.030646,0.038416,0.047874,-0.019379,0.06211,-0.75399,0.62718,-0.38788
-0.0038496,-0.011981,-0.011412,-0.012118,0.038002,0.052239,0.022065,0.028386,-0.17254,0.44601,-0.054366,-0.1298,0.026506,-0.0098786,-0.039385,-0.064916,0.026046,0.02697,0.042016,-0.013621,0.042931,-0.81259,0.46883,-0.37831
-0.0076974,-0.0036705,-0.012311,-0.010184,0.039397,0.051486,0.022404,0.03074,-0.14574,0.43,-0.056594,-0.12176,0.0258,-0.01276,-0.035456,-0.046073,0.023436,0.017025,0.036338,-0.008014,0.02553,-0.91988,0.31597,-0.37321
-0.0098928,0.0044799,-0.013635,-0.01023,0.039893,0.055139,0.022931,0.0264,-0.10773,0.38466,-0.057107,-0.11228,0.025123,-0.014155,-0.02812,-0.022026,0.02312,0.0097421,0.028027,-0.0012106,0.0099592,-1.0805,0.17771,-0.39819
-0.008607,0.0069984,-0.012871,-0.01325,0.039603,0.061185,0.023673,0.016828,-0.068233,0.31859,-0.05535,-0.10135,0.025231,-0.01369,-0.017341,0.0012295,0.024238,0.003547,0.016736,0.0029143,-0.002563,-1.2793,0.059176,-0.47122
-0.0049835,0.0019586,-0.0096586,-0.017694,0.039093,0.065652,0.024636,0.0058745,-0.036949,0.25249,-0.050979,-0.089193,0.02615,-0.012063,-0.003704,0.016092,0.025232,-0.0041931,0.0041382,-0.0028604,-0.01044,-1.4827,-0.037817,-0.59705
-0.0020007,-0.0073694,-0.0063256,-0.020518,0.039624,0.065813,0.025016,-0.002621,-0.01874,0.20888,-0.043395,-0.077063,0.026852,-0.011022,0.010292,0.017895,0.024234,-0.014862,-0.0077854,-0.022347,-0.013003,-1.6462,-0.11444,-0.76616
-0.0018581,-0.014821,-0.0060319,-0.019706,0.042206,0.062198,0.023087,-0.0069602,-0.011283,0.19778,-0.032255,-0.067106,0.02563,-0.012366,0.02047,0.0083335,0.019587,-0.027471,-0.018737,-0.050828,-0.010903,-1.7281,-0.1735,-0.95703
-0.0042648,-0.01581,-0.010152,-0.016056,0.046329,0.057922,0.017537,-0.0080818,-0.0068769,0.20885,-0.018767,-0.061159,0.021054,-0.016727,0.022845,-0.0052384,0.010867,-0.039311,-0.030928,-0.076989,-0.0049735,-1.7051,-0.21722,-1.1407
-0.0070836,-0.010438,-0.017148,-0.01263,0.049839,0.056157,0.0094,-0.0082936,0.0026061,0.21758,-0.0061111,-0.059234,0.012901,-0.023215,0.015788,-0.014554,-8.9535e-005,-0.047516,-0.04772,-0.091048,0.0054393,-1.5822,-0.24626,-1.2874
-0.0085776,-0.0029539,-0.023801,-0.012299,0.050442,0.058006,0.002639,-0.0093354,0.020869,0.20257,0.0022668,-0.058639,0.0024308,-0.030221,0.00094538,-0.015781,-0.0093707,-0.050359,-0.070608,-0.092402,0.022906,-1.39,-0.26097,-1.3725
-0.0090513,0.001666,-0.027574,-0.015457,0.047681,0.062352,0.0021632,-0.011177,0.045551,0.16153,0.0054757,-0.054553,-0.0082198,-0.036614,-0.017561,-0.011411,-0.013021,-0.04768,-0.096793,-0.090227,0.050207,-1.1707,-0.26407,-1.3816
-0.010299,0.001123,-0.028059,-0.019765,0.043623,0.067407,0.01027,-0.012275,0.070545,0.1131,0.0063954,-0.042225,-0.017136,-0.042245,-0.034913,-0.0074286,-0.0097762,-0.040679,-0.11981,-0.096326,0.087466,-0.96079,-0.26182,-1.3105
-0.013384,-0.0032883,-0.02651,-0.02206,0.041526,0.072299,0.024239,-0.010934,0.090266,0.082366,0.0095645,-0.020022,-0.023428,-0.047462,-0.047285,-0.0082267,-0.0021649,-0.03148,-0.13365,-0.11617,0.13029,-0.77932,-0.2622,-1.164
-0.016934,-0.0083645,-0.024311,-0.020773,0.043524,0.077383,0.037336,-0.0067361,0.10276,0.081122,0.017103,0.0084953,-0.027236,-0.052311,-0.052952,-0.013279,0.005324,-0.022554,-0.13766,-0.14553,0.17052,-0.62756,-0.27102,-0.95579
-0.017752,-0.011433,-0.022018,-0.016932,0.04924,0.083336,0.042978,-0.0010033,0.10982,0.098425,0.026254,0.035363,-0.029128,-0.056292,-0.052813,-0.017706,0.0097005,-0.01598,-0.13837,-0.17506,0.19931,-0.4967,-0.28889,-0.70888
-0.013471,-0.011653,-0.019722,-0.013117,0.056353,0.090146,0.039159,0.0040082,0.11456,0.10897,0.031075,0.052255,-0.029588,-0.058849,-0.050238,-0.015596,0.011523,-0.012696,-0.14605,-0.19856,0.21077,-0.37564,-0.31132,-0.4549
-0.004956,-0.0097684,-0.017935,-0.011436,0.062433,0.096897,0.029823,0.006611,0.11882,0.09262,0.027195,0.05562,-0.02909,-0.059967,-0.049866,-0.0032273,0.013635,-0.012236,-0.16785,-0.21748,0.20401,-0.25474,-0.33177,-0.22681
0.0038035,-0.0072158,-0.017694,-0.012155,0.066409,0.10231,0.022017,0.0067632,0.1223,0.049702,0.01566,0.04925,-0.028527,-0.060221,-0.05536,0.019668,0.017803,-0.013278,-0.20242,-0.23812,0.18276,-0.12662,-0.34555,-0.046512
0.0084518,-0.0055103,-0.019596,-0.013878,0.068642,0.10533,0.02086,0.0058686,0.12384,0.00064782,0.0025006,0.041892,-0.029251,-0.060259,-0.067116,0.0502,0.022561,-0.014747,-0.23988,-0.26469,0.15304,0.012733,-0.35222,0.085039
0.0074747,-0.0059585,-0.022802,-0.01482,0.069984,0.10532,0.026072,0.0054301,0.12329,-0.029111,-0.0056698,0.041156,-0.032328,-0.060277,-0.081679,0.082781,0.024435,-0.016655,-0.26753,-0.29463,0.12072,0.16216,-0.3551,0.18621
0.0031537,-0.0092259,-0.025294,-0.01402,0.070986,0.10195,0.032594,0.0056665,0.12228,-0.026896,-0.0063408,0.048157,-0.037507,-0.05997,-0.093763,0.10934,0.021389,-0.019971,-0.27711,-0.3205,0.090017,0.31584,-0.35858,0.28023
-0.00051316,-0.014708,-0.025374,-0.011644,0.07186,0.095188,0.034676,0.0053123,0.12296,-7.2049e-005,-0.0022872,0.056987,-0.042937,-0.058902,-0.099795,0.12037,0.015066,-0.025562,-0.26876,-0.33603,0.063728,0.46747,-0.36495,0.3775
-0.0010787,-0.020368,-0.023085,-0.0084407,0.072791,0.085562,0.030143,0.0028389,0.12585,0.031434,0.0013784,0.059304,-0.046194,-0.05686,-0.10031,0.10787,0.0095604,-0.033029,-0.24945,-0.34021,0.04414,0.6143,-0.37274,0.4685
0.00070794,-0.023657,-0.020165,-0.0050469,0.073864,0.074306,0.021582,-0.0019489,0.12869,0.050543,0.0014417,0.05017,-0.045966,-0.053891,-0.099126,0.069361,0.0078533,-0.040424,-0.22748,-0.33533,0.033513,0.75557,-0.3778,0.53302
0.0021367,-0.023148,-0.018525,-0.0017392,0.074574,0.063085,0.013759,-0.0073908,0.12732,0.0545,-0.0014792,0.030572,-0.043012,-0.050079,-0.099756,0.010301,0.0093277,-0.045146,-0.20728,-0.32079,0.03324,0.88484,-0.37644,0.55734
0.0013075,-0.019639,-0.018629,0.0013102,0.073707,0.053403,0.0096625,-0.011058,0.1183,0.054682,-0.004533,0.0053101,-0.039474,-0.045379,-0.10215,-0.057673,0.010707,-0.04541,-0.18768,-0.28916,0.042073,0.98414,-0.36852,0.54439
-0.0011572,-0.015668,-0.019236,0.0037285,0.07017,0.046158,0.0084889,-0.011529,0.10118,0.066266,-0.0058835,-0.020981,-0.03704,-0.039644,-0.10258,-0.12234,0.0093983,-0.041292,-0.1641,-0.22946,0.054975,1.0288,-0.35791,0.50846
-0.0028794,-0.013719,-0.01866,0.0050093,0.064208,0.041691,0.0070169,-0.0092759,0.078904,0.096342,-0.0065808,-0.045795,-0.03553,-0.032816,-0.096862,-0.17702,0.0059633,-0.034626,-0.13267,-0.13639,0.064146,1.003,-0.34983,0.46168
-0.0020415,-0.014571,-0.016335,0.0049231,0.057732,0.040233,0.002847,-0.0058706,0.055897,0.13916,-0.0095611,-0.067507,-0.033176,-0.025116,-0.084252,-0.22279,0.0034239,-0.02789,-0.093514,-0.018279,0.06236,0.9159,-0.3468,0.40742
0.00096921,-0.017108,-0.013261,0.0038253,0.053065,0.042165,-0.003485,-0.0022661,0.035396,0.18101,-0.016838,-0.083213,-0.028449,-0.017159,-0.068436,-0.26494,0.0042016,-0.02282,-0.051364,0.10323,0.046755,0.80206,-0.34653,0.34847
0.0039638,-0.019598,-0.011038,0.0024735,0.051004,0.047691,-0.0092575,0.0021839,0.017774,0.20991,-0.027343,-0.088741,-0.021909,-0.0099302,-0.054962,-0.306,0.0076921,-0.01966,-0.013344,0.20281,0.020416,0.70507,-0.34338,0.3012
0.0048263,-0.021181,-0.010471,0.0014541,0.049995,0.056054,-0.012207,0.0089204,0.00098506,0.22233,-0.037193,-0.081444,-0.016427,-0.0045895,-0.047396,-0.34073,0.010697,-0.017499,0.014737,0.26429,-0.0096539,0.65339,-0.33254,0.29705
0.0031285,-0.02226,-0.011004,0.00075094,0.047381,0.06505,-0.012484,0.018189,-0.017498,0.22233,-0.042196,-0.063254,-0.015397,-0.0020641,-0.045553,-0.35763,0.010163,-0.015409,0.031377,0.28811,-0.036931,0.6467,-0.31338,0.36252
0.00027294,-0.023656,-0.011421,-0.00010301,0.041741,0.071616,-0.012197,0.027702,-0.038848,0.21486,-0.040792,-0.040891,-0.020184,-0.0025769,-0.047007,-0.34676,0.0056243,-0.013523,0.039773,0.28865,-0.059033,0.66139,-0.2894,0.49063
-0.0016457,-0.025502,-0.01102,-0.0014155,0.034192,0.073502,-0.01325,0.033446,-0.062442,0.19945,-0.035327,-0.022575,-0.028729,-0.0054118,-0.049979,-0.30832,-0.00074171,-0.013142,0.045351,0.2839,-0.078061,0.66883,-0.2651,0.63003
-0.0011875,-0.02699,-0.010139,-0.0028717,0.027373,0.070983,-0.0157,0.032355,-0.086694,0.16995,-0.030703,-0.013586,-0.036467,-0.0091755,-0.054647,-0.25525,-0.0062057,-0.015671,0.052219,0.28503,-0.097654,0.6515,-0.24244,0.70855
0.0017446,-0.027124,-0.0095987,-0.0036967,0.023047,0.067154,-0.018128,0.024832,-0.11,0.12048,-0.031251,-0.013859,-0.039031,-0.012499,-0.061712,-0.20668,-0.0096477,-0.021143,0.061256,0.29233,-0.11938,0.6064,-0.21979,0.67892
0.0060206,-0.025698,-0.0097294,-0.003304,0.020559,0.066124,-0.019365,0.014975,-0.13079,0.052461,-0.037888,-0.018955,-0.034917,-0.014755,-0.069977,-0.17638,-0.011952,-0.027608,0.071219,0.29886,-0.14137,0.53741,-0.19399,0.55264
0.0098954,-0.023577,-0.010012,-0.001814,0.01763,0.070085,-0.019603,0.0080459,-0.14702,-0.023691,-0.047558,-0.023216,-0.026319,-0.016266,-0.075721,-0.16461,-0.014631,-0.032105,0.081641,0.29759,-0.16018,0.44688,-0.16354,0.39274
0.011815,-0.022109,-0.0097213,3.8663e-006,0.012716,0.077435,-0.019808,0.0069598,-0.15608,-0.09408,-0.05538,-0.022805,-0.017664,-0.01781,-0.074944,-0.15933,-0.018228,-0.032646,0.09464,0.28621,-0.17382,0.33445,-0.13056,0.26815
0.011171,-0.022226,-0.0088775,0.0012048,0.0066083,0.083642,-0.02031,0.010403,-0.15607,-0.15004,-0.058041,-0.017157,-0.012944,-0.01976,-0.066677,-0.14585,-0.021946,-0.029705,0.11378,0.26703,-0.18343,0.20243,-0.10015,0.20437
0.008652,-0.023934,-0.008413,0.0010522,0.0016888,0.084495,-0.020379,0.013965,-0.14747,-0.1929,-0.05603,-0.0087874,-0.013636,-0.021549,-0.054406,-0.11729,-0.024605,-0.025972,0.14091,0.24357,-0.19211,0.05995,-0.077925,0.17015
0.0058819,-0.02643,-0.0092203,-0.00092036,-0.00051591,0.079352,-0.019433,0.013347,-0.13375,-0.23055,-0.053148,-0.0021249,-0.018335,-0.021963,-0.044218,-0.078264,-0.025773,-0.024482,0.17384,0.21734,-0.20234,-0.079668,-0.067062,0.11077
0.0044048,-0.028616,-0.010934,-0.0048959,-0.0011177,0.071782,-0.018506,0.0072589,-0.11972,-0.268,-0.053683,-0.0018655,-0.02396,-0.020108,-0.04114,-0.040019,-0.025979,-0.026575,0.20683,0.18714,-0.21426,-0.20636,-0.06638,0.00083329
0.0046817,-0.029626,-0.011755,-0.0105,-0.0032042,0.066992,-0.020041,-0.001928,-0.10876,-0.299,-0.059315,-0.011169,-0.027499,-0.0163,-0.046614,-0.01181,-0.025994,-0.031205,0.23333,0.15016,-0.22631,-0.31825,-0.070382,-0.12677
0.0058656,-0.029174,-0.0097854,-0.01648,-0.0092208,0.068031,-0.025697,-0.0099037,-0.10077,-0.30545,-0.06791,-0.030219,-0.027296,-0.012074,-0.058872,0.0046415,-0.0261,-0.03599,0.24849,0.10318,-0.23739,-0.41879,-0.071421,-0.19882
0.0065455,-0.027675,-0.0048585,-0.02096,-0.018749,0.073713,-0.034052,-0.013069,-0.092475,-0.26593,-0.074976,-0.055925,-0.023517,-0.0091608,-0.075437,0.014375,-0.026127,-0.039011,0.2499,0.04333,-0.2482,-0.50847,-0.063286,-0.15217
0.0058366,-0.026083,0.00076487,-0.022476,-0.028707,0.079796,-0.040657,-0.010419,-0.079991,-0.16849,-0.07664,-0.083135,-0.017899,-0.0081694,-0.0953,0.024073,-0.026085,-0.039913,0.23738,-0.030574,-0.26079,-0.57925,-0.044487,0.022481
0.0039265,-0.025401,0.0036674,-0.021115,-0.035806,0.082289,-0.040949,-0.0038541,-0.061644,-0.019875,-0.072063,-0.10682,-0.013006,-0.0080639,-0.11896,0.037116,-0.026542,-0.039623,0.21353,-0.11529,-0.27669,-0.61787,-0.019197,0.27462
0.0017148,-0.026031,0.0016349,-0.018639,-0.039099,0.080225,-0.033895,0.0028421,-0.039411,0.15449,-0.063742,-0.12401,-0.011185,-0.0069865,-0.1465,0.05199,-0.028179,-0.039208,0.18537,-0.20083,-0.29569,-0.6163,0.0050259,0.5262
-1.6509e-005,-0.027365,-0.0047593,-0.017261,-0.04046,0.075881,-0.023318,0.005712,-0.018139,0.31957,-0.055715,-0.13456,-0.013563,-0.0038744,-0.1756,0.064115,-0.030939,-0.038934,0.16446,-0.27191,-0.3164,-0.58037,0.021441,0.71529
-0.0011448,-0.028034,-0.012597,-0.017963,-0.042769,0.072597,-0.01565,0.0023525,-0.003205,0.44345,-0.05115,-0.14066,-0.019599,0.00041775,-0.20122,0.069188,-0.033753,-0.038191,0.16312,-0.31459,-0.33814,-0.52843,0.02736,0.82134
-0.0020883,-0.026794,-0.018663,-0.019848,-0.04757,0.072108,-0.015742,-0.0069416,0.0020089,0.50697,-0.051048,-0.1456,-0.027526,0.0034943,-0.21745,0.065945,-0.035255,-0.036107,0.18705,-0.32503,-0.36211,-0.48025,0.024096,0.86042
-0.0032888,-0.023486,-0.021421,-0.0211,-0.054229,0.073401,-0.023925,-0.019244,-0.0025068,0.50634,-0.054695,-0.15241,-0.035422,0.0031327,-0.2204,0.057095,-0.034895,-0.032155,0.22928,-0.31369,-0.39068,-0.44506,0.013951,0.86152
-0.0048285,-0.019321,-0.021492,-0.020738,-0.061028,0.07366,-0.03634,-0.030529,-0.013808,0.4497,-0.061024,-0.16267,-0.042133,-0.00095142,-0.21034,0.048027,-0.03334,-0.02634,0.27103,-0.30034,-0.42482,-0.41896,-0.0029015,0.8438
-0.0064457,-0.016168,-0.020564,-0.019577,-0.066875,0.070291,-0.047918,-0.038029,-0.027813,0.35194,-0.069428,-0.17579,-0.047359,-0.0067091,-0.19167,0.043653,-0.031764,-0.01911,0.29119,-0.30192,-0.46138,-0.39413,-0.028697,0.80796
-0.0077672,-0.015327,-0.019923,-0.019573,-0.071952,0.062478,-0.05549,-0.041898,-0.041272,0.23135,-0.07933,-0.18922,-0.051028,-0.011132,-0.17057,0.044822,-0.030701,-0.011357,0.27909,-0.32133,-0.49251,-0.37078,-0.065278,0.74289
-0.0084387,-0.016692,-0.019812,-0.022103,-0.076888,0.051373,-0.058895,-0.044841,-0.052586,0.10875,-0.089177,-0.19967,-0.052693,-0.012396,-0.15172,0.046501,-0.029552,-0.0044472,0.24165,-0.34557,-0.50812,-0.35988,-0.11101,0.6399
-0.0080986,-0.018923,-0.019854,-0.026616,-0.081583,0.03919,-0.059888,-0.049743,-0.06115,0.0064495,-0.096185,-0.20463,-0.051648,-0.011123,-0.13599,0.039535,-0.027141,0.00020101,0.19906,-0.35466,-0.50042,-0.37205,-0.16069,0.50493
-0.0064428,-0.02045,-0.01979,-0.030801,-0.084994,0.028076,-0.060341,-0.057048,-0.066185,-0.055549,-0.09738,-0.20312,-0.047624,-0.0097485,-0.12083,0.015641,-0.022713,0.002166,0.17154,-0.33468,-0.46807,-0.40193,-0.20896,0.36107
-0.0035587,-0.02049,-0.019712,-0.032214,-0.086093,0.019479,-0.061214,-0.064054,-0.066381,-0.065791,-0.091209,-0.19514,-0.041298,-0.010483,-0.10294,-0.027181,-0.0164,0.002988,0.16612,-0.28548,-0.41732,-0.42411,-0.25423,0.23781
-0.00029325,-0.019306,-0.019697,-0.0302,-0.084928,0.014076,-0.062618,-0.066936,-0.060763,-0.026405,-0.078412,-0.18062,-0.033995,-0.013457,-0.081431,-0.08257,-0.0089233,0.0057883,0.17302,-0.21831,-0.35913,-0.40873,-0.29934,0.15078
0.0018663,-0.017663,-0.019482,-0.026648,-0.082636,0.011919,-0.064245,-0.063984,-0.049773,0.047331,-0.061552,-0.15923,-0.026808,-0.016563,-0.05881,-0.13885,-0.0010524,0.013117,0.17364,-0.14698,-0.30391,-0.34783,-0.3483,0.084409
0.0016225,-0.016066,-0.018727,-0.024844,-0.080346,0.012493,-0.065501,-0.057422,-0.035296,0.13395,-0.043764,-0.13156,-0.019992,-0.017121,-0.039017,-0.18544,0.006502,0.024394,0.15356,-0.080294,-0.25713,-0.2705,-0.40179,-0.0076605
-0.0010788,-0.014498,-0.017652,-0.027011,-0.078075,0.014725,-0.0655,-0.052092,-0.019509,0.21544,-0.027732,-0.10056,-0.013213,-0.014054,-0.024231,-0.21824,0.012841,0.035306,0.11088,-0.021321,-0.21846,-0.22982,-0.45573,-0.17839
-0.0046874,-0.012823,-0.017242,-0.032262,-0.074728,0.017148,-0.063446,-0.05184,-0.0037982,0.2833,-0.015325,-0.071438,-0.0063765,-0.0088122,-0.013304,-0.24033,0.01693,0.040371,0.05454,0.027794,-0.18491,-0.26574,-0.50381,-0.45162
-0.0068827,-0.011368,-0.018479,-0.036681,-0.069226,0.01831,-0.059431,-0.056407,0.01103,0.33708,-0.0075895,-0.049405,-0.00014778,-0.0043401,-0.0032897,-0.25762,0.018343,0.037104,-0.0043473,0.061625,-0.15537,-0.36908,-0.5412,-0.79934
-0.0061099,-0.010959,-0.021138,-0.035871,-0.061645,0.017255,-0.054909,-0.061441,0.023526,0.37746,-0.0046667,-0.036547,0.0043624,-0.0029425,0.0073501,-0.27281,0.018147,0.028437,-0.060414,0.072932,-0.13292,-0.47512,-0.56602,-1.1508
-0.002653,-0.012196,-0.023398,-0.028374,-0.053281,0.013769,-0.052043,-0.06183,0.031058,0.4001,-0.0057139,-0.030409,0.0064595,-0.0047775,0.016952,-0.28247,0.018861,0.021035,-0.11529,0.059463,-0.12286,-0.49567,-0.57758,-1.4299
0.0015951,-0.014542,-0.023077,-0.017367,-0.045602,0.0082749,-0.052138,-0.055878,0.031168,0.39596,-0.0091925,-0.025549,0.0064229,-0.0080732,0.022049,-0.2793,0.023051,0.020528,-0.17291,0.030421,-0.12772,-0.37042,-0.57449,-1.5962
0.0044644,-0.016203,-0.01971,-0.009054,-0.039168,0.0014489,-0.054451,-0.04701,0.024039,0.3578,-0.013567,-0.016961,0.0052481,-0.010733,0.0207,-0.25768,0.031443,0.027383,-0.23441,0.0061751,-0.14317,-0.10286,-0.55572,-1.6615
0.0049126,-0.015256,-0.015559,-0.0086447,-0.033605,-0.0061945,-0.056684,-0.041556,0.01377,0.28744,-0.017915,-0.0026471,0.0038499,-0.011954,0.014595,-0.21819,0.042133,0.03672,-0.29706,0.0092713,-0.15834,0.24281,-0.52421,-1.6735
0.003536,-0.011334,-0.014201,-0.016811,-0.028644,-0.014578,-0.05704,-0.044241,0.0068787,0.19773,-0.021915,0.016671,0.0024474,-0.012659,0.0078897,-0.16759,0.051734,0.042151,-0.35698,0.051396,-0.16148,0.57968,-0.48921,-1.6821
0.001972,-0.0063934,-0.017443,-0.029272,-0.025144,-0.024122,-0.056138,-0.054834,0.008909,0.10791,-0.025303,0.040148,0.00057269,-0.014593,0.0038235,-0.11453,0.05764,0.040447,-0.41159,0.12481,-0.14735,0.84264,-0.46342,-1.7125
0.0017221,-0.003641,-0.023212,-0.039788,-0.024965,-0.035616,-0.056902,-0.068524,0.021719,0.035987,-0.027418,0.069062,-0.0024654,-0.018933,0.0022422,-0.06497,0.059568,0.033402,-0.45911,0.20488,-0.12136,1.0104,-0.45601,-1.7592
0.0031682,-0.0052043,-0.026624,-0.044227,-0.029683,-0.049963,-0.062182,-0.079597,0.043302,-0.0069955,-0.02736,0.10624,-0.0070998,-0.025411,0.00022977,-0.020668,0.059202,0.025791,-0.49645,0.26322,-0.097085,1.0962,-0.46658,-1.7973
0.0053497,-0.010409,-0.02379,-0.042706,-0.039259,-0.067912,-0.072036,-0.085508,0.069569,-0.018922,-0.024598,0.15271,-0.013205,-0.032413,-0.0048795,0.018487,0.058423,0.021488,-0.51922,0.28358,-0.088497,1.1233,-0.48567,-1.7992
0.0066525,-0.016149,-0.015275,-0.038533,-0.051893,-0.089834,-0.083142,-0.088241,0.095994,-0.0060816,-0.019429,0.20426,-0.019892,-0.037855,-0.01294,0.051467,0.057796,0.020943,-0.52531,0.26995,-0.10188,1.1077,-0.50199,-1.7488
0.0060585,-0.019097,-0.0060966,-0.035237,-0.065157,-0.11555,-0.091078,-0.092071,0.11798,0.018631,-0.012907,0.25136,-0.025421,-0.040288,-0.021062,0.075793,0.056557,0.021658,-0.51916,0.24152,-0.13278,1.059,-0.51119,-1.6505
0.0041364,-0.017917,-0.0020129,-0.034157,-0.077347,-0.14412,-0.093576,-0.099637,0.13093,0.039225,-0.0064462,0.28317,-0.027548,-0.039673,-0.025878,0.090417,0.053801,0.020704,-0.51179,0.21838,-0.16951,0.99124,-0.51894,-1.5313
0.0028895,-0.013733,-0.0051511,-0.034199,-0.087793,-0.17361,-0.091917,-0.10936,0.13174,0.042391,-0.0015263,0.29359,-0.024555,-0.037458,-0.025635,0.09872,0.049455,0.016924,-0.51514,0.20853,-0.20036,0.92732,-0.53609,-1.431
0.0042596,-0.0087619,-0.012653,-0.033369,-0.096028,-0.20097,-0.089282,-0.11614,0.1215,0.02342,0.00050246,0.28485,-0.016521,-0.035861,-0.020332,0.10797,0.044035,0.011229,-0.53446,0.20526,-0.21889,0.89039,-0.56951,-1.3803
0.0082631,-0.0045824,-0.01934,-0.03049,-0.10091,-0.2224,-0.087661,-0.11482,0.1068,-0.012083,-0.001127,0.26602,-0.0058202,-0.03669,-0.010344,0.12462,0.037568,0.0052566,-0.56486,0.19545,-0.22429,0.89085,-0.61598,-1.3755
0.012395,-0.001525,-0.021871,-0.025819,-0.10099,-0.2344,-0.086221,-0.10381,0.097074,-0.053123,-0.0057502,0.24729,0.0038787,-0.04042,0.0044389,0.14889,0.029041,-0.00013115,-0.59498,0.17087,-0.21778,0.92145,-0.66343,-1.3717
0.013191,0.00065699,-0.020755,-0.020539,-0.096108,-0.23512,-0.082571,-0.086432,0.098783,-0.091867,-0.010683,0.23389,0.0096528,-0.046142,0.023826,0.1731,0.017204,-0.0053023,-0.61497,0.13307,-0.19909,0.96507,-0.69833,-1.3056
0.0090158,0.0019344,-0.018829,-0.015952,-0.088747,-0.22558,-0.075562,-0.068899,0.1108,-0.12893,-0.011919,0.22383,0.010958,-0.052374,0.045918,0.18576,0.0020889,-0.01125,-0.62259,0.088694,-0.16659,1.0071,-0.71315,-1.1352
0.0017971,0.0019698,-0.018113,-0.013058,-0.083522,-0.20972,-0.066903,-0.056585,0.12518,-0.17067,-0.0063368,0.21076,0.0096422,-0.058041,0.067216,0.17883,-0.014272,-0.018776,-0.62299,0.040903,-0.12053,1.0414,-0.70881,-0.86884
-0.0040153,0.00078039,-0.018183,-0.012498,-0.084522,-0.19337,-0.060119,-0.051337,0.13336,-0.22079,0.0058382,0.18919,0.0084773,-0.062857,0.084901,0.15335,-0.028813,-0.028158,-0.62304,-0.014858,-0.065879,1.0671,-0.69114,-0.55589
-0.0047112,-0.00085938,-0.017363,-0.014406,-0.092387,-0.18251,-0.057967,-0.051713,0.13292,-0.27385,0.020374,0.15805,0.0095228,-0.067033,0.099299,0.1196,-0.039378,-0.039251,-0.62501,-0.086745,-0.011471,1.0829,-0.66531,-0.24634
-0.00023392,-0.0018848,-0.01515,-0.018059,-0.10356,-0.18175,-0.060742,-0.055623,0.12916,-0.31693,0.031151,0.1202,0.013537,-0.070881,0.11365,0.092035,-0.045935,-0.051574,-0.62469,-0.17755,0.034452,1.0869,-0.63291,0.04867
0.0057184,-0.0018253,-0.013205,-0.021747,-0.1127,-0.19345,-0.06684,-0.062803,0.13032,-0.33881,0.033806,0.079169,0.020431,-0.074831,0.13053,0.082031,-0.050044,-0.064222,-0.61522,-0.27807,0.06846,1.0812,-0.59347,0.35943
0.0085568,-0.0011343,-0.013961,-0.023386,-0.11662,-0.21759,-0.074649,-0.07484,0.14057,-0.33902,0.028194,0.036612,0.029756,-0.079591,0.14772,0.092667,-0.053195,-0.075953,-0.59335,-0.36767,0.092249,1.0751,-0.54804,0.719
0.0062663,-0.0005961,-0.018343,-0.021766,-0.11672,-0.25187,-0.08373,-0.092739,0.15679,-0.32908,0.017741,-0.006849,0.040514,-0.085758,0.1576,0.11811,-0.055714,-0.085899,-0.56334,-0.42176,0.10886,1.0803,-0.50096,1.1151
0.00062191,-0.00048215,-0.024888,-0.01753,-0.11771,-0.29195,-0.094243,-0.11446,0.1717,-0.32429,0.0063805,-0.048702,0.050712,-0.092798,0.15161,0.14744,-0.057312,-0.094633,-0.53515,-0.42239,0.1187,1.1023,-0.45767,1.4751
-0.0047219,-0.00041514,-0.031001,-0.012945,-0.12354,-0.33202,-0.10552,-0.13496,0.18022,-0.33209,-0.0042257,-0.083036,0.057799,-0.098371,0.12691,0.17039,-0.058578,-0.10465,-0.51805,-0.3675,0.11957,1.1376,-0.4205,1.7026
-0.0074716,-8.3943e-005,-0.034955,-0.010371,-0.13364,-0.36613,-0.11552,-0.14903,0.18343,-0.34582,-0.014871,-0.10299,0.060328,-0.099253,0.089871,0.18179,-0.061638,-0.11936,-0.51415,-0.27541,0.11114,1.1796,-0.38633,1.7397
-0.0084474,6.3196e-005,-0.036739,-0.010497,-0.14278,-0.38986,-0.12188,-0.15461,0.18728,-0.34919,-0.026581,-0.10575,0.059681,-0.09376,0.053322,0.18226,-0.068853,-0.14072,-0.5168,-0.18162,0.099437,1.2298,-0.34867,1.6126
-0.010455,-0.00092882,-0.037256,-0.011777,-0.14483,-0.40156,-0.12363,-0.15367,0.19742,-0.32854,-0.038349,-0.095734,0.06,-0.083803,0.029102,0.17551,-0.08037,-0.16701,-0.51508,-0.12711,0.096067,1.3011,-0.30303,1.4225
-0.015405,-0.003437,-0.037062,-0.011627,-0.13769,-0.40211,-0.12176,-0.15016,0.21494,-0.28415,-0.047076,-0.082655,0.0657,-0.074431,0.021263,0.16467,-0.092709,-0.19251,-0.50098,-0.14107,0.1113,1.4076,-0.25118,1.2897
-0.022246,-0.0064796,-0.036023,-0.0085228,-0.12531,-0.39325,-0.11825,-0.14671,0.23581,-0.23168,-0.049686,-0.075196,0.07815,-0.070545,0.0248,0.15074,-0.099964,-0.20982,-0.47336,-0.22658,0.14618,1.5472,-0.20075,1.2866
-0.027447,-0.0082265,-0.033997,-0.0033756,-0.11499,-0.37597,-0.11429,-0.14305,0.25355,-0.19183,-0.045376,-0.075095,0.094266,-0.073125,0.030579,0.13414,-0.097061,-0.21356,-0.43541,-0.35805,0.19076,1.6921,-0.1599,1.4027
-0.027637,-0.0075223,-0.031491,0.00091766,-0.11179,-0.35008,-0.10943,-0.13719,0.26238,-0.17499,-0.036013,-0.076135,0.10847,-0.078103,0.032657,0.1176,-0.082707,-0.20309,-0.38801,-0.49363,0.23083,1.7976,-0.13112,1.5614
-0.022246,-0.0050309,-0.029442,0.0014749,-0.11452,-0.31566,-0.10231,-0.12795,0.25897,-0.17234,-0.024618,-0.068831,0.11668,-0.079069,0.032701,0.10699,-0.059801,-0.1823,-0.32523,-0.59531,0.2582,1.8263,-0.10895,1.674
-0.014144,-0.0028308,-0.028462,-0.0024224,-0.11653,-0.27485,-0.09211,-0.11648,0.2427,-0.16045,-0.013571,-0.047258,0.11903,-0.07184,0.038578,0.10875,-0.033134,-0.15667,-0.23691,-0.64461,0.27578,1.7695,-0.083628,1.694
-0.0078298,-0.0026871,-0.028513,-0.0085358,-0.11076,-0.23229,-0.079482,-0.10548,0.21581,-0.11678,-0.0040372,-0.013078,0.11908,-0.057273,0.058388,0.12558,-0.0063315,-0.12996,-0.11723,-0.64481,0.29309,1.6514,-0.047841,1.6379
-0.0065605,-0.0044892,-0.029397,-0.012832,-0.095116,-0.19346,-0.066239,-0.096962,0.18344,-0.035192,0.0034495,0.025762,0.12004,-0.040171,0.094136,0.15405,0.019525,-0.10285,0.027365,-0.61138,0.31611,1.5112,-0.001282,1.5647
-0.010386,-0.0062609,-0.031269,-0.011957,-0.073974,-0.16205,-0.054458,-0.090655,0.15252,0.069351,0.0084628,0.060234,0.12158,-0.02532,0.13921,0.18632,0.044722,-0.074512,0.17768,-0.5597,0.34064,1.3783,0.050263,1.5312
-0.016342,-0.0057984,-0.034315,-0.0055203,-0.054979,-0.13878,-0.045878,-0.084603,0.12889,0.16946,0.010986,0.085333,0.11985,-0.013936,0.18122,0.21488,0.068556,-0.04538,0.31001,-0.49876,0.35525,1.2578,0.10017,1.5562
-0.020519,-0.0025821,-0.037792,0.0033116,-0.043812,-0.1222,-0.0418,-0.07743,0.11383,0.23999,0.011991,0.10163,0.11075,-0.0033258,0.20843,0.23657,0.088132,-0.018664,0.40768,-0.43183,0.35128,1.138,0.14592,1.6162
-0.020582,0.0016498,-0.039691,0.0095065,-0.041042,-0.11087,-0.042895,-0.070276,0.10268,0.26837,0.013154,0.11281,0.093442,0.01019,0.21583,0.25295,0.099611,0.00079576,0.46787,-0.35923,0.33086,1.0091,0.18962,1.6696
-0.017097,0.0041881,-0.037924,0.0093186,-0.043034,-0.10448,-0.048489,-0.066434,0.087349,0.25513,0.015548,0.12174,0.071088,0.027564,0.20734,0.2674,0.10099,0.0093904,0.49973,-0.27897,0.30543,0.87576,0.23435,1.6893
-0.012867,0.0034873,-0.03227,0.0029227,-0.045493,-0.10306,-0.05596,-0.068652,0.061614,0.2075,0.018522,0.12837,0.048282,0.045543,0.19277,0.28159,0.09396,0.0069968,0.51591,-0.18595,0.28573,0.75058,0.28007,1.6749
-0.010794,0.0004001,-0.025181,-0.0053989,-0.046506,-0.10531,-0.061387,-0.076164,0.025257,0.13331,0.02023,0.13116,0.027844,0.058632,0.18156,0.29448,0.083063,-0.0030653,0.5241,-0.073566,0.27172,0.63353,0.32318,1.6414
-0.011776,-0.0025599,-0.020296,-0.009955,-0.046885,-0.1082,-0.061693,-0.084128,-0.015986,0.03979,0.019698,0.13014,0.0097592,0.06313,0.17757,0.30433,0.072504,-0.016103,0.52444,0.061164,0.25099,0.49647,0.36006,1.5967
-0.014139,-0.0033793,-0.019671,-0.007559,-0.048176,-0.10878,-0.056839,-0.086437,-0.054696,-0.063664,0.018561,0.12856,-0.0071375,0.060383,0.17827,0.31174,0.063233,-0.028438,0.51362,0.21282,0.2072,0.2909,0.3911,1.5292
-0.015027,-0.0023098,-0.022154,0.00015015,-0.050477,-0.10682,-0.049966,-0.07999,-0.086781,-0.16333,0.020432,0.13095,-0.022806,0.056844,0.17864,0.32093,0.052804,-0.038541,0.49194,0.36755,0.13162,-0.020217,0.42123,1.4158
-0.012714,-0.0016286,-0.024451,0.0078346,-0.051973,-0.10551,-0.044868,-0.067024,-0.11331,-0.243,0.027917,0.13905,-0.035461,0.060675,0.17639,0.33769,0.038249,-0.04665,0.46776,0.50762,0.029125,-0.4265,0.45601,1.2398
-0.0080711,-0.0034715,-0.023953,0.010339,-0.050381,-0.10921,-0.042664,-0.053446,-0.13815,-0.28921,0.039707,0.14939,-0.043314,0.076931,0.17405,0.36536,0.019506,-0.053676,0.45601,0.61572,-0.085243,-0.85663,0.49671,1.0015
-0.004027,-0.0076106,-0.020702,0.0064293,-0.044912,-0.11942,-0.040679,-0.044374,-0.16384,-0.29609,0.050656,0.15537,-0.04668,0.10449,0.17636,0.40143,0.00033104,-0.060311,0.47153,0.67486,-0.19495,-1.2016,0.53875,0.71403
-0.0034009,-0.011284,-0.016752,-0.00047024,-0.037122,-0.13244,-0.034862,-0.040516,-0.18934,-0.26661,0.055374,0.15295,-0.048242,0.13683,0.18561,0.43764,-0.014274,-0.066634,0.52156,0.66688,-0.28892,-1.3643,0.57515,0.39176
-0.0067622,-0.01145,-0.013702,-0.0050533,-0.029982,-0.14078,-0.023931,-0.038313,-0.21126,-0.20945,0.052602,0.14497,-0.051114,0.16639,0.19921,0.46396,-0.021928,-0.072084,0.60186,0.5762,-0.36264,-1.3078,0.60228,0.047476
-0.011918,-0.0075681,-0.011039,-0.0041106,-0.025883,-0.13748,-0.01153,-0.033485,-0.22668,-0.13431,0.04653,0.14006,-0.056526,0.18941,0.2119,0.47407,-0.024638,-0.075673,0.69868,0.40163,-0.41494,-1.0736,0.62319,-0.29896
-0.015352,-0.0023436,-0.0069966,0.0014315,-0.024952,-0.12011,-0.004143,-0.024673,-0.23514,-0.049257,0.043568,0.1461,-0.063259,0.20802,0.22031,0.46862,-0.026899,-0.076436,0.79457,0.16909,-0.44502,-0.76082,0.64567,-0.61153
-0.014491,0.00040857,-0.0010014,0.0077889,-0.024781,-0.091654,-0.0061358,-0.014007,-0.23817,0.038089,0.047041,0.16356,-0.06919,0.22786,0.22563,0.45369,-0.031774,-0.073984,0.87429,-0.067404,-0.45232,-0.47968,0.67627,-0.84476
-0.00919,-0.0010059,0.004982,0.011495,-0.02175,-0.057967,-0.015961,-0.0043479,-0.23766,0.11707,0.054289,0.18439,-0.073247,0.25316,0.23192,0.43552,-0.03835,-0.06875,0.92802,-0.24291,-0.43825,-0.30428,0.7146,-0.96832
-0.0015645,-0.0047437,0.0078811,0.011721,-0.013101,-0.02412,-0.02677,0.0039209,-0.2348,0.1721,0.05872,0.19796,-0.075822,0.28298,0.24179,0.41552,-0.042604,-0.061572,0.9516,-0.3088,-0.40692,-0.24843,0.75198,-0.99201
0.0054333,-0.0071517,0.0064998,0.010123,0.0014634,0.0075844,-0.031067,0.01341,-0.23037,0.18511,0.055074,0.19933,-0.077369,0.31157,0.25334,0.38927,-0.040689,-0.052822,0.94597,-0.2533,-0.36368,-0.27217,0.77519,-0.96747
0.0096129,-0.0061155,0.0030588,0.0089403,0.019622,0.037099,-0.025748,0.027038,-0.22517,0.14181,0.043395,0.19306,-0.076871,0.33253,0.26095,0.35022,-0.031702,-0.041872,0.9168,-0.10286,-0.31294,-0.31218,0.77309,-0.95941
0.010387,-0.0029938,0.0015406,0.0093302,0.037718,0.064866,-0.013721,0.044674,-0.21969,0.038089,0.028442,0.18943,-0.072058,0.34339,0.25894,0.29487,-0.017838,-0.027583,0.87347,0.093521,-0.25742,-0.31836,0.74195,-1.0054
0.0086518,-0.0013662,0.004221,0.011176,0.052598,0.090718,-0.0012613,0.062313,-0.21332,-0.11691,0.015398,0.19622,-0.061456,0.34702,0.2451,0.22536,-0.0023245,-0.0096881,0.82563,0.28364,-0.19895,-0.27839,0.68651,-1.0957
0.0060906,-0.0037182,0.0096507,0.013898,0.062843,0.11429,0.0063729,0.07466,-0.20468,-0.3017,0.0059079,0.21256,-0.046353,0.34879,0.2215,0.14826,0.012593,0.0099917,0.77804,0.4237,-0.13957,-0.21835,0.61677,-1.1911
0.0043668,-0.0090539,0.014016,0.016986,0.068769,0.13609,0.0076213,0.078984,-0.1934,-0.48589,-0.0021042,0.2293,-0.030686,0.35196,0.19277,0.071119,0.025887,0.02766,0.72699,0.48185,-0.081507,-0.18042,0.54299,-1.2648
0.0044678,-0.013594,0.014569,0.019764,0.071541,0.1578,0.0041274,0.076969,-0.18179,-0.6351,-0.011091,0.23507,-0.018737,0.35493,0.16315,-0.00014756,0.036508,0.039237,0.66196,0.4414,-0.026675,-0.19163,0.47208,-1.3328
0.0062936,-0.013964,0.011907,0.021081,0.072305,0.18108,-0.0015972,0.073099,-0.17408,-0.71801,-0.020504,0.22305,-0.012636,0.35222,0.13424,-0.062058,0.042492,0.042633,0.57246,0.3081,0.022987,-0.24367,0.40738,-1.4451
0.008648,-0.010078,0.0091017,0.019822,0.071979,0.20555,-0.0079178,0.071055,-0.17288,-0.71613,-0.026716,0.19404,-0.011801,0.33832,0.10425,-0.11325,0.041736,0.039015,0.45546,0.11562,0.063964,-0.2975,0.35061,-1.642
0.0098235,-0.0052352,0.008764,0.016048,0.071499,0.2278,-0.01402,0.071241,-0.17588,-0.63295,-0.026377,0.15454,-0.014455,0.3113,0.069286,-0.15408,0.033908,0.032124,0.31756,-0.080927,0.090311,-0.30997,0.30379,-1.9099
0.0086936,-0.0033594,0.010883,0.011558,0.071825,0.24227,-0.01888,0.071354,-0.1763,-0.49595,-0.020122,0.11187,-0.019438,0.27399,0.026377,-0.18596,0.021587,0.026057,0.17047,-0.22643,0.095493,-0.26361,0.26926,-2.173
0.0057056,-0.0057827,0.013264,0.0089393,0.073308,0.24393,-0.020897,0.069191,-0.16772,-0.34672,-0.013316,0.069592,-0.026491,0.23234,-0.023211,-0.20959,0.0092568,0.023014,0.023559,-0.29096,0.076488,-0.17793,0.2483,-2.3301
0.0029173,-0.010279,0.013799,0.0096025,0.074951,0.23087,-0.01885,0.064942,-0.14972,-0.22204,-0.013155,0.025392,-0.035148,0.19235,-0.072715,-0.22309,0.00065834,0.022439,-0.12021,-0.28161,0.037046,-0.094556,0.24018,-2.3099
0.0027286,-0.013082,0.012278,0.012446,0.074469,0.20521,-0.013217,0.060867,-0.12926,-0.13694,-0.024419,-0.027609,-0.043975,0.15749,-0.11245,-0.22212,-0.0034713,0.021943,-0.26198,-0.23256,-0.013143,-0.048758,0.24304,-2.1056
0.0060252,-0.012072,0.010253,0.014442,0.06961,0.17174,-0.0063466,0.058777,-0.11625,-0.081192,-0.046931,-0.096516,-0.051426,0.12754,-0.13534,-0.2035,-0.0055268,0.01915,-0.40124,-0.18103,-0.063391,-0.050402,0.25578,-1.767
0.011183,-0.0083974,0.0094297,0.012851,0.059964,0.13549,-0.00099696,0.057916,-0.11648,-0.03189,-0.075997,-0.18329,-0.057532,0.099024,-0.14158,-0.17002,-0.0090305,0.0132,-0.53215,-0.14721,-0.1075,-0.088324,0.27885,-1.3632
0.014938,-0.0052337,0.010258,0.0073564,0.047904,0.10009,0.0016968,0.055451,-0.12748,0.026912,-0.10479,-0.28138,-0.064338,0.066972,-0.13865,-0.13183,-0.016163,0.0050952,-0.64512,-0.13061,-0.14557,-0.15138,0.31287,-0.94558
0.01466,-0.0048826,0.011872,0.00041474,0.037708,0.067864,0.0031477,0.049317,-0.14017,0.092164,-0.12676,-0.37684,-0.074021,0.027091,-0.13586,-0.10151,-0.026638,-0.0029859,-0.73169,-0.12103,-0.18088,-0.24484,0.35605,-0.53981
0.010302,-0.0067841,0.013125,-0.0044953,0.033255,0.040977,0.0063501,0.040767,-0.1445,0.14577,-0.13714,-0.45386,-0.086132,-0.02227,-0.13756,-0.08509,-0.038415,-0.0088168,-0.78811,-0.1112,-0.21472,-0.38578,0.40289,-0.16288
0.0044377,-0.008144,0.01359,-0.0053908,0.035751,0.021994,0.013797,0.034122,-0.13418,0.17025,-0.1335,-0.50113,-0.096702,-0.079122,-0.14028,-0.07631,-0.049253,-0.011078,-0.81493,-0.10108,-0.24349,-0.58116,0.44569,0.15479
0.00036558,-0.006567,0.013682,-0.0031722,0.042997,0.013003,0.025883,0.033673,-0.10786,0.16291,-0.11621,-0.515,-0.10056,-0.13808,-0.13639,-0.059399,-0.057739,-0.0098213,-0.81436,-0.094014,-0.2602,-0.80982,0.47778,0.36712
-0.00015908,-0.0023695,0.013988,-0.00083678,0.050729,0.01396,0.040824,0.040295,-0.06736,0.13724,-0.088527,-0.49808,-0.09532,-0.19183,-0.12128,-0.019621,-0.063312,-0.0063348,-0.78874,-0.093266,-0.25891,-1.0267,0.49604,0.43558
0.0022012,0.0014393,0.014604,-0.0011136,0.055163,0.021959,0.05583,0.050582,-0.015985,0.11126,-0.056041,-0.4558,-0.083736,-0.23353,-0.097994,0.046007,-0.065835,-0.002468,-0.74198,-0.10413,-0.23861,-1.1877,0.50096,0.3617
