-1.3312e-010,9.087e-010,5.5757e-010,9.28e-010,2.0258e-010,5.1127e-010,8.624e-010,8.5854e-010,1.5242e-010,5.3442e-010,6.1545e-010,1.3061e-009,-1.4084e-010,5.7686e-010,5.0741e-010,1.1402e-009,4.804e-010,5.8458e-010,3.685e-010,3.8779e-010,-1.0225e-010,6.2317e-010,9.8973e-010,8.1224e-010
-3.7867e-009,2.5354e-008,1.5477e-008,2.5806e-008,5.5401e-009,1.4383e-008,2.3754e-008,2.3748e-008,3.9726e-009,1.4849e-008,1.6768e-008,3.6201e-008,-3.8572e-009,1.6014e-008,1.4284e-008,3.1493e-008,1.3356e-008,1.6007e-008,1.0499e-008,1.0978e-008,-2.9375e-009,1.7101e-008,2.7327e-008,2.2117e-008
-5.2406e-008,3.4387e-007,2.0895e-007,3.4895e-007,7.37e-008,1.9657e-007,3.1803e-007,3.1929e-007,4.9979e-008,2.0073e-007,2.2225e-007,4.878e-007,-5.1476e-008,2.1617e-007,1.9544e-007,4.2265e-007,1.8089e-007,2.1299e-007,1.4527e-007,1.5103e-007,-4.0888e-008,2.2806e-007,3.6687e-007,2.925e-007
-4.7001e-007,3.02e-006,1.828e-006,3.0565e-006,6.3536e-007,1.739e-006,2.7567e-006,2.7801e-006,4.0366e-007,1.7589e-006,1.9097e-006,4.2569e-006,-4.4621e-007,1.8903e-006,1.7316e-006,3.6716e-006,1.5903e-006,1.8345e-006,1.3001e-006,1.3449e-006,-3.6726e-007,1.9691e-006,3.1907e-006,2.5025e-006
-3.0696e-006,1.93e-005,1.1646e-005,1.9489e-005,3.9892e-006,1.1193e-005,1.7385e-005,1.7619e-005,2.3467e-006,1.123e-005,1.1959e-005,2.7035e-005,-2.825e-006,1.2037e-005,1.1167e-005,2.3202e-005,1.0203e-005,1.1496e-005,8.4578e-006,8.7101e-006,-2.3915e-006,1.237e-005,2.0205e-005,1.5563e-005
-1.5551e-005,9.5611e-005,5.7573e-005,9.6376e-005,1.9434e-005,5.5846e-005,8.496e-005,8.6593e-005,1.0429e-005,5.5673e-005,5.8182e-005,0.00013311,-1.3924e-005,5.9466e-005,5.5857e-005,0.00011363,5.0903e-005,5.5838e-005,4.2599e-005,4.3704e-005,-1.2023e-005,6.0246e-005,9.9259e-005,7.4939e-005
-6.3554e-005,0.00038185,0.0002297,0.00038443,7.6414e-005,0.00022472,0.00033457,0.00034333,3.6684e-005,0.00022295,0.00022881,0.00052841,-5.5599e-005,0.00023714,0.00022544,0.00044853,0.0002055,0.00021867,0.00017274,0.00017667,-4.8517e-005,0.00023659,0.00039351,0.00029046
-0.0002151,0.001262,0.00075939,0.0012701,0.00024899,0.00074888,0.0010896,0.0011275,0.00010412,0.00074074,0.0007473,0.0017359,-0.0001847,0.00078398,0.00075398,0.0014651,0.00068946,0.00070884,0.00057877,0.00059055,-0.0001612,0.00076928,0.0012927,0.00092994
-0.00061395,0.0035147,0.0021189,0.00354,0.00068494,0.0021056,0.002988,0.0031239,0.00024012,0.0020806,0.0020659,0.0048049,-0.00051986,0.0021895,0.0021292,0.0040327,0.001959,0.0019371,0.0016312,0.0016619,-0.00044875,0.0021096,0.0035845,0.0025027
-0.0014964,0.0083517,0.0050548,0.0084348,0.001612,0.0050615,0.0069837,0.0073963,0.00044647,0.0050075,0.0049017,0.011346,-0.0012552,0.0052357,0.0051459,0.0094741,0.0047785,0.0045204,0.0039146,0.0039863,-0.0010586,0.004944,0.0084993,0.0057283
-0.00314,0.017071,0.010402,0.01734,0.0032769,0.010497,0.014023,0.015093,0.00064617,0.010426,0.010081,0.023036,-0.0026193,0.010824,0.010746,0.019161,0.010105,0.009085,0.008062,0.0082161,-0.0021297,0.0099923,0.017388,0.011229
-0.0056942,0.030147,0.018568,0.030948,0.005792,0.018893,0.024292,0.026676,0.00064598,0.018901,0.018095,0.04038,-0.004737,0.019474,0.019517,0.033526,0.018658,0.015805,0.014305,0.014615,-0.0036608,0.017522,0.030865,0.018901
-0.0089168,0.046015,0.028828,0.048132,0.0089418,0.029591,0.036317,0.040879,0.00018918,0.029943,0.028469,0.061104,-0.0074028,0.030601,0.030961,0.050833,0.030231,0.023837,0.021867,0.022453,-0.0053548,0.026746,0.047651,0.027252
-0.011966,0.060446,0.038929,0.065342,0.012092,0.040311,0.046688,0.054135,-0.00085621,0.041495,0.039332,0.079394,-0.0098839,0.042036,0.042993,0.066643,0.043165,0.031107,0.028674,0.029703,-0.0065843,0.035568,0.063947,0.033352
-0.013493,0.067608,0.045618,0.077481,0.014352,0.04757,0.051191,0.061378,-0.0022579,0.050208,0.047703,0.087421,-0.010969,0.050357,0.05232,0.075043,0.05457,0.034905,0.031927,0.033591,-0.0066213,0.041161,0.074318,0.033954
-0.012189,0.063048,0.046229,0.080411,0.014992,0.048205,0.04729,0.058449,-0.0033546,0.05279,0.050701,0.07936,-0.0094376,0.052245,0.055918,0.071661,0.061626,0.033329,0.029665,0.032127,-0.0051066,0.04137,0.074322,0.027548
-0.0076231,0.04714,0.040514,0.07378,0.013851,0.041347,0.036487,0.045018,-0.0033639,0.047872,0.047184,0.055894,-0.0048656,0.046305,0.052927,0.056868,0.063375,0.026767,0.022466,0.025811,-0.0024561,0.036161,0.063617,0.016031
-0.00087264,0.026334,0.031273,0.061925,0.011428,0.029439,0.024441,0.025866,-0.0019674,0.037186,0.038774,0.02567,0.0016803,0.034184,0.045568,0.036603,0.061664,0.018261,0.01384,0.018052,0.00021322,0.027943,0.047189,0.0043449
0.0056537,0.010319,0.022873,0.051552,0.0085057,0.017235,0.017842,0.0089461,0.00027872,0.024982,0.0293,0.0014369,0.0076999,0.020051,0.038035,0.019446,0.060066,0.012055,0.008474,0.01339,0.0017825,0.020237,0.033097,-0.00231
0.0093582,0.0061848,0.018395,0.047355,0.0056301,0.0091234,0.019737,0.00084893,0.0021769,0.015755,0.022724,-0.0075217,0.010382,0.0085831,0.03378,0.011436,0.061098,0.011034,0.0091703,0.014286,0.0020313,0.015479,0.0276,-0.0019965
0.0090059,0.013503,0.017572,0.048816,0.0029151,0.0065667,0.026903,0.0026186,0.0027453,0.011718,0.020813,-0.0014929,0.0083401,0.0026761,0.033145,0.012329,0.063745,0.014814,0.014815,0.018872,0.0019569,0.013624,0.030988,0.0025471
0.005621,0.024407,0.017375,0.050907,0.00039653,0.0076007,0.031949,0.0091344,0.0020331,0.01177,0.022218,0.0099679,0.0028176,0.0022958,0.033306,0.016351,0.063623,0.020026,0.02128,0.021858,0.0030558,0.012733,0.037448,0.0060866
0.0019115,0.029194,0.014898,0.048335,-0.001438,0.0087657,0.029083,0.012808,0.0011105,0.012692,0.023765,0.01503,-0.0027179,0.0050235,0.030773,0.016937,0.056163,0.022732,0.024793,0.018451,0.0060146,0.01103,0.03939,0.0051086
0.00041157,0.023466,0.010058,0.039862,-0.0015992,0.0078512,0.019023,0.0089533,0.0011275,0.011582,0.022991,0.0080846,-0.0046381,0.0077038,0.02445,0.01162,0.040494,0.02115,0.024981,0.0083788,0.0099566,0.0085736,0.033004,0.00050262
0.0016179,0.011169,0.0056058,0.029037,0.00068903,0.0051975,0.0086917,-0.0012127,0.0022483,0.0076762,0.019922,-0.0068613,-0.0015813,0.0080857,0.016668,0.0031013,0.020712,0.016597,0.024836,-0.0034724,0.013082,0.0070155,0.020671,-0.003693
0.0036277,0.00099583,0.0043552,0.020841,0.0050134,0.0026641,0.0055584,-0.01207,0.0034956,0.0023422,0.016605,-0.020359,0.0045648,0.0056699,0.011264,-0.0040361,0.0032267,0.012007,0.027564,-0.010703,0.014316,0.0077035,0.0084532,-0.0043173
0.0037487,-0.00089773,0.0062629,0.017324,0.0094894,0.0015021,0.011286,-0.018089,0.0037366,-0.0024067,0.014837,-0.025428,0.01,0.0015988,0.010346,-0.0076641,-0.0076735,0.0093696,0.033206,-0.010489,0.014516,0.0099924,0.0010336,-0.002086
0.00091381,0.0042226,0.0082368,0.016116,0.011728,0.0012454,0.02022,-0.017643,0.002919,-0.0054741,0.014208,-0.02253,0.011753,-0.0021779,0.012536,-0.0094934,-0.012296,0.0082803,0.038214,-0.005752,0.015996,0.011466,-0.0015351,-0.00071089
-0.0031382,0.0091752,0.0070167,0.012944,0.010555,0.00056179,0.024175,-0.013405,0.0023398,-0.0071524,0.012382,-0.0179,0.0097394,-0.0040841,0.014134,-0.012535,-0.014136,0.0066988,0.038432,-0.0024479,0.02062,0.0099695,-0.002786,-0.0030192
-0.0051098,0.0072302,0.002434,0.0055734,0.0071606,-0.0010274,0.019399,-0.0096564,0.0035728,-0.0084678,0.0075037,-0.017456,0.0065566,-0.0038982,0.012143,-0.017454,-0.016283,0.0030659,0.032739,-0.0043363,0.028057,0.0055964,-0.0059825,-0.0078703
-0.0029493,-0.002282,-0.0021556,-0.0044205,0.0045453,-0.0024883,0.0096275,-0.0090619,0.0069322,-0.010223,0.00051015,-0.022016,0.0052789,-0.0028966,0.0066209,-0.021548,-0.019187,-0.0022146,0.024023,-0.0099377,0.035746,0.00073243,-0.011236,-0.010912
0.0021933,-0.013797,-0.0028536,-0.013391,0.005377,-0.0024347,0.0026188,-0.011318,0.010845,-0.012489,-0.0050066,-0.027693,0.0071189,-0.0028689,0.00059717,-0.021361,-0.021589,-0.0072275,0.016709,-0.014384,0.040592,-0.0019551,-0.016054,-0.0085424
0.006741,-0.020488,0.0011005,-0.01885,0.0097483,-0.00089344,0.003368,-0.014105,0.012784,-0.014635,-0.0055758,-0.030342,0.010811,-0.0045907,-0.0021806,-0.01631,-0.023086,-0.010389,0.013215,-0.014301,0.040932,-0.0017933,-0.018318,-0.0013995
0.007728,-0.019741,0.0064556,-0.021113,0.01471,0.00026813,0.0099985,-0.015044,0.011148,-0.015608,-0.00093373,-0.029398,0.014005,-0.0070111,0.00016719,-0.0097533,-0.025224,-0.011846,0.012526,-0.011005,0.037239,-0.00056207,-0.018501,0.0058196
0.0054791,-0.01452,0.008807,-0.02221,0.016239,-0.0011109,0.015736,-0.013155,0.0066701,-0.01433,0.0053977,-0.027638,0.01527,-0.0080432,0.0064624,-0.006365,-0.029846,-0.013072,0.011855,-0.008955,0.031359,-0.00069377,-0.019008,0.0080607
0.0034171,-0.010096,0.0065788,-0.023646,0.012316,-0.0053636,0.014868,-0.0091945,0.0022357,-0.010353,0.0087201,-0.027579,0.014978,-0.0064698,0.013201,-0.0082477,-0.036543,-0.015083,0.0094868,-0.011038,0.025304,-0.0028549,-0.021536,0.0038806
0.004961,-0.0096114,0.0024119,-0.025404,0.0046253,-0.010401,0.0072707,-0.0051287,0.0010864,-0.0046562,0.0067977,-0.028455,0.014539,-0.0033057,0.016534,-0.013342,-0.042147,-0.017125,0.0060132,-0.0154,0.020581,-0.0051717,-0.0253,-0.0036273
0.010184,-0.01239,0.00065182,-0.02687,-0.0026608,-0.013344,-0.0022099,-0.0031532,0.0045223,0.00013489,0.0014342,-0.026871,0.014979,-0.0012571,0.014346,-0.017502,-0.043105,-0.017263,0.0030467,-0.017051,0.018096,-0.0049057,-0.027923,-0.0095141
0.01532,-0.015776,0.0032934,-0.028229,-0.0061411,-0.012923,-0.0084244,-0.0045522,0.010707,0.00085663,-0.0032729,-0.020507,0.016267,-0.002582,0.0073923,-0.018195,-0.038623,-0.014404,0.0010631,-0.012803,0.017998,-0.0011143,-0.028014,-0.010838
0.015801,-0.018022,0.0081539,-0.030548,-0.0057541,-0.010423,-0.010107,-0.0088116,0.015602,-0.0039803,-0.0043658,-0.011156,0.017805,-0.0071751,-0.0010927,-0.016438,-0.031567,-0.0097303,-0.0012641,-0.0047429,0.019298,0.0041781,-0.02669,-0.0085527
0.010345,-0.019335,0.010899,-0.03445,-0.0044282,-0.0083085,-0.01004,-0.01361,0.015657,-0.012427,-0.0021835,-0.0039729,0.019282,-0.012562,-0.0072645,-0.015323,-0.026247,-0.0059501,-0.0055711,0.0012331,0.019926,0.0075116,-0.026429,-0.0061254
0.0025054,-0.020612,0.0089109,-0.038975,-0.0051828,-0.0078583,-0.011668,-0.016018,0.010474,-0.019583,0.00039035,-0.0033438,0.020787,-0.015783,-0.0090457,-0.016731,-0.025051,-0.0048985,-0.0118,0.00058321,0.017819,0.0069425,-0.028419,-0.006312
-0.0018761,-0.021811,0.0033673,-0.042096,-0.0083634,-0.0080574,-0.015784,-0.014305,0.0033924,-0.020623,0.00059523,-0.0090333,0.022092,-0.015507,-0.0074781,-0.019401,-0.026803,-0.0057649,-0.017863,-0.0058466,0.012557,0.0037038,-0.031194,-0.0088235
0.00063833,-0.021917,-0.0022556,-0.042575,-0.011532,-0.0067364,-0.020301,-0.0090546,-0.00076205,-0.014396,-0.0020982,-0.016111,0.022098,-0.012642,-0.0059253,-0.020138,-0.027973,-0.0057817,-0.021416,-0.012677,0.0060327,0.00095746,-0.032102,-0.0107
0.0080964,-0.020409,-0.0055612,-0.041319,-0.012012,-0.0028571,-0.022817,-0.0026602,0.00073885,-0.0046699,-0.0060685,-0.018862,0.019422,-0.0092087,-0.0075032,-0.017003,-0.025422,-0.0028648,-0.021988,-0.014859,0.001139,0.00075927,-0.030226,-0.0089188
0.014434,-0.018355,-0.007135,-0.040791,-0.0096351,0.0021741,-0.023045,0.0023669,0.006392,0.0023273,-0.0092987,-0.015377,0.013861,-0.0067115,-0.012628,-0.011505,-0.018432,0.0022692,-0.021341,-0.011936,-0.00076222,0.0021653,-0.027744,-0.0030083
0.014103,-0.017705,-0.0092533,-0.042905,-0.0071115,0.0053415,-0.022693,0.0048005,0.01163,0.0024646,-0.010962,-0.008929,0.0072592,-0.0054016,-0.018683,-0.0077059,-0.0088399,0.0065716,-0.021742,-0.007811,-0.0014301,0.002405,-0.028103,0.0044315
0.0064098,-0.019368,-0.012932,-0.04727,-0.0077209,0.0042759,-0.023292,0.0047596,0.012455,-0.0031879,-0.01156,-0.0050659,0.0025912,-0.0047233,-0.022157,-0.0089497,0.00022128,0.0073152,-0.023914,-0.0065124,-0.0047456,2.2093e-005,-0.032592,0.0096288
-0.0038555,-0.022057,-0.016456,-0.051371,-0.012422,-0.00091136,-0.024552,0.0028019,0.0085144,-0.0092559,-0.011948,-0.0069721,0.001669,-0.0041313,-0.021529,-0.014987,0.0058149,0.0044276,-0.026626,-0.0082422,-0.013673,-0.0032335,-0.038671,0.010329
-0.0099567,-0.023207,-0.01695,-0.052483,-0.018877,-0.0075806,-0.02509,-0.00067333,0.0030037,-0.010301,-0.012546,-0.012987,0.0034438,-0.0034113,-0.01851,-0.021958,0.0062625,0.0003309,-0.028154,-0.0095058,-0.027631,-0.0039257,-0.041915,0.007126
-0.0081382,-0.021183,-0.013402,-0.049712,-0.023127,-0.012217,-0.024597,-0.0050727,-0.00047337,-0.005002,-0.013478,-0.018172,0.0046258,-0.002436,-0.01665,-0.025225,0.0017401,-0.0024424,-0.027939,-0.0070527,-0.04252,-0.00060386,-0.039963,0.0025452
-0.00017755,-0.016722,-0.0080503,-0.044575,-0.022473,-0.012557,-0.02484,-0.0090667,-0.0011838,0.003037,-0.015158,-0.018393,0.0023712,-0.00095161,-0.018558,-0.022708,-0.0056412,-0.0034596,-0.026815,-0.0016329,-0.05349,0.0040733,-0.034751,-0.0011208
0.0082441,-0.012305,-0.0045976,-0.039872,-0.01732,-0.0088535,-0.02808,-0.011036,-0.0016813,0.0083281,-0.018335,-0.013487,-0.0031957,0.0011717,-0.024,-0.01609,-0.012619,-0.0043025,-0.025821,0.0022069,-0.058264,0.0052697,-0.030835,-0.0033003
0.011895,-0.010112,-0.00491,-0.037868,-0.010791,-0.0036049,-0.034315,-0.010466,-0.0050233,0.0077475,-0.023331,-0.0071068,-0.0089076,0.0034653,-0.03028,-0.0091953,-0.016494,-0.006417,-0.025086,0.00021321,-0.058436,0.00052353,-0.031264,-0.0048219
0.0096204,-0.01045,-0.0073825,-0.039039,-0.0065668,-1.3956e-005,-0.040318,-0.0087707,-0.011467,0.0025635,-0.029251,-0.0036992,-0.011121,0.0047856,-0.034379,-0.0051842,-0.016878,-0.0091877,-0.023961,-0.0074147,-0.057908,-0.0074086,-0.034853,-0.0063562
0.0045793,-0.011939,-0.0086035,-0.041968,-0.0065782,-3.9183e-005,-0.041912,-0.00816,-0.017824,-0.003112,-0.034138,-0.0052088,-0.0087429,0.0039295,-0.035111,-0.0048822,-0.016048,-0.010268,-0.022014,-0.015731,-0.05985,-0.012499,-0.037431,-0.0072794
0.0012459,-0.013018,-0.0067338,-0.044224,-0.010033,-0.0031545,-0.03769,-0.0091699,-0.020145,-0.0058074,-0.036162,-0.0099993,-0.004099,0.00056251,-0.033766,-0.0072046,-0.017231,-0.0079097,-0.019578,-0.018982,-0.06455,-0.010783,-0.035859,-0.0061265
0.001866,-0.013227,-0.0033304,-0.043639,-0.014278,-0.0066129,-0.03076,-0.0093047,-0.017256,-0.0051237,-0.034886,-0.014473,-0.0009577,-0.0042789,-0.032966,-0.010665,-0.021965,-0.0029908,-0.017243,-0.015275,-0.069559,-0.004211,-0.031007,-0.0022027
0.005235,-0.013196,-0.0018269,-0.039439,-0.016802,-0.0071841,-0.026639,-0.0046961,-0.011861,-0.0033569,-0.031549,-0.015824,-0.0015606,-0.0085696,-0.034602,-0.014291,-0.028723,0.0013463,-0.015074,-0.0078281,-0.07168,0.0008023,-0.026871,0.0032938
0.0084441,-0.013661,-0.0041189,-0.032729,-0.016969,-0.0033501,-0.028899,0.0061002,-0.0081789,-0.0030644,-0.028215,-0.013778,-0.0052593,-0.010381,-0.038295,-0.017356,-0.034131,0.0022689,-0.012692,-0.0017774,-0.069101,-0.00096773,-0.026697,0.007935
0.0096572,-0.014725,-0.0085485,-0.026018,-0.016297,0.0035085,-0.036278,0.019501,-0.0083188,-0.0048704,-0.026542,-0.010263,-0.009718,-0.0089908,-0.041464,-0.018814,-0.03587,-0.00028145,-0.010217,0.00050568,-0.062242,-0.0088302,-0.029816,0.010118
0.00933,-0.016045,-0.011263,-0.02189,-0.017072,0.0098294,-0.043732,0.028324,-0.010671,-0.0072542,-0.027047,-0.0075913,-0.01326,-0.0053261,-0.041144,-0.017602,-0.03477,-0.0035326,-0.0088243,0.0013372,-0.053107,-0.016839,-0.032175,0.010631
0.0090514,-0.01749,-0.0097286,-0.021497,-0.020329,0.012084,-0.046474,0.026742,-0.011693,-0.00815,-0.029159,-0.006693,-0.016083,-0.0014514,-0.036453,-0.01374,-0.03425,-0.0043472,-0.0099473,0.0051568,-0.044009,-0.019282,-0.030078,0.012079
0.0095473,-0.019261,-0.0051468,-0.023828,-0.024782,0.0090122,-0.043539,0.014972,-0.0093431,-0.0067166,-0.031707,-0.0066384,-0.019425,0.0006072,-0.029789,-0.0089441,-0.037546,-0.0020231,-0.013738,0.013796,-0.036643,-0.015885,-0.02363,0.016409
0.010015,-0.021183,-0.0015761,-0.026309,-0.02765,0.0023886,-0.037986,-0.0002575,-0.0050434,-0.0037669,-0.033498,-0.0055818,-0.023809,2.0427e-005,-0.025518,-0.0056749,-0.045101,0.0010465,-0.018534,0.023917,-0.031799,-0.011864,-0.016722,0.022704
0.0093303,-0.022022,-0.0025454,-0.026412,-0.026837,-0.0041257,-0.033864,-0.010156,-0.0024908,-0.00075269,-0.033857,-0.0022464,-0.028234,-0.002408,-0.026816,-0.0051927,-0.054201,0.0013887,-0.022232,0.029166,-0.029414,-0.012856,-0.013617,0.027409
0.0075644,-0.01996,-0.0081443,-0.023234,-0.022733,-0.0072309,-0.032806,-0.0099195,-0.0044823,0.0015073,-0.033027,0.0031525,-0.031035,-0.0048318,-0.033112,-0.0064646,-0.060981,-0.0026753,-0.024439,0.025474,-0.028651,-0.019559,-0.015244,0.027075
0.0059758,-0.014237,-0.015017,-0.018034,-0.018074,-0.0059051,-0.033105,-0.0017174,-0.010529,0.0031267,-0.032151,0.009066,-0.031415,-0.0056557,-0.040454,-0.0072227,-0.063036,-0.0097442,-0.027272,0.015054,-0.028127,-0.027136,-0.018469,0.021349
0.0054119,-0.0065758,-0.019109,-0.013457,-0.015848,-0.0018812,-0.031747,0.0075529,-0.017198,0.0043744,-0.032558,0.013555,-0.030128,-0.0046973,-0.044664,-0.0064075,-0.060678,-0.016561,-0.033822,0.0054574,-0.026479,-0.029818,-0.018836,0.013589
0.0049999,-0.00072388,-0.018796,-0.01198,-0.016908,0.0015247,-0.027278,0.011759,-0.020767,0.0048508,-0.034695,0.015302,-0.028775,-0.0033631,-0.04462,-0.0056565,-0.05625,-0.020476,-0.045561,0.0040918,-0.023124,-0.026274,-0.014267,0.0084982
0.0028629,4.5504e-005,-0.015906,-0.014509,-0.019318,0.0015152,-0.02093,0.0098232,-0.019964,0.0036671,-0.037581,0.014152,-0.02851,-0.00358,-0.042762,-0.0081402,-0.05236,-0.021022,-0.060922,0.012415,-0.018601,-0.020696,-0.0065926,0.0087643
-0.0015994,-0.0043274,-0.014044,-0.019867,-0.020001,-0.002408,-0.015303,0.0055931,-0.016704,0.00055591,-0.039452,0.011071,-0.02934,-0.0061448,-0.04245,-0.015492,-0.050333,-0.01949,-0.076064,0.024497,-0.014102,-0.018758,0.00010771,0.013431
-0.0062937,-0.010137,-0.015719,-0.025368,-0.017334,-0.0081115,-0.012106,0.0038616,-0.014408,-0.0032918,-0.039206,0.0076826,-0.030383,-0.0097504,-0.044816,-0.025577,-0.049628,-0.017299,-0.086833,0.031222,-0.010536,-0.022363,0.0027175,0.019079
-0.0077986,-0.012409,-0.020558,-0.028156,-0.012463,-0.012256,-0.011082,0.006202,-0.015356,-0.0057956,-0.037351,0.005592,-0.0306,-0.011649,-0.048076,-0.033373,-0.04829,-0.014839,-0.090225,0.026909,-0.0079678,-0.028087,0.0011727,0.0225
-0.0046735,-0.0087212,-0.02586,-0.02663,-0.0082148,-0.012623,-0.010841,0.010132,-0.019099,-0.0057397,-0.035455,0.005645,-0.029356,-0.0097439,-0.049747,-0.034562,-0.044176,-0.011798,-0.084768,0.013306,-0.0058982,-0.030564,-0.0019578,0.022564
0.000446,-0.0012591,-0.0289,-0.021227,-0.00658,-0.0097348,-0.010465,0.011951,-0.022997,-0.0041384,-0.034487,0.0074396,-0.026657,-0.0046195,-0.04928,-0.028918,-0.036449,-0.0083541,-0.070593,-0.0019118,-0.0039394,-0.027444,-0.003682,0.020104
0.0024398,0.0047454,-0.029095,-0.014187,-0.0069631,-0.0065128,-0.010192,0.010332,-0.024252,-0.0037138,-0.03364,0.0094877,-0.02325,0.00022316,-0.048331,-0.02054,-0.026494,-0.0057324,-0.049929,-0.01062,-0.0020559,-0.021356,-0.0027042,0.016472
-0.0019341,0.0050938,-0.028334,-0.0084298,-0.0067475,-0.0061477,-0.010643,0.0072871,-0.021784,-0.0066348,-0.030906,0.010167,-0.020569,0.00050508,-0.048537,-0.014594,-0.017372,-0.0052495,-0.027482,-0.0093971,-0.00015049,-0.017276,-3.3169e-005,0.012301
-0.010767,-9.5369e-005,-0.029344,-0.0062137,-0.0036965,-0.0097588,-0.011596,0.0058228,-0.016631,-0.012415,-0.025032,0.0089762,-0.020221,-0.0056622,-0.049331,-0.013233,-0.011767,-0.0066489,-0.0093367,-0.00076611,0.0023057,-0.018031,0.0020023,0.0074087
-0.018115,-0.0066416,-0.033471,-0.0082057,0.0018959,-0.015665,-0.011717,0.0067947,-0.010875,-0.017975,-0.01711,0.0071302,-0.023015,-0.015992,-0.048274,-0.014043,-0.0097581,-0.0075621,-0.00011434,0.0096511,0.0058369,-0.022089,0.0013792,0.0015146
-0.018909,-0.009852,-0.039675,-0.013286,0.0072173,-0.020801,-0.0096329,0.0081213,-0.0062399,-0.020032,-0.010201,0.0068444,-0.028116,-0.025214,-0.043625,-0.012266,-0.0084461,-0.0051421,-0.00012569,0.017217,0.0099742,-0.025418,-0.0024247,-0.005131
-0.013351,-0.0082939,-0.045356,-0.018986,0.0091833,-0.023086,-0.0053112,0.0070677,-0.0034562,-0.017841,-0.0071574,0.0096515,-0.033163,-0.028574,-0.036384,-0.0048839,-0.004241,0.0012129,-0.005041,0.02041,0.012916,-0.025383,-0.0082066,-0.01175
-0.0067134,-0.0045854,-0.048173,-0.022367,0.0070488,-0.022817,-0.00040731,0.0032316,-0.0025596,-0.013835,-0.00846,0.015023,-0.035513,-0.025049,-0.029553,0.0068083,0.0037541,0.0085877,-0.0088702,0.020009,0.01265,-0.023006,-0.01371,-0.017463
-0.0045967,-0.0027118,-0.047376,-0.021183,0.0031403,-0.022077,0.0027972,-0.00081345,-0.0034,-0.011547,-0.011928,0.020462,-0.033789,-0.017821,-0.025269,0.018088,0.012228,0.012347,-0.0081555,0.016905,0.0088291,-0.021699,-0.016764,-0.02164
-0.0079647,-0.0044488,-0.043939,-0.01508,0.0010283,-0.022799,0.0029485,-0.0019019,-0.0057025,-0.012648,-0.014593,0.023106,-0.02858,-0.011716,-0.022784,0.024253,0.015772,0.0098273,-0.0039849,0.010928,0.0036006,-0.023883,-0.016368,-0.023966
-0.012577,-0.0080978,-0.039836,-0.006219,0.0026453,-0.025163,0.00041179,0.00062242,-0.0087658,-0.015761,-0.015109,0.021613,-0.021841,-0.009718,-0.019419,0.023833,0.011262,0.0026759,-0.00019963,0.0016945,0.000347,-0.028626,-0.013207,-0.024423
-0.013301,-0.010409,-0.037195,0.0013964,0.0067894,-0.027559,-0.0031635,0.0040958,-0.011413,-0.018071,-0.014618,0.016941,-0.015656,-0.011304,-0.013554,0.019272,0.00093031,-0.0044903,0.00049108,-0.0096164,0.0012537,-0.032346,-0.0092954,-0.023388
-0.0091991,-0.0096128,-0.037628,0.004013,0.010278,-0.027998,-0.0059353,0.0048013,-0.012525,-0.018158,-0.015313,0.011538,-0.011394,-0.013683,-0.0065345,0.014955,-0.0086966,-0.0080617,-0.0010592,-0.019604,0.0058446,-0.031823,-0.0068282,-0.021717
-0.0045971,-0.0066908,-0.041597,0.0005949,0.010731,-0.025754,-0.006756,0.0012024,-0.011762,-0.01736,-0.017984,0.0077209,-0.0097245,-0.014596,-0.0014697,0.014301,-0.011395,-0.0083734,-0.0015611,-0.02413,0.011753,-0.026945,-0.0068402,-0.020513
-0.0051733,-0.0040194,-0.047868,-0.006121,0.0085582,-0.021966,-0.0054984,-0.0047772,-0.0097695,-0.01834,-0.020827,0.0064612,-0.010976,-0.014207,-9.3285e-005,0.01793,-0.0057956,-0.008798,0.0012793,-0.020995,0.016879,-0.020972,-0.0085608,-0.020534
-0.012746,-0.0031094,-0.053641,-0.011162,0.0064395,-0.018819,-0.0030081,-0.0094614,-0.0076294,-0.022234,-0.020729,0.0072142,-0.015066,-0.014622,-0.0008617,0.023793,0.003741,-0.011923,0.0063837,-0.011642,0.020883,-0.018185,-0.010009,-0.021668
-0.02354,-0.0037775,-0.055834,-0.010764,0.0068165,-0.018001,-0.00086858,-0.010505,-0.0060428,-0.027138,-0.016078,0.0085753,-0.020919,-0.01764,-0.00029837,0.028873,0.010556,-0.016686,0.010237,-0.0003908,0.024839,-0.020768,-0.0095215,-0.022999
-0.031365,-0.0052433,-0.05305,-0.0052834,0.0096575,-0.019622,-0.00085014,-0.0087489,-0.0049767,-0.029559,-0.0086358,0.0091365,-0.026155,-0.02279,0.003643,0.031253,0.010577,-0.01941,0.0102,0.0082849,0.029792,-0.027198,-0.0070785,-0.023519
-0.032643,-0.0074712,-0.046802,0.00081939,0.012476,-0.022355,-0.0039536,-0.0075071,-0.00398,-0.027634,-0.0026281,0.0080863,-0.027916,-0.027323,0.0094418,0.0313,0.0048304,-0.017736,0.0070172,0.012341,0.035834,-0.033235,-0.0043003,-0.022918
-0.028805,-0.010961,-0.040724,0.0022647,0.012556,-0.02458,-0.0094994,-0.010105,-0.0027331,-0.023205,-0.0016108,0.0054323,-0.024666,-0.028204,0.013195,0.031152,-0.0021183,-0.013397,0.0041536,0.01266,0.042367,-0.034772,-0.0029576,-0.021782
-0.024264,-0.015201,-0.038044,-0.002887,0.0093971,-0.025553,-0.01511,-0.017599,-0.0012496,-0.02065,-0.0056927,0.0018651,-0.017639,-0.024532,0.012052,0.032725,-0.0061295,-0.010931,0.0045891,0.01133,0.048765,-0.030557,-0.0031782,-0.02105
-0.022268,-0.017874,-0.039171,-0.011529,0.0052179,-0.02565,-0.017978,-0.028175,0.0003785,-0.023264,-0.011551,-0.0016897,-0.010479,-0.018482,0.0067281,0.035614,-0.0064818,-0.013513,0.0080757,0.0094421,0.054349,-0.022979,-0.0029837,-0.02126
-0.022539,-0.01636,-0.041418,-0.017789,0.0031197,-0.025657,-0.01672,-0.038362,0.0022709,-0.030263,-0.015274,-0.0046734,-0.0069322,-0.013964,0.0008339,0.036715,-0.0056844,-0.020025,0.011397,0.0063968,0.057849,-0.016419,0.00018556,-0.022249
-0.022543,-0.010556,-0.041242,-0.017563,0.004516,-0.025896,-0.012388,-0.045089,0.004642,-0.037124,-0.015511,-0.00732,-0.0081767,-0.013928,-0.0022719,0.032341,-0.0067162,-0.026245,0.011354,0.0011886,0.057502,-0.014311,0.0070518,-0.023503
-0.020628,-0.0040964,-0.037185,-0.011606,0.0080228,-0.026093,-0.0077671,-0.047305,0.0073335,-0.039113,-0.014123,-0.010588,-0.011952,-0.018297,-0.0021827,0.021475,-0.010278,-0.028885,0.0076833,-0.0057731,0.052409,-0.016949,0.015275,-0.024711
-0.017755,-0.002113,-0.03107,-0.0046314,0.010684,-0.026016,-0.0054402,-0.046245,0.0095461,-0.035048,-0.01381,-0.015569,-0.014316,-0.024101,-0.0013288,0.0073751,-0.014274,-0.028443,0.0032133,-0.012259,0.043997,-0.021513,0.020702,-0.025998
-0.016246,-0.0069753,-0.026393,-0.0012418,0.010427,-0.026055,-0.006167,-0.044317,0.010255,-0.028092,-0.015063,-0.022715,-0.012692,-0.027735,-0.0023332,-0.004283,-0.015651,-0.028177,0.0011669,-0.015812,0.035698,-0.024266,0.020306,-0.027691
-0.017084,-0.015805,-0.025328,-0.0021994,0.0076644,-0.026961,-0.0087373,-0.04344,0.009138,-0.022983,-0.015497,-0.031346,-0.0077184,-0.027609,-0.0053957,-0.0096217,-0.012837,-0.030453,0.0021698,-0.015957,0.030418,-0.023296,0.014501,-0.029929
-0.018689,-0.022381,-0.026949,-0.0041664,0.004758,-0.028918,-0.011168,-0.044017,0.0072026,-0.02226,-0.012312,-0.039743,-0.0023912,-0.025157,-0.0081156,-0.0097022,-0.0068499,-0.034239,0.0037655,-0.014929,0.027897,-0.019822,0.0069213,-0.032432
-0.018467,-0.02215,-0.02818,-0.0029377,0.0038651,-0.03095,-0.012064,-0.045242,0.006321,-0.024783,-0.0055267,-0.045812,0.00069048,-0.023469,-0.0078579,-0.0097054,-0.00050876,-0.03617,0.002856,-0.016106,0.024793,-0.017081,0.0018492,-0.034509
-0.015518,-0.01601,-0.026542,0.0028277,0.0050021,-0.031485,-0.011118,-0.046312,0.0078084,-0.027559,0.0013322,-0.047999,0.0015198,-0.024689,-0.0044522,-0.014578,0.0033803,-0.033978,-0.0012604,-0.021339,0.018054,-0.017636,0.0013723,-0.035171
-0.011662,-0.0094425,-0.022227,0.0106,0.005978,-0.02973,-0.0087515,-0.047359,0.01118,-0.028753,0.0040579,-0.046003,0.0024155,-0.028316,-0.00074294,-0.024752,0.0034975,-0.028834,-0.006118,-0.029439,0.0087508,-0.021123,0.0044449,-0.033369
-0.0096407,-0.0077172,-0.017708,0.016275,0.0043161,-0.02662,-0.0056132,-0.049228,0.014342,-0.028892,0.0016191,-0.040917,0.0056156,-0.031728,-0.00043755,-0.035662,0.00040483,-0.024377,-0.0082936,-0.037018,0.002492,-0.024269,0.0082729,-0.028457
-0.010254,-0.011499,-0.015409,0.017414,-0.0003646,-0.024361,-0.0024431,-0.052393,0.015335,-0.029355,-0.0026714,-0.034699,0.010985,-0.032419,-0.0050715,-0.04154,-0.0040216,-0.023463,-0.0065147,-0.040947,0.0053567,-0.023322,0.010559,-0.02084
-0.011365,-0.016821,-0.015597,0.014569,-0.0055029,-0.024798,-7.988e-005,-0.056175,0.014214,-0.030145,-0.0039991,-0.029315,0.015969,-0.030019,-0.012653,-0.040239,-0.007584,-0.02574,-0.0027643,-0.040399,0.018562,-0.017165,0.010753,-0.012317
-0.0099239,-0.019284,-0.016283,0.010006,-0.0071709,-0.027895,0.00085286,-0.059109,0.013262,-0.029549,-0.00039599,-0.026064,0.017884,-0.026427,-0.019098,-0.034919,-0.0087032,-0.028162,-0.00035975,-0.037032,0.036675,-0.0086284,0.009686,-0.0056118
-0.0050934,-0.018395,-0.014957,0.0056298,-0.0030646,-0.031559,0.00049214,-0.060083,0.015047,-0.026168,0.0054668,-0.025403,0.016481,-0.024043,-0.021216,-0.031216,-0.0070145,-0.027782,-0.00080947,-0.033508,0.051263,-0.0027533,0.0084274,-0.0030835
0.00066622,-0.017869,-0.010483,0.0022324,0.0053319,-0.032931,-0.00018055,-0.059086,0.01984,-0.021043,0.0087687,-0.027112,0.014427,-0.023702,-0.018804,-0.032508,-0.0034303,-0.024223,-0.0023936,-0.031745,0.056976,-0.0031158,0.0075378,-0.0054062
0.0038164,-0.021656,-0.0036427,0.00028387,0.013225,-0.030204,-0.00014357,-0.056856,0.024776,-0.017368,0.0069945,-0.030452,0.01518,-0.024163,-0.014252,-0.037468,0.00037331,-0.019767,-0.0018502,-0.0321,0.054801,-0.0090735,0.0070736,-0.011171
0.0032419,-0.029565,0.0036802,0.00065339,0.01557,-0.023713,0.00058123,-0.053899,0.025812,-0.017737,0.002179,-0.034235,0.020051,-0.023541,-0.010251,-0.041898,0.0028239,-0.017316,0.0023148,-0.033621,0.049864,-0.016234,0.0068477,-0.017748
0.0015998,-0.036792,0.0096579,0.0039616,0.01066,-0.015665,0.00079487,-0.050044,0.021073,-0.021538,-0.0010966,-0.037085,0.027003,-0.021336,-0.0077023,-0.04293,0.0032053,-0.018165,0.0079341,-0.034759,0.046132,-0.019878,0.0064949,-0.022772
0.003006,-0.037902,0.013141,0.0092262,0.0016203,-0.0088175,-0.00058693,-0.045,0.012787,-0.025197,3.791e-005,-0.03807,0.032241,-0.019114,-0.005619,-0.041644,0.0018826,-0.021411,0.010574,-0.034078,0.043055,-0.018568,0.0055174,-0.025211
0.009056,-0.031595,0.013804,0.013699,-0.0054523,-0.0049565,-0.0029221,-0.039236,0.0059936,-0.025245,0.0042451,-0.037329,0.033203,-0.019113,-0.0028737,-0.04179,-6.1033e-005,-0.025104,0.007197,-0.030924,0.037017,-0.014935,0.0036988,-0.025436
0.016899,-0.021842,0.012234,0.014719,-0.0055341,-0.0040738,-0.0037142,-0.03405,0.0049187,-0.021416,0.0074162,-0.035969,0.030435,-0.021966,3.2197e-005,-0.04602,-0.0014686,-0.027806,-0.00098804,-0.026047,0.025754,-0.013095,0.0016885,-0.024517
0.021316,-0.014465,0.0099462,0.012101,0.0019384,-0.0046955,-0.00054132,-0.030597,0.0098753,-0.016914,0.0064537,-0.035066,0.026872,-0.025641,0.0010195,-0.053239,-0.0016312,-0.029219,-0.0089703,-0.02164,0.011259,-0.015031,0.00093788,-0.023416
0.019113,-0.012448,0.0088193,0.0086251,0.012784,-0.0051292,0.0065439,-0.028836,0.017154,-0.015602,0.0018238,-0.034596,0.025326,-0.02672,-0.0016128,-0.059483,-0.00046911,-0.029681,-0.011429,-0.020292,-0.0015515,-0.019127,0.0025259,-0.022574
0.011963,-0.014192,0.0098872,0.00779,0.021084,-0.0047688,0.014558,-0.02763,0.021892,-0.018654,-0.0032075,-0.033492,0.026433,-0.023128,-0.0071247,-0.061364,0.0016056,-0.029429,-0.0065436,-0.023112,-0.0089085,-0.021932,0.005671,-0.02196
0.0051687,-0.015934,0.01234,0.010652,0.023233,-0.0044643,0.019861,-0.026025,0.021513,-0.023553,-0.0055271,-0.030993,0.028661,-0.01606,-0.012217,-0.058897,0.0039925,-0.028459,0.0027885,-0.028459,-0.011,-0.021303,0.0075495,-0.021405
0.0033953,-0.015567,0.013911,0.014614,0.020059,-0.0055884,0.021246,-0.024434,0.017067,-0.026105,-0.0044545,-0.028016,0.030075,-0.0094465,-0.013222,-0.055299,0.0062105,-0.026967,0.011076,-0.032672,-0.011026,-0.017959,0.0052184,-0.020971
0.0070137,-0.014131,0.01275,0.015385,0.015647,-0.0085212,0.020913,-0.024353,0.011695,-0.02363,-0.0016237,-0.0269,0.03009,-0.0072617,-0.0088481,-0.05424,0.008074,-0.025608,0.013952,-0.032696,-0.011718,-0.014223,-0.0015953,-0.021148
0.012131,-0.013867,0.009349,0.010541,0.014036,-0.011901,0.022231,-0.026696,0.0078585,-0.016771,0.00081093,-0.02937,0.029783,-0.01068,-0.0011383,-0.057103,0.0096598,-0.025115,0.010795,-0.028636,-0.012851,-0.011474,-0.0093963,-0.022598
0.014148,-0.015205,0.0066442,0.0017063,0.016514,-0.013448,0.026288,-0.030343,0.0057063,-0.0088165,0.0017056,-0.034471,0.030739,-0.017232,0.00616,-0.062401,0.011106,-0.025595,0.0046658,-0.023888,-0.012039,-0.0089584,-0.013036,-0.025495
0.011721,-0.015945,0.0078448,-0.0064408,0.021379,-0.01176,0.030524,-0.032479,0.0037437,-0.0034049,0.0011264,-0.038669,0.033679,-0.022566,0.010382,-0.067358,0.012424,-0.026306,-1.3612e-006,-0.022397,-0.00784,-0.0050292,-0.0097499,-0.028889
0.0077686,-0.013501,0.013625,-0.0095205,0.025852,-0.0074892,0.030887,-0.030661,0.00084899,-0.0023938,-0.00026019,-0.038421,0.037988,-0.023513,0.0115,-0.069924,0.013514,-0.026235,-0.00022013,-0.025171,-0.0020084,0.00059989,-0.0017633,-0.03084
0.0067777,-0.0078746,0.021098,-0.0065162,0.02814,-0.0028176,0.025643,-0.02482,-0.0022959,-0.0051459,-0.0015852,-0.033155,0.042277,-0.020221,0.011278,-0.069621,0.0144,-0.024974,0.003979,-0.029111,0.0013498,0.005987,0.0050515,-0.029521
0.010805,-0.0023043,0.025614,-0.00027919,0.028,0.00030988,0.017372,-0.017414,-0.0035834,-0.0093291,-0.0017664,-0.025911,0.045204,-0.015854,0.011019,-0.067044,0.015441,-0.023019,0.0099635,-0.029422,-0.0010069,0.0084152,0.0056529,-0.024588
0.01758,-0.00072619,0.024066,0.0047184,0.025881,0.0015423,0.011222,-0.011614,-0.0012449,-0.012459,0.00027728,-0.02093,0.04585,-0.01408,0.010086,-0.062998,0.017181,-0.021207,0.014407,-0.023749,-0.0087713,0.0067823,-0.00022187,-0.017618
0.02226,-0.0042995,0.017132,0.0054927,0.022049,0.0019011,0.010841,-0.0091462,0.0045125,-0.013198,0.0048272,-0.020168,0.043633,-0.016199,0.0065091,-0.058128,0.019832,-0.019847,0.015409,-0.014562,-0.018299,0.0026833,-0.0079932,-0.011096
0.021295,-0.010173,0.0087993,0.0021641,0.016739,0.0024064,0.015449,-0.0095015,0.011278,-0.011729,0.010627,-0.021794,0.038225,-0.020059,-0.00093116,-0.053066,0.022824,-0.018366,0.013538,-0.0076603,-0.025438,-0.00074025,-0.012079,-0.0067866
0.015158,-0.013675,0.0037075,-0.0028846,0.01092,0.0030668,0.020465,-0.010803,0.015744,-0.009147,0.015232,-0.021944,0.029784,-0.021646,-0.011008,-0.048459,0.024979,-0.015726,0.011193,-0.0079189,-0.028448,-0.0010476,-0.010293,-0.0049396
0.0077663,-0.012045,0.0043254,-0.0072393,0.0064657,0.0031946,0.021091,-0.011233,0.015615,-0.0064405,0.016589,-0.018125,0.019246,-0.018221,-0.020186,-0.04456,0.025399,-0.011166,0.010791,-0.015622,-0.02859,0.0020753,-0.0051256,-0.0049261
0.0032156,-0.0064889,0.0097921,-0.010039,0.0051656,0.0024811,0.015859,-0.0098526,0.010921,-0.0039198,0.0147,-0.011292,0.0082636,-0.010607,-0.024473,-0.040805,0.024379,-0.0046632,0.013008,-0.026206,-0.028203,0.0071058,-0.0011266,-0.0063746
0.0026241,-0.00089131,0.016834,-0.011752,0.0074212,0.0014689,0.0073964,-0.0066343,0.0040372,-0.0014992,0.011881,-0.0048962,-0.0012608,-0.0027404,-0.021651,-0.036039,0.023401,0.0030133,0.016296,-0.033482,-0.028282,0.012,-0.0010338,-0.0093708
0.0036599,0.0015213,0.021857,-0.012824,0.011892,0.00087611,0.00010125,-0.0022747,-0.0015178,0.00059953,0.011234,-0.0018982,-0.0076177,0.0012861,-0.012442,-0.029501,0.023961,0.010469,0.017994,-0.033852,-0.027751,0.015262,-0.0040779,-0.013464
0.0030103,0.00060547,0.022921,-0.012868,0.016408,0.00067912,-0.0031777,0.0019336,-0.0028783,0.0016351,0.014439,-0.0024262,-0.0093892,0.00041112,-4.3328e-005,-0.021733,0.026135,0.015975,0.016246,-0.028543,-0.024838,0.016197,-0.0075844,-0.01685
-0.00041743,-0.0011342,0.020616,-0.011265,0.019202,0.00021865,-0.0028623,0.0044804,0.00066586,0.0010364,0.020526,-0.003962,-0.0054759,-0.0025748,0.011549,-0.014402,0.028254,0.0181,0.011383,-0.022509,-0.019017,0.014701,-0.0098961,-0.017243
-0.0043424,-0.0011097,0.017494,-0.0083043,0.019395,-0.00064496,-0.0017862,0.00452,0.007234,-0.00066219,0.026473,-0.0036401,0.0044055,-0.0033104,0.019499,-0.0088757,0.028201,0.016672,0.0058228,-0.020938,-0.011669,0.011185,-0.011672,-0.014124
-0.0050299,0.0011549,0.01632,-0.0052838,0.016688,-0.00073156,-0.0028532,0.0027275,0.013329,-0.0017741,0.029114,-0.00054394,0.018816,0.00056214,0.023346,-0.0047565,0.025304,0.013417,0.002568,-0.025739,-0.0050519,0.0066868,-0.014503,-0.010171
-0.00068435,0.0040337,0.018101,-0.0032157,0.011135,0.0016349,-0.0071621,0.0011435,0.015808,-0.00066318,0.027016,0.0038234,0.034275,0.0074408,0.024782,6.7583e-005,0.021154,0.011365,0.0033245,-0.034234,-0.00072591,0.0028109,-0.018527,-0.0098219
0.0065961,0.0056067,0.021235,-0.0015958,0.0035573,0.0066809,-0.01373,0.0017224,0.01373,0.0027915,0.021218,0.0069679,0.046528,0.01302,0.026083,0.007492,0.01851,0.012992,0.0074434,-0.040897,0.0011493,0.0012794,-0.021663,-0.015527
0.012084,0.0053119,0.02261,0.001055,-0.0039928,0.012153,-0.020489,0.0046119,0.0088301,0.0069308,0.014548,0.0073076,0.053001,0.013721,0.028177,0.016908,0.01919,0.018385,0.012324,-0.041023,0.0013977,0.0032963,-0.021371,-0.024822
0.011988,0.0040263,0.020155,0.0051111,-0.0087628,0.014691,-0.025465,0.0077298,0.0041983,0.0096801,0.010018,0.0050664,0.054506,0.0095307,0.029846,0.024819,0.022763,0.02514,0.014972,-0.033886,0.0011162,0.0090854,-0.017258,-0.031232
0.0063987,0.0029453,0.014921,0.0085344,-0.0089619,0.012747,-0.027424,0.0081976,0.0020735,0.010367,0.0091715,0.0017869,0.05434,0.0040904,0.028871,0.027192,0.027089,0.030311,0.013742,-0.023158,0.0014317,0.017739,-0.01189,-0.028916
-0.00083133,0.0026756,0.010789,0.0083017,-0.0052625,0.00837,-0.026032,0.004514,0.0024138,0.010295,0.011263,-0.00081506,0.055135,0.0021093,0.024353,0.022861,0.030087,0.032771,0.0092553,-0.014216,0.0035057,0.027301,-0.0088274,-0.017505
-0.0051463,0.0033111,0.011663,0.0036591,-0.00060806,0.0058764,-0.021923,-0.0023791,0.0033546,0.011507,0.013759,-0.0017167,0.05615,0.0061666,0.018181,0.015038,0.031092,0.033759,0.004,-0.010289,0.0080413,0.035097,-0.009508,-0.0030012
-0.0046405,0.0049304,0.018217,-0.0021609,0.0018072,0.0082275,-0.016668,-0.0099814,0.0030739,0.014913,0.013984,-0.00078649,0.053685,0.015163,0.014096,0.00936,0.030778,0.035061,0.00089409,-0.010394,0.014257,0.038495,-0.011825,0.0063344
-0.00091139,0.0075774,0.026987,-0.0041575,0.0007691,0.014256,-0.012321,-0.01613,0.0013788,0.019509,0.010946,0.0014624,0.044606,0.025231,0.014798,0.0098634,0.030024,0.036666,0.0016271,-0.010595,0.01945,0.036098,-0.011771,0.0060833
0.0030591,0.010711,0.032832,-0.00018197,-0.0024205,0.019373,-0.010398,-0.020125,-0.000365,0.023313,0.0061023,0.0041871,0.029882,0.032192,0.019502,0.016123,0.029059,0.036413,0.0057162,-0.0074508,0.020297,0.028841,-0.0068383,-0.0010348
0.0057881,0.013057,0.032873,0.0065265,-0.0054495,0.019378,-0.010907,-0.022219,-0.00076021,0.024998,0.0023739,0.0064621,0.014777,0.033868,0.02427,0.023867,0.027648,0.032226,0.010828,-0.00080482,0.015481,0.020064,0.001707,-0.0072877
0.0081917,0.013478,0.028641,0.0098981,-0.0069991,0.014156,-0.012292,-0.022284,0.00019069,0.024674,0.0019677,0.0075618,0.0052539,0.031002,0.02514,0.028461,0.025942,0.024817,0.014214,0.0062649,0.0074331,0.014059,0.0096139,-0.0058465
0.011828,0.01216,0.024558,0.0067639,-0.0073711,0.0080026,-0.012633,-0.019283,0.0011135,0.023267,0.0045957,0.0073204,0.0036941,0.026535,0.021517,0.028389,0.024868,0.018023,0.014427,0.010038,0.0011221,0.013666,0.012852,0.0040764
0.01647,0.010763,0.024079,0.00031585,-0.0073989,0.0061949,-0.011239,-0.012202,0.00061521,0.021401,0.0075649,0.0063452,0.0076595,0.023834,0.016849,0.026078,0.025516,0.016046,0.012205,0.009009,0.00025451,0.018464,0.010656,0.016776
0.019622,0.011062,0.026854,-0.0023941,-0.0070919,0.010694,-0.0092858,-0.0015241,-0.0014425,0.019023,0.0078322,0.0057501,0.01258,0.024883,0.015898,0.025711,0.028077,0.019907,0.009865,0.0047994,0.0039542,0.024962,0.0060551,0.024557
0.018627,0.013247,0.029327,0.0030826,-0.0056433,0.018617,-0.0088187,0.010372,-0.0039384,0.01603,0.0044995,0.006378,0.015641,0.029358,0.020867,0.029954,0.031402,0.026402,0.0095411,0.00075038,0.0071321,0.028821,0.0036164,0.023677
0.013358,0.015609,0.028117,0.014235,-0.002815,0.024697,-0.010888,0.020429,-0.0055593,0.012971,-0.00027165,0.0080291,0.017275,0.035042,0.029654,0.038022,0.033728,0.030707,0.011525,-0.00035756,0.0047223,0.027632,0.0062386,0.017182
0.006828,0.016057,0.023083,0.023644,-4.2708e-005,0.025523,-0.014427,0.026723,-0.0057175,0.01087,-0.0027732,0.0094387,0.019247,0.039287,0.037603,0.046233,0.033978,0.030441,0.014019,0.0023387,-0.0036988,0.022263,0.013348,0.012478
0.0030238,0.014079,0.017443,0.025648,0.00026933,0.021987,-0.016918,0.029295,-0.0044954,0.010296,-0.00057814,0.0092603,0.021701,0.04057,0.041083,0.050466,0.032564,0.02759,0.014557,0.0080146,-0.013128,0.015954,0.021598,0.015536
0.0038767,0.011253,0.015019,0.021346,-0.0031121,0.018088,-0.016312,0.029442,-0.002058,0.010797,0.00554,0.007381,0.022343,0.039117,0.039848,0.048825,0.031041,0.026525,0.012005,0.015235,-0.017177,0.011976,0.0273,0.02616
0.0080505,0.0098306,0.017201,0.017248,-0.0087763,0.017415,-0.012575,0.028404,0.0014267,0.01147,0.012097,0.0054056,0.018561,0.036294,0.036461,0.042916,0.030931,0.029805,0.0074791,0.022685,-0.013532,0.011656,0.028737,0.037985
0.012435,0.010808,0.022232,0.018999,-0.013574,0.020386,-0.0075393,0.026782,0.0051378,0.012169,0.015348,0.0057056,0.010247,0.033388,0.033728,0.036952,0.032637,0.035496,0.0034447,0.029054,-0.0059291,0.013986,0.026883,0.043198
0.01475,0.013331,0.02712,0.026262,-0.015313,0.024314,-0.0032593,0.025063,0.0072455,0.013923,0.013729,0.0096803,0.00038435,0.030878,0.03259,0.035173,0.035141,0.038445,0.0018173,0.032668,-0.0008211,0.016717,0.024323,0.03838
0.014882,0.01588,0.030191,0.033523,-0.014727,0.025778,-0.00035339,0.024294,0.0059029,0.01784,0.0085292,0.01664,-0.0072837,0.02871,0.032114,0.03911,0.036596,0.034569,0.0027105,0.031792,-0.0016706,0.017871,0.023358,0.027016
0.014098,0.017883,0.031993,0.035718,-0.014682,0.023124,0.0021835,0.025806,0.0011035,0.023395,0.0025597,0.02421,-0.011312,0.027051,0.031117,0.046517,0.035371,0.024573,0.0047985,0.025837,-0.0060213,0.016723,0.024643,0.016807
0.013374,0.020082,0.034048,0.032981,-0.017247,0.017244,0.0055898,0.02998,-0.0045344,0.027958,-0.0018198,0.029795,-0.013507,0.026512,0.029593,0.052802,0.030992,0.01391,0.0067033,0.016505,-0.0079434,0.013911,0.027115,0.013973
0.012669,0.023342,0.036912,0.029929,-0.021418,0.010579,0.0097065,0.035324,-0.0074605,0.028477,-0.003802,0.031843,-0.01697,0.027422,0.028624,0.054071,0.024525,0.0088328,0.0079558,0.007532,-0.0035662,0.010918,0.029013,0.018966
0.011613,0.027261,0.039449,0.030465,-0.023796,0.0055265,0.012719,0.039105,-0.0063322,0.024151,-0.0038621,0.030098,-0.023135,0.028898,0.029075,0.049607,0.018171,0.011635,0.0087154,0.0026475,0.0053591,0.0092142,0.029134,0.026781
0.010446,0.030107,0.039868,0.033475,-0.021693,0.0033822,0.012677,0.039406,-0.0036771,0.017682,-0.0028203,0.025223,-0.030537,0.028921,0.030492,0.042005,0.014172,0.018802,0.008855,0.0030718,0.013048,0.0094154,0.0275,0.031369
0.0098868,0.030274,0.037442,0.033824,-0.015749,0.0040473,0.0095394,0.036944,-0.0040826,0.013668,-0.0012349,0.018628,-0.036302,0.025739,0.031284,0.035009,0.013564,0.023546,0.007675,0.0066855,0.014878,0.010908,0.025174,0.030491
0.010015,0.027885,0.033315,0.027738,-0.0095461,0.0062064,0.0058253,0.034889,-0.010167,0.0152,0.0005298,0.012604,-0.038781,0.019499,0.029963,0.030815,0.015588,0.020796,0.0046902,0.0098698,0.011426,0.012309,0.023517,0.027129
0.0095672,0.025008,0.02974,0.01727,-0.0065652,0.0078161,0.0050034,0.036517,-0.019977,0.021444,0.0019969,0.0099242,-0.038747,0.012492,0.026255,0.028848,0.018271,0.010877,0.00058397,0.010684,0.00773,0.012592,0.023426,0.026493
0.0067635,0.024199,0.0284,0.0093488,-0.0073237,0.0070115,0.0087191,0.042467,-0.028355,0.028304,0.0026259,0.012359,-0.038027,0.0074888,0.021149,0.026594,0.01987,-0.00074361,-0.0029102,0.010594,0.0085866,0.012004,0.024933,0.031191
0.0011415,0.026595,0.029187,0.010024,-0.0092965,0.0032571,0.015197,0.049903,-0.031079,0.031647,0.0022898,0.018977,-0.036949,0.0055477,0.016012,0.021537,0.020092,-0.0073429,-0.0043031,0.012984,0.014209,0.011875,0.027264,0.038651
-0.0054001,0.031088,0.030329,0.019067,-0.0095314,-0.0020111,0.020405,0.054417,-0.027904,0.030375,0.0016662,0.026053,-0.033213,0.0053199,0.011686,0.012783,0.020082,-0.0055302,-0.0035477,0.01961,0.020118,0.013346,0.029241,0.042993
-0.0095932,0.03515,0.0297,0.029816,-0.0073997,-0.006032,0.021281,0.053281,-0.021817,0.026824,0.0019886,0.029417,-0.023562,0.0046141,0.008335,0.001586,0.021173,0.0026857,-0.0018484,0.028245,0.021183,0.016115,0.029835,0.039874
-0.0092003,0.036547,0.026339,0.034413,-0.0049748,-0.0065244,0.018375,0.047522,-0.015644,0.024354,0.0041845,0.027721,-0.0070395,0.0027783,0.0059287,-0.0091089,0.023445,0.011609,-0.0002479,0.03399,0.016049,0.018444,0.028656,0.030292
-0.0047996,0.034672,0.021051,0.029893,-0.004886,-0.0033806,0.01551,0.041212,-0.0097355,0.024448,0.008081,0.023734,0.013067,0.0015505,0.0046573,-0.015778,0.025434,0.015886,0.0014563,0.033354,0.0080601,0.018537,0.026157,0.020046
0.00059824,0.030703,0.015734,0.020018,-0.0077781,0.001178,0.01655,0.038547,-0.0030745,0.025865,0.012451,0.022147,0.030569,0.0034202,0.0047803,-0.015811,0.025312,0.013879,0.0042061,0.027452,0.0021318,0.016106,0.02342,0.015173
0.0037562,0.026719,0.011995,0.011677,-0.011653,0.0042268,0.021943,0.040918,0.0037415,0.026397,0.016007,0.025512,0.040282,0.0089852,0.0061348,-0.0089802,0.022595,0.0081364,0.008104,0.021258,0.00060524,0.01274,0.021589,0.017095
0.0033646,0.024449,0.010172,0.0092879,-0.013492,0.0042651,0.028105,0.046114,0.0073752,0.025334,0.018525,0.031884,0.041506,0.015864,0.0079517,0.0019474,0.018872,0.0029299,0.011642,0.019445,0.0017047,0.010756,0.021223,0.021605
0.00048278,0.024411,0.0094799,0.011988,-0.011588,0.0021287,0.030309,0.050094,0.0043406,0.024202,0.021021,0.036445,0.038318,0.020308,0.0093086,0.012217,0.016822,0.00099363,0.012944,0.022637,0.001563,0.011564,0.021937,0.022542
-0.0027773,0.025825,0.0090297,0.01555,-0.0066828,6.0299e-005,0.026651,0.049882,-0.0049855,0.025103,0.024623,0.035799,0.036477,0.020115,0.0098552,0.01759,0.018241,0.0019589,0.012005,0.027508,-0.0023973,0.01488,0.022568,0.016997
-0.0049447,0.027326,0.0086822,0.016784,-0.0012645,-0.00013309,0.019658,0.045437,-0.01524,0.028368,0.029063,0.031094,0.039437,0.016239,0.010126,0.016953,0.022637,0.0034597,0.011475,0.030453,-0.0097394,0.01925,0.021825,0.0074968
-0.0058941,0.028047,0.0088806,0.016314,0.0021381,0.0017124,0.014146,0.039274,-0.019688,0.031895,0.032288,0.027102,0.046548,0.011839,0.011136,0.013196,0.027556,0.0036644,0.014619,0.031063,-0.017997,0.023184,0.019022,-0.00064419
-0.0063567,0.028341,0.0096402,0.017411,0.0023546,0.0043183,0.013238,0.034375,-0.015701,0.032971,0.031904,0.028047,0.054516,0.0098555,0.013634,0.011491,0.030392,0.0029339,0.021964,0.031979,-0.024902,0.025864,0.014462,-0.0042901
-0.0070575,0.029475,0.0098239,0.02226,-6.7388e-005,0.0060842,0.015968,0.03213,-0.0070482,0.030923,0.027449,0.033925,0.060437,0.0113,0.01764,0.015924,0.030227,0.0032352,0.02993,0.03547,-0.029667,0.027,0.0092255,-0.0052023
-0.008283,0.032307,0.0077074,0.029182,-0.0034479,0.0060701,0.018441,0.031818,-0.00060466,0.028101,0.021452,0.040605,0.063679,0.015357,0.022567,0.026728,0.028283,0.0059977,0.033324,0.040465,-0.032541,0.026363,0.0045799,-0.0080683
-0.009956,0.035907,0.0026092,0.033391,-0.0059903,0.0042482,0.017324,0.031738,-0.00035063,0.028092,0.018018,0.043528,0.065282,0.020528,0.027641,0.040075,0.026687,0.010464,0.029946,0.043277,-0.03364,0.023766,0.0014371,-0.01578
-0.011819,0.03748,-0.0038655,0.03069,-0.0067022,0.0012387,0.012585,0.030767,-0.0041348,0.032564,0.019744,0.04161,0.066001,0.025451,0.032197,0.050652,0.02666,0.014059,0.023106,0.041369,-0.032466,0.019642,0.00019013,-0.026436
-0.013522,0.034153,-0.0083698,0.021007,-0.0058203,-0.001953,0.0072303,0.028952,-0.0061354,0.039433,0.025453,0.037927,0.06515,0.028968,0.035714,0.055255,0.027644,0.014441,0.019268,0.036279,-0.028484,0.015544,0.00086096,-0.034894
-0.014755,0.025571,-0.0080823,0.0088459,-0.0045137,-0.0040309,0.0045645,0.026859,-0.0025854,0.043978,0.030797,0.036722,0.061325,0.030128,0.037809,0.054798,0.02803,0.011372,0.022445,0.032523,-0.021992,0.013744,0.0032571,-0.037408
-0.015527,0.015133,-0.0029822,0.00026499,-0.0039705,-0.0036105,0.0055083,0.024659,0.0046774,0.042174,0.031467,0.0396,0.054006,0.028689,0.038355,0.053248,0.026726,0.0068157,0.030257,0.03331,-0.014383,0.015864,0.0069591,-0.034979
-0.016254,0.0083666,0.0038211,-0.0012333,-0.0044217,0.00022482,0.0081886,0.022066,0.01008,0.033688,0.026508,0.044282,0.044217,0.025614,0.037616,0.054264,0.024114,0.0032841,0.035494,0.037158,-0.007659,0.021481,0.011271,-0.032286
-0.017364,0.00917,0.0081472,0.0031772,-0.0048384,0.00725,0.0098366,0.019179,0.0096504,0.022298,0.019031,0.046831,0.033572,0.022642,0.036096,0.058205,0.021553,0.0019992,0.032187,0.038745,-0.0036812,0.027964,0.015352,-0.033194
-0.01862,0.016663,0.0076433,0.0089256,-0.0036639,0.015925,0.0091061,0.017097,0.0046783,0.013464,0.013731,0.045129,0.02276,0.020901,0.034142,0.061952,0.019938,0.0024041,0.020919,0.033444,-0.0035874,0.031914,0.018478,-0.037059
-0.018931,0.025321,0.0032793,0.011513,-0.00013781,0.024121,0.006881,0.017257,0.00033813,0.010844,0.013236,0.040414,0.011141,0.019843,0.03165,0.061699,0.018731,0.0031952,0.0085365,0.02156,-0.0074415,0.031311,0.020163,-0.039274
-0.017126,0.028664,-0.0016022,0.0095139,0.0048274,0.03041,0.0052258,0.019824,0.00076435,0.014221,0.016205,0.035692,-0.0021221,0.017778,0.028266,0.056307,0.016419,0.0036715,0.0023443,0.0085492,-0.014127,0.026778,0.019982,-0.035557
-0.013156,0.02385,-0.0037518,0.0050808,0.0090502,0.034934,0.0057048,0.022786,0.0053265,0.020109,0.018636,0.032719,-0.016576,0.013747,0.02397,0.048246,0.012034,0.0041139,0.0039142,0.0010181,-0.021669,0.021031,0.017409,-0.026092
-0.0085455,0.013642,-0.0020367,0.0019438,0.010628,0.038995,0.0084813,0.023029,0.0095066,0.024367,0.017168,0.030484,-0.030144,0.00896,0.019497,0.041302,0.0063303,0.0050357,0.0080437,0.0018138,-0.028079,0.016933,0.012114,-0.015772
-0.0054333,0.0042035,0.0022776,0.0026177,0.0094787,0.043488,0.012564,0.018865,0.00933,0.024811,0.01172,0.026538,-0.040308,0.0061777,0.01609,0.037273,0.0014781,0.0062883,0.007764,0.0081325,-0.032315,0.015637,0.0046641,-0.010333
-0.0048783,0.00049744,0.0067702,0.006868,0.0075628,0.047427,0.016555,0.011803,0.0050505,0.022055,0.0054381,0.019815,-0.04572,0.0073727,0.014678,0.034863,-0.00056325,0.0070423,0.00078623,0.013953,-0.03462,0.0161,-0.0030838,-0.011715
-0.0059527,0.0029579,0.009449,0.012329,0.0074503,0.048053,0.019214,0.0057626,0.00069785,0.018292,0.0021451,0.012175,-0.046916,0.011769,0.015127,0.031811,0.00037906,0.0066731,-0.0084812,0.014668,-0.035947,0.016148,-0.0086557,-0.016505
-0.0065279,0.0079091,0.0096893,0.016522,0.010268,0.042869,0.019798,0.0040768,0.00010508,0.01529,0.0033809,0.0071343,-0.045744,0.016195,0.016208,0.027997,0.002528,0.0056109,-0.013078,0.010249,-0.037045,0.014174,-0.010543,-0.01862
-0.0050937,0.011025,0.0083194,0.018571,0.014683,0.032168,0.018449,0.0067706,0.003271,0.013243,0.0072799,0.006873,-0.044212,0.017583,0.016358,0.026143,0.0035548,0.0052222,-0.009882,0.0046913,-0.038101,0.010228,-0.0094626,-0.013944
-0.0019439,0.010672,0.0071084,0.019316,0.017787,0.019801,0.016492,0.01048,0.0064366,0.011223,0.010037,0.010278,-0.043625,0.01545,0.014706,0.029195,0.002331,0.0067241,-0.0023968,0.0024552,-0.039167,0.0058624,-0.008009,-0.0032996
0.0013556,0.0083934,0.0078543,0.01995,0.01718,0.011088,0.016019,0.01115,0.0056881,0.0085319,0.0087555,0.013861,-0.044333,0.012151,0.011657,0.036998,-0.00045521,0.010062,0.0024718,0.0048488,-0.040607,0.0029949,-0.0086511,0.008315
0.0036413,0.0065835,0.011249,0.020574,0.012547,0.0091928,0.018535,0.0072439,0.00065619,0.0056437,0.0035184,0.014764,-0.045873,0.010707,0.0086659,0.04583,-0.0032749,0.013747,0.00052786,0.0091249,-0.042729,0.0026013,-0.011591,0.015393
0.0052787,0.0059218,0.016058,0.020124,0.0056148,0.012874,0.023466,0.00080571,-0.0050922,0.0039023,-0.0027735,0.013088,-0.0473,0.012196,0.0073595,0.051474,-0.0053443,0.015844,-0.0062674,0.010811,-0.044869,0.0041023,-0.014345,0.015684
0.0075895,0.0050855,0.019456,0.017727,-0.001218,0.017638,0.027968,-0.0043776,-0.0072496,0.0043552,-0.0065505,0.011385,-0.047698,0.015008,0.0085267,0.052727,-0.0073037,0.015331,-0.011886,0.0072978,-0.045151,0.005832,-0.0136,0.011455
0.011137,0.0027708,0.018787,0.014077,-0.0062046,0.019436,0.02862,-0.0058042,-0.0045773,0.0067777,-0.0059836,0.011795,-0.046741,0.016539,0.01158,0.051704,-0.010332,0.012808,-0.011651,-0.00012414,-0.041775,0.0063019,-0.0079416,0.0076
0.014638,-0.00032105,0.013738,0.011304,-0.008627,0.017766,0.023915,-0.0039271,9.4968e-005,0.0096845,-0.0018421,0.013619,-0.044892,0.015689,0.014848,0.050669,-0.014546,0.010064,-0.0060291,-0.0072201,-0.035013,0.0053819,0.00076054,0.0081513
0.015743,-0.0017741,0.0070326,0.011248,-0.0084918,0.01549,0.015588,-0.0012439,0.0024521,0.011239,0.003675,0.013758,-0.042898,0.01385,0.016576,0.049007,-0.018294,0.0089168,0.00026304,-0.0098551,-0.027936,0.0044545,0.0084942,0.013691
0.013146,0.00017522,0.0026456,0.013784,-0.0063981,0.015692,0.0076497,0.00018643,0.00041321,0.010328,0.0089035,0.0097437,-0.040878,0.01351,0.016047,0.043951,-0.019218,0.010196,0.0025268,-0.006757,-0.024664,0.0052866,0.011898,0.021367
0.0080911,0.0046463,0.0026665,0.01692,-0.0037696,0.018584,0.0038882,0.00059406,-0.0043393,0.0071185,0.013623,0.0024896,-0.037916,0.015808,0.014015,0.034618,-0.016302,0.013502,-0.0003127,-8.5073e-005,-0.027199,0.0084296,0.010543,0.027255
0.003774,0.008663,0.0055016,0.018697,-0.0027003,0.021325,0.0056928,0.0021949,-0.0082113,0.0029006,0.018122,-0.0039825,-0.032821,0.019307,0.012087,0.024957,-0.011058,0.017683,-0.0056185,0.0063191,-0.033539,0.012512,0.0070037,0.029159
0.002987,0.0098351,0.0072063,0.019045,-0.004787,0.020778,0.011573,0.0070586,-0.0090252,-0.00054266,0.021517,-0.0057689,-0.025645,0.021119,0.011443,0.021727,-0.0065885,0.021475,-0.0098327,0.0095187,-0.038939,0.015155,0.0048179,0.027833
0.0059924,0.0085392,0.0049783,0.0197,-0.0095971,0.016432,0.018311,0.014942,-0.0077157,-0.001718,0.021345,-0.0023497,-0.018558,0.019365,0.011903,0.028571,-0.0051223,0.023833,-0.011193,0.0091133,-0.03951,0.014843,0.0059419,0.025961
0.010429,0.0073906,-0.00029545,0.022212,-0.01436,0.010758,0.022716,0.022905,-0.0069585,-7.7182e-005,0.015408,0.0030956,-0.014983,0.014772,0.012136,0.041656,-0.0061376,0.023954,-0.010186,0.0070449,-0.035232,0.01213,0.0095592,0.025986
0.013286,0.0084963,-0.004837,0.026032,-0.015707,0.0069572,0.023065,0.027158,-0.0081975,0.0037162,0.0044975,0.0065133,-0.017319,0.01005,0.010879,0.051581,-0.0068327,0.021379,-0.0081183,0.0059637,-0.029905,0.0091283,0.01293,0.028531
0.013191,0.011222,-0.0054415,0.028674,-0.012307,0.0065347,0.019803,0.025903,-0.009972,0.0081246,-0.0067125,0.0062129,-0.025018,0.0077109,0.0081167,0.050666,-0.0046967,0.016355,-0.0057947,0.0073106,-0.028234,0.0077329,0.013509,0.032369
0.011101,0.012715,-0.0023842,0.027875,-0.0060413,0.0089594,0.015385,0.021035,-0.0091538,0.011611,-0.012174,0.0035851,-0.034739,0.0082836,0.0051645,0.039478,4.2891e-005,0.010158,-0.0035282,0.010309,-0.032574,0.0082289,0.01077,0.035527
0.0089961,0.010693,0.00095902,0.023648,-0.0004951,0.013183,0.013122,0.01724,-0.0039741,0.01354,-0.0088815,0.0010012,-0.042659,0.01034,0.0035323,0.026711,0.0043449,0.004815,-0.001853,0.01251,-0.041863,0.0094739,0.0065392,0.036465
0.0079479,0.005758,0.0013648,0.018212,0.0019968,0.01885,0.015296,0.018848,0.0039265,0.014417,0.00047366,-0.0006738,-0.047107,0.011979,0.0036565,0.022289,0.0048424,0.0020793,-0.00155,0.011646,-0.053041,0.010323,0.003677,0.034607
0.0073192,0.00098882,-0.0012743,0.013914,0.0020458,0.025707,0.021553,0.026565,0.010313,0.015209,0.0092748,-0.002413,-0.049306,0.012236,0.0047413,0.029585,0.00074948,0.0022553,-0.0026796,0.0075854,-0.063182,0.010804,0.004078,0.030308
0.0056735,-0.00074674,-0.0041262,0.011252,0.0021068,0.032185,0.028886,0.036589,0.011404,0.016267,0.012169,-0.005135,-0.051604,0.011278,0.0059006,0.043344,-0.0053843,0.0038337,-0.00383,0.002896,-0.070457,0.011902,0.0073284,0.024638
0.0023705,0.00086317,-0.0044936,0.0089482,0.0037282,0.035379,0.033603,0.043043,0.006649,0.016842,0.0094346,-0.0079008,-0.054923,0.0096491,0.0074154,0.054751,-0.0097347,0.0044321,-0.0028309,0.0012581,-0.073749,0.014295,0.010916,0.019084
-0.0016893,0.0037537,-0.002691,0.0058599,0.0058935,0.033204,0.033987,0.042142,-0.00094959,0.01574,0.0066976,-0.0083286,-0.05791,0.0077074,0.010661,0.058812,-0.010244,0.0024947,0.0014051,0.0046702,-0.072195,0.01741,0.011841,0.015017
-0.0047871,0.0058197,-0.0018081,0.0026355,0.0060871,0.026809,0.031492,0.035029,-0.0070451,0.012639,0.010059,-0.0048952,-0.058705,0.0058744,0.016545,0.0576,-0.008025,-0.0015093,0.0077306,0.011662,-0.065642,0.019795,0.0085714,0.013003
-0.0057994,0.0069797,-0.0045029,0.0013115,0.0029993,0.020512,0.029308,0.027045,-0.0088279,0.008853,0.020748,0.0012933,-0.057564,0.0051386,0.023938,0.057057,-0.0060554,-0.00538,0.01369,0.018261,-0.05548,0.020402,0.0021033,0.012492
-0.0049888,0.0089528,-0.0099438,0.0032208,-0.0018472,0.018683,0.029409,0.023921,-0.0064479,0.0066658,0.033853,0.0072009,-0.057487,0.0067883,0.029874,0.060955,-0.0064697,-0.0068339,0.017822,0.021254,-0.044506,0.01942,-0.0045138,0.012399
-0.0035746,0.013101,-0.014001,0.0073747,-0.0052089,0.022163,0.030683,0.027738,-0.0022558,0.007591,0.042138,0.010453,-0.061774,0.0112,0.031704,0.067688,-0.0087891,-0.0052648,0.021021,0.021082,-0.03531,0.017796,-0.0078678,0.012219
-0.0026724,0.018589,-0.012727,0.011044,-0.0049434,0.027542,0.029953,0.035671,0.0011601,0.01098,0.041609,0.011313,-0.070541,0.016785,0.029387,0.072358,-0.010425,-0.0022177,0.025354,0.021692,-0.028398,0.015978,-0.0061105,0.012628
-0.0026658,0.022726,-0.0059798,0.012052,-0.0018425,0.03007,0.025151,0.042265,0.0025396,0.014257,0.03422,0.012142,-0.079646,0.020427,0.025696,0.071509,-0.0088257,-0.00016077,0.031312,0.027121,-0.021831,0.013335,-6.7097e-005,0.014722
-0.0034485,0.023161,0.0022106,0.010558,0.0012241,0.02762,0.017842,0.043303,0.0022211,0.01474,0.025848,0.014916,-0.083444,0.01952,0.023964,0.065809,-0.0034796,-0.00050866,0.036298,0.037571,-0.012961,0.0089912,0.0070768,0.018432
-0.0049815,0.019864,0.0069676,0.0085762,0.0019339,0.022161,0.012639,0.038334,0.0013965,0.011605,0.021657,0.019257,-0.079155,0.014074,0.025307,0.058578,0.0036589,-0.0024896,0.036239,0.048432,-0.00085725,0.0032941,0.011431,0.021768
-0.0073343,0.01512,0.0066065,0.0077469,0.00033573,0.017668,0.013743,0.030245,0.0012219,0.0064411,0.022788,0.022842,-0.06886,0.0070416,0.027861,0.052296,0.0094242,-0.0037874,0.029174,0.053361,0.012677,-0.0017352,0.010618,0.022093
-0.010106,0.011707,0.0037731,0.0076193,-0.0017542,0.016639,0.021384,0.022738,0.002355,0.002015,0.026632,0.023719,-0.057227,0.0023792,0.028674,0.046858,0.011376,-0.0024334,0.017499,0.049071,0.024399,-0.0037424,0.0053032,0.018669
-0.012025,0.010982,0.0027316,0.0062432,-0.0029141,0.018437,0.031216,0.017948,0.0048425,0.00038085,0.029723,0.022238,-0.047128,0.0023161,0.026427,0.041028,0.0091421,0.0016198,0.0065075,0.037982,0.032097,-0.002109,-0.0010278,0.01411
-0.011543,0.012432,0.0053372,0.0025686,-0.0034801,0.020626,0.037297,0.015892,0.0080488,0.0018121,0.030484,0.020689,-0.037372,0.0059769,0.022436,0.034981,0.0044267,0.0065349,0.00028782,0.026657,0.036149,0.0012759,-0.004195,0.012957
-0.0081972,0.014679,0.0093324,-0.0017555,-0.0047635,0.021624,0.036308,0.015603,0.010644,0.0051175,0.029788,0.021001,-0.024752,0.010319,0.019147,0.030808,-0.00020658,0.010137,-0.0013695,0.021394,0.038976,0.003525,-0.0020914,0.018148
-0.0034869,0.016676,0.010432,-0.0031963,-0.0071393,0.022074,0.0297,0.01642,0.011022,0.0086955,0.029499,0.022686,-0.0083783,0.012416,0.01779,0.030234,-0.0029284,0.011591,-0.002187,0.02443,0.042988,0.0033409,0.0038625,0.028433
-0.00017503,0.018004,0.0062618,0.0006516,-0.0092133,0.023905,0.022255,0.018162,0.0082913,0.011366,0.030668,0.023045,0.0080242,0.011214,0.017525,0.031984,-0.0035707,0.011773,-0.005477,0.033345,0.048774,0.0022674,0.0098,0.039222
-0.00028641,0.018367,-0.0013472,0.0085005,-0.0090377,0.02828,0.01846,0.020288,0.0032873,0.012646,0.032834,0.019544,0.018331,0.0076676,0.016743,0.031851,-0.0033118,0.012164,-0.010792,0.043385,0.054889,0.003282,0.012323,0.046319
-0.0034347,0.017264,-0.0076745,0.015755,-0.0060541,0.034421,0.019595,0.021338,-0.0014032,0.012787,0.034625,0.012271,0.018928,0.0036922,0.014955,0.025853,-0.0034562,0.013406,-0.014333,0.050345,0.059209,0.0078939,0.010976,0.049211
-0.0070281,0.014466,-0.0088303,0.017833,-0.0016141,0.040138,0.023539,0.019674,-0.0028509,0.012784,0.034818,0.0043003,0.011903,0.0011153,0.013189,0.013744,-0.0043367,0.014884,-0.012716,0.051949,0.060653,0.014432,0.0082663,0.050858
-0.008338,0.010838,-0.0046984,0.013737,0.0025011,0.04337,0.026929,0.015124,0.00013728,0.014074,0.033052,-0.00036063,0.0035901,0.0012619,0.012525,-0.0004078,-0.0052498,0.015601,-0.0064755,0.047572,0.059937,0.019201,0.0072536,0.054304
-0.0067333,0.0083709,0.0012663,0.0068065,0.0058801,0.043412,0.027656,0.0099141,0.0058815,0.017641,0.029928,0.00049688,-0.00033451,0.0048255,0.012476,-0.011206,-0.0054195,0.015358,0.00010106,0.037667,0.058886,0.019516,0.0088671,0.059446
-0.0041603,0.0089053,0.0049986,0.0019741,0.0094987,0.04109,0.025889,0.0075158,0.010739,0.022933,0.026665,0.0060039,0.00092313,0.011472,0.011086,-0.015899,-0.0050412,0.015061,0.0027512,0.023923,0.058979,0.015881,0.011332,0.063133
-0.0034376,0.012347,0.0049312,0.0018477,0.013842,0.03803,0.02327,0.009868,0.011567,0.027661,0.024443,0.013087,0.0031443,0.019354,0.0068523,-0.016032,-0.005356,0.015943,0.0011506,0.0097877,0.060331,0.011351,0.01214,0.062389
-0.0058221,0.016034,0.002768,0.0049585,0.017302,0.035619,0.021328,0.015176,0.0078815,0.029058,0.023601,0.018403,0.00087841,0.025392,0.00053976,-0.015724,-0.0075913,0.018559,-0.00066358,6.2162e-005,0.061968,0.0087815,0.010642,0.057457
-0.0099177,0.016245,0.0016213,0.0075439,0.017004,0.034243,0.020392,0.018541,0.0020267,0.025865,0.023126,0.019788,-0.0081721,0.026788,-0.0050217,-0.018462,-0.011703,0.022506,0.002203,-0.0010827,0.063092,0.008554,0.0087519,0.051631
-0.012826,0.011027,0.0033932,0.0071317,0.01172,0.033205,0.019613,0.015558,-0.0027258,0.019401,0.021104,0.016637,-0.021626,0.022978,-0.0071479,-0.02519,-0.01613,0.02699,0.011143,0.007244,0.064152,0.0087714,0.0091075,0.048172
-0.012524,0.0021644,0.0076123,0.0047027,0.0040181,0.031433,0.017826,0.0063031,-0.0045318,0.012712,0.016272,0.009766,-0.034601,0.016403,-0.0055548,-0.034779,-0.018892,0.031555,0.022563,0.021221,0.066646,0.0075027,0.012446,0.047488
-0.0094572,-0.0055756,0.012365,0.0036252,-0.0008864,0.02856,0.01455,-0.0037125,-0.0038913,0.00843,0.0096509,0.0013061,-0.043462,0.011124,-0.0026425,-0.045667,-0.019113,0.036281,0.030394,0.03353,0.071753,0.0047939,0.016737,0.047362
-0.0060407,-0.0076433,0.016096,0.0064793,0.00089863,0.02551,0.01048,-0.0069829,-0.0025939,0.0071279,0.0046557,-0.0056303,-0.048093,0.010063,-0.0016151,-0.056836,-0.017631,0.041388,0.030335,0.036991,0.079075,0.0025614,0.018886,0.045756
-0.0045207,-0.0030063,0.018594,0.012641,0.0085526,0.023929,0.0071966,0.00038051,-0.0018654,0.0074088,0.0049723,-0.0081245,-0.051177,0.012963,-0.0041211,-0.067498,-0.016154,0.046709,0.0224,0.028713,0.086776,0.0026207,0.0174,0.043151
-0.0050073,0.0050634,0.020543,0.018636,0.016912,0.024743,0.0062304,0.015193,-0.0014346,0.0073844,0.011507,-0.0052618,-0.055487,0.01672,-0.0093151,-0.076483,-0.015806,0.051447,0.010103,0.012221,0.093093,0.0048585,0.013548,0.041961
-0.0053299,0.011353,0.022465,0.020783,0.020466,0.027054,0.0080593,0.028835,-0.00021109,0.0060861,0.020981,0.00079589,-0.061591,0.017871,-0.014824,-0.082423,-0.016406,0.054298,-0.0025877,-0.0040805,0.097784,0.0073139,0.010126,0.043708
-0.0028825,0.012318,0.02417,0.017884,0.017541,0.028539,0.011686,0.033015,0.0022651,0.0037396,0.027761,0.0058147,-0.067745,0.015241,-0.018543,-0.084693,-0.017033,0.053799,-0.013864,-0.011611,0.10202,0.008057,0.0091725,0.046951
0.0030176,0.0081469,0.025089,0.011979,0.011084,0.027225,0.015132,0.02544,0.0050528,0.0011247,0.027817,0.0063005,-0.071834,0.01071,-0.019839,-0.084028,-0.0171,0.048809,-0.02438,-0.0068444,0.10675,0.0070647,0.010747,0.048208
0.010211,0.0019331,0.024924,0.0069263,0.0056656,0.02318,0.016543,0.011252,0.0064011,-0.00099219,0.021653,0.0020545,-0.073546,0.0076225,-0.019593,-0.082023,-0.016686,0.039099,-0.035416,0.0063449,0.11113,0.0063198,0.013567,0.045086
0.015086,-0.0029162,0.023916,0.0060635,0.0037009,0.018601,0.015196,-0.00068204,0.0050926,-0.0018181,0.01366,-0.0037061,-0.07496,0.0082207,-0.019422,-0.079936,-0.015809,0.02586,-0.046683,0.019111,0.11275,0.0079922,0.016436,0.038669
0.015296,-0.004751,0.022621,0.010418,0.0042812,0.016129,0.011805,-0.0037712,0.0013505,-0.00035874,0.0083615,-0.0069341,-0.079117,0.012144,-0.020707,-0.077954,-0.01362,0.011727,-0.055607,0.023611,0.10954,0.01229,0.018934,0.032907
0.011659,-0.0038546,0.021554,0.018257,0.0052127,0.016848,0.008073,0.0022266,-0.0033396,0.0041336,0.0067382,-0.0059931,-0.08784,0.016955,-0.023751,-0.075547,-0.008769,6.3576e-005,-0.058685,0.018556,0.1017,0.016891,0.020971,0.031549
0.0076744,-0.0012817,0.021038,0.025968,0.0057609,0.019683,0.0058748,0.01163,-0.0071564,0.011147,0.0058093,-0.0028774,-0.1005,0.020016,-0.02735,-0.072381,-0.00095347,-0.0063492,-0.053853,0.010296,0.091812,0.01856,0.022147,0.035261
0.0069044,0.0021074,0.021203,0.029776,0.0072466,0.022629,0.0065017,0.017124,-0.0088204,0.018389,0.0017909,-0.0013929,-0.11455,0.020127,-0.029183,-0.068791,0.0078549,-0.0065821,-0.042053,0.0083734,0.082811,0.015717,0.02196,0.041253
0.010258,0.0056015,0.021961,0.027585,0.01113,0.024548,0.01017,0.014852,-0.0079587,0.022736,-0.0060384,-0.0038056,-0.12706,0.017808,-0.027261,-0.065419,0.014099,-0.0020826,-0.026702,0.018517,0.075833,0.0098838,0.020699,0.045449
0.015287,0.0081742,0.022903,0.02007,0.016842,0.025868,0.015867,0.0069725,-0.0050575,0.022313,-0.014258,-0.0087131,-0.13602,0.014393,-0.021793,-0.062652,0.015127,0.0038897,-0.011482,0.038134,0.069654,0.0047597,0.019897,0.045259
0.01803,0.0086676,0.023309,0.010431,0.021758,0.027664,0.021639,0.00010091,-0.001253,0.018067,-0.017997,-0.011901,-0.14044,0.010951,-0.015951,-0.060604,0.011434,0.0077144,0.0017643,0.057601,0.062186,0.003542,0.021425,0.040845
0.01593,0.0067881,0.022403,0.0028463,0.023359,0.030249,0.025393,0.00068066,0.0020398,0.013276,-0.014995,-0.0095892,-0.13967,0.0078821,-0.014333,-0.059689,0.0064412,0.0071031,0.013239,0.066396,0.052531,0.0065668,0.025715,0.034309
0.0095814,0.0038786,0.019765,0.00041309,0.021447,0.032754,0.025974,0.01035,0.00376,0.011113,-0.0074509,-0.0016171,-0.1328,0.0052174,-0.019675,-0.060946,0.0037011,0.0022125,0.023418,0.059531,0.041822,0.011159,0.030647,0.027782
0.0021289,0.0023525,0.015663,0.0036023,0.018256,0.034079,0.02387,0.024475,0.0038525,0.012174,-0.00014207,0.0078691,-0.11883,0.0030215,-0.030239,-0.06552,0.0039098,-0.0044753,0.031123,0.039712,0.03237,0.013847,0.032391,0.021976
-0.0030006,0.0039176,0.011093,0.01,0.016503,0.034099,0.020982,0.03505,0.0033259,0.014039,0.0033523,0.012902,-0.097617,0.0014541,-0.040315,-0.073608,0.0044932,-0.0095925,0.033565,0.014052,0.026113,0.013156,0.027892,0.016082
-0.0042241,0.0080415,0.0074202,0.015507,0.017278,0.033796,0.019457,0.036125,0.0033872,0.013358,0.0029562,0.0097594,-0.070957,0.00059739,-0.04401,-0.083931,0.0022671,-0.010916,0.02865,-0.011678,0.023623,0.010646,0.01725,0.0088562
-0.0023562,0.012126,0.0057162,0.016545,0.019664,0.034184,0.020371,0.027989,0.0042279,0.0087622,0.001194,-0.00017921,-0.042752,0.00042525,-0.039607,-0.09437,-0.0032623,-0.0087095,0.017473,-0.036697,0.024122,0.0093071,0.0040367,-4.4517e-005
0.00045883,0.013433,0.0060911,0.012217,0.02213,0.035183,0.023184,0.016999,0.0046454,0.0022266,0.00039795,-0.010886,-0.017892,0.00097741,-0.03091,-0.10321,-0.00911,-0.0053853,0.0043996,-0.064263,0.026004,0.010708,-0.0068218,-0.009494
0.0023529,0.011218,0.007517,0.0050234,0.024153,0.035607,0.026305,0.011078,0.0031328,-0.0022637,0.00085986,-0.01539,-2.0731e-005,0.0023986,-0.024274,-0.10975,-0.011376,-0.0036687,-0.0058285,-0.097477,0.027324,0.013441,-0.012133,-0.017555
0.002681,0.0072771,0.0084686,-0.00070019,0.026564,0.03419,0.028195,0.014157,-0.00036285,-0.0017203,0.0014148,-0.010375,0.010649,0.0046029,-0.023581,-0.11369,-0.0088011,-0.0046208,-0.011605,-0.13564,0.026209,0.014349,-0.012195,-0.022901
0.0018987,0.0044513,0.0081244,-0.0019493,0.030513,0.03053,0.028101,0.023702,-0.0037235,0.0034884,0.0013391,0.0014625,0.017931,0.0069014,-0.027221,-0.11389,-0.0039725,-0.0070526,-0.015393,-0.17404,0.021421,0.011494,-0.010009,-0.025844
0.00082959,0.0043418,0.0072388,0.00047889,0.036187,0.025105,0.026053,0.033053,-0.0039786,0.0097008,0.0012973,0.013077,0.027853,0.0082414,-0.029564,-0.10824,-0.0010427,-0.0087273,-0.021054,-0.20692,0.012921,0.0061619,-0.0087598,-0.027996
6.3197e-005,0.0061581,0.0077748,0.0024479,0.042417,0.018654,0.022477,0.036555,0.00022054,0.012397,0.002411,0.017751,0.045195,0.0081715,-0.025621,-0.095059,-0.0021482,-0.0082779,-0.029838,-0.23059,0.0019666,0.0019258,-0.0096354,-0.030695
-0.00015833,0.007581,0.01126,-8.48e-005,0.04734,0.011814,0.018022,0.033413,0.0071227,0.0092719,0.004712,0.01359,0.070548,0.0076765,-0.015023,-0.075365,-0.0058847,-0.0062392,-0.038635,-0.24393,-0.0095351,0.001508,-0.011617,-0.033525
0.00024076,0.0068172,0.01702,-0.0073812,0.049394,0.0053195,0.013666,0.027447,0.012863,0.0018255,0.0068722,0.0046526,0.099868,0.0087521,-0.002151,-0.053589,-0.0091362,-0.0044506,-0.042065,-0.24629,-0.01998,0.0042707,-0.013041,-0.03435
0.0012545,0.004074,0.021856,-0.015308,0.047898,9.6656e-005,0.010632,0.023422,0.014238,-0.0055819,0.0075911,-0.0020241,0.12678,0.012628,0.0074069,-0.035654,-0.010308,-0.0044843,-0.036586,-0.23554,-0.02855,0.006723,-0.013316,-0.030991
0.0026585,0.0012716,0.021823,-0.018603,0.043025,-0.0033954,0.0097212,0.023292,0.010979,-0.0085646,0.0071172,-0.0013282,0.14593,0.018076,0.010939,-0.025206,-0.010764,-0.0064525,-0.023113,-0.20891,-0.034912,0.0056628,-0.013265,-0.023149
0.0038878,0.00034039,0.01504,-0.015296,0.035468,-0.0061142,0.010476,0.025348,0.0056526,-0.0055462,0.0071787,0.0066379,0.15512,0.021633,0.0099591,-0.020793,-0.013173,-0.009042,-0.0061524,-0.1665,-0.038664,0.0011077,-0.014008,-0.012827
0.0042028,0.0015922,0.0034463,-0.0083897,0.026159,-0.010409,0.01105,0.026464,0.0014574,0.0012937,0.00927,0.017075,0.15521,0.020066,0.0081208,-0.016466,-0.01855,-0.010543,0.0094661,-0.11421,-0.039347,-0.0036442,-0.015632,-0.0028941
0.003115,0.0034918,-0.008017,-0.0033688,0.016204,-0.018433,0.009238,0.024941,-5.0883e-005,0.0075876,0.012975,0.024147,0.14865,0.013224,0.0078775,-0.0058407,-0.024989,-0.0099478,0.021419,-0.062537,-0.037171,-0.004827,-0.016986,0.0048586
0.00075441,0.0039329,-0.014353,-0.0038916,0.006915,-0.030105,0.0040664,0.021322,0.00056398,0.00977,0.016011,0.024957,0.13789,0.0046665,0.0087682,0.013249,-0.029277,-0.007333,0.030293,-0.021401,-0.033684,-0.0013183,-0.01674,0.010407
-0.0021,0.0019383,-0.013515,-0.0094349,-0.00033232,-0.042595,-0.0033748,0.016825,0.0019485,0.0073814,0.016008,0.021083,0.12485,-0.00081199,0.0084809,0.037103,-0.029735,-0.0034135,0.037862,0.0054842,-0.031412,0.0046156,-0.014661,0.014458
-0.004332,-0.0015241,-0.0073741,-0.01653,-0.0046152,-0.05213,-0.010626,0.011441,0.0034543,0.0030715,0.012446,0.016932,0.11091,-0.00088644,0.005405,0.058953,-0.027483,0.0012689,0.045055,0.021977,-0.032372,0.0092908,-0.011903,0.016917
-0.0049568,-0.0041477,-0.00015429,-0.021842,-0.006202,-0.056722,-0.015596,0.003891,0.0052971,0.00038862,0.0070591,0.016434,0.097079,0.0024979,0.00034975,0.074003,-0.025015,0.0068489,0.051127,0.035472,-0.036518,0.010296,-0.010079,0.016481
-0.003594,-0.0038382,0.0042719,-0.024121,-0.0069082,-0.057388,-0.017947,-0.0064396,0.0075114,0.0010888,0.0024615,0.02046,0.083749,0.0048225,-0.0039135,0.082569,-0.023645,0.013898,0.054236,0.050778,-0.041475,0.0076618,-0.0099698,0.011823
-0.0008364,-0.0001908,0.0043286,-0.023809,-0.0093857,-0.056797,-0.01904,-0.017681,0.0091665,0.0039934,0.00020136,0.026515,0.070513,0.0027601,-0.0047294,0.088661,-0.022398,0.022525,0.052699,0.066915,-0.044015,0.0030554,-0.010961,0.0032067
0.0017194,0.0049857,0.00096333,-0.021665,-0.015369,-0.056748,-0.020605,-0.025943,0.0089504,0.0061203,-0.00021163,0.030585,0.05634,-0.0032039,-0.0015302,0.095278,-0.01938,0.03148,0.046047,0.079077,-0.042286,-0.0017236,-0.011637,-0.0070271
0.0020904,0.0084578,-0.0034102,-0.018272,-0.024001,-0.056938,-0.02335,-0.028046,0.0066176,0.0050231,-0.00069543,0.029673,0.040315,-0.0094541,0.0037271,0.10067,-0.014188,0.038154,0.035427,0.08345,-0.037132,-0.0055232,-0.010988,-0.015641
-0.00085929,0.0073874,-0.0062536,-0.014659,-0.031818,-0.056065,-0.026666,-0.024188,0.0037032,0.00046073,-0.003021,0.023417,0.022631,-0.012509,0.0077962,0.099075,-0.0088899,0.039856,0.023212,0.080478,-0.031509,-0.0077276,-0.0092556,-0.020441
-0.0062859,0.0012714,-0.0059202,-0.012601,-0.034932,-0.053858,-0.029534,-0.018065,0.0025182,-0.0057346,-0.0074762,0.013958,0.0051837,-0.011985,0.0080429,0.085641,-0.0065283,0.035732,0.012033,0.074117,-0.028417,-0.0080293,-0.0078008,-0.021473
-0.011393,-0.0072655,-0.0022741,-0.013561,-0.032068,-0.051757,-0.031645,-0.014179,0.004159,-0.011199,-0.012637,0.0044132,-0.0087767,-0.010778,0.0037717,0.061321,-0.0084935,0.027852,0.0037351,0.068511,-0.028904,-0.0065893,-0.0081377,-0.020614
-0.013028,-0.013705,0.003132,-0.01706,-0.025984,-0.051488,-0.033592,-0.014578,0.0073401,-0.014628,-0.016305,-0.0029072,-0.016064,-0.012438,-0.0036431,0.033514,-0.013193,0.020367,-0.0010813,0.065554,-0.031529,-0.0042075,-0.010825,-0.019966
-0.0099128,-0.014488,0.0076048,-0.020406,-0.021747,-0.053136,-0.035935,-0.017774,0.0092027,-0.016294,-0.016972,-0.0074471,-0.015331,-0.018068,-0.01162,0.011607,-0.017237,0.017025,-0.0026548,0.065261,-0.033552,-0.0019197,-0.014973,-0.020241
-0.003765,-0.0096379,0.0086649,-0.020554,-0.022953,-0.054868,-0.038103,-0.020577,0.0074997,-0.017393,-0.014942,-0.010119,-0.0080145,-0.02539,-0.017592,0.00090657,-0.018056,0.018782,-0.0012666,0.067752,-0.032848,-0.00021637,-0.01867,-0.02029
0.0017884,-0.00303,0.0055725,-0.016691,-0.028926,-0.054737,-0.038407,-0.021025,0.0023441,-0.018952,-0.012414,-0.012244,0.0024118,-0.030665,-0.020033,-0.00026087,-0.015641,0.02332,0.0030746,0.074158,-0.029151,0.001204,-0.020042,-0.018084
0.0038209,0.00024209,-9.1823e-005,-0.011129,-0.035349,-0.052668,-0.0355,-0.019786,-0.0038958,-0.021135,-0.012355,-0.014552,0.012542,-0.031796,-0.018949,0.0017661,-0.01205,0.02684,0.01006,0.085234,-0.023885,0.002635,-0.018268,-0.01245
0.0021988,-0.002416,-0.0053871,-0.0075492,-0.037927,-0.050486,-0.030134,-0.019004,-0.0083927,-0.023299,-0.01669,-0.016797,0.02104,-0.029937,-0.015746,0.0012813,-0.0093936,0.026725,0.018227,0.099199,-0.018923,0.0032743,-0.013915,-0.0042911
-0.00052726,-0.0092125,-0.0078924,-0.0080494,-0.035938,-0.049846,-0.025489,-0.019935,-0.0098363,-0.024618,-0.024854,-0.018052,0.029023,-0.028307,-0.012471,-0.0028936,-0.0082961,0.023049,0.024951,0.11146,-0.015297,0.0012756,-0.008456,0.0037339
-0.0012927,-0.015472,-0.0070836,-0.011571,-0.032541,-0.050198,-0.025315,-0.021639,-0.0090533,-0.024746,-0.033754,-0.017324,0.038552,-0.029285,-0.01073,-0.0076889,-0.0080454,0.018027,0.027735,0.11715,-0.012717,-0.0045799,-0.003365,0.008977
0.0010734,-0.017296,-0.0042328,-0.014994,-0.031587,-0.049043,-0.031077,-0.021805,-0.0079453,-0.024017,-0.039424,-0.014188,0.050502,-0.032314,-0.010835,-0.0093087,-0.0079005,0.014157,0.025975,0.11469,-0.010045,-0.012941,0.00055828,0.010759
0.0051195,-0.014392,-0.0011436,-0.015766,-0.033897,-0.044445,-0.040398,-0.018777,-0.0077892,-0.023077,-0.039463,-0.0092189,0.063581,-0.034406,-0.011716,-0.0065941,-0.0079755,0.012696,0.021675,0.10736,-0.0062557,-0.019805,0.0032494,0.010902
0.0081412,-0.0098753,0.0010702,-0.013706,-0.036505,-0.037387,-0.048294,-0.012906,-0.0083616,-0.022284,-0.034577,-0.0040375,0.075294,-0.032741,-0.01168,-0.001536,-0.008823,0.013453,0.018348,0.10127,-0.001217,-0.021007,0.0049541,0.012214
0.0083668,-0.0075036,0.0022446,-0.010615,-0.035617,-0.031522,-0.050463,-0.0062358,-0.0085405,-0.021523,-0.028081,-0.0008133,0.083978,-0.027088,-0.0094919,0.0028882,-0.010371,0.015609,0.018799,0.10141,0.0041447,-0.015529,0.0057979,0.016029
0.0061963,-0.0087938,0.0025984,-0.008397,-0.030493,-0.030244,-0.04618,-0.0010364,-0.0077154,-0.020703,-0.023645,-0.0012453,0.090174,-0.019987,-0.0050612,0.0051232,-0.011588,0.018474,0.02343,0.10852,0.0083502,-0.0066979,0.005731,0.020835
0.0036961,-0.012254,0.002181,-0.0075828,-0.02448,-0.033602,-0.038627,0.0015018,-0.0066407,-0.020439,-0.022976,-0.0055013,0.09615,-0.014631,0.00060124,0.0055167,-0.011414,0.021487,0.03019,0.11908,0.010253,5.7165e-005,0.0048145,0.023317
0.0029727,-0.014946,0.00089753,-0.0074404,-0.022029,-0.03786,-0.032543,0.0016108,-0.006884,-0.02198,-0.025172,-0.011853,0.10398,-0.012333,0.005892,0.0048835,-0.010083,0.023688,0.035948,0.12797,0.0097866,0.0012166,0.0034958,0.021095
0.0047397,-0.014757,-0.0011291,-0.0071619,-0.024353,-0.038234,-0.031068,0.00047293,-0.0093328,-0.026046,-0.028104,-0.017464,0.11378,-0.011693,0.0091361,0.0029978,-0.0093952,0.023552,0.038195,0.1314,0.0080488,-0.0023855,0.0025512,0.014895
0.007998,-0.01159,-0.0034833,-0.0067056,-0.027832,-0.032571,-0.034022,-0.00048937,-0.013156,-0.031488,-0.030495,-0.019991,0.12361,-0.010028,0.0089732,-0.001343,-0.011454,0.019725,0.036103,0.12844,0.0065691,-0.0066751,0.0026919,0.0082292
0.010812,-0.0069411,-0.0058546,-0.0065009,-0.026897,-0.022934,-0.038533,-0.00021623,-0.016286,-0.035352,-0.032835,-0.018982,0.13106,-0.0057234,0.0048107,-0.0088719,-0.016861,0.012278,0.030746,0.12045,0.0061956,-0.0078854,0.0041244,0.0047402
0.011498,-0.0026983,-0.0084007,-0.0065988,-0.019002,-0.013871,-0.041214,0.001541,-0.017109,-0.0349,-0.03639,-0.016064,0.13512,0.00047492,-0.0025866,-0.018699,-0.023938,0.003394,0.024666,0.10983,0.0064506,-0.0054105,0.0063993,0.0054386
0.0094834,-0.00019802,-0.011483,-0.0064579,-0.0072481,-0.0089339,-0.040284,0.0040212,-0.015891,-0.030194,-0.041306,-0.013735,0.13653,0.0061616,-0.010819,-0.028779,-0.029735,-0.0034324,0.020905,0.098889,0.0059449,-0.0017199,0.0086737,0.008144
0.0054751,4.4802e-005,-0.014888,-0.0057692,0.0018159,-0.0083485,-0.03642,0.0057615,-0.014606,-0.024797,-0.045696,-0.013595,0.13649,0.0092308,-0.016555,-0.037534,-0.032058,-0.0054933,0.021543,0.089144,0.0035861,0.00015781,0.010205,0.0095139
0.00099844,-0.0017473,-0.017385,-0.0053862,0.0034057,-0.0096038,-0.032014,0.0054744,-0.015263,-0.023437,-0.046738,-0.015288,0.13482,0.0094325,-0.017315,-0.044914,-0.030931,-0.002932,0.026319,0.080729,-0.00043836,-0.00090977,0.010712,0.0077647
-0.0023762,-0.0047061,-0.017347,-0.00704,-0.0017507,-0.010164,-0.029413,0.0030383,-0.018196,-0.028201,-0.043051,-0.016918,0.1299,0.0083489,-0.013356,-0.051719,-0.0284,0.00086495,0.032381,0.072075,-0.0048122,-0.003774,0.010349,0.0036967
-0.0037389,-0.00748,-0.014173,-0.011648,-0.0083107,-0.0097607,-0.029234,-0.00014951,-0.021809,-0.036449,-0.036326,-0.016613,0.12052,0.0079469,-0.0081532,-0.057957,-0.026893,0.0011683,0.035834,0.060566,-0.0082817,-0.0065512,0.0093505,-0.00064976
-0.0031873,-0.0087197,-0.0092914,-0.01767,-0.010923,-0.010261,-0.029876,-0.0018623,-0.023937,-0.04248,-0.030626,-0.014039,0.10803,0.0089355,-0.0066572,-0.062151,-0.027444,-0.00498,0.034355,0.04446,-0.01077,-0.0083349,0.0077436,-0.004134
-0.0017096,-0.0078021,-0.005698,-0.021414,-0.0084294,-0.013427,-0.028721,-0.00044544,-0.023555,-0.041768,-0.029608,-0.010704,0.096369,0.010194,-0.012135,-0.062589,-0.029088,-0.016609,0.028876,0.025012,-0.013278,-0.0095809,0.0054518,-0.007263
-0.00069854,-0.005256,-0.006151,-0.019653,-0.0041197,-0.018843,-0.024301,0.0039163,-0.021343,-0.034327,-0.033713,-0.0087976,0.089219,0.0096371,-0.02374,-0.059372,-0.029764,-0.029267,0.022783,0.0067873,-0.016561,-0.011211,0.0027084,-0.010948
-0.0013139,-0.002433,-0.011341,-0.012644,-0.0021809,-0.024123,-0.017769,0.0088398,-0.018752,-0.02445,-0.0396,-0.0094708,0.08643,0.0058101,-0.036738,-0.054999,-0.027928,-0.037844,0.019074,-0.0048578,-0.019871,-0.013588,0.00029432,-0.014817
-0.0039332,-0.0006156,-0.019412,-0.0047534,-0.0037605,-0.027341,-0.012318,0.010591,-0.016587,-0.017197,-0.042463,-0.011902,0.083189,-0.00096689,-0.045516,-0.052532,-0.023598,-0.039725,0.017915,-0.0077661,-0.021185,-0.01627,-0.00079656,-0.017112
-0.007905,-0.0003139,-0.027125,-0.0015938,-0.0060884,-0.02934,-0.010825,0.005888,-0.014432,-0.014674,-0.039573,-0.013896,0.073281,-0.0086926,-0.047359,-0.052901,-0.018138,-0.036033,0.016877,-0.0052319,-0.019047,-0.018437,-9.7159e-005,-0.016496
-0.011763,-0.0013072,-0.031701,-0.0056653,-0.005027,-0.033503,-0.01362,-0.006087,-0.011367,-0.015052,-0.032291,-0.013514,0.054276,-0.014904,-0.0442,-0.054065,-0.013134,-0.030234,0.013734,-0.0042051,-0.014504,-0.01934,0.0018455,-0.013921
-0.013903,-0.0032056,-0.032087,-0.014122,0.0016703,-0.042779,-0.018301,-0.022561,-0.0072052,-0.014752,-0.024903,-0.010402,0.030367,-0.01814,-0.040935,-0.053093,-0.0093693,-0.025492,0.0091876,-0.010362,-0.011177,-0.018463,0.0037478,-0.012391
-0.013453,-0.0057886,-0.029023,-0.020794,0.013345,-0.05644,-0.021763,-0.037956,-0.0030671,-0.011598,-0.021187,-0.0057754,0.010225,-0.018658,-0.041516,-0.049353,-0.0066832,-0.022902,0.0067239,-0.0238,-0.012906,-0.015683,0.0044502,-0.014487
-0.010802,-0.0087404,-0.024274,-0.02102,0.028041,-0.069564,-0.022635,-0.046661,-0.00072197,-0.0062829,-0.021486,-0.0012365,0.0013496,-0.017972,-0.045833,-0.045673,-0.0046046,-0.021728,0.0094038,-0.038863,-0.020573,-0.011684,0.0036351,-0.019882
-0.0073568,-0.011237,-0.019709,-0.015312,0.044457,-0.076068,-0.021993,-0.046342,-0.0011979,-0.0013125,-0.022727,0.0024131,0.0053316,-0.01767,-0.04987,-0.046081,-0.003012,-0.020909,0.01645,-0.048249,-0.030746,-0.0082262,0.0018487,-0.025359
-0.0046187,-0.012152,-0.016653,-0.0087753,0.061912,-0.073044,-0.02187,-0.039424,-0.0037579,0.0012807,-0.021323,0.0052765,0.017638,-0.018459,-0.04897,-0.051894,-0.0022289,-0.020153,0.023034,-0.048022,-0.037625,-0.0075529,-2.6485e-005,-0.027558
-0.0032525,-0.010949,-0.015566,-0.0067949,0.078541,-0.062916,-0.023116,-0.03127,-0.0061033,0.0014298,-0.016463,0.0074785,0.031603,-0.020162,-0.041543,-0.059552,-0.002618,-0.019689,0.023924,-0.039606,-0.037195,-0.010838,-0.0012501,-0.026006
-0.0029119,-0.008404,-0.015983,-0.010685,0.090247,-0.051713,-0.024632,-0.026124,-0.0058003,0.00075645,-0.0109,0.0084563,0.042922,-0.022471,-0.030192,-0.062112,-0.0041674,-0.01927,0.018051,-0.027581,-0.030515,-0.01677,-0.0013124,-0.023605
-0.0029221,-0.0061814,-0.016807,-0.01688,0.092535,-0.044855,-0.024569,-0.023994,-0.002026,0.0010751,-0.008547,0.0074235,0.050948,-0.025553,-0.019457,-0.053315,-0.0063925,-0.017834,0.0098808,-0.015587,-0.023403,-0.021794,0.0001046,-0.024029
-0.0030982,-0.0053984,-0.016932,-0.020086,0.084271,-0.04377,-0.022227,-0.021238,0.0036178,0.0029749,-0.010982,0.0046721,0.056392,-0.029714,-0.012212,-0.031244,-0.0084704,-0.014449,0.0061469,-0.0037335,-0.022376,-0.022395,0.0028803,-0.028365
-0.0038388,-0.0054845,-0.015892,-0.017509,0.06983,-0.04569,-0.018832,-0.014532,0.0079661,0.0054242,-0.015962,0.0022159,0.058305,-0.034324,-0.0077217,0.00069413,-0.0094264,-0.009611,0.010567,0.010901,-0.029724,-0.017877,0.0060352,-0.034023
-0.005404,-0.0046086,-0.014054,-0.010683,0.056868,-0.046377,-0.01652,-0.0047877,0.0084207,0.0065084,-0.019249,0.0026511,0.053638,-0.037162,-0.0027681,0.035532,-0.0084093,-0.0053736,0.021063,0.031884,-0.041521,-0.011219,0.0077985,-0.036838
-0.007217,-0.00153,-0.012189,-0.0038081,0.050792,-0.043343,-0.016494,0.0026819,0.0048899,0.0047431,-0.018121,0.0068708,0.039938,-0.035228,0.0054896,0.065752,-0.0051559,-0.0037876,0.031885,0.061463,-0.050336,-0.0069274,0.0065748,-0.034439
-0.0080975,0.0027626,-0.010806,-0.00043048,0.05045,-0.037202,-0.017973,0.0022161,4.8631e-006,0.00014322,-0.013463,0.012736,0.018643,-0.02674,0.017502,0.086018,-0.00042021,-0.004929,0.038781,0.10022,-0.050728,-0.0074026,0.0022573,-0.027987
-0.0073657,0.0053128,-0.0098649,-0.0012168,0.049039,-0.030587,-0.018746,-0.0073224,-0.0027352,-0.0056471,-0.008669,0.016301,-0.0043406,-0.012725,0.031598,0.094772,0.0041462,-0.0064585,0.042796,0.14765,-0.043277,-0.010934,-0.003306,-0.021024
-0.0057336,0.0034285,-0.0090885,-0.0041351,0.039878,-0.025935,-0.016826,-0.021254,-0.0015932,-0.010355,-0.0064944,0.014929,-0.021785,0.0033009,0.045701,0.094286,0.0068598,-0.0054028,0.049521,0.20233,-0.033944,-0.013197,-0.007342,-0.016735
-0.0049615,-0.0029046,-0.0084616,-0.0063188,0.022233,-0.023948,-0.011916,-0.032718,0.0020525,-0.01263,-0.0068172,0.0096382,-0.029866,0.017398,0.058492,0.088893,0.0070503,-0.0007446,0.064526,0.26095,-0.029287,-0.011066,-0.0079773,-0.016061
-0.0064215,-0.010576,-0.0083547,-0.0060034,0.0021207,-0.023601,-0.0056756,-0.0382,0.0047739,-0.013018,-0.0073282,0.0043967,-0.030867,0.027196,0.069056,0.081951,0.0053498,0.0054776,0.088715,0.31725,-0.031477,-0.0053796,-0.0053617,-0.017941
-0.0098253,-0.015431,-0.0091814,-0.0034415,-0.012671,-0.02329,-0.00067183,-0.040132,0.0037926,-0.013507,-0.0063406,0.00273,-0.031686,0.032011,0.075833,0.073377,0.0029026,0.0095956,0.11718,0.36232,-0.037118,-0.00013596,-0.0012337,-0.020903
-0.013269,-0.015259,-0.011025,-0.00058585,-0.018978,-0.022051,0.0012486,-0.044295,-0.00081339,-0.015861,-0.0048615,0.0045589,-0.039057,0.031226,0.07647,0.060002,0.0002563,0.0090409,0.14212,0.38711,-0.040636,0.0011267,0.0024917,-0.024235
-0.014525,-0.011245,-0.013614,0.00016244,-0.020471,-0.020071,0.00012513,-0.054338,-0.0061176,-0.020042,-0.005753,0.0062138,-0.05476,0.022965,0.069081,0.039164,-0.0029175,0.0040665,0.15736,0.38625,-0.039119,-0.0015782,0.0047826,-0.027786
-0.01243,-0.0067351,-0.016489,-0.0024165,-0.023855,-0.018368,-0.0021928,-0.068267,-0.0084987,-0.02406,-0.010638,0.0037931,-0.07416,0.0050105,0.053784,0.01288,-0.006968,-0.0027977,0.16121,0.36096,-0.034442,-0.0049417,0.0055021,-0.031026
-0.0073106,-0.0044706,-0.018961,-0.0072353,-0.03264,-0.017997,-0.0033895,-0.079951,-0.0062077,-0.025413,-0.017526,-0.0030746,-0.089121,-0.022432,0.033033,-0.011447,-0.011242,-0.0087501,0.15599,0.31886,-0.031093,-0.0055853,0.0048616,-0.032696
-0.00047252,-0.0047003,-0.019891,-0.011227,-0.044084,-0.019297,-0.0024506,-0.084202,-0.00042928,-0.022979,-0.021676,-0.010544,-0.093352,-0.054791,0.010435,-0.025538,-0.014174,-0.01234,0.14521,0.27026,-0.03191,-0.0030956,0.0031806,-0.031595
0.0064319,-0.0056553,-0.017931,-0.011296,-0.05197,-0.021542,-0.00056084,-0.080905,0.005786,-0.017865,-0.019288,-0.01373,-0.086532,-0.084476,-0.010824,-0.026905,-0.014692,-0.013667,0.13089,0.22311,-0.035622,-3.1897e-005,0.0010956,-0.02778
0.011651,-0.0057122,-0.012574,-0.0066686,-0.052525,-0.023178,-0.00028403,-0.074667,0.009722,-0.012648,-0.010879,-0.010974,-0.074384,-0.10516,-0.028697,-0.021858,-0.013651,-0.013642,0.11287,0.17994,-0.038206,0.0008724,-0.00042486,-0.022883
0.013544,-0.0051175,-0.0052898,0.00029005,-0.048079,-0.022524,-0.0034424,-0.070609,0.010651,-0.0097074,-0.0012406,-0.0053622,-0.064668,-0.11572,-0.042031,-0.021305,-0.013746,-0.013407,0.090375,0.13884,-0.036639,-0.00062983,-0.00070447,-0.019086
0.011345,-0.0057102,0.00072099,0.0057277,-0.045179,-0.018577,-0.0093017,-0.070289,0.0098708,-0.0098979,0.0041809,-0.0020797,-0.061988,-0.12034,-0.050284,-0.03191,-0.017618,-0.014241,0.064346,0.097538,-0.031609,-0.0024224,-0.0001124,-0.017537
0.0062206,-0.0090108,0.0026992,0.0072174,-0.048896,-0.011486,-0.014679,-0.071367,0.0093299,-0.012288,0.0034555,-0.0040272,-0.065163,-0.12451,-0.053869,-0.049814,-0.025644,-0.017379,0.038312,0.056823,-0.026865,-0.0026369,2.9987e-005,-0.017597
0.0013957,-0.014514,0.00089693,0.0054665,-0.058374,-0.0024675,-0.01615,-0.070876,0.0099744,-0.014846,-0.00065864,-0.0096348,-0.068946,-0.1302,-0.054668,-0.062697,-0.035366,-0.02327,0.017013,0.020327,-0.025952,-0.0019084,-0.0013796,-0.017571
0.00045712,-0.019746,-0.0010499,0.0033471,-0.067462,0.0067113,-0.0127,-0.068561,0.011034,-0.015491,-0.0034839,-0.014685,-0.068605,-0.13425,-0.055701,-0.059203,-0.04319,-0.0308,0.0036562,-0.0093276,-0.029242,-0.0028433,-0.0039797,-0.016284
0.0046434,-0.022009,0.00099593,0.0032273,-0.069767,0.014357,-0.0066281,-0.066917,0.010698,-0.013005,-0.0026228,-0.016185,-0.063726,-0.13142,-0.059634,-0.038325,-0.046965,-0.0375,-0.0018684,-0.034217,-0.033784,-0.0071748,-0.0059442,-0.014089
0.011385,-0.020328,0.007635,0.0051228,-0.063697,0.019317,-0.0018235,-0.068036,0.0076553,-0.0075736,0.0001065,-0.014589,-0.058396,-0.11902,-0.06711,-0.011062,-0.047245,-0.040979,-0.0021568,-0.060628,-0.035931,-0.013512,-0.0054376,-0.012482
0.015813,-0.016052,0.014525,0.0072583,-0.053339,0.021253,-0.00078747,-0.070738,0.0023627,-0.00080146,0.00062382,-0.012554,-0.057838,-0.099153,-0.07622,0.0070922,-0.046177,-0.040539,0.00062248,-0.093856,-0.034371,-0.018086,-0.0022549,-0.012699
0.014465,-0.011768,0.015496,0.0081893,-0.044806,0.020733,-0.002832,-0.0712,-0.00292,0.0048876,-0.0033968,-0.011907,-0.064283,-0.076774,-0.083516,0.006698,-0.04509,-0.037533,0.0071465,-0.13237,-0.030935,-0.017978,0.0019283,-0.014553
0.0081915,-0.0095272,0.0079116,0.0081618,-0.041487,0.019116,-0.0049119,-0.066765,-0.005422,0.0073429,-0.010061,-0.012117,-0.075159,-0.055767,-0.085693,-0.010349,-0.043041,-0.03411,0.020412,-0.16679,-0.028636,-0.01383,0.0050119,-0.016488
0.0015955,-0.0096911,-0.0044697,0.0083717,-0.042163,0.018104,-0.0043045,-0.059124,-0.0036223,0.005785,-0.014558,-0.011709,-0.084618,-0.03684,-0.080758,-0.034294,-0.037684,-0.03149,0.042325,-0.18565,-0.028767,-0.009437,0.0063083,-0.016744
-0.00072999,-0.01111,-0.014045,0.0091028,-0.043055,0.019031,-0.00086288,-0.053376,0.0017738,0.0012531,-0.013157,-0.010812,-0.086877,-0.018865,-0.068316,-0.055769,-0.027693,-0.029292,0.070298,-0.18398,-0.029658,-0.0085109,0.0070334,-0.014649
0.001994,-0.012255,-0.015408,0.0089329,-0.041404,0.022206,0.0029404,-0.053398,0.0083503,-0.0039563,-0.0064663,-0.011784,-0.078928,-0.001707,-0.049492,-0.071365,-0.014516,-0.026396,0.097162,-0.16775,-0.02813,-0.011495,0.0089723,-0.011069
0.0062313,-0.012357,-0.0096546,0.0060312,-0.03733,0.026769,0.0040434,-0.057768,0.013595,-0.0075797,0.00084873,-0.016893,-0.0612,0.012765,-0.026919,-0.0825,-0.0018127,-0.022339,0.11505,-0.15005,-0.022302,-0.015272,0.012549,-0.0077478
0.0073773,-0.011769,-0.0031744,0.00029184,-0.032786,0.031177,0.0011501,-0.060398,0.016402,-0.0086039,0.0036927,-0.025332,-0.036459,0.022596,-0.0045033,-0.090168,0.0070206,-0.017892,0.12024,-0.14159,-0.013294,-0.015951,0.016089,-0.0060704
0.0038629,-0.0114,-0.0020657,-0.0059583,-0.029265,0.034041,-0.00437,-0.055815,0.017406,-0.007617,0.00050457,-0.032842,-0.0081759,0.028375,0.013634,-0.091847,0.011147,-0.014311,0.11485,-0.14332,-0.0044161,-0.012214,0.016976,-0.006103
-0.0014906,-0.011786,-0.0072032,-0.0096151,-0.02666,0.034751,-0.0094939,-0.044544,0.018037,-0.0060852,-0.0057081,-0.034815,0.020672,0.033426,0.024929,-0.084075,0.012542,-0.012104,0.10377,-0.14716,0.0013522,-0.0063065,0.013691,-0.0064941
-0.003952,-0.012555,-0.014149,-0.0094229,-0.024116,0.033568,-0.01151,-0.033545,0.019214,-0.0051104,-0.010018,-0.030244,0.048083,0.040941,0.029693,-0.067995,0.014141,-0.010542,0.089513,-0.14449,0.0034592,-0.0019902,0.0070028,-0.0052987
-0.00090154,-0.012744,-0.017539,-0.0071436,-0.021548,0.031251,-0.0095542,-0.030916,0.020723,-0.0046072,-0.0095878,-0.022788,0.072857,0.050775,0.03081,-0.051604,0.017554,-0.0083758,0.069656,-0.13483,0.0038271,-0.0013984,-0.00061797,-0.0012616
0.0060621,-0.011703,-0.015646,-0.0061173,-0.01996,0.028603,-0.0049128,-0.039195,0.021642,-0.0035184,-0.0056946,-0.017795,0.093933,0.059255,0.031825,-0.045185,0.022138,-0.0050756,0.039287,-0.12728,0.0050427,-0.0035435,-0.0067443,0.0051882
0.012483,-0.009815,-0.011158,-0.008424,-0.020161,0.026179,-0.00014645,-0.053001,0.021273,-0.00087597,-0.0022559,-0.017888,0.1096,0.062498,0.03485,-0.053038,0.025825,-0.0014347,-0.0034191,-0.13329,0.0083129,-0.0055486,-0.010429,0.011884
0.014425,-0.0083691,-0.0080632,-0.013131,-0.021244,0.02423,0.0023673,-0.06305,0.019744,0.0031873,-0.0023864,-0.021048,0.11722,0.060174,0.039845,-0.068804,0.026676,0.00094469,-0.053386,-0.15696,0.012767,-0.0052871,-0.012312,0.015965
0.011025,-0.0086031,-0.0080885,-0.017167,-0.020576,0.022745,0.0017425,-0.063137,0.017881,0.0073511,-0.0060849,-0.02277,0.11407,0.056025,0.045556,-0.079199,0.023822,0.00072835,-0.10004,-0.19082,0.016414,-0.0030826,-0.013607,0.01547
0.0045714,-0.010717,-0.0099253,-0.018053,-0.015711,0.021541,-0.00091037,-0.054287,0.016623,0.01007,-0.01098,-0.02014,0.099071,0.054542,0.050993,-0.073789,0.017443,-0.0024884,-0.13302,-0.22034,0.017745,-0.0011874,-0.014969,0.010543
-0.0013903,-0.013728,-0.011344,-0.016127,-0.0067744,0.020389,-0.0031497,-0.043021,0.016477,0.010802,-0.015254,-0.014167,0.074286,0.056871,0.056119,-0.052984,0.0083863,-0.0083125,-0.14783,-0.23286,0.016681,-0.0017368,-0.016139,0.0034289
-0.0041606,-0.01632,-0.011531,-0.014272,0.0027997,0.019181,-0.0028118,-0.035679,0.017301,0.010456,-0.01992,-0.0085624,0.044911,0.059839,0.061434,-0.027637,-0.0019012,-0.015959,-0.14719,-0.22374,0.014283,-0.0050141,-0.016414,-0.0027569
-0.0029649,-0.017902,-0.011326,-0.015346,0.0081714,0.017987,0.0003682,-0.033774,0.018396,0.010627,-0.028207,-0.0064876,0.017341,0.059013,0.06717,-0.01062,-0.01122,-0.024222,-0.13762,-0.19576,0.011715,-0.0093395,-0.015417,-0.005733
0.0010855,-0.018911,-0.011656,-0.019478,0.0065574,0.016897,0.0043084,-0.033853,0.018799,0.012215,-0.042405,-0.0082605,-0.0035999,0.052937,0.072928,-0.007315,-0.016879,-0.031061,-0.12448,-0.15399,0.0094395,-0.012424,-0.01356,-0.005171
0.0056429,-0.020097,-0.012324,-0.023657,-0.00031021,0.015713,0.0058441,-0.031282,0.017765,0.01455,-0.060866,-0.011688,-0.016506,0.044663,0.077816,-0.01256,-0.016681,-0.03365,-0.10938,-0.10156,0.0072693,-0.012947,-0.011935,-0.0025942
0.0080624,-0.021529,-0.012562,-0.024124,-0.0068688,0.013751,0.0029785,-0.02433,0.015302,0.015758,-0.077927,-0.014136,-0.023205,0.0393,0.080645,-0.015881,-0.010142,-0.02957,-0.091604,-0.039648,0.005048,-0.011208,-0.011718,-0.00023335
0.006544,-0.02234,-0.012469,-0.019683,-0.0074973,0.010056,-0.0034977,-0.015285,0.012386,0.014091,-0.087178,-0.01427,-0.026823,0.03998,0.079891,-0.01005,0.00097535,-0.018652,-0.071404,0.029493,0.0032117,-0.0086101,-0.01342,0.00036696
0.0011508,-0.021489,-0.013353,-0.013094,-0.00084735,0.00405,-0.010309,-0.0082453,0.010451,0.0092256,-0.085723,-0.012301,-0.029533,0.045863,0.073735,0.0041331,0.013235,-0.0039711,-0.05219,0.10017,0.0026094,-0.0066264,-0.016432,-0.00085674
-0.0059893,-0.018825,-0.016252,-0.0092177,0.0085708,-0.0037865,-0.013798,-0.0058511,0.010305,0.0025835,-0.076103,-0.009242,-0.031457,0.053614,0.06057,0.019973,0.022864,0.0091864,-0.039768,0.16378,0.0036905,-0.0060412,-0.019336,-0.0026822
-0.011759,-0.015428,-0.020116,-0.011312,0.013046,-0.011768,-0.012324,-0.0076762,0.011269,-0.0035012,-0.06437,-0.0062523,-0.031292,0.060519,0.039902,0.03102,0.027129,0.016061,-0.039545,0.21138,0.0058149,-0.0068124,-0.020957,-0.003556
-0.013928,-0.012864,-0.021777,-0.018508,0.006842,-0.017735,-0.0072467,-0.011224,0.01145,-0.0071346,-0.055871,-0.0044498,-0.028007,0.066178,0.013066,0.035486,0.025263,0.01509,-0.053934,0.23571,0.0074346,-0.0083713,-0.021467,-0.0026607
-0.012523,-0.012015,-0.018235,-0.026574,-0.0099552,-0.020369,-0.0019333,-0.014322,0.009177,-0.0078165,-0.052038,-0.0047121,-0.022369,0.071575,-0.016819,0.035711,0.018773,0.0086971,-0.081531,0.23179,0.0071976,-0.0099977,-0.022464,-0.00042814
-0.0095687,-0.01248,-0.0094733,-0.031285,-0.031873,-0.020226,0.00033733,-0.016797,0.0045271,-0.0064481,-0.050508,-0.0071203,-0.017144,0.077106,-0.045718,0.034396,0.010979,0.0016845,-0.11794,0.19682,0.0051847,-0.01108,-0.025586,0.0017996
-0.0073397,-0.013055,0.00071645,-0.031518,-0.052354,-0.019606,-0.0019134,-0.020184,-0.00043402,-0.0045262,-0.048045,-0.010515,-0.015691,0.081979,-0.069936,0.031973,0.0056397,-0.0016678,-0.15721,0.13099,0.0032348,-0.011284,-0.030616,0.0027215
-0.0065561,-0.012839,0.0068623,-0.029553,-0.068423,-0.02114,-0.0079299,-0.025887,-0.0030874,-0.0031645,-0.043476,-0.012945,-0.019733,0.085523,-0.087286,0.027672,0.0050569,1.6183e-005,-0.19321,0.039348,0.0039163,-0.010691,-0.034921,0.0019916
-0.0060608,-0.012054,0.0054443,-0.028596,-0.082022,-0.026005,-0.015426,-0.033439,-0.0023039,-0.0026116,-0.038144,-0.013002,-0.027814,0.088542,-0.097754,0.022705,0.0087875,0.0047198,-0.22104,-0.067008,0.008753,-0.0098196,-0.035234,0.00044674
-0.0042269,-0.011931,-0.0026469,-0.029935,-0.09731,-0.033122,-0.021725,-0.04028,0.00059939,-0.0025157,-0.033769,-0.010971,-0.035781,0.092631,-0.10337,0.021628,0.014141,0.0086568,-0.2386,-0.17186,0.016988,-0.009388,-0.030662,-0.00054904
-0.00078104,-0.013741,-0.012625,-0.032222,-0.11655,-0.040001,-0.02478,-0.043193,0.0028326,-0.0026221,-0.030024,-0.008617,-0.039347,0.097747,-0.10717,0.029708,0.018378,0.0090143,-0.24752,-0.2574,0.025866,-0.009849,-0.024246,-0.00020928
0.0026834,-0.017669,-0.018934,-0.03322,-0.1381,-0.044589,-0.023889,-0.040258,0.0022788,-0.0032597,-0.024269,-0.007686,-0.037143,0.1007,-0.11145,0.04815,0.020882,0.0060766,-0.25224,-0.30896,0.032295,-0.010992,-0.02118,0.00093873
0.0040363,-0.022341,-0.018814,-0.032054,-0.15781,-0.046641,-0.020005,-0.031933,-0.00092497,-0.0051268,-0.013801,-0.0084912,-0.031931,0.096827,-0.11626,0.071516,0.023268,0.003151,-0.2572,-0.31942,0.034667,-0.012026,-0.024711,0.0013086
0.0025904,-0.025434,-0.013899,-0.029801,-0.17178,-0.04761,-0.015421,-0.020715,-0.0046318,-0.0084604,0.0014095,-0.00992,-0.028714,0.083921,-0.11912,0.09021,0.027173,0.0040237,-0.2639,-0.29148,0.033496,-0.012234,-0.033118,-0.00058065
-0.0001142,-0.02513,-0.0088459,-0.028116,-0.17787,-0.04933,-0.012792,-0.0099446,-0.0065198,-0.01228,0.018036,-0.010733,-0.030937,0.064873,-0.11642,0.096626,0.03178,0.0095686,-0.2703,-0.23698,0.030503,-0.011721,-0.040675,-0.0048507
-0.0014985,-0.021537,-0.0080153,-0.02751,-0.17502,-0.052794,-0.01386,-0.0026444,-0.0060162,-0.014514,0.03144,-0.010673,-0.037727,0.046068,-0.10564,0.090335,0.033674,0.016206,-0.2733,-0.17313,0.027082,-0.011535,-0.042142,-0.0099236
-7.0727e-005,-0.017004,-0.01255,-0.027083,-0.162,-0.058023,-0.018662,-0.00084367,-0.004781,-0.013213,0.03871,-0.010201,-0.044619,0.032605,-0.086971,0.078237,0.029515,0.017876,-0.27219,-0.11662,0.023515,-0.012874,-0.037087,-0.013475
0.0034105,-0.014818,-0.019866,-0.025818,-0.13779,-0.064825,-0.025681,-0.0052163,-0.005388,-0.0081239,0.040142,-0.0093369,-0.047316,0.024596,-0.063108,0.069502,0.019146,0.010426,-0.26969,-0.078148,0.019547,-0.01592,-0.030207,-0.014031
0.0067309,-0.016902,-0.025767,-0.02396,-0.10369,-0.073329,-0.032761,-0.014785,-0.0092663,-0.0013229,0.038149,-0.007269,-0.04536,0.018054,-0.037575,0.069115,0.0060837,-0.0049925,-0.26937,-0.060178,0.015552,-0.019418,-0.027284,-0.011974
0.0081557,-0.022106,-0.027448,-0.022965,-0.064926,-0.083516,-0.038087,-0.026877,-0.015517,0.0038476,0.034863,-0.0035554,-0.042468,0.0095626,-0.012914,0.074622,-0.005318,-0.022451,-0.27202,-0.05914,0.012966,-0.021543,-0.030235,-0.009125
0.0076848,-0.026644,-0.025067,-0.02406,-0.029405,-0.094222,-0.040709,-0.03778,-0.02151,0.0050251,0.030733,0.00031131,-0.043132,0.00025129,0.0098899,0.077979,-0.013484,-0.035462,-0.27482,-0.070638,0.013357,-0.021474,-0.035579,-0.0072615
0.0065604,-0.02674,-0.020885,-0.026871,-0.0038925,-0.10298,-0.040671,-0.044209,-0.024745,0.0026246,0.025226,0.0011006,-0.048498,-0.0048168,0.030492,0.070637,-0.020571,-0.041509,-0.27493,-0.094086,0.016913,-0.020221,-0.037579,-0.0068392
0.0057119,-0.021729,-0.017044,-0.029507,0.0095846,-0.10744,-0.038979,-0.044908,-0.024517,-0.00030814,0.018668,-0.003655,-0.055248,-0.0013554,0.047748,0.048211,-0.029804,-0.043211,-0.2744,-0.13354,0.021832,-0.019788,-0.03322,-0.0069738
0.0048336,-0.015071,-0.014071,-0.030035,0.014246,-0.10734,-0.037403,-0.041363,-0.022106,-0.00027416,0.0132,-0.012971,-0.058604,0.0097146,0.059097,0.012245,-0.041813,-0.045481,-0.28114,-0.19404,0.025413,-0.02128,-0.02467,-0.0065677
0.0030582,-0.012102,-0.011301,-0.028004,0.015628,-0.10518,-0.03783,-0.036952,-0.019494,0.004024,0.011761,-0.022429,-0.056782,0.022205,0.061459,-0.03096,-0.053648,-0.051434,-0.30359,-0.27587,0.026087,-0.023728,-0.017267,-0.0054209
0.00044446,-0.01591,-0.0084421,-0.024669,0.017691,-0.10437,-0.041167,-0.034907,-0.017754,0.010597,0.01593,-0.027471,-0.052909,0.02899,0.053229,-0.072989,-0.06162,-0.060574,-0.34266,-0.37074,0.024675,-0.024933,-0.015023,-0.0042741
-0.001447,-0.024562,-0.0065222,-0.021813,0.020987,-0.10617,-0.046502,-0.036308,-0.016458,0.015553,0.024579,-0.027196,-0.052618,0.02687,0.036041,-0.1061,-0.06526,-0.070364,-0.38798,-0.46291,0.023742,-0.023753,-0.017558,-0.0038694
-0.0007302,-0.032097,-0.007168,-0.020292,0.023843,-0.10808,-0.051406,-0.03939,-0.014477,0.015944,0.034559,-0.025008,-0.059357,0.01798,0.014935,-0.12558,-0.068359,-0.079131,-0.42244,-0.5356,0.025511,-0.021667,-0.020865,-0.0041095
0.0029191,-0.032852,-0.01098,-0.019559,0.025028,-0.10558,-0.053461,-0.040649,-0.011353,0.011899,0.042828,-0.02521,-0.071414,0.0070723,-0.0035893,-0.13116,-0.075715,-0.087387,-0.43254,-0.57951,0.030085,-0.02185,-0.02084,-0.0042379
0.0076219,-0.025791,-0.016666,-0.018443,0.025469,-0.095981,-0.051926,-0.03707,-0.0080256,0.006446,0.048259,-0.028595,-0.083053,-0.0025805,-0.014759,-0.12679,-0.088374,-0.096515,-0.41667,-0.59854,0.035475,-0.026259,-0.016425,-0.0038208
0.010737,-0.015389,-0.021838,-0.016341,0.027777,-0.081266,-0.048116,-0.028043,-0.0063057,0.0032229,0.051738,-0.03121,-0.088676,-0.011449,-0.017992,-0.11819,-0.10188,-0.1064,-0.38494,-0.60869,0.039331,-0.033288,-0.0099223,-0.003404
0.011111,-0.0082656,-0.024742,-0.013729,0.034234,-0.067053,-0.044184,-0.015729,-0.0075584,0.0039211,0.054743,-0.027704,-0.086558,-0.02318,-0.016848,-0.10927,-0.10946,-0.11446,-0.35107,-0.63019,0.040823,-0.038383,-0.0047457,-0.0040397
0.009918,-0.0082512,-0.025368,-0.01168,0.044866,-0.058332,-0.041384,-0.0036944,-0.011607,0.0073934,0.057776,-0.016355,-0.079393,-0.042519,-0.016209,-0.099696,-0.10758,-0.11704,-0.32296,-0.67726,0.041014,-0.037487,-0.0027985,-0.0061116
0.0092096,-0.013784,-0.025069,-0.010983,0.05689,-0.055333,-0.039371,0.0051826,-0.016623,0.01095,0.059936,-0.0012376,-0.071704,-0.073339,-0.018518,-0.085604,-0.09876,-0.11215,-0.29917,-0.75205,0.041458,-0.030516,-0.0035749,-0.0087443
0.0096188,-0.019534,-0.025251,-0.011705,0.065863,-0.052977,-0.037017,0.01007,-0.02005,0.012609,0.059821,0.010528,-0.066555,-0.11714,-0.021818,-0.062994,-0.089125,-0.10124,-0.27265,-0.84588,0.0424,-0.021797,-0.0052581,-0.010566
0.0096057,-0.020681,-0.026365,-0.013419,0.067937,-0.044432,-0.033756,0.012062,-0.019964,0.012444,0.056865,0.014164,-0.06409,-0.17168,-0.021239,-0.03128,-0.082819,-0.088576,-0.2374,-0.94567,0.042309,-0.016865,-0.0064622,-0.011177
0.0071229,-0.016298,-0.027874,-0.015613,0.062097,-0.025995,-0.030086,0.013035,-0.016122,0.012104,0.052084,0.010723,-0.062511,-0.23003,-0.01293,0.0057991,-0.078357,-0.078606,-0.19245,-1.0395,0.039258,-0.018176,-0.0070747,-0.011794
0.0020633,-0.0093829,-0.028866,-0.017757,0.051074,0.00035713,-0.026854,0.014623,-0.010113,0.01318,0.047799,0.0058797,-0.060154,-0.28152,0.0025271,0.04241,-0.070343,-0.073111,-0.14137,-1.117,0.032937,-0.023266,-0.0077621,-0.014253
-0.0030915,-0.0040511,-0.028574,-0.019099,0.04017,0.028346,-0.024244,0.017958,-0.0045041,0.015896,0.046662,0.0052164,-0.056913,-0.3154,0.019971,0.074042,-0.05492,-0.070086,-0.089622,-1.1669,0.025409,-0.026857,-0.0089294,-0.019189
-0.0053167,-0.0024885,-0.026574,-0.018747,0.034342,0.051279,-0.021609,0.023812,-0.0014349,0.01907,0.050587,0.0099864,-0.054252,-0.32576,0.033028,0.099482,-0.033849,-0.065254,-0.042672,-1.1754,0.019769,-0.025102,-0.010238,-0.025167
-0.0039643,-0.0039933,-0.022971,-0.016306,0.035247,0.065595,-0.018277,0.032334,-0.001468,0.021029,0.060083,0.016603,-0.054241,-0.31465,0.038508,0.1203,-0.013379,-0.055235,-0.0051959,-1.132,0.017707,-0.018457,-0.011081,-0.029705
-0.0016938,-0.0062905,-0.018756,-0.012542,0.040266,0.072054,-0.014352,0.042333,-0.0034173,0.02048,0.074173,0.019866,-0.058394,-0.29068,0.038499,0.13888,0.001028,-0.040166,0.020227,-1.0357,0.017997,-0.010969,-0.011448,-0.031305
-0.0023069,-0.007509,-0.01588,-0.0092127,0.044354,0.074486,-0.01056,0.051046,-0.0052153,0.016773,0.090817,0.017047,-0.066734,-0.26379,0.038578,0.15685,0.0091535,-0.02379,0.035205,-0.89923,0.017251,-0.0068527,-0.01224,-0.030582
-0.0073101,-0.0071534,-0.016417,-0.0078331,0.043505,0.077345,-0.0072993,0.055317,-0.0051624,0.0098486,0.10754,0.0096722,-0.077281,-0.23991,0.043439,0.17479,0.015529,-0.010853,0.046182,-0.74263,0.012437,-0.0074264,-0.014601,-0.029521
-0.014337,-0.0057392,-0.020981,-0.0083258,0.03733,0.083424,-0.0040488,0.053757,-0.0026973,0.00045298,0.12188,0.0019898,-0.086282,-0.21899,0.053167,0.19287,0.024623,-0.0037676,0.061442,-0.58342,0.0032243,-0.010856,-0.018769,-0.029707
-0.018945,-0.0039815,-0.027628,-0.0089221,0.028894,0.092647,3.0842e-005,0.048092,0.0016655,-0.0094986,0.13141,-0.0023217,-0.089492,-0.19772,0.062896,0.21128,0.03639,-0.0012137,0.085752,-0.42993,-0.007606,-0.014549,-0.023435,-0.031316
-0.018249,-0.0024531,-0.032559,-0.0077431,0.022087,0.10237,0.0048257,0.042258,0.006884,-0.017223,0.13373,-0.0026437,-0.084256,-0.174,0.066107,0.22995,0.046363,0.00021022,0.11719,-0.28386,-0.015985,-0.017682,-0.026319,-0.033652
-0.013198,-0.0017463,-0.032603,-0.0048587,0.018685,0.10915,0.008803,0.039725,0.011839,-0.020504,0.12689,-0.0015036,-0.071221,-0.14955,0.059243,0.24803,0.049937,0.0027371,0.14962,-0.14863,-0.019247,-0.02147,-0.025673,-0.036339
-0.0075747,-0.0024872,-0.027701,-0.0028549,0.017351,0.11122,0.010208,0.041296,0.015486,-0.019449,0.11057,-0.0024902,-0.05435,-0.12858,0.044329,0.26369,0.046583,0.00547,0.17893,-0.034117,-0.017812,-0.027061,-0.021644,-0.039675
-0.0047493,-0.0048108,-0.021244,-0.0049966,0.015138,0.11005,0.0090106,0.045256,0.016966,-0.016906,0.087078,-0.0075894,-0.038886,-0.11383,0.027735,0.27501,0.040026,0.0054508,0.20694,0.047991,-0.014798,-0.033335,-0.016407,-0.043791
-0.0051543,-0.007745,-0.017725,-0.012215,0.010054,0.10977,0.0075827,0.049502,0.015918,-0.016646,0.061183,-0.015696,-0.028472,-0.10361,0.016001,0.28148,0.034588,0.00075466,0.23853,0.094384,-0.01399,-0.036996,-0.012836,-0.047784
-0.0066195,-0.0093755,-0.019469,-0.021498,0.0026447,0.11441,0.0090189,0.053438,0.012783,-0.020454,0.038066,-0.023194,-0.023363,-0.09246,0.011755,0.28504,0.03152,-0.0072716,0.27405,0.11584,-0.017597,-0.035188,-0.012604,-0.05011
-0.0069974,-0.008086,-0.025094,-0.027403,-0.0043559,0.12497,0.014326,0.057794,0.0086788,-0.026619,0.020642,-0.026201,-0.020914,-0.07519,0.012658,0.28969,0.028783,-0.014733,0.30443,0.13177,-0.025198,-0.028325,-0.015115,-0.050051
-0.0064693,-0.0040516,-0.030918,-0.025878,-0.0076704,0.13855,0.021154,0.062873,0.004762,-0.031364,0.0082904,-0.02305,-0.017832,-0.051303,0.013949,0.29939,0.024006,-0.018257,0.31456,0.15737,-0.034315,-0.020386,-0.018091,-0.048638
-0.0073707,0.00038239,-0.033972,-0.017464,-0.0050637,0.15023,0.025625,0.06737,0.0016254,-0.032153,-0.0017825,-0.01541,-0.012434,-0.026203,0.012406,0.31542,0.017215,-0.017657,0.29327,0.19407,-0.042017,-0.016095,-0.019433,-0.047771
-0.011772,0.0021031,-0.033965,-0.0072344,0.0038892,0.15627,0.025876,0.069293,-0.00064074,-0.029958,-0.011575,-0.0072955,-0.0053764,-0.0080362,0.0085126,0.3349,0.010521,-0.015859,0.24152,0.23122,-0.046422,-0.01727,-0.01889,-0.048173
-0.019132,-0.00042401,-0.032699,-0.0013625,0.017705,0.156,0.024041,0.068121,-0.0017691,-0.028324,-0.020274,-0.0026057,0.0013437,-0.0024544,0.0051756,0.35182,0.0053604,-0.01628,0.17201,0.25656,-0.047298,-0.021483,-0.01816,-0.048364
-0.026219,-0.0057123,-0.031827,-0.0029149,0.033196,0.15118,0.024537,0.065849,-0.00086794,-0.030045,-0.025035,-0.0028544,0.006016,-0.0093247,0.0042531,0.35987,0.000549,-0.020092,0.10042,0.2658,-0.045667,-0.024298,-0.019243,-0.046062
-0.029397,-0.010075,-0.031288,-0.010033,0.046113,0.14383,0.029915,0.065522,0.0029902,-0.034522,-0.023889,-0.0065418,0.0081781,-0.023884,0.00396,0.3554,-0.0065375,-0.025672,0.036145,0.26344,-0.042957,-0.023144,-0.022388,-0.040967
-0.027295,-0.010319,-0.029831,-0.017634,0.052592,0.13474,0.038043,0.068348,0.0094018,-0.038317,-0.018119,-0.01044,0.0084672,-0.041076,-0.00046886,0.3383,-0.016741,-0.030438,-0.019937,0.25611,-0.040302,-0.019432,-0.025449,-0.03609
-0.021657,-0.0063004,-0.026833,-0.021015,0.051104,0.12362,0.043368,0.072075,0.015839,-0.038469,-0.011825,-0.011771,0.0078907,-0.059037,-0.013201,0.31106,-0.0273,-0.033102,-0.069688,0.24602,-0.038285,-0.017042,-0.025445,-0.035781
-0.015862,-0.0012189,-0.023343,-0.018572,0.043621,0.1105,0.041398,0.072323,0.018647,-0.035532,-0.0089581,-0.0098408,0.0072622,-0.078513,-0.034119,0.277,-0.033631,-0.034273,-0.11019,0.23075,-0.036999,-0.018579,-0.021177,-0.041779
-0.012546,0.00075049,-0.021168,-0.012024,0.03472,0.096593,0.032546,0.066004,0.015511,-0.033496,-0.010416,-0.0062925,0.0070174,-0.098884,-0.058007,0.23952,-0.033303,-0.035109,-0.13173,0.20812,-0.036161,-0.022854,-0.014665,-0.050911
-0.01225,-0.0022416,-0.020932,-0.0046337,0.028828,0.08397,0.021983,0.053998,0.00749,-0.036611,-0.013782,-0.0040613,0.0070989,-0.11496,-0.077348,0.20223,-0.028397,-0.035581,-0.12311,0.17977,-0.03517,-0.025903,-0.009935,-0.057018
-0.013775,-0.0081116,-0.021165,0.00089188,0.027549,0.074506,0.015653,0.040844,-0.0013314,-0.045856,-0.015941,-0.0057189,0.0067297,-0.11841,-0.086656,0.1689,-0.023804,-0.034186,-0.07917,0.14982,-0.033196,-0.024643,-0.0099198,-0.055892
-0.01547,-0.012312,-0.019535,0.0035351,0.029231,0.069227,0.015858,0.031572,-0.0066201,-0.058088,-0.016204,-0.01199,0.0044598,-0.10324,-0.085245,0.14242,-0.022856,-0.029392,-0.0043799,0.12063,-0.029494,-0.019784,-0.013999,-0.048957
-0.016164,-0.011329,-0.015106,0.0039963,0.031111,0.068301,0.020001,0.028148,-0.0068718,-0.068459,-0.017092,-0.021112,-0.000962,-0.070747,-0.076777,0.12343,-0.024375,-0.021326,0.089791,0.091741,-0.023928,-0.01533,-0.018384,-0.042222
-0.015312,-0.0054871,-0.0094165,0.004036,0.032066,0.07114,0.023182,0.028249,-0.0042341,-0.07396,-0.021984,-0.029482,-0.0090678,-0.02871,-0.066526,0.11011,-0.023948,-0.0119,0.1903,0.063651,-0.017441,-0.015108,-0.019197,-0.041187
-0.012776,0.00119,-0.0052584,0.005467,0.033464,0.076163,0.022152,0.027197,-0.0024053,-0.075163,-0.031657,-0.033542,-0.016746,0.015041,-0.058673,0.09956,-0.01824,-0.0029658,0.28615,0.042818,-0.012036,-0.019546,-0.015741,-0.046131
-0.0088057,0.0039935,-0.0042312,0.0090279,0.03744,0.080561,0.017385,0.021459,-0.0034783,-0.075023,-0.042841,-0.032005,-0.019327,0.059385,-0.055182,0.089441,-0.0081775,0.0059079,0.3688,0.041658,-0.0099709,-0.025624,-0.011151,-0.051967
-0.0041171,0.0010562,-0.0053838,0.013663,0.044379,0.08087,0.012011,0.011007,-0.0064531,-0.076071,-0.050252,-0.02691,-0.01372,0.11042,-0.056053,0.07835,0.0020516,0.017856,0.43167,0.072272,-0.012395,-0.029967,-0.0097746,-0.052762
0.0003418,-0.0054059,-0.0061848,0.016915,0.052128,0.074485,0.0090778,-0.0010898,-0.0085311,-0.078442,-0.050549,-0.02243,-0.0016203,0.17429,-0.059797,0.064743,0.0091953,0.036473,0.4712,0.13878,-0.018241,-0.032087,-0.013402,-0.046845
0.0039681,-0.011072,-0.0048664,0.016528,0.057692,0.061239,0.0096654,-0.011171,-0.007794,-0.080172,-0.044919,-0.021915,0.010027,0.24793,-0.0637,0.04636,0.014157,0.062366,0.48855,0.23475,-0.024321,-0.034663,-0.019507,-0.038037
0.006806,-0.01301,-0.0019485,0.012227,0.059729,0.043822,0.013083,-0.017387,-0.0048021,-0.079179,-0.038063,-0.025332,0.012472,0.31614,-0.064539,0.021662,0.02102,0.091275,0.48921,0.34744,-0.026937,-0.040572,-0.023055,-0.032119
0.009076,-0.011748,0.00037646,0.0061885,0.05945,0.026628,0.018343,-0.020135,-0.001879,-0.075061,-0.034464,-0.029299,0.00058312,0.3588,-0.060359,-0.007675,0.032749,0.11559,0.47916,0.4645,-0.024169,-0.049468,-0.020484,-0.031888
0.01035,-0.010241,0.00029687,0.0016669,0.059163,0.013778,0.025137,-0.02059,-0.0010294,-0.069247,-0.035141,-0.030009,-0.023671,0.36379,-0.052493,-0.036227,0.047746,0.12862,0.46081,0.5775,-0.017235,-0.057287,-0.01268,-0.035108
0.0094724,-0.010803,-0.0020588,0.00082885,0.060043,0.0074658,0.033408,-0.019082,-0.0024754,-0.063582,-0.037605,-0.026727,-0.052378,0.3358,-0.045854,-0.058168,0.060623,0.12869,0.43269,0.68082,-0.0097801,-0.059355,-0.0045008,-0.036894
0.0057448,-0.012876,-0.0048636,0.0035572,0.061329,0.0073427,0.042261,-0.015031,-0.0049021,-0.058745,-0.038771,-0.022794,-0.076564,0.29417,-0.046296,-0.072633,0.066564,0.12017,0.39387,0.7694,-0.0054308,-0.054459,-0.0011894,-0.034099
0.00042345,-0.013737,-0.0062117,0.0080092,0.061624,0.010965,0.049641,-0.0084566,-0.0068131,-0.053941,-0.037963,-0.023058,-0.090968,0.26088,-0.056347,-0.08635,0.065249,0.11052,0.3485,0.83888,-0.0053335,-0.046189,-0.0045104,-0.027822
-0.0032318,-0.011454,-0.0055252,0.012122,0.060815,0.015032,0.053409,-0.0012838,-0.0075931,-0.047987,-0.037186,-0.02978,-0.09531,0.24769,-0.072571,-0.11024,0.06082,0.10551,0.30499,0.88796,-0.0074937,-0.040227,-0.011607,-0.022096
-0.0020576,-0.0071954,-0.0035444,0.014639,0.060542,0.01702,0.05294,0.0033554,-0.0075218,-0.040666,-0.038635,-0.040524,-0.09206,0.25136,-0.087106,-0.15173,0.058111,0.10577,0.26911,0.91913,-0.0083202,-0.039835,-0.017366,-0.020199
0.0042236,-0.0044883,-0.001143,0.015095,0.062615,0.016523,0.049719,0.0036817,-0.0071428,-0.032965,-0.042098,-0.049816,-0.083627,0.25929,-0.092747,-0.20871,0.058684,0.10698,0.23718,0.9356,-0.0050953,-0.04339,-0.018251,-0.021918
0.012114,-0.0059326,0.0016849,0.013408,0.066876,0.015381,0.046276,0.0013918,-0.0068197,-0.02606,-0.044912,-0.053053,-0.071606,0.25987,-0.087874,-0.27023,0.060117,0.10349,0.19689,0.93684,0.0024984,-0.045984,-0.014549,-0.023975
0.016599,-0.010475,0.0055798,0.0098885,0.070662,0.01615,0.044273,0.00090988,-0.0067492,-0.020141,-0.044517,-0.049389,-0.057821,0.24921,-0.077349,-0.32366,0.05881,0.092356,0.13734,0.91767,0.012728,-0.043561,-0.0094777,-0.023036
0.014975,-0.01403,0.010559,0.0055545,0.070655,0.019712,0.043378,0.0057258,-0.0070216,-0.014405,-0.040953,-0.041545,-0.044742,0.23018,-0.068581,-0.36261,0.05347,0.075255,0.060988,0.87295,0.023423,-0.03601,-0.0062791,-0.018598
0.0089925,-0.013118,0.015115,0.0019249,0.065672,0.023849,0.041803,0.014696,-0.0073701,-0.0081956,-0.03677,-0.033363,-0.033928,0.20708,-0.065721,-0.38948,0.046176,0.056906,-0.012835,0.80448,0.033401,-0.026724,-0.0058812,-0.013356
0.0033309,-0.0082066,0.016822,-4.659e-005,0.057991,0.024146,0.037962,0.021778,-0.0069191,-0.0020349,-0.034451,-0.027491,-0.024055,0.18199,-0.066359,-0.41134,0.040404,0.04169,-0.057555,0.7239,0.042692,-0.019372,-0.0068495,-0.010868
0.0016324,-0.00352,0.01418,-0.0010054,0.051847,0.016753,0.03179,0.020011,-0.0045744,0.0027365,-0.034011,-0.024768,-0.011285,0.15613,-0.063022,-0.43276,0.038088,0.031013,-0.056095,0.64852,0.051735,-0.014906,-0.0071639,-0.012572
0.0035815,-0.0033266,0.0080834,-0.0029111,0.050152,0.00089672,0.024702,0.0068375,-9.9624e-005,0.0054672,-0.033218,-0.024896,0.0075981,0.1336,-0.048127,-0.45157,0.038266,0.023192,-0.012589,0.59317,0.060473,-0.011331,-0.0059533,-0.016628
0.0055908,-0.0080715,0.0014934,-0.0072858,0.052042,-0.020788,0.018422,-0.013558,0.0050756,0.0073126,-0.030162,-0.027053,0.032255,0.12207,-0.018769,-0.45982,0.038061,0.015447,0.049574,0.56404,0.068144,-0.0060913,-0.0038041,-0.019462
0.004393,-0.013925,-0.0025769,-0.013481,0.053372,-0.04412,0.013799,-0.032822,0.0084417,0.010689,-0.02547,-0.029909,0.059533,0.1281,0.021607,-0.44842,0.034677,0.0060415,0.10165,0.55787,0.0738,0.0013207,-0.0018522,-0.018663
0.00021032,-0.016161,-0.0030743,-0.01875,0.049926,-0.065591,0.010593,-0.043835,0.0083556,0.017464,-0.021836,-0.03166,0.087663,0.15019,0.065009,-0.4117,0.026641,-0.0051894,0.12498,0.56511,0.076952,0.0088791,-0.00086581,-0.014865
-0.0033818,-0.013246,-0.0012221,-0.020327,0.040851,-0.083086,0.0081814,-0.044721,0.005785,0.027569,-0.021299,-0.030754,0.11951,0.17635,0.10237,-0.3495,0.013807,-0.01799,0.1173,0.57324,0.077819,0.013863,-0.001115,-0.011134
-0.0027048,-0.007949,0.00096072,-0.017753,0.029523,-0.094938,0.0064016,-0.038722,0.0040293,0.039287,-0.023014,-0.026973,0.16056,0.1898,0.1266,-0.26715,-0.003028,-0.033064,0.087419,0.56864,0.077112,0.015156,-0.0027171,-0.01039
0.0026833,-0.0046657,0.0024028,-0.013309,0.021061,-0.09886,0.005696,-0.030751,0.0062058,0.050726,-0.023814,-0.021752,0.2124,0.17993,0.13419,-0.17424,-0.022067,-0.052138,0.044463,0.53849,0.075671,0.013965,-0.0056788,-0.012919
0.0095747,-0.0055986,0.0033776,-0.010182,0.018469,-0.092363,0.0065162,-0.02381,0.012449,0.060914,-0.021049,-0.017193,0.26761,0.15071,0.12569,-0.082812,-0.0403,-0.076517,-0.0089009,0.47465,0.07421,0.012592,-0.0094433,-0.015891
0.013889,-0.0092497,0.0044411,-0.010025,0.020532,-0.074676,0.0086195,-0.017891,0.019364,0.069547,-0.014968,-0.014498,0.31192,0.1198,0.10536,-0.0046387,-0.054162,-0.1054,-0.074779,0.37813,0.073181,0.01264,-0.012593,-0.015311
0.014009,-0.012269,0.0052939,-0.012033,0.023171,-0.048507,0.010961,-0.011497,0.022496,0.076034,-0.0083807,-0.013221,0.33302,0.1081,0.079864,0.052024,-0.06132,-0.13548,-0.15297,0.26043,0.072681,0.014265,-0.013395,-0.0090075
0.011685,-0.012587,0.0049028,-0.014054,0.023006,-0.019834,0.012303,-0.0038705,0.019848,0.079168,-0.0040895,-0.011976,0.32893,0.12662,0.055792,0.084495,-0.062338,-0.16229,-0.23568,0.13913,0.072454,0.016792,-0.011023,0.0014951
0.0098882,-0.01088,0.002752,-0.014438,0.020061,0.0046329,0.012005,0.0040596,0.013449,0.07798,-0.0027196,-0.0098287,0.30845,0.16962,0.036775,0.094983,-0.060481,-0.18233,-0.30874,0.029896,0.072144,0.019717,-0.0064577,0.011661
0.0098488,-0.0093619,-0.00020596,-0.012979,0.017346,0.020764,0.010323,0.010506,0.0075889,0.072823,-0.0030205,-0.0070359,0.28304,0.21857,0.021863,0.087574,-0.05932,-0.19454,-0.35844,-0.059829,0.071742,0.023044,-0.0021375,0.016858
0.010114,-0.0094766,-0.0020698,-0.010559,0.017794,0.028812,0.0079916,0.01434,0.0053203,0.065402,-0.0040496,-0.0045263,0.25727,0.25349,0.0068177,0.065534,-0.05991,-0.20019,-0.37829,-0.13109,0.071795,0.026909,-0.0004762,0.015577
0.0083896,-0.010795,-0.0016316,-0.0083748,0.021338,0.032467,0.0055131,0.015791,0.0063271,0.057523,-0.0066573,-0.0028325,0.22652,0.26317,-0.011953,0.031478,-0.060027,-0.20156,-0.37115,-0.18848,0.072998,0.031202,-0.0022883,0.010628
0.0042007,-0.011913,0.00042583,-0.007577,0.024661,0.035879,0.0027649,0.015759,0.007885,0.049766,-0.012449,-0.0016611,0.18341,0.24796,-0.033379,-0.0097799,-0.056185,-0.20013,-0.34603,-0.23473,0.075317,0.035698,-0.0063043,0.0072858
-0.0003183,-0.01209,0.0019937,-0.0091826,0.023846,0.04083,-0.00075063,0.014548,0.0077561,0.041444,-0.021168,-0.00050389,0.1269,0.21463,-0.050897,-0.049022,-0.046683,-0.19567,-0.3129,-0.26904,0.077425,0.04037,-0.010103,0.0095165
-0.0023136,-0.011868,0.0013252,-0.013574,0.017703,0.046038,-0.0052672,0.011398,0.006141,0.031989,-0.029385,0.00049792,0.06534,0.16956,-0.056037,-0.074602,-0.032924,-0.18638,-0.27913,-0.28943,0.077195,0.045305,-0.011735,0.016984
-0.00090934,-0.01218,-0.0014436,-0.019612,0.0090779,0.048893,-0.010258,0.005503,0.0049108,0.022424,-0.032389,0.00053883,0.010791,0.11587,-0.044225,-0.078725,-0.017971,-0.17035,-0.24895,-0.29579,0.07315,0.050193,-0.010849,0.025183
0.0019626,-0.013052,-0.0043918,-0.024415,0.0031351,0.048085,-0.014471,-0.0023732,0.0051053,0.015315,-0.028078,-0.00082792,-0.029702,0.055944,-0.018488,-0.063798,-0.003957,-0.14721,-0.22424,-0.29042,0.065739,0.054092,-0.0085784,0.028775
0.003445,-0.013345,-0.0054,-0.024787,0.0039157,0.044966,-0.016503,-0.009362,0.0054004,0.012908,-0.019374,-0.0026739,-0.057898,-0.0052044,0.011922,-0.043306,0.0090464,-0.11921,-0.2049,-0.27572,0.057164,0.055989,-0.0064187,0.025668
0.00251,-0.011862,-0.0037803,-0.019718,0.011676,0.042637,-0.01556,-0.011942,0.0032501,0.014856,-0.012643,-0.0029648,-0.08007,-0.060055,0.037121,-0.035114,0.021782,-0.09061,-0.1885,-0.25147,0.049577,0.055795,-0.0050935,0.018624
0.00086102,-0.008748,-0.00054047,-0.01187,0.022809,0.043715,-0.011966,-0.0083858,-0.0023134,0.017624,-0.013024,-0.0002551,-0.09933,-0.10284,0.052222,-0.050857,0.033852,-0.065657,-0.17026,-0.21418,0.043012,0.054716,-0.0043242,0.013018
0.0010607,-0.0057409,0.0028132,-0.006275,0.032303,0.048745,-0.0070664,-6.5077e-005,-0.0089873,0.016491,-0.020448,0.0045719,-0.11222,-0.13372,0.0589,-0.088495,0.043463,-0.046405,-0.14439,-0.15863,0.034966,0.054423,-0.0035888,0.012472
0.00372,-0.0048855,0.0056781,-0.0067225,0.036977,0.056539,-0.0025028,0.0096996,-0.012433,0.0089343,-0.029732,0.008293,-0.1128,-0.15867,0.06213,-0.13321,0.049379,-0.031858,-0.10626,-0.080245,0.02241,0.055595,-0.0030208,0.015962
0.0065748,-0.0067111,0.0085837,-0.012631,0.037337,0.065879,0.00079251,0.018328,-0.0095369,-0.0031749,-0.034728,0.0075272,-0.10016,-0.18502,0.065173,-0.1661,0.052972,-0.019089,-0.054026,0.023055,0.0048597,0.057183,-0.0034612,0.018879
0.0064856,-0.0094975,0.012067,-0.01916,0.036883,0.076803,0.0032081,0.025844,-0.00090655,-0.014538,-0.033102,0.001577,-0.081878,-0.21688,0.066941,-0.17481,0.057834,-0.0053169,0.010795,0.14945,-0.014135,0.05717,-0.0055164,0.017251
0.0025345,-0.010425,0.015406,-0.020782,0.039519,0.090242,0.0061806,0.034277,0.0094558,-0.020085,-0.027859,-0.0064877,-0.069748,-0.25427,0.063476,-0.15952,0.066811,0.010761,0.083495,0.2917,-0.028733,0.054213,-0.0085476,0.011544
-0.0027564,-0.0078266,0.016654,-0.015572,0.046961,0.10643,0.011147,0.045269,0.016909,-0.018584,-0.024618,-0.011701,-0.071071,-0.29587,0.051765,-0.13125,0.07915,0.029265,0.1562,0.43617,-0.034804,0.048677,-0.010741,0.006647
-0.0053369,-0.0027237,0.014192,-0.0067301,0.058,0.1238,0.018477,0.058157,0.019046,-0.013309,-0.027137,-0.010801,-0.082826,-0.34117,0.032416,-0.10458,0.090814,0.05032,0.21823,0.56412,-0.033045,0.042093,-0.010444,0.0078542
-0.0029748,0.0017024,0.008498,-0.00011301,0.069992,0.13954,0.027183,0.070246,0.016658,-0.0091568,-0.034851,-0.00474,-0.093613,-0.38896,0.009185,-0.089607,0.09809,0.074559,0.25796,0.65665,-0.028494,0.035528,-0.0076743,0.016191
0.0029998,0.0024186,0.0024447,0.00022227,0.08126,0.15145,0.035542,0.078874,0.012581,-0.0085758,-0.04412,0.0019818,-0.091711,-0.43353,-0.013764,-0.087735,0.10132,0.10222,0.26669,0.70163,-0.026636,0.028499,-0.0043678,0.027146
0.0090459,-0.0011573,-0.00037684,-0.0050826,0.09237,0.15933,0.041956,0.083303,0.0097085,-0.0096919,-0.051686,0.0047107,-0.07297,-0.46362,-0.034275,-0.092694,0.10506,0.13179,0.24297,0.69879,-0.029222,0.019606,-0.0029696,0.03402
