-2.5081e-011,7.2735e-010,1.063e-009,-1.4856e-010,-2.2978e-009,-7.6381e-009,1.283e-009,-4.5126e-009,5.5371e-010,3.3589e-009,1.0823e-009,5.705e-009,5.8458e-010,4.0033e-009,1.8271e-009,6.0059e-009,9.7816e-010,2.5949e-009,6.7333e-010,2.3788e-009,-4.0072e-009,2.51e-009,-4.4567e-010,4.4972e-009
-6.9308e-010,2.0076e-008,2.911e-008,-3.9122e-009,-6.3558e-008,-2.1219e-007,3.5072e-008,-1.2572e-007,1.5112e-008,9.2908e-008,2.9793e-008,1.5759e-007,1.6208e-008,1.1003e-007,5.0426e-008,1.6536e-007,2.6741e-008,7.1769e-008,1.8699e-008,6.5358e-008,-1.1005e-007,7.3197e-008,-1.2204e-008,1.2568e-007
-9.3181e-009,2.6937e-007,3.8725e-007,-4.9591e-008,-8.5439e-007,-2.867e-006,4.6563e-007,-1.7047e-006,2.004e-007,1.2493e-006,3.9838e-007,2.116e-006,2.1832e-007,1.4698e-006,6.7657e-007,2.2129e-006,3.5517e-007,9.6549e-007,2.5253e-007,8.7319e-007,-1.4678e-006,1.041e-006,-1.624e-007,1.7109e-006
-8.1361e-008,2.3404e-006,3.3347e-006,-4.0211e-007,-7.4357e-006,-2.5103e-005,3.9994e-006,-1.4992e-005,1.7203e-006,1.0879e-005,3.4472e-006,1.8399e-005,1.9031e-006,1.2713e-005,5.8793e-006,1.9176e-005,3.0535e-006,8.4177e-006,2.2097e-006,7.5581e-006,-1.2664e-005,9.6222e-006,-1.3991e-006,1.512e-005
-5.1967e-007,1.4798e-005,2.0894e-005,-2.3359e-006,-4.7083e-005,-0.0001601,2.4973e-005,-9.6121e-005,1.0746e-005,6.8963e-005,2.1694e-005,0.00011643,1.2065e-005,8.0022e-005,3.7194e-005,0.00012093,1.9099e-005,5.3465e-005,1.4082e-005,4.7642e-005,-7.9424e-005,6.5003e-005,-8.7689e-006,9.7561e-005
-2.5923e-006,7.2539e-005,0.00010151,-1.0303e-005,-0.00023108,-0.00079246,0.00012075,-0.00047884,5.2045e-005,0.00033905,0.00010579,0.00057127,5.9257e-005,0.00039054,0.00018252,0.00059127,9.2596e-005,0.00026361,6.9661e-005,0.00023302,-0.0003856,0.00034213,-4.2595e-005,0.00048996
-1.0523e-005,0.0002867,0.00039785,-3.5586e-005,-0.00091418,-0.0031673,0.00047011,-0.0019285,0.00020332,0.0013449,0.00041579,0.0022608,0.00023447,0.0015372,0.00072274,0.0023316,0.00036197,0.0010497,0.00027829,0.00091992,-0.0015067,0.0014604,-0.00016675,0.0019939
-3.5717e-005,0.00093793,0.0012921,-9.7408e-005,-0.0029926,-0.010497,0.0015124,-0.0064493,0.00065794,0.0044192,0.0013522,0.0074086,0.00076724,0.0050102,0.0023717,0.0076133,0.0011715,0.003467,0.00092228,0.0030099,-0.004861,0.0051964,-0.00053999,0.0067583
-0.00010316,0.0025862,0.003543,-0.00020918,-0.0082538,-0.029388,0.0040927,-0.018252,0.0017967,0.012254,0.0037059,0.020477,0.0021139,0.013774,0.0065707,0.020967,0.0031971,0.0096754,0.0025842,0.0083133,-0.013176,0.015719,-0.0014724,0.019464
-0.00025606,0.0060863,0.0083146,-0.00033336,-0.019419,-0.070431,0.0094285,-0.044311,0.0041953,0.029054,0.0086692,0.048354,0.0049659,0.032357,0.015574,0.049333,0.0074536,0.023117,0.0062073,0.019632,-0.030345,0.041021,-0.0034214,0.048351
-0.00054746,0.012327,0.016859,-0.00030792,-0.039285,-0.14581,0.018629,-0.093183,0.0084516,0.059432,0.017458,0.098403,0.01003,0.065535,0.031878,0.10006,0.014975,0.047711,0.012911,0.039979,-0.059744,0.093395,-0.006824,0.10481
-0.0010016,0.021582,0.029723,0.00019807,-0.068609,-0.26229,0.031675,-0.17087,0.01477,0.10549,0.03041,0.17349,0.017506,0.11509,0.056696,0.17588,0.026067,0.085502,0.02342,0.070521,-0.10064,0.18712,-0.011712,0.20014
-0.0015355,0.032688,0.045721,0.0015862,-0.10341,-0.41104,0.046289,-0.2743,0.022433,0.16292,0.045875,0.26549,0.026467,0.17577,0.087932,0.26863,0.039399,0.13323,0.037238,0.1078,-0.14416,0.33213,-0.017246,0.33935
-0.0018689,0.042664,0.061402,0.0040095,-0.13376,-0.56087,0.057757,-0.38612,0.029554,0.21886,0.059753,0.35208,0.034693,0.2336,0.1191,0.35642,0.051657,0.17989,0.052047,0.1421,-0.17246,0.52513,-0.021532,0.51473
-0.0015055,0.047498,0.071851,0.0069449,-0.14637,-0.66358,0.060636,-0.4763,0.033518,0.25492,0.066619,0.40234,0.039523,0.26999,0.14094,0.40976,0.058523,0.20811,0.064035,0.15929,-0.16464,0.7429,-0.022144,0.70374
0.00010693,0.044181,0.072956,0.0090273,-0.13141,-0.67494,0.052138,-0.51368,0.032188,0.25585,0.062478,0.39191,0.039652,0.27179,0.146,0.4071,0.05696,0.20088,0.069345,0.14696,-0.10906,0.94444,-0.017378,0.87499
0.0032152,0.032968,0.06407,0.0085628,-0.089952,-0.58246,0.035114,-0.48331,0.025274,0.21971,0.047666,0.32,0.03674,0.24174,0.13393,0.35132,0.047557,0.15108,0.066013,0.10221,-0.014921,1.0844,-0.007597,1.0004
0.0073768,0.018128,0.049163,0.0047387,-0.036331,-0.42062,0.017908,-0.39837,0.014862,0.16164,0.027607,0.21465,0.035198,0.20057,0.11327,0.27377,0.034995,0.068096,0.055062,0.035797,0.086749,1.1329,0.0043685,1.0663
0.011391,0.0061428,0.035128,-0.0011442,0.0084055,-0.25772,0.010026,-0.29599,0.0044555,0.10622,0.01013,0.11822,0.039454,0.17615,0.097105,0.21833,0.025626,-0.024036,0.039814,-0.031411,0.1575,1.0894,0.014456,1.0749
0.013788,0.0021814,0.027874,-0.0055029,0.029025,-0.15731,0.015988,-0.21629,-0.0030765,0.071662,0.00066164,0.059791,0.050119,0.18508,0.094573,0.21323,0.023349,-0.09755,0.023857,-0.078895,0.17409,0.98128,0.019732,1.0354
0.013711,0.0072492,0.028677,-0.0039931,0.02599,-0.13926,0.031998,-0.17796,-0.0072838,0.056982,-0.0012626,0.034298,0.062067,0.22023,0.10423,0.25108,0.026771,-0.13466,0.0092715,-0.097282,0.14318,0.84566,0.0203,0.95144
0.011588,0.018153,0.033508,0.0058783,0.01463,-0.16996,0.048574,-0.16838,-0.010278,0.04261,-0.001275,0.006356,0.066687,0.25516,0.11508,0.29446,0.030099,-0.13524,-0.0034362,-0.092051,0.095306,0.70816,0.019228,0.81767
0.0089923,0.030195,0.036028,0.022747,0.013461,-0.19064,0.057614,-0.1566,-0.015003,0.0052763,-0.0055247,-0.061723,0.057431,0.26355,0.11525,0.3049,0.027473,-0.11354,-0.013879,-0.077687,0.061535,0.57255,0.020338,0.62829
0.0076476,0.040271,0.03214,0.041598,0.030505,-0.16244,0.058283,-0.11892,-0.022853,-0.063832,-0.015702,-0.17867,0.034731,0.2386,0.10155,0.2724,0.017478,-0.08707,-0.020578,-0.067068,0.050831,0.42866,0.025469,0.39117
0.0082401,0.047856,0.022714,0.056344,0.058409,-0.092071,0.056722,-0.056393,-0.032417,-0.15184,-0.027764,-0.31468,0.0062153,0.19659,0.08199,0.22094,0.0042148,-0.066019,-0.021598,-0.064207,0.046967,0.26997,0.033308,0.13349
0.0099304,0.053474,0.012393,0.063114,0.081832,-0.01878,0.059775,0.0099,-0.040318,-0.23351,-0.035351,-0.42124,-0.018335,0.16172,0.068785,0.18511,-0.0059933,-0.050392,-0.016724,-0.064988,0.027317,0.10543,0.040714,-0.10813
0.010929,0.056634,0.0055372,0.062,0.090158,0.023988,0.068341,0.060276,-0.043553,-0.28945,-0.034922,-0.46406,-0.03353,0.1456,0.067871,0.17832,-0.009574,-0.034867,-0.0089646,-0.063567,-0.013347,-0.043873,0.045374,-0.30549
0.0096957,0.055574,0.0026881,0.056173,0.084616,0.037387,0.076402,0.094817,-0.041608,-0.31871,-0.028321,-0.44341,-0.041262,0.13879,0.074018,0.18071,-0.0082541,-0.015702,-0.0033636,-0.057954,-0.055443,-0.15897,0.047637,-0.44994
0.005922,0.04916,0.00048224,0.049329,0.074583,0.052251,0.076619,0.13214,-0.036829,-0.33659,-0.020837,-0.38833,-0.047835,0.12046,0.075712,0.15701,-0.0071816,0.006313,-0.0035093,-0.050317,-0.070254,-0.23466,0.050126,-0.54737
0.00071998,0.03894,-0.0049469,0.043628,0.067857,0.097592,0.067261,0.19034,-0.032803,-0.3608,-0.016748,-0.33351,-0.058085,0.076143,0.065162,0.088032,-0.010351,0.027859,-0.0085547,-0.043227,-0.044621,-0.27902,0.055625,-0.60336
-0.0039732,0.02902,-0.014098,0.039558,0.064438,0.17292,0.053902,0.26805,-0.031886,-0.39775,-0.016315,-0.29933,-0.071684,0.0079649,0.044403,-0.011841,-0.017231,0.046384,-0.013556,-0.036635,0.0072247,-0.30353,0.064933,-0.61386
-0.0063644,0.023485,-0.023237,0.037232,0.059055,0.24926,0.044279,0.34305,-0.033578,-0.4392,-0.016559,-0.28836,-0.084516,-0.069436,0.022457,-0.10504,-0.023308,0.060961,-0.013179,-0.028726,0.05462,-0.31468,0.076126,-0.57126
-0.005677,0.023536,-0.027409,0.037414,0.04885,0.29598,0.041146,0.38959,-0.03484,-0.47041,-0.014708,-0.29521,-0.093333,-0.14017,0.0069498,-0.15778,-0.023877,0.070866,-0.0057386,-0.019039,0.073918,-0.31503,0.085418,-0.48038
-0.002559,0.026953,-0.02474,0.041068,0.038045,0.30759,0.039927,0.39903,-0.032166,-0.48194,-0.010917,-0.31609,-0.099012,-0.19375,-0.0016618,-0.1596,-0.017796,0.075059,0.0058683,-0.0097099,0.064146,-0.31104,0.08884,-0.36781
0.001208,0.030443,-0.018178,0.047962,0.034969,0.30682,0.033379,0.38605,-0.024057,-0.47592,-0.0078607,-0.34947,-0.1054,-0.22343,-0.0083499,-0.12147,-0.0082066,0.074314,0.017013,-0.0028846,0.043075,-0.31728,0.083882,-0.27326
0.0036766,0.032701,-0.013046,0.055931,0.044535,0.32364,0.018814,0.37633,-0.012282,-0.46304,-0.0078498,-0.39027,-0.11507,-0.22306,-0.017014,-0.060073,5.3939e-005,0.073502,0.025173,0.0029131,0.029688,-0.35033,0.070589,-0.22766
0.003921,0.035249,-0.012552,0.061796,0.06353,0.3711,0.0010256,0.38753,-0.001039,-0.45377,-0.010388,-0.42665,-0.12615,-0.19052,-0.026364,0.013319,0.0039551,0.079673,0.031117,0.012734,0.029554,-0.4162,0.051773,-0.23515
0.0026551,0.040117,-0.015298,0.063261,0.083018,0.43887,-0.011869,0.41941,0.0054492,-0.45082,-0.012534,-0.44417,-0.1331,-0.13595,-0.032326,0.089511,0.0038232,0.095165,0.036479,0.030002,0.034406,-0.50253,0.032095,-0.27318
0.0017008,0.046565,-0.017049,0.060145,0.095297,0.50666,-0.015724,0.45902,0.0053113,-0.44775,-0.01162,-0.43389,-0.13046,-0.084134,-0.034103,0.15182,0.0020539,0.11115,0.040343,0.050324,0.033136,-0.58317,0.016169,-0.30971
0.0025397,0.05023,-0.015066,0.054004,0.098918,0.56159,-0.014046,0.49352,-0.00021444,-0.434,-0.0076016,-0.39692,-0.11605,-0.06315,-0.037211,0.17622,0.00054369,0.1091,0.038565,0.060838,0.022266,-0.63252,0.006589,-0.32301
0.0050204,0.04615,-0.010906,0.046737,0.097693,0.60331,-0.014854,0.51861,-0.0080647,-0.40255,-0.0027504,-0.34233,-0.091001,-0.085054,-0.049864,0.14649,-0.00076495,0.07229,0.026966,0.047659,0.0070019,-0.63875,0.0030722,-0.30965
0.0073578,0.033397,-0.0089292,0.039554,0.095573,0.63534,-0.023942,0.53733,-0.015595,-0.3553,0.00088877,-0.28124,-0.057501,-0.13485,-0.075783,0.071477,-0.0031461,-1.5811e-005,0.0057611,0.0068142,-0.0056218,-0.60681,0.0032839,-0.27778
0.007609,0.017154,-0.011843,0.033022,0.092801,0.65528,-0.040827,0.55391,-0.022041,-0.3034,0.0035721,-0.22243,-0.017227,-0.17947,-0.11011,-0.01396,-0.0071697,-0.087105,-0.018859,-0.049959,-0.013203,-0.55143,0.0046046,-0.23561
0.0055044,0.0058038,-0.017514,0.027656,0.086789,0.65585,-0.060661,0.57041,-0.02819,-0.26234,0.0072588,-0.17185,0.028022,-0.19151,-0.14224,-0.069585,-0.011573,-0.15642,-0.037733,-0.099992,-0.01813,-0.48783,0.0054377,-0.18628
0.0030008,0.0048628,-0.020326,0.024024,0.076095,0.63541,-0.079447,0.58804,-0.034778,-0.24444,0.012966,-0.13362,0.07459,-0.16865,-0.16314,-0.076892,-0.014015,-0.18267,-0.044161,-0.12246,-0.023019,-0.42763,0.0052387,-0.1325
0.0028104,0.012558,-0.016211,0.022123,0.062974,0.60545,-0.097036,0.60907,-0.041165,-0.25257,0.018979,-0.10993,0.11668,-0.13261,-0.17074,-0.050059,-0.013036,-0.16293,-0.037628,-0.11036,-0.027408,-0.38034,0.003713,-0.083809
0.0059098,0.020822,-0.006937,0.020787,0.051764,0.58521,-0.11508,0.63454,-0.045444,-0.27827,0.022091,-0.099576,0.14837,-0.10931,-0.16955,-0.021521,-0.009455,-0.11695,-0.023251,-0.07345,-0.0291,-0.35504,0.00030405,-0.057442
0.01017,0.021121,0.0004569,0.018045,0.044856,0.58679,-0.13257,0.65967,-0.0458,-0.30553,0.02093,-0.097427,0.16621,-0.10801,-0.16565,-0.014975,-0.0059591,-0.072997,-0.0078891,-0.030832,-0.027797,-0.35763,-0.0054194,-0.07021
0.011599,0.010569,-0.00097132,0.012413,0.040429,0.60416,-0.14407,0.67291,-0.041839,-0.31867,0.017997,-0.096725,0.16972,-0.11739,-0.1622,-0.02886,-0.0051614,-0.050176,0.0038099,0.00099278,-0.026269,-0.38485,-0.012936,-0.12726
0.0075258,-0.0064359,-0.012279,0.0040847,0.034336,0.61668,-0.14306,0.66238,-0.034764,-0.3101,0.018046,-0.09281,0.15975,-0.12088,-0.15873,-0.042965,-0.0076678,-0.049643,0.010737,0.016364,-0.027393,-0.42144,-0.02044,-0.21688
-0.00086806,-0.022088,-0.027436,-0.0050434,0.02432,0.60421,-0.12753,0.625,-0.026501,-0.28351,0.02392,-0.085126,0.13664,-0.11691,-0.1539,-0.04017,-0.011724,-0.059166,0.013818,0.02043,-0.03028,-0.44499,-0.025467,-0.31589
-0.0090565,-0.031148,-0.037897,-0.012606,0.012404,0.56048,-0.10244,0.56962,-0.018726,-0.25014,0.033722,-0.075648,0.10102,-0.1262,-0.1478,-0.023685,-0.014766,-0.065532,0.013597,0.022433,-0.030021,-0.437,-0.026116,-0.40198
-0.012618,-0.034251,-0.039185,-0.017326,0.00303,0.49409,-0.076689,0.51009,-0.012568,-0.2204,0.042142,-0.065401,0.056577,-0.18035,-0.1417,-0.016658,-0.015664,-0.064707,0.009056,0.027901,-0.021886,-0.39297,-0.022118,-0.4645
-0.010846,-0.036362,-0.033977,-0.019804,-0.0013825,0.41872,-0.057105,0.45406,-0.0087814,-0.19652,0.044908,-0.052718,0.012057,-0.3009,-0.1362,-0.047364,-0.015808,-0.063042,-0.0015202,0.034983,-0.0061855,-0.3247,-0.01526,-0.50673
-0.0073352,-0.042347,-0.029308,-0.022142,-0.0032594,0.34386,-0.044602,0.39826,-0.0076198,-0.1719,0.042261,-0.03531,-0.020724,-0.48436,-0.13033,-0.13354,-0.01803,-0.070197,-0.018444,0.03668,0.010955,-0.2533,-0.0089668,-0.53913
-0.0068955,-0.0536,-0.030613,-0.026822,-0.0082788,0.27511,-0.035463,0.33563,-0.0082896,-0.13759,0.038235,-0.014249,-0.032372,-0.70194,-0.12316,-0.27593,-0.024138,-0.089919,-0.038956,0.026937,0.021947,-0.19758,-0.0070701,-0.56949
-0.011431,-0.068099,-0.037888,-0.035466,-0.020549,0.22153,-0.025838,0.2678,-0.0087883,-0.091031,0.036479,0.0043904,-0.021251,-0.91192,-0.11598,-0.46057,-0.033098,-0.11529,-0.057417,0.0064963,0.023501,-0.16479,-0.01198,-0.59751
-0.018415,-0.082871,-0.046901,-0.047903,-0.038692,0.19922,-0.015001,0.21042,-0.006981,-0.039526,0.036701,0.012783,0.0054268,-1.076,-0.1124,-0.66315,-0.041481,-0.13133,-0.067728,-0.015237,0.018852,-0.14827,-0.022985,-0.61735
-0.023246,-0.095985,-0.053615,-0.061786,-0.056251,0.22356,-0.0047453,0.18452,-0.0025055,0.0047288,0.035093,0.0075464,0.0357,-1.1719,-0.11567,-0.85254,-0.045915,-0.12315,-0.066851,-0.023947,0.014709,-0.13265,-0.035822,-0.62511
-0.023242,-0.10636,-0.057272,-0.073152,-0.06616,0.29479,0.0037027,0.20009,0.0021903,0.03443,0.028239,-0.0061806,0.059319,-1.1984,-0.12552,-0.99632,-0.045501,-0.084809,-0.057192,-0.0082819,0.015755,-0.10347,-0.044315,-0.62481
-0.019597,-0.11242,-0.059498,-0.078147,-0.065623,0.39022,0.011626,0.24594,0.0030848,0.053677,0.016615,-0.016481,0.072313,-1.1722,-0.1375,-1.0719,-0.04219,-0.024013,-0.045847,0.032398,0.021298,-0.056461,-0.0436,-0.62747
-0.015737,-0.11202,-0.061082,-0.075402,-0.057525,0.47264,0.021582,0.29528,-0.0024588,0.075602,0.0043135,-0.011148,0.077243,-1.1177,-0.14557,-1.0791,-0.038936,0.040204,-0.040558,0.085461,0.026459,-0.0016002,-0.033067,-0.64385
-0.013943,-0.10438,-0.060393,-0.067516,-0.047517,0.51102,0.034432,0.32331,-0.013397,0.11262,-0.0046168,0.015986,0.07995,-1.0548,-0.14603,-1.0443,-0.037365,0.085905,-0.044655,0.1304,0.026371,0.040795,-0.017006,-0.67637
-0.013632,-0.092413,-0.055322,-0.060095,-0.039498,0.49827,0.047815,0.32255,-0.025501,0.16675,-0.0095118,0.063266,0.085586,-0.98877,-0.13932,-1.0084,-0.03696,0.098728,-0.054458,0.15007,0.019702,0.050949,-0.002343,-0.71651
-0.012778,-0.082361,-0.046555,-0.058342,-0.033254,0.45302,0.057709,0.30418,-0.034415,0.22743,-0.012911,0.12423,0.096342,-0.91092,-0.12882,-1.0022,-0.036134,0.078931,-0.061264,0.14109,0.0090131,0.021741,0.005172,-0.75015
-0.010703,-0.080104,-0.038244,-0.063363,-0.025852,0.40449,0.061612,0.28531,-0.038698,0.27816,-0.017249,0.19184,0.11145,-0.80724,-0.11791,-1.0264,-0.033804,0.041021,-0.056947,0.11635,-0.0016433,-0.035563,0.0039653,-0.76717
-0.009146,-0.086641,-0.034787,-0.071157,-0.015094,0.37301,0.060386,0.27394,-0.040274,0.30699,-0.021944,0.26043,0.1284,-0.67098,-0.10789,-1.0511,-0.02989,0.0059331,-0.039474,0.097061,-0.0093915,-0.096402,-0.0028592,-0.76879
-0.010512,-0.096811,-0.036693,-0.075561,-0.0017953,0.3599,0.057196,0.26358,-0.04205,0.31338,-0.02388,0.32475,0.14419,-0.50915,-0.098172,-1.0377,-0.024593,-0.0099422,-0.014556,0.099356,-0.013409,-0.13616,-0.0095511,-0.76745
-0.015194,-0.10297,-0.039892,-0.073211,0.010945,0.3522,0.054686,0.2406,-0.045046,0.3071,-0.02075,0.37896,0.15588,-0.33902,-0.087946,-0.96734,-0.017668,-0.0025195,0.0077755,0.12453,-0.013915,-0.14292,-0.010927,-0.7793
-0.020885,-0.10107,-0.039593,-0.066632,0.020445,0.33517,0.052943,0.19628,-0.047697,0.30088,-0.013783,0.41815,0.16092,-0.17812,-0.077706,-0.85507,-0.0088271,0.019873,0.019288,0.15966,-0.010816,-0.12146,-0.0050264,-0.81438
-0.024639,-0.094258,-0.035195,-0.062726,0.02645,0.30226,0.049777,0.13296,-0.04781,0.30247,-0.0070456,0.44231,0.15744,-0.035818,-0.069326,-0.73796,0.0010953,0.04362,0.018156,0.18747,-0.0035094,-0.086962,0.006058,-0.8708
-0.025525,-0.090596,-0.031368,-0.067553,0.030692,0.25644,0.042666,0.060475,-0.045156,0.3113,-0.003972,0.45993,0.14456,0.088123,-0.064856,-0.64632,0.0096354,0.059084,0.0090822,0.19763,0.0080627,-0.054387,0.017535,-0.93612
-0.025117,-0.096567,-0.033929,-0.081402,0.034645,0.2054,0.030522,-0.012169,-0.04208,0.32157,-0.0045975,0.48757,0.12248,0.19873,-0.065102,-0.58063,0.01384,0.065789,-0.00070454,0.19112,0.022347,-0.031762,0.024764,-0.99441
-0.025386,-0.11148,-0.044141,-0.098085,0.037749,0.15641,0.014039,-0.081291,-0.041452,0.32859,-0.0062058,0.5439,0.092301,0.30007,-0.069067,-0.51219,0.012369,0.070652,-0.0062779,0.17579,0.036378,-0.020501,0.025973,-1.0334
-0.026326,-0.12745,-0.056696,-0.10909,0.037772,0.11434,-0.0050843,-0.14616,-0.043777,0.33389,-0.0066777,0.64031,0.056118,0.39297,-0.074631,-0.40678,0.0067559,0.081587,-0.0071347,0.15866,0.047316,-0.019484,0.023029,-1.047
-0.025933,-0.13511,-0.063337,-0.10946,0.032887,0.081615,-0.024904,-0.20382,-0.046086,0.3458,-0.0071267,0.7725,0.017346,0.47675,-0.079905,-0.25254,0.00057654,0.1018,-0.0055857,0.14213,0.054072,-0.027394,0.01955,-1.0326
-0.022607,-0.13048,-0.059045,-0.10083,0.023451,0.057745,-0.043347,-0.24777,-0.043662,0.3758,-0.011129,0.91821,-0.019045,0.55184,-0.084273,-0.071147,-0.0029591,0.12868,-0.0035003,0.12642,0.057522,-0.041683,0.017627,-0.98588
-0.017374,-0.11755,-0.045597,-0.089627,0.011852,0.038332,-0.058109,-0.27251,-0.033178,0.4334,-0.0212,1.0432,-0.047427,0.62046,-0.088284,0.094817,-0.0030992,0.15674,-0.00054805,0.11393,0.059037,-0.057669,0.015817,-0.89923
-0.01341,-0.10452,-0.029827,-0.081966,0.00065306,0.016,-0.067169,-0.27935,-0.014688,0.52226,-0.035853,1.1136,-0.063893,0.68522,-0.09247,0.20747,-0.0017309,0.18086,0.0046986,0.10953,0.058627,-0.071751,0.010294,-0.76452
-0.013101,-0.097144,-0.018526,-0.079444,-0.0092315,-0.015611,-0.069993,-0.27704,0.0090251,0.63869,-0.050051,1.1091,-0.069076,0.74697,-0.09606,0.25355,-0.0016626,0.19684,0.012308,0.11557,0.054454,-0.087782,-0.0015616,-0.57875
-0.015514,-0.094655,-0.014256,-0.078887,-0.018728,-0.057262,-0.068457,-0.27593,0.034983,0.77198,-0.058764,1.0301,-0.069254,0.80407,-0.09683,0.24707,-0.0045108,0.19961,0.019934,0.12647,0.044253,-0.12053,-0.018207,-0.34746
-0.016941,-0.091431,-0.014931,-0.075825,-0.029181,-0.10344,-0.066334,-0.28095,0.062181,0.90687,-0.060608,0.89682,-0.073941,0.85323,-0.092517,0.21643,-0.0098212,0.18294,0.02443,0.12937,0.027318,-0.19076,-0.03446,-0.083179
-0.014227,-0.082625,-0.016551,-0.068545,-0.040778,-0.14748,-0.067305,-0.29036,0.091636,1.028,-0.058566,0.7402,-0.090341,0.89114,-0.082817,0.18671,-0.015854,0.14294,0.024644,0.11188,0.0050446,-0.31307,-0.045389,0.1995
-0.0078171,-0.068621,-0.016287,-0.059396,-0.052258,-0.18896,-0.072862,-0.30162,0.12439,1.1262,-0.057378,0.59111,-0.11767,0.9148,-0.070257,0.1675,-0.02111,0.083589,0.022609,0.071423,-0.020618,-0.4846,-0.05037,0.48732
-0.0016228,-0.054533,-0.013699,-0.052584,-0.062014,-0.2372,-0.081765,-0.31877,0.15927,1.2027,-0.059869,0.47186,-0.14551,0.91987,-0.058881,0.15029,-0.025296,0.018924,0.021694,0.018104,-0.049201,-0.68306,-0.053678,0.76649
0.00031566,-0.045515,-0.0099426,-0.050603,-0.069444,-0.30707,-0.09146,-0.35363,0.19234,1.268,-0.065059,0.39258,-0.15847,0.89753,-0.051473,0.11458,-0.029148,-0.032262,0.023136,-0.031734,-0.08177,-0.87557,-0.060866,1.0175
-0.0026414,-0.042286,-0.006303,-0.05239,-0.075329,-0.40971,-0.1001,-0.41847,0.2185,1.3327,-0.069234,0.35155,-0.14554,0.83285,-0.047392,0.03917,-0.033534,-0.057551,0.023985,-0.066776,-0.11825,-1.0319,-0.073874,1.2134
-0.0072023,-0.040811,-0.0032758,-0.054513,-0.081055,-0.54452,-0.10727,-0.51594,0.23401,1.395,-0.068818,0.33726,-0.10842,0.70831,-0.042799,-0.085556,-0.038683,-0.060321,0.018454,-0.088238,-0.1541,-1.1336,-0.088995,1.3271
-0.0090731,-0.036128,-0.00046882,-0.054046,-0.087494,-0.69777,-0.11288,-0.6343,0.23804,1.4355,-0.062798,0.33162,-0.062831,0.51368,-0.033224,-0.24984,-0.044011,-0.059598,0.0018748,-0.10816,-0.17989,-1.1745,-0.099411,1.3471
-0.0066552,-0.026574,0.0029941,-0.050541,-0.094442,-0.84804,-0.11545,-0.75218,0.23223,1.4244,-0.053158,0.31484,-0.030588,0.25831,-0.016622,-0.426,-0.048492,-0.078893,-0.025744,-0.1402,-0.18513,-1.157,-0.10013,1.2895
-0.0021609,-0.014615,0.0078455,-0.045667,-0.10083,-0.97451,-0.11181,-0.84904,0.21914,1.3406,-0.043367,0.27205,-0.026714,-0.022239,0.0052827,-0.57881,-0.051204,-0.13111,-0.059245,-0.19,-0.16453,-1.0894,-0.09132,1.1958
0.00077928,-0.0039264,0.013979,-0.041283,-0.10525,-1.0639,-0.09916,-0.91403,0.20097,1.1881,-0.036206,0.19954,-0.050043,-0.27257,0.028145,-0.67794,-0.051777,-0.21021,-0.091212,-0.25183,-0.12198,-0.98567,-0.077646,1.1127
0.00070437,0.0041546,0.020052,-0.037892,-0.1064,-1.1134,-0.077768,-0.94799,0.17972,0.99841,-0.03239,0.10706,-0.084134,-0.43698,0.047571,-0.70376,-0.050585,-0.29562,-0.11595,-0.31282,-0.069213,-0.86512,-0.064868,1.0652
-0.00028166,0.011388,0.023926,-0.034637,-0.10335,-1.1301,-0.052251,-0.95939,0.15795,0.81411,-0.030654,0.013368,-0.10848,-0.48275,0.06128,-0.64418,-0.048563,-0.36566,-0.13163,-0.36085,-0.019714,-0.74692,-0.056864,1.0433
0.0013799,0.020228,0.02408,-0.030401,-0.095764,-1.1267,-0.029841,-0.95842,0.13895,0.66488,-0.028991,-0.063005,-0.11254,-0.41393,0.069659,-0.48999,-0.046652,-0.40972,-0.13939,-0.39031,0.017856,-0.64106,-0.055218,1.0144
0.0070611,0.030977,0.021148,-0.024701,-0.08408,-1.1154,-0.016653,-0.95294,0.12541,0.55352,-0.026076,-0.11296,-0.10265,-0.26711,0.074792,-0.23835,-0.045116,-0.43052,-0.14063,-0.40265,0.042362,-0.54216,-0.060645,0.95446
0.014206,0.041406,0.018186,-0.017719,-0.069485,-1.1019,-0.014404,-0.94713,0.11759,0.46111,-0.021992,-0.14041,-0.09713,-0.0921,0.078882,0.094701,-0.043265,-0.43645,-0.13506,-0.40282,0.05783,-0.43314,-0.073898,0.87485
0.018205,0.048984,0.018915,-0.0098937,-0.053531,-1.0845,-0.019788,-0.9419,0.11275,0.36596,-0.017942,-0.15847,-0.11301,0.070231,0.083032,0.46472,-0.039967,-0.43189,-0.1211,-0.39506,0.068595,-0.2986,-0.094856,0.82225
0.016308,0.053213,0.024874,-0.0018426,-0.037693,-1.0581,-0.026797,-0.93593,0.10695,0.26067,-0.015295,-0.18137,-0.15409,0.20017,0.086914,0.80613,-0.034722,-0.41412,-0.098359,-0.38095,0.07593,-0.13915,-0.12084,0.84905
0.010104,0.055658,0.033673,0.0053175,-0.023184,-1.022,-0.030346,-0.927,0.098071,0.15496,-0.014675,-0.21729,-0.20863,0.297,0.08937,1.0574,-0.028489,-0.37864,-0.069821,-0.36033,0.078289,0.024252,-0.1463,0.97435
0.004342,0.057858,0.040089,0.0099637,-0.011031,-0.98338,-0.028883,-0.91303,0.087672,0.06466,-0.01566,-0.26619,-0.25739,0.36842,0.089565,1.1883,-0.023438,-0.32677,-0.04192,-0.33325,0.074056,0.16049,-0.16467,1.1649
0.0030981,0.059516,0.039629,0.01081,-0.0021141,-0.95334,-0.024582,-0.89213,0.080034,-0.001906,-0.017158,-0.32294,-0.28547,0.4215,0.087953,1.2085,-0.021608,-0.26774,-0.021928,-0.30108,0.063917,0.2468,-0.17115,1.3508
0.0065916,0.05891,0.031996,0.008135,0.0030877,-0.93729,-0.021407,-0.86171,0.079027,-0.049144,-0.018147,-0.38271,-0.28923,0.46051,0.086245,1.1522,-0.023366,-0.21308,-0.014161,-0.26586,0.050858,0.2829,-0.16436,1.4646
0.011357,0.055035,0.021651,0.0042123,0.0048814,-0.92829,-0.022561,-0.81844,0.085444,-0.088943,-0.018255,-0.44473,-0.2744,0.48909,0.086129,1.053,-0.026856,-0.16843,-0.017371,-0.22872,0.03815,0.29073,-0.14602,1.4763
0.013504,0.049194,0.014753,0.002232,0.0044628,-0.91037,-0.02892,-0.76073,0.097031,-0.13156,-0.017878,-0.51193,-0.2487,0.51058,0.087496,0.92883,-0.028959,-0.13015,-0.025133,-0.18878,0.027337,0.30006,-0.11972,1.3993
0.012157,0.04442,0.014722,0.0043362,0.0034668,-0.87038,-0.039157,-0.69283,0.11097,-0.18012,-0.017817,-0.58664,-0.21618,0.52453,0.087646,0.78677,-0.027178,-0.089594,-0.029274,-0.14378,0.017857,0.32945,-0.089987,1.2694
0.010091,0.043337,0.019896,0.010293,0.0031197,-0.8088,-0.051071,-0.62668,0.12631,-0.23079,-0.018712,-0.66541,-0.17738,0.52381,0.082577,0.63618,-0.021173,-0.041221,-0.024585,-0.092333,0.0083424,0.37489,-0.061813,1.1143
0.011118,0.046432,0.025144,0.017866,0.0034201,-0.73996,-0.063002,-0.57809,0.1438,-0.2759,-0.020613,-0.73674,-0.1336,0.49816,0.069897,0.49406,-0.012966,0.011954,-0.012003,-0.036919,-0.0016414,0.41293,-0.039791,0.94017
0.016581,0.052015,0.026103,0.024472,0.0027586,-0.68053,-0.074376,-0.55829,0.16337,-0.30688,-0.022944,-0.78446,-0.089534,0.4438,0.051335,0.37633,-0.0057113,0.059125,0.0018154,0.014564,-0.010649,0.41583,-0.026456,0.73992
0.023961,0.057473,0.022477,0.028704,-0.0017557,-0.63594,-0.085197,-0.56696,0.18171,-0.31723,-0.024817,-0.79556,-0.05102,0.37099,0.03261,0.28533,-0.0018696,0.087262,0.0085964,0.050392,-0.015567,0.36955,-0.020917,0.5134
0.028723,0.060527,0.017747,0.030571,-0.013134,-0.59599,-0.095157,-0.59314,0.19296,-0.30638,-0.025476,-0.76831,-0.020074,0.30094,0.020231,0.20744,-0.0018983,0.087538,0.0038639,0.060257,-0.012702,0.28397,-0.019361,0.27756
0.027756,0.059827,0.015724,0.030679,-0.032717,-0.54381,-0.10324,-0.6244,0.19219,-0.28289,-0.024575,-0.71517,0.007062,0.25227,0.017357,0.12397,-0.0041887,0.059561,-0.0097665,0.041958,0.00070279,0.18982,-0.017582,0.05892
0.021639,0.055173,0.017119,0.029465,-0.058564,-0.47027,-0.10824,-0.6574,0.17892,-0.26298,-0.022181,-0.65823,0.035854,0.22776,0.021985,0.025212,-0.0062202,0.012383,-0.023734,0.0052221,0.024933,0.12385,-0.013726,-0.12301
0.014092,0.047791,0.019203,0.02724,-0.085255,-0.38189,-0.10976,-0.70091,0.15737,-0.26254,-0.018623,-0.61941,0.066639,0.2135,0.029132,-0.084725,-0.0061784,-0.037764,-0.028582,-0.03103,0.056884,0.11052,-0.0089159,-0.26437
0.0093074,0.040373,0.018709,0.024695,-0.10588,-0.29559,-0.10865,-0.76827,0.13319,-0.28645,-0.014354,-0.61114,0.091751,0.19192,0.03529,-0.19362,-0.003995,-0.072828,-0.019701,-0.047758,0.090516,0.15029,-0.0052612,-0.36998
0.0092793,0.036208,0.015155,0.022903,-0.11548,-0.22547,-0.10632,-0.86491,0.10958,-0.32366,-0.0099432,-0.6329,0.10026,0.15759,0.041237,-0.28912,-0.001103,-0.080223,3.096e-005,-0.036058,0.11888,0.22108,-0.0032121,-0.44003
0.012876,0.037358,0.011374,0.022538,-0.11372,-0.17339,-0.10334,-0.98084,0.086087,-0.35334,-0.0060797,-0.67446,0.086758,0.12136,0.050567,-0.36141,0.00093077,-0.058985,0.022371,-0.0017839,0.13685,0.29181,-0.00091093,-0.46705
0.016932,0.043005,0.010715,0.023144,-0.10468,-0.13137,-0.098538,-1.0936,0.060851,-0.3588,-0.003484,-0.7227,0.05651,0.09909,0.065216,-0.40244,0.0018677,-0.021009,0.038975,0.038729,0.14289,0.33946,0.0037169,-0.44945
0.018315,0.049482,0.013617,0.023494,-0.093774,-0.093264,-0.089655,-1.1786,0.033815,-0.33879,-0.0027342,-0.76682,0.02208,0.095792,0.082265,-0.40891,0.003147,0.014405,0.046162,0.068746,0.13866,0.35875,0.010092,-0.40954
0.015676,0.052481,0.016905,0.022992,-0.084155,-0.064852,-0.075129,-1.2185,0.0077283,-0.30736,-0.0041361,-0.79956,-0.005615,0.10039,0.095346,-0.3901,0.0067231,0.030368,0.046201,0.079985,0.12702,0.35876,0.01422,-0.39505
0.010048,0.050197,0.016652,0.022784,-0.07562,-0.062849,-0.055769,-1.2062,-0.013809,-0.28229,-0.0076989,-0.81551,-0.024024,0.096581,0.099654,-0.37102,0.013261,0.021312,0.044883,0.07499,0.10994,0.35006,0.011145,-0.45515
0.0041847,0.04508,0.011952,0.025238,-0.066778,-0.10323,-0.034816,-1.1414,-0.029201,-0.27173,-0.013104,-0.80991,-0.037853,0.079902,0.095979,-0.38056,0.021216,-0.0039756,0.047606,0.063295,0.088013,0.33257,-0.0011797,-0.6056
0.0010172,0.042582,0.0060211,0.03192,-0.0583,-0.1886,-0.016372,-1.0279,-0.039881,-0.26913,-0.019549,-0.77961,-0.051766,0.065086,0.089945,-0.42761,0.027693,-0.026652,0.056662,0.055841,0.0615,0.29343,-0.019764,-0.81104
0.0019956,0.047327,0.0034218,0.041733,-0.05394,-0.30497,-0.0034871,-0.8754,-0.048731,-0.25929,-0.025583,-0.72507,-0.063914,0.076615,0.087192,-0.48379,0.030491,-0.026983,0.070851,0.061483,0.031583,0.21632,-0.038017,-1.0021
0.0062552,0.059224,0.0059107,0.05095,-0.05807,-0.43013,0.002566,-0.70213,-0.05762,-0.22902,-0.029317,-0.6509,-0.06615,0.13042,0.089101,-0.49242,0.029667,0.0062575,0.086735,0.085831,0.00060099,0.09528,-0.049672,-1.1171
0.01123,0.072497,0.010717,0.055327,-0.071776,-0.5457,0.0016212,-0.53415,-0.066345,-0.1738,-0.029224,-0.56406,-0.050603,0.22199,0.093005,-0.4038,0.027348,0.070408,0.10025,0.13032,-0.028722,-0.057046,-0.052224,-1.138
0.014425,0.078809,0.012861,0.052772,-0.091084,-0.64283,-0.0061885,-0.39685,-0.073717,-0.097079,-0.025223,-0.47134,-0.01697,0.32942,0.09625,-0.21295,0.025989,0.14975,0.10802,0.19063,-0.054023,-0.21213,-0.047486,-1.0929
0.015086,0.072698,0.0093988,0.044604,-0.10906,-0.7181,-0.020004,-0.30324,-0.079578,-0.0060164,-0.019233,-0.37823,0.025354,0.42669,0.099664,0.030754,0.026581,0.22207,0.10844,0.25613,-0.073357,-0.3372,-0.039282,-1.0261
0.014441,0.05556,0.0018141,0.034638,-0.12004,-0.76552,-0.036721,-0.24732,-0.085854,0.0914,-0.014536,-0.28922,0.061857,0.49487,0.10677,0.25269,0.028223,0.2681,0.10234,0.31265,-0.085076,-0.40874,-0.030467,-0.96325
0.014275,0.035162,-0.005413,0.026893,-0.12247,-0.77373,-0.050262,-0.20839,-0.09581,0.18677,-0.014057,-0.2074,0.080872,0.52348,0.11959,0.40096,0.029153,0.27931,0.092673,0.34789,-0.088479,-0.42066,-0.021625,-0.89829
0.015122,0.020755,-0.0085428,0.02349,-0.11806,-0.73216,-0.053481,-0.16422,-0.11205,0.27216,-0.018571,-0.13232,0.079683,0.50509,0.13553,0.47729,0.028152,0.26041,0.082885,0.35639,-0.085164,-0.38427,-0.012124,-0.81149
0.015769,0.017185,-0.0072594,0.023897,-0.10863,-0.64133,-0.04244,-0.10424,-0.13461,0.34316,-0.026008,-0.058374,0.065165,0.43208,0.14877,0.52836,0.025178,0.22531,0.074799,0.34073,-0.07959,-0.3214,-0.0021371,-0.69672
0.014573,0.022215,-0.0042458,0.025705,-0.093716,-0.51838,-0.020176,-0.034331,-0.16045,0.40149,-0.032442,0.023116,0.048871,0.30115,0.15503,0.6066,0.021079,0.18941,0.067768,0.3089,-0.077404,-0.25472,0.0063326,-0.57213
0.011338,0.028948,-0.0025283,0.026347,-0.071291,-0.39275,0.0033787,0.029202,-0.18469,0.45232,-0.034227,0.11784,0.03972,0.12236,0.1552,0.73291,0.017078,0.16273,0.060059,0.27041,-0.082026,-0.19984,0.010364,-0.46538
0.0078767,0.031386,-0.0031829,0.024795,-0.040785,-0.29385,0.016247,0.071284,-0.20342,0.49634,-0.02996,0.22341,0.038779,-0.075787,0.15425,0.88882,0.014586,0.14778,0.051369,0.23335,-0.09209,-0.16199,0.0081091,-0.3893
0.0065678,0.028827,-0.0051658,0.022269,-0.0053304,-0.23786,0.011318,0.087574,-0.21625,0.52289,-0.021029,0.33101,0.039369,-0.25144,0.1566,1.0389,0.015122,0.14187,0.044034,0.20293,-0.10222,-0.13773,0.00017442,-0.33215
0.0081789,0.025777,-0.0068318,0.021405,0.028915,-0.22031,-0.0092456,0.086893,-0.22696,0.51203,-0.01036,0.43424,0.03241,-0.36374,0.16243,1.1596,0.019733,0.14104,0.041389,0.18041,-0.10697,-0.11997,-0.010648,-0.27125
0.01099,0.027638,-0.0073695,0.024219,0.055905,-0.21795,-0.035092,0.086496,-0.24095,0.44659,-0.00019293,0.53779,0.013363,-0.3892,0.16836,1.2484,0.027915,0.14207,0.044485,0.1625,-0.10482,-0.10277,-0.020912,-0.19621
0.012121,0.035756,-0.0069455,0.030161,0.072618,-0.19965,-0.053515,0.10335,-0.26112,0.32532,0.0094881,0.65705,-0.014034,-0.33187,0.17141,1.3107,0.036995,0.1422,0.05021,0.14255,-0.098819,-0.083863,-0.028025,-0.11942
0.0099581,0.045912,-0.0058756,0.035833,0.079557,-0.14252,-0.056163,0.14525,-0.28495,0.16601,0.020607,0.8064,-0.039806,-0.22178,0.17188,1.3407,0.042998,0.13846,0.052969,0.11428,-0.093485,-0.064247,-0.030807,-0.064479
0.0055895,0.051484,-0.0039841,0.036958,0.078934,-0.045865,-0.042575,0.20556,-0.30586,-0.0053682,0.034789,0.98419,-0.053869,-0.1019,0.17225,1.3192,0.04292,0.12881,0.048937,0.076315,-0.090746,-0.046422,-0.029199,-0.044301
0.0020293,0.04872,-0.0008117,0.031489,0.072677,0.065708,-0.018906,0.26449,-0.3182,-0.17136,0.05092,1.1667,-0.051689,-0.0092299,0.17303,1.2305,0.036919,0.11465,0.039361,0.034184,-0.08865,-0.032603,-0.023816,-0.049572
0.0019062,0.039855,0.0037341,0.021574,0.062091,0.15478,0.0066379,0.2984,-0.32219,-0.33217,0.064595,1.3171,-0.035672,0.040774,0.17027,1.0824,0.028639,0.10184,0.029934,-0.0023836,-0.083735,-0.023407,-0.015728,-0.057372
0.0055165,0.031563,0.0091117,0.012701,0.049088,0.19415,0.028561,0.29352,-0.32451,-0.49972,0.070301,1.4038,-0.0121,0.058293,0.15766,0.90821,0.023174,0.097951,0.026491,-0.025616,-0.074618,-0.01676,-0.0062274,-0.05086
0.010712,0.029965,0.01453,0.010267,0.03714,0.18557,0.046336,0.25621,-0.33342,-0.68173,0.065051,1.4163,0.013285,0.069527,0.13213,0.74856,0.023979,0.10674,0.030462,-0.035033,-0.063398,-0.0071814,0.0036949,-0.031792
0.014533,0.03609,0.019469,0.015876,0.030406,0.1593,0.063309,0.21152,-0.35197,-0.86856,0.050786,1.3689,0.037624,0.099635,0.097841,0.62817,0.030866,0.12405,0.037754,-0.038112,-0.053745,0.013628,0.013862,-0.015846
0.015193,0.045175,0.023727,0.026024,0.031323,0.15231,0.083313,0.18865,-0.37447,-1.033,0.033599,1.2915,0.060231,0.15916,0.064787,0.54727,0.040385,0.13887,0.041933,-0.045732,-0.047677,0.054199,0.024682,-0.016906
0.012938,0.050155,0.027004,0.0343,0.038667,0.17988,0.10723,0.20201,-0.38901,-1.1431,0.020251,1.2166,0.080546,0.24184,0.04266,0.49288,0.048153,0.13959,0.039046,-0.06551,-0.044043,0.11926,0.035996,-0.035181
0.0093818,0.046609,0.028658,0.035694,0.047938,0.22262,0.13172,0.24127,-0.38379,-1.1774,0.014525,1.1681,0.096993,0.33269,0.034733,0.45663,0.051472,0.12129,0.030291,-0.097458,-0.039884,0.20614,0.045906,-0.058412
0.0061032,0.035616,0.028134,0.030009,0.05406,0.24026,0.15097,0.27843,-0.35282,-1.1342,0.015955,1.156,0.10747,0.41789,0.036651,0.44091,0.050618,0.088881,0.02067,-0.13461,-0.033159,0.30381,0.050965,-0.072678
0.0036726,0.022761,0.025755,0.021937,0.054451,0.20233,0.16047,0.28718,-0.29751,-1.0287,0.021435,1.1755,0.11045,0.48805,0.040772,0.44863,0.048213,0.054079,0.015076,-0.1678,-0.02429,0.39591,0.048145,-0.071808
0.0017309,0.014306,0.023035,0.017675,0.050221,0.11161,0.1602,0.26015,-0.22478,-0.88254,0.027961,1.2103,0.10535,0.53445,0.042201,0.46828,0.047304,0.028496,0.015039,-0.19119,-0.015397,0.46725,0.037328,-0.05809
-0.00020383,0.01327,0.021957,0.020506,0.044841,0.0021579,0.15486,0.21151,-0.14418,-0.71515,0.034204,1.2399,0.09219,0.5451,0.0416,0.47205,0.049358,0.017479,0.018418,-0.20495,-0.0083142,0.51131,0.02222,-0.036318
-0.0020459,0.017842,0.023598,0.028485,0.041607,-0.085603,0.15109,0.16432,-0.06604,-0.54016,0.040021,1.2507,0.071238,0.50794,0.043028,0.43211,0.053365,0.018494,0.021742,-0.21362,-0.0033841,0.53438,0.0086119,-0.0085916
-0.003181,0.02274,0.027203,0.035805,0.041996,-0.13164,0.15353,0.13395,-2.013e-005,-0.36875,0.044968,1.2446,0.043522,0.42088,0.049363,0.34321,0.056587,0.024609,0.022968,-0.222,-1.9579e-005,0.55247,0.0010366,0.02561
-0.0031429,0.022352,0.030508,0.036749,0.045885,-0.14421,0.16279,0.12084,0.047044,-0.21403,0.047551,1.2378,0.011646,0.30035,0.059595,0.232,0.056541,0.030532,0.022501,-0.23164,0.00188,0.58113,0.00033306,0.066326
-0.0022628,0.013751,0.03113,0.029379,0.052825,-0.14539,0.1764,0.11641,0.073692,-0.091175,0.046005,1.2474,-0.020115,0.17893,0.070043,0.14402,0.052937,0.037282,0.022106,-0.24031,0.0014089,0.62366,0.0039669,0.11225
-0.0016502,-0.0018633,0.028018,0.016539,0.06277,-0.14969,0.19148,0.11448,0.084515,-0.011812,0.039821,1.2732,-0.047045,0.090511,0.077794,0.1171,0.048148,0.052528,0.02302,-0.24444,-0.0021494,0.66624,0.0087639,0.16381
-0.0024421,-0.019745,0.021979,0.0038611,0.075459,-0.15456,0.20671,0.11715,0.087299,0.022864,0.030541,1.2884,-0.065906,0.051513,0.082834,0.16081,0.045647,0.086074,0.024937,-0.24212,-0.0074559,0.68478,0.013767,0.22608
-0.0049064,-0.03376,0.015098,-0.0035826,0.089224,-0.14845,0.22196,0.1308,0.087942,0.023373,0.021049,1.2494,-0.076204,0.051047,0.087038,0.25606,0.047391,0.14287,0.026505,-0.23449,-0.010612,0.66018,0.020922,0.30614
-0.0081468,-0.039197,0.0096361,-0.0038194,0.10074,-0.12595,0.2366,0.15748,0.086966,0.0044764,0.013862,1.12,-0.079905,0.057471,0.091498,0.37252,0.052102,0.21767,0.02661,-0.22492,-0.0071044,0.59167,0.033169,0.40461
-0.010674,-0.035033,0.0070961,0.0015062,0.10636,-0.094641,0.24832,0.19105,0.080645,-0.026079,0.009733,0.8941,-0.079901,0.037695,0.095248,0.48824,0.055895,0.29492,0.025222,-0.21706,0.0049337,0.49917,0.051672,0.50803
-0.011377,-0.024516,0.0077595,0.0084695,0.10423,-0.068298,0.25376,0.22141,0.065899,-0.072517,0.0075162,0.6001,-0.078407,-0.023228,0.096799,0.59625,0.054959,0.35488,0.023173,-0.21321,0.022803,0.41326,0.074469,0.59036
-0.010112,-0.013512,0.010618,0.013093,0.095447,-0.054549,0.25057,0.24254,0.044738,-0.14345,0.0052614,0.28396,-0.076337,-0.11478,0.096775,0.69511,0.048301,0.38316,0.021235,-0.2135,0.040573,0.36031,0.097519,0.62567
-0.0075007,-0.007295,0.013669,0.013391,0.083309,-0.049271,0.2389,0.2564,0.024342,-0.23654,0.0016174,-0.015702,-0.073803,-0.20998,0.098507,0.77433,0.038447,0.37853,0.019378,-0.21533,0.053023,0.35206,0.11709,0.60431
-0.0042825,-0.0075852,0.014706,0.010337,0.071296,-0.04209,0.22116,0.26951,0.012749,-0.32895,-0.0034398,-0.28133,-0.071045,-0.28367,0.10531,0.80955,0.029577,0.35373,0.016664,-0.21334,0.059273,0.38392,0.13152,0.54056
-0.00091266,-0.011795,0.012524,0.0072215,0.061119,-0.026411,0.20029,0.2862,0.013936,-0.3846,-0.0089194,-0.51061,-0.068873,-0.32745,0.11663,0.77433,0.024564,0.32782,0.011595,-0.20081,0.063273,0.43987,0.14118,0.46477
0.002251,-0.015174,0.0079138,0.0075161,0.052087,-0.0039633,0.17801,0.30514,0.026285,-0.37582,-0.013732,-0.70011,-0.068211,-0.35143,0.1268,0.6611,0.023142,0.31355,0.0024743,-0.17328,0.070777,0.49902,0.14709,0.40462
0.0045467,-0.014501,0.0035334,0.012369,0.041949,0.019729,0.15429,0.32231,0.045069,-0.30371,-0.017378,-0.83674,-0.06907,-0.37299,0.12822,0.49536,0.022428,0.30768,-0.012264,-0.13296,0.085126,0.54135,0.14946,0.36891
0.0050479,-0.010715,0.0023011,0.019436,0.028567,0.04354,0.12844,0.33684,0.065983,-0.20101,-0.019844,-0.90699,-0.06981,-0.40182,0.11685,0.33034,0.01919,0.29135,-0.033443,-0.090655,0.10493,0.55263,0.14745,0.34616
0.0032252,-0.0084856,0.0051926,0.024115,0.011577,0.074243,0.10039,0.35388,0.086404,-0.11417,-0.020855,-0.91588,-0.067563,-0.43257,0.095228,0.22218,0.012127,0.24159,-0.060178,-0.062585,0.12507,0.52902,0.1399,0.31844
-0.00034268,-0.012898,0.010137,0.022524,-0.0066881,0.12204,0.071211,0.38162,0.10398,-0.07755,-0.019259,-0.89585,-0.060102,-0.45042,0.070499,0.19967,0.0026635,0.14692,-0.089209,-0.062764,0.13996,0.4794,0.12638,0.27888
-0.0040063,-0.025558,0.013171,0.014119,-0.021625,0.19217,0.042277,0.42493,0.11517,-0.097972,-0.013309,-0.89292,-0.048322,-0.44472,0.048667,0.24738,-0.0059925,0.0156,-0.11542,-0.095663,0.14676,0.42258,0.10791,0.23803
-0.0060305,-0.042946,0.011309,0.0020038,-0.028332,0.2796,0.014112,0.48121,0.11628,-0.15837,-0.0018695,-0.93774,-0.037511,-0.41956,0.030153,0.31299,-0.010725,-0.13011,-0.1338,-0.15424,0.14654,0.37921,0.087114,0.21381
-0.0058425,-0.058235,0.0050175,-0.0091823,-0.02444,0.37092,-0.013925,0.54152,0.10656,-0.23428,0.0143,-1.0244,-0.03569,-0.39227,0.010412,0.33479,-0.01015,-0.26992,-0.14175,-0.22473,0.14331,0.36206,0.067742,0.21389
-0.0045315,-0.065335,-0.0017632,-0.016043,-0.012115,0.45191,-0.042505,0.59639,0.090113,-0.30887,0.032335,-1.1154,-0.048879,-0.38058,-0.015043,0.27292,-0.005203,-0.39886,-0.14037,-0.29452,0.14169,0.37079,0.053728,0.2257
-0.0041229,-0.06239,-0.004339,-0.017814,0.0025665,0.51577,-0.070572,0.64184,0.074089,-0.37679,0.04849,-1.1691,-0.075731,-0.38797,-0.045971,0.12689,0.0015031,-0.52652,-0.13365,-0.35724,0.14471,0.3945,0.04772,0.22329
-0.0061032,-0.052443,-0.00079377,-0.015737,0.013147,0.56726,-0.094543,0.68185,0.063888,-0.4382,0.060007,-1.1682,-0.10547,-0.39945,-0.077507,-0.068735,0.0071022,-0.66208,-0.12635,-0.41172,0.1528,0.42032,0.049754,0.18546
-0.010245,-0.041025,0.0063988,-0.011485,0.017158,0.62007,-0.10951,0.72593,0.059329,-0.49167,0.066253,-1.1259,-0.1219,-0.39182,-0.10484,-0.26449,0.0098591,-0.79756,-0.12153,-0.45691,0.16436,0.44183,0.05701,0.11076
-0.014584,-0.032509,0.012054,-0.0061685,0.018002,0.68872,-0.11188,0.78325,0.055066,-0.53285,0.068379,-1.0685,-0.11222,-0.35135,-0.1277,-0.41842,0.0097153,-0.9044,-0.11922,-0.4876,0.17737,0.46164,0.065277,0.017858
-0.016609,-0.027717,0.01207,-0.00044691,0.022365,0.7792,-0.10162,0.85687,0.044967,-0.55837,0.068008,-1.0124,-0.075478,-0.28502,-0.14976,-0.50839,0.0077616,-0.94801,-0.11619,-0.4949,0.19079,0.48707,0.071619,-0.067349
-0.01491,-0.024228,0.0064516,0.0049186,0.034576,0.88413,-0.082259,0.94139,0.026678,-0.56973,0.06621,-0.95681,-0.024556,-0.21605,-0.17323,-0.53079,0.0051593,-0.91009,-0.10719,-0.47123,0.20473,0.52309,0.076594,-0.12634
-0.010203,-0.018884,-0.00077733,0.0089926,0.052175,0.98626,-0.05874,1.0256,0.0026274,-0.57291,0.063524,-0.8953,0.020732,-0.16647,-0.19387,-0.49191,0.0023835,-0.80168,-0.087355,-0.41602,0.21928,0.56862,0.08432,-0.15322
-0.0050129,-0.010601,-0.0046956,0.011204,0.066537,1.0688,-0.034643,1.0987,-0.022964,-0.57432,0.060663,-0.83247,0.045339,-0.14001,-0.20202,-0.40105,-0.00073362,-0.65737,-0.055393,-0.33804,0.23311,0.61846,0.099931,-0.14926
-0.0021442,-0.0014609,-0.003179,0.011833,0.06872,1.1253,-0.011072,1.1561,-0.047992,-0.57758,0.058837,-0.7866,0.047651,-0.11871,-0.19002,-0.27087,-0.0044547,-0.51584,-0.016055,-0.25276,0.24324,0.66815,0.12583,-0.11467
-0.0029314,0.0046679,0.0017244,0.011826,0.056367,1.1618,0.012272,1.2011,-0.073784,-0.58393,0.05909,-0.77526,0.038902,-0.075995,-0.15972,-0.12213,-0.0087785,-0.40136,0.020247,-0.17591,0.2463,0.71629,0.15913,-0.046238
-0.0064826,0.0049979,0.0057223,0.012043,0.036295,1.1897,0.035206,1.2395,-0.10309,-0.5954,0.061129,-0.79733,0.033873,0.0039779,-0.12329,0.014959,-0.013593,-0.31738,0.041822,-0.1163,0.24031,0.76247,0.19214,0.05767
-0.010473,9.4332e-005,0.005809,0.012643,0.020519,1.2147,0.056376,1.2742,-0.13719,-0.61707,0.062809,-0.8289,0.039907,0.11507,-0.095855,0.10824,-0.01898,-0.25209,0.042434,-0.070891,0.22567,0.80401,0.21581,0.19092
-0.012876,-0.0061975,0.0024566,0.013129,0.018605,1.2316,0.074406,1.3005,-0.1749,-0.65538,0.060975,-0.83706,0.052466,0.23314,-0.085832,0.13689,-0.025103,-0.18731,0.026155,-0.024816,0.20489,0.83704,0.22414,0.33891
-0.013259,-0.0092334,-0.0012295,0.012935,0.03213,1.2299,0.08955,1.3097,-0.21402,-0.7134,0.053334,-0.79988,0.060135,0.32962,-0.090945,0.1002,-0.031637,-0.10426,0.0062435,0.042187,0.18195,0.86202,0.21693,0.48395
-0.012638,-0.0066695,-0.0024426,0.011913,0.05528,1.2043,0.10388,1.2958,-0.25261,-0.78661,0.040121,-0.71673,0.054506,0.38281,-0.10265,0.012524,-0.037371,0.012572,-0.0023914,0.14413,0.16174,0.88755,0.19917,0.61127
-0.012143,0.00015956,-0.0010019,0.010285,0.080507,1.1618,0.11949,1.2602,-0.2883,-0.86232,0.024506,-0.60309,0.036919,0.37937,-0.11426,-0.1143,-0.04062,0.16876,0.0073447,0.27677,0.14911,0.92446,0.17753,0.71025
-0.011818,0.0075975,0.00092421,0.0082162,0.10423,1.1186,0.13614,1.2109,-0.31586,-0.92321,0.011464,-0.47736,0.017132,0.30952,-0.12509,-0.28803,-0.040328,0.35066,0.030038,0.41286,0.14675,0.97153,0.15652,0.77169
-0.010717,0.01258,0.0012495,0.0055345,0.12794,1.0896,0.1507,1.156,-0.32667,-0.95271,0.0058179,-0.35124,0.0057775,0.16546,-0.13722,-0.53633,-0.036921,0.52239,0.051735,0.51048,0.15253,1.0048,0.13688,0.78698
-0.0081746,0.014735,0.00016606,0.0019588,0.15451,1.0778,0.15891,1.0971,-0.31226,-0.93975,0.010486,-0.22875,0.0070431,-0.051533,-0.1488,-0.88509,-0.032081,0.63782,0.060218,0.53311,0.15834,0.98445,0.11729,0.75311
-0.0049005,0.016135,4.9648e-005,-0.0023758,0.18365,1.0718,0.15843,1.0282,-0.27064,-0.88205,0.025624,-0.10968,0.016941,-0.31974,-0.15134,-1.3272,-0.027524,0.66604,0.054297,0.47147,0.15299,0.88013,0.097756,0.68025
-0.0026462,0.019222,0.0032359,-0.0067025,0.21108,1.0521,0.1507,0.94055,-0.21033,-0.78792,0.048801,0.0080779,0.027486,-0.59313,-0.13457,-1.8055,-0.023842,0.61401,0.045235,0.35304,0.12805,0.69773,0.081534,0.59253
-0.0025921,0.024811,0.0098024,-0.0101,0.23193,1.0022,0.14028,0.83054,-0.14768,-0.67589,0.07589,0.1287,0.032732,-0.81269,-0.095176,-2.2268,-0.020426,0.52755,0.049278,0.231,0.082907,0.48416,0.073393,0.51671
-0.0039961,0.03164,0.017391,-0.012358,0.24481,0.91596,0.1322,0.70422,-0.098133,-0.56989,0.10227,0.25681,0.032224,-0.92999,-0.041837,-2.505,-0.016457,0.46534,0.076851,0.15733,0.024839,0.30185,0.075374,0.46416
-0.0045635,0.037361,0.023128,-0.014394,0.25237,0.80056,0.12919,0.57637,-0.067432,-0.48949,0.12397,0.39196,0.030464,-0.92988,0.0083704,-2.6064,-0.01197,0.4619,0.12622,0.15612,-0.036439,0.18964,0.083625,0.42022
-0.0024194,0.039827,0.025798,-0.017665,0.25764,0.67364,0.13037,0.4655,-0.049498,-0.43943,0.13847,0.52287,0.033965,-0.8385,0.039743,-2.5685,-0.0079311,0.50665,0.18544,0.21409,-0.095352,0.14042,0.089603,0.35199
0.002053,0.037812,0.02633,-0.022881,0.2601,0.55972,0.13228,0.38893,-0.032713,-0.4061,0.14483,0.62822,0.048277,-0.71152,0.046475,-2.4772,-0.0052928,0.55586,0.23993,0.29387,-0.15279,0.11355,0.085438,0.23162
0.0062775,0.031269,0.02634,-0.029118,0.25551,0.48608,0.1312,0.36035,-0.0096415,-0.36638,0.14322,0.6864,0.076079,-0.60875,0.033813,-2.4144,-0.0039797,0.569,0.27918,0.35992,-0.21236,0.071645,0.069542,0.05892
0.0075367,0.021573,0.026287,-0.034169,0.24032,0.47698,0.12543,0.38911,0.017467,-0.3056,0.13403,0.68818,0.11627,-0.56901,0.012058,-2.4105,-0.0028288,0.54161,0.29854,0.39869,-0.27395,0.011236,0.047867,-0.13396
0.005247,0.011553,0.025031,-0.035926,0.2162,0.54534,0.11599,0.47815,0.039343,-0.23272,0.11712,0.64219,0.164,-0.59735,-0.01077,-2.4324,-0.00057105,0.50863,0.29682,0.42029,-0.33048,-0.037019,0.02958,-0.30009
0.0014466,0.0046849,0.021156,-0.033647,0.1902,0.68416,0.1054,0.61955,0.047649,-0.18069,0.091477,0.56838,0.21207,-0.66953,-0.031663,-2.4128,0.0030754,0.51621,0.2741,0.44395,-0.37086,-0.035901,0.020358,-0.40538
-0.00090252,0.0033183,0.014745,-0.028125,0.16959,0.86379,0.095428,0.79083,0.04128,-0.18936,0.055763,0.48462,0.25391,-0.74943,-0.049797,-2.3004,0.0072305,0.58489,0.23241,0.48091,-0.38694,0.028658,0.018445,-0.4467
-0.00025228,0.0070518,0.0079078,-0.020846,0.15599,1.0399,0.08566,0.95765,0.026235,-0.28163,0.0094639,0.39723,0.28673,-0.80958,-0.062505,-2.0942,0.010743,0.69365,0.1778,0.52844,-0.37924,0.14016,0.016227,-0.44907
0.002571,0.012761,0.0034757,-0.013114,0.14423,1.1708,0.074106,1.0847,0.010192,-0.44869,-0.045531,0.30262,0.31302,-0.84491,-0.065168,-1.8414,0.013293,0.79597,0.11995,0.57693,-0.35715,0.26825,0.0057288,-0.44594
0.0054359,0.016627,0.0029293,-0.0059047,0.12737,1.234,0.059528,1.1505,-0.0027798,-0.65395,-0.10376,0.19677,0.33918,-0.87453,-0.055787,-1.6045,0.015693,0.85315,0.068093,0.62081,-0.33384,0.38991,-0.016312,-0.45772
0.0068304,0.016709,0.0052342,-0.00019574,0.10323,1.2333,0.043547,1.1559,-0.013017,-0.85136,-0.15646,0.082966,0.3721,-0.93183,-0.039946,-1.4232,0.019134,0.85697,0.0261,0.66216,-0.31997,0.49465,-0.047198,-0.48306
0.0068753,0.013936,0.0075156,0.003086,0.076487,1.1906,0.030585,1.1208,-0.02196,-1.0042,-0.19401,-0.029298,0.416,-1.0482,-0.030736,-1.2989,0.024113,0.82559,-0.0082628,0.70451,-0.3202,0.57289,-0.080829,-0.50622
0.0067213,0.010764,0.0070331,0.0038506,0.054203,1.1305,0.025298,1.0704,-0.028832,-1.0928,-0.20976,-0.13176,0.47104,-1.2367,-0.042346,-1.2063,0.029973,0.78014,-0.038746,0.74439,-0.33402,0.60458,-0.11137,-0.5127
0.0071636,0.0087831,0.0029714,0.0035679,0.039321,1.0684,0.029248,1.0217,-0.030551,-1.1089,-0.20324,-0.22201,0.53341,-1.482,-0.081561,-1.1197,0.035353,0.72536,-0.064601,0.77044,-0.35882,0.56521,-0.13529,-0.50092
0.007869,0.0075063,-0.0032115,0.0047541,0.028505,1.0097,0.039384,0.97904,-0.024325,-1.0472,-0.18023,-0.29892,0.59584,-1.7403,-0.14334,-1.0324,0.039032,0.65157,-0.079041,0.77206,-0.39188,0.4467,-0.15126,-0.48294
0.0078169,0.0053924,-0.0090184,0.009076,0.016463,0.95747,0.049661,0.94057,-0.0097186,-0.90281,-0.14922,-0.35277,0.6484,-1.9507,-0.21334,-0.9563,0.040436,0.55394,-0.074139,0.74987,-0.42986,0.27385,-0.15913,-0.47621
0.0063397,0.0020149,-0.012703,0.01552,0.0022812,0.91781,0.054887,0.90772,0.011858,-0.67919,-0.1168,-0.36202,0.68066,-2.0539,-0.27479,-0.9059,0.03957,0.44869,-0.048009,0.71802,-0.46677,0.098245,-0.15974,-0.49373
0.0037057,-0.00080731,-0.014236,0.020538,-0.009024,0.89914,0.05415,0.88886,0.039009,-0.39808,-0.085458,-0.30532,0.68597,-2.0129,-0.3144,-0.87824,0.036801,0.36857,-0.0077667,0.69549,-0.49346,-0.028332,-0.15527,-0.53962
0.00079895,-0.00017847,-0.014762,0.020635,-0.011782,0.90531,0.051377,0.89403,0.070772,-0.10183,-0.055601,-0.18372,0.66599,-1.826,-0.3244,-0.84374,0.032897,0.33938,0.034437,0.69322,-0.50032,-0.080759,-0.14917,-0.61074
-0.0016365,0.005292,-0.015118,0.015553,-0.0067149,0.93107,0.052473,0.92578,0.10482,0.15741,-0.029505,-0.035552,0.63151,-1.5257,-0.30192,-0.75486,0.029202,0.35728,0.068694,0.70753,-0.4823,-0.067962,-0.14476,-0.70104
-0.0034114,0.013807,-0.014798,0.0092628,-0.0023251,0.96408,0.060849,0.97456,0.13576,0.33687,-0.012883,0.072793,0.59729,-1.1647,-0.24899,-0.57073,0.027338,0.38722,0.091648,0.72452,-0.44305,-0.019304,-0.14328,-0.8041
-0.0046703,0.021283,-0.012401,0.0074948,-0.0084243,0.99151,0.074344,1.0222,0.15656,0.41919,-0.011716,0.079917,0.5733,-0.79345,-0.17425,-0.2855,0.028201,0.38516,0.10492,0.7308,-0.39476,0.033884,-0.14303,-0.91319
-0.0054078,0.024298,-0.0072311,0.013477,-0.027533,1.0052,0.085799,1.0509,0.16294,0.41608,-0.026589,-0.03384,0.55855,-0.4443,-0.093534,0.057669,0.030903,0.32687,0.11051,0.72135,-0.35298,0.065448,-0.14078,-1.0207
-0.0052902,0.022636,-0.0005755,0.025301,-0.052523,1.0023,0.087115,1.0518,0.15725,0.3584,-0.049772,-0.23216,0.54288,-0.12888,-0.026047,0.38021,0.032894,0.22122,0.10857,0.69933,-0.32905,0.050046,-0.13425,-1.1184
-0.0039634,0.01919,0.0046744,0.03718,-0.073253,0.98282,0.07423,1.0275,0.14796,0.28055,-0.068405,-0.44196,0.51566,0.14947,0.013652,0.6061,0.031699,0.099274,0.099577,0.66991,-0.32426,-0.038578,-0.12373,-1.199
-0.0015361,0.017237,0.0059497,0.043697,-0.086213,0.94935,0.049666,0.99007,0.14454,0.20876,-0.071967,-0.59236,0.47461,0.37927,0.022909,0.70237,0.027223,-0.0097175,0.087866,0.63507,-0.32901,-0.21534,-0.11132,-1.2566
0.0012173,0.017476,0.0029022,0.04359,-0.097899,0.90823,0.020871,0.95522,0.15165,0.15794,-0.058371,-0.64584,0.42725,0.53476,0.011773,0.69474,0.022565,-0.095445,0.081632,0.59372,-0.32743,-0.46359,-0.098875,-1.2866
0.0031335,0.017519,-0.0023583,0.040077,-0.11826,0.87026,-0.0045042,0.9366,0.16707,0.13464,-0.034076,-0.60341,0.38384,0.58719,-0.0039642,0.64628,0.022233,-0.16521,0.087939,0.54592,-0.30469,-0.72642,-0.086648,-1.2859
0.0032488,0.014377,-0.006862,0.037686,-0.14997,0.8468,-0.023116,0.94134,0.18447,0.14043,-0.0086052,-0.48807,0.34769,0.52679,-0.012728,0.61405,0.028845,-0.22912,0.10683,0.4963,-0.25346,-0.92424,-0.074158,-1.2558
0.0013434,0.0077335,-0.008782,0.038464,-0.18346,0.84283,-0.037221,0.96749,0.19826,0.17277,0.011815,-0.32621,0.31156,0.37802,-0.013001,0.61603,0.041003,-0.28718,0.13025,0.45281,-0.17674,-0.99218,-0.062405,-1.2052
-0.0018747,0.0010383,-0.0081875,0.040765,-0.20272,0.85229,-0.05214,1.0043,0.20656,0.22479,0.026786,-0.14196,0.26315,0.19366,-0.01143,0.63188,0.054307,-0.3292,0.14754,0.42192,-0.086335,-0.91335,-0.055014,-1.1506
-0.005073,-0.00075726,-0.0061983,0.041381,-0.19713,0.86045,-0.071972,1.036,0.21076,0.28712,0.039492,0.038269,0.19523,0.02907,-0.015747,0.63438,0.064807,-0.34569,0.15318,0.40419,0.001872,-0.72553,-0.056703,-1.1105
-0.0069614,0.0049397,-0.003674,0.038849,-0.16924,0.85232,-0.096626,1.0474,0.21314,0.3519,0.052676,0.18477,0.11185,-0.086243,-0.028705,0.62399,0.071981,-0.33803,0.15007,0.39403,0.07352,-0.49713,-0.069903,-1.0933
-0.006972,0.01605,-0.00076583,0.034945,-0.13205,0.82119,-0.12195,1.0299,0.21499,0.41573,0.066438,0.27463,0.025163,-0.15964,-0.047531,0.6389,0.078646,-0.31825,0.14557,0.38402,0.12049,-0.28953,-0.092178,-1.088
-0.0055275,0.026988,0.0024979,0.033158,-0.098747,0.77102,-0.14241,0.9844,0.21623,0.47864,0.079004,0.30466,-0.054726,-0.22197,-0.068307,0.7344,0.087896,-0.29942,0.14393,0.37049,0.14347,-0.12889,-0.11661,-1.062
-0.0036766,0.032469,0.0055829,0.035612,-0.073819,0.71148,-0.15417,0.91868,0.216,0.53998,0.088741,0.29232,-0.12903,-0.30127,-0.090718,0.9497,0.09984,-0.28639,0.14212,0.35607,0.15189,-0.0014757,-0.13489,-0.97041
-0.0022998,0.031076,0.0076863,0.041115,-0.052556,0.64983,-0.1566,0.84183,0.21314,0.59628,0.095182,0.26089,-0.21159,-0.40343,-0.11892,1.2867,0.11103,-0.27616,0.13268,0.34669,0.16077,0.12867,-0.14074,-0.77526
-0.0014463,0.025929,0.0086118,0.045867,-0.027978,0.58577,-0.15167,0.75842,0.20653,0.64471,0.098487,0.22162,-0.32121,-0.512,-0.15794,1.7112,0.11698,-0.2676,0.11067,0.3445,0.18494,0.29146,-0.13159,-0.46371
-0.00034269,0.022027,0.0092076,0.04615,0.0018896,0.51222,-0.14222,0.66642,0.19544,0.69024,0.098581,0.17034,-0.47072,-0.60324,-0.20895,2.1693,0.11553,-0.27108,0.077779,0.34148,0.23205,0.48649,-0.10798,-0.057454
0.0018683,0.022329,0.010731,0.040838,0.032601,0.42067,-0.13065,0.56043,0.18015,0.74938,0.095236,0.10161,-0.6598,-0.66147,-0.26693,2.6023,0.10803,-0.30755,0.039627,0.31929,0.29755,0.6749,-0.072521,0.39339
0.0052107,0.025597,0.01372,0.031989,0.057648,0.30699,-0.11877,0.43804,0.16203,0.84445,0.088919,0.025199,-0.87536,-0.68206,-0.32226,2.9569,0.097798,-0.39531,-0.00087862,0.25741,0.36514,0.79348,-0.029654,0.82968
0.0085723,0.027672,0.017575,0.023336,0.073316,0.17397,-0.1086,0.30476,0.14304,0.98958,0.081101,-0.033958,-1.0973,-0.6609,-0.36398,3.1934,0.08734,-0.53372,-0.047351,0.14584,0.41375,0.78724,0.013993,1.2065
0.010399,0.025241,0.021295,0.017966,0.079346,0.02991,-0.10295,0.17364,0.12487,1.1776,0.073288,-0.054748,-1.3048,-0.58062,-0.38231,3.2978,0.076991,-0.69737,-0.10643,-0.0058097,0.42801,0.64431,0.050381,1.5079
0.0099475,0.019105,0.024557,0.016793,0.075813,-0.11502,-0.10511,0.059035,0.10853,1.3783,0.06559,-0.040414,-1.4791,-0.40718,-0.36979,3.2907,0.065732,-0.84697,-0.17963,-0.16999,0.40609,0.4113,0.072949,1.7444
0.0080731,0.01414,0.027894,0.018562,0.060741,-0.25216,-0.11756,-0.031393,0.09472,1.55,0.05641,-0.020136,-1.6039,-0.10281,-0.32279,3.2205,0.052997,-0.95074,-0.258,-0.31418,0.35955,0.1749,0.080227,1.9361
0.0067824,0.015637,0.031691,0.021006,0.031895,-0.37604,-0.14054,-0.10112,0.084174,1.6596,0.043887,-0.028515,-1.6651,0.35034,-0.24456,3.1368,0.039593,-1.0014,-0.32519,-0.4177,0.30522,0.016931,0.077103,2.0922
0.007729,0.02473,0.035109,0.022195,-0.0086739,-0.48463,-0.17141,-0.16241,0.077518,1.6964,0.027881,-0.08078,-1.6521,0.93184,-0.14805,3.0593,0.027046,-1.0167,-0.36739,-0.48108,0.25463,-0.030323,0.071869,2.2031
0.010797,0.036723,0.036316,0.021338,-0.052332,-0.57879,-0.2052,-0.22865,0.074667,1.6741,0.010595,-0.16544,-1.56,1.5844,-0.054227,2.9677,0.016374,-1.0233,-0.38218,-0.52179,0.20825,0.0012249,0.070526,2.2496
0.013967,0.044078,0.034147,0.018905,-0.087302,-0.66132,-0.23613,-0.30646,0.074669,1.6203,-0.0049027,-0.25942,-1.3914,2.2374,0.01587,2.8235,0.0076355,-1.037,-0.37926,-0.55935,0.15851,0.04108,0.072587,2.2247
0.014695,0.042032,0.029735,0.0163,-0.10604,-0.73506,-0.25937,-0.39247,0.076372,1.5615,-0.016956,-0.35024,-1.1554,2.8378,0.052131,2.6102,0.00055665,-1.0535,-0.3725,-0.60098,0.09845,0.028647,0.071888,2.1486
0.011797,0.032362,0.026332,0.015308,-0.11071,-0.80046,-0.27252,-0.47624,0.0793,1.5112,-0.026235,-0.4448,-0.86683,3.3664,0.061611,2.3577,-0.0047371,-1.0556,-0.36993,-0.6384,0.029373,-0.048145,0.062069,2.0643
0.0063958,0.022103,0.027017,0.017353,-0.11195,-0.85413,-0.2761,-0.54719,0.083709,1.4667,-0.034342,-0.55886,-0.54499,3.8279,0.064514,2.1298,-0.0078921,-1.0311,-0.37004,-0.65812,-0.038316,-0.14845,0.042445,2.0154
0.0012282,0.018145,0.03199,0.022733,-0.12156,-0.89044,-0.2729,-0.60072,0.089628,1.414,-0.041379,-0.69983,-0.21296,4.2238,0.081795,1.9831,-0.0092774,-0.98563,-0.36651,-0.65709,-0.091002,-0.20811,0.019512,2.0216
-0.0011821,0.022153,0.037833,0.030212,-0.14462,-0.90581,-0.26619,-0.64016,0.095943,1.3367,-0.044865,-0.85965,0.10533,4.5333,0.12301,1.928,-0.010542,-0.94095,-0.35667,-0.65094,-0.11967,-0.18102,0.0027521,2.0703
-0.00017166,0.029877,0.039625,0.037371,-0.1768,-0.9027,-0.25765,-0.67348,0.10086,1.2274,-0.041295,-1.0224,0.38962,4.7201,0.18298,1.923,-0.013881,-0.921,-0.34598,-0.66733,-0.12404,-0.065435,-0.0020451,2.1298
0.0026647,0.035043,0.034438,0.041674,-0.20844,-0.88957,-0.24608,-0.70728,0.10382,1.0929,-0.029294,-1.1759,0.62741,4.7601,0.24855,1.9037,-0.020483,-0.93604,-0.3446,-0.72831,-0.11099,0.097788,0.0031219,2.1727
0.0045285,0.034127,0.023452,0.041708,-0.2314,-0.87593,-0.22807,-0.74228,0.10731,0.95372,-0.011756,-1.3133,0.81445,4.6643,0.3087,1.8226,-0.029587,-0.97645,-0.35954,-0.83427,-0.089655,0.24882,0.0098818,2.1911
0.0032542,0.028029,0.011045,0.037899,-0.24327,-0.86655,-0.20046,-0.77387,0.11661,0.83361,0.004932,-1.4251,0.95093,4.4765,0.35955,1.6714,-0.039119,-1.0197,-0.38919,-0.96221,-0.067354,0.33624,0.0090962,2.1928
-0.0011722,0.019966,0.0016728,0.032317,-0.24649,-0.8604,-0.16318,-0.79769,0.13697,0.7472,0.014169,-1.4915,1.0368,4.2451,0.40138,1.4742,-0.047327,-1.0442,-0.42466,-1.0803,-0.048478,0.33246,-0.0034684,2.1846
-0.00639,0.012355,-0.0029162,0.027677,-0.24421,-0.85607,-0.12037,-0.81653,0.16974,0.69139,0.012551,-1.4894,1.071,3.9939,0.4325,1.2641,-0.053904,-1.0408,-0.45612,-1.1684,-0.035753,0.23346,-0.025037,2.158
-0.0090629,0.0058277,-0.004097,0.025971,-0.23729,-0.85868,-0.078789,-0.84264,0.21029,0.64753,0.001015,-1.4111,1.0551,3.716,0.44701,1.0631,-0.059686,-1.0153,-0.47879,-1.2292,-0.03155,0.050456,-0.048031,2.09
-0.0072024,0.00066716,-0.0045216,0.02736,-0.22484,-0.88049,-0.044514,-0.89191,0.24917,0.59315,-0.016782,-1.2796,0.99899,3.3944,0.43893,0.87646,-0.065516,-0.982,-0.49378,-1.281,-0.037841,-0.19564,-0.064591,1.9582
-0.001853,-0.0016738,-0.0058974,0.030011,-0.20694,-0.93205,-0.019918,-0.97288,0.27619,0.5152,-0.037268,-1.143,0.92157,3.0279,0.4085,0.69882,-0.071597,-0.95301,-0.50415,-1.3388,-0.055111,-0.47277,-0.070579,1.758
0.0033249,0.00081034,-0.0082117,0.031228,-0.18627,-1.0101,-0.0030901,-1.0779,0.28464,0.41518,-0.058717,-1.0497,0.84439,2.6384,0.36397,0.52185,-0.077848,-0.92996,-0.51009,-1.3977,-0.081489,-0.73489,-0.067179,1.5099
0.0046271,0.0084044,-0.010599,0.029435,-0.16689,-1.0931,0.010122,-1.1841,0.27346,0.30246,-0.080873,-1.0203,0.78249,2.2541,0.31708,0.33787,-0.08441,-0.90122,-0.50746,-1.4354,-0.11277,-0.92765,-0.059708,1.2508
0.0012304,0.018306,-0.012572,0.025655,-0.15107,-1.1515,0.022986,-1.2648,0.2462,0.18187,-0.10316,-1.0365,0.73887,1.8864,0.27606,0.14203,-0.091251,-0.84663,-0.49057,-1.4295,-0.14319,-1.0071,-0.054375,1.0161
-0.0039828,0.025976,-0.01435,0.023038,-0.13768,-1.1663,0.035874,-1.3043,0.20827,0.046875,-0.12315,-1.0563,0.707,1.5253,0.24258,-0.063624,-0.097097,-0.74758,-0.4567,-1.3785,-0.16663,-0.96306,-0.054539,0.82219
-0.0066457,0.028197,-0.016223,0.024321,-0.12349,-1.1413,0.04658,-1.3053,0.1648,-0.11428,-0.13662,-1.0408,0.67893,1.1568,0.21445,-0.2659,-0.099258,-0.59778,-0.40891,-1.3075,-0.17818,-0.83197,-0.058466,0.65903
-0.0045052,0.024996,-0.017962,0.028942,-0.10652,-1.0998,0.052396,-1.2849,0.12044,-0.30294,-0.13911,-0.97473,0.65219,0.78491,0.19053,-0.44277,-0.095442,-0.40902,-0.35509,-1.2539,-0.17625,-0.6849,-0.060235,0.49742
0.00065703,0.018603,-0.019048,0.032351,-0.088308,-1.0663,0.052155,-1.261,0.080406,-0.49798,-0.12798,-0.86695,0.63014,0.43652,0.17227,-0.57601,-0.086516,-0.20841,-0.30445,-1.2432,-0.16429,-0.59436,-0.053726,0.3071
0.0045047,0.010592,-0.019431,0.028649,-0.073057,-1.0496,0.0468,-1.242,0.050738,-0.65966,-0.10379,-0.73697,0.61622,0.14064,0.16072,-0.6677,-0.077501,-0.027804,-0.26354,-1.271,-0.15046,-0.59756,-0.037279,0.077126
0.0037716,0.0001484,-0.019859,0.01501,-0.064488,-1.0388,0.038471,-1.2239,0.036377,-0.75003,-0.07006,-0.60031,0.60799,-0.098135,0.15289,-0.74664,-0.075019,0.1089,-0.23419,-1.3062,-0.14413,-0.67946,-0.015544,-0.17348
-0.0011295,-0.014636,-0.021244,-0.0054586,-0.063094,-1.0153,0.029397,-1.1977,0.038013,-0.75658,-0.03179,-0.46451,0.59627,-0.30752,0.14263,-0.85447,-0.082542,0.19345,-0.21376,-1.3098,-0.15045,-0.78701,0.0032265,-0.40261
-0.0066889,-0.033582,-0.023659,-0.024912,-0.066016,-0.9682,0.02178,-1.1572,0.050422,-0.70152,0.0066153,-0.33492,0.57035,-0.52676,0.12619,-1.0164,-0.097221,0.23144,-0.19684,-1.2588,-0.16634,-0.8653,0.01263,-0.5675
-0.0093266,-0.0525,-0.025983,-0.03551,-0.069298,-0.90115,0.018416,-1.1031,0.064322,-0.6286,0.042643,-0.22131,0.52448,-0.77296,0.10715,-1.216,-0.11128,0.23265,-0.1772,-1.1583,-0.18106,-0.8911,0.012083,-0.64968
-0.0080349,-0.064798,-0.026653,-0.034468,-0.070302,-0.82684,0.022626,-1.0411,0.070917,-0.57707,0.07537,-0.13662,0.46056,-1.0226,0.095101,-1.3949,-0.11727,0.20067,-0.14927,-1.0365,-0.18167,-0.88184,0.0061976,-0.66587
-0.0044545,-0.06585,-0.024812,-0.02584,-0.068183,-0.75721,0.03644,-0.97868,0.065868,-0.56229,0.10382,-0.088454,0.38542,-1.225,0.097961,-1.4826,-0.11309,0.13026,-0.10919,-0.92707,-0.16004,-0.87584,0.00042627,-0.65669
-0.00077688,-0.056836,-0.020843,-0.017882,-0.062443,-0.69926,0.057915,-0.9239,0.049782,-0.57679,0.1255,-0.070866,0.30563,-1.3394,0.11422,-1.4393,-0.10291,0.015899,-0.056017,-0.84893,-0.11687,-0.90038,-0.002997,-0.66068
0.0021998,-0.044896,-0.015917,-0.017924,-0.051536,-0.65817,0.080125,-0.88511,0.025365,-0.60784,0.1369,-0.065002,0.22406,-1.3679,0.13239,-1.2831,-0.093478,-0.13391,0.0070405,-0.79625,-0.06021,-0.95192,-0.0054098,-0.69255
0.0050257,-0.039049,-0.01113,-0.028188,-0.033558,-0.64086,0.093751,-0.86927,-0.0055391,-0.65353,0.13614,-0.050035,0.13969,-1.3599,0.13881,-1.0832,-0.089158,-0.28841,0.071964,-0.74181,-0.00058801,-1.002,-0.0087207,-0.7413
0.0079536,-0.044433,-0.0070588,-0.044984,-0.0089143,-0.65302,0.092421,-0.87704,-0.041909,-0.72183,0.12553,-0.017468,0.049086,-1.383,0.12765,-0.92082,-0.089464,-0.40278,0.12748,-0.653,0.053679,-1.0219,-0.0126,-0.78839
0.0097234,-0.058751,-0.0039028,-0.061281,0.017453,-0.69093,0.07714,-0.89877,-0.080598,-0.81377,0.11133,0.021782,-0.052688,-1.482,0.1047,-0.84491,-0.090445,-0.4419,0.16345,-0.51228,0.097979,-1.0051,-0.014863,-0.83033
0.008274,-0.073485,-0.0017555,-0.070718,0.037113,-0.73701,0.056116,-0.91652,-0.11409,-0.90829,0.099745,0.044051,-0.17179,-1.6527,0.0821,-0.85077,-0.08791,-0.40536,0.17663,-0.33169,0.13043,-0.96974,-0.014413,-0.88728
0.0028034,-0.079332,-0.0005644,-0.070731,0.042912,-0.76638,0.03951,-0.91323,-0.13254,-0.96588,0.092052,0.030758,-0.31367,-1.8481,0.068635,-0.89346,-0.079656,-0.33452,0.1741,-0.15254,0.1511,-0.94105,-0.01325,-0.99062
-0.0048791,-0.072385,5.7404e-005,-0.063427,0.034518,-0.76165,0.032743,-0.8832,-0.12974,-0.95096,0.083276,-0.013528,-0.47821,-2.0111,0.064171,-0.92371,-0.065597,-0.29158,0.1707,-0.028218,0.16321,-0.92788,-0.014887,-1.159
-0.011189,-0.056822,0.00071473,-0.054095,0.020261,-0.7243,0.033361,-0.83547,-0.10821,-0.85503,0.066364,-0.055338,-0.65431,-2.1093,0.062328,-0.91916,-0.046861,-0.32078,0.1806,0.0027844,0.17478,-0.91325,-0.020314,-1.3801
-0.013217,-0.042041,0.0017478,-0.048238,0.012881,-0.67234,0.033831,-0.78672,-0.078209,-0.70025,0.038847,-0.044665,-0.81873,-2.148,0.058205,-0.89033,-0.025309,-0.41705,0.20824,-0.060604,0.19763,-0.86455,-0.025493,-1.6105
-0.010704,-0.036096,0.0029063,-0.048578,0.021417,-0.62581,0.02788,-0.74878,-0.05061,-0.52044,0.0062394,0.060102,-0.94246,-2.1547,0.053492,-0.86127,-0.0035879,-0.52514,0.24568,-0.1776,0.24198,-0.75532,-0.023269,-1.794
-0.0058866,-0.040167,0.003666,-0.053626,0.044945,-0.59203,0.015302,-0.7211,-0.02912,-0.33639,-0.021199,0.26868,-1.0029,-2.1506,0.053969,-0.84464,0.01529,-0.57201,0.27952,-0.28386,0.30912,-0.58326,-0.0085819,-1.8879
-0.00147,-0.048182,0.0039529,-0.058764,0.073079,-0.56309,0.0016048,-0.69432,-0.0089975,-0.14673,-0.035918,0.55069,-0.99446,-2.1328,0.061534,-0.83253,0.029283,-0.511,0.30236,-0.32386,0.38753,-0.37475,0.017312,-1.8848
0.0014145,-0.051791,0.0044683,-0.059355,0.09316,-0.52716,-0.0067091,-0.66169,0.01617,0.059626,-0.038434,0.84762,-0.93164,-2.0824,0.068265,-0.80866,0.038501,-0.34768,0.31932,-0.27987,0.45677,-0.17569,0.047232,-1.8183
0.0035747,-0.046672,0.0061385,-0.053874,0.098734,-0.48275,-0.0070318,-0.6281,0.045348,0.28339,-0.035986,1.098,-0.84097,-1.9878,0.058831,-0.76815,0.044713,-0.13137,0.34309,-0.18149,0.49794,-0.035012,0.072813,-1.7495
0.0063636,-0.035152,0.0091828,-0.044755,0.09277,-0.44267,-0.0018914,-0.608,0.066981,0.50706,-0.035855,1.2617,-0.74789,-1.8634,0.020855,-0.72468,0.049077,0.077822,0.38085,-0.091115,0.50456,0.012524,0.089805,-1.7393
0.0099978,-0.023359,0.012815,-0.03625,0.08338,-0.42379,0.0037684,-0.61342,0.065373,0.70537,-0.039309,1.3318,-0.66602,-1.7443,-0.044101,-0.69799,0.050105,0.23972,0.42396,-0.073863,0.48619,-0.040534,0.099902,-1.8171
0.013173,-0.015695,0.01599,-0.030938,0.076054,-0.43154,0.0063,-0.64181,0.03172,0.86227,-0.041366,1.3286,-0.59526,-1.6627,-0.11765,-0.69375,0.044146,0.34186,0.45011,-0.16821,0.46189,-0.17021,0.10805,-1.9651
0.014259,-0.01146,0.018458,-0.027707,0.069216,-0.45265,0.0048633,-0.6742,-0.029086,0.97713,-0.036078,1.2833,-0.52871,-1.6242,-0.17308,-0.69577,0.028572,0.38566,0.43762,-0.37091,0.44778,-0.33012,0.11769,-2.1257
0.012898,-0.0062349,0.020931,-0.022781,0.05685,-0.4624,0.0001747,-0.68568,-0.101,1.0558,-0.022245,1.221,-0.46274,-1.6059,-0.19031,-0.67948,0.0050952,0.37034,0.38137,-0.64063,0.44737,-0.47245,0.12769,-2.2306
0.010476,0.0036338,0.02406,-0.012848,0.035567,-0.44017,-0.0073893,-0.66042,-0.16608,1.0983,-0.004492,1.1526,-0.40254,-1.5767,-0.16731,-0.63492,-0.019968,0.2924,0.29811,-0.91519,0.45131,-0.57055,0.13307,-2.2321
0.0090074,0.017591,0.027224,0.0023667,0.009627,-0.38097,-0.018015,-0.60004,-0.21299,1.0966,0.010752,1.0788,-0.35909,-1.5205,-0.1203,-0.57802,-0.039278,0.15968,0.2169,-1.1333,0.44601,-0.62805,0.12886,-2.1189
0.0093924,0.031329,0.028545,0.020023,-0.010685,-0.29517,-0.030869,-0.52016,-0.23946,1.0464,0.020255,0.99925,-0.33982,-1.4436,-0.072533,-0.53841,-0.049237,0.0023769,0.16191,-1.2527,0.42418,-0.66687,0.11426,-1.9081
0.010584,0.040389,0.026371,0.036313,-0.01599,-0.19941,-0.04274,-0.43937,-0.24916,0.95728,0.0254,0.91949,-0.34056,-1.3611,-0.039699,-0.53312,-0.052022,-0.13472,0.13987,-1.2598,0.38914,-0.70308,0.093985,-1.6236
0.010425,0.043581,0.020958,0.048808,-0.0042326,-0.10775,-0.048858,-0.36986,-0.24759,0.8506,0.029207,0.84761,-0.34585,-1.2772,-0.021822,-0.54885,-0.053106,-0.21606,0.13996,-1.1706,0.3502,-0.73156,0.075725,-1.2817
0.0074513,0.043368,0.014611,0.057254,0.018475,-0.029781,-0.045601,-0.31568,-0.24021,0.74534,0.032305,0.78479,-0.33872,-1.1779,-0.0067808,-0.54827,-0.056385,-0.23548,0.14436,-1.0221,0.3137,-0.73476,0.065224,-0.89495
0.0021507,0.043261,0.009949,0.062718,0.0426,0.026059,-0.032721,-0.27746,-0.23243,0.64603,0.031903,0.71837,-0.31303,-1.0439,0.017959,-0.49619,-0.061066,-0.21471,0.14049,-0.85632,0.27738,-0.70922,0.062145,-0.48988
-0.0033751,0.044765,0.0077229,0.066331,0.061062,0.050502,-0.012926,-0.25711,-0.22891,0.54635,0.024711,0.62656,-0.27859,-0.86957,0.05453,-0.3847,-0.062879,-0.1812,0.12668,-0.70186,0.23271,-0.68537,0.059783,-0.11867
-0.0070098,0.046524,0.0062277,0.068779,0.071654,0.037016,0.010847,-0.25784,-0.23154,0.44549,0.010971,0.4938,-0.25405,-0.67156,0.092704,-0.23867,-0.058386,-0.14504,0.1091,-0.56058,0.17275,-0.71783,0.049047,0.15116
-0.0081252,0.046174,0.0029014,0.07051,0.075254,-0.011919,0.037791,-0.27996,-0.23779,0.36079,-0.0042511,0.32644,-0.25244,-0.47767,0.11774,-0.099577,-0.048474,-0.094327,0.094311,-0.40806,0.098988,-0.84848,0.024169,0.26913
-0.007804,0.042958,-0.0033054,0.071862,0.072804,-0.082345,0.068664,-0.31703,-0.24179,0.32234,-0.013915,0.15561,-0.27055,-0.30702,0.12158,-0.0027462,-0.038025,-0.011295,0.083918,-0.20939,0.021761,-1.0696,-0.013752,0.2367
-0.0077513,0.038621,-0.010932,0.072685,0.064332,-0.15356,0.10257,-0.35604,-0.23775,0.35228,-0.0138,0.022864,-0.29092,-0.15781,0.10879,0.03439,-0.032161,0.10728,0.074217,0.05689,-0.045493,-1.3181,-0.057496,0.11923
-0.0089243,0.035731,-0.017228,0.071978,0.050401,-0.20673,0.13437,-0.38144,-0.22307,0.44647,-0.0055347,-0.043406,-0.29456,-0.012608,0.092927,0.0075854,-0.032366,0.24378,0.059646,0.38129,-0.093056,-1.5068,-0.09747,0.021292
-0.010983,0.034972,-0.02041,0.068333,0.033562,-0.23095,0.15599,-0.38042,-0.19874,0.57456,0.0043213,-0.045517,-0.27424,0.1452,0.086599,-0.085171,-0.035631,0.37124,0.036314,0.72406,-0.11799,-1.5697,-0.12504,0.035465
-0.01283,0.033997,-0.020953,0.061181,0.01747,-0.22344,0.16168,-0.34699,-0.16745,0.6982,0.0082292,-0.016496,-0.23765,0.31819,0.093028,-0.24602,-0.036995,0.4702,0.0031722,1.0345,-0.12268,-1.4871,-0.13327,0.19306
-0.013627,0.02912,-0.020956,0.05179,0.0040024,-0.18693,0.1531,-0.28423,-0.13204,0.79105,0.0016916,-0.0023999,-0.19917,0.49395,0.10513,-0.46641,-0.033154,0.53595,-0.038763,1.276,-0.11197,-1.277,-0.11611,0.44663
-0.013452,0.018573,-0.022359,0.04288,-0.0088677,-0.12917,0.13924,-0.205,-0.095823,0.84406,-0.015226,-0.037825,-0.16835,0.65266,0.11207,-0.71426,-0.024304,0.57335,-0.087019,1.4413,-0.092334,-0.96939,-0.069491,0.6951
-0.013238,0.0045389,-0.025595,0.036911,-0.025905,-0.065167,0.13035,-0.12962,-0.06364,0.85455,-0.039284,-0.12918,-0.14481,0.77269,0.10743,-0.93641,-0.013246,0.58882,-0.13689,1.5481,-0.072881,-0.59346,0.0046232,0.83634
-0.014146,-0.0079881,-0.029557,0.034343,-0.05045,-0.017267,0.13014,-0.079733,-0.041316,0.81268,-0.066747,-0.25513,-0.12286,0.82968,0.092688,-1.0837,-0.0029945,0.58958,-0.18045,1.6232,-0.065259,-0.18781,0.093903,0.8154
-0.016788,-0.014747,-0.03255,0.033391,-0.080454,-0.0080296,0.133,-0.069392,-0.032728,0.7006,-0.095235,-0.38303,-0.099709,0.79589,0.074153,-1.1451,0.0050992,0.58927,-0.20786,1.6849,-0.08003,0.18377,0.17669,0.64183
-0.020666,-0.015309,-0.033367,0.031506,-0.10835,-0.047771,0.1288,-0.098371,-0.036846,0.50598,-0.12374,-0.49038,-0.079123,0.64976,0.057048,-1.1658,0.01161,0.60929,-0.21212,1.7365,-0.12074,0.44061,0.23078,0.37187
-0.024142,-0.013181,-0.031924,0.027407,-0.12575,-0.12598,0.11177,-0.15275,-0.047905,0.23682,-0.15136,-0.57738,-0.067508,0.39596,0.042096,-1.2301,0.017966,0.66827,-0.19481,1.769,-0.17984,0.52504,0.2458,0.074018
-0.025112,-0.012878,-0.029368,0.021988,-0.13,-0.21509,0.085793,-0.21326,-0.059407,-0.077275,-0.17607,-0.66265,-0.06712,0.080102,0.026972,-1.4137,0.025022,0.76517,-0.16811,1.768,-0.23998,0.44667,0.23036,-0.1971
-0.022236,-0.016439,-0.027671,0.017422,-0.12758,-0.28579,0.06142,-0.26592,-0.069055,-0.40002,-0.19469,-0.76593,-0.073448,-0.22085,0.010242,-1.7355,0.032111,0.87119,-0.14975,1.7205,-0.28024,0.29086,0.20756,-0.40696
-0.016028,-0.022218,-0.028674,0.015185,-0.13101,-0.32319,0.04717,-0.30741,-0.080571,-0.70741,-0.2041,-0.89001,-0.079124,-0.43609,-0.0065388,-2.1405,0.036938,0.94127,-0.15259,1.6192,-0.28384,0.17578,0.20101,-0.53623
-0.0089434,-0.026711,-0.032871,0.014551,-0.15044,-0.33216,0.042345,-0.34234,-0.1009,-0.99504,-0.2028,-1.0142,-0.080093,-0.54489,-0.020525,-2.5271,0.036389,0.93978,-0.17588,1.4679,-0.24326,0.18489,0.22104,-0.58102
-0.0041319,-0.027694,-0.038758,0.012682,-0.18593,-0.32916,0.037447,-0.37658,-0.13508,-1.269,-0.19181,-1.1017,-0.077885,-0.593,-0.030934,-2.8014,0.028074,0.86225,-0.2051,1.2845,-0.16134,0.32458,0.26075,-0.56303
-0.0035988,-0.026011,-0.043566,0.0063418,-0.22628,-0.32915,0.02156,-0.41318,-0.18269,-1.5301,-0.17411,-1.1153,-0.076169,-0.66265,-0.040218,-2.9229,0.011968,0.73732,-0.22156,1.0985,-0.049378,0.53676,0.30377,-0.53536
-0.007087,-0.024759,-0.045176,-0.0058544,-0.25626,-0.33828,-0.0096719,-0.45389,-0.23819,-1.7664,-0.15307,-1.0306,-0.075678,-0.81202,-0.051495,-2.9136,-0.0088814,0.60856,-0.21511,0.9406,0.076442,0.75183,0.33655,-0.56515
-0.012527,-0.026833,-0.043778,-0.022085,-0.26717,-0.35643,-0.051809,-0.50276,-0.29391,-1.9592,-0.13079,-0.84457,-0.072977,-1.0272,-0.064705,-2.8307,-0.029358,0.51095,-0.19036,0.83113,0.19934,0.93698,0.3552,-0.69294
-0.017621,-0.032951,-0.041698,-0.037846,-0.26303,-0.38361,-0.096106,-0.56625,-0.34321,-2.0954,-0.10765,-0.58044,-0.064191,-1.2259,-0.075506,-2.7264,-0.044694,0.45843,-0.16171,0.77446,0.30631,1.1044,0.3631,-0.89467
-0.021233,-0.041521,-0.041284,-0.048273,-0.2573,-0.42217,-0.13602,-0.64853,-0.38155,-2.1729,-0.083268,-0.28872,-0.049446,-1.3145,-0.078479,-2.6246,-0.05282,0.4468,-0.14137,0.76385,0.39091,1.2812,0.36355,-1.0807
-0.023531,-0.05002,-0.042656,-0.051046,-0.2627,-0.47249,-0.16998,-0.74609,-0.40593,-2.1947,-0.0582,-0.039769,-0.033002,-1.2589,-0.071979,-2.5239,-0.05503,0.46326,-0.13042,0.78961,0.45285,1.4741,0.35515,-1.1426
-0.025074,-0.056541,-0.043504,-0.048107,-0.28171,-0.52821,-0.19873,-0.84764,-0.41388,-2.1597,-0.03493,0.097689,-0.018684,-1.1162,-0.060269,-2.4174,-0.054549,0.49093,-0.11989,0.84097,0.49391,1.658,0.33391,-1.0196
-0.025906,-0.060458,-0.041383,-0.04488,-0.30467,-0.57813,-0.22034,-0.94041,-0.40316,-2.062,-0.017244,0.087971,-0.0054229,-1.0012,-0.051097,-2.3049,-0.054221,0.50633,-0.1001,0.89935,0.51312,1.794,0.29908,-0.73856
-0.025548,-0.062223,-0.03647,-0.04713,-0.31624,-0.61494,-0.22787,-1.0179,-0.3722,-1.9027,-0.0084111,-0.047974,0.012059,-1.0131,-0.051166,-2.1909,-0.055125,0.47861,-0.069389,0.93259,0.50509,1.8528,0.25648,-0.39598
-0.02366,-0.062806,-0.032001,-0.057257,-0.30451,-0.64295,-0.21157,-1.0826,-0.32092,-1.7051,-0.0095661,-0.23681,0.037467,-1.1776,-0.063695,-2.0731,-0.056873,0.38012,-0.034366,0.90217,0.46352,1.8262,0.21585,-0.098582
-0.020477,-0.063089,-0.031598,-0.072471,-0.26655,-0.67574,-0.16392,-1.1405,-0.25183,-1.5159,-0.019516,-0.38954,0.06752,-1.4443,-0.089851,-1.9373,-0.058715,0.20669,-0.0015895,0.78487,0.38766,1.7228,0.18463,0.095164
-0.016473,-0.063229,-0.035662,-0.086332,-0.20798,-0.72341,-0.083736,-1.1933,-0.17099,-1.3864,-0.03587,-0.45057,0.092566,-1.7352,-0.13169,-1.7687,-0.06001,-0.0065646,0.031467,0.59429,0.28632,1.5599,0.16341,0.19343
-0.011738,-0.062226,-0.040254,-0.092865,-0.13932,-0.77957,0.022535,-1.2343,-0.087732,-1.3437,-0.05608,-0.42566,0.10341,-2.0022,-0.19263,-1.5696,-0.059635,-0.19021,0.077403,0.38288,0.17525,1.3606,0.14646,0.24732
-0.0059958,-0.058327,-0.039855,-0.090492,-0.072959,-0.82056,0.14168,-1.2521,-0.012334,-1.3695,-0.076965,-0.36722,0.098568,-2.2461,-0.27405,-1.3691,-0.055476,-0.26962,0.14996,0.21792,0.068758,1.1512,0.12639,0.31456
0.00051475,-0.050512,-0.031909,-0.082927,-0.021485,-0.82064,0.25508,-1.2394,0.048108,-1.4037,-0.092955,-0.32676,0.085361,-2.4871,-0.37024,-1.2156,-0.045367,-0.20334,0.2519,0.14541,-0.028422,0.95092,0.09868,0.44023
0.0062346,-0.040102,-0.019197,-0.07631,0.0047247,-0.77297,0.34065,-1.2001,0.09316,-1.3709,-0.095187,-0.31039,0.073529,-2.7179,-0.46605,-1.1561,-0.029357,-0.006855,0.36961,0.16658,-0.12239,0.75504,0.062887,0.65775
0.0087554,-0.030741,-0.007821,-0.074633,0.0021821,-0.69965,0.37719,-1.1483,0.12888,-1.2173,-0.073832,-0.27249,0.066714,-2.8799,-0.53933,-1.2156,-0.01134,0.25416,0.47895,0.24226,-0.22286,0.52717,0.020606,0.98984
0.0066324,-0.025979,-0.0023681,-0.076906,-0.021159,-0.64156,0.35186,-1.1017,0.16311,-0.93455,-0.023687,-0.15237,0.059253,-2.8851,-0.56751,-1.3876,0.0020277,0.49672,0.55797,0.31954,-0.33241,0.2147,-0.027393,1.4327
0.0010831,-0.025927,-0.0023614,-0.078108,-0.046295,-0.6342,0.26765,-1.0735,0.19898,-0.56112,0.050349,0.075701,0.041386,-2.6659,-0.53542,-1.6362,0.0050737,0.65843,0.59681,0.3597,-0.44053,-0.21617,-0.082241,1.9328
-0.0041877,-0.026039,-0.0029995,-0.073108,-0.051014,-0.68695,0.14528,-1.0682,0.23149,-0.15905,0.13273,0.37996,0.0088564,-2.2166,-0.44192,-1.9033,-0.0030596,0.71773,0.59792,0.34888,-0.52747,-0.74783,-0.14563,2.3851
-0.0053385,-0.019862,0.00053474,-0.060493,-0.021701,-0.78088,0.015885,-1.0837,0.25016,0.21719,0.2037,0.69367,-0.031097,-1.5985,-0.30306,-2.1192,-0.017645,0.68814,0.56836,0.28965,-0.5759,-1.3041,-0.21705,2.6693
-0.0012211,-0.004278,0.0089684,-0.043562,0.038649,-0.88581,-0.092554,-1.1153,0.24608,0.54152,0.24949,0.96256,-0.062858,-0.90951,-0.14986,-2.2175,-0.031536,0.59694,0.51264,0.18706,-0.58218,-1.775,-0.2912,2.7091
0.0056497,0.016938,0.018499,-0.028095,0.11216,-0.98295,-0.16657,-1.1594,0.21806,0.81392,0.26916,1.177,-0.073134,-0.24156,-0.019858,-2.1562,-0.039881,0.46727,0.43301,0.044211,-0.5592,-2.0566,-0.35647,2.5151
0.010882,0.034687,0.024188,-0.018837,0.17653,-1.0762,-0.20889,-1.2147,0.17311,1.0381,0.27268,1.363,-0.061504,0.34758,0.05576,-1.9357,-0.042638,0.31605,0.33625,-0.12943,-0.52844,-2.0839,-0.39585,2.1828
0.011333,0.040713,0.024068,-0.017165,0.21676,-1.1843,-0.23015,-1.2811,0.1215,1.1966,0.27157,1.543,-0.042794,0.83386,0.064184,-1.6016,-0.042981,0.16441,0.23892,-0.30732,-0.50633,-1.8396,-0.39108,1.8515
0.0070774,0.033821,0.020417,-0.021047,0.23024,-1.322,-0.23835,-1.357,0.071003,1.2459,0.26964,1.703,-0.039103,1.2057,0.015608,-1.2237,-0.043214,0.046247,0.16371,-0.44614,-0.49415,-1.3446,-0.33014,1.6556
0.00081052,0.021087,0.017332,-0.026622,0.22324,-1.4829,-0.23448,-1.4367,0.025375,1.1397,0.26133,1.7955,-0.067019,1.4403,-0.062532,-0.86154,-0.041956,0.0025274,0.12741,-0.50113,-0.47872,-0.64516,-0.21588,1.6943
-0.0044811,0.01282,0.016974,-0.030075,0.20371,-1.6382,-0.21669,-1.5084,-0.012523,0.86864,0.23906,1.7773,-0.1289,1.4966,-0.1388,-0.53972,-0.035203,0.0625,0.12981,-0.44727,-0.44371,0.19243,-0.070487,2.0157
-0.0074442,0.015049,0.017812,-0.028998,0.17731,-1.7502,-0.18711,-1.5551,-0.037284,0.48687,0.20271,1.649,-0.21361,1.3304,-0.19121,-0.24799,-0.020364,0.2256,0.1531,-0.29185,-0.38403,1.0769,0.068976,2.6012
-0.0084592,0.025376,0.016225,-0.023189,0.1491,-1.7915,-0.15399,-1.5613,-0.042017,0.10006,0.16253,1.4649,-0.30457,0.9265,-0.21417,0.036171,0.00033843,0.45945,0.1735,-0.070593,-0.31249,1.8916,0.16465,3.3464
-0.0083666,0.035312,0.0098203,-0.014919,0.12702,-1.7565,-0.12689,-1.5201,-0.023901,-0.18319,0.13244,1.3032,-0.38804,0.32724,-0.21679,0.32602,0.020324,0.71726,0.1766,0.16871,-0.25252,2.5111,0.19564,4.0655
-0.0074215,0.036971,-0.00046832,-0.0083319,0.1217,-1.6612,-0.11011,-1.4387,0.010993,-0.30735,0.11962,1.2194,-0.45579,-0.36181,-0.21514,0.62432,0.032851,0.96249,0.16485,0.38361,-0.22093,2.8375,0.16894,4.5452
-0.0054931,0.028699,-0.011122,-0.0076401,0.14071,-1.5316,-0.10078,-1.3347,0.049194,-0.29428,0.11972,1.216,-0.50236,-0.99855,-0.2233,0.93974,0.035616,1.1826,0.1522,0.54648,-0.21301,2.8403,0.11547,4.6371
-0.002985,0.015467,-0.018705,-0.014651,0.18213,-1.3882,-0.093044,-1.225,0.07777,-0.21776,0.12181,1.2478,-0.52199,-1.4542,-0.24663,1.2972,0.032009,1.3831,0.1511,0.645,-0.20243,2.575,0.071798,4.334
-0.0011469,0.0044193,-0.022089,-0.027122,0.23376,-1.2375,-0.083564,-1.1156,0.092645,-0.14615,0.11886,1.2572,-0.50916,-1.6601,-0.27938,1.7224,0.028113,1.569,0.1628,0.67884,-0.15821,2.1628,0.058219,3.7703
-0.0012013,-0.00025379,-0.022581,-0.03939,0.2799,-1.0725,-0.072677,-0.9988,0.10033,-0.094837,0.11433,1.2124,-0.46219,-1.6242,-0.3067,2.207,0.028098,1.7313,0.17787,0.65643,-0.0676,1.7392,0.067854,3.1387
-0.0031372,0.00097035,-0.022277,-0.045301,0.31041,-0.88345,-0.06083,-0.86331,0.11146,-0.021913,0.11947,1.1236,-0.38549,-1.4084,-0.31064,2.6857,0.03173,1.8486,0.18469,0.59202,0.052118,1.3995,0.074465,2.58
-0.0055287,0.005224,-0.022309,-0.041667,0.32456,-0.67221,-0.045191,-0.70956,0.1315,0.13306,0.14394,1.0288,-0.28764,-1.0819,-0.27824,3.0532,0.035656,1.9005,0.17754,0.5013,0.1624,1.1738,0.053609,2.1261
-0.0067203,0.010618,-0.022396,-0.029896,0.3266,-0.46117,-0.021231,-0.55803,0.15579,0.39906,0.18777,0.96195,-0.17714,-0.68563,-0.20832,3.2149,0.036746,1.8783,0.15769,0.39667,0.22665,1.039,0.0015188,1.7294
-0.0062482,0.017412,-0.021677,-0.014683,0.31837,-0.28911,0.011556,-0.4425,0.17216,0.7492,0.2407,0.92842,-0.059768,-0.22935,-0.11351,3.1342,0.034337,1.7845,0.12831,0.28649,0.23084,0.95216,-0.062476,1.3423
-0.0050423,0.026372,-0.019765,-0.00083575,0.29675,-0.19321,0.045675,-0.39077,0.16805,1.1153,0.28816,0.90569,0.060512,0.28117,-0.01586,2.8403,0.029678,1.6248,0.089653,0.18036,0.18734,0.87622,-0.11144,0.97015
-0.0041978,0.036578,-0.017034,0.0093773,0.25923,-0.18637,0.068379,-0.406,0.13657,1.4255,0.31863,0.86667,0.17956,0.81445,0.062178,2.3935,0.023788,1.4053,0.039858,0.095934,0.12192,0.7843,-0.13155,0.6576
-0.0036377,0.04525,-0.014119,0.016583,0.21212,-0.24509,0.069952,-0.46244,0.078459,1.6365,0.32712,0.80692,0.29352,1.3094,0.10682,1.8461,0.016308,1.1411,-0.019801,0.058633,0.05676,0.65399,-0.13147,0.43116
-0.0021655,0.049838,-0.011417,0.022495,0.17228,-0.31845,0.050981,-0.51966,0.0010444,1.7432,0.31446,0.75316,0.40173,1.7017,0.11737,1.2361,0.0066498,0.86755,-0.081204,0.090166,0.0032047,0.47076,-0.13341,0.26226
0.00103,0.050125,-0.0091798,0.027697,0.15872,-0.3549,0.022661,-0.54557,-0.083538,1.7684,0.28494,0.74591,0.50804,1.959,0.10426,0.61535,-0.0038921,0.63872,-0.13194,0.19238,-0.033027,0.24528,-0.15437,0.088944
0.0049471,0.048047,-0.0080153,0.030798,0.17974,-0.32928,0.00012729,-0.53167,-0.16011,1.746,0.2446,0.80919,0.61714,2.0973,0.0826,0.070362,-0.011622,0.50622,-0.16282,0.33988,-0.043134,0.026695,-0.19346,-0.12601
0.0070229,0.045284,-0.0090303,0.029435,0.2263,-0.25092,-0.0056679,-0.48987,-0.21363,1.7082,0.20014,0.93031,0.72752,2.1677,0.065375,-0.30066,-0.012637,0.48924,-0.17423,0.48987,-0.014178,-0.11136,-0.23497,-0.36009
0.0050717,0.041043,-0.013147,0.022165,0.27745,-0.14721,0.0083057,-0.43459,-0.23436,1.6752,0.15699,1.0645,0.82801,2.2266,0.05957,-0.45081,-0.0060433,0.55829,-0.17623,0.60404,0.061841,-0.114,-0.2629,-0.55631
-0.00075409,0.032445,-0.019997,0.0098348,0.3134,-0.036802,0.038909,-0.36557,-0.22249,1.65,0.11699,1.1606,0.90265,2.309,0.065837,-0.432,0.0048966,0.64647,-0.18256,0.66671,0.17687,0.010965,-0.27319,-0.68655
-0.0077535,0.017451,-0.027427,-0.0043982,0.32622,0.084229,0.080399,-0.26689,-0.18818,1.6172,0.077257,1.1884,0.94165,2.4162,0.080279,-0.37312,0.015174,0.68242,-0.20329,0.68645,0.30456,0.18672,-0.27384,-0.79145
-0.012444,-0.0022772,-0.032333,-0.01635,0.3209,0.23056,0.12561,-0.12444,-0.14565,1.5534,0.032228,1.1511,0.94984,2.5162,0.096736,-0.38973,0.02219,0.62337,-0.2408,0.68222,0.41088,0.31289,-0.27462,-0.95418
-0.012842,-0.021309,-0.032469,-0.022715,0.30806,0.39995,0.16442,0.052054,-0.10449,1.445,-0.022061,1.0762,0.94499,2.552,0.10902,-0.49128,0.027925,0.46863,-0.29014,0.66731,0.47129,0.33558,-0.2777,-1.2256
-0.0094829,-0.033472,-0.027975,-0.022629,0.2958,0.55552,0.18323,0.22197,-0.06439,1.3011,-0.084358,0.99363,0.94673,2.4589,0.1132,-0.56452,0.036898,0.24954,-0.34153,0.64464,0.48352,0.2904,-0.27772,-1.5653
-0.0045913,-0.035575,-0.021377,-0.018001,0.28642,0.63843,0.16928,0.33171,-0.017391,1.1513,-0.14804,0.917,0.96463,2.1921,0.10933,-0.45554,0.051554,0.0085736,-0.38304,0.61507,0.4679,0.28192,-0.27015,-1.8535
-0.00031744,-0.028921,-0.015986,-0.012201,0.27824,0.60719,0.11906,0.34845,0.044254,1.0255,-0.20453,0.83932,0.99446,1.7572,0.10146,-0.091159,0.069303,-0.21706,-0.40332,0.58835,0.45574,0.40873,-0.25847,-1.9717
0.0025133,-0.017701,-0.013836,-0.0077173,0.26823,0.47602,0.045098,0.28691,0.1204,0.9322,-0.2477,0.7445,1.0243,1.2249,0.094953,0.45636,0.084201,-0.40075,-0.39492,0.58436,0.4725,0.6855,-0.25249,-1.8914
0.0043508,-0.0059504,-0.014674,-0.0043339,0.25313,0.32125,-0.02579,0.20887,0.20123,0.85177,-0.27634,0.62722,1.0445,0.71329,0.092518,1.0156,0.091984,-0.52632,-0.35758,0.62187,0.52482,1.0194,-0.25949,-1.7022
0.0059161,0.0044485,-0.016624,0.00065591,0.22953,0.24554,-0.064813,0.19298,0.27215,0.7498,-0.29364,0.50715,1.0529,0.34282,0.091819,1.4388,0.093799,-0.59038,-0.29922,0.70307,0.59749,1.2608,-0.27714,-1.5557
0.0072523,0.01353,-0.017784,0.010061,0.19564,0.32071,-0.057869,0.29264,0.32171,0.60001,-0.30487,0.42594,1.053,0.18648,0.08685,1.7044,0.094915,-0.60834,-0.23322,0.80613,0.66138,1.2954,-0.29537,-1.5658
0.0076437,0.02163,-0.017427,0.023906,0.15421,0.54647,-0.015721,0.50809,0.34685,0.39933,-0.31534,0.42539,1.0473,0.24491,0.072537,1.9184,0.099364,-0.61654,-0.17303,0.8918,0.6881,1.1124,-0.30551,-1.7366
0.0064028,0.028081,-0.016041,0.038388,0.11353,0.85254,0.030432,0.78912,0.35301,0.16675,-0.32911,0.51847,1.0325,0.45669,0.049272,2.2137,0.10548,-0.66207,-0.12723,0.92085,0.66373,0.80326,-0.30817,-1.9697
0.0037591,0.031217,-0.014516,0.047768,0.083979,1.1419,0.046462,1.065,0.34964,-0.069056,-0.34815,0.67263,0.99995,0.73277,0.023868,2.6296,0.10682,-0.78098,-0.097596,0.87269,0.59432,0.49483,-0.31208,-2.1387
0.00096187,0.029476,-0.013439,0.048012,0.071276,1.3452,0.014784,1.281,0.34489,-0.28223,-0.37119,0.81932,0.94005,0.99353,0.0060475,3.07,0.098004,-0.97647,-0.080165,0.75609,0.50043,0.26875,-0.32487,-2.1768
-0.0006198,0.022645,-0.012984,0.039578,0.071601,1.4508,-0.057389,1.4201,0.34221,-0.45521,-0.39324,0.88666,0.84726,1.193,0.0027685,3.3719,0.080329,-1.2117,-0.067471,0.60751,0.40485,0.12734,-0.34431,-2.1115
-0.00065009,0.01244,-0.013155,0.027418,0.072641,1.4947,-0.14645,1.4991,0.34066,-0.57784,-0.40722,0.83578,0.72269,1.3269,0.014098,3.4323,0.0619,-1.423,-0.050436,0.47854,0.3216,0.02374,-0.35804,-2.0263
-0.00010982,0.0020821,-0.013812,0.018309,0.060421,1.5226,-0.23066,1.5473,0.33786,-0.64418,-0.40804,0.67737,0.57361,1.4271,0.033096,3.289,0.051861,-1.5465,-0.020037,0.41775,0.25307,-0.077539,-0.35233,-1.9796
-0.00027299,-0.0049724,-0.014387,0.017337,0.027371,1.554,-0.3045,1.5835,0.33398,-0.64981,-0.39674,0.45888,0.41044,1.5459,0.049559,3.0934,0.053553,-1.5423,0.030457,0.4545,0.19536,-0.16506,-0.32218,-1.9463
-0.0012097,-0.0065829,-0.013806,0.025575,-0.023502,1.572,-0.37852,1.6063,0.33404,-0.59094,-0.381,0.2332,0.24316,1.7292,0.055383,2.9963,0.062257,-1.404,0.10282,0.59086,0.14597,-0.19842,-0.27459,-1.8276
-0.0013042,-0.0029188,-0.0111,0.039818,-0.080249,1.5423,-0.46609,1.601,0.34666,-0.46672,-0.37034,0.031638,0.079095,1.9896,0.048694,3.0382,0.069105,-1.1532,0.19224,0.80366,0.10667,-0.15809,-0.22286,-1.5256
0.0014861,0.003821,-0.0064195,0.054112,-0.12747,1.4429,-0.56803,1.5543,0.37935,-0.28513,-0.36883,-0.14194,-0.076528,2.29,0.034774,3.1288,0.067497,-0.82751,0.28819,1.0547,0.079689,-0.078222,-0.17783,-1.0296
0.0075584,0.010926,-0.0014549,0.062312,-0.15202,1.2821,-0.66773,1.4678,0.43243,-0.069124,-0.37111,-0.29669,-0.21821,2.5529,0.023423,3.1262,0.056813,-0.46829,0.3779,1.3037,0.061454,-0.031778,-0.14319,-0.44896
0.014705,0.016923,0.001508,0.060815,-0.1465,1.0957,-0.74024,1.361,0.49582,0.14404,-0.36589,-0.43581,-0.33901,2.6936,0.024171,2.9487,0.041202,-0.11342,0.45085,1.5187,0.040392,-0.08234,-0.11736,0.036065
0.019391,0.022182,0.0014632,0.050411,-0.11031,0.9275,-0.76813,1.2639,0.55153,0.31464,-0.3451,-0.54925,-0.43308,2.6585,0.041892,2.6314,0.025592,0.20876,0.50223,1.682,0.0017186,-0.24535,-0.097899,0.27498
0.019371,0.027848,-5.9248e-005,0.036079,-0.049121,0.80925,-0.75212,1.2051,0.58168,0.41823,-0.31134,-0.62238,-0.50133,2.4466,0.075125,2.2918,0.012736,0.48405,0.53393,1.79,-0.064127,-0.48801,-0.083242,0.23019
0.015377,0.033988,0.00025612,0.02433,0.026268,0.75245,-0.70939,1.201,0.57735,0.45648,-0.27715,-0.6514,-0.55542,2.1014,0.11767,2.0444,0.0031611,0.7123,0.55276,1.8487,-0.15572,-0.75808,-0.070609,-0.012198
0.010355,0.038708,0.0049613,0.019345,0.10196,0.75269,-0.66203,1.2523,0.54291,0.45171,-0.25608,-0.65205,-0.61542,1.6846,0.16188,1.9401,-0.0032224,0.89978,0.56655,1.8653,-0.26158,-1.0078,-0.054041,-0.30559
0.0069563,0.03926,0.013439,0.02048,0.16394,0.80003,-0.62481,1.3471,0.4926,0.42852,-0.2529,-0.65514,-0.70017,1.2531,0.20137,1.9715,-0.0062256,1.0472,0.5799,1.8426,-0.36639,-1.1927,-0.026666,-0.52938
0.0056232,0.03431,0.021792,0.023133,0.20166,0.88687,-0.60019,1.4694,0.44163,0.39775,-0.26145,-0.69229,-0.81549,0.8552,0.23166,2.1227,-0.0060094,1.1433,0.59171,1.7775,-0.45786,-1.2589,0.013349,-0.63843
0.004939,0.025343,0.025436,0.022477,0.21098,1.0092,-0.58204,1.607,0.39808,0.35463,-0.27166,-0.78105,-0.9477,0.54162,0.2498,2.4024,-0.0039606,1.1712,0.59628,1.6669,-0.53004,-1.1524,0.058531,-0.65277
0.0036834,0.015752,0.02249,0.017154,0.19525,1.1629,-0.56277,1.7527,0.36088,0.28989,-0.27916,-0.91734,-1.0672,0.37009,0.25444,2.8248,-0.002197,1.1255,0.58748,1.5146,-0.58278,-0.85679,0.09453,-0.61412
0.0023868,0.0082709,0.015237,0.0099721,0.1636,1.3385,-0.5378,1.9006,0.3249,0.20047,-0.28821,-1.0774,-1.1403,0.38924,0.24711,3.3577,-0.0017356,1.0249,0.56317,1.3334,-0.61955,-0.43472,0.10877,-0.5539
0.0028151,0.0030384,0.0084647,0.0051772,0.1271,1.5192,-0.50533,2.0388,0.28834,0.089601,-0.30514,-1.2268,-1.1434,0.60702,0.23318,3.8954,-0.0010934,0.90836,0.52654,1.1376,-0.6455,-0.024394,0.098947,-0.49348
0.0059919,-0.001896,0.0060353,0.0047748,0.094144,1.6831,-0.46413,2.149,0.25603,-0.040486,-0.32867,-1.3309,-1.072,0.96968,0.22071,4.2937,0.002988,0.81454,0.48327,0.93314,-0.6661,0.22181,0.0746,-0.4596
0.01085,-0.0081209,0.0084515,0.00706,0.067127,1.8095,-0.41308,2.2125,0.23564,-0.19151,-0.34691,-1.3642,-0.94011,1.3746,0.21662,4.4472,0.012892,0.75832,0.4371,0.71299,-0.68517,0.22277,0.050362,-0.48452
0.014915,-0.014911,0.013162,0.0083369,0.042205,1.8854,-0.3532,2.2212,0.22976,-0.36192,-0.34499,-1.3146,-0.7733,1.7152,0.22219,4.3472,0.027652,0.72353,0.38783,0.46424,-0.70257,0.015739,0.036399,-0.58231
0.016339,-0.019836,0.016975,0.0059566,0.012507,1.9095,-0.28907,2.1836,0.23074,-0.53787,-0.31735,-1.1855,-0.59855,1.9289,0.23085,4.0723,0.042832,0.67766,0.33398,0.18203,-0.71299,-0.27242,0.033458,-0.72434
0.015307,-0.021473,0.018333,-0.00010755,-0.026674,1.8905,-0.22663,2.1203,0.22345,-0.69587,-0.27402,-0.99348,-0.43657,2.0149,0.23019,3.7181,0.053095,0.59772,0.27743,-0.12162,-0.70749,-0.51071,0.035596,-0.8439
0.013556,-0.021565,0.017702,-0.0081896,-0.073728,1.841,-0.16804,2.0516,0.19481,-0.81908,-0.23485,-0.7637,-0.29925,2.0103,0.20745,3.3245,0.055525,0.48719,0.22536,-0.42175,-0.67762,-0.64402,0.037063,-0.87395
0.012644,-0.024236,0.016264,-0.016917,-0.12052,1.7718,-0.1083,1.9861,0.1434,-0.91187,-0.21599,-0.52046,-0.19094,1.9498,0.15576,2.8597,0.05113,0.3717,0.18651,-0.6948,-0.62004,-0.71216,0.036884,-0.78925
0.012711,-0.032667,0.014557,-0.026045,-0.15687,1.6888,-0.037987,1.9197,0.081491,-0.99484,-0.21919,-0.2776,-0.11093,1.8418,0.077949,2.2722,0.043426,0.27799,0.16416,-0.93239,-0.53908,-0.80087,0.037707,-0.61759
0.012781,-0.046126,0.012368,-0.035508,-0.17744,1.5955,0.048999,1.844,0.027675,-1.0794,-0.23192,-0.03408,-0.054718,1.6803,-0.014021,1.5654,0.035436,0.21378,0.15162,-1.1445,-0.44614,-0.96808,0.041227,-0.41209
0.011995,-0.060128,0.0096765,-0.044155,-0.18635,1.4966,0.14851,1.757,-0.0048478,-1.1433,-0.2372,0.21997,-0.014387,1.4759,-0.10371,0.83189,0.027681,0.16471,0.13512,-1.3508,-0.35627,-1.202,0.045332,-0.21173
0.010408,-0.069714,0.0073314,-0.049966,-0.19621,1.4003,0.2466,1.6666,-0.015919,-1.1328,-0.22483,0.48929,0.020066,1.2712,-0.17663,0.21667,0.01873,0.10985,0.10294,-1.5662,-0.28339,-1.438,0.045736,-0.027048
0.0086571,-0.072983,0.0065657,-0.051785,-0.2212,1.3149,0.32764,1.5835,-0.016765,-0.99512,-0.19555,0.76228,0.057282,1.1233,-0.22509,-0.16119,0.0075027,0.041581,0.054176,-1.7918,-0.2359,-1.6136,0.040017,0.13808
0.007159,-0.071904,0.007805,-0.050699,-0.26857,1.2428,0.38385,1.5103,-0.020922,-0.71852,-0.15667,1.0135,0.10055,1.0655,-0.24924,-0.27131,-0.0050714,-0.028209,0.0002178,-2.0143,-0.21416,-1.717,0.02969,0.2536
0.0058473,-0.069969,0.010055,-0.049326,-0.33402,1.1748,0.41828,1.4356,-0.034913,-0.34788,-0.11454,1.22,0.14644,1.082,-0.25434,-0.17559,-0.016722,-0.081481,-0.042836,-2.2133,-0.21099,-1.7902,0.018388,0.25726
0.0046857,-0.069088,0.011578,-0.049482,-0.40385,1.0921,0.43901,1.3392,-0.055259,0.037958,-0.070514,1.3786,0.18763,1.118,-0.24692,0.021074,-0.02617,-0.11492,-0.065483,-2.3705,-0.2152,-1.8879,0.0085503,0.088778
0.0041511,-0.068557,0.011241,-0.050585,-0.46206,0.97617,0.44999,1.2052,-0.073036,0.36986,-0.022793,1.5079,0.21831,1.1172,-0.23241,0.22915,-0.034734,-0.14807,-0.071383,-2.4739,-0.21656,-2.0249,0.00051372,-0.2614
0.0049004,-0.066704,0.0092113,-0.050602,-0.49711,0.82154,0.44726,1.0331,-0.08146,0.62101,0.029267,1.631,0.2377,1.0548,-0.21485,0.39982,-0.045474,-0.20894,-0.074215,-2.5165,-0.2093,-2.1522,-0.0051196,-0.73105
0.0068381,-0.063268,0.0063719,-0.048676,-0.5041,0.64268,0.42386,0.83881,-0.080519,0.80751,0.083134,1.7526,0.2492,0.94264,-0.19696,0.51121,-0.060527,-0.30849,-0.087212,-2.4915,-0.1921,-2.1834,-0.0051444,-1.2138
0.0086499,-0.060095,0.0031178,-0.046656,-0.48252,0.46777,0.37902,0.64475,-0.075938,0.96232,0.13507,1.8507,0.25617,0.80649,-0.17875,0.54408,-0.079112,-0.4274,-0.1134,-2.3904,-0.16535,-2.052,0.0046726,-1.6147
0.0085401,-0.059597,-0.0011276,-0.047669,-0.43374,0.32199,0.3226,0.46606,-0.074554,1.1063,0.18348,1.8916,0.25857,0.66143,-0.15554,0.4787,-0.098084,-0.52949,-0.14387,-2.21,-0.12833,-1.7615,0.024433,-1.8906
0.0056753,-0.062683,-0.007102,-0.052947,-0.36212,0.2117,0.27039,0.30405,-0.08034,1.2372,0.2298,1.8564,0.25358,0.50575,-0.11822,0.31584,-0.11448,-0.59141,-0.16529,-1.963,-0.079355,-1.3917,0.046444,-2.0453
0.00098614,-0.068235,-0.014379,-0.060098,-0.27896,0.12232,0.23414,0.15102,-0.093694,1.3402,0.27597,1.7572,0.23956,0.33495,-0.058116,0.094984,-0.12767,-0.62202,-0.17049,-1.6847,-0.018958,-1.0565,0.058057,-2.0953
-0.0035328,-0.074453,-0.020962,-0.06477,-0.20404,0.032752,0.21533,0.0025347,-0.11315,1.4047,0.32083,1.6304,0.21948,0.15741,0.025827,-0.11792,-0.13927,-0.65301,-0.16421,-1.427,0.046925,-0.84401,0.050312,-2.0412
-0.0064562,-0.080416,-0.024456,-0.064284,-0.15987,-0.064333,0.20816,-0.13323,-0.13694,1.4327,0.35927,1.5108,0.20044,-0.0055083,0.12336,-0.27178,-0.15106,-0.7084,-0.1594,-1.2372,0.10705,-0.77999,0.025564,-1.8768
-0.0079664,-0.086063,-0.023953,-0.059813,-0.15947,-0.15302,0.20888,-0.23719,-0.163,1.4318,0.38504,1.4103,0.18945,-0.1349,0.21697,-0.36775,-0.16319,-0.78059,-0.16723,-1.1347,0.14922,-0.83533,-0.0029674,-1.6221
-0.0092899,-0.090636,-0.020931,-0.055079,-0.19619,-0.20466,0.22203,-0.29184,-0.18857,1.4021,0.39482,1.3152,0.18876,-0.23042,0.29183,-0.45853,-0.17416,-0.83423,-0.18802,-1.0996,0.16614,-0.96616,-0.020197,-1.3442
-0.011093,-0.091562,-0.018197,-0.052939,-0.2448,-0.20107,0.25707,-0.29508,-0.21107,1.3308,0.39027,1.2026,0.19415,-0.3127,0.34399,-0.6067,-0.18216,-0.83392,-0.20976,-1.0832,0.1587,-1.1502,-0.019528,-1.1351
-0.01247,-0.085583,-0.01758,-0.053113,-0.27593,-0.15179,0.31762,-0.26443,-0.2305,1.2013,0.37652,1.0596,0.19717,-0.41081,0.37967,-0.8356,-0.18601,-0.77074,-0.21524,-1.0345,0.13459,-1.3911,-0.0059413,-1.0575
-0.011648,-0.071699,-0.018298,-0.052948,-0.2751,-0.090677,0.39294,-0.2274,-0.25104,1.0111,0.35888,0.89024,0.18928,-0.54552,0.40611,-1.1135,-0.18476,-0.66665,-0.19273,-0.92781,0.10373,-1.6903,0.010452,-1.1014
-0.0078029,-0.053274,-0.017481,-0.050103,-0.25197,-0.053463,0.4602,-0.20461,-0.27928,0.78435,0.34048,0.70715,0.16527,-0.71955,0.422,-1.3828,-0.17663,-0.55757,-0.1432,-0.7754,0.074276,-2.0162,0.02415,-1.1894
-0.0022448,-0.036859,-0.012568,-0.044451,-0.232,-0.053603,0.49728,-0.19811,-0.31974,0.56877,0.32234,0.52033,0.12463,-0.91813,0.41675,-1.6066,-0.15929,-0.47381,-0.079296,-0.61973,0.051705,-2.2992,0.038269,-1.2315
0.0023157,-0.028073,-0.0036302,-0.037736,-0.23591,-0.07521,0.4967,-0.19347,-0.37123,0.41452,0.30453,0.33459,0.071098,-1.1159,0.38024,-1.7922,-0.13192,-0.43364,-0.017088,-0.51183,0.040133,-2.4636,0.059288,-1.1888
0.0038482,-0.027703,0.0063581,-0.031886,-0.26283,-0.087987,0.46991,-0.17331,-0.42751,0.34893,0.2868,0.15644,0.011406,-1.2861,0.31481,-1.973,-0.097475,-0.44853,0.033889,-0.48836,0.043197,-2.4725,0.087742,-1.1001
0.0025651,-0.031308,0.013591,-0.027858,-0.29068,-0.07147,0.43832,-0.13163,-0.48219,0.36268,0.26804,-0.0004428,-0.046635,-1.4097,0.23877,-2.1689,-0.062517,-0.52702,0.075271,-0.55758,0.062751,-2.3527,0.11408,-1.0534
0.00054457,-0.032738,0.0162,-0.025761,-0.29368,-0.029429,0.41824,-0.078155,-0.53343,0.41637,0.24596,-0.1207,-0.096629,-1.483,0.17695,-2.3626,-0.034116,-0.66916,0.11601,-0.69777,0.096659,-2.1781,0.12451,-1.127
-0.00017063,-0.02859,0.015504,-0.025394,-0.26288,0.015417,0.41106,-0.030975,-0.58365,0.46323,0.2186,-0.20153,-0.13623,-1.5214,0.14492,-2.5139,-0.015758,-0.85785,0.16299,-0.8659,0.13861,-2.0212,0.11265,-1.3422
0.00082669,-0.019922,0.014878,-0.02614,-0.2131,0.039756,0.4053,-0.0044394,-0.63387,0.47315,0.187,-0.26204,-0.1685,-1.5555,0.13868,-2.5984,-0.0056513,-1.0589,0.21357,-1.0113,0.18116,-1.9066,0.087231,-1.6555
0.0024537,-0.010149,0.017324,-0.026392,-0.17134,0.035087,0.38768,-0.0019926,-0.67767,0.44399,0.1566,-0.33631,-0.20052,-1.6217,0.13772,-2.6371,0.0011052,-1.2332,0.25665,-1.0898,0.21984,-1.7988,0.068664,-1.9865
0.0036933,-0.0015009,0.023679,-0.023702,-0.15691,0.008881,0.35323,-0.017698,-0.70081,0.39563,0.13518,-0.45274,-0.23934,-1.7518,0.11901,-2.692,0.0082708,-1.3517,0.28204,-1.075,0.25439,-1.6305,0.0762,-2.2577
0.0048415,0.006475,0.032512,-0.016213,-0.17002,-0.026448,0.30662,-0.042925,-0.68823,0.35346,0.12801,-0.61538,-0.28727,-1.9662,0.071641,-2.8301,0.015658,-1.4011,0.29063,-0.96431,0.28603,-1.3507,0.1148,-2.4204
0.0071214,0.015179,0.041247,-0.0044092,-0.1971,-0.065088,0.25522,-0.071906,-0.63353,0.33333,0.13381,-0.80203,-0.33961,-2.2714,0.0026128,-3.0846,0.019968,-1.3787,0.29597,-0.77943,0.31348,-0.95761,0.17124,-2.4643
0.011095,0.024173,0.047355,0.008552,-0.22607,-0.10999,0.20121,-0.10304,-0.54374,0.33595,0.14514,-0.98017,-0.387,-2.6572,-0.069048,-3.4382,0.018286,-1.2871,0.31438,-0.56041,0.33264,-0.49784,0.22192,-2.4142
0.015602,0.03061,0.049042,0.018597,-0.25688,-0.16588,0.14044,-0.1374,-0.43575,0.35091,0.15332,-1.1269,-0.42148,-3.0951,-0.1243,-3.8363,0.011134,-1.1364,0.3504,-0.35354,0.34087,-0.039957,0.24616,-2.3234
0.018472,0.031842,0.045712,0.023321,-0.29793,-0.23152,0.068586,-0.17729,-0.32724,0.36494,0.15436,-1.2374,-0.44266,-3.5399,-0.15416,-4.2144,0.0025589,-0.95221,0.38952,-0.19583,0.34216,0.3537,0.23594,-2.2591
0.018429,0.028673,0.038499,0.023326,-0.35267,-0.29901,-0.011362,-0.22543,-0.2289,0.3684,0.15116,-1.3184,-0.45915,-3.9401,-0.16256,-4.5228,-0.0025968,-0.77524,0.40495,-0.1014,0.34676,0.64068,0.19682,-2.2799
0.016346,0.025712,0.030442,0.021302,-0.40932,-0.35962,-0.088015,-0.28333,-0.14297,0.35779,0.15046,-1.375,-0.48314,-4.2533,-0.16204,-4.7338,-0.0019222,-0.64656,0.37437,-0.056797,0.36379,0.80048,0.14175,-2.4099
0.014535,0.027846,0.025508,0.019828,-0.4438,-0.40926,-0.14836,-0.3484,-0.06757,0.33464,0.15712,-1.4049,-0.52083,-4.4585,-0.16615,-4.8389,0.0032601,-0.58415,0.29457,-0.02893,0.39221,0.8364,0.083973,-2.6262
0.014636,0.035766,0.026389,0.01976,-0.43392,-0.44743,-0.18683,-0.41188,-0.0023108,0.30214,0.17057,-1.4037,-0.56519,-4.5575,-0.18297,-4.842,0.0091635,-0.56947,0.1837,0.017348,0.41895,0.77977,0.033382,-2.8699
0.016048,0.044727,0.03241,0.020265,-0.37402,-0.47111,-0.20846,-0.46047,0.0495,0.2609,0.18574,-1.3763,-0.59725,-4.5658,-0.21254,-4.7551,0.012113,-0.55598,0.070828,0.10178,0.4277,0.68463,-0.0035344,-3.0784
0.016369,0.048019,0.039326,0.01998,-0.27931,-0.47091,-0.22293,-0.48192,0.082981,0.20567,0.19722,-1.3421,-0.5967,-4.5011,-0.24808,-4.5953,0.010568,-0.49516,-0.018481,0.22159,0.41272,0.60357,-0.023283,-3.2163
0.013502,0.042315,0.041713,0.018042,-0.17762,-0.43566,-0.23421,-0.47092,0.095639,0.12568,0.20269,-1.3297,-0.55534,-4.3776,-0.27978,-4.3806,0.0055309,-0.36204,-0.07083,0.35791,0.38599,0.55497,-0.026335,-3.2869
0.007611,0.030363,0.036587,0.014379,-0.095019,-0.36334,-0.23495,-0.43127,0.089794,0.009932,0.20317,-1.3637,-0.48368,-4.2045,-0.2986,-4.1237,-0.00046667,-0.16465,-0.084749,0.48925,0.37036,0.50875,-0.018319,-3.3175
0.0012856,0.01887,0.025702,0.0096112,-0.044592,-0.26985,-0.21165,-0.37339,0.071902,-0.14503,0.20104,-1.4498,-0.40509,-3.9866,-0.29866,-3.8311,-0.004936,0.064599,-0.065921,0.60135,0.38286,0.40862,-0.0088409,-3.3321
-0.0021682,0.013643,0.0147,0.0051269,-0.023847,-0.18674,-0.15773,-0.31019,0.049572,-0.33025,0.19813,-1.5685,-0.34059,-3.723,-0.27768,-3.5077,-0.0066609,0.28482,-0.023836,0.68715,0.42092,0.2185,-0.0072669,-3.3324
-0.00090444,0.016106,0.0095345,0.0031373,-0.020347,-0.14729,-0.084487,-0.25448,0.02822,-0.5269,0.19553,-1.6794,-0.29496,-3.4091,-0.23649,-3.1639,-0.0060342,0.45895,0.028538,0.74048,0.46302,-0.043961,-0.018017,-3.297
0.0044293,0.023598,0.012599,0.0060048,-0.02075,-0.16885,-0.019879,-0.21768,0.0090645,-0.71524,0.1943,-1.7376,-0.25459,-3.0452,-0.17861,-2.818,-0.0043333,0.56007,0.075294,0.75318,0.4836,-0.31593,-0.038898,-3.1952
0.011357,0.032339,0.021244,0.014704,-0.017735,-0.24274,0.0061712,-0.20725,-0.010667,-0.8838,0.19541,-1.7137,-0.19866,-2.6478,-0.11036,-2.4914,-0.0022721,0.57654,0.10164,0.72163,0.47055,-0.53392,-0.063589,-3.0029
0.017208,0.040081,0.029686,0.027477,-0.011355,-0.33846,-0.018923,-0.22187,-0.035372,-1.0323,0.19842,-1.6074,-0.11563,-2.2533,-0.040537,-2.2008,0.0012588,0.51859,0.10021,0.65874,0.43148,-0.67722,-0.085881,-2.712
0.020504,0.046563,0.032909,0.040164,-0.0050314,-0.41967,-0.080323,-0.24833,-0.067583,-1.1665,0.20063,-1.4464,-0.012471,-1.9073,0.021188,-1.9537,0.0091604,0.42045,0.074368,0.59873,0.38446,-0.77535,-0.10212,-2.3315
0.021337,0.052319,0.029753,0.048503,0.00017902,-0.46279,-0.14314,-0.26541,-0.10531,-1.2905,0.19843,-1.269,0.089624,-1.6457,0.066727,-1.7524,0.024382,0.3299,0.034499,0.58519,0.34161,-0.87744,-0.11053,-1.8837
0.020837,0.057566,0.023138,0.050817,0.0082008,-0.46741,-0.17339,-0.25542,-0.14219,-1.4013,0.19044,-1.102,0.16895,-1.4842,0.091118,-1.5988,0.047401,0.28493,-0.010897,0.64522,0.29941,-1.0133,-0.10941,-1.3988
0.020286,0.062015,0.017486,0.048836,0.024893,-0.4532,-0.15866,-0.21615,-0.17077,-1.4899,0.18008,-0.94868,0.21533,-1.4238,0.091875,-1.4947,0.074812,0.29072,-0.062152,0.76613,0.24325,-1.1779,-0.097201,-0.91125
0.020435,0.065065,0.015494,0.045841,0.051544,-0.44599,-0.1143,-0.16359,-0.18694,-1.5456,0.17474,-0.79571,0.23207,-1.4646,0.067163,-1.4367,0.10036,0.31451,-0.12721,0.89335,0.16142,-1.3446,-0.075074,-0.45518
0.021193,0.065598,0.016624,0.043657,0.080656,-0.46182,-0.071226,-0.12168,-0.19216,-1.5599,0.18158,-0.63174,0.22852,-1.6082,0.015694,-1.4117,0.11797,0.3056,-0.21263,0.95571,0.056314,-1.4857,-0.049506,-0.062362
0.021691,0.061696,0.018145,0.041151,0.098657,-0.49873,-0.054551,-0.10644,-0.19166,-1.5288,0.2028,-0.46251,0.21232,-1.8389,-0.059802,-1.401,0.12469,0.22921,-0.31408,0.90457,-0.056564,-1.579,-0.031439,0.24101
0.020719,0.051342,0.017449,0.035529,0.094559,-0.54057,-0.06827,-0.11693,-0.19015,-1.4545,0.23414,-0.30882,0.18872,-2.097,-0.14756,-1.3918,0.1216,0.09124,-0.41473,0.74261,-0.15992,-1.6019,-0.031252,0.44023
0.017454,0.034401,0.013684,0.025186,0.068071,-0.56918,-0.095838,-0.13955,-0.18876,-1.3476,0.26782,-0.1892,0.16645,-2.2768,-0.22564,-1.3854,0.1123,-0.062876,-0.49347,0.52313,-0.24617,-1.5328,-0.052586,0.54183
0.012197,0.014406,0.0077209,0.011466,0.030352,-0.57588,-0.1142,-0.16108,-0.18608,-1.2274,0.29785,-0.10195,0.16163,-2.2634,-0.26876,-1.3925,0.10063,-0.17376,-0.5369,0.32032,-0.31949,-1.3717,-0.089634,0.58289
0.0065314,-0.0020225,0.0010972,-0.0022602,-0.0035504,-0.56474,-0.10937,-0.17854,-0.18215,-1.1181,0.32358,-0.02214,0.19207,-1.9949,-0.26149,-1.417,0.089224,-0.20031,-0.54581,0.18967,-0.38781,-1.164,-0.13025,0.63083
0.0025444,-0.0086963,-0.0047813,-0.013263,-0.024469,-0.54683,-0.082074,-0.19812,-0.18159,-1.0408,0.34916,0.083739,0.264,-1.5047,-0.2093,-1.4416,0.079483,-0.13866,-0.53149,0.14285,-0.45303,-0.99598,-0.16302,0.76622
0.0014629,-0.0041193,-0.0086712,-0.021323,-0.033139,-0.53129,-0.041331,-0.22605,-0.19223,-1.0052,0.37945,0.23705,0.36214,-0.91157,-0.13877,-1.4291,0.071982,-0.01945,-0.50569,0.15047,-0.50898,-0.94907,-0.1836,1.0507
0.0027282,0.0069825,-0.0093627,-0.028056,-0.035793,-0.52066,0.0063975,-0.26101,-0.21993,-1.0058,0.41579,0.43595,0.45364,-0.35846,-0.084478,-1.3435,0.066507,0.11023,-0.47267,0.16701,-0.54861,-1.0408,-0.19638,1.4949
0.0044063,0.016551,-0.0061603,-0.034401,-0.03627,-0.51274,0.062503,-0.29501,-0.26386,-1.0262,0.45479,0.66093,0.50552,0.056013,-0.070021,-1.1762,0.061799,0.20691,-0.42925,0.1596,-0.573,-1.2032,-0.21068,2.044
0.0047557,0.018587,0.00016673,-0.038854,-0.032429,-0.50537,0.13227,-0.32043,-0.31627,-1.0445,0.49081,0.89098,0.50363,0.30912,-0.095608,-0.95807,0.055932,0.24293,-0.3715,0.1232,-0.59296,-1.3248,-0.23429,2.5942
0.0036625,0.012929,0.0070049,-0.038418,-0.020041,-0.49848,0.21677,-0.3352,-0.36701,-1.0376,0.52012,1.1174,0.45889,0.43374,-0.14036,-0.74672,0.047601,0.20901,-0.30144,0.07642,-0.62067,-1.333,-0.26809,3.0311
0.0026183,0.0045571,0.010936,-0.031699,0.00021666,-0.49153,0.30916,-0.34106,-0.40891,-0.98087,0.54346,1.3462,0.39692,0.47412,-0.17719,-0.59648,0.037401,0.11108,-0.22836,0.04534,-0.65889,-1.25,-0.30471,3.2741
0.0031696,-0.00071294,0.0098305,-0.021345,0.020257,-0.48019,0.39914,-0.33764,-0.43964,-0.84972,0.56487,1.5894,0.34001,0.45929,-0.18961,-0.53066,0.027683,-0.033612,-0.1643,0.047903,-0.6985,-1.1795,-0.33166,3.3013
0.0052272,-0.0005027,0.00451,-0.013294,0.029807,-0.45702,0.48116,-0.32028,-0.45956,-0.62883,0.58728,1.8508,0.2957,0.41164,-0.17925,-0.53396,0.020764,-0.19958,-0.11815,0.087832,-0.72786,-1.2306,-0.33753,3.1444
0.0068785,0.0030754,-0.0014191,-0.013004,0.025023,-0.41723,0.55825,-0.28518,-0.46858,-0.32708,0.60828,2.1147,0.25864,0.37052,-0.16063,-0.56777,0.016928,-0.35635,-0.092462,0.15835,-0.74637,-1.44,-0.31826,2.8606
0.0060407,0.0057849,-0.0037063,-0.021561,0.012552,-0.3649,0.63673,-0.2376,-0.46578,0.01277,0.61955,2.3445,0.22118,0.39572,-0.14889,-0.59529,0.014211,-0.474,-0.084069,0.24984,-0.76837,-1.7469,-0.27978,2.5014
0.0025493,0.0046321,-0.00021885,-0.034812,0.0050234,-0.31343,0.71599,-0.19397,-0.45177,0.32381,0.61165,2.4938,0.18143,0.53738,-0.14992,-0.59834,0.010452,-0.53172,-0.086815,0.35495,-0.81114,-2.0314,-0.23449,2.0997
-0.0012696,-0.00032248,0.0075607,-0.046188,0.011589,-0.27844,0.78227,-0.17346,-0.43073,0.54639,0.58153,2.5276,0.14269,0.79542,-0.1589,-0.57626,0.0059019,-0.52687,-0.094464,0.46811,-0.87486,-2.1759,-0.19266,1.6811
-0.0022588,-0.0064052,0.01537,-0.050884,0.031456,-0.26767,0.81317,-0.18422,-0.4089,0.66423,0.53741,2.4426,0.10683,1.1064,-0.16635,-0.5322,0.0038066,-0.47953,-0.10299,0.58161,-0.93198,-2.1069,-0.15375,1.2888
0.00095167,-0.010015,0.018823,-0.048204,0.05547,-0.27568,0.79075,-0.21584,-0.39023,0.71799,0.49628,2.273,0.06966,1.3736,-0.1658,-0.46131,0.0080087,-0.42697,-0.11184,0.68219,-0.93839,-1.802,-0.10473,0.99418
0.0066016,-0.0083348,0.016128,-0.040746,0.073763,-0.2878,0.71399,-0.24566,-0.37309,0.78074,0.47455,2.0736,0.02309,1.517,-0.1576,-0.35239,0.019343,-0.40744,-0.12323,0.7519,-0.86131,-1.2816,-0.028723,0.87657
0.010975,-0.00058541,0.0090569,-0.031785,0.082683,-0.29124,0.60095,-0.2558,-0.3516,0.90895,0.47781,1.8891,-0.038828,1.5049,-0.14733,-0.20229,0.034034,-0.4397,-0.1391,0.77345,-0.70405,-0.60448,0.080634,0.97926
0.011204,0.011293,0.0015484,-0.02333,0.085782,-0.28561,0.47881,-0.24846,-0.32071,1.1053,0.49772,1.7315,-0.11632,1.3459,-0.1413,-0.031231,0.045831,-0.51063,-0.15713,0.73746,-0.50854,0.13732,0.20939,1.2707
0.0073927,0.023003,-0.0030151,-0.016056,0.089419,-0.28555,0.36899,-0.24754,-0.28079,1.324,0.51875,1.5847,-0.20643,1.0602,-0.14312,0.11431,0.05036,-0.58069,-0.16957,0.64746,-0.33303,0.84049,0.32687,1.6452
0.0023441,0.029782,-0.0038759,-0.010338,0.09802,-0.31363,0.27837,-0.28478,-0.2379,1.5147,0.53017,1.4316,-0.30888,0.66372,-0.15341,0.17622,0.048098,-0.60644,-0.16699,0.51987,-0.22113,1.4302,0.4017,1.9699
-0.00077504,0.029251,-0.0028439,-0.0067793,0.11331,-0.38805,0.20237,-0.38017,-0.19986,1.6671,0.53385,1.2825,-0.42867,0.18034,-0.17205,0.11126,0.04338,-0.56696,-0.14543,0.37863,-0.1836,1.8912,0.41962,2.1525
-0.00079355,0.023224,-0.0023344,-0.0057015,0.13724,-0.51261,0.1364,-0.5301,-0.17204,1.815,0.54174,1.1771,-0.57173,-0.3354,-0.20031,-0.082458,0.040278,-0.47647,-0.11135,0.24641,-0.20208,2.2602,0.39006,2.183
0.00095958,0.016549,-0.003266,-0.0064701,0.17443,-0.67431,0.085123,-0.71026,-0.15627,1.9924,0.56535,1.1563,-0.73599,-0.79693,-0.24017,-0.35104,0.038947,-0.37358,-0.079655,0.13586,-0.24704,2.5793,0.33734,2.1216
0.0021188,0.013256,-0.0046363,-0.0078282,0.23073,-0.84884,0.061015,-0.88952,-0.15297,2.1826,0.60592,1.227,-0.90475,-1.1165,-0.2908,-0.59138,0.035607,-0.29395,-0.064844,0.044867,-0.29396,2.8482,0.28396,2.0446
0.0011768,0.013007,-0.0050133,-0.009127,0.30833,-1.0098,0.072758,-1.0442,-0.16319,2.3093,0.65319,1.3508,-1.0487,-1.2471,-0.34476,-0.68207,0.026125,-0.24462,-0.071286,-0.040514,-0.32898,3.0176,0.23897,1.9898
-0.0017884,0.01123,-0.0043627,-0.011079,0.40187,-1.1366,0.11317,-1.1641,-0.18805,2.2851,0.69279,1.4661,-1.137,-1.2011,-0.38781,-0.53224,0.010025,-0.19802,-0.089684,-0.13495,-0.34651,3.0332,0.19881,1.942
-0.0057867,0.0034026,-0.0043381,-0.014905,0.49962,-1.2181,0.15765,-1.2491,-0.22604,2.0818,0.71575,1.5273,-1.1524,-1.0334,-0.40421,-0.12818,-0.0084625,-0.10959,-0.10272,-0.23976,-0.34658,2.8916,0.15699,1.8625
-0.0099317,-0.01003,-0.0067327,-0.020452,0.58985,-1.2514,0.17638,-1.3016,-0.27147,1.76,0.7222,1.5269,-1.101,-0.80383,-0.38494,0.44993,-0.023055,0.052563,-0.096299,-0.33569,-0.33457,2.6593,0.11268,1.7319
-0.013748,-0.022808,-0.011687,-0.025275,0.6678,-1.2387,0.15227,-1.3211,-0.31655,1.4327,0.71802,1.4864,-1.0095,-0.55033,-0.33322,1.0592,-0.029369,0.28594,-0.068943,-0.39094,-0.31946,2.4348,0.071033,1.5683
-0.016776,-0.027539,-0.017507,-0.026111,0.73774,-1.1851,0.091615,-1.3051,-0.35562,1.1889,0.70851,1.4255,-0.91227,-0.28514,-0.26246,1.5622,-0.027011,0.55362,-0.033155,-0.38234,-0.30714,2.2852,0.037123,1.4082
-0.018305,-0.022237,-0.022254,-0.021885,0.8081,-1.0977,0.019342,-1.2528,-0.38782,1.0414,0.69496,1.3406,-0.8325,-0.0063509,-0.18755,1.8938,-0.018611,0.80559,-0.0081387,-0.31627,-0.29259,2.2058,0.010809,1.2736
-0.017788,-0.012851,-0.025428,-0.015543,0.8828,-0.98814,-0.03753,-1.1699,-0.41519,0.93869,0.67547,1.2111,-0.77217,0.29267,-0.11588,2.0817,-0.0072927,1.0071,-0.0088585,-0.23225,-0.25969,2.1336,-0.012354,1.1575
-0.015554,-0.0090475,-0.028002,-0.012608,0.95576,-0.87315,-0.066132,-1.0682,-0.43781,0.82371,0.64734,1.0252,-0.71517,0.62082,-0.0455,2.2119,0.004997,1.1552,-0.0386,-0.18343,-0.19209,2.0008,-0.035845,1.0391
-0.012924,-0.01656,-0.030905,-0.017185,1.0133,-0.77113,-0.072066,-0.96136,-0.45049,0.68625,0.60785,0.80018,-0.64243,0.98531,0.027902,2.3663,0.017229,1.2732,-0.089328,-0.20564,-0.088306,1.7858,-0.058626,0.91292
-0.011384,-0.032752,-0.033769,-0.028671,1.043,-0.6951,-0.069881,-0.85847,-0.44472,0.56384,0.5536,0.57573,-0.54742,1.3801,0.10125,2.5842,0.028076,1.3873,-0.14834,-0.297,0.032071,1.5246,-0.077076,0.8004
-0.011443,-0.049382,-0.035389,-0.042132,1.0431,-0.64594,-0.068607,-0.75993,-0.41467,0.49787,0.48101,0.38435,-0.44088,1.7749,0.16093,2.8675,0.035425,1.5027,-0.2053,-0.42308,0.13742,1.2791,-0.090195,0.73473
-0.012267,-0.060075,-0.035376,-0.052205,1.0244,-0.61274,-0.064939,-0.66067,-0.36218,0.49026,0.38959,0.22419,-0.34155,2.1224,0.19069,3.2113,0.037258,1.5954,-0.25407,-0.54276,0.20238,1.0897,-0.10243,0.73182
-0.012511,-0.065653,-0.034988,-0.057172,1.0029,-0.58243,-0.050153,-0.55872,-0.29587,0.5012,0.28582,0.058271,-0.26047,2.3867,0.18503,3.6134,0.033041,1.6281,-0.28899,-0.6345,0.22137,0.94566,-0.12092,0.77327
-0.011689,-0.072416,-0.035985,-0.059585,0.98977,-0.55329,-0.024955,-0.46311,-0.22487,0.48635,0.18332,-0.15659,-0.19162,2.5757,0.157,4.0456,0.024379,1.5769,-0.30061,-0.70315,0.20814,0.79213,-0.14967,0.81398
-0.010841,-0.085052,-0.038571,-0.062954,0.98546,-0.54123,-0.0086398,-0.39343,-0.15251,0.43488,0.097411,-0.43227,-0.11605,2.7461,0.13213,4.4161,0.014499,1.4511,-0.27681,-0.76426,0.18445,0.56695,-0.18615,0.80731
-0.011746,-0.10091,-0.040722,-0.067641,0.98244,-0.57137,-0.032092,-0.369,-0.075679,0.37188,0.036777,-0.73149,-0.016444,2.9682,0.13146,4.5771,0.0071215,1.2914,-0.21042,-0.82113,0.16883,0.24305,-0.22349,0.73041
-0.015191,-0.11118,-0.039874,-0.069923,0.97294,-0.65893,-0.11689,-0.39473,0.0093528,0.32529,-0.0017901,-0.98367,0.10954,3.2716,0.15641,4.3963,0.0053436,1.148,-0.10727,-0.8546,0.17377,-0.14814,-0.25604,0.59756
-0.019748,-0.10807,-0.035453,-0.065234,0.95458,-0.79367,-0.25551,-0.4554,0.10003,0.29258,-0.031481,-1.125,0.24722,3.612,0.18763,3.8506,0.01072,1.0543,0.012959,-0.8339,0.2096,-0.52421,-0.28288,0.4585
-0.022282,-0.091614,-0.029706,-0.052717,0.92951,-0.94171,-0.40923,-0.5251,0.18617,0.24138,-0.067359,-1.1368,0.37596,3.8897,0.20008,3.0659,0.022476,1.0146,0.12593,-0.73898,0.28672,-0.78506,-0.306,0.38316
-0.020128,-0.070031,-0.02591,-0.036865,0.89947,-1.0657,-0.52815,-0.58609,0.25605,0.14397,-0.11769,-1.058,0.48486,4.0096,0.18283,2.2607,0.037248,1.0125,0.2164,-0.57579,0.41125,-0.85425,-0.32513,0.43465
-0.01337,-0.053573,-0.025654,-0.024671,0.86245,-1.1485,-0.58071,-0.64295,0.30505,0.011156,-0.18053,-0.96503,0.5814,3.9417,0.14852,1.6278,0.050007,1.031,0.28623,-0.37265,0.57709,-0.70852,-0.33464,0.63721
-0.0052974,-0.047437,-0.02777,-0.020722,0.8146,-1.2023,-0.57153,-0.71941,0.33923,-0.11006,-0.24729,-0.93229,0.68586,3.7387,0.12483,1.2414,0.056228,1.0657,0.3504,-0.16128,0.76307,-0.38353,-0.32615,0.95458
-0.00036936,-0.049728,-0.029764,-0.024473,0.75516,-1.2541,-0.53484,-0.83903,0.3705,-0.17655,-0.30979,-0.99653,0.81495,3.5005,0.13455,1.053,0.054161,1.1247,0.42373,0.042077,0.93956,0.043819,-0.29507,1.297
-0.0010293,-0.055379,-0.030135,-0.031867,0.6893,-1.3209,-0.50876,-1.0035,0.40739,-0.19153,-0.36545,-1.145,0.96589,3.3144,0.17951,0.96616,0.045561,1.2151,0.50852,0.24124,1.0804,0.48495,-0.24552,1.5612
-0.0059039,-0.061563,-0.02933,-0.039503,0.62561,-1.3933,-0.5095,-1.1847,0.4493,-0.2091,-0.41731,-1.3304,1.1129,3.2111,0.24002,0.91818,0.034189,1.3323,0.59198,0.44804,1.1709,0.86699,-0.1891,1.6826
-0.010988,-0.069361,-0.028707,-0.04733,0.57023,-1.441,-0.5233,-1.3369,0.48914,-0.29272,-0.47006,-1.5008,1.2197,3.1644,0.289,0.90295,0.023225,1.4599,0.65508,0.66431,1.2068,1.1479,-0.13828,1.6669
-0.012974,-0.080673,-0.028995,-0.057449,0.52258,-1.4346,-0.51942,-1.4197,0.52164,-0.46139,-0.52614,-1.6231,1.2608,3.1242,0.30934,0.93255,0.013647,1.581,0.68569,0.87283,1.1874,1.3179,-0.099716,1.5765
-0.011933,-0.094137,-0.029934,-0.070382,0.47652,-1.3649,-0.47248,-1.4168,0.54958,-0.67008,-0.58491,-1.6905,1.237,3.0544,0.30203,0.99342,0.0048167,1.69,0.68708,1.0454,1.1113,1.3924,-0.072675,1.4816
-0.010958,-0.10457,-0.031197,-0.08269,0.4261,-1.2452,-0.3783,-1.3393,0.58211,-0.84304,-0.64494,-1.7117,1.1746,2.9506,0.28114,1.0493,-0.0035205,1.7949,0.67708,1.1633,0.97946,1.402,-0.05292,1.4135
-0.013016,-0.10675,-0.033121,-0.088595,0.37163,-1.0982,-0.25484,-1.2155,0.62608,-0.93395,-0.70631,-1.6975,1.1084,2.833,0.2618,1.0867,-0.0098556,1.9108,0.67988,1.2346,0.80076,1.3821,-0.037872,1.3525
-0.017856,-0.099929,-0.036119,-0.084504,0.32138,-0.94062,-0.13157,-1.0763,0.67804,-0.96401,-0.77039,-1.6545,1.0604,2.7275,0.25137,1.1491,-0.011603,2.0507,0.71608,1.2948,0.5931,1.3635,-0.028476,1.2589
-0.021915,-0.088824,-0.039367,-0.072421,0.28727,-0.77787,-0.036067,-0.94559,0.72407,-1.0076,-0.83697,-1.5904,1.0301,2.6518,0.24912,1.3133,-0.0073464,2.2181,0.79526,1.3849,0.37554,1.3623,-0.026893,1.1148
-0.02146,-0.079973,-0.040518,-0.059009,0.27734,-0.61036,0.015245,-0.83781,0.74839,-1.1379,-0.9017,-1.5214,1.0004,2.6123,0.25207,1.6189,0.0014091,2.4056,0.91298,1.5225,0.15795,1.3758,-0.033172,0.94427
-0.016147,-0.076621,-0.037246,-0.0508,0.28965,-0.44126,0.020604,-0.75888,0.74421,-1.3765,-0.95683,-1.4739,0.95505,2.6046,0.26034,2.014,0.010704,2.5921,1.0523,1.6845,-0.061957,1.3874,-0.044471,0.79472
-0.0096111,-0.076436,-0.029423,-0.04946,0.31243,-0.27598,-0.0076376,-0.70519,0.71837,-1.6829,-0.99575,-1.4754,0.8913,2.6131,0.27724,2.3698,0.016665,2.7414,1.1894,1.8183,-0.28996,1.3801,-0.05737,0.6987
-0.0064317,-0.073754,-0.0198,-0.051057,0.33086,-0.11391,-0.046725,-0.66071,0.68618,-1.9864,-1.0182,-1.5416,0.81937,2.6094,0.30477,2.5594,0.018111,2.8043,1.3016,1.8761,-0.52153,1.3496,-0.070625,0.64771
-0.0082187,-0.064299,-0.01228,-0.049868,0.33697,0.058124,-0.070537,-0.59677,0.66079,-2.2302,-1.0321,-1.6674,0.75021,2.5573,0.33904,2.5374,0.01707,2.733,1.375,1.8478,-0.73546,1.305,-0.085701,0.59722
-0.012478,-0.048564,-0.0091434,-0.043459,0.3362,0.2613,-0.05928,-0.47972,0.64547,-2.3923,-1.0498,-1.8271,0.68413,2.4259,0.36989,2.3581,0.016797,2.5063,1.4073,1.768,-0.90196,1.2553,-0.10506,0.49619
-0.015246,-0.03147,-0.0095618,-0.03475,0.3457,0.5095,-0.0085564,-0.28615,0.63432,-2.4773,-1.0815,-1.9821,0.61058,2.2065,0.38492,2.1205,0.018955,2.1507,1.4051,1.6901,-1.0001,1.1914,-0.13031,0.31744
-0.014843,-0.018928,-0.010545,-0.029421,0.38422,0.79401,0.066889,-0.018123,0.62008,-2.4947,-1.1297,-2.0929,0.51903,1.919,0.37489,1.8922,0.022309,1.7411,1.3781,1.6487,-1.0306,1.0841,-0.16186,0.068659
-0.013058,-0.014009,-0.0093198,-0.030926,0.45951,1.0814,0.13783,0.29229,0.60208,-2.4488,-1.1899,-2.1312,0.41022,1.6018,0.33702,1.6729,0.023891,1.3706,1.3348,1.6393,-1.0142,0.90552,-0.19915,-0.2192
-0.012686,-0.015253,-0.0050998,-0.037312,0.56101,1.329,0.17262,0.59557,0.58845,-2.3471,-1.2538,-2.0903,0.29696,1.2917,0.27498,1.4216,0.021509,1.1032,1.2815,1.6313,-0.97539,0.66299,-0.23967,-0.51434
-0.014047,-0.017857,0.00096576,-0.042465,0.66249,1.5103,0.15183,0.85004,0.5917,-2.2118,-1.3151,-1.9901,0.19354,1.0076,0.1968,1.114,0.015482,0.9412,1.2224,1.5992,-0.92614,0.41709,-0.277,-0.80174
-0.01417,-0.016596,0.0071467,-0.040727,0.7333,1.6338,0.078672,1.0459,0.62181,-2.0778,-1.3703,-1.8723,0.10353,0.75049,0.11263,0.77628,0.0083476,0.8301,1.159,1.5421,-0.86111,0.26254,-0.30043,-1.0866
-0.0096223,-0.0086274,0.012397,-0.031164,0.75115,1.741,-0.020177,1.2123,0.68183,-1.9745,-1.4175,-1.7852,0.017176,0.51717,0.03294,0.46841,0.0031013,0.70141,1.0882,1.4738,-0.76749,0.27643,-0.29892,-1.3841
-0.00026585,0.0051629,0.016624,-0.018145,0.70947,1.8848,-0.10517,1.4011,0.76736,-1.9075,-1.4543,-1.7644,-0.079091,0.31449,-0.032991,0.23693,0.0015077,0.5212,1.0021,1.3967,-0.6408,0.46695,-0.26806,-1.7048
0.0098368,0.02066,0.020182,-0.00793,0.61632,2.098,-0.14222,1.6551,0.868,-1.8559,-1.478,-1.8201,-0.19001,0.16101,-0.078641,0.081714,0.003594,0.30935,0.89326,1.288,-0.49373,0.7598,-0.21457,-2.046
0.015433,0.032517,0.023356,-0.0040853,0.48766,2.3728,-0.1201,1.9803,0.96883,-1.7906,-1.4876,-1.9387,-0.30717,0.075515,-0.10101,-0.034072,0.0082101,0.11628,0.76129,1.1175,-0.35187,1.0342,-0.15342,-2.3944
0.014347,0.036852,0.026253,-0.0052532,0.33986,2.664,-0.056996,2.3388,1.0522,-1.6977,-1.4861,-2.0979,-0.41648,0.06378,-0.099937,-0.14132,0.013852,-0.021129,0.61598,0.8822,-0.24036,1.1842,-0.0982,-2.7359
0.0091838,0.033482,0.028893,-0.0067691,0.18562,2.9139,0.0089815,2.6675,1.1011,-1.59,-1.4786,-2.2839,-0.50989,0.11581,-0.076534,-0.22825,0.0192,-0.10774,0.47202,0.62326,-0.1712,1.1638,-0.051874,-3.0599
0.0050517,0.026365,0.031126,-0.0045028,0.033689,3.0832,0.040816,2.9118,1.1049,-1.4976,-1.4703,-2.499,-0.59019,0.21531,-0.032711,-0.24177,0.023429,-0.18146,0.33943,0.40392,-0.13899,0.99126,-0.005728,-3.3496
0.0054394,0.021542,0.032398,0.0022695,-0.10968,3.1688,0.022649,3.0521,1.0633,-1.4473,-1.4643,-2.7558,-0.66476,0.35078,0.027188,-0.12663,0.026474,-0.27999,0.21742,0.26325,-0.12602,0.71981,0.052056,-3.5654
0.0097662,0.023413,0.031791,0.011042,-0.23988,3.1965,-0.033988,3.1076,0.9866,-1.4455,-1.4623,-3.0637,-0.73484,0.51634,0.093945,0.12916,0.029142,-0.41507,0.097269,0.18572,-0.1121,0.40899,0.12506,-3.6432
0.014342,0.031716,0.028584,0.01866,-0.35469,3.1986,-0.10136,3.118,0.88991,-1.4781,-1.466,-3.4195,-0.79084,0.70077,0.15349,0.47866,0.032679,-0.5766,-0.028712,0.11463,-0.083033,0.11699,0.20419,-3.5186
0.015506,0.041541,0.022982,0.023734,-0.45597,3.1909,-0.15544,3.1156,0.7869,-1.5239,-1.4769,-3.8074,-0.81831,0.87655,0.19142,0.84198,0.037817,-0.75915,-0.1603,-0.0012262,-0.033811,-0.090625,0.27417,-3.1673
0.012248,0.046716,0.016365,0.026864,-0.55083,3.1675,-0.19017,3.1086,0.68578,-1.5711,-1.4941,-4.2052,-0.80862,1.0027,0.20009,1.154,0.043923,-0.98201,-0.29096,-0.16923,0.034058,-0.14082,0.32541,-2.6272
0.006531,0.044225,0.010711,0.028985,-0.65021,3.1128,-0.2171,3.0852,0.58979,-1.62,-1.5125,-4.5883,-0.76498,1.0438,0.18344,1.3981,0.049065,-1.2799,-0.41619,-0.35679,0.11817,0.023047,0.36104,-1.9798
0.0015897,0.036344,0.007578,0.030011,-0.76404,3.0204,-0.25312,3.0319,0.49939,-1.6725,-1.5243,-4.9286,-0.69929,0.99225,0.15513,1.6017,0.051129,-1.6691,-0.5408,-0.53285,0.21924,0.40515,0.39295,-1.3034
-0.00024187,0.02887,0.0074322,0.029388,-0.89405,2.9015,-0.30764,2.9502,0.413,-1.7172,-1.5237,-5.1946,-0.62448,0.87498,0.13058,1.8005,0.049158,-2.1189,-0.67894,-0.70802,0.33991,0.93833,0.43018,-0.63886
0.0012614,0.026912,0.0097367,0.027872,-1.0281,2.7772,-0.3782,2.8579,0.32599,-1.7274,-1.5115,-5.3602,-0.55024,0.73868,0.11818,2.0003,0.043741,-2.5559,-0.84728,-0.93579,0.47858,1.5025,0.46968,0.0016756
0.0044531,0.031545,0.013521,0.028193,-1.141,2.6636,-0.45463,2.7747,0.23066,-1.6777,-1.4955,-5.4212,-0.48499,0.62336,0.11562,2.1658,0.036069,-2.9048,-1.0573,-1.2721,0.62344,1.9723,0.49734,0.59625
0.0071098,0.0397,0.01778,0.03319,-1.2041,2.5627,-0.52481,2.7063,0.11946,-1.566,-1.4863,-5.4045,-0.4392,0.54401,0.11339,2.2443,0.026514,-3.1359,-1.3117,-1.7278,0.75271,2.2647,0.49841,1.0919
0.0079332,0.046906,0.02141,0.04276,-1.2011,2.4683,-0.57594,2.6427,-0.0097608,-1.42,-1.4897,-5.3567,-0.42348,0.49089,0.10235,2.204,0.014194,-3.2845,-1.6043,-2.2533,0.84314,2.3602,0.46874,1.431
0.0073374,0.050351,0.023077,0.052707,-1.1395,2.3803,-0.59283,2.572,-0.15031,-1.2793,-1.5018,-5.3145,-0.44071,0.44326,0.079741,2.0561,-0.0018572,-3.4255,-1.9209,-2.7693,0.88151,2.2897,0.41773,1.6043
0.0069648,0.049958,0.02159,0.057218,-1.0514,2.3141,-0.55976,2.4994,-0.28825,-1.1664,-1.5102,-5.2782,-0.47935,0.38203,0.050244,1.8441,-0.020872,-3.6227,-2.2382,-3.2169,0.87066,2.1032,0.36127,1.6724
0.0082061,0.047204,0.016815,0.053363,-0.97839,2.294,-0.46954,2.4514,-0.4078,-1.0741,-1.499,-5.2128,-0.51564,0.29325,0.022537,1.6126,-0.03969,-3.891,-2.5249,-3.5896,0.82538,1.8413,0.31091,1.725
