2.6817e-010,1.7383e-009,1.3332e-009,1.1248e-009,1.3409e-009,1.3023e-009,-1.4026e-009,-2.6817e-010,-6.7526e-011,-6.2702e-010,1.5454e-009,-1.6399e-010,5.0297e-009,-7.287e-009,-7.1963e-010,-7.4722e-009,4.5204e-009,-1.2155e-010,6.0773e-010,-6.1545e-010,-2.7415e-009,1.063e-009,1.4643e-009,7.3912e-009
7.2987e-009,4.8055e-008,3.7079e-008,3.1097e-008,3.7234e-008,3.6832e-008,-3.8721e-008,-7.2678e-009,-1.4184e-009,-1.6953e-008,4.277e-008,-4.3812e-009,1.3886e-007,-2.0353e-007,-2.0075e-008,-2.1004e-007,1.2481e-007,-3.0887e-009,1.6775e-008,-1.6718e-008,-7.5886e-008,2.9715e-008,4.043e-008,2.0405e-007
9.6508e-008,6.4575e-007,5.0142e-007,4.1794e-007,5.0284e-007,5.0779e-007,-5.1948e-007,-9.5508e-008,-1.2786e-008,-2.2207e-007,5.7552e-007,-5.6524e-008,1.8632e-006,-2.7657e-006,-2.7244e-007,-2.8739e-006,1.6749e-006,-3.7694e-008,2.2526e-007,-2.2057e-007,-1.0217e-006,4.0336e-007,5.4243e-007,2.7379e-006
8.26e-007,5.6192e-006,4.3921e-006,3.6375e-006,4.4002e-006,4.549e-006,-4.5121e-006,-8.1008e-007,-5.4494e-008,-1.8765e-006,5.0164e-006,-4.6843e-007,1.6187e-005,-2.436e-005,-2.3966e-006,-2.5508e-005,1.4555e-005,-2.93e-007,1.9606e-006,-1.8828e-006,-8.9138e-006,3.5424e-006,4.711e-006,2.3789e-005
5.1439e-006,3.5588e-005,2.8006e-005,2.3041e-005,2.8048e-005,2.9783e-005,-2.8517e-005,-4.9777e-006,2.8044e-008,-1.1486e-005,3.1835e-005,-2.7963e-006,0.00010232,-0.00015634,-1.5363e-005,-0.00016512,9.2045e-005,-1.6181e-006,1.243e-005,-1.1682e-005,-5.6648e-005,2.2624e-005,2.9768e-005,0.00015043
2.4836e-005,0.00017477,0.0001385,0.00011318,0.00013878,0.00015196,-0.00013971,-2.3562e-005,2.0343e-006,-5.4191e-005,0.00015672,-1.2769e-005,0.00050136,-0.00077912,-7.6476e-005,-0.00083087,0.00045131,-6.6749e-006,6.1165e-005,-5.6104e-005,-0.0002794,0.00011196,0.00014579,0.00073762
9.6735e-005,0.00069227,0.00055253,0.00044838,0.00055462,0.00062922,-0.00055184,-8.9081e-005,1.5801e-005,-0.00020467,0.00062257,-4.6152e-005,0.0019805,-0.0031371,-0.00030762,-0.0033827,0.0017844,-2.0828e-005,0.00024297,-0.00021675,-0.0011127,0.00044676,0.00057568,0.0029174
0.0003122,0.0022709,0.0018254,0.0014711,0.0018391,0.0021742,-0.0018043,-0.00027477,7.7867e-005,-0.00063389,0.0020492,-0.00013438,0.0064747,-0.010484,-0.0010271,-0.011449,0.0058407,-4.7283e-005,0.00080008,-0.00069066,-0.0036738,0.0014763,0.0018815,0.0095565
0.00085094,0.0062836,0.0050858,0.0040718,0.0051574,0.0063975,-0.0049727,-0.00069778,0.00028878,-0.0016339,0.0056922,-0.00031578,0.017837,-0.029638,-0.0029013,-0.03285,0.016118,-6.2311e-005,0.0022248,-0.0018449,-0.010246,0.0041172,0.0051839,0.026408
0.0019862,0.014858,0.012102,0.0096322,0.012405,0.016279,-0.0117,-0.0014518,0.00085748,-0.0035306,0.013519,-0.00058547,0.041929,-0.071885,-0.0070303,-0.081062,0.037973,4.9942e-005,0.0052932,-0.0041697,-0.024456,0.0098258,0.012195,0.062363
0.0040112,0.03029,0.024804,0.019652,0.025863,0.036264,-0.023698,-0.0023983,0.0021018,-0.0063883,0.027691,-0.00078238,0.084776,-0.15115,-0.014765,-0.17393,0.077021,0.00061073,0.010875,-0.007995,-0.050418,0.020271,0.024709,0.12696
0.007065,0.053535,0.043992,0.034784,0.047127,0.071421,-0.041518,-0.0028049,0.0043229,-0.009547,0.049182,-0.00044144,0.14803,-0.27778,-0.02708,-0.32731,0.13511,0.002269,0.019405,-0.012924,-0.090306,0.036417,0.043332,0.224
0.010921,0.082234,0.06759,0.053584,0.075575,0.12544,-0.062969,-0.000986,0.00752,-0.011307,0.075887,0.0012732,0.22322,-0.44914,-0.04364,-0.54412,0.20516,0.0060287,0.030161,-0.017228,-0.14094,0.057285,0.065879,0.3431
0.014902,0.10974,0.089694,0.071913,0.10743,0.19802,-0.082396,0.0057084,0.011081,-0.0092673,0.10156,0.0053815,0.28908,-0.64315,-0.062126,-0.80449,0.26871,0.013059,0.040812,-0.017784,-0.19163,0.079223,0.086633,0.45533
0.018075,0.12687,0.10197,0.084063,0.13668,0.28326,-0.092135,0.020207,0.013773,-0.0015763,0.11716,0.012556,0.31711,-0.82266,-0.07868,-1.0664,0.30071,0.024267,0.047853,-0.011119,-0.22629,0.096725,0.097847,0.52005
0.019703,0.12658,0.097824,0.085737,0.15822,0.37053,-0.08634,0.044354,0.014324,0.011425,0.11517,0.022413,0.28605,-0.95349,-0.089751,-1.2819,0.28216,0.039805,0.048079,0.004516,-0.23051,0.10496,0.093627,0.5043
0.019662,0.10921,0.077284,0.077274,0.17142,0.4482,-0.06517,0.077516,0.012438,0.026463,0.094646,0.033114,0.19785,-1.0271,-0.094482,-1.424,0.21415,0.058854,0.040434,0.027225,-0.20055,0.10272,0.074178,0.4053
0.018477,0.084167,0.048874,0.064496,0.18132,0.50817,-0.036086,0.11622,0.0094824,0.038672,0.063445,0.041796,0.08303,-1.0702,-0.095795,-1.5035,0.12216,0.079884,0.026978,0.051439,-0.1475,0.093675,0.04711,0.25919
0.016875,0.065318,0.025753,0.055624,0.19539,0.54824,-0.010236,0.15549,0.0079835,0.044735,0.034798,0.046007,-0.012731,-1.1275,-0.098731,-1.5616,0.043827,0.10124,0.012078,0.070616,-0.091948,0.084495,0.023852,0.12466
0.015183,0.062165,0.017618,0.055776,0.21748,0.5703,0.0043412,0.1915,0.0098092,0.045783,0.019516,0.045456,-0.054639,-1.2266,-0.10664,-1.6352,0.005526,0.12148,0.00016715,0.081327,-0.051101,0.080784,0.012861,0.048559
0.013131,0.072977,0.023975,0.063071,0.24332,0.57546,0.0079202,0.22383,0.014272,0.047444,0.01915,0.04287,-0.039656,-1.3489,-0.11801,-1.7211,0.0044085,0.13909,-0.0064838,0.085559,-0.027365,0.083594,0.014359,0.036843
0.010293,0.085678,0.034427,0.069841,0.26196,0.56014,0.0084042,0.25561,0.017931,0.056287,0.025532,0.042874,0.0045899,-1.4357,-0.12691,-1.7674,0.010875,0.15148,-0.0085074,0.088713,-0.0075897,0.088953,0.020785,0.053938
0.0067934,0.086657,0.036543,0.068569,0.26271,0.51645,0.014981,0.29076,0.016836,0.074826,0.027434,0.049143,0.04297,-1.4292,-0.12734,-1.7059,-0.0086456,0.15437,-0.0084308,0.094093,0.025668,0.090543,0.022818,0.052105
0.0035568,0.071059,0.025454,0.057998,0.24274,0.43707,0.031083,0.32967,0.009778,0.098899,0.019212,0.061569,0.059611,-1.3177,-0.11845,-1.5003,-0.066059,0.14249,-0.0089034,0.098247,0.079577,0.08332,0.016297,0.0078551
0.0017273,0.046409,0.0073406,0.044307,0.20907,0.32118,0.052298,0.36573,-0.00018652,0.11973,0.0044184,0.075698,0.066108,-1.1485,-0.10606,-1.1713,-0.1439,0.11212,-0.011423,0.091903,0.14495,0.065628,0.004642,-0.063805
0.0017009,0.026635,-0.006156,0.036177,0.17312,0.17711,0.070638,0.38476,-0.0076295,0.12943,-0.0084155,0.085308,0.085024,-0.9958,-0.098847,-0.77693,-0.21149,0.064245,-0.016035,0.067114,0.20333,0.039131,-0.0047844,-0.12733
0.0026886,0.021394,-0.0078424,0.037766,0.14211,0.020274,0.08109,0.36819,-0.0088702,0.12588,-0.013782,0.086533,0.12431,-0.90891,-0.10203,-0.36558,-0.2502,0.0063127,-0.021631,0.025521,0.24075,0.0077992,-0.0068763,-0.159
0.0033373,0.029267,-0.00071231,0.045436,0.11406,-0.13148,0.084766,0.29883,-0.0049183,0.11341,-0.013734,0.080372,0.16598,-0.88458,-0.11386,0.052026,-0.26583,-0.049447,-0.026386,-0.01952,0.25629,-0.022742,-0.0023682,-0.16479
0.0029228,0.039791,0.0052015,0.050829,0.080632,-0.26171,0.086391,0.16756,-0.00058245,0.099143,-0.015079,0.071498,0.17899,-0.88267,-0.12793,0.48459,-0.27813,-0.09096,-0.028379,-0.050099,0.25917,-0.045738,0.0035807,-0.17021
0.0019783,0.041828,0.0017346,0.047463,0.034963,-0.35697,0.089074,-0.02077,-0.00035205,0.087989,-0.02224,0.064264,0.14391,-0.86665,-0.13895,0.91291,-0.29901,-0.11202,-0.026585,-0.055687,0.25839,-0.055119,0.0057201,-0.19528
0.0016488,0.031148,-0.010689,0.035314,-0.021582,-0.40792,0.091313,-0.24367,-0.0045805,0.080123,-0.032762,0.059272,0.067431,-0.82903,-0.14656,1.2639,-0.32021,-0.11502,-0.021839,-0.040564,0.25499,-0.049171,0.0018873,-0.23985
0.0022875,0.011809,-0.024077,0.019955,-0.079177,-0.41174,0.088642,-0.46188,-0.0092923,0.07232,-0.039733,0.0534,-0.024922,-0.77994,-0.15325,1.4406,-0.32181,-0.10854,-0.016777,-0.020378,0.24338,-0.034142,-0.007134,-0.29169
0.0026801,-0.0083047,-0.030109,0.0076603,-0.12553,-0.37531,0.077919,-0.62709,-0.0097044,0.061393,-0.038663,0.043092,-0.10913,-0.7144,-0.15804,1.3924,-0.29253,-0.10135,-0.014208,-0.01021,0.21912,-0.024287,-0.019756,-0.34567
0.00085899,-0.023156,-0.026916,0.00093456,-0.15325,-0.31536,0.060269,-0.69714,-0.0042705,0.046628,-0.032109,0.027786,-0.17681,-0.59498,-0.15222,1.165,-0.24223,-0.097106,-0.014857,-0.01374,0.18513,-0.036368,-0.034858,-0.4117
-0.0039951,-0.031267,-0.019785,-0.0021746,-0.16331,-0.25298,0.040445,-0.65448,0.0042322,0.029441,-0.027541,0.010331,-0.23205,-0.37151,-0.12211,0.88353,-0.19473,-0.09381,-0.016496,-0.0223,0.15064,-0.080687,-0.050945,-0.50211
-0.010254,-0.034875,-0.015987,-0.0053429,-0.1626,-0.20378,0.023661,-0.51792,0.011212,0.011158,-0.030539,-0.0057797,-0.2775,-0.023245,-0.058327,0.67515,-0.16768,-0.087904,-0.015768,-0.024182,0.12454,-0.15431,-0.064771,-0.61215
-0.01455,-0.037716,-0.018819,-0.010867,-0.15856,-0.16989,0.012745,-0.33825,0.013829,-0.008526,-0.039794,-0.019482,-0.30547,0.41341,0.035231,0.59127,-0.15815,-0.079032,-0.011635,-0.015754,0.1095,-0.24166,-0.071889,-0.7161
-0.014233,-0.043439,-0.025896,-0.018763,-0.15509,-0.14012,0.0074614,-0.17601,0.01251,-0.030626,-0.048548,-0.032378,-0.30371,0.85687,0.14006,0.59013,-0.1468,-0.070843,-0.0074828,-0.004653,0.1018,-0.32291,-0.069533,-0.7866
-0.0096516,-0.054712,-0.032387,-0.028001,-0.15254,-0.099178,0.0057785,-0.072929,0.0095872,-0.054194,-0.050843,-0.045826,-0.26973,1.224,0.23147,0.58903,-0.11627,-0.067193,-0.009493,-0.0025971,0.09599,-0.38476,-0.059412,-0.82083
-0.0042534,-0.072146,-0.035625,-0.037887,-0.15062,-0.040352,0.0055629,-0.034661,0.0069089,-0.074538,-0.04652,-0.057773,-0.21941,1.4729,0.29143,0.53813,-0.06712,-0.067756,-0.021848,-0.01461,0.0898,-0.42624,-0.047362,-0.84796
-0.0021664,-0.093131,-0.036878,-0.048049,-0.15102,0.027335,0.0055309,-0.036493,0.004751,-0.084555,-0.040466,-0.062659,-0.18046,1.6154,0.31714,0.45429,-0.017168,-0.067888,-0.042322,-0.034366,0.085351,-0.45571,-0.039468,-0.90744
-0.005088,-0.11197,-0.039235,-0.057482,-0.15723,0.082903,0.005288,-0.046511,0.0026207,-0.078833,-0.03734,-0.055024,-0.17544,1.6978,0.31965,0.39427,0.014214,-0.063421,-0.062026,-0.049531,0.08672,-0.48173,-0.03765,-1.0141
-0.011044,-0.12236,-0.044112,-0.064268,-0.17159,0.10591,0.0049096,-0.047909,0.00056058,-0.057603,-0.037212,-0.034081,-0.20771,1.767,0.31424,0.40006,0.022452,-0.055823,-0.070149,-0.052015,0.096622,-0.50478,-0.038553,-1.1393
-0.016132,-0.12127,-0.049828,-0.066827,-0.19257,0.089169,0.0045039,-0.044015,-0.00063537,-0.02748,-0.036241,-0.0054998,-0.26129,1.8463,0.31004,0.46798,0.020481,-0.052242,-0.060655,-0.044018,0.11463,-0.51564,-0.036782,-1.2244
-0.017829,-0.11139,-0.053386,-0.065632,-0.21486,0.042908,0.0040003,-0.045481,-0.00042631,0.0017227,-0.031303,0.021175,-0.31377,1.9296,0.30609,0.56392,0.026378,-0.059604,-0.036254,-0.035063,0.13723,-0.50141,-0.029639,-1.2187
-0.017001,-0.10004,-0.053491,-0.063489,-0.23265,-0.012478,0.003277,-0.054377,0.00050149,0.021866,-0.023708,0.037725,-0.35167,1.9909,0.29588,0.662,0.047627,-0.077777,-0.0068727,-0.033393,0.15887,-0.45486,-0.019216,-1.1123
-0.016803,-0.094663,-0.051789,-0.063626,-0.24366,-0.059752,0.002558,-0.060757,0.00046781,0.029855,-0.018258,0.041568,-0.37716,2.0025,0.27571,0.76622,0.075817,-0.098164,0.01627,-0.039613,0.17343,-0.38148,-0.010265,-0.94308
-0.019457,-0.098079,-0.051189,-0.067006,-0.25062,-0.094824,0.0026892,-0.053567,-0.0018647,0.027812,-0.018688,0.036495,-0.40258,1.9523,0.24982,0.89675,0.095478,-0.10938,0.026895,-0.047601,0.17616,-0.29979,-0.006115,-0.77364
-0.023896,-0.10682,-0.053025,-0.071343,-0.25919,-0.12664,0.0048,-0.033376,-0.0062551,0.020755,-0.023994,0.029689,-0.43858,1.8543,0.2282,1.0589,0.098227,-0.10531,0.026286,-0.050771,0.16587,-0.23422,-0.00647,-0.65601
-0.026625,-0.11385,-0.055888,-0.072983,-0.27376,-0.16776,0.0093322,-0.013383,-0.010879,0.013648,-0.02919,0.027058,-0.48522,1.7442,0.21892,1.2276,0.089533,-0.088872,0.021127,-0.047398,0.14557,-0.20345,-0.0087271,-0.60665
-0.025149,-0.1138,-0.057236,-0.070309,-0.2944,-0.22319,0.015207,-0.0077684,-0.013636,0.0092793,-0.029749,0.029717,-0.53194,1.6579,0.22093,1.3624,0.082969,-0.068697,0.018582,-0.040601,0.1209,-0.20995,-0.010953,-0.60457
-0.020747,-0.10686,-0.056074,-0.065755,-0.31673,-0.28571,0.020125,-0.019565,-0.013805,0.0073787,-0.025552,0.033587,-0.56547,1.608,0.22298,1.4374,0.088117,-0.052315,0.022031,-0.034224,0.096764,-0.2372,-0.013308,-0.60984
-0.017772,-0.098772,-0.053942,-0.064547,-0.3344,-0.34067,0.022141,-0.040482,-0.012823,0.0049916,-0.020839,0.032305,-0.57917,1.5765,0.20986,1.4598,0.1032,-0.04164,0.029908,-0.029397,0.07501,-0.2579,-0.016681,-0.58914
-0.019814,-0.096877,-0.053209,-0.070958,-0.34217,-0.37568,0.02133,-0.06275,-0.013541,-0.0018417,-0.020429,0.021656,-0.57735,1.535,0.17166,1.4625,0.11816,-0.033953,0.037721,-0.024966,0.054922,-0.24974,-0.020381,-0.53315
-0.02616,-0.10515,-0.054461,-0.084966,-0.33786,-0.38793,0.019915,-0.090667,-0.018321,-0.015457,-0.025762,0.0027265,-0.57137,1.477,0.11014,1.4807,0.12427,-0.026194,0.041468,-0.02041,0.035663,-0.20906,-0.021692,-0.45703
-0.031962,-0.12152,-0.055727,-0.10184,-0.32286,-0.38444,0.020422,-0.13973,-0.027187,-0.034327,-0.034163,-0.01835,-0.57045,1.4322,0.03827,1.5308,0.12096,-0.017962,0.040111,-0.017308,0.01791,-0.15269,-0.018015,-0.38613
-0.03222,-0.13906,-0.054403,-0.11488,-0.30126,-0.37669,0.02329,-0.22343,-0.037434,-0.053014,-0.041574,-0.033958,-0.57334,1.4445,-0.026351,1.6056,0.11449,-0.010631,0.035755,-0.017406,0.0028213,-0.10605,-0.0095283,-0.33772
-0.026134,-0.15002,-0.049882,-0.11916,-0.27796,-0.37423,0.026227,-0.33976,-0.045261,-0.064978,-0.045966,-0.039449,-0.56733,1.5276,-0.069559,1.6821,0.11084,-0.0042096,0.031757,-0.019455,-0.010445,-0.08592,0.00041054,-0.31157
-0.01792,-0.14989,-0.044147,-0.11392,-0.25603,-0.38111,0.026277,-0.46949,-0.048533,-0.066615,-0.048467,-0.03542,-0.53638,1.6381,-0.085597,1.7337,0.11035,0.0043135,0.030246,-0.018725,-0.025601,-0.090732,0.0077047,-0.29486
-0.013338,-0.13929,-0.03965,-0.10245,-0.23446,-0.39521,0.023099,-0.58669,-0.048673,-0.059536,-0.051692,-0.026483,-0.47368,1.6945,-0.077027,1.7403,0.10873,0.019117,0.030761,-0.010499,-0.046937,-0.10555,0.010619,-0.27569
-0.014967,-0.12279,-0.036679,-0.090062,-0.20839,-0.40915,0.02051,-0.67111,-0.049957,-0.049193,-0.057304,-0.017783,-0.39,1.633,-0.051172,1.6951,0.10272,0.041817,0.03086,0.005424,-0.075704,-0.11664,0.010718,-0.25302
-0.020292,-0.10598,-0.033057,-0.081641,-0.17239,-0.41237,0.024446,-0.71163,-0.056371,-0.040904,-0.065061,-0.012019,-0.31048,1.4552,-0.01612,1.6069,0.094319,0.069377,0.028199,0.023627,-0.10874,-0.12295,0.010898,-0.23456
-0.024036,-0.092489,-0.026587,-0.079699,-0.12518,-0.3951,0.038487,-0.70116,-0.068247,-0.036568,-0.073652,-0.0088669,-0.26044,1.2282,0.021626,1.498,0.089458,0.095608,0.022537,0.036785,-0.14094,-0.13489,0.012481,-0.22578
-0.022459,-0.08283,-0.017755,-0.083313,-0.072061,-0.35391,0.060439,-0.63239,-0.08139,-0.034728,-0.081782,-0.0066016,-0.24871,1.0356,0.057761,1.3933,0.092721,0.1147,0.016176,0.040956,-0.16937,-0.16192,0.014082,-0.22092
-0.01597,-0.075146,-0.0097364,-0.088359,-0.022576,-0.29529,0.083041,-0.5027,-0.089611,-0.033672,-0.088065,-0.0042461,-0.2602,0.91945,0.089967,1.3073,0.10314,0.12354,0.012466,0.037699,-0.19519,-0.20051,0.013139,-0.20463
-0.008243,-0.06715,-0.0054325,-0.089372,0.015271,-0.23331,0.098642,-0.32493,-0.088865,-0.034577,-0.090086,-0.0026886,-0.26359,0.86166,0.11751,1.2374,0.11474,0.1211,0.013425,0.031337,-0.22156,-0.23294,0.0084549,-0.16239
-0.0031244,-0.057761,-0.0044166,-0.082695,0.039767,-0.18145,0.10429,-0.13194,-0.079805,-0.041758,-0.084313,-0.0044449,-0.22964,0.81573,0.14053,1.1693,0.12092,0.10672,0.01828,0.024483,-0.24946,-0.23848,0.0012165,-0.090137
-0.0021191,-0.047497,-0.0029533,-0.06925,0.055496,-0.14432,0.10309,0.033905,-0.066875,-0.059788,-0.067906,-0.012643,-0.14763,0.75732,0.15888,1.091,0.11836,0.080376,0.024062,0.016573,-0.27562,-0.20759,-0.0064884,0.0049631
-0.0041046,-0.037688,0.0026929,-0.054659,0.068917,-0.11624,0.10067,0.14146,-0.054878,-0.08996,-0.041457,-0.029781,-0.0294,0.70734,0.17103,1.0048,0.10756,0.045712,0.027823,0.0069114,-0.29442,-0.14789,-0.014207,0.11124
-0.0067759,-0.029338,0.012738,-0.045788,0.083552,-0.088339,0.099827,0.18611,-0.04598,-0.1289,-0.01026,-0.056396,0.10058,0.7087,0.17385,0.92505,0.090352,0.012792,0.0287,-0.0012211,-0.3026,-0.07758,-0.02418,0.21932
-0.0082098,-0.022492,0.023525,-0.045649,0.098629,-0.057945,0.098152,0.18733,-0.039431,-0.16992,0.0175,-0.089788,0.22051,0.78021,0.16362,0.86421,0.067509,-0.0040976,0.028187,-0.00051295,-0.30264,-0.011967,-0.039638,0.32378
-0.0075136,-0.016321,0.030655,-0.05061,0.11141,-0.031489,0.090977,0.17123,-0.033716,-0.20543,0.03487,-0.12353,0.32075,0.89006,0.13782,0.81872,0.038708,0.005677,0.028455,0.014972,-0.3019,0.046378,-0.061491,0.4221
-0.0046841,-0.0096307,0.032597,-0.052654,0.12013,-0.01784,0.076999,0.15364,-0.028681,-0.22868,0.039874,-0.1488,0.4019,0.97173,0.096607,0.76724,0.00445,0.040487,0.030297,0.043151,-0.30809,0.10678,-0.086168,0.51668
-0.00027413,-0.0014134,0.031431,-0.045486,0.12471,-0.018072,0.061225,0.13782,-0.025444,-0.23471,0.03622,-0.15772,0.46579,0.96686,0.043492,0.68336,-0.032379,0.084435,0.032543,0.072383,-0.32408,0.18043,-0.1066,0.62011
0.0048661,0.0086315,0.030341,-0.029725,0.12529,-0.021446,0.051932,0.12554,-0.02431,-0.2218,0.030471,-0.14738,0.50847,0.8577,-0.015227,0.55185,-0.067091,0.11511,0.033448,0.087562,-0.34603,0.26923,-0.11596,0.75639
0.0098708,0.019701,0.030593,-0.012697,0.12121,-0.012176,0.053738,0.12741,-0.02306,-0.19333,0.027618,-0.12201,0.52161,0.66526,-0.071934,0.3749,-0.095598,0.11655,0.032661,0.079843,-0.3662,0.36157,-0.11149,0.94984
0.014167,0.029975,0.030992,-0.0027134,0.11221,0.018182,0.062822,0.15906,-0.017857,-0.1583,0.02812,-0.091346,0.50083,0.42167,-0.11988,0.16429,-0.1167,0.088432,0.031867,0.052707,-0.37848,0.43795,-0.095768,1.2048
0.017579,0.037586,0.030076,-0.0024773,0.10076,0.063143,0.068866,0.22506,-0.006479,-0.12809,0.028341,-0.065629,0.45331,0.14676,-0.15539,-0.070489,-0.13243,0.045301,0.033402,0.019979,-0.38283,0.48221,-0.07466,1.491
0.02012,0.042161,0.028442,-0.0071265,0.092685,0.10523,0.062571,0.30685,0.0088576,-0.11046,0.023882,-0.050383,0.39782,-0.14992,-0.17909,-0.32458,-0.14619,0.0076652,0.0381,-0.0021857,-0.38549,0.49054,-0.053866,1.7498
0.021713,0.045647,0.028596,-0.0085131,0.09457,0.1286,0.042582,0.36924,0.021945,-0.10471,0.013258,-0.044381,0.35645,-0.44827,-0.19526,-0.58602,-0.1598,-0.007954,0.044301,-0.0031564,-0.39451,0.47247,-0.036683,1.9232
0.022178,0.051127,0.032334,-0.0019754,0.10966,0.13043,0.016073,0.38382,0.026539,-0.10258,-0.0008156,-0.042179,0.3443,-0.70479,-0.20911,-0.82155,-0.17169,0.00601,0.048894,0.019212,-0.41368,0.44371,-0.024247,1.9884
0.02146,0.059974,0.038331,0.010103,0.13535,0.12202,-0.0072617,0.35054,0.020992,-0.094659,-0.013337,-0.039033,0.36446,-0.86678,-0.22352,-0.97809,-0.17759,0.048203,0.049431,0.060224,-0.4385,0.41632,-0.017152,1.9726
0.019786,0.069676,0.042517,0.020656,0.16425,0.11867,-0.022456,0.29817,0.0099171,-0.077605,-0.020468,-0.034186,0.41077,-0.90584,-0.23698,-1.0077,-0.17362,0.10944,0.04549,0.11086,-0.4567,0.39393,-0.016282,1.9377
0.017523,0.074865,0.041183,0.023821,0.18798,0.12573,-0.031786,0.2615,0.0014347,-0.055977,-0.021661,-0.030066,0.47452,-0.84227,-0.24462,-0.90321,-0.15979,0.17277,0.038303,0.15862,-0.45298,0.3754,-0.021832,1.9444
0.014984,0.071552,0.034114,0.019265,0.20082,0.13147,-0.041139,0.25335,0.0020134,-0.037657,-0.018856,-0.028574,0.54885,-0.73737,-0.24175,-0.71738,-0.14111,0.21519,0.029274,0.18811,-0.41561,0.36388,-0.031632,2.0194
0.012444,0.061243,0.024906,0.011729,0.20141,0.1123,-0.054278,0.25449,0.012698,-0.027318,-0.013718,-0.028217,0.62794,-0.65796,-0.22777,-0.5468,-0.12481,0.21507,0.018971,0.18474,-0.34188,0.37257,-0.040918,2.1448
0.010315,0.05094,0.018145,0.0068485,0.19221,0.047434,-0.070229,0.22934,0.029292,-0.023921,-0.0056196,-0.02492,0.70367,-0.64077,-0.20755,-0.48621,-0.11529,0.16421,0.007519,0.14206,-0.24,0.42046,-0.044537,2.2734
0.0090638,0.048224,0.015868,0.0071429,0.17792,-0.066915,-0.085443,0.15407,0.045924,-0.023793,0.007626,-0.015777,0.76462,-0.68371,-0.18884,-0.58272,-0.11042,0.076613,-0.0040922,0.068573,-0.1264,0.51838,-0.040229,2.354
0.0087836,0.055232,0.016301,0.011257,0.16393,-0.21312,-0.097735,0.034678,0.05902,-0.025245,0.026854,-0.0022623,0.80001,-0.76615,-0.17746,-0.82019,-0.10258,-0.014583,-0.013324,-0.012439,-0.01913,0.65514,-0.03026,2.3527
0.0088614,0.0669,0.015839,0.016312,0.15491,-0.35994,-0.10787,-0.097401,0.06876,-0.029647,0.049115,0.010006,0.80591,-0.87507,-0.17355,-1.1406,-0.084216,-0.073022,-0.01714,-0.072288,0.0695,0.79532,-0.019745,2.2598
0.0083376,0.07528,0.012395,0.020721,0.15332,-0.47695,-0.11768,-0.20539,0.077374,-0.038308,0.06812,0.014589,0.78893,-1.0113,-0.17194,-1.4811,-0.05391,-0.078372,-0.014342,-0.090879,0.13687,0.89373,-0.012671,2.0849
0.0068375,0.076224,0.0071436,0.024953,0.15791,-0.54625,-0.12741,-0.26554,0.086105,-0.049407,0.077554,0.0076742,0.76386,-1.1711,-0.16625,-1.796,-0.018168,-0.035815,-0.0073335,-0.066479,0.18805,0.91951,-0.0087157,1.8479
0.0051661,0.072323,0.0031974,0.030022,0.16313,-0.56586,-0.13563,-0.27185,0.093427,-0.059062,0.074823,-0.010817,0.74623,-1.3248,-0.15331,-2.0527,0.012634,0.030236,-0.0014695,-0.014994,0.2293,0.87512,-0.0035285,1.5728
0.0047434,0.06945,0.0024811,0.035542,0.16034,-0.54562,-0.14207,-0.22919,0.095858,-0.065521,0.062479,-0.0382,0.74438,-1.4169,-0.13419,-2.2155,0.031185,0.09235,-0.0018833,0.040125,0.2624,0.79778,0.0076304,1.2859
0.0061748,0.070352,0.0037015,0.039362,0.14095,-0.50102,-0.15039,-0.14578,0.090543,-0.071222,0.046462,-0.07001,0.75542,-1.3961,-0.11142,-2.2443,0.03776,0.13387,-0.0098929,0.080101,0.28453,0.74212,0.025738,1.0166
0.0083088,0.071625,0.0033491,0.039163,0.10019,-0.44894,-0.16718,-0.03223,0.077565,-0.079328,0.032671,-0.099921,0.76757,-1.2525,-0.085211,-2.1155,0.03912,0.15185,-0.02183,0.097636,0.29398,0.75383,0.046657,0.79672
0.0089226,0.067111,-0.0010674,0.034542,0.039385,-0.40526,-0.19709,0.095952,0.06029,-0.087753,0.024274,-0.11995,0.76728,-1.0323,-0.052678,-1.8495,0.043088,0.15067,-0.031505,0.095829,0.29587,0.8489,0.06361,0.65317
0.0066856,0.054424,-0.0084593,0.027643,-0.034668,-0.38166,-0.23765,0.22048,0.043637,-0.087626,0.021137,-0.12291,0.74686,-0.81341,-0.010916,-1.5139,0.053285,0.1348,-0.034601,0.082453,0.30184,1.0076,0.071461,0.59703
0.0026701,0.038176,-0.014722,0.021706,-0.11316,-0.38134,-0.2784,0.32963,0.031548,-0.069628,0.021042,-0.10671,0.70744,-0.65944,0.038711,-1.1935,0.067889,0.10709,-0.031587,0.064724,0.32217,1.1838,0.069582,0.61273
-0.00014357,0.026639,-0.016146,0.018694,-0.1892,-0.39682,-0.30582,0.42748,0.025292,-0.033448,0.021335,-0.077292,0.65515,-0.58326,0.089276,-0.94442,0.082666,0.072139,-0.026923,0.047378,0.35647,1.3234,0.061511,0.65777
0.00082119,0.024959,-0.012763,0.018058,-0.25951,-0.41362,-0.311,0.53199,0.023436,0.0087662,0.020036,-0.046671,0.59333,-0.54664,0.13163,-0.76832,0.0951,0.03868,-0.025456,0.033264,0.39124,1.3831,0.052242,0.67747
0.0055324,0.03132,-0.008606,0.017763,-0.32256,-0.41977,-0.29477,0.65879,0.023194,0.039525,0.016268,-0.026436,0.51769,-0.49365,0.15994,-0.62456,0.10602,0.016872,-0.029151,0.024049,0.40769,1.3436,0.045472,0.63015
0.011215,0.03945,-0.008459,0.016746,-0.37476,-0.41459,-0.26652,0.80083,0.022162,0.048497,0.010385,-0.021052,0.41981,-0.39162,0.1751,-0.47101,0.11769,0.012032,-0.036651,0.019777,0.39483,1.2138,0.04248,0.5079
0.014473,0.044654,-0.013825,0.016558,-0.40832,-0.40938,-0.23784,0.92018,0.019493,0.039759,0.0039466,-0.026077,0.29729,-0.25049,0.18316,-0.30047,0.13051,0.020528,-0.045297,0.018013,0.35764,1.0251,0.04261,0.33882
0.013863,0.047303,-0.021606,0.020438,-0.41357,-0.41732,-0.21543,0.96206,0.016093,0.027536,-0.00074941,-0.032526,0.16214,-0.11013,0.19015,-0.14632,0.1415,0.031782,-0.053136,0.014102,0.31403,0.81848,0.044301,0.16826
0.010739,0.0506,-0.026732,0.030236,-0.385,-0.43894,-0.1982,0.88498,0.013912,0.024454,-0.0018099,-0.033675,0.038085,-0.0094867,0.19726,-0.056883,0.14611,0.034971,-0.059018,0.0031392,0.28252,0.62828,0.045874,0.031988
0.0077825,0.055355,-0.026539,0.043722,-0.3268,-0.45434,-0.17999,0.68921,0.014841,0.032729,0.00086423,-0.028903,-0.053458,0.038045,0.20015,-0.060775,0.14188,0.025083,-0.06141,-0.017421,0.27018,0.47125,0.046068,-0.060199
0.006656,0.057569,-0.02314,0.054964,-0.25288,-0.42999,-0.15527,0.42547,0.019773,0.045386,0.0049925,-0.022091,-0.10845,0.047224,0.19252,-0.14842,0.13082,0.0039252,-0.058086,-0.046287,0.26973,0.34431,0.044507,-0.12075
0.0068446,0.051701,-0.021688,0.058117,-0.1803,-0.33803,-0.1234,0.17792,0.028328,0.055076,0.0069616,-0.016802,-0.14323,0.04426,0.17131,-0.27909,0.11835,-0.023767,-0.047833,-0.07912,0.26698,0.23256,0.041844,-0.16737
0.0065353,0.036618,-0.025971,0.051941,-0.12025,-0.17626,-0.088837,0.030143,0.039271,0.061657,0.0041469,-0.012688,-0.1812,0.046546,0.13925,-0.40373,0.10955,-0.055087,-0.032752,-0.11105,0.25197,0.12185,0.039157,-0.20873
0.0045255,0.018303,-0.03507,0.041287,-0.073132,0.025149,-0.057818,0.030913,0.051179,0.071861,-0.0031158,-0.0058559,-0.23325,0.053364,0.10327,-0.48663,0.1055,-0.090461,-0.01854,-0.13917,0.22479,0.0086066,0.036805,-0.24354
0.0013971,0.006237,-0.043939,0.03392,-0.031609,0.21632,-0.034708,0.17504,0.062727,0.092379,-0.011616,0.007777,-0.28825,0.050781,0.070122,-0.51526,0.10276,-0.13111,-0.011684,-0.16308,0.19248,-0.098425,0.033735,-0.26966
-0.00096124,0.0063112,-0.047442,0.034884,0.010782,0.35328,-0.020356,0.40676,0.072381,0.12333,-0.017613,0.029237,-0.32231,0.023127,0.042786,-0.49784,0.096394,-0.17531,-0.015466,-0.18333,0.16117,-0.18418,0.028184,-0.29103
-0.00089947,0.016351,-0.044452,0.042826,0.052198,0.42072,-0.012941,0.64359,0.07806,0.15769,-0.01964,0.055718,-0.31962,-0.038848,0.020138,-0.45456,0.084016,-0.21716,-0.028076,-0.19904,0.13091,-0.23649,0.019443,-0.31435
0.0017519,0.02804,-0.038562,0.051284,0.082036,0.4374,-0.0098249,0.8107,0.077597,0.18615,-0.019364,0.082194,-0.28729,-0.13725,-0.00028944,-0.40732,0.067797,-0.24932,-0.044425,-0.20723,0.097533,-0.25298,0.009136,-0.33981
0.0056682,0.033452,-0.034884,0.053912,0.087718,0.44058,-0.0088019,0.8709,0.07022,0.2026,-0.019664,0.10369,-0.25139,-0.27048,-0.019262,-0.37109,0.052709,-0.26769,-0.060071,-0.20469,0.058759,-0.24263,0.00058892,-0.35723
0.0090876,0.03071,-0.035684,0.049383,0.063555,0.46012,-0.0082652,0.83571,0.058022,0.20603,-0.021628,0.11663,-0.23713,-0.43496,-0.03513,-0.34897,0.042568,-0.27422,-0.07383,-0.19115,0.018211,-0.22221,-0.0034548,-0.35357
0.011017,0.024463,-0.038575,0.042115,0.015409,0.49963,-0.0068943,0.75122,0.04586,0.199,-0.023323,0.11896,-0.24939,-0.62294,-0.045754,-0.33394,0.037049,-0.27538,-0.087024,-0.17076,-0.016658,-0.20957,-0.0028654,-0.32566
0.011705,0.021439,-0.038728,0.038458,-0.041497,0.53684,-0.0036141,0.66586,0.039043,0.18494,-0.021639,0.10954,-0.26926,-0.8195,-0.050941,-0.31756,0.032081,-0.2769,-0.10049,-0.14999,-0.040656,-0.21658,-8.3102e-005,-0.28529
0.012118,0.025087,-0.033148,0.041627,-0.0894,0.54235,0.0020268,0.6,0.040075,0.16649,-0.015577,0.087659,-0.26871,-1.0036,-0.052917,-0.3004,0.023342,-0.27898,-0.1124,-0.13331,-0.055138,-0.24423,0.0019659,-0.25065
0.012912,0.033391,-0.023384,0.049344,-0.11479,0.50303,0.0094711,0.53721,0.046897,0.14455,-0.0078414,0.052858,-0.23084,-1.1545,-0.054374,-0.29544,0.01002,-0.27596,-0.11903,-0.12029,-0.066545,-0.28243,0.0020679,-0.23101
0.013702,0.040874,-0.014452,0.055753,-0.11175,0.43415,0.017228,0.44345,0.054194,0.11778,-0.003032,0.0052981,-0.15945,-1.259,-0.055943,-0.31845,-0.0042208,-0.26154,-0.11772,-0.10709,-0.080709,-0.31568,0.0010836,-0.21915
0.01328,0.042642,-0.010978,0.055782,-0.081558,0.37212,0.02353,0.29952,0.056976,0.083221,-0.0039448,-0.053257,-0.072215,-1.3133,-0.055402,-0.36987,-0.013979,-0.23583,-0.10919,-0.091403,-0.09814,-0.33264,0.00039556,-0.19885
0.010695,0.037373,-0.013743,0.048621,-0.030278,0.3529,0.027282,0.12193,0.053742,0.038651,-0.009325,-0.11814,0.014712,-1.3174,-0.049131,-0.42204,-0.016413,-0.20842,-0.097329,-0.076446,-0.11422,-0.3343,0.00025553,-0.16115
0.0064032,0.027702,-0.019285,0.038059,0.033743,0.39016,0.028792,-0.044633,0.046873,-0.013702,-0.015097,-0.18093,0.096789,-1.2677,-0.034268,-0.42496,-0.013549,-0.19365,-0.086749,-0.069932,-0.12357,-0.33492,-0.0001766,-0.11419
0.0024236,0.018454,-0.022651,0.029853,0.10177,0.46681,0.029763,-0.15755,0.040165,-0.065263,-0.017828,-0.23019,0.17858,-1.1544,-0.0096858,-0.33157,-0.010555,-0.20072,-0.080288,-0.078069,-0.12429,-0.35356,-0.0012169,-0.077203
0.0011383,0.014178,-0.020978,0.028138,0.16638,0.54518,0.032313,-0.20522,0.035701,-0.10353,-0.017166,-0.25424,0.26338,-0.97,0.024411,-0.12731,-0.011298,-0.22603,-0.078274,-0.09948,-0.11877,-0.40075,-0.0014012,-0.063566
0.0034642,0.017094,-0.015237,0.033137,0.22325,0.58919,0.03743,-0.2121,0.032512,-0.11836,-0.015157,-0.2455,0.34589,-0.72074,0.066841,0.15613,-0.014977,-0.25413,-0.079531,-0.12456,-0.1112,-0.46874,0.001674,-0.067669
0.0078595,0.025963,-0.0091321,0.041325,0.27234,0.58496,0.043846,-0.21683,0.027807,-0.10808,-0.01348,-0.2043,0.4143,-0.43309,0.11462,0.45323,-0.016844,-0.26758,-0.082822,-0.14142,-0.10478,-0.53271,0.0088143,-0.067191
0.011163,0.036237,-0.006288,0.047729,0.31751,0.54718,0.048351,-0.24206,0.01945,-0.080846,-0.011574,-0.14003,0.45873,-0.14712,0.16185,0.69458,-0.012543,-0.25826,-0.087595,-0.14387,-0.10115,-0.56339,0.017376,-0.039176
0.010847,0.041879,-0.0078545,0.048904,0.36402,0.50793,0.047671,-0.27989,0.0076668,-0.049988,-0.0074651,-0.068363,0.47711,0.099332,0.20049,0.83497,-0.0022982,-0.23155,-0.093875,-0.135,-0.10147,-0.54368,0.022249,0.023029
0.0069947,0.038531,-0.012065,0.044804,0.41494,0.49612,0.040763,-0.30237,-0.0051025,-0.026299,-0.00022957,-0.0053205,0.47333,0.28529,0.22407,0.86482,0.0088112,-0.20029,-0.10173,-0.12369,-0.10718,-0.47908,0.019372,0.10495
0.0023329,0.026425,-0.01577,0.038374,0.46881,0.52144,0.029818,-0.28602,-0.015844,-0.012527,0.0086198,0.038985,0.45034,0.4109,0.23222,0.80558,0.014797,-0.17432,-0.11063,-0.1173,-0.11901,-0.3948,0.00901,0.18077
0.00012677,0.010776,-0.016714,0.033116,0.52019,0.57246,0.019064,-0.22955,-0.022854,-0.0034118,0.016304,0.06344,0.40602,0.49083,0.23224,0.69983,0.013462,-0.15426,-0.11883,-0.11678,-0.13551,-0.32129,-0.0040825,0.22899
0.0015466,-0.0013376,-0.015013,0.030287,0.56292,0.62786,0.012217,-0.15278,-0.026752,0.0093035,0.021276,0.074012,0.3361,0.5445,0.23552,0.604,0.0077109,-0.13438,-0.12314,-0.11789,-0.15311,-0.27695,-0.01403,0.24222
0.0046717,-0.0058454,-0.012982,0.027909,0.59361,0.67045,0.010509,-0.081026,-0.030131,0.030612,0.024478,0.078121,0.24153,0.59111,0.2506,0.58035,0.0024814,-0.11078,-0.11989,-0.1166,-0.16828,-0.25905,-0.018109,0.22584
0.0060331,-0.004689,-0.013551,0.022502,0.61276,0.69386,0.012745,-0.029355,-0.036048,0.058849,0.028113,0.079183,0.13321,0.65072,0.2777,0.68061,0.00028518,-0.086897,-0.10692,-0.11347,-0.1801,-0.24824,-0.018472,0.1896
0.0034716,-0.0043399,-0.018293,0.012325,0.62288,0.69931,0.017072,0.0022817,-0.046165,0.087015,0.03323,0.075152,0.029299,0.74478,0.30872,0.92175,-0.00056639,-0.071331,-0.085624,-0.11313,-0.19066,-0.22335,-0.019945,0.14062
-0.0020694,-0.010733,-0.02627,-0.00057796,0.62557,0.68859,0.022766,0.022943,-0.059585,0.10755,0.038575,0.061921,-0.052685,0.88915,0.33225,1.2682,-0.0036722,-0.070117,-0.061063,-0.11963,-0.20289,-0.17596,-0.025799,0.082818
-0.0073138,-0.024603,-0.034338,-0.011445,0.62042,0.66088,0.030506,0.041358,-0.073186,0.11733,0.041841,0.038673,-0.10302,1.0802,0.34005,1.6373,-0.010637,-0.080532,-0.03942,-0.13196,-0.21748,-0.1152,-0.035009,0.020676
-0.0092869,-0.04099,-0.038754,-0.016346,0.6068,0.6155,0.041086,0.060369,-0.083313,0.11971,0.04199,0.010812,-0.12125,1.2836,0.33044,1.9313,-0.019312,-0.091749,-0.024316,-0.14379,-0.23182,-0.060279,-0.04318,-0.038153
-0.0075408,-0.053184,-0.037198,-0.015295,0.58657,0.55615,0.053899,0.076659,-0.087729,0.12244,0.040292,-0.011861,-0.11273,1.4381,0.30745,2.0784,-0.025686,-0.091695,-0.014766,-0.1477,-0.24147,-0.027165,-0.046163,-0.085306
-0.0041578,-0.057645,-0.030064,-0.012222,0.56448,0.49146,0.06653,0.08342,-0.086462,0.13265,0.03896,-0.020239,-0.084616,1.4773,0.27733,2.058,-0.027437,-0.074571,-0.0065342,-0.14057,-0.24286,-0.019258,-0.043217,-0.1173
-0.0017461,-0.05583,-0.020237,-0.011726,0.545,0.43087,0.075719,0.073887,-0.081048,0.15214,0.038711,-0.010417,-0.044826,1.3595,0.24543,1.8952,-0.025792,-0.043608,0.0041397,-0.12587,-0.23458,-0.027716,-0.037113,-0.13888
-0.0013451,-0.051851,-0.011423,-0.015389,0.52757,0.37983,0.078861,0.045073,-0.072994,0.17583,0.037669,0.015368,-0.0033971,1.0884,0.21481,1.6332,-0.024145,-0.0078117,0.017533,-0.11098,-0.21647,-0.038935,-0.031302,-0.16047
-0.0020044,-0.048572,-0.0060186,-0.020846,0.50505,0.33835,0.07507,0.00069949,-0.06285,0.19456,0.032919,0.051324,0.027278,0.71043,0.18649,1.3049,-0.024973,0.024215,0.030601,-0.10181,-0.18802,-0.041906,-0.026751,-0.1911
-0.0020868,-0.045781,-0.0038865,-0.02435,0.46773,0.30327,0.065478,-0.049006,-0.05066,0.20056,0.023548,0.091737,0.035647,0.29142,0.16016,0.92454,-0.027926,0.048989,0.039909,-0.098502,-0.14803,-0.030364,-0.02122,-0.23251
-0.00083214,-0.041713,-0.0028844,-0.024405,0.41083,0.27128,0.052965,-0.091974,-0.037208,0.19254,0.01248,0.13316,0.016025,-0.11269,0.13473,0.49789,-0.030661,0.068975,0.044494,-0.095552,-0.096482,-0.00090719,-0.011513,-0.27916
0.0012182,-0.035888,-0.00074909,-0.02314,0.33971,0.24021,0.041523,-0.12098,-0.024712,0.17684,0.0052447,0.17438,-0.028709,-0.47462,0.1081,0.038974,-0.031336,0.089966,0.04598,-0.085792,-0.036956,0.047819,0.0032922,-0.32438
0.0029737,-0.030257,0.0030634,-0.024284,0.26758,0.20886,0.035203,-0.13709,-0.016112,0.16389,0.0062835,0.21484,-0.089447,-0.79605,0.076694,-0.42468,-0.030378,0.11715,0.046031,-0.065278,0.022867,0.11204,0.02041,-0.36751
0.0036542,-0.027674,0.0069955,-0.029775,0.20685,0.17705,0.036719,-0.14668,-0.013422,0.1615,0.015547,0.25276,-0.15665,-1.0949,0.03513,-0.86254,-0.030043,0.15203,0.043822,-0.035542,0.073633,0.17875,0.034853,-0.41593
0.0028977,-0.029545,0.0087592,-0.038271,0.16065,0.1461,0.04626,-0.1547,-0.016518,0.16915,0.028035,0.28375,-0.22496,-1.3903,-0.022422,-1.2581,-0.032405,0.19164,0.036412,-0.0019746,0.10837,0.22631,0.042582,-0.47956
0.00034644,-0.035154,0.0073675,-0.046836,0.1218,0.11852,0.061222,-0.16067,-0.023468,0.17697,0.036714,0.30078,-0.29299,-1.6918,-0.098821,-1.6172,-0.037688,0.23047,0.022146,0.030102,0.1254,0.23207,0.042836,-0.5612
-0.0044147,-0.04314,0.0041718,-0.053946,0.080364,0.09565,0.077084,-0.16151,-0.032169,0.17079,0.036646,0.29634,-0.35908,-1.995,-0.19004,-1.9591,-0.04427,0.26433,0.0041727,0.058845,0.12815,0.18301,0.03803,-0.65028
-0.011185,-0.053101,0.0020267,-0.060699,0.033551,0.075042,0.088845,-0.15794,-0.041914,0.14077,0.027439,0.2668,-0.41724,-2.2818,-0.2843,-2.2973,-0.050061,0.29417,-0.0094692,0.086723,0.12238,0.082178,0.031698,-0.72631
-0.018384,-0.06511,0.0032048,-0.068949,-0.010927,0.050386,0.092184,-0.15725,-0.05351,0.088623,0.012688,0.21667,-0.45775,-2.5264,-0.36684,-2.6242,-0.053802,0.32685,-0.010137,0.11846,0.11287,-0.053285,0.026251,-0.77162
-0.023218,-0.077384,0.0077168,-0.078291,-0.041184,0.015262,0.084034,-0.16836,-0.067772,0.028496,-0.0024804,0.15956,-0.47258,-2.7082,-0.42851,-2.9123,-0.05521,0.37102,0.0056085,0.15735,0.10186,-0.20012,0.022121,-0.78578
-0.023094,-0.084977,0.013385,-0.085148,-0.051856,-0.032095,0.062989,-0.19316,-0.083667,-0.019434,-0.013553,0.11352,-0.46184,-2.8258,-0.47207,-3.1313,-0.054169,0.42998,0.033145,0.20199,0.089585,-0.33692,0.018476,-0.79072
-0.017453,-0.082143,0.017592,-0.08533,-0.049809,-0.087468,0.029968,-0.22259,-0.097772,-0.039161,-0.017371,0.092483,-0.43566,-2.9039,-0.51009,-3.2673,-0.050121,0.49633,0.062394,0.24567,0.075792,-0.44794,0.014573,-0.82059
-0.0086192,-0.067498,0.019239,-0.078012,-0.049851,-0.14451,-0.011202,-0.24228,-0.10575,-0.026694,-0.012168,0.099132,-0.40937,-2.9847,-0.55469,-3.3296,-0.042434,0.55366,0.084246,0.27947,0.060859,-0.52329,0.010645,-0.90051
-0.00085203,-0.047572,0.019337,-0.067398,-0.064263,-0.20062,-0.054209,-0.24349,-0.10489,0.0091869,0.0018047,0.12429,-0.39435,-3.1073,-0.60669,-3.3425,-0.031411,0.58588,0.096281,0.29813,0.045842,-0.55827,0.0078535,-1.0275
0.0020099,-0.034391,0.019843,-0.060126,-0.095037,-0.25929,-0.092157,-0.22992,-0.09599,0.053297,0.02111,0.15349,-0.391,-3.2876,-0.65351,-3.3299,-0.018815,0.58865,0.10385,0.30508,0.032051,-0.5535,0.0075639,-1.1672
-0.0011218,-0.037382,0.021936,-0.060185,-0.13473,-0.32664,-0.1201,-0.21476,-0.083119,0.092905,0.039064,0.17593,-0.38911,-3.5138,-0.67901,-3.3073,-0.0072211,0.57426,0.11617,0.31259,0.020821,-0.51422,0.010414,-1.2707
-0.0078191,-0.055415,0.025308,-0.065511,-0.17387,-0.4048,-0.13647,-0.21111,-0.071501,0.12308,0.048214,0.18916,-0.37594,-3.756,-0.67797,-3.2822,0.0013772,0.56516,0.14064,0.33578,0.013592,-0.44778,0.015667,-1.3021
-0.013552,-0.075987,0.028979,-0.069247,-0.20749,-0.48813,-0.14241,-0.22447,-0.064723,0.14555,0.044524,0.19695,-0.34615,-3.9802,-0.66319,-3.2583,0.0065072,0.57952,0.17949,0.38352,0.011865,-0.36066,0.02121,-1.2594
-0.014486,-0.083447,0.032602,-0.06485,-0.23554,-0.56518,-0.13953,-0.25309,-0.062921,0.16336,0.030194,0.20321,-0.30611,-4.1554,-0.65827,-3.2325,0.0089633,0.6187,0.23039,0.45249,0.016674,-0.25861,0.02439,-1.176
-0.0098914,-0.070482,0.036785,-0.05109,-0.25854,-0.62416,-0.12834,-0.29343,-0.062938,0.1765,0.012407,0.20787,-0.26856,-4.2527,-0.6808,-3.189,0.0097006,0.6659,0.28947,0.5283,0.027781,-0.15154,0.023499,-1.1006
-0.0025223,-0.043634,0.042057,-0.033052,-0.27457,-0.65673,-0.10861,-0.34341,-0.060397,0.18249,-0.0016741,0.20753,-0.24164,-4.2474,-0.72908,-3.0983,0.0089432,0.69728,0.35335,0.59313,0.043213,-0.059428,0.01914,-1.0697
0.0033145,-0.018012,0.04766,-0.018491,-0.2815,-0.65741,-0.081218,-0.39907,-0.052676,0.1805,-0.010034,0.19921,-0.22122,-4.1275,-0.78274,-2.9308,0.0062322,0.69758,0.41877,0.63428,0.059606,-0.012363,0.014521,-1.0895
0.004717,-0.0053799,0.051639,-0.012424,-0.28212,-0.62119,-0.049484,-0.44859,-0.041084,0.17387,-0.016986,0.18239,-0.19375,-3.9033,-0.81612,-2.677,0.0011736,0.66913,0.48081,0.6486,0.073237,-0.040894,0.014199,-1.1393
0.0021257,-0.0055044,0.052455,-0.013976,-0.28591,-0.54381,-0.018346,-0.47176,-0.030709,0.16716,-0.029352,0.15766,-0.14873,-3.6036,-0.81281,-2.3569,-0.0059422,0.6284,0.53276,0.64119,0.081257,-0.16012,0.021808,-1.1909
-0.0010847,-0.0078302,0.050621,-0.017474,-0.304,-0.42652,0.008139,-0.44891,-0.027593,0.15937,-0.050588,0.12379,-0.091199,-3.2543,-0.77013,-2.0052,-0.014166,0.59338,0.56879,0.62124,0.082582,-0.35721,0.038039,-1.2308
-0.0010392,-0.0015446,0.048655,-0.016547,-0.34034,-0.28115,0.028859,-0.37452,-0.034724,0.14024,-0.077464,0.077279,-0.043734,-2.8557,-0.69244,-1.6423,-0.02233,0.57179,0.58742,0.59837,0.078188,-0.59133,0.060052,-1.2678
0.0038812,0.015057,0.049134,-0.0081268,-0.3865,-0.12979,0.045528,-0.26486,-0.049594,0.094662,-0.10183,0.015039,-0.03469,-2.3816,-0.58297,-1.2572,-0.029336,0.55835,0.59245,0.58079,0.070706,-0.80803,0.082669,-1.321
0.011834,0.033886,0.052547,0.0061887,-0.42498,0.0029997,0.060669,-0.15237,-0.065399,0.01334,-0.11594,-0.062391,-0.080171,-1.8097,-0.44442,-0.82251,-0.034133,0.54181,0.58939,0.57434,0.063359,-0.96126,0.10072,-1.3991
0.018641,0.044991,0.056943,0.021781,-0.43913,0.10068,0.075652,-0.06946,-0.075462,-0.09883,-0.11727,-0.15083,-0.17244,-1.1642,-0.28826,-0.33504,-0.035757,0.51501,0.5803,0.58102,0.05854,-1.0318,0.11137,-1.4884
0.02048,0.045516,0.059785,0.034135,-0.42257,0.15995,0.090492,-0.032758,-0.077893,-0.2243,-0.10922,-0.24567,-0.28296,-0.5324,-0.1415,0.15243,-0.033775,0.48005,0.56173,0.59781,0.05666,-1.0328,0.11516,-1.5601
0.016367,0.041878,0.060264,0.041398,-0.38191,0.18674,0.10521,-0.03839,-0.077056,-0.34351,-0.097754,-0.34473,-0.37776,-0.032665,-0.039553,0.54185,-0.028874,0.44528,0.52839,0.61715,0.056074,-1.0006,0.1153,-1.5912
0.0088026,0.043846,0.059899,0.045066,-0.33202,0.18681,0.121,-0.070664,-0.080672,-0.44579,-0.086938,-0.4475,-0.43448,0.2516,-0.0059219,0.745,-0.022887,0.41755,0.47967,0.62993,0.05435,-0.9743,0.11531,-1.5825
0.0021425,0.056275,0.060839,0.048627,-0.28817,0.1591,0.13971,-0.11644,-0.094723,-0.53144,-0.076947,-0.55141,-0.45067,0.32632,-0.03378,0.74549,-0.01791,0.39652,0.42299,0.62934,0.05013,-0.97614,0.1165,-1.5565
-0.00022874,0.075489,0.063523,0.055001,-0.26002,0.097666,0.16178,-0.17403,-0.11983,-0.6045,-0.065749,-0.64939,-0.43991,0.28656,-0.086007,0.61873,-0.015067,0.37476,0.3701,0.61302,0.044197,-1.0021,0.11692,-1.5392
0.0020225,0.092594,0.06602,0.064252,-0.24956,0.0001605,0.18459,-0.25067,-0.15139,-0.66435,-0.052524,-0.73198,-0.42061,0.25868,-0.11672,0.48978,-0.013914,0.34279,0.32885,0.58231,0.038754,-1.0284,0.11272,-1.5383
0.006288,0.10011,0.065786,0.073086,-0.25219,-0.12469,0.20278,-0.35166,-0.18284,-0.70466,-0.03952,-0.79284,-0.40519,0.3266,-0.099246,0.45757,-0.013021,0.29453,0.29715,0.53965,0.035425,-1.0294,0.10098,-1.5387
0.0091712,0.096486,0.062208,0.076782,-0.25958,-0.25717,0.21083,-0.47066,-0.20914,-0.72043,-0.030615,-0.83239,-0.3953,0.49622,-0.039319,0.54069,-0.01122,0.22958,0.2645,0.48661,0.033726,-0.99596,0.081787,-1.5168
0.008998,0.085747,0.057447,0.072582,-0.26325,-0.37424,0.20631,-0.58883,-0.22835,-0.71527,-0.027823,-0.85599,-0.38338,0.72107,0.035735,0.68346,-0.0084634,0.152,0.22029,0.42435,0.031549,-0.94089,0.058013,-1.4632
0.0067589,0.073818,0.054631,0.062155,-0.25837,-0.45901,0.19149,-0.68373,-0.24114,-0.70063,-0.028938,-0.86803,-0.35832,0.96234,0.1014,0.81365,-0.0056358,0.068039,0.16183,0.35582,0.027486,-0.88774,0.033079,-1.3915
0.0048926,0.064836,0.054977,0.051017,-0.246,-0.50579,0.17226,-0.74162,-0.24953,-0.68704,-0.028621,-0.86769,-0.31213,1.23,0.15292,0.90438,-0.0036481,-0.015323,0.096002,0.2874,0.023036,-0.85129,0.0090074,-1.3281
0.0051053,0.059727,0.056518,0.044946,-0.23197,-0.51898,0.15472,-0.76479,-0.25601,-0.67564,-0.022267,-0.85056,-0.24542,1.5704,0.20178,0.99238,-0.0026852,-0.090739,0.033199,0.22757,0.022552,-0.82533,-0.013503,-1.2914
0.0071029,0.057028,0.055718,0.045926,-0.2224,-0.50831,0.14154,-0.76917,-0.26279,-0.65838,-0.0095137,-0.81522,-0.16945,2.0141,0.25733,1.1418,-0.0021985,-0.15141,-0.020787,0.18286,0.030541,-0.7882,-0.033402,-1.2778
0.0091329,0.054573,0.050558,0.050808,-0.21875,-0.48407,0.13031,-0.77413,-0.27032,-0.62705,0.0056022,-0.76892,-0.10324,2.532,0.31188,1.3851,-0.0014968,-0.1932,-0.068323,0.15358,0.048175,-0.72236,-0.048245,-1.2672
0.0095731,0.050836,0.042328,0.053823,-0.21643,-0.45401,0.11491,-0.79125,-0.27546,-0.58263,0.018045,-0.72677,-0.066189,3.0389,0.34333,1.687,-0.00035479,-0.21687,-0.1163,0.13294,0.071696,-0.63269,-0.05542,-1.2397
0.0080499,0.045479,0.034513,0.050974,-0.20836,-0.42197,0.089189,-0.8193,-0.27115,-0.53547,0.025917,-0.70401,-0.069568,3.4429,0.33285,1.9581,0.00077808,-0.22815,-0.169,0.11076,0.094008,-0.54868,-0.054765,-1.1908
0.0052972,0.039228,0.02984,0.042771,-0.19089,-0.38852,0.050472,-0.84827,-0.24882,-0.4956,0.031916,-0.7062,-0.11191,3.6964,0.28179,2.1038,0.00097631,-0.23509,-0.22389,0.079656,0.10835,-0.50835,-0.049844,-1.132
0.0022936,0.033302,0.028156,0.03326,-0.16706,-0.3541,0.00074663,-0.86922,-0.2031,-0.46173,0.040976,-0.72363,-0.18136,3.8063,0.21309,2.075,-0.00072882,-0.24397,-0.27379,0.039243,0.11147,-0.53659,-0.046132,-1.0799
-0.00026651,0.028651,0.026944,0.026453,-0.14448,-0.32386,-0.055114,-0.88232,-0.13544,-0.41985,0.056124,-0.7337,-0.26344,3.8022,0.15615,1.8858,-0.0047893,-0.25699,-0.31339,-0.0046629,0.10436,-0.63363,-0.047295,-1.0446
-0.0018086,0.025304,0.023795,0.023297,-0.12953,-0.31005,-0.11245,-0.89688,-0.053909,-0.3544,0.075905,-0.71031,-0.34897,3.6947,0.12809,1.5952,-0.010601,-0.27319,-0.34411,-0.04518,0.090595,-0.77975,-0.052809,-1.0284
-0.0016383,0.022214,0.018532,0.021609,-0.12283,-0.32799,-0.1686,-0.92269,0.031176,-0.26371,0.095246,-0.63594,-0.43753,3.4701,0.12577,1.2725,-0.016386,-0.2918,-0.37324,-0.079835,0.074129,-0.94814,-0.058986,-1.0331
0.00066635,0.017805,0.013149,0.018619,-0.11956,-0.38525,-0.22182,-0.95915,0.11227,-0.16665,0.10888,-0.51051,-0.53496,3.1243,0.13319,0.97076,-0.019943,-0.31517,-0.40826,-0.11257,0.058264,-1.1128,-0.06228,-1.0657
0.0044378,0.011041,0.009876,0.013595,-0.11397,-0.47081,-0.26838,-0.99102,0.18662,-0.093206,0.11472,-0.35229,-0.64729,2.7034,0.13606,0.72321,-0.020147,-0.34889,-0.45118,-0.15154,0.046225,-1.2466,-0.061591,-1.136
0.0077127,0.0024094,0.0092535,0.0082439,-0.10404,-0.55373,-0.3005,-0.9954,0.25406,-0.064099,0.11501,-0.18902,-0.77438,2.3058,0.13133,0.55137,-0.018123,-0.3992,-0.49776,-0.20492,0.042042,-1.3175,-0.057505,-1.245
0.0083236,-0.0059372,0.0098788,0.0048591,-0.092325,-0.59605,-0.30788,-0.95628,0.31351,-0.074387,0.11488,-0.043056,-0.90603,2.0366,0.12563,0.472,-0.016828,-0.4697,-0.54172,-0.27767,0.050165,-1.2937,-0.049731,-1.3752
0.0056413,-0.011193,0.0097904,0.0042279,-0.082872,-0.57409,-0.2826,-0.87686,0.36188,-0.094264,0.11945,0.080861,-1.0228,1.9468,0.12654,0.49367,-0.01879,-0.5599,-0.57989,-0.37013,0.073359,-1.1608,-0.035956,-1.4931
0.001357,-0.011503,0.0080772,0.0052852,-0.077198,-0.49406,-0.2246,-0.78045,0.39692,-0.088206,0.13096,0.19678,-1.1026,2.0072,0.13555,0.60884,-0.023588,-0.66607,-0.61375,-0.47787,0.11012,-0.9367,-0.013796,-1.5635
-0.0017118,-0.0070438,0.0053701,0.006588,-0.072924,-0.38993,-0.14399,-0.69845,0.4214,-0.03961,0.14746,0.32582,-1.1314,2.1365,0.14798,0.79233,-0.027339,-0.7835,-0.64636,-0.59232,0.15372,-0.66919,0.015914,-1.5675
-0.0020103,0.00020694,0.0030818,0.0078429,-0.065872,-0.30316,-0.057841,-0.65279,0.44417,0.036808,0.16358,0.47935,-1.112,2.2572,0.15851,1.0107,-0.025142,-0.90813,-0.67778,-0.70275,0.19425,-0.41129,0.048012,-1.5105
-0.00073466,0.0076709,0.0022915,0.009787,-0.053461,-0.25773,0.01701,-0.6442,0.47608,0.10411,0.17322,0.64938,-1.0639,2.3343,0.1659,1.2358,-0.014828,-1.0369,-0.70348,-0.8,0.22298,-0.1913,0.07566,-1.415
-0.0009061,0.013187,0.0031413,0.012564,-0.036509,-0.24792,0.071052,-0.65366,0.5228,0.12729,0.17292,0.81287,-1.0117,2.3693,0.1728,1.4531,0.0011326,-1.1672,-0.7173,-0.88065,0.23648,-0.00037337,0.094526,-1.3045
-0.0046524,0.015093,0.0048702,0.014468,-0.018349,-0.24706,0.10483,-0.6556,0.57973,0.095352,0.16363,0.94572,-0.96952,2.3665,0.18149,1.6606,0.017421,-1.2963,-0.7166,-0.94847,0.23765,0.19094,0.10462,-1.1912
-0.011051,0.011905,0.006127,0.012721,-0.0025583,-0.22945,0.12597,-0.63324,0.63293,0.026549,0.14978,1.0345,-0.93284,2.3096,0.19018,1.8624,0.030036,-1.4217,-0.70529,-1.011,0.23278,0.39935,0.10819,-1.0764
-0.016527,0.0027588,0.0053772,0.0059692,0.0086836,-0.18793,0.14289,-0.58602,0.66601,-0.044536,0.13588,1.0776,-0.88739,2.1731,0.1937,2.0644,0.039279,-1.5406,-0.69204,-1.0729,0.22658,0.60504,0.10593,-0.96113
-0.017573,-0.011157,0.0015464,-0.0037634,0.014724,-0.13391,0.15963,-0.52518,0.6687,-0.086477,0.12364,1.079,-0.82645,1.9538,0.18793,2.2704,0.048882,-1.6497,-0.68488,-1.1307,0.21886,0.75684,0.095825,-0.8545
-0.013513,-0.025665,-0.0051422,-0.011738,0.015747,-0.082205,0.17493,-0.46244,0.64156,-0.083208,0.1118,1.0434,-0.76093,1.6904,0.17384,2.4769,0.062003,-1.7445,-0.68601,-1.1745,0.20547,0.80283,0.075884,-0.77096
-0.007003,-0.034963,-0.012734,-0.013693,0.012336,-0.035682,0.18521,-0.40129,0.59421,-0.033786,0.098951,0.9799,-0.71007,1.4466,0.15726,2.6651,0.077641,-1.8204,-0.69023,-1.1957,0.1825,0.72315,0.04827,-0.71718
-0.0020039,-0.035172,-0.018224,-0.0090865,0.0055636,0.015682,0.18831,-0.33744,0.53846,0.054544,0.086785,0.90905,-0.67901,1.2714,0.14449,2.797,0.090649,-1.8743,-0.68802,-1.1955,0.15036,0.5414,0.0203,-0.68177
-0.0010368,-0.027338,-0.019269,-0.0015935,-0.0030028,0.081005,0.1849,-0.26683,0.48148,0.17113,0.080341,0.86297,-0.64396,1.169,0.13743,2.8255,0.095347,-1.9057,-0.67106,-1.1873,0.1142,0.30861,0.00053819,-0.63971
-0.0039097,-0.016915,-0.015786,0.0037959,-0.011901,0.15401,0.1769,-0.19308,0.42341,0.30148,0.084545,0.87204,-0.56228,1.1042,0.13228,2.717,0.089572,-1.915,-0.63632,-1.1884,0.080347,0.074053,-0.0071712,-0.57068
-0.0085554,-0.0095434,-0.010117,0.0048155,-0.020641,0.21345,0.16522,-0.12703,0.36072,0.42623,0.099548,0.94633,-0.40323,1.0349,0.12266,2.4727,0.075879,-1.8984,-0.58649,-1.2067,0.051856,-0.13543,-0.0067454,-0.47712
-0.012798,-0.0065795,-0.0055009,0.0037155,-0.029941,0.24035,0.14928,-0.077709,0.29237,0.52512,0.11894,1.0666,-0.17528,0.94285,0.1043,2.1314,0.059279,-1.8436,-0.5266,-1.2312,0.026739,-0.31631,-0.0073159,-0.3863
-0.015401,-0.0044578,-0.0040104,0.0051837,-0.04079,0.23746,0.12876,-0.042374,0.22381,0.58565,0.13289,1.1937,0.074351,0.83795,0.077412,1.7501,0.043865,-1.732,-0.46013,-1.2357,6.9255e-005,-0.47431,-0.0171,-0.33259
-0.015851,0.0013827,-0.0055149,0.012065,-0.052921,0.2322,0.10547,-0.004698,0.16559,0.60945,0.13413,1.2898,0.28976,0.73731,0.045893,1.3779,0.031079,-1.5492,-0.38767,-1.1948,-0.032222,-0.60983,-0.038435,-0.33251
-0.013727,0.011612,-0.0082414,0.022539,-0.06397,0.25795,0.083162,0.055571,0.12756,0.61021,0.12243,1.3364,0.44252,0.64416,0.015171,1.043,0.020352,-1.2985,-0.30939,-1.1018,-0.070906,-0.71319,-0.067268,-0.37077
-0.0087584,0.021856,-0.010186,0.031281,-0.07035,0.32744,0.06494,0.14753,0.11254,0.6036,0.10378,1.3356,0.54507,0.54863,-0.0086114,0.75999,0.010545,-1.0077,-0.22857,-0.97531,-0.11361,-0.7695,-0.09648,-0.40681
-0.0016637,0.02651,-0.010152,0.033704,-0.069539,0.4202,0.0507,0.25972,0.1141,0.59736,0.085219,1.2983,0.63194,0.44929,-0.018106,0.54634,0.00053387,-0.71962,-0.15249,-0.84977,-0.15624,-0.76613,-0.11974,-0.39623
0.0053016,0.024018,-0.0078736,0.029704,-0.062233,0.49508,0.037231,0.36405,0.1196,0.58953,0.069133,1.2319,0.72626,0.37178,-0.0054917,0.42639,-0.011071,-0.47086,-0.088557,-0.75495,-0.19389,-0.69732,-0.13326,-0.31235
0.0091586,0.018667,-0.0036026,0.023742,-0.05253,0.51835,0.021362,0.43132,0.11654,0.57588,0.051881,1.1384,0.82033,0.36067,0.033577,0.41431,-0.025722,-0.27227,-0.038474,-0.69991,-0.22108,-0.56663,-0.13559,-0.15603
0.0081606,0.017206,0.0021471,0.021284,-0.045552,0.48579,0.0036422,0.44806,0.098078,0.55919,0.027504,1.0235,0.88466,0.44466,0.094445,0.48942,-0.043572,-0.10632,0.004402,-0.67181,-0.2328,-0.38988,-0.12726,0.048491
0.0033217,0.023368,0.0085002,0.024678,-0.043906,0.42256,-0.010805,0.42355,0.064891,0.55136,-0.0065874,0.90374,0.89538,0.60273,0.16118,0.5885,-0.062139,0.056419,0.051131,-0.64917,-0.22737,-0.19731,-0.11122,0.2662
-0.0020036,0.035083,0.014109,0.031753,-0.045681,0.36351,-0.015385,0.38296,0.023239,0.56557,-0.046763,0.80418,0.85592,0.76355,0.2114,0.62897,-0.076864,0.23385,0.10897,-0.61791,-0.20952,-0.029625,-0.093182,0.46589
-0.0044166,0.046517,0.017444,0.037921,-0.045928,0.33078,-0.0068554,0.35226,-0.018753,0.60404,-0.085463,0.74629,0.79666,0.84672,0.22692,0.55227,-0.083831,0.4199,0.17529,-0.57772,-0.19054,0.075415,-0.08022,0.63224
-0.002834,0.052712,0.017487,0.03966,-0.040922,0.32548,0.01192,0.34567,-0.054202,0.65139,-0.1166,0.73548,0.75642,0.81833,0.20409,0.35815,-0.082602,0.59097,0.2389,-0.53507,-0.18412,0.10066,-0.077667,0.77244
0.0010472,0.052762,0.014438,0.036625,-0.031994,0.3365,0.03351,0.3632,-0.078836,0.67902,-0.13955,0.75796,0.7624,0.7172,0.15653,0.10448,-0.07655,0.72334,0.28808,-0.49083,-0.19981,0.059847,-0.086377,0.91453
0.0044627,0.049362,0.0098978,0.031285,-0.02553,0.35545,0.050564,0.39767,-0.090939,0.65831,-0.15851,0.78798,0.82182,0.62724,0.10836,-0.12888,-0.070157,0.80605,0.31897,-0.43367,-0.23876,-0.0077233,-0.10255,1.0971
0.0058165,0.045895,0.0062615,0.027035,-0.028545,0.3842,0.060103,0.44421,-0.09079,0.57428,-0.17802,0.7991,0.92511,0.61322,0.081979,-0.28783,-0.06555,0.84024,0.33778,-0.3454,-0.29451,-0.055027,-0.12019,1.355
0.0054645,0.043951,0.0054756,0.02638,-0.043008,0.4303,0.064486,0.50431,-0.080042,0.43227,-0.19849,0.77222,1.0518,0.66795,0.0881,-0.37086,-0.061251,0.8307,0.35524,-0.21411,-0.35756,-0.045589,-0.13409,1.709
0.0046234,0.042987,0.0077981,0.029983,-0.063467,0.49683,0.068751,0.5826,-0.061047,0.25586,-0.21546,0.69795,1.174,0.71268,0.12386,-0.41861,-0.054107,0.78126,0.37847,-0.045216,-0.41948,0.038153,-0.14119,2.1633
0.0037921,0.041631,0.011391,0.036473,-0.080144,0.57699,0.076548,0.68016,-0.036233,0.079134,-0.22316,0.57534,1.2593,0.65223,0.17867,-0.4774,-0.042562,0.6998,0.40648,0.13743,-0.47352,0.19653,-0.14025,2.7068
0.002321,0.038924,0.01323,0.042798,-0.085218,0.65759,0.087522,0.79063,-0.0081301,-0.062807,-0.21932,0.40948,1.2805,0.44404,0.24257,-0.5665,-0.028443,0.60553,0.43235,0.30142,-0.51283,0.41658,-0.13135,3.3121
-0.0006301,0.034496,0.010938,0.045237,-0.077399,0.72736,0.097636,0.9023,0.019521,-0.14251,-0.20748,0.20869,1.2283,0.12943,0.31091,-0.67335,-0.015912,0.52724,0.4492,0.42098,-0.53018,0.67253,-0.11626,3.928
-0.0049715,0.028084,0.0043863,0.041113,-0.061473,0.78264,0.10187,1.0044,0.040356,-0.14729,-0.19519,-0.018806,1.1195,-0.19551,0.38254,-0.77691,-0.0086464,0.48962,0.45463,0.48876,-0.52105,0.92583,-0.098925,4.4773
-0.0096145,0.019424,-0.0041126,0.030544,-0.043884,0.82648,0.097332,1.0927,0.04562,-0.082962,-0.18957,-0.26648,0.98921,-0.44579,0.45395,-0.87541,-0.0074441,0.49776,0.45089,0.51804,-0.48802,1.1327,-0.084391,4.8708
-0.013372,0.0089597,-0.011174,0.017037,-0.028586,0.86367,0.084792,1.1702,0.027548,0.028583,-0.1935,-0.52688,0.87175,-0.59982,0.51494,-0.99119,-0.009794,0.53348,0.44172,0.53375,-0.4412,1.2617,-0.076077,5.04
-0.0157,-0.0013059,-0.014264,0.0061608,-0.01655,0.89653,0.067677,1.2432,-0.015087,0.1584,-0.2048,-0.78489,0.78181,-0.70001,0.54991,-1.1455,-0.011468,0.56776,0.42943,0.55739,-0.39252,1.3123,-0.073262,4.9706
-0.0165,-0.0079893,-0.012834,0.0027762,-0.0083381,0.92455,0.049439,1.3153,-0.072994,0.28205,-0.21857,-1.0129,0.71103,-0.8045,0.54466,-1.3245,-0.0090483,0.5791,0.41428,0.59486,-0.34687,1.3232,-0.071229,4.7154
-0.015443,-0.0080171,-0.0081295,0.0083576,-0.006151,0.94647,0.031222,1.3844,-0.1279,0.38671,-0.23054,-1.1756,0.64126,-0.93021,0.49387,-1.4696,-0.0019793,0.56372,0.3956,0.63554,-0.29698,1.3604,-0.064279,4.3738
-0.011937,-0.00093788,-0.002246,0.02008,-0.01256,0.96212,0.011676,1.4439,-0.16018,0.46941,-0.23923,-1.2462,0.56236,-1.033,0.40386,-1.5083,0.0069871,0.53187,0.37276,0.66366,-0.22688,1.4916,-0.049319,4.0498
-0.006105,0.0099663,0.0026708,0.032315,-0.026994,0.97205,-0.010918,1.4877,-0.15857,0.52925,-0.2456,-1.2254,0.47936,-1.0404,0.28862,-1.4098,0.013353,0.49718,0.34519,0.67392,-0.12247,1.7585,-0.027295,3.8134
0.00022857,0.019116,0.0048219,0.039741,-0.043886,0.97597,-0.035934,1.5134,-0.12547,0.56172,-0.25088,-1.1487,0.40435,-0.91145,0.16226,-1.2212,0.013671,0.47028,0.31196,0.67866,0.018096,2.1587,-0.0017283,3.6859
0.003939,0.022133,0.0031823,0.040235,-0.055251,0.972,-0.059419,1.5235,-0.074159,0.56143,-0.2542,-1.0722,0.34225,-0.67717,0.033543,-1.0535,0.0078179,0.4601,0.2724,0.69964,0.18119,2.6436,0.02394,3.6473
0.0026401,0.019028,-0.0017882,0.035788,-0.056203,0.9577,-0.075811,1.5224,-0.019882,0.5309,-0.252,-1.044,0.28453,-0.42981,-0.093851,-1.0197,-0.0009473,0.47694,0.22762,0.74942,0.34379,3.1317,0.047968,3.654
-0.0031396,0.014411,-0.007744,0.030851,-0.048722,0.93253,-0.081164,1.5132,0.02892,0.48584,-0.24002,-1.0791,0.21689,-0.27065,-0.21646,-1.1673,-0.008273,0.52942,0.18171,0.81715,0.48402,3.5329,0.070135,3.6541
-0.0097195,0.014028,-0.011303,0.02918,-0.04,0.89951,-0.075487,1.4974,0.072977,0.44896,-0.2167,-1.158,0.13361,-0.25515,-0.32675,-1.4528,-0.011634,0.61554,0.14114,0.87163,0.58919,3.7781,0.090664,3.5991
-0.012665,0.019873,-0.010185,0.031263,-0.036411,0.86478,-0.062609,1.4756,0.11716,0.43428,-0.18581,-1.2485,0.045728,-0.37477,-0.41362,-1.7767,-0.011579,0.7169,0.11219,0.88101,0.65688,3.8423,0.10942,3.4569
-0.010202,0.027737,-0.0051844,0.034062,-0.038232,0.83483,-0.047885,1.4505,0.16262,0.43456,-0.15585,-1.3358,-0.024132,-0.58187,-0.46772,-2.0491,-0.010467,0.80418,0.097644,0.83494,0.69039,3.7501,0.12561,3.2269
-0.0048178,0.029575,-0.00011723,0.033182,-0.039854,0.81303,-0.035485,1.4258,0.20259,0.42378,-0.13584,-1.434,-0.055623,-0.82994,-0.48683,-2.2353,-0.01002,0.85255,0.094952,0.7518,0.69351,3.5594,0.13762,2.9441
-0.0014322,0.019508,0.00075371,0.025966,-0.035443,0.7979,-0.026839,1.4042,0.2251,0.37525,-0.1299,-1.5703,-0.041978,-1.0932,-0.47654,-2.3515,-0.0098997,0.85535,0.097159,0.66514,0.66875,3.33,0.14281,2.663
-0.0033212,-0.00086107,-0.0039506,0.013504,-0.025004,0.78422,-0.020751,1.3838,0.22014,0.28182,-0.1344,-1.7532,0.0089938,-1.3541,-0.44574,-2.4211,-0.008329,0.82539,0.096526,0.59997,0.61919,3.0969,0.13803,2.4267
-0.0091308,-0.022048,-0.01135,0.00038913,-0.015177,0.76659,-0.014651,1.3586,0.18583,0.16253,-0.14023,-1.9523,0.082577,-1.5808,-0.40116,-2.4361,-0.0038027,0.78314,0.088807,0.55684,0.55115,2.863,0.12117,2.24
-0.013697,-0.032075,-0.016231,-0.0075196,-0.01371,0.74261,-0.00621,1.3206,0.12937,0.051348,-0.13907,-2.107,0.16542,-1.7265,-0.34634,-2.3574,0.0038382,0.74254,0.0754,0.51548,0.47424,2.613,0.093288,2.0684
-0.012314,-0.024263,-0.014914,-0.0060813,-0.02238,0.71331,0.0053464,1.2648,0.063026,-0.021124,-0.12906,-2.1595,0.24799,-1.7594,-0.28563,-2.1504,0.013721,0.70599,0.061664,0.45329,0.39863,2.3355,0.05947,1.8643
-0.0049947,-0.0020999,-0.0080461,0.0048174,-0.034862,0.68033,0.018684,1.191,-0.00098276,-0.037898,-0.1156,-2.0859,0.32181,-1.6971,-0.22877,-1.8214,0.024869,0.67074,0.05234,0.36339,0.33155,2.0362,0.027269,1.6015
0.0030212,0.022352,-8.2108e-005,0.020754,-0.041879,0.64227,0.030932,1.1031,-0.053513,0.0065262,-0.10662,-1.9053,0.3769,-1.6096,-0.19008,-1.4193,0.036569,0.63798,0.047493,0.25805,0.27554,1.7322,0.0032552,1.2916
0.0052916,0.035778,0.0040716,0.034587,-0.039418,0.59398,0.039278,1.0069,-0.088905,0.11133,-0.10622,-1.662,0.40368,-1.5779,-0.18152,-1.003,0.048033,0.61438,0.0424,0.15664,0.22913,1.4374,-0.01014,0.97172
-0.00042706,0.032031,0.0025898,0.040126,-0.032832,0.53103,0.04279,0.90791,-0.10479,0.26618,-0.11198,-1.3992,0.39791,-1.6401,-0.20496,-0.60374,0.05821,0.60463,0.031854,0.069377,0.18865,1.152,-0.015344,0.67489
-0.0099554,0.016084,-0.0022347,0.035847,-0.032947,0.45702,0.04319,0.81243,-0.10266,0.441,-0.11789,-1.1446,0.36345,-1.766,-0.25046,-0.21742,0.066422,0.60337,0.015453,-0.0089352,0.14994,0.8656,-0.017514,0.40904
-0.015709,0.00065597,-0.0059948,0.026142,-0.047169,0.38801,0.043796,0.72864,-0.088445,0.58343,-0.11978,-0.91301,0.30943,-1.8813,-0.30201,0.16885,0.073208,0.59586,-0.00081509,-0.090749,0.10974,0.57105,-0.021166,0.15811
-0.012621,-0.0025021,-0.0053941,0.018661,-0.072974,0.34852,0.046993,0.66643,-0.071001,0.63695,-0.1182,-0.7176,0.2441,-1.9151,-0.34494,0.54421,0.080053,0.56789,-0.0086044,-0.18119,0.067461,0.27535,-0.027859,-0.098682
-0.0021118,0.009154,-0.00019095,0.019015,-0.099256,0.35888,0.051808,0.6332,-0.05849,0.57358,-0.11607,-0.57376,0.17146,-1.8256,-0.36826,0.86981,0.087678,0.51578,-0.0040493,-0.27083,0.026557,-0.00050036,-0.036179,-0.368
0.0091566,0.027124,0.0072917,0.026578,-0.11461,0.42054,0.053317,0.62757,-0.054657,0.41664,-0.11394,-0.49182,0.094358,-1.5869,-0.361,1.1098,0.094343,0.44692,0.0080179,-0.34338,-0.0059257,-0.23258,-0.043446,-0.63784
0.014594,0.038089,0.014191,0.034847,-0.116,0.51027,0.044567,0.63594,-0.057994,0.23153,-0.10768,-0.46626,0.021569,-1.1622,-0.30979,1.2694,0.096294,0.37051,0.016006,-0.39281,-0.022751,-0.40723,-0.047492,-0.88664
0.012575,0.0339,0.018793,0.036449,-0.11113,0.5892,0.020175,0.63604,-0.064355,0.086402,-0.091482,-0.47302,-0.028657,-0.50939,-0.20514,1.4015,0.090745,0.28801,0.0085254,-0.43542,-0.02131,-0.52729,-0.04719,-1.0944
0.0069725,0.017875,0.020757,0.028983,-0.11277,0.62285,-0.020295,0.60706,-0.070679,0.011611,-0.063513,-0.47856,-0.034093,0.36733,-0.054508,1.5696,0.079102,0.19317,-0.018247,-0.50464,-0.0063744,-0.60926,-0.041779,-1.2465
0.0032558,0.0024225,0.020336,0.016985,-0.12929,0.59933,-0.070901,0.54037,-0.076749,-0.010269,-0.028761,-0.45428,0.018853,1.3623,0.10978,1.7918,0.067239,0.082846,-0.057205,-0.62913,0.011806,-0.67553,-0.030139,-1.3321
0.0038328,-0.00033514,0.017819,0.0083783,-0.158,0.53297,-0.12056,0.44356,-0.084082,-0.0168,0.0040326,-0.38636,0.12441,2.2725,0.24027,2.0133,0.061805,-0.030625,-0.09243,-0.80828,0.023069,-0.74737,-0.011258,-1.3451
0.006605,0.012328,0.013861,0.0084061,-0.18566,0.45148,-0.15642,0.3349,-0.093724,-0.025661,0.02909,-0.27654,0.25759,2.8825,0.30041,2.1297,0.065187,-0.11714,-0.10547,-1.0032,0.022482,-0.84073,0.013999,-1.2923
0.0075898,0.032011,0.010043,0.016017,-0.19521,0.37699,-0.1681,0.23257,-0.10531,-0.017922,0.048115,-0.13696,0.38631,3.0838,0.28954,2.052,0.073323,-0.14088,-0.083386,-1.1518,0.011339,-0.96348,0.041163,-1.2001
0.0048468,0.046,0.0085335,0.025391,-0.1743,0.31581,-0.15129,0.1466,-0.11796,0.041039,0.068559,0.015374,0.48733,2.9388,0.24567,1.7666,0.078409,-0.080798,-0.025804,-1.2005,-0.0060982,-1.1128,0.062413,-1.1098
0.00010388,0.046949,0.010664,0.030855,-0.121,0.26305,-0.10935,0.078526,-0.13137,0.16286,0.097049,0.16152,0.55438,2.6388,0.22056,1.3529,0.074399,0.052513,0.05198,-1.1325,-0.026732,-1.2737,0.069712,-1.0578
-0.0030942,0.037737,0.01558,0.030867,-0.044018,0.21501,-0.052182,0.026302,-0.14582,0.31573,0.1336,0.2828,0.59353,2.3821,0.24398,0.94823,0.060845,0.2139,0.12292,-0.97753,-0.050003,-1.4222,0.059516,-1.0541
-0.0026512,0.028102,0.02049,0.028034,0.041437,0.17607,0.0072694,-0.01196,-0.16096,0.4417,0.1714,0.3646,0.61079,2.2606,0.30461,0.68198,0.042279,0.33773,0.15929,-0.7947,-0.075815,-1.533,0.035875,-1.0771
0.00049259,0.026409,0.022671,0.025852,0.11991,0.1532,0.057476,-0.039565,-0.17523,0.49734,0.2022,0.40116,0.60323,2.2291,0.3625,0.61673,0.024205,0.36366,0.14617,-0.64337,-0.10154,-1.587,0.0091052,-1.0901
0.0036455,0.033457,0.021627,0.02543,0.18109,0.14445,0.091395,-0.065487,-0.18687,0.48313,0.22241,0.39799,0.56093,2.1664,0.38234,0.72348,0.0094028,0.26251,0.089103,-0.55736,-0.12121,-1.5754,-0.0099908,-1.0695
0.0049435,0.042892,0.019365,0.02496,0.22249,0.13407,0.10693,-0.10479,-0.19553,0.43762,0.23509,0.36923,0.47715,1.9708,0.36054,0.90013,-0.0026744,0.049839,0.010029,-0.53661,-0.12786,-1.4974,-0.016887,-1.0205
0.004666,0.04702,0.018378,0.021924,0.24872,0.10084,0.10534,-0.17199,-0.20278,0.40332,0.24648,0.33119,0.3571,1.6182,0.32503,1.0223,-0.013733,-0.22021,-0.066411,-0.55669,-0.11746,-1.3561,-0.016274,-0.9699
0.0042815,0.042698,0.019086,0.015706,0.26768,0.033042,0.089603,-0.27169,-0.21055,0.39438,0.26055,0.29643,0.21698,1.1576,0.3106,1.0029,-0.024253,-0.47817,-0.12639,-0.58608,-0.091651,-1.1587,-0.018726,-0.94359
0.0045495,0.03267,0.019181,0.0082869,0.28561,-0.063453,0.064068,-0.39468,-0.21877,0.39133,0.27605,0.27253,0.074442,0.66599,0.33164,0.832,-0.032972,-0.66779,-0.17036,-0.59963,-0.057733,-0.92202,-0.033222,-0.94785
0.0047656,0.022089,0.015663,0.0026248,0.30345,-0.17158,0.034925,-0.52391,-0.22473,0.36285,0.28819,0.26519,-0.060944,0.20676,0.37445,0.57768,-0.038186,-0.7651,-0.20487,-0.5824,-0.025832,-0.67473,-0.060866,-0.96863
0.0038187,0.013959,0.0078304,0.00031988,0.31672,-0.27794,0.0094495,-0.64586,-0.2252,0.29217,0.29299,0.28125,-0.18857,-0.18274,0.41216,0.34611,-0.039317,-0.77967,-0.23119,-0.52655,-0.0046634,-0.45139,-0.094291,-0.98545
0.0017399,0.007549,-0.0015064,0.00053286,0.31907,-0.38229,-0.0068677,-0.7577,-0.21987,0.18586,0.29037,0.32739,-0.30852,-0.48079,0.42715,0.22429,-0.037445,-0.74089,-0.24178,-0.42808,0.0020643,-0.27703,-0.12284,-0.98546
-5.2342e-005,0.00056184,-0.0078367,0.00086791,0.30722,-0.4928,-0.013666,-0.86404,-0.21338,0.061739,0.28386,0.40437,-0.41223,-0.66799,0.42165,0.23969,-0.034773,-0.68006,-0.22796,-0.28763,-0.0031858,-0.15402,-0.13925,-0.96731
-0.00014988,-0.0076008,-0.0083405,-0.00073465,0.28397,-0.61154,-0.016316,-0.96657,-0.21347,-0.069132,0.27764,0.50242,-0.48143,-0.72537,0.41041,0.35946,-0.033696,-0.61874,-0.19106,-0.11417,-0.013726,-0.063143,-0.14272,-0.93577
0.0012647,-0.014865,-0.0040189,-0.0046951,0.25714,-0.72387,-0.022193,-1.0563,-0.22612,-0.20906,0.27375,0.60369,-0.49808,-0.64409,0.40511,0.52383,-0.035944,-0.5661,-0.14577,0.073599,-0.022593,0.018754,-0.13687,-0.89604
0.0023557,-0.018667,0.0011784,-0.0099557,0.23526,-0.80218,-0.034817,-1.116,-0.25076,-0.36524,0.27149,0.69267,-0.45805,-0.43752,0.40512,0.68488,-0.041907,-0.52164,-0.11088,0.25175,-0.026024,0.097019,-0.12508,-0.85323
0.001242,-0.019024,0.0033948,-0.015176,0.22326,-0.82237,-0.050498,-1.1317,-0.27927,-0.53629,0.26907,0.76728,-0.37801,-0.14611,0.4011,0.82314,-0.050368,-0.47851,-0.094854,0.40031,-0.024293,0.15082,-0.10773,-0.81466
-0.0022729,-0.019393,0.0015002,-0.019792,0.22073,-0.78059,-0.060641,-1.1035,-0.30011,-0.70591,0.26536,0.84118,-0.28931,0.17063,0.38567,0.93773,-0.059057,-0.42664,-0.088964,0.5116,-0.019711,0.14634,-0.083502,-0.78941
-0.0064966,-0.024232,-0.0027096,-0.024117,0.22369,-0.6979,-0.058248,-1.0485,-0.30506,-0.84731,0.26017,0.93328,-0.22271,0.45415,0.36028,1.0283,-0.066106,-0.35777,-0.074352,0.59232,-0.013836,0.062503,-0.052704,-0.78406
-0.0092693,-0.035281,-0.0065795,-0.028624,0.22787,-0.6099,-0.043481,-0.99193,-0.29412,-0.93311,0.25298,1.0511,-0.19416,0.66943,0.33282,1.0893,-0.071497,-0.27234,-0.037354,0.65827,-0.006363,-0.090345,-0.019322,-0.79878
-0.009562,-0.049751,-0.0089101,-0.033252,0.23128,-0.54943,-0.023772,-0.95558,-0.27522,-0.94415,0.24182,1.1807,-0.20073,0.81609,0.30963,1.1194,-0.07716,-0.18354,0.019948,0.72572,0.0035269,-0.27304,0.010372,-0.82857
-0.0078164,-0.062076,-0.010541,-0.037398,0.23466,-0.5341,-0.0084957,-0.95041,-0.25893,-0.87558,0.22377,1.2927,-0.22744,0.91823,0.28986,1.1296,-0.085269,-0.11269,0.082301,0.80509,0.014957,-0.43922,0.031273,-0.86835
-0.0050344,-0.067879,-0.012934,-0.040533,0.24028,-0.56517,-0.0025851,-0.97741,-0.25226,-0.74091,0.1972,1.3606,-0.25814,0.99862,0.26696,1.1354,-0.095959,-0.076314,0.13355,0.90005,0.024624,-0.55964,0.041985,-0.91652
-0.0018762,-0.066969,-0.016276,-0.042767,0.25008,-0.63503,-0.0038903,-1.0327,-0.25565,-0.57222,0.16373,1.379,-0.28211,1.0562,0.23485,1.1379,-0.10653,-0.073332,0.16725,1.0105,0.02847,-0.63229,0.044594,-0.97274
0.0012345,-0.062973,-0.018928,-0.044771,0.26428,-0.73522,-0.005597,-1.1106,-0.26483,-0.41188,0.12829,1.3685,-0.2937,1.0653,0.19314,1.1121,-0.11314,-0.083299,0.18702,1.1352,0.024404,-0.6734,0.04241,-1.0322
0.0034007,-0.060049,-0.018742,-0.047127,0.28099,-0.85846,-0.0010326,-1.2023,-0.27507,-0.29492,0.09679,1.363,-0.28907,0.99707,0.14734,1.0179,-0.11376,-0.079397,0.19868,1.2721,0.013744,-0.69909,0.037878,-1.0826
0.0032212,-0.059532,-0.015044,-0.049698,0.29685,-0.99536,0.012784,-1.2933,-0.28421,-0.2308,0.073327,1.3894,-0.26589,0.84517,0.10467,0.82998,-0.10984,-0.047621,0.20322,1.4146,0.00018976,-0.71218,0.032142,-1.1072
1.1295e-005,-0.059359,-0.0094785,-0.051585,0.30878,-1.1313,0.034369,-1.3655,-0.2926,-0.19896,0.058939,1.4526,-0.22728,0.63486,0.069466,0.56367,-0.1051,0.0026066,0.19753,1.5492,-0.012725,-0.7027,0.02593,-1.0921
-0.0047835,-0.0567,-0.0049336,-0.051699,0.31604,-1.2491,0.058838,-1.4049,-0.30105,-0.16538,0.052644,1.5348,-0.18511,0.40975,0.040954,0.2767,-0.10234,0.045372,0.18073,1.656,-0.023587,-0.65882,0.020442,-1.0322
-0.0077462,-0.051296,-0.0034402,-0.049505,0.32129,-1.3363,0.079435,-1.4107,-0.30963,-0.11077,0.053229,1.6069,-0.15673,0.20993,0.013947,0.045828,-0.10102,0.058103,0.15745,1.7144,-0.033037,-0.57822,0.017363,-0.93207
-0.0057707,-0.046359,-0.0048725,-0.045417,0.32968,-1.3921,0.089406,-1.3976,-0.31831,-0.048552,0.059811,1.6422,-0.15509,0.05883,-0.018909,-0.066254,-0.097759,0.039481,0.13332,1.7122,-0.042149,-0.47169,0.018154,-0.80316
0.00114,-0.046034,-0.0075098,-0.040719,0.34631,-1.4267,0.084682,-1.3877,-0.3281,-0.016892,0.070688,1.6247,-0.17937,-0.036414,-0.064495,-0.034381,-0.089456,0.012228,0.10663,1.6546,-0.050987,-0.3582,0.023329,-0.66114
0.0091194,-0.051598,-0.0098324,-0.037133,0.37355,-1.4528,0.066735,-1.3963,-0.34054,-0.0491,0.082124,1.5494,-0.21482,-0.080918,-0.12652,0.12429,-0.07631,0.0092565,0.066091,1.5657,-0.058664,-0.2569,0.032109,-0.52418
0.012842,-0.059832,-0.011807,-0.036195,0.40994,-1.4753,0.043468,-1.4225,-0.35538,-0.14572,0.089074,1.4201,-0.24394,-0.094288,-0.20317,0.36108,-0.061992,0.053356,-0.00038815,1.4802,-0.064561,-0.18141,0.042448,-0.40961
0.0094571,-0.065146,-0.014444,-0.038582,0.45111,-1.4878,0.026468,-1.4495,-0.36847,-0.27096,0.087992,1.2479,-0.26135,-0.11666,-0.28619,0.61418,-0.050763,0.1437,-0.092135,1.4258,-0.069126,-0.1378,0.051336,-0.32749
0.00086779,-0.063726,-0.018104,-0.043612,0.49143,-1.4766,0.02572,-1.4566,-0.37264,-0.37659,0.079528,1.0513,-0.28023,-0.20542,-0.36277,0.82794,-0.044042,0.25623,-0.19004,1.4076,-0.073084,-0.12385,0.055528,-0.27346
-0.007632,-0.056245,-0.021315,-0.049345,0.52514,-1.4313,0.045403,-1.4328,-0.3614,-0.4341,0.068569,0.85433,-0.32407,-0.41419,-0.41999,0.9685,-0.039566,0.35591,-0.26603,1.4051,-0.0757,-0.12795,0.052751,-0.22741
-0.011304,-0.047045,-0.021422,-0.053472,0.54672,-1.352,0.083936,-1.3835,-0.33323,-0.45051,0.061191,0.68002,-0.40894,-0.7626,-0.44997,1.0308,-0.033935,0.41367,-0.30174,1.3865,-0.074042,-0.12943,0.042953,-0.16229
-0.0092551,-0.040743,-0.016666,-0.054552,0.5514,-1.2495,0.13774,-1.3256,-0.29306,-0.45775,0.060811,0.54192,-0.52923,-1.2169,-0.45281,1.0327,-0.026197,0.41992,-0.30142,1.3302,-0.064666,-0.10385,0.028741,-0.059533
-0.0044553,-0.039115,-0.0078243,-0.052677,0.53638,-1.1392,0.20461,-1.2756,-0.25007,-0.4868,0.066467,0.4394,-0.65761,-1.6961,-0.43562,0.998,-0.019076,0.38896,-0.28818,1.2377,-0.046839,-0.033933,0.014352,0.078445
-0.00074946,-0.040413,0.0021269,-0.048982,0.50225,-1.0346,0.28283,-1.2396,-0.21367,-0.54754,0.074186,0.35932,-0.75885,-2.0996,-0.40821,0.93815,-0.01657,0.35131,-0.28671,1.1271,-0.024651,0.07909,0.0035233,0.22782
0.00035716,-0.041072,0.010085,-0.044505,0.45309,-0.94419,0.36643,-1.212,-0.19045,-0.62749,0.079796,0.28255,-0.80748,-2.3385,-0.37816,0.84662,-0.020099,0.33577,-0.30688,1.0134,-0.0058641,0.21126,-0.0024506,0.35557
0.00039961,-0.038136,0.014813,-0.039538,0.39476,-0.8719,0.44189,-1.1816,-0.18341,-0.70627,0.080679,0.19096,-0.79712,-2.355,-0.3481,0.71133,-0.026865,0.34991,-0.34087,0.89203,0.0020163,0.3235,-0.0051416,0.43566
0.0018245,-0.030896,0.017187,-0.034154,0.33231,-0.81826,0.49114,-1.1411,-0.19295,-0.77207,0.075628,0.071944,-0.73776,-2.1297,-0.31654,0.53662,-0.032073,0.37139,-0.37393,0.74075,-0.0043721,0.37794,-0.0076221,0.45821
0.0052244,-0.021235,0.018739,-0.029228,0.2685,-0.78031,0.5009,-1.0903,-0.21777,-0.82769,0.064102,-0.078609,-0.64598,-1.6844,-0.28133,0.35497,-0.033022,0.35877,-0.39715,0.53769,-0.023077,0.35444,-0.012392,0.42722
0.0085218,-0.012819,0.020098,-0.026585,0.20386,-0.7516,0.47152,-1.033,-0.25476,-0.88409,0.046578,-0.25356,-0.53719,-1.0883,-0.24328,0.21369,-0.03121,0.27814,-0.41065,0.2805,-0.048544,0.25876,-0.020098,0.35194
0.0087871,-0.009334,0.020784,-0.027682,0.1379,-0.72521,0.41768,-0.97144,-0.29821,-0.94778,0.025904,-0.43321,-0.42405,-0.45722,-0.20729,0.14106,-0.030423,0.12897,-0.41647,-0.0097289,-0.074101,0.1189,-0.029667,0.24116
0.0050128,-0.012214,0.020285,-0.031851,0.06982,-0.69967,0.35928,-0.90372,-0.33967,-1.012,0.0076677,-0.58943,-0.31855,0.067453,-0.18038,0.11677,-0.032567,-0.049942,-0.411,-0.30228,-0.093189,-0.027753,-0.039194,0.10483
-0.00061594,-0.019066,0.01898,-0.035921,-0.0014595,-0.68346,0.30896,-0.82712,-0.36939,-1.0576,-0.0020457,-0.69657,-0.23238,0.3628,-0.16765,0.074605,-0.035226,-0.20122,-0.3866,-0.57611,-0.099528,-0.15034,-0.046416,-0.041195
-0.0040843,-0.024303,0.017855,-0.036002,-0.077124,-0.69239,0.26614,-0.74295,-0.37943,-1.0643,-0.00061082,-0.74435,-0.1737,0.37413,-0.16891,-0.055875,-0.033368,-0.28392,-0.34164,-0.82914,-0.087951,-0.23664,-0.04845,-0.17536
-0.0024725,-0.022356,0.017414,-0.030258,-0.15752,-0.73907,0.22184,-0.65749,-0.36712,-1.0244,0.0086542,-0.74319,-0.14351,0.14011,-0.17788,-0.29406,-0.023794,-0.29871,-0.28874,-1.0717,-0.056818,-0.29629,-0.041597,-0.2792
0.0038599,-0.011582,0.017171,-0.020461,-0.24082,-0.82093,0.16952,-0.57742,-0.33712,-0.95259,0.018018,-0.71628,-0.13615,-0.22497,-0.1844,-0.58099,-0.0083911,-0.28466,-0.25122,-1.3121,-0.010397,-0.35352,-0.022292,-0.34873
0.011497,0.0041785,0.016409,-0.011004,-0.32268,-0.91677,0.11231,-0.50455,-0.30022,-0.88144,0.020081,-0.68302,-0.14454,-0.58303,-0.1782,-0.8055,0.006679,-0.28922,-0.24873,-1.5469,0.041445,-0.43273,0.010781,-0.39825
0.016363,0.018069,0.015304,-0.0060854,-0.39771,-0.99702,0.060864,-0.43565,-0.2689,-0.84569,0.011985,-0.64648,-0.1659,-0.82736,-0.15247,-0.86923,0.015163,-0.33303,-0.28309,-1.7628,0.087135,-0.54491,0.054718,-0.45105
0.016424,0.025066,0.014946,-0.0070959,-0.46191,-1.0421,0.024542,-0.36855,-0.25149,-0.86208,-0.0041662,-0.59565,-0.20273,-0.91106,-0.1058,-0.7446,0.014828,-0.39559,-0.33576,-1.9473,0.11843,-0.6832,0.10225,-0.52238
0.01274,0.025406,0.016002,-0.011885,-0.51454,-1.0557,0.0043936,-0.30887,-0.24816,-0.91792,-0.024305,-0.52057,-0.25771,-0.84131,-0.042307,-0.48425,0.0084787,-0.43291,-0.37884,-2.0975,0.13287,-0.83064,0.14403,-0.60707
0.0082893,0.023739,0.017455,-0.016146,-0.55825,-1.0617,-0.0063299,-0.26961,-0.25116,-0.9762,-0.045321,-0.42692,-0.32684,-0.6557,0.029625,-0.17923,0.0016715,-0.41458,-0.39054,-2.2215,0.13214,-0.97459,0.17241,-0.68142
0.0057364,0.024778,0.017037,-0.015871,-0.59729,-1.0864,-0.015778,-0.26189,-0.24937,-0.99443,-0.065048,-0.33609,-0.39661,-0.40256,0.099594,0.097327,-0.00065584,-0.35317,-0.36411,-2.3322,0.11845,-1.1166,0.18455,-0.71838
0.0058914,0.029164,0.013272,-0.0095503,-0.63501,-1.138,-0.027915,-0.28368,-0.23433,-0.94589,-0.080209,-0.26959,-0.44812,-0.13313,0.15778,0.3167,0.0037129,-0.30423,-0.30582,-2.4385,0.092747,-1.2692,0.18341,-0.70483
0.0077965,0.033048,0.0071647,0.0008307,-0.67136,-1.2002,-0.042451,-0.31681,-0.20412,-0.83066,-0.08591,-0.23178,-0.46553,0.1036,0.1973,0.47813,0.014123,-0.33661,-0.22666,-2.542,0.056353,-1.4416,0.17595,-0.64874
0.0099225,0.031588,0.0016698,0.010414,-0.70162,-1.243,-0.058718,-0.33648,-0.16313,-0.67224,-0.07873,-0.20728,-0.44322,0.27377,0.21556,0.57493,0.028067,-0.49339,-0.13574,-2.6378,0.01386,-1.6239,0.16966,-0.57192
0.011258,0.023224,-0.00076578,0.013668,-0.71707,-1.2432,-0.078144,-0.32704,-0.11847,-0.50452,-0.061004,-0.17697,-0.38712,0.37548,0.21414,0.58078,0.042485,-0.76811,-0.039931,-2.7213,-0.026492,-1.7851,0.1692,-0.49466
0.011538,0.011043,-0.00028139,0.0074359,-0.70778,-1.1984,-0.10237,-0.29184,-0.076009,-0.35797,-0.041472,-0.13801,-0.30971,0.44201,0.19715,0.46964,0.055059,-1.1084,0.052512,-2.7913,-0.05632,-1.8872,0.17474,-0.42405
0.010841,0.0002555,0.00070656,-0.0066942,-0.6669,-1.125,-0.1296,-0.24948,-0.038624,-0.25049,-0.030168,-0.10843,-0.22273,0.51986,0.1686,0.24771,0.065375,-1.4406,0.129,-2.8482,-0.072003,-1.909,0.18277,-0.35432
0.0092512,-0.0057911,-0.0001598,-0.022409,-0.59406,-1.0453,-0.15439,-0.21996,-0.0069462,-0.18334,-0.031146,-0.10943,-0.13251,0.63237,0.13003,-0.036365,0.075282,-1.7002,0.1739,-2.8874,-0.076752,-1.8608,0.18862,-0.27794
0.0069233,-0.0075383,-0.0031706,-0.031732,-0.49601,-0.97349,-0.17238,-0.21212,0.018871,-0.141,-0.039489,-0.13996,-0.041373,0.75785,0.079845,-0.31597,0.087705,-1.8537,0.17338,-2.8936,-0.077962,-1.7796,0.18903,-0.19804
0.0043081,-0.0076435,-0.0067537,-0.029707,-0.38413,-0.913,-0.18591,-0.22186,0.038365,-0.096662,-0.045758,-0.16751,0.04694,0.8442,0.015814,-0.54592,0.10419,-1.9067,0.12098,-2.8445,-0.082071,-1.7064,0.18331,-0.13201
0.0021086,-0.0077589,-0.0093996,-0.017661,-0.27048,-0.86205,-0.20441,-0.24074,0.051374,-0.025248,-0.044242,-0.14687,0.12289,0.85222,-0.059877,-0.72364,0.1229,-1.8968,0.020682,-2.7228,-0.09118,-1.6612,0.17284,-0.10268
0.00091327,-0.0068949,-0.011087,-0.0024616,-0.16458,-0.82072,-0.23824,-0.26552,0.058856,0.079286,-0.037648,-0.05409,0.17297,0.7921,-0.13614,-0.87642,0.13899,-1.8718,-0.11346,-2.5305,-0.10379,-1.6341,0.15962,-0.12322
0.00083411,-0.0028517,-0.01273,0.0080992,-0.071979,-0.792,-0.29071,-0.29968,0.062491,0.19312,-0.034032,0.091784,0.18775,0.71994,-0.19337,-1.0294,0.14755,-1.8607,-0.26068,-2.2916,-0.11815,-1.5981,0.14542,-0.18671
0.0014787,0.0049231,-0.014493,0.010614,0.0059115,-0.77669,-0.3554,-0.34565,0.063106,0.26938,-0.03898,0.23822,0.16984,0.69331,-0.21101,-1.1845,0.14701,-1.8502,-0.39832,-2.0389,-0.13454,-1.5332,0.13188,-0.26827
0.0022687,0.014108,-0.015122,0.0079836,0.071496,-0.76816,-0.42087,-0.39577,0.059537,0.26252,-0.050438,0.33342,0.13413,0.72145,-0.17935,-1.3259,0.14054,-1.7868,-0.50635,-1.7929,-0.15447,-1.4414,0.12085,-0.33878
0.0028498,0.021269,-0.01329,0.0063907,0.12999,-0.75287,-0.47823,-0.43081,0.049602,0.15524,-0.06093,0.35817,0.09773,0.75247,-0.10834,-1.4449,0.13405,-1.6098,-0.57076,-1.5504,-0.17779,-1.3435,0.11422,-0.38127
0.0033044,0.024842,-0.0096254,0.0097803,0.18712,-0.71712,-0.52506,-0.42866,0.03294,-0.03232,-0.064762,0.33105,0.066101,0.71045,-0.026442,-1.5554,0.13261,-1.301,-0.58549,-1.2946,-0.20103,-1.2595,0.1129,-0.39951
0.004014,0.026225,-0.0070842,0.01652,0.24578,-0.65532,-0.5629,-0.37686,0.013375,-0.25858,-0.06307,0.28574,0.02657,0.55382,0.03134,-1.6856,0.13785,-0.91595,-0.5529,-1.0202,-0.21843,-1.1917,0.11606,-0.41436
0.0051995,0.0277,-0.0089073,0.021081,0.30368,-0.57364,-0.59257,-0.27964,-0.0017673,-0.48876,-0.061845,0.24205,-0.043889,0.30915,0.039668,-1.8503,0.14787,-0.57188,-0.483,-0.75246,-0.22472,-1.1221,0.12168,-0.45104
0.0063946,0.029197,-0.015873,0.01915,0.35414,-0.48634,-0.6128,-0.15482,-0.0056463,-0.7115,-0.064997,0.19547,-0.16078,0.055841,-0.0063427,-2.027,0.15911,-0.39174,-0.39101,-0.54118,-0.2171,-1.0244,0.12808,-0.52543
0.0063095,0.027314,-0.025425,0.011486,0.39042,-0.4072,-0.62373,-0.023823,0.0036357,-0.9304,-0.069421,0.13152,-0.31686,-0.1231,-0.091526,-2.1559,0.16826,-0.43886,-0.29351,-0.42975,-0.19517,-0.88145,0.13506,-0.63621
0.0034656,0.018013,-0.033553,0.0030451,0.41066,-0.34143,-0.63051,0.097787,0.021798,-1.1398,-0.067109,0.04973,-0.48127,-0.18569,-0.19032,-2.167,0.17295,-0.68324,-0.20424,-0.42207,-0.15979,-0.6944,0.14328,-0.76547
-0.0025586,0.00088163,-0.037692,-0.0016204,0.41977,-0.28315,-0.64102,0.20369,0.041724,-1.3091,-0.052536,-0.024443,-0.61422,-0.14304,-0.27835,-2.0179,0.17157,-1.0194,-0.13111,-0.47355,-0.11261,-0.48072,0.15228,-0.88581
-0.010139,-0.018952,-0.038033,-0.002144,0.4263,-0.21915,-0.65779,0.2946,0.058906,-1.3915,-0.028416,-0.04844,-0.68709,-0.041567,-0.33922,-1.7226,0.16314,-1.3214,-0.075725,-0.5148,-0.056952,-0.2658,0.15932,-0.9704
-0.015926,-0.033348,-0.03628,-0.0017501,0.4365,-0.1359,-0.67062,0.3749,0.074678,-1.3524,-0.0043554,0.016928,-0.69397,0.061288,-0.36499,-1.3545,0.14779,-1.4981,-0.035206,-0.4915,0.0015559,-0.07389,0.16076,-1.0019
-0.016712,-0.036488,-0.033408,-0.0032183,0.45011,-0.024889,-0.65827,0.45158,0.094786,-1.1944,0.010452,0.19063,-0.64792,0.11085,-0.35363,-1.0231,0.12725,-1.5207,-0.0048237,-0.39207,0.056019,0.079616,0.15524,-0.977
-0.011761,-0.02891,-0.028847,-0.0058565,0.46102,0.11578,-0.60032,0.53444,0.12472,-0.95923,0.013967,0.46543,-0.56652,0.061452,-0.3074,-0.8333,0.10438,-1.415,0.019958,-0.24577,0.10088,0.195,0.14569,-0.9051
-0.0037839,-0.017145,-0.021939,-0.0067558,0.46242,0.28185,-0.4913,0.63371,0.16568,-0.70668,0.011696,0.80901,-0.45882,-0.11191,-0.23343,-0.84683,0.081978,-1.2344,0.042441,-0.096766,0.1342,0.29193,0.1381,-0.80105
0.0024905,-0.0092636,-0.014003,-0.0048938,0.4522,0.46239,-0.34588,0.75333,0.21396,-0.48821,0.010965,1.1674,-0.32324,-0.39544,-0.14434,-1.0623,0.0616,-1.0332,0.064187,0.024594,0.15779,0.40486,0.13756,-0.67656
0.0034171,-0.0096939,-0.0085713,-0.0033539,0.43451,0.63793,-0.19114,0.88348,0.26328,-0.33137,0.014677,1.4728,-0.15692,-0.72864,-0.05624,-1.4236,0.043665,-0.8503,0.08471,0.11416,0.17528,0.5674,0.14483,-0.53484
-0.0010119,-0.016902,-0.0089974,-0.0067142,0.41676,0.78129,-0.051882,0.99893,0.30767,-0.23995,0.020075,1.6627,0.032201,-1.0239,0.01617,-1.8475,0.028528,-0.70367,0.10177,0.1866,0.18969,0.7922,0.15631,-0.37151
-0.0071502,-0.025148,-0.015329,-0.015869,0.40501,0.86502,0.059486,1.0675,0.34287,-0.20158,0.022933,1.7081,0.22128,-1.2079,0.065203,-2.2518,0.017277,-0.59275,0.1128,0.25875,0.20238,1.0599,0.16703,-0.18057
-0.010356,-0.028558,-0.02335,-0.025731,0.40198,0.87443,0.14212,1.0657,0.3666,-0.19379,0.022584,1.6348,0.38053,-1.2565,0.092959,-2.5666,0.011095,-0.50558,0.11701,0.33708,0.21357,1.3275,0.17368,0.039382
-0.00836,-0.024471,-0.027041,-0.028781,0.4087,0.81876,0.19883,0.99234,0.37886,-0.18787,0.022908,1.518,0.48832,-1.1938,0.10942,-2.7299,0.0094824,-0.4298,0.11686,0.41567,0.22305,1.5538,0.17506,0.28276
-0.0027723,-0.014101,-0.022716,-0.021562,0.42734,0.73199,0.23046,0.87282,0.38236,-0.1557,0.028541,1.445,0.5424,-1.0594,0.12674,-2.6855,0.0090626,-0.36236,0.11728,0.48233,0.23017,1.7236,0.17025,0.53877
0.0024256,-0.00080122,-0.011562,-0.0079033,0.46109,0.66056,0.23791,0.74989,0.38211,-0.081509,0.040076,1.4656,0.5589,-0.8751,0.15297,-2.401,0.0045126,-0.31173,0.12319,0.52681,0.233,1.8528,0.15723,0.79415
0.0041647,0.012209,0.001411,0.0044334,0.5101,0.64397,0.22789,0.66689,0.38325,0.027004,0.052656,1.5632,0.55976,-0.64296,0.18866,-1.9003,-0.0085598,-0.28975,0.13699,0.54636,0.22821,1.9691,0.134,1.0335
0.0027177,0.022957,0.010986,0.010595,0.56708,0.69829,0.21368,0.65083,0.38819,0.13768,0.059076,1.6667,0.5578,-0.37509,0.22786,-1.2824,-0.030777,-0.29799,0.15812,0.54695,0.21256,2.0842,0.10148,1.2378
0.0013408,0.030436,0.014923,0.012412,0.61766,0.81057,0.20719,0.70275,0.39537,0.20648,0.054512,1.6943,0.55072,-0.11974,0.26248,-0.69711,-0.058327,-0.31899,0.18504,0.54077,0.18549,2.1786,0.065068,1.384
0.0034459,0.033922,0.014372,0.015552,0.64708,0.94582,0.20806,0.79916,0.40056,0.19763,0.038957,1.5987,0.52862,0.049541,0.28685,-0.27942,-0.084956,-0.32023,0.21761,0.54118,0.15104,2.2139,0.032949,1.4505
0.0095931,0.032966,0.011802,0.023039,0.64883,1.0629,0.20094,0.90425,0.4,0.099744,0.015811,1.3869,0.4885,0.079872,0.29999,-0.082346,-0.10514,-0.26933,0.25759,0.55761,0.11717,2.1629,0.011808,1.4258
0.016724,0.028026,0.0086963,0.031646,0.62802,1.1324,0.16583,0.98778,0.39249,-0.069746,-0.011555,1.1072,0.44294,-0.019356,0.30469,-0.056646,-0.11633,-0.15042,0.30701,0.59266,0.092322,2.0326,0.0033194,1.3162
0.020278,0.020824,0.0050349,0.034703,0.59598,1.1484,0.094647,1.0402,0.37945,-0.2721,-0.042062,0.81866,0.41356,-0.17966,0.30494,-0.094984,-0.1192,0.0299,0.36667,0.64309,0.081324,1.8616,0.0040124,1.1459
0.017605,0.013707,0.00052683,0.028453,0.56001,1.1296,0.00023422,1.0756,0.36347,-0.46067,-0.076307,0.5655,0.41264,-0.32363,0.30359,-0.10729,-0.11635,0.25104,0.43735,0.70397,0.083268,1.6935,0.008391,0.94824
0.010096,0.0083354,-0.0040777,0.015708,0.51715,1.1063,-0.09044,1.1206,0.34716,-0.5943,-0.11414,0.366,0.42707,-0.42212,0.30149,-0.069796,-0.11073,0.49507,0.52363,0.77366,0.092808,1.5468,0.0127,0.75306
0.0024396,0.0048505,-0.0071074,0.0033556,0.45804,1.1033,-0.15404,1.1937,0.33309,-0.64751,-0.15299,0.21496,0.41989,-0.5115,0.29784,-0.014057,-0.1044,0.75981,0.63642,0.85712,0.10373,1.4066,0.016575,0.57709
-0.00048955,0.0022518,-0.007413,-0.0036738,0.37836,1.1265,-0.18515,1.2918,0.32368,-0.61633,-0.18864,0.091556,0.35161,-0.65839,0.29096,0.026251,-0.09811,1.0594,0.78949,0.96577,0.11207,1.2433,0.02182,0.42203
0.0030387,-0.00045485,-0.0056707,-0.0061413,0.28825,1.1638,-0.19609,1.3904,0.32023,-0.51824,-0.21783,-0.031481,0.20755,-0.90217,0.27911,0.059361,-0.091299,1.4118,0.98913,1.1133,0.11676,1.042,0.02978,0.28048
0.010356,-0.0034946,-0.004218,-0.0087075,0.21061,1.196,-0.2038,1.4586,0.32132,-0.38463,-0.24034,-0.17817,0.010693,-1.2195,0.26128,0.13269,-0.082886,1.8203,1.2227,1.308,0.11793,0.8185,0.039424,0.14541
0.016064,-0.0066046,-0.0054499,-0.014829,0.16777,1.2088,-0.21649,1.4756,0.32262,-0.24718,-0.25878,-0.36002,-0.19003,-1.5319,0.23802,0.2915,-0.07247,2.261,1.4552,1.5437,0.11487,0.60829,0.047354,0.018551
0.01554,-0.0098552,-0.010069,-0.023469,0.16577,1.1969,-0.23086,1.4379,0.31929,-0.12363,-0.27583,-0.57093,-0.34739,-1.7447,0.212,0.54112,-0.06135,2.6841,1.6398,1.7959,0.10558,0.44044,0.049442,-0.08546
0.008029,-0.013951,-0.016606,-0.030471,0.18818,1.1603,-0.24022,1.3539,0.30943,-0.010968,-0.29116,-0.78957,-0.43842,-1.7864,0.1872,0.84661,-0.05239,3.0313,1.7388,2.0275,0.087933,0.31725,0.042949,-0.14078
-0.0027495,-0.01956,-0.022588,-0.032721,0.205,1.1015,-0.24342,1.2369,0.29566,0.10956,-0.30026,-0.98791,-0.46673,-1.6334,0.1668,1.1653,-0.048424,3.2628,1.7437,2.2051,0.060876,0.21535,0.027888,-0.11857
-0.010915,-0.026326,-0.026433,-0.030759,0.19092,1.0274,-0.24562,1.1018,0.28302,0.25815,-0.29651,-1.1406,-0.44729,-1.3165,0.1504,1.4769,-0.050167,3.3803,1.6806,2.3178,0.024265,0.10441,0.0068953,-0.0004211
-0.012229,-0.032601,-0.02856,-0.027558,0.14064,0.95468,-0.25133,0.9687,0.27463,0.44157,-0.27535,-1.2306,-0.39072,-0.91444,0.13298,1.7833,-0.055308,3.4293,1.5968,2.3858,-0.022547,-0.034023,-0.01647,0.2077
-0.0068385,-0.036275,-0.030816,-0.025221,0.070692,0.90635,-0.25873,0.86204,0.26909,0.64679,-0.23794,-1.2512,-0.30153,-0.5334,0.10687,2.0816,-0.059771,3.478,1.5347,2.4507,-0.081843,-0.20223,-0.040181,0.46819
0.00098007,-0.036075,-0.034704,-0.02322,0.0069269,0.89898,-0.26206,0.80188,0.26194,0.84698,-0.19206,-1.2072,-0.18903,-0.27125,0.066388,2.342,-0.0604,3.58,1.5118,2.5532,-0.15688,-0.39614,-0.065508,0.71739
0.0059219,-0.032377,-0.03995,-0.019898,-0.033359,0.92758,-0.25956,0.79095,0.25,1.0159,-0.14924,-1.1177,-0.075927,-0.17603,0.012402,2.5123,-0.057072,3.7452,1.517,2.7129,-0.24923,-0.6162,-0.096685,0.88429
0.0053251,-0.0271,-0.044718,-0.015401,-0.052275,0.9646,-0.25761,0.81099,0.23425,1.1414,-0.11989,-1.0156,0.0081531,-0.22261,-0.04687,2.5474,-0.052579,3.9374,1.5257,2.9247,-0.35556,-0.86712,-0.13825,0.91508
0.00062808,-0.02297,-0.047359,-0.01274,-0.067966,0.9784,-0.26527,0.83587,0.21841,1.2296,-0.10919,-0.94063,0.045548,-0.32694,-0.099891,2.438,-0.050342,4.1005,1.5209,3.169,-0.46597,-1.1464,-0.19156,0.79304
-0.0044242,-0.022617,-0.048092,-0.01564,-0.10013,0.95945,-0.28393,0.85387,0.20461,1.2974,-0.11599,-0.92618,0.04539,-0.39368,-0.13831,2.2171,-0.051675,4.1944,1.504,3.4245,-0.56533,-1.4331,-0.25288,0.54537
-0.0071807,-0.027705,-0.048964,-0.025103,-0.15533,0.93257,-0.30327,0.88102,0.19039,1.3572,-0.13511,-0.98692,0.039591,-0.36728,-0.16118,1.9448,-0.054551,4.2164,1.4898,3.6724,-0.63804,-1.6891,-0.3148,0.23531
-0.0081148,-0.03812,-0.052015,-0.038006,-0.2228,0.94256,-0.30935,0.95181,0.17034,1.406,-0.16115,-1.1158,0.061226,-0.25279,-0.17358,1.6834,-0.054613,4.1948,1.4909,3.8906,-0.67398,-1.8741,-0.37018,-0.057198
-0.0097967,-0.051605,-0.057361,-0.049206,-0.2832,1.0217,-0.29844,1.092,0.14109,1.4253,-0.19121,-1.2916,0.12194,-0.096351,-0.18089,1.4766,-0.04759,4.1663,1.507,4.0526,-0.67277,-1.9651,-0.41597,-0.25958
-0.013938,-0.064437,-0.063052,-0.055362,-0.32295,1.1635,-0.283,1.2941,0.10497,1.3926,-0.22513,-1.4908,0.20586,0.05382,-0.18345,1.3379,-0.031548,4.1551,1.5259,4.1384,-0.64323,-1.9659,-0.45406,-0.32867
-0.019389,-0.073264,-0.066879,-0.057132,-0.34309,1.3235,-0.28239,1.5145,0.068962,1.2968,-0.2636,-1.6943,0.28313,0.17279,-0.17661,1.2471,-0.0078203,4.1678,1.5337,4.1511,-0.59805,-1.9011,-0.48827,-0.26334
-0.02301,-0.077113,-0.068319,-0.057843,-0.35675,1.4469,-0.30494,1.6973,0.039826,1.1457,-0.30611,-1.8871,0.33054,0.25417,-0.15627,1.1576,0.019539,4.1994,1.5243,4.1213,-0.54648,-1.7974,-0.51975,-0.10285
-0.022531,-0.077913,-0.068702,-0.059949,-0.3789,1.5012,-0.33697,1.8052,0.019783,0.96145,-0.35022,-2.0556,0.34239,0.28765,-0.12517,1.0156,0.045172,4.2387,1.4985,4.0889,-0.48997,-1.6658,-0.54434,0.089006
-0.018682,-0.078704,-0.069443,-0.062551,-0.41743,1.4929,-0.34956,1.8375,0.0063804,0.76887,-0.39223,-2.1874,0.32583,0.24652,-0.094018,0.78486,0.06403,4.2658,1.4567,4.0698,-0.42335,-1.4951,-0.55375,0.24682
-0.014589,-0.080708,-0.07021,-0.062255,-0.47201,1.4541,-0.31876,1.8223,-0.0039019,0.58715,-0.42812,-2.2762,0.28837,0.10173,-0.075513,0.46256,0.072818,4.2496,1.3927,4.0363,-0.3406,-1.2597,-0.54009,0.32252
-0.013103,-0.081852,-0.068983,-0.056609,-0.53899,1.4158,-0.24333,1.7919,-0.012081,0.43097,-0.4539,-2.323,0.23062,-0.14751,-0.075599,0.077015,0.071106,4.1553,1.2961,3.9313,-0.24059,-0.93911,-0.50055,0.29323
-0.014581,-0.078501,-0.064053,-0.047034,-0.6159,1.3856,-0.14621,1.7612,-0.016417,0.31791,-0.4652,-2.3295,0.15023,-0.45368,-0.088903,-0.32849,0.061785,3.9626,1.1621,3.7109,-0.12904,-0.538,-0.43954,0.15946
-0.017026,-0.069405,-0.056064,-0.038596,-0.701,1.3483,-0.058949,1.7244,-0.015259,0.27159,-0.45719,-2.2872,0.051482,-0.73158,-0.10247,-0.71112,0.050311,3.6833,0.99776,3.3853,-0.016233,-0.09703,-0.36738,-0.059366
-0.018188,-0.058471,-0.048124,-0.036717,-0.78961,1.2851,-0.0016356,1.6683,-0.0098299,0.31341,-0.42588,-2.1742,-0.049773,-0.89575,-0.10528,-1.0329,0.042493,3.3606,0.8193,3.0233,0.086516,0.31272,-0.29677,-0.32701
-0.017504,-0.05335,-0.043825,-0.04347,-0.87289,1.1944,0.026993,1.5889,-0.0041494,0.44629,-0.37078,-1.9676,-0.13134,-0.90056,-0.096359,-1.2602,0.041585,3.0484,0.64231,2.7161,0.1687,0.61176,-0.23902,-0.5937
-0.016194,-0.06012,-0.044853,-0.056272,-0.94203,1.0974,0.043905,1.4977,-0.0022542,0.6427,-0.29759,-1.6673,-0.17633,-0.75817,-0.085537,-1.3717,0.046464,2.7826,0.47368,2.5234,0.22065,0.74217,-0.20131,-0.80726
-0.015744,-0.077952,-0.050051,-0.069711,-0.99463,1.0249,0.067068,1.4135,-0.0054859,0.84827,-0.21849,-1.3147,-0.18196,-0.52709,-0.08665,-1.3778,0.052493,2.568,0.31291,2.443,0.2343,0.69137,-0.18562,-0.93283
-0.016417,-0.098258,-0.056331,-0.078847,-1.0369,0.99517,0.10353,1.3486,-0.012391,1.0017,-0.14879,-0.98623,-0.15917,-0.28237,-0.10843,-1.3336,0.05487,2.3871,0.16085,2.4227,0.20651,0.497,-0.18923,-0.96989
-0.017168,-0.10967,-0.060379,-0.081667,-1.0788,1.0013,0.14786,1.3019,-0.021155,1.0608,-0.10022,-0.76163,-0.12389,-0.085804,-0.14942,-1.3202,0.052125,2.2218,0.026498,2.4028,0.14328,0.22911,-0.20693,-0.95189
-0.016832,-0.10559,-0.059913,-0.079451,-1.1254,1.0154,0.18966,1.2626,-0.031968,1.0205,-0.074617,-0.68218,-0.087367,0.031805,-0.19941,-1.3949,0.046885,2.0685,-0.075998,2.3539,0.060409,-0.040867,-0.2338,-0.9238
-0.015295,-0.088633,-0.054193,-0.075395,-1.1723,1.0055,0.22254,1.2193,-0.046647,0.91499,-0.061965,-0.72795,-0.052466,0.073757,-0.24511,-1.5417,0.043113,1.9338,-0.13849,2.2836,-0.02238,-0.26678,-0.26721,-0.91162
-0.013553,-0.06868,-0.044172,-0.0726,-1.2074,0.9531,0.24749,1.1656,-0.065354,0.80458,-0.045327,-0.82991,-0.017535,0.06836,-0.27598,-1.6657,0.042174,1.8203,-0.16811,2.2143,-0.091428,-0.43546,-0.30625,-0.90694
-0.012717,-0.055714,-0.032454,-0.072441,-1.2198,0.85925,0.26907,1.0985,-0.083213,0.75423,-0.010181,-0.91032,0.016832,0.051592,-0.2874,-1.6482,0.041357,1.7179,-0.1851,2.154,-0.14633,-0.55384,-0.34884,-0.8794
-0.012973,-0.052951,-0.022628,-0.073946,-1.206,0.73797,0.28863,1.0138,-0.090471,0.81203,0.047758,-0.92552,0.044613,0.047335,-0.28111,-1.4288,0.036397,1.6113,-0.20933,2.0875,-0.1981,-0.62787,-0.38868,-0.80702
-0.013457,-0.055241,-0.017649,-0.074443,-1.1711,0.60475,0.3007,0.90538,-0.077477,0.99339,0.12177,-0.88369,0.057565,0.054282,-0.26404,-1.0542,0.025789,1.4945,-0.24623,1.9906,-0.25855,-0.64966,-0.415,-0.69817
-0.013057,-0.053731,-0.017962,-0.071268,-1.1244,0.46757,0.29576,0.76924,-0.041718,1.2754,0.20084,-0.82833,0.05171,0.048055,-0.24606,-0.65524,0.012821,1.3777,-0.28431,1.8517,-0.32832,-0.60147,-0.41624,-0.58528
-0.011356,-0.042953,-0.020862,-0.063606,-1.0732,0.32505,0.26725,0.60941,0.0082428,1.6034,0.2783,-0.80152,0.031094,-0.0011891,-0.23696,-0.36733,0.0032624,1.2757,-0.30704,1.6805,-0.39272,-0.47106,-0.38581,-0.49483
-0.0088916,-0.024949,-0.022036,-0.053222,-1.0212,0.1707,0.21751,0.43846,0.05567,1.9078,0.35524,-0.81329,0.005318,-0.10701,-0.24318,-0.25407,0.00068488,1.1908,-0.30901,1.4991,-0.42927,-0.26419,-0.32581,-0.41984
-0.0066072,-0.0075381,-0.018442,-0.043446,-0.96997,0.00073936,0.15829,0.27335,0.084421,2.1258,0.43604,-0.83687,-0.016982,-0.25658,-0.26555,-0.2876,0.0036366,1.1077,-0.30193,1.3258,-0.42166,-0.0034156,-0.24621,-0.32006
-0.0050787,0.0015534,-0.010321,-0.037081,-0.92236,-0.1776,0.10544,0.13098,0.088147,2.22,0.52041,-0.83012,-0.032941,-0.41936,-0.29928,-0.39125,0.0071342,1.0084,-0.30389,1.168,-0.37025,0.28623,-0.15972,-0.15103
-0.0041653,0.00014363,-0.00063493,-0.034776,-0.88312,-0.34105,0.071829,0.027907,0.073853,2.189,0.59958,-0.76549,-0.044517,-0.56557,-0.33567,-0.50103,0.0070114,0.89682,-0.32013,1.0295,-0.29193,0.59323,-0.076116,0.10249
-0.0032364,-0.0072052,0.0076105,-0.035041,-0.85742,-0.4536,0.063187,-0.018361,0.057528,2.067,0.66071,-0.64718,-0.05309,-0.67686,-0.36447,-0.5941,0.0033151,0.80825,-0.33233,0.92189,-0.21008,0.92481,0.00032106,0.41804
-0.0016092,-0.012641,0.013766,-0.035654,-0.84841,-0.48111,0.078577,0.0070445,0.054899,1.9123,0.69592,-0.50545,-0.054979,-0.73937,-0.37584,-0.6686,0.00019046,0.79061,-0.30793,0.86728,-0.14237,1.2975,0.069043,0.75904
0.0011649,-0.010275,0.019496,-0.035122,-0.85614,-0.4127,0.11343,0.10486,0.073207,1.7864,0.70819,-0.37489,-0.042287,-0.72757,-0.36208,-0.70509,0.0029234,0.86923,-0.22487,0.88591,-0.09448,1.7209,0.12921,1.1088
0.0051507,0.00044232,0.026395,-0.03308,-0.8776,-0.27625,0.16151,0.2494,0.1085,1.7296,0.70875,-0.27376,-0.0086464,-0.59978,-0.31979,-0.65404,0.014802,1.0217,-0.093349,0.97799,-0.06213,2.1859,0.17715,1.4833
0.0098212,0.015097,0.033661,-0.029741,-0.90681,-0.13469,0.21447,0.38815,0.14893,1.743,0.70834,-0.19841,0.044855,-0.31909,-0.25213,-0.46633,0.035757,1.1847,0.043084,1.1141,-0.038033,2.6641,0.2074,1.9101
0.013888,0.027613,0.03824,-0.025373,-0.9345,-0.060079,0.26079,0.4599,0.18119,1.7884,0.70985,-0.13421,0.10839,0.1093,-0.16972,-0.14202,0.062756,1.2897,0.12984,1.244,-0.017806,3.1154,0.21637,2.3904
0.015627,0.03397,0.037531,-0.020436,-0.94943,-0.098883,0.28719,0.42328,0.1962,1.8098,0.70815,-0.072126,0.16781,0.61225,-0.088772,0.24631,0.090899,1.3023,0.1319,1.3193,-0.0017599,3.4954,0.20542,2.8795
0.013919,0.03405,0.032134,-0.015948,-0.94261,-0.24996,0.28329,0.27685,0.19176,1.7649,0.69657,-0.017058,0.21143,1.0607,-0.026574,0.57907,0.11466,1.2371,0.0516,1.3162,0.0066127,3.7585,0.18061,3.3036
0.0093975,0.030914,0.025874,-0.013108,-0.91266,-0.46946,0.24688,0.056589,0.17168,1.6476,0.67363,0.017748,0.23481,1.3207,0.0044378,0.74932,0.12943,1.1385,-0.07721,1.243,0.0028948,3.8623,0.14899,3.6012
0.0045624,0.028486,0.022781,-0.012097,-0.86706,-0.69763,0.18596,-0.18688,0.14265,1.4857,0.64478,0.023959,0.24077,1.3171,0.0018202,0.71664,0.1331,1.0454,-0.21195,1.1274,-0.016588,3.7784,0.1145,3.7553
0.0023428,0.029333,0.023636,-0.011161,-0.81612,-0.88754,0.11581,-0.41374,0.1106,1.3158,0.61846,0.0067735,0.2359,1.0691,-0.0246,0.5218,0.12667,0.96479,-0.32351,0.9939,-0.05317,3.508,0.076592,3.79
0.0039963,0.033715,0.025286,-0.0074051,-0.76324,-1.0166,0.052973,-0.60521,0.078555,1.156,0.60111,-0.018404,0.22666,0.67881,-0.055183,0.25789,0.11301,0.87236,-0.40434,0.84785,-0.10374,3.0915,0.033285,3.7363
0.0080997,0.039981,0.023495,0.0007554,-0.70064,-1.0786,0.0098422,-0.75544,0.047071,0.99644,0.59481,-0.037258,0.21801,0.27936,-0.068297,0.020742,0.094461,0.73378,-0.46184,0.67602,-0.15919,2.6012,-0.013752,3.5988
0.011607,0.045549,0.016868,0.011383,-0.61708,-1.0687,-0.0077839,-0.8574,0.016467,0.81492,0.59805,-0.044841,0.21503,-0.020693,-0.051068,-0.13011,0.071491,0.52708,-0.50694,0.46348,-0.20562,2.1157,-0.056054,3.3531
0.012123,0.047807,0.0082943,0.019373,-0.51301,-0.97952,-0.00026017,-0.89817,-0.010944,0.60272,0.60697,-0.043709,0.22509,-0.16592,-0.0070855,-0.18075,0.043936,0.24904,-0.54767,0.21236,-0.2291,1.6931,-0.08064,2.9752
0.0094561,0.044903,0.0026077,0.019855,-0.4087,-0.81017,0.027645,-0.86755,-0.030775,0.38003,0.61537,-0.035588,0.25736,-0.1467,0.045179,-0.14466,0.013916,-0.094556,-0.58972,-0.053073,-0.22196,1.3579,-0.077379,2.4747
0.0052619,0.036742,0.0025518,0.012339,-0.33411,-0.57873,0.068693,-0.77026,-0.038929,0.18811,0.61467,-0.016927,0.31817,0.024654,0.084049,-0.035787,-0.01264,-0.50168,-0.63899,-0.30089,-0.1865,1.1083,-0.046956,1.8988
0.0014548,0.025963,0.0066465,0.0021103,-0.30449,-0.32253,0.11527,-0.62832,-0.034599,0.064502,0.5961,0.015989,0.40436,0.32679,0.099003,0.14486,-0.028197,-0.97649,-0.70098,-0.51577,-0.13311,0.93158,-0.0034474,1.2998
-0.00094675,0.017778,0.010715,-0.002835,-0.30164,-0.082798,0.1616,-0.47061,-0.02131,0.019702,0.55502,0.057986,0.49962,0.71991,0.096583,0.39862,-0.028559,-1.5197,-0.77743,-0.71411,-0.073688,0.81393,0.031621,0.69932
-0.0016646,0.017679,0.011481,0.0025979,-0.27986,0.1153,0.20501,-0.31893,-0.0048164,0.030537,0.49409,0.093343,0.57822,1.1289,0.092448,0.70418,-0.016644,-2.1162,-0.86424,-0.93506,-0.014693,0.7393,0.041032,0.085549
-0.00042426,0.027741,0.0089167,0.016722,-0.19626,0.27094,0.24487,-0.18325,0.01083,0.052302,0.42191,0.10572,0.61619,1.4465,0.095819,1.0018,-0.001579,-2.7302,-0.95368,-1.2105,0.045402,0.68608,0.022073,-0.54596
0.0030801,0.044231,0.005479,0.032137,-0.043354,0.39699,0.27927,-0.070139,0.026141,0.039142,0.3475,0.090634,0.60407,1.5693,0.099828,1.2065,0.0067825,-3.3106,-1.0388,-1.5344,0.11254,0.63177,-0.011952,-1.1441
0.0083194,0.059168,0.0034349,0.041075,0.14294,0.49913,0.30196,0.0049005,0.045803,-0.040296,0.27471,0.056697,0.55344,1.4497,0.08671,1.2476,0.0038833,-3.8015,-1.116,-1.8559,0.19018,0.5646,-0.040401,-1.5968
0.013347,0.065535,0.0031103,0.040898,0.30744,0.5628,0.30283,0.015276,0.075143,-0.19807,0.20122,0.012196,0.49226,1.1284,0.043726,1.1095,-0.0075566,-4.1539,-1.1833,-2.1048,0.27425,0.48976,-0.048599,-1.7882
0.015651,0.062317,0.0035673,0.035491,0.41286,0.56106,0.27349,-0.062356,0.1158,-0.43057,0.12277,-0.049807,0.45144,0.71916,-0.024134,0.84178,-0.020934,-4.3385,-1.2379,-2.233,0.35361,0.42089,-0.036849,-1.6798
0.014027,0.054949,0.0044614,0.031716,0.46048,0.47986,0.2153,-0.22549,0.16348,-0.72446,0.038737,-0.15043,0.45082,0.3558,-0.095821,0.5313,-0.031532,-4.3594,-1.2761,-2.2432,0.41552,0.36203,-0.019321,-1.349
0.0097237,0.050419,0.0066251,0.033986,0.47942,0.34197,0.1443,-0.43303,0.2092,-1.061,-0.045629,-0.30484,0.4931,0.13738,-0.14867,0.25484,-0.039974,-4.2624,-1.297,-2.1829,0.45179,0.2974,-0.014104,-0.9477
0.0055316,0.051124,0.01055,0.041211,0.49691,0.20787,0.088234,-0.61672,0.24326,-1.4184,-0.12202,-0.50036,0.5683,0.10518,-0.17326,0.046151,-0.050895,-4.1265,-1.3061,-2.112,0.46134,0.20112,-0.031652,-0.6073
0.0035044,0.052948,0.01458,0.048103,0.51647,0.14651,0.075214,-0.7149,0.25941,-1.7732,-0.18419,-0.69493,0.66392,0.25405,-0.17714,-0.10522,-0.068395,-4.0324,-1.3136,-2.0669,0.44787,0.060569,-0.069284,-0.36549
0.0034044,0.049276,0.015295,0.049281,0.52112,0.19166,0.11941,-0.70888,0.25662,-2.0997,-0.23136,-0.84032,0.77234,0.55057,-0.17672,-0.2325,-0.092236,-4.0231,-1.3281,-2.0478,0.41568,-0.10797,-0.11449,-0.17033
0.0033401,0.037164,0.010321,0.042895,0.49478,0.31412,0.21236,-0.63661,0.23754,-2.3693,-0.26778,-0.91027,0.89029,0.93271,-0.18645,-0.37111,-0.11766,-4.0807,-1.3492,-2.0324,0.36765,-0.26793,-0.1535,0.04748
0.0019288,0.020059,0.00099224,0.031489,0.4401,0.43339,0.32603,-0.57067,0.20493,-2.5503,-0.29955,-0.90745,1.0116,1.2979,-0.21384,-0.55151,-0.13856,-4.1415,-1.3664,-2.0002,0.30671,-0.39059,-0.17853,0.30122
-0.00015323,0.0048959,-0.0079907,0.020173,0.37692,0.46549,0.42675,-0.57186,0.15879,-2.6143,-0.33128,-0.84365,1.1207,1.513,-0.26099,-0.79829,-0.15111,-4.1414,-1.3657,-1.9476,0.23864,-0.47922,-0.18926,0.53698
-0.00074067,-0.0032729,-0.01201,0.013784,0.32525,0.37635,0.49202,-0.64851,0.096454,-2.5503,-0.36461,-0.71454,1.193,1.4666,-0.32607,-1.121,-0.15535,-4.0613,-1.3394,-1.8873,0.17263,-0.56735,-0.18891,0.68843
0.0016696,-0.0041292,-0.010049,0.014616,0.29069,0.20317,0.51927,-0.74967,0.01582,-2.3802,-0.39844,-0.49761,1.2042,1.1399,-0.40039,-1.4962,-0.15401,-3.9379,-1.2938,-1.8382,0.11835,-0.69071,-0.179,0.74095
0.0061847,-0.00056173,-0.005075,0.021508,0.26517,0.028258,0.52136,-0.79787,-0.080675,-2.1628,-0.43046,-0.17859,1.143,0.63855,-0.46454,-1.8587,-0.15031,-3.8338,-1.2483,-1.8172,0.08172,-0.8552,-0.15734,0.74353
0.0097787,0.0046644,-0.0010857,0.030422,0.23995,-0.074885,0.51259,-0.73915,-0.18432,-1.9775,-0.45872,0.21823,1.0197,0.14515,-0.4912,-2.1194,-0.14643,-3.791,-1.2258,-1.8351,0.063012,-1.0269,-0.12037,0.75885
0.0093876,0.010346,0.00024632,0.03642,0.21618,-0.083608,0.49629,-0.57586,-0.28208,-1.8902,-0.48257,0.62828,0.86489,-0.18335,-0.45708,-2.206,-0.14313,-3.8034,-1.24,-1.8925,0.058495,-1.1524,-0.067927,0.80208
0.0042243,0.015662,0.00023767,0.036419,0.20254,-0.027473,0.4633,-0.36102,-0.36098,-1.9223,-0.50242,0.98051,0.71809,-0.29915,-0.35706,-2.1008,-0.13993,-3.827,-1.2848,-1.9747,0.063757,-1.1932,-0.0062892,0.82865
-0.0033758,0.018934,0.00097996,0.031271,0.20377,0.046352,0.40194,-0.16113,-0.41211,-2.0396,-0.5182,1.2397,0.6137,-0.26529,-0.20927,-1.8458,-0.13505,-3.8135,-1.3346,-2.0514,0.075588,-1.1486,0.052883,0.78364
-0.009164,0.018692,0.0028791,0.025493,0.21282,0.11179,0.3107,-0.015816,-0.43184,-2.1721,-0.52777,1.4196,0.56923,-0.18116,-0.046263,-1.5139,-0.12573,-3.7394,-1.3565,-2.0894,0.091314,-1.0519,0.097665,0.66475
-0.0094953,0.016058,0.0044817,0.024197,0.21537,0.17545,0.20309,0.077644,-0.42032,-2.2474,-0.52707,1.5559,0.58087,-0.10245,0.10126,-1.1685,-0.10972,-3.6133,-1.3299,-2.0764,0.10728,-0.94606,0.12196,0.53671
-0.00364,0.015137,0.0044252,0.029097,0.20203,0.2563,0.10102,0.14852,-0.37918,-2.2196,-0.51262,1.6636,0.62627,-0.025348,0.21593,-0.84319,-0.087614,-3.4633,-1.261,-2.0388,0.11893,-0.85941,0.12876,0.47962
0.0055459,0.019825,0.0030886,0.036723,0.17594,0.35584,0.022628,0.22208,-0.31034,-2.0768,-0.48503,1.7207,0.67237,0.059953,0.29365,-0.55029,-0.064387,-3.3211,-1.1824,-2.0376,0.12297,-0.79551,0.12832,0.51702
0.013173,0.029588,0.0020716,0.040748,0.14835,0.44708,-0.025369,0.29931,-0.21692,-1.8339,-0.45092,1.6901,0.68606,0.10991,0.33582,-0.30146,-0.047946,-3.2133,-1.1349,-2.1371,0.11952,-0.74117,0.132,0.5904
0.015333,0.038733,0.002212,0.037052,0.12715,0.49098,-0.045774,0.35988,-0.10504,-1.5235,-0.42139,1.5594,0.64526,0.030464,0.34339,-0.1138,-0.044965,-3.1575,-1.1425,-2.3659,0.11208,-0.68137,0.14572,0.60648
0.011696,0.040822,0.0024985,0.027547,0.11032,0.46441,-0.042929,0.38164,0.01504,-1.1917,-0.40793,1.3588,0.54727,-0.25278,0.31789,0.0052467,-0.056589,-3.1575,-1.1967,-2.6959,0.10497,-0.60979,0.16713,0.5173
0.0057681,0.034743,0.0011588,0.01941,0.091245,0.37551,-0.01714,0.35843,0.12985,-0.89461,-0.41816,1.1402,0.4098,-0.72179,0.26586,0.076299,-0.077398,-3.1976,-1.2618,-3.0547,0.10053,-0.53044,0.18842,0.3628
0.0023629,0.026687,-0.0023218,0.019923,0.070346,0.25541,0.033276,0.30273,0.22571,-0.68258,-0.45362,0.93756,0.26267,-1.263,0.19904,0.14444,-0.098659,-3.2435,-1.297,-3.363,0.098255,-0.45307,0.20248,0.23811
0.0040039,0.025579,-0.0065684,0.030843,0.060785,0.13658,0.10487,0.2345,0.29253,-0.57667,-0.51032,0.74462,0.13313,-1.7429,0.12817,0.24844,-0.1135,-3.2566,-1.2799,-3.5727,0.096181,-0.38802,0.20766,0.21387
0.009026,0.035514,-0.0098142,0.046752,0.081252,0.036663,0.1845,0.16799,0.32651,-0.55649,-0.58135,0.52791,0.033394,-2.0967,0.056252,0.38665,-0.12017,-3.2134,-1.216,-3.6833,0.092975,-0.34289,0.2079,0.27837
0.013023,0.051724,-0.011823,0.058745,0.14122,-0.042171,0.25288,0.10668,0.33024,-0.57795,-0.66039,0.26034,-0.041488,-2.3511,-0.020441,0.51291,-0.12143,-3.1168,-1.1295,-3.7316,0.088824,-0.32115,0.20832,0.34955
0.01256,0.063811,-0.013998,0.060609,0.23159,-0.10469,0.29426,0.046131,0.31013,-0.61488,-0.7452,-0.055938,-0.10397,-2.5629,-0.10233,0.57346,-0.1212,-2.9895,-1.0446,-3.7668,0.084893,-0.32119,0.21069,0.34399
0.008073,0.06367,-0.01746,0.052792,0.32916,-0.15777,0.30488,-0.022502,0.27279,-0.6923,-0.83908,-0.39383,-0.1605,-2.7331,-0.17632,0.55895,-0.12162,-2.8547,-0.97247,-3.8285,0.082378,-0.33655,0.21253,0.24256
0.0034636,0.051518,-0.021231,0.041384,0.4112,-0.21399,0.2935,-0.11295,0.22298,-0.87765,-0.94881,-0.72204,-0.20497,-2.7799,-0.21626,0.52741,-0.1225,-2.7199,-0.90975,-3.9352,0.082017,-0.35787,0.21051,0.099694
0.0026982,0.035134,-0.022694,0.033199,0.46814,-0.29526,0.27385,-0.24444,0.16452,-1.2288,-1.079,-1.0195,-0.22407,-2.5979,-0.1968,0.57272,-0.12248,-2.5759,-0.84713,-4.0815,0.084006,-0.37658,0.20474,-0.0057617
0.0063472,0.023253,-0.020132,0.030847,0.50467,-0.42508,0.25533,-0.43471,0.10312,-1.7366,-1.2257,-1.2735,-0.20917,-2.1541,-0.11147,0.75718,-0.12018,-2.4088,-0.77799,-4.2423,0.087731,-0.38799,0.19982,-0.032151
0.011045,0.018831,-0.014799,0.031348,0.53067,-0.60958,0.23878,-0.68459,0.04838,-2.3093,-1.3739,-1.4717,-0.16399,-1.5365,0.019038,1.0579,-0.1142,-2.2132,-0.70089,-4.3796,0.091269,-0.3913,0.20147,0.0019062
0.012309,0.01766,-0.010295,0.028977,0.55102,-0.82226,0.21935,-0.96479,0.012633,-2.8152,-1.5009,-1.604,-0.10145,-0.91463,0.1553,1.3693,-0.10274,-1.9952,-0.61649,-4.457,0.091317,-0.38658,0.21167,0.045459
0.0082526,0.012959,-0.0096588,0.019924,0.56315,-1.0101,0.19254,-1.2194,0.0064644,-3.1518,-1.5853,-1.6743,-0.033185,-0.44265,0.25912,1.5628,-0.084279,-1.7672,-0.52469,-4.4564,0.084175,-0.37134,0.22659,0.062968
0.0010634,0.0015783,-0.012863,0.0052858,0.56242,-1.1232,0.15741,-1.39,0.033609,-3.2898,-1.615,-1.7093,0.03836,-0.17686,0.31226,1.5631,-0.059188,-1.5414,-0.42597,-4.3901,0.067598,-0.34021,0.23911,0.059212
-0.0048827,-0.013536,-0.017071,-0.0096204,0.54886,-1.1477,0.11509,-1.4473,0.088474,-3.2626,-1.5905,-1.7478,0.11833,-0.057191,0.32348,1.3915,-0.031049,-1.3292,-0.32546,-4.2942,0.042597,-0.28828,0.24387,0.065149
-0.0065044,-0.02631,-0.019308,-0.018879,0.52903,-1.1172,0.065577,-1.4074,0.15815,-3.1202,-1.5217,-1.8147,0.21035,0.049529,0.32172,1.1539,-0.0058401,-1.1452,-0.23467,-4.207,0.014154,-0.215,0.24076,0.10464
-0.0041555,-0.03284,-0.018987,-0.019783,0.51235,-1.0892,0.0073215,-1.3203,0.22802,-2.8905,-1.4221,-1.8984,0.30867,0.28352,0.34061,0.98739,0.010922,-1.0075,-0.16751,-4.142,-0.0097466,-0.12483,0.23432,0.17478
-0.00085838,-0.034204,-0.018006,-0.014238,0.50654,-1.1031,-0.058613,-1.2373,0.28785,-2.5791,-1.3033,-1.9527,0.39861,0.73823,0.40155,0.99876,0.017185,-0.93198,-0.13271,-4.0783,-0.020706,-0.023765,0.23004,0.25447
0.00038097,-0.034638,-0.018575,-0.0070845,0.51579,-1.1525,-0.1237,-1.1808,0.33461,-2.1958,-1.1739,-1.9225,0.46423,1.4297,0.50172,1.2218,0.015241,-0.92307,-0.12823,-3.9761,-0.013329,0.08479,0.23083,0.3277
-0.0012633,-0.037292,-0.021021,-0.0028441,0.54143,-1.1921,-0.17191,-1.1375,0.37033,-1.7732,-1.0397,-1.7784,0.49588,2.2868,0.61206,1.6044,0.0098398,-0.96839,-0.14208,-3.8072,0.012077,0.20083,0.23633,0.39667
-0.0044354,-0.041763,-0.023632,-0.0032279,0.58261,-1.175,-0.18671,-1.0777,0.39678,-1.3522,-0.90337,-1.537,0.49113,3.1643,0.68784,2.0264,0.0050666,-1.0422,-0.15864,-3.5761,0.049234,0.32445,0.24467,0.4738
-0.0073139,-0.045492,-0.024512,-0.0069081,0.63563,-1.0891,-0.16104,-0.98372,0.4116,-0.9463,-0.76265,-1.2538,0.44967,3.8855,0.68959,2.3447,0.0024315,-1.1145,-0.16537,-3.3139,0.088727,0.45219,0.25447,0.56336
-0.0092067,-0.047185,-0.023552,-0.011289,0.69447,-0.96654,-0.10296,-0.86574,0.41002,-0.52147,-0.60973,-0.99453,0.36846,4.307,0.60451,2.4558,0.0014183,-1.1601,-0.15541,-3.0506,0.12256,0.57712,0.26516,0.65253
-0.010643,-0.048527,-0.02263,-0.01468,0.75429,-0.8588,-0.031796,-0.75481,0.39178,-0.017436,-0.43458,-0.79966,0.24297,4.3774,0.45537,2.3493,0.001576,-1.162,-0.12563,-2.7879,0.14759,0.69261,0.27587,0.72013
-0.012246,-0.05241,-0.023902,-0.017233,0.81644,-0.80087,0.032737,-0.68165,0.36725,0.59977,-0.23272,-0.66365,0.073673,4.1516,0.28948,2.1174,0.0039095,-1.1107,-0.074084,-2.498,0.16537,0.79532,0.28458,0.75327
-0.01381,-0.059618,-0.027749,-0.020121,0.88959,-0.79139,0.080942,-0.65826,0.3559,1.2968,-0.012699,-0.53952,-0.12858,3.7507,0.15339,1.906,0.01005,-1.0039,-0.00051151,-2.1505,0.17887,0.88347,0.28876,0.75532
-0.01461,-0.067537,-0.032192,-0.023927,0.98376,-0.80211,0.11565,-0.67528,0.37573,1.9814,0.20359,-0.36725,-0.34417,3.2908,0.069953,1.8276,0.019844,-0.84774,0.090387,-1.7462,0.1888,0.95174,0.28719,0.73862
-0.014502,-0.072414,-0.034277,-0.027792,1.1004,-0.80523,0.14599,-0.71442,0.43052,2.5589,0.39004,-0.10863,-0.55232,2.83,0.032808,1.8935,0.029704,-0.65857,0.18757,-1.3292,0.19268,0.98888,0.28107,0.71103
-0.014453,-0.072944,-0.032298,-0.030132,1.2271,-0.79533,0.17802,-0.76446,0.50537,2.9963,0.5299,0.23418,-0.73804,2.3623,0.020189,2.0122,0.033727,-0.45989,0.27815,-0.96476,0.18733,0.98281,0.27353,0.67041
-0.015677,-0.07149,-0.027136,-0.030287,1.343,-0.78966,0.20963,-0.82855,0.57537,3.3415,0.62378,0.62812,-0.89234,1.8572,0.015091,2.0581,0.027258,-0.27447,0.35662,-0.69925,0.17216,0.9311,0.26792,0.61205
-0.018079,-0.071524,-0.021673,-0.029428,1.4323,-0.80982,0.23249,-0.91853,0.62156,3.6829,0.68576,1.0366,-1.0067,1.3053,0.015262,1.9599,0.010307,-0.11631,0.43175,-0.53206,0.15035,0.84805,0.26612,0.54043
-0.019593,-0.073767,-0.018758,-0.029712,1.4943,-0.86181,0.23831,-1.0425,0.6417,4.0779,0.73084,1.4398,-1.0694,0.73911,0.026889,1.7437,-0.011973,0.011616,0.52414,-0.41976,0.12662,0.76097,0.26824,0.47227
-0.017444,-0.075033,-0.01919,-0.032256,1.5419,-0.93093,0.22408,-1.1958,0.64734,4.506,0.76424,1.8289,-1.07,0.21567,0.050574,1.5003,-0.032303,0.11282,0.65388,-0.30748,0.10414,0.69635,0.27336,0.4269
-0.01056,-0.071317,-0.021173,-0.035829,1.5888,-0.99428,0.19339,-1.3628,0.65024,4.8801,0.78136,2.1824,-1.0104,-0.21673,0.074147,1.3076,-0.045543,0.19185,0.82652,-0.16273,0.083193,0.66534,0.28052,0.41214
-0.0011542,-0.06242,-0.021642,-0.037684,1.6381,-1.0387,0.15438,-1.5252,0.65033,5.1024,0.77731,2.4524,-0.91128,-0.54092,0.079331,1.1702,-0.051027,0.25483,1.0279,0.012227,0.062882,0.65919,0.28889,0.41844
0.0061215,-0.053584,-0.018488,-0.036072,1.6817,-1.0682,0.11639,-1.6703,0.6354,5.1193,0.75619,2.5812,-0.80556,-0.76549,0.056055,1.0224,-0.051557,0.31584,1.2328,0.19395,0.043482,0.65802,0.29709,0.42571
0.0071391,-0.052057,-0.012116,-0.032307,1.7112,-1.0945,0.08637,-1.7908,0.59243,4.9378,0.73121,2.541,-0.71869,-0.89994,0.011456,0.78981,-0.050375,0.40125,1.4207,0.36223,0.02686,0.64587,0.30255,0.41598
0.0012288,-0.061103,-0.005183,-0.030372,1.7281,-1.1219,0.065429,-1.88,0.51987,4.5999,0.71537,2.3615,-0.65002,-0.93374,-0.03415,0.45631,-0.04876,0.5428,1.5869,0.51513,0.014352,0.62093,0.30175,0.38054
-0.0082018,-0.076572,-0.00070762,-0.034034,1.7412,-1.1408,0.04654,-1.9312,0.43047,4.1474,0.71174,2.1154,-0.5705,-0.83971,-0.060547,0.085112,-0.045849,0.75961,1.7413,0.66558,0.0045866,0.59345,0.2918,0.31686
-0.015919,-0.089194,9.9833e-005,-0.043576,1.7529,-1.1398,0.016178,-1.9444,0.34279,3.607,0.71209,1.8695,-0.44164,-0.60192,-0.059258,-0.22346,-0.040183,1.0405,1.8947,0.82562,-0.0058667,0.57379,0.27268,0.22052
-0.018311,-0.091067,-0.0013164,-0.05483,1.7485,-1.1244,-0.038743,-1.937,0.26949,3.0028,0.70491,1.6395,-0.24314,-0.24676,-0.035474,-0.40437,-0.031264,1.3405,2.0454,0.99204,-0.018939,0.5603,0.24842,0.081707
-0.015468,-0.081242,-0.001977,-0.061576,1.7013,-1.1226,-0.12139,-1.942,0.21227,2.373,0.6848,1.3874,0.011424,0.15106,-0.0011,-0.47661,-0.019931,1.5978,2.1749,1.1433,-0.031823,0.53647,0.22598,-0.10924
-0.010533,-0.066048,0.00037542,-0.059744,1.5933,-1.1665,-0.21971,-1.9913,0.16615,1.7705,0.65526,1.0644,0.28359,0.49979,0.033722,-0.53249,-0.0076126,1.7605,2.2561,1.2488,-0.03761,0.48025,0.21166,-0.35177
-0.0070839,-0.054005,0.0056135,-0.050363,1.4342,-1.265,-0.31103,-2.0918,0.12731,1.2416,0.62325,0.66193,0.53648,0.74209,0.064055,-0.67425,0.0046768,1.8096,2.2672,1.2854,-0.029982,0.37882,0.20675,-0.62954
-0.0067039,-0.049477,0.011478,-0.038921,1.2603,-1.3919,-0.3755,-2.217,0.09671,0.80461,0.59194,0.23077,0.75689,0.88987,0.087941,-0.9415,0.016873,1.7654,2.2031,1.2519,-0.0082295,0.23793,0.20533,-0.91457
-0.0083898,-0.050012,0.015552,-0.031481,1.1116,-1.5062,-0.40972,-2.3252,0.076649,0.44761,0.55875,-0.14564,0.95423,1.0132,0.10269,-1.2786,0.029674,1.6757,2.0773,1.1755,0.021774,0.078666,0.19611,-1.1788
-0.0098342,-0.049161,0.017334,-0.030446,1.0039,-1.5902,-0.43015,-2.393,0.065032,0.14873,0.51982,-0.39727,1.1372,1.1869,0.10397,-1.5636,0.043718,1.5952,1.9156,1.104,0.051495,-0.076335,0.16823,-1.4049
-0.0092461,-0.042177,0.018614,-0.033215,0.91787,-1.6697,-0.46264,-2.4344,0.053841,-0.099474,0.47588,-0.49729,1.289,1.4314,0.08842,-1.6789,0.058506,1.5655,1.7455,1.0863,0.075086,-0.21653,0.11788,-1.59
-0.0063312,-0.029837,0.021812,-0.034743,0.81424,-1.7934,-0.52474,-2.4875,0.033916,-0.2834,0.43329,-0.45995,1.3659,1.6906,0.057186,-1.5779,0.071772,1.602,1.5866,1.1499,0.091665,-0.34627,0.051614,-1.7398
-0.0020378,-0.01752,0.027701,-0.031891,0.66264,-1.9831,-0.61318,-2.5755,0.001779,-0.38455,0.39961,-0.31964,1.3233,1.8643,0.01729,-1.3053,0.080108,1.6938,1.446,1.2907,0.10323,-0.47433,-0.015863,-1.8595
0.0023402,-0.010694,0.03462,-0.025961,0.46224,-2.1958,-0.70503,-2.6752,-0.037874,-0.4036,0.37803,-0.11448,1.1518,1.8707,-0.020412,-0.96366,0.080961,1.8149,1.3196,1.4826,0.11112,-0.59915,-0.068742,-1.9469
0.005881,-0.010794,0.039943,-0.021403,0.24109,-2.333,-0.7713,-2.722,-0.076358,-0.3705,0.36587,0.11686,0.89243,1.696,-0.045726,-0.65151,0.074866,1.9446,1.1983,1.7008,0.11489,-0.70361,-0.097843,-1.9939
0.0082269,-0.014681,0.042531,-0.021878,0.037695,-2.2969,-0.79311,-2.6505,-0.10806,-0.33197,0.3579,0.33423,0.61767,1.3996,-0.053755,-0.41574,0.066058,2.0815,1.0758,1.9398,0.11456,-0.76659,-0.10462,-1.9959
0.0094427,-0.017462,0.043849,-0.027042,-0.12008,-2.054,-0.77037,-2.4401,-0.134,-0.3269,0.35077,0.5026,0.38978,1.0763,-0.04734,-0.24454,0.060429,2.2426,0.95379,2.2095,0.1133,-0.78449,-0.099226,-1.9623
0.0098542,-0.015788,0.046584,-0.032648,-0.2265,-1.66,-0.71928,-2.1298,-0.15887,-0.36945,0.34427,0.60453,0.22823,0.80341,-0.036039,-0.097784,0.061843,2.4434,0.8405,2.5135,0.11711,-0.78514,-0.093922,-1.9202
0.0099384,-0.0090062,0.051892,-0.033724,-0.29721,-1.2303,-0.66265,-1.7933,-0.18464,-0.45063,0.33931,0.64508,0.10896,0.60732,-0.032114,0.050797,0.06946,2.6737,0.74513,2.8283,0.13089,-0.81906,-0.095963,-1.9054
0.010138,0.0017906,0.057741,-0.028122,-0.36098,-0.87883,-0.61956,-1.4955,-0.207,-0.55243,0.33551,0.64147,-0.0068372,0.46007,-0.045579,0.18835,0.078253,2.8906,0.67171,3.1065,0.15452,-0.929,-0.10385,-1.9433
0.010594,0.014853,0.059975,-0.017676,-0.44844,-0.66762,-0.59859,-1.2629,-0.21833,-0.65917,0.33164,0.60626,-0.13948,0.30221,-0.080633,0.26864,0.082474,3.0392,0.61826,3.3026,0.18254,-1.1172,-0.10882,-2.0306
0.011045,0.027718,0.055375,-0.0063794,-0.57945,-0.59176,-0.59574,-1.0847,-0.21488,-0.75692,0.32817,0.54156,-0.27909,0.076018,-0.13456,0.24461,0.079442,3.0871,0.58184,3.4018,0.20828,-1.3353,-0.10025,-2.1312
0.011111,0.036974,0.044317,0.0026598,-0.7521,-0.59989,-0.59677,-0.93393,-0.20151,-0.8259,0.32871,0.45115,-0.40083,-0.2443,-0.1986,0.10977,0.070799,3.0465,0.56425,3.4264,0.22895,-1.5076,-0.071677,-2.1937
0.01079,0.039596,0.031001,0.0090286,-0.93992,-0.62823,-0.58423,-0.78838,-0.18951,-0.83879,0.3383,0.35765,-0.49042,-0.63653,-0.25978,-0.076433,0.060588,2.9638,0.5719,3.4145,0.24734,-1.5743,-0.024088,-2.18
0.010639,0.035719,0.021112,0.014421,-1.1037,-0.62808,-0.54757,-0.63689,-0.18894,-0.77156,0.3598,0.30349,-0.55705,-1.0377,-0.30387,-0.20033,0.052218,2.8848,0.60779,3.3918,0.26869,-1.5265,0.034608,-2.0883
0.011315,0.030129,0.018573,0.020486,-1.2149,-0.57863,-0.49121,-0.47532,-0.2018,-0.61965,0.39204,0.32913,-0.62494,-1.3762,-0.31981,-0.14765,0.047081,2.8248,0.66048,3.361,0.29503,-1.4092,0.093036,-1.9532
0.012798,0.029888,0.023428,0.027051,-1.2766,-0.48616,-0.43372,-0.30226,-0.22151,-0.40517,0.43142,0.44475,-0.71333,-1.6142,-0.30467,0.1249,0.045695,2.766,0.69909,3.315,0.3213,-1.2947,0.14022,-1.8264
0.014116,0.038933,0.03191,0.032136,-1.3241,-0.37277,-0.39557,-0.11887,-0.23874,-0.1669,0.47526,0.6215,-0.82268,-1.772,-0.26614,0.54581,0.049638,2.6832,0.68017,3.2575,0.336,-1.2466,0.16796,-1.7519
0.013985,0.054046,0.038495,0.03363,-1.4014,-0.25875,-0.38235,0.071368,-0.24829,0.06064,0.52336,0.81283,-0.93666,-1.9105,-0.21936,0.95183,0.061686,2.5711,0.56492,3.2058,0.32603,-1.2996,0.17139,-1.7552
0.011891,0.066329,0.038781,0.031138,-1.5279,-0.14625,-0.37623,0.26693,-0.25136,0.26397,0.57647,0.98987,-1.0351,-2.0801,-0.17887,1.1748,0.083503,2.4484,0.33877,3.1745,0.28298,-1.4588,0.14892,-1.8488
0.0085845,0.067724,0.031779,0.026474,-1.6822,-0.015648,-0.34482,0.47283,-0.25216,0.45193,0.63358,1.1612,-1.1063,-2.2741,-0.15077,1.1393,0.11292,2.3385,0.022939,3.1566,0.20746,-1.7095,0.10255,-2.0413
0.005484,0.057376,0.020395,0.022446,-1.8156,0.1602,-0.26342,0.69785,-0.25267,0.64278,0.69108,1.3605,-1.1499,-2.43,-0.13142,0.90173,0.14373,2.2479,-0.3289,3.126,0.10937,-2.02,0.038347,-2.3337
0.0035301,0.042354,0.009739,0.02099,-1.8868,0.39192,-0.13497,0.94381,-0.25057,0.84814,0.74447,1.6116,-1.1733,-2.4834,-0.11389,0.60126,0.16885,2.164,-0.64893,3.0616,0.0038325,-2.3405,-0.034116,-2.7053
0.0025878,0.032064,0.0041394,0.022168,-1.8914,0.65901,0.0081372,1.1967,-0.2417,1.0646,0.79081,1.8999,-1.1855,-2.4312,-0.09667,0.35959,0.18471,2.0725,-0.88088,2.9701,-0.0952,-2.6076,-0.10449,-3.1072
0.0019013,0.03123,0.0046977,0.024727,-1.8627,0.91815,0.12256,1.4301,-0.22435,1.2753,0.8291,2.1716,-1.193,-2.3441,-0.086293,0.20757,0.19322,1.9742,-1.0001,2.8845,-0.18046,-2.7671,-0.16568,-3.4809
0.001061,0.03736,0.0089978,0.027512,-1.8446,1.1296,0.17974,1.6211,-0.20127,1.4579,0.85867,2.3593,-1.198,-2.3088,-0.090891,0.092138,0.1997,1.884,-1.0172,2.8357,-0.25288,-2.805,-0.21688,-3.7954
0.00049564,0.044337,0.013064,0.030409,-1.8592,1.2804,0.18005,1.7639,-0.17798,1.5918,0.87787,2.4169,-1.1968,-2.3439,-0.10975,-0.051199,0.20838,1.8133,-0.96265,2.8249,-0.31841,-2.7639,-0.2635,-4.0712
0.0010676,0.048254,0.014019,0.034054,-1.8923,1.3872,0.14664,1.8693,-0.15909,1.6643,0.88496,2.3402,-1.1801,-2.364,-0.12853,-0.22865,0.219,1.7584,-0.86316,2.8214,-0.38234,-2.7255,-0.31358,-4.3635
0.0032473,0.050052,0.011511,0.038799,-1.9054,1.4776,0.10608,1.9516,-0.14579,1.6742,0.88041,2.1675,-1.1363,-2.2316,-0.12552,-0.3811,0.22707,1.7066,-0.72663,2.7891,-0.44466,-2.7645,-0.37281,-4.7073
0.0066487,0.053096,0.0072156,0.044078,-1.8612,1.5704,0.071923,2.0169,-0.13607,1.6344,0.86811,1.9651,-1.0585,-1.8612,-0.084909,-0.43902,0.22734,1.6558,-0.54544,2.7167,-0.49873,-2.9025,-0.44068,-5.0672
0.010239,0.058781,0.0033008,0.048832,-1.7432,1.6703,0.042715,2.065,-0.1269,1.5699,0.85324,1.8048,-0.95034,-1.2901,-0.0071503,-0.38307,0.21761,1.6243,-0.31405,2.624,-0.53329,-3.0935,-0.50978,-5.3372
0.012906,0.064732,0.0012647,0.052479,-1.5592,1.7759,0.012724,2.1003,-0.11631,1.51,0.83871,1.7415,-0.82511,-0.65746,0.09123,-0.25383,0.2001,1.6377,-0.044281,2.5392,-0.536,-3.2502,-0.56817,-5.4027
0.013897,0.067128,0.0016599,0.055327,-1.3322,1.8875,-0.016488,2.1355,-0.10431,1.4782,0.82339,1.7928,-0.69902,-0.1073,0.18712,-0.10683,0.17975,1.7023,0.23493,2.4706,-0.49746,-3.2916,-0.60334,-5.2209
0.012966,0.06438,0.0041602,0.057871,-1.09,2.0027,-0.034314,2.1795,-0.092458,1.4843,0.80455,1.9307,-0.58306,0.30091,0.26165,0.038396,0.16105,1.7916,0.49227,2.3999,-0.41492,-3.1797,-0.6061,-4.8575
0.010338,0.058284,0.0073945,0.059605,-0.85956,2.1047,-0.030014,2.2198,-0.083028,1.5253,0.78277,2.0926,-0.48057,0.60457,0.30526,0.20425,0.14576,1.8597,0.7086,2.3022,-0.29497,-2.924,-0.57261,-4.446
0.0066189,0.051713,0.0088757,0.058679,-0.6642,2.1611,-0.003487,2.2198,-0.07809,1.5929,0.76488,2.2121,-0.3919,0.87181,0.3165,0.41342,0.13269,1.8734,0.87813,2.1729,-0.1527,-2.5577,-0.50421,-4.099
0.0026474,0.045635,0.005868,0.053093,-0.51873,2.1401,0.032208,2.1413,-0.078839,1.6824,0.76157,2.2535,-0.32072,1.1252,0.29974,0.64605,0.11925,1.836,0.99768,2.0362,-0.0062019,-2.1097,-0.40554,-3.8387
-0.00076748,0.0388,-0.0027367,0.042768,-0.4226,2.033,0.059385,1.9748,-0.085279,1.7948,0.78071,2.2274,-0.27487,1.3254,0.26534,0.84354,0.10346,1.7841,1.0591,1.929,0.13163,-1.5946,-0.28307,-3.5998
-0.0031083,0.030436,-0.014881,0.030776,-0.35565,1.8629,0.068726,1.7503,-0.09655,1.9298,0.82122,2.1752,-0.2597,1.4232,0.23071,0.9586,0.085355,1.764,1.057,1.8764,0.25791,-1.0264,-0.14566,-3.2996
-0.0042609,0.022792,-0.025867,0.022385,-0.28167,1.6687,0.066458,1.5158,-0.11184,2.0741,0.87227,2.1324,-0.26982,1.4242,0.21697,1.0023,0.067207,1.8053,1.0065,1.8815,0.37643,-0.4415,-0.0070715,-2.9178
-0.004423,0.020311,-0.031201,0.022062,-0.15995,1.477,0.070035,1.2985,-0.13127,2.1977,0.91871,2.1015,-0.28784,1.3997,0.23964,1.0383,0.052782,1.9102,0.95136,1.9329,0.48751,0.091503,0.11308,-2.5231
-0.0039078,0.025585,-0.02978,0.030295,0.039684,1.2885,0.095577,1.0855,-0.15591,2.2646,0.94907,2.0546,-0.29292,1.4311,0.29871,1.1249,0.04566,2.0571,0.94719,2.0173,0.57999,0.49015,0.19342,-2.2281
-0.0029703,0.035878,-0.024727,0.042579,0.32448,1.089,0.14644,0.84135,-0.18672,2.2536,0.96082,1.9638,-0.27334,1.541,0.37642,1.2557,0.047217,2.2074,1.0252,2.1208,0.63406,0.69806,0.22031,-2.1099
-0.0017273,0.044031,-0.020892,0.051757,0.67236,0.87717,0.21103,0.54863,-0.22318,2.1756,0.96014,1.8325,-0.23298,1.6726,0.44621,1.3567,0.055313,2.3125,1.1661,2.218,0.63489,0.72295,0.1974,-2.1559
-0.00019672,0.043753,-0.020928,0.052555,1.0332,0.67898,0.27076,0.23642,-0.26268,2.0704,0.95721,1.6976,-0.18663,1.7388,0.48743,1.3461,0.064912,2.3219,1.3076,2.2665,0.5864,0.64473,0.14679,-2.27
0.0015533,0.035058,-0.023251,0.045326,1.3385,0.5341,0.31139,-0.030896,-0.30111,1.9842,0.96065,1.6019,-0.14842,1.6947,0.49531,1.2067,0.070838,2.2011,1.3865,2.2193,0.51205,0.58196,0.098344,-2.328
0.003252,0.024933,-0.023676,0.036061,1.5204,0.46311,0.32923,-0.19685,-0.33393,1.9396,0.97413,1.5596,-0.12312,1.572,0.4801,1.0105,0.071079,1.9507,1.3834,2.0498,0.43973,0.63249,0.072323,-2.2377
0.0044664,0.022127,-0.019308,0.03226,1.5355,0.44395,0.32885,-0.25376,-0.35695,1.9235,0.99608,1.5463,-0.10702,1.4477,0.45759,0.87345,0.067999,1.6144,1.3337,1.7705,0.38223,0.82384,0.06757,-1.9661
0.0049037,0.030082,-0.011284,0.037404,1.3836,0.42034,0.31566,-0.24825,-0.3664,1.9002,1.0214,1.5218,-0.096056,1.3777,0.4395,0.87941,0.066009,1.2644,1.2953,1.4252,0.3303,1.1049,0.064494,-1.5259
0.0047094,0.043893,-0.0039639,0.04826,1.1103,0.33849,0.291,-0.24773,-0.35923,1.8418,1.0439,1.465,-0.092957,1.3531,0.42998,1.0314,0.067256,0.96935,1.2988,1.0608,0.26525,1.3827,0.041161,-0.94326
