-2.6046e-010,-2.1666e-009,4.0708e-010,-8.1996e-010,5.7783e-009,-4.0149e-009,-1.8541e-009,9.6658e-010,-8.2767e-010,2.3748e-008,4.4953e-010,3.5789e-009,-5.2921e-009,3.5519e-009,2.2939e-009,7.0516e-009,-2.9133e-010,5.7127e-009,-9.5501e-010,1.108e-008,-8.024e-009,-9.3475e-009,-4.7905e-009,1.7505e-008
-7.043e-009,-5.935e-008,1.1701e-008,-2.2523e-008,1.5885e-007,-1.1276e-007,-5.1443e-008,2.7108e-008,-2.2632e-008,6.5238e-007,1.1839e-008,9.713e-008,-1.4599e-007,9.5021e-008,6.3328e-008,1.9307e-007,-8.3861e-009,1.5883e-007,-2.6537e-008,3.0711e-007,-2.2099e-007,-2.5454e-007,-1.3279e-007,4.8232e-007
-9.2293e-008,-7.8926e-007,1.6357e-007,-3.0077e-007,2.122e-006,-1.5413e-006,-6.9373e-007,3.7106e-007,-3.0065e-007,8.7032e-006,1.5029e-007,1.2771e-006,-1.957e-006,1.2286e-006,8.4962e-007,2.5652e-006,-1.1728e-007,2.148e-006,-3.5845e-007,4.1389e-006,-2.9574e-006,-3.3659e-006,-1.7903e-006,6.4521e-006
-7.8054e-007,-6.787e-006,1.4824e-006,-2.6015e-006,1.8351e-005,-1.3662e-005,-6.0574e-006,3.305e-006,-2.585e-006,7.5103e-005,1.2217e-006,1.0828e-005,-1.6983e-005,1.0212e-005,7.3792e-006,2.2026e-005,-1.0612e-006,1.8823e-005,-3.1356e-006,3.6135e-005,-2.5617e-005,-2.8795e-005,-1.564e-005,5.5802e-005
-4.7864e-006,-4.2406e-005,9.7933e-006,-1.6383e-005,0.00011545,-8.8281e-005,-3.8489e-005,2.1546e-005,-1.6169e-005,0.00047102,7.1188e-006,6.6468e-005,-0.00010722,6.1183e-005,4.6626e-005,0.00013731,-6.9801e-006,0.00012015,-1.9965e-005,0.0002297,-0.00016141,-0.00017911,-9.9523e-005,0.00035044
-2.2664e-005,-0.00020506,5.0284e-005,-8.0055e-005,0.00056301,-0.00044311,-0.0001896,0.00010963,-7.8401e-005,0.0022865,3.1488e-005,0.00031427,-0.00052467,0.0002805,0.00022831,0.00066163,-3.5534e-005,0.00059514,-9.8592e-005,0.0011326,-0.00078822,-0.00086315,-0.00049157,0.0017011
-8.6143e-005,-0.00079789,0.00020889,-0.00031579,0.0022134,-0.0017975,-0.00075309,0.00045341,-0.00030657,0.0089318,0.00010885,0.0011881,-0.0020693,0.0010179,0.00090099,0.002561,-0.00014554,0.0023798,-0.0003928,0.0045062,-0.0031024,-0.0033522,-0.0019608,0.0066293
-0.00026966,-0.0025639,0.0007216,-0.0010328,0.0072025,-0.0060516,-0.0024763,0.0015668,-0.0009928,0.028803,0.00029627,0.003677,-0.0067525,0.002974,0.0029411,0.0081647,-0.00049194,0.0078877,-0.0012966,0.014852,-0.010104,-0.010774,-0.0064871,0.021252
-0.00070742,-0.006925,0.002114,-0.0028544,0.019757,-0.017228,-0.0068651,0.0046148,-0.0027131,0.078011,0.00062129,0.0094509,-0.018561,0.0070005,0.0080846,0.021794,-0.001396,0.022071,-0.0036126,0.041297,-0.027728,-0.029196,-0.01814,0.056891
-0.001573,-0.015912,0.0053293,-0.006757,0.046268,-0.04202,-0.016252,0.01176,-0.0063414,0.17943,0.00090757,0.020314,-0.043509,0.01295,0.018944,0.049189,-0.0033628,0.052814,-0.008611,0.098125,-0.06493,-0.067584,-0.043454,0.12812
-0.0029837,-0.031335,0.01169,-0.013839,0.093304,-0.088597,-0.033132,0.02622,-0.012798,0.35255,0.00045993,0.036492,-0.087647,0.017078,0.038127,0.094202,-0.0069168,0.10899,-0.017726,0.2009,-0.13081,-0.13486,-0.090036,0.24242
-0.0048332,-0.053064,0.022499,-0.024702,0.16281,-0.16234,-0.05846,0.051599,-0.022447,0.59182,-0.0022238,0.054257,-0.15225,0.0087036,0.066136,0.15247,-0.012154,0.19488,-0.031719,0.35609,-0.22771,-0.23321,-0.16242,0.37991
-0.0066477,-0.077201,0.038247,-0.03864,0.24615,-0.25887,-0.089408,0.090224,-0.034345,0.84249,-0.0092962,0.065226,-0.22776,-0.031007,0.098753,0.20515,-0.018123,0.30205,-0.049536,0.54672,-0.34258,-0.34988,-0.25613,0.47174
-0.0076289,-0.095899,0.057724,-0.053236,0.32157,-0.35808,-0.11827,0.14091,-0.045897,0.99557,-0.022513,0.060744,-0.29103,-0.12391,0.12597,0.21929,-0.022503,0.40387,-0.067659,0.72406,-0.44316,-0.45314,-0.35371,0.39906
-0.0069858,-0.10036,0.077706,-0.065028,0.36009,-0.42499,-0.13444,0.19738,-0.053465,0.9239,-0.041375,0.042344,-0.31129,-0.28143,0.13474,0.16055,-0.02221,0.45946,-0.080914,0.81752,-0.4862,-0.4978,-0.42791,0.035265
-0.0044472,-0.086411,0.093779,-0.071306,0.34005,-0.4217,-0.12987,0.24893,-0.05391,0.55687,-0.061502,0.032958,-0.26554,-0.48767,0.1158,0.015581,-0.015132,0.43052,-0.08494,0.76687,-0.43824,-0.44035,-0.45369,-0.66913
-0.00061405,-0.058986,0.10224,-0.071993,0.2625,-0.32713,-0.10505,0.28376,-0.046165,-0.04785,-0.074939,0.077752,-0.15571,-0.69092,0.070736,-0.18993,-0.0022312,0.30434,-0.07908,0.56221,-0.2982,-0.25636,-0.4239,-1.6014
0.0031903,-0.031186,0.10208,-0.069984,0.15488,-0.15349,-0.070905,0.29386,-0.031589,-0.6966,-0.073384,0.22577,-0.014623,-0.81604,0.013727,-0.39553,0.011665,0.1084,-0.067477,0.26336,-0.10449,0.049479,-0.35737,-2.4718
0.00561,-0.016624,0.095666,-0.069115,0.056356,0.053466,-0.04321,0.27827,-0.012696,-1.1475,-0.053211,0.4972,0.10792,-0.79831,-0.035581,-0.53764,0.019685,-0.097014,-0.056917,-0.023161,0.083137,0.44329,-0.29077,-2.9172
0.0060908,-0.019752,0.087498,-0.070944,-0.0079643,0.23429,-0.032134,0.24232,0.0087271,-1.2527,-0.019046,0.85731,0.17319,-0.62189,-0.064463,-0.59073,0.016889,-0.24757,-0.052371,-0.20211,0.21751,0.86654,-0.25646,-2.6906
0.0052649,-0.031965,0.081687,-0.073034,-0.045094,0.34524,-0.034241,0.19292,0.032328,-1.0568,0.01728,1.2216,0.17671,-0.33655,-0.075688,-0.58524,0.003869,-0.30781,-0.053325,-0.24443,0.28924,1.2395,-0.26108,-1.8269
0.0045382,-0.037819,0.079887,-0.070703,-0.088579,0.37802,-0.034039,0.13303,0.057947,-0.76869,0.042698,1.4971,0.1482,-0.036361,-0.084612,-0.58245,-0.012991,-0.28552,-0.053869,-0.19778,0.323,1.4687,-0.28149,-0.65956
0.0050819,-0.027329,0.081001,-0.061274,-0.17112,0.35658,-0.015264,0.05964,0.083702,-0.61602,0.050238,1.6356,0.12661,0.18964,-0.10604,-0.6209,-0.025365,-0.21822,-0.046669,-0.14345,0.348,1.4698,-0.28251,0.34787
0.0068955,-0.0042467,0.082584,-0.047221,-0.29579,0.31447,0.026226,-0.032972,0.10568,-0.68649,0.042698,1.6581,0.12908,0.30161,-0.14135,-0.67777,-0.028436,-0.14357,-0.02778,-0.13432,0.36836,1.2114,-0.2437,0.85928
0.0086426,0.01723,0.082632,-0.034989,-0.42877,0.27088,0.078271,-0.147,0.12023,-0.87857,0.03009,1.6304,0.13854,0.31625,-0.17714,-0.68222,-0.023844,-0.077398,0.0014727,-0.16358,0.35928,0.75504,-0.17385,0.84322
0.0084996,0.025028,0.080401,-0.029893,-0.51995,0.22273,0.12082,-0.27669,0.12698,-0.9962,0.022858,1.6074,0.11991,0.27347,-0.19698,-0.57563,-0.017816,-0.014574,0.036777,-0.18682,0.29176,0.258,-0.10215,0.55122
0.0055656,0.020289,0.076026,-0.03134,-0.53529,0.15597,0.14053,-0.40935,0.1296,-0.90585,0.025681,1.5913,0.050626,0.19158,-0.19616,-0.37019,-0.016052,0.053331,0.074925,-0.17235,0.16238,-0.085275,-0.053866,0.32219
0.00088898,0.017131,0.069764,-0.032703,-0.47641,0.063264,0.13996,-0.53132,0.13289,-0.62766,0.0356,1.5403,-0.06007,0.050586,-0.18616,-0.15329,-0.019592,0.12311,0.11602,-0.13159,0.00078289,-0.13898,-0.031317,0.36072
-0.0027474,0.031155,0.061759,-0.026266,-0.37482,-0.047567,0.13442,-0.63449,0.13854,-0.29508,0.044587,1.4157,-0.17809,-0.18053,-0.18493,-0.028237,-0.024856,0.18198,0.16212,-0.10292,-0.15154,0.09876,-0.0155,0.64309
-0.0024002,0.066672,0.052378,-0.0090646,-0.26873,-0.15974,0.13948,-0.71862,0.14364,-0.032415,0.043961,1.2248,-0.2695,-0.49544,-0.20159,-0.037457,-0.027368,0.22231,0.21386,-0.10834,-0.27101,0.49521,0.014423,0.99467
0.0029934,0.11339,0.042481,0.015281,-0.18203,-0.25965,0.15974,-0.78832,0.14378,0.13824,0.028203,1.0184,-0.3209,-0.82492,-0.22921,-0.13202,-0.025628,0.25183,0.26836,-0.127,-0.36353,0.86134,0.061703,1.2509
0.011551,0.1546,0.033059,0.039794,-0.119,-0.34271,0.18704,-0.84741,0.13812,0.28715,-0.0027178,0.847,-0.33913,-1.0611,-0.25122,-0.21333,-0.021852,0.2872,0.31995,-0.11234,-0.44902,1.0569,0.1093,1.3667
0.019319,0.17884,0.024526,0.058963,-0.072774,-0.40897,0.20848,-0.89512,0.13138,0.48873,-0.042571,0.71673,-0.33449,-1.1174,-0.25479,-0.21121,-0.019349,0.33676,0.36279,-0.03606,-0.53444,1.0518,0.13514,1.4034
0.022698,0.18528,0.016392,0.070808,-0.036048,-0.45526,0.21629,-0.92626,0.12999,0.74353,-0.080328,0.58714,-0.30592,-0.97906,-0.23871,-0.13141,-0.019235,0.39032,0.39325,0.083138,-0.59997,0.90798,0.13115,1.4309
0.020752,0.17967,0.0077819,0.075291,-0.004805,-0.47327,0.21172,-0.93367,0.13555,0.97812,-0.10454,0.4125,-0.24234,-0.70478,-0.21012,-0.033813,-0.019434,0.428,0.41087,0.1934,-0.60975,0.70546,0.10983,1.4443
0.015698,0.16666,-0.0015743,0.072053,0.024073,-0.45543,0.20107,-0.91006,0.14163,1.1129,-0.10926,0.18692,-0.13742,-0.37971,-0.1754,0.035794,-0.016603,0.4416,0.41826,0.25276,-0.53771,0.47313,0.094155,1.3625
0.011181,0.14634,-0.010761,0.060682,0.054881,-0.40186,0.18864,-0.84818,0.13797,1.1299,-0.097616,-0.04882,-0.0020814,-0.058664,-0.13527,0.096253,-0.0090619,0.44809,0.42061,0.2617,-0.3887,0.17419,0.10073,1.0995
0.009702,0.11748,-0.018035,0.043302,0.091065,-0.32089,0.17337,-0.74183,0.1193,1.0821,-0.07941,-0.24447,0.13777,0.25598,-0.088463,0.21657,0.0018217,0.48054,0.42458,0.25689,-0.20072,-0.25059,0.13036,0.63739
0.011179,0.083305,-0.021882,0.026128,0.13175,-0.22307,0.15159,-0.59002,0.091367,1.0442,-0.063259,-0.38569,0.25628,0.58855,-0.038865,0.44812,0.012715,0.56183,0.43584,0.27434,-0.028236,-0.82059,0.17168,0.044356
0.01359,0.053185,-0.021954,0.01733,0.17164,-0.11574,0.12255,-0.40298,0.067976,1.0558,-0.049032,-0.50544,0.34245,0.94469,0.0026615,0.76379,0.020736,0.68322,0.45596,0.31712,0.083148,-1.4809,0.2117,-0.56763
0.01488,0.038321,-0.019254,0.022326,0.20512,-0.0041537,0.091348,-0.20404,0.060541,1.1021,-0.026915,-0.6519,0.40344,1.2888,0.024835,1.0602,0.025193,0.80686,0.48099,0.35596,0.11797,-2.1164,0.24293,-1.1008
0.014387,0.04481,-0.015532,0.040464,0.23018,0.10272,0.066237,-0.022182,0.06808,1.1414,0.01541,-0.8431,0.45631,1.5638,0.024956,1.225,0.027528,0.89162,0.50366,0.35925,0.098551,-2.6004,0.2628,-1.5009
0.012776,0.069629,-0.01242,0.065887,0.24782,0.18965,0.052729,0.12248,0.07634,1.1456,0.08283,-1.0492,0.51664,1.7317,0.011656,1.2166,0.029849,0.9211,0.51827,0.32339,0.074714,-2.8467,0.26948,-1.7478
0.01095,0.10219,-0.010889,0.091475,0.25777,0.24128,0.049331,0.23029,0.067643,1.1197,0.1679,-1.2163,0.59182,1.7976,-0.0014839,1.0916,0.033358,0.91129,0.52452,0.27641,0.098431,-2.8395,0.26088,-1.8318
0.009248,0.12979,-0.011275,0.11224,0.25574,0.25328,0.048573,0.32008,0.03425,1.0889,0.25456,-1.3086,0.67975,1.7946,-0.0056773,0.96066,0.037723,0.89256,0.52655,0.25387,0.19517,-2.6327,0.23829,-1.7465
0.0076193,0.14306,-0.013703,0.12572,0.23619,0.23851,0.042537,0.41297,-0.015276,1.0739,0.32706,-1.3336,0.76965,1.7458,-0.001336,0.90888,0.041552,0.88258,0.52777,0.26991,0.34831,-2.3234,0.20945,-1.5033
0.0062663,0.1387,-0.018495,0.13036,0.19868,0.22142,0.028544,0.51336,-0.061955,1.0737,0.37716,-1.3301,0.8435,1.6422,0.0062055,0.94404,0.043435,0.87384,0.52595,0.30805,0.50774,-2.0098,0.18611,-1.1492
0.0057456,0.11896,-0.026247,0.12475,0.15143,0.22377,0.010656,0.60301,-0.090128,1.0682,0.40506,-1.3357,0.88023,1.4582,0.014766,1.0076,0.042852,0.84536,0.51356,0.33708,0.61878,-1.7501,0.17683,-0.76487
0.0062575,0.089274,-0.037485,0.10892,0.10783,0.25223,-0.0039696,0.65388,-0.098407,1.032,0.41533,-1.3602,0.86398,1.1918,0.029172,1.0318,0.040495,0.78703,0.48385,0.3365,0.65296,-1.5404,0.18174,-0.43682
0.0069295,0.05564,-0.05212,0.086244,0.078345,0.29693,-0.010845,0.65051,-0.099638,0.94804,0.4125,-1.3855,0.79325,0.89005,0.057402,0.9926,0.03785,0.71408,0.43757,0.31031,0.62023,-1.329,0.19419,-0.22085
0.0060927,0.022867,-0.069106,0.063152,0.064556,0.34065,-0.011458,0.6035,-0.11052,0.81465,0.3995,-1.3849,0.68397,0.63358,0.103,0.91813,0.036236,0.65809,0.38418,0.28026,0.55595,-1.0618,0.20752,-0.12127
0.0025804,-0.0059208,-0.086582,0.046123,0.060204,0.37068,-0.011677,0.54328,-0.13946,0.64392,0.37874,-1.3454,0.56261,0.4884,0.16098,0.85522,0.035843,0.64208,0.33564,0.26691,0.49463,-0.73407,0.21971,-0.099535
-0.0030573,-0.028746,-0.10249,0.038163,0.05761,0.38457,-0.016721,0.49916,-0.18176,0.45461,0.35309,-1.2731,0.45293,0.46215,0.22065,0.82771,0.035493,0.66092,0.29763,0.27434,0.45044,-0.4102,0.23138,-0.10431
-0.0086258,-0.044068,-0.11532,0.037751,0.053048,0.38788,-0.026907,0.48107,-0.22471,0.26262,0.32541,-1.1846,0.36496,0.49934,0.27233,0.82168,0.033502,0.68369,0.26553,0.28875,0.41674,-0.19213,0.23989,-0.10047
-0.011735,-0.050884,-0.12447,0.040953,0.046491,0.38834,-0.037584,0.47844,-0.25712,0.073922,0.29736,-1.0936,0.29309,0.51822,0.31167,0.80312,0.029136,0.67602,0.22872,0.28972,0.38034,-0.15468,0.23708,-0.077435
-0.011448,-0.049828,-0.13015,0.044611,0.037169,0.39206,-0.043202,0.47584,-0.27518,-0.1155,0.2694,-1.0048,0.22311,0.46123,0.33828,0.74619,0.023466,0.62378,0.17953,0.26402,0.33598,-0.29263,0.21455,-0.034545
-0.0087571,-0.04415,-0.13292,0.047844,0.02063,0.4034,-0.042055,0.4706,-0.2813,-0.31123,0.24186,-0.91886,0.14212,0.32361,0.35116,0.64663,0.018695,0.53961,0.11942,0.21284,0.28967,-0.51746,0.17261,0.040412
-0.0055897,-0.038998,-0.13342,0.051152,-0.0087514,0.42546,-0.037806,0.47656,-0.27844,-0.50879,0.2158,-0.8412,0.044658,0.14503,0.34611,0.51401,0.016361,0.44888,0.057137,0.14935,0.25122,-0.70544,0.12427,0.17813
-0.0033249,-0.038604,-0.13226,0.054837,-0.051792,0.4581,-0.036778,0.51043,-0.26616,-0.68688,0.19228,-0.78477,-0.067089,-0.023792,0.31808,0.35645,0.015994,0.36936,0.0010417,0.090327,0.22492,-0.76269,0.089335,0.41118
-0.0021479,-0.043152,-0.13008,0.058706,-0.10102,0.49456,-0.04355,0.57256,-0.24159,-0.81122,0.17076,-0.76294,-0.18692,-0.15386,0.26606,0.17488,0.015581,0.3017,-0.047562,0.048027,0.20633,-0.66558,0.082403,0.74514
-0.0016337,-0.048144,-0.12766,0.063091,-0.14385,0.52078,-0.058631,0.63947,-0.20354,-0.84697,0.14866,-0.77631,-0.30848,-0.25038,0.19583,-0.030044,0.013574,0.23621,-0.094254,0.026127,0.18554,-0.45824,0.10356,1.1406
-0.0017537,-0.047512,-0.12578,0.069425,-0.17046,0.52085,-0.079716,0.67579,-0.15515,-0.77296,0.12312,-0.80427,-0.42722,-0.34204,0.11799,-0.2481,0.010609,0.16617,-0.14526,0.020028,0.15208,-0.21933,0.1386,1.5215
-0.0031517,-0.038523,-0.12515,0.078985,-0.17977,0.48639,-0.10463,0.65741,-0.10254,-0.59147,0.093619,-0.81047,-0.54028,-0.45803,0.043175,-0.45774,0.0091997,0.093192,-0.20121,0.019614,0.097346,-0.022933,0.16777,1.806
-0.0063487,-0.024502,-0.12629,0.090652,-0.17856,0.42315,-0.13268,0.58799,-0.051173,-0.33152,0.062888,-0.76162,-0.64503,-0.60784,-0.021345,-0.63335,0.011548,0.020633,-0.25653,0.012882,0.015248,0.088811,0.17639,1.938
-0.010678,-0.012841,-0.12909,0.10013,-0.17442,0.34862,-0.16321,0.49632,-0.0038563,-0.045553,0.034659,-0.64846,-0.73713,-0.7747,-0.07139,-0.75432,0.017443,-0.056005,-0.30447,-0.010052,-0.09591,0.11763,0.16087,1.9004
-0.014119,-0.0096529,-0.13237,0.10212,-0.16894,0.2813,-0.19318,0.41669,0.037709,0.20129,0.0098578,-0.49427,-0.80939,-0.9252,-0.10365,-0.80996,0.024229,-0.14923,-0.3426,-0.052955,-0.2295,0.10699,0.12833,1.7078
-0.014443,-0.01536,-0.13375,0.094062,-0.15675,0.22947,-0.21713,0.36769,0.069996,0.34936,-0.015408,-0.34391,-0.85238,-1.0294,-0.11497,-0.80123,0.028936,-0.26824,-0.37367,-0.11113,-0.36771,0.12562,0.092117,1.3911
-0.010852,-0.02481,-0.13052,0.078509,-0.13109,0.18817,-0.23037,0.34479,0.087342,0.3653,-0.04799,-0.24053,-0.85758,-1.0798,-0.10446,-0.74293,0.030678,-0.40722,-0.40191,-0.1731,-0.48384,0.23891,0.066459,0.99199
-0.0047998,-0.031548,-0.12128,0.061804,-0.090655,0.14694,-0.23275,0.33012,0.085853,0.25423,-0.093103,-0.20529,-0.82162,-1.097,-0.076233,-0.66548,0.031222,-0.54647,-0.42935,-0.22714,-0.55043,0.47914,0.06197,0.56641
0.00075815,-0.032432,-0.10728,0.050169,-0.041974,0.10101,-0.22939,0.30901,0.068535,0.053486,-0.15045,-0.23181,-0.74899,-1.1185,-0.039132,-0.61036,0.033338,-0.66821,-0.45644,-0.26966,-0.54967,0.83187,0.082256,0.18612
0.0031619,-0.028731,-0.092233,0.046288,0.0042067,0.056098,-0.22689,0.27929,0.046606,-0.18965,-0.21364,-0.29423,-0.65126,-1.1755,-0.0026537,-0.61543,0.038454,-0.77399,-0.48581,-0.30965,-0.48031,1.2475,0.12235,-0.074907
0.001556,-0.023355,-0.080367,0.048949,0.039068,0.022163,-0.22768,0.24745,0.034557,-0.44023,-0.27273,-0.35826,-0.54275,-1.2728,0.02801,-0.69596,0.045529,-0.88741,-0.52418,-0.36443,-0.3578,1.6689,0.17027,-0.16655
-0.0029497,-0.017388,-0.074112,0.055421,0.059417,0.0022184,-0.22748,0.21815,0.041823,-0.6806,-0.31747,-0.38656,-0.43546,-1.3854,0.053595,-0.83434,0.051792,-1.0377,-0.57869,-0.448,-0.20815,2.0533,0.21206,-0.084646
-0.0084173,-0.0095088,-0.073145,0.063867,0.067025,-0.012973,-0.21802,0.18836,0.067113,-0.89669,-0.3397,-0.34059,-0.33616,-1.4721,0.077795,-0.98797,0.054528,-1.2363,-0.65005,-0.5596,-0.058853,2.3735,0.2383,0.1272
-0.013468,0.0011993,-0.075358,0.073459,0.065607,-0.038709,-0.1936,0.15124,0.099623,-1.0632,-0.33529,-0.18852,-0.24693,-1.498,0.1026,-1.1111,0.052568,-1.4664,-0.72896,-0.6816,0.069121,2.6048,0.24842,0.39699
-0.017812,0.012135,-0.078658,0.082467,0.058661,-0.083806,-0.15618,0.1047,0.12611,-1.1478,-0.30669,0.076491,-0.16779,-1.4492,0.12624,-1.1762,0.046778,-1.6931,-0.80035,-0.7899,0.16529,2.7173,0.24977,0.65037
-0.021692,0.017326,-0.081926,0.086911,0.049292,-0.14306,-0.11531,0.054763,0.13856,-1.135,-0.26509,0.4181,-0.09896,-1.3333,0.14525,-1.1804,0.039553,-1.8876,-0.85261,-0.87037,0.22883,2.688,0.25211,0.82806
-0.024981,0.011279,-0.084615,0.081947,0.040513,-0.20159,-0.08258,0.010176,0.13738,-1.0479,-0.22895,0.75713,-0.041213,-1.1679,0.15842,-1.136,0.033617,-2.0451,-0.88432,-0.92908,0.26426,2.5263,0.26125,0.89153
-0.026943,-0.0068019,-0.086032,0.065426,0.034288,-0.24708,-0.064724,-0.026781,0.12857,-0.94099,-0.21692,1.0004,0.0052538,-0.96791,0.1686,-1.0566,0.030565,-2.1842,-0.90287,-0.98834,0.27641,2.288,0.27591,0.82624
-0.026907,-0.032419,-0.085542,0.04047,0.029721,-0.27887,-0.060007,-0.063999,0.11802,-0.86488,-0.23754,1.0855,0.041747,-0.74251,0.18065,-0.95061,0.029809,-2.3299,-0.91699,-1.0711,0.26802,2.0611,0.2894,0.64948
-0.025173,-0.059436,-0.083612,0.014308,0.022758,-0.30633,-0.060097,-0.11428,0.10703,-0.82956,-0.28281,1.0129,0.070599,-0.49881,0.19755,-0.8268,0.028783,-2.4955,-0.93058,-1.1858,0.24093,1.923,0.29416,0.41665
-0.023164,-0.084512,-0.082216,-0.0062356,0.0090123,-0.33911,-0.055578,-0.18599,0.091812,-0.80046,-0.33154,0.84106,0.093508,-0.24735,0.21803,-0.70375,0.024632,-2.6778,-0.94338,-1.3221,0.19951,1.8984,0.28602,0.21092
-0.022507,-0.10807,-0.083494,-0.019071,-0.011795,-0.37896,-0.04109,-0.27765,0.066689,-0.73373,-0.36152,0.64571,0.11012,-0.0016677,0.23725,-0.61103,0.016401,-2.8672,-0.95679,-1.4601,0.15268,1.944,0.26601,0.10943
-0.023772,-0.13109,-0.087469,-0.027369,-0.03363,-0.42016,-0.017058,-0.38001,0.028939,-0.62089,-0.36258,0.47304,0.1182,0.22715,0.24964,-0.57833,0.0059287,-3.0603,-0.97765,-1.5844,0.11211,1.972,0.2398,0.14028
-0.025995,-0.15129,-0.091094,-0.035916,-0.04697,-0.4567,0.01206,-0.48181,-0.017536,-0.50259,-0.34113,0.31894,0.11544,0.43458,0.25136,-0.6179,-0.0035812,-3.2631,-1.015,-1.6914,0.087385,1.8991,0.21554,0.25895
-0.027487,-0.1631,-0.090042,-0.046577,-0.045363,-0.48797,0.040719,-0.57337,-0.061876,-0.43688,-0.31338,0.14848,0.1017,0.61992,0.24093,-0.71246,-0.010347,-3.4793,-1.0723,-1.7857,0.081588,1.6881,0.20077,0.36589
-0.027244,-0.16194,-0.082093,-0.056848,-0.030729,-0.517,0.064178,-0.64595,-0.090186,-0.44889,-0.29304,-0.062329,0.080194,0.77885,0.21869,-0.81753,-0.015812,-3.6965,-1.1417,-1.8708,0.090852,1.3604,0.19873,0.3593
-0.025696,-0.14894,-0.069114,-0.062566,-0.012785,-0.54364,0.078902,-0.69019,-0.09244,-0.50622,-0.28304,-0.29631,0.056784,0.89895,0.18632,-0.87891,-0.023722,-3.8812,-1.2077,-1.9415,0.10831,0.97554,0.20598,0.19167
-0.024126,-0.13131,-0.055676,-0.062134,-0.0025061,-0.56032,0.082645,-0.69743,-0.068839,-0.54338,-0.27664,-0.49959,0.037986,0.9648,0.14681,-0.85713,-0.037004,-3.9919,-1.2554,-1.985,0.1294,0.59696,0.21348,-0.10561
-0.023297,-0.11779,-0.045413,-0.058381,-0.0045712,-0.55538,0.075164,-0.6641,-0.031242,-0.51564,-0.26521,-0.6163,0.02898,0.9706,0.10439,-0.74635,-0.054968,-3.999,-1.2792,-1.9874,0.15449,0.26988,0.21186,-0.44342
-0.022636,-0.11281,-0.038454,-0.056497,-0.01485,-0.52147,0.059034,-0.59489,0.0023553,-0.43712,-0.24528,-0.62595,0.03252,0.93078,0.063766,-0.57732,-0.073179,-3.8992,-1.2826,-1.9425,0.18697,0.021837,0.19786,-0.72452
-0.020818,-0.11448,-0.03225,-0.060008,-0.024919,-0.46149,0.039162,-0.50135,0.017663,-0.37103,-0.2196,-0.5563,0.048873,0.87896,0.028859,-0.40193,-0.086231,-3.7118,-1.2717,-1.8565,0.22861,-0.12353,0.1769,-0.88735
-0.017325,-0.11744,-0.024823,-0.068309,-0.029735,-0.38734,0.020532,-0.39621,0.011852,-0.38054,-0.19338,-0.46519,0.076224,0.85357,0.0022066,-0.26716,-0.091359,-3.4615,-1.2486,-1.7472,0.27587,-0.14074,0.15878,-0.91876
-0.013536,-0.11778,-0.017098,-0.077698,-0.032054,-0.31338,0.0055606,-0.288,-0.006417,-0.48093,-0.17057,-0.40835,0.11108,0.8779,-0.014582,-0.19351,-0.090219,-3.1609,-1.2088,-1.6378,0.32004,-0.016795,0.14962,-0.83591
-0.012176,-0.11556,-0.011951,-0.084739,-0.040075,-0.25068,-0.0067181,-0.17981,-0.024798,-0.63111,-0.15363,-0.41725,0.1486,0.94624,-0.020063,-0.1711,-0.08762,-2.8068,-1.146,-1.5471,0.35111,0.22462,0.14679,-0.6589
-0.01531,-0.1135,-0.010968,-0.088932,-0.06054,-0.20594,-0.018827,-0.072477,-0.036848,-0.76849,-0.14523,-0.49785,0.18321,1.0238,-0.013165,-0.17594,-0.088208,-2.3913,-1.0582,-1.4803,0.36256,0.51361,0.14165,-0.39776
-0.02236,-0.11387,-0.012259,-0.092524,-0.093095,-0.1828,-0.031843,0.031374,-0.045883,-0.85528,-0.14801,-0.64179,0.20952,1.0611,0.0054113,-0.19414,-0.09347,-1.9192,-0.94947,-1.4256,0.3539,0.75538,0.12759,-0.061403
-0.029806,-0.11656,-0.011616,-0.097886,-0.1302,-0.18137,-0.043795,0.12599,-0.060398,-0.89701,-0.16097,-0.8337,0.22353,1.0159,0.031935,-0.23532,-0.10097,-1.4163,-0.82863,-1.3599,0.32931,0.87283,0.10573,0.32256
-0.033076,-0.11997,-0.0059569,-0.10505,-0.16207,-0.19511,-0.050768,0.20467,-0.085493,-0.9198,-0.17631,-1.0477,0.22378,0.8743,0.060229,-0.32298,-0.10618,-0.92372,-0.70468,-1.2624,0.29393,0.8403,0.082715,0.69578
-0.029476,-0.1231,0.0042291,-0.11184,-0.1823,-0.20944,-0.049642,0.26323,-0.11784,-0.92962,-0.18128,-1.2423,0.21204,0.66061,0.084287,-0.46743,-0.1055,-0.48164,-0.58385,-1.128,0.25073,0.68306,0.062442,0.97721
-0.020139,-0.12712,0.015648,-0.11661,-0.19017,-0.20709,-0.040132,0.30159,-0.14813,-0.89272,-0.16583,-1.3668,0.19316,0.43108,0.10114,-0.64171,-0.09856,-0.11386,-0.46886,-0.97073,0.20035,0.4452,0.04021,1.0901
-0.0095314,-0.13494,0.025197,-0.12139,-0.18892,-0.17907,-0.024692,0.3223,-0.16813,-0.75815,-0.13048,-1.3838,0.17352,0.25043,0.11169,-0.78193,-0.088381,0.17711,-0.35963,-0.81325,0.14346,0.15462,0.0056746,0.99536
-0.0027457,-0.14931,0.032235,-0.13194,-0.1825,-0.1334,-0.006874,0.32748,-0.17562,-0.50553,-0.087177,-1.2923,0.1582,0.16096,0.11891,-0.81663,-0.079406,0.40323,-0.25431,-0.66951,0.082407,-0.18544,-0.047352,0.71425
-0.002365,-0.1703,0.038204,-0.15386,-0.17369,-0.093266,0.010151,0.31675,-0.17341,-0.177,-0.05177,-1.1345,0.1478,0.15953,0.12498,-0.70859,-0.074765,0.57955,-0.15036,-0.53273,0.01919,-0.57477,-0.11337,0.32738
-0.0070569,-0.19355,0.044557,-0.18684,-0.16414,-0.08371,0.02388,0.28808,-0.16442,0.13745,-0.033765,-0.9768,0.13716,0.19716,0.12974,-0.48079,-0.074472,0.7172,-0.045684,-0.37819,-0.049309,-0.98951,-0.17761,-0.053099
-0.012795,-0.21017,0.051464,-0.22158,-0.15509,-0.11571,0.032026,0.24071,-0.14829,0.35389,-0.031662,-0.8772,0.11757,0.20424,0.13146,-0.20735,-0.075639,0.82495,0.059994,-0.17946,-0.13343,-1.379,-0.22688,-0.3258
-0.015718,-0.20936,0.058581,-0.24276,-0.14713,-0.17921,0.032524,0.17804,-0.12297,0.44606,-0.037105,-0.85714,0.082011,0.1292,0.12879,0.026698,-0.074422,0.91521,0.16455,0.072731,-0.24464,-1.6914,-0.25918,-0.43486
-0.014481,-0.18349,0.066571,-0.23728,-0.1392,-0.24994,0.024455,0.10818,-0.089165,0.45373,-0.043206,-0.89473,0.030079,-0.03211,0.12171,0.1715,-0.068406,1.0062,0.264,0.36143,-0.38187,-1.9043,-0.28316,-0.37841
-0.010499,-0.13341,0.077075,-0.20304,-0.12832,-0.30443,0.0091114,0.04163,-0.052982,0.44176,-0.049371,-0.93938,-0.031412,-0.23513,0.11061,0.23472,-0.057901,1.1156,0.3538,0.64961,-0.51987,-2.0333,-0.30787,-0.19009
-0.0061921,-0.070455,0.090476,-0.15191,-0.11092,-0.33174,-0.010022,-0.012671,-0.024075,0.44412,-0.059061,-0.93882,-0.093315,-0.41495,0.094514,0.26682,-0.045436,1.2486,0.43013,0.89733,-0.6123,-2.1115,-0.33248,0.087752
-0.0028815,-0.012489,0.10361,-0.10424,-0.085439,-0.33476,-0.028772,-0.050472,-0.010895,0.43828,-0.073986,-0.86586,-0.15107,-0.52645,0.070347,0.32125,-0.033929,1.3922,0.49062,1.0798,-0.61405,-2.1622,-0.34609,0.41586
-4.286e-005,0.024904,0.11036,-0.077574,-0.054106,-0.32238,-0.044342,-0.07288,-0.01696,0.36821,-0.091099,-0.73501,-0.20797,-0.56977,0.034692,0.41876,-0.024857,1.5209,0.53467,1.1968,-0.51173,-2.1906,-0.33802,0.74869
0.0036945,0.036946,0.10582,-0.076845,-0.022259,-0.30053,-0.056403,-0.08423,-0.040335,0.19349,-0.10527,-0.60131,-0.27162,-0.58369,-0.013005,0.54051,-0.017659,1.6131,0.5636,1.2702,-0.33999,-2.1987,-0.3094,1.0211
0.0089306,0.031948,0.091048,-0.092529,0.0045405,-0.26847,-0.066269,-0.088444,-0.075418,-0.076994,-0.11452,-0.53855,-0.34623,-0.61171,-0.067982,0.65297,-0.010735,1.665,0.58036,1.33,-0.16767,-2.2011,-0.27488,1.1557
0.014753,0.025185,0.074113,-0.10777,0.023703,-0.22119,-0.074591,-0.085944,-0.11486,-0.39132,-0.12233,-0.60262,-0.42718,-0.6649,-0.12056,0.7428,-0.0031699,1.6903,0.58817,1.3979,-0.058373,-2.2191,-0.25243,1.0973
0.019402,0.028368,0.065547,-0.10943,0.036758,-0.15403,-0.079243,-0.073048,-0.15078,-0.68951,-0.13468,-0.79782,-0.5027,-0.70925,-0.15963,0.83286,0.004215,1.7063,0.58875,1.4765,-0.032139,-2.2557,-0.24973,0.85201
0.021565,0.042294,0.071105,-0.095399,0.047607,-0.066011,-0.075298,-0.044633,-0.17616,-0.93476,-0.15467,-1.0678,-0.56135,-0.68831,-0.17743,0.96556,0.0093969,1.7175,0.58146,1.5498,-0.056876,-2.2786,-0.25881,0.49436
0.021158,0.058051,0.087432,-0.073843,0.059212,0.038804,-0.057803,0.0010236,-0.1868,-1.1176,-0.17956,-1.3218,-0.59894,-0.56664,-0.17305,1.1663,0.010894,1.7117,0.5645,1.5947,-0.077237,-2.2372,-0.26346,0.12966
0.019119,0.065447,0.10444,-0.05597,0.071214,0.1509,-0.025966,0.058074,-0.18314,-1.2388,-0.20245,-1.4841,-0.61935,-0.36353,-0.15283,1.4169,0.009295,1.6713,0.53783,1.5969,-0.058829,-2.1062,-0.25267,-0.16749
0.016778,0.061703,0.11287,-0.048171,0.080296,0.25627,0.01423,0.11291,-0.16992,-1.2941,-0.21665,-1.5349,-0.6292,-0.15204,-0.12763,1.6604,0.0072513,1.5909,0.50533,1.5591,-0.012633,-1.9166,-0.22897,-0.39145
0.015477,0.05346,0.11107,-0.048914,0.08295,0.34012,0.051612,0.14937,-0.15367,-1.28,-0.21888,-1.5141,-0.63172,-0.022337,-0.10823,1.8359,0.0077901,1.4851,0.47412,1.4977,0.019691,-1.7384,-0.20487,-0.58959
0.016463,0.050924,0.1056,-0.051552,0.0785,0.39341,0.075442,0.15712,-0.13977,-1.2118,-0.2095,-1.4876,-0.62518,-0.032694,-0.10116,1.9161,0.012197,1.3803,0.45112,1.4302,0.0062569,-1.6211,-0.19113,-0.80364
0.020483,0.059328,0.10517,-0.049988,0.070061,0.41837,0.0816,0.13821,-0.13142,-1.1316,-0.19064,-1.4984,-0.60636,-0.17926,-0.10656,1.9196,0.019081,1.2967,0.43919,1.3648,-0.043845,-1.5377,-0.18649,-1.0167
0.026889,0.074716,0.11314,-0.042862,0.062815,0.42861,0.074789,0.10689,-0.13043,-1.092,-0.1646,-1.5417,-0.57482,-0.40108,-0.11891,1.8922,0.025329,1.2355,0.43591,1.2974,-0.085416,-1.3844,-0.17699,-1.1519
0.033094,0.087028,0.12483,-0.033794,0.060986,0.44258,0.064872,0.082501,-0.13806,-1.1259,-0.13365,-1.577,-0.53352,-0.61251,-0.13039,1.8735,0.028228,1.1796,0.43562,1.2197,-0.073606,-1.0472,-0.14509,-1.1275
0.035499,0.087505,0.13172,-0.028246,0.065728,0.47468,0.060057,0.079635,-0.1542,-1.2269,-0.1002,-1.5655,-0.48562,-0.73962,-0.13504,1.8752,0.027165,1.1077,0.43307,1.1277,-0.00040537,-0.48783,-0.081685,-0.92645
0.031888,0.07451,0.1285,-0.029564,0.075233,0.53026,0.062163,0.10231,-0.17539,-1.3605,-0.066536,-1.5008,-0.43165,-0.74041,-0.13174,1.8852,0.02376,1.0109,0.42622,1.0248,0.099747,0.21426,0.0071562,-0.62406
0.023518,0.053936,0.11695,-0.036799,0.086603,0.60707,0.067346,0.14533,-0.19439,-1.4963,-0.034082,-1.4091,-0.37063,-0.60557,-0.12456,1.8858,0.020514,0.90123,0.41676,0.91829,0.17894,0.89897,0.10254,-0.34953
0.014794,0.034923,0.10351,-0.045439,0.097905,0.69957,0.070871,0.2006,-0.20279,-1.6333,-0.0036319,-1.3244,-0.30431,-0.35065,-0.1206,1.8697,0.019156,0.80691,0.40923,0.81318,0.21363,1.4142,0.18198,-0.20795
0.010226,0.024714,0.093236,-0.050251,0.10892,0.80085,0.071162,0.26277,-0.19529,-1.7957,0.02305,-1.26,-0.23962,-0.011345,-0.12677,1.8388,0.019916,0.7592,0.40959,0.71099,0.21939,1.693,0.22958,-0.22017
0.010989,0.025942,0.085886,-0.048258,0.12026,0.90068,0.06959,0.3297,-0.17242,-2.0023,0.041626,-1.1999,-0.18593,0.35723,-0.1469,1.7937,0.022084,0.77707,0.42388,0.61317,0.23223,1.77,0.24182,-0.32287
0.014109,0.03693,0.077569,-0.039967,0.1317,0.98345,0.066961,0.39841,-0.13966,-2.2373,0.045932,-1.1139,-0.14855,0.68609,-0.18011,1.7256,0.025051,0.85843,0.45638,0.52507,0.27475,1.7343,0.22684,-0.4244
0.015174,0.053384,0.06599,-0.028383,0.14126,1.031,0.061067,0.46113,-0.10399,-2.4482,0.031797,-0.98211,-0.12449,0.90932,-0.22044,1.6201,0.028776,0.98149,0.50748,0.45567,0.3372,1.6642,0.19855,-0.47104
0.012199,0.06987,0.053959,-0.016867,0.14594,1.0304,0.048534,0.50568,-0.070855,-2.5752,0.0014872,-0.80871,-0.10487,0.98718,-0.25798,1.4665,0.033268,1.1148,0.57236,0.41247,0.38801,1.5899,0.16942,-0.47459
0.0071749,0.080912,0.047457,-0.0075521,0.1439,0.98052,0.029631,0.52038,-0.04324,-2.5888,-0.035198,-0.6165,-0.082237,0.92066,-0.2818,1.2636,0.037699,1.2296,0.64139,0.39548,0.40228,1.5033,0.14558,-0.48577
0.0039871,0.082387,0.04984,-0.0012024,0.13662,0.89249,0.011143,0.49966,-0.022518,-2.5057,-0.065112,-0.42966,-0.056224,0.74646,-0.28448,1.0174,0.040224,1.3086,0.70252,0.39521,0.38218,1.3931,0.12645,-0.54062
0.0048054,0.073321,0.057631,0.0019821,0.12908,0.78177,0.003633,0.44567,-0.0092508,-2.3725,-0.078704,-0.25864,-0.03247,0.51577,-0.26618,0.73652,0.038927,1.3473,0.74417,0.3968,0.35228,1.2728,0.10818,-0.62515
0.0083732,0.056886,0.062234,0.0018369,0.12748,0.65935,0.01445,0.36509,-0.0033161,-2.2288,-0.074382,-0.097487,-0.016028,0.2725,-0.23534,0.43222,0.033305,1.3501,0.75822,0.38876,0.33579,1.1806,0.087875,-0.68542
0.011587,0.039273,0.056596,-0.0013804,0.1358,0.52867,0.042053,0.26473,-0.004017,-2.0805,-0.056712,0.067401,-0.0059153,0.045726,-0.20457,0.12343,0.025037,1.3267,0.74247,0.37184,0.33374,1.1575,0.06561,-0.6719
0.012499,0.026562,0.04122,-0.0062097,0.1537,0.39048,0.076506,0.15044,-0.01078,-1.8985,-0.0301,0.24674,0.0039748,-0.1433,-0.18373,-0.16013,0.017269,1.2907,0.70268,0.36301,0.32497,1.2221,0.042972,-0.58038
0.011689,0.021598,0.02417,-0.0098709,0.17711,0.25067,0.10586,0.030611,-0.023673,-1.6423,0.006265,0.4455,0.018921,-0.27218,-0.17465,-0.38402,0.012784,1.2585,0.65238,0.39017,0.28546,1.3586,0.020131,-0.45529
0.010898,0.02321,0.014884,-0.0092646,0.20087,0.12329,0.12322,-0.079902,-0.042492,-1.2899,0.057348,0.66881,0.038918,-0.32007,-0.1712,-0.5232,0.012348,1.2459,0.60899,0.47814,0.20902,1.5213,-0.0054566,-0.35193
0.010761,0.028211,0.016965,-0.0024924,0.22096,0.025537,0.12895,-0.16102,-0.064743,-0.85383,0.12567,0.92852,0.060634,-0.28233,-0.16439,-0.5758,0.014412,1.2608,0.58664,0.63231,0.11121,1.6513,-0.037149,-0.28668
0.010266,0.034298,0.025964,0.010161,0.23472,-0.031821,0.12719,-0.19588,-0.084862,-0.37798,0.20494,1.2407,0.083832,-0.18335,-0.14851,-0.56761,0.016352,1.2986,0.58977,0.83046,0.014258,1.6976,-0.075733,-0.21417
0.0084807,0.041257,0.03375,0.026365,0.23939,-0.05122,0.1205,-0.18155,-0.096749,0.080241,0.28011,1.6131,0.11523,-0.07222,-0.12396,-0.54391,0.016251,1.3441,0.61218,1.0296,-0.072917,1.6328,-0.118,-0.051474
0.0064366,0.049719,0.035316,0.04278,0.23128,-0.047254,0.10801,-0.13399,-0.098442,0.47155,0.33509,2.0333,0.16479,0.000804,-0.095686,-0.55231,0.013888,1.381,0.6426,1.1854,-0.16191,1.4548,-0.15919,0.26468
0.0067582,0.059129,0.032069,0.056343,0.20722,-0.039041,0.088078,-0.081938,-0.094505,0.77299,0.36333,2.4716,0.23688,0.011697,-0.069465,-0.62399,0.010319,1.4006,0.67228,1.2711,-0.27364,1.1707,-0.19767,0.72537
0.011053,0.067285,0.029174,0.065323,0.16755,-0.041722,0.062584,-0.053049,-0.092502,0.99809,0.37371,2.9014,0.32423,-0.02714,-0.049463,-0.76126,0.0066098,1.405,0.69813,1.2849,-0.41885,0.77265,-0.23758,1.2369
0.01768,0.071983,0.030046,0.069843,0.11824,-0.062263,0.038052,-0.061079,-0.095079,1.1943,0.38703,3.3205,0.41062,-0.082773,-0.038095,-0.93824,0.0029159,1.4005,0.71933,1.2428,-0.58613,0.23207,-0.28679,1.6575
0.022444,0.073002,0.033363,0.071666,0.069526,-0.10034,0.022144,-0.10241,-0.094313,1.424,0.42427,3.7496,0.48068,-0.13177,-0.036834,-1.1157,-0.001339,1.3896,0.73201,1.1654,-0.74606,-0.46911,-0.3508,1.8619
0.021936,0.072293,0.03512,0.073175,0.031271,-0.15139,0.018355,-0.16283,-0.074594,1.7333,0.49288,4.1994,0.52868,-0.18012,-0.046166,-1.2635,-0.0064749,1.3678,0.72896,1.0702,-0.86605,-1.2795,-0.42691,1.7962
0.016522,0.072145,0.033136,0.075894,0.0079686,-0.20892,0.023515,-0.22829,-0.023565,2.1235,0.57945,4.6281,0.55956,-0.25615,-0.064598,-1.3758,-0.011797,1.3291,0.70644,0.97245,-0.92387,-2.0372,-0.50224,1.4947
0.010168,0.073261,0.029224,0.079464,-0.0031788,-0.26612,0.030289,-0.29185,0.056966,2.5453,0.65381,4.9292,0.5818,-0.38212,-0.088126,-1.4685,-0.015865,1.2741,0.67198,0.88818,-0.91198,-2.4974,-0.5573,1.0541
0.0072201,0.074692,0.026847,0.081843,-0.0097048,-0.31813,0.032554,-0.3535,0.14938,2.9245,0.68357,4.9742,0.5989,-0.54834,-0.11127,-1.5593,-0.017637,1.214,0.64434,0.83217,-0.83475,-2.4373,-0.57347,0.58479
0.0090549,0.075449,0.026894,0.080669,-0.018753,-0.36491,0.029196,-0.41564,0.23005,3.2052,0.65162,4.693,0.60606,-0.71232,-0.12911,-1.6473,-0.017476,1.1678,0.64271,0.81129,-0.70608,-1.7844,-0.54185,0.16602
0.013443,0.075687,0.026201,0.074772,-0.033013,-0.41167,0.023438,-0.47886,0.28337,3.3826,0.56592,4.1367,0.5944,-0.8242,-0.13888,-1.7111,-0.017072,1.1555,0.67271,0.82047,-0.55046,-0.68145,-0.47023,-0.17402
0.016791,0.075852,0.020614,0.064758,-0.05026,-0.46448,0.018824,-0.54091,0.30924,3.4991,0.4552,3.4714,0.55863,-0.8566,-0.14018,-1.7279,-0.018187,1.1913,0.72091,0.84708,-0.40322,0.56404,-0.38407,-0.44961
0.016927,0.074643,0.0096772,0.052486,-0.066096,-0.52291,0.015801,-0.59753,0.3192,3.6095,0.35267,2.8965,0.50254,-0.81351,-0.13459,-1.6973,-0.021168,1.2804,0.76393,0.88035,-0.30256,1.6211,-0.31821,-0.68959
0.014106,0.06842,-0.0018626,0.04018,-0.077265,-0.57589,0.011985,-0.64359,0.32577,3.7395,0.2782,2.5397,0.43875,-0.71211,-0.12519,-1.6461,-0.024446,1.4172,0.78612,0.91651,-0.27321,2.2785,-0.30041,-0.90682
0.0099882,0.053647,-0.0075297,0.029962,-0.083105,-0.60593,0.005562,-0.6738,0.33439,3.872,0.2301,2.3971,0.38309,-0.55744,-0.11617,-1.6055,-0.025507,1.5846,0.79206,0.95431,-0.31111,2.5045,-0.33467,-1.0819
0.0061533,0.030808,-0.0045389,0.023751,-0.084788,-0.59996,-0.0017247,-0.68397,0.34344,3.965,0.19068,2.356,0.34653,-0.33738,-0.11153,-1.5777,-0.022664,1.7564,0.8037,0.98613,-0.38206,2.4021,-0.3962,-1.1728
0.0035549,0.0061634,0.0038326,0.022919,-0.083854,-0.55856,-0.0051334,-0.6728,0.34965,3.9837,0.13975,2.2779,0.3287,-0.046744,-0.11304,-1.5255,-0.016263,1.9047,0.84377,0.99512,-0.43852,2.1103,-0.44476,-1.1476
0.0027843,-0.01104,0.011059,0.02747,-0.081625,-0.49582,-0.00074563,-0.64284,0.35237,3.9159,0.066203,2.0784,0.31655,0.28003,-0.11879,-1.3979,-0.0083786,2.0108,0.91772,0.96367,-0.44512,1.7231,-0.44979,-1.0246
0.0041366,-0.014436,0.012699,0.035398,-0.079645,-0.42974,0.010843,-0.59925,0.35257,3.7626,-0.028451,1.7554,0.28994,0.56116,-0.12398,-1.178,-0.001241,2.0733,1.0075,0.88617,-0.39603,1.2676,-0.4101,-0.88745
0.0070955,-0.0050509,0.0094651,0.04319,-0.080066,-0.37151,0.024254,-0.54698,0.3492,3.5192,-0.13349,1.3595,0.23214,0.7005,-0.12369,-0.91256,0.0043611,2.1061,1.0813,0.7737,-0.31286,0.72983,-0.35289,-0.85899
0.010027,0.0092489,0.0056558,0.047601,-0.085113,-0.32281,0.032676,-0.48926,0.33789,3.1734,-0.23408,0.94395,0.13953,0.64265,-0.11559,-0.69534,0.0094594,2.1286,1.1126,0.64519,-0.22638,0.093099,-0.31252,-1.0373
0.010975,0.019182,0.0049119,0.047597,-0.095883,-0.28222,0.032001,-0.42883,0.31397,2.7277,-0.31522,0.53687,0.023975,0.41006,-0.10024,-0.61008,0.015819,2.1523,1.0937,0.51291,-0.15642,-0.63337,-0.30572,-1.433
0.0092364,0.020322,0.0073663,0.045009,-0.11159,-0.25288,0.02272,-0.37018,0.27718,2.2238,-0.36534,0.14844,-0.094175,0.093224,-0.079187,-0.67272,0.024289,2.1743,1.037,0.3769,-0.1042,-1.399,-0.32291,-1.9514
0.0062089,0.0156,0.01035,0.043316,-0.12993,-0.2423,0.0089264,-0.31935,0.23308,1.7438,-0.38146,-0.20485,-0.1976,-0.19891,-0.053154,-0.81599,0.03385,2.1819,0.9623,0.2349,-0.059788,-2.108,-0.34094,-2.436
0.0043896,0.012417,0.011246,0.045386,-0.14825,-0.25339,-0.0039039,-0.27962,0.18995,1.3741,-0.37319,-0.4884,-0.27948,-0.39101,-0.022288,-0.92812,0.041999,2.1637,0.88219,0.098261,-0.01573,-2.6358,-0.34433,-2.748
0.0051191,0.016844,0.0094315,0.051749,-0.16437,-0.27584,-0.010622,-0.24682,0.15358,1.1547,-0.36076,-0.66252,-0.34197,-0.46,0.012088,-0.91775,0.046051,2.1177,0.79586,-0.0036534,0.025044,-2.8746,-0.33559,-2.8288
0.0070863,0.029283,0.0058342,0.060483,-0.17639,-0.28794,-0.007485,-0.20965,0.12423,1.051,-0.36447,-0.70838,-0.38849,-0.41516,0.046822,-0.75975,0.044402,2.0521,0.69531,-0.039916,0.052394,-2.794,-0.32703,-2.7055
0.0071566,0.044565,0.0013486,0.068632,-0.18156,-0.26973,0.0065667,-0.1572,0.097204,0.97116,-0.39117,-0.64401,-0.41792,-0.26774,0.078686,-0.49454,0.037053,1.978,0.57848,-0.0048776,0.058515,-2.4738,-0.32378,-2.4436
0.0030366,0.055991,-0.0037291,0.074061,-0.17547,-0.21737,0.028518,-0.08838,0.065978,0.82235,-0.42814,-0.51624,-0.42597,-0.022998,0.10671,-0.19024,0.025408,1.902,0.45758,0.067966,0.04486,-2.074,-0.3155,-2.0918
-0.004474,0.06,-0.0087775,0.07653,-0.15268,-0.14622,0.051335,-0.015014,0.025683,0.56861,-0.45095,-0.37333,-0.41164,0.29823,0.13187,0.09832,0.011817,1.8247,0.3554,0.12155,0.020862,-1.7475,-0.28463,-1.6627
-0.011679,0.058067,-0.012044,0.077374,-0.10942,-0.079664,0.066752,0.045278,-0.024136,0.25526,-0.44112,-0.23657,-0.3816,0.63454,0.15333,0.34454,-0.00078666,1.7464,0.29232,0.11353,-0.0037649,-1.5544,-0.22284,-1.1622
-0.014602,0.05477,-0.011583,0.078156,-0.04708,-0.033155,0.06973,0.081387,-0.077888,-0.015136,-0.40043,-0.089132,-0.34785,0.88926,0.16478,0.53679,-0.0092705,1.674,0.27436,0.049844,-0.026621,-1.4421,-0.13986,-0.63324
-0.011911,0.053916,-0.0074776,0.079284,0.025796,-0.0064954,0.061313,0.096049,-0.1244,-0.1387,-0.35022,0.11059,-0.32079,0.97436,0.15559,0.65867,-0.010997,1.6211,0.29141,-0.013431,-0.054256,-1.31,-0.05694,-0.17108
-0.0058157,0.05575,-0.003011,0.079556,0.095211,0.010476,0.047311,0.10207,-0.1508,-0.065261,-0.31575,0.3986,-0.3043,0.86453,0.11795,0.68564,-0.0048538,1.6016,0.32566,-0.0038624,-0.096713,-1.105,0.0085542,0.11043
-0.00031625,0.057054,-0.0031011,0.07687,0.14721,0.026018,0.033586,0.11105,-0.14929,0.17611,-0.30766,0.77485,-0.29645,0.61817,0.055036,0.60181,0.0079264,1.6185,0.36179,0.12145,-0.15867,-0.86726,0.053288,0.14048
0.001652,0.053624,-0.010862,0.06957,0.17444,0.040133,0.021836,0.12447,-0.12312,0.49034,-0.31508,1.1906,-0.29385,0.3442,-0.016947,0.42053,0.023934,1.6586,0.39008,0.351,-0.23306,-0.68972,0.085181,-0.064439
-7.1178e-005,0.043156,-0.025124,0.057569,0.17964,0.048666,0.009424,0.1346,-0.086331,0.7571,-0.31501,1.5624,-0.29444,0.13467,-0.076033,0.1894,0.039044,1.6966,0.40191,0.63122,-0.30154,-0.62598,0.11248,-0.40458
-0.0033936,0.026899,-0.040987,0.04271,0.17325,0.051861,-0.0068199,0.13313,-0.055652,0.87744,-0.28969,1.8077,-0.29648,0.010436,-0.10676,-0.026064,0.050515,1.706,0.38527,0.90273,-0.34233,-0.63016,0.13604,-0.74426
-0.0059465,0.0095956,-0.052769,0.028416,0.16646,0.05731,-0.02646,0.11904,-0.038857,0.806,-0.23788,1.881,-0.29634,-0.082249,-0.10886,-0.16839,0.058338,1.6692,0.3276,1.1305,-0.34117,-0.58252,0.15144,-0.9684
-0.0067654,-0.0019267,-0.056837,0.018823,0.16415,0.073722,-0.044803,0.098976,-0.028439,0.55863,-0.17262,1.7917,-0.28883,-0.22333,-0.096232,-0.20686,0.064725,1.5803,0.22545,1.3067,-0.29875,-0.38274,0.15708,-1.0154
-0.006489,-0.0011952,-0.052435,0.017457,0.16269,0.10208,-0.056249,0.081063,-0.0064815,0.19724,-0.10952,1.5926,-0.2703,-0.4543,-0.087076,-0.13986,0.071974,1.4408,0.091898,1.4307,-0.22951,-0.036107,0.1589,-0.87885
-0.0062717,0.014826,-0.0409,0.025492,0.15411,0.13401,-0.058581,0.069092,0.041702,-0.19706,-0.05678,1.3494,-0.24068,-0.74224,-0.09251,0.015687,0.08031,1.2534,-0.046812,1.4899,-0.15223,0.33601,0.16665,-0.59407
-0.0065792,0.043142,-0.024914,0.040272,0.13342,0.15991,-0.054593,0.062322,0.11503,-0.54939,-0.014079,1.1133,-0.20163,-0.99543,-0.11126,0.23808,0.087526,1.0217,-0.16561,1.4609,-0.078688,0.56987,0.18524,-0.22673
-0.0069187,0.074547,-0.008477,0.055432,0.10351,0.17897,-0.050009,0.059644,0.19485,-0.80594,0.021342,0.91386,-0.15238,-1.118,-0.1332,0.50992,0.0908,0.75285,-0.25597,1.3289,-0.0081067,0.56354,0.2097,0.13717
-0.0066169,0.09719,0.0034611,0.063592,0.073676,0.20042,-0.049742,0.062296,0.25542,-0.93773,0.049219,0.76832,-0.08816,-1.0667,-0.14832,0.82039,0.089144,0.46018,-0.33067,1.1046,0.068721,0.34076,0.22881,0.41349
-0.0058213,0.10272,0.0069174,0.060682,0.052647,0.23321,-0.055313,0.071577,0.27889,-0.93899,0.066602,0.69258,-0.0041594,-0.87493,-0.1544,1.1619,0.084211,0.15986,-0.41367,0.82274,0.15924,0.036749,0.23409,0.5571
-0.0057039,0.09126,0.0016312,0.048952,0.04151,0.27354,-0.064606,0.084266,0.26413,-0.82572,0.072147,0.69628,0.098046,-0.63024,-0.15856,1.5228,0.078613,-0.13626,-0.5221,0.522,0.26073,-0.17869,0.22658,0.59165
-0.0075284,0.071367,-0.0078842,0.035694,0.032068,0.30269,-0.073222,0.091732,0.22415,-0.63481,0.068439,0.76554,0.20795,-0.42523,-0.1723,1.8776,0.073306,-0.42479,-0.65305,0.22614,0.35965,-0.19118,0.21568,0.59952
-0.011292,0.054308,-0.014839,0.027753,0.012306,0.29928,-0.076243,0.085337,0.17595,-0.41906,0.059311,0.85272,0.31119,-0.31265,-0.20378,2.1799,0.066725,-0.70701,-0.78431,-0.058196,0.43859,0.004715,0.21157,0.66378
-0.015205,0.046544,-0.014961,0.025714,-0.024835,0.25629,-0.07006,0.063792,0.13094,-0.23429,0.045305,0.89096,0.39922,-0.29103,-0.25236,2.364,0.056867,-0.9797,-0.88823,-0.32806,0.48479,0.31225,0.21745,0.79775
-0.01675,0.045976,-0.0097573,0.02284,-0.07582,0.18774,-0.054272,0.035015,0.091973,-0.12096,0.023152,0.8304,0.47618,-0.32051,-0.30804,2.3639,0.044616,-1.2295,-0.94868,-0.5704,0.4945,0.59039,0.22758,0.91987
-0.014677,0.044856,-0.0051747,0.010366,-0.1281,0.11808,-0.032955,0.0094404,0.056614,-0.088416,-0.0087686,0.67143,0.55764,-0.34703,-0.35504,2.1453,0.034993,-1.4379,-0.96944,-0.76156,0.47177,0.72923,0.23169,0.90446
-0.010293,0.036853,-0.0064397,-0.014727,-0.16758,0.062797,-0.013824,-0.0099909,0.022024,-0.11031,-0.0437,0.4679,0.66224,-0.31271,-0.37705,1.7379,0.034581,-1.5943,-0.96876,-0.87919,0.42453,0.7026,0.22205,0.67878
-0.0066822,0.022362,-0.013342,-0.046062,-0.18655,0.016644,-0.0047109,-0.031802,-0.012545,-0.13484,-0.065773,0.29424,0.8022,-0.15143,-0.36221,1.2434,0.046858,-1.7072,-0.96498,-0.91481,0.36186,0.57035,0.19805,0.2932
-0.0062444,0.007701,-0.020076,-0.0719,-0.18688,-0.03952,-0.0091166,-0.069065,-0.046185,-0.10685,-0.058059,0.19838,0.97876,0.20875,-0.30741,0.80526,0.069345,-1.8013,-0.96414,-0.87692,0.29309,0.43223,0.16618,-0.093794
-0.0085387,-0.00087463,-0.019866,-0.083868,-0.17737,-0.11869,-0.024149,-0.1264,-0.07767,0.005248,-0.014446,0.17256,1.1837,0.8158,-0.22137,0.54943,0.095072,-1.903,-0.95803,-0.78577,0.22699,0.36448,0.1362,-0.3098
-0.010449,-0.0029009,-0.01045,-0.083131,-0.16836,-0.21113,-0.042844,-0.19182,-0.10595,0.18802,0.053654,0.16062,1.4038,1.6442,-0.12472,0.52609,0.11704,-2.0225,-0.93315,-0.66756,0.1695,0.38077,0.1164,-0.27348
-0.0087659,-0.004053,0.0042065,-0.078819,-0.16742,-0.28566,-0.059319,-0.241,-0.12985,0.37779,0.12137,0.093078,1.6235,2.5633,-0.044357,0.68926,0.13184,-2.1492,-0.8827,-0.55212,0.12132,0.44054,0.11009,-0.034454
-0.0030689,-0.010806,0.01725,-0.080153,-0.17778,-0.30853,-0.072507,-0.25164,-0.14801,0.4804,0.16298,-0.075165,1.8254,3.3614,-0.0022754,0.92747,0.13957,-2.2626,-0.81273,-0.4708,0.077771,0.49278,0.11447,0.27531
0.0036623,-0.024146,0.024293,-0.089065,-0.19838,-0.26551,-0.08523,-0.21719,-0.15953,0.41384,0.16503,-0.34587,1.989,3.8276,-0.0040523,1.1261,0.14112,-2.3504,-0.73911,-0.449,0.031801,0.51795,0.12189,0.53427
0.0073738,-0.037913,0.026252,-0.099396,-0.22421,-0.17079,-0.099462,-0.14997,-0.16473,0.15629,0.13242,-0.6814,2.0934,3.8457,-0.034726,1.2212,0.13599,-2.4174,-0.67899,-0.495,-0.021731,0.53501,0.12314,0.69617
0.0062364,-0.043317,0.027622,-0.10287,-0.24735,-0.057406,-0.11217,-0.072654,-0.16515,-0.22825,0.08504,-1.0221,2.1238,3.442,-0.066561,1.2135,0.12304,-2.4783,-0.64321,-0.5931,-0.083775,0.57112,0.11172,0.7858
0.0020248,-0.035937,0.032128,-0.096376,-0.2597,0.04181,-0.11577,-0.0057559,-0.16285,-0.6081,0.048365,-1.3066,2.0797,2.7581,-0.074851,1.142,0.10313,-2.5391,-0.63343,-0.70894,-0.15193,0.62242,0.087523,0.84348
-0.0015821,-0.019488,0.039667,-0.08446,-0.25726,0.10806,-0.10317,0.039513,-0.15962,-0.84219,0.043241,-1.4903,1.9777,1.9734,-0.051382,1.0445,0.080208,-2.5861,-0.64334,-0.80527,-0.2226,0.64097,0.057701,0.87258
-0.0021192,-0.0035127,0.046848,-0.075461,-0.2428,0.13736,-0.073333,0.05999,-0.15651,-0.84777,0.079179,-1.5597,1.8448,1.2328,-0.0063387,0.93652,0.059378,-2.5928,-0.66181,-0.85907,-0.29188,0.56118,0.033893,0.83326
2.3522e-005,0.0029463,0.050184,-0.075026,-0.22404,0.13258,-0.032717,0.055658,-0.15335,-0.63705,0.15282,-1.5358,1.704,0.62008,0.041871,0.81933,0.043245,-2.5431,-0.67711,-0.87035,-0.35429,0.34809,0.026688,0.68181
0.0027852,-0.0033071,0.048861,-0.082409,-0.20758,0.097114,0.0081565,0.027848,-0.14826,-0.3014,0.25111,-1.4621,1.5615,0.17643,0.080294,0.70119,0.030063,-2.451,-0.68245,-0.85991,-0.4014,0.033939,0.04021,0.41896
0.0049749,-0.018962,0.044882,-0.092098,-0.19334,0.036453,0.040179,-0.017545,-0.13739,0.044139,0.35719,-1.3796,1.4055,-0.071526,0.10813,0.60763,0.015481,-2.3625,-0.68151,-0.85972,-0.42264,-0.28272,0.069884,0.10818
0.0074332,-0.037886,0.040896,-0.098801,-0.1745,-0.035853,0.059077,-0.066346,-0.11573,0.31793,0.45597,-1.3055,1.2181,-0.1068,0.13269,0.56964,-0.003586,-2.333,-0.6902,-0.90136,-0.40909,-0.47695,0.10461,-0.14869
0.01163,-0.055556,0.03793,-0.1014,-0.14388,-0.096808,0.065313,-0.097862,-0.07904,0.49598,0.53698,-1.2341,0.99296,0.056333,0.15998,0.60046,-0.026283,-2.3987,-0.73092,-1.0058,-0.35818,-0.45702,0.13176,-0.26131
0.017302,-0.07069,0.03497,-0.10283,-0.10122,-0.12198,0.06205,-0.093265,-0.025661,0.59678,0.594,-1.1589,0.74362,0.35018,0.18868,0.68163,-0.048385,-2.5595,-0.82028,-1.1762,-0.27656,-0.21476,0.14188,-0.19698
0.021847,-0.083451,0.030519,-0.10641,-0.055095,-0.098478,0.05347,-0.045306,0.042966,0.64933,0.62377,-1.0951,0.49604,0.66008,0.21209,0.76924,-0.065217,-2.7835,-0.9573,-1.3957,-0.17929,0.15866,0.13056,-0.00020893
0.022432,-0.092677,0.02456,-0.11191,-0.0171,-0.032874,0.044013,0.037829,0.12342,0.67381,0.62624,-1.077,0.27039,0.86612,0.22475,0.81419,-0.07427,-3.0266,-1.1205,-1.6342,-0.085394,0.50423,0.097804,0.22349
0.018866,-0.095124,0.019237,-0.11477,0.0068357,0.052851,0.037418,0.13747,0.2118,0.6855,0.60669,-1.126,0.066947,0.89782,0.22692,0.78102,-0.075741,-3.2517,-1.2774,-1.8607,-0.011262,0.66768,0.046739,0.35537
0.014279,-0.08758,0.017734,-0.10909,0.020631,0.13455,0.034977,0.23439,0.30405,0.70782,0.57659,-1.2151,-0.13176,0.76741,0.22327,0.6556,-0.071353,-3.4363,-1.4006,-2.0588,0.035649,0.58329,-0.016407,0.32579
0.012624,-0.069942,0.022201,-0.092158,0.034369,0.19855,0.034313,0.31675,0.39492,0.77195,0.55028,-1.2659,-0.3441,0.55945,0.218,0.4438,-0.063088,-3.5723,-1.48,-2.234,0.059979,0.3238,-0.081807,0.16184
0.01516,-0.046444,0.032157,-0.066752,0.056149,0.24484,0.030683,0.38136,0.47698,0.8965,0.53772,-1.19,-0.57155,0.38148,0.21154,0.16843,-0.05281,-3.6611,-1.524,-2.4098,0.076286,0.078282,-0.13731,-0.012005
0.019214,-0.023931,0.044325,-0.039703,0.086424,0.28004,0.020887,0.42953,0.5418,1.064,0.53816,-0.94874,-0.79415,0.30507,0.20185,-0.13291,-0.042405,-3.71,-1.5477,-2.6122,0.10148,0.057078,-0.17282,-0.032685
0.020475,-0.0084766,0.053975,-0.017749,0.11894,0.30742,0.0069424,0.46244,0.58356,1.2194,0.54006,-0.58506,-0.98218,0.33182,0.1887,-0.41306,-0.033555,-3.7267,-1.5602,-2.8545,0.14514,0.37156,-0.18578,0.20775
0.016818,-0.0028143,0.057068,-0.0038973,0.14638,0.32256,-0.0040201,0.4799,0.60284,1.2996,0.52824,-0.20028,-1.1137,0.4037,0.17631,-0.62751,-0.027076,-3.7143,-1.5593,-3.13,0.20332,0.96152,-0.18335,0.68967
0.010217,-0.0060079,0.05217,0.0033129,0.16534,0.31755,-0.004376,0.48257,0.60715,1.2759,0.49384,0.10821,-1.1843,0.44823,0.17194,-0.7496,-0.02268,-3.6693,-1.5381,-3.4198,0.26007,1.6193,-0.17825,1.2655
0.005071,-0.014937,0.041163,0.0076596,0.17678,0.28878,0.0081206,0.47374,0.60701,1.1797,0.44009,0.30321,-1.2038,0.427,0.18117,-0.7792,-0.019793,-3.5889,-1.4967,-3.708,0.29619,2.0982,-0.18028,1.737
0.0045335,-0.026115,0.028354,0.012303,0.18308,0.2411,0.028035,0.45799,0.60943,1.0896,0.38035,0.41856,-1.1855,0.35427,0.2037,-0.73824,-0.018859,-3.4807,-1.4491,-3.9942,0.30001,2.2362,-0.18947,1.9614
0.0081174,-0.036739,0.018369,0.018255,0.18549,0.18497,0.045635,0.43749,0.61338,1.09,0.32998,0.52188,-1.1397,0.27497,0.23259,-0.65641,-0.021729,-3.3671,-1.4171,-4.2929,0.27322,2.0207,-0.19657,1.916
0.012497,-0.044936,0.013955,0.024887,0.18416,0.12972,0.053324,0.40975,0.61075,1.2251,0.29752,0.66137,-1.0742,0.22176,0.25735,-0.55787,-0.030424,-3.276,-1.4157,-4.6178,0.22869,1.5637,-0.19101,1.684
0.014505,-0.049686,0.014913,0.031407,0.1796,0.079262,0.049929,0.36971,0.59225,1.4787,0.28013,0.83488,-0.99807,0.18654,0.26892,-0.45739,-0.045199,-3.2239,-1.4425,-4.9636,0.18255,1.0218,-0.17013,1.3839
0.013532,-0.050742,0.018686,0.037795,0.17304,0.033011,0.039605,0.31459,0.55424,1.784,0.26509,0.9967,-0.92314,0.12929,0.2635,-0.36503,-0.063749,-3.2056,-1.4789,-5.2994,0.14625,0.52127,-0.14251,1.0992
0.011381,-0.048411,0.022031,0.04452,0.16464,-0.010864,0.026924,0.24686,0.50185,2.0535,0.23634,1.0886,-0.86034,0.015932,0.24357,-0.29129,-0.08252,-3.201,-1.5035,-5.5788,0.12317,0.12914,-0.12243,0.85743
0.010078,-0.043114,0.022607,0.051546,0.15215,-0.054871,0.012944,0.17157,0.44661,2.2109,0.18295,1.0708,-0.81503,-0.14763,0.21601,-0.24598,-0.099134,-3.1934,-1.5073,-5.7621,0.11027,-0.133,-0.1201,0.65491
0.0098633,-0.034967,0.019576,0.057727,0.13244,-0.10559,-0.0041474,0.090233,0.40082,2.2127,0.10627,0.93785,-0.7865,-0.31506,0.18893,-0.23237,-0.1138,-3.1828,-1.4967,-5.8333,0.10198,-0.26546,-0.13501,0.49146
0.0091031,-0.023823,0.013304,0.061234,0.10526,-0.17635,-0.024849,-0.0027348,0.37208,2.0589,0.02188,0.71972,-0.77191,-0.43421,0.16887,-0.24371,-0.12844,-3.1823,-1.4853,-5.8015,0.093212,-0.28178,-0.15705,0.37713
0.0059706,-0.0098717,0.0048285,0.060782,0.075676,-0.28311,-0.045099,-0.116,0.36067,1.7924,-0.0459,0.47344,-0.77064,-0.48885,0.15951,-0.26763,-0.14435,-3.2025,-1.4802,-5.6856,0.080307,-0.2136,-0.17377,0.31132
0.00022407,0.0056339,-0.0043416,0.05671,0.051798,-0.43289,-0.057608,-0.25127,0.35997,1.4851,-0.075581,0.26669,-0.78499,-0.51313,0.16161,-0.29583,-0.16067,-3.2391,-1.4766,-5.4958,0.06096,-0.11034,-0.1775,0.26409
-0.0064477,0.020231,-0.012281,0.051008,0.039002,-0.61237,-0.056873,-0.39523,0.35897,1.2105,-0.060508,0.15257,-0.81698,-0.56703,0.17352,-0.33057,-0.17486,-3.2749,-1.4629,-5.2266,0.034568,-0.023089,-0.16759,0.18726
-0.011626,0.031028,-0.017072,0.046189,0.035488,-0.7869,-0.043256,-0.52115,0.34653,1.0096,-0.013434,0.14291,-0.86432,-0.6925,0.19153,-0.38148,-0.18483,-3.2912,-1.4308,-4.865,0.003412,0.01835,-0.14747,0.051161
-0.013746,0.03612,-0.01768,0.043838,0.033678,-0.91368,-0.022219,-0.60092,0.31669,0.86964,0.040472,0.19724,-0.91855,-0.88491,0.21057,-0.45492,-0.19051,-3.2765,-1.3807,-4.4082,-0.026309,0.016525,-0.12042,-0.12581
-0.012823,0.035774,-0.014666,0.043976,0.026902,-0.96246,0.00061284,-0.61981,0.27317,0.73219,0.078573,0.24174,-0.96584,-1.1009,0.2254,-0.54512,-0.19355,-3.2252,-1.3179,-3.877,-0.045136,-0.003976,-0.087816,-0.28502
-0.010001,0.032495,-0.0099372,0.045712,0.015862,-0.93039,0.023761,-0.58378,0.22971,0.53091,0.093628,0.21248,-0.98968,-1.2944,0.23219,-0.63575,-0.19561,-3.1331,-1.2466,-3.3137,-0.043476,-0.019749,-0.05063,-0.37118
-0.0066123,0.029654,-0.0055557,0.048499,0.0091074,-0.84147,0.049351,-0.51468,0.20384,0.23811,0.095369,0.095813,-0.97465,-1.4505,0.22919,-0.71166,-0.197,-2.9969,-1.1667,-2.7667,-0.016395,-0.027412,-0.011839,-0.378
-0.0035866,0.029284,-0.0025026,0.05271,0.016548,-0.732,0.078217,-0.43751,0.20604,-0.11142,0.099889,-0.064153,-0.91126,-1.5901,0.21579,-0.77151,-0.19685,-2.8212,-1.0777,-2.268,0.032253,-0.046809,0.023042,-0.35845
-0.0015144,0.030406,-0.00046166,0.058863,0.040828,-0.63256,0.10565,-0.3688,0.23058,-0.43843,0.11551,-0.19796,-0.80113,-1.7427,0.19051,-0.83041,-0.19436,-2.6212,-0.98155,-1.8182,0.089185,-0.10981,0.048091,-0.39034
-0.00096885,0.029241,0.0012643,0.066156,0.073295,-0.55756,0.12255,-0.31273,0.25498,-0.66956,0.13635,-0.25908,-0.65934,-1.9105,0.14993,-0.90933,-0.18948,-2.4132,-0.88075,-1.3869,0.13604,-0.24297,0.060136,-0.52289
-0.0025237,0.021518,0.0026613,0.071816,0.097954,-0.50594,0.12178,-0.2647,0.24998,-0.78677,0.1481,-0.25134,-0.51094,-2.0537,0.090011,-1.0187,-0.18226,-2.1988,-0.77225,-0.9298,0.15738,-0.45134,0.060412,-0.74316
-0.0062845,0.005604,0.0028469,0.072222,0.10104,-0.46828,0.10447,-0.21719,0.19427,-0.84063,0.14021,-0.21609,-0.38156,-2.1129,0.0095304,-1.1485,-0.17171,-1.9572,-0.6448,-0.4138,0.14825,-0.70785,0.053365,-0.98362
-0.011314,-0.015731,0.00099668,0.065302,0.079933,-0.43362,0.080429,-0.16379,0.084674,-0.91632,0.11363,-0.19249,-0.28683,-2.0521,-0.08666,-1.2718,-0.15568,-1.6588,-0.48541,0.16209,0.11657,-0.95353,0.043399,-1.1611
-0.015603,-0.036348,-0.0026051,0.052474,0.045683,-0.39315,0.061658,-0.1011,-0.064348,-1.0742,0.078476,-0.1844,-0.22695,-1.8911,-0.18667,-1.3593,-0.13238,-1.2923,-0.29156,0.76207,0.078511,-1.1137,0.031943,-1.2185
-0.01693,-0.049989,-0.0064617,0.038524,0.017448,-0.34287,0.053842,-0.031047,-0.23016,-1.3052,0.04478,-0.15898,-0.18993,-1.7004,-0.27362,-1.3955,-0.10239,-0.88381,-0.078637,1.3275,0.049513,-1.1295,0.017002,-1.1454
-0.014262,-0.053456,-0.0087951,0.029231,0.012191,-0.28677,0.052494,0.036304,-0.39268,-1.5334,0.015719,-0.074296,-0.16097,-1.5605,-0.33005,-1.3853,-0.06906,-0.48956,0.1258,1.8029,0.036596,-0.99006,-0.0044754,-0.9739
-0.0087126,-0.047522,-0.0085662,0.02814,0.035704,-0.23838,0.046867,0.082992,-0.53909,-1.6636,-0.01113,0.088584,-0.13144,-1.5128,-0.3433,-1.3498,-0.036805,-0.16417,0.29852,2.1594,0.036702,-0.7442,-0.033219,-0.75955
-0.0031485,-0.035375,-0.0056557,0.034501,0.080099,-0.21578,0.028547,0.090146,-0.66135,-1.6446,-0.036979,0.31233,-0.10196,-1.5381,-0.31058,-1.3125,-0.0084158,0.073284,0.43545,2.4064,0.041275,-0.4791,-0.065769,-0.55994
-0.00046552,-0.020512,-0.00029137,0.04362,0.12881,-0.23007,-0.0018289,0.050027,-0.75159,-1.5044,-0.057419,0.55341,-0.079076,-1.5752,-0.2414,-1.285,0.016206,0.25081,0.55287,2.5841,0.042959,-0.27618,-0.095329,-0.41554
-0.0016413,-0.0061028,0.007352,0.049361,0.16556,-0.27461,-0.034555,-0.025107,-0.80157,-1.3356,-0.065648,0.76248,-0.069252,-1.5646,-0.15523,-1.2572,0.038885,0.42504,0.67366,2.7442,0.039507,-0.17378,-0.11439,-0.33547
-0.0050509,0.0042015,0.01676,0.047259,0.18167,-0.32532,-0.057068,-0.10599,-0.80758,-1.2406,-0.060635,0.90049,-0.075013,-1.4832,-0.073641,-1.2009,0.060654,0.64682,0.81004,2.9291,0.033121,-0.16185,-0.11722,-0.29389
-0.0076481,0.0060965,0.026387,0.036522,0.17786,-0.35479,-0.061426,-0.16181,-0.77608,-1.2719,-0.051924,0.94633,-0.094742,-1.3492,-0.01069,-1.0855,0.080149,0.93434,0.95617,3.1559,0.027371,-0.20803,-0.10108,-0.24427
-0.0071583,-0.003172,0.033769,0.019996,0.16093,-0.35062,-0.047756,-0.17809,-0.72368,-1.4061,-0.054947,0.89996,-0.12455,-1.1989,0.032361,-0.90159,0.094282,1.2689,1.0958,3.413,0.025008,-0.28958,-0.067007,-0.1493
-0.0036239,-0.021296,0.036809,0.0024639,0.13894,-0.3224,-0.022082,-0.16309,-0.66913,-1.5649,-0.07905,0.78296,-0.1595,-1.0595,0.063872,-0.67653,0.10042,1.6114,1.2165,3.6649,0.027849,-0.40292,-0.020666,-0.009232
0.00080138,-0.039545,0.035291,-0.011496,0.11818,-0.29012,0.0086735,-0.13757,-0.62213,-1.666,-0.11771,0.63267,-0.19326,-0.93565,0.092643,-0.4678,0.098082,1.9248,1.3187,3.8659,0.037202,-0.54634,0.027225,0.13395
0.0035004,-0.046078,0.031181,-0.018849,0.10296,-0.26337,0.040147,-0.11634,-0.57765,-1.6708,-0.14988,0.48697,-0.21758,-0.81368,0.12047,-0.33169,0.08877,2.1901,1.4113,3.9753,0.053011,-0.69721,0.062976,0.22448
0.0031456,-0.032571,0.027305,-0.018206,0.096144,-0.23061,0.070262,-0.097655,-0.52085,-1.5987,-0.15299,0.36646,-0.22364,-0.67187,0.14291,-0.28487,0.074641,2.4084,1.5023,3.9724,0.072135,-0.81044,0.075354,0.23499
0.00035915,0.00059647,0.025506,-0.0093107,0.098753,-0.16966,0.096748,-0.069639,-0.43981,-1.5069,-0.11833,0.26706,-0.20552,-0.48659,0.15699,-0.28683,0.057542,2.5957,1.5932,3.8644,0.08824,-0.84341,0.061961,0.18989
-0.0029096,0.044543,0.02581,0.0070783,0.10872,-0.071466,0.11583,-0.027297,-0.33697,-1.4524,-0.057096,0.17019,-0.16386,-0.23771,0.16773,-0.26103,0.039375,2.7738,1.6843,3.6849,0.094881,-0.78647,0.032016,0.14942
-0.0045941,0.087131,0.027095,0.028424,0.12071,0.04476,0.124,0.016403,-0.23009,-1.4643,0.0076557,0.062869,-0.1067,0.07889,0.18591,-0.14543,0.022902,2.9617,1.783,3.4802,0.090186,-0.67174,0.0025127,0.16482
-0.0034965,0.11887,0.028324,0.049568,0.12834,0.14059,0.12145,0.037004,-0.14179,-1.5376,0.056866,-0.048929,-0.046181,0.43272,0.21793,0.060867,0.01143,3.167,1.9046,3.2916,0.079234,-0.55185,-0.010461,0.23983
0.00028746,0.13522,0.029064,0.06327,0.12778,0.18563,0.11382,0.017887,-0.085271,-1.6419,0.08677,-0.14328,0.0071412,0.74999,0.25683,0.28857,0.0069546,3.3798,2.0586,3.1388,0.07147,-0.46618,0.00034513,0.32901
0.0054243,0.13505,0.029011,0.062912,0.12012,0.17984,0.10993,-0.034728,-0.057033,-1.7337,0.10768,-0.19598,0.048823,0.93173,0.2837,0.43458,0.0082689,3.5742,2.2322,3.0162,0.074553,-0.42146,0.03124,0.37324
0.0097731,0.1184,0.027362,0.046244,0.1102,0.15124,0.11677,-0.095092,-0.041993,-1.7651,0.13284,-0.19131,0.08062,0.8972,0.27978,0.4189,0.011122,3.7183,2.3839,2.9016,0.089291,-0.39867,0.071775,0.34303
0.01121,0.086942,0.02296,0.017655,0.10282,0.13125,0.13521,-0.13718,-0.026482,-1.6949,0.16759,-0.12354,0.10651,0.62744,0.24014,0.22334,0.010899,3.7908,2.4609,2.7719,0.10955,-0.37536,0.11119,0.25601
0.0087146,0.046383,0.015221,-0.013085,0.099046,0.12946,0.1594,-0.15315,-0.0087352,-1.5069,0.20766,0.0048258,0.12809,0.17812,0.17777,-0.11122,0.0059304,3.7912,2.4285,2.6148,0.12697,-0.34216,0.14245,0.15886
0.0031696,0.0076522,0.0048873,-0.035256,0.095828,0.12983,0.18027,-0.15532,0.0012322,-1.2279,0.24631,0.17982,0.14314,-0.34849,0.11472,-0.5203,-0.001339,3.7373,2.2937,2.4308,0.13645,-0.30212,0.16251,0.092735
-0.0028376,-0.016124,-0.0062006,-0.042123,0.089189,0.10991,0.1903,-0.16095,-0.0083123,-0.92701,0.28239,0.37035,0.14808,-0.85187,0.067249,-0.95342,-0.006417,3.6505,2.1031,2.2264,0.13822,-0.25957,0.17079,0.070946
-0.006383,-0.015811,-0.016265,-0.033393,0.078215,0.064236,0.18664,-0.17499,-0.03937,-0.68452,0.32118,0.53246,0.14143,-1.2681,0.036363,-1.387,-0.0064583,3.541,1.9163,2.0089,0.13555,-0.21345,0.16845,0.08202
-0.005974,0.0084842,-0.024759,-0.014232,0.066193,0.010101,0.17125,-0.18669,-0.080606,-0.54443,0.36719,0.62958,0.12452,-1.5716,0.0099921,-1.8093,-0.0025653,3.4071,1.7724,1.788,0.13117,-0.16227,0.15877,0.10779
-0.002438,0.046809,-0.032611,0.0076928,0.057662,-0.028667,0.14875,-0.18294,-0.11416,-0.48294,0.41588,0.65712,0.098695,-1.7547,-0.02605,-2.1966,0.0011154,3.2492,1.6741,1.5823,0.12566,-0.11362,0.14684,0.13699
0.0017774,0.083793,-0.041348,0.024941,0.05388,-0.043795,0.12382,-0.16502,-0.12712,-0.4221,0.45248,0.64834,0.06234,-1.8105,-0.077084,-2.5047,0.00062439,3.0845,1.5975,1.4214,0.11899,-0.085828,0.13758,0.16494
0.0043478,0.10529,-0.05171,0.031886,0.050962,-0.049505,0.099541,-0.15232,-0.11889,-0.28559,0.46037,0.65054,0.011438,-1.7358,-0.13598,-2.6829,-0.0049438,2.9472,1.5166,1.3366,0.11263,-0.09702,0.13312,0.18652
0.0044821,0.10376,-0.06268,0.025817,0.042739,-0.067757,0.076986,-0.16805,-0.099338,-0.058832,0.43349,0.68686,-0.056034,-1.5475,-0.18806,-2.7004,-0.013078,2.8678,1.4218,1.3432,0.1098,-0.15047,0.1323,0.19465
0.0030037,0.08049,-0.071588,0.0082583,0.026096,-0.10532,0.055953,-0.21865,-0.080537,0.1926,0.38354,0.73566,-0.1362,-1.2901,-0.21968,-2.5635,-0.019897,2.8463,1.3202,1.4281,0.11296,-0.22958,0.13269,0.18742
0.001322,0.044704,-0.075277,-0.014282,0.0040952,-0.14356,0.035982,-0.28446,-0.0688,0.36307,0.33591,0.74707,-0.22058,-1.0242,-0.2245,-2.3144,-0.022684,2.8416,1.2207,1.5537,0.12107,-0.30768,0.13345,0.17499
0.00039402,0.010145,-0.071756,-0.031884,-0.015888,-0.15035,0.016964,-0.33055,-0.062754,0.37783,0.31661,0.68471,-0.30277,-0.80369,-0.20463,-2.0119,-0.020986,2.7894,1.1227,1.675,0.12921,-0.36431,0.13581,0.17629
0.0005113,-0.010124,-0.061449,-0.035777,-0.027248,-0.10411,-0.0011417,-0.32959,-0.057384,0.24305,0.33836,0.55757,-0.38478,-0.66096,-0.16767,-1.7102,-0.015983,2.6403,1.0172,1.7596,0.13124,-0.39414,0.14063,0.20648
0.0017264,-0.0095232,-0.047288,-0.023805,-0.027885,-0.0096537,-0.019221,-0.27864,-0.049614,0.039279,0.39511,0.415,-0.47646,-0.61222,-0.12307,-1.4465,-0.0092071,2.3901,0.89885,1.7971,0.12338,-0.40199,0.14541,0.26652
0.0040812,0.0079741,-0.033515,-0.0029368,-0.019826,0.10729,-0.039602,-0.19699,-0.040842,-0.13349,0.46807,0.30952,-0.58697,-0.67054,-0.079954,-1.2403,-0.0018362,2.0853,0.77578,1.7945,0.1058,-0.39061,0.1441,0.34529
0.0071964,0.02835,-0.023732,0.013812,-0.0062933,0.22167,-0.06534,-0.10755,-0.03527,-0.21601,0.53837,0.25937,-0.71393,-0.84766,-0.046127,-1.0978,0.0052471,1.7977,0.66659,1.7677,0.081284,-0.35439,0.1306,0.43245
0.0097462,0.033835,-0.019266,0.014869,0.0098788,0.32863,-0.098136,-0.017501,-0.036376,-0.21257,0.59703,0.24168,-0.83913,-1.1359,-0.026924,-1.0149,0.011266,1.5879,0.58712,1.7357,0.052453,-0.28584,0.10297,0.52983
0.0097533,0.012725,-0.018819,-0.0025984,0.02479,0.44511,-0.13611,0.085921,-0.044564,-0.16738,0.6456,0.21955,-0.93456,-1.485,-0.023256,-0.97874,0.015726,1.4774,0.53859,1.7183,0.020024,-0.18884,0.064805,0.65031
0.0059325,-0.032669,-0.019619,-0.030416,0.031492,0.59246,-0.17325,0.22143,-0.057198,-0.12159,0.68854,0.1783,-0.97559,-1.8007,-0.030226,-0.97198,0.018734,1.4438,0.50749,1.7293,-0.016521,-0.085879,0.022677,0.80469
-0.00088659,-0.08531,-0.019329,-0.053668,0.021293,0.77388,-0.20159,0.39307,-0.070143,-0.086853,0.72528,0.14092,-0.95309,-1.979,-0.038555,-0.98127,0.02088,1.4356,0.47666,1.7656,-0.0568,-0.011567,-0.017664,0.9874
-0.0076804,-0.12152,-0.017475,-0.058682,-0.011237,0.96344,-0.21525,0.5791,-0.079402,-0.050068,0.74912,0.15213,-0.87786,-1.9611,-0.039592,-1.0053,0.022576,1.3971,0.43764,1.8001,-0.097816,0.0027976,-0.052655,1.1718
-0.010995,-0.12377,-0.015484,-0.039842,-0.063794,1.1137,-0.21387,0.73886,-0.082213,0.0054414,0.75381,0.24573,-0.77557,-1.7722,-0.031575,-1.0533,0.023427,1.2906,0.39457,1.7919,-0.13386,-0.058069,-0.079056,1.3173
-0.0094373,-0.090582,-0.015497,-0.0017011,-0.12725,1.1772,-0.20261,0.83249,-0.077708,0.086353,0.741,0.41943,-0.67553,-1.5131,-0.022488,-1.1316,0.022333,1.1108,0.35778,1.7146,-0.15788,-0.19084,-0.091696,1.3811
-0.0049145,-0.037585,-0.018998,0.043731,-0.19208,1.1283,-0.18814,0.84089,-0.067136,0.19228,0.72069,0.63241,-0.59839,-1.3033,-0.025867,-1.2276,0.018334,0.88637,0.3341,1.5814,-0.16339,-0.37812,-0.084356,1.3297
-0.001437,0.01092,-0.026289,0.082147,-0.25498,0.97746,-0.17317,0.77483,-0.053324,0.32341,0.70346,0.8239,-0.54778,-1.2104,-0.050701,-1.3052,0.0115,0.66803,0.32196,1.4443,-0.14632,-0.59206,-0.05411,1.1473
-0.0022328,0.034398,-0.036965,0.10188,-0.31947,0.76951,-0.15408,0.66976,-0.039418,0.47756,0.69104,0.94081,-0.50971,-1.2125,-0.092062,-1.3191,0.0029809,0.50593,0.31412,1.3617,-0.10652,-0.79426,-0.0054463,0.84374
-0.0073857,0.025323,-0.050611,0.09736,-0.38998,0.56857,-0.12469,0.56985,-0.027749,0.63813,0.67411,0.96118,-0.46077,-1.2171,-0.13051,-1.2382,-0.0059347,0.42671,0.30378,1.3557,-0.048549,-0.93775,0.050087,0.46029
-0.013882,-0.0090816,-0.066814,0.070843,-0.46458,0.43155,-0.084261,0.50837,-0.019823,0.77062,0.63962,0.90407,-0.3821,-1.1258,-0.14293,-1.0618,-0.015007,0.42233,0.28827,1.3941,0.018867,-0.97812,0.09935,0.067045
-0.01801,-0.051847,-0.084404,0.032229,-0.5331,0.38095,-0.043599,0.49211,-0.017362,0.84197,0.58164,0.82078,-0.27185,-0.89691,-0.11822,-0.81444,-0.025401,0.45791,0.26788,1.4133,0.084799,-0.89192,0.13425,-0.25338
-0.018119,-0.084019,-0.10073,-0.0038218,-0.582,0.39176,-0.022905,0.49798,-0.022914,0.85256,0.50622,0.76933,-0.14839,-0.56772,-0.06589,-0.52338,-0.038678,0.49402,0.24269,1.3656,0.13892,-0.68994,0.15451,-0.43213
-0.015487,-0.091504,-0.11187,-0.023428,-0.60135,0.40407,-0.040875,0.48582,-0.038565,0.85197,0.42646,0.78362,-0.041383,-0.22253,-0.0099086,-0.19663,-0.054988,0.50888,0.21142,1.2537,0.17387,-0.41331,0.1649,-0.43785
-0.012762,-0.069376,-0.11397,-0.019673,-0.58797,0.35921,-0.10166,0.42322,-0.063158,0.91656,0.35242,0.85582,0.024663,0.063738,0.028092,0.17848,-0.071814,0.50664,0.17402,1.1251,0.1866,-0.11298,0.16994,-0.28494
-0.011538,-0.023339,-0.10497,0.0041178,-0.54383,0.23881,-0.1892,0.30852,-0.090499,1.0988,0.28517,0.94519,0.044342,0.26452,0.042778,0.61242,-0.084433,0.50856,0.1355,1.0357,0.17855,0.17297,0.17101,-0.023296
-0.011254,0.032084,-0.085679,0.036644,-0.47358,0.079805,-0.27382,0.17556,-0.11102,1.3855,0.21983,1.0086,0.034412,0.39877,0.044769,1.0824,-0.088104,0.5366,0.10699,1.0112,0.15528,0.42777,0.16768,0.28256
-0.010231,0.078974,-0.059737,0.065484,-0.3854,-0.047889,-0.32708,0.074447,-0.11668,1.7001,0.15395,1.0299,0.024753,0.49753,0.047168,1.5191,-0.080666,0.60184,0.10232,1.0387,0.12495,0.64643,0.16115,0.57283
-0.0076143,0.10359,-0.03247,0.084001,-0.29409,-0.087254,-0.33503,0.040103,-0.10571,1.9476,0.093059,1.0239,0.043259,0.57433,0.052084,1.8285,-0.063789,0.70388,0.13186,1.0893,0.095399,0.82012,0.15575,0.80375
-0.0042597,0.1022,-0.0091713,0.093379,-0.22063,-0.03124,-0.30191,0.070632,-0.083364,2.0699,0.047878,1.0131,0.10336,0.62577,0.050083,1.9397,-0.041965,0.83672,0.19744,1.1478,0.070409,0.93116,0.15663,0.95184
-0.001839,0.081253,0.0065371,0.098537,-0.18421,0.075317,-0.24348,0.13121,-0.057827,2.0688,0.025774,0.99802,0.20019,0.65839,0.032973,1.8497,-0.019967,0.9936,0.29167,1.2264,0.04761,0.9643,0.16577,1.0149
-0.0012351,0.051364,0.01366,0.10166,-0.19,0.16835,-0.17664,0.17939,-0.034271,1.9878,0.023958,0.95026,0.31607,0.71254,0.0069495,1.632,-0.00063065,1.167,0.40158,1.3528,0.02025,0.92409,0.17997,1.01
-0.0019235,0.019664,0.013662,0.099152,-0.22181,0.20555,-0.11244,0.19154,-0.011937,1.8733,0.030156,0.83587,0.43159,0.85586,-0.0079362,1.4003,0.015487,1.3471,0.51395,1.5457,-0.017357,0.84137,0.19278,0.96689
-0.0028547,-0.013416,0.0092488,0.084931,-0.24721,0.18583,-0.05524,0.17125,0.013607,1.7511,0.029603,0.64802,0.53635,1.1455,0.0065349,1.2468,0.028645,1.5218,0.61897,1.7988,-0.064352,0.76065,0.19866,0.91455
-0.0037381,-0.050357,0.0027926,0.05727,-0.23355,0.13826,-0.0057296,0.13721,0.045125,1.6322,0.012094,0.41674,0.63384,1.5868,0.049126,1.1949,0.038248,1.6808,0.71038,2.0806,-0.11235,0.71558,0.19583,0.86882
-0.0052634,-0.089478,-0.0045683,0.023148,-0.16474,0.095782,0.036618,0.10517,0.079885,1.5307,-0.026251,0.18481,0.73794,2.1206,0.095779,1.1977,0.04269,1.8189,0.7838,2.3494,-0.15044,0.71009,0.18558,0.82691
-0.0080228,-0.12151,-0.012638,-0.004233,-0.048132,0.077304,0.073083,0.08035,0.11046,1.4697,-0.086208,-0.027958,0.86286,2.652,0.11494,1.1801,0.040908,1.9377,0.83611,2.5716,-0.17254,0.71849,0.16937,0.77361
-0.011337,-0.13377,-0.021106,-0.013363,0.091636,0.087835,0.10603,0.063406,0.12926,1.4659,-0.16884,-0.23693,1.0125,3.0998,0.090015,1.095,0.034132,2.0457,0.86775,2.7341,-0.18129,0.70428,0.14689,0.69431
-0.013319,-0.11897,-0.028803,-0.0016775,0.22575,0.12703,0.13809,0.058595,0.13306,1.5075,-0.27495,-0.46736,1.176,3.4321,0.031272,0.95465,0.025981,2.1573,0.88552,2.8464,-0.18501,0.64444,0.11717,0.58593
-0.012224,-0.081066,-0.034001,0.023544,0.33228,0.19119,0.17017,0.072109,0.12403,1.5495,-0.40133,-0.71535,1.3314,3.6646,-0.031822,0.81773,0.020548,2.2873,0.90167,2.9299,-0.19015,0.54353,0.081658,0.45889
-0.0078423,-0.032913,-0.03548,0.051163,0.40027,0.26591,0.20016,0.10107,0.10732,1.5333,-0.53836,-0.93506,1.4545,3.8253,-0.071184,0.74516,0.019989,2.4415,0.92686,2.9995,-0.19569,0.42967,0.046058,0.3304
-0.001726,0.012694,-0.033357,0.074034,0.42852,0.32165,0.22381,0.12641,0.087484,1.4177,-0.67256,-1.0695,1.5274,3.914,-0.077588,0.7574,0.023606,2.6037,0.961,3.0475,-0.19434,0.33648,0.018504,0.21478
0.0038347,0.050915,-0.028969,0.092454,0.42281,0.32489,0.23741,0.12128,0.066667,1.198,-0.79295,-1.101,1.5418,3.8885,-0.062732,0.82229,0.029096,2.7346,0.98995,3.0439,-0.17951,0.28334,0.0051574,0.11688
0.0070951,0.085098,-0.024051,0.11094,0.39363,0.26174,0.24004,0.071735,0.044952,0.90416,-0.89624,-1.0762,1.4993,3.69,-0.046347,0.87919,0.034692,2.7877,0.99338,2.9567,-0.15194,0.26647,0.0067184,0.031477
0.0075195,0.11958,-0.020043,0.13178,0.35331,0.15484,0.23383,-0.0075815,0.021646,0.58022,-0.98691,-1.0823,1.4112,3.2899,-0.039716,0.88083,0.04033,2.7394,0.96022,2.7803,-0.12027,0.26519,0.018755,-0.052549
0.0057203,0.15201,-0.018011,0.15112,0.31187,0.055872,0.22217,-0.078173,-0.0040271,0.26225,-1.0722,-1.192,1.298,2.7274,-0.038241,0.82346,0.047054,2.6121,0.90016,2.5494,-0.094872,0.25828,0.035408,-0.14568
0.0030474,0.17245,-0.018834,0.16104,0.2735,0.015509,0.2076,-0.1015,-0.032889,-0.036034,-1.1566,-1.4225,1.1856,2.1055,-0.027393,0.74608,0.055566,2.4694,0.84099,2.3258,-0.080468,0.23854,0.053086,-0.25197
0.00099166,0.17049,-0.02297,0.1554,0.23644,0.05265,0.19093,-0.063744,-0.065655,-0.32589,-1.2391,-1.7358,1.0958,1.5448,0.003965,0.70031,0.065392,2.3814,0.81189,2.1632,-0.073491,0.21586,0.070946,-0.36643
0.00035283,0.14414,-0.029791,0.13461,0.19715,0.14581,0.17174,0.017272,-0.10235,-0.63579,-1.3155,-2.0715,1.0331,1.1211,0.053702,0.71192,0.075294,2.3825,0.82428,2.0758,-0.066067,0.2075,0.088154,-0.47737
0.00049182,0.10279,-0.037233,0.10546,0.15533,0.25058,0.14946,0.10594,-0.14196,-0.99531,-1.3808,-2.3803,0.97887,0.82755,0.107,0.76028,0.084205,2.4514,0.86436,2.0341,-0.052589,0.22386,0.10108,-0.57329
-0.00051263,0.061619,-0.042533,0.076728,0.11537,0.32568,0.12368,0.16921,-0.18294,-1.415,-1.4307,-2.6364,0.89871,0.59141,0.14602,0.78922,0.091572,2.5285,0.90263,1.9898,-0.033108,0.26078,0.1038,-0.65105
-0.0043682,0.032334,-0.043782,0.054399,0.082839,0.34611,0.093939,0.18649,-0.22399,-1.8717,-1.4618,-2.8337,0.76181,0.33439,0.16087,0.74134,0.096833,2.5543,0.91289,1.9075,-0.011199,0.30351,0.092116,-0.72073
-0.010646,0.017473,-0.041099,0.04004,0.059326,0.29818,0.059563,0.14557,-0.26392,-2.3117,-1.4703,-2.9862,0.55969,0.036225,0.15428,0.59172,0.09892,2.5029,0.88671,1.7802,0.011006,0.33727,0.067995,-0.80389
-0.016279,0.012215,-0.03642,0.032449,0.040368,0.17022,0.020469,0.036272,-0.30033,-2.6771,-1.4544,-3.1334,0.31148,-0.24662,0.1381,0.35858,0.09675,2.3859,0.83457,1.6207,0.035753,0.35439,0.040107,-0.92569
-0.01748,0.010667,-0.032084,0.029972,0.018637,-0.043862,-0.021386,-0.14507,-0.32859,-2.9428,-1.4169,-3.3383,0.052105,-0.4229,0.12581,0.08673,0.090635,2.2331,0.77551,1.4427,0.068237,0.35263,0.019365,-1.1045
-0.012818,0.010507,-0.02946,0.031059,-0.010298,-0.32727,-0.061322,-0.38115,-0.34287,-3.1387,-1.3664,-3.6603,-0.18733,-0.43892,0.12666,-0.17995,0.083199,2.0676,0.72463,1.2516,0.11274,0.32897,0.012333,-1.3435
-0.0047622,0.012472,-0.028623,0.033289,-0.04439,-0.62694,-0.093312,-0.62478,-0.33944,-3.3326,-1.3157,-4.1132,-0.39268,-0.32509,0.14403,-0.41458,0.078447,1.8965,0.6866,1.0503,0.17011,0.27815,0.017601,-1.6259
0.0019393,0.01658,-0.02893,0.033088,-0.076382,-0.86389,-0.11318,-0.81094,-0.31964,-3.5775,-1.2765,-4.6404,-0.56541,-0.17848,0.17612,-0.60201,0.079135,1.7161,0.65703,0.85027,0.23837,0.19968,0.028189,-1.9181
0.0038114,0.019864,-0.029603,0.027555,-0.09847,-0.96846,-0.12151,-0.88777,-0.29024,-3.8579,-1.2556,-5.1345,-0.71083,-0.09268,0.21661,-0.72227,0.084443,1.5228,0.62785,0.67282,0.31451,0.10603,0.038315,-2.1788
0.0010065,0.018173,-0.029714,0.017006,-0.1065,-0.91862,-0.12365,-0.84609,-0.26057,-4.0789,-1.2552,-5.492,-0.82705,-0.089613,0.25509,-0.7433,0.09014,1.319,0.59257,0.5392,0.39482,0.021151,0.049029,-2.3772
-0.0035891,0.010034,-0.028032,0.0053174,-0.10101,-0.75295,-0.12608,-0.72391,-0.23898,-4.1157,-1.2768,-5.6665,-0.90353,-0.10741,0.27957,-0.63493,0.091586,1.114,0.54945,0.45956,0.47302,-0.033652,0.067654,-2.5105
-0.0074534,-0.0016339,-0.023485,-0.003072,-0.085422,-0.54679,-0.13152,-0.58071,-0.2308,-3.8968,-1.3253,-5.6795,-0.92882,-0.054614,0.28165,-0.39637,0.087377,0.9242,0.50268,0.43256,0.53916,-0.055814,0.10075,-2.6107
-0.010597,-0.01191,-0.016204,-0.0071518,-0.063752,-0.36753,-0.13667,-0.45988,-0.23794,-3.4628,-1.4057,-5.5874,-0.90035,0.11249,0.26157,-0.074194,0.080649,0.77546,0.46136,0.45504,0.58234,-0.064751,0.14598,-2.7292
-0.014709,-0.018024,-0.0080895,-0.010359,-0.03959,-0.24067,-0.13511,-0.36785,-0.25827,-2.9543,-1.5158,-5.4353,-0.82854,0.35103,0.22849,0.24858,0.076826,0.699,0.43529,0.53003,0.59674,-0.08806,0.18996,-2.9031
-0.020324,-0.02115,-0.0018478,-0.017176,-0.016171,-0.14931,-0.12347,-0.28425,-0.28396,-2.5345,-1.6373,-5.2362,-0.7331,0.56119,0.19473,0.49181,0.079556,0.71759,0.42871,0.66311,0.5864,-0.14211,0.21515,-3.1227
-0.025123,-0.024118,0.0011015,-0.028258,0.0036629,-0.063257,-0.10607,-0.19204,-0.30102,-2.2987,-1.7363,-4.9878,-0.63484,0.6596,0.16818,0.62305,0.088067,0.82606,0.43513,0.85024,0.56371,-0.22359,0.21122,-3.3268
-0.025414,-0.027614,0.0020934,-0.038924,0.018117,0.027949,-0.093598,-0.1002,-0.2933,-2.2344,-1.775,-4.7005,-0.54829,0.63834,0.14927,0.67774,0.097912,0.9809,0.43762,1.07,0.5413,-0.31778,0.18229,-3.4327
-0.019584,-0.029087,0.0044274,-0.04296,0.026876,0.10444,-0.096249,-0.039926,-0.25089,-2.2579,-1.7305,-4.4098,-0.47855,0.5656,0.13516,0.73904,0.10421,1.1113,0.41569,1.2897,0.52255,-0.41422,0.14363,-3.3832
-0.010243,-0.025902,0.010608,-0.038512,0.030343,0.1339,-0.11653,-0.038661,-0.17797,-2.2945,-1.6082,-4.1574,-0.42277,0.53156,0.12679,0.88848,0.10464,1.1497,0.35533,1.481,0.49785,-0.51647,0.11006,-3.178
-0.002784,-0.019756,0.019887,-0.030523,0.028051,0.10037,-0.14757,-0.095982,-0.093147,-2.3373,-1.4416,-3.9634,-0.37424,0.58464,0.13165,1.1589,0.10012,1.0643,0.25572,1.6298,0.44943,-0.64247,0.084856,-2.8636
-0.0014,-0.017487,0.028446,-0.027087,0.017895,0.019871,-0.17832,-0.18198,-0.020193,-2.439,-1.2749,-3.8125,-0.32696,0.70578,0.15923,1.5193,0.09319,0.87352,0.12882,1.7332,0.36059,-0.82289,0.057837,-2.4948
-0.0059231,-0.026435,0.032369,-0.032792,-0.0025359,-0.067945,-0.20129,-0.25785,0.025345,-2.6472,-1.1407,-3.6681,-0.27901,0.83423,0.21264,1.8994,0.086034,0.63289,-0.007567,1.7868,0.22229,-1.1026,0.013293,-2.0988
-0.012151,-0.047772,0.030975,-0.045,-0.033244,-0.12176,-0.21631,-0.29909,0.043925,-2.9408,-1.0459,-3.4999,-0.23378,0.91694,0.28369,2.2333,0.079607,0.40328,-0.13817,1.7798,0.033185,-1.5387,-0.059967,-1.675
-0.015257,-0.073858,0.02758,-0.056387,-0.070032,-0.11598,-0.22756,-0.30222,0.048306,-3.2253,-0.97558,-3.3051,-0.19888,0.94052,0.3554,2.4913,0.073955,0.2197,-0.25525,1.7034,-0.20411,-2.1801,-0.16525,-1.2299
-0.013322,-0.092688,0.026889,-0.061358,-0.10546,-0.044499,-0.23749,-0.27399,0.05155,-3.3957,-0.91059,-3.1101,-0.18297,0.92569,0.40932,2.6811,0.068662,0.077996,-0.35849,1.5652,-0.48369,-3.0288,-0.30253,-0.81137
-0.0081935,-0.096421,0.031184,-0.06057,-0.1321,0.083314,-0.24361,-0.21892,0.056528,-3.4189,-0.84665,-2.9567,-0.19141,0.89857,0.43249,2.824,0.062822,-0.055626,-0.45164,1.3917,-0.79018,-4.0011,-0.47272,-0.50374
-0.0033657,-0.087193,0.038525,-0.059868,-0.14559,0.24431,-0.24128,-0.13956,0.0551,-3.3675,-0.79964,-2.8838,-0.22221,0.86998,0.42019,2.9293,0.055012,-0.22065,-0.53891,1.2109,-1.0897,-4.9215,-0.67266,-0.37008
-0.0010323,-0.075493,0.044337,-0.065063,-0.14544,0.40091,-0.22945,-0.046849,0.036782,-3.376,-0.79422,-2.9109,-0.26438,0.83977,0.37535,2.9891,0.0441,-0.43857,-0.62267,1.0303,-1.3275,-5.5681,-0.88134,-0.37592
-0.00079079,-0.07254,0.044887,-0.077394,-0.1336,0.50844,-0.21331,0.035765,-0.0010355,-3.5518,-0.84485,-3.028,-0.3002,0.8152,0.30658,2.9921,0.030678,-0.7015,-0.70265,0.8297,-1.4418,-5.7567,-1.0513,-0.3551
-0.00068188,-0.082685,0.039755,-0.093146,-0.11282,0.53637,-0.20082,0.08544,-0.049799,-3.9048,-0.94359,-3.1913,-0.31173,0.81786,0.22579,2.9415,0.017753,-0.97633,-0.77592,0.58181,-1.3892,-5.4232,-1.1209,-0.063404
0.00079996,-0.10121,0.031667,-0.10676,-0.086705,0.49266,-0.19613,0.10161,-0.09538,-4.3432,-1.063,-3.3303,-0.28879,0.86743,0.14438,2.8565,0.0095289,-1.2193,-0.83755,0.28289,-1.1721,-4.6623,-1.0478,0.68992
0.0035859,-0.11808,0.024427,-0.1141,-0.060787,0.42844,-0.19605,0.11437,-0.12707,-4.7294,-1.1707,-3.369,-0.234,0.95708,0.068552,2.7588,0.0087469,-1.3926,-0.88255,-0.031706,-0.84602,-3.6968,-0.84456,1.9053
0.0064645,-0.12393,0.020905,-0.11354,-0.042484,0.41074,-0.193,0.16668,-0.14269,-4.9505,-1.2436,-3.2567,-0.16112,1.0478,-0.0031937,2.6573,0.014679,-1.475,-0.90883,-0.30409,-0.50016,-2.7884,-0.58431,3.3447
0.0082325,-0.11428,0.022276,-0.10527,-0.038356,0.47791,-0.18176,0.28147,-0.1469,-4.9615,-1.2736,-2.9942,-0.086681,1.0929,-0.077097,2.5469,0.02359,-1.4662,-0.91969,-0.4906,-0.21736,-2.1246,-0.36489,4.6225
0.0083835,-0.090597,0.028236,-0.090874,-0.049909,0.61172,-0.16392,0.44126,-0.14589,-4.7859,-1.2641,-2.6381,-0.020107,1.0722,-0.15638,2.4222,0.031465,-1.3832,-0.92352,-0.58925,-0.036749,-1.7394,-0.25009,5.3943
0.0070283,-0.059153,0.037295,-0.073753,-0.071304,0.75052,-0.14607,0.59911,-0.14331,-4.4895,-1.2235,-2.2764,0.041058,1.005,-0.23427,2.2902,0.036751,-1.2537,-0.92977,-0.6361,0.057661,-1.5088,-0.23,5.5293
0.0046612,-0.028883,0.047,-0.05896,-0.091439,0.83478,-0.13379,0.71275,-0.13973,-4.1469,-1.1607,-1.984,0.10737,0.92493,-0.29429,2.1673,0.040871,-1.1088,-0.94285,-0.67509,0.11542,-1.2304,-0.23229,5.1555
0.0022946,-0.0082227,0.054666,-0.051111,-0.099484,0.84852,-0.12683,0.77333,-0.13378,-3.8151,-1.0846,-1.785,0.18827,0.83912,-0.31891,2.0615,0.046227,-0.9757,-0.95832,-0.72747,0.18121,-0.74506,-0.17796,4.5515
0.0016072,-0.0013784,0.058785,-0.051205,-0.089999,0.82343,-0.11957,0.80535,-0.12274,-3.5149,-1.003,-1.644,0.28453,0.70827,-0.30102,1.9577,0.053598,-0.87493,-0.96534,-0.78505,0.26736,-0.02582,-0.039633,3.9702
0.0043193,-0.0058583,0.060177,-0.055255,-0.063918,0.80465,-0.10542,0.83996,-0.10252,-3.2287,-0.91898,-1.495,0.38766,0.46939,-0.24954,1.822,0.061245,-0.81871,-0.95491,-0.82914,0.35579,0.82052,0.14202,3.5186
0.010763,-0.013717,0.061499,-0.056836,-0.025055,0.80993,-0.080647,0.88664,-0.069252,-2.9179,-0.82939,-1.2889,0.4854,0.084076,-0.18491,1.6253,0.066304,-0.81104,-0.92872,-0.85522,0.42407,1.6374,0.29372,3.1666
0.018864,-0.016714,0.064949,-0.052121,0.024621,0.81747,-0.044435,0.92768,-0.022953,-2.5532,-0.72615,-1.028,0.5674,-0.42657,-0.12819,1.365,0.067052,-0.84695,-0.90132,-0.88091,0.47131,2.3227,0.36539,2.8495
0.024929,-0.012009,0.069921,-0.043206,0.086676,0.79055,0.0036275,0.93745,0.029341,-2.137,-0.60208,-0.76131,0.62652,-0.98773,-0.091741,1.0692,0.063967,-0.91216,-0.89264,-0.93192,0.52074,2.8765,0.36128,2.5599
0.026196,-0.0036913,0.072905,-0.036312,0.16316,0.71383,0.064715,0.90668,0.074995,-1.6991,-0.45585,-0.54628,0.65651,-1.51,-0.077778,0.7797,0.058847,-0.98608,-0.91514,-1.0205,0.59716,3.3605,0.32575,2.3534
0.023164,0.001544,0.070197,-0.035867,0.25107,0.60783,0.13815,0.84922,0.10245,-1.2671,-0.29223,-0.40456,0.65085,-1.9302,-0.084012,0.52958,0.052992,-1.0496,-0.96536,-1.1355,0.69895,3.811,0.30249,2.2782
0.019445,0.0011307,0.061326,-0.039507,0.33889,0.50998,0.21705,0.78679,0.10881,-0.83838,-0.11791,-0.3079,0.60662,-2.2267,-0.1101,0.33312,0.046207,-1.0943,-1.0263,-1.2522,0.78972,4.1805,0.30438,2.3066
0.018831,-0.00023745,0.050053,-0.038845,0.40875,0.4412,0.2871,0.72797,0.10221,-0.38238,0.062492,-0.20384,0.53089,-2.4088,-0.15876,0.18772,0.03735,-1.1269,-1.0795,-1.3503,0.81812,4.3567,0.31615,2.3378
0.021906,0.0057019,0.041714,-0.026073,0.44384,0.38907,0.33139,0.6613,0.096386,0.12589,0.24632,-0.059177,0.44318,-2.4976,-0.23076,0.078275,0.025707,-1.1636,-1.1165,-1.4265,0.75137,4.2407,0.31975,2.2671
0.025275,0.022985,0.038938,-0.0011857,0.43695,0.3212,0.33928,0.56791,0.1017,0.67079,0.42969,0.11567,0.36927,-2.5147,-0.31862,-0.023988,0.011782,-1.2183,-1.1421,-1.4916,0.59759,3.8216,0.31431,2.0571
0.024332,0.046113,0.03943,0.026422,0.39465,0.21478,0.3129,0.4408,0.11946,1.1936,0.60556,0.28073,0.32928,-2.4791,-0.40548,-0.16248,-0.0030663,-1.2929,-1.1661,-1.5594,0.40126,3.1913,0.31269,1.7509
0.017325,0.062081,0.037815,0.043708,0.33438,0.075207,0.26598,0.29261,0.14376,1.6293,0.76603,0.40425,0.32855,-2.4069,-0.47145,-0.38475,-0.01753,-1.3768,-1.1933,-1.6381,0.21687,2.4971,0.3224,1.4221
0.0071438,0.058722,0.030052,0.042734,0.27593,-0.070979,0.21531,0.14623,0.16829,1.9514,0.90676,0.48936,0.35841,-2.3098,-0.5041,-0.71959,-0.030748,-1.456,-1.2195,-1.7296,0.080197,1.8735,0.33321,1.1144
-0.00083532,0.033279,0.016707,0.025654,0.2325,-0.19939,0.17094,0.018469,0.19159,2.1883,1.0287,0.56596,0.40564,-2.1981,-0.50559,-1.1567,-0.041908,-1.5234,-1.236,-1.8352,-0.0042164,1.4022,0.32512,0.81967
-0.0029753,-0.005057,0.0024762,0.0025247,0.20637,-0.30436,0.13251,-0.087594,0.21641,2.394,1.1346,0.65702,0.46184,-2.0879,-0.49114,-1.6471,-0.049819,-1.5821,-1.239,-1.9587,-0.055259,1.1126,0.28878,0.50418
-6.0809e-006,-0.04027,-0.0073926,-0.015619,0.19067,-0.39479,0.094282,-0.17591,0.24448,2.6029,1.2232,0.75185,0.52409,-2.0022,-0.47883,-2.1256,-0.05331,-1.6414,-1.2335,-2.1038,-0.09653,1.0013,0.23741,0.14521
0.0041127,-0.058513,-0.010635,-0.022736,0.17509,-0.47598,0.054234,-0.24513,0.27215,2.804,1.287,0.81232,0.58689,-1.9589,-0.47739,-2.5401,-0.052393,-1.7101,-1.2294,-2.2702,-0.14088,1.0415,0.19832,-0.25496
0.005799,-0.054988,-0.0087793,-0.019,0.15153,-0.53655,0.019182,-0.28413,0.2911,2.9584,1.3158,0.80736,0.63492,-1.9487,-0.48027,-2.8655,-0.049018,-1.7949,-1.2344,-2.4533,-0.18657,1.1779,0.19112,-0.68165
0.0045325,-0.034857,-0.0051282,-0.007973,0.11713,-0.55388,0.00098355,-0.2806,0.29337,3.0397,1.3043,0.74499,0.64635,-1.9281,-0.47057,-3.0987,-0.046366,-1.9024,-1.2485,-2.6485,-0.22437,1.326,0.21254,-1.1217
0.0023907,-0.0086905,-0.0021276,0.0066835,0.07467,-0.51335,0.0064491,-0.23472,0.27648,3.0636,1.2569,0.67407,0.60723,-1.8416,-0.43378,-3.2475,-0.046858,-2.0404,-1.2655,-2.8559,-0.24895,1.3934,0.24052,-1.5596
0.0013751,0.013943,-0.00034325,0.022381,0.031329,-0.42491,0.029239,-0.16521,0.24478,3.0812,1.1867,0.65504,0.52586,-1.6633,-0.36924,-3.3243,-0.050381,-2.2149,-1.2775,-3.0788,-0.26743,1.3189,0.25274,-1.9637
0.0014437,0.028864,0.00060481,0.037014,-0.0038141,-0.32303,0.051171,-0.10172,0.20707,3.1455,1.1093,0.72595,0.4335,-1.4233,-0.29175,-3.3455,-0.054309,-2.424,-1.2773,-3.3168,-0.30073,1.1001,0.24273,-2.2862
0.0010965,0.037798,0.00061431,0.048589,-0.023408,-0.25012,0.053372,-0.069077,0.17337,3.2793,1.0382,0.89093,0.36819,-1.1908,-0.22167,-3.3282,-0.055414,-2.6547,-1.2599,-3.5593,-0.37626,0.78834,0.2209,-2.4882
-0.00047575,0.045573,-0.0012277,0.056025,-0.025803,-0.23577,0.029934,-0.075008,0.15308,3.469,0.98373,1.1351,0.35223,-1.023,-0.17078,-3.2785,-0.052222,-2.8878,-1.2222,-3.7864,-0.51422,0.45434,0.20219,-2.5685
-0.0022435,0.056048,-0.0056761,0.060061,-0.016969,-0.28479,-0.0058484,-0.10901,0.15407,3.6844,0.9556,1.445,0.37995,-0.92078,-0.13456,-3.1838,-0.045936,-3.1047,-1.1644,-3.9785,-0.71319,0.15182,0.19306,-2.5705
-0.00248,0.069019,-0.012233,0.062759,-0.0081444,-0.37933,-0.027914,-0.15127,0.18086,3.902,0.96369,1.8109,0.42377,-0.83247,-0.096927,-3.023,-0.039285,-3.2931,-1.0924,-4.1275,-0.94308,-0.095482,0.18842,-2.5533
-0.00085292,0.079782,-0.019149,0.065594,-0.0096727,-0.49069,-0.013147,-0.1847,0.23166,4.1117,1.0141,2.2102,0.45235,-0.70366,-0.044185,-2.7906,-0.034406,-3.4446,-1.0174,-4.241,-1.1515,-0.28223,0.17875,-2.5522
0.0009766,0.081758,-0.024568,0.06789,-0.024806,-0.59281,0.043667,-0.20288,0.29668,4.3041,1.102,2.5927,0.44588,-0.53124,0.022487,-2.5181,-0.031591,-3.5507,-0.95205,-4.3369,-1.2827,-0.40432,0.15909,-2.5587
0.0010601,0.07094,-0.027754,0.067316,-0.047852,-0.67064,0.12563,-0.21085,0.36086,4.4536,1.2073,2.8908,0.39875,-0.37378,0.085619,-2.268,-0.029869,-3.6048,-0.90418,-4.434,-1.3007,-0.45499,0.13223,-2.5358
-0.00059509,0.049495,-0.029287,0.062297,-0.067959,-0.72102,0.20334,-0.21958,0.41056,4.5183,1.2993,3.0554,0.31242,-0.30702,0.12271,-2.1032,-0.02874,-3.6094,-0.87314,-4.546,-1.2021,-0.43395,0.1056,-2.4501
-0.0017346,0.025827,-0.030174,0.054318,-0.075501,-0.74747,0.25215,-0.23724,0.43993,4.4586,1.3494,3.0908,0.18894,-0.35919,0.12264,-2.0537,-0.02938,-3.5848,-0.85175,-4.6833,-1.0137,-0.35452,0.086569,-2.2904
-3.3674e-005,0.010347,-0.030788,0.047944,-0.066295,-0.75361,0.26558,-0.26251,0.45165,4.2627,1.3457,3.0621,0.032513,-0.47695,0.09615,-2.1048,-0.034118,-3.567,-0.83139,-4.856,-0.77619,-0.2374,0.080092,-2.0593
0.0043687,0.0093314,-0.030646,0.048186,-0.041307,-0.74081,0.25587,-0.28477,0.45099,3.9605,1.2992,3.0658,-0.14393,-0.54801,0.073291,-2.2134,-0.044554,-3.5931,-0.80647,-5.0742,-0.52717,-0.097047,0.088632,-1.7531
0.0085891,0.021029,-0.029116,0.056933,-0.0036102,-0.71278,0.24194,-0.29306,0.43831,3.6132,1.2379,3.1828,-0.3165,-0.46365,0.08884,-2.3324,-0.059968,-3.6832,-0.77605,-5.3402,-0.29365,0.063539,0.11161,-1.3592
0.0093995,0.037066,-0.026282,0.071075,0.043803,-0.68331,0.23405,-0.28872,0.40681,3.2868,1.1906,3.4421,-0.45822,-0.17904,0.16386,-2.4226,-0.077507,-3.8306,-0.74335,-5.6392,-0.094173,0.24206,0.1439,-0.87878
0.0060606,0.048331,-0.023103,0.083882,0.097577,-0.67783,0.22702,-0.29162,0.34827,3.0214,1.1722,3.8121,-0.5531,0.26462,0.29347,-2.4472,-0.094151,-4.0082,-0.71535,-5.9357,0.056737,0.42114,0.17587,-0.35471
0.00090046,0.051019,-0.020765,0.088995,0.15254,-0.72182,0.20717,-0.33137,0.2618,2.8159,1.1777,4.2164,-0.60609,0.76441,0.44766,-2.3633,-0.10882,-4.1844,-0.70275,-6.1807,0.14979,0.56637,0.19717,0.12952
-0.0028668,0.048276,-0.019898,0.084468,0.20209,-0.82012,0.16738,-0.42585,0.15771,2.6349,1.1899,4.5628,-0.64135,1.2081,0.58493,-2.1272,-0.12277,-4.3364,-0.71792,-6.3272,0.18737,0.64485,0.20287,0.49133
-0.0039722,0.046384,-0.020378,0.074008,0.241,-0.94215,0.11825,-0.56139,0.052462,2.4354,1.1928,4.7753,-0.68985,1.5246,0.67167,-1.7148,-0.13785,-4.4533,-0.7695,-6.3484,0.18722,0.64999,0.19713,0.70461
-0.0039603,0.048904,-0.021816,0.064318,0.26835,-1.029,0.086329,-0.69136,-0.040821,2.2001,1.1818,4.8206,-0.77419,1.7069,0.69654,-1.1431,-0.15424,-4.5295,-0.85564,-6.2478,0.17696,0.6096,0.19073,0.8223
-0.0054217,0.05377,-0.024142,0.060304,0.28736,-1.0239,0.10006,-0.75877,-0.11788,1.957,1.1628,4.7217,-0.89848,1.7991,0.67203,-0.47539,-0.16967,-4.5567,-0.96085,-6.0554,0.18129,0.56758,0.19398,0.94018
-0.0093293,0.055689,-0.02762,0.061752,0.30208,-0.908,0.17321,-0.73004,-0.18018,1.7718,1.143,4.5489,-1.0464,1.8572,0.62316,0.20058,-0.181,-4.5214,-1.0596,-5.8128,0.21171,0.55259,0.21043,1.1237
-0.01388,0.051553,-0.032248,0.064218,0.31423,-0.71641,0.29663,-0.61702,-0.22721,1.7114,1.121,4.387,-1.1865,1.9116,0.57175,0.80987,-0.18656,-4.409,-1.1257,-5.5526,0.26639,0.55932,0.23617,1.3544
-0.015796,0.04395,-0.037156,0.063478,0.32369,-0.52012,0.4426,-0.47115,-0.25282,1.8006,1.0857,4.2947,-1.2819,1.9561,0.52708,1.3255,-0.18711,-4.2096,-1.1419,-5.2864,0.33865,0.55786,0.26451,1.5397
-0.01295,0.039519,-0.04072,0.059684,0.3326,-0.3855,0.57748,-0.35349,-0.25024,1.9985,1.0249,4.2801,-1.3038,1.9686,0.48773,1.7784,-0.18451,-3.9254,-1.1062,-5.0085,0.4249,0.52326,0.29125,1.5832
-0.0062115,0.043413,-0.041553,0.057293,0.34857,-0.33905,0.67457,-0.30144,-0.22131,2.2134,0.93652,4.3079,-1.2446,1.9416,0.45029,2.2314,-0.1795,-3.5783,-1.0325,-4.7136,0.52417,0.46127,0.31609,1.4597
0.00087619,0.054529,-0.039692,0.06048,0.38218,-0.36146,0.72092,-0.31437,-0.18004,2.3477,0.83375,4.3305,-1.1243,1.8922,0.41588,2.7285,-0.17116,-3.2148,-0.94675,-4.4166,0.63068,0.40958,0.33974,1.2381
0.0043563,0.065613,-0.036968,0.068066,0.43941,-0.41188,0.71752,-0.36495,-0.14547,2.3458,0.73756,4.3201,-0.98539,1.8388,0.38886,3.2504,-0.1585,-2.9022,-0.88138,-4.1573,0.72833,0.41299,0.36053,1.0372
0.00246,0.068249,-0.036095,0.072892,0.51497,-0.46157,0.67561,-0.42419,-0.12868,2.2133,0.66352,4.2768,-0.8743,1.7672,0.37071,3.7126,-0.14289,-2.7077,-0.8648,-3.9836,0.79425,0.48994,0.37416,0.95138
-0.0032701,0.058684,-0.039032,0.066864,0.59357,-0.51134,0.61161,-0.48044,-0.12517,1.9989,0.61193,4.2132,-0.82032,1.6232,0.35616,4.0136,-0.1284,-2.6632,-0.90877,-3.9209,0.81007,0.61383,0.37686,1.001
-0.0091364,0.039849,-0.04589,0.047641,0.65951,-0.58252,0.54193,-0.54053,-0.11989,1.756,0.56937,4.1329,-0.82368,1.3498,0.33613,4.1017,-0.11926,-2.7353,-0.99771,-3.9482,0.7715,0.72251,0.36862,1.1362
-0.011896,0.018322,-0.055282,0.021155,0.70662,-0.69255,0.47775,-0.61654,-0.10103,1.5113,0.52015,4.024,-0.86092,0.94265,0.30441,4.0057,-0.11639,-2.8234,-1.0884,-3.9973,0.68831,0.75188,0.35345,1.2781
-0.010907,-0.00072429,-0.065777,-0.0024552,0.73927,-0.83578,0.42127,-0.71132,-0.070762,1.26,0.45938,3.8726,-0.90286,0.47862,0.26137,3.7979,-0.11607,-2.8,-1.1255,-3.9778,0.57527,0.67473,0.3365,1.3591
-0.0082406,-0.016091,-0.077103,-0.016113,0.76229,-0.98284,0.36564,-0.81362,-0.043539,0.98544,0.39797,3.681,-0.93153,0.088015,0.21155,3.5171,-0.11232,-2.5739,-1.0676,-3.8155,0.44228,0.52125,0.32105,1.3386
-0.0068272,-0.028759,-0.089881,-0.020128,0.76917,-1.0965,0.29959,-0.90386,-0.033728,0.68412,0.3564,3.4733,-0.94487,-0.11126,0.15828,3.1188,-0.10117,-2.1424,-0.91108,-3.4826,0.29212,0.36645,0.30798,1.1982
-0.0082614,-0.038157,-0.1041,-0.020165,0.7409,-1.1507,0.21452,-0.96403,-0.043302,0.37677,0.35176,3.2785,-0.94847,-0.069323,0.10127,2.5055,-0.083507,-1.5955,-0.6955,-3.0068,0.12692,0.2885,0.29757,0.93432
-0.012007,-0.04084,-0.11789,-0.021199,0.65992,-1.1419,0.10979,-0.98501,-0.060153,0.10056,0.38702,3.1068,-0.94449,0.18663,0.039666,1.6188,-0.064203,-1.07,-0.48574,-2.4579,-0.04358,0.32211,0.29092,0.55864
-0.016348,-0.033514,-0.12803,-0.023282,0.52912,-1.0873,-0.007147,-0.96921,-0.067894,-0.10959,0.4491,2.9368,-0.92799,0.58382,-0.022934,0.51569,-0.048492,-0.68201,-0.34115,-1.9209,-0.1997,0.43836,0.28927,0.099635
-0.019878,-0.017855,-0.13213,-0.022942,0.3795,-1.015,-0.12488,-0.92931,-0.058208,-0.23529,0.51662,2.7292,-0.89259,1.0394,-0.077027,-0.63933,-0.038491,-0.4788,-0.29003,-1.468,-0.31807,0.56819,0.29169,-0.40118
-0.022129,-0.0020654,-0.13053,-0.018455,0.25731,-0.9513,-0.23225,-0.8838,-0.035372,-0.27556,0.57204,2.4582,-0.83831,1.4721,-0.11145,-1.6654,-0.032316,-0.43718,-0.32348,-1.1395,-0.38186,0.65622,0.29377,-0.89611
-0.023096,0.0035157,-0.12603,-0.013319,0.19784,-0.90897,-0.31941,-0.84899,-0.010193,-0.23631,0.61043,2.1363,-0.77291,1.799,-0.12021,-2.4617,-0.025856,-0.49786,-0.40911,-0.93599,-0.38802,0.70537,0.28917,-1.3331
-0.022612,-0.0058765,-0.12141,-0.013906,0.20449,-0.88272,-0.37646,-0.82986,0.010074,-0.1194,0.64002,1.8127,-0.70517,1.9459,-0.10676,-3.0277,-0.015424,-0.60595,-0.51234,-0.82488,-0.34783,0.77458,0.27312,-1.6539
-0.020463,-0.024677,-0.11703,-0.022991,0.24783,-0.85417,-0.39399,-0.81584,0.026584,0.078914,0.67492,1.5415,-0.63677,1.8861,-0.082639,-3.3997,0.00049772,-0.72935,-0.61083,-0.75627,-0.28209,0.92525,0.24516,-1.8013
-0.017034,-0.039799,-0.11081,-0.035399,0.2846,-0.80594,-0.36831,-0.78738,0.04503,0.35821,0.72531,1.344,-0.56076,1.6765,-0.061901,-3.57,0.020901,-0.85032,-0.69586,-0.68351,-0.21464,1.1552,0.20927,-1.7464
-0.013534,-0.039626,-0.10089,-0.040693,0.28193,-0.73695,-0.30843,-0.73119,0.067843,0.70111,0.79143,1.1928,-0.46867,1.4475,-0.054547,-3.4749,0.042817,-0.94831,-0.76522,-0.57949,-0.16652,1.3755,0.17157,-1.521
-0.011252,-0.022503,-0.088415,-0.031573,0.23059,-0.66742,-0.23754,-0.65339,0.090367,1.0689,0.86435,1.0326,-0.36057,1.3321,-0.062305,-3.0641,0.062329,-0.99574,-0.81676,-0.44261,-0.15071,1.4568,0.13761,-1.2241
-0.010486,0.0019011,-0.077523,-0.010999,0.14137,-0.62708,-0.18438,-0.57867,0.10454,1.4115,0.93178,0.82347,-0.24907,1.3766,-0.078261,-2.3836,0.075976,-0.97293,-0.84801,-0.2914,-0.16761,1.3178,0.11117,-0.98218
-0.010248,0.01934,-0.072179,0.0084949,0.03154,-0.63285,-0.16837,-0.534,0.10636,1.687,0.98368,0.57485,-0.15331,1.5031,-0.090366,-1.5884,0.082288,-0.88908,-0.8597,-0.15287,-0.20338,0.99043,0.094493,-0.87875
-0.0091637,0.020426,-0.072535,0.013349,-0.086465,-0.6725,-0.18907,-0.52881,0.10014,1.879,1.0142,0.34423,-0.086549,1.5612,-0.087477,-0.86436,0.082582,-0.78875,-0.85784,-0.051303,-0.23405,0.60881,0.088731,-0.90278
-0.0067697,0.0054779,-0.074348,-0.0013767,-0.20794,-0.70844,-0.22893,-0.54825,0.095963,2.0005,1.0197,0.20227,-0.046331,1.4335,-0.065417,-0.32421,0.080163,-0.73417,-0.85115,-0.0016764,-0.23615,0.32784,0.093533,-0.95915
-0.004015,-0.018207,-0.072248,-0.029045,-0.33232,-0.70141,-0.26809,-0.56552,0.10283,2.0826,0.99693,0.18925,-0.014451,1.1155,-0.030054,0.032715,0.078164,-0.77264,-0.84602,-0.0075565,-0.19885,0.23013,0.10589,-0.93734
-0.0025573,-0.043222,-0.064072,-0.057199,-0.45924,-0.6375,-0.29988,-0.5633,0.12331,2.155,0.94377,0.29248,0.03277,0.70813,0.004438,0.27001,0.077548,-0.91032,-0.8436,-0.061286,-0.13034,0.28942,0.11949,-0.78834
-0.003524,-0.066704,-0.052389,-0.076802,-0.58725,-0.53828,-0.33489,-0.54615,0.1532,2.2294,0.86358,0.45607,0.11053,0.33455,0.021479,0.4273,0.076865,-1.1094,-0.8409,-0.14547,-0.053677,0.41122,0.12579,-0.55156
-0.0067628,-0.089235,-0.041943,-0.087261,-0.71359,-0.4459,-0.39066,-0.53382,0.18481,2.2931,0.76877,0.61089,0.21667,0.052413,0.0092311,0.48026,0.073875,-1.3105,-0.83401,-0.23661,0.0054343,0.51079,0.11662,-0.31357
-0.011008,-0.11023,-0.035432,-0.093893,-0.83312,-0.39371,-0.47617,-0.54161,0.21018,2.3133,0.6795,0.70214,0.33294,-0.16903,-0.034266,0.37947,0.067541,-1.4647,-0.81984,-0.31166,0.030732,0.56432,0.087299,-0.13342
-0.014599,-0.12516,-0.031463,-0.1012,-0.93731,-0.38369,-0.58375,-0.56428,0.2224,2.2498,0.61624,0.70032,0.43461,-0.39559,-0.099726,0.12272,0.058671,-1.5566,-0.79566,-0.35607,0.019775,0.59922,0.038587,0.0066238
-0.016156,-0.12791,-0.026331,-0.10848,-1.0163,-0.38605,-0.69411,-0.57612,0.2163,2.0684,0.58991,0.5986,0.50222,-0.65095,-0.16896,-0.21355,0.048921,-1.6041,-0.75864,-0.36992,-0.020821,0.64407,-0.023301,0.18907
-0.015014,-0.11612,-0.017702,-0.11134,-1.0642,-0.35959,-0.78883,-0.54571,0.19045,1.7541,0.59572,0.40788,0.52924,-0.88222,-0.22007,-0.51393,0.039357,-1.6401,-0.70778,-0.3689,-0.083645,0.68878,-0.088533,0.49922
-0.011457,-0.094452,-0.0067712,-0.10697,-1.0828,-0.2768,-0.8592,-0.45342,0.14996,1.3199,0.61513,0.15664,0.52317,-0.99423,-0.23444,-0.696,0.030009,-1.6885,-0.64737,-0.37922,-0.16465,0.68852,-0.14649,0.95884
-0.0067954,-0.07215,0.0028564,-0.097706,-1.0797,-0.1365,-0.90547,-0.29992,0.10663,0.81037,0.62529,-0.10841,0.50132,-0.92183,-0.20394,-0.74908,0.020673,-1.7493,-0.58765,-0.42793,-0.25989,0.60147,-0.18871,1.4999
-0.0029839,-0.0569,0.008202,-0.089633,-1.0601,0.041305,-0.92971,-0.10351,0.074413,0.29663,0.61015,-0.32922,0.48405,-0.68361,-0.1355,-0.7126,0.011967,-1.7999,-0.54004,-0.53166,-0.35846,0.42287,-0.21114,1.9921
-0.001733,-0.050139,0.0089718,-0.087789,-1.0221,0.23041,-0.93092,0.10823,0.062035,-0.13884,0.56712,-0.45297,0.48758,-0.38052,-0.050017,-0.62655,0.0054562,-1.8101,-0.50905,-0.68736,-0.43893,0.18815,-0.21506,2.3035
-0.0035267,-0.048062,0.0069888,-0.092719,-0.96077,0.41013,-0.90718,0.30595,0.068131,-0.42472,0.50593,-0.45079,0.51806,-0.14385,0.025761,-0.507,0.0026916,-1.7592,-0.48766,-0.86905,-0.47442,-0.049805,-0.20599,2.3579
-0.0073148,-0.047422,0.0039521,-0.10159,-0.87908,0.56763,-0.86125,0.4639,0.082892,-0.52394,0.44213,-0.3273,0.56906,-0.067385,0.070993,-0.36298,0.0040382,-1.6458,-0.46098,-1.0328,-0.44492,-0.24368,-0.19088,2.1594
-0.01121,-0.050862,-6.7959e-005,-0.11254,-0.79416,0.69477,-0.80202,0.56565,0.095053,-0.44639,0.38976,-0.11564,0.62419,-0.1607,0.080035,-0.22134,0.0084,-1.4867,-0.41621,-1.1294,-0.34926,-0.35832,-0.17483,1.7776
-0.013666,-0.066589,-0.0059035,-0.12778,-0.73042,0.78755,-0.7383,0.61054,0.098823,-0.24272,0.35714,0.1382,0.66481,-0.34497,0.063432,-0.11756,0.014069,-1.3055,-0.351,-1.1191,-0.20835,-0.36747,-0.15921,1.3087
-0.014201,-0.10168,-0.013112,-0.15187,-0.70219,0.85068,-0.6695,0.61634,0.095747,0.019622,0.34556,0.39159,0.67905,-0.49145,0.039836,-0.053192,0.019873,-1.1188,-0.27338,-0.98288,-0.056479,-0.25726,-0.14268,0.83468
-0.013171,-0.15381,-0.018619,-0.18616,-0.70082,0.90145,-0.58227,0.61322,0.09098,0.2848,0.34875,0.614,0.6667,-0.48568,0.024058,0.032601,0.025484,-0.93018,-0.19395,-0.72529,0.07445,-0.039362,-0.12433,0.40407
-0.011053,-0.20822,-0.017832,-0.22426,-0.69953,0.96524,-0.45766,0.6295,0.087837,0.52306,0.35208,0.78567,0.637,-0.28745,0.018901,0.23212,0.030578,-0.73407,-0.11788,-0.37129,0.16792,0.24297,-0.10644,0.037172
-0.0080183,-0.24351,-0.0077387,-0.25316,-0.67446,1.0617,-0.28498,0.6774,0.085111,0.72152,0.33345,0.89043,0.60122,0.045441,0.015383,0.58979,0.033724,-0.52707,-0.043939,0.038878,0.22511,0.53234,-0.09451,-0.25218
-0.00414,-0.24351,0.010321,-0.26031,-0.62497,1.1903,-0.072759,0.74814,0.078659,0.86106,0.26946,0.91043,0.56589,0.3857,-0.00022241,1.0409,0.032351,-0.31773,0.029988,0.45469,0.2564,0.79141,-0.094022,-0.43909
0.00018478,-0.20759,0.030472,-0.24205,-0.57553,1.3252,0.15068,0.8195,0.065249,0.90385,0.1473,0.82993,0.53128,0.60348,-0.038423,1.4317,0.024232,-0.12598,0.10149,0.82266,0.26968,1.0248,-0.10627,-0.49071
0.0041736,-0.15195,0.045093,-0.20709,-0.55654,1.4254,0.34696,0.86914,0.045398,0.81011,-0.023264,0.64893,0.49477,0.63168,-0.1028,1.6193,0.0094213,0.02827,0.16461,1.0989,0.26496,1.2638,-0.12652,-0.39123
0.0069931,-0.1006,0.048769,-0.17219,-0.58001,1.4522,0.48149,0.88413,0.023378,0.5778,-0.2065,0.39869,0.45411,0.48989,-0.19119,1.5778,-0.009092,0.13935,0.21591,1.2652,0.23869,1.5222,-0.14606,-0.17116
0.0080474,-0.071877,0.0408,-0.15285,-0.63079,1.3874,0.53451,0.86275,0.0047722,0.27295,-0.35206,0.14499,0.40626,0.25702,-0.29858,1.4259,-0.026856,0.22208,0.25852,1.3389,0.19278,1.7597,-0.15689,0.084925
0.006954,-0.069586,0.024791,-0.15511,-0.68098,1.2418,0.50554,0.81251,-0.006599,0.016883,-0.41725,-0.030118,0.34315,0.018499,-0.41828,1.3538,-0.040532,0.30492,0.29899,1.3673,0.13959,1.8901,-0.15595,0.26595
0.0035031,-0.084017,0.0060139,-0.1737,-0.71504,1.0557,0.41136,0.75054,-0.010577,-0.073428,-0.38791,-0.063016,0.25021,-0.17286,-0.54136,1.5051,-0.049555,0.41397,0.33902,1.4048,0.097456,1.8327,-0.14605,0.2854
-0.0019783,-0.1006,-0.011283,-0.19651,-0.74356,0.88788,0.27931,0.70559,-0.010469,0.04437,-0.28446,0.060183,0.11277,-0.30185,-0.6567,1.9026,-0.055591,0.55806,0.37065,1.4825,0.080269,1.5712,-0.13323,0.12394
-0.0080561,-0.10862,-0.024689,-0.21121,-0.79349,0.79684,0.13762,0.71479,-0.011012,0.30967,-0.14883,0.29711,-0.072118,-0.37253,-0.75352,2.4641,-0.06037,0.72359,0.38045,1.5922,0.089327,1.1736,-0.12249,-0.16525
-0.012235,-0.10399,-0.032481,-0.20971,-0.88262,0.81631,0.0059502,0.80999,-0.01572,0.59843,-0.021105,0.57258,-0.28772,-0.39202,-0.82517,3.0812,-0.063802,0.88168,0.36049,1.6927,0.11403,0.75854,-0.1145,-0.49119
-0.01213,-0.086214,-0.032265,-0.18885,-1.0003,0.93773,-0.10984,0.99872,-0.025169,0.80472,0.07838,0.81562,-0.50181,-0.37086,-0.87114,3.6896,-0.063878,1.0036,0.31726,1.7398,0.14033,0.43348,-0.10504,-0.77425
-0.0071095,-0.05524,-0.021393,-0.14985,-1.1115,1.1122,-0.21499,1.2539,-0.03728,0.90351,0.15072,0.98409,-0.68201,-0.33136,-0.89555,4.2782,-0.058323,1.0769,0.27085,1.7171,0.15982,0.24543,-0.087244,-0.9769
0.0010445,-0.012552,0.00050023,-0.098435,-1.1823,1.2764,-0.31617,1.5228,-0.049324,0.94716,0.20577,1.0635,-0.81132,-0.30624,-0.90349,4.8429,-0.046527,1.1131,0.24456,1.6493,0.17252,0.17238,-0.055313,-1.102
0.0092736,0.03472,0.028903,-0.045244,-1.2057,1.3887,-0.41107,1.7522,-0.060222,1.0014,0.24749,1.0487,-0.89155,-0.32083,-0.89836,5.3364,-0.030295,1.1425,0.25226,1.5867,0.18269,0.15024,-0.0078795,-1.1707
0.015336,0.072676,0.05466,-0.0039464,-1.2066,1.452,-0.48522,1.9131,-0.071535,1.0767,0.26922,0.93153,-0.93245,-0.37087,-0.88129,5.6636,-0.013021,1.1954,0.29164,1.5707,0.19254,0.1105,0.050356,-1.2043
0.019006,0.086574,0.068105,0.014373,-1.2198,1.5056,-0.51906,2.0099,-0.086561,1.1119,0.26096,0.70594,-0.93675,-0.41339,-0.85128,5.732,0.0019396,1.2799,0.34682,1.6048,0.19991,0.0062389,0.10947,-1.2211
0.021358,0.070771,0.064851,0.0076717,-1.2579,1.5945,-0.50048,2.0706,-0.10836,1.0229,0.22023,0.385,-0.89446,-0.37672,-0.80348,5.5204,0.012654,1.3718,0.39726,1.6506,0.20118,-0.18034,0.15731,-1.2421
0.023003,0.034291,0.048977,-0.014985,-1.2956,1.7391,-0.43286,2.1296,-0.13815,0.76994,0.15584,0.0072561,-0.79126,-0.18109,-0.72655,5.1144,0.01919,1.4277,0.42764,1.6539,0.19572,-0.44278,0.18321,-1.2909
0.023216,-0.0040012,0.030707,-0.038619,-1.2824,1.9282,-0.3323,2.2136,-0.17496,0.38598,0.081567,-0.37842,-0.62248,0.24128,-0.60375,4.679,0.023493,1.4159,0.43403,1.5822,0.18728,-0.75939,0.18071,-1.3847
0.020876,-0.027989,0.019817,-0.051739,-1.1761,2.1362,-0.21637,2.3358,-0.21621,-0.055019,0.0057767,-0.73978,-0.39962,0.92798,-0.42191,4.3812,0.028746,1.3466,0.42469,1.4509,0.18123,-1.1019,0.14821,-1.5238
0.016111,-0.034733,0.019508,-0.052879,-0.97161,2.3426,-0.0938,2.4933,-0.25852,-0.49644,-0.073347,-1.0761,-0.14426,1.8654,-0.18614,4.3053,0.038283,1.2774,0.41579,1.3181,0.18081,-1.4419,0.087658,-1.6919
0.010738,-0.034184,0.025355,-0.049185,-0.70338,2.5368,0.036399,2.6648,-0.29806,-0.92816,-0.16315,-1.4063,0.12352,2.9688,0.070074,4.4129,0.054121,1.2877,0.42388,1.2531,0.18585,-1.7533,0.0032204,-1.8661
0.0068374,-0.038717,0.02992,-0.048655,-0.4212,2.7068,0.17604,2.8135,-0.33087,-1.3627,-0.26706,-1.7401,0.39041,4.0825,0.29098,4.5704,0.07567,1.4371,0.45815,1.2987,0.19508,-2.0112,-0.098937,-2.0253
0.0049322,-0.051807,0.0291,-0.052962,-0.15909,2.8309,0.31707,2.9007,-0.35342,-1.7871,-0.37896,-2.0573,0.64447,5.0177,0.42323,4.6273,0.099455,1.7372,0.51597,1.451,0.20897,-2.1922,-0.20965,-2.1486
0.0037752,-0.065512,0.025062,-0.056884,0.079301,2.887,0.43873,2.9073,-0.36348,-2.1423,-0.48594,-2.3168,0.86729,5.6222,0.44636,4.4949,0.12035,2.1524,0.58489,1.667,0.23024,-2.2793,-0.31635,-2.2099
0.0020957,-0.06822,0.023707,-0.054055,0.31014,2.8752,0.51557,2.8469,-0.36068,-2.3564,-0.57662,-2.4874,1.0354,5.8426,0.38792,4.1792,0.13376,2.6258,0.65031,1.8918,0.26127,-2.2719,-0.40488,-2.1798
0.00049512,-0.055032,0.029245,-0.043071,0.54517,2.8281,0.5309,2.758,-0.34632,-2.4049,-0.64761,-2.5769,1.1345,5.7362,0.30936,3.752,0.13742,3.1079,0.70495,2.086,0.30118,-2.1893,-0.46364,-2.0401
0.0013553,-0.031461,0.040613,-0.02817,0.77468,2.7938,0.48606,2.6766,-0.32252,-2.3437,-0.70362,-2.633,1.1752,5.4217,0.26944,3.29,0.13184,3.5699,0.75409,2.2388,0.34551,-2.0616,-0.48776,-1.8027
0.0065881,-0.007888,0.052475,-0.014332,0.97009,2.8003,0.39957,2.6097,-0.29153,-2.2825,-0.75253,-2.7144,1.1955,5.0056,0.28973,2.8304,0.11938,4.0006,0.8132,2.3619,0.38894,-1.9102,-0.48077,-1.5131
0.015326,0.0093272,0.059445,-0.0021362,1.1016,2.8302,0.29732,2.5325,-0.25573,-2.3174,-0.80121,-2.8534,1.2425,4.5404,0.34732,2.3701,0.10295,4.397,0.89911,2.4728,0.42876,-1.7345,-0.45272,-1.2329
0.023882,0.021757,0.059706,0.012266,1.1553,2.831,0.20069,2.4114,-0.21828,-2.4751,-0.85547,-3.0371,1.3444,4.0394,0.39944,1.8985,0.085326,4.7604,1.02,2.5816,0.46586,-1.5214,-0.41616,-1.012
0.028202,0.034826,0.05523,0.031918,1.1383,2.7544,0.11969,2.2358,-0.18338,-2.7081,-0.92251,-3.2176,1.4922,3.5231,0.41988,1.4267,0.06892,5.0962,1.1699,2.6881,0.50247,-1.2715,-0.38217,-0.8693
0.026738,0.050299,0.049084,0.053773,1.0711,2.5948,0.053557,2.0297,-0.15555,-2.9359,-1.0108,-3.3395,1.6441,3.0439,0.41779,0.98592,0.055794,5.4108,1.3313,2.7905,0.539,-1.0196,-0.35803,-0.79769
0.021289,0.062759,0.042673,0.0689,0.97665,2.3952,-0.0032134,1.835,-0.13814,-3.0931,-1.1246,-3.3636,1.7494,2.6617,0.42492,0.60048,0.047478,5.7027,1.4834,2.8964,0.57317,-0.82485,-0.34656,-0.78443
0.015318,0.063459,0.035305,0.068732,0.875,2.216,-0.05421,1.6804,-0.13183,-3.148,-1.2575,-3.273,1.7742,2.3952,0.46418,0.26599,0.044814,5.9545,1.6111,3.0245,0.60261,-0.73257,-0.34671,-0.82933
0.011383,0.04808,0.025986,0.052262,0.78232,2.092,-0.097489,1.5626,-0.13426,-3.0908,-1.3902,-3.0676,1.7124,2.1981,0.52789,-0.044655,0.048008,6.1357,1.7097,3.1932,0.6284,-0.7366,-0.3552,-0.94438
0.0098156,0.021494,0.01532,0.027926,0.71051,2.0116,-0.12637,1.4537,-0.1411,-2.9184,-1.4979,-2.7611,1.5788,1.9875,0.58395,-0.35363,0.056672,6.2171,1.7824,3.4005,0.65601,-0.77622,-0.36901,-1.1356
0.0093335,-0.0047285,0.0056138,0.0082444,0.66418,1.9306,-0.13337,1.3266,-0.14793,-2.642,-1.563,-2.3872,1.3938,1.699,0.60292,-0.65704,0.069537,6.1859,1.8332,3.6119,0.69196,-0.7754,-0.38764,-1.3831
0.0085874,-0.02009,-0.00075464,0.0013899,0.63783,1.8065,-0.11477,1.1753,-0.15175,-2.3091,-1.585,-2.0067,1.172,1.3187,0.58051,-0.93092,0.084019,6.0524,1.8606,3.7688,0.73862,-0.69573,-0.41331,-1.6365
0.0071939,-0.021865,-0.002996,0.0063577,0.61832,1.6263,-0.073243,1.0144,-0.15137,-2.0124,-1.5809,-1.6985,0.9203,0.86814,0.53612,-1.157,0.09638,5.844,1.8563,3.8191,0.79127,-0.56175,-0.448,-1.832
0.0056932,-0.015435,-0.0020448,0.015448,0.59294,1.4067,-0.017368,0.8614,-0.1469,-1.8583,-1.5746,-1.5277,0.64312,0.36604,0.49055,-1.3409,0.10298,5.5936,1.8123,3.7495,0.83929,-0.4394,-0.48898,-1.9211
0.0048992,-0.0084004,0.00073623,0.021719,0.55745,1.1734,0.04149,0.7195,-0.13885,-1.9094,-1.5839,-1.5087,0.34775,-0.18519,0.44515,-1.5031,0.10202,5.3311,1.7291,3.5961,0.86981,-0.3874,-0.52641,-1.8912
0.0053321,-0.0037777,0.0047969,0.025044,0.51757,0.93828,0.09312,0.57567,-0.12774,-2.1396,-1.6124,-1.5914,0.048102,-0.7719,0.38206,-1.6534,0.09432,5.0794,1.6203,3.4205,0.86997,-0.42146,-0.54597,-1.7649
0.006974,0.0018579,0.010313,0.031681,0.48261,0.6928,0.1312,0.41358,-0.11409,-2.442,-1.6499,-1.6869,-0.23249,-1.3329,0.28458,-1.7764,0.082322,4.851,1.5082,3.2668,0.82653,-0.51652,-0.53585,-1.5783
0.0092337,0.013944,0.016984,0.047785,0.45675,0.42119,0.15387,0.22919,-0.098509,-2.6893,-1.6815,-1.7212,-0.46005,-1.7651,0.15798,-1.8487,0.067939,4.6449,1.4146,3.1327,0.72581,-0.63717,-0.49407,-1.3549
0.01109,0.033489,0.023148,0.072544,0.43496,0.12013,0.16268,0.035871,-0.081579,-2.8079,-1.6966,-1.6789,-0.59528,-1.985,0.031239,-1.8749,0.051274,4.4464,1.3525,2.9792,0.5582,-0.76347,-0.4309,-1.0941
0.011535,0.054692,0.026339,0.097107,0.40625,-0.19052,0.16113,-0.14339,-0.063938,-2.8122,-1.6951,-1.6056,-0.60918,-2.0013,-0.062228,-1.9073,0.031469,4.2369,1.327,2.7757,0.3273,-0.88915,-0.36478,-0.78354
0.01022,0.068977,0.024994,0.11065,0.36075,-0.474,0.15377,-0.289,-0.04663,-2.7788,-1.6863,-1.5676,-0.50446,-1.934,-0.10853,-2.0265,0.0090218,4.0094,1.3422,2.5455,0.057566,-1.0006,-0.31369,-0.42236
0.0077989,0.071882,0.019769,0.10867,0.29555,-0.69487,0.14596,-0.39302,-0.031417,-2.7829,-1.6827,-1.5996,-0.32732,-1.9519,-0.12228,-2.2892,-0.012689,3.781,1.4071,2.3745,-0.20844,-1.0666,-0.28717,-0.03773
0.0054948,0.066519,0.013222,0.096469,0.21604,-0.83657,0.14341,-0.45891,-0.020293,-2.8473,-1.6917,-1.6806,-0.15499,-2.17,-0.13456,-2.6835,-0.028456,3.5867,1.5311,2.369,-0.4263,-1.0591,-0.28303,0.32203
0.0041106,0.060433,0.0079958,0.084574,0.13332,-0.90736,0.15091,-0.49615,-0.014159,-2.9384,-1.7109,-1.7531,-0.059095,-2.5813,-0.1704,-3.1277,-0.034404,3.4588,1.7117,2.5895,-0.57173,-0.99158,-0.29028,0.61167
0.0033857,0.058757,0.0049831,0.080109,0.05947,-0.93284,0.17044,-0.51547,-0.011913,-3.005,-1.7306,-1.7673,-0.065777,-3.0725,-0.23293,-3.5145,-0.030829,3.4027,1.9242,3.0044,-0.65284,-0.93675,-0.29625,0.81195
0.0024397,0.060032,0.0029771,0.081523,0.0025096,-0.94167,0.19958,-0.52743,-0.011536,-3.0205,-1.7419,-1.7146,-0.14152,-3.5071,-0.30389,-3.7703,-0.022292,3.3905,2.1242,3.4982,-0.70102,-0.99405,-0.29385,0.93514
0.00097443,0.058508,1.913e-005,0.081323,-0.037458,-0.95406,0.23149,-0.54256,-0.013108,-2.9955,-1.7444,-1.6263,-0.21801,-3.8091,-0.3572,-3.8872,-0.014772,3.3759,2.265,3.9282,-0.74347,-1.2203,-0.2847,1.0132
-2.7145e-005,0.05061,-0.0047495,0.074092,-0.068623,-0.9788,0.25704,-0.57037,-0.021237,-2.951,-1.7467,-1.5428,-0.2405,-3.9918,-0.37495,-3.9116,-0.011966,3.3226,2.3202,4.1943,-0.77644,-1.5736,-0.27608,1.0823
0.00094068,0.039355,-0.010319,0.062302,-0.10268,-1.017,0.26815,-0.61642,-0.043764,-2.884,-1.7588,-1.4794,-0.20427,-4.1221,-0.35608,-3.9031,-0.013411,3.2223,2.2952,4.2779,-0.76207,-1.9197,-0.2736,1.1761
0.004183,0.032457,-0.014745,0.054454,-0.14638,-1.0667,0.26061,-0.67958,-0.086265,-2.7589,-1.7826,-1.4161,-0.1523,-4.2589,-0.31464,-3.8957,-0.015491,3.0912,2.219,4.2301,-0.65617,-2.1036,-0.27455,1.326
0.0078017,0.035807,-0.016953,0.057251,-0.19477,-1.1242,0.23495,-0.75184,-0.14602,-2.537,-1.8076,-1.3176,-0.13749,-4.4139,-0.27093,-3.8827,-0.014132,2.949,2.1238,4.1253,-0.44967,-2.0379,-0.26743,1.5577
0.0086949,0.048249,-0.017841,0.069083,-0.23208,-1.1814,0.19531,-0.82108,-0.21068,-2.2209,-1.8187,-1.1666,-0.18104,-4.5537,-0.24114,-3.8249,-0.0071122,2.7986,2.0271,4.0139,-0.19104,-1.7418,-0.23896,1.8789
0.0050096,0.062244,-0.019719,0.08085,-0.24141,-1.2241,0.14774,-0.87472,-0.26396,-1.874,-1.8059,-0.98403,-0.25969,-4.6277,-0.23094,-3.6699,0.0052703,2.6236,1.9278,3.9038,0.032887,-1.3061,-0.18423,2.2657
-0.0020411,0.06959,-0.024518,0.083371,-0.21698,-1.2353,0.099284,-0.90224,-0.29473,-1.593,-1.7687,-0.81812,-0.32918,-4.5987,-0.23608,-3.3758,0.020864,2.4037,1.8162,3.7739,0.14916,-0.81982,-0.11272,2.663
-0.0087539,0.067023,-0.032206,0.074656,-0.16976,-1.2016,0.057981,-0.89643,-0.30317,-1.4496,-1.7101,-0.71126,-0.36122,-4.458,-0.24942,-2.9353,0.036685,2.1349,1.6867,3.603,0.14692,-0.32153,-0.044936,3.0028
-0.011601,0.057203,-0.040718,0.060685,-0.12122,-1.1208,0.032244,-0.8549,-0.29923,-1.4448,-1.6271,-0.67009,-0.36274,-4.2285,-0.26929,-2.3963,0.04978,1.8365,1.5427,3.3911,0.083963,0.18829,-0.0012579,3.2295
-0.0097827,0.045137,-0.047458,0.049512,-0.089226,-1.0047,0.028613,-0.78281,-0.2951,-1.5141,-1.5088,-0.66651,-0.36449,-3.959,-0.30273,-1.8632,0.058121,1.5413,1.3926,3.1605,0.044589,0.69917,0.01002,3.3151
-0.0055304,0.034093,-0.051183,0.044514,-0.076275,-0.87767,0.048613,-0.69538,-0.29763,-1.5809,-1.3487,-0.673,-0.39311,-3.7116,-0.35992,-1.4659,0.0616,1.2779,1.2431,2.9444,0.080613,1.1629,-0.0025474,3.2572
-0.0020042,0.024759,-0.052805,0.042875,-0.068861,-0.76943,0.087179,-0.61688,-0.30608,-1.6215,-1.1597,-0.70523,-0.45176,-3.5402,-0.44292,-1.3022,0.062432,1.0596,1.0989,2.7699,0.18056,1.518,-0.019084,3.0693
-0.00072968,0.017592,-0.05446,0.040078,-0.048227,-0.70799,0.13442,-0.57455,-0.31556,-1.6916,-0.97826,-0.83393,-0.52299,-3.4663,-0.53752,-1.3866,0.06407,0.88466,0.96565,2.6452,0.28864,1.7417,-0.020566,2.7771
-0.00078481,0.014926,-0.057615,0.035407,-0.0040539,-0.7131,0.17987,-0.58915,-0.3221,-1.8941,-0.84914,-1.1477,-0.58606,-3.4671,-0.61584,-1.6437,0.06878,0.74219,0.85176,2.5514,0.35395,1.8724,0.00017028,2.422
-0.00026446,0.019802,-0.061656,0.032854,0.059071,-0.7928,0.21622,-0.66734,-0.32478,-2.3074,-0.79964,-1.6871,-0.63053,-3.486,-0.64952,-1.9555,0.0755,0.61432,0.76276,2.4432,0.36734,1.9743,0.035316,2.0639
0.0014995,0.032123,-0.064116,0.036566,0.12644,-0.94235,0.24037,-0.8001,-0.32387,-2.9202,-0.82184,-2.3972,-0.65594,-3.4641,-0.62493,-2.2302,0.079984,0.47313,0.69152,2.2623,0.3576,2.0742,0.068293,1.7678
0.0030557,0.045919,-0.062365,0.045449,0.18447,-1.1445,0.25208,-0.96717,-0.31807,-3.6131,-0.8764,-3.1348,-0.66264,-3.373,-0.54967,-2.4432,0.077579,0.28051,0.61389,1.9615,0.35568,2.1322,0.084768,1.5772
0.0020702,0.051122,-0.055552,0.052415,0.22914,-1.3702,0.25274,-1.1438,-0.30406,-4.1986,-0.91463,-3.7277,-0.64609,-3.2275,-0.44684,-2.6229,0.066707,-0.00037957,0.497,1.531,0.36212,2.0788,0.081276,1.4913
-0.0024629,0.039392,-0.045388,0.049344,0.26586,-1.5807,0.24561,-1.3057,-0.27958,-4.4983,-0.9027,-4.0488,-0.59995,-3.0665,-0.34237,-2.8031,0.05023,-0.38429,0.3175,1.0084,0.34616,1.8852,0.066283,1.4641
-0.009012,0.0097975,-0.035263,0.033406,0.30209,-1.7342,0.23642,-1.4315,-0.24716,-4.4208,-0.83191,-4.0608,-0.52234,-2.9188,-0.25508,-2.9854,0.033477,-0.84763,0.07768,0.46235,0.27433,1.6017,0.053799,1.4306
-0.014387,-0.030182,-0.028381,0.0091261,0.3401,-1.799,0.23222,-1.5048,-0.21523,-3.9959,-0.71224,-3.811,-0.4162,-2.7749,-0.19445,-3.1426,0.020487,-1.332,-0.19304,-0.042006,0.1406,1.3261,0.054476,1.3427
-0.016017,-0.06929,-0.026166,-0.015482,0.37587,-1.7677,0.23817,-1.5182,-0.19485,-3.3492,-0.55841,-3.3938,-0.28302,-2.5898,-0.16312,-3.2484,0.011518,-1.769,-0.45392,-0.47497,-0.028167,1.1306,0.070195,1.192
-0.01383,-0.099303,-0.027856,-0.035086,0.40425,-1.664,0.25464,-1.4771,-0.19429,-2.6268,-0.38101,-2.9064,-0.11834,-2.3119,-0.15833,-3.2999,0.0037763,-2.1123,-0.67607,-0.84858,-0.19303,1.0117,0.095072,1.0046
-0.010282,-0.11894,-0.031326,-0.050115,0.42519,-1.5344,0.27752,-1.4003,-0.21497,-1.9193,-0.18726,-2.421,0.08263,-1.9215,-0.17035,-3.3086,-0.0054243,-2.3542,-0.85662,-1.1946,-0.32832,0.90734,0.12108,0.81684
-0.0085849,-0.13225,-0.034479,-0.06451,0.44509,-1.4248,0.30182,-1.3134,-0.25153,-1.2332,0.013243,-1.9768,0.31171,-1.4493,-0.18208,-3.2747,-0.015807,-2.5183,-1.0141,-1.5317,-0.42933,0.76124,0.14366,0.65114
-0.01048,-0.14341,-0.036354,-0.080824,0.47192,-1.3565,0.32534,-1.238,-0.29526,-0.52921,0.20575,-1.5866,0.53904,-0.96694,-0.17489,-3.1789,-0.023885,-2.6353,-1.1689,-1.846,-0.49934,0.57418,0.1637,0.50895
-0.015175,-0.15251,-0.03747,-0.09737,0.50808,-1.3172,0.34899,-1.1829,-0.33772,0.20616,0.37408,-1.2509,0.72002,-0.55762,-0.13947,-3.0034,-0.025387,-2.724,-1.3244,-2.0995,-0.53313,0.39784,0.1853,0.38156
-0.020105,-0.15575,-0.039315,-0.10973,0.54674,-1.2723,0.37378,-1.1408,-0.37146,0.91717,0.50777,-0.97036,0.81578,-0.28785,-0.08363,-2.7647,-0.018327,-2.7916,-1.4648,-2.26,-0.51546,0.28307,0.21193,0.26605
-0.022823,-0.14956,-0.0433,-0.11469,0.57451,-1.1896,0.39769,-1.0942,-0.3882,1.5028,0.60706,-0.75036,0.81287,-0.19566,-0.029115,-2.5213,-0.00441,-2.8524,-1.5712,-2.3316,-0.43647,0.23421,0.24376,0.17194
-0.022605,-0.13455,-0.049615,-0.11275,0.57906,-1.0585,0.41589,-1.025,-0.37763,1.8904,0.68198,-0.59321,0.72721,-0.29377,0.0021361,-2.3412,0.012061,-2.9446,-1.644,-2.3681,-0.30805,0.2106,0.27758,0.11431
-0.020638,-0.11581,-0.056582,-0.107,0.5572,-0.89407,0.42417,-0.92408,-0.33013,2.0953,0.74678,-0.48418,0.59053,-0.5753,0.0029603,-2.2521,0.026664,-3.1277,-1.7105,-2.4581,-0.16367,0.16891,0.30867,0.10101
-0.018802,-0.099293,-0.060947,-0.10011,0.51876,-0.72628,0.42209,-0.79781,-0.24279,2.213,0.81298,-0.38548,0.43157,-1.0119,-0.013754,-2.2177,0.036781,-3.4564,-1.8104,-2.6888,-0.039337,0.10281,0.33321,0.12511
-0.018095,-0.087774,-0.059184,-0.092635,0.4836,-0.58651,0.4128,-0.66916,-0.12428,2.3465,0.88444,-0.24828,0.2672,-1.5454,-0.022748,-2.1588,0.041664,-3.9479,-1.9679,-3.1045,0.048701,0.043717,0.3498,0.16848
-0.017982,-0.080233,-0.049278,-0.084196,0.47203,-0.49937,0.39966,-0.57271,0.0062511,2.528,0.95588,-0.037255,0.10848,-2.0841,-0.00069218,-2.0066,0.040986,-4.5647,-2.172,-3.6816,0.1105,0.026569,0.35936,0.21316
-0.017097,-0.075015,-0.032015,-0.076005,0.49289,-0.48053,0.38343,-0.54315,0.12682,2.6992,1.0146,0.25036,-0.027545,-2.513,0.062766,-1.7487,0.033425,-5.2274,-2.3812,-4.3346,0.16796,0.057217,0.36372,0.25211
-0.01464,-0.073415,-0.010906,-0.071569,0.53639,-0.53418,0.36281,-0.59942,0.22219,2.7655,1.0449,0.58641,-0.1143,-2.7204,0.16255,-1.4373,0.016773,-5.8478,-2.5496,-4.9535,0.23228,0.11245,0.3635,0.29248
-0.011234,-0.079615,0.009327,-0.074297,0.57772,-0.64761,0.33788,-0.73145,0.28879,2.677,1.0337,0.93175,-0.12587,-2.6334,0.28249,-1.1607,-0.010255,-6.3629,-2.6548,-5.4522,0.29284,0.16891,0.35711,0.35001
-0.0085358,-0.096305,0.024908,-0.083958,0.59116,-0.78799,0.31268,-0.89871,0.33203,2.472,0.97684,1.2575,-0.053497,-2.247,0.40131,-0.99842,-0.045961,-6.7499,-2.7069,-5.8006,0.32601,0.22867,0.34182,0.43773
-0.0079496,-0.11968,0.034522,-0.095393,0.5666,-0.90982,0.2942,-1.0452,0.35919,2.2523,0.88268,1.5519,0.085333,-1.6341,0.49739,-0.98422,-0.085221,-7.0193,-2.7339,-6.0198,0.31519,0.31451,0.31657,0.5549
-0.0095195,-0.13869,0.039387,-0.10112,0.51625,-0.97419,0.28826,-1.1258,0.37371,2.115,0.77126,1.813,0.25321,-0.92539,0.55241,-1.0886,-0.12138,-7.1947,-2.7577,-6.1487,0.26458,0.43984,0.28444,0.68164
-0.011865,-0.14024,0.042055,-0.096031,0.46581,-0.96968,0.29584,-1.1292,0.37467,2.0963,0.66813,2.0377,0.41012,-0.26344,0.55493,-1.2262,-0.14936,-7.2944,-2.7801,-6.2075,0.19603,0.58393,0.25253,0.78301
-0.013142,-0.11691,0.044912,-0.080535,0.43585,-0.91927,0.3127,-1.0819,0.36049,2.1665,0.59477,2.2193,0.52964,0.25012,0.50284,-1.2883,-0.16787,-7.3217,-2.7863,-6.1868,0.13347,0.69824,0.22871,0.82234
-0.012247,-0.071686,0.049339,-0.059729,0.42758,-0.86566,0.33214,-1.0301,0.33257,2.2702,0.56041,2.3516,0.60453,0.58512,0.40284,-1.1935,-0.17926,-7.2633,-2.7602,-6.0653,0.088775,0.73939,0.21727,0.77803
-0.0094013,-0.016386,0.055781,-0.039631,0.4241,-0.84323,0.34812,-1.0097,0.29594,2.3738,0.55989,2.4333,0.64105,0.77362,0.26685,-0.93405,-0.18743,-7.0947,-2.6958,-5.8374,0.059486,0.6991,0.21668,0.65502
-0.0057997,0.03477,0.064239,-0.023662,0.40552,-0.85651,0.35662,-1.0257,0.25718,2.4852,0.57896,2.4669,0.6494,0.86874,0.10851,-0.58639,-0.19538,-6.7941,-2.5985,-5.5247,0.037253,0.60544,0.22089,0.48394
-0.0026661,0.071784,0.074562,-0.011982,0.36494,-0.8808,0.35532,-1.0546,0.22217,2.6351,0.60319,2.4559,0.6373,0.90327,-0.057644,-0.26875,-0.204,-6.3632,-2.4792,-5.1636,0.017519,0.49733,0.22313,0.30884
-0.00039783,0.091679,0.086346,-0.0035694,0.31234,-0.88392,0.34318,-1.0669,0.1952,2.8406,0.62455,2.4037,0.60893,0.87912,-0.21477,-0.067452,-0.21235,-5.8439,-2.3503,-4.7831,0.0024407,0.39847,0.21916,0.17116
0.0016462,0.096773,0.098723,0.001271,0.26476,-0.85157,0.32095,-1.0508,0.17917,3.0777,0.64131,2.3141,0.56642,0.79116,-0.34406,0.017664,-0.21892,-5.3164,-2.226,-4.3969,-0.003056,0.31411,0.20817,0.099058
0.0045692,0.0907,0.11034,0.00022789,0.23304,-0.79672,0.29168,-1.0199,0.17538,3.2798,0.65283,2.1878,0.51071,0.65802,-0.42955,0.065835,-0.22265,-4.8678,-2.1223,-4.014,0.0037116,0.24883,0.19174,0.10419
0.0089128,0.075304,0.11955,-0.0094558,0.21734,-0.74736,0.2597,-1,0.18258,3.3635,0.65509,2.0178,0.44146,0.52617,-0.46514,0.16939,-0.22314,-4.5449,-2.0501,-3.6539,0.021796,0.22172,0.17266,0.18208
0.013884,0.050267,0.12478,-0.028586,0.21376,-0.72447,0.22832,-1.0083,0.19653,3.268,0.64201,1.7906,0.35778,0.44008,-0.45808,0.36011,-0.21995,-4.3201,-2.0045,-3.3469,0.048271,0.25905,0.15456,0.31162
0.017508,0.015348,0.12492,-0.05459,0.22306,-0.72897,0.19832,-1.0406,0.21129,2.989,0.61188,1.499,0.26048,0.40548,-0.42493,0.58488,-0.21161,-4.0995,-1.9587,-3.1141,0.079225,0.36863,0.14147,0.45601
0.017855,-0.026547,0.11982,-0.081993,0.25082,-0.74624,0.169,-1.0766,0.222,2.59,0.57282,1.1604,0.15434,0.38227,-0.3822,0.74618,-0.19532,-3.7721,-1.8742,-2.947,0.10843,0.52028,0.13581,0.57093
0.014594,-0.06791,0.11068,-0.10456,0.29797,-0.76112,0.14107,-1.0946,0.22714,2.1815,0.54137,0.82246,0.048262,0.31741,-0.33878,0.76949,-0.16807,-3.2714,-1.7222,-2.8088,0.12617,0.65291,0.13536,0.62173
0.0096607,-0.098514,0.099926,-0.11803,0.35211,-0.76826,0.11827,-1.0831,0.22848,1.8752,0.53384,0.54354,-0.047082,0.19065,-0.29552,0.64265,-0.12904,-2.6088,-1.5053,-2.6619,0.12172,0.70546,0.13196,0.60069
0.0062439,-0.11023,0.090382,-0.12189,0.39118,-0.7697,0.1056,-1.0426,0.22881,1.7371,0.55656,0.35868,-0.12245,0.033017,-0.2507,0.40271,-0.081778,-1.8584,-1.2596,-2.5008,0.089568,0.64864,0.11473,0.53115
0.0065872,-0.10195,0.084089,-0.11921,0.39918,-0.7657,0.10564,-0.98099,0.22942,1.7627,0.60236,0.25595,-0.17242,-0.09813,-0.20533,0.093829,-0.034195,-1.1102,-1.0362,-2.36,0.034789,0.49605,0.07698,0.45304
0.01026,-0.080946,0.08145,-0.11427,0.38059,-0.75151,0.11672,-0.91008,0.22945,1.8877,0.65528,0.18464,-0.19651,-0.1642,-0.16319,-0.25948,0.0041405,-0.42625,-0.87299,-2.2876,-0.027362,0.29164,0.022411,0.39889
0.01439,-0.05913,0.081214,-0.10971,0.35822,-0.72555,0.13525,-0.84676,0.22762,2.0231,0.69923,0.089917,-0.19952,-0.17081,-0.12659,-0.64178,0.026118,0.1723,-0.77545,-2.303,-0.078562,0.087373,-0.034923,0.37783
0.015845,-0.046315,0.081223,-0.10521,0.35331,-0.70067,0.16003,-0.81261,0.22428,2.0896,0.72384,-0.054561,-0.19076,-0.15336,-0.093239,-1.0165,0.029824,0.68798,-0.7196,-2.3728,-0.1067,-0.074397,-0.078151,0.37718
0.013681,-0.04495,0.079429,-0.098883,0.36368,-0.70373,0.19358,-0.82574,0.22166,2.0345,0.72434,-0.24136,-0.18097,-0.13968,-0.058135,-1.3126,0.018222,1.1227,-0.67195,-2.426,-0.11115,-0.16966,-0.097933,0.3767
0.0098685,-0.049666,0.074727,-0.089878,0.36044,-0.75836,0.23816,-0.88683,0.22166,1.8316,0.69809,-0.45047,-0.17704,-0.12562,-0.018542,-1.4467,-0.0034203,1.4678,-0.61073,-2.395,-0.10121,-0.1967,-0.098227,0.36101
0.0076992,-0.05126,0.067401,-0.079446,0.30933,-0.86258,0.2895,-0.97064,0.22333,1.478,0.64273,-0.67155,-0.1776,-0.08407,0.023193,-1.3645,-0.029884,1.7118,-0.53402,-2.2537,-0.089742,-0.17647,-0.093251,0.32158
0.0092467,-0.041762,0.059075,-0.069219,0.20107,-0.98192,0.33459,-1.0352,0.22278,0.99633,0.55826,-0.90373,-0.17332,0.0049538,0.062211,-1.0693,-0.056415,1.8525,-0.45171,-2.0214,-0.086872,-0.1448,-0.098009,0.25295
0.013936,-0.017427,0.052089,-0.058379,0.0655,-1.0688,0.35672,-1.0479,0.21637,0.43709,0.45053,-1.1352,-0.15353,0.13364,0.096488,-0.61699,-0.077936,1.8987,-0.3708,-1.737,-0.097247,-0.13331,-0.11935,0.15371
0.019214,0.020847,0.048413,-0.043104,-0.043752,-1.0966,0.3447,-1.0122,0.20463,-0.12985,0.33191,-1.328,-0.1153,0.27367,0.12915,-0.087437,-0.089198,1.863,-0.28661,-1.425,-0.12089,-0.14759,-0.15338,0.034794
0.022483,0.068122,0.048635,-0.019809,-0.083635,-1.0828,0.29925,-0.97342,0.19302,-0.63868,0.21727,-1.4297,-0.067972,0.40143,0.16474,0.44379,-0.086861,1.757,-0.18539,-1.0816,-0.15571,-0.15965,-0.18953,-0.074759
0.0226,0.11596,0.051727,0.010244,-0.048729,-1.0791,0.23183,-0.99426,0.18791,-1.0516,0.11767,-1.4064,-0.028946,0.51514,0.20272,0.91758,-0.071878,1.5964,-0.054241,-0.68983,-0.19961,-0.12558,-0.21712,-0.13749
