-6.5789e-010,-2.3673e-009,-2.429e-009,9.3571e-010,-7.5243e-011,2.4058e-009,3.3551e-009,-3.3049e-009,3.8007e-010,3.139e-009,6.0387e-010,2.5062e-009,-7.2407e-009,-1.6482e-008,6.6175e-010,4.1615e-009,1.5242e-010,5.3384e-009,-1.2483e-009,4.5898e-009,1.9872e-010,1.9235e-009,-1.3563e-009,1.2847e-008
-1.7906e-008,-6.5266e-008,-6.6987e-008,2.5873e-008,-1.4773e-009,6.6251e-008,9.2751e-008,-9.1257e-008,1.0491e-008,8.6545e-008,1.6622e-008,6.9386e-008,-2.0162e-007,-4.5477e-007,1.8372e-008,1.153e-007,4.1771e-009,1.4726e-007,-3.4737e-008,1.2701e-007,5.4836e-009,5.2552e-008,-3.7221e-008,3.5461e-007
-2.3664e-007,-8.7405e-007,-8.975e-007,3.4788e-007,-1.0371e-008,8.87e-007,1.2467e-006,-1.2246e-006,1.4061e-007,1.1598e-006,2.2211e-007,9.3421e-007,-2.7311e-006,-6.0976e-006,2.4804e-007,1.5535e-006,5.5252e-008,1.9744e-006,-4.6995e-007,1.7092e-006,7.3697e-008,6.9777e-007,-4.9644e-007,4.756e-006
-2.0228e-006,-7.5748e-006,-7.782e-006,3.0298e-006,6.3983e-009,7.6928e-006,1.0854e-005,-1.064e-005,1.2187e-006,1.0065e-005,1.9188e-006,8.1502e-006,-2.3979e-005,-5.2927e-005,2.1701e-006,1.3561e-005,4.6936e-007,1.7138e-005,-4.1181e-006,1.4905e-005,6.4255e-007,5.9985e-006,-4.2874e-006,4.1288e-005
-1.257e-005,-4.7742e-005,-4.9073e-005,1.9207e-005,7.5924e-007,4.8578e-005,6.8797e-005,-6.7255e-005,7.6754e-006,6.3573e-005,1.2036e-005,5.1788e-005,-0.00015339,-0.00033421,1.3833e-005,8.6196e-005,2.8727e-006,0.00010825,-2.6273e-005,9.4664e-005,4.0841e-006,3.7523e-005,-2.6946e-005,0.00026071
-6.0495e-005,-0.00023315,-0.00023974,9.4389e-005,7.8888e-006,0.000238,0.00033826,-0.00032947,3.7406e-005,0.00031138,5.8356e-005,0.00025541,-0.00076191,-0.0016354,6.8475e-005,0.00042507,1.3461e-005,0.00053001,-0.00013004,0.00046657,2.0156e-005,0.00018195,-0.00013132,0.0012756
-0.00023452,-0.00091758,-0.00094357,0.00037388,5.0784e-005,0.00094113,0.001342,-0.0013008,0.00014666,0.0012303,0.00022716,0.0010172,-0.0030575,-0.0064499,0.00027392,0.0016916,5.0037e-005,0.0020923,-0.00051949,0.0018565,8.0315e-005,0.00071142,-0.00051625,0.0050286
-0.00075198,-0.0029879,-0.0030711,0.0012249,0.0002432,0.0030849,0.0044116,-0.004248,0.00047468,0.0040261,0.00072751,0.0033598,-0.010182,-0.021043,0.00090987,0.0055779,0.0001505,0.0068368,-0.0017201,0.0061236,0.00026515,0.0023027,-0.001681,0.016395
-0.0020314,-0.0081985,-0.0084158,0.0033775,0.00092934,0.0085409,0.01224,-0.011679,0.0012905,0.011116,0.0019466,0.0093781,-0.028678,-0.057818,0.0025582,0.015524,0.00036897,0.018831,-0.0048096,0.017058,0.00073812,0.0062845,-0.0046188,0.045003
-0.0046839,-0.019199,-0.019657,0.0079308,0.0029424,0.020243,0.029042,-0.027351,0.002981,0.026234,0.0043862,0.022421,-0.069263,-0.13544,0.0061742,0.036942,0.0007307,0.044274,-0.011507,0.040661,0.0017531,0.014654,-0.010852,0.10528
-0.009303,-0.038701,-0.039441,0.015967,0.0079044,0.041474,0.059458,-0.054931,0.005889,0.053391,0.0083235,0.046355,-0.1449,-0.27257,0.012922,0.075856,0.0011213,0.089609,-0.02377,0.083691,0.0035768,0.029465,-0.022004,0.21151
-0.016013,-0.067476,-0.068236,0.027625,0.018316,0.073949,0.10564,-0.09474,0.0099634,0.094215,0.013149,0.083412,-0.26449,-0.47287,0.023617,0.13521,0.0011382,0.15685,-0.042634,0.1496,0.0062789,0.051435,-0.038749,0.36619
-0.023967,-0.10189,-0.10172,0.040938,0.037065,0.11526,0.16334,-0.13952,0.014363,0.14446,0.016681,0.13114,-0.42344,-0.70613,0.037843,0.20998,2.8236e-005,0.23771,-0.066542,0.23288,0.0094352,0.078366,-0.059482,0.54565
-0.031239,-0.13288,-0.12983,0.051376,0.066151,0.15743,0.21974,-0.1722,0.017361,0.1922,0.015143,0.18043,-0.59682,-0.90006,0.053203,0.28478,-0.0031053,0.31097,-0.090214,0.31564,0.011931,0.10483,-0.079744,0.69456
-0.035468,-0.14847,-0.1396,0.053141,0.10504,0.18864,0.25653,-0.16923,0.016915,0.22065,0.0045025,0.21727,-0.7432,-0.95882,0.065357,0.33849,-0.0087499,0.34836,-0.10547,0.37129,0.012133,0.12449,-0.093501,0.74158
-0.035139,-0.1399,-0.12203,0.042338,0.14973,0.19826,0.25871,-0.11063,0.011854,0.2162,-0.016952,0.22903,-0.82212,-0.81017,0.06929,0.35657,-0.0163,0.32943,-0.10452,0.37692,0.0085509,0.13455,-0.096335,0.63717
-0.030683,-0.10809,-0.079101,0.020303,0.19359,0.18239,0.22505,0.007758,0.003045,0.17771,-0.04618,0.21261,-0.81758,-0.45719,0.061415,0.34445,-0.023751,0.25769,-0.084362,0.32869,0.00079082,0.13944,-0.08885,0.39304
-0.024436,-0.065318,-0.025253,-0.0057028,0.23017,0.14529,0.17201,0.16801,-0.0064247,0.12031,-0.075172,0.17859,-0.75058,0.0054097,0.041429,0.3304,-0.028244,0.16516,-0.049264,0.24922,-0.0097831,0.1497,-0.0776,0.091401
-0.019221,-0.029219,0.01961,-0.02607,0.25612,0.094858,0.12603,0.33602,-0.01261,0.069028,-0.094066,0.14704,-0.66759,0.43417,0.01267,0.35013,-0.027414,0.097451,-0.0090182,0.17839,-0.020205,0.17524,-0.072031,-0.15435
-0.016484,-0.01219,0.04223,-0.035042,0.27229,0.035398,0.10716,0.47758,-0.013031,0.044977,-0.096284,0.13613,-0.6088,0.71879,-0.019351,0.41921,-0.020832,0.085874,0.026414,0.15057,-0.02697,0.21716,-0.078902,-0.26905
-0.015446,-0.013625,0.044477,-0.034991,0.28172,-0.035175,0.11553,0.57386,-0.008485,0.053119,-0.082429,0.15102,-0.57858,0.84524,-0.049437,0.51208,-0.010529,0.12569,0.052087,0.17315,-0.027442,0.26512,-0.097986,-0.2661
-0.013981,-0.021344,0.041101,-0.034869,0.28639,-0.1197,0.1316,0.62512,-0.0029197,0.080667,-0.060002,0.18135,-0.54247,0.88904,-0.074675,0.56675,-0.00014009,0.17846,0.068985,0.22277,-0.020742,0.30382,-0.12227,-0.23617
-0.010447,-0.021371,0.047916,-0.043294,0.28568,-0.21172,0.13112,0.64021,-0.0012208,0.10718,-0.038897,0.20951,-0.45551,0.94175,-0.094809,0.51698,0.0068286,0.19881,0.080004,0.26315,-0.0076482,0.32433,-0.14243,-0.278
-0.0048903,-0.0082608,0.06974,-0.061561,0.27792,-0.2911,0.10353,0.6217,-0.0062623,0.11835,-0.025807,0.22316,-0.30007,1.0305,-0.1111,0.33192,0.0084346,0.16615,0.084731,0.27112,0.010248,0.33041,-0.15202,-0.4241
0.0013399,0.012359,0.097937,-0.08241,0.26341,-0.33233,0.059088,0.56034,-0.017201,0.11299,-0.021417,0.22234,-0.10224,1.0983,-0.12478,0.035402,0.0045427,0.096926,0.078027,0.25059,0.031305,0.33365,-0.14943,-0.62099
0.0069931,0.030505,0.11916,-0.095772,0.24479,-0.32162,0.019235,0.44494,-0.030148,0.099286,-0.021906,0.21632,0.087202,1.0598,-0.13637,-0.30876,-0.0040049,0.028422,0.05408,0.22434,0.053898,0.34128,-0.13605,-0.77856
0.011895,0.041204,0.12716,-0.096645,0.22368,-0.26896,-0.0011838,0.2796,-0.040677,0.085385,-0.022838,0.21406,0.23088,0.88143,-0.14613,-0.6328,-0.01632,-0.011314,0.012448,0.21204,0.075941,0.34809,-0.11309,-0.84397
0.016598,0.04807,0.12724,-0.088358,0.19641,-0.20383,-0.0046027,0.093378,-0.046396,0.073365,-0.022086,0.21729,0.33025,0.61452,-0.15505,-0.89457,-0.031597,-0.022748,-0.039414,0.21379,0.094629,0.34109,-0.080656,-0.836
0.021211,0.058529,0.13001,-0.078655,0.15436,-0.15558,-0.0060564,-0.067428,-0.047914,0.060925,-0.019877,0.22155,0.41847,0.35647,-0.16499,-1.081,-0.048441,-0.029294,-0.089565,0.21203,0.10709,0.31303,-0.039599,-0.81344
0.024756,0.076037,0.14119,-0.072466,0.090631,-0.13343,-0.01855,-0.16045,-0.047859,0.047295,-0.016926,0.22257,0.52957,0.17912,-0.17747,-1.1899,-0.06426,-0.054655,-0.12795,0.18787,0.11167,0.27195,0.0061907,-0.81103
0.025857,0.096935,0.15692,-0.067992,0.0084276,-0.12204,-0.042027,-0.16804,-0.048988,0.036188,-0.013064,0.22081,0.67117,0.089612,-0.19195,-1.2117,-0.075598,-0.1037,-0.15024,0.13651,0.10894,0.23637,0.050071,-0.80355
0.024232,0.11451,0.16848,-0.059445,-0.076946,-0.096373,-0.065086,-0.10456,-0.052869,0.032301,-0.0077689,0.21958,0.82171,0.052037,-0.2051,-1.131,-0.079386,-0.16137,-0.15624,0.069266,0.10112,0.21924,0.08585,-0.72908
0.021556,0.12559,0.17087,-0.043563,-0.14617,-0.043038,-0.076466,-0.0072833,-0.059808,0.034764,-0.0017409,0.21908,0.94991,0.039545,-0.21222,-0.94541,-0.074231,-0.20698,-0.14545,0.003356,0.090272,0.21479,0.11131,-0.54702
0.020701,0.13292,0.16691,-0.023764,-0.18875,0.029456,-0.075012,0.08185,-0.06945,0.034482,0.0025002,0.21316,1.0366,0.062602,-0.20997,-0.68174,-0.060803,-0.22915,-0.11485,-0.049441,0.076344,0.20053,0.12897,-0.27672
0.023723,0.14103,0.16337,-0.008163,-0.21002,0.099527,-0.069434,0.13286,-0.081034,0.019226,0.0020463,0.19289,1.0814,0.14897,-0.1985,-0.39169,-0.041186,-0.23007,-0.061711,-0.086168,0.05684,0.15298,0.14332,0.015415
0.03013,0.15033,0.16362,-0.0033227,-0.22605,0.15156,-0.069323,0.13547,-0.092915,-0.016515,-0.0039683,0.15456,1.0946,0.30123,-0.18129,-0.12562,-0.017939,-0.21965,0.010947,-0.10878,0.028569,0.063409,0.15696,0.26412
0.036904,0.15554,0.16445,-0.0091946,-0.2504,0.1878,-0.076621,0.097063,-0.10218,-0.064547,-0.013118,0.10526,1.086,0.47776,-0.16269,0.09492,0.0063507,-0.20806,0.091567,-0.12011,-0.0096424,-0.059522,0.16873,0.44312
0.040474,0.15056,0.15972,-0.019402,-0.28405,0.22263,-0.085235,0.034272,-0.10549,-0.10503,-0.020915,0.060865,1.0619,0.61625,-0.14511,0.283,0.028943,-0.20292,0.16327,-0.12421,-0.055253,-0.20097,0.17534,0.56324
0.039249,0.1349,0.14685,-0.026249,-0.31683,0.26476,-0.088166,-0.036671,-0.10138,-0.11725,-0.023704,0.037403,1.0277,0.67582,-0.128,0.46493,0.046941,-0.20908,0.21139,-0.12806,-0.10249,-0.35307,0.1747,0.64162
0.034807,0.11551,0.12968,-0.026007,-0.33816,0.30394,-0.08466,-0.10651,-0.092321,-0.092438,-0.020957,0.041752,0.98802,0.65768,-0.10914,0.64878,0.058024,-0.2264,0.23,-0.13918,-0.14448,-0.51761,0.1683,0.67808
0.030742,0.10196,0.11508,-0.020292,-0.34688,0.31502,-0.080728,-0.17385,-0.084665,-0.040067,-0.01519,0.067932,0.94011,0.58874,-0.087094,0.80917,0.061663,-0.24575,0.22318,-0.15925,-0.17542,-0.69637,0.16061,0.66157
0.029982,0.099245,0.10694,-0.013031,-0.35121,0.27695,-0.083232,-0.24084,-0.085394,0.016362,-0.0096703,0.10066,0.86876,0.48934,-0.06294,0.90177,0.059758,-0.24947,0.20084,-0.18018,-0.19152,-0.87886,0.15627,0.59562
0.032617,0.10468,0.10324,-0.0062926,-0.35992,0.19129,-0.093666,-0.307,-0.097615,0.051433,-0.0058357,0.12305,0.75177,0.35912,-0.040352,0.89636,0.055775,-0.2206,0.17314,-0.18891,-0.19089,-1.039,0.15743,0.51149
0.035912,0.1112,0.098495,0.0011912,-0.37359,0.084463,-0.10738,-0.36583,-0.11805,0.050325,-0.0025032,0.12353,0.57647,0.19238,-0.024058,0.80223,0.052647,-0.15609,0.14738,-0.17836,-0.17356,-1.1444,0.16304,0.45096
0.036501,0.11349,0.088689,0.011776,-0.38409,-0.0084756,-0.11836,-0.40666,-0.13884,0.014631,0.0025733,0.098906,0.35455,0.0026632,-0.017563,0.66536,0.050941,-0.072343,0.12858,-0.15457,-0.14212,-1.171,0.17052,0.43251
0.033013,0.11132,0.074061,0.025427,-0.38224,-0.065819,-0.12454,-0.42053,-0.15266,-0.041005,0.010152,0.053463,0.12093,-0.17247,-0.020977,0.5399,0.048864,0.0039824,0.1211,-0.13241,-0.10241,-1.114,0.17781,0.43291
0.027074,0.10755,0.057691,0.038577,-0.36577,-0.090173,-0.12864,-0.40575,-0.15737,-0.098462,0.018127,-0.0041554,-0.084993,-0.29357,-0.029845,0.45581,0.044248,0.054105,0.12815,-0.1228,-0.062797,-0.98876,0.18421,0.40377
0.021957,0.10374,0.042129,0.046609,-0.34053,-0.10118,-0.13435,-0.36909,-0.1562,-0.14594,0.022612,-0.064849,-0.24157,-0.34688,-0.035866,0.40642,0.036897,0.07925,0.14863,-0.12319,-0.031313,-0.82357,0.18944,0.31111
0.019991,0.097962,0.02761,0.047748,-0.31479,-0.11766,-0.14205,-0.32208,-0.15317,-0.1825,0.020836,-0.12252,-0.35338,-0.35016,-0.029936,0.36216,0.029185,0.096186,0.17428,-0.12072,-0.012052,-0.64903,0.19227,0.16502
0.020794,0.087065,0.013226,0.044684,-0.2927,-0.14427,-0.14825,-0.27509,-0.14759,-0.21535,0.013706,-0.17576,-0.44051,-0.33123,-0.0066199,0.29677,0.024264,0.12022,0.19115,-0.10543,-0.003287,-0.4893,0.19045,0.01497
0.021699,0.070742,-0.0008724,0.042273,-0.27286,-0.17201,-0.14927,-0.23327,-0.13264,-0.25195,0.0059483,-0.22649,-0.51955,-0.30144,0.03238,0.20527,0.023442,0.15084,0.18613,-0.081163,0.0009231,-0.35742,0.18225,-0.085231
0.020008,0.053264,-0.012964,0.043326,-0.25196,-0.18975,-0.14517,-0.19664,-0.1001,-0.29238,0.0034097,-0.27588,-0.59284,-0.25041,0.078399,0.10342,0.025146,0.17222,0.1551,-0.064052,0.0063824,-0.25558,0.16848,-0.11421
0.015262,0.04091,-0.021535,0.046395,-0.22876,-0.19519,-0.14025,-0.16337,-0.047939,-0.32725,0.0092746,-0.32038,-0.65249,-0.16653,0.12034,0.014646,0.026479,0.16709,0.10664,-0.069968,0.014706,-0.17992,0.15289,-0.09383
0.0097147,0.037297,-0.02732,0.0477,-0.20425,-0.19611,-0.13946,-0.13341,0.01571,-0.34317,0.02193,-0.35186,-0.69189,-0.061207,0.1511,-0.042443,0.02593,0.13063,0.058033,-0.10253,0.022646,-0.12706,0.14028,-0.068624
0.0065798,0.040675,-0.033214,0.045451,-0.17873,-0.20224,-0.14437,-0.10948,0.075989,-0.33215,0.036154,-0.36299,-0.71204,0.029458,0.1715,-0.05822,0.024674,0.072227,0.025681,-0.15227,0.025341,-0.098028,0.13351,-0.07277
0.0074401,0.045457,-0.041943,0.042445,-0.1498,-0.21601,-0.15217,-0.095006,0.12016,-0.29795,0.046856,-0.354,-0.71775,0.069408,0.18882,-0.030847,0.025205,0.0046028,0.016403,-0.207,0.02087,-0.09574,0.13167,-0.10984
0.010924,0.046558,-0.053716,0.044299,-0.11406,-0.23018,-0.1585,-0.090778,0.14496,-0.25399,0.052615,-0.33463,-0.71011,0.051261,0.21074,0.033711,0.02861,-0.068781,0.025138,-0.26326,0.012354,-0.11724,0.13071,-0.15701
0.01377,0.042851,-0.066226,0.054686,-0.070917,-0.23347,-0.16138,-0.09335,0.15659,-0.21385,0.056382,-0.31795,-0.68461,0.0016771,0.23951,0.11982,0.033117,-0.15634,0.039985,-0.32848,0.0057906,-0.14718,0.12602,-0.18561
0.013402,0.03703,-0.076988,0.071807,-0.024764,-0.21879,-0.16266,-0.096582,0.16363,-0.18162,0.062931,-0.31033,-0.6371,-0.041682,0.27062,0.20463,0.035382,-0.26832,0.05036,-0.41204,0.0054027,-0.1599,0.11487,-0.18013
0.0098489,0.032292,-0.085742,0.089263,0.01663,-0.18726,-0.16615,-0.095225,0.16914,-0.15026,0.075192,-0.30615,-0.57031,-0.060044,0.29674,0.26927,0.033394,-0.40217,0.052721,-0.51298,0.010423,-0.13137,0.096858,-0.14356
0.0053693,0.02884,-0.094592,0.10058,0.04602,-0.14622,-0.17422,-0.08764,0.16895,-0.10968,0.092338,-0.29323,-0.49333,-0.062983,0.31317,0.31302,0.028318,-0.53505,0.050959,-0.61454,0.016113,-0.053155,0.072804,-0.089735
0.0021979,0.023235,-0.10585,0.1035,0.059823,-0.10383,-0.18607,-0.075327,0.15742,-0.05815,0.11093,-0.26568,-0.414,-0.070638,0.31992,0.35723,0.023545,-0.63019,0.052375,-0.69023,0.018261,0.062744,0.043716,-0.032105
0.00050749,0.011155,-0.11975,0.10053,0.058934,-0.064905,-0.19862,-0.059706,0.13536,-0.0072459,0.12787,-0.23318,-0.33279,-0.088151,0.31925,0.43085,0.021685,-0.65397,0.062385,-0.71747,0.017382,0.19294,0.011271,0.022853
-0.0015257,-0.0086665,-0.13429,0.095964,0.047949,-0.03023,-0.20874,-0.039075,0.11261,0.024518,0.14275,-0.21746,-0.2452,-0.098501,0.3117,0.54491,0.022133,-0.59353,0.080805,-0.69,0.018984,0.31833,-0.020774,0.075116
-0.0056465,-0.032493,-0.14708,0.09234,0.034027,0.0014317,-0.2149,-0.0088333,0.10252,0.025166,0.15787,-0.23695,-0.15113,-0.080923,0.29526,0.67543,0.021385,-0.46373,0.10124,-0.62098,0.029455,0.43263,-0.046383,0.12632
-0.011463,-0.053255,-0.15734,0.089512,0.025372,0.030667,-0.21692,0.034636,0.11266,-0.00035306,0.17634,-0.2909,-0.061299,-0.036227,0.26893,0.77079,0.015968,-0.29875,0.11378,-0.53491,0.050789,0.53591,-0.059804,0.1742
-0.016474,-0.064722,-0.16592,0.08644,0.028564,0.055935,-0.21505,0.089293,0.13957,-0.030857,0.19988,-0.35622,0.0071227,0.0074094,0.23724,0.78128,0.0056365,-0.13334,0.11015,-0.45343,0.078351,0.61893,-0.059759,0.20882
-0.01827,-0.065299,-0.17358,0.083347,0.045151,0.073956,-0.20956,0.14602,0.17157,-0.040556,0.22759,-0.40069,0.043364,0.016424,0.21069,0.69071,-0.0058063,0.013908,0.088851,-0.38433,0.10352,0.65473,-0.051889,0.21243
-0.01686,-0.058877,-0.1795,0.081919,0.069712,0.081773,-0.20126,0.19223,0.19698,-0.013888,0.25603,-0.40344,0.053518,-0.017139,0.20049,0.52696,-0.012849,0.14353,0.057109,-0.32147,0.11914,0.60895,-0.046615,0.16458
-0.014814,-0.052268,-0.18184,0.083602,0.091562,0.079347,-0.19202,0.21848,0.21049,0.045672,0.27998,-0.36771,0.05861,-0.064821,0.21117,0.34427,-0.012047,0.26213,0.027622,-0.25602,0.1237,0.46514,-0.053018,0.052089
-0.014936,-0.050976,-0.17974,0.088029,0.099766,0.070862,-0.18405,0.22351,0.21307,0.11735,0.29347,-0.31732,0.08057,-0.083577,0.23693,0.19028,-0.0043185,0.36383,0.011377,-0.19041,0.12119,0.24618,-0.0729,-0.12039
-0.017609,-0.056062,-0.17489,0.093271,0.088441,0.063203,-0.17798,0.21423,0.20706,0.17317,0.29148,-0.28037,0.1267,-0.053466,0.26501,0.081134,0.0059818,0.42286,0.011216,-0.14303,0.11712,0.013065,-0.099501,-0.32609
-0.020397,-0.064053,-0.17079,0.097476,0.059009,0.061947,-0.17132,0.20075,0.19237,0.1901,0.2719,-0.27283,0.18465,0.001062,0.28346,-0.00018253,0.014383,0.40678,0.020771,-0.13767,0.11402,-0.16244,-0.12193,-0.52263
-0.020424,-0.069867,-0.1702,0.10006,0.018528,0.067539,-0.15903,0.1901,0.16783,0.15832,0.23731,-0.29302,0.23145,0.025788,0.28753,-0.084803,0.019282,0.30306,0.029458,-0.18436,0.10981,-0.23484,-0.13182,-0.66756
-0.017361,-0.070659,-0.17308,0.1013,-0.023967,0.074801,-0.13649,0.18301,0.13599,0.082817,0.195,-0.32859,0.24929,-0.023318,0.28044,-0.19429,0.02227,0.13835,0.0295,-0.26656,0.10012,-0.20741,-0.12736,-0.73495
-0.014116,-0.067897,-0.17683,0.101,-0.060494,0.076549,-0.10297,0.17537,0.10567,-0.020492,0.15441,-0.36813,0.23633,-0.14676,0.26906,-0.32815,0.025908,-0.028026,0.019691,-0.34712,0.082338,-0.12572,-0.1122,-0.72428
-0.014383,-0.066134,-0.17859,0.098076,-0.085492,0.068613,-0.063081,0.16262,0.088582,-0.13083,0.12314,-0.4076,0.20592,-0.30087,0.25866,-0.46761,0.031235,-0.13606,0.0039036,-0.39042,0.05821,-0.048105,-0.091492,-0.65737
-0.019175,-0.069408,-0.17737,0.091723,-0.096282,0.052164,-0.024639,0.14313,0.092191,-0.22751,0.10346,-0.44777,0.17697,-0.42867,0.25083,-0.58888,0.037337,-0.16117,-0.012973,-0.38497,0.0329,-0.013773,-0.068958,-0.56623
-0.025529,-0.078036,-0.17441,0.083026,-0.09348,0.031716,0.0057886,0.11803,0.115,-0.29267,0.091669,-0.48686,0.16388,-0.49632,0.2448,-0.67564,0.043022,-0.1275,-0.027593,-0.34879,0.011518,-0.028528,-0.04698,-0.47828
-0.028725,-0.088306,-0.17166,0.075156,-0.081036,0.011238,0.026714,0.088368,0.14842,-0.31315,0.080705,-0.51626,0.17276,-0.50754,0.23975,-0.7245,0.048445,-0.087475,-0.037885,-0.31329,-0.004171,-0.07303,-0.028271,-0.40573
-0.026191,-0.095348,-0.17007,0.071486,-0.065014,-0.0074261,0.042139,0.052848,0.18338,-0.28312,0.064191,-0.52356,0.20367,-0.48971,0.23547,-0.74413,0.054644,-0.082594,-0.04216,-0.29861,-0.01631,-0.1225,-0.016123,-0.34323
-0.019726,-0.09688,-0.16937,0.072936,-0.051114,-0.022135,0.058199,0.0090113,0.21523,-0.20738,0.039649,-0.50037,0.25419,-0.4685,0.23142,-0.75132,0.061306,-0.11527,-0.040042,-0.30002,-0.028599,-0.16168,-0.012349,-0.27454
-0.014097,-0.09486,-0.16904,0.076782,-0.042498,-0.026977,0.078516,-0.042692,0.24271,-0.10234,0.0092522,-0.44813,0.32005,-0.45356,0.22601,-0.76615,0.065317,-0.15234,-0.034502,-0.2953,-0.043124,-0.18694,-0.015073,-0.18497
-0.013196,-0.093781,-0.16914,0.078096,-0.039474,-0.012585,0.10166,-0.095547,0.26269,0.0079521,-0.021717,-0.37727,0.39348,-0.44362,0.21754,-0.8062,0.062172,-0.15544,-0.031726,-0.26554,-0.059008,-0.19952,-0.019298,-0.073018
-0.016995,-0.097073,-0.17003,0.072955,-0.041004,0.027997,0.12255,-0.13763,0.26712,0.10028,-0.047433,-0.30123,0.46291,-0.44028,0.20572,-0.88021,0.04948,-0.11233,-0.037112,-0.21118,-0.073777,-0.19985,-0.020547,0.046651
-0.021805,-0.10449,-0.17137,0.061113,-0.046229,0.091932,0.13648,-0.15755,0.2468,0.16041,-0.063935,-0.23085,0.51646,-0.4539,0.19188,-0.98379,0.029373,-0.044057,-0.050114,-0.15021,-0.08594,-0.18779,-0.018635,0.15211
-0.02351,-0.11249,-0.17179,0.046143,-0.054464,0.16458,0.14264,-0.15101,0.19975,0.18562,-0.070713,-0.17329,0.54738,-0.49582,0.1772,-1.1002,0.0073192,0.015777,-0.063106,-0.10134,-0.096275,-0.16579,-0.018075,0.22975
-0.020994,-0.11715,-0.16983,0.032926,-0.064077,0.22637,0.1445,-0.12298,0.13658,0.18072,-0.071119,-0.13434,0.55686,-0.56546,0.16055,-1.2062,-0.011821,0.050339,-0.066588,-0.067729,-0.10667,-0.13881,-0.024541,0.2847
-0.016979,-0.1173,-0.16543,0.024252,-0.072277,0.2647,0.14711,-0.083571,0.076961,0.15212,-0.071166,-0.11968,0.55173,-0.64532,0.13877,-1.2786,-0.026997,0.072112,-0.057049,-0.035353,-0.11778,-0.11003,-0.040439,0.33637
-0.015679,-0.11552,-0.16033,0.018996,-0.077063,0.2818,0.15361,-0.040829,0.038558,0.10541,-0.076643,-0.13216,0.53879,-0.70887,0.10938,-1.2983,-0.040622,0.10937,-0.04063,0.013118,-0.12801,-0.078056,-0.063382,0.40043
-0.019319,-0.11643,-0.15662,0.013126,-0.080003,0.29188,0.16353,0.0036619,0.026707,0.047628,-0.089585,-0.1677,0.52037,-0.73511,0.073393,-1.2514,-0.05532,0.18007,-0.028785,0.08193,-0.13493,-0.041045,-0.088636,0.47054
-0.026344,-0.12347,-0.15484,0.0027276,-0.086861,0.30898,0.17365,0.052556,0.03298,-0.010253,-0.10624,-0.21451,0.49452,-0.72027,0.035167,-1.1339,-0.071101,0.27647,-0.029104,0.15822,-0.13796,-0.0053009,-0.1129,0.51548
-0.032648,-0.13655,-0.15306,-0.013185,-0.10434,0.33483,0.18011,0.10597,0.043432,-0.055569,-0.11842,-0.25815,0.45911,-0.68152,-0.00085901,-0.96106,-0.085516,0.37314,-0.038869,0.22419,-0.13959,0.011447,-0.13576,0.49695
-0.034719,-0.15178,-0.1481,-0.031976,-0.13463,0.35683,0.18029,0.15664,0.049449,-0.080545,-0.11812,-0.28861,0.41609,-0.65299,-0.033342,-0.77792,-0.096115,0.44947,-0.046748,0.27494,-0.14352,-0.010387,-0.1576,0.39731
-0.032167,-0.16355,-0.13781,-0.049072,-0.17184,0.35807,0.17356,0.19231,0.052368,-0.087146,-0.10269,-0.30387,0.37208,-0.67582,-0.063964,-0.65455,-0.10233,0.50578,-0.041072,0.32605,-0.15103,-0.074096,-0.17654,0.23798
-0.027734,-0.1675,-0.12257,-0.060639,-0.20351,0.33162,0.16144,0.20448,0.058881,-0.084714,-0.077015,-0.30707,0.33468,-0.78334,-0.094237,-0.65881,-0.10491,0.559,-0.017764,0.40356,-0.15838,-0.15489,-0.18776,0.074857
-0.024982,-0.16278,-0.10498,-0.06551,-0.21686,0.28689,0.14736,0.19598,0.0723,-0.081738,-0.051101,-0.30092,0.30675,-0.98409,-0.12265,-0.81564,-0.10408,0.62273,0.018279,0.52348,-0.15763,-0.20752,-0.18672,-0.027422
-0.0256,-0.15232,-0.088121,-0.065458,-0.20595,0.24225,0.1358,0.17969,0.087756,-0.079425,-0.034699,-0.28498,0.28292,-1.2506,-0.14527,-1.0795,-0.098864,0.6908,0.058607,0.6772,-0.14092,-0.19159,-0.1735,-0.02647
-0.0284,-0.14099,-0.073837,-0.064008,-0.17512,0.20938,0.13053,0.16729,0.09525,-0.073538,-0.032583,-0.25817,0.25106,-1.5233,-0.15911,-1.345,-0.08853,0.73932,0.097925,0.8346,-0.10556,-0.096801,-0.15432,0.079779
-0.030579,-0.13287,-0.062131,-0.064669,-0.13683,0.18266,0.13262,0.15636,0.087252,-0.06277,-0.043413,-0.22319,0.19893,-1.7308,-0.16441,-1.497,-0.074387,0.74584,0.13609,0.96251,-0.056562,0.051123,-0.1383,0.25667
-0.030026,-0.12909,-0.051836,-0.069427,-0.10494,0.14384,0.13974,0.1269,0.063896,-0.054787,-0.062115,-0.18774,0.12255,-1.8193,-0.16305,-1.4696,-0.059495,0.70893,0.17415,1.0441,-0.004639,0.2087,-0.13171,0.4531
-0.026764,-0.12757,-0.041703,-0.078094,-0.087097,0.079057,0.14748,0.05259,0.031662,-0.062639,-0.083325,-0.16067,0.03106,-1.7725,-0.15527,-1.2771,-0.046286,0.65182,0.20875,1.0852,0.03937,0.34237,-0.1343,0.62491
-0.022579,-0.12485,-0.031121,-0.088744,-0.080393,-0.005676,0.15201,-0.079802,-0.0024439,-0.093569,-0.10335,-0.14644,-0.056053,-1.6161,-0.13927,-0.99726,-0.034626,0.60802,0.23068,1.1046,0.070273,0.44361,-0.14049,0.74853
-0.019437,-0.11877,-0.020185,-0.098967,-0.072776,-0.084558,0.15186,-0.25683,-0.035572,-0.14032,-0.12008,-0.1427,-0.1187,-1.4043,-0.11606,-0.72382,-0.022705,0.60185,0.22967,1.1192,0.090524,0.52058,-0.1444,0.81983
-0.018204,-0.1104,-0.0093574,-0.10722,-0.049994,-0.12904,0.14787,-0.44136,-0.06872,-0.1837,-0.13215,-0.14263,-0.14757,-1.2017,-0.095296,-0.52442,-0.010042,0.6393,0.20155,1.137,0.10686,0.57601,-0.14423,0.84237
-0.018626,-0.10377,0.00091172,-0.11345,-0.0043708,-0.12835,0.1417,-0.59134,-0.10269,-0.20513,-0.13889,-0.13958,-0.14965,-1.0645,-0.09485,-0.4293,0.00074223,0.71316,0.15209,1.1606,0.12391,0.59207,-0.14244,0.81471
-0.020204,-0.10345,0.010419,-0.11879,0.060064,-0.096446,0.13496,-0.68223,-0.13489,-0.19903,-0.14091,-0.12984,-0.14395,-1.0245,-0.1308,-0.44608,0.0058368,0.813,0.093972,1.1939,0.13974,0.53665,-0.14196,0.72571
-0.022803,-0.11126,0.019346,-0.12462,0.12987,-0.059422,0.12957,-0.71824,-0.16023,-0.17478,-0.14057,-0.11258,-0.14977,-1.0759,-0.2038,-0.57613,0.004432,0.92746,0.039161,1.2406,0.14722,0.38648,-0.14242,0.56073
-0.026247,-0.12425,0.028349,-0.13176,0.19066,-0.034596,0.12837,-0.72604,-0.17533,-0.14769,-0.14108,-0.088635,-0.17487,-1.1718,-0.29319,-0.81389,0.00090947,1.0373,-0.0076441,1.2933,0.14026,0.14905,-0.13991,0.31436
-0.029459,-0.13546,0.038491,-0.14007,0.2356,-0.019223,0.13428,-0.73626,-0.18162,-0.12755,-0.14487,-0.060312,-0.21046,-1.2405,-0.36601,-1.1338,0.0021845,1.1098,-0.050009,1.3266,0.12,-0.13329,-0.1306,0.0010839
-0.030358,-0.13745,0.050836,-0.14841,0.26748,0.0019404,0.14796,-0.76602,-0.18452,-0.11445,-0.1524,-0.032124,-0.23535,-1.2224,-0.39665,-1.4847,0.012043,1.1073,-0.094971,1.305,0.095352,-0.39913,-0.11464,-0.34347
-0.027128,-0.12653,0.065699,-0.15494,0.29293,0.038061,0.16566,-0.81314,-0.18901,-0.10388,-0.16217,-0.010262,-0.22595,-1.1091,-0.3833,-1.8032,0.027657,1.0084,-0.14634,1.2052,0.077438,-0.59169,-0.09645,-0.67184
-0.019982,-0.10502,0.081998,-0.1579,0.3143,0.079718,0.17982,-0.86347,-0.19558,-0.094478,-0.1717,0.00031177,-0.16714,-0.95765,-0.34904,-2.0387,0.04184,0.82638,-0.20075,1.0349,0.072222,-0.67647,-0.081084,-0.94003
-0.011691,-0.079963,0.097356,-0.15679,0.3266,0.1032,0.18257,-0.90323,-0.19994,-0.090729,-0.17834,-0.00049643,-0.05993,-0.86366,-0.32642,-2.1687,0.04928,0.60603,-0.24873,0.83257,0.077476,-0.64653,-0.070175,-1.1212
-0.0059843,-0.058914,0.10921,-0.15315,0.32242,0.086978,0.16982,-0.92618,-0.1965,-0.098334,-0.17979,-0.0067976,0.076009,-0.90448,-0.33708,-2.1943,0.050998,0.39817,-0.27981,0.64329,0.086064,-0.51927,-0.061519,-1.2125
-0.0047817,-0.045628,0.11638,-0.14993,0.30006,0.025696,0.14294,-0.93151,-0.18259,-0.11786,-0.17448,-0.0098019,0.20601,-1.0894,-0.38053,-2.1232,0.052792,0.22886,-0.28818,0.49074,0.092162,-0.33039,-0.052906,-1.2321
-0.0065121,-0.038404,0.1199,-0.14941,0.26711,-0.068848,0.107,-0.9166,-0.16008,-0.14326,-0.16234,-0.0032655,0.29085,-1.3509,-0.43843,-1.9597,0.059071,0.089218,-0.27552,0.36829,0.094895,-0.12734,-0.04653,-1.2109
-0.0071194,-0.03203,0.12241,-0.15111,0.23584,-0.17794,0.067457,-0.87379,-0.13358,-0.16682,-0.14566,0.012744,0.30196,-1.5833,-0.48888,-1.7102,0.068005,-0.044571,-0.24889,0.25703,0.096861,0.039933,-0.049353,-1.1798
-0.0031851,-0.021704,0.12638,-0.15187,0.21456,-0.28674,0.028187,-0.79585,-0.10744,-0.18537,-0.12897,0.032731,0.23494,-1.7018,-0.51899,-1.394,0.072769,-0.17718,-0.21503,0.15463,0.099893,0.13148,-0.068187,-1.1603
0.0052526,-0.0061171,0.13258,-0.14832,0.20289,-0.38761,-0.0081561,-0.68652,-0.084014,-0.20143,-0.11735,0.050775,0.11296,-1.681,-0.52787,-1.0466,0.067868,-0.27607,-0.17513,0.087903,0.1025,0.12966,-0.10316,-1.16
0.014489,0.012196,0.13989,-0.13994,0.19529,-0.47706,-0.038721,-0.56659,-0.064288,-0.21795,-0.11396,0.066017,-0.024515,-1.5526,-0.52084,-0.70534,0.054625,-0.28859,-0.12432,0.095224,0.10113,0.044914,-0.14511,-1.175
0.019788,0.029008,0.14658,-0.12976,0.18938,-0.55323,-0.060304,-0.4683,-0.049159,-0.23154,-0.1185,0.084547,-0.1426,-1.3686,-0.50156,-0.39064,0.040596,-0.18467,-0.057281,0.19135,0.093451,-0.088848,-0.17939,-1.1962
0.018824,0.041232,0.15173,-0.12188,0.19129,-0.61709,-0.071039,-0.41978,-0.039713,-0.2315,-0.12776,0.11603,-0.22857,-1.1637,-0.46894,-0.097903,0.03337,0.0078604,0.024009,0.34418,0.079976,-0.22772,-0.19359,-1.2161
0.013269,0.048549,0.15574,-0.11779,0.21282,-0.67411,-0.07225,-0.42929,-0.036028,-0.20676,-0.13785,0.16699,-0.29405,-0.94169,-0.41999,0.19197,0.034424,0.20585,0.10702,0.48509,0.062802,-0.33429,-0.18342,-1.2327
0.0074054,0.053129,0.1596,-0.11507,0.26277,-0.73031,-0.068206,-0.47993,-0.035952,-0.15585,-0.14643,0.23519,-0.3604,-0.69192,-0.35523,0.49282,0.038498,0.31422,0.17391,0.54792,0.043187,-0.39064,-0.15305,-1.249
0.0049718,0.058054,0.16376,-0.10943,0.34006,-0.78292,-0.063395,-0.53817,-0.035493,-0.091265,-0.15326,0.30891,-0.43876,-0.41373,-0.28168,0.80051,0.038689,0.28162,0.21231,0.50857,0.020976,-0.40308,-0.11102,-1.2715
0.0067294,0.065607,0.1675,-0.098572,0.43425,-0.81337,-0.059355,-0.5703,-0.030986,-0.03382,-0.1593,0.37231,-0.51981,-0.12684,-0.21103,1.0968,0.03227,0.12933,0.22333,0.39661,-0.003425,-0.39694,-0.065963,-1.3069
0.010482,0.07628,0.16935,-0.084176,0.53258,-0.79132,-0.053729,-0.55635,-0.021487,-0.00046054,-0.16536,0.41338,-0.58009,0.14158,-0.15389,1.3651,0.021981,-0.066534,0.21994,0.2721,-0.026866,-0.40302,-0.025384,-1.3602
0.013272,0.088786,0.16797,-0.070431,0.62723,-0.69047,-0.042489,-0.49466,-0.0094951,0.0051858,-0.17175,0.42955,-0.5979,0.38014,-0.11398,1.6044,0.012244,-0.22534,0.21694,0.18645,-0.043946,-0.44134,0.0034405,-1.4314
0.013831,0.10083,0.16298,-0.060518,0.71655,-0.50679,-0.023613,-0.39717,0.00061364,-0.0076682,-0.17884,0.42708,-0.56496,0.60517,-0.085962,1.8315,0.0045195,-0.30866,0.22058,0.15533,-0.050526,-0.51005,0.013742,-1.5112
0.013364,0.11027,0.1552,-0.054222,0.80033,-0.26601,0.0006085,-0.28082,0.0053454,-0.026577,-0.18747,0.41507,-0.48543,0.84978,-0.058766,2.0715,-0.0035767,-0.33258,0.22652,0.15904,-0.047418,-0.58675,0.002508,-1.5792
0.014196,0.1161,0.14631,-0.0486,0.87418,-0.014115,0.024328,-0.16027,0.0041819,-0.046399,-0.19844,0.39862,-0.36641,1.1383,-0.022692,2.3423,-0.014901,-0.34276,0.22697,0.1638,-0.040768,-0.64335,-0.025834,-1.607
0.017565,0.11879,0.13794,-0.040892,0.92882,0.20388,0.041247,-0.043612,-0.0002583,-0.072053,-0.21112,0.37669,-0.21162,1.4665,0.024296,2.6422,-0.028915,-0.37573,0.21966,0.1445,-0.038329,-0.66675,-0.059892,-1.5674
0.0224,0.11972,0.13084,-0.031079,0.95515,0.36326,0.047759,0.069344,-0.0039415,-0.11148,-0.2226,0.34598,-0.02543,1.8018,0.075343,2.9457,-0.041367,-0.43611,0.20991,0.093554,-0.044359,-0.67191,-0.087587,-1.4463
0.026053,0.11999,0.12447,-0.022028,0.95029,0.46545,0.04413,0.18663,-0.0038975,-0.16496,-0.22818,0.30761,0.17739,2.1023,0.11955,3.21,-0.047876,-0.50245,0.20396,0.015558,-0.057019,-0.69603,-0.10407,-1.2499
0.026327,0.11939,0.11743,-0.017274,0.91891,0.52838,0.033425,0.32049,1.0162e-005,-0.21993,-0.22327,0.27035,0.36757,2.3363,0.14936,3.3903,-0.047971,-0.55089,0.20038,-0.081859,-0.069988,-0.77392,-0.11418,-1.0003
0.023147,0.11658,0.10865,-0.018225,0.86841,0.56973,0.019415,0.48072,0.0050771,-0.25589,-0.2054,0.24698,0.51017,2.4885,0.16511,3.4616,-0.045806,-0.57458,0.18841,-0.19134,-0.07656,-0.90865,-0.12621,-0.72349
0.018558,0.1105,0.098511,-0.022878,0.80231,0.59536,0.0050076,0.66772,0.0075932,-0.25617,-0.17532,0.24523,0.58124,2.5539,0.17345,3.433,-0.046925,-0.58505,0.15605,-0.30306,-0.072981,-1.0579,-0.1413,-0.4362
0.015066,0.1019,0.088977,-0.02694,0.71831,0.59956,-0.0081245,0.87007,0.005403,-0.21798,-0.13639,0.25989,0.57959,2.5324,0.18139,3.3458,-0.053874,-0.59872,0.10089,-0.40305,-0.059193,-1.1488,-0.14811,-0.14251
0.013678,0.093529,0.082428,-0.026601,0.61334,0.57435,-0.019048,1.0689,-0.00066774,-0.15364,-0.093136,0.27263,0.52423,2.4349,0.19082,3.2521,-0.064127,-0.62285,0.034194,-0.47794,-0.037869,-1.1155,-0.12877,0.15755
0.013236,0.088286,0.079955,-0.021045,0.49164,0.51908,-0.0269,1.246,-0.0078779,-0.082475,-0.049681,0.26138,0.43978,2.2977,0.19738,3.185,-0.071651,-0.65249,-0.026443,-0.52367,-0.013756,-0.93653,-0.072977,0.45529
0.011659,0.086874,0.080456,-0.012862,0.36868,0.44325,-0.030511,1.3908,-0.014645,-0.019284,-0.0089333,0.21441,0.34132,2.1859,0.1936,3.141,-0.070687,-0.67832,-0.070209,-0.55011,0.0060626,-0.64729,0.01103,0.72834
0.0081042,0.087058,0.081372,-0.0059569,0.26688,0.3632,-0.028498,1.5003,-0.023152,0.032194,0.02741,0.13997,0.22951,2.1729,0.17321,3.0882,-0.059232,-0.69677,-0.1014,-0.57608,0.01251,-0.31848,0.098373,0.94878
0.0041828,0.085597,0.080597,-0.0024292,0.20531,0.29751,-0.019854,1.5746,-0.038758,0.076843,0.058409,0.064033,0.097478,2.3023,0.13375,2.995,-0.040349,-0.714,-0.13594,-0.61761,-0.0027461,-0.014755,0.16233,1.0986
0.0029649,0.081249,0.078055,-0.00093379,0.19029,0.26497,-0.0049519,1.6128,-0.065777,0.11947,0.083365,0.016299,-0.057698,2.5571,0.077443,2.8581,-0.020853,-0.74205,-0.18868,-0.67838,-0.042674,0.23982,0.19148,1.1797
0.006337,0.075971,0.075648,0.0019718,0.21256,0.28263,0.013534,1.6127,-0.10256,0.15763,0.10151,0.012699,-0.22796,2.861,0.011732,2.7068,-0.0080641,-0.79127,-0.26103,-0.74969,-0.10159,0.46884,0.19654,1.2105
0.012898,0.072906,0.07558,0.0084334,0.25145,0.36,0.030663,1.5742,-0.14025,0.18258,0.11206,0.046162,-0.39559,3.1124,-0.05048,2.5819,-0.0061561,-0.86383,-0.33828,-0.81921,-0.16643,0.72189,0.20195,1.2131
0.018439,0.07288,0.078437,0.016762,0.28245,0.48982,0.040754,1.5019,-0.16724,0.18813,0.11472,0.092403,-0.54015,3.2326,-0.092822,2.5038,-0.014068,-0.95053,-0.39809,-0.88075,-0.22267,1.0405,0.22876,1.2018
0.018988,0.072911,0.082616,0.022212,0.28353,0.64327,0.039908,1.4031,-0.17672,0.18014,0.11049,0.12716,-0.64555,3.1977,-0.10143,2.456,-0.026421,-1.031,-0.42406,-0.93712,-0.26096,1.4323,0.2812,1.1828
0.014038,0.068503,0.085556,0.020778,0.23915,0.77759,0.028007,1.2832,-0.17155,0.1779,0.10219,0.1429,-0.70348,3.0408,-0.072854,2.3956,-0.037125,-1.0775,-0.41539,-0.99453,-0.27977,1.8638,0.3453,1.1631
0.0071336,0.057882,0.085719,0.012901,0.14314,0.85538,0.0087155,1.1426,-0.16252,0.20464,0.094,0.15317,-0.71311,2.8281,-0.018367,2.2823,-0.043286,-1.0627,-0.38736,-1.0541,-0.28248,2.2731,0.39889,1.1598
0.0030861,0.04421,0.083668,0.0037798,0.0011794,0.86367,-0.012653,0.97902,-0.161,0.27358,0.089639,0.18185,-0.67892,2.627,0.040137,2.1019,-0.046439,-0.97057,-0.36323,-1.1077,-0.27211,2.591,0.42497,1.2009
0.0041068,0.033499,0.081386,-0.00024473,-0.16851,0.81811,-0.031901,0.79366,-0.17183,0.37995,0.090131,0.24566,-0.60876,2.4817,0.081426,1.8696,-0.050096,-0.80398,-0.3624,-1.1403,-0.2488,2.7652,0.41994,1.3171
0.0081814,0.029979,0.080479,0.0037051,-0.33917,0.74873,-0.047385,0.59505,-0.19175,0.50475,0.092688,0.34251,-0.51259,2.4039,0.096066,1.611,-0.055622,-0.58545,-0.39081,-1.1357,-0.21255,2.7773,0.39303,1.5316
0.0111,0.033087,0.08076,0.01332,-0.48395,0.67824,-0.059306,0.39773,-0.2138,0.62625,0.091965,0.45307,-0.40173,2.3748,0.089255,1.3404,-0.060003,-0.34809,-0.43835,-1.0815,-0.16827,2.648,0.35923,1.8497
0.010288,0.03871,0.080356,0.023639,-0.58502,0.61019,-0.067862,0.21677,-0.23309,0.7293,0.083152,0.55267,-0.28805,2.3559,0.073338,1.052,-0.057529,-0.12265,-0.48491,-0.9712,-0.12782,2.4271,0.33052,2.2518
0.0070017,0.043237,0.077164,0.031452,-0.63757,0.53507,-0.072196,0.063244,-0.24913,0.80528,0.064791,0.62359,-0.18317,2.3028,0.05622,0.73046,-0.044125,0.070975,-0.51303,-0.80772,-0.10541,2.1741,0.31031,2.6885
0.0050042,0.046374,0.070452,0.03757,-0.64665,0.44633,-0.071271,-0.056486,-0.26331,0.8456,0.039292,0.65967,-0.097758,2.1796,0.035215,0.37176,-0.020854,0.22253,-0.52016,-0.60869,-0.10895,1.9377,0.29317,3.0825
0.0070293,0.050022,0.061331,0.045018,-0.62031,0.34976,-0.065949,-0.14016,-0.27528,0.8379,0.011045,0.66274,-0.041182,1.9695,0.0012233,-0.0016532,0.0060316,0.32367,-0.52243,-0.40945,-0.13402,1.7462,0.26946,3.3451
0.012246,0.054572,0.051849,0.055041,-0.56554,0.25724,-0.060312,-0.19137,-0.28216,0.77198,-0.015863,0.63657,-0.021406,1.6802,-0.050555,-0.34199,0.028339,0.36198,-0.5457,-0.2565,-0.166,1.6107,0.23213,3.4084
0.016894,0.056689,0.043543,0.064812,-0.48985,0.17176,-0.060593,-0.22322,-0.28117,0.65195,-0.03826,0.58454,-0.044523,1.3398,-0.11262,-0.59486,0.039916,0.32298,-0.6087,-0.18997,-0.18964,1.5348,0.18159,3.263
0.017423,0.051359,0.03668,0.069193,-0.40533,0.080068,-0.07193,-0.25785,-0.27287,0.5035,-0.052862,0.51188,-0.11334,0.98756,-0.16681,-0.72649,0.038767,0.19845,-0.7098,-0.22392,-0.19918,1.523,0.12568,2.9764
0.013374,0.036827,0.030734,0.065091,-0.3286,-0.037766,-0.095004,-0.31679,-0.26144,0.36729,-0.055784,0.42883,-0.2249,0.66089,-0.19461,-0.74483,0.026513,-0.0067664,-0.8275,-0.33873,-0.20093,1.5811,0.074615,2.6743
0.0076546,0.017903,0.025566,0.054561,-0.27404,-0.18885,-0.12506,-0.40617,-0.25193,0.28053,-0.044381,0.35047,-0.36802,0.38394,-0.18827,-0.70106,0.0063464,-0.27518,-0.93446,-0.49237,-0.20621,1.7124,0.034446,2.4829
0.00412,0.0040444,0.022199,0.043861,-0.24489,-0.35622,-0.15438,-0.50898,-0.24716,0.2588,-0.02037,0.29265,-0.52283,0.16372,-0.1548,-0.6669,-0.018725,-0.5827,-1.0141,-0.64289,-0.21999,1.9104,0.0039377,2.4623
0.0045242,0.0029884,0.022416,0.039173,-0.23071,-0.50774,-0.17681,-0.59461,-0.24699,0.29065,0.0092456,0.26681,-0.66429,-0.0058171,-0.11073,-0.69793,-0.046266,-0.90286,-1.0663,-0.76461,-0.23466,2.1528,-0.022781,2.5683
0.0073011,0.014779,0.027347,0.042483,-0.21475,-0.6194,-0.19124,-0.64136,-0.24977,0.34725,0.035865,0.27716,-0.7698,-0.13519,-0.072629,-0.80489,-0.073518,-1.2046,-1.0991,-0.84658,-0.23409,2.3986,-0.049899,2.6733
0.0090786,0.031142,0.036022,0.050841,-0.18627,-0.69375,-0.20142,-0.65477,-0.2537,0.39886,0.055793,0.32115,-0.82791,-0.23376,-0.050002,-0.95308,-0.096205,-1.4477,-1.1136,-0.87812,-0.20498,2.5935,-0.075247,2.6359
0.0076588,0.041105,0.044971,0.059228,-0.14758,-0.75707,-0.21217,-0.66483,-0.25601,0.42698,0.074227,0.3915,-0.84342,-0.31111,-0.044131,-1.0919,-0.10827,-1.5857,-1.0978,-0.83855,-0.14644,2.6875,-0.091335,2.3823
0.0040053,0.038798,0.049337,0.064464,-0.11016,-0.83711,-0.22461,-0.70201,-0.25108,0.4272,0.10245,0.47796,-0.83497,-0.3823,-0.050958,-1.1931,-0.10338,-1.582,-1.0341,-0.70463,-0.070126,2.6602,-0.09138,1.9495
0.0015095,0.027517,0.045094,0.067004,-0.083406,-0.93916,-0.2343,-0.77122,-0.23031,0.4058,0.14925,0.56845,-0.82555,-0.46804,-0.064255,-1.2676,-0.077883,-1.4323,-0.91463,-0.47171,0.0091085,2.5375,-0.075165,1.4644
0.0029897,0.016989,0.0312,0.069549,-0.066331,-1.0399,-0.23384,-0.84587,-0.18543,0.37571,0.21298,0.65072,-0.83105,-0.58448,-0.077103,-1.3476,-0.033871,-1.176,-0.75038,-0.16979,0.084243,2.3844,-0.049497,1.0728
0.0078865,0.015986,0.0104,0.073976,-0.049185,-1.1033,-0.21808,-0.888,-0.11398,0.35367,0.28042,0.71565,-0.85398,-0.72804,-0.082653,-1.448,0.020108,-0.88509,-0.56662,0.1425,0.15953,2.2701,-0.02263,0.86424
0.012216,0.025892,-0.011997,0.079254,-0.022902,-1.1054,-0.1881,-0.87786,-0.022806,0.35624,0.33395,0.76122,-0.8859,-0.86859,-0.075795,-1.5427,0.071807,-0.63107,-0.38776,0.40536,0.24356,2.2263,0.0024963,0.83446
0.011677,0.039909,-0.030823,0.081971,0.012643,-1.0483,-0.15086,-0.82829,0.073313,0.39339,0.36141,0.79482,-0.91628,-0.96081,-0.055452,-1.578,0.11058,-0.45064,-0.22503,0.58751,0.33772,2.2284,0.030007,0.90535
0.0054936,0.048251,-0.043639,0.078953,0.048915,-0.95573,-0.11494,-0.77253,0.15782,0.46271,0.36182,0.8313,-0.94053,-0.96931,-0.025477,-1.5137,0.13202,-0.3337,-0.076602,0.69582,0.42995,2.213,0.065798,0.98038
-0.0023878,0.045285,-0.051487,0.069952,0.076707,-0.85618,-0.085915,-0.73707,0.21982,0.5492,0.34342,0.8863,-0.96083,-0.89061,0.007264,-1.3588,0.13874,-0.24283,0.061191,0.75842,0.49925,2.1201,0.1095,0.99763
-0.0060969,0.033463,-0.057308,0.058381,0.094257,-0.76869,-0.064747,-0.72301,0.25857,0.63237,0.31695,0.96746,-0.97973,-0.756,0.036448,-1.1709,0.13686,-0.15096,0.1826,0.79575,0.52781,1.9264,0.15093,0.94938
-0.0025113,0.021441,-0.063225,0.049527,0.10845,-0.7005,-0.049839,-0.71033,0.28251,0.69596,0.28991,1.068,-0.99265,-0.61328,0.058682,-1.0181,0.13087,-0.068562,0.27144,0.803,0.51145,1.6464,0.17483,0.86442
0.0061376,0.017927,-0.068868,0.047348,0.1287,-0.65293,-0.040315,-0.67856,0.30369,0.73317,0.26527,1.1671,-0.98696,-0.5013,0.073015,-0.9335,0.12111,-0.039366,0.31134,0.75703,0.46074,1.308,0.17073,0.77425
0.014002,0.025558,-0.072084,0.051865,0.15927,-0.62612,-0.037207,-0.62391,0.33071,0.74513,0.24386,1.2378,-0.94965,-0.43472,0.078737,-0.89808,0.10535,-0.10739,0.29811,0.64046,0.39283,0.9275,0.14023,0.6898
0.016224,0.038889,-0.071374,0.058823,0.19628,-0.61702,-0.041567,-0.55828,0.36415,0.73619,0.22671,1.2593,-0.87808,-0.40663,0.074273,-0.8624,0.082738,-0.28108,0.24366,0.46215,0.32115,0.50747,0.09596,0.60162
0.012476,0.047776,-0.067823,0.061928,0.23071,-0.61444,-0.051533,-0.49372,0.39695,0.71166,0.21501,1.2277,-0.78442,-0.40226,0.05869,-0.78896,0.056179,-0.52301,0.16839,0.25703,0.25081,0.056861,0.053091,0.49658
0.006607,0.043972,-0.064605,0.056476,0.25371,-0.59911,-0.061374,-0.42853,0.41943,0.67905,0.20865,1.1577,-0.68891,-0.41097,0.034365,-0.68136,0.031013,-0.77303,0.088579,0.065456,0.18156,-0.39165,0.020201,0.37354
0.0030615,0.026657,-0.064328,0.042249,0.2598,-0.5518,-0.063727,-0.34842,0.42563,0.64847,0.20551,1.0738,-0.60582,-0.42831,0.0077887,-0.57987,0.011303,-0.98611,0.0088177,-0.091657,0.11383,-0.7877,-0.0037933,0.24567
0.0034223,0.0032285,-0.066547,0.023883,0.24671,-0.4642,-0.053377,-0.24068,0.41687,0.62857,0.20278,0.99646,-0.53226,-0.45022,-0.01302,-0.5296,-0.0027411,-1.1549,-0.075965,-0.22334,0.051443,-1.0914,-0.02544,0.13026
0.0058493,-0.015307,-0.067879,0.0083149,0.21401,-0.34376,-0.029684,-0.10766,0.40025,0.62011,0.19855,0.93051,-0.44875,-0.46695,-0.022817,-0.54664,-0.013928,-1.3015,-0.17227,-0.35835,-0.0011437,-1.3,-0.049837,0.036223
0.0073165,-0.021331,-0.064927,0.00078297,0.16305,-0.2088,0.0038799,0.032662,0.38356,0.61398,0.19182,0.86476,-0.33159,-0.46336,-0.02168,-0.60638,-0.024763,-1.4494,-0.28113,-0.52373,-0.043318,-1.4495,-0.076797,-0.041198
0.0062005,-0.015277,-0.057589,0.0018659,0.098312,-0.078161,0.042119,0.15825,0.37046,0.59741,0.18081,0.78194,-0.16895,-0.4262,-0.013795,-0.66049,-0.034843,-1.6015,-0.39695,-0.72849,-0.079304,-1.5872,-0.10218,-0.11698
0.0030149,-0.0048314,-0.049738,0.0074974,0.027532,0.036333,0.080192,0.25546,0.35957,0.56422,0.16202,0.67201,0.029795,-0.35385,-0.0037009,-0.66861,-0.041312,-1.7408,-0.51081,-0.96233,-0.11396,-1.7384,-0.12176,-0.20852
-0.00078584,0.00059949,-0.046369,0.011884,-0.041153,0.12983,0.1141,0.32203,0.34734,0.51946,0.13196,0.5384,0.23712,-0.26166,0.0067064,-0.62184,-0.041848,-1.8503,-0.61383,-1.2062,-0.14707,-1.8905,-0.1337,-0.32835
-0.0042925,-0.0038972,-0.04948,0.011215,-0.10357,0.19951,0.14027,0.36067,0.33136,0.47311,0.09056,0.3929,0.42012,-0.17803,0.018135,-0.54316,-0.037327,-1.9275,-0.69818,-1.4437,-0.17164,-2.0061,-0.13808,-0.47922
-0.0074795,-0.016113,-0.056177,0.0055347,-0.16171,0.24101,0.15577,0.3726,0.31103,0.42822,0.043217,0.2439,0.5555,-0.13166,0.031489,-0.46715,-0.031702,-1.9805,-0.75689,-1.6638,-0.17837,-2.0528,-0.13547,-0.65201
-0.010458,-0.02907,-0.060725,-0.0022913,-0.22103,0.25038,0.15963,0.35862,0.28537,0.37489,-0.0014164,0.088351,0.63924,-0.13598,0.045743,-0.4159,-0.029215,-2.0091,-0.7849,-1.8577,-0.16291,-2.0248,-0.12672,-0.82757
-0.012786,-0.036171,-0.058864,-0.0092832,-0.28468,0.22945,0.15403,0.32649,0.25114,0.2977,-0.036392,-0.085519,0.68721,-0.18054,0.058173,-0.3888,-0.03139,-1.9932,-0.78138,-2.015,-0.12993,-1.9451,-0.11438,-0.98398
-0.013691,-0.035346,-0.050821,-0.014305,-0.34926,0.18888,0.14373,0.29507,0.2043,0.19129,-0.060179,-0.28725,0.72795,-0.23504,0.066575,-0.37136,-0.036363,-1.9034,-0.7514,-2.1267,-0.090644,-1.8487,-0.10315,-1.107
-0.012931,-0.029687,-0.040713,-0.017901,-0.40616,0.14466,0.13368,0.28826,0.14437,0.070525,-0.075787,-0.51436,0.79144,-0.264,0.071381,-0.35213,-0.040948,-1.7291,-0.70446,-2.1923,-0.055799,-1.7636,-0.097956,-1.1978
-0.011312,-0.024758,-0.033192,-0.020769,-0.4477,0.10963,0.12638,0.32112,0.077515,-0.035514,-0.086163,-0.75139,0.89884,-0.24219,0.075862,-0.33141,-0.043476,-1.5009,-0.65046,-2.2228,-0.029816,-1.7004,-0.10049,-1.2712
-0.010227,-0.024804,-0.030377,-0.022777,-0.47278,0.086687,0.12131,0.38911,0.014808,-0.10274,-0.090102,-0.97713,1.0567,-0.16161,0.08436,-0.31455,-0.044917,-1.2857,-0.59606,-2.2356,-0.010585,-1.6546,-0.10753,-1.346
-0.010489,-0.030272,-0.031374,-0.023471,-0.48744,0.069359,0.11667,0.47,-0.034163,-0.12986,-0.08248,-1.1723,1.2569,-0.028606,0.099977,-0.29787,-0.047486,-1.156,-0.54395,-2.2458,0.0057359,-1.6156,-0.11302,-1.4316
-0.011465,-0.037819,-0.034067,-0.02315,-0.49982,0.049809,0.11195,0.53792,-0.067233,-0.1402,-0.058729,-1.3214,1.4803,0.14285,0.1232,-0.26239,-0.052192,-1.1524,-0.49516,-2.2604,0.019701,-1.5732,-0.1124,-1.522
-0.011361,-0.042447,-0.036971,-0.022811,-0.51431,0.02771,0.10893,0.57938,-0.090116,-0.16532,-0.019795,-1.4106,1.7011,0.33481,0.15198,-0.18315,-0.057576,-1.265,-0.45187,-2.2812,0.027931,-1.521,-0.10551,-1.5984
-0.008633,-0.04037,-0.039448,-0.02266,-0.52974,0.012232,0.11026,0.59923,-0.11082,-0.22339,0.026435,-1.4276,1.8895,0.52521,0.18295,-0.047375,-0.060629,-1.4412,-0.41781,-2.3108,0.027101,-1.4557,-0.095608,-1.6388
-0.0035034,-0.031084,-0.040717,-0.020871,-0.54273,0.014958,0.11704,0.61313,-0.13295,-0.30912,0.068271,-1.3671,2.0139,0.68866,0.21309,0.13305,-0.0589,-1.6134,-0.39601,-2.3538,0.018426,-1.3764,-0.085727,-1.6268
0.001744,-0.017601,-0.039355,-0.014576,-0.55218,0.03949,0.12763,0.63327,-0.15391,-0.40264,0.095563,-1.2375,2.0452,0.80183,0.24114,0.32449,-0.051953,-1.7264,-0.38589,-2.4097,0.0081008,-1.2839,-0.076119,-1.5569
0.0041972,-0.0049051,-0.034244,-0.0029608,-0.56032,0.076804,0.13884,0.65902,-0.16937,-0.48885,0.1038,-1.0593,1.9644,0.85095,0.26804,0.48654,-0.041256,-1.7547,-0.38249,-2.4643,0.0030203,-1.1811,-0.065182,-1.4367
0.0025284,0.0023967,-0.025992,0.010254,-0.56956,0.1108,0.1482,0.679,-0.17929,-0.5702,0.095032,-0.85528,1.7713,0.83496,0.29547,0.58757,-0.02909,-1.7063,-0.37893,-2.4911,0.0055524,-1.0734,-0.052682,-1.2855
-0.0018401,0.0019612,-0.017044,0.01797,-0.57864,0.12978,0.15534,0.68171,-0.18912,-0.66178,0.075865,-0.63913,1.4885,0.76177,0.32306,0.61209,-0.017655,-1.6175,-0.37032,-2.4669,0.012034,-0.96981,-0.0417,-1.1306
-0.005758,-0.0055537,-0.0099254,0.014606,-0.58261,0.13425,0.16114,0.66516,-0.20431,-0.77291,0.054232,-0.41546,1.1568,0.64171,0.34588,0.55973,-0.0088098,-1.5395,-0.3565,-2.3916,0.016215,-0.88358,-0.036959,-0.9998
-0.0068239,-0.016795,-0.0050619,0.0011365,-0.57705,0.13451,0.16571,0.63784,-0.22295,-0.8913,0.03644,-0.1924,0.82295,0.48507,0.35477,0.44183,-0.003981,-1.5205,-0.34187,-2.2993,0.014468,-0.83098,-0.040794,-0.91098
-0.0051791,-0.026728,-0.00036669,-0.014315,-0.56264,0.14023,0.16736,0.61094,-0.23395,-0.98374,0.025532,0.0048877,0.52746,0.30564,0.34067,0.28025,-0.0037272,-1.5873,-0.33321,-2.2484,0.0083035,-0.82628,-0.050361,-0.86519
-0.0030038,-0.030303,0.0067558,-0.021701,-0.54554,0.15123,0.16388,0.58898,-0.22366,-1.0143,0.021301,0.13519,0.29582,0.12498,0.30082,0.1067,-0.0072305,-1.7356,-0.33748,-2.2973,0.0025137,-0.87398,-0.058638,-0.84678
-0.0022254,-0.024758,0.016673,-0.016534,-0.53288,0.15741,0.15503,0.56661,-0.1862,-0.96643,0.021729,0.16058,0.13693,-0.030051,0.24287,-0.042018,-0.012514,-1.9363,-0.36073,-2.4779,0.0012569,-0.96241,-0.05841,-0.83152
-0.0026485,-0.011685,0.02666,-0.0036194,-0.52726,0.14802,0.14384,0.53417,-0.12897,-0.85432,0.024908,0.071129,0.044644,-0.13769,0.18311,-0.13445,-0.017643,-2.1524,-0.40699,-2.7825,0.0057171,-1.064,-0.046134,-0.79771
-0.0022766,0.0028529,0.032957,0.0063508,-0.52504,0.12209,0.13522,0.48669,-0.068627,-0.7154,0.030168,-0.10504,0.00077038,-0.19305,0.13911,-0.15651,-0.022108,-2.3531,-0.47582,-3.1675,0.014762,-1.1445,-0.023113,-0.73413
0.00059993,0.011328,0.034133,0.004972,-0.51977,0.090826,0.13273,0.42901,-0.020422,-0.59226,0.037631,-0.31518,-0.020217,-0.21224,0.12101,-0.11761,-0.027185,-2.5148,-0.559,-3.5696,0.026844,-1.1783,0.0059849,-0.64163
0.0057018,0.0096929,0.032761,-0.0074064,-0.50765,0.069547,0.13612,0.37256,0.010527,-0.51554,0.046731,-0.5094,-0.042684,-0.2256,0.12686,-0.046445,-0.034853,-2.6111,-0.63923,-3.926,0.040624,-1.1609,0.035336,-0.53083
0.011104,0.00074325,0.033742,-0.022185,-0.49032,0.065656,0.1419,0.32688,0.029698,-0.49628,0.055227,-0.66234,-0.079225,-0.26404,0.14469,0.021561,-0.04608,-2.6069,-0.69403,-4.1916,0.053966,-1.1116,0.059283,-0.41926
0.015113,-0.007307,0.040475,-0.02954,-0.47318,0.072593,0.14618,0.29279,0.046146,-0.52709,0.059953,-0.77583,-0.12422,-0.34605,0.15974,0.058384,-0.059805,-2.4691,-0.70433,-4.3479,0.06341,-1.0646,0.072872,-0.32895
0.017617,-0.0067525,0.052009,-0.0261,-0.46094,0.074786,0.14754,0.26259,0.064675,-0.58687,0.059017,-0.86497,-0.15788,-0.47029,0.16217,0.052222,-0.073263,-2.1884,-0.6627,-4.4004,0.066073,-1.0504,0.072744,-0.28189
0.019546,0.003556,0.063565,-0.01698,-0.4545,0.059452,0.14725,0.22676,0.08358,-0.646,0.053581,-0.94135,-0.16014,-0.61475,0.15091,0.008331,-0.083253,-1.7927,-0.57512,-4.3645,0.06302,-1.0789,0.05891,-0.29101
0.021201,0.017172,0.070054,-0.010769,-0.45114,0.025346,0.14726,0.18134,0.09858,-0.67309,0.047398,-1.0047,-0.12539,-0.7424,0.1323,-0.056499,-0.087441,-1.3358,-0.45478,-4.2461,0.060729,-1.1316,0.036334,-0.34984
0.02149,0.025302,0.069781,-0.012042,-0.44726,-0.018563,0.14781,0.12998,0.10811,-0.64495,0.043957,-1.0447,-0.066973,-0.81373,0.11528,-0.12244,-0.085114,-0.8654,-0.31273,-4.0304,0.068122,-1.1667,0.014576,-0.42829
0.019102,0.024176,0.065471,-0.017809,-0.44094,-0.062753,0.14716,0.07951,0.11467,-0.55665,0.043277,-1.0471,-0.0082828,-0.80482,0.10624,-0.17526,-0.077335,-0.39615,-0.1529,-3.6891,0.090493,-1.1387,0.004689,-0.48158
0.014447,0.018275,0.061998,-0.020502,-0.43243,-0.10617,0.14314,0.033194,0.1214,-0.42506,0.041058,-1.0001,0.032005,-0.72357,0.1062,-0.21303,-0.066601,0.090641,0.024877,-3.2031,0.12499,-1.02,0.014608,-0.47052
0.010165,0.016563,0.062789,-0.014409,-0.42285,-0.15643,0.13484,-0.012238,0.12792,-0.28165,0.031288,-0.90054,0.048565,-0.613,0.11118,-0.24829,-0.055978,0.6191,0.2177,-2.585,0.16166,-0.81725,0.045574,-0.38258
0.0092838,0.024939,0.067681,0.00015098,-0.4128,-0.22118,0.12273,-0.063236,0.12964,-0.15811,0.010614,-0.76014,0.046032,-0.53434,0.11497,-0.30334,-0.047799,1.1857,0.41531,-1.8828,0.18976,-0.57046,0.091629,-0.24027
0.012548,0.041425,0.073597,0.017963,-0.40219,-0.29826,0.10757,-0.12247,0.12129,-0.073952,-0.018817,-0.60785,0.028697,-0.53603,0.11249,-0.39843,-0.042534,1.7468,0.60253,-1.1609,0.20454,-0.33586,0.14223,-0.090845
0.01742,0.058079,0.077106,0.033483,-0.39075,-0.3736,0.089822,-0.18405,0.10106,-0.033224,-0.050406,-0.48222,-0.0059515,-0.62675,0.10196,-0.53815,-0.038791,2.2339,0.76549,-0.47252,0.2093,-0.1618,0.18615,0.016169
0.019891,0.06764,0.076744,0.044356,-0.37836,-0.42865,0.070743,-0.23487,0.071415,-0.02955,-0.077358,-0.41373,-0.063685,-0.77105,0.085023,-0.70413,-0.034763,2.5831,0.89539,0.15689,0.21132,-0.071639,0.21457,0.049855
0.017672,0.06896,0.073508,0.051282,-0.36425,-0.45112,0.05387,-0.26137,0.036355,-0.052734,-0.096888,-0.40716,-0.14403,-0.91151,0.065383,-0.86041,-0.030187,2.758,0.98744,0.72424,0.21539,-0.062637,0.22259,0.0055054
0.012029,0.066745,0.069597,0.055482,-0.34654,-0.44086,0.044538,-0.25677,-0.0019109,-0.091835,-0.1111,-0.43773,-0.23478,-1.0025,0.047167,-0.96978,-0.027056,2.7575,1.0385,1.2311,0.22031,-0.11831,0.20982,-0.10211
0.0067177,0.066453,0.06662,0.057013,-0.32318,-0.40726,0.046637,-0.2239,-0.043348,-0.13559,-0.12393,-0.46615,-0.31673,-1.0329,0.034062,-1.0117,-0.028098,2.6136,1.0487,1.6715,0.22093,-0.22195,0.1809,-0.25145
0.004969,0.069332,0.064583,0.055492,-0.2943,-0.36199,0.058805,-0.17247,-0.087455,-0.17424,-0.13675,-0.46195,-0.37507,-1.0244,0.029211,-0.99085,-0.033969,2.3861,1.0268,2.0355,0.21344,-0.36046,0.14528,-0.42301
0.0070875,0.071922,0.06215,0.051829,-0.26398,-0.31334,0.073685,-0.11345,-0.13059,-0.20366,-0.14626,-0.41658,-0.40751,-1.0113,0.035006,-0.93332,-0.041636,2.1531,0.99351,2.3229,0.19904,-0.51818,0.115,-0.6008
0.010523,0.069952,0.057836,0.048452,-0.2391,-0.26571,0.081789,-0.055012,-0.16624,-0.22747,-0.14648,-0.3362,-0.42241,-1.0193,0.052212,-0.87408,-0.045763,1.9915,0.97648,2.5513,0.18288,-0.67093,0.099812,-0.77094
0.012113,0.062642,0.05132,0.047435,-0.2254,-0.22246,0.077555,-0.0021742,-0.18819,-0.25261,-0.13325,-0.22273,-0.42947,-1.0566,0.078938,-0.84593,-0.042518,1.9492,0.99737,2.7512,0.16983,-0.79085,0.10201,-0.92318
0.01046,0.053507,0.044084,0.048513,-0.2235,-0.18823,0.062889,0.041121,-0.19364,-0.28037,-0.10787,-0.063347,-0.43235,-1.1201,0.11063,-0.8736,-0.032858,2.0253,1.0612,2.9515,0.16107,-0.86082,0.11453,-1.0561
0.0066099,0.047249,0.038842,0.049353,-0.22827,-0.16791,0.045309,0.070879,-0.18355,-0.3006,-0.076987,0.15874,-0.4299,-1.2041,0.14166,-0.97149,-0.022397,2.1778,1.1569,3.1709,0.15438,-0.8856,0.12477,-1.1798
0.0027986,0.045869,0.037897,0.048152,-0.23217,-0.16314,0.0323,0.084777,-0.16058,-0.29626,-0.048875,0.4401,-0.42332,-1.3049,0.16752,-1.1411,-0.017471,2.3601,1.2697,3.4188,0.14721,-0.88632,0.12248,-1.3107
0.00066303,0.04746,0.041402,0.046038,-0.22974,-0.16932,0.026582,0.085362,-0.12701,-0.2564,-0.028994,0.74256,-0.42025,-1.4191,0.18596,-1.3684,-0.020197,2.5626,1.3949,3.7024,0.13917,-0.87907,0.10637,-1.458
0.00042555,0.048401,0.046836,0.04662,-0.21959,-0.17584,0.025955,0.081068,-0.084698,-0.18725,-0.018002,1.0054,-0.42998,-1.5422,0.19615,-1.6264,-0.026363,2.8268,1.5407,4.0274,0.13162,-0.85521,0.084498,-1.6128
0.0014315,0.046597,0.050442,0.052655,-0.20246,-0.17045,0.027101,0.082533,-0.036519,-0.11113,-0.013387,1.1785,-0.45349,-1.6709,0.19701,-1.8857,-0.028,3.2143,1.7152,4.3881,0.12531,-0.78362,0.067906,-1.748
0.0031667,0.042728,0.049868,0.06266,-0.17796,-0.14599,0.029327,0.095615,0.013036,-0.051898,-0.012955,1.2503,-0.47911,-1.8065,0.18658,-2.1287,-0.018889,3.7512,1.9087,4.7574,0.11904,-0.63838,0.062214,-1.8322
0.0056576,0.038606,0.046015,0.070676,-0.14353,-0.10515,0.034727,0.11616,0.059116,-0.016567,-0.01705,1.2488,-0.49013,-1.9524,0.16372,-2.358,0.0010548,4.3885,2.0861,5.0892,0.11072,-0.43217,0.063375,-1.8486
0.0089801,0.034433,0.042384,0.06976,-0.096972,-0.059598,0.044983,0.13133,0.098367,0.013142,-0.027612,1.2141,-0.47915,-2.1046,0.13081,-2.59,0.025733,5.0096,2.1983,5.3386,0.099419,-0.22606,0.06064,-1.8037
0.012552,0.027737,0.042102,0.056667,-0.040118,-0.022264,0.058358,0.1279,0.12926,0.072127,-0.044938,1.1674,-0.45593,-2.2401,0.095178,-2.8359,0.047013,5.4826,2.207,5.4857,0.085533,-0.10233,0.044095,-1.7228
0.015047,0.015198,0.044913,0.034162,0.019855,0.0026261,0.070095,0.10207,0.15054,0.19045,-0.065087,1.1022,-0.43988,-2.3152,0.067481,-3.0826,0.05984,5.7235,2.1079,5.5444,0.068571,-0.11599,0.010938,-1.6346
0.015105,-0.0040323,0.046762,0.009361,0.073266,0.024113,0.075967,0.063406,0.1599,0.37227,-0.080506,1.0036,-0.44194,-2.2785,0.057333,-3.2867,0.064625,5.7301,1.9353,5.5455,0.045154,-0.25979,-0.033821,-1.5595
0.012251,-0.026389,0.042615,-0.010436,0.11293,0.058531,0.0756,0.029126,0.15504,0.58841,-0.083924,0.87757,-0.4515,-2.0959,0.068383,-3.3882,0.065698,5.5695,1.747,5.5098,0.010322,-0.46874,-0.081796,-1.5084
0.0072647,-0.045292,0.030395,-0.021381,0.13768,0.1159,0.072437,0.012423,0.1366,0.78767,-0.072896,0.76211,-0.44107,-1.7735,0.095342,-3.3372,0.067677,5.3342,1.5986,5.4305,-0.037833,-0.66073,-0.12654,-1.4904
0.0018054,-0.055222,0.012838,-0.024071,0.15217,0.18901,0.070483,0.013297,0.10974,0.92134,-0.051622,0.71009,-0.38686,-1.3679,0.12469,-3.1223,0.072803,5.0986,1.5215,5.2843,-0.094052,-0.78293,-0.16545,-1.5184
-0.0023841,-0.055515,-0.0042354,-0.021991,0.16357,0.25527,0.071001,0.019045,0.081946,0.96771,-0.028435,0.75591,-0.28896,-0.97309,0.13939,-2.7828,0.080779,4.9011,1.5166,5.0623,-0.14666,-0.83194,-0.19741,-1.6037
-0.0041658,-0.050778,-0.01578,-0.019127,0.17775,0.29178,0.072163,0.01414,0.058194,0.94312,-0.010509,0.89138,-0.17425,-0.68998,0.12629,-2.3974,0.090242,4.7537,1.5635,4.7969,-0.18369,-0.83875,-0.21897,-1.741
-0.0033558,-0.047327,-0.020415,-0.018252,0.19718,0.29263,0.071674,-0.0080215,0.037698,0.89261,0.00053205,1.0681,-0.078973,-0.5876,0.082857,-2.0524,0.099957,4.661,1.6382,4.5612,-0.1999,-0.83693,-0.22311,-1.8956
-0.00074429,-0.048263,-0.020348,-0.020334,0.2209,0.27442,0.069595,-0.040437,0.015769,0.86416,0.0089535,1.2234,-0.024701,-0.67422,0.019261,-1.8029,0.10881,4.6303,1.726,4.4357,-0.19902,-0.84116,-0.20241,-2.0062
0.0021854,-0.051146,-0.019001,-0.024608,0.24574,0.26452,0.068684,-0.068081,-0.010587,0.88057,0.021017,1.3121,-0.006664,-0.89269,-0.046647,-1.6498,0.11533,4.6639,1.8253,4.4644,-0.18939,-0.84901,-0.15481,-2.0082
0.0038666,-0.050338,-0.018691,-0.029008,0.2678,0.28106,0.072128,-0.078818,-0.038475,0.92616,0.040018,1.3251,-0.0028742,-1.145,-0.099509,-1.5466,0.11793,4.7444,1.9394,4.626,-0.1765,-0.85649,-0.087798,-1.8669
0.0034468,-0.042226,-0.020088,-0.031058,0.28369,0.32045,0.080969,-0.070818,-0.060532,0.95819,0.064413,1.2864,0.0048079,-1.3353,-0.13547,-1.4306,0.11606,4.8306,2.0669,4.8401,-0.15885,-0.8682,-0.017412,-1.5995
0.0013288,-0.028996,-0.023151,-0.029274,0.2914,0.36201,0.093479,-0.051108,-0.070904,0.93686,0.09074,1.2355,0.015754,-1.4096,-0.16362,-1.2575,0.11109,4.8716,2.1955,5.0041,-0.13037,-0.8929,0.038409,-1.2697
-0.0010136,-0.017652,-0.028011,-0.024412,0.29071,0.38474,0.10669,-0.027549,-0.070266,0.85377,0.11885,1.2063,0.013683,-1.3703,-0.19849,-1.0175,0.10595,4.8313,2.3058,5.0409,-0.087532,-0.93271,0.068345,-0.95596
-0.0019607,-0.014898,-0.034771,-0.019431,0.28287,0.3815,0.11845,-0.0019051,-0.065158,0.73785,0.1544,1.2129,-0.016012,-1.2617,-0.24928,-0.72812,0.10355,4.7062,2.3803,4.9307,-0.035031,-0.98089,0.072708,-0.71219
-0.00080417,-0.022001,-0.042675,-0.017703,0.27003,0.3597,0.12824,0.029811,-0.062309,0.63352,0.20527,1.2468,-0.070167,-1.1397,-0.3139,-0.41856,0.1052,4.523,2.4115,4.7119,0.014434,-1.0333,0.06147,-0.54826
0.0018371,-0.033821,-0.049783,-0.020492,0.25493,0.33033,0.13659,0.070428,-0.063247,0.56709,0.27318,1.2844,-0.12657,-1.0471,-0.38212,-0.12041,0.11029,4.3178,2.4032,4.4545,0.046549,-1.1017,0.046688,-0.44184
0.0045074,-0.042737,-0.053732,-0.025785,0.24114,0.29742,0.14388,0.11509,-0.063972,0.52759,0.34658,1.2997,-0.15806,-1.0083,-0.44416,0.13296,0.1171,4.1129,2.3642,4.2206,0.053523,-1.2111,0.034882,-0.37044
0.0058484,-0.044215,-0.053052,-0.029763,0.23306,0.25842,0.14963,0.15209,-0.059418,0.47662,0.40067,1.2748,-0.15007,-1.034,-0.49695,0.31147,0.12401,3.9079,2.3008,4.0365,0.038766,-1.3766,0.024971,-0.33557
0.0052433,-0.039586,-0.048029,-0.030011,0.23464,0.21402,0.15251,0.17153,-0.048083,0.3783,0.40619,1.2051,-0.1078,-1.1243,-0.54318,0.40638,0.13012,3.6896,2.2152,3.8893,0.015451,-1.5768,0.012881,-0.35789
0.002842,-0.034048,-0.04058,-0.02771,0.24679,0.17624,0.15098,0.17496,-0.032667,0.22432,0.34258,1.0958,-0.049107,-1.2628,-0.58532,0.44997,0.13516,3.45,2.1088,3.748,0.00019029,-1.7487,-0.0015919,-0.44804
-0.00076163,-0.031833,-0.033312,-0.026576,0.26509,0.1648,0.14414,0.17707,-0.0169,0.0354,0.20815,0.95428,0.008987,-1.413,-0.62164,0.51345,0.13896,3.1972,1.9889,3.5907,0.0054282,-1.8195,-0.011936,-0.58082
-0.0047504,-0.032578,-0.028334,-0.02914,0.28027,0.193,0.13249,0.19664,-0.0023125,-0.15769,0.021797,0.78495,0.058181,-1.5307,-0.64928,0.67183,0.14104,2.9507,1.8687,3.4201,0.034183,-1.7562,-0.0088205,-0.69963
-0.0081174,-0.03171,-0.026341,-0.033632,0.28213,0.25517,0.11787,0.24291,0.011953,-0.33285,-0.18436,0.59146,0.096005,-1.5922,-0.67175,0.95432,0.14045,2.7259,1.7616,3.2559,0.079151,-1.5975,0.012481,-0.75192
-0.0098269,-0.024334,-0.026352,-0.034612,0.26499,0.32786,0.10259,0.30824,0.026782,-0.47842,-0.37746,0.38501,0.11766,-1.6141,-0.70314,1.3178,0.13586,2.523,1.6728,3.1141,0.1261,-1.4382,0.047469,-0.72719
-0.009338,-0.0094009,-0.026277,-0.027251,0.23092,0.38576,0.087852,0.37345,0.041126,-0.58172,-0.53601,0.18971,0.11267,-1.6444,-0.76247,1.668,0.12627,2.3277,1.5963,2.9905,0.15979,-1.3722,0.084457,-0.66376
-0.0071921,0.0090756,-0.024147,-0.011721,0.18804,0.42057,0.07272,0.42244,0.052294,-0.62418,-0.65704,0.035797,0.07135,-1.7214,-0.85988,1.9176,0.1119,2.1235,1.5203,2.8623,0.16962,-1.4323,0.11145,-0.6161
-0.0050005,0.02457,-0.019313,0.0062635,0.14484,0.4475,0.054668,0.45439,0.057475,-0.59721,-0.75535,-0.060122,-0.0040584,-1.8327,-0.98402,2.0403,0.094854,1.9031,1.4359,2.7049,0.15265,-1.5729,0.12227,-0.6092
-0.0044748,0.03235,-0.012747,0.019421,0.1046,0.49333,0.031341,0.48374,0.054323,-0.52875,-0.85469,-0.11519,-0.093813,-1.9102,-1.1016,2.0855,0.078386,1.6705,1.3427,2.5082,0.11292,-1.7072,0.11769,-0.61905
-0.0060178,0.032431,-0.0061268,0.024088,0.06421,0.57457,0.0023217,0.52763,0.040226,-0.4923,-0.97336,-0.18232,-0.16732,-1.8692,-1.1714,2.1482,0.064966,1.4335,1.2462,2.2799,0.058337,-1.7678,0.10213,-0.59547
-0.0080395,0.029303,-0.0003787,0.022367,0.018488,0.68215,-0.030343,0.59089,0.012136,-0.578,-1.111,-0.32492,-0.19861,-1.6635,-1.1656,2.3175,0.054144,1.1948,1.1495,2.0348,-0.0023835,-1.7432,0.080097,-0.50592
-0.0078615,0.028962,0.0050438,0.019811,-0.033592,0.78476,-0.062889,0.661,-0.03145,-0.83661,-1.2442,-0.57588,-0.17992,-1.3129,-1.083,2.6354,0.042198,0.94933,1.048,1.7825,-0.061137,-1.6622,0.055841,-0.36108
-0.0038504,0.035395,0.011392,0.021092,-0.085783,0.84842,-0.090924,0.71666,-0.0876,-1.2359,-1.3362,-0.90892,-0.1239,-0.88133,-0.94654,3.0809,0.02439,0.68859,0.93138,1.5246,-0.11037,-1.5488,0.035341,-0.20111
0.002795,0.048578,0.01894,0.027316,-0.12746,0.85767,-0.11017,0.74256,-0.14835,-1.6665,-1.357,-1.2464,-0.053417,-0.42824,-0.78761,3.5756,-0.0013643,0.40607,0.7912,1.2618,-0.14335,-1.3905,0.026968,-0.059116
0.0082572,0.064728,0.025923,0.036558,-0.15033,0.82277,-0.11719,0.73764,-0.20414,-2,-1.3015,-1.5034,0.013225,0.025108,-0.62823,4.0072,-0.032108,0.099204,0.62747,1,-0.1559,-1.1529,0.03807,0.060827
0.0085833,0.078236,0.029299,0.046142,-0.15355,0.76833,-0.11073,0.71045,-0.24901,-2.1606,-1.195,-1.6386,0.07103,0.48919,-0.47469,4.267,-0.060795,-0.23231,0.44847,0.74938,-0.14859,-0.82317,0.069247,0.16977
0.0027851,0.084261,0.026958,0.054288,-0.14286,0.71336,-0.093552,0.66676,-0.28323,-2.1614,-1.0792,-1.6773,0.12605,0.97363,-0.32408,4.2976,-0.08012,-0.58643,0.26428,0.51627,-0.12703,-0.44074,0.11141,0.26013
-0.0059209,0.081059,0.019668,0.060172,-0.12445,0.65915,-0.073255,0.60147,-0.31082,-2.0819,-0.98945,-1.6891,0.18556,1.4639,-0.17621,4.1269,-0.086465,-0.9539,0.079434,0.29957,-0.099141,-0.081401,0.14945,0.29031
-0.012022,0.071144,0.010999,0.063392,-0.098931,0.59377,-0.060456,0.50292,-0.33429,-2.0098,-0.93684,-1.7398,0.2493,1.9289,-0.040036,3.8626,-0.081025,-1.3118,-0.10977,0.09652,-0.070832,0.19396,0.17106,0.21006
-0.011575,0.060447,0.0050623,0.063973,-0.060727,0.50832,-0.064382,0.36607,-0.35136,-1.9911,-0.90854,-1.8533,0.30845,2.3476,0.069938,3.6338,-0.067513,-1.6229,-0.31223,-0.087276,-0.043526,0.38104,0.17424,0.0086627
-0.0050878,0.055266,0.0036821,0.062818,-0.0037227,0.40991,-0.088034,0.20316,-0.35627,-2.0204,-0.88286,-2.0075,0.35218,2.7255,0.14281,3.5111,-0.048675,-1.8469,-0.5361,-0.23633,-0.015738,0.52642,0.16754,-0.25795
0.0028842,0.058316,0.0052046,0.061588,0.071437,0.31973,-0.12607,0.042062,-0.3443,-2.0658,-0.84655,-2.16,0.37573,3.0851,0.17817,3.4616,-0.024785,-1.9593,-0.78343,-0.33789,0.012671,0.67831,0.16233,-0.4911
0.0071646,0.066487,0.0058784,0.061546,0.15452,0.25763,-0.16724,-0.087223,-0.31511,-2.0991,-0.80123,-2.2759,0.38388,3.4431,0.18641,3.3787,0.0045546,-1.9689,-1.047,-0.40011,0.03747,0.83673,0.16317,-0.61025
0.0056555,0.072403,0.0027591,0.062309,0.22971,0.22659,-0.20023,-0.16774,-0.27246,-2.1062,-0.75635,-2.3368,0.38828,3.7988,0.18392,3.1702,0.037143,-1.9207,-1.3097,-0.45844,0.051338,0.94666,0.16392,-0.60297
0.00044045,0.069292,-0.0040652,0.061876,0.28322,0.21088,-0.21962,-0.20145,-0.22184,-2.0807,-0.7177,-2.3321,0.40245,4.1443,0.18717,2.8381,0.066889,-1.8791,-1.5465,-0.56036,0.04872,0.9405,0.15232,-0.52319
-0.0043333,0.055812,-0.01152,0.058263,0.30908,0.19004,-0.22797,-0.20277,-0.16901,-2.0173,-0.68283,-2.2539,0.43872,4.4776,0.20801,2.4848,0.08648,-1.897,-1.7303,-0.73683,0.030173,0.79479,0.11901,-0.43976
-0.0057755,0.037085,-0.015684,0.051431,0.30937,0.1566,-0.2329,-0.18662,-0.12125,-1.917,-0.64655,-2.1066,0.50718,4.8014,0.25002,2.2403,0.092409,-1.9865,-1.8412,-0.98149,0.0023941,0.55601,0.063803,-0.37794
-0.0040212,0.021048,-0.014379,0.043747,0.29021,0.12172,-0.24153,-0.1613,-0.088809,-1.7956,-0.60932,-1.9229,0.61349,5.1044,0.30667,2.1664,0.088236,-2.1072,-1.8757,-1.2542,-0.02616,0.31774,-0.0049096,-0.30075
-0.0013371,0.01308,-0.008454,0.038385,0.25735,0.10279,-0.25633,-0.13112,-0.083122,-1.6793,-0.57921,-1.7625,0.75303,5.3488,0.36316,2.2165,0.082785,-2.1834,-1.8503,-1.5062,-0.050386,0.16945,-0.075552,-0.14218
0.00019388,0.01324,-0.0011551,0.036922,0.21436,0.10376,-0.27544,-0.10436,-0.11072,-1.5858,-0.56474,-1.6848,0.90498,5.4847,0.40337,2.2794,0.083971,-2.1431,-1.7965,-1.7074,-0.070344,0.15453,-0.1383,0.13757
0.00022878,0.017968,0.0037499,0.038172,0.16386,0.10647,-0.29619,-0.09646,-0.16654,-1.5077,-0.56527,-1.7114,1.0335,5.4849,0.41891,2.2677,0.092765,-1.9621,-1.7484,-1.8559,-0.08898,0.26082,-0.18639,0.51833
-0.00013562,0.024054,0.0038878,0.039297,0.10957,0.083222,-0.31772,-0.1227,-0.23261,-1.4162,-0.56825,-1.8108,1.1003,5.3696,0.41414,2.1772,0.10217,-1.6859,-1.7289,-1.9654,-0.10855,0.43975,-0.21512,0.92915
0.00020735,0.030891,-0.00069394,0.038317,0.057322,0.022083,-0.33989,-0.18447,-0.28514,-1.2865,-0.55615,-1.921,1.0834,5.1931,0.40277,2.0732,0.10229,-1.4186,-1.7419,-2.047,-0.12901,0.6344,-0.22187,1.2866
0.0013526,0.039135,-0.0077265,0.035881,0.014562,-0.056845,-0.35953,-0.26147,-0.30688,-1.1228,-0.51736,-1.9955,0.98978,5.0004,0.39815,2.0225,0.087635,-1.2797,-1.7744,-2.1002,-0.14891,0.80031,-0.20798,1.5301
0.0025582,0.047711,-0.014007,0.034746,-0.011018,-0.11021,-0.36896,-0.31925,-0.29677,-0.96073,-0.45265,-2.0347,0.85084,4.7907,0.40468,2.0311,0.060933,-1.3544,-1.807,-2.1213,-0.16654,0.9162,-0.17986,1.6343
0.0030984,0.052796,-0.017238,0.037313,-0.012962,-0.10077,-0.36004,-0.32931,-0.26991,-0.84532,-0.37312,-2.0796,0.70306,4.5219,0.41679,2.0389,0.030498,-1.6612,-1.8266,-2.1175,-0.17919,0.98757,-0.14677,1.5992
0.0027677,0.05025,-0.017493,0.043198,0.012461,-0.024282,-0.33161,-0.28725,-0.24742,-0.80372,-0.29321,-2.173,0.56669,4.1563,0.42531,1.9706,0.0035799,-2.1521,-1.8355,-2.1099,-0.18152,1.0437,-0.1159,1.4388
0.0016457,0.039268,-0.017311,0.048806,0.064539,0.088459,-0.29358,-0.21412,-0.24287,-0.834,-0.22473,-2.3207,0.43834,3.7055,0.42468,1.7948,-0.018664,-2.7376,-1.8515,-2.1207,-0.16588,1.1255,-0.089304,1.1769
-0.00035298,0.023486,-0.020068,0.049349,0.13649,0.19617,-0.26265,-0.13926,-0.25471,-0.91321,-0.17469,-2.4825,0.30236,3.2341,0.41495,1.5455,-0.040513,-3.3178,-1.8975,-2.1567,-0.12664,1.2663,-0.065735,0.8501
-0.0034537,0.0081946,-0.027504,0.04189,0.21511,0.27721,-0.25162,-0.078624,-0.26955,-1.0102,-0.14523,-2.5955,0.15054,2.8179,0.39836,1.291,-0.06626,-3.8067,-1.9888,-2.2048,-0.06626,1.4766,-0.046099,0.50522
-0.0075052,-0.0038264,-0.038157,0.027393,0.28306,0.33978,-0.26055,-0.026567,-0.27318,-1.0899,-0.13287,-2.6083,-0.0064695,2.4912,0.37554,1.0839,-0.095012,-4.1466,-2.1235,-2.2488,0.0019793,1.7425,-0.036963,0.18646
-0.011625,-0.013779,-0.047993,0.010554,0.32393,0.4051,-0.27724,0.032958,-0.26087,-1.1123,-0.12752,-2.5029,-0.14525,2.2285,0.3459,0.93133,-0.12028,-4.3179,-2.2833,-2.2955,0.058133,2.0384,-0.04797,-0.079702
-0.014543,-0.024156,-0.052946,-0.0023424,0.32846,0.48086,-0.28691,0.10687,-0.23953,-1.0396,-0.11449,-2.2975,-0.24758,1.975,0.31132,0.80603,-0.13458,-4.3456,-2.4431,-2.387,0.085327,2.3414,-0.084542,-0.2899
-0.015423,-0.034632,-0.0516,-0.0063452,0.29867,0.55009,-0.28289,0.18332,-0.22099,-0.85734,-0.080874,-2.0375,-0.31507,1.6954,0.27799,0.68015,-0.13501,-4.2928,-2.5818,-2.5833,0.078938,2.6336,-0.14188,-0.45381
-0.01441,-0.040965,-0.046101,-0.00023416,0.24724,0.58544,-0.2698,0.24036,-0.21211,-0.59257,-0.023215,-1.7857,-0.36858,1.3989,0.25302,0.54945,-0.12508,-4.2308,-2.6863,-2.9198,0.048847,2.8917,-0.20559,-0.57597
-0.012416,-0.038596,-0.040767,0.012589,0.19207,0.57437,-0.25725,0.26414,-0.20975,-0.30793,0.049664,-1.6107,-0.43377,1.1219,0.23859,0.43006,-0.11167,-4.198,-2.7462,-3.3653,0.012871,3.0773,-0.25872,-0.64365
-0.010452,-0.027862,-0.039465,0.025278,0.1488,0.53094,-0.25045,0.25946,-0.20411,-0.065195,0.12184,-1.5674,-0.52467,0.89002,0.22972,0.33738,-0.1001,-4.1718,-2.7469,-3.8117,-0.014358,3.1437,-0.28998,-0.63041
-0.009147,-0.015613,-0.043495,0.030717,0.12524,0.48323,-0.24621,0.24303,-0.18718,0.11587,0.18019,-1.6736,-0.63722,0.6976,0.21922,0.27034,-0.091515,-4.0801,-2.6684,-4.1089,-0.029598,3.0587,-0.29724,-0.51262
-0.0087641,-0.010815,-0.051133,0.025496,0.12048,0.44846,-0.23697,0.22623,-0.1595,0.26738,0.22154,-1.8973,-0.75512,0.52029,0.20582,0.21527,-0.084241,-3.8482,-2.495,-4.1322,-0.040859,2.829,-0.2849,-0.28712
-0.0093806,-0.01727,-0.058873,0.012388,0.12777,0.4188,-0.21841,0.20355,-0.12995,0.43915,0.25197,-2.1694,-0.86028,0.34477,0.19777,0.16181,-0.07726,-3.4502,-2.228,-3.846,-0.059388,2.5048,-0.2585,0.021959
-0.010816,-0.029785,-0.063536,-0.00084563,0.13868,0.37011,-0.19336,0.15699,-0.10912,0.6466,0.27993,-2.4207,-0.93899,0.18202,0.20707,0.11225,-0.072135,-2.9267,-1.8907,-3.3257,-0.08991,2.1579,-0.22148,0.37071
-0.01239,-0.037714,-0.064101,-0.0062904,0.14616,0.28456,-0.16904,0.072234,-0.10167,0.84702,0.30982,-2.6163,-0.98151,0.050711,0.23842,0.074441,-0.071689,-2.3577,-1.5225,-2.7213,-0.12637,1.8482,-0.1763,0.71106
-0.013031,-0.033504,-0.062255,-0.0013605,0.1459,0.16646,-0.15066,-0.047872,-0.10307,0.96802,0.34129,-2.7638,-0.98023,-0.051262,0.28236,0.04633,-0.076749,-1.8177,-1.1641,-2.1813,-0.15621,1.6019,-0.12802,1.0048
-0.011973,-0.019228,-0.061271,0.0092887,0.13712,0.038824,-0.13742,-0.18338,-0.10242,0.96667,0.37361,-2.8873,-0.93218,-0.15556,0.31943,0.0098557,-0.084063,-1.3494,-0.84517,-1.7804,-0.16968,1.4141,-0.086517,1.2304
-0.0095221,-0.0053832,-0.063788,0.01732,0.12298,-0.073776,-0.12395,-0.30957,-0.088168,0.8684,0.40924,-2.9902,-0.84463,-0.29944,0.33316,-0.057493,-0.087472,-0.97029,-0.57951,-1.4954,-0.16674,1.2718,-0.064619,1.3827
-0.0070538,-0.0026318,-0.069974,0.017219,0.10972,-0.1598,-0.10518,-0.41062,-0.052506,0.75076,0.45234,-3.0394,-0.73715,-0.48847,0.32167,-0.16312,-0.0817,-0.69108,-0.36723,-1.2448,-0.15637,1.1752,-0.072718,1.472
-0.0059685,-0.013266,-0.077479,0.010455,0.10375,-0.2217,-0.080267,-0.4844,0.0075133,0.68443,0.50367,-2.9826,-0.63471,-0.68076,0.29874,-0.29092,-0.06596,-0.51773,-0.19808,-0.96129,-0.14911,1.1403,-0.11318,1.5221
-0.0064295,-0.029451,-0.083333,0.0037864,0.10747,-0.26635,-0.0527,-0.53717,0.090632,0.68116,0.55754,-2.784,-0.55474,-0.81086,0.28326,-0.41408,-0.044703,-0.43203,-0.054233,-0.64559,-0.14921,1.1827,-0.17814,1.5659
-0.007101,-0.039556,-0.08633,0.0032215,0.11695,-0.29658,-0.027331,-0.57504,0.19156,0.6921,0.60525,-2.446,-0.4982,-0.83731,0.28535,-0.51979,-0.024917,-0.37558,0.085608,-0.3598,-0.15269,1.2975,-0.25234,1.6332
-0.0063386,-0.037094,-0.08787,0.0090367,0.12375,-0.31147,-0.0073036,-0.59962,0.30024,0.65564,0.64241,-2.0023,-0.45258,-0.77609,0.29963,-0.62427,-0.011872,-0.26531,0.23861,-0.16769,-0.1522,1.4519,-0.31961,1.7329
-0.0039132,-0.024931,-0.090538,0.016211,0.12043,-0.31247,0.007004,-0.60993,0.40193,0.55181,0.67353,-1.4918,-0.40483,-0.69266,0.3104,-0.76346,-0.0062146,-0.038976,0.40928,-0.071505,-0.14382,1.5936,-0.36912,1.8404
-0.0016853,-0.011848,-0.095673,0.019613,0.10584,-0.30724,0.017032,-0.60692,0.48005,0.41655,0.70874,-0.94173,-0.3532,-0.65826,0.30395,-0.96485,-0.0042661,0.30342,0.58635,0.00090021,-0.12978,1.6663,-0.3979,1.9036
-0.0023905,-0.0050622,-0.10213,0.018901,0.085978,-0.30643,0.024511,-0.59563,0.52124,0.30648,0.75486,-0.37271,-0.30764,-0.70442,0.27838,-1.2222,-0.0010793,0.69761,0.74853,0.14584,-0.11518,1.625,-0.40838,1.8693
-0.0073245,-0.0051954,-0.10731,0.018554,0.069721,-0.31677,0.030511,-0.58355,0.5205,0.24772,0.80877,0.18327,-0.27853,-0.81021,0.24404,-1.4933,0.0060671,1.0558,0.87553,0.41124,-0.10247,1.4462,-0.40333,1.7171
-0.014827,-0.0073639,-0.1094,0.023184,0.062723,-0.33746,0.035222,-0.57703,0.48358,0.21518,0.85927,0.67759,-0.26398,-0.92936,0.2151,-1.722,0.016225,1.3183,0.95632,0.76187,-0.089443,1.1398,-0.38234,1.4784
-0.021019,-0.0065294,-0.10885,0.032725,0.064366,-0.36258,0.038138,-0.57859,0.42586,0.16018,0.8964,1.0659,-0.24755,-1.0329,0.19946,-1.8676,0.026238,1.4783,0.98946,1.1103,-0.07255,0.75689,-0.34275,1.2247
-0.022509,-0.0020798,-0.10785,0.042039,0.069685,-0.38661,0.038471,-0.58649,0.36777,0.062175,0.92061,1.3417,-0.20881,-1.1314,0.19462,-1.9194,0.033782,1.5684,0.97788,1.3859,-0.052048,0.38281,-0.28431,1.032
-0.019078,0.0019788,-0.10859,0.045174,0.07399,-0.4077,0.035798,-0.59601,0.32823,-0.040693,0.94391,1.5537,-0.13834,-1.2608,0.19185,-1.8888,0.039539,1.6269,0.92488,1.5832,-0.033486,0.1049,-0.21323,0.9428
-0.014163,0.0007103,-0.11198,0.04025,0.075936,-0.42679,0.030681,-0.60164,0.31749,-0.069537,0.98213,1.7841,-0.044889,-1.4442,0.18446,-1.7913,0.046852,1.6748,0.83517,1.7524,-0.023515,-0.035724,-0.1418,0.95227
-0.012539,-0.0076909,-0.1176,0.030675,0.076768,-0.44507,0.024692,-0.59942,0.33261,0.040678,1.0441,2.1003,0.050988,-1.666,0.17294,-1.6373,0.059221,1.7111,0.71816,1.9443,-0.023735,-0.077356,-0.083071,1.0219
-0.016802,-0.020681,-0.12446,0.022065,0.077304,-0.46298,0.01958,-0.58906,0.35857,0.29102,1.1257,2.5101,0.13129,-1.8807,0.16271,-1.4383,0.077642,1.7211,0.58793,2.1619,-0.028606,-0.12429,-0.044494,1.1091
-0.025338,-0.03348,-0.13142,0.017992,0.076116,-0.48128,0.016136,-0.57448,0.3764,0.61068,1.2119,2.9537,0.19187,-2.05,0.15689,-1.2191,0.099848,1.6836,0.45788,2.3577,-0.029959,-0.28459,-0.025431,1.1895
-0.033423,-0.042436,-0.13709,0.018179,0.070841,-0.50168,0.013853,-0.56179,0.37507,0.8975,1.2847,3.3374,0.24248,-2.1768,0.15069,-1.0189,0.12189,1.5757,0.33408,2.474,-0.024451,-0.59599,-0.020077,1.262
-0.036682,-0.047016,-0.13981,0.019973,0.061213,-0.52502,0.011897,-0.55515,0.36009,1.0783,1.3306,3.5859,0.29628,-2.3057,0.13377,-0.87428,0.14065,1.3812,0.21391,2.4859,-0.017273,-0.99282,-0.0228,1.3389
-0.034189,-0.049249,-0.13841,0.020956,0.050697,-0.54824,0.010625,-0.55311,0.35232,1.1477,1.3445,3.6789,0.35666,-2.4849,0.099984,-0.79877,0.1553,1.1041,0.091574,2.4121,-0.018545,-1.3412,-0.031222,1.4348
-0.02881,-0.05146,-0.13319,0.020228,0.044914,-0.5636,0.012156,-0.54855,0.37666,1.1613,1.329,3.6521,0.41053,-2.7206,0.057215,-0.77823,0.16647,0.77725,-0.03376,2.2886,-0.035335,-1.52,-0.045105,1.5603
-0.02461,-0.054283,-0.12617,0.017879,0.048025,-0.56221,0.019125,-0.53321,0.44671,1.1911,1.2911,3.5685,0.43284,-2.959,0.027976,-0.7868,0.17426,0.45208,-0.15416,2.1358,-0.066072,-1.4903,-0.063389,1.7197
-0.023633,-0.056519,-0.11999,0.014056,0.059974,-0.54035,0.032417,-0.50442,0.55517,1.2762,1.2388,3.482,0.40004,-3.1116,0.037621,-0.80836,0.17678,0.17329,-0.25642,1.9489,-0.10172,-1.3058,-0.083099,1.9061
-0.024755,-0.056838,-0.11621,0.0088806,0.07663,-0.50381,0.049797,-0.46877,0.67566,1.4007,1.1786,3.4166,0.30526,-3.1069,0.096708,-0.84142,0.17093,-0.045527,-0.32992,1.7164,-0.13189,-1.063,-0.10122,2.0939
-0.025434,-0.055828,-0.11449,0.0029679,0.09245,-0.46624,0.066772,-0.43948,0.77472,1.5105,1.1145,3.3665,0.16633,-2.9303,0.19002,-0.88252,0.15474,-0.2248,-0.37285,1.442,-0.15001,-0.83599,-0.11686,2.2373
-0.024524,-0.056472,-0.11325,-0.0026285,0.10362,-0.44187,0.079252,-0.42831,0.82692,1.5526,1.0473,3.3113,0.02086,-2.6246,0.28126,-0.90732,0.1295,-0.39851,-0.39316,1.1483,-0.15348,-0.6442,-0.13059,2.2835
-0.023431,-0.062319,-0.11119,-0.0074422,0.10984,-0.43693,0.086019,-0.43728,0.82484,1.5091,0.97641,3.2316,-0.090353,-2.2561,0.33135,-0.87452,0.09969,-0.58845,-0.40467,0.8572,-0.14025,-0.47056,-0.14108,2.1977
-0.024537,-0.074532,-0.10808,-0.012547,0.11423,-0.44585,0.089193,-0.45637,0.77948,1.4046,0.9011,3.1163,-0.14287,-1.8751,0.31844,-0.75766,0.070571,-0.79499,-0.42166,0.56945,-0.10696,-0.3006,-0.14276,1.9875
-0.028465,-0.090236,-0.10437,-0.020077,0.12199,-0.45494,0.092545,-0.46907,0.71173,1.2866,0.82168,2.9617,-0.13964,-1.5036,0.24668,-0.58061,0.04523,-1.0091,-0.45462,0.26347,-0.051827,-0.14215,-0.12807,1.7081
-0.03293,-0.10376,-0.099911,-0.031294,0.13836,-0.45094,0.099136,-0.46228,0.6403,1.1966,0.73945,2.7671,-0.10618,-1.156,0.13972,-0.42328,0.023378,-1.2296,-0.50793,-0.08305,0.02018,-0.0095765,-0.093553,1.4388
-0.034407,-0.11016,-0.093344,-0.044807,0.16635,-0.42876,0.11004,-0.43399,0.57282,1.1498,0.6561,2.5343,-0.072995,-0.86831,0.026211,-0.38543,0.0026529,-1.4666,-0.57919,-0.46795,0.095375,0.1057,-0.044854,1.2424
-0.031163,-0.10823,-0.082851,-0.056723,0.20492,-0.39333,0.1247,-0.39344,0.50535,1.1374,0.57355,2.2703,-0.056591,-0.70288,-0.071571,-0.53106,-0.018759,-1.7256,-0.65988,-0.858,0.15616,0.24299,0.0042123,1.1328
-0.024821,-0.10058,-0.067758,-0.062868,0.2488,-0.35515,0.14198,-0.35448,0.43038,1.1453,0.49466,1.9895,-0.05159,-0.71355,-0.14027,-0.85461,-0.040256,-1.9908,-0.73773,-1.2069,0.19025,0.44608,0.038749,1.072
-0.018989,-0.090686,-0.04972,-0.061341,0.29057,-0.32354,0.16071,-0.32714,0.34775,1.1751,0.42417,1.7116,-0.037919,-0.89615,-0.17263,-1.294,-0.058961,-2.2233,-0.8005,-1.4829,0.19775,0.72565,0.05124,1.001
-0.016226,-0.079541,-0.032371,-0.053317,0.32421,-0.30278,0.17929,-0.31329,0.26997,1.2487,0.36856,1.4526,0.0036168,-1.1673,-0.16689,-1.7792,-0.071499,-2.3814,-0.8398,-1.684,0.19076,1.047,0.045422,0.88239
-0.016168,-0.065243,-0.019501,-0.041667,0.34759,-0.29305,0.19496,-0.30846,0.21727,1.3924,0.33423,1.2158,0.079249,-1.3985,-0.13069,-2.2757,-0.076021,-2.4443,-0.85328,-1.8312,0.1855,1.3569,0.033181,0.72572
-0.016436,-0.046026,-0.01296,-0.028951,0.36196,-0.29392,0.20392,-0.30695,0.20509,1.6091,0.3243,0.98851,0.18126,-1.4876,-0.084473,-2.7891,-0.073262,-2.4221,-0.84428,-1.948,0.19241,1.6259,0.027065,0.57794
-0.015266,-0.024099,-0.011676,-0.016771,0.36854,-0.30597,0.20269,-0.30544,0.2337,1.8627,0.33603,0.75114,0.29645,-1.4175,-0.056538,-3.3273,-0.06625,-2.3446,-0.81952,-2.0458,0.21052,1.8664,0.033568,0.48745
-0.01322,-0.0063667,-0.012455,-0.006814,0.3657,-0.32901,0.18994,-0.30295,0.28804,2.0898,0.36052,0.49383,0.41581,-1.2571,-0.069064,-3.8561,-0.059015,-2.2425,-0.78619,-2.1246,0.22932,2.1063,0.050997,0.46882
-0.012375,-0.00053547,-0.011929,-0.0019487,0.34956,-0.359,0.16762,-0.29848,0.34821,2.2347,0.38545,0.23097,0.53815,-1.1042,-0.12393,-4.2889,-0.054965,-2.1366,-0.74982,-2.1843,0.23591,2.3415,0.07216,0.49254
-0.01393,-0.0092753,-0.0083185,-0.005426,0.31845,-0.38798,0.14033,-0.28993,0.40175,2.2818,0.39979,0.0015411,0.66652,-1.0203,-0.2002,-4.5258,-0.055632,-2.0411,-0.71351,-2.2318,0.22246,2.5104,0.089198,0.50415
-0.016681,-0.027226,-0.0019094,-0.018232,0.27702,-0.40828,0.11321,-0.27552,0.44753,2.2597,0.39808,-0.14886,0.80184,-1.0061,-0.26715,-4.5147,-0.060413,-1.9719,-0.67871,-2.2756,0.18946,2.5218,0.097263,0.45613
-0.017899,-0.043754,0.0058336,-0.036913,0.23577,-0.41755,0.089564,-0.25602,0.48851,2.2105,0.38168,-0.1962,0.93864,-1.0329,-0.30408,-4.2894,-0.067518,-1.9464,-0.64707,-2.3137,0.14362,2.3197,0.0953,0.33033
-0.015752,-0.049766,0.013664,-0.054436,0.20498,-0.41938,0.06978,-0.23449,0.52061,2.1501,0.35616,-0.15906,1.0647,-1.0921,-0.31219,-3.952,-0.075631,-1.9725,-0.62211,-2.3282,0.093189,1.9369,0.08451,0.13987
-0.010968,-0.043483,0.021387,-0.064207,0.18758,-0.41805,0.052096,-0.2133,0.52887,2.0546,0.32635,-0.096303,1.163,-1.213,-0.30989,-3.6119,-0.085123,-2.0341,-0.60899,-2.2954,0.044322,1.4909,0.0666,-0.084271
-0.0062391,-0.030761,0.029688,-0.064414,0.17742,-0.41216,0.034548,-0.19142,0.49539,1.8843,0.29258,-0.078268,1.2143,-1.4318,-0.31647,-3.3223,-0.097798,-2.0904,-0.61125,-2.2061,0.00068606,1.1224,0.043662,-0.30907
-0.0040036,-0.019868,0.039285,-0.059091,0.16492,-0.39408,0.016591,-0.16528,0.41275,1.6276,0.25117,-0.14639,1.201,-1.7467,-0.33829,-3.0617,-0.11515,-2.0918,-0.62596,-2.0774,-0.034525,0.91697,0.019697,-0.50889
-0.0045983,-0.015008,0.050181,-0.054786,0.14611,-0.35749,-0.00064327,-0.1334,0.29157,1.3226,0.1994,-0.28623,1.1111,-2.1055,-0.36827,-2.7702,-0.13636,-2.0041,-0.64089,-1.9455,-0.057088,0.86725,0.0017426,-0.66929
-0.0062643,-0.013722,0.061483,-0.055366,0.12738,-0.30659,-0.015259,-0.099944,0.15537,1.0383,0.14148,-0.4332,0.94426,-2.4416,-0.39711,-2.4143,-0.15767,-1.8241,-0.63721,-1.842,-0.062943,0.89504,-0.001726,-0.79087
-0.0067181,-0.0099534,0.071825,-0.059164,0.12176,-0.25719,-0.025606,-0.072881,0.027288,0.83044,0.090234,-0.50974,0.71597,-2.7224,-0.4243,-2.0325,-0.17384,-1.575,-0.59746,-1.773,-0.051639,0.91096,0.014603,-0.89469
-0.0047815,0.00010544,0.080021,-0.060781,0.1394,-0.22616,-0.030579,-0.056947,-0.080432,0.7106,0.061611,-0.47115,0.45651,-2.9615,-0.45787,-1.7259,-0.18093,-1.2867,-0.51425,-1.7173,-0.029219,0.86265,0.048077,-1.0237
-0.00082863,0.014406,0.085585,-0.056021,0.17992,-0.21666,-0.029468,-0.047492,-0.16618,0.65296,0.064404,-0.33104,0.20432,-3.1777,-0.50246,-1.5978,-0.17825,-0.97524,-0.39368,-1.6461,-0.0076181,0.74091,0.087055,-1.232
0.0039362,0.026642,0.088913,-0.045771,0.23209,-0.21272,-0.02219,-0.031809,-0.23064,0.6252,0.092091,-0.15112,-0.0049577,-3.3412,-0.54689,-1.6784,-0.16828,-0.63977,-0.25123,-1.5507,5.5284e-005,0.55268,0.11546,-1.5604
0.0084237,0.031555,0.091075,-0.035574,0.28061,-0.1898,-0.010127,0.0016457,-0.2702,0.6095,0.1233,-0.0042825,-0.14858,-3.3632,-0.56384,-1.886,-0.15445,-0.27788,-0.10343,-1.4544,-0.013951,0.2961,0.12054,-2.0081
0.012029,0.029406,0.093336,-0.031247,0.31451,-0.13435,0.0033101,0.053289,-0.27903,0.5938,0.13201,0.063623,-0.22113,-3.1503,-0.52462,-2.0497,-0.13868,0.094573,0.03856,-1.3992,-0.047483,-0.036391,0.098886,-2.5179
0.014468,0.025923,0.096617,-0.034195,0.33148,-0.055766,0.013553,0.11049,-0.25749,0.55057,0.10152,0.05144,-0.23164,-2.6835,-0.41918,-1.9874,-0.12033,0.43922,0.17022,-1.4155,-0.088777,-0.43262,0.057042,-2.9881
0.015658,0.027877,0.10117,-0.040294,0.33668,0.020277,0.017115,0.15612,-0.21683,0.43813,0.033453,-0.0052874,-0.19598,-2.0536,-0.26608,-1.5925,-0.09757,0.71528,0.29137,-1.4948,-0.12181,-0.84299,0.0072332,-3.3089
0.01592,0.037965,0.10656,-0.043189,0.33854,0.072594,0.013613,0.18103,-0.1738,0.23691,-0.053936,-0.056876,-0.12985,-1.4189,-0.10442,-0.87976,-0.069844,0.91143,0.40437,-1.5855,-0.13402,-1.1939,-0.038131,-3.4068
0.016135,0.052956,0.11184,-0.039255,0.34476,0.10218,0.0057725,0.1904,-0.13876,-0.010287,-0.1364,-0.061764,-0.046326,-0.9141,0.027385,0.033724,-0.039607,1.0626,0.51401,-1.6142,-0.12239,-1.4261,-0.069635,-3.2731
0.017296,0.066199,0.11577,-0.030232,0.36018,0.13184,-0.0027161,0.19921,-0.10874,-0.20139,-0.19605,-0.00010543,0.042579,-0.57985,0.11115,0.99754,-0.012062,1.2316,0.62653,-1.5207,-0.094356,-1.5274,-0.081177,-2.9617
0.019581,0.0722,0.11715,-0.021611,0.38598,0.18794,-0.0096896,0.22095,-0.073028,-0.23651,-0.22789,0.12235,0.12424,-0.36127,0.15442,1.9009,0.00702,1.4631,0.74507,-1.2852,-0.063079,-1.5317,-0.069396,-2.5595
0.021846,0.069803,0.11534,-0.018296,0.41952,0.27908,-0.015232,0.25839,-0.027549,-0.095672,-0.23777,0.2789,0.18748,-0.1674,0.18021,2.7055,0.013903,1.7416,0.86385,-0.93393,-0.039608,-1.4861,-0.033963,-2.1458
0.022334,0.062181,0.11101,-0.021071,0.45491,0.38833,-0.020279,0.30264,0.015196,0.13357,-0.23511,0.43359,0.22767,0.063171,0.21039,3.4247,0.0083574,1.989,0.96712,-0.52217,-0.026836,-1.4127,0.021469,-1.764
0.020285,0.054412,0.1063,-0.026431,0.48504,0.48381,-0.024832,0.33931,0.030987,0.30933,-0.22637,0.55605,0.24989,0.33935,0.25488,4.0719,-0.0066674,2.1113,1.0371,-0.10651,-0.019048,-1.2978,0.089129,-1.4178
0.017026,0.050738,0.1039,-0.029474,0.50475,0.53815,-0.0278,0.35613,0.0012708,0.33123,-0.21331,0.63074,0.26542,0.64213,0.31195,4.6203,-0.026629,2.0635,1.0672,0.27754,-0.0072831,-1.1144,0.15856,-1.0886
0.01527,0.052945,0.10508,-0.027324,0.51371,0.54202,-0.028669,0.34708,-0.070843,0.20199,-0.19578,0.65368,0.28238,0.96094,0.37538,5.0042,-0.047085,1.8871,1.0697,0.6217,0.013405,-0.85827,0.21904,-0.75905
0.016896,0.059999,0.10813,-0.020568,0.51661,0.50414,-0.029231,0.3126,-0.15958,0.0061315,-0.17549,0.61942,0.2971,1.304,0.44009,5.1608,-0.064645,1.6909,1.072,0.93526,0.040205,-0.56602,0.26195,-0.42538
0.021032,0.068466,0.10878,-0.012197,0.52002,0.44098,-0.033452,0.25781,-0.23201,-0.17157,-0.15715,0.51229,0.29428,1.6783,0.50182,5.082,-0.077079,1.5897,1.101,1.229,0.065164,-0.29935,0.28324,-0.09391
0.024284,0.07359,0.10303,-0.0054909,0.5273,0.36561,-0.045462,0.19043,-0.26806,-0.31536,-0.14619,0.31531,0.25793,2.0652,0.55361,4.8384,-0.083084,1.6443,1.1691,1.5045,0.081985,-0.10819,0.28572,0.22953
0.023205,0.071163,0.09044,-0.0026441,0.53483,0.28279,-0.067446,0.11815,-0.27015,-0.47819,-0.14537,0.034666,0.18629,2.4208,0.58538,4.5535,-0.082109,1.8447,1.2709,1.755,0.091355,-0.00097007,0.28007,0.54374
0.017144,0.059748,0.075151,-0.0046516,0.53275,0.19142,-0.099091,0.045685,-0.2566,-0.7194,-0.15337,-0.28084,0.099203,2.7017,0.58905,4.3417,-0.074248,2.1378,1.3922,1.9734,0.1001,0.055485,0.28165,0.84423
0.0091185,0.04192,0.063393,-0.011593,0.51037,0.090956,-0.13837,-0.026677,-0.24632,-1.0409,-0.16667,-0.54803,0.030743,2.8899,0.56555,4.2474,-0.05995,2.4724,1.5212,2.1601,0.11457,0.10688,0.30254,1.1119
0.0039196,0.023319,0.059117,-0.022352,0.46339,-0.012356,-0.18195,-0.10049,-0.24753,-1.3778,-0.18278,-0.68731,0.010218,2.9923,0.52649,4.2211,-0.039551,2.8203,1.6529,2.3227,0.13361,0.17557,0.34262,1.3133
0.0048668,0.0097074,0.061235,-0.033974,0.39819,-0.10237,-0.22434,-0.1729,-0.25743,-1.6462,-0.20171,-0.66542,0.043798,3.0189,0.48791,4.1505,-0.013132,3.1659,1.7828,2.4698,0.14729,0.24401,0.38662,1.4173
0.011628,0.003961,0.064707,-0.041894,0.32981,-0.15524,-0.2569,-0.23176,-0.26966,-1.7993,-0.22413,-0.50963,0.10946,2.9649,0.4602,3.9279,0.018805,3.4825,1.8988,2.6049,0.1429,0.26875,0.41172,1.4189
0.020638,0.0050915,0.064519,-0.041831,0.27455,-0.14743,-0.26931,-0.25794,-0.28097,-1.8442,-0.2477,-0.28134,0.1691,2.8196,0.44237,3.5136,0.054094,3.726,1.9811,2.727,0.11377,0.21306,0.40185,1.3483
0.027663,0.0098085,0.059185,-0.03248,0.24188,-0.066684,-0.25408,-0.23584,-0.29193,-1.8149,-0.26524,-0.03128,0.19009,2.5942,0.42512,2.9605,0.088197,3.8561,2.0114,2.8376,0.063677,0.073548,0.35842,1.2551
0.030552,0.015062,0.051011,-0.016871,0.23051,0.080309,-0.21162,-0.16509,-0.3035,-1.7375,-0.26726,0.22552,0.16224,2.3375,0.3996,2.3846,0.11522,3.8664,1.986,2.9457,0.0034564,-0.11869,0.29853,1.177
0.030289,0.019444,0.043351,-0.00086904,0.23065,0.2696,-0.15187,-0.063537,-0.31508,-1.6269,-0.24791,0.49461,0.099637,2.1127,0.36407,1.9027,0.1306,3.7933,1.9213,3.0652,-0.057294,-0.32171,0.24173,1.1163
0.029733,0.022717,0.037651,0.010404,0.22991,0.47092,-0.09025,0.042059,-0.32635,-1.5115,-0.21048,0.76361,0.027051,1.9495,0.32321,1.5737,0.13388,3.6936,1.8468,3.2065,-0.11621,-0.51136,0.19606,1.0427
0.031114,0.024555,0.0329,0.015591,0.21854,0.65992,-0.040232,0.13101,-0.34007,-1.451,-0.16847,0.97971,-0.039839,1.8102,0.28154,1.3777,0.12936,3.6079,1.7907,3.3691,-0.17689,-0.69115,0.15558,0.92338
0.034134,0.024099,0.027541,0.017174,0.19145,0.82142,-0.0077356,0.19667,-0.36127,-1.5153,-0.14107,1.0693,-0.1075,1.6068,0.23808,1.2389,0.12366,3.5392,1.7675,3.542,-0.24167,-0.87444,0.11127,0.75619
0.036091,0.020632,0.021531,0.018622,0.14772,0.94163,0.0089153,0.24094,-0.39216,-1.7329,-0.14525,0.98834,-0.20279,1.2637,0.18732,1.0747,0.12177,3.464,1.7741,3.7124,-0.30521,-1.0529,0.06535,0.585
0.033972,0.014305,0.016321,0.021081,0.090077,0.99896,0.014202,0.26173,-0.42668,-2.0521,-0.18821,0.76478,-0.35738,0.77983,0.12553,0.83637,0.12425,3.3621,1.7962,3.8721,-0.35459,-1.1786,0.035544,0.48407
0.026968,0.0058355,0.012909,0.022386,0.02538,0.967,0.010477,0.24755,-0.45046,-2.3524,-0.26291,0.49732,-0.58746,0.24223,0.056305,0.52099,0.12784,3.2401,1.8183,4.0181,-0.37628,-1.1784,0.044149,0.52195
0.017432,-0.0044378,0.010254,0.019187,-0.035184,0.83374,-0.0027109,0.18686,-0.44729,-2.5002,-0.34794,0.31139,-0.88011,-0.22184,-0.0099112,0.15515,0.12868,3.128,1.8311,4.1455,-0.36461,-0.99568,0.10043,0.72611
0.0093884,-0.016701,0.0060777,0.010361,-0.078164,0.62319,-0.024793,0.085021,-0.40787,-2.4096,-0.41239,0.30223,-1.1937,-0.5185,-0.062098,-0.2279,0.12552,3.0548,1.8338,4.2426,-0.32516,-0.63147,0.19073,1.0677
0.0056357,-0.030355,-0.00042606,-0.0011167,-0.092485,0.39788,-0.04997,-0.028458,-0.33488,-2.0664,-0.42541,0.50068,-1.4718,-0.63415,-0.095619,-0.59877,0.12017,3.0267,1.831,4.2935,-0.27112,-0.15372,0.28462,1.4732
0.005717,-0.04255,-0.0067461,-0.0094504,-0.074316,0.23231,-0.067371,-0.11304,-0.24092,-1.5113,-0.36867,0.87526,-1.6646,-0.62746,-0.11481,-0.92736,0.11531,3.0249,1.8268,4.2871,-0.21591,0.33306,0.35249,1.8553
0.0064647,-0.048741,-0.0084593,-0.0096599,-0.029129,0.17154,-0.06662,-0.14286,-0.14164,-0.80982,-0.24699,1.3572,-1.7475,-0.58154,-0.1302,-1.1779,0.11173,3.0227,1.8213,4.2241,-0.16754,0.73777,0.38136,2.1454
0.0047247,-0.04584,-0.0032544,-0.0010531,0.030355,0.20521,-0.044941,-0.12392,-0.04916,-0.039122,-0.090645,1.8662,-1.7296,-0.55572,-0.1532,-1.3177,0.10797,3.004,1.8105,4.1152,-0.12802,1.0172,0.37833,2.3115
-2.8893e-006,-0.035585,0.0059174,0.011959,0.088983,0.27834,-0.010144,-0.087215,0.030311,0.70738,0.054628,2.326,-1.6485,-0.5674,-0.19168,-1.3391,0.10225,2.9668,1.7893,3.9713,-0.096545,1.1738,0.36146,2.3537
-0.0052209,-0.024661,0.011888,0.022449,0.13406,0.332,0.023305,-0.062395,0.094592,1.3219,0.14713,2.6718,-1.5512,-0.60411,-0.24764,-1.2761,0.094614,2.9125,1.7563,3.7963,-0.072717,1.2253,0.34666,2.285
-0.0076079,-0.020397,0.00836,0.025375,0.15825,0.34263,0.042611,-0.05437,0.14237,1.7105,0.16848,2.8601,-1.4697,-0.64523,-0.31661,-1.1978,0.087005,2.8341,1.7159,3.5897,-0.057082,1.1772,0.34027,2.1145
-0.0057405,-0.025053,-0.0049164,0.02081,0.15997,0.32996,0.043447,-0.042746,0.17194,1.8373,0.13149,2.8787,-1.4019,-0.67429,-0.38842,-1.1778,0.081166,2.7174,1.675,3.3548,-0.049084,1.0234,0.34019,1.8463
-0.0010265,-0.033676,-0.021428,0.013614,0.14193,0.32998,0.030514,-0.0041051,0.18279,1.7494,0.071366,2.7509,-1.3104,-0.67929,-0.45009,-1.257,0.076801,2.5526,1.6378,3.1059,-0.045142,0.77299,0.34157,1.4971
0.0037527,-0.037973,-0.032621,0.009686,0.10891,0.35841,0.012014,0.063047,0.17808,1.5561,0.025315,2.5251,-1.1417,-0.65023,-0.4906,-1.4218,0.072062,2.345,1.6004,2.8638,-0.039207,0.47408,0.34095,1.1139
0.0067365,-0.033398,-0.034358,0.011565,0.06563,0.39584,-0.007213,0.13273,0.16537,1.3706,0.012767,2.2544,-0.85752,-0.58087,-0.50514,-1.6113,0.06591,2.1141,1.552,2.6437,-0.025834,0.20717,0.3363,0.77439
0.0080245,-0.023357,-0.029741,0.016812,0.015794,0.40509,-0.02832,0.16989,0.15411,1.2552,0.028133,1.9804,-0.45846,-0.47225,-0.49574,-1.7475,0.059753,1.8812,1.4819,2.4459,-0.003532,0.045005,0.32515,0.55894
0.0088092,-0.016568,-0.02599,0.020433,-0.037314,0.36323,-0.055019,0.15659,0.15081,1.2098,0.049525,1.732,0.012817,-0.33173,-0.46707,-1.7718,0.056349,1.6576,1.3875,2.2568,0.024147,0.0084085,0.30455,0.51048
0.0098071,-0.019532,-0.028188,0.019238,-0.089235,0.27979,-0.087357,0.10435,0.15506,1.2044,0.056563,1.5361,0.49073,-0.16642,-0.42071,-1.6738,0.056845,1.4432,1.2774,2.0608,0.050617,0.054917,0.27413,0.60809
0.010626,-0.030611,-0.035344,0.014427,-0.13342,0.1877,-0.1185,0.043964,0.15917,1.2245,0.044826,1.4254,0.9147,0.022617,-0.35299,-1.4972,0.058921,1.2319,1.1652,1.8504,0.070031,0.11299,0.23969,0.77659
0.01048,-0.041038,-0.042032,0.010313,-0.16268,0.11794,-0.13791,0.0031841,0.15232,1.2874,0.027465,1.4288,1.2491,0.23759,-0.25923,-1.321,0.058132,1.0176,1.0594,1.6266,0.080532,0.13713,0.21319,0.92883
0.0092318,-0.042139,-0.043795,0.01057,-0.17283,0.080403,-0.13894,-0.0094964,0.12686,1.4188,0.023648,1.5446,1.4865,0.4718,-0.14185,-1.2219,0.051418,0.7955,0.95611,1.3905,0.085293,0.14026,0.20734,1.0132
0.0075605,-0.032561,-0.041276,0.015381,-0.16609,0.06481,-0.12473,-0.004368,0.083042,1.6141,0.04269,1.717,1.6382,0.69647,-0.015847,-1.2386,0.039518,0.55947,0.8412,1.1361,0.091001,0.17639,0.22727,1.0335
0.0062009,-0.019288,-0.039398,0.021777,-0.15091,0.056257,-0.10713,0.0025867,0.029578,1.8207,0.075518,1.8386,1.7214,0.85886,0.093523,-1.3569,0.025987,0.3054,0.70054,0.85358,0.10458,0.28704,0.26508,1.0287
0.0052237,-0.011746,-0.042568,0.026368,-0.13725,0.04937,-0.098966,0.0030793,-0.02019,1.958,0.099753,1.7896,1.7503,0.89941,0.16059,-1.5243,0.013714,0.039499,0.53044,0.54255,0.12961,0.45593,0.3019,1.0314
0.0042036,-0.01426,-0.050404,0.027774,-0.13046,0.050167,-0.10522,0.00091718,-0.054126,1.9594,0.094702,1.4959,1.7346,0.78401,0.17079,-1.6822,0.0022245,-0.21479,0.33997,0.22433,0.16412,0.61144,0.31762,1.0389
0.0030353,-0.023244,-0.057915,0.02684,-0.12876,0.067582,-0.11987,0.0070409,-0.066332,1.8046,0.055293,0.97422,1.6804,0.53541,0.12634,-1.7898,-0.011667,-0.42129,0.14335,-0.059647,0.20109,0.67641,0.30238,1.0205
0.0023805,-0.031072,-0.059915,0.025103,-0.12709,0.10425,-0.13067,0.030981,-0.059361,1.5227,-0.005367,0.3321,1.5923,0.24235,0.042889,-1.8244,-0.030444,-0.54847,-0.051713,-0.26634,0.23166,0.62371,0.26201,0.94987
0.0031023,-0.0328,-0.055712,0.023361,-0.1244,0.15347,-0.12805,0.074502,-0.042877,1.1704,-0.066577,-0.28042,1.4748,0.032481,-0.060255,-1.7676,-0.052824,-0.59042,-0.25081,-0.3776,0.24917,0.48842,0.21315,0.82982
0.005159,-0.029921,-0.049945,0.021534,-0.12794,0.20211,-0.11141,0.1299,-0.029198,0.80275,-0.11555,-0.74481,1.3327,0.015093,-0.16938,-1.5992,-0.073852,-0.57682,-0.46931,-0.4185,0.25146,0.32471,0.17118,0.68346
0.007105,-0.02843,-0.048879,0.019375,-0.14972,0.23551,-0.088654,0.18288,-0.027318,0.45549,-0.15572,-1.0306,1.1693,0.22193,-0.27932,-1.3117,-0.088072,-0.56359,-0.72087,-0.45408,0.23997,0.14636,0.13962,0.52068
0.0068733,-0.033469,-0.055328,0.016873,-0.19718,0.24244,-0.070321,0.21885,-0.038263,0.14171,-0.2013,-1.201,0.9858,0.58281,-0.38951,-0.9341,-0.093119,-0.60765,-1.0052,-0.5623,0.21679,-0.091317,0.10891,0.31545
0.0033317,-0.045302,-0.066375,0.013981,-0.26565,0.22,-0.063109,0.2305,-0.054776,-0.14018,-0.26269,-1.3646,0.78199,0.95653,-0.4972,-0.53646,-0.090822,-0.73926,-1.3024,-0.79543,0.18285,-0.44433,0.065318,0.023073
-0.0026691,-0.059589,-0.075583,0.010312,-0.33937,0.17739,-0.067047,0.22246,-0.066308,-0.39463,-0.3345,-1.6018,0.56069,1.2034,-0.59347,-0.19866,-0.08527,-0.94784,-1.5777,-1.151,0.13922,-0.90509,0.0029976,-0.37137
-0.0086732,-0.071092,-0.077713,0.0054596,-0.40113,0.13469,-0.077047,0.20935,-0.066682,-0.61816,-0.39633,-1.9141,0.33169,1.2568,-0.66459,0.039243,-0.07976,-1.1897,-1.7953,-1.5711,0.090522,-1.3686,-0.069838,-0.8165
-0.012167,-0.077403,-0.072224,-0.00030824,-0.4429,0.11428,-0.086538,0.20718,-0.059199,-0.79416,-0.42583,-2.2243,0.11207,1.149,-0.69698,0.20638,-0.075188,-1.4144,-1.9342,-1.9733,0.04674,-1.679,-0.13481,-1.2086
-0.012096,-0.079922,-0.063129,-0.0058726,-0.46915,0.12849,-0.090462,0.22349,-0.055069,-0.89738,-0.41401,-2.4269,-0.078628,0.97807,-0.68218,0.38143,-0.070752,-1.5956,-2.0008,-2.2971,0.02039,-1.7261,-0.17362,-1.452
-0.009235,-0.081902,-0.055747,-0.010007,-0.49062,0.17219,-0.086421,0.25362,-0.065765,-0.90848,-0.37102,-2.4522,-0.22518,0.84199,-0.6194,0.63262,-0.065691,-1.7476,-2.0277,-2.5352,0.019761,-1.5154,-0.17698,-1.5195
-0.0053309,-0.085587,-0.053035,-0.012421,-0.51416,0.22689,-0.07432,0.2861,-0.09467,-0.83178,-0.31883,-2.3028,-0.32013,0.78509,-0.51551,0.96052,-0.060078,-1.9167,-2.0588,-2.7299,0.042748,-1.1555,-0.14715,-1.463
-0.0018837,-0.090754,-0.054049,-0.014095,-0.53744,0.27394,-0.055371,0.31233,-0.13426,-0.7041,-0.27715,-2.0446,-0.36222,0.78982,-0.38374,1.2875,-0.054049,-2.1516,-2.1246,-2.9351,0.07623,-0.77903,-0.094856,-1.368
0.00040002,-0.095441,-0.055252,-0.016569,-0.55238,0.30644,-0.031055,0.3323,-0.17116,-0.58558,-0.25361,-1.7635,-0.35291,0.80979,-0.24154,1.5038,-0.046661,-2.4698,-2.2239,-3.1721,0.10231,-0.46528,-0.035009,-1.2931
0.0012624,-0.097917,-0.053366,-0.020893,-0.55352,0.33054,-0.0024341,0.35172,-0.19539,-0.53447,-0.24415,-1.524,-0.2961,0.81348,-0.10715,1.537,-0.036131,-2.8419,-2.3228,-3.4115,0.10767,-0.22575,0.016563,-1.2452
0.00032442,-0.09819,-0.047698,-0.027158,-0.54348,0.35605,0.029775,0.37409,-0.20731,-0.57931,-0.24072,-1.3555,-0.20145,0.80696,0.0047997,1.3961,-0.021764,-3.2033,-2.3762,-3.5961,0.089727,-0.048023,0.046313,-1.2044
-0.0028907,-0.097946,-0.040416,-0.034855,-0.53066,0.38547,0.064331,0.39594,-0.21729,-0.7049,-0.23828,-1.2655,-0.086732,0.82588,0.086923,1.1616,-0.0059033,-3.4888,-2.3583,-3.6872,0.055796,0.058685,0.04799,-1.1671
-0.0082506,-0.099097,-0.034727,-0.043439,-0.52164,0.41146,0.098462,0.40961,-0.23846,-0.86032,-0.23537,-1.2581,0.026508,0.90955,0.1398,0.93475,0.0062803,-3.6667,-2.2808,-3.6997,0.016442,0.065293,0.027583,-1.1593
-0.014397,-0.10218,-0.032289,-0.052453,-0.51516,0.4239,0.12793,0.41063,-0.2775,-0.98296,-0.22939,-1.3345,0.12326,1.0767,0.16925,0.78463,0.0097755,-3.7536,-2.1854,-3.6969,-0.021377,-0.03551,0.0029853,-1.2089
-0.019096,-0.10588,-0.031748,-0.061247,-0.50317,0.41933,0.14871,0.40208,-0.32937,-1.0239,-0.21275,-1.474,0.20384,1.3138,0.18221,0.72803,0.0035621,-3.7978,-2.1148,-3.7487,-0.056373,-0.20021,-0.0048672,-1.3062
-0.020584,-0.10803,-0.029581,-0.068895,-0.47808,0.40383,0.15938,0.39197,-0.37937,-0.96135,-0.17468,-1.6193,0.28238,1.5765,0.18419,0.74556,-0.0077429,-3.845,-2.0848,-3.8822,-0.089603,-0.35716,0.014395,-1.3952
-0.0189,-0.10732,-0.022734,-0.074655,-0.44017,0.38766,0.16216,0.38685,-0.41144,-0.80012,-0.10828,-1.6894,0.37399,1.7993,0.17965,0.81091,-0.016064,-3.9081,-2.0774,-4.0638,-0.11975,-0.46398,0.051796,-1.4103
-0.015999,-0.10412,-0.011087,-0.078559,-0.39897,0.37728,0.16138,0.38818,-0.41799,-0.56442,-0.017599,-1.6217,0.47904,1.915,0.17376,0.90626,-0.01461,-3.9634,-2.0601,-4.2241,-0.14174,-0.54279,0.082735,-1.3245
-0.014348,-0.099857,0.0022873,-0.081327,-0.3675,0.37209,0.16014,0.39413,-0.40514,-0.29265,0.080825,-1.415,0.57672,1.8775,0.17288,1.0162,-0.0019135,-3.9756,-2.0152,-4.3085,-0.14982,-0.65516,0.081734,-1.1681
-0.015009,-0.095321,0.013395,-0.083483,-0.35408,0.36748,0.15777,0.4031,-0.38973,-0.034463,0.16401,-1.1368,0.63312,1.6812,0.18219,1.1149,0.017613,-3.9336,-1.9542,-4.314,-0.14196,-0.83756,0.037887,-1.0006
-0.016734,-0.089492,0.020365,-0.08449,-0.35769,0.36009,0.15055,0.41405,-0.38907,0.15719,0.21316,-0.88561,0.61831,1.3635,0.2019,1.1647,0.03673,-3.8659,-1.9077,-4.2867,-0.12142,-1.0578,-0.039959,-0.86236
-0.016846,-0.08023,0.024733,-0.083033,-0.36987,0.35028,0.13504,0.42353,-0.40992,0.2445,0.22303,-0.73039,0.52079,0.98599,0.22518,1.1325,0.049627,-3.8242,-1.8988,-4.2839,-0.094378,-1.2344,-0.13101,-0.74893
-0.013265,-0.066561,0.029897,-0.078559,-0.38106,0.34103,0.11132,0.42452,-0.44425,0.22657,0.20459,-0.6726,0.35157,0.60734,0.24059,1.0093,0.054385,-3.8458,-1.9239,-4.332,-0.066514,-1.3004,-0.21591,-0.62601
-0.0062,-0.050743,0.038099,-0.072769,-0.38613,0.33545,0.083138,0.41087,-0.47542,0.14691,0.17889,-0.65504,0.13921,0.26856,0.23846,0.81715,0.052396,-3.9259,-1.9558,-4.4119,-0.041971,-1.2531,-0.285,-0.46561
0.0017451,-0.037966,0.048556,-0.069414,-0.38575,0.33487,0.055096,0.38404,-0.49084,0.073679,0.1655,-0.60781,-0.078052,-0.00076719,0.21775,0.59722,0.045907,-4.0224,-1.9643,-4.4804,-0.02509,-1.1438,-0.33643,-0.26508
0.0071294,-0.033255,0.058334,-0.071966,-0.38335,0.33706,0.029912,0.35398,-0.49174,0.059547,0.17222,-0.49412,-0.25943,-0.16734,0.18842,0.39007,0.035997,-4.0904,-1.9377,-4.5064,-0.021762,-1.0201,-0.36836,-0.031237
0.0078381,-0.037573,0.065061,-0.080739,-0.3808,0.33406,0.0086055,0.33053,-0.49221,0.10828,0.19274,-0.32495,-0.36987,-0.19418,0.1665,0.22129,0.022429,-4.1152,-1.8862,-4.4918,-0.037218,-0.87434,-0.37414,0.25124
0.0044401,-0.046328,0.069019,-0.091905,-0.37578,0.31149,-0.0067074,0.31181,-0.50791,0.17537,0.21408,-0.13947,-0.39188,-0.065952,0.16385,0.098817,0.0049823,-4.1177,-1.8276,-4.4658,-0.070977,-0.64778,-0.34553,0.62924
-0.00013331,-0.051951,0.072813,-0.099664,-0.36222,0.25284,-0.011016,0.28136,-0.54264,0.20607,0.2283,0.026022,-0.33653,0.17862,0.1787,0.015654,-0.015303,-4.1298,-1.7703,-4.4602,-0.11374,-0.28775,-0.28157,1.1482
-0.0023895,-0.048987,0.079085,-0.10023,-0.33293,0.14842,0.0012653,0.21923,-0.58308,0.18373,0.2396,0.15597,-0.24355,0.44113,0.19378,-0.049568,-0.036146,-4.1627,-1.7086,-4.4899,-0.15062,0.19053,-0.19473,1.7959
-0.00042219,-0.037791,0.088414,-0.094557,-0.28331,0.0028714,0.030912,0.1187,-0.60541,0.15019,0.26131,0.25351,-0.16409,0.60236,0.18475,-0.13396,-0.055175,-4.1974,-1.6332,-4.5494,-0.17005,0.68968,-0.10836,2.4697
0.0049801,-0.023798,0.099199,-0.087477,-0.21481,-0.16625,0.070277,-0.0069723,-0.5889,0.18015,0.30493,0.32992,-0.13329,0.586,0.13487,-0.28498,-0.07115,-4.2027,-1.545,-4.6201,-0.17186,1.0768,-0.045978,3.0014
0.010998,-0.012877,0.1093,-0.083669,-0.13713,-0.34044,0.10565,-0.13553,-0.52702,0.32756,0.37032,0.39907,-0.15081,0.4022,0.046903,-0.54197,-0.084289,-4.1633,-1.4581,-4.6781,-0.16728,1.2573,-0.019722,3.2337
0.014766,-0.0066239,0.11771,-0.083781,-0.067335,-0.51399,0.12482,-0.25557,-0.42972,0.58408,0.44508,0.47845,-0.1849,0.13691,-0.055616,-0.91045,-0.095633,-4.0897,-1.3892,-4.6961,-0.16974,1.2249,-0.025681,3.1002
0.015278,-0.0015266,0.12466,-0.084025,-0.02469,-0.69715,0.12432,-0.37666,-0.3172,0.88041,0.51342,0.58811,-0.19816,-0.10602,-0.13946,-1.3463,-0.10613,-4.0044,-1.3427,-4.6474,-0.18272,1.0569,-0.048677,2.6564
0.013876,0.0074191,0.13055,-0.079718,-0.022416,-0.90344,0.11086,-0.51844,-0.21081,1.1279,0.56707,0.74147,-0.17577,-0.26658,-0.17842,-1.765,-0.11615,-3.9195,-1.3067,-4.5173,-0.19462,0.86569,-0.072309,2.0431
0.013029,0.021888,0.13495,-0.069793,-0.060462,-1.13,0.096327,-0.68684,-0.12627,1.2694,0.60908,0.93388,-0.13437,-0.35017,-0.16548,-2.0764,-0.12569,-3.8288,-1.262,-4.3174,-0.18566,0.73976,-0.087093,1.4098
0.01442,0.03841,0.13712,-0.058243,-0.12413,-1.3478,0.090647,-0.85882,-0.07127,1.3048,0.64807,1.1413,-0.10574,-0.40004,-0.11363,-2.2268,-0.13484,-3.7202,-1.1968,-4.0871,-0.1421,0.7111,-0.0922,0.85249
0.01783,0.051022,0.13729,-0.051079,-0.19025,-1.5123,0.097697,-0.99124,-0.04593,1.2797,0.68876,1.3347,-0.11004,-0.45001,-0.046069,-2.2228,-0.14388,-3.595,-1.1142,-3.8767,-0.067161,0.75878,-0.091837,0.40126
0.021586,0.055962,0.13717,-0.051368,-0.23732,-1.5893,0.11602,-1.0488,-0.044213,1.2525,0.72733,1.502,-0.14095,-0.49798,0.016557,-2.1228,-0.15289,-3.4711,-1.0276,-3.7186,0.020263,0.83741,-0.090944,0.052547
0.024045,0.054436,0.13883,-0.056689,-0.25304,-1.5762,0.14191,-1.0285,-0.055491,1.2651,0.75551,1.6585,-0.17384,-0.51667,0.063658,-2.0007,-0.16098,-3.3649,-0.95059,-3.6089,0.098207,0.90786,-0.093964,-0.19283
0.024848,0.051426,0.14279,-0.061182,-0.23509,-1.5027,0.17158,-0.95999,-0.066839,1.3332,0.76892,1.8388,-0.18792,-0.48499,0.094066,-1.9062,-0.16595,-3.2674,-0.88871,-3.5131,0.15572,0.95284,-0.10646,-0.32087
0.025005,0.051988,0.14735,-0.06028,-0.18698,-1.4094,0.20118,-0.88232,-0.066404,1.4517,0.77194,2.0713,-0.18238,-0.40978,0.11055,-1.8451,-0.1647,-3.1352,-0.8393,-3.3917,0.19762,0.97384,-0.13645,-0.32792
0.025926,0.058209,0.14994,-0.053905,-0.11455,-1.323,0.22635,-0.81733,-0.047168,1.6025,0.77477,2.3562,-0.17316,-0.32182,0.11532,-1.7904,-0.15443,-2.908,-0.7954,-3.2243,0.23672,0.97705,-0.19283,-0.24815
0.028266,0.068815,0.14924,-0.045557,-0.026815,-1.2459,0.24288,-0.76163,-0.0096211,1.759,0.78547,2.6591,-0.17498,-0.2547,0.10963,-1.7133,-0.13404,-2.5408,-0.74915,-3.0138,0.28046,0.96021,-0.28122,-0.15362
0.031411,0.080827,0.14617,-0.038605,0.061153,-1.1683,0.24862,-0.70208,0.038115,1.8881,0.80424,2.9254,-0.18632,-0.22721,0.095816,-1.6119,-0.10503,-2.0312,-0.69353,-2.7721,0.32305,0.90874,-0.39961,-0.12142
0.033844,0.091367,0.14274,-0.033463,0.12942,-1.0892,0.24493,-0.63829,0.083221,1.9591,0.82441,3.1033,-0.19152,-0.24165,0.078068,-1.5172,-0.071471,-1.4277,-0.62455,-2.505,0.34924,0.80285,-0.53586,-0.19218
0.034026,0.098475,0.13997,-0.028097,0.16095,-1.028,0.23619,-0.59069,0.11338,1.9588,0.83876,3.1633,-0.17815,-0.29405,0.060204,-1.4772,-0.039186,-0.81611,-0.54499,-2.213,0.3464,0.63083,-0.66776,-0.35091
0.031272,0.10135,0.13709,-0.020856,0.15134,-1.0153,0.22736,-0.58714,0.12219,1.9022,0.84524,3.1053,-0.15297,-0.38387,0.042463,-1.5317,-0.014151,-0.29221,-0.46607,-1.9053,0.31484,0.40138,-0.76607,-0.54191
0.026216,0.1007,0.13251,-0.012532,0.11209,-1.0718,0.22115,-0.64076,0.11228,1.8267,0.84741,2.9524,-0.13956,-0.51558,0.020944,-1.6943,-0.00050203,0.071057,-0.40235,-1.6105,0.26858,0.14751,-0.80153,-0.70254
0.02061,0.09895,0.12545,-0.0055998,0.063337,-1.1922,0.21642,-0.73883,0.094182,1.7706,0.85019,2.7408,-0.15668,-0.69335,-0.0088227,-1.9507,0.0013132,0.2522,-0.3604,-1.3649,0.22628,-0.081956,-0.75607,-0.79118
0.016483,0.099316,0.11654,-0.001654,0.021431,-1.3467,0.2089,-0.85124,0.081378,1.7506,0.8551,2.5121,-0.19437,-0.91408,-0.046579,-2.2659,-0.004708,0.29227,-0.329,-1.1829,0.19959,-0.24219,-0.63424,-0.79579
0.015021,0.10348,0.10688,0.00019785,-0.0089877,-1.497,0.19396,-0.95015,0.083935,1.7573,0.85962,2.3104,-0.21014,-1.1614,-0.084697,-2.5916,-0.011378,0.27759,-0.28056,-1.0333,0.18744,-0.31478,-0.46737,-0.72762
0.015849,0.10953,0.096954,0.0022947,-0.032604,-1.6163,0.16979,-1.0242,0.10453,1.7718,0.86057,2.1811,-0.15286,-1.4015,-0.11084,-2.8693,-0.011595,0.29644,-0.18607,-0.84705,0.17958,-0.31928,-0.30393,-0.61204
0.017276,0.11222,0.086674,0.0058125,-0.054619,-1.6978,0.1388,-1.0781,0.13903,1.7913,0.85831,2.1629,0.00062933,-1.5831,-0.11453,-3.0362,-0.0022348,0.39133,-0.034664,-0.55926,0.16553,-0.3032,-0.18769,-0.48174
0.017425,0.10626,0.076323,0.0092545,-0.074407,-1.7504,0.10598,-1.1215,0.18072,1.8362,0.85763,2.2712,0.22366,-1.6487,-0.093283,-3.0414,0.013723,0.53841,0.1559,-0.15874,0.14205,-0.31268,-0.1354,-0.36915
0.01548,0.090455,0.067067,0.009664,-0.086795,-1.786,0.075101,-1.1582,0.2248,1.9333,0.86437,2.4817,0.45074,-1.5593,-0.054126,-2.8712,0.028568,0.67091,0.34607,0.29124,0.11389,-0.36154,-0.12862,-0.29465
0.012117,0.069491,0.06011,0.0055655,-0.08784,-1.8079,0.046038,-1.1827,0.26985,2.0857,0.88033,2.7295,0.61417,-1.3209,-0.0097053,-2.5703,0.034421,0.73235,0.49438,0.68018,0.088718,-0.42096,-0.12628,-0.25577
0.0088666,0.051486,0.055304,-0.0010241,-0.078095,-1.807,0.015884,-1.1843,0.31617,2.2578,0.9005,2.9309,0.67954,-0.9966,0.028308,-2.2385,0.028313,0.72087,0.57751,0.91011,0.07088,-0.43943,-0.090136,-0.22734
0.0069866,0.04299,0.050895,-0.0054099,-0.060486,-1.7666,-0.016583,-1.1523,0.36339,2.3904,0.91483,3.0213,0.65527,-0.68731,0.054347,-1.996,0.014388,0.69049,0.59846,0.9477,0.059049,-0.37946,-0.0063192,-0.17663
0.0067797,0.045107,0.044965,-0.0033357,-0.036862,-1.6732,-0.047233,-1.08,0.40986,2.4354,0.91353,2.9855,0.5737,-0.48745,0.069868,-1.9284,0.0014567,0.70813,0.57957,0.83322,0.048801,-0.24455,0.11057,-0.085538
0.0077971,0.053558,0.037259,0.0060164,-0.0088206,-1.5277,-0.067826,-0.96868,0.45413,2.3841,0.89216,2.8582,0.46384,-0.4416,0.080205,-2.0421,-0.0027192,0.79936,0.54684,0.64165,0.03719,-0.077305,0.23098,0.035494
0.0095412,0.062331,0.029431,0.01941,0.01733,-1.3489,-0.071917,-0.83018,0.49592,2.2686,0.85312,2.6956,0.33942,-0.53077,0.089778,-2.2581,0.0033662,0.92421,0.51563,0.42579,0.025073,0.066907,0.32961,0.15122
0.011901,0.067722,0.023323,0.031691,0.028148,-1.1674,-0.060222,-0.68625,0.53483,2.1386,0.80255,2.5377,0.20802,-0.69763,0.098503,-2.4534,0.013899,0.99998,0.48491,0.1835,0.01535,0.14814,0.39641,0.21949
0.01492,0.069688,0.018918,0.039033,0.008827,-1.0119,-0.039985,-0.56202,0.56794,2.0338,0.74515,2.3888,0.086236,-0.89046,0.10111,-2.5273,0.019676,0.95167,0.44175,-0.1278,0.0090796,0.15233,0.43442,0.21102
0.018218,0.070032,0.01408,0.041041,-0.04561,-0.89725,-0.0183,-0.47584,0.58938,1.9714,0.68108,2.2277,0.00069563,-1.0907,0.089554,-2.451,0.014359,0.75271,0.37194,-0.54186,0.0032063,0.083339,0.45,0.12051
0.020758,0.069654,0.006373,0.040418,-0.12382,-0.82204,0.00454,-0.43248,0.59378,1.9495,0.6076,2.0321,-0.029324,-1.3029,0.057354,-2.2699,-0.0012635,0.43061,0.27085,-1.0374,-0.0079255,-0.047781,0.44528,-0.033429
0.021323,0.067482,-0.0048105,0.040607,-0.20386,-0.77804,0.035077,-0.42506,0.58119,1.957,0.5241,1.7987,-0.011833,-1.5195,0.0038806,-2.0583,-0.019935,0.041787,0.14855,-1.5298,-0.02853,-0.22283,0.41828,-0.2154
0.019338,0.061694,-0.017872,0.043079,-0.26752,-0.7608,0.079729,-0.44363,0.55883,1.9777,0.43634,1.5454,0.015931,-1.6959,-0.063783,-1.8616,-0.03284,-0.35976,0.026543,-1.9063,-0.0582,-0.40867,0.36844,-0.3837
0.015283,0.051562,-0.030615,0.046097,-0.3107,-0.7712,0.13752,-0.48192,0.53694,1.9916,0.35595,1.3011,0.0090565,-1.767,-0.133,-1.6738,-0.035104,-0.73798,-0.072456,-2.081,-0.092069,-0.5568,0.30149,-0.5032
0.010244,0.038,-0.04213,0.045826,-0.34019,-0.80521,0.19976,-0.53558,0.52146,1.9767,0.29483,1.0951,-0.055507,-1.6944,-0.19115,-1.4638,-0.027922,-1.0713,-0.13573,-2.032,-0.12383,-0.62058,0.22899,-0.55946
0.0050353,0.022624,-0.053055,0.039213,-0.36019,-0.8421,0.25705,-0.5948,0.50979,1.916,0.25838,0.95086,-0.16437,-1.5048,-0.23146,-1.2274,-0.016117,-1.3435,-0.16604,-1.8026,-0.14898,-0.58246,0.16274,-0.56834
-0.00021072,0.0068199,-0.064098,0.026794,-0.36235,-0.84554,0.30644,-0.64105,0.49363,1.8032,0.24233,0.87687,-0.27881,-1.2792,-0.25512,-1.0125,-0.0035292,-1.5418,-0.17807,-1.47,-0.16594,-0.47041,0.1081,-0.57238
-0.005508,-0.0079427,-0.074446,0.013425,-0.32988,-0.78244,0.3511,-0.65501,0.46691,1.6425,0.23535,0.85532,-0.36188,-1.0949,-0.26834,-0.89005,0.0097594,-1.6638,-0.1885,-1.1082,-0.17509,-0.34764,0.060506,-0.62014
-0.010128,-0.019197,-0.081818,0.0060522,-0.25274,-0.6472,0.39269,-0.63135,0.4319,1.443,0.22508,0.83534,-0.40067,-0.96842,-0.27687,-0.89314,0.026077,-1.7247,-0.20724,-0.76743,-0.17724,-0.27948,0.0075042,-0.73666
-0.012525,-0.023837,-0.084246,0.0095693,-0.13945,-0.47166,0.42459,-0.58696,0.39773,1.2166,0.20312,0.74535,-0.40926,-0.85183,-0.28268,-0.97848,0.046109,-1.7534,-0.236,-0.47619,-0.17328,-0.29868,-0.064752,-0.90396
-0.011562,-0.020462,-0.082025,0.023307,-0.013583,-0.31006,0.4346,-0.55294,0.37224,0.9812,0.16607,0.5268,-0.41378,-0.6916,-0.28525,-1.0505,0.066054,-1.7808,-0.27476,-0.25629,-0.16462,-0.39178,-0.16368,-1.0681
-0.0080359,-0.011864,-0.078022,0.04068,0.10231,-0.20796,0.41618,-0.55367,0.35387,0.76464,0.11328,0.17193,-0.43313,-0.4987,-0.28524,-1.0316,0.078941,-1.8257,-0.33004,-0.13326,-0.1532,-0.51306,-0.28521,-1.172
-0.0047925,-0.0046776,-0.075959,0.052654,0.20062,-0.17718,0.37827,-0.58841,0.33071,0.59884,0.044544,-0.2611,-0.46886,-0.36192,-0.28598,-0.91872,0.07933,-1.8888,-0.41688,-0.13197,-0.14023,-0.61251,-0.41436,-1.1927
-0.0047726,-0.005257,-0.077927,0.053158,0.2877,-0.1939,0.34276,-0.6301,0.2881,0.50446,-0.040064,-0.67042,-0.50797,-0.38257,-0.29074,-0.77544,0.067454,-1.9577,-0.55107,-0.25957,-0.12459,-0.65661,-0.53124,-1.1549
-0.0084196,-0.014593,-0.083018,0.042924,0.36976,-0.2189,0.32932,-0.64282,0.21958,0.47763,-0.13859,-0.95881,-0.53318,-0.5815,-0.2989,-0.66714,0.049084,-2.0177,-0.73591,-0.489,-0.10282,-0.63004,-0.61908,-1.1082
-0.012901,-0.026793,-0.088088,0.029021,0.4399,-0.22304,0.33913,-0.60536,0.13305,0.49221,-0.24619,-1.0784,-0.53258,-0.86278,-0.30576,-0.5968,0.031113,-2.0615,-0.95317,-0.75904,-0.071199,-0.52452,-0.66966,-1.0862
-0.014246,-0.033173,-0.090104,0.020145,0.47988,-0.20068,0.35176,-0.52407,0.048172,0.51768,-0.35637,-1.0452,-0.5038,-1.0762,-0.30749,-0.50044,0.016632,-2.0936,-1.166,-0.99762,-0.028833,-0.33189,-0.68299,-1.0781
-0.010793,-0.029123,-0.088431,0.020858,0.47612,-0.16574,0.33949,-0.42761,-0.013621,0.5372,-0.46357,-0.91857,-0.4531,-1.1358,-0.30657,-0.30561,0.0036929,-2.128,-1.3336,-1.1585,0.020997,-0.052228,-0.66248,-1.0392
-0.0048334,-0.018007,-0.085428,0.02889,0.4357,-0.1387,0.28876,-0.34947,-0.040176,0.54876,-0.56473,-0.76356,-0.39247,-1.098,-0.3118,0.00028839,-0.011357,-2.1806,-1.4296,-1.2473,0.072302,0.29,-0.6099,-0.93127
-0.00078411,-0.0085632,-0.084927,0.037493,0.38748,-0.13607,0.21168,-0.31172,-0.034869,0.54875,-0.65853,-0.61973,-0.33684,-1.1285,-0.3317,0.35371,-0.02918,-2.2602,-1.4526,-1.3171,0.11956,0.64053,-0.52445,-0.75963
-0.0013914,-0.0077643,-0.089617,0.040975,0.36494,-0.16765,0.13819,-0.31971,-0.015,0.51571,-0.74329,-0.49174,-0.30203,-1.3778,-0.36678,0.66557,-0.045672,-2.3645,-1.4227,-1.4314,0.16,0.93371,-0.40663,-0.57556
-0.0053918,-0.015129,-0.099196,0.039032,0.38237,-0.23857,0.094365,-0.36782,-0.0033933,0.41433,-0.81622,-0.35891,-0.3023,-1.8605,-0.40819,0.89485,-0.054616,-2.4841,-1.3695,-1.6221,0.1935,1.1264,-0.26358,-0.4419
-0.0087797,-0.023302,-0.11059,0.036524,0.42111,-0.35021,0.083791,-0.4478,-0.017333,0.22061,-0.87476,-0.19167,-0.34664,-2.4293,-0.44421,1.0816,-0.052287,-2.615,-1.3196,-1.8726,0.22079,1.2214,-0.11105,-0.39
-0.008459,-0.024325,-0.12006,0.039079,0.43517,-0.49706,0.086006,-0.55126,-0.060297,-0.053138,-0.91881,0.034654,-0.43399,-2.8617,-0.46846,1.3118,-0.04008,-2.7677,-1.2906,-2.139,0.24194,1.2589,0.029911,-0.40388
-0.0048566,-0.016225,-0.1256,0.048291,0.37361,-0.66131,0.072726,-0.66428,-0.12097,-0.3585,-0.95154,0.33071,-0.55002,-2.9898,-0.48169,1.6435,-0.023339,-2.9621,-1.291,-2.3862,0.25636,1.2787,0.13981,-0.44273
-0.001165,-0.0044988,-0.12777,0.060423,0.2074,-0.80992,0.028796,-0.76067,-0.18033,-0.64067,-0.97795,0.68565,-0.66877,-2.7803,-0.48559,2.0554,-0.0080151,-3.2046,-1.3196,-2.6057,0.26326,1.2832,0.20697,-0.48003
-0.00016312,0.0024416,-0.12837,0.069407,-0.052395,-0.89928,-0.038069,-0.80342,-0.22271,-0.87379,-1.0025,1.0615,-0.76112,-2.3208,-0.47544,2.4592,0.0017205,-3.462,-1.3632,-2.7981,0.26169,1.2321,0.23005,-0.52394
-0.0017839,-0.00020293,-0.12827,0.07139,-0.35438,-0.88956,-0.10511,-0.75916,-0.24341,-1.0704,-1.0281,1.3954,-0.80743,-1.7442,-0.44053,2.7662,0.0034305,-3.6574,-1.3937,-2.9426,0.25001,1.077,0.21699,-0.60131
-0.0036327,-0.010395,-0.1263,0.067141,-0.6255,-0.76482,-0.15256,-0.61955,-0.24783,-1.2547,-1.0555,1.6146,-0.80769,-1.1582,-0.3735,2.956,-0.0047755,-3.7025,-1.376,-2.9909,0.22638,0.80925,0.1818,-0.72035
-0.0036352,-0.021542,-0.12047,0.060746,-0.80155,-0.54834,-0.17755,-0.41561,-0.24299,-1.423,-1.0834,1.6633,-0.78217,-0.62239,-0.28045,3.0935,-0.02421,-3.5508,-1.2849,-2.9027,0.191,0.48261,0.14089,-0.84539
-0.0020228,-0.027973,-0.11062,0.056114,-0.85513,-0.30083,-0.19424,-0.21174,-0.22901,-1.5297,-1.1079,1.5271,-0.76072,-0.16412,-0.1811,3.2792,-0.053636,-3.2352,-1.1209,-2.6951,0.14851,0.19201,0.10913,-0.90577
-0.00081381,-0.029131,-0.10002,0.05421,-0.80611,-0.09736,-0.22206,-0.078314,-0.1984,-1.5173,-1.1222,1.241,-0.76631,0.20486,-0.097327,3.5684,-0.087215,-2.8571,-0.91283,-2.4581,0.1078,0.023327,0.09584,-0.8314
-0.0016337,-0.029452,-0.094008,0.052848,-0.70774,0.0074551,-0.2721,-0.05709,-0.14402,-1.3707,-1.1195,0.87427,-0.80246,0.4911,-0.039606,3.9157,-0.11512,-2.5279,-0.69961,-2.3085,0.077761,0.010333,0.10183,-0.58628
-0.0042605,-0.034392,-0.096299,0.048687,-0.61617,0.0055964,-0.34138,-0.14036,-0.069044,-1.1484,-1.0977,0.50044,-0.85166,0.72855,-0.0035713,4.1849,-0.12772,-2.3028,-0.50482,-2.3129,0.061581,0.12526,0.11933,-0.17786
-0.0072419,-0.045835,-0.1058,0.039729,-0.56229,-0.063305,-0.41664,-0.27707,0.010825,-0.9614,-1.0646,0.17076,-0.88495,0.96751,0.020201,4.2212,-0.12114,-2.1533,-0.32358,-2.4378,0.054101,0.3013,0.13552,0.35583
-0.0096358,-0.060308,-0.11695,0.026672,-0.54353,-0.13626,-0.48235,-0.40126,0.075796,-0.9094,-1.0361,-0.096542,-0.87614,1.2407,0.033285,3.9403,-0.10026,-1.9975,-0.13404,-2.5717,0.045007,0.46444,0.13807,0.96069
-0.011894,-0.071254,-0.12363,0.012578,-0.53848,-0.15997,-0.52662,-0.46371,0.11478,-1.0225,-1.0299,-0.30941,-0.81308,1.5351,0.027139,3.3814,-0.076492,-1.7635,0.075145,-2.6017,0.025847,0.55473,0.11967,1.5677
-0.015069,-0.073696,-0.12365,0.0012952,-0.53073,-0.11215,-0.54332,-0.44777,0.13187,-1.2527,-1.0547,-0.48688,-0.70127,1.8009,-0.0048042,2.6961,-0.061104,-1.437,0.28421,-2.4863,-0.004519,0.53524,0.079564,2.088
-0.019426,-0.067925,-0.11999,-0.0043664,-0.52267,-0.0017788,-0.53257,-0.36402,0.14105,-1.5198,-1.104,-0.64671,-0.55953,1.9975,-0.051941,2.0833,-0.058303,-1.0611,0.4469,-2.2682,-0.040269,0.39897,0.022363,2.4213
-0.024031,-0.059491,-0.11779,-0.0037981,-0.52982,0.14562,-0.50178,-0.23352,0.15399,-1.7721,-1.1578,-0.80085,-0.41065,2.1363,-0.084523,1.7085,-0.062661,-0.69831,0.51763,-2.0249,-0.07416,0.17747,-0.044054,2.4904
-0.027652,-0.055405,-0.11973,0.0013966,-0.56304,0.30417,-0.46566,-0.074641,0.17109,-2.0143,-1.1934,-0.95742,-0.27131,2.28,-0.070501,1.6465,-0.062879,-0.39209,0.47946,-1.8087,-0.10339,-0.059347,-0.11018,2.2821
-0.029828,-0.059244,-0.12387,0.0083462,-0.61554,0.45628,-0.44216,0.099424,0.18283,-2.285,-1.1982,-1.1252,-0.146,2.4913,0.00078154,1.8666,-0.049489,-0.1596,0.35051,-1.6277,-0.13096,-0.22568,-0.16664,1.8648
-0.030938,-0.068772,-0.12575,0.014119,-0.66654,0.59364,-0.44415,0.27689,0.17894,-2.6093,-1.1773,-1.3173,-0.029014,2.7718,0.108,2.2563,-0.021333,-0.013889,0.16525,-1.479,-0.1619,-0.26094,-0.20699,1.3615
-0.031407,-0.077889,-0.12248,0.01653,-0.69819,0.71541,-0.47198,0.44617,0.1567,-2.9662,-1.1514,-1.5515,0.085463,3.0434,0.21055,2.6662,0.013564,0.015728,-0.051489,-1.3905,-0.19781,-0.16475,-0.23128,0.89213
-0.031139,-0.081432,-0.11497,0.014387,-0.71118,0.82629,-0.51305,0.60068,0.12182,-3.2972,-1.1445,-1.8448,0.19101,3.1888,0.27535,2.9595,0.043151,-0.10605,-0.29427,-1.4227,-0.23438,0.001348,-0.24743,0.52223
-0.029918,-0.079089,-0.10666,0.0075105,-0.72529,0.93368,-0.5502,0.74448,0.082817,-3.5406,-1.1704,-2.2023,0.26387,3.1224,0.29658,3.0523,0.058683,-0.38178,-0.56317,-1.6181,-0.26322,0.14978,-0.26784,0.25073
-0.028174,-0.075342,-0.10014,-0.0031703,-0.76421,1.0432,-0.57312,0.89088,0.045102,-3.6654,-1.2241,-2.607,0.27161,2.8389,0.29356,2.9371,0.059025,-0.74808,-0.84175,-1.9451,-0.27612,0.2151,-0.30176,0.037082
-0.027026,-0.075544,-0.09514,-0.015641,-0.83686,1.1546,-0.58422,1.0524,0.009822,-3.6803,-1.2843,-3.0184,0.19208,2.4079,0.29065,2.6794,0.049291,-1.0852,-1.0913,-2.2937,-0.26838,0.1809,-0.34762,-0.15944
-0.027337,-0.081331,-0.089514,-0.027364,-0.93058,1.2635,-0.59438,1.2297,-0.023317,-3.6223,-1.3258,-3.3859,0.030492,1.9277,0.29755,2.3847,0.035633,-1.2756,-1.2715,-2.5375,-0.23959,0.0732,-0.39117,-0.35778
-0.028735,-0.089197,-0.08177,-0.036437,-1.0216,1.3662,-0.61303,1.4084,-0.053647,-3.5378,-1.3335,-3.6717,-0.17825,1.476,0.30603,2.1479,0.020828,-1.2767,-1.3723,-2.6181,-0.19264,-0.063443,-0.41164,-0.55813
-0.029757,-0.093368,-0.072358,-0.042646,-1.0941,1.466,-0.641,1.5686,-0.080369,-3.4676,-1.3109,-3.868,-0.38419,1.0907,0.30342,2.0074,0.0042272,-1.1555,-1.4278,-2.5807,-0.13247,-0.18221,-0.39273,-0.75549
-0.029103,-0.090512,-0.062583,-0.047465,-1.1535,1.5696,-0.67223,1.6965,-0.10495,-3.4381,-1.2766,-3.9972,-0.54345,0.78449,0.2885,1.9324,-0.014474,-1.0542,-1.4964,-2.5291,-0.06518,-0.23741,-0.33163,-0.94725
-0.026758,-0.08225,-0.052649,-0.052738,-1.2215,1.6765,-0.70148,1.7906,-0.13127,-3.4547,-1.2519,-4.0939,-0.63103,0.5721,0.27484,1.8523,-0.031687,-1.1029,-1.6192,-2.5356,0.0027479,-0.19169,-0.24107,-1.1325
-0.023863,-0.073322,-0.041242,-0.058879,-1.3188,1.7682,-0.72997,1.8551,-0.16231,-3.5001,-1.2478,-4.1834,-0.63847,0.48304,0.27928,1.7109,-0.040616,-1.3345,-1.7883,-2.5795,0.065402,-0.040708,-0.14355,-1.3128
-0.021511,-0.067135,-0.027244,-0.064072,-1.4454,1.8121,-0.76294,1.889,-0.19632,-3.5423,-1.2596,-4.2692,-0.56342,0.55024,0.30705,1.5093,-0.036345,-1.6576,-1.9518,-2.5641,0.11813,0.15912,-0.061865,-1.4997
-0.019761,-0.062789,-0.011716,-0.065374,-1.5742,1.7815,-0.80152,1.8832,-0.22664,-3.5522,-1.273,-4.3369,-0.40391,0.78282,0.34709,1.3085,-0.021227,-1.9074,-2.0493,-2.3956,0.15759,0.29528,-0.010964,-1.7179
-0.017881,-0.056409,0.0021696,-0.061216,-1.6634,1.6809,-0.83714,1.8305,-0.24597,-3.5197,-1.2749,-4.3665,-0.16387,1.1434,0.38103,1.1886,-0.0055098,-1.9408,-2.0516,-2.0569,0.18158,0.25461,0.0058655,-1.9935
-0.015451,-0.045719,0.011518,-0.053541,-1.6792,1.5538,-0.85472,1.7403,-0.25149,-3.4558,-1.2625,-4.3422,0.13704,1.5482,0.39668,1.1924,-0.0016793,-1.7168,-1.9739,-1.6192,0.18948,0.0017701,-0.0039089,-2.3255
-0.013023,-0.033626,0.016259,-0.047672,-1.6165,1.4634,-0.8425,1.6447,-0.24601,-3.3798,-1.2425,-4.2585,0.46256,1.8946,0.3942,1.2925,-0.016163,-1.3129,-1.8573,-1.1872,0.18346,-0.38008,-0.026252,-2.665
-0.011546,-0.027151,0.019385,-0.049416,-1.5034,1.4563,-0.79971,1.5865,-0.23423,-3.3043,-1.2249,-4.1231,0.77337,2.1037,0.38083,1.4054,-0.044594,-0.8737,-1.738,-0.83019,0.16906,-0.7279,-0.046304,-2.9244
-0.011134,-0.031965,0.024629,-0.060954,-1.3866,1.5366,-0.73535,1.598,-0.21792,-3.2346,-1.2169,-3.9614,1.046,2.1546,0.36109,1.4419,-0.074363,-0.53239,-1.6304,-0.55415,0.15358,-0.89769,-0.054057,-3.0206
-0.010566,-0.046856,0.033738,-0.078478,-1.3032,1.669,-0.65948,1.684,-0.19484,-3.1836,-1.2225,-3.8168,1.2804,2.0885,0.33258,1.3628,-0.092697,-0.35567,-1.5325,-0.33094,0.14225,-0.85368,-0.048283,-2.926
-0.0082224,-0.062984,0.04574,-0.09382,-1.2568,1.8097,-0.57562,1.8221,-0.16295,-3.1876,-1.2445,-3.7399,1.4885,1.9808,0.29121,1.2013,-0.094374,-0.33878,-1.441,-0.14826,0.13479,-0.6834,-0.037007,-2.6923
-0.0036627,-0.06917,0.058503,-0.099611,-1.211,1.9368,-0.481,1.9776,-0.12584,-3.2994,-1.2857,-3.7667,1.6726,1.9,0.2402,1.0417,-0.083747,-0.43783,-1.3593,-0.031917,0.12509,-0.53249,-0.033636,-2.4282
0.0016986,-0.059548,0.070684,-0.094515,-1.1073,2.0575,-0.37343,2.1203,-0.093621,-3.5545,-1.3443,-3.8951,1.8148,1.8792,0.19365,0.96895,-0.07029,-0.60518,-1.292,-0.022151,0.105,-0.51297,-0.049512,-2.2459
0.0056,-0.0377,0.082143,-0.084398,-0.89904,2.1883,-0.25713,2.2328,-0.077148,-3.9313,-1.4088,-4.0801,1.8871,1.9164,0.17063,1.0237,-0.061664,-0.80288,-1.2358,-0.12971,0.070023,-0.64987,-0.085808,-2.208
0.0068042,-0.013937,0.092856,-0.077997,-0.58145,2.3281,-0.14166,2.3092,-0.079589,-4.3379,-1.4591,-4.2525,1.8751,1.9931,0.18395,1.1894,-0.059461,-0.99557,-1.1778,-0.31399,0.022971,-0.89098,-0.12898,-2.3043
0.0061522,0.0022965,0.10205,-0.080092,-0.20074,2.4504,-0.035365,2.3492,-0.092621,-4.6465,-1.4759,-4.3548,1.7933,2.0897,0.23223,1.4136,-0.05997,-1.1426,-1.104,-0.50222,-0.026763,-1.1536,-0.15339,-2.4642
0.0058136,0.0090092,0.10882,-0.087583,0.16554,2.5195,0.059532,2.3563,-0.10168,-4.7615,-1.4533,-4.3723,1.6757,2.1836,0.30085,1.6443,-0.058205,-1.204,-1.0081,-0.62987,-0.067732,-1.3659,-0.1317,-2.5939
0.0073754,0.012158,0.11359,-0.091907,0.44568,2.5163,0.14553,2.3374,-0.097526,-4.6793,-1.4045,-4.3398,1.5497,2.2382,0.37065,1.8529,-0.051496,-1.1568,-0.89072,-0.66557,-0.091664,-1.4827,-0.048905,-2.6187
0.010457,0.019858,0.11835,-0.08605,0.60729,2.4502,0.22455,2.3033,-0.085567,-4.4986,-1.3554,-4.3219,1.4165,2.2026,0.42806,2.032,-0.040326,-1.0031,-0.75026,-0.60199,-0.096292,-1.4869,0.0874,-2.5126
0.013058,0.035182,0.12504,-0.070483,0.66834,2.3494,0.29476,2.2632,-0.0851,-4.3684,-1.3298,-4.3778,1.2542,2.0326,0.47065,2.1776,-0.026905,-0.75897,-0.5758,-0.4287,-0.084721,-1.3924,0.24749,-2.3044
0.013317,0.053494,0.13342,-0.053137,0.68129,2.2398,0.35265,2.2197,-0.11743,-4.4038,-1.337,-4.5306,1.0426,1.7213,0.50524,2.2741,-0.013536,-0.43093,-0.35018,-0.11958,-0.062615,-1.2466,0.39211,-2.0593
