-2.894e-011,-2.894e-011,-3.0078e-009,3.0657e-009,3.8876e-009,-7.1963e-010,6.9262e-010,7.1288e-009,1.5627e-010,-3.1467e-009,1.8116e-009,-2.8689e-009,-3.1621e-009,-1.0212e-008,5.35e-009,-1.3272e-008,-1.557e-009,-1.1981e-009,-3.0734e-009,2.6451e-009,-6.1931e-010,8.296e-011,7.6979e-010,1.9274e-009
-8.6916e-010,-1.2473e-009,-8.3348e-008,8.4457e-008,1.0702e-007,-2.0901e-008,1.8503e-008,1.9667e-007,4.2567e-009,-8.631e-008,5.0096e-008,-7.9108e-008,-8.7524e-008,-2.8357e-007,1.4781e-007,-3.6713e-007,-4.2955e-008,-3.293e-008,-8.5172e-008,7.2734e-008,-1.6697e-008,2.1343e-009,2.1573e-008,5.2307e-008
-1.2936e-008,-2.3127e-008,-1.1227e-006,1.1307e-006,1.4316e-006,-2.9554e-007,2.3952e-007,2.6372e-006,5.6394e-008,-1.1501e-006,6.7358e-007,-1.0599e-006,-1.1778e-006,-3.8287e-006,1.9852e-006,-4.9371e-006,-5.7568e-007,-4.4002e-007,-1.1476e-006,9.7183e-007,-2.1814e-007,2.676e-008,2.9414e-007,6.888e-007
-1.267e-007,-2.603e-007,-9.7933e-006,9.8009e-006,1.2398e-005,-2.711e-006,2.0003e-006,2.2896e-005,4.8387e-007,-9.9182e-006,5.8675e-006,-9.1916e-006,-1.0266e-005,-3.3487e-005,1.7268e-005,-4.3e-005,-4.9925e-006,-3.8083e-006,-1.0017e-005,8.4051e-006,-1.8387e-006,2.1839e-007,2.5998e-006,5.8613e-006
-9.1502e-007,-2.0504e-006,-6.218e-005,6.1816e-005,7.8113e-005,-1.8136e-005,1.2102e-005,0.00014465,3.0197e-006,-6.2203e-005,3.7221e-005,-5.7987e-005,-6.5146e-005,-0.00021324,0.00010934,-0.00027261,-3.1485e-005,-2.3998e-005,-6.3657e-005,5.2879e-005,-1.1229e-005,1.3077e-006,1.6744e-005,3.6207e-005
-5.1763e-006,-1.2208e-005,-0.00030617,0.00030225,0.00038143,-9.4297e-005,5.6437e-005,0.00070853,1.4588e-005,-0.00030223,0.00018324,-0.00028352,-0.00032067,-0.0010533,0.00053695,-0.0013403,-0.00015381,-0.00011733,-0.0003138,0.00025777,-5.2887e-005,6.1403e-006,8.3741e-005,0.00017287
-2.3805e-005,-5.7642e-005,-0.0012161,0.0011917,0.0015013,-0.00039647,0.00021061,0.0027986,5.6652e-005,-0.001183,0.00072843,-0.0011174,-0.0012737,-0.0041974,0.0021274,-0.0053155,-0.00060523,-0.00046307,-0.0012482,0.0010126,-0.00019954,2.3592e-005,0.0003384,0.000663
-9.123e-005,-0.0002229,-0.0040012,0.0038903,0.0048894,-0.0013845,0.00064382,0.0091524,0.00018118,-0.0038289,0.0024017,-0.0036448,-0.0041914,-0.013856,0.0069825,-0.01746,-0.001969,-0.0015157,-0.0041139,0.0032894,-0.00061822,7.635e-005,0.0011351,0.0020943
-0.00029642,-0.00072232,-0.011108,0.010709,0.013416,-0.0040918,0.0016341,0.025241,0.00048433,-0.010432,0.006694,-0.010021,-0.011642,-0.038591,0.019339,-0.048378,-0.0053911,-0.0041945,-0.011443,0.0089962,-0.0015984,0.00021229,0.0032209,0.0055393
-0.00082667,-0.0019949,-0.026362,0.025178,0.031402,-0.010372,0.0034591,0.059466,0.0010906,-0.024217,0.01599,-0.023526,-0.027649,-0.091847,0.04579,-0.11454,-0.012574,-0.0099551,-0.027212,0.020961,-0.0034827,0.00051363,0.0078416,0.012389
-0.0019962,-0.0047554,-0.053968,0.051005,0.06321,-0.022759,0.0060616,0.12074,0.0020687,-0.048265,0.03307,-0.047573,-0.056653,-0.18842,0.093521,-0.23376,-0.025165,-0.020491,-0.055826,0.041909,-0.0064257,0.0010886,0.016552,0.02352
-0.0041972,-0.0098802,-0.095849,0.089484,0.10987,-0.043483,0.0085317,0.21244,0.0032734,-0.082857,0.059652,-0.083307,-0.10071,-0.33487,0.16567,-0.41334,-0.04335,-0.036919,-0.099332,0.072074,-0.010042,0.0020231,0.030532,0.037763
-0.0077069,-0.018029,-0.14809,0.13621,0.16493,-0.072522,0.0087347,0.32466,0.0041999,-0.12235,0.094352,-0.12661,-0.15568,-0.51645,0.25518,-0.63442,-0.064135,-0.058738,-0.15363,0.10627,-0.013257,0.0032801,0.049538,0.050484
-0.012357,-0.029081,-0.19901,0.17956,0.21271,-0.10547,0.0036343,0.43064,0.0040484,-0.15416,0.13141,-0.16687,-0.20908,-0.68979,0.34149,-0.84374,-0.080717,-0.083347,-0.20629,0.13268,-0.0148,0.0045839,0.071113,0.053863
-0.017241,-0.041719,-0.23197,0.2038,0.23272,-0.13295,-0.0093516,0.49378,0.0021715,-0.16263,0.16185,-0.18992,-0.24283,-0.79285,0.39545,-0.9663,-0.084431,-0.10691,-0.2392,0.13602,-0.014461,0.0053986,0.090969,0.040112
-0.020761,-0.053638,-0.23345,0.19698,0.21023,-0.14337,-0.030404,0.48578,-0.00119,-0.13749,0.17755,-0.18537,-0.24182,-0.7752,0.39332,-0.94164,-0.069353,-0.12643,-0.23698,0.10529,-0.01441,0.0051565,0.10489,0.0068117
-0.021259,-0.062544,-0.20239,0.15957,0.14752,-0.12881,-0.056084,0.40578,-0.0043973,-0.082329,0.17622,-0.15413,-0.20404,-0.63402,0.33316,-0.76567,-0.037115,-0.14161,-0.19712,0.042317,-0.019243,0.0037902,0.11125,-0.039074
-0.018081,-0.067469,-0.15365,0.10709,0.066657,-0.0913,-0.08024,0.28503,-0.0048187,-0.015908,0.16359,-0.11006,-0.14493,-0.42831,0.24092,-0.50594,0.0019207,-0.15452,-0.13438,-0.035355,-0.033785,0.0023552,0.11235,-0.082573
-0.012409,-0.06944,-0.11075,0.062482,-0.0013063,-0.04472,-0.097187,0.16863,-0.00036973,0.037209,0.15041,-0.072487,-0.09035,-0.25144,0.15838,-0.26949,0.033357,-0.16698,-0.074115,-0.10162,-0.059403,0.0032265,0.11295,-0.10835
-0.0070958,-0.070752,-0.091233,0.042065,-0.035466,-0.0095431,-0.10535,0.084679,0.0086026,0.061912,0.14541,-0.053707,-0.060964,-0.17229,0.11782,-0.13711,0.047206,-0.17738,-0.037196,-0.13617,-0.091363,0.0093553,0.11675,-0.11026
-0.0052289,-0.073157,-0.094787,0.044901,-0.038897,-0.0022243,-0.10858,0.024916,0.018629,0.062643,0.14948,-0.050715,-0.058527,-0.18504,0.12116,-0.11038,0.044234,-0.18044,-0.026839,-0.13666,-0.11993,0.0226,0.12336,-0.095549
-0.0081639,-0.076358,-0.10426,0.054329,-0.035357,-0.025689,-0.11357,-0.044537,0.024705,0.059545,0.15555,-0.04847,-0.065114,-0.20942,0.14037,-0.11486,0.035052,-0.17089,-0.027752,-0.11953,-0.13537,0.042001,0.12843,-0.079586
-0.014422,-0.078213,-0.099573,0.051175,-0.050087,-0.067544,-0.1247,-0.14876,0.023526,0.072591,0.15469,-0.032826,-0.056906,-0.14729,0.13999,-0.060982,0.032154,-0.14861,-0.018928,-0.10793,-0.13383,0.063354,0.12729,-0.074547
-0.02045,-0.076764,-0.073931,0.02823,-0.089577,-0.1076,-0.1401,-0.27527,0.016065,0.10603,0.14337,-0.0026059,-0.0224,0.044763,0.10427,0.085033,0.040949,-0.1205,0.0099012,-0.11552,-0.11947,0.08084,0.11916,-0.0809
-0.022936,-0.072511,-0.038771,-0.0057753,-0.13694,-0.12958,-0.15227,-0.37841,0.0072326,0.14594,0.12591,0.029503,0.02925,0.32338,0.04686,0.27826,0.056855,-0.096641,0.051404,-0.13825,-0.1011,0.089992,0.10833,-0.088873
-0.021081,-0.068889,-0.013357,-0.0355,-0.16674,-0.12879,-0.1533,-0.41604,0.0025198,0.17275,0.11017,0.048055,0.07616,0.59219,-0.0040959,0.43796,0.070458,-0.082911,0.088489,-0.15991,-0.085705,0.089947,0.10094,-0.088616
-0.017096,-0.07018,-0.0079499,-0.052816,-0.16639,-0.1111,-0.14104,-0.38704,0.0041156,0.17769,0.10059,0.04816,0.10096,0.77203,-0.031515,0.51646,0.075824,-0.076119,0.10938,-0.16592,-0.074024,0.08323,0.10005,-0.080078
-0.014432,-0.078217,-0.01515,-0.06268,-0.14572,-0.085468,-0.1214,-0.33517,0.0096548,0.16901,0.094736,0.039298,0.10316,0.84947,-0.042789,0.53227,0.074636,-0.066051,0.11671,-0.15392,-0.06174,0.073238,0.10317,-0.073686
-0.015015,-0.090356,-0.016655,-0.076357,-0.12729,-0.057196,-0.10465,-0.31395,0.014569,0.16306,0.086291,0.036571,0.097301,0.86697,-0.060221,0.53969,0.072996,-0.043434,0.12343,-0.13342,-0.044752,0.061648,0.10432,-0.081002
-0.01761,-0.10036,0.00091753,-0.099047,-0.12682,-0.027651,-0.098487,-0.34314,0.015903,0.16898,0.071266,0.047603,0.10015,0.87026,-0.098658,0.56573,0.07461,-0.0077321,0.14038,-0.11645,-0.023663,0.048091,0.09898,-0.10354
-0.018721,-0.10176,0.035149,-0.12392,-0.14163,4.913e-007,-0.10297,-0.39559,0.014288,0.18102,0.05168,0.066775,0.11837,0.86388,-0.15133,0.574,0.077134,0.031593,0.16705,-0.1082,-0.0035217,0.032276,0.087592,-0.12974
-0.015447,-0.091488,0.070947,-0.13814,-0.15616,0.015091,-0.11105,-0.4254,0.012579,0.18473,0.033508,0.081301,0.1464,0.81345,-0.19618,0.48949,0.075024,0.061656,0.19328,-0.10525,0.010646,0.016164,0.074752,-0.14308
-0.008095,-0.071513,0.094066,-0.13512,-0.15802,0.00016717,-0.11413,-0.41033,0.012828,0.17076,0.021206,0.082895,0.17409,0.68806,-0.21559,0.26261,0.065761,0.075618,0.20906,-0.10112,0.018151,0.0035783,0.065047,-0.13453
-0.00036502,-0.047605,0.10266,-0.12135,-0.149,-0.060614,-0.10785,-0.36867,0.014518,0.14338,0.014071,0.074348,0.19575,0.50046,-0.21097,-0.083114,0.053165,0.077668,0.213,-0.092721,0.022898,-0.0027968,0.059255,-0.1091
0.0032857,-0.026033,0.10709,-0.11159,-0.14154,-0.17045,-0.093921,-0.33574,0.015524,0.11663,0.0075948,0.065856,0.21276,0.30789,-0.19966,-0.45835,0.044446,0.079629,0.21218,-0.081918,0.029722,-0.0040615,0.054148,-0.081223
0.001148,-0.010227,0.11931,-0.11635,-0.14542,-0.31384,-0.077086,-0.32379,0.014464,0.10226,-0.0019332,0.065494,0.22878,0.17378,-0.19849,-0.76105,0.043779,0.091821,0.21465,-0.071997,0.040594,-0.0042627,0.045817,-0.063143
-0.0041726,0.00070406,0.14197,-0.13313,-0.15805,-0.46008,-0.060596,-0.30484,0.011998,0.10066,-0.014204,0.072845,0.24348,0.12464,-0.2099,-0.93042,0.04843,0.11535,0.22223,-0.063688,0.054316,-0.0062494,0.03338,-0.055895
-0.0075292,0.010818,0.16689,-0.14871,-0.16706,-0.57484,-0.044267,-0.23425,0.0099263,0.10223,-0.025939,0.080856,0.25086,0.1371,-0.2226,-0.9632,0.051042,0.14174,0.22989,-0.054942,0.069685,-0.0080599,0.01977,-0.049729
-0.0050371,0.024296,0.18323,-0.15051,-0.16166,-0.63309,-0.02633,-0.09445,0.0092614,0.096898,-0.034754,0.083078,0.24312,0.16178,-0.22446,-0.89048,0.045988,0.16004,0.23133,-0.044036,0.088664,-0.0037886,0.0090401,-0.032684
0.0031211,0.042434,0.18731,-0.13697,-0.14126,-0.62672,-0.0065814,0.080483,0.0092974,0.082777,-0.041767,0.079157,0.21638,0.1603,-0.2147,-0.74466,0.034203,0.1656,0.22496,-0.032073,0.11615,0.011211,0.0027631,0.000235
0.013108,0.062675,0.18527,-0.11841,-0.11385,-0.56383,0.012604,0.22215,0.0085488,0.066642,-0.050368,0.074191,0.17312,0.12571,-0.2044,-0.54609,0.02248,0.16354,0.21478,-0.021988,0.15612,0.035448,-0.001186,0.044423
0.020563,0.080385,0.1869,-0.10806,-0.087186,-0.46211,0.028421,0.27265,0.0064849,0.057027,-0.06259,0.0737,0.12033,0.075232,-0.2062,-0.31323,0.018132,0.16422,0.2061,-0.015237,0.20726,0.061643,-0.0064092,0.090611
0.023699,0.09219,0.19715,-0.11121,-0.062468,-0.34149,0.040691,0.22049,0.00427,0.056693,-0.076856,0.079454,0.065366,0.028281,-0.2234,-0.075738,0.023549,0.17455,0.2006,-0.0099983,0.26171,0.082413,-0.014467,0.13214
0.023858,0.098457,0.21262,-0.12158,-0.036662,-0.21953,0.052709,0.10094,0.0037432,0.060849,-0.089425,0.08941,0.012888,-0.009404,-0.24835,0.12976,0.034762,0.1921,0.19524,-0.0030213,0.30783,0.096022,-0.023403,0.16813
0.023466,0.10306,0.22557,-0.12724,-0.0098098,-0.10968,0.068974,-0.033878,0.0055726,0.061645,-0.09811,0.10053,-0.035321,-0.044542,-0.27022,0.28089,0.044537,0.20682,0.18552,0.0067359,0.33508,0.1064,-0.029789,0.20048
0.023635,0.11058,0.23081,-0.12055,0.011467,-0.020196,0.091906,-0.14772,0.0082939,0.054232,-0.10458,0.1109,-0.078338,-0.083877,-0.28408,0.3876,0.047185,0.20908,0.16969,0.016622,0.33802,0.11707,-0.032488,0.22833
0.023695,0.12301,0.22924,-0.10366,0.018846,0.047381,0.12041,-0.23114,0.0091704,0.039324,-0.11293,0.11934,-0.11357,-0.12412,-0.29291,0.48783,0.041574,0.19746,0.15024,0.02275,0.31747,0.12489,-0.034632,0.24605
0.022766,0.1384,0.22561,-0.085579,0.010932,0.098712,0.15121,-0.28973,0.0062424,0.021078,-0.12582,0.12405,-0.1354,-0.15301,-0.302,0.62115,0.030784,0.18007,0.13168,0.024089,0.27926,0.12053,-0.041765,0.24717
0.021396,0.15236,0.22359,-0.074242,-0.0035223,0.14377,0.18121,-0.32738,-7.2477e-005,0.0031593,-0.14186,0.12285,-0.13622,-0.15946,-0.31191,0.80049,0.019284,0.16831,0.11707,0.024085,0.23171,0.096533,-0.057477,0.23143
0.021407,0.16129,0.22294,-0.070679,-0.011932,0.19078,0.20874,-0.3415,-0.0071036,-0.013322,-0.15654,0.11539,-0.10985,-0.14382,-0.31726,1.0038,0.0098558,0.16809,0.10619,0.0281,0.18302,0.056278,-0.080227,0.20846
0.024092,0.1648,0.22085,-0.069628,-0.0083618,0.24084,0.23287,-0.3305,-0.011681,-0.028788,-0.16598,0.10515,-0.056494,-0.12017,-0.31179,1.1904,0.0021794,0.17561,0.096605,0.039038,0.13925,0.015341,-0.10413,0.19385
0.028718,0.16575,0.21529,-0.064984,0.0016774,0.2878,0.25248,-0.30098,-0.012187,-0.042891,-0.16986,0.098227,0.013925,-0.10873,-0.29481,1.3275,-0.0062683,0.18081,0.086056,0.055154,0.10312,-0.0074328,-0.12316,0.19967
0.032933,0.16791,0.20682,-0.054738,0.006779,0.32389,0.26646,-0.26462,-0.0094195,-0.053627,-0.1712,0.099345,0.083195,-0.12314,-0.2724,1.4057,-0.017767,0.17534,0.07403,0.071755,0.074149,-0.0028636,-0.13536,0.22609
0.03469,0.17293,0.19731,-0.04151,0.00038946,0.34679,0.27505,-0.22774,-0.0057828,-0.058884,-0.17329,0.10803,0.13207,-0.16036,-0.25267,1.4356,-0.032045,0.15835,0.061482,0.084736,0.049861,0.021749,-0.14353,0.26088
0.033773,0.17891,0.18748,-0.029328,-0.013262,0.36157,0.28052,-0.18623,-0.0035823,-0.058899,-0.17689,0.11855,0.15016,-0.19927,-0.23928,1.4324,-0.045789,0.13564,0.049446,0.092685,0.027682,0.047454,-0.15203,0.28738
0.031602,0.18159,0.1761,-0.020338,-0.023363,0.37567,0.28585,-0.13298,-0.0037545,-0.057039,-0.18006,0.12398,0.1421,-0.20919,-0.22921,1.4044,-0.054507,0.1138,0.038061,0.096327,0.0062707,0.056486,-0.16275,0.29532
0.029758,0.17741,0.16177,-0.014261,-0.022579,0.39136,0.29228,-0.072218,-0.0058321,-0.057732,-0.18057,0.12128,0.125,-0.16389,-0.21626,1.3528,-0.055613,0.09519,0.026799,0.096998,-0.014357,0.043462,-0.17349,0.28649
0.028828,0.16648,0.14529,-0.010097,-0.013458,0.40281,0.29793,-0.02581,-0.0088492,-0.063012,-0.17836,0.11322,0.11794,-0.053729,-0.1968,1.2775,-0.050477,0.078083,0.015336,0.096209,-0.033803,0.017151,-0.18025,0.27164
0.028489,0.15303,0.13,-0.0075614,-0.0055493,0.40112,0.29912,-0.022966,-0.012195,-0.070736,-0.17583,0.10578,0.13046,0.10976,-0.17256,1.1821,-0.043775,0.061005,0.0039604,0.096243,-0.05243,-0.0074271,-0.18104,0.26158
0.028302,0.1429,0.11928,-0.0066162,-0.0064456,0.3831,0.29339,-0.078749,-0.015687,-0.076377,-0.176,0.10325,0.15819,0.2981,-0.14848,1.0718,-0.040457,0.046056,-0.0069699,0.099851,-0.07169,-0.019905,-0.178,0.2596
0.028095,0.13966,0.11347,-0.0059641,-0.015306,0.35592,0.28163,-0.17788,-0.019034,-0.077165,-0.18033,0.1051,0.18823,0.47604,-0.12818,0.94994,-0.042598,0.037232,-0.017886,0.10809,-0.093274,-0.020738,-0.17603,0.26034
0.027665,0.14212,0.10908,-0.0026942,-0.024437,0.33315,0.26734,-0.27753,-0.021538,-0.074997,-0.18804,0.10684,0.20955,0.6134,-0.11129,0.81876,-0.048479,0.03528,-0.030095,0.11811,-0.11752,-0.019473,-0.17942,0.25459
0.026507,0.14534,0.10135,0.0059361,-0.026722,0.32524,0.25365,-0.32889,-0.022541,-0.075257,-0.19709,0.10375,0.21986,0.69475,-0.094771,0.68434,-0.054385,0.034697,-0.044771,0.12394,-0.14212,-0.027826,-0.18908,0.23539
0.024269,0.14433,0.088079,0.019928,-0.021596,0.33241,0.24074,-0.30366,-0.022253,-0.082156,-0.20553,0.094329,0.22409,0.72378,-0.076314,0.55912,-0.057413,0.026833,-0.061671,0.12059,-0.16208,-0.052977,-0.20269,0.20085
0.021532,0.13752,0.071387,0.035634,-0.01444,0.34569,0.22573,-0.20808,-0.02192,-0.094493,-0.21207,0.081136,0.2271,0.71997,-0.056255,0.4577,-0.056936,0.0070883,-0.078873,0.10849,-0.17157,-0.094912,-0.21677,0.15322
0.019839,0.12743,0.055897,0.047746,-0.010829,0.35462,0.20515,-0.076141,-0.022894,-0.10564,-0.21586,0.068875,0.22761,0.70779,-0.036445,0.38828,-0.0539,-0.020298,-0.093934,0.093864,-0.16696,-0.14804,-0.22903,0.096712
0.020488,0.11803,0.044768,0.052906,-0.011615,0.35502,0.17799,0.052077,-0.025321,-0.1081,-0.21635,0.061705,0.21858,0.70296,-0.017712,0.34797,-0.049187,-0.044604,-0.10556,0.084286,-0.14959,-0.20463,-0.23882,0.036783
0.023002,0.1113,0.037082,0.052134,-0.013205,0.35068,0.14683,0.15208,-0.027812,-0.09904,-0.2137,0.061471,0.19285,0.70379,0.0011428,0.32681,-0.04288,-0.056383,-0.1143,0.083244,-0.12633,-0.25753,-0.24608,-0.019568
0.024844,0.10597,0.028856,0.050054,-0.011946,0.34838,0.11651,0.22311,-0.028624,-0.082326,-0.20906,0.067476,0.14867,0.69344,0.021677,0.31669,-0.035039,-0.053865,-0.12175,0.088537,-0.10692,-0.30109,-0.25009,-0.064602
0.023015,0.099192,0.016834,0.051377,-0.0077783,0.351,0.091282,0.27987,-0.027361,-0.065684,-0.20416,0.077251,0.090423,0.65184,0.043301,0.31573,-0.02681,-0.042599,-0.129,0.095558,-0.099257,-0.33097,-0.24956,-0.092995
0.016424,0.089302,0.0017163,0.057354,-0.0036814,0.35422,0.072666,0.33607,-0.025519,-0.055524,-0.20023,0.087591,0.025169,0.56882,0.062678,0.32298,-0.020364,-0.029361,-0.13587,0.1018,-0.1052,-0.34411,-0.24392,-0.1053
0.0070734,0.077258,-0.012108,0.065012,-0.0020046,0.34889,0.05921,0.39261,-0.025211,-0.053632,-0.19709,0.095486,-0.041173,0.44909,0.075853,0.32844,-0.017494,-0.016534,-0.14157,0.10809,-0.1198,-0.33942,-0.23442,-0.10818
-0.0010298,0.065608,-0.020272,0.069809,-0.0017549,0.32719,0.048225,0.43785,-0.027232,-0.057785,-0.19347,0.098875,-0.1046,0.30654,0.081146,0.30965,-0.018216,-0.002172,-0.14593,0.1158,-0.13444,-0.31873,-0.22394,-0.11
-0.0044382,0.056374,-0.02246,0.069601,0.00040537,0.28853,0.038116,0.45801,-0.030316,-0.064839,-0.18816,0.097132,-0.16138,0.15381,0.080107,0.24126,-0.020847,0.014993,-0.14989,0.12372,-0.14196,-0.28675,-0.21531,-0.11448
-0.0023277,0.049763,-0.023219,0.066732,0.0066251,0.24171,0.029638,0.44837,-0.032352,-0.073125,-0.18114,0.091135,-0.20702,-0.0038942,0.075855,0.11204,-0.023506,0.031264,-0.1546,0.12821,-0.14028,-0.24947,-0.2097,-0.11769
0.0033566,0.044531,-0.028625,0.066495,0.015421,0.20232,0.025115,0.41689,-0.032406,-0.082399,-0.17352,0.082781,-0.23776,-0.16654,0.070782,-0.064046,-0.025587,0.039158,-0.16021,0.12649,-0.13234,-0.21167,-0.20629,-0.11112
0.009443,0.039171,-0.041506,0.073112,0.022691,0.1861,0.026021,0.37851,-0.031635,-0.092244,-0.1665,0.074044,-0.25313,-0.332,0.066066,-0.25261,-0.027808,0.033196,-0.16549,0.11955,-0.12322,-0.17523,-0.20346,-0.088982
0.013342,0.03269,-0.059229,0.086284,0.025155,0.20132,0.030594,0.34561,-0.032256,-0.10116,-0.16027,0.06587,-0.25656,-0.49096,0.063246,-0.41624,-0.030984,0.014866,-0.169,0.11139,-0.11681,-0.13985,-0.20016,-0.054003
0.013905,0.024544,-0.07597,0.10087,0.023028,0.24394,0.033468,0.32214,-0.035514,-0.10743,-0.15381,0.057521,-0.25274,-0.62833,0.065609,-0.53175,-0.034915,-0.0078373,-0.17064,0.10584,-0.11443,-0.10562,-0.19641,-0.017208
0.011237,0.014311,-0.087594,0.10992,0.019745,0.29892,0.028126,0.30511,-0.040402,-0.11088,-0.14582,0.046912,-0.24414,-0.72951,0.077065,-0.59578,-0.038519,-0.02579,-0.17191,0.1041,-0.11565,-0.075408,-0.1926,0.0082338
0.0061974,0.0017352,-0.094963,0.10893,0.019317,0.3475,0.01096,0.29082,-0.044134,-0.11359,-0.13582,0.032023,-0.22991,-0.78671,0.098849,-0.61779,-0.040952,-0.034293,-0.17466,0.10543,-0.11939,-0.054549,-0.18868,0.014517
0.00013087,-0.012837,-0.10289,0.098612,0.02385,0.37618,-0.015783,0.27957,-0.043901,-0.11883,-0.12455,0.012559,-0.20847,-0.80142,0.12707,-0.60959,-0.042427,-0.034515,-0.1793,0.10923,-0.12414,-0.047803,-0.18393,0.0028167
-0.005285,-0.028143,-0.11568,0.084428,0.033187,0.38127,-0.044526,0.27441,-0.038655,-0.129,-0.11346,-0.0094507,-0.18109,-0.78266,0.15399,-0.58031,-0.04391,-0.030702,-0.18445,0.11564,-0.12735,-0.056044,-0.17734,-0.019094
-0.0084771,-0.042205,-0.13304,0.073405,0.046463,0.36574,-0.066424,0.27442,-0.029817,-0.14418,-0.1037,-0.030813,-0.15307,-0.74298,0.17261,-0.5381,-0.046156,-0.026431,-0.18834,0.12375,-0.12556,-0.075689,-0.16783,-0.043058
-0.0086906,-0.053026,-0.14992,0.070114,0.063743,0.33162,-0.076462,0.26884,-0.020614,-0.16217,-0.0953,-0.049314,-0.13094,-0.69431,0.18108,-0.49229,-0.049152,-0.023002,-0.19071,0.13011,-0.1159,-0.10154,-0.15425,-0.066112
-0.006451,-0.059415,-0.16035,0.074272,0.086068,0.2754,-0.076091,0.23809,-0.014415,-0.17951,-0.087254,-0.065018,-0.11824,-0.64502,0.18322,-0.45102,-0.052413,-0.020181,-0.193,0.13006,-0.098118,-0.13045,-0.1355,-0.091864
-0.0032889,-0.061576,-0.16209,0.081402,0.11395,0.19172,-0.071565,0.1634,-0.01288,-0.19281,-0.078251,-0.079504,-0.11342,-0.59852,0.18484,-0.4159,-0.055511,-0.017321,-0.19668,0.12169,-0.075148,-0.1622,-0.11142,-0.12704
-0.00084777,-0.06113,-0.15841,0.086147,0.14588,0.082735,-0.069216,0.039733,-0.014953,-0.19973,-0.067753,-0.093761,-0.11153,-0.55377,0.18922,-0.38059,-0.058102,-0.013377,-0.2012,0.10873,-0.051247,-0.19653,-0.08382,-0.17561
-2.3935e-005,-0.060426,-0.15558,0.085985,0.17836,-0.035579,-0.07108,-0.11703,-0.01747,-0.19967,-0.056545,-0.10683,-0.10807,-0.50749,0.19531,-0.33687,-0.059521,-0.00636,-0.20392,0.098992,-0.029098,-0.22919,-0.056354,-0.23437
-0.00071993,-0.061343,-0.15832,0.082706,0.20794,-0.13783,-0.073988,-0.2745,-0.017249,-0.19425,-0.046307,-0.11669,-0.10157,-0.4569,0.19984,-0.28413,-0.058779,0.0061556,-0.20229,0.099039,-0.008279,-0.25133,-0.032748,-0.29287
-0.0022427,-0.064275,-0.1667,0.080533,0.23343,-0.20278,-0.072536,-0.3979,-0.01342,-0.18679,-0.0383,-0.12253,-0.093423,-0.40181,0.20085,-0.23354,-0.055404,0.024976,-0.19644,0.10919,0.013588,-0.25378,-0.014581,-0.33796
-0.0039081,-0.068124,-0.17668,0.082363,0.25667,-0.22594,-0.063514,-0.46524,-0.0082518,-0.18067,-0.032094,-0.12623,-0.085629,-0.34484,0.19936,-0.20193,-0.050335,0.047205,-0.18944,0.12286,0.038089,-0.23309,-0.00063749,-0.36024
-0.0053975,-0.071433,-0.18347,0.087189,0.28095,-0.22049,-0.048485,-0.47396,-0.0056492,-0.17705,-0.025402,-0.13123,-0.078781,-0.28984,0.19827,-0.19957,-0.045663,0.066352,-0.18486,0.13086,0.064098,-0.19421,0.011415,-0.35841
-0.0067365,-0.073785,-0.18493,0.090877,0.30833,-0.2053,-0.032815,-0.43563,-0.0082796,-0.1739,-0.015453,-0.13961,-0.071686,-0.23932,0.19976,-0.22163,-0.042984,0.075343,-0.18376,0.12731,0.0883,-0.14707,0.022596,-0.33908
-0.008066,-0.076217,-0.18238,0.089621,0.33775,-0.18969,-0.022233,-0.36366,-0.015462,-0.1673,-0.0010207,-0.15014,-0.062384,-0.19238,0.20372,-0.25026,-0.041773,0.070613,-0.18382,0.11302,0.10758,-0.0999,0.031902,-0.31261
-0.009424,-0.080139,-0.17881,0.083085,0.36548,-0.16767,-0.019614,-0.26359,-0.023461,-0.15465,0.01647,-0.15917,-0.049448,-0.14456,0.20813,-0.26566,-0.039566,0.054317,-0.18166,0.094428,0.12127,-0.054641,0.038137,-0.28814
-0.010638,-0.085695,-0.17635,0.074506,0.38705,-0.12603,-0.024179,-0.13291,-0.027947,-0.13689,0.033788,-0.16385,-0.03277,-0.090317,0.21069,-0.25735,-0.034188,0.03292,-0.1759,0.079241,0.13146,-0.008103,0.042379,-0.27085
-0.011341,-0.091144,-0.17506,0.067817,0.39912,-0.059202,-0.033142,0.030007,-0.026729,-0.11794,0.048153,-0.16484,-0.013654,-0.027199,0.21029,-0.22792,-0.026203,0.013138,-0.16832,0.071889,0.14133,0.042392,0.048266,-0.26203
-0.011122,-0.094059,-0.17388,0.064471,0.40003,0.022154,-0.044073,0.21518,-0.020847,-0.10161,0.059127,-0.1662,0.0056635,0.041061,0.20752,-0.18807,-0.01918,-0.0018653,-0.16208,0.071412,0.15271,0.093772,0.059328,-0.26087
-0.0098085,-0.093482,-0.17239,0.062797,0.38923,0.095591,-0.056031,0.39746,-0.013545,-0.088833,0.068621,-0.17225,0.02301,0.10517,0.20418,-0.14837,-0.017211,-0.013458,-0.15885,0.072645,0.16468,0.13652,0.075694,-0.26594
-0.0077749,-0.091199,-0.17147,0.060177,0.36696,0.14023,-0.068967,0.54367,-0.0082242,-0.077819,0.079112,-0.18418,0.03735,0.15522,0.20222,-0.11386,-0.021617,-0.02536,-0.15764,0.06961,0.17389,0.15888,0.093417,-0.27567
-0.0059831,-0.090851,-0.17239,0.055732,0.33478,0.14791,-0.08248,0.62642,-0.0068179,-0.066565,0.091653,-0.19883,0.04912,0.18703,0.20267,-0.084158,-0.029703,-0.040127,-0.15602,0.059042,0.17658,0.15294,0.10737,-0.28819
-0.0055271,-0.09537,-0.17509,0.050899,0.29607,0.12441,-0.095405,0.63566,-0.0092004,-0.054939,0.10533,-0.21072,0.059249,0.20512,0.20493,-0.056558,-0.036691,-0.0568,-0.15232,0.042179,0.17082,0.11886,0.11527,-0.30118
-0.0068183,-0.10466,-0.17752,0.047533,0.25538,0.08233,-0.10668,0.58078,-0.013393,-0.044063,0.11841,-0.2156,0.067463,0.21952,0.20685,-0.029077,-0.039193,-0.071123,-0.14633,0.024064,0.15765,0.065399,0.11934,-0.31189
-0.0090303,-0.11544,-0.17668,0.04559,0.21621,0.033506,-0.11646,0.48317,-0.016237,-0.033971,0.1299,-0.21301,0.071562,0.23836,0.20587,-0.0016771,-0.037318,-0.078,-0.13823,0.010968,0.14012,0.0068964,0.1242,-0.31724
-0.010482,-0.12357,-0.17061,0.042753,0.17911,-0.01269,-0.12608,0.36622,-0.014598,-0.022676,0.14013,-0.20615,0.068899,0.26181,0.20061,0.023763,-0.033857,-0.074526,-0.12734,0.0073952,0.12102,-0.041834,0.13304,-0.31441
-0.0099645,-0.12711,-0.15995,0.036326,0.142,-0.046311,-0.13673,0.25061,-0.0071157,-0.0083833,0.14998,-0.19969,0.059233,0.28217,0.19184,0.043966,-0.031637,-0.061706,-0.11245,0.014196,0.10096,-0.070856,0.14545,-0.30205
-0.0080477,-0.12788,-0.14778,0.025532,0.10298,-0.054851,-0.14787,0.15723,0.0043688,0.0071512,0.15977,-0.19705,0.046378,0.28995,0.18193,0.055217,-0.031537,-0.043756,-0.093771,0.028618,0.078682,-0.07861,0.15836,-0.2815
-0.0070441,-0.1302,-0.13805,0.01207,0.063417,-0.026539,-0.15728,0.11127,0.015084,0.018074,0.16892,-0.19925,0.036524,0.2808,0.17323,0.05494,-0.032704,-0.025389,-0.074257,0.045995,0.053399,-0.071653,0.16887,-0.25671
-0.0092698,-0.13771,-0.13368,-0.001484,0.028238,0.04294,-0.1627,0.13886,0.019938,0.01826,0.17665,-0.20548,0.03397,0.25798,0.16642,0.043232,-0.034208,-0.0089998,-0.058469,0.061931,0.027365,-0.060363,0.17639,-0.2322
-0.01484,-0.15077,-0.13518,-0.013755,0.0027708,0.14603,-0.16387,0.25357,0.017092,0.0065363,0.18288,-0.21467,0.03765,0.2289,0.16037,0.023153,-0.036183,0.0059347,-0.049316,0.073567,0.0059628,-0.052895,0.18241,-0.2102
-0.021045,-0.16622,-0.14038,-0.025172,-0.011274,0.26519,-0.16281,0.44111,0.0097358,-0.011649,0.18841,-0.22629,0.041693,0.19976,0.15335,-0.00068744,-0.039298,0.020314,-0.045444,0.079226,-0.0053162,-0.051276,0.18878,-0.18946
-0.024245,-0.17945,-0.14524,-0.036649,-0.017171,0.37977,-0.16213,0.65636,0.0041887,-0.028066,0.19419,-0.23985,0.040002,0.17296,0.14467,-0.024226,-0.043348,0.031507,-0.041739,0.077001,-0.0048453,-0.052126,0.196,-0.16716
-0.022968,-0.18707,-0.14552,-0.047831,-0.020669,0.47289,-0.16281,0.83972,0.0053843,-0.03765,0.20037,-0.25357,0.031179,0.1487,0.1352,-0.04509,-0.046683,0.031764,-0.032892,0.063881,0.0035921,-0.050769,0.20279,-0.14229
-0.019469,-0.1883,-0.13866,-0.056764,-0.025955,0.53449,-0.16386,0.94506,0.013231,-0.040898,0.2061,-0.26383,0.019518,0.12772,0.12638,-0.062215,-0.047283,0.011656,-0.01722,0.036907,0.013299,-0.044718,0.20698,-0.11715
-0.018088,-0.18453,-0.1251,-0.061454,-0.033794,0.56039,-0.16388,0.96031,0.022932,-0.04043,0.21025,-0.26618,0.011041,0.11177,0.11877,-0.074913,-0.044547,-0.032597,0.0023453,-0.0037386,0.019322,-0.033404,0.20677,-0.094981
-0.021546,-0.17793,-0.10813,-0.061813,-0.04331,0.55046,-0.16307,0.90594,0.02906,-0.035375,0.21241,-0.25747,0.0079418,0.10123,0.11142,-0.08278,-0.040037,-0.092998,0.020872,-0.051819,0.02134,-0.015063,0.20199,-0.075468
-0.028372,-0.17033,-0.092046,-0.060059,-0.05519,0.50795,-0.1633,0.81375,0.029892,-0.019844,0.21337,-0.23736,0.0063629,0.092885,0.10268,-0.086766,-0.036334,-0.15041,0.035386,-0.09528,0.02231,0.015093,0.19446,-0.052655
-0.033883,-0.16277,-0.079778,-0.059024,-0.072592,0.43986,-0.16626,0.70395,0.028295,0.011936,0.21434,-0.20837,-0.00038043,0.080614,0.091557,-0.090339,-0.034941,-0.18331,0.046844,-0.12108,0.024217,0.062144,0.18753,-0.018126
-0.034027,-0.15558,-0.071519,-0.059866,-0.098277,0.35618,-0.17156,0.57877,0.028626,0.057976,0.21581,-0.1747,-0.015904,0.05878,0.078626,-0.099541,-0.035054,-0.18003,0.058541,-0.12276,0.024996,0.12535,0.18432,0.032106
-0.028824,-0.14864,-0.065366,-0.061316,-0.13029,0.26703,-0.17707,0.435,0.032682,0.10586,0.21683,-0.14103,-0.037441,0.025256,0.065625,-0.12176,-0.034285,-0.14641,0.07244,-0.10599,0.019673,0.19381,0.18559,0.092368
-0.022376,-0.1417,-0.059334,-0.06122,-0.16036,0.17933,-0.1812,0.28067,0.03844,0.13888,0.21565,-0.11196,-0.058159,-0.018379,0.054396,-0.16397,-0.03073,-0.10354,0.08666,-0.087673,0.0048505,0.24854,0.18831,0.14842
-0.019436,-0.13467,-0.052962,-0.059005,-0.17705,0.095938,-0.18482,0.13821,0.042444,0.14696,0.21127,-0.091645,-0.073073,-0.068914,0.046024,-0.23089,-0.024605,-0.076637,0.09637,-0.087833,-0.017543,0.27131,0.18669,0.18495
-0.02153,-0.12809,-0.047246,-0.05677,-0.17191,0.018584,-0.19044,0.030774,0.043232,0.13367,0.20448,-0.082488,-0.083232,-0.12323,0.040728,-0.32297,-0.018097,-0.082026,0.097399,-0.11879,-0.040779,0.25503,0.17544,0.19452
-0.025959,-0.12325,-0.043207,-0.057965,-0.14419,-0.0476,-0.19913,-0.03471,0.04244,0.11334,0.19743,-0.083408,-0.094362,-0.17806,0.038245,-0.43406,-0.013579,-0.12012,0.089589,-0.17837,-0.057834,0.20925,0.15368,0.18203
-0.02843,-0.12177,-0.040624,-0.064801,-0.10136,-0.092568,-0.20816,-0.070725,0.042744,0.10039,0.19184,-0.089153,-0.1112,-0.22895,0.038087,-0.55021,-0.011692,-0.17759,0.077176,-0.25165,-0.065949,0.15679,0.12653,0.16151
-0.026892,-0.12474,-0.038097,-0.076618,-0.055471,-0.10594,-0.2121,-0.095027,0.044991,0.099634,0.1875,-0.092186,-0.13267,-0.27078,0.039398,-0.65188,-0.010854,-0.23577,0.066054,-0.31966,-0.067379,0.12334,0.10279,0.14772
-0.023202,-0.13159,-0.034142,-0.090485,-0.018281,-0.085615,-0.20691,-0.11226,0.047445,0.10523,0.1824,-0.086505,-0.1524,-0.30068,0.04068,-0.72101,-0.0085473,-0.27918,0.060322,-0.36877,-0.065988,0.12556,0.08997,0.14791
-0.021252,-0.13947,-0.028048,-0.10327,0.0023286,-0.043529,-0.19352,-0.10856,0.047778,0.10831,0.17454,-0.070685,-0.16396,-0.32079,0.039897,-0.75027,-0.0032972,-0.29946,0.060828,-0.39469,-0.06312,0.16437,0.089956,0.15901
-0.023303,-0.1437,-0.01971,-0.11325,0.0039426,-0.0023044,-0.17759,-0.064152,0.045555,0.10602,0.16371,-0.047677,-0.1663,-0.33796,0.035083,-0.74856,0.0042582,-0.29472,0.066339,-0.39959,-0.056645,0.22647,0.098425,0.17122
-0.027783,-0.13961,-0.0089379,-0.12008,-0.010359,0.017002,-0.1653,0.027532,0.042601,0.10389,0.15172,-0.021605,-0.1643,-0.35962,0.025166,-0.7376,0.011981,-0.26707,0.075613,-0.38655,-0.043927,0.29292,0.10823,0.17519
-0.030448,-0.12516,0.0046376,-0.12373,-0.033248,0.0075911,-0.15884,0.15067,0.04091,0.11015,0.14084,0.005546,-0.16424,-0.38868,0.010534,-0.73977,0.017939,-0.22142,0.088182,-0.35679,-0.025769,0.34899,0.11407,0.16786
-0.02789,-0.1028,0.020682,-0.12376,-0.055844,-0.020296,-0.15529,0.27463,0.040321,0.12754,0.13196,0.034368,-0.16822,-0.42173,-0.0069614,-0.76452,0.021766,-0.16559,0.10338,-0.31184,-0.0075,0.38946,0.11512,0.15334
-0.020424,-0.079011,0.037258,-0.12,-0.071424,-0.049647,-0.14964,0.37058,0.03846,0.15029,0.12432,0.0655,-0.17242,-0.45203,-0.024607,-0.80254,0.024633,-0.10995,0.11918,-0.25764,0.0039428,0.41643,0.11404,0.13937
-0.011971,-0.061056,0.051194,-0.1136,-0.078348,-0.071946,-0.13908,0.42364,0.033098,0.16853,0.11668,0.096922,-0.17062,-0.47494,-0.039911,-0.83255,0.02794,-0.065058,0.13256,-0.20582,0.004502,0.4328,0.11385,0.1325
-0.0070721,-0.052614,0.05992,-0.1071,-0.08017,-0.094294,-0.1248,0.43367,0.024658,0.17586,0.10877,0.124,-0.1598,-0.49112,-0.051801,-0.83592,0.031884,-0.038207,0.14144,-0.16974,-0.0046431,0.43726,0.11553,0.13564
-0.0074657,-0.051263,0.063435,-0.10303,-0.082649,-0.13181,-0.11039,0.4085,0.016373,0.17322,0.10121,0.14234,-0.14318,-0.50505,-0.061294,-0.80913,0.03508,-0.031047,0.14636,-0.15794,-0.018521,0.42555,0.11781,0.14893
-0.010899,-0.049971,0.06464,-0.102,-0.08982,-0.19186,-0.0987,0.35761,0.011831,0.16633,0.094362,0.15068,-0.12863,-0.5203,-0.070966,-0.76517,0.035554,-0.039913,0.15003,-0.16993,-0.032042,0.39663,0.11883,0.17165
-0.013004,-0.041939,0.067515,-0.10222,-0.10201,-0.26447,-0.09015,0.29069,0.012135,0.15966,0.087394,0.15098,-0.12371,-0.53607,-0.083167,-0.72394,0.03229,-0.058157,0.1549,-0.19727,-0.042807,0.35748,0.11754,0.20224
-0.010661,-0.025411,0.074456,-0.10094,-0.11685,-0.32805,-0.083403,0.21839,0.015176,0.15271,0.079063,0.14592,-0.13126,-0.54782,-0.09807,-0.69903,0.026104,-0.078584,0.16092,-0.22882,-0.051177,0.32106,0.11386,0.23609
-0.0042167,-0.0047856,0.084814,-0.096685,-0.13164,-0.36585,-0.07702,0.15121,0.017567,0.14162,0.069396,0.13653,-0.14793,-0.55127,-0.11316,-0.69042,0.019144,-0.094768,0.1655,-0.25589,-0.058301,0.29771,0.10785,0.26391
0.0030308,0.012878,0.095699,-0.090264,-0.14486,-0.37866,-0.070246,0.095514,0.01737,0.12389,0.060334,0.12262,-0.16628,-0.54586,-0.1249,-0.6874,0.01339,-0.10169,0.16574,-0.27394,-0.064259,0.28723,0.099253,0.27428
0.0074902,0.023173,0.10419,-0.083702,-0.15588,-0.38287,-0.06257,0.050405,0.015277,0.10171,0.054134,0.10523,-0.17883,-0.53497,-0.13146,-0.67836,0.0093357,-0.096777,0.161,-0.28126,-0.067856,0.27902,0.088188,0.2605
0.0078912,0.027253,0.10909,-0.078148,-0.16413,-0.39614,-0.05325,0.0087161,0.013436,0.08068,0.050851,0.088307,-0.18176,-0.52308,-0.13411,-0.65978,0.0058891,-0.081224,0.15337,-0.27713,-0.067847,0.26115,0.076137,0.22735
0.0058887,0.030164,0.11097,-0.072848,-0.16918,-0.42376,-0.041717,-0.038137,0.013245,0.065672,0.047575,0.077008,-0.17665,-0.51317,-0.13595,-0.63827,0.001589,-0.06022,0.14588,-0.26177,-0.064233,0.23114,0.065795,0.19161
0.004418,0.036364,0.11093,-0.066158,-0.17137,-0.45737,-0.028338,-0.095153,0.014122,0.057595,0.040731,0.07402,-0.16916,-0.50635,-0.13877,-0.62477,-0.00385,-0.040774,0.14004,-0.2377,-0.058498,0.19898,0.059438,0.17372
0.005333,0.046406,0.10954,-0.05755,-0.17175,-0.48575,-0.014276,-0.16202,0.014178,0.054146,0.029599,0.077375,-0.16546,-0.50352,-0.14099,-0.62583,-0.0089597,-0.028024,0.13499,-0.21021,-0.052774,0.17955,0.057046,0.18483
0.0082349,0.057431,0.10678,-0.048559,-0.17044,-0.50687,-0.00017551,-0.23488,0.012006,0.053478,0.01758,0.082347,-0.16841,-0.50642,-0.1387,-0.63835,-0.011442,-0.022693,0.12884,-0.18573,-0.048727,0.18098,0.056058,0.21785
0.011222,0.066491,0.10288,-0.041589,-0.16503,-0.52987,0.014954,-0.309,0.0079797,0.057049,0.0095409,0.085994,-0.17613,-0.51681,-0.12914,-0.65167,-0.0099027,-0.021869,0.12079,-0.16892,-0.046949,0.19889,0.053278,0.24975
0.01265,0.073244,0.098822,-0.037602,-0.15112,-0.56546,0.033073,-0.38006,0.0040287,0.068636,0.0073183,0.090007,-0.18389,-0.53472,-0.1136,-0.65512,-0.0049955,-0.022506,0.11199,-0.16103,-0.04702,0.22126,0.047405,0.25459
0.012316,0.079529,0.095827,-0.034906,-0.12558,-0.61376,0.054834,-0.44379,0.0021209,0.09012,0.0075382,0.098829,-0.18794,-0.5579,-0.097132,-0.64551,0.00096948,-0.024533,0.10447,-0.16055,-0.047946,0.23866,0.039891,0.21912
0.011186,0.086589,0.094328,-0.03034,-0.090183,-0.6605,0.077816,-0.49585,0.0026545,0.11782,0.0039646,0.11439,-0.18801,-0.58315,-0.08512,-0.62917,0.0056859,-0.030698,0.099369,-0.16501,-0.048628,0.24997,0.033331,0.15052
0.010164,0.093052,0.093361,-0.021982,-0.052008,-0.68523,0.097343,-0.53311,0.0039596,0.14291,-0.0075258,0.13233,-0.18643,-0.6078,-0.079547,-0.61722,0.008483,-0.043226,0.096021,-0.17192,-0.048241,0.25862,0.02892,0.070994
0.0091906,0.095896,0.091076,-0.011041,-0.019626,-0.67526,0.10963,-0.55586,0.0033575,0.15612,-0.025674,0.14362,-0.18485,-0.62959,-0.078138,-0.61775,0.010668,-0.060409,0.092767,-0.17824,-0.046506,0.26416,0.025468,0.0035268
0.0074988,0.093467,0.086042,-0.0012037,0.0024822,-0.63473,0.11469,-0.56855,-0.0008397,0.15317,-0.044971,0.14095,-0.18154,-0.64492,-0.076902,-0.63026,0.014346,-0.076465,0.088497,-0.17966,-0.04378,0.25883,0.020897,-0.041228
0.0047154,0.087455,0.078372,0.0041009,0.016815,-0.5823,0.11634,-0.57762,-0.0077527,0.13688,-0.059862,0.12466,-0.17216,-0.64796,-0.073804,-0.64556,0.020683,-0.085194,0.083398,-0.17143,-0.040795,0.23372,0.014646,-0.068138
0.0016756,0.081696,0.069785,0.0043099,0.030701,-0.5395,0.11946,-0.58741,-0.01408,0.11475,-0.068196,0.1032,-0.15344,-0.63249,-0.070412,-0.65026,0.028968,-0.084569,0.078319,-0.15057,-0.038135,0.18875,0.0083985,-0.090123
7.9914e-005,0.078842,0.062522,0.0021107,0.050791,-0.5179,0.12681,-0.59703,-0.016199,0.094048,-0.071335,0.087138,-0.1267,-0.59575,-0.070321,-0.63252,0.037152,-0.078494,0.073535,-0.11751,-0.035856,0.13589,0.0042206,-0.11713
0.0011967,0.078132,0.057837,0.001406,0.078451,-0.51347,0.13817,-0.60085,-0.012951,0.078097,-0.071727,0.08146,-0.097968,-0.54084,-0.075895,-0.58614,0.043346,-0.074247,0.068222,-0.075365,-0.033681,0.090603,0.0018269,-0.15044
0.004716,0.076443,0.055173,0.0046076,0.10921,-0.51109,0.15189,-0.59287,-0.0069651,0.065595,-0.070768,0.081857,-0.074434,-0.47483,-0.086143,-0.51195,0.047068,-0.077518,0.061122,-0.027604,-0.031687,0.058048,-0.002239,-0.18572
0.0087871,0.071617,0.052661,0.011383,0.13595,-0.49565,0.16669,-0.57195,-0.0032082,0.052512,-0.068678,0.078059,-0.059987,-0.40335,-0.09729,-0.41701,0.049367,-0.088574,0.051715,0.023892,-0.030818,0.026737,-0.012436,-0.22064
0.011285,0.064828,0.048611,0.019571,0.15269,-0.46239,0.18176,-0.54412,-0.0054854,0.034664,-0.065568,0.061468,-0.053102,-0.32576,-0.10523,-0.31222,0.051917,-0.10182,0.040791,0.078521,-0.032494,-0.02359,-0.030732,-0.25909
0.011311,0.059692,0.042839,0.027135,0.1564,-0.4202,0.19539,-0.5202,-0.013475,0.0096656,-0.061729,0.031306,-0.0482,-0.23522,-0.10763,-0.20877,0.055935,-0.1084,0.030001,0.13519,-0.0374,-0.10534,-0.054625,-0.30772
0.009727,0.058992,0.036714,0.033344,0.14635,-0.38609,0.20437,-0.51034,-0.022685,-0.021962,-0.05665,-0.0050885,-0.038824,-0.12417,-0.10412,-0.11434,0.061691,-0.099995,0.020923,0.1912,-0.04442,-0.21105,-0.078096,-0.3674
0.0083075,0.062099,0.031844,0.038375,0.12318,-0.37476,0.20552,-0.51917,-0.027508,-0.056477,-0.048312,-0.037476,-0.020077,0.0085945,-0.09506,-0.030755,0.068687,-0.072128,0.014437,0.24293,-0.050782,-0.31564,-0.094488,-0.42739
0.0081718,0.065429,0.028548,0.04213,0.089218,-0.38987,0.19836,-0.54472,-0.025045,-0.087743,-0.034444,-0.059093,0.010698,0.15427,-0.080645,0.045138,0.076103,-0.026362,0.010679,0.28722,-0.053516,-0.39079,-0.099162,-0.46774
0.0087359,0.065375,0.025535,0.043731,0.049677,-0.42257,0.18593,-0.58104,-0.01679,-0.10951,-0.015289,-0.069594,0.054088,0.29643,-0.061576,0.11731,0.083195,0.02913,0.0092807,0.32149,-0.05117,-0.42046,-0.090666,-0.46929
0.008024,0.061003,0.021161,0.042297,0.012831,-0.45777,0.17259,-0.62213,-0.007104,-0.1185,0.0047824,-0.073237,0.1083,0.41738,-0.040581,0.18534,0.089671,0.081551,0.0095193,0.34215,-0.044483,-0.40699,-0.070648,-0.42459
0.0041888,0.054258,0.015143,0.038182,-0.012313,-0.48361,0.16029,-0.66422,-4.4884e-005,-0.11642,0.019051,-0.074705,0.16839,0.50414,-0.022711,0.24179,0.096108,0.1184,0.010402,0.34351,-0.035625,-0.3662,-0.04324,-0.3423
-0.0028123,0.047856,0.0090724,0.033287,-0.019825,-0.49721,0.14692,-0.7052,0.0028153,-0.10916,0.022964,-0.076061,0.22639,0.55105,-0.01309,0.27484,0.10408,0.13353,0.010929,0.3199,-0.026814,-0.3174,-0.013987,-0.24279
-0.010635,0.042965,0.0051477,0.029994,-0.0094321,-0.50272,0.12883,-0.74228,0.0021788,-0.10316,0.017837,-0.076482,0.27354,0.55974,-0.013194,0.27548,0.11552,0.13074,0.010559,0.27087,-0.019381,-0.27573,0.011968,-0.14809
-0.015645,0.038696,0.0042283,0.029644,0.014142,-0.50348,0.10547,-0.77,-0.00071866,-0.10148,0.01038,-0.073857,0.30369,0.53879,-0.018668,0.24527,0.13131,0.1218,0.00954,0.20596,-0.013704,-0.24946,0.032023,-0.072504
-0.015124,0.033567,0.0050115,0.031926,0.044322,-0.49507,0.081883,-0.78036,-0.0053897,-0.10227,0.0079936,-0.066393,0.31574,0.50385,-0.021152,0.19905,0.15006,0.11985,0.0087241,0.14411,-0.0096068,-0.24008,0.047054,-0.018732
-0.0091504,0.02743,0.0050897,0.035633,0.075366,-0.46589,0.066255,-0.76564,-0.011804,-0.10101,0.013459,-0.053342,0.31338,0.47588,-0.013502,0.15954,0.1684,0.13272,0.008837,0.10608,-0.006687,-0.24311,0.05991,0.019555
-0.00077856,0.022155,0.0028881,0.039874,0.10229,-0.4066,0.063708,-0.72313,-0.01923,-0.0945,0.023276,-0.035256,0.30227,0.47446,0.0052138,0.14603,0.18285,0.16052,0.0096622,0.10334,-0.0045248,-0.24952,0.072153,0.051448
0.0057404,0.020481,-0.0012888,0.044572,0.11884,-0.32158,0.071382,-0.65947,-0.025834,-0.083416,0.030931,-0.014228,0.28711,0.50767,0.028872,0.16421,0.19233,0.19851,0.0097499,0.13064,-0.0029826,-0.24967,0.08167,0.083031
0.0075374,0.023948,-0.005918,0.0499,0.11688,-0.23267,0.079111,-0.59131,-0.029808,-0.071415,0.032262,0.0063066,0.27067,0.56504,0.048532,0.20424,0.19896,0.24113,0.0070362,0.1678,-0.0025711,-0.23895,0.083547,0.1154
0.0047217,0.031449,-0.0097842,0.055408,0.089658,-0.16963,0.075739,-0.53981,-0.031109,-0.0618,0.028491,0.022939,0.25499,0.62093,0.058648,0.24869,0.20641,0.28354,0.00021107,0.19079,-0.0044742,-0.2215,0.074008,0.14707
-9.1784e-005,0.039445,-0.012838,0.059756,0.037441,-0.15204,0.05651,-0.5202,-0.032019,-0.054667,0.024694,0.034527,0.24309,0.64861,0.060559,0.28406,0.21687,0.32018,-0.009932,0.18525,-0.0099504,-0.20813,0.054317,0.1785
-0.0038647,0.043753,-0.015755,0.061262,-0.029436,-0.17555,0.026004,-0.53213,-0.035633,-0.046806,0.02537,0.043562,0.23909,0.63636,0.060746,0.30658,0.22915,0.34395,-0.020206,0.15389,-0.019395,-0.20862,0.031244,0.21495
-0.0052075,0.041772,-0.018975,0.058785,-0.094058,-0.21398,-0.0054431,-0.5582,-0.043277,-0.034242,0.030913,0.054862,0.24629,0.5932,0.065476,0.31742,0.23967,0.34888,-0.026402,0.11308,-0.03173,-0.22367,0.01333,0.26507
-0.0049438,0.033762,-0.022363,0.052398,-0.14183,-0.23684,-0.028897,-0.57354,-0.053049,-0.015367,0.037633,0.071757,0.26428,0.5387,0.076156,0.31212,0.24537,0.33481,-0.025799,0.081365,-0.044569,-0.24285,0.0056556,0.33617
-0.0049195,0.022555,-0.025696,0.043672,-0.1685,-0.22956,-0.042043,-0.56092,-0.060923,0.0074791,0.040771,0.092419,0.28749,0.48447,0.088788,0.27511,0.24606,0.30887,-0.019142,0.068192,-0.055038,-0.25064,0.0070102,0.42928
-0.0061798,0.012067,-0.029059,0.035473,-0.1809,-0.20066,-0.04891,-0.52073,-0.06374,0.028745,0.037803,0.10964,0.30641,0.42278,0.09744,0.18689,0.24381,0.28086,-0.010488,0.069981,-0.060858,-0.2364,0.011323,0.53785
-0.0080582,0.0056061,-0.032422,0.031034,-0.18966,-0.1707,-0.055074,-0.46805,-0.061656,0.042135,0.029722,0.11506,0.31141,0.33323,0.098606,0.040298,0.24017,0.25529,-0.0046989,0.074894,-0.061337,-0.201,0.011843,0.6504
-0.0089141,0.0047241,-0.034842,0.032314,-0.19986,-0.15327,-0.062716,-0.41934,-0.057922,0.043622,0.020044,0.10527,0.29718,0.20373,0.093132,-0.14695,0.23392,0.22738,-0.0043224,0.071202,-0.058021,-0.15506,0.0047958,0.75491
-0.0078403,0.0088722,-0.034538,0.038447,-0.20744,-0.14452,-0.069445,-0.38006,-0.056029,0.033814,0.01287,0.085251,0.2653,0.048953,0.084677,-0.33529,0.22168,0.18754,-0.0082033,0.05293,-0.054547,-0.11065,-0.009734,0.84149
-0.0057565,0.015803,-0.030296,0.045703,-0.2046,-0.12983,-0.071257,-0.34317,-0.056612,0.018572,0.011262,0.066157,0.22319,-0.090595,0.076384,-0.48228,0.20105,0.13146,-0.01283,0.020328,-0.055246,-0.072855,-0.029364,0.90219
-0.0047273,0.022661,-0.023054,0.049663,-0.18914,-0.10042,-0.066478,-0.29908,-0.056887,0.0071484,0.016254,0.058718,0.17964,-0.17102,0.068316,-0.56489,0.17335,0.067138,-0.01515,-0.022482,-0.062677,-0.037722,-0.051485,0.92975
-0.0059139,0.027455,-0.01589,0.048404,-0.16969,-0.063907,-0.05712,-0.24712,-0.053298,0.0081907,0.026269,0.066803,0.13989,-0.17358,0.057182,-0.58902,0.14314,0.01203,-0.014479,-0.069131,-0.075411,0.0026577,-0.074234,0.91808
-0.0080202,0.030108,-0.011995,0.044087,-0.16159,-0.038934,-0.046844,-0.19769,-0.045208,0.025449,0.037154,0.085745,0.10362,-0.11735,0.038169,-0.57918,0.1146,-0.018221,-0.012164,-0.11119,-0.087915,0.052683,-0.096249,0.86541
-0.0079746,0.032137,-0.012242,0.041241,-0.17677,-0.03936,-0.037941,-0.16338,-0.036245,0.055742,0.0434,0.10637,0.06768,-0.045809,0.0076177,-0.55645,0.087843,-0.020847,-0.0098,-0.13921,-0.093354,0.10984,-0.11604,0.77826
-0.0036648,0.034921,-0.014626,0.042856,-0.21583,-0.063219,-0.030469,-0.14763,-0.031772,0.090634,0.040614,0.12146,0.03137,0.0029499,-0.034788,-0.52144,0.058702,-0.0080428,-0.0079137,-0.14641,-0.08788,0.16753,-0.13162,0.6725
0.003607,0.03794,-0.016163,0.047673,-0.26882,-0.097041,-0.02428,-0.14197,-0.034302,0.12093,0.028065,0.12983,-0.00019904,0.019053,-0.085288,-0.45485,0.022268,0.001339,-0.0062221,-0.13324,-0.07341,0.22048,-0.14055,0.56926
0.0094947,0.038824,-0.015536,0.051267,-0.32357,-0.13094,-0.021559,-0.13479,-0.040813,0.14116,0.0095034,0.13543,-0.018303,0.019552,-0.13722,-0.33489,-0.022633,-0.0061955,-0.0047647,-0.10863,-0.056491,0.26719,-0.14024,0.48661
0.010009,0.035623,-0.014006,0.050111,-0.37421,-0.16895,-0.026713,-0.12354,-0.044631,0.15132,-0.0086623,0.14299,-0.017168,0.02563,-0.18375,-0.15801,-0.071917,-0.031971,-0.0044206,-0.085439,-0.043706,0.3071,-0.12876,0.43159
0.0051859,0.029448,-0.01381,0.044947,-0.42287,-0.22311,-0.042932,-0.11869,-0.040741,0.15521,-0.020917,0.15391,0.00040767,0.038969,-0.22076,0.052889,-0.11883,-0.067425,-0.0061644,-0.072756,-0.036898,0.33633,-0.10614,0.39723
-0.00043555,0.024753,-0.015694,0.040274,-0.47368,-0.29543,-0.068109,-0.13496,-0.030258,0.15694,-0.025636,0.16538,0.023608,0.038373,-0.24806,0.25894,-0.15818,-0.10203,-0.0098983,-0.070862,-0.031963,0.3475,-0.075753,0.36717
-0.0013796,0.026341,-0.018005,0.040393,-0.52527,-0.36526,-0.093918,-0.17707,-0.020136,0.15799,-0.025559,0.17277,0.040642,1.1781e-005,-0.26772,0.42703,-0.18855,-0.12992,-0.014167,-0.073014,-0.022382,0.33509,-0.0443,0.32552
0.0040008,0.035236,-0.018183,0.045625,-0.5685,-0.39659,-0.10951,-0.23258,-0.018024,0.1567,-0.025529,0.17283,0.046842,-0.076464,-0.28077,0.54671,-0.21091,-0.15087,-0.017119,-0.0725,-0.0049373,0.30177,-0.019663,0.26623
0.01178,0.047062,-0.015154,0.052054,-0.59126,-0.36253,-0.10748,-0.27897,-0.026253,0.15004,-0.029151,0.16534,0.047054,-0.15992,-0.28505,0.62971,-0.22559,-0.16685,-0.017789,-0.068912,0.016802,0.2589,-0.0072071,0.19621
0.015496,0.054743,-0.010317,0.054815,-0.58573,-0.26788,-0.087871,-0.29946,-0.039743,0.13646,-0.036626,0.15253,0.050191,-0.20729,-0.27646,0.69278,-0.2311,-0.17843,-0.016498,-0.068294,0.034091,0.21908,-0.0067815,0.13033
0.011537,0.053654,-0.0062664,0.051855,-0.55243,-0.15007,-0.05777,-0.29433,-0.049439,0.11766,-0.045017,0.13737,0.060566,-0.19643,-0.25306,0.73731,-0.22593,-0.1842,-0.01411,-0.077201,0.038728,0.1862,-0.012738,0.081623
0.0022945,0.045037,-0.0045837,0.045068,-0.49844,-0.056115,-0.027094,-0.27818,-0.048355,0.098158,-0.050424,0.1219,0.073584,-0.14567,-0.21849,0.74264,-0.21125,-0.18288,-0.010996,-0.095912,0.028711,0.15137,-0.017366,0.053219
-0.0056492,0.034817,-0.0048003,0.038394,-0.43287,-0.012951,-0.0038216,-0.26536,-0.03542,0.082665,-0.050305,0.10628,0.079587,-0.10284,-0.18123,0.67973,-0.19149,-0.17514,-0.006785,-0.11677,0.009649,0.098684,-0.015589,0.036885
-0.0067724,0.02881,-0.0053458,0.034942,-0.36346,-0.01394,0.0087402,-0.25655,-0.014436,0.072953,-0.044329,0.08873,0.07246,-0.11137,-0.14955,0.53548,-0.17165,-0.16359,-0.0011052,-0.12912,-0.0090765,0.016601,-0.0075977,0.018545
-0.00091514,0.028342,-0.005341,0.035366,-0.2963,-0.030083,0.011939,-0.23833,0.01032,0.066329,-0.033518,0.066123,0.055202,-0.18021,-0.12621,0.32876,-0.15384,-0.15122,0.0054431,-0.12684,-0.020513,-0.09359,0.0024041,-0.013549
0.0068577,0.029799,-0.0053906,0.038073,-0.23666,-0.034144,0.0099674,-0.19615,0.037684,0.057031,-0.018862,0.03556,0.03721,-0.28157,-0.10756,0.10492,-0.13642,-0.14033,0.011112,-0.11225,-0.024146,-0.21797,0.010074,-0.063325
0.010488,0.028105,-0.0066821,0.040312,-0.18886,-0.017084,0.007492,-0.12923,0.069289,0.039884,-0.00093242,-0.0036696,0.025428,-0.37775,-0.088188,-0.087291,-0.11658,-0.13241,0.013939,-0.093595,-0.02494,-0.33726,0.013984,-0.12672
0.0075563,0.020808,-0.0094226,0.039252,-0.15448,0.014306,0.0075558,-0.053661,0.10584,0.013938,0.019069,-0.048659,0.017214,-0.45391,-0.067191,-0.21798,-0.093912,-0.12855,0.013116,-0.078416,-0.028488,-0.43499,0.015277,-0.19554
0.00056747,0.0093184,-0.012231,0.032898,-0.13104,0.051942,0.010442,0.0095248,0.1435,-0.016351,0.037968,-0.093167,0.0016151,-0.52849,-0.050339,-0.2809,-0.071473,-0.12923,0.0096623,-0.068668,-0.036173,-0.50155,0.014661,-0.26181
-0.0057896,-0.0031754,-0.013056,0.021053,-0.11266,0.097139,0.014122,0.051075,0.17389,-0.043343,0.050744,-0.12993,-0.031477,-0.63173,-0.045705,-0.27983,-0.053264,-0.13368,0.0057935,-0.061238,-0.044018,-0.53413,0.01017,-0.32019
-0.0086365,-0.014516,-0.010707,0.0059829,-0.09247,0.15781,0.016268,0.080375,0.1882,-0.060519,0.052811,-0.15402,-0.081767,-0.7699,-0.056139,-0.2121,-0.040765,-0.13994,0.0034096,-0.052859,-0.045768,-0.5352,-0.0014009,-0.36802
-0.008644,-0.024221,-0.005586,-0.0079789,-0.06497,0.23702,0.016534,0.1163,0.18271,-0.066153,0.043125,-0.16528,-0.13658,-0.90567,-0.07496,-0.066283,-0.031945,-0.14597,0.0028822,-0.044502,-0.037493,-0.51167,-0.02025,-0.40468
-0.0083643,-0.031761,0.00084375,-0.01624,-0.027121,0.32584,0.017192,0.17003,0.16147,-0.064052,0.025631,-0.16837,-0.178,-0.97294,-0.088857,0.16334,-0.023689,-0.15089,0.0031341,-0.04105,-0.020057,-0.47369,-0.040686,-0.4315
-0.0091924,-0.034975,0.0071427,-0.016415,0.021563,0.408,0.021201,0.23465,0.13408,-0.060988,0.00746,-0.17009,-0.19319,-0.91684,-0.086072,0.45988,-0.015127,-0.15472,0.0029272,-0.046448,0.0021033,-0.43164,-0.053288,-0.45217
-0.010034,-0.031049,0.012489,-0.0099228,0.078825,0.47172,0.029058,0.29009,0.11011,-0.062598,-0.0052153,-0.17531,-0.17958,-0.72993,-0.063693,0.7816,-0.0084632,-0.15676,0.0022212,-0.058653,0.024365,-0.3921,-0.051362,-0.47222
-0.0088179,-0.019594,0.016502,-0.0014674,0.13931,0.51705,0.037177,0.31869,0.093986,-0.070444,-0.01075,-0.18417,-0.14222,-0.45895,-0.028734,1.0788,-0.0064877,-0.15406,0.0023726,-0.06893,0.044473,-0.35582,-0.036525,-0.49684
-0.0050924,-0.0046893,0.018885,0.0035584,0.19534,0.5524,0.039612,0.31799,0.083939,-0.081949,-0.012345,-0.19236,-0.086965,-0.17828,0.0072506,1.3172,-0.0092814,-0.14185,0.004988,-0.066352,0.062495,-0.31984,-0.018286,-0.52811
-0.00091684,0.0067661,0.019481,0.0023505,0.23971,0.58473,0.032101,0.30124,0.075169,-0.092869,-0.014958,-0.19456,-0.016393,0.050175,0.035443,1.4899,-0.013479,-0.11628,0.010509,-0.044162,0.078958,-0.28241,-0.0073695,-0.56365
0.00091553,0.0096688,0.018645,-0.0034151,0.26965,0.61354,0.015314,0.28686,0.064464,-0.10029,-0.021301,-0.18878,0.068686,0.20494,0.053749,1.6113,-0.014925,-0.077521,0.017874,-0.0034964,0.093421,-0.24659,-0.0080194,-0.59853
-0.00045458,0.0044417,0.017287,-0.0085318,0.28889,0.63409,-0.0053608,0.28681,0.052762,-0.10405,-0.030069,-0.17829,0.16516,0.30682,0.065741,1.7007,-0.012247,-0.030685,0.025536,0.047515,0.10489,-0.21933,-0.015559,-0.62916
-0.0031074,-0.0035593,0.016242,-0.0078098,0.3056,0.64507,-0.023284,0.30232,0.044171,-0.10596,-0.037509,-0.16946,0.26598,0.39938,0.076866,1.7689,-0.0079713,0.016147,0.032721,0.097846,0.11339,-0.20669,-0.020985,-0.65575
-0.0042192,-0.0086653,0.015476,-9.0514e-005,0.32697,0.65177,-0.034524,0.32781,0.042754,-0.10786,-0.040658,-0.1671,0.36261,0.52335,0.091378,1.8169,-0.006162,0.055677,0.039562,0.13797,0.1207,-0.20911,-0.018387,-0.68056
-0.0028408,-0.0095734,0.013977,0.01014,0.35406,0.66082,-0.03935,0.35711,0.049541,-0.11026,-0.039379,-0.171,0.44835,0.69799,0.11138,1.8415,-0.0087706,0.084354,0.045992,0.16269,0.12913,-0.22055,-0.0088977,-0.7028
-0.00085267,-0.0099971,0.010691,0.015128,0.38086,0.67197,-0.04062,0.38633,0.06156,-0.11242,-0.035734,-0.17682,0.51872,0.91403,0.13684,1.841,-0.014013,0.10287,0.050784,0.17215,0.13912,-0.23175,0.0016024,-0.71486
-0.0011355,-0.014807,0.0057883,0.009025,0.39858,0.67605,-0.040952,0.41306,0.073019,-0.11342,-0.031757,-0.18028,0.56885,1.1373,0.16513,1.8153,-0.018115,0.11432,0.052198,0.1711,0.14785,-0.23533,0.0081656,-0.7048
-0.0046731,-0.025184,0.0011597,-0.0076488,0.40195,0.66212,-0.041119,0.43487,0.077846,-0.11303,-0.028012,-0.18101,0.59219,1.3213,0.19052,1.7646,-0.01871,0.12161,0.049942,0.16636,0.15035,-0.22935,0.010407,-0.66501
-0.0092969,-0.037057,-0.00044639,-0.027694,0.39306,0.62791,-0.04059,0.44986,0.072489,-0.11172,-0.024144,-0.18226,0.58366,1.427,0.20545,1.6887,-0.016832,0.12593,0.046411,0.16274,0.1426,-0.21818,0.011206,-0.60135
-0.011223,-0.044068,0.0028979,-0.041642,0.37993,0.5837,-0.03906,0.45848,0.057909,-0.11003,-0.02041,-0.18671,0.54546,1.4434,0.20438,1.5905,-0.01586,0.12701,0.045471,0.15934,0.12429,-0.21119,0.012529,-0.53526
-0.0080141,-0.042313,0.011021,-0.043893,0.37108,0.54595,-0.037249,0.46416,0.039677,-0.10797,-0.018156,-0.19231,0.48922,1.3964,0.18801,1.4772,-0.018479,0.12438,0.04938,0.14958,0.099414,-0.22012,0.012924,-0.49585
-0.00044227,-0.032863,0.021704,-0.036134,0.37,0.52608,-0.036298,0.47191,0.025595,-0.10477,-0.018524,-0.19214,0.43061,1.3374,0.1642,1.3588,-0.024328,0.1186,0.05665,0.12606,0.074462,-0.25532,0.009183,-0.50639
0.0081289,-0.020288,0.032015,-0.025569,0.37313,0.52372,-0.036611,0.48603,0.021619,-0.09901,-0.020777,-0.17877,0.3796,1.3134,0.14398,1.2429,-0.030182,0.11155,0.063123,0.087929,0.05577,-0.32082,0.00033239,-0.57364
0.014126,-0.0089517,0.039962,-0.019448,0.37235,0.52915,-0.03744,0.50889,0.028303,-0.089128,-0.022312,-0.14975,0.33463,1.3379,0.13485,1.1319,-0.032326,0.10583,0.065552,0.045084,0.047493,-0.40989,-0.010233,-0.68557
0.015944,-0.00040478,0.04534,-0.020097,0.35975,0.53154,-0.037667,0.54067,0.040202,-0.074322,-0.020664,-0.10974,0.28646,1.3829,0.13655,1.0248,-0.029069,0.10402,0.064385,0.014953,0.050744,-0.5041,-0.016783,-0.81706
0.014471,0.0063229,0.049283,-0.024032,0.33152,0.52519,-0.036977,0.57887,0.048966,-0.055693,-0.015642,-0.067948,0.22861,1.4025,0.14261,0.92241,-0.021578,0.108,0.063062,0.012817,0.06349,-0.57865,-0.015678,-0.93842
0.01196,0.012532,0.052973,-0.025382,0.28931,0.50963,-0.036274,0.61714,0.048246,-0.036634,-0.00934,-0.033156,0.16495,1.3701,0.14629,0.83104,-0.012737,0.11832,0.064487,0.041932,0.080973,-0.61252,-0.0081013,-1.0228
0.010341,0.018225,0.056542,-0.020633,0.23923,0.48539,-0.036935,0.64521,0.037097,-0.021513,-0.0038641,-0.0098813,0.10716,1.3021,0.14584,0.76142,-0.0052765,0.13347,0.068177,0.090539,0.096985,-0.59804,0.0013663,-1.0517
0.010124,0.022465,0.05897,-0.011096,0.1897,0.45116,-0.039619,0.65183,0.019605,-0.012844,0.00098663,0.0025334,0.064277,1.2487,0.14464,0.72217,-0.00059851,0.1496,0.070858,0.13821,0.10617,-0.543,0.0088923,-1.0204
0.010425,0.02491,0.059002,-0.0016139,0.149,0.40551,-0.043709,0.63046,0.0013291,-0.0088141,0.0076589,0.0085179,0.034009,1.2587,0.14628,0.71277,0.0012231,0.1615,0.069792,0.16735,0.1065,-0.4636,0.014417,-0.94015
0.0098843,0.026628,0.056308,0.0030993,0.1226,0.35082,-0.047828,0.58385,-0.014481,-0.0035169,0.018262,0.014292,0.0039171,1.3441,0.14931,0.72028,0.00082253,0.16499,0.065368,0.17224,0.10026,-0.37304,0.020953,-0.83554
0.0078335,0.029217,0.051957,0.0016679,0.1108,0.29463,-0.050867,0.52355,-0.027966,0.009493,0.031875,0.026209,-0.038695,1.4719,0.14644,0.72213,-0.00092277,0.15952,0.06035,0.1599,0.092659,-0.27488,0.031117,-0.73359
0.0049224,0.033175,0.047859,-0.003259,0.10787,0.24587,-0.052599,0.46357,-0.040551,0.032565,0.04443,0.049223,-0.097214,1.5869,0.12922,0.6937,-0.0029986,0.14905,0.056701,0.14332,0.088807,-0.1662,0.044259,-0.64989
0.0027535,0.03733,0.045579,-0.006941,0.1044,0.20876,-0.053423,0.41277,-0.05189,0.061859,0.051513,0.085291,-0.16457,1.6442,0.094455,0.61673,-0.0043495,0.13971,0.053343,0.13227,0.091289,-0.047692,0.056739,-0.58106
0.0026916,0.040062,0.045397,-0.0055581,0.092358,0.17978,-0.053671,0.37153,-0.058785,0.08978,0.051788,0.13228,-0.23021,1.6298,0.047119,0.48454,-0.0042372,0.13577,0.047133,0.12815,0.09975,0.068704,0.064847,-0.51053
0.0047092,0.041161,0.046218,0.0016478,0.069943,0.15072,-0.053245,0.33524,-0.057168,0.11032,0.048139,0.18433,-0.28755,1.5557,-0.0023144,0.30243,-0.0026435,0.13642,0.035994,0.12531,0.11225,0.16194,0.067539,-0.42447
0.007252,0.042354,0.04631,0.012253,0.04262,0.11513,-0.051923,0.30065,-0.045439,0.12319,0.045619,0.23393,-0.33506,1.4415,-0.043907,0.085011,-0.00029012,0.13604,0.020995,0.11654,0.12667,0.21271,0.066664,-0.32589
0.0083719,0.045749,0.044377,0.022383,0.018981,0.072606,-0.049922,0.26938,-0.026279,0.13334,0.047944,0.27453,-0.37135,1.3005,-0.073017,-0.14625,0.0017866,0.12772,0.0054038,0.098252,0.14087,0.21453,0.064798,-0.23497
0.007286,0.051568,0.040314,0.029062,0.0044473,0.027382,-0.04805,0.24543,-0.0053261,0.14643,0.055254,0.30245,-0.39095,1.1402,-0.090764,-0.36374,0.0026802,0.1075,-0.0081606,0.072008,0.15191,0.17622,0.062902,-0.17451
0.0050689,0.057425,0.035275,0.031728,-0.0021407,-0.016711,-0.047181,0.23001,0.012313,0.16373,0.064629,0.31727,-0.38633,0.97039,-0.10078,-0.53541,0.0017076,0.076602,-0.019581,0.042596,0.15574,0.11444,0.05983,-0.1524
0.0038786,0.060101,0.031036,0.032063,-0.0061545,-0.059475,-0.04751,0.21949,0.025108,0.18078,0.072552,0.32097,-0.35483,0.80543,-0.10541,-0.63216,-0.0016598,0.040575,-0.030398,0.015169,0.1484,0.042809,0.053879,-0.15562
0.0053625,0.058317,0.028985,0.032414,-0.011031,-0.10248,-0.048338,0.209,0.035652,0.19047,0.077228,0.31674,-0.30395,0.65555,-0.1043,-0.64103,-0.0075151,0.0067964,-0.041325,-0.0063628,0.12812,-0.033691,0.04477,-0.16101
0.0095263,0.053858,0.02927,0.033935,-0.013713,-0.14404,-0.048647,0.19837,0.048621,0.18793,0.079113,0.30769,-0.24926,0.51447,-0.095847,-0.57714,-0.014838,-0.017946,-0.050653,-0.019365,0.096736,-0.11547,0.034389,-0.15343
0.01481,0.049803,0.030633,0.035728,-0.0058465,-0.17641,-0.047968,0.19409,0.067711,0.17321,0.079613,0.2954,-0.20626,0.35802,-0.07984,-0.48262,-0.021165,-0.028979,-0.055031,-0.022161,0.059026,-0.20043,0.025849,-0.13549
0.019045,0.047416,0.031127,0.035561,0.019925,-0.18883,-0.046689,0.20468,0.093393,0.14969,0.079277,0.27871,-0.18217,0.15914,-0.058896,-0.40807,-0.023416,-0.024766,-0.051852,-0.014403,0.020419,-0.27892,0.021802,-0.12063
0.020442,0.044715,0.029337,0.031671,0.063459,-0.17456,-0.045407,0.23306,0.12248,0.12027,0.076883,0.25347,-0.1742,-0.090657,-0.037716,-0.38589,-0.019693,-0.0077048,-0.041192,0.0020317,-0.01551,-0.3361,0.023275,-0.11627
0.018133,0.038334,0.025296,0.024401,0.11546,-0.13653,-0.043828,0.27282,0.14948,0.084701,0.069965,0.21438,-0.17443,-0.3705,-0.020897,-0.41467,-0.010718,0.015939,-0.025924,0.022709,-0.048079,-0.36003,0.029608,-0.11264
0.012405,0.027109,0.020408,0.016428,0.16187,-0.086878,-0.040254,0.31176,0.16914,0.040534,0.056174,0.15831,-0.17686,-0.63967,-0.010965,-0.46787,0.00035738,0.037875,-0.010214,0.041641,-0.078639,-0.34893,0.039149,-0.087801
0.0048127,0.013947,0.016383,0.011282,0.19093,-0.040505,-0.032326,0.33984,0.17907,-0.013283,0.034457,0.08757,-0.18073,-0.85985,-0.0078428,-0.52041,0.0097108,0.051115,0.0023247,0.053369,-0.1087,-0.31196,0.049977,-0.02511
-0.0020663,0.0039478,0.013984,0.011104,0.19817,-0.0072683,-0.018668,0.35469,0.18125,-0.073168,0.0054835,0.010605,-0.1884,-1.012,-0.0097538,-0.57041,0.014735,0.052869,0.0098125,0.054956,-0.13846,-0.26306,0.060098,0.071445
-0.0056202,0.00025059,0.012558,0.015235,0.18655,0.012045,-0.000208,0.36068,0.18132,-0.13051,-0.028521,-0.060613,-0.20061,-1.095,-0.014517,-0.63572,0.014722,0.044896,0.012326,0.046765,-0.16674,-0.21228,0.06718,0.17704
-0.0046968,0.0013796,0.010663,0.020767,0.16291,0.023807,0.020008,0.3632,0.18571,-0.17413,-0.06409,-0.11511,-0.21383,-1.1116,-0.020125,-0.72698,0.010329,0.031066,0.011476,0.031678,-0.19185,-0.16053,0.068375,0.26153
-0.00058366,0.0026083,0.0072348,0.02469,0.13369,0.036039,0.038564,0.36397,0.1982,-0.19368,-0.096838,-0.14654,-0.22204,-1.0573,-0.024362,-0.82166,0.0029145,0.014237,0.0096504,0.013424,-0.21269,-0.10045,0.06083,0.3093
0.0035504,0.00014229,0.0023172,0.025974,0.10269,0.05384,0.05371,0.36127,0.21837,-0.18233,-0.12215,-0.1541,-0.22111,-0.92734,-0.024325,-0.86581,-0.0055219,-0.0047877,0.0091035,-0.0048238,-0.22876,-0.021443,0.043011,0.3294
0.0046706,-0.0057263,-0.0031513,0.025901,0.070996,0.078902,0.066036,0.35436,0.24289,-0.13838,-0.13641,-0.14096,-0.21226,-0.73539,-0.016997,-0.80772,-0.012335,-0.025511,0.011059,-0.02078,-0.2395,0.08513,0.016102,0.34968
0.0019727,-0.011326,-0.008166,0.026415,0.038295,0.11252,0.077119,0.34697,0.26872,-0.066722,-0.1385,-0.1125,-0.20159,-0.52497,-0.0011062,-0.63914,-0.015149,-0.045296,0.015174,-0.03254,-0.24366,0.22268,-0.015796,0.3998
-0.0025678,-0.013316,-0.012283,0.027943,0.0044658,0.15824,0.087308,0.34632,0.29524,0.02009,-0.13037,-0.075857,-0.19611,-0.35733,0.020958,-0.41054,-0.013631,-0.059257,0.019722,-0.038259,-0.23999,0.38738,-0.047407,0.49427
-0.0056735,-0.011774,-0.015507,0.028674,-0.029048,0.22053,0.094773,0.35786,0.32332,0.10259,-0.11634,-0.040628,-0.19918,-0.2797,0.043094,-0.20604,-0.010551,-0.063386,0.02257,-0.036895,-0.22914,0.56664,-0.075245,0.6259
-0.0051564,-0.0098807,-0.017644,0.025994,-0.058634,0.29905,0.097044,0.38009,0.352,0.15886,-0.10108,-0.018331,-0.20822,-0.29733,0.058234,-0.095476,-0.010553,-0.058487,0.02253,-0.029734,-0.215,0.73934,-0.099676,0.77295
-0.0014125,-0.010838,-0.017902,0.018829,-0.079369,0.38308,0.093987,0.40334,0.37588,0.17224,-0.087877,-0.019108,-0.21634,-0.37258,0.062642,-0.098433,-0.016958,-0.051123,0.020256,-0.021166,-0.2037,0.88095,-0.12416,0.91493
0.0030312,-0.01524,-0.01527,0.0087955,-0.087397,0.45157,0.089444,0.41357,0.38593,0.1389,-0.077959,-0.04662,-0.21671,-0.45356,0.058804,-0.1843,-0.029029,-0.050001,0.017962,-0.017292,-0.19991,0.97318,-0.15177,1.0467
0.0054637,-0.021221,-0.0094768,-0.000869,-0.082413,0.48152,0.089406,0.39865,0.37349,0.070283,-0.071329,-0.09479,-0.20698,-0.5102,0.054406,-0.30299,-0.042167,-0.060106,0.017911,-0.022546,-0.20232,1.013,-0.18138,1.1802
0.0049316,-0.026624,-0.0015915,-0.0076216,-0.068131,0.46051,0.097519,0.3538,0.3348,-0.011812,-0.067956,-0.1497,-0.19093,-0.54963,0.057475,-0.41886,-0.051138,-0.079114,0.020562,-0.036533,-0.20204,1.0135,-0.20668,1.3316
0.0028156,-0.030493,0.0064485,-0.011116,-0.049978,0.39513,0.11144,0.28382,0.27283,-0.085422,-0.068222,-0.19644,-0.17607,-0.60001,0.070747,-0.52243,-0.053742,-0.098925,0.023822,-0.053664,-0.18612,0.99511,-0.21907,1.5007
0.0017416,-0.032404,0.01313,-0.012665,-0.031889,0.30849,0.12348,0.20167,0.19577,-0.13777,-0.072211,-0.22649,-0.16839,-0.67848,0.089187,-0.61672,-0.051891,-0.11111,0.024282,-0.066407,-0.14496,0.97225,-0.21263,1.6594
0.0036701,-0.030982,0.018318,-0.013368,-0.015232,0.2274,0.12574,0.12375,0.11371,-0.16842,-0.078602,-0.24065,-0.16771,-0.77114,0.1026,-0.69671,-0.049352,-0.1121,0.019898,-0.070066,-0.079148,0.94827,-0.18739,1.7601
0.008478,-0.024066,0.02287,-0.012842,-0.00082881,0.16744,0.11588,0.063446,0.035804,-0.18525,-0.08442,-0.24578,-0.16707,-0.84107,0.10161,-0.74358,-0.048344,-0.10447,0.012219,-0.065592,-0.00081845,0.92164,-0.14894,1.7635
0.013942,-0.011072,0.027213,-0.0097952,0.0083686,0.1262,0.098973,0.025357,-0.031307,-0.19723,-0.086233,-0.24877,-0.15722,-0.85569,0.083077,-0.73857,-0.047995,-0.094078,0.0061902,-0.05831,0.072329,0.89809,-0.1049,1.6667
0.017078,0.0047756,0.030307,-0.0038819,0.0076008,0.08915,0.08385,0.0035959,-0.08418,-0.20917,-0.082083,-0.25294,-0.13338,-0.80896,0.051469,-0.6822,-0.045781,-0.08573,0.0071792,-0.053642,0.12682,0.89512,-0.061412,1.5104
0.015917,0.017197,0.030293,0.0030177,-0.0055772,0.04325,0.076856,-0.013981,-0.1227,-0.22127,-0.072668,-0.2588,-0.099565,-0.72076,0.015882,-0.59914,-0.040291,-0.080756,0.017124,-0.053267,0.16061,0.93226,-0.022157,1.3572
0.010581,0.020758,0.026463,0.0074589,-0.026923,-0.012341,0.078192,-0.037497,-0.1494,-0.23173,-0.060767,-0.26696,-0.067038,-0.61686,-0.014924,-0.52264,-0.032667,-0.077524,0.032686,-0.054684,0.18281,1.0139,0.010333,1.2537
0.0030422,0.014902,0.020727,0.006624,-0.045744,-0.066127,0.083358,-0.068101,-0.16771,-0.23938,-0.049339,-0.27875,-0.047796,-0.50923,-0.036284,-0.47167,-0.025598,-0.073647,0.047017,-0.0542,0.20621,1.1208,0.033336,1.2038
-0.0040847,0.0045713,0.01693,0.00023915,-0.050973,-0.10403,0.087785,-0.097632,-0.18,-0.2443,-0.039827,-0.29346,-0.047864,-0.39371,-0.048484,-0.44122,-0.021086,-0.067715,0.053979,-0.050531,0.23836,1.2202,0.044789,1.1732
-0.0088325,-0.0032196,0.018289,-0.0093273,-0.038896,-0.12067,0.090219,-0.11556,-0.18685,-0.24681,-0.031946,-0.30536,-0.065102,-0.26405,-0.055138,-0.41475,-0.019187,-0.05946,0.051746,-0.045884,0.27764,1.2894,0.045864,1.1208
-0.010468,-0.0040876,0.025075,-0.018722,-0.016253,-0.12352,0.092069,-0.1181,-0.18828,-0.2464,-0.024823,-0.30453,-0.092645,-0.1264,-0.060683,-0.38726,-0.018657,-0.048938,0.04322,-0.043781,0.31667,1.3318,0.042451,1.0336
-0.0092958,0.0014063,0.034605,-0.025535,0.0039892,-0.12737,0.093976,-0.11233,-0.18573,-0.24128,-0.018223,-0.28217,-0.12467,0.00034558,-0.068444,-0.3769,-0.018542,-0.036074,0.033301,-0.045803,0.34959,1.3737,0.043028,0.93754
-0.0061169,0.0092048,0.043542,-0.029041,0.010902,-0.14457,0.093412,-0.112,-0.18275,-0.22831,-0.012692,-0.2362,-0.15979,0.09832,-0.079818,-0.41218,-0.01894,-0.021282,0.025512,-0.050273,0.37691,1.4414,0.053474,0.87832
-0.0018101,0.015255,0.050429,-0.029599,0.0015297,-0.17854,0.085906,-0.12819,-0.18328,-0.2034,-0.0087203,-0.17241,-0.19973,0.16462,-0.094368,-0.50404,-0.020249,-0.0065856,0.020596,-0.05399,0.40429,1.5405,0.07261,0.8873
0.0028906,0.018174,0.056259,-0.027741,-0.019406,-0.22426,0.06893,-0.16172,-0.18917,-0.16282,-0.0059991,-0.10005,-0.24515,0.21182,-0.11032,-0.62737,-0.021895,0.004083,0.017687,-0.055288,0.43675,1.6508,0.09241,0.95846
0.0075447,0.019499,0.062816,-0.023925,-0.044565,-0.27334,0.044938,-0.20246,-0.19887,-0.10569,-0.0036352,-0.025867,-0.29248,0.25441,-0.12502,-0.73087,-0.022104,0.006259,0.01632,-0.055542,0.47329,1.7419,0.1034,1.0518
0.012085,0.022014,0.070613,-0.018968,-0.068906,-0.31819,0.02079,-0.23511,-0.20895,-0.036246,-0.0010576,0.04827,-0.33437,0.29353,-0.13512,-0.77082,-0.019183,-0.0025113,0.017126,-0.057761,0.50628,1.7908,0.10134,1.1174
0.016649,0.027746,0.078388,-0.014333,-0.090841,-0.35267,0.0039672,-0.247,-0.21672,0.036269,0.0014164,0.12265,-0.36328,0.31375,-0.13673,-0.74276,-0.013171,-0.020594,0.020682,-0.063609,0.52539,1.7882,0.09011,1.1217
0.021109,0.036782,0.084408,-0.011697,-0.11005,-0.37101,-0.0014196,-0.23328,-0.22187,0.10073,0.0030162,0.19532,-0.37508,0.29487,-0.12609,-0.68456,-0.0061959,-0.042256,0.025915,-0.071544,0.52276,1.7305,0.078419,1.0583
0.024675,0.047221,0.088022,-0.012069,-0.12519,-0.36837,0.0040377,-0.19787,-0.22569,0.14872,0.0035597,0.2609,-0.37038,0.22943,-0.10084,-0.64688,-0.0010078,-0.060056,0.029954,-0.077664,0.49571,1.6114,0.073271,0.94124
0.026082,0.056063,0.089916,-0.01523,-0.13399,-0.34399,0.016766,-0.15124,-0.22898,0.17777,0.0040796,0.31405,-0.35309,0.13192,-0.06178,-0.65382,0.001112,-0.068437,0.029847,-0.078443,0.44646,1.4238,0.075455,0.78938
0.024461,0.06068,0.091093,-0.019907,-0.13548,-0.30382,0.032907,-0.10656,-0.23088,0.19144,0.0063953,0.35437,-0.32795,0.032667,-0.013868,-0.68577,0.0012399,-0.066505,0.024774,-0.073106,0.38039,1.1722,0.080453,0.61608
0.020302,0.060353,0.09193,-0.024356,-0.13164,-0.25868,0.049559,-0.07496,-0.2297,0.19713,0.011942,0.38777,-0.29874,-0.039287,0.03462,-0.69874,0.0017659,-0.058454,0.016796,-0.064027,0.30494,0.8824,0.083401,0.42802
0.015602,0.056987,0.092335,-0.026863,-0.12705,-0.21798,0.064007,-0.061054,-0.22476,0.20312,0.020778,0.42246,-0.2675,-0.071874,0.074841,-0.66449,0.0044074,-0.051364,0.0093658,-0.055192,0.22906,0.59564,0.083365,0.23043
0.01286,0.054319,0.092509,-0.026032,-0.12641,-0.18359,0.072495,-0.060626,-0.21738,0.21613,0.031497,0.46259,-0.23431,-0.073113,0.10086,-0.59769,0.0090053,-0.051531,0.0047771,-0.050065,0.16193,0.35006,0.08326,0.031383
0.013531,0.055725,0.093021,-0.021201,-0.13223,-0.14914,0.070683,-0.062289,-0.20973,0.23908,0.042045,0.50465,-0.19711,-0.059253,0.11189,-0.54653,0.013937,-0.061264,0.0026155,-0.050064,0.11025,0.16403,0.085938,-0.15845
0.017066,0.061951,0.093831,-0.013075,-0.14389,-0.10573,0.056234,-0.052962,-0.20287,0.26942,0.05082,0.53974,-0.15235,-0.036577,0.11212,-0.55255,0.017473,-0.077855,0.00049914,-0.05411,0.07544,0.03361,0.090497,-0.32913
0.02129,0.070395,0.093447,-0.0040429,-0.15832,-0.049186,0.031718,-0.024131,-0.19573,0.29924,0.057293,0.55969,-0.09716,0.0090079,0.10809,-0.61102,0.018776,-0.095245,-0.0035575,-0.059139,0.053109,-0.056289,0.092466,-0.47349
0.023816,0.076679,0.089696,0.0025999,-0.17168,0.017094,0.0050996,0.024765,-0.18619,0.31844,0.061792,0.56242,-0.032481,0.10496,0.10513,-0.66368,0.017921,-0.10726,-0.0091935,-0.061303,0.035864,-0.11948,0.08768,-0.5854
0.023455,0.077565,0.081917,0.0045087,-0.18133,0.085423,-0.013425,0.087242,-0.17318,0.32046,0.064735,0.55258,0.034884,0.27058,0.10437,-0.63026,0.015447,-0.11033,-0.013833,-0.057522,0.017914,-0.16542,0.076181,-0.65615
0.020647,0.073132,0.072476,0.0020349,-0.18759,0.14921,-0.016667,0.15319,-0.15764,0.3069,0.065993,0.53768,0.093779,0.49585,0.10121,-0.45505,0.012185,-0.10414,-0.014756,-0.046732,-0.0017508,-0.2044,0.062432,-0.67365
0.016778,0.06659,0.065613,-0.0017059,-0.1944,0.20472,-0.0043354,0.21189,-0.14159,0.28728,0.064953,0.5232,0.13381,0.73714,0.086123,-0.13479,0.009444,-0.090188,-0.011331,-0.030124,-0.019829,-0.25072,0.051632,-0.62731
0.013038,0.061826,0.064046,-0.0029011,-0.20769,0.24795,0.017095,0.25342,-0.12586,0.27326,0.061197,0.51051,0.15115,0.93484,0.047572,0.28894,0.0088985,-0.069794,-0.0056124,-0.01015,-0.032285,-0.31657,0.045526,-0.51647
0.0097384,0.060534,0.066249,0.00010899,-0.23145,0.27111,0.038426,0.26984,-0.10912,0.27119,0.055078,0.49824,0.15102,1.0418,-0.022909,0.76007,0.011731,-0.043342,-0.0010189,0.010994,-0.038186,-0.40154,0.041444,-0.3558
0.0064892,0.061078,0.067208,0.00542,-0.26379,0.26445,0.052909,0.25756,-0.088936,0.27865,0.047544,0.48533,0.14498,1.0437,-0.12505,1.2331,0.017529,-0.011051,-0.00036318,0.032256,-0.040924,-0.48941,0.035276,-0.17183
0.0029162,0.059905,0.062458,0.008829,-0.29649,0.22404,0.05927,0.22053,-0.064321,0.28752,0.03935,0.47243,0.14508,0.95962,-0.2462,1.6755,0.024053,0.025649,-0.0047362,0.053333,-0.046135,-0.55887,0.025502,0.0083701
-0.00075905,0.054363,0.052054,0.0069038,-0.3194,0.15947,0.061186,0.17117,-0.037401,0.2908,0.030537,0.46054,0.15902,0.82617,-0.36254,2.0552,0.028428,0.06343,-0.013656,0.073483,-0.058134,-0.60066,0.014672,0.1682
-0.0037385,0.044743,0.040833,-0.00043905,-0.32678,0.093463,0.064359,0.12666,-0.012741,0.28765,0.020892,0.44817,0.18881,0.68066,-0.44632,2.3368,0.029043,0.097469,-0.02579,0.090706,-0.07762,-0.62623,0.0071932,0.30303
-0.0051671,0.034123,0.034518,-0.0097111,-0.32017,0.051454,0.073507,0.10148,0.0050983,0.28296,0.01099,0.43011,0.23195,0.55302,-0.47646,2.4989,0.026574,0.12242,-0.039491,0.10209,-0.10212,-0.65904,0.0056023,0.41145
-0.0046816,0.026334,0.034951,-0.016014,-0.30452,0.047485,0.090881,0.1005,0.013794,0.28312,0.0025535,0.3995,0.28226,0.4658,-0.44768,2.5571,0.023166,0.13339,-0.053084,0.10512,-0.12836,-0.71526,0.0086121,0.48514
-0.0026139,0.023709,0.038628,-0.015946,-0.28102,0.07649,0.11625,0.11694,0.013652,0.29229,-0.0027367,0.35291,0.32933,0.43297,-0.37295,2.5666,0.020371,0.12708,-0.065265,0.098957,-0.15426,-0.7898,0.012406,0.50912
0.00015302,0.026147,0.039842,-0.0093405,-0.24396,0.11825,0.14727,0.13626,0.0062819,0.31174,-0.005267,0.29482,0.35902,0.45274,-0.27799,2.5872,0.017649,0.10341,-0.075608,0.085054,-0.17891,-0.85911,0.01376,0.4744
0.0024802,0.03173,0.03566,0.0010331,-0.18626,0.14927,0.17957,0.14265,-0.0069124,0.34074,-0.0083998,0.23791,0.35809,0.50074,-0.19043,2.634,0.012957,0.06722,-0.084522,0.066928,-0.201,-0.89777,0.012237,0.39215
0.0033382,0.037966,0.028358,0.011274,-0.11005,0.15361,0.20686,0.12411,-0.025119,0.37552,-0.016866,0.19712,0.32219,0.53485,-0.12922,2.6547,0.0051899,0.028754,-0.09227,0.049593,-0.21763,-0.89461,0.0098194,0.29457
0.0023027,0.04267,0.023199,0.018403,-0.03199,0.12628,0.22217,0.074415,-0.047436,0.4061,-0.033412,0.18016,0.26159,0.51489,-0.099092,2.5601,-0.00352,0.0012632,-0.097647,0.038705,-0.22518,-0.8566,0.0086774,0.21785
4.8206e-005,0.044286,0.023503,0.021543,0.024161,0.070407,0.22054,-0.0059779,-0.07231,0.41462,-0.056334,0.17996,0.19834,0.4256,-0.091757,2.2921,-0.0079196,-0.0039924,-0.097741,0.039188,-0.22199,-0.8001,0.0092163,0.17941
-0.0016616,0.042109,0.027321,0.021816,0.044281,-0.0063296,0.20198,-0.10862,-0.097978,0.37981,-0.08025,0.17482,0.15436,0.28521,-0.092326,1.8764,-0.0027897,0.016858,-0.089584,0.053303,-0.21011,-0.73933,0.0099749,0.16837
-0.0009272,0.036605,0.028592,0.021269,0.036811,-0.092668,0.17247,-0.21649,-0.12351,0.28746,-0.099854,0.13763,0.13786,0.13135,-0.087407,1.4167,0.012776,0.057788,-0.072814,0.078964,-0.19431,-0.6814,0.0091717,0.15791
0.0027314,0.029427,0.021852,0.02156,0.02968,-0.17426,0.14178,-0.30805,-0.14916,0.1405,-0.11379,0.050312,0.13834,-0.0060955,-0.071093,1.0317,0.033282,0.10525,-0.051193,0.1097,-0.17844,-0.62882,0.0062848,0.12904
0.0074501,0.022533,0.0066088,0.023066,0.051276,-0.23804,0.11876,-0.36713,-0.17535,-0.038791,-0.12538,-0.084593,0.13486,-0.124,-0.046332,0.78227,0.049157,0.14465,-0.031319,0.13708,-0.16237,-0.5831,0.0021809,0.084983
0.0098645,0.016644,-0.012176,0.024737,0.109,-0.2803,0.10711,-0.39367,-0.20102,-0.21735,-0.13944,-0.24206,0.11205,-0.24264,-0.02144,0.64552,0.052551,0.16739,-0.019066,0.15483,-0.14235,-0.54386,-0.0022739,0.044145
0.0074839,0.01025,-0.027745,0.024587,0.18181,-0.31213,0.10457,-0.40647,-0.22315,-0.36552,-0.15771,-0.38439,0.071727,-0.38368,-0.0040301,0.55058,0.042668,0.17459,-0.016282,0.16205,-0.11517,-0.5053,-0.0077447,0.019638
0.00079182,0.0004856,-0.036283,0.020612,0.23239,-0.35508,0.10577,-0.433,-0.23836,-0.46821,-0.17666,-0.47813,0.031378,-0.54835,0.0038623,0.44169,0.026477,0.17491,-0.02031,0.16318,-0.08256,-0.45625,-0.016482,0.0057903
-0.0068367,-0.014165,-0.038964,0.01194,0.22968,-0.42706,0.10631,-0.49127,-0.24566,-0.52682,-0.18952,-0.50931,0.010793,-0.71334,0.0063531,0.31437,0.013839,0.17795,-0.026719,0.16422,-0.051943,-0.38718,-0.030462,-0.014776
-0.011556,-0.031195,-0.039996,-0.00010657,0.16524,-0.52767,0.10479,-0.57647,-0.24805,-0.55252,-0.19087,-0.48873,0.017608,-0.84642,0.0098736,0.19902,0.010481,0.18712,-0.032967,0.16762,-0.032346,-0.29982,-0.04887,-0.050287
-0.011836,-0.043992,-0.042688,-0.011708,0.053644,-0.63479,0.10175,-0.66302,-0.25141,-0.55691,-0.18018,-0.44438,0.043067,-0.92722,0.018062,0.11466,0.014227,0.19723,-0.03996,0.16999,-0.028462,-0.21023,-0.067029,-0.086143
-0.0092393,-0.045376,-0.046965,-0.017811,-0.079662,-0.71649,0.09736,-0.72113,-0.26105,-0.54626,-0.16156,-0.40518,0.070837,-0.95603,0.02946,0.039831,0.01744,0.19858,-0.050299,0.16459,-0.037703,-0.14088,-0.078091,-0.093564
-0.00662,-0.032838,-0.050227,-0.014898,-0.21139,-0.75054,0.090736,-0.73567,-0.2785,-0.52225,-0.14026,-0.38541,0.091036,-0.94569,0.039662,-0.072297,0.013586,0.18509,-0.064964,0.14728,-0.052548,-0.10685,-0.076807,-0.054758
-0.0055834,-0.011526,-0.050375,-0.0036807,-0.32523,-0.73757,0.081741,-0.71349,-0.30082,-0.4872,-0.11904,-0.37907,0.10772,-0.9071,0.045746,-0.2504,0.0024745,0.15994,-0.081514,0.12096,-0.066112,-0.10703,-0.062994,0.017682
-0.0055712,0.0079703,-0.048085,0.010604,-0.40895,-0.69862,0.073057,-0.67523,-0.32298,-0.4491,-0.097358,-0.36704,0.13393,-0.84367,0.048982,-0.47497,-0.010023,0.13419,-0.095415,0.094783,-0.076334,-0.12759,-0.042214,0.085649
-0.0052072,0.016126,-0.046314,0.021315,-0.45115,-0.6598,0.069676,-0.63936,-0.34119,-0.4223,-0.073859,-0.33214,0.17911,-0.75927,0.053602,-0.68974,-0.017097,0.11873,-0.10319,0.078028,-0.085716,-0.15445,-0.023045,0.11207
-0.00423,0.010731,-0.047662,0.025084,-0.44354,-0.6358,0.075357,-0.61153,-0.3549,-0.42266,-0.049441,-0.27253,0.23997,-0.66934,0.063154,-0.84356,-0.016306,0.11604,-0.10448,0.073427,-0.097451,-0.18397,-0.012668,0.087489
-0.0038715,-0.0019429,-0.052067,0.024273,-0.38784,-0.6236,0.088839,-0.58565,-0.36584,-0.45992,-0.028061,-0.20509,0.30226,-0.60052,0.077908,-0.92516,-0.010639,0.11851,-0.10144,0.07524,-0.11166,-0.22296,-0.013696,0.035443
-0.0053241,-0.012038,-0.0569,0.024785,-0.30032,-0.60899,0.10341,-0.55332,-0.3754,-0.53198,-0.014377,-0.15713,0.35133,-0.57548,0.095371,-0.96195,-0.0050394,0.11492,-0.096291,0.073722,-0.12476,-0.27923,-0.024011,-0.005933
-0.008064,-0.013263,-0.059267,0.030736,-0.20847,-0.57923,0.11075,-0.51211,-0.38248,-0.62484,-0.010295,-0.15164,0.38167,-0.59624,0.11269,-0.98845,-0.0020633,0.09965,-0.089788,0.062464,-0.13213,-0.35173,-0.039054,-0.0086089
-0.01001,-0.0067773,-0.058405,0.040604,-0.13999,-0.53199,0.10634,-0.46648,-0.38384,-0.71811,-0.01353,-0.19475,0.39754,-0.64321,0.12816,-1.0168,-0.00062009,0.077061,-0.08178,0.042905,-0.13127,-0.4294,-0.054378,0.034274
-0.0095456,0.00085968,-0.0561,0.048436,-0.11068,-0.47532,0.092101,-0.42266,-0.37654,-0.79277,-0.019446,-0.27259,0.40564,-0.69401,0.1406,-1.0364,0.0015577,0.057549,-0.072934,0.022844,-0.12313,-0.49897,-0.066744,0.11573
-0.0073436,0.0034628,-0.054893,0.049193,-0.11846,-0.42076,0.074418,-0.38366,-0.36071,-0.83677,-0.024572,-0.35894,0.4083,-0.74621,0.14812,-1.04,0.0046387,0.049237,-0.065409,0.010575,-0.11075,-0.55406,-0.07395,0.22773
-0.0059665,-0.00017357,-0.055821,0.043355,-0.14683,-0.37563,0.05929,-0.349,-0.34029,-0.84643,-0.028744,-0.42902,0.40439,-0.82169,0.14864,-1.0467,0.0060102,0.052321,-0.061581,0.0093566,-0.096892,-0.59695,-0.074836,0.36371
-0.0073797,-0.0061887,-0.057724,0.036489,-0.17518,-0.33981,0.048456,-0.31816,-0.32117,-0.82433,-0.034027,-0.47081,0.39659,-0.94583,0.14236,-1.095,0.0028146,0.060192,-0.062065,0.015985,-0.082575,-0.63212,-0.070267,0.50864
-0.010742,-0.0094118,-0.058632,0.034209,-0.18933,-0.30763,0.03929,-0.2933,-0.30826,-0.77542,-0.041375,-0.48699,0.39621,-1.118,0.13364,-1.2097,-0.0048569,0.065276,-0.065123,0.023738,-0.067251,-0.6583,-0.064057,0.63015
-0.012772,-0.007401,-0.057838,0.037347,-0.18669,-0.27195,0.028036,-0.27791,-0.30336,-0.70272,-0.047839,-0.48646,0.41834,-1.2997,0.12977,-1.3705,-0.013284,0.063992,-0.068151,0.02693,-0.05012,-0.66727,-0.062016,0.68528
-0.010625,-0.0016478,-0.056684,0.04187,-0.17394,-0.22724,0.013445,-0.27243,-0.30528,-0.60385,-0.046747,-0.47177,0.46963,-1.4329,0.1366,-1.5128,-0.017763,0.057171,-0.069803,0.023878,-0.031345,-0.65083,-0.068649,0.64272
-0.0047193,0.0043322,-0.057365,0.043377,-0.15999,-0.17076,-0.0020854,-0.2716,-0.31126,-0.47068,-0.031117,-0.43243,0.53946,-1.4747,0.15467,-1.5643,-0.016365,0.047023,-0.070746,0.016816,-0.012406,-0.60962,-0.083586,0.50345
0.0011742,0.0078272,-0.060876,0.041569,-0.14891,-0.10325,-0.014626,-0.26684,-0.31828,-0.29451,0.0016751,-0.3503,0.60434,-1.4207,0.17924,-1.4895,-0.01166,0.034553,-0.072409,0.0095179,0.0044592,-0.55553,-0.10077,0.30165
0.0028861,0.0083198,-0.066007,0.040229,-0.1368,-0.030473,-0.022238,-0.25298,-0.32362,-0.07624,0.046845,-0.21481,0.64419,-1.2995,0.20437,-1.3088,-0.0089917,0.01991,-0.075132,0.0045797,0.017244,-0.50515,-0.11161,0.083203
-0.00066856,0.0068438,-0.070253,0.042865,-0.11311,0.035586,-0.026982,-0.23413,-0.32519,0.16416,0.092806,-0.037463,0.65805,-1.1468,0.22751,-1.08,-0.012696,0.0044857,-0.077612,0.0020997,0.025049,-0.46971,-0.11015,-0.12146
-0.0065561,0.0044895,-0.071792,0.048539,-0.064433,0.078585,-0.033637,-0.22329,-0.32254,0.38749,0.12555,0.14543,0.66587,-0.98193,0.25031,-0.85991,-0.023108,-0.0082886,-0.078204,0.00038803,0.028415,-0.45009,-0.096356,-0.30902
-0.010307,0.0015432,-0.070824,0.052172,0.021008,0.084505,-0.045838,-0.23461,-0.31811,0.54903,0.1348,0.28587,0.6939,-0.80579,0.27534,-0.67562,-0.036392,-0.014888,-0.076711,-0.0020502,0.028981,-0.44055,-0.075347,-0.49244
-0.0096475,-0.0022945,-0.069252,0.049086,0.14919,0.05064,-0.062542,-0.27264,-0.317,0.62119,0.11876,0.34665,0.75505,-0.61684,0.30199,-0.52144,-0.047106,-0.014694,-0.0748,-0.0048725,0.028616,-0.43733,-0.053402,-0.68004
-0.0062326,-0.0072929,-0.069125,0.039361,0.31604,-0.0089515,-0.077803,-0.32629,-0.32396,0.61175,0.084877,0.32014,0.83946,-0.42654,0.32576,-0.37588,-0.0516,-0.010985,-0.074543,-0.005998,0.028472,-0.44404,-0.034123,-0.86417
-0.0039383,-0.013521,-0.071188,0.027795,0.50425,-0.06666,-0.084598,-0.37227,-0.339,0.56432,0.046103,0.23214,0.92192,-0.25903,0.34172,-0.22006,-0.050069,-0.0086396,-0.076443,-0.003526,0.028468,-0.46943,-0.017322,-1.0283
-0.0053694,-0.021228,-0.074586,0.019644,0.68403,-0.093118,-0.0802,-0.38697,-0.35492,0.53775,0.014959,0.12801,0.97819,-0.13633,0.34859,-0.045845,-0.046103,-0.010404,-0.078868,0.0020171,0.027514,-0.52011,-0.00068556,-1.1634
-0.0097127,-0.03113,-0.077707,0.016278,0.82039,-0.071471,-0.068988,-0.35983,-0.35977,0.57482,-0.0013472,0.048792,0.99591,-0.063799,0.34952,0.14436,-0.044182,-0.014961,-0.079426,0.0071195,0.024279,-0.59523,0.017797,-1.2772
-0.013703,-0.043967,-0.079375,0.014746,0.88583,-0.0058033,-0.060125,-0.2996,-0.34367,0.67887,-0.0024355,0.010826,0.97229,-0.028913,0.34849,0.33836,-0.046782,-0.018517,-0.076949,0.0072477,0.017973,-0.68791,0.038483,-1.3872
-0.014578,-0.059463,-0.079497,0.011278,0.87263,0.081326,-0.061405,-0.22941,-0.30567,0.81291,0.0069369,0.00092169,0.90386,-0.013624,0.34582,0.51323,-0.05296,-0.018587,-0.072181,4.5499e-005,0.008601,-0.7915,0.060063,-1.5052
-0.012245,-0.07561,-0.078852,0.0050467,0.79687,0.16075,-0.073743,-0.17363,-0.25519,0.92195,0.019836,-0.010072,0.78077,-0.0091409,0.33695,0.63772,-0.059333,-0.016745,-0.06666,-0.012802,-0.0033881,-0.90418,0.080042,-1.627
-0.0088577,-0.089183,-0.078288,-0.0013886,0.6909,0.21113,-0.090565,-0.14459,-0.20626,0.96444,0.029507,-0.044121,0.59302,-0.021834,0.3159,0.68273,-0.06274,-0.01796,-0.061112,-0.026762,-0.017643,-1.027,0.095163,-1.7365
-0.0065897,-0.097493,-0.077969,-0.0051012,0.58807,0.22822,-0.10262,-0.13722,-0.16816,0.93268,0.030699,-0.099356,0.34366,-0.067427,0.28039,0.63573,-0.06258,-0.026875,-0.055107,-0.037938,-0.034049,-1.1572,0.1021,-1.8199
-0.0059139,-0.10021,-0.07718,-0.0060522,0.50905,0.22477,-0.10451,-0.13398,-0.13898,0.84991,0.020623,-0.15258,0.056583,-0.15892,0.23444,0.50881,-0.061053,-0.043853,-0.04824,-0.045983,-0.052246,-1.2828,0.098774,-1.8765
-0.0059167,-0.099754,-0.074867,-0.0073669,0.45754,0.22244,-0.097854,-0.1156,-0.10668,0.74841,4.3077e-005,-0.18014,-0.22939,-0.29549,0.1862,0.33312,-0.061103,-0.063885,-0.041366,-0.053851,-0.070882,-1.3851,0.085693,-1.9197
-0.0059574,-0.099764,-0.07052,-0.012446,0.42599,0.24124,-0.088891,-0.070142,-0.056906,0.64593,-0.026096,-0.18147,-0.47668,-0.45673,0.14317,0.143,-0.063801,-0.079332,-0.036252,-0.064372,-0.087313,-1.4468,0.066151,-1.9681
-0.0066863,-0.10259,-0.064747,-0.021742,0.40476,0.29198,-0.082699,0.0045473,0.018234,0.53855,-0.049606,-0.18562,-0.66362,-0.60352,0.1085,-0.038587,-0.067403,-0.084516,-0.033738,-0.076563,-0.098185,-1.4588,0.044636,-2.0346
-0.009268,-0.10781,-0.05903,-0.032221,0.38734,0.37396,-0.078928,0.10361,0.11629,0.4138,-0.061896,-0.23262,-0.78793,-0.68668,0.081325,-0.20345,-0.068869,-0.07882,-0.032299,-0.085136,-0.10071,-1.4213,0.024512,-2.1205
-0.013657,-0.11295,-0.054734,-0.039944,0.36943,0.47594,-0.072459,0.21779,0.22736,0.27175,-0.05759,-0.34137,-0.85922,-0.66309,0.05993,-0.35045,-0.066519,-0.066192,-0.028754,-0.084212,-0.09391,-1.3385,0.006808,-2.2151
-0.017854,-0.11574,-0.052075,-0.043411,0.34605,0.57749,-0.05826,0.33205,0.34056,0.13485,-0.036972,-0.48839,-0.88896,-0.5153,0.044796,-0.47572,-0.061511,-0.051844,-0.020875,-0.072566,-0.078985,-1.2153,-0.0089007,-2.3
-0.019127,-0.11595,-0.049865,-0.044782,0.31197,0.6504,-0.036367,0.42267,0.44882,0.037101,-0.0058705,-0.61555,-0.88571,-0.2648,0.038568,-0.57024,-0.05688,-0.038994,-0.0095943,-0.055973,-0.058597,-1.0601,-0.022411,-2.357
-0.016243,-0.11523,-0.046312,-0.048065,0.26562,0.66332,-0.012876,0.45912,0.54896,0.00042975,0.026912,-0.6641,-0.85637,0.031451,0.043089,-0.62657,-0.05501,-0.028005,0.0013771,-0.044151,-0.03539,-0.89117,-0.031609,-2.3764
-0.010658,-0.11516,-0.040279,-0.055859,0.2122,0.59239,0.0038564,0.41498,0.6379,0.016484,0.053248,-0.61242,-0.80823,0.30402,0.056139,-0.64789,-0.055712,-0.017892,0.0084761,-0.044116,-0.010707,-0.73913,-0.033316,-2.3631
-0.0055345,-0.11538,-0.032031,-0.067204,0.16129,0.43499,0.0089641,0.28355,0.70918,0.047921,0.068625,-0.4914,-0.74799,0.50347,0.070812,-0.65032,-0.056453,-0.0082654,0.011351,-0.054947,0.015612,-0.63729,-0.025749,-2.3359
-0.0033728,-0.11347,-0.02287,-0.077998,0.11993,0.21823,0.0046392,0.087452,0.75298,0.047852,0.073126,-0.36677,-0.67925,0.62338,0.078331,-0.65536,-0.054491,-9.0096e-006,0.013389,-0.068279,0.044005,-0.60613,-0.010709,-2.3181
-0.0042378,-0.10678,-0.014047,-0.083485,0.087286,-0.0067606,-0.00067866,-0.12676,0.75989,-0.016454,0.070202,-0.29987,-0.60322,0.69874,0.072417,-0.67818,-0.049119,0.0053518,0.019138,-0.0744,0.073244,-0.64206,0.0062722,-2.3255
-0.0060138,-0.094599,-0.0059773,-0.081063,0.056049,-0.18478,0.0035914,-0.30809,0.72576,-0.15004,0.064053,-0.31241,-0.52362,0.77932,0.052265,-0.72089,-0.042248,0.0065342,0.030711,-0.069313,0.0993,-0.71962,0.018218,-2.358
-0.0063651,-0.078902,0.0014931,-0.071756,0.019628,-0.28071,0.025738,-0.42298,0.65402,-0.33152,0.057195,-0.37685,-0.45108,0.89427,0.022397,-0.77599,-0.036894,0.0030549,0.046081,-0.057192,0.11643,-0.80506,0.02027,-2.4027
-0.0047252,-0.063169,0.0080948,-0.059716,-0.021314,-0.29303,0.069222,-0.46638,0.55479,-0.52342,0.049749,-0.43655,-0.40074,1.0299,-0.010128,-0.83587,-0.034791,-0.0042332,0.060551,-0.046425,0.12051,-0.87104,0.012593,-2.4426
-0.002732,-0.050436,0.012541,-0.050171,-0.058901,-0.24865,0.13205,-0.45675,0.44204,-0.68358,0.040908,-0.44119,-0.38345,1.1342,-0.039212,-0.89958,-0.035007,-0.012522,0.070046,-0.042677,0.11265,-0.90315,0.0008722,-2.4647
-0.0028602,-0.041969,0.013199,-0.046886,-0.084468,-0.1841,0.20676,-0.4212,0.33137,-0.77388,0.03142,-0.37367,-0.39817,1.144,-0.062158,-0.97044,-0.034675,-0.017306,0.073475,-0.044781,0.10008,-0.89841,-0.0062355,-2.4617
-0.0064192,-0.037252,0.0096501,-0.050345,-0.095584,-0.1268,0.28052,-0.38202,0.23904,-0.76751,0.024911,-0.25225,-0.4335,1.0183,-0.080368,-1.0471,-0.031309,-0.014577,0.072497,-0.046671,0.092686,-0.86192,-0.0017897,-2.4311
-0.012473,-0.034751,0.0037324,-0.057649,-0.097865,-0.088171,0.33671,-0.35149,0.18102,-0.65575,0.026582,-0.10927,-0.47805,0.75869,-0.098474,-1.1168,-0.024867,-0.0041807,0.069327,-0.043302,0.096461,-0.80592,0.015033,-2.3784
-0.018419,-0.032632,-0.0010796,-0.064312,-0.10089,-0.069498,0.35958,-0.33401,0.17026,-0.45171,0.0399,0.035952,-0.5293,0.40825,-0.1223,-1.1591,-0.017849,0.0085019,0.064889,-0.035226,0.10832,-0.74795,0.03764,-2.3256
-0.021663,-0.029091,-0.0016583,-0.067045,-0.11251,-0.071343,0.34111,-0.32963,0.2125,-0.18726,0.063688,0.18893,-0.59094,0.032358,-0.1561,-1.1584,-0.013258,0.015044,0.059012,-0.027934,0.11631,-0.7028,0.055232,-2.3143
-0.021109,-0.022668,0.0029732,-0.065753,-0.13624,-0.096422,0.28627,-0.33536,0.30342,0.097383,0.091956,0.36863,-0.65946,-0.30625,-0.19988,-1.1163,-0.012042,0.0097665,0.052313,-0.02682,0.10611,-0.66943,0.059134,-2.3933
-0.017498,-0.0129,0.011445,-0.063259,-0.17243,-0.14384,0.212,-0.34492,0.42944,0.36646,0.1167,0.58394,-0.71294,-0.56514,-0.2481,-1.0547,-0.012151,-0.0054352,0.047619,-0.032311,0.069867,-0.62359,0.048364,-2.5885
-0.012591,-0.00096617,0.021451,-0.062784,-0.22027,-0.20195,0.13945,-0.34974,0.57182,0.59711,0.13166,0.81898,-0.71567,-0.72554,-0.29069,-1.0033,-0.010083,-0.021474,0.049087,-0.03921,0.011302,-0.527,0.030555,-2.8734
-0.0079942,0.010542,0.031423,-0.065031,-0.27771,-0.24897,0.083815,-0.34228,0.7108,0.78004,0.13449,1.0404,-0.63916,-0.78327,-0.31627,-0.97987,-0.0036626,-0.027899,0.059255,-0.040484,-0.056908,-0.35184,0.017189,-3.1631
-0.004479,0.019164,0.041071,-0.067217,-0.33961,-0.26375,0.048695,-0.3194,0.82694,0.91473,0.12646,1.2206,-0.4842,-0.73633,-0.31628,-0.97391,0.0062467,-0.019917,0.076316,-0.032177,-0.12174,-0.10461,0.016113,-3.3442
-0.0020704,0.024584,0.050599,-0.065073,-0.39686,-0.23903,0.028533,-0.28339,0.9002,1.0043,0.11069,1.3567,-0.28509,-0.57933,-0.28852,-0.94514,0.016486,-0.0013671,0.094084,-0.015781,-0.17827,0.17037,0.026452,-3.3249
-0.00057091,0.02935,0.059631,-0.056429,-0.43867,-0.1866,0.016213,-0.24036,0.91056,1.0533,0.090905,1.4693,-0.090872,-0.30954,-0.23892,-0.83901,0.024069,0.018221,0.10513,0.0030089,-0.23177,0.41352,0.039474,-3.0776
3.7678e-005,0.037173,0.06701,-0.043581,-0.4565,-0.12963,0.0090737,-0.19763,0.84331,1.0682,0.070964,1.5809,0.062906,0.06074,-0.18129,-0.6124,0.028214,0.029862,0.10502,0.017535,-0.29231,0.58392,0.044697,-2.6452
-0.0003773,0.049731,0.071671,-0.032374,-0.4468,-0.087718,0.0085547,-0.16195,0.69715,1.0582,0.054587,1.6941,0.17008,0.49628,-0.1344,-0.25503,0.030321,0.030032,0.094764,0.023149,-0.36614,0.67975,0.036703,-2.111
-0.0017441,0.064573,0.073711,-0.028407,-0.41041,-0.066143,0.014936,-0.13833,0.48916,1.0335,0.044299,1.7858,0.24656,0.94351,-0.11622,0.20663,0.032205,0.021444,0.079725,0.018789,-0.45025,0.73037,0.017801,-1.5552
-0.003483,0.076315,0.074629,-0.03308,-0.35028,-0.056643,0.023161,-0.1287,0.25129,1.0039,0.040055,1.8234,0.30862,1.3458,-0.13611,0.7265,0.034412,0.010139,0.066142,0.0072237,-0.53351,0.76706,-0.0049171,-1.0253
-0.0045988,0.080671,0.076433,-0.042416,-0.27048,-0.04748,0.02451,-0.13046,0.018868,0.97738,0.038985,1.7882,0.35661,1.6592,-0.18821,1.2665,0.036109,0.0014966,0.057681,-0.0058675,-0.6025,0.79549,-0.02523,-0.53649
-0.004207,0.07825,0.080267,-0.049549,-0.17747,-0.03357,0.01302,-0.13652,-0.18188,0.95901,0.037121,1.6893,0.37761,1.8588,-0.25068,1.814,0.03642,-0.0023837,0.054223,-0.014079,-0.64741,0.78988,-0.041507,-0.09413
-0.0021565,0.074755,0.085536,-0.049097,-0.081982,-0.018717,-0.0093041,-0.13812,-0.33945,0.95065,0.03218,1.5579,0.36232,1.9357,-0.2933,2.374,0.035667,-0.0029306,0.053121,-0.013307,-0.66481,0.71037,-0.056134,0.28433
0.00075568,0.076985,0.090122,-0.040407,0.0017496,-0.0095212,-0.033568,-0.12932,-0.45339,0.94954,0.025236,1.4306,0.31927,1.8916,-0.29138,2.9373,0.035205,-0.0033207,0.051537,-0.0040861,-0.65744,0.528,-0.072346,0.56519
0.0032467,0.087516,0.091507,-0.027658,0.05999,-0.0071543,-0.050623,-0.10958,-0.5259,0.94785,0.01977,1.3335,0.27301,1.7382,-0.23862,3.4499,0.036056,-0.0057981,0.04815,0.0086732,-0.633,0.24013,-0.09222,0.71667
0.0044338,0.10231,0.088156,-0.017072,0.084028,-0.0037256,-0.057299,-0.082187,-0.55658,0.93466,0.018692,1.2766,0.24803,1.5006,-0.15096,3.8123,0.037782,-0.0095646,0.043427,0.018938,-0.60264,-0.12887,-0.11772,0.73821
0.0044874,0.11332,0.080401,-0.013222,0.071994,0.014718,-0.056747,-0.049575,-0.54444,0.89966,0.021667,1.2575,0.25287,1.2167,-0.058417,3.9242,0.038784,-0.010618,0.038776,0.023817,-0.57797,-0.53402,-0.15273,0.68227
0.0044983,0.11428,0.070365,-0.016589,0.027399,0.061304,-0.053215,-0.010198,-0.49452,0.83623,0.024839,1.2657,0.27763,0.92785,0.010652,3.7512,0.037823,-0.0040023,0.035381,0.025629,-0.56574,-0.91488,-0.20223,0.65175
0.0056096,0.10525,0.060955,-0.023524,-0.043023,0.14157,-0.046979,0.039446,-0.42214,0.74152,0.023094,1.2859,0.30524,0.66579,0.043095,3.3685,0.035312,0.012687,0.033394,0.030013,-0.56228,-1.2005,-0.26716,0.76607
0.0080859,0.09245,0.054409,-0.028448,-0.12965,0.24924,-0.034855,0.098612,-0.3498,0.61458,0.012991,1.2988,0.32557,0.44676,0.044418,2.9412,0.033158,0.036964,0.031781,0.041361,-0.55237,-1.3224,-0.33863,1.1052
0.011076,0.083501,0.05124,-0.027113,-0.219,0.36554,-0.015824,0.15752,-0.2975,0.45578,-0.0058067,1.2852,0.33996,0.27785,0.031093,2.6423,0.033193,0.062238,0.028853,0.059127,-0.5158,-1.2377,-0.39743,1.6581
0.013247,0.081815,0.050189,-0.019179,-0.29438,0.4627,0.0042425,0.19934,-0.27259,0.26968,-0.031259,1.2333,0.35429,0.16795,0.01814,2.5578,0.035576,0.081511,0.023246,0.077965,-0.43911,-0.95204,-0.42181,2.3092
0.013735,0.084382,0.049179,-0.0085487,-0.33994,0.51209,0.014272,0.20898,-0.2662,0.069355,-0.06063,1.1428,0.36822,0.12899,0.010709,2.6434,0.038541,0.091449,0.014827,0.091661,-0.32542,-0.52316,-0.39955,2.8816
0.012618,0.084521,0.046516,-0.00098429,-0.34586,0.49493,0.0052594,0.1822,-0.25856,-0.1223,-0.091482,1.0242,0.37119,0.16199,0.0044827,2.7647,0.03972,0.093887,0.0048692,0.097761,-0.19504,-0.037445,-0.33595,3.2258
0.010614,0.077203,0.041476,-0.00034565,-0.31081,0.41057,-0.023589,0.12789,-0.22993,-0.27765,-0.12155,0.89284,0.34849,0.23949,-0.007187,2.793,0.037968,0.093781,-0.0047814,0.099243,-0.076128,0.42897,-0.2515,3.3028
0.0084196,0.06275,0.034091,-0.0059822,-0.2399,0.27757,-0.065765,0.061547,-0.17022,-0.37415,-0.14845,0.76366,0.29215,0.30489,-0.025908,2.6864,0.03418,0.095317,-0.013043,0.10185,0.0089033,0.83886,-0.17051,3.2107
0.0063759,0.046262,0.02475,-0.013234,-0.14112,0.12678,-0.11436,-0.0039142,-0.081698,-0.40382,-0.17029,0.64989,0.20832,0.29764,-0.04629,2.4979,0.030537,0.099049,-0.020367,0.10918,0.052528,1.1941,-0.10903,3.1286
0.0046876,0.033706,0.014319,-0.016736,-0.02418,-0.0084425,-0.16765,-0.061107,0.025859,-0.37725,-0.1869,0.56375,0.11576,0.18989,-0.060123,2.3118,0.028835,0.10178,-0.028182,0.11932,0.062499,1.5118,-0.070063,3.2105
0.0037619,0.028054,0.0046747,-0.014042,0.09761,-0.098802,-0.2272,-0.10191,0.14337,-0.31959,-0.20013,0.51378,0.037073,0.006444,-0.062633,2.1635,0.029244,0.098743,-0.037348,0.12562,0.055448,1.7989,-0.047818,3.496
0.004104,0.028276,-0.0013843,-0.006865,0.20684,-0.12037,-0.29058,-0.10861,0.2677,-0.25994,-0.21237,0.49743,-0.011899,-0.18934,-0.055607,2.0083,0.030378,0.086255,-0.046935,0.12105,0.049287,2.0469,-0.035616,3.8954
0.005753,0.031248,-0.0015983,0.00073793,0.28652,-0.055211,-0.34724,-0.053811,0.40047,-0.21787,-0.22427,0.49476,-0.028636,-0.33313,-0.045084,1.7624,0.030431,0.063455,-0.054516,0.10304,0.058337,2.247,-0.030219,4.256
0.0078836,0.034374,0.0035764,0.0055165,0.3282,0.10317,-0.38419,0.085492,0.54154,-0.19346,-0.23418,0.47161,-0.023504,-0.39173,-0.035626,1.3765,0.028461,0.032882,-0.057882,0.075489,0.091143,2.4065,-0.030328,4.4581
0.0091708,0.036741,0.010025,0.0069967,0.33683,0.34028,-0.39821,0.30754,0.68275,-0.16729,-0.24044,0.3943,-0.013325,-0.36797,-0.025766,0.88276,0.024986,0.00024226,-0.056751,0.047035,0.14893,2.5468,-0.033031,4.4746
0.0087641,0.038486,0.011746,0.0071233,0.32727,0.61568,-0.40281,0.57548,0.80685,-0.11314,-0.24487,0.24792,-0.012915,-0.28281,-0.0082213,0.37917,0.021689,-0.026675,-0.052963,0.02684,0.22424,2.6829,-0.033601,4.3602
0.0069997,0.039634,0.0046165,0.0084285,0.31478,0.8723,-0.42094,0.82911,0.89349,-0.01847,-0.25364,0.045613,-0.02947,-0.15744,0.025052,-0.031581,0.020532,-0.040406,-0.04899,0.020461,0.30171,2.8051,-0.029794,4.1904
0.0051153,0.039662,-0.010595,0.012411,0.30729,1.06,-0.46657,1.0147,0.92861,0.10026,-0.27347,-0.17841,-0.062553,-0.011972,0.076423,-0.29897,0.022693,-0.037322,-0.046217,0.027688,0.36314,2.8817,-0.026291,4.0037
0.0041709,0.037893,-0.028538,0.019026,0.30555,1.1608,-0.53012,1.1138,0.91147,0.19977,-0.30514,-0.38761,-0.10835,0.12595,0.13921,-0.43936,0.027686,-0.020453,-0.044626,0.04307,0.39567,2.8856,-0.033775,3.7911
0.0041828,0.033962,-0.042881,0.026945,0.30897,1.1973,-0.58123,1.1508,0.85495,0.2322,-0.33982,-0.56136,-0.16365,0.22185,0.19964,-0.50882,0.033199,0.0010225,-0.044057,0.058766,0.39849,2.8225,-0.061716,3.5305
0.0042763,0.0278,-0.050494,0.033873,0.31944,1.2176,-0.58866,1.1738,0.77933,0.17463,-0.36229,-0.70122,-0.22582,0.25304,0.24295,-0.56414,0.036091,0.016689,-0.045489,0.068538,0.38346,2.7333,-0.11005,3.2294
0.0036215,0.019304,-0.052973,0.036877,0.33864,1.2652,-0.54173,1.224,0.70386,0.045787,-0.35994,-0.82346,-0.28936,0.22974,0.25958,-0.64089,0.034345,0.021781,-0.050684,0.07101,0.36884,2.6688,-0.16679,2.9359
0.0021358,0.0082692,-0.054591,0.033323,0.36217,1.355,-0.45599,1.3143,0.64143,-0.10363,-0.33116,-0.94481,-0.34412,0.19419,0.24805,-0.7541,0.028743,0.020963,-0.060268,0.070155,0.37044,2.6546,-0.21415,2.7091
0.00027705,-0.0051631,-0.05858,0.022626,0.37867,1.4714,-0.35906,1.4311,0.59844,-0.2224,-0.28685,-1.0723,-0.37913,0.19049,0.21357,-0.90737,0.022691,0.025166,-0.072243,0.072244,0.39557,2.6774,-0.23915,2.5761
-0.0016466,-0.019823,-0.064801,0.0078536,0.37702,1.5855,-0.27013,1.552,0.5776,-0.29133,-0.2433,-1.2036,-0.39077,0.22716,0.16411,-1.0959,0.019817,0.042808,-0.082756,0.080933,0.44303,2.7026,-0.24084,2.5125
-0.0036367,-0.03318,-0.070337,-0.0044984,0.35595,1.6754,-0.19153,1.662,0.57977,-0.33442,-0.21186,-1.3358,-0.3882,0.26571,0.10694,-1.3039,0.020987,0.071919,-0.088779,0.094039,0.50682,2.7053,-0.22925,2.4622
-0.0053192,-0.041877,-0.072097,-0.0074037,0.32647,1.7345,-0.11858,1.7552,0.60242,-0.40041,-0.19282,-1.4741,-0.38954,0.24902,0.047048,-1.5053,0.023338,0.10003,-0.090255,0.10483,0.57933,2.6867,-0.21771,2.3784
-0.0053529,-0.043254,-0.069156,0.0023087,0.30382,1.7628,-0.05625,1.8242,0.63703,-0.5275,-0.17755,-1.6323,-0.40987,0.14832,-0.012858,-1.6753,0.022513,0.11284,-0.089616,0.10724,0.6516,2.6599,-0.21461,2.2511
-0.0021365,-0.037312,-0.063229,0.021001,0.29536,1.7562,-0.024123,1.8529,0.66947,-0.71556,-0.15667,-1.8228,-0.44985,-0.011396,-0.072379,-1.8053,0.016403,0.10521,-0.089128,0.10098,0.7123,2.6211,-0.22019,2.1
0.004331,-0.027809,-0.057374,0.039345,0.29494,1.7045,-0.042382,1.8226,0.68553,-0.92426,-0.12734,-2.0411,-0.49463,-0.17087,-0.13371,-1.911,0.0071351,0.085432,-0.088731,0.092208,0.74917,2.536,-0.22942,1.9447
0.011267,-0.021099,-0.05419,0.047625,0.28834,1.6019,-0.11049,1.7284,0.67838,-1.097,-0.094388,-2.258,-0.52502,-0.28647,-0.20082,-2.0258,-0.0006029,0.068855,-0.086547,0.088958,0.7542,2.3578,-0.23716,1.7804
0.014416,-0.0225,-0.05465,0.042114,0.2645,1.4601,-0.19887,1.5905,0.65204,-1.1923,-0.065142,-2.4249,-0.53242,-0.36753,-0.27594,-2.1841,-0.003423,0.066029,-0.081481,0.094918,0.72917,2.0629,-0.24129,1.5835
0.011445,-0.032231,-0.057918,0.028001,0.22276,1.3096,-0.26362,1.4489,0.61731,-1.2007,-0.042533,-2.4916,-0.5254,-0.46663,-0.35423,-2.4021,-0.0018098,0.075043,-0.075125,0.10663,0.68609,1.6748,-0.24211,1.3369
0.0045588,-0.044292,-0.061873,0.016223,0.17121,1.1864,-0.27425,1.3429,0.58318,-1.1392,-0.022184,-2.4266,-0.52247,-0.62703,-0.42066,-2.6649,0.00081295,0.084227,-0.070935,0.11626,0.64061,1.2519,-0.23967,1.0522
-0.00053751,-0.050182,-0.064112,0.015866,0.11921,1.1135,-0.23225,1.2909,0.55063,-1.0312,0.004591,-2.2293,-0.53684,-0.83001,-0.45367,-2.9249,0.0013503,0.082377,-0.071428,0.11733,0.60274,0.8516,-0.23203,0.76432
0.00090589,-0.045434,-0.063218,0.027432,0.071197,1.089,-0.16622,1.2839,0.51384,-0.89031,0.044473,-1.9282,-0.56574,-0.98894,-0.43605,-3.1149,-0.00063637,0.067475,-0.076233,0.10876,0.57202,0.49886,-0.21601,0.50684
0.0084706,-0.033778,-0.059769,0.042193,0.025782,1.09,-0.10863,1.2944,0.46653,-0.72058,0.097345,-1.5684,-0.59286,-1.0021,-0.36701,-3.1746,-0.0035867,0.046814,-0.082867,0.09418,0.54128,0.18679,-0.18956,0.28936
0.016592,-0.024815,-0.056279,0.048568,-0.021326,1.0869,-0.073867,1.2938,0.40696,-0.52805,0.15615,-1.1969,-0.60183,-0.82812,-0.26656,-3.0814,-0.0064492,0.029439,-0.0893,0.07804,0.50538,-0.096721,-0.15359,0.098351
0.019176,-0.026415,-0.055662,0.040962,-0.073997,1.0593,-0.054338,1.2639,0.33701,-0.33165,0.21081,-0.85149,-0.58951,-0.52742,-0.1671,-2.8695,-0.010102,0.018331,-0.095591,0.062365,0.46683,-0.34335,-0.11176,-0.082316
0.014824,-0.038057,-0.05906,0.024269,-0.13339,1.0036,-0.034096,1.2012,0.25738,-0.1614,0.25311,-0.55741,-0.56842,-0.23501,-0.09661,-2.6227,-0.016122,0.0091706,-0.10294,0.046809,0.43278,-0.52456,-0.068526,-0.25213
0.0078381,-0.051136,-0.064819,0.010345,-0.19595,0.93014,-0.0054204,1.1128,0.16539,-0.044952,0.27939,-0.32777,-0.55681,-0.082708,-0.064478,-2.4391,-0.024328,-0.0041457,-0.1113,0.031132,0.40612,-0.61611,-0.027101,-0.39411
0.004031,-0.056265,-0.069778,0.0090527,-0.2519,0.85398,0.026435,1.0112,0.058724,0.0066899,0.29038,-0.16545,-0.56476,-0.12562,-0.05974,-2.3866,-0.031919,-0.023128,-0.11814,0.016983,0.37877,-0.62209,0.011113,-0.49174
0.0052926,-0.051218,-0.072055,0.020864,-0.28662,0.78573,0.051987,0.90932,-0.058515,0.0023347,0.2893,-0.064763,-0.58753,-0.32339,-0.062471,-2.4741,-0.035409,-0.043443,-0.11999,0.0068874,0.33372,-0.57524,0.045661,-0.54424
0.0081108,-0.042444,-0.07288,0.036806,-0.28708,0.72686,0.068777,0.81643,-0.17449,-0.040147,0.27972,-0.014279,-0.6113,-0.58351,-0.059118,-2.6561,-0.03366,-0.059333,-0.11535,0.001489,0.25469,-0.51395,0.075875,-0.56546
0.0074378,-0.038923,-0.075549,0.045656,-0.25041,0.67199,0.083388,0.73572,-0.27577,-0.11041,0.26414,-0.0021215,-0.62574,-0.82739,-0.050313,-2.8636,-0.029066,-0.068879,-0.10626,-0.0018899,0.13575,-0.45825,0.10061,-0.56921
0.0020639,-0.044152,-0.082181,0.042565,-0.18815,0.6155,0.10293,0.66568,-0.35601,-0.21521,0.24361,-0.021883,-0.63275,-1.0282,-0.046434,-3.0357,-0.025694,-0.074931,-0.096922,-0.007415,-0.016505,-0.40653,0.11893,-0.55764
-0.0038407,-0.053511,-0.09123,0.032309,-0.12073,0.55782,0.12549,0.60473,-0.41871,-0.37288,0.21836,-0.074211,-0.64392,-1.1982,-0.056171,-3.1323,-0.026015,-0.081116,-0.090527,-0.016868,-0.18847,-0.35377,0.13078,-0.52437
-0.0046256,-0.059058,-0.098329,0.024914,-0.064445,0.5063,0.13959,0.55551,-0.47112,-0.59571,0.18949,-0.1602,-0.66901,-1.3478,-0.078212,-3.1225,-0.029146,-0.087141,-0.087134,-0.027194,-0.36696,-0.31077,0.13671,-0.46841
0.0012069,-0.056971,-0.10007,0.027452,-0.020481,0.47006,0.13355,0.52404,-0.51516,-0.87263,0.16056,-0.26928,-0.70563,-1.459,-0.10238,-2.9699,-0.032017,-0.088165,-0.084428,-0.03202,-0.54186,-0.3041,0.137,-0.40364
0.0090596,-0.050788,-0.09733,0.038586,0.024821,0.45258,0.10568,0.51365,-0.54445,-1.1658,0.13753,-0.37142,-0.73948,-1.4985,-0.11804,-2.6339,-0.032285,-0.07896,-0.080517,-0.026389,-0.70273,-0.35555,0.13136,-0.35363
0.011916,-0.047925,-0.094946,0.049893,0.087757,0.44874,0.065705,0.51947,-0.55094,-1.4253,0.12608,-0.42397,-0.75565,-1.4548,-0.12191,-2.0954,-0.030384,-0.059038,-0.076039,-0.011047,-0.83451,-0.4604,0.1199,-0.33608
0.0062995,-0.053136,-0.097641,0.052459,0.17232,0.44923,0.026144,0.5299,-0.53513,-1.6131,0.12783,-0.3933,-0.75144,-1.3637,-0.11912,-1.3886,-0.029063,-0.033913,-0.073494,0.007301,-0.91831,-0.58504,0.10483,-0.35096
-0.0048198,-0.064913,-0.10577,0.043332,0.2645,0.44918,-0.0078121,0.53534,-0.50952,-1.7186,0.13865,-0.27831,-0.73894,-1.2939,-0.11754,-0.61177,-0.030974,-0.011252,-0.074343,0.020339,-0.93857,-0.68733,0.091078,-0.3821
-0.014584,-0.077552,-0.11472,0.026987,0.34056,0.45315,-0.040717,0.5364,-0.49115,-1.7557,0.15104,-0.11698,-0.73395,-1.3048,-0.12146,0.097238,-0.036366,0.0047575,-0.076605,0.023987,-0.89174,-0.74295,0.084785,-0.40967
-0.017766,-0.086325,-0.11858,0.011299,0.38292,0.47124,-0.079928,0.54308,-0.48935,-1.7425,0.15933,0.032881,-0.7397,-1.4107,-0.13006,0.61421,-0.042711,0.015806,-0.075382,0.021208,-0.78952,-0.75668,0.089919,-0.42228
-0.014463,-0.090826,-0.11482,0.0017216,0.39149,0.50835,-0.12678,0.56385,-0.49981,-1.6817,0.16356,0.12809,-0.73956,-1.58,-0.14131,0.87845,-0.046459,0.026509,-0.066241,0.019307,-0.65395,-0.75138,0.10534,-0.41996
-0.009206,-0.09388,-0.10599,-0.0016956,0.38202,0.55486,-0.17469,0.59367,-0.51055,-1.5587,0.16839,0.1657,-0.7063,-1.7656,-0.15674,0.9101,-0.045543,0.038738,-0.048767,0.023466,-0.50791,-0.74649,0.12456,-0.40851
-0.0068754,-0.097742,-0.097054,-0.0026865,0.37361,0.58689,-0.21554,0.61221,-0.51453,-1.3582,0.17792,0.18057,-0.62163,-1.9352,-0.18167,0.78566,-0.040776,0.048456,-0.027352,0.031534,-0.36776,-0.7446,0.13895,-0.39242
-0.0091512,-0.10159,-0.091256,-0.0046591,0.3753,0.5773,-0.24758,0.59577,-0.51747,-1.0878,0.19093,0.2167,-0.49091,-2.0736,-0.21972,0.59166,-0.035208,0.048209,-0.0084966,0.034653,-0.2425,-0.73515,0.14286,-0.37226
-0.014131,-0.10263,-0.088119,-0.0078881,0.38145,0.5111,-0.27656,0.53482,-0.53365,-0.78517,0.20129,0.2949,-0.3411,-2.16,-0.26582,0.39054,-0.032003,0.0336,0.00323,0.02404,-0.1373,-0.70881,0.13721,-0.34672
-0.018673,-0.099515,-0.085112,-0.010166,0.3782,0.39557,-0.30932,0.4438,-0.57329,-0.50207,0.20375,0.40166,-0.20387,-2.1506,-0.3043,0.22003,-0.032452,0.0084421,0.0074837,-0.00097799,-0.056244,-0.66793,0.12906,-0.31559
-0.020964,-0.094575,-0.080751,-0.0098497,0.35489,0.25878,-0.34677,0.35526,-0.63206,-0.27442,0.20015,0.50634,-0.097344,-1.9934,-0.31534,0.1169,-0.035546,-0.015961,0.0071702,-0.030324,-0.00082973,-0.62482,0.12676,-0.28066
-0.021255,-0.092577,-0.075955,-0.008261,0.31177,0.13711,-0.38355,0.30188,-0.69152,-0.10266,0.20037,0.58931,-0.02018,-1.6684,-0.28667,0.13375,-0.039259,-0.027436,0.0054095,-0.049017,0.033787,-0.59158,0.13394,-0.24506
-0.020778,-0.096899,-0.072528,-0.0092186,0.25906,0.058545,-0.41472,0.29825,-0.72951,0.041535,0.21619,0.65514,0.039755,-1.217,-0.22259,0.32362,-0.042356,-0.020958,0.0031354,-0.047903,0.059329,-0.57228,0.14647,-0.21311
-0.020382,-0.10648,-0.070691,-0.016073,0.20938,0.03083,-0.44183,0.33428,-0.73224,0.18722,0.25253,0.71905,0.091777,-0.72756,-0.1433,0.69892,-0.045192,-0.0025106,-0.00081141,-0.031363,0.088851,-0.56414,0.15493,-0.19088
-0.020213,-0.11627,-0.068395,-0.028783,0.16987,0.04085,-0.47172,0.38377,-0.69931,0.33811,0.30287,0.78065,0.13602,-0.28107,-0.074163,1.2,-0.048868,0.013642,-0.0074871,-0.015876,0.12827,-0.56447,0.15132,-0.18607
-0.02036,-0.12087,-0.063171,-0.043525,0.13955,0.06573,-0.50875,0.42171,-0.63998,0.4708,0.35259,0.8112,0.16806,0.099245,-0.032016,1.7073,-0.053492,0.012214,-0.015609,-0.02018,0.17204,-0.57532,0.13524,-0.20582
-0.021364,-0.11841,-0.054541,-0.055229,0.11283,0.08847,-0.54883,0.43836,-0.56547,0.55813,0.38777,0.76914,0.18775,0.44998,-0.018019,2.0973,-0.057028,-0.015899,-0.021182,-0.05405,0.20739,-0.60078,0.1151,-0.25345
-0.02377,-0.11152,-0.04452,-0.061114,0.085503,0.10712,-0.58204,0.44066,-0.48388,0.59596,0.40263,0.63179,0.20283,0.81772,-0.021229,2.3057,-0.055804,-0.070147,-0.019295,-0.11333,0.2244,-0.64024,0.10319,-0.32639
-0.027042,-0.10459,-0.035687,-0.062459,0.058364,0.12986,-0.60231,0.44025,-0.40011,0.60782,0.40027,0.41494,0.22405,1.2011,-0.028733,2.3537,-0.046598,-0.14128,-0.0067968,-0.18358,0.22382,-0.68484,0.10796,-0.4167
-0.029062,-0.0999,-0.028819,-0.063199,0.036128,0.15902,-0.61431,0.43753,-0.31821,0.62216,0.38696,0.16214,0.25735,1.538,-0.033532,2.3215,-0.029077,-0.21507,0.015847,-0.24825,0.21613,-0.72062,0.12904,-0.5129
-0.027078,-0.095801,-0.022476,-0.066459,0.023306,0.17732,-0.62963,0.4152,-0.24233,0.64384,0.36519,-0.086481,0.30102,1.7523,-0.034657,2.2922,-0.0069743,-0.27649,0.044503,-0.29527,0.21279,-0.73549,0.15836,-0.60142
-0.019771,-0.088587,-0.014927,-0.071804,0.020997,0.15058,-0.65377,0.34822,-0.17477,0.64857,0.33135,-0.31764,0.35028,1.8202,-0.031901,2.3065,0.013084,-0.3134,0.073081,-0.31881,0.21744,-0.72418,0.18632,-0.66736
-0.0089001,-0.076524,-0.0064298,-0.075579,0.027287,0.049096,-0.67529,0.22431,-0.11341,0.60884,0.2797,-0.53996,0.40399,1.7968,-0.022329,2.3551,0.024843,-0.31943,0.096203,-0.31799,0.22433,-0.68931,0.20784,-0.6971
0.0010208,-0.062488,0.00053226,-0.074233,0.040604,-0.12705,-0.66798,0.059007,-0.051766,0.52935,0.2093,-0.75837,0.46631,1.7767,-0.0029012,2.4005,0.026082,-0.29609,0.11166,-0.29591,0.22488,-0.64139,0.22334,-0.68421
0.005232,-0.052695,0.0034445,-0.068035,0.062616,-0.33974,-0.60668,-0.10856,0.017248,0.45746,0.12806,-0.95509,0.54106,1.8187,0.023936,2.4053,0.020295,-0.25328,0.1214,-0.26039,0.21567,-0.60076,0.23402,-0.6367
0.001876,-0.052178,0.0024041,-0.061945,0.09749,-0.53153,-0.48584,-0.2384,0.096135,0.45403,0.05054,-1.098,0.62383,1.8971,0.048878,2.3465,0.014871,-0.20717,0.13034,-0.2241,0.20063,-0.59901,0.23604,-0.57987
-0.006553,-0.060532,0.00069457,-0.062548,0.14745,-0.6598,-0.32654,-0.31442,0.17974,0.54488,-0.0094345,-1.1692,0.69954,1.9197,0.062001,2.2143,0.016488,-0.17516,0.1432,-0.20142,0.18592,-0.67367,0.21982,-0.5499
-0.014726,-0.071489,0.0026355,-0.073067,0.208,-0.72091,-0.16635,-0.35197,0.25639,0.69209,-0.046748,-1.1876,0.74848,1.7972,0.061849,2.0061,0.026662,-0.16933,0.16121,-0.20216,0.17293,-0.85288,0.17662,-0.57926
-0.017982,-0.076901,0.010505,-0.09032,0.26715,-0.74612,-0.03898,-0.38205,0.31236,0.80986,-0.068477,-1.2034,0.75645,1.5053,0.058553,1.7249,0.040675,-0.19111,0.18098,-0.22594,0.15672,-1.1361,0.10797,-0.68113
-0.015193,-0.07209,0.023097,-0.10624,0.31032,-0.77366,0.041846,-0.42545,0.33697,0.81396,-0.090631,-1.2713,0.72068,1.0942,0.066864,1.3836,0.050953,-0.23024,0.19657,-0.2617,0.13132,-1.4837,0.029706,-0.84167
-0.0088738,-0.058475,0.036945,-0.11318,0.32826,-0.82001,0.084296,-0.47827,0.32609,0.66885,-0.1299,-1.4229,0.64753,0.64413,0.094246,1.0087,0.052566,-0.26875,0.20349,-0.29315,0.096926,-1.8255,-0.034293,-1.0241
-0.0026562,-0.041687,0.048918,-0.10925,0.32262,-0.87246,0.10693,-0.52011,0.28301,0.40115,-0.19494,-1.6589,0.54529,0.21391,0.13421,0.64006,0.046748,-0.28858,0.20178,-0.30681,0.061902,-2.0856,-0.065507,-1.1816
0.0015575,-0.027121,0.057982,-0.099544,0.30502,-0.9058,0.12414,-0.53622,0.21739,0.076994,-0.28187,-1.9556,0.42058,-0.17229,0.17091,0.32564,0.039685,-0.27885,0.19567,-0.29736,0.03734,-2.2109,-0.061798,-1.2723
0.0044099,-0.016595,0.064955,-0.092167,0.29017,-0.9061,0.13923,-0.53318,0.14276,-0.23472,-0.37623,-2.274,0.28279,-0.49466,0.19123,0.10811,0.03753,-0.23941,0.19019,-0.26779,0.02888,-2.1866,-0.037679,-1.2708
0.007512,-0.0083294,0.071037,-0.091913,0.28773,-0.88143,0.14811,-0.53452,0.072857,-0.48806,-0.46008,-2.5625,0.15272,-0.70375,0.19464,0.0065643,0.041629,-0.17921,0.18738,-0.22555,0.032877,-2.0344,-0.013806,-1.1744
0.011316,0.00055863,0.076695,-0.096538,0.29844,-0.8535,0.14813,-0.56143,0.017464,-0.66632,-0.52052,-2.764,0.065089,-0.72753,0.19303,-0.00064094,0.047732,-0.11145,0.18545,-0.17866,0.03985,-1.7958,-0.0040539,-1.0047
0.014589,0.011575,0.081769,-0.098801,0.31658,-0.84158,0.14353,-0.61681,-0.020835,-0.77659,-0.55557,-2.8375,0.057688,-0.52409,0.20155,0.022079,0.049657,-0.04846,0.18095,-0.13401,0.041661,-1.5153,-0.0099234,-0.80303
0.015872,0.024119,0.086267,-0.092825,0.33549,-0.85344,0.14347,-0.68652,-0.047239,-0.84265,-0.57491,-2.7858,0.15121,-0.13648,0.22806,-0.0090043,0.044282,0.0012541,0.17205,-0.097139,0.036012,-1.2309,-0.025151,-0.62045
0.015246,0.036299,0.090748,-0.079591,0.3513,-0.88847,0.15558,-0.75465,-0.071796,-0.89794,-0.59516,-2.6663,0.33314,0.30499,0.26876,-0.15321,0.033798,0.033621,0.15962,-0.071706,0.02504,-0.97504,-0.044631,-0.50284
0.014443,0.04605,0.095821,-0.066726,0.36185,-0.94462,0.18129,-0.81702,-0.10419,-0.97475,-0.63176,-2.5645,0.55888,0.64765,0.31185,-0.40565,0.023636,0.048627,0.14539,-0.057988,0.010559,-0.77787,-0.068777,-0.47695
0.015084,0.051871,0.10137,-0.062419,0.36312,-1.02,0.21654,-0.88013,-0.14907,-1.0908,-0.69077,-2.5426,0.77173,0.80565,0.34502,-0.69022,0.018059,0.049792,0.12937,-0.052246,-0.008749,-0.66675,-0.099671,-0.54416
0.01681,0.05339,0.10637,-0.068403,0.34762,-1.1083,0.2563,-0.94884,-0.2046,-1.2418,-0.76471,-2.6011,0.92955,0.80604,0.36137,-0.89591,0.017136,0.043203,0.10934,-0.048749,-0.035409,-0.65846,-0.13362,-0.68525
0.017377,0.052008,0.10965,-0.078046,0.30755,-1.1969,0.29821,-1.0175,-0.2649,-1.4085,-0.83525,-2.6868,1.0206,0.75613,0.36057,-0.93723,0.017368,0.035456,0.083444,-0.043647,-0.068796,-0.75066,-0.15833,-0.8725
0.014911,0.051003,0.11088,-0.081332,0.24109,-1.2737,0.34223,-1.0754,-0.32438,-1.5736,-0.88226,-2.7422,1.0595,0.75868,0.34638,-0.80126,0.015115,0.030957,0.05332,-0.03735,-0.10316,-0.92117,-0.15857,-1.0816
0.010308,0.054234,0.11092,-0.072677,0.15635,-1.3381,0.38761,-1.1219,-0.381,-1.7352,-0.89442,-2.7538,1.0684,0.84103,0.32326,-0.55318,0.0098591,0.030333,0.024838,-0.032878,-0.13055,-1.1391,-0.12637,-1.2971
0.007321,0.063622,0.11106,-0.055128,0.069504,-1.4047,0.43075,-1.1744,-0.43612,-1.9017,-0.87479,-2.7584,1.0585,0.94882,0.29417,-0.30125,0.0047627,0.031383,0.0051644,-0.031444,-0.14643,-1.3808,-0.067402,-1.5103
0.0097961,0.077193,0.11188,-0.03767,-0.0023061,-1.4924,0.46668,-1.258,-0.49167,-2.0724,-0.83719,-2.8004,1.0249,1.0001,0.26046,-0.14807,0.0043238,0.031926,-0.0015258,-0.029721,-0.15288,-1.6371,0.0017244,-1.7147
0.01818,0.089701,0.11255,-0.028203,-0.048217,-1.6061,0.49273,-1.3833,-0.54691,-2.2223,-0.79596,-2.8784,0.95529,0.94905,0.22309,-0.15737,0.011079,0.031995,0.0037095,-0.022048,-0.15624,-1.9043,0.063049,-1.9025
0.028394,0.096027,0.1113,-0.028055,-0.066376,-1.7269,0.51106,-1.5313,-0.59772,-2.3093,-0.75649,-2.9286,0.84459,0.80961,0.18433,-0.34686,0.023761,0.033205,0.015877,-0.0060936,-0.16069,-2.1629,0.10631,-2.0652
0.03439,0.094972,0.1066,-0.032065,-0.061328,-1.8217,0.52769,-1.6617,-0.63892,-2.3006,-0.71373,-2.8614,0.70171,0.62915,0.14848,-0.69685,0.038013,0.035829,0.029215,0.013357,-0.16303,-2.3644,0.1315,-2.1956
0.032569,0.090224,0.098406,-0.033426,-0.039353,-1.8658,0.54869,-1.7388,-0.668,-2.1974,-0.65926,-2.6203,0.5464,0.44571,0.1209,-1.16,0.048922,0.036523,0.039346,0.026576,-0.15337,-2.442,0.14467,-2.2893
0.024554,0.087361,0.088357,-0.028866,-0.0058351,-1.8613,0.57655,-1.756,-0.68739,-2.0348,-0.59028,-2.2144,0.3997,0.26843,0.10574,-1.6673,0.053583,0.029392,0.043244,0.025731,-0.12182,-2.3439,0.15182,-2.3442
0.016005,0.089164,0.078956,-0.020228,0.034034,-1.835,0.60923,-1.7386,-0.70333,-1.8561,-0.51274,-1.6998,0.27704,0.092177,0.10381,-2.1385,0.052163,0.010102,0.038512,0.010661,-0.066826,-2.0697,0.15576,-2.3597
0.012394,0.093192,0.072162,-0.01201,0.073403,-1.8187,0.64194,-1.7237,-0.72186,-1.6815,-0.43603,-1.1307,0.18775,-0.075894,0.11218,-2.5006,0.047113,-0.02018,0.024035,-0.011265,0.0010444,-1.6815,0.15671,-2.3374
0.01509,0.093751,0.06832,-0.0076246,0.10384,-1.8271,0.67018,-1.7339,-0.74461,-1.4995,-0.36486,-0.52563,0.13837,-0.20829,0.12586,-2.7111,0.041415,-0.054281,0.0020662,-0.030708,0.063011,-1.2798,0.1544,-2.2824
0.020723,0.086635,0.066058,-0.007493,0.11821,-1.8507,0.69214,-1.7663,-0.76714,-1.2857,-0.2961,0.12083,0.1341,-0.27614,0.14032,-2.7693,0.037161,-0.082449,-0.020678,-0.042166,0.10155,-0.95532,0.14881,-2.2058
0.024063,0.0726,0.063171,-0.0098513,0.11431,-1.8676,0.7096,-1.8014,-0.7811,-1.0326,-0.2236,0.79528,0.17549,-0.27646,0.15302,-2.711,0.035218,-0.097142,-0.035215,-0.04533,0.10927,-0.75049,0.13939,-2.1237
0.021943,0.056775,0.057975,-0.01269,0.095868,-1.8621,0.72705,-1.8229,-0.77853,-0.76361,-0.14628,1.4349,0.25349,-0.24119,0.16322,-2.5883,0.035652,-0.09613,-0.03523,-0.042092,0.091466,-0.65184,0.12483,-2.0538
0.015263,0.044836,0.050346,-0.014732,0.070037,-1.835,0.74896,-1.829,-0.75561,-0.52243,-0.071244,1.9437,0.34849,-0.21876,0.17076,-2.4507,0.038092,-0.082728,-0.021232,-0.03345,0.061215,-0.61539,0.10443,-2.0101
0.00791,0.039435,0.041762,-0.014909,0.042774,-1.799,0.77594,-1.8297,-0.71325,-0.34856,-0.008877,2.2475,0.43594,-0.24322,0.1748,-2.3359,0.041561,-0.064153,-0.0004464,-0.019928,0.030889,-0.60209,0.080144,-1.9996
0.003848,0.039663,0.034259,-0.011617,0.015765,-1.7674,0.80183,-1.8348,-0.65495,-0.26011,0.035716,2.3431,0.49574,-0.31602,0.17337,-2.2695,0.044231,-0.049142,0.017808,-0.004511,0.0060652,-0.59773,0.056873,-2.0234
0.0046264,0.043222,0.0289,-0.0032151,-0.013061,-1.7457,0.81485,-1.8463,-0.58405,-0.25267,0.066933,2.2985,0.51907,-0.41392,0.16359,-2.2656,0.043906,-0.044882,0.027859,0.0064475,-0.014766,-0.60816,0.03996,-2.0811
0.0088551,0.048613,0.024902,0.01031,-0.045996,-1.7339,0.80369,-1.8608,-0.50327,-0.3075,0.094918,2.203,0.50845,-0.51463,0.14246,-2.3244,0.039384,-0.053095,0.030361,0.0073236,-0.035934,-0.64165,0.031646,-2.1744
0.013595,0.055253,0.020216,0.026233,-0.081909,-1.7341,0.76545,-1.8769,-0.4167,-0.39732,0.12779,2.1058,0.47236,-0.61787,0.10853,-2.4271,0.031728,-0.066852,0.030312,-0.00022825,-0.059986,-0.69817,0.029378,-2.3066
0.016462,0.062066,0.013255,0.040087,-0.11539,-1.7532,0.70928,-1.9002,-0.33196,-0.48709,0.16716,1.9975,0.41907,-0.7439,0.064116,-2.5366,0.024144,-0.071463,0.032467,-0.0048026,-0.086177,-0.77393,0.027505,-2.4768
0.017047,0.06681,0.004351,0.048434,-0.13957,-1.7995,0.6517,-1.9397,-0.25937,-0.53769,0.21027,1.8479,0.35412,-0.91039,0.016771,-2.6065,0.020128,-0.051445,0.037726,0.0087751,-0.11218,-0.87283,0.020965,-2.6738
0.016852,0.067402,-0.0044362,0.051201,-0.15077,-1.8743,0.60583,-2.0001,-0.20726,-0.51881,0.25501,1.6688,0.2813,-1.1066,-0.021594,-2.5975,0.021117,-0.00083689,0.042767,0.047898,-0.13651,-1.0084,0.0079059,-2.8739
0.017837,0.06393,-0.011137,0.051489,-0.152,-1.968,0.57281,-2.0765,-0.17671,-0.425,0.30158,1.5416,0.20447,-1.2879,-0.03884,-2.4952,0.025476,0.070166,0.042484,0.10398,-0.15922,-1.1894,-0.010638,-3.0444
0.020546,0.058863,-0.015697,0.052886,-0.15297,-2.0628,0.54246,-2.1558,-0.15984,-0.2807,0.34864,1.5796,0.1277,-1.3991,-0.028229,-2.3203,0.029637,0.13841,0.033118,0.15524,-0.18055,-1.4,-0.033162,-3.1524
0.023179,0.054602,-0.020042,0.056502,-0.16616,-2.1394,0.50324,-2.2223,-0.14397,-0.12621,0.38846,1.8441,0.054254,-1.4132,0.0078415,-2.1248,0.030497,0.18007,0.014202,0.17986,-0.19939,-1.5914,-0.059463,-3.1747
0.022514,0.050502,-0.026228,0.060167,-0.20099,-2.1842,0.4531,-2.264,-0.11895,0.006219,0.40758,2.2802,-0.013866,-1.3589,0.05866,-1.9697,0.027218,0.18384,-0.011288,0.16985,-0.21302,-1.6976,-0.089905,-3.1078
0.016321,0.042599,-0.034407,0.060427,-0.25883,-2.1928,0.40231,-2.277,-0.082717,0.10669,0.39412,2.7261,-0.075024,-1.3125,0.11026,-1.8919,0.0213,0.15543,-0.038205,0.13504,-0.21866,-1.6662,-0.12293,-2.9718
0.0055706,0.027081,-0.042579,0.055637,-0.33129,-2.1705,0.36553,-2.2666,-0.041236,0.18121,0.34626,2.999,-0.12762,-1.3567,0.15136,-1.878,0.015262,0.11053,-0.061228,0.094381,-0.21555,-1.4858,-0.15362,-2.8064
-0.0054498,0.0048689,-0.048362,0.047721,-0.40274,-2.1303,0.35002,-2.2449,-0.0037371,0.23361,0.27487,2.9998,-0.17204,-1.5303,0.17651,-1.8629,0.011181,0.062822,-0.076881,0.061865,-0.20626,-1.1911,-0.17543,-2.6535
-0.011589,-0.016975,-0.051052,0.041299,-0.45621,-2.0873,0.34968,-2.2266,0.022596,0.25723,0.19809,2.7655,-0.21364,-1.8021,0.18492,-1.7632,0.0099314,0.017129,-0.084731,0.038879,-0.1966,-0.84619,-0.18452,-2.5341
-0.010282,-0.029024,-0.052044,0.040878,-0.48008,-2.0509,0.3494,-2.2212,0.034889,0.2485,0.13271,2.4315,-0.26258,-2.0884,0.17725,-1.5245,0.011102,-0.027503,-0.086997,0.018302,-0.19441,-0.51792,-0.18356,-2.4299
-0.0033802,-0.026034,-0.053338,0.048023,-0.47282,-2.0177,0.33591,-2.2275,0.033718,0.23049,0.089018,2.139,-0.32751,-2.3017,0.15347,-1.1562,0.013215,-0.069501,-0.08663,-0.004622,-0.20784,-0.25623,-0.1815,-2.2887
0.0041488,-0.011149,-0.055734,0.060295,-0.44302,-1.9724,0.30638,-2.232,0.021783,0.26001,0.071105,1.9543,-0.40563,-2.3969,0.11364,-0.7282,0.014233,-0.1006,-0.085067,-0.025272,-0.24356,-0.088073,-0.189,-2.0544
0.0077486,0.0058013,-0.058394,0.072551,-0.40415,-1.8971,0.26878,-2.216,0.0040667,0.4021,0.079157,1.8559,-0.47717,-2.3814,0.060743,-0.33414,0.012563,-0.11072,-0.081392,-0.032915,-0.30544,-0.021086,-0.21209,-1.7072
0.0063046,0.01484,-0.059979,0.079838,-0.36628,-1.7838,0.23477,-2.1648,-0.011649,0.68507,0.10958,1.7855,-0.51104,-2.284,0.0027768,-0.045168,0.0082659,-0.097435,-0.073696,-0.020843,-0.39358,-0.049228,-0.24861,-1.2822
0.0024042,0.012311,-0.060008,0.080219,-0.32927,-1.6398,0.21138,-2.0751,-0.016728,1.0707,0.1531,1.7103,-0.48093,-2.1086,-0.048215,0.11843,0.0034357,-0.07071,-0.061581,0.0062906,-0.50375,-0.15636,-0.28987,-0.85059
-0.00017102,0.0025119,-0.059157,0.075835,-0.2823,-1.4833,0.19725,-1.9556,-0.0067264,1.4663,0.19517,1.6444,-0.38189,-1.8143,-0.080316,0.1866,0.00095263,-0.047338,-0.047692,0.034765,-0.6266,-0.31897,-0.32617,-0.47036
0.00049434,-0.0064124,-0.058504,0.071431,-0.21165,-1.3317,0.18501,-1.8199,0.013902,1.7751,0.22178,1.6196,-0.23569,-1.3397,-0.08746,0.21834,0.0021717,-0.03925,-0.036905,0.051715,-0.747,-0.50943,-0.35217,-0.14584
0.0033114,-0.0088113,-0.058766,0.071117,-0.11299,-1.1946,0.16652,-1.6802,0.032344,1.9475,0.22767,1.64,-0.080679,-0.65976,-0.07387,0.27506,0.0054658,-0.045472,-0.033731,0.05405,-0.84448,-0.69865,-0.36817,0.17216
0.0056439,-0.0052847,-0.060262,0.075433,-0.00011153,-1.0751,0.13696,-1.5438,0.034549,1.9999,0.22013,1.6687,0.046587,0.16939,-0.054439,0.39839,0.0072019,-0.05435,-0.039943,0.049211,-0.89656,-0.85616,-0.37665,0.54265
0.005821,-0.0014075,-0.063211,0.080845,0.097432,-0.97615,0.095676,-1.4149,0.014267,1.9904,0.21343,1.656,0.1251,1.0112,-0.049521,0.59502,0.0046458,-0.053548,-0.054032,0.048027,-0.88539,-0.94949,-0.37729,0.98211
0.0044534,-0.0029593,-0.067581,0.082244,0.14842,-0.90308,0.044953,-1.2972,-0.023201,1.9746,0.21748,1.5816,0.15053,1.6999,-0.075204,0.83123,-0.0016876,-0.039065,-0.072489,0.056257,-0.80564,-0.94699,-0.36458,1.4472
0.0035619,-0.011541,-0.072474,0.076788,0.13792,-0.85824,-0.011114,-1.1938,-0.065858,1.976,0.22958,1.4689,0.12674,2.112,-0.13341,1.0422,-0.008492,-0.016607,-0.09159,0.071232,-0.66889,-0.82603,-0.32992,1.868
0.0045051,-0.023664,-0.076012,0.066238,0.077098,-0.83387,-0.066784,-1.105,-0.10434,1.9862,0.23664,1.3573,0.057997,2.2143,-0.20786,1.1574,-0.012668,0.0037527,-0.10853,0.084642,-0.50053,-0.58157,-0.26668,2.2026
0.0066384,-0.033515,-0.076402,0.055949,-0.0025489,-0.81188,-0.1149,-1.0257,-0.13766,1.9846,0.22649,1.26,-0.050748,2.0662,-0.2699,1.132,-0.014089,0.013314,-0.12179,0.08763,-0.32945,-0.22748,-0.17446,2.4689
0.0078465,-0.037005,-0.073518,0.051181,-0.066949,-0.77338,-0.14852,-0.94701,-0.1705,1.9557,0.19881,1.1458,-0.18738,1.7777,-0.2923,0.9643,-0.015425,0.0063039,-0.13127,0.074071,-0.17622,0.21051,-0.060191,2.7245
0.0064099,-0.034232,-0.069376,0.053519,-0.097549,-0.71096,-0.16372,-0.86098,-0.20524,1.8923,0.16679,0.96459,-0.32881,1.4525,-0.2631,0.68934,-0.019119,-0.021479,-0.13838,0.041376,-0.047409,0.70203,0.063546,3.0158
0.0025647,-0.029,-0.066714,0.06003,-0.098144,-0.63373,-0.16189,-0.76593,-0.2364,1.7921,0.14772,0.69433,-0.44627,1.1457,-0.19081,0.35408,-0.024495,-0.072252,-0.14553,-0.0091221,0.060112,1.2096,0.18114,3.3408
-0.0015574,-0.026106,-0.066829,0.065628,-0.087628,-0.56088,-0.14959,-0.66895,-0.25316,1.6584,0.15058,0.36916,-0.51737,0.85532,-0.097548,0.00013165,-0.028014,-0.14209,-0.1545,-0.070759,0.14866,1.6788,0.27645,3.6555
-0.0035625,-0.028362,-0.068782,0.066676,-0.085664,-0.50926,-0.13598,-0.58368,-0.24777,1.5063,0.17028,0.063865,-0.5354,0.54605,-0.0057203,-0.33079,-0.026654,-0.21652,-0.16448,-0.13041,0.21218,2.0362,0.33597,3.9161
-0.0026879,-0.035131,-0.070789,0.063112,-0.10173,-0.48448,-0.12962,-0.52422,-0.22241,1.3651,0.19278,-0.15376,-0.50864,0.18899,0.072294,-0.57778,-0.021134,-0.27152,-0.17103,-0.17035,0.23866,2.2128,0.35332,4.1156
-0.00044989,-0.043097,-0.072363,0.057793,-0.1334,-0.48093,-0.13647,-0.49789,-0.18845,1.2664,0.20607,-0.2645,-0.45105,-0.20734,0.13502,-0.65755,-0.015631,-0.28217,-0.16769,-0.17398,0.22137,2.1868,0.3333,4.2816
0.00047971,-0.048646,-0.074893,0.0539,-0.17194,-0.48825,-0.15924,-0.50022,-0.1586,1.2247,0.20793,-0.30172,-0.37274,-0.59172,0.18534,-0.49647,-0.01394,-0.23471,-0.14968,-0.13333,0.16951,2.0153,0.29178,4.4404
-0.0016967,-0.050355,-0.080004,0.052544,-0.20902,-0.49757,-0.19693,-0.5148,-0.13815,1.2258,0.20491,-0.31856,-0.27781,-0.89154,0.22411,-0.081481,-0.015722,-0.13502,-0.11763,-0.054324,0.10824,1.8235,0.24908,4.5824
-0.0065537,-0.049984,-0.087437,0.052231,-0.23934,-0.50238,-0.24372,-0.51846,-0.12176,1.2372,0.20475,-0.34851,-0.16945,-1.0447,0.25005,0.5141,-0.016677,-0.0086218,-0.078734,0.043317,0.066149,1.7432,0.21957,4.6641
