3.4535e-010,2.8264e-009,4.4586e-009,-3.5306e-010,-3.9165e-010,-9.3359e-009,1.229e-009,-2.6451e-009,-1.3698e-010,-1.4142e-009,1.2714e-009,-1.6573e-009,1.6303e-009,-2.348e-009,2.0354e-009,-4.1847e-009,6.386e-010,-1.0611e-010,-8.0066e-010,1.0746e-009,-1.7422e-009,3.9377e-009,2.2091e-009,3.3203e-009
9.8133e-009,7.8587e-008,1.2313e-007,-9.7911e-009,-1.0587e-008,-2.5833e-007,3.3698e-008,-7.3344e-008,-3.8817e-009,-3.9021e-008,3.5655e-008,-4.6009e-008,4.5513e-008,-6.5419e-008,5.6157e-008,-1.1589e-007,1.7662e-008,-2.9747e-009,-2.1728e-008,2.9217e-008,-4.8096e-008,1.0822e-007,6.0215e-008,9.1707e-008
1.3561e-007,1.0625e-006,1.6529e-006,-1.3202e-007,-1.3929e-007,-3.4754e-006,4.4866e-007,-9.8936e-007,-5.3731e-008,-5.2286e-007,4.8635e-007,-6.2103e-007,6.1835e-007,-8.864e-007,7.5328e-007,-1.5611e-006,2.3765e-007,-4.0633e-008,-2.8601e-007,3.8472e-007,-6.4579e-007,1.4448e-006,7.9709e-007,1.2306e-006
1.2141e-006,9.3063e-006,1.4371e-005,-1.1528e-006,-1.1888e-006,-3.0286e-005,3.8632e-006,-8.6515e-006,-4.8386e-007,-4.5313e-006,4.2995e-006,-5.43e-006,5.4476e-006,-7.782e-006,6.5447e-006,-1.363e-005,2.0727e-006,-3.6072e-007,-2.4323e-006,3.2652e-006,-5.6189e-006,1.2483e-005,6.8252e-006,1.0686e-005
7.9143e-006,5.9353e-005,9.0942e-005,-7.3268e-006,-7.4006e-006,-0.00019216,2.4172e-005,-5.5134e-005,-3.1848e-006,-2.8535e-005,2.7692e-005,-3.4564e-005,3.4982e-005,-4.9758e-005,4.1396e-005,-8.6697e-005,1.3169e-005,-2.3428e-006,-1.5012e-005,2.0049e-005,-3.561e-005,7.8426e-005,4.2475e-005,6.7477e-005
4.0015e-005,0.00029367,0.00044632,-3.6099e-005,-3.5829e-005,-0.00094577,0.00011705,-0.0002729,-1.6316e-005,-0.00013904,0.00013847,-0.00017065,0.00017449,-0.00024691,0.00020309,-0.00042817,6.4938e-005,-1.1883e-005,-7.1604e-005,9.4706e-005,-0.00017516,0.00038164,0.00020461,0.00033005
0.0001632,0.0011727,0.001767,-0.00014339,-0.00014042,-0.0037564,0.00045607,-0.0010918,-6.7646e-005,-0.00054495,0.0005594,-0.0006798,0.00070334,-0.00098924,0.00080392,-0.0017082,0.00025852,-4.9073e-005,-0.00027431,0.00035696,-0.00069572,0.0014958,0.00079312,0.0013002
0.00055121,0.0038803,0.0057939,-0.00047132,-0.00045774,-0.012363,0.0014669,-0.0036273,-0.00023288,-0.0017621,0.0018753,-0.0022432,0.002353,-0.0032865,0.0026366,-0.0056547,0.00085292,-0.00016979,-0.00086549,0.0010974,-0.0022914,0.0048458,0.0025381,0.0042337
0.0015697,0.010838,0.016027,-0.0013053,-0.0012654,-0.034346,0.003963,-0.0102,-0.00067764,-0.0047817,0.0053171,-0.0062459,0.0066568,-0.0092255,0.0072983,-0.015828,0.0023748,-0.00050246,-0.0022862,0.002783,-0.006376,0.013207,0.0068213,0.011598
0.0038166,0.025886,0.037883,-0.0030836,-0.0030082,-0.081612,0.0090935,-0.024616,-0.0016871,-0.011008,0.012928,-0.014865,0.016139,-0.022177,0.017278,-0.037975,0.0056504,-0.0012907,-0.0051049,0.0058216,-0.01519,0.030643,0.015568,0.027046
0.007988,0.053345,0.077189,-0.0062622,-0.0062126,-0.16738,0.017828,-0.05151,-0.0036228,-0.021618,0.027224,-0.030512,0.033842,-0.046089,0.035308,-0.078867,0.01158,-0.0029063,-0.0096652,0.0098739,-0.031276,0.060956,0.030347,0.054079
0.014455,0.095374,0.13628,-0.01097,-0.011227,-0.29799,0.029869,-0.094127,-0.0067388,-0.036212,0.05002,-0.054305,0.06174,-0.083342,0.062672,-0.14275,0.020523,-0.0057654,-0.015432,0.012803,-0.055997,0.10421,0.050526,0.092947
0.022633,0.14829,0.20886,-0.016542,-0.017843,-0.46184,0.042425,-0.1509,-0.010867,-0.051331,0.08059,-0.084017,0.098262,-0.13161,0.096981,-0.22615,0.031436,-0.010071,-0.020352,0.0099839,-0.087482,0.15265,0.071296,0.13693
0.030558,0.20039,0.27738,-0.021249,-0.025031,-0.62292,0.049896,-0.21265,-0.015141,-0.060238,0.11427,-0.11293,0.13632,-0.18173,0.13107,-0.31439,0.041341,-0.015371,-0.020887,-0.0048129,-0.11937,0.18943,0.083387,0.17104
0.035268,0.23447,0.31726,-0.022576,-0.03113,-0.72851,0.045513,-0.26314,-0.018072,-0.05532,0.14305,-0.13143,0.16402,-0.21915,0.15491,-0.38392,0.045896,-0.020062,-0.013258,-0.03618,-0.14214,0.19378,0.076227,0.17651
0.034265,0.23604,0.30889,-0.01819,-0.034634,-0.73312,0.024798,-0.28425,-0.018169,-0.032804,0.15887,-0.13178,0.1692,-0.2301,0.16072,-0.41245,0.041345,-0.02121,0.0043186,-0.082483,-0.14749,0.15254,0.044133,0.14103
0.027401,0.20344,0.25127,-0.0071519,-0.035286,-0.62708,-0.011064,-0.26383,-0.014927,0.0030077,0.15834,-0.11367,0.14637,-0.20972,0.14858,-0.39216,0.027024,-0.01508,0.029755,-0.13301,-0.13384,0.071692,-0.0080353,0.069317
0.01777,0.15211,0.16703,0.009355,-0.034723,-0.44857,-0.054694,-0.20152,-0.0095017,0.039893,0.14547,-0.086361,0.10168,-0.16652,0.12806,-0.33699,0.0066631,0.0014414,0.057255,-0.17023,-0.10874,-0.021455,-0.064663,-0.014656
0.010377,0.10761,0.091715,0.028326,-0.035963,-0.26506,-0.096146,-0.1083,-0.0043801,0.063817,0.12975,-0.064398,0.051602,-0.11867,0.11299,-0.27638,-0.012963,0.02899,0.08014,-0.17772,-0.085225,-0.09084,-0.10671,-0.078627
0.0089322,0.08969,0.052225,0.046093,-0.041773,-0.13304,-0.12873,-0.0001878,-0.001975,0.06772,0.12004,-0.058654,0.014855,-0.083149,0.11224,-0.23743,-0.025675,0.064437,0.094837,-0.14971,-0.073258,-0.11285,-0.12276,-0.10095
0.012964,0.098428,0.049469,0.059596,-0.052897,-0.065076,-0.15279,0.10911,-0.0030455,0.056408,0.11845,-0.068975,0.002158,-0.065168,0.12303,-0.2274,-0.029437,0.10119,0.10311,-0.095719,-0.071883,-0.091383,-0.11602,-0.084163
0.017802,0.11391,0.05939,0.067136,-0.067512,-0.030919,-0.17413,0.21097,-0.0061909,0.042965,0.11929,-0.084512,0.010978,-0.055879,0.1329,-0.23011,-0.027069,0.13127,0.11049,-0.036212,-0.068523,-0.054362,-0.10128,-0.051962
0.017975,0.11136,0.052792,0.068561,-0.082463,0.0082872,-0.1979,0.2993,-0.0089256,0.0388,0.1143,-0.092139,0.029027,-0.040402,0.12946,-0.21954,-0.023433,0.14811,0.12179,0.0082928,-0.047093,-0.032934,-0.093754,-0.030866
0.011618,0.080582,0.018411,0.065251,-0.09536,0.063189,-0.22285,0.3671,-0.0094757,0.045201,0.10008,-0.086458,0.043736,-0.0097399,0.11035,-0.18015,-0.021308,0.14869,0.13712,0.027256,0.00027217,-0.039343,-0.098413,-0.030835
0.0021471,0.034013,-0.029722,0.059992,-0.10579,0.11008,-0.24087,0.40698,-0.0077324,0.053537,0.081287,-0.073095,0.050357,0.033067,0.085201,-0.11742,-0.019379,0.13375,0.1518,0.022518,0.066436,-0.060929,-0.10822,-0.040471
-0.0044907,-0.0037229,-0.066327,0.056294,-0.11456,0.12012,-0.24254,0.41575,-0.0045605,0.053956,0.066794,-0.062571,0.052765,0.076988,0.06776,-0.050726,-0.01391,0.10667,0.16029,0.0026648,0.13266,-0.074355,-0.11221,-0.040031
-0.0048831,-0.016102,-0.077419,0.056878,-0.1217,0.09448,-0.22434,0.39798,-0.00027332,0.044919,0.062156,-0.060232,0.057322,0.11276,0.065141,0.0040446,-0.0023916,0.07207,0.16087,-0.024676,0.1798,-0.066928,-0.10588,-0.020085
-0.0010975,-0.0076776,-0.071374,0.061965,-0.12509,0.069723,-0.1915,0.36363,0.0060416,0.035098,0.065256,-0.061242,0.06572,0.13936,0.073131,0.046486,0.014197,0.035192,0.15699,-0.055793,0.19898,-0.046471,-0.09483,0.010665
0.0012434,0.0011133,-0.069541,0.068841,-0.12111,0.086766,-0.15415,0.32103,0.015512,0.035997,0.068987,-0.054993,0.072964,0.16203,0.081012,0.088176,0.03239,0.0017998,0.15411,-0.087634,0.19463,-0.032335,-0.089083,0.034323
-0.001832,-0.0077487,-0.086151,0.073589,-0.10679,0.15286,-0.12003,0.27183,0.027748,0.051903,0.068295,-0.034772,0.071652,0.18504,0.080812,0.13838,0.049185,-0.022358,0.15519,-0.11323,0.17854,-0.037214,-0.09383,0.040028
-0.0088537,-0.034756,-0.11636,0.074022,-0.081752,0.2338,-0.089912,0.21348,0.040239,0.075994,0.06477,-0.0039287,0.058252,0.20667,0.072569,0.19309,0.063902,-0.033232,0.15873,-0.12204,0.1607,-0.05678,-0.10523,0.032271
-0.014095,-0.063887,-0.14264,0.071372,-0.04832,0.28466,-0.059304,0.14705,0.049669,0.095784,0.064328,0.026792,0.035908,0.22104,0.061744,0.2377,0.077253,-0.030663,0.1609,-0.10635,0.14373,-0.075663,-0.11447,0.024616
-0.012792,-0.07799,-0.15216,0.068975,-0.010285,0.28987,-0.024783,0.082121,0.054029,0.10293,0.070231,0.048017,0.01188,0.22407,0.052513,0.26013,0.088805,-0.019388,0.15927,-0.068576,0.12393,-0.082838,-0.1157,0.026144
-0.0057151,-0.074243,-0.14835,0.068818,0.028429,0.2748,0.010997,0.032674,0.053556,0.099046,0.07829,0.058722,-0.0075605,0.21725,0.043977,0.2619,0.095604,-0.0074751,0.15448,-0.022266,0.096742,-0.081552,-0.11024,0.033868
0.00108,-0.066143,-0.14637,0.06907,0.064141,0.27884,0.040155,0.0067659,0.049799,0.093009,0.079204,0.065652,-0.020445,0.20541,0.03249,0.25674,0.093528,-0.0024635,0.14837,0.015201,0.06176,-0.085128,-0.10371,0.037464
0.0011924,-0.071006,-0.15795,0.065246,0.093355,0.31677,0.055746,-0.00020435,0.044017,0.092803,0.066269,0.076394,-0.028653,0.19147,0.016834,0.25832,0.080299,-0.0074216,0.1411,0.033175,0.024318,-0.10339,-0.099623,0.030542
-0.006786,-0.094666,-0.18051,0.054464,0.1134,0.36548,0.057864,-0.0014751,0.036676,0.09888,0.041492,0.092564,-0.035237,0.17383,0.00036095,0.26874,0.057606,-0.019746,0.13043,0.033243,-0.0064994,-0.13253,-0.095878,0.017147
-0.018072,-0.12656,-0.20037,0.03924,0.12385,0.3868,0.054226,-0.0073416,0.028338,0.1042,0.014433,0.10873,-0.042339,0.14933,-0.01213,0.27817,0.030637,-0.033972,0.11386,0.025421,-0.021473,-0.15715,-0.087349,0.0077782
-0.025464,-0.14843,-0.20574,0.027227,0.12743,0.36269,0.054449,-0.017046,0.020523,0.10024,-0.0052963,0.1173,-0.050918,0.11899,-0.019304,0.27548,0.0055011,-0.046912,0.091343,0.018461,-0.014773,-0.16226,-0.071536,0.0095672
-0.024749,-0.14827,-0.19691,0.026552,0.12861,0.30869,0.062784,-0.022286,0.015074,0.083753,-0.015227,0.11471,-0.061328,0.090528,-0.024725,0.25993,-0.013523,-0.061096,0.065607,0.012545,0.013548,-0.14453,-0.05149,0.020184
-0.0174,-0.12783,-0.18463,0.040121,0.13035,0.25466,0.075462,-0.019217,0.012456,0.059455,-0.020708,0.10421,-0.073244,0.074463,-0.033291,0.24299,-0.025222,-0.082991,0.039875,0.00049014,0.05672,-0.11397,-0.033245,0.030587
-0.0088762,-0.099131,-0.17951,0.063241,0.13132,0.21364,0.084892,-0.017091,0.010922,0.037171,-0.028935,0.093677,-0.084939,0.076625,-0.046384,0.23887,-0.030812,-0.11625,0.015674,-0.023708,0.10276,-0.085746,-0.020487,0.033135
-0.0044656,-0.07503,-0.18321,0.086294,0.1264,0.16988,0.086936,-0.034282,0.0079256,0.026176,-0.042201,0.090974,-0.09326,0.092977,-0.060732,0.25214,-0.032252,-0.15487,-0.0068928,-0.05655,0.13843,-0.069593,-0.011748,0.027224
-0.0059992,-0.06217,-0.18902,0.10038,0.11058,0.096758,0.084866,-0.084195,0.0027026,0.030388,-0.05655,0.10008,-0.095276,0.11116,-0.072115,0.27329,-0.030654,-0.18264,-0.026905,-0.084466,0.15433,-0.06512,-0.0026359,0.017919
-0.011443,-0.06064,-0.18992,0.10186,0.083639,-0.014017,0.086581,-0.16336,-0.0025541,0.046789,-0.066623,0.11956,-0.090743,0.11761,-0.080111,0.28562,-0.025683,-0.18153,-0.041415,-0.092125,0.14852,-0.065417,0.0093746,0.0099583
-0.016931,-0.067821,-0.18544,0.093043,0.051638,-0.14014,0.097684,-0.25249,-0.0044534,0.067124,-0.071648,0.14335,-0.083215,0.10502,-0.08901,0.27742,-0.016247,-0.14399,-0.047348,-0.073118,0.12655,-0.064576,0.022348,0.003157
-0.019448,-0.081388,-0.18093,0.079236,0.023898,-0.24469,0.11656,-0.33006,-0.0017193,0.081545,-0.07672,0.16288,-0.078344,0.075419,-0.10382,0.24944,-0.0021334,-0.079789,-0.045131,-0.034172,0.097757,-0.062422,0.0318,-0.0069597
-0.018565,-0.099226,-0.18119,0.064818,0.0075321,-0.30509,0.13568,-0.3869,0.0030592,0.082588,-0.088269,0.17024,-0.080151,0.037758,-0.12507,0.21284,0.014442,-0.010843,-0.040269,0.010844,0.070295,-0.063173,0.03499,-0.02465
-0.016523,-0.11812,-0.18529,0.051062,0.0036732,-0.32914,0.14772,-0.42987,0.0051034,0.068122,-0.1082,0.1618,-0.087968,0.0031425,-0.14737,0.18096,0.02866,0.043186,-0.040569,0.052261,0.04784,-0.070178,0.033469,-0.049906
-0.016766,-0.13407,-0.1877,0.036609,0.0079611,-0.34517,0.15109,-0.47222,0.0012619,0.042249,-0.13223,0.14065,-0.096502,-0.019202,-0.16315,0.16218,0.034955,0.077205,-0.050858,0.091622,0.029698,-0.081805,0.03187,-0.077949
-0.021655,-0.14467,-0.18404,0.019589,0.014433,-0.37653,0.15025,-0.5196,-0.0073342,0.013596,-0.15362,0.11618,-0.099228,-0.024095,-0.16842,0.15836,0.030147,0.10045,-0.069776,0.13806,0.013402,-0.091851,0.034596,-0.10197
-0.030655,-0.15112,-0.17529,-0.00039137,0.01952,-0.42281,0.15119,-0.56369,-0.016064,-0.0084787,-0.16851,0.099996,-0.092796,-0.011644,-0.16564,0.16729,0.015826,0.1234,-0.091624,0.19675,-0.0026544,-0.093707,0.043544,-0.11661
-0.040286,-0.15741,-0.16619,-0.021559,0.023338,-0.46174,0.15641,-0.58849,-0.020316,-0.018043,-0.17786,0.10001,-0.079285,0.011947,-0.16146,0.18519,-0.0020007,0.14315,-0.11167,0.25932,-0.018454,-0.084556,0.058277,-0.12013
-0.04615,-0.16704,-0.15986,-0.040724,0.028019,-0.46788,0.16367,-0.58365,-0.018726,-0.014885,-0.18471,0.11615,-0.06473,0.035381,-0.16146,0.20708,-0.016245,0.14094,-0.13003,0.30535,-0.033473,-0.066544,0.077378,-0.1146
-0.045763,-0.17973,-0.1541,-0.054822,0.035085,-0.4311,0.1691,-0.55364,-0.013655,-0.0036863,-0.19041,0.14056,-0.055101,0.046658,-0.16631,0.22711,-0.023064,0.096216,-0.15064,0.31509,-0.048008,-0.044776,0.099055,-0.1049
-0.040104,-0.19113,-0.14324,-0.062472,0.044014,-0.36159,0.17129,-0.51534,-0.0089058,0.0092201,-0.19375,0.16254,-0.052769,0.039759,-0.17214,0.24087,-0.024077,0.007143,-0.17628,0.28455,-0.063174,-0.024378,0.12073,-0.096745
-0.032726,-0.19554,-0.12402,-0.064806,0.052724,-0.28026,0.17262,-0.48604,-0.0068531,0.019293,-0.19378,0.17487,-0.055881,0.01918,-0.17447,0.24864,-0.024671,-0.098677,-0.20449,0.2313,-0.079537,-0.0087681,0.13902,-0.094611
-0.02723,-0.18981,-0.099676,-0.065037,0.059152,-0.20465,0.17706,-0.47129,-0.0072773,0.025291,-0.19275,0.17778,-0.060743,-0.0020715,-0.17202,0.25594,-0.029504,-0.17349,-0.22821,0.18623,-0.095792,0.00058294,0.15119,-0.10006
-0.02514,-0.17523,-0.078269,-0.066738,0.062661,-0.14138,0.1865,-0.46166,-0.008453,0.028342,-0.19554,0.17772,-0.064967,-0.010919,-0.16752,0.26911,-0.038683,-0.17418,-0.24068,0.1765,-0.10892,0.0039217,0.15714,-0.11148
-0.025631,-0.15643,-0.066193,-0.071671,0.064486,-0.088325,0.19902,-0.4406,-0.0091732,0.029768,-0.20546,0.18209,-0.068859,-0.0032545,-0.16514,0.28893,-0.047735,-0.086881,-0.24066,0.21078,-0.11587,0.0032228,0.15976,-0.12546
-0.02681,-0.13838,-0.062613,-0.078678,0.067026,-0.041634,0.2103,-0.39681,-0.009882,0.029441,-0.22071,0.19341,-0.074218,0.013658,-0.16698,0.30829,-0.051463,0.064099,-0.23336,0.27543,-0.11537,0.001952,0.16287,-0.13885
-0.027141,-0.12399,-0.059758,-0.08471,0.072336,-0.00011289,0.2168,-0.3317,-0.012095,0.02562,-0.23486,0.20727,-0.081889,0.027731,-0.17133,0.31702,-0.048462,0.22796,-0.22672,0.34283,-0.10859,0.0038378,0.16835,-0.15008
-0.026013,-0.11376,-0.049082,-0.087531,0.080571,0.036095,0.21816,-0.25642,-0.016751,0.016041,-0.24151,0.21531,-0.090321,0.032384,-0.17386,0.31049,-0.042347,0.3519,-0.22578,0.38573,-0.09819,0.010971,0.17501,-0.15897
-0.023606,-0.10719,-0.028195,-0.088028,0.089456,0.069784,0.21705,-0.18176,-0.022873,-0.00062746,-0.23865,0.21132,-0.096337,0.03198,-0.17068,0.29448,-0.038543,0.40417,-0.22952,0.38928,-0.086688,0.022671,0.18044,-0.16542
-0.020714,-0.10421,-0.0027987,-0.090098,0.095399,0.10862,0.21696,-0.10921,-0.027577,-0.023789,-0.22899,0.19565,-0.097496,0.037591,-0.16087,0.2813,-0.039459,0.38402,-0.23197,0.35553,-0.075317,0.036239,0.18402,-0.16854
-0.018683,-0.10531,0.017911,-0.097923,0.095688,0.16203,0.2197,-0.030777,-0.027467,-0.050821,-0.2163,0.17478,-0.094185,0.05651,-0.14728,0.27995,-0.042381,0.31586,-0.2267,0.29964,-0.0637,0.049122,0.188,-0.1669
-0.018956,-0.1105,0.028461,-0.11273,0.090085,0.23532,0.22426,0.062833,-0.020595,-0.078007,-0.20181,0.15604,-0.089821,0.08435,-0.13518,0.2883,-0.042087,0.23325,-0.21147,0.24086,-0.050291,0.060701,0.19563,-0.15979
-0.021998,-0.11834,0.031123,-0.1316,0.080357,0.32571,0.22761,0.17258,-0.0078768,-0.10225,-0.18448,0.14187,-0.088896,0.10662,-0.12973,0.294,-0.035891,0.16261,-0.19024,0.19325,-0.033375,0.072318,0.2078,-0.14806
-0.026277,-0.12566,0.033831,-0.14922,0.067987,0.42375,0.2264,0.28794,0.0068773,-0.12274,-0.16453,0.12794,-0.094099,0.10885,-0.13343,0.28326,-0.026609,0.11462,-0.17127,0.16056,-0.012475,0.085714,0.22145,-0.134
-0.028519,-0.12842,0.044151,-0.16093,0.052083,0.51871,0.21831,0.39266,0.018459,-0.14129,-0.14608,0.1069,-0.10439,0.087373,-0.1446,0.25068,-0.020708,0.085467,-0.16257,0.13715,0.010312,0.10135,0.23133,-0.12006
-0.025585,-0.12281,0.064237,-0.16485,0.029554,0.60416,0.20245,0.47457,0.022671,-0.16057,-0.13542,0.074827,-0.11541,0.052372,-0.15793,0.20227,-0.023207,0.064713,-0.1673,0.11391,0.030133,0.1179,0.23376,-0.10783
-0.016861,-0.10686,0.090224,-0.16194,-0.0023268,0.67974,0.1791,0.53188,0.018451,-0.18094,-0.13581,0.035408,-0.12211,0.020928,-0.16719,0.15031,-0.03365,0.043537,-0.18215,0.085179,0.041126,0.1331,0.22928,-0.097823
-0.0052921,-0.081965,0.11566,-0.15506,-0.042982,0.74873,0.14952,0.57165,0.0084852,-0.19818,-0.14373,-0.0014005,-0.12203,0.0054035,-0.16874,0.10444,-0.046484,0.018779,-0.1996,0.052294,0.039546,0.14508,0.222,-0.09
0.0040204,-0.053586,0.13568,-0.14804,-0.087527,0.81397,0.11611,0.60232,-0.0021805,-0.20491,-0.15064,-0.025227,-0.11724,0.0055434,-0.16389,0.065943,-0.055336,-0.0080682,-0.21271,0.02195,0.026213,0.15337,0.21633,-0.084116
0.0069571,-0.0297,0.14904,-0.14508,-0.12825,0.87534,0.082262,0.62648,-0.0089141,-0.19567,-0.1496,-0.031596,-0.1134,0.0093267,-0.15794,0.0286,-0.057531,-0.034389,-0.21878,0.0010054,0.0062876,0.15898,0.21386,-0.079407
0.0031635,-0.016701,0.15743,-0.1493,-0.15719,0.93057,0.051728,0.63896,-0.01005,-0.17294,-0.14094,-0.024605,-0.11668,0.0011425,-0.15649,-0.015996,-0.055314,-0.059124,-0.21958,-0.00832,-0.013681,0.16359,0.2126,-0.074229
-0.0034875,-0.014864,0.16362,-0.1605,-0.16812,0.97805,0.027389,0.63135,-0.0076447,-0.14879,-0.13211,-0.014664,-0.13017,-0.02868,-0.1614,-0.073247,-0.053192,-0.082867,-0.21822,-0.0094946,-0.029236,0.16824,0.20884,-0.066681
-0.0072299,-0.017122,0.16995,-0.17381,-0.15763,1.0193,0.010454,0.59916,-0.0059264,-0.13984,-0.13133,-0.013182,-0.15206,-0.078803,-0.1695,-0.14384,-0.053942,-0.10595,-0.21586,-0.0085686,-0.039359,0.17243,0.19998,-0.0562
-0.0041058,-0.013293,0.17771,-0.18144,-0.12605,1.0585,0.00059401,0.5466,-0.0084226,-0.15764,-0.14053,-0.027423,-0.17639,-0.13845,-0.17492,-0.22516,-0.056573,-0.12647,-0.21094,-0.0094699,-0.044987,0.1743,0.1861,-0.044654
0.0054153,0.0024697,0.18688,-0.17772,-0.078431,1.0991,-0.0032556,0.48568,-0.015667,-0.20094,-0.15362,-0.057877,-0.19574,-0.19382,-0.173,-0.31331,-0.057629,-0.14002,-0.20149,-0.01124,-0.046458,0.17219,0.16954,-0.035339
0.016753,0.026742,0.19619,-0.1638,-0.02423,1.1393,-0.0023381,0.43072,-0.024972,-0.25565,-0.16135,-0.09876,-0.2043,-0.23566,-0.16278,-0.40384,-0.054442,-0.14165,-0.18775,-0.009155,-0.04243,0.16645,0.15323,-0.030114
0.024358,0.049021,0.20371,-0.14771,0.025424,1.1697,0.0017217,0.39251,-0.03233,-0.30259,-0.15851,-0.14076,-0.19998,-0.26419,-0.14647,-0.49151,-0.047601,-0.12932,-0.17259,0.0011876,-0.031078,0.15997,0.13915,-0.027081
0.02553,0.059983,0.20816,-0.13867,0.062468,1.1765,0.0064621,0.3764,-0.03507,-0.32773,-0.14711,-0.17471,-0.18481,-0.28918,-0.12709,-0.57089,-0.040762,-0.10653,-0.15922,0.019846,-0.012123,0.15654,0.12761,-0.021317
0.022168,0.059272,0.21001,-0.13979,0.085563,1.1471,0.0088868,0.38518,-0.033472,-0.32796,-0.13342,-0.19489,-0.16367,-0.32462,-0.10694,-0.63795,-0.038136,-0.082123,-0.14865,0.041516,0.012455,0.15821,0.1175,-0.0085865
0.019157,0.056108,0.2113,-0.14526,0.099665,1.0769,0.0068106,0.42303,-0.030346,-0.30965,-0.122,-0.20084,-0.14206,-0.3803,-0.087824,-0.69143,-0.041647,-0.066495,-0.13948,0.058303,0.039621,0.1636,0.10701,0.010954
0.020627,0.061932,0.21394,-0.1451,0.11135,0.97251,0.00025138,0.49525,-0.029039,-0.28258,-0.11255,-0.19696,-0.12357,-0.45472,-0.072321,-0.73229,-0.049762,-0.065974,-0.13007,0.0643,0.06702,0.16882,0.09451,0.0324
0.026923,0.081161,0.21793,-0.13356,0.12328,0.84751,-0.0085695,0.60149,-0.031277,-0.25442,-0.10187,-0.18989,-0.10845,-0.53423,-0.063748,-0.76176,-0.05859,-0.079069,-0.12084,0.058708,0.093441,0.17021,0.079243,0.049645
0.034533,0.10786,0.22115,-0.11414,0.132,0.71594,-0.01698,0.72671,-0.036258,-0.22893,-0.088594,-0.18508,-0.094227,-0.59977,-0.064287,-0.78049,-0.064233,-0.097689,-0.11425,0.045276,0.11767,0.1666,0.06169,0.059896
0.038855,0.13095,0.22103,-0.096603,0.13073,0.58591,-0.024057,0.83818,-0.041449,-0.20719,-0.075425,-0.18416,-0.078118,-0.63805,-0.07275,-0.79005,-0.0648,-0.11306,-0.11232,0.028617,0.13723,0.1594,0.0434,0.065379
0.037604,0.14313,0.21676,-0.088622,0.11463,0.45858,-0.031376,0.89507,-0.044416,-0.18943,-0.066767,-0.18506,-0.059588,-0.64979,-0.084375,-0.79547,-0.061029,-0.12221,-0.11417,0.010389,0.14871,0.15081,0.026374,0.070991
0.032307,0.14591,0.21001,-0.089264,0.084451,0.3323,-0.041643,0.86845,-0.044382,-0.17574,-0.064115,-0.18442,-0.040857,-0.64932,-0.093434,-0.80488,-0.055523,-0.13002,-0.11601,-0.011556,0.14979,0.14213,0.012282,0.08012
0.027017,0.14674,0.20339,-0.089961,0.046232,0.2088,-0.056402,0.76058,-0.042494,-0.16624,-0.063977,-0.18088,-0.024404,-0.65497,-0.096772,-0.82437,-0.051268,-0.14477,-0.11372,-0.040259,0.1413,0.13379,0.0018255,0.092222
0.025395,0.15158,0.19811,-0.081932,0.00794,0.096801,-0.074809,0.60926,-0.040705,-0.16136,-0.060512,-0.17665,-0.0092277,-0.67642,-0.095268,-0.85102,-0.050188,-0.17053,-0.10572,-0.075323,0.1272,0.12654,-0.0055056,0.10391
0.028309,0.15977,0.19282,-0.063574,-0.023951,0.010688,-0.094325,0.471,-0.040211,-0.16206,-0.050399,-0.17634,0.010662,-0.70725,-0.091823,-0.87008,-0.052267,-0.20241,-0.09352,-0.11084,0.11221,0.12215,-0.011186,0.11217
0.03344,0.16546,0.18479,-0.041685,-0.045786,-0.0353,-0.11243,0.39046,-0.040632,-0.16897,-0.035294,-0.18368,0.043111,-0.72792,-0.087609,-0.86046,-0.055554,-0.22873,-0.079827,-0.13771,0.098815,0.12239,-0.016923,0.1169
0.036938,0.16351,0.17236,-0.025874,-0.056097,-0.034482,-0.12778,0.37453,-0.040521,-0.18026,-0.019619,-0.19853,0.091368,-0.71757,-0.079998,-0.8064,-0.057166,-0.23871,-0.0661,-0.14895,0.086078,0.12708,-0.02371,0.1208
0.03588,0.15429,0.1567,-0.021102,-0.054661,0.0064125,-0.1402,0.38827,-0.038663,-0.19018,-0.0059456,-0.21613,0.14904,-0.66738,-0.064286,-0.70804,-0.05494,-0.22975,-0.052034,-0.1443,0.071201,0.13349,-0.031262,0.12716
0.029992,0.14315,0.14132,-0.024324,-0.042472,0.065928,-0.15031,0.37627,-0.03499,-0.19043,0.0074847,-0.22931,0.20109,-0.58694,-0.037908,-0.58286,-0.048887,-0.209,-0.037178,-0.13076,0.052513,0.13779,-0.038364,0.13762
0.021677,0.13571,0.12968,-0.02737,-0.022302,0.11305,-0.15939,0.29586,-0.030398,-0.17459,0.024774,-0.23238,0.23129,-0.49965,-0.0034141,-0.45635,-0.041439,-0.18817,-0.022728,-0.11868,0.031311,0.13756,-0.044076,0.15148
0.014484,0.13355,0.12267,-0.02321,0.0013284,0.11859,-0.16952,0.14081,-0.025782,-0.14287,0.047958,-0.22429,0.23149,-0.4296,0.032647,-0.34713,-0.036085,-0.17612,-0.011219,-0.11642,0.011008,0.13282,-0.048892,0.16658
0.011077,0.13403,0.11792,-0.010569,0.023481,0.068743,-0.18265,-0.058562,-0.021343,-0.10304,0.074505,-0.20913,0.20617,-0.38837,0.064297,-0.25635,-0.035112,-0.17453,-0.0040527,-0.12699,-0.0056037,0.12483,-0.054804,0.18055
0.011945,0.13359,0.11141,0.0061493,0.040806,-0.026599,-0.19871,-0.25632,-0.01684,-0.066156,0.099101,-0.19346,0.16897,-0.36982,0.090357,-0.16862,-0.037982,-0.17922,0.00075737,-0.14819,-0.018543,0.11387,-0.064003,0.19134
0.015521,0.13097,0.10032,0.020809,0.052817,-0.13721,-0.2141,-0.41622,-0.01241,-0.039681,0.11794,-0.18218,0.13413,-0.35618,0.11468,-0.064489,-0.041557,-0.1848,0.0080115,-0.17526,-0.030309,0.098511,-0.077201,0.19725
0.019383,0.12735,0.084834,0.029896,0.061502,-0.2274,-0.2227,-0.52444,-0.0088939,-0.022976,0.13143,-0.17552,0.10911,-0.33071,0.14213,0.063732,-0.042192,-0.1885,0.02179,-0.20368,-0.043301,0.077357,-0.092889,0.19721
0.021634,0.12392,0.067919,0.034113,0.069576,-0.27384,-0.21948,-0.58409,-0.0071213,-0.0087341,0.14302,-0.1693,0.093413,-0.28838,0.17364,0.20353,-0.038239,-0.19065,0.041831,-0.23073,-0.05727,0.051758,-0.10813,0.19177
0.02164,0.11986,0.053045,0.036642,0.078646,-0.2742,-0.20445,-0.60023,-0.0067738,0.010822,0.15558,-0.15824,0.083084,-0.23715,0.2048,0.32765,-0.031173,-0.19278,0.063198,-0.25592,-0.069126,0.026708,-0.12018,0.18398
0.019978,0.11291,0.041819,0.039984,0.088458,-0.24141,-0.18364,-0.56959,-0.0061094,0.037862,0.16905,-0.14013,0.076462,-0.19012,0.22906,0.41024,-0.024453,-0.19583,0.079911,-0.28057,-0.075451,0.0086148,-0.12771,0.17872
0.017877,0.10212,0.033189,0.044081,0.097457,-0.18945,-0.16595,-0.48368,-0.003169,0.06769,0.18143,-0.11767,0.076383,-0.15476,0.24283,0.44303,-0.02094,-0.20003,0.089596,-0.30693,-0.075679,0.0012326,-0.13108,0.17988
0.016539,0.089624,0.024661,0.046993,0.10395,-0.12405,-0.15821,-0.34222,0.0023988,0.092961,0.19163,-0.096826,0.087843,-0.12701,0.24818,0.44045,-0.020758,-0.20569,0.095143,-0.3364,-0.073223,0.0027506,-0.13175,0.18713
0.016548,0.079508,0.014434,0.047204,0.10696,-0.046762,-0.16185,-0.16535,0.0086249,0.10961,0.20096,-0.082769,0.1137,-0.093243,0.25096,0.43089,-0.021155,-0.21311,0.10192,-0.36775,-0.073353,0.0064005,-0.1317,0.19504
0.01755,0.074495,0.0026819,0.045356,0.1064,0.032362,-0.17354,0.0060193,0.012585,0.1196,0.21154,-0.076377,0.15178,-0.037482,0.25615,0.44096,-0.018471,-0.2215,0.11308,-0.39646,-0.079261,0.0044702,-0.13297,0.1962
0.018451,0.073356,-0.0088652,0.043884,0.10269,0.087745,-0.18832,0.12451,0.012917,0.12862,0.22348,-0.073748,0.19475,0.052084,0.26458,0.48412,-0.010771,-0.22807,0.12711,-0.41661,-0.08934,-0.0068576,-0.1372,0.18663
0.018194,0.071592,-0.018504,0.044936,0.096543,0.087506,-0.2023,0.15767,0.011278,0.14125,0.23383,-0.068951,0.23214,0.18041,0.27342,0.56,0.00069538,-0.22896,0.13975,-0.42433,-0.097962,-0.02515,-0.14502,0.16944
0.01666,0.065066,-0.025887,0.048561,0.088833,0.014815,-0.21308,0.10421,0.011239,0.15773,0.2388,-0.057988,0.25337,0.34623,0.27935,0.662,0.012234,-0.22174,0.14819,-0.42053,-0.099472,-0.043572,-0.15568,0.15336
0.014922,0.053623,-0.03209,0.052896,0.080609,-0.1155,-0.21856,-0.0046272,0.015332,0.17484,0.2372,-0.041291,0.25106,0.54322,0.28117,0.78451,0.020115,-0.20726,0.1538,-0.41034,-0.092528,-0.055734,-0.16735,0.1467
0.01438,0.041568,-0.038589,0.056214,0.072741,-0.2606,-0.21622,-0.12008,0.022796,0.18921,0.23175,-0.023189,0.22405,0.76044,0.27956,0.92356,0.023013,-0.18923,0.16069,-0.3996,-0.08149,-0.060077,-0.17808,0.1514
0.015368,0.03439,-0.046143,0.058863,0.065266,-0.37358,-0.20445,-0.19927,0.030088,0.19981,0.22699,-0.0088906,0.17877,0.98266,0.27486,1.0717,0.022774,-0.17153,0.17187,-0.39095,-0.073602,-0.060553,-0.18672,0.16191
0.016473,0.034243,-0.054503,0.06309,0.056916,-0.43095,-0.1846,-0.22423,0.033832,0.20766,0.22564,-0.001123,0.12695,1.1922,0.26566,1.2133,0.022946,-0.1556,0.18635,-0.38274,-0.073946,-0.06308,-0.19316,0.16988
0.015456,0.037835,-0.062996,0.070687,0.045531,-0.44353,-0.16178,-0.20627,0.033629,0.2139,0.22667,0.0013376,0.080052,1.3717,0.24985,1.3249,0.026075,-0.13974,0.19985,-0.37139,-0.08194,-0.070544,-0.19774,0.17056
0.011209,0.038515,-0.071264,0.080563,0.029535,-0.4435,-0.14292,-0.17451,0.032241,0.21849,0.22686,0.0023076,0.043048,1.5061,0.22713,1.3812,0.031728,-0.12057,0.20817,-0.3548,-0.092029,-0.080317,-0.20062,0.16571
0.0050659,0.031007,-0.079464,0.088622,0.0095914,-0.45912,-0.13317,-0.15646,0.033018,0.22088,0.22394,0.0050767,0.01222,1.5833,0.20039,1.3629,0.036737,-0.094959,0.21017,-0.33375,-0.097944,-0.08624,-0.20165,0.1608
6.8259e-005,0.015191,-0.087841,0.090457,-0.011036,-0.49726,-0.13314,-0.16351,0.036945,0.22117,0.21859,0.0098657,-0.021152,1.5941,0.17421,1.2615,0.037546,-0.061269,0.20802,-0.31013,-0.097155,-0.083484,-0.201,0.15929
-0.0014417,-0.0037588,-0.096235,0.084822,-0.028249,-0.54605,-0.13888,-0.18934,0.04195,0.22031,0.2135,0.013835,-0.06346,1.5345,0.15191,1.0833,0.032867,-0.019773,0.20495,-0.28427,-0.092149,-0.072445,-0.19976,0.15907
0.00013601,-0.018688,-0.10412,0.075103,-0.040128,-0.59233,-0.14467,-0.21997,0.044986,0.21881,0.2108,0.013693,-0.11312,1.4101,0.1337,0.84976,0.024622,0.027095,0.2029,-0.25428,-0.087878,-0.058744,-0.19997,0.15407
0.0019554,-0.024669,-0.11112,0.067504,-0.048823,-0.63723,-0.14629,-0.24618,0.04483,0.2159,0.21021,0.0088427,-0.16054,1.2392,0.11761,0.59491,0.016482,0.074684,0.20191,-0.21821,-0.087788,-0.049482,-0.20381,0.13909
0.0013249,-0.021437,-0.11743,0.067184,-0.059402,-0.69582,-0.14274,-0.26877,0.042963,0.2103,0.20947,0.0024854,-0.1932,1.0508,0.10214,0.35735,0.011219,0.11707,0.20124,-0.17707,-0.091644,-0.048595,-0.21239,0.11398
-0.0016555,-0.013126,-0.1235,0.075016,-0.076056,-0.7815,-0.13563,-0.29428,0.041852,0.20202,0.20618,-0.00033745,-0.20165,0.87732,0.088051,0.16856,0.0089842,0.14935,0.2006,-0.13549,-0.096524,-0.054559,-0.22492,0.083824
-0.0039737,-0.0059889,-0.12918,0.08705,-0.098543,-0.8888,-0.12718,-0.32668,0.042414,0.19327,0.19926,0.0037632,-0.18238,0.74621,0.077541,0.043407,0.0077657,0.16998,0.2002,-0.099197,-0.09963,-0.061776,-0.23864,0.055671
-0.0024674,-0.0053205,-0.13309,0.096951,-0.12199,-0.98945,-0.11865,-0.36309,0.043164,0.1869,0.18906,0.014251,-0.13731,0.67425,0.071709,-0.020699,0.0054925,0.18144,0.20005,-0.071277,-0.10034,-0.064474,-0.24976,0.034496
0.0029482,-0.01263,-0.1331,0.099881,-0.14056,-1.0459,-0.1099,-0.39619,0.041813,0.18383,0.17648,0.027251,-0.072317,0.66657,0.068741,-0.03598,0.0019808,0.18821,0.19938,-0.050433,-0.099974,-0.060455,-0.25502,0.021007
0.0086973,-0.024253,-0.12782,0.095536,-0.1521,-1.0329,-0.10021,-0.4197,0.037633,0.18179,0.16243,0.038208,0.0031155,0.71721,0.064682,-0.015318,-0.00082433,0.19382,0.19712,-0.032536,-0.099898,-0.052439,-0.25306,0.011964
0.010435,-0.032677,-0.11814,0.088485,-0.15984,-0.95266,-0.0893,-0.43106,0.032194,0.17687,0.1479,0.044298,0.076042,0.80822,0.056268,0.028941,-0.00040894,0.19915,0.19281,-0.013996,-0.099813,-0.046417,-0.24473,0.0020792
0.0069578,-0.030753,-0.10754,0.085383,-0.16966,-0.83444,-0.078018,-0.42989,0.027748,0.16666,0.13416,0.044983,0.13254,0.90899,0.043358,0.077725,0.0042852,0.20312,0.18705,0.0058295,-0.097707,-0.0483,-0.23207,-0.013658
0.0015264,-0.016695,-0.10047,0.090565,-0.18545,-0.72028,-0.068327,-0.41625,0.024968,0.15221,0.12225,0.04109,0.1631,0.9804,0.028854,0.099224,0.012005,0.20455,0.1809,0.024834,-0.091388,-0.06102,-0.21662,-0.037856
-0.0007969,0.0038231,-0.099819,0.10284,-0.20649,-0.64622,-0.062701,-0.39278,0.02242,0.13717,0.11208,0.033935,0.16762,0.98651,0.016136,0.055555,0.020127,0.20337,0.17495,0.040395,-0.080273,-0.083656,-0.19826,-0.069259
0.0024549,0.020787,-0.10504,0.11591,-0.229,-0.62882,-0.063091,-0.36928,0.018391,0.12496,0.10217,0.025339,0.15542,0.90926,0.0062483,-0.077166,0.02659,0.20045,0.16905,0.051643,-0.066044,-0.11261,-0.17587,-0.10261
0.008935,0.026543,-0.11229,0.12263,-0.2497,-0.66162,-0.069855,-0.36275,0.013161,0.11637,0.090716,0.017807,0.13897,0.75648,-0.0027101,-0.28903,0.031291,0.1969,0.16283,0.060094,-0.051769,-0.14362,-0.14929,-0.13046
0.013453,0.021123,-0.11657,0.12009,-0.26758,-0.72088,-0.081215,-0.388,0.0092079,0.10936,0.077181,0.013768,0.12553,0.55656,-0.013414,-0.53467,0.035947,0.19368,0.1565,0.068389,-0.040277,-0.1731,-0.12116,-0.14653
0.012398,0.011879,-0.1147,0.11191,-0.28216,-0.77664,-0.093685,-0.44326,0.0088678,0.10101,0.06293,0.014027,0.11325,0.34246,-0.026266,-0.75532,0.042718,0.19169,0.15078,0.078196,-0.032979,-0.19858,-0.096645,-0.14894
0.0067285,0.0075809,-0.10709,0.1055,-0.29052,-0.80463,-0.10338,-0.50279,0.011656,0.08997,0.050278,0.017086,0.094767,0.13616,-0.03819,-0.91109,0.052759,0.19142,0.14598,0.088786,-0.029814,-0.21849,-0.080929,-0.14128
0.00097864,0.011631,-0.097445,0.10621,-0.28713,-0.79497,-0.10746,-0.52635,0.014109,0.077627,0.040762,0.020602,0.065077,-0.055839,-0.044495,-1.0001,0.06577,0.19225,0.14112,0.097372,-0.029995,-0.2321,-0.075952,-0.13033
-0.00072327,0.01968,-0.090541,0.11275,-0.26766,-0.75432,-0.10492,-0.4823,0.012667,0.067531,0.034165,0.024046,0.026789,-0.23499,-0.042336,-1.0507,0.080571,0.19221,0.13429,0.10117,-0.032656,-0.23961,-0.078991,-0.12187
0.001902,0.023175,-0.089503,0.1177,-0.23361,-0.70021,-0.096254,-0.36823,0.0070209,0.063227,0.028979,0.029827,-0.011266,-0.39969,-0.032906,-1.0944,0.095975,0.1891,0.12425,0.099879,-0.036911,-0.24196,-0.084252,-0.11723
0.005272,0.015735,-0.094142,0.1129,-0.19306,-0.64987,-0.082543,-0.21327,0.0006689,0.065732,0.023539,0.041069,-0.040139,-0.54152,-0.020501,-1.1417,0.11114,0.18252,0.11198,0.096714,-0.041574,-0.24008,-0.086404,-0.11294
0.0051664,-0.002516,-0.10128,0.095803,-0.15619,-0.60959,-0.064749,-0.059623,-0.0020835,0.072027,0.016673,0.057464,-0.055822,-0.65128,-0.0092961,-1.1797,0.12535,0.1748,0.10069,0.096827,-0.045237,-0.23435,-0.083426,-0.10382
0.00024599,-0.025352,-0.10677,0.071996,-0.12893,-0.57165,-0.043799,0.062251,2.5228e-005,0.075785,0.0076558,0.073154,-0.059322,-0.72827,-0.00060223,-1.1894,0.13756,0.16979,0.09394,0.10393,-0.046941,-0.22484,-0.076803,-0.087282
-0.0071183,-0.044543,-0.10796,0.051772,-0.11042,-0.52155,-0.021278,0.1453,0.0041038,0.070518,-0.0037563,0.079515,-0.053002,-0.7831,0.0071855,-1.1665,0.14629,0.17001,0.093199,0.11757,-0.04687,-0.21249,-0.069326,-0.065675
-0.013166,-0.05442,-0.10494,0.043288,-0.095879,-0.45155,2.263e-005,0.19703,0.0057694,0.053729,-0.016644,0.07147,-0.03759,-0.83067,0.016192,-1.1265,0.14986,0.17459,0.096747,0.13347,-0.046292,-0.19996,-0.062576,-0.045228
-0.015921,-0.054178,-0.10001,0.047253,-0.081881,-0.37063,0.016357,0.22033,0.0030218,0.0295,-0.028276,0.052368,-0.012581,-0.87921,0.02662,-1.0921,0.14681,0.17962,0.10083,0.14672,-0.046585,-0.19119,-0.056112,-0.032323
-0.01639,-0.047349,-0.095692,0.056857,-0.068605,-0.30299,0.024223,0.20262,-0.0022891,0.0073705,-0.034785,0.033037,0.021317,-0.92429,0.036508,-1.0754,0.13659,0.18058,0.10206,0.1553,-0.048109,-0.18919,-0.048562,-0.029822
-0.016989,-0.039558,-0.093071,0.062694,-0.05742,-0.2741,0.021987,0.12362,-0.0065735,-0.0023763,-0.033464,0.025215,0.061036,-0.95221,0.043763,-1.0715,0.12024,0.17469,0.099208,0.16072,-0.049866,-0.19358,-0.039121,-0.035736
-0.018971,-0.036019,-0.091414,0.058858,-0.047002,-0.29313,0.011112,-0.025058,-0.0079141,0.0056811,-0.025098,0.034218,0.10258,-0.94849,0.048414,-1.0661,0.10067,0.16161,0.093084,0.16518,-0.050183,-0.1997,-0.02794,-0.044732
-0.021402,-0.039623,-0.089268,0.045985,-0.032812,-0.34401,-0.0037478,-0.22544,-0.0074615,0.029187,-0.014128,0.056259,0.14305,-0.90423,0.052898,-1.0478,0.08185,0.14259,0.085164,0.16816,-0.047816,-0.2003,-0.015391,-0.05121
-0.022477,-0.049862,-0.08576,0.029697,-0.011203,-0.39227,-0.016112,-0.43653,-0.0077212,0.059659,-0.0059763,0.081947,0.18068,-0.81657,0.06006,-1.0122,0.066756,0.11948,0.076337,0.16614,-0.042627,-0.18941,-0.0015263,-0.052164
-0.021647,-0.062821,-0.08097,0.01634,0.015662,-0.40442,-0.020191,-0.61314,-0.0097322,0.08743,-0.0034035,0.10265,0.21301,-0.68619,0.070567,-0.95681,0.055424,0.094965,0.066888,0.15612,-0.035541,-0.16617,0.013332,-0.048547
-0.020304,-0.072562,-0.07527,0.0093517,0.039211,-0.36767,-0.01349,-0.72623,-0.012007,0.10649,-0.0048697,0.11484,0.23622,-0.51729,0.081902,-0.87486,0.044887,0.073188,0.057334,0.14012,-0.028088,-0.13614,0.027582,-0.044659
-0.020351,-0.073844,-0.068628,0.0083643,0.04954,-0.29745,0.0019619,-0.77163,-0.012126,0.11624,-0.006341,0.11999,0.24743,-0.32138,0.089737,-0.75693,0.031694,0.059536,0.048873,0.12567,-0.021853,-0.10868,0.03856,-0.045688
-0.022207,-0.06512,-0.060736,0.010707,0.042247,-0.22803,0.020791,-0.76385,-0.0092543,0.11975,-0.0050678,0.12145,0.24861,-0.12067,0.090567,-0.59996,0.015449,0.058434,0.042724,0.12122,-0.017918,-0.09159,0.044551,-0.05432
-0.024312,-0.049912,-0.05182,0.013511,0.021476,-0.19263,0.037452,-0.72301,-0.0051364,0.1204,-0.0021372,0.1215,0.24742,0.054646,0.083698,-0.41341,0.00041344,0.070179,0.038911,0.12954,-0.016303,-0.086146,0.046975,-0.068288
-0.024617,-0.035154,-0.043051,0.014974,-0.003066,-0.20604,0.049416,-0.66507,-0.0027907,0.11966,-0.0016509,0.12048,0.2528,0.176,0.07134,-0.21474,-0.0066089,0.088948,0.035791,0.1446,-0.015734,-0.086164,0.050194,-0.080931
-0.022498,-0.027028,-0.035899,0.01459,-0.022309,-0.25991,0.058113,-0.6002,-0.0042591,0.11689,-0.0072848,0.11766,0.2678,0.22729,0.057072,-0.017425,-0.00090393,0.10388,0.031027,0.15464,-0.014199,-0.082285,0.0583,-0.085278
-0.019159,-0.026947,-0.030904,0.0129,-0.03224,-0.3319,0.066918,-0.5367,-0.0093727,0.11065,-0.019196,0.11248,0.28572,0.20971,0.043925,0.17724,0.016399,0.10336,0.023324,0.1495,-0.01026,-0.068685,0.071259,-0.079323
-0.016253,-0.030753,-0.027163,0.011103,-0.033831,-0.4005,0.077844,-0.4846,-0.016321,0.10025,-0.033877,0.10521,0.29368,0.13779,0.033307,0.37576,0.038254,0.08079,0.013441,0.12669,-0.0042066,-0.047306,0.08407,-0.068438
-0.014323,-0.032049,-0.02319,0.010392,-0.029826,-0.45473,0.089724,-0.45494,-0.023236,0.086716,-0.046987,0.097296,0.28149,0.030631,0.025104,0.57888,0.05526,0.038763,0.0035815,0.092494,0.0020541,-0.026216,0.090297,-0.06229
-0.012791,-0.027365,-0.018419,0.010979,-0.021849,-0.49397,0.099339,-0.45553,-0.029412,0.073403,-0.056746,0.091543,0.24925,-0.09517,0.01847,0.77102,0.060205,-0.010863,-0.0043241,0.058014,0.0065489,-0.013208,0.087386,-0.067913
-0.011407,-0.019183,-0.013843,0.011311,-0.010014,-0.52114,0.10434,-0.48625,-0.035387,0.065912,-0.065109,0.091709,0.20793,-0.22695,0.012559,0.92263,0.050755,-0.051871,-0.0098964,0.033271,0.0090083,-0.0096395,0.079234,-0.084108
-0.011345,-0.014358,-0.011009,0.0083589,0.0055619,-0.53722,0.10522,-0.53704,-0.042052,0.070568,-0.07596,0.10091,0.17289,-0.35324,0.0068173,1.0041,0.029297,-0.071508,-0.014067,0.022999,0.011217,-0.0094073,0.073572,-0.10182
-0.014377,-0.018967,-0.010211,-0.00071808,0.023429,-0.54175,0.10454,-0.59015,-0.049534,0.090863,-0.091884,0.11918,0.15553,-0.46073,0.00098089,1.0007,0.00097574,-0.066987,-0.017628,0.025694,0.015455,-0.0037733,0.076137,-0.1105
-0.020651,-0.033391,-0.0095686,-0.016288,0.040922,-0.53706,0.1042,-0.62605,-0.056568,0.1231,-0.11197,0.14162,0.15892,-0.53387,-0.0049668,0.91985,-0.028514,-0.046534,-0.019999,0.035505,0.022332,0.011921,0.086379,-0.10557
-0.027361,-0.051244,-0.0059899,-0.034895,0.055234,-0.53032,0.10345,-0.63078,-0.060727,0.15436,-0.13191,0.15886,0.17918,-0.55743,-0.010761,0.78734,-0.05452,-0.023935,-0.019418,0.045554,0.030021,0.034964,0.098092,-0.091025
-0.030065,-0.062939,0.0026643,-0.050117,0.064233,-0.52991,0.099392,-0.60156,-0.059446,0.16577,-0.14581,0.16017,0.20998,-0.52091,-0.015863,0.64006,-0.074354,-0.0098685,-0.014455,0.05126,0.03569,0.057678,0.10423,-0.075571
-0.025942,-0.061487,0.015948,-0.055641,0.066578,-0.53906,0.089683,-0.54768,-0.051269,0.1407,-0.14836,0.13775,0.24574,-0.42359,-0.019623,0.51711,-0.087524,-0.0057899,-0.0055595,0.052354,0.037938,0.073145,0.10192,-0.065778
-0.01623,-0.046763,0.030974,-0.049022,0.061748,-0.55297,0.07509,-0.48574,-0.036606,0.073608,-0.13637,0.090026,0.2819,-0.27822,-0.021544,0.45092,-0.095128,-0.0044877,0.0046857,0.052508,0.037997,0.079569,0.093828,-0.062071
-0.0055717,-0.025581,0.044113,-0.033769,0.050596,-0.5628,0.059742,-0.43165,-0.017534,-0.026058,-0.10977,0.022621,0.31338,-0.11024,-0.021512,0.45732,-0.09857,0.0032414,0.012803,0.056369,0.038603,0.080234,0.085502,-0.060359
0.0012944,-0.0075087,0.052929,-0.018012,0.036002,-0.56322,0.048938,-0.39347,0.003125,-0.1376,-0.072163,-0.052982,0.33396,0.049809,-0.019896,0.52831,-0.098437,0.020683,0.016154,0.065365,0.041504,0.079837,0.08106,-0.057088
0.0027188,0.0010326,0.057144,-0.010046,0.022479,-0.55677,0.046194,-0.36885,0.0227,-0.23786,-0.030558,-0.12219,0.33759,0.17888,-0.017549,0.63396,-0.094472,0.041598,0.013895,0.074977,0.04588,0.080587,0.080731,-0.052876
0.00059758,0.00072791,0.05835,-0.013278,0.014189,-0.55097,0.051605,-0.34767,0.038944,-0.30951,0.0062947,-0.17074,0.321,0.27218,-0.015683,0.73582,-0.086706,0.053162,0.0066335,0.075823,0.049096,0.081026,0.081554,-0.051763
-0.0019181,-0.0013208,0.05898,-0.024051,0.012413,-0.55071,0.06235,-0.31761,0.049814,-0.34466,0.030947,-0.18841,0.2856,0.34405,-0.01555,0.80528,-0.076597,0.04313,-0.0045887,0.058583,0.049097,0.07784,0.080148,-0.05737
-0.0030552,0.0032477,0.061161,-0.034181,0.014463,-0.55266,0.074565,-0.26958,0.053501,-0.34392,0.040312,-0.17243,0.23765,0.41654,-0.017899,0.83447,-0.066816,0.0064793,-0.018962,0.019993,0.046291,0.068647,0.075167,-0.06983
-0.0030101,0.017774,0.065788,-0.036714,0.015238,-0.54652,0.085159,-0.20103,0.049195,-0.31401,0.036877,-0.12918,0.18638,0.5026,-0.022445,0.83224,-0.059487,-0.052132,-0.035669,-0.034004,0.043247,0.053584,0.067827,-0.08607
-0.0024214,0.037727,0.072081,-0.030793,0.010561,-0.52199,0.092583,-0.11684,0.038173,-0.26592,0.027176,-0.072594,0.14065,0.5955,-0.02783,0.80967,-0.054266,-0.12055,-0.053124,-0.090091,0.042545,0.035073,0.060522,-0.10262
-0.00081854,0.053672,0.07795,-0.021886,-6.4449e-005,-0.47541,0.096603,-0.028065,0.024122,-0.21328,0.018404,-0.019143,0.1051,0.67206,-0.032381,0.76796,-0.048081,-0.18369,-0.068588,-0.13327,0.044743,0.016655,0.054916,-0.11791
0.0030419,0.058131,0.081255,-0.01717,-0.013252,-0.41138,0.097747,0.051445,0.011942,-0.16879,0.015228,0.018722,0.077605,0.70697,-0.035339,0.69883,-0.037142,-0.22782,-0.07875,-0.15286,0.048241,0.0019361,0.050988,-0.13218
0.0092982,0.051167,0.081373,-0.019727,-0.024061,-0.33963,0.096923,0.10953,0.005511,-0.13918,0.018482,0.037241,0.049573,0.68719,-0.037572,0.59613,-0.019888,-0.24329,-0.081051,-0.14577,0.051012,-0.0061434,0.047549,-0.14564
0.015795,0.040294,0.079863,-0.026235,-0.028958,-0.27097,0.095114,0.1396,0.0059186,-0.12189,0.026031,0.041542,0.0098517,0.61674,-0.040932,0.46787,0.0014319,-0.22622,-0.074974,-0.11612,0.052467,-0.0061215,0.04359,-0.15747
0.019256,0.034781,0.079438,-0.029917,-0.02731,-0.21558,0.092861,0.14162,0.011465,-0.10721,0.034795,0.041375,-0.04914,0.51037,-0.046392,0.33799,0.021923,-0.17959,-0.062564,-0.072798,0.053663,0.0011184,0.039222,-0.16658
0.018008,0.03894,0.081773,-0.026148,-0.02079,-0.18248,0.08966,0.12009,0.019337,-0.085481,0.042566,0.045033,-0.12618,0.38368,-0.052358,0.23593,0.037158,-0.11349,-0.047919,-0.026604,0.055696,0.012204,0.035421,-0.17338
0.013631,0.049718,0.085855,-0.016001,-0.011755,-0.17692,0.083999,0.08147,0.027547,-0.05458,0.048718,0.055003,-0.21004,0.24831,-0.054806,0.18151,0.045901,-0.042886,-0.035843,0.012745,0.057964,0.022574,0.032873,-0.18011
0.0097855,0.060173,0.088434,-0.0049422,-0.0021722,-0.19506,0.074567,0.034063,0.035585,-0.021936,0.05366,0.067505,-0.28338,0.11455,-0.049654,0.17501,0.050425,0.01735,-0.030041,0.039726,0.058157,0.028798,0.031038,-0.18917
0.0092045,0.065486,0.086435,0.0019351,0.0063539,-0.22023,0.062087,-0.0094994,0.043527,0.0007377,0.057537,0.075576,-0.33018,-0.0036809,-0.035905,0.1974,0.05444,0.058481,-0.031483,0.055621,0.054273,0.030374,0.028398,-0.20071
0.011679,0.066335,0.07948,0.0039555,0.012217,-0.2266,0.050135,-0.031065,0.050735,0.0058221,0.05907,0.073402,-0.34305,-0.088956,-0.017113,0.21953,0.06058,0.081237,-0.037744,0.068546,0.046916,0.029609,0.023821,-0.21201
0.014848,0.067189,0.07039,0.0049145,0.014158,-0.19154,0.043629,-0.011457,0.055562,-0.0051036,0.055539,0.059315,-0.32658,-0.12771,0.0003301,0.21449,0.069563,0.093681,-0.044025,0.089334,0.039609,0.02964,0.017866,-0.2193
0.016778,0.07163,0.063197,0.0094198,0.012399,-0.10959,0.045498,0.059603,0.056356,-0.02288,0.044334,0.036159,-0.29496,-0.12009,0.011214,0.16767,0.081427,0.10453,-0.045685,0.12451,0.036417,0.032121,0.012756,-0.22076
0.017571,0.079141,0.060214,0.018841,0.009377,0.0020587,0.05395,0.17446,0.052716,-0.036986,0.025402,0.0095038,-0.26466,-0.083834,0.015031,0.080234,0.097262,0.11646,-0.040861,0.17069,0.038609,0.036186,0.010893,-0.21814
0.01846,0.085944,0.060497,0.030235,0.0088171,0.11191,0.062801,0.30709,0.045738,-0.041118,0.0028493,-0.01478,-0.24644,-0.047325,0.016238,-0.034889,0.1194,0.12456,-0.031395,0.21485,0.043214,0.039078,0.013058,-0.21556
0.019621,0.088599,0.060808,0.038885,0.013303,0.19163,0.065033,0.42349,0.0371,-0.034529,-0.015921,-0.032255,-0.24107,-0.034788,0.020756,-0.16179,0.14954,0.12088,-0.021333,0.24122,0.045013,0.037557,0.017832,-0.21659
0.019344,0.0868,0.058112,0.042135,0.022159,0.23093,0.057093,0.49656,0.027976,-0.019822,-0.023726,-0.040735,-0.24161,-0.052962,0.031085,-0.28938,0.18626,0.10161,-0.014237,0.24051,0.040666,0.029044,0.022682,-0.22167
0.015693,0.083017,0.051541,0.041378,0.031651,0.24035,0.040753,0.51585,0.018864,-0.00070898,-0.01791,-0.04083,-0.24035,-0.088204,0.043721,-0.41261,0.22416,0.070653,-0.011444,0.21516,0.031676,0.012191,0.02572,-0.22778
0.008984,0.079839,0.042443,0.040885,0.037734,0.2417,0.021404,0.48678,0.010232,0.017909,-0.0026403,-0.036663,-0.23536,-0.11613,0.05113,-0.52634,0.25564,0.03696,-0.012451,0.1769,0.023599,-0.012666,0.026623,-0.23035
0.002304,0.077787,0.032879,0.044787,0.039232,0.254,0.0045317,0.42266,0.0030114,0.028596,0.012688,-0.036047,-0.23163,-0.11731,0.047177,-0.61774,0.27441,0.0079588,-0.016462,0.13885,0.021928,-0.042961,0.026079,-0.22559
-0.00081373,0.07549,0.024098,0.054699,0.038709,0.28467,-0.0067359,0.33719,-0.0018307,0.022072,0.018356,-0.048556,-0.23602,-0.088852,0.032103,-0.66575,0.27844,-0.014928,-0.02307,0.10809,0.027857,-0.073657,0.024517,-0.21172
0.00047947,0.071586,0.016157,0.069462,0.040118,0.32977,-0.011655,0.24287,-0.0041552,-0.0081572,0.0097244,-0.080723,-0.25045,-0.045547,0.013205,-0.6513,0.27048,-0.034793,-0.031169,0.08425,0.037375,-0.098065,0.021458,-0.18858
0.0034499,0.066193,0.0086326,0.086416,0.045176,0.38046,-0.010473,0.15321,-0.0048228,-0.059243,-0.010145,-0.13014,-0.26929,-0.012314,0.0004763,-0.57222,0.25568,-0.053308,-0.037429,0.064185,0.044383,-0.10989,0.016109,-0.15653
0.0041161,0.060617,0.0014199,0.10261,0.051661,0.42976,-0.0035482,0.083417,-0.004711,-0.1156,-0.032285,-0.18252,-0.28363,-0.014969,0.00029665,-0.45113,0.23826,-0.066031,-0.036593,0.048155,0.045275,-0.10565,0.0085909,-0.11595
0.00075735,0.055882,-0.0051418,0.11509,0.0552,0.47589,0.008278,0.04638,-0.0034895,-0.15297,-0.046907,-0.21557,-0.28898,-0.074746,0.011777,-0.32757,0.21921,-0.063733,-0.024401,0.041846,0.041319,-0.08615,0.00055445,-0.067765
-0.0045841,0.05173,-0.010699,0.12091,0.053013,0.5216,0.023049,0.046938,0.00045139,-0.14959,-0.048611,-0.20951,-0.28975,-0.20581,0.028194,-0.23728,0.19675,-0.039171,-0.001165,0.052305,0.037145,-0.056045,-0.0055155,-0.014232
-0.0079387,0.046971,-0.01518,0.11801,0.04632,0.57119,0.038048,0.079775,0.0085757,-0.098598,-0.038614,-0.15894,-0.29613,-0.41106,0.041994,-0.19164,0.16932,0.0062714,0.027162,0.081242,0.036855,-0.021595,-0.0078933,0.040819
-0.006894,0.040552,-0.018594,0.10691,0.039357,0.62709,0.051141,0.13343,0.020495,-0.013871,-0.022972,-0.078383,-0.3155,-0.6744,0.049315,-0.17179,0.13855,0.061859,0.051917,0.12152,0.041006,0.01214,-0.0068909,0.092747
-0.002646,0.032099,-0.020702,0.091523,0.036015,0.68767,0.061846,0.19736,0.033614,0.07543,-0.0085039,0.0032059,-0.34524,-0.95489,0.050978,-0.14194,0.10989,0.11352,0.066815,0.16019,0.046687,0.043079,-0.0048162,0.13737
0.0010861,0.021467,-0.021138,0.077433,0.037245,0.74779,0.071187,0.26658,0.044561,0.139,0.00060738,0.056754,-0.3731,-1.1921,0.050106,-0.073474,0.089734,0.15173,0.071333,0.18602,0.050258,0.071869,-0.0045649,0.17207
0.0012222,0.0079957,-0.020046,0.068029,0.041493,0.80254,0.080683,0.34105,0.051226,0.15984,0.0035502,0.067526,-0.38497,-1.3269,0.049143,0.035126,0.080924,0.17492,0.06982,0.19562,0.050331,0.09989,-0.0077633,0.19636
-0.0021803,-0.0094253,-0.018539,0.061305,0.047532,0.85183,0.0917,0.42188,0.053761,0.14021,0.0014418,0.040767,-0.37405,-1.33,0.048677,0.15435,0.080091,0.18646,0.067361,0.1936,0.048674,0.12709,-0.01365,0.21185
-0.0061095,-0.031171,-0.018283,0.050662,0.056729,0.90187,0.10559,0.50859,0.05393,0.096347,-0.0041991,-0.0045137,-0.34437,-1.2197,0.04825,0.23704,0.079236,0.18872,0.066098,0.18673,0.048583,0.15139,-0.019351,0.22169
-0.0071628,-0.05536,-0.020325,0.030127,0.07233,0.96117,0.12375,0.59985,0.053585,0.046871,-0.011557,-0.048498,-0.30633,-1.0544,0.047479,0.24136,0.070765,0.18035,0.065051,0.17745,0.052209,0.17022,-0.021318,0.22929
-0.0042886,-0.077344,-0.02413,0.00046092,0.09612,1.0331,0.1464,0.69562,0.053549,0.0036106,-0.017775,-0.080951,-0.2684,-0.90044,0.046247,0.15213,0.052364,0.15884,0.063075,0.16224,0.058962,0.18267,-0.017087,0.23667
0.00048231,-0.091053,-0.027798,-0.02902,0.12531,1.1111,0.1706,0.7972,0.053571,-0.029732,-0.019182,-0.10263,-0.23201,-0.79409,0.044333,-0.0085776,0.028122,0.12545,0.061617,0.13612,0.066147,0.19015,-0.0064797,0.24296
0.003752,-0.091854,-0.029399,-0.045422,0.15261,1.1804,0.1894,0.90372,0.053036,-0.052758,-0.013314,-0.1187,-0.19321,-0.72334,0.041654,-0.18592,0.0053074,0.087263,0.064304,0.099384,0.071197,0.19443,0.0082612,0.2444
0.0033813,-0.079307,-0.02835,-0.041144,0.16982,1.2274,0.19406,1.0079,0.051672,-0.063748,-0.0012005,-0.13097,-0.149,-0.64282,0.039224,-0.31122,-0.01051,0.054301,0.073673,0.060545,0.073653,0.19475,0.023408,0.23583
-0.00011645,-0.057922,-0.025637,-0.020108,0.17268,1.2482,0.17861,1.0958,0.049669,-0.060001,0.012557,-0.13575,-0.10235,-0.51122,0.03951,-0.32935,-0.018392,0.034888,0.088244,0.032852,0.075273,0.18719,0.035372,0.21359
-0.0043971,-0.035073,-0.022756,0.0038399,0.16348,1.251,0.14385,1.1525,0.047121,-0.042044,0.022677,-0.12813,-0.061589,-0.32347,0.045037,-0.22339,-0.021488,0.033563,0.10285,0.026947,0.078152,0.16779,0.0423,0.17804
-0.0074123,-0.017207,-0.0204,0.015723,0.14964,1.25,0.097294,1.1708,0.043169,-0.016356,0.026894,-0.10798,-0.03464,-0.11391,0.05596,-0.02395,-0.02432,0.052325,0.11195,0.045088,0.08245,0.13777,0.044823,0.1346
-0.0089134,-0.0068947,-0.018115,0.0091884,0.13924,1.255,0.048965,1.1564,0.035561,0.0073046,0.027206,-0.081519,-0.023077,0.070281,0.068967,0.20437,-0.030359,0.091624,0.11275,0.080579,0.085764,0.10585,0.045373,0.092483
-0.01008,-0.0026758,-0.015126,-0.0099356,0.13633,1.2643,0.0060271,1.1239,0.02127,0.022315,0.027519,-0.056897,-0.020609,0.20287,0.079069,0.39464,-0.041151,0.14777,0.10555,0.12167,0.084867,0.084614,0.046301,0.061569
-0.011778,-0.0013641,-0.01141,-0.02869,0.13903,1.2654,-0.029593,1.0882,-0.0017748,0.029632,0.029933,-0.03786,-0.016859,0.2923,0.08317,0.51008,-0.056492,0.20863,0.091477,0.15636,0.078477,0.082348,0.047974,0.04859
-0.01323,-0.00052224,-0.0078261,-0.036541,0.14153,1.2433,-0.059193,1.0553,-0.032723,0.035995,0.033152,-0.021433,-0.0032275,0.36653,0.082292,0.55782,-0.074608,0.25387,0.070652,0.17548,0.068657,0.096512,0.048337,0.054348
-0.012485,0.00092295,-0.0051608,-0.032205,0.13867,1.1912,-0.083307,1.0217,-0.067045,0.047278,0.034354,-0.0018294,0.023212,0.44522,0.080247,0.57532,-0.092266,0.26397,0.042772,0.1741,0.059467,0.11467,0.044533,0.07343
-0.0083991,0.0037317,-0.0031095,-0.023118,0.13015,1.1165,-0.099805,0.98104,-0.097895,0.062775,0.032397,0.022821,0.059501,0.52471,0.079782,0.59999,-0.1056,0.23361,0.0095342,0.15276,0.053873,0.12305,0.035483,0.096907
-0.0022657,0.0091111,-0.00035785,-0.018813,0.1215,1.0382,-0.10595,0.93269,-0.11911,0.07533,0.028982,0.046865,0.098954,0.58762,0.079662,0.64436,-0.11197,0.17869,-0.024103,0.11851,0.051495,0.11628,0.023294,0.11675
0.0026308,0.017822,0.0041648,-0.023829,0.12092,0.97807,-0.10232,0.88416,-0.12803,0.076902,0.026612,0.059892,0.13343,0.62503,0.075453,0.69373,-0.11174,0.12879,-0.051669,0.083525,0.049175,0.10027,0.012049,0.12946
0.0034717,0.028554,0.010051,-0.035367,0.13369,0.95077,-0.094359,0.84607,-0.12636,0.064511,0.025552,0.053684,0.15474,0.64776,0.063406,0.72486,-0.10818,0.10803,-0.068787,0.059619,0.043882,0.085704,0.0047634,0.13647
0.00037059,0.037782,0.015491,-0.046596,0.15793,0.95767,-0.08945,0.82379,-0.11858,0.041618,0.02308,0.027811,0.15575,0.6751,0.043984,0.72765,-0.10522,0.11811,-0.075483,0.050909,0.035402,0.077574,0.001023,0.14128
-0.0034127,0.042001,0.01871,-0.052225,0.18471,0.98767,-0.09131,0.81293,-0.10927,0.014422,0.015977,-0.010309,0.13214,0.71216,0.021841,0.71127,-0.10446,0.13675,-0.07522,0.049902,0.02645,0.069894,-0.0025276,0.14538
-0.0039351,0.040585,0.019491,-0.051903,0.20299,1.023,-0.096616,0.80238,-0.10111,-0.012997,0.0038617,-0.050424,0.084341,0.73886,0.0022852,0.69173,-0.10427,0.13375,-0.071735,0.04139,0.020235,0.050143,-0.0091021,0.14625
0.00025562,0.036439,0.019349,-0.049447,0.20632,1.0463,-0.097009,0.78217,-0.094676,-0.040338,-0.010017,-0.085309,0.018449,0.7234,-0.012556,0.67467,-0.10155,0.092561,-0.066711,0.012806,0.017828,0.0096813,-0.018702,0.13911
0.0069504,0.033552,0.020187,-0.049346,0.19682,1.0464,-0.085286,0.75021,-0.089375,-0.068684,-0.021388,-0.11318,-0.054689,0.64921,-0.024515,0.65,-0.09491,0.021843,-0.060177,-0.035986,0.017861,-0.048591,-0.027754,0.12093
0.012139,0.033581,0.022683,-0.053575,0.18342,1.0221,-0.060927,0.7135,-0.084395,-0.096991,-0.028414,-0.13559,-0.12214,0.53083,-0.03664,0.60234,-0.086062,-0.050914,-0.052658,-0.090905,0.018746,-0.11125,-0.031782,0.093602
0.013266,0.034756,0.025834,-0.060747,0.17572,0.98222,-0.030686,0.68401,-0.078973,-0.12101,-0.032524,-0.15344,-0.17223,0.40323,-0.049719,0.52575,-0.078494,-0.097425,-0.046432,-0.13159,0.021005,-0.16242,-0.028823,0.063878
0.011055,0.034249,0.028028,-0.067454,0.17759,0.94309,-0.0040611,0.6728,-0.072312,-0.13545,-0.035785,-0.16446,-0.19765,0.29321,-0.061376,0.42799,-0.074629,-0.10474,-0.044386,-0.14353,0.027009,-0.19185,-0.020701,0.040043
0.0084574,0.031774,0.028598,-0.070271,0.18512,0.92221,0.01243,0.68642,-0.063832,-0.13717,-0.037512,-0.16416,-0.19762,0.19789,-0.068389,0.32053,-0.074248,-0.07931,-0.04767,-0.12597,0.037929,-0.19761,-0.011341,0.027869
0.0078574,0.030825,0.028473,-0.067166,0.18953,0.93107,0.017742,0.72665,-0.053743,-0.12639,-0.033782,-0.14874,-0.1783,0.089539,-0.06974,0.20468,-0.075457,-0.039104,-0.054712,-0.090797,0.050819,-0.18319,-0.0038437,0.028238
0.0091295,0.035948,0.029377,-0.058058,0.18249,0.97084,0.014352,0.79205,-0.043205,-0.10539,-0.020829,-0.11745,-0.15046,-0.057412,-0.067302,0.068167,-0.076977,-0.0018677,-0.062758,-0.054515,0.059202,-0.15366,0.0011385,0.037325
0.010121,0.048128,0.032284,-0.044883,0.15957,1.0338,0.0045753,0.87907,-0.033615,-0.076377,0.00052029,-0.072683,-0.12473,-0.24065,-0.063554,-0.10348,-0.079385,0.022091,-0.070428,-0.029601,0.057587,-0.11438,0.0047143,0.048445
0.008866,0.062387,0.036437,-0.031237,0.12033,1.109,-0.011124,0.9816,-0.025514,-0.040835,0.02348,-0.018577,-0.10655,-0.42736,-0.058811,-0.30941,-0.08412,0.030092,-0.078633,-0.020579,0.046372,-0.071972,0.0079205,0.054241
0.0054042,0.070156,0.03974,-0.021306,0.066327,1.1877,-0.032469,1.09,-0.018333,-0.00098181,0.038685,0.039989,-0.094212,-0.57626,-0.050957,-0.52348,-0.091357,0.023535,-0.088848,-0.025452,0.032545,-0.034455,0.010649,0.048639
0.0016872,0.065075,0.040258,-0.018067,0.00024268,1.264,-0.056491,1.1913,-0.011391,0.038549,0.039979,0.096918,-0.08171,-0.66536,-0.038177,-0.69939,-0.098944,0.0051563,-0.10049,-0.039394,0.02486,-0.0089711,0.012088,0.028645
-0.00013099,0.047787,0.037674,-0.021653,-0.073213,1.3302,-0.076807,1.2714,-0.0051623,0.070897,0.028277,0.14422,-0.064689,-0.70308,-0.022005,-0.78804,-0.10348,-0.0212,-0.11013,-0.057376,0.027089,0.0014023,0.011811,-0.004235
0.00057787,0.025789,0.033602,-0.029212,-0.14615,1.3728,-0.086429,1.3192,-0.0011701,0.089578,0.010739,0.17338,-0.044913,-0.71611,-0.0074493,-0.75829,-0.10265,-0.04992,-0.11341,-0.074843,0.035008,-0.0013428,0.010216,-0.043904
0.0025446,0.0081916,0.03051,-0.036748,-0.2086,1.3745,-0.08224,1.3293,-0.00012748,0.091753,-0.0038232,0.17939,-0.029641,-0.72673,0.00043662,-0.61219,-0.096673,-0.074357,-0.10799,-0.087753,0.039764,-0.012457,0.0080318,-0.081829
0.0037025,-0.00065402,0.030045,-0.041867,-0.25225,1.3221,-0.06755,1.3038,2.6571e-005,0.0796,-0.0097773,0.1647,-0.026336,-0.73923,0.00071088,-0.38908,-0.087791,-0.08937,-0.094709,-0.09332,0.034829,-0.027957,0.0056775,-0.11091
0.0027687,-0.003721,0.032042,-0.045366,-0.27417,1.2159,-0.050472,1.2498,0.0038545,0.058698,-0.0065396,0.13931,-0.037011,-0.7443,-0.0023294,-0.15568,-0.078263,-0.093918,-0.0763,-0.091299,0.020779,-0.046094,0.0033306,-0.12876
0.00013509,-0.0082435,0.034944,-0.050375,-0.27756,1.0738,-0.038914,1.1765,0.015297,0.034628,0.0030232,0.11527,-0.056576,-0.73373,-0.0023174,0.017238,-0.06874,-0.091643,-0.055257,-0.084527,0.0042171,-0.065625,0.0015362,-0.13801
-0.0024607,-0.019765,0.037276,-0.059679,-0.26856,0.92444,-0.035478,1.0913,0.033903,0.010304,0.015574,0.099027,-0.075908,-0.70949,0.0042485,0.084016,-0.058408,-0.088888,-0.033197,-0.077852,-0.0076291,-0.082952,0.0014923,-0.14308
-0.0031654,-0.038193,0.038949,-0.073353,-0.25188,0.79419,-0.035678,0.99842,0.053831,-0.014318,0.029078,0.087376,-0.086537,-0.67859,0.015477,0.045122,-0.046696,-0.09148,-0.011906,-0.075909,-0.011752,-0.091495,0.0044727,-0.14599
-0.0012974,-0.058723,0.041298,-0.088475,-0.22862,0.69616,-0.030732,0.89925,0.067158,-0.0404,0.042458,0.070808,-0.083468,-0.64007,0.026111,-0.05389,-0.034906,-0.1022,0.005726,-0.081087,-0.0099766,-0.084703,0.010838,-0.14466
0.0021395,-0.076187,0.045739,-0.10091,-0.19785,0.62754,-0.013264,0.7946,0.069469,-0.067909,0.054313,0.041983,-0.065536,-0.57851,0.032315,-0.14781,-0.026112,-0.12012,0.016695,-0.092842,-0.0058915,-0.060777,0.019579,-0.13538
0.0050549,-0.088746,0.052112,-0.10755,-0.16025,0.57637,0.017654,0.68697,0.063524,-0.094409,0.062571,0.002658,-0.035325,-0.47344,0.035057,-0.18754,-0.02309,-0.14168,0.020258,-0.1085,-0.0016857,-0.025315,0.028863,-0.11731
0.0056277,-0.097972,0.058144,-0.10733,-0.12005,0.53157,0.055398,0.58109,0.058019,-0.11549,0.06566,-0.036719,-2.9441e-005,-0.31862,0.039187,-0.16365,-0.025881,-0.16257,0.019207,-0.12486,0.0023486,0.010729,0.037135,-0.094663
0.0035535,-0.10594,0.060676,-0.10073,-0.083698,0.48867,0.089432,0.48207,0.062228,-0.12652,0.063997,-0.064644,0.028335,-0.13498,0.049121,-0.10315,-0.031167,-0.17949,0.01823,-0.13972,0.0061192,0.036976,0.043956,-0.074078
0.00034579,-0.11247,0.057901,-0.088814,-0.056327,0.44861,0.11139,0.39245,0.080316,-0.12507,0.060058,-0.077442,0.036255,0.035605,0.064948,-0.044293,-0.034388,-0.19101,0.020471,-0.15247,0.0084973,0.049655,0.050052,-0.058811
-0.0015528,-0.11514,0.05086,-0.072706,-0.03926,0.41302,0.11958,0.31096,0.10914,-0.11323,0.056561,-0.082417,0.015667,0.15356,0.082366,-0.01028,-0.033138,-0.1976,0.025408,-0.16368,0.0082147,0.053509,0.056666,-0.044964
-0.00031381,-0.11164,0.042824,-0.05392,-0.030551,0.38157,0.1188,0.23458,0.14045,-0.098463,0.054237,-0.09301,-0.030011,0.2052,0.096416,-0.00082789,-0.029022,-0.2005,0.030193,-0.1738,0.0058145,0.057984,0.06461,-0.02377
0.0040533,-0.10219,0.036819,-0.034564,-0.0279,0.35315,0.1159,0.16236,0.16531,-0.092056,0.051239,-0.11999,-0.086434,0.20908,0.10567,-0.0042163,-0.026189,-0.20027,0.03316,-0.18191,0.0041419,0.070116,0.073507,0.011024
0.0095587,-0.089639,0.033178,-0.016873,-0.031278,0.32746,0.11443,0.097138,0.17755,-0.10486,0.044849,-0.16535,-0.1366,0.20062,0.11314,-0.01486,-0.027622,-0.19574,0.035937,-0.18538,0.0062825,0.089178,0.081672,0.05654
0.013258,-0.077272,0.029256,-0.002217,-0.043078,0.30298,0.11262,0.042353,0.17474,-0.14209,0.034014,-0.2228,-0.17113,0.20723,0.12317,-0.03877,-0.032398,-0.18426,0.041824,-0.18096,0.012627,0.10713,0.086893,0.1009
0.012852,-0.066342,0.021729,0.0095485,-0.065822,0.27261,0.10612,-0.0036537,0.15716,-0.19989,0.020476,-0.28309,-0.19243,0.23238,0.13686,-0.08273,-0.036444,-0.16356,0.051831,-0.16686,0.019953,0.11475,0.087805,0.13084
0.0079649,-0.055474,0.0096805,0.019661,-0.099303,0.22298,0.093069,-0.049512,0.12656,-0.26609,0.0075083,-0.33935,-0.20933,0.25912,0.15022,-0.13959,-0.036203,-0.13378,0.062356,-0.14426,0.02374,0.10885,0.084952,0.14109
0.00041227,-0.042422,-0.0041834,0.029188,-0.13926,0.14226,0.077059,-0.10489,0.085576,-0.32482,-0.0025304,-0.38846,-0.22718,0.26743,0.15668,-0.18616,-0.031885,-0.098219,0.067224,-0.11711,0.021927,0.094976,0.08056,0.1379
-0.0067311,-0.026629,-0.015327,0.037937,-0.17842,0.032314,0.065211,-0.17039,0.037805,-0.36293,-0.0097104,-0.42899,-0.24199,0.25071,0.1523,-0.19785,-0.027313,-0.061621,0.062802,-0.089833,0.016835,0.083345,0.076963,0.13384
-0.010776,-0.010319,-0.020696,0.044549,-0.20933,-0.086016,0.062625,-0.23296,-0.012441,-0.37524,-0.015961,-0.45899,-0.24356,0.21959,0.13956,-0.16774,-0.026491,-0.027073,0.051776,-0.064635,0.013454,0.081268,0.074834,0.13797
-0.010857,0.0029204,-0.020729,0.047821,-0.22737,-0.18263,0.067802,-0.27386,-0.060753,-0.36615,-0.023182,-0.47621,-0.22395,0.19319,0.12686,-0.11218,-0.030046,0.0063635,0.042056,-0.040408,0.015438,0.088098,0.0727,0.14965
-0.0082731,0.010909,-0.018447,0.048179,-0.23232,-0.23854,0.073112,-0.28481,-0.10331,-0.34704,-0.031755,-0.48022,-0.18346,0.18695,0.12374,-0.057117,-0.034706,0.043164,0.041279,-0.014272,0.02217,0.096547,0.06824,0.16052
-0.0054627,0.014473,-0.016647,0.047835,-0.22766,-0.26105,0.070331,-0.27887,-0.13713,-0.33049,-0.040501,-0.47363,-0.12903,0.20658,0.13505,-0.016641,-0.036159,0.087889,0.051102,0.015392,0.029348,0.098982,0.060295,0.16264
-0.0043049,0.016289,-0.015793,0.049114,-0.21799,-0.27975,0.056993,-0.28447,-0.1601,-0.32376,-0.047765,-0.46077,-0.067709,0.2498,0.15764,0.016987,-0.032608,0.14067,0.065612,0.046729,0.032546,0.093414,0.049972,0.15545
-0.0049401,0.018004,-0.014351,0.052138,-0.20621,-0.3248,0.038398,-0.32534,-0.17111,-0.32524,-0.052539,-0.44473,-0.0021493,0.31071,0.18142,0.062953,-0.026046,0.19434,0.074905,0.074529,0.030705,0.084599,0.040001,0.14603
-0.0059455,0.018514,-0.010902,0.05404,-0.19258,-0.40441,0.023525,-0.40218,-0.17073,-0.3263,-0.054858,-0.42568,0.067272,0.38143,0.19405,0.13044,-0.020572,0.23504,0.070969,0.092199,0.026658,0.079904,0.032979,0.14316
-0.0056368,0.01541,-0.0058386,0.051043,-0.17626,-0.49992,0.018167,-0.49191,-0.16158,-0.31772,-0.055494,-0.40169,0.13656,0.45048,0.18634,0.20548,-0.019631,0.24659,0.05166,0.093937,0.024353,0.083708,0.029837,0.15054
-0.003396,0.0084333,-0.0010559,0.042207,-0.15765,-0.58219,0.020882,-0.56552,-0.14782,-0.29628,-0.055339,-0.37083,0.19557,0.50215,0.15578,0.2582,-0.024466,0.21718,0.020493,0.076228,0.025275,0.094611,0.029439,0.16494
5.2015e-006,0.0013833,0.0018585,0.031654,-0.13941,-0.63448,0.025024,-0.60927,-0.13336,-0.26632,-0.054805,-0.33197,0.23339,0.52067,0.10671,0.26498,-0.034456,0.14621,-0.016682,0.039218,0.027118,0.10692,0.029318,0.18018
0.0031904,1.312e-005,0.0030554,0.02657,-0.12452,-0.66242,0.024963,-0.63134,-0.12009,-0.23487,-0.053439,-0.28413,0.24853,0.49809,0.047724,0.22743,-0.048245,0.047911,-0.055104,-0.011366,0.025796,0.11439,0.026983,0.193
0.0052532,0.00723,0.0041124,0.031736,-0.11332,-0.68428,0.021125,-0.64972,-0.10724,-0.20443,-0.050008,-0.22621,0.25513,0.44058,-0.012014,0.17312,-0.064343,-0.050962,-0.092163,-0.062942,0.018971,0.11314,0.021141,0.2058
0.0061997,0.019893,0.0063924,0.044797,-0.10197,-0.7125,0.019592,-0.6742,-0.092727,-0.17006,-0.043275,-0.15922,0.27803,0.36742,-0.065531,0.13744,-0.08098,-0.12049,-0.126,-0.098103,0.0080818,0.10206,0.01237,0.22384
0.0065432,0.030472,0.0097264,0.056782,-0.084418,-0.74466,0.026724,-0.69957,-0.075327,-0.12358,-0.033201,-0.089559,0.33808,0.30192,-0.10883,0.14004,-0.095944,-0.14061,-0.1535,-0.10128,-0.0027897,0.081772,0.0028501,0.24945
0.006613,0.032548,0.012655,0.058385,-0.05663,-0.77102,0.043472,-0.71505,-0.056044,-0.061192,-0.021733,-0.029125,0.43706,0.25873,-0.13994,0.17163,-0.10694,-0.11116,-0.16978,-0.067428,-0.010104,0.053934,-0.0048312,0.27812
0.0062687,0.025612,0.013907,0.047386,-0.020049,-0.78913,0.064213,-0.71872,-0.037564,0.012536,-0.012285,0.01052,0.55322,0.23509,-0.15764,0.19827,-0.11223,-0.052575,-0.16991,-0.0069244,-0.013325,0.021646,-0.0092382,0.30006
0.0051859,0.015166,0.013627,0.031001,0.018197,-0.80954,0.080985,-0.72132,-0.022205,0.087975,-0.0079324,0.027203,0.6514,0.21162,-0.16123,0.17836,-0.11089,0.004028,-0.15153,0.057584,-0.014679,-0.010152,-0.010973,0.30638
0.0032997,0.0082885,0.013169,0.020763,0.048606,-0.8459,0.089451,-0.73545,-0.009894,0.15788,-0.0095157,0.033079,0.70188,0.16294,-0.15185,0.080538,-0.10266,0.031818,-0.11662,0.10153,-0.016688,-0.036035,-0.012173,0.29522
0.00093622,0.0086073,0.013659,0.023834,0.064038,-0.89948,0.091648,-0.76152,0.0023083,0.22209,-0.015083,0.04982,0.69606,0.072472,-0.13464,-0.1073,-0.087814,0.01939,-0.070975,0.1097,-0.01986,-0.053333,-0.014918,0.27264
-0.0014105,0.014698,0.014724,0.03779,0.063123,-0.95439,0.093518,-0.78567,0.01875,0.2856,-0.02115,0.095943,0.64946,-0.056935,-0.11954,-0.38074,-0.067521,-0.027732,-0.021854,0.081842,-0.022569,-0.064931,-0.019758,0.24725
-0.0032931,0.022568,0.014667,0.053026,0.050539,-0.98996,0.099654,-0.79296,0.04265,0.35274,-0.024792,0.17516,0.59096,-0.20358,-0.11943,-0.72828,-0.044358,-0.093976,0.024679,0.030171,-0.023054,-0.078556,-0.025488,0.22279
-0.0042477,0.029368,0.012033,0.060513,0.034167,-0.99993,0.1098,-0.78391,0.073966,0.42351,-0.025063,0.27459,0.54559,-0.33873,-0.14513,-1.138,-0.02221,-0.1625,0.064956,-0.027813,-0.021512,-0.10169,-0.030206,0.19489
-0.0036443,0.034974,0.007211,0.058287,0.020781,-1.0013,0.11979,-0.77856,0.10886,0.49536,-0.022984,0.37397,0.5215,-0.44239,-0.19967,-1.5942,-0.0052012,-0.21982,0.096977,-0.076152,-0.020281,-0.1352,-0.032599,0.15517
-0.00092257,0.040521,0.0025003,0.0516,0.012803,-1.024,0.12561,-0.80407,0.14105,0.56726,-0.020575,0.45809,0.50771,-0.51236,-0.27473,-2.0641,0.0037791,-0.25555,0.11875,-0.10383,-0.02189,-0.17074,-0.032333,0.099502
0.0036758,0.045851,0.00036385,0.047329,0.0081069,-1.091,0.12685,-0.87664,0.16428,0.64056,-0.019845,0.52287,0.48278,-0.55977,-0.35216,-2.488,0.0039543,-0.26118,0.12754,-0.10541,-0.026697,-0.19519,-0.029414,0.033497
0.0084996,0.048521,0.0011964,0.047971,0.0029133,-1.2041,0.12655,-0.9933,0.17466,0.71442,-0.022137,0.57175,0.42824,-0.59484,-0.41068,-2.7859,-0.0035071,-0.23205,0.12091,-0.081201,-0.032173,-0.19951,-0.023479,-0.029612
0.010921,0.045304,0.0025853,0.050261,-0.0045809,-1.3466,0.12797,-1.1383,0.17185,0.78002,-0.027635,0.60778,0.33895,-0.61513,-0.43475,-2.8886,-0.016263,-0.17221,0.099082,-0.037697,-0.034466,-0.1856,-0.013962,-0.077078
0.009008,0.034825,0.00094341,0.048981,-0.012914,-1.4972,0.1315,-1.2955,0.15856,0.82038,-0.034919,0.6299,0.22519,-0.60763,-0.42134,-2.7794,-0.031461,-0.097296,0.066247,0.012838,-0.031014,-0.16532,-0.0011167,-0.10421
0.0033376,0.019126,-0.0056192,0.041993,-0.019546,-1.6405,0.13443,-1.4539,0.13918,0.81856,-0.041057,0.6366,0.10586,-0.56497,-0.38102,-2.5173,-0.04612,-0.03044,0.029553,0.055507,-0.022263,-0.15205,0.013224,-0.11557
-0.0027671,0.0028858,-0.015556,0.03195,-0.024291,-1.766,0.134,-1.6022,0.11831,0.76946,-0.042727,0.63225,-0.0028825,-0.50176,-0.33256,-2.2194,-0.057675,0.0083546,-0.0041126,0.078252,-0.011337,-0.15117,0.02618,-0.11978
-0.0053173,-0.0091613,-0.024893,0.023518,-0.03013,-1.8606,0.13081,-1.7222,0.10005,0.68628,-0.038068,0.62816,-0.096595,-0.45395,-0.29382,-2.0041,-0.064911,0.013056,-0.031222,0.076954,-0.0020758,-0.157,0.035509,-0.1229
-0.0027851,-0.014922,-0.030303,0.019016,-0.039782,-1.9066,0.12951,-1.7903,0.087874,0.59561,-0.027922,0.63621,-0.18359,-0.45615,-0.27347,-1.928,-0.068754,-0.005413,-0.052405,0.056791,0.0031004,-0.15847,0.041057,-0.12599
0.0022779,-0.016062,-0.031697,0.016587,-0.050862,-1.8899,0.13561,-1.7905,0.084758,0.52378,-0.015262,0.65998,-0.27712,-0.51149,-0.26783,-1.9599,-0.071901,-0.026881,-0.070608,0.028711,0.0041528,-0.14839,0.044619,-0.12772
0.0048247,-0.016897,-0.032095,0.012463,-0.054894,-1.8137,0.15066,-1.7276,0.092912,0.48346,-0.0030167,0.692,-0.38385,-0.5793,-0.26473,-2.009,-0.077083,-0.035066,-0.088399,0.0032303,0.0027689,-0.12886,0.048156,-0.12852
0.0012111,-0.021703,-0.034894,0.0050687,-0.042874,-1.7036,0.16969,-1.6288,0.11288,0.46958,0.0079998,0.7198,-0.49667,-0.59516,-0.25181,-1.9898,-0.085048,-0.026572,-0.1066,-0.014356,0.0007261,-0.10869,0.051831,-0.13215
-0.0076399,-0.032036,-0.040988,-0.0029447,-0.014078,-1.5962,0.18311,-1.5294,0.14214,0.46603,0.019229,0.7354,-0.59708,-0.513,-0.22435,-1.8746,-0.094009,-0.0096447,-0.12485,-0.024433,-0.001559,-0.096019,0.053587,-0.14379
-0.016556,-0.045649,-0.048292,-0.0067538,0.019238,-1.5193,0.18227,-1.4532,0.174,0.45731,0.03237,0.73932,-0.66553,-0.33915,-0.18746,-1.7007,-0.10119,0.0049749,-0.14283,-0.029666,-0.005307,-0.092641,0.050723,-0.16695
-0.019936,-0.057685,-0.053898,-0.0037116,0.036529,-1.4761,0.16437,-1.4027,0.19791,0.43633,0.04697,0.7356,-0.69197,-0.13195,-0.15172,-1.5307,-0.10524,0.012654,-0.16041,-0.031048,-0.012259,-0.09469,0.042277,-0.20204
-0.01612,-0.063465,-0.056602,0.0040065,0.021111,-1.4485,0.13341,-1.3651,0.2023,0.4044,0.059821,0.72298,-0.67897,0.033975,-0.12568,-1.4023,-0.10727,0.016043,-0.17672,-0.026719,-0.022891,-0.098254,0.030311,-0.24688
-0.0087434,-0.061175,-0.057314,0.011021,-0.028573,-1.4135,0.096412,-1.3282,0.17952,0.36615,0.066896,0.69193,-0.63604,0.11244,-0.11098,-1.3043,-0.10954,0.019317,-0.18926,-0.014286,-0.035253,-0.10445,0.019132,-0.29751
-0.0038961,-0.052837,-0.057113,0.013281,-0.096935,-1.362,0.058435,-1.2919,0.13064,0.32534,0.066285,0.6319,-0.57083,0.10757,-0.10356,-1.1943,-0.11293,0.022126,-0.19467,0.0056579,-0.045472,-0.1192,0.013052,-0.3477
-0.0053526,-0.043073,-0.05529,0.011342,-0.16013,-1.3038,0.020443,-1.2679,0.066726,0.28441,0.059623,0.54349,-0.48519,0.060897,-0.09889,-1.0361,-0.11561,0.019268,-0.19101,0.028035,-0.049841,-0.14777,0.014312,-0.38827
-0.011757,-0.036616,-0.049739,0.0092704,-0.19945,-1.2563,-0.018444,-1.2667,0.0045881,0.24578,0.050694,0.44464,-0.37848,0.019497,-0.096203,-0.82721,-0.1143,0.0059667,-0.17947,0.045343,-0.047169,-0.18824,0.022464,-0.40821
-0.01798,-0.036192,-0.039592,0.010129,-0.20982,-1.2283,-0.056723,-1.2857,-0.041061,0.21153,0.042355,0.36386,-0.25412,0.01191,-0.098022,-0.59675,-0.10688,-0.016685,-0.16406,0.052055,-0.039676,-0.22944,0.035291,-0.39854
-0.019344,-0.041864,-0.027352,0.012422,-0.19866,-1.2106,-0.088446,-1.3057,-0.064479,0.18095,0.034436,0.32456,-0.12208,0.045366,-0.1059,-0.38217,-0.09426,-0.041169,-0.14912,0.048343,-0.031642,-0.25532,0.050199,-0.35696
-0.015122,-0.051672,-0.017917,0.011129,-0.17759,-1.1807,-0.10548,-1.2999,-0.070268,0.14995,0.024501,0.33229,0.0050391,0.11507,-0.11714,-0.20529,-0.079787,-0.058081,-0.13677,0.040324,-0.026685,-0.25342,0.064978,-0.29008
-0.0085359,-0.062589,-0.014834,0.0026098,-0.15457,-1.1153,-0.10234,-1.2463,-0.068718,0.11491,0.010814,0.37438,0.11818,0.20713,-0.12613,-0.065387,-0.066935,-0.061779,-0.12643,0.036103,-0.025627,-0.22208,0.077617,-0.21123
-0.0036898,-0.071197,-0.017051,-0.011215,-0.13185,-1.0033,-0.079651,-1.1388,-0.068884,0.078841,-0.0052121,0.43128,0.21356,0.28945,-0.12952,0.050201,-0.057338,-0.053175,-0.11664,0.039634,-0.026436,-0.17149,0.085931,-0.13531
-0.0024127,-0.074416,-0.019319,-0.023624,-0.10939,-0.8504,-0.04347,-0.98992,-0.074428,0.052943,-0.019506,0.48926,0.28828,0.30497,-0.13036,0.15034,-0.050538,-0.038694,-0.10741,0.046514,-0.026107,-0.11749,0.087967,-0.073734
-0.0036603,-0.070881,-0.016238,-0.028443,-0.089037,-0.67784,-0.0012645,-0.82759,-0.084391,0.049483,-0.028646,0.54427,0.33515,0.1866,-0.13733,0.23278,-0.045199,-0.026798,-0.10079,0.045486,-0.02285,-0.072159,0.083318,-0.032243
-0.0054556,-0.062527,-0.0066095,-0.025264,-0.074835,-0.51644,0.042057,-0.68629,-0.096881,0.070199,-0.033272,0.5954,0.34388,-0.10515,-0.15899,0.2903,-0.040443,-0.023758,-0.09906,0.026043,-0.016869,-0.037511,0.074298,-0.011611
-0.0070283,-0.054699,0.0055766,-0.019798,-0.069504,-0.39866,0.085144,-0.59625,-0.11177,0.10044,-0.03858,0.63645,0.30998,-0.54617,-0.19782,0.32519,-0.036222,-0.030018,-0.10222,-0.012363,-0.0093484,-0.0068221,0.065519,-0.0096804
-0.0090484,-0.053513,0.014267,-0.019032,-0.070798,-0.34886,0.12808,-0.57321,-0.13028,0.11618,-0.051148,0.65482,0.24391,-1.0462,-0.24866,0.36136,-0.032783,-0.038942,-0.10711,-0.05668,-0.00088577,0.027473,0.061503,-0.022739
-0.012115,-0.061502,0.01588,-0.025504,-0.071696,-0.37446,0.16955,-0.61333,-0.15266,0.10032,-0.074356,0.63948,0.17096,-1.4894,-0.30244,0.44413,-0.030033,-0.039887,-0.10915,-0.086502,0.0089323,0.065592,0.063714,-0.045693
-0.015459,-0.074884,0.011633,-0.035573,-0.064873,-0.46298,0.20587,-0.69668,-0.17666,0.055456,-0.10571,0.59043,0.11944,-1.7942,-0.35196,0.62383,-0.027417,-0.02531,-0.10525,-0.087161,0.02027,0.098537,0.069333,-0.071783
-0.017344,-0.085334,0.0061743,-0.042768,-0.04802,-0.58791,0.23263,-0.79753,-0.19845,0.0024124,-0.13789,0.52,0.1053,-1.9504,-0.395,0.92823,-0.024299,0.0024414,-0.095601,-0.060281,0.031342,0.11414,0.073012,-0.09311
-0.016636,-0.085629,0.0040857,-0.042893,-0.025801,-0.71997,0.24729,-0.89467,-0.21484,-0.034926,-0.16243,0.44411,0.12494,-2.0071,-0.43273,1.3384,-0.020392,0.030697,-0.08306,-0.023147,0.038299,0.10602,0.070508,-0.10268
-0.01379,-0.074915,0.0071349,-0.036602,-0.0068963,-0.83545,0.25086,-0.97478,-0.2248,-0.046228,-0.1736,0.37065,0.16152,-2.0236,-0.46524,1.7861,-0.015881,0.044535,-0.070994,0.0034482,0.03754,0.078025,0.0614,-0.09752
-0.010282,-0.05911,0.013994,-0.027962,0.0015837,-0.9168,0.2474,-1.0279,-0.2291,-0.039765,-0.17031,0.29519,0.19841,-2.0199,-0.48785,2.1823,-0.011255,0.038099,-0.061477,0.0097933,0.028933,0.040444,0.048755,-0.081339
-0.0072983,-0.045898,0.021947,-0.021027,-0.0016469,-0.94895,0.24197,-1.0426,-0.22884,-0.033172,-0.1557,0.20764,0.22849,-1.9635,-0.49109,2.4667,-0.0070625,0.019855,-0.055023,0.002869,0.017086,0.0015961,0.036153,-0.064485
-0.0051168,-0.038447,0.028863,-0.017488,-0.011641,-0.92018,0.23791,-1.0074,-0.22438,-0.039159,-0.13543,0.1039,0.25315,-1.796,-0.46416,2.6476,-0.0037068,0.006615,-0.051382,-0.0011131,0.0089042,-0.037896,0.024716,-0.060164
-0.0036162,-0.033199,0.034106,-0.016657,-0.020148,-0.83098,0.23451,-0.92153,-0.21547,-0.058331,-0.11565,-0.0072463,0.27524,-1.4757,-0.40016,2.7989,-0.001281,0.010668,-0.050145,0.0094449,0.0087951,-0.083286,0.012709,-0.078041
-0.002931,-0.023553,0.038289,-0.016774,-0.019483,-0.70307,0.22626,-0.80233,-0.20189,-0.083503,-0.10116,-0.10756,0.29487,-1.0048,-0.30055,3.0071,0.00053167,0.030709,-0.050582,0.032858,0.015198,-0.13831,-0.0021086,-0.11875
-0.0032404,-0.0061117,0.042527,-0.016058,-0.0052825,-0.57623,0.20439,-0.68209,-0.18359,-0.10945,-0.093886,-0.18016,0.31203,-0.4281,-0.17706,3.2998,0.0023628,0.05409,-0.051284,0.057084,0.02145,-0.19901,-0.01963,-0.17298
-0.0039404,0.015933,0.047745,-0.0131,0.02238,-0.48927,0.16134,-0.59082,-0.16041,-0.13878,-0.092268,-0.21983,0.33148,0.18761,-0.050224,3.6094,0.0047757,0.067928,-0.05057,0.070453,0.020571,-0.25425,-0.036631,-0.22609
-0.0034481,0.035072,0.054181,-0.0071771,0.059186,-0.45674,0.096359,-0.53754,-0.13202,-0.18017,-0.092065,-0.23694,0.36208,0.77485,0.055942,3.8058,0.0077821,0.069051,-0.047668,0.070408,0.010258,-0.29226,-0.048731,-0.26514
-0.00033578,0.045218,0.061064,0.0011028,0.098125,-0.45996,0.018631,-0.50479,-0.098984,-0.24291,-0.088507,-0.25402,0.40906,1.2791,0.12205,3.7815,0.010693,0.064548,-0.043596,0.063462,-0.0057601,-0.30731,-0.053301,-0.28352
0.0050779,0.045951,0.066715,0.0094552,0.13287,-0.46041,-0.055017,-0.46148,-0.06426,-0.33343,-0.078793,-0.29813,0.46619,1.6668,0.14124,3.5261,0.012583,0.063733,-0.04063,0.058061,-0.020783,-0.30083,-0.050934,-0.28045
0.010366,0.042023,0.069315,0.014788,0.16248,-0.42509,-0.10787,-0.38413,-0.03353,-0.45449,-0.063498,-0.3916,0.51666,1.9319,0.12282,3.1324,0.013122,0.069811,-0.040552,0.05777,-0.029783,-0.27678,-0.04454,-0.25695
0.012587,0.039219,0.068114,0.015225,0.19517,-0.3435,-0.13203,-0.27005,-0.013125,-0.6036,-0.046096,-0.54299,0.54378,2.0974,0.088588,2.7306,0.013086,0.078666,-0.043131,0.060463,-0.03192,-0.23623,-0.037162,-0.21263
0.010682,0.040588,0.064236,0.011865,0.24767,-0.22469,-0.13226,-0.1337,-0.0064104,-0.76821,-0.031018,-0.74025,0.54349,2.2059,0.062833,2.4025,0.014025,0.084648,-0.046198,0.062668,-0.029519,-0.17691,-0.030392,-0.14662
0.0065577,0.045965,0.060253,0.0085971,0.33851,-0.081671,-0.12236,0.0077575,-0.011221,-0.9221,-0.021471,-0.95003,0.52806,2.2982,0.061241,2.1441,0.017267,0.086784,-0.047235,0.063641,-0.025251,-0.098429,-0.024284,-0.061276
0.0037585,0.054119,0.058579,0.0096227,0.47717,0.079835,-0.11661,0.14585,-0.020649,-1.03,-0.0182,-1.127,0.51773,2.3941,0.084984,1.8986,0.023022,0.089362,-0.044958,0.065174,-0.020349,-0.0080816,-0.018242,0.035252
0.0047072,0.064454,0.059792,0.016285,0.65482,0.25821,-0.12241,0.28023,-0.026972,-1.063,-0.01957,-1.2323,0.52715,2.4905,0.12315,1.6245,0.030248,0.097116,-0.039542,0.068316,-0.015056,0.079283,-0.011859,0.13091
0.0087721,0.076361,0.06223,0.025759,0.84303,0.44516,-0.13871,0.41027,-0.02588,-1.0154,-0.022618,-1.2522,0.55691,2.5775,0.16099,1.3361,0.037307,0.1104,-0.031625,0.071367,-0.010095,0.14895,-0.0052499,0.21498
0.012767,0.087499,0.063226,0.033005,1.0034,0.62224,-0.1598,0.52964,-0.017771,-0.91138,-0.024397,-1.2059,0.59509,2.6558,0.18801,1.0877,0.042831,0.12508,-0.021522,0.071686,-0.0071673,0.19636,0.00090072,0.2825
0.013453,0.093876,0.061003,0.034784,1.1049,0.77127,-0.1806,0.63023,-0.005437,-0.7927,-0.023018,-1.1362,0.62542,2.739,0.20103,0.92289,0.046279,0.13683,-0.0096507,0.069298,-0.0078343,0.23115,0.0053267,0.33431
0.0099909,0.092634,0.055711,0.032486,1.1391,0.8892,-0.19939,0.7107,0.0093019,-0.69537,-0.018068,-1.0858,0.63461,2.8344,0.20193,0.83854,0.048069,0.14501,0.0024522,0.06807,-0.01196,0.27134,0.006495,0.37337
0.0044224,0.085022,0.048882,0.031039,1.1238,0.99137,-0.21685,0.77963,0.02656,-0.63088,-0.010399,-1.074,0.61486,2.9228,0.19391,0.79206,0.049418,0.15248,0.012234,0.072666,-0.017384,0.33123,0.0035491,0.40099
-4.3484e-005,0.076084,0.04197,0.034317,1.09,1.0973,-0.23368,0.84832,0.045972,-0.58505,-0.0015289,-1.0886,0.5632,2.957,0.17998,0.73756,0.051942,0.16173,0.018036,0.083976,-0.021235,0.41186,-0.0025473,0.41654
-0.0014115,0.070516,0.035364,0.040862,1.06,1.21,-0.24915,0.91933,0.063571,-0.53361,0.0069695,-1.0962,0.48142,2.8852,0.16389,0.65368,0.056926,0.17112,0.021258,0.097383,-0.021776,0.50068,-0.0087994,0.42011
-4.1876e-005,0.06829,0.028633,0.044095,1.0324,1.3083,-0.26149,0.98152,0.071813,-0.46161,0.013831,-1.0653,0.3772,2.6817,0.15116,0.54116,0.064442,0.1745,0.026163,0.10541,-0.019281,0.57974,-0.011632,0.41526
0.0021331,0.064503,0.021573,0.037619,0.98396,1.3589,-0.26922,1.0174,0.063875,-0.37252,0.018183,-0.9858,0.26372,2.3621,0.14744,0.40155,0.072866,0.16394,0.036434,0.10198,-0.015414,0.63596,-0.0092772,0.40875
0.0033612,0.054188,0.014859,0.021443,0.88999,1.3411,-0.27247,1.0169,0.039022,-0.28275,0.019506,-0.87382,0.15483,1.9721,0.15491,0.22478,0.079373,0.13296,0.050929,0.08431,-0.011836,0.66622,-0.0032232,0.40758
0.0032006,0.037915,0.0096711,0.0034933,0.74602,1.2619,-0.2742,0.98695,0.0041603,-0.20866,0.017639,-0.76011,0.057807,1.5625,0.16985,-0.00072983,0.081335,0.078199,0.062683,0.051365,-0.0091714,0.67521,0.002668,0.41602
0.0022548,0.022873,0.0067383,-0.0054924,0.57368,1.1516,-0.28102,0.94756,-0.030382,-0.15702,0.012873,-0.67114,-0.030662,1.1698,0.18418,-0.26849,0.077748,-0.00050391,0.063007,0.0018085,-0.0069489,0.66922,0.0048662,0.43442
0.0011207,0.018002,0.0058276,0.00024589,0.40576,1.0437,-0.30266,0.91942,-0.057717,-0.12411,0.0060754,-0.6153,-0.12084,0.81252,0.19048,-0.54825,0.06969,-0.10007,0.048014,-0.065251,-0.0043111,0.6512,0.0025828,0.45969
-0.00022662,0.027162,0.0061791,0.017565,0.26376,0.95639,-0.34841,0.91195,-0.078201,-0.10146,-0.0012786,-0.58173,-0.2206,0.50024,0.1868,-0.80234,0.059499,-0.21364,0.022184,-0.14694,-0.00087549,0.62033,-0.0020018,0.48624
-0.002038,0.046135,0.0073265,0.037547,0.14767,0.88883,-0.42106,0.92103,-0.097053,-0.082102,-0.0073693,-0.55075,-0.32747,0.23985,0.17764,-1.0089,0.049404,-0.33023,-0.0043842,-0.23442,0.0027509,0.57536,-0.005696,0.50672
-0.0039846,0.065735,0.0093171,0.052589,0.045982,0.8325,-0.51168,0.93651,-0.11813,-0.064021,-0.010763,-0.50757,-0.42861,0.034637,0.17024,-1.1696,0.040661,-0.43567,-0.022968,-0.31512,0.0050383,0.51896,-0.0066529,0.51366
-0.0049922,0.078069,0.012008,0.061091,-0.045291,0.78459,-0.6005,0.95187,-0.13945,-0.050669,-0.011449,-0.45079,-0.50875,-0.12097,0.16922,-1.2954,0.033712,-0.51488,-0.031604,-0.37821,0.0042019,0.45997,-0.0052431,0.50204
-0.0040649,0.080707,0.01419,0.06604,-0.11466,0.75208,-0.66544,0.96779,-0.1543,-0.049877,-0.011486,-0.39199,-0.55939,-0.24227,0.17344,-1.3858,0.028888,-0.5547,-0.034367,-0.41872,-0.00072103,0.41219,-0.0031056,0.47134
-0.0013372,0.076086,0.013644,0.069837,-0.14725,0.74395,-0.69432,0.98761,-0.15642,-0.071058,-0.014342,-0.34864,-0.58219,-0.34755,0.17724,-1.4226,0.026801,-0.54632,-0.035632,-0.43678,-0.0088933,0.38965,-0.0016414,0.42461
0.0017419,0.067873,0.0084104,0.070957,-0.14552,0.7601,-0.69209,1.0098,-0.14425,-0.12008,-0.022696,-0.33584,-0.58485,-0.4483,0.175,-1.3865,0.028012,-0.48738,-0.034892,-0.43296,-0.017508,0.40031,-0.0014027,0.36492
0.0034071,0.058089,-0.0016767,0.065721,-0.13742,0.78727,-0.67691,1.0245,-0.1208,-0.19304,-0.035805,-0.36102,-0.57424,-0.54395,0.16551,-1.2798,0.032396,-0.38332,-0.026969,-0.40489,-0.02287,0.44126,-0.0026346,0.29261
0.0029321,0.047039,-0.014588,0.052941,-0.16094,0.80554,-0.66714,1.0168,-0.090099,-0.27276,-0.048491,-0.42182,-0.55295,-0.6245,0.15332,-1.1361,0.038977,-0.24728,-0.0071296,-0.3487,-0.022372,0.49832,-0.0059808,0.20704
0.0011399,0.034845,-0.02735,0.036348,-0.23607,0.79978,-0.66847,0.97591,-0.054397,-0.33172,-0.053137,-0.50581,-0.52117,-0.67851,0.14634,-1.005,0.046547,-0.097633,0.02395,-0.26414,-0.016207,0.55136,-0.012349,0.11241
-0.00039115,0.022217,-0.038015,0.022022,-0.34763,0.76763,-0.67117,0.90166,-0.015011,-0.34152,-0.043968,-0.59095,-0.48053,-0.70032,0.15119,-0.92328,0.054515,0.046626,0.060013,-0.15893,-0.0075466,0.58302,-0.022024,0.022315
-0.00072551,0.0097565,-0.0467,0.013281,-0.45405,0.71885,-0.65916,0.80619,0.024867,-0.28444,-0.020911,-0.64823,-0.43549,-0.6924,0.16917,-0.89241,0.063075,0.17034,0.093644,-0.048374,-0.00079722,0.58618,-0.034068,-0.043013
-0.00033435,-0.0026274,-0.054758,0.0080802,-0.5158,0.66785,-0.6233,0.70868,0.059301,-0.16053,0.0098572,-0.64811,-0.39128,-0.66264,0.19501,-0.87943,0.072418,0.26424,0.12085,0.049083,0.0010638,0.56589,-0.046803,-0.067137
-0.00054283,-0.014619,-0.062831,0.0015979,-0.52121,0.62516,-0.5681,0.62634,0.082601,0.013954,0.039358,-0.56951,-0.35115,-0.61992,0.21903,-0.83827,0.081715,0.32407,0.14181,0.11735,-0.0016902,0.5347,-0.059007,-0.048471
-0.0021328,-0.023556,-0.069587,-0.0084043,-0.49065,0.59211,-0.50709,0.56587,0.093605,0.21606,0.061122,-0.40671,-0.31612,-0.57106,0.23167,-0.73734,0.08902,0.34876,0.15823,0.14644,-0.0058831,0.5045,-0.070661,-0.0029432
-0.0043489,-0.02454,-0.072494,-0.018677,-0.45844,0.56031,-0.45147,0.51957,0.096777,0.42794,0.074783,-0.16917,-0.28701,-0.52059,0.2281,-0.57567,0.092511,0.34047,0.17099,0.13464,-0.007768,0.47973,-0.08248,0.045
-0.0052756,-0.014263,-0.070135,-0.023086,-0.44836,0.51522,-0.40222,0.46877,0.098463,0.64384,0.085578,0.12596,-0.26584,-0.47191,0.21043,-0.37913,0.092087,0.30691,0.18102,0.090052,-0.0057027,0.45585,-0.094712,0.077071
-0.0034029,0.0037547,-0.06407,-0.018649,-0.4613,0.44286,-0.35173,0.39438,0.10149,0.86762,0.10025,0.46324,-0.25463,-0.42733,0.18634,-0.18152,0.089725,0.26328,0.19175,0.030933,-0.001252,0.42332,-0.10633,0.090803
0.00089082,0.01777,-0.058421,-0.0095722,-0.481,0.3381,-0.29265,0.29008,0.10318,1.102,0.12239,0.83245,-0.25276,-0.38622,0.16487,-0.0039738,0.087898,0.22999,0.20923,-0.017877,0.0020228,0.37424,-0.11539,0.097436
0.0052822,0.013678,-0.057218,-0.0052683,-0.48978,0.21131,-0.22572,0.17037,0.098544,1.3363,0.15045,1.2241,-0.25631,-0.34267,0.15191,0.15433,0.087161,0.22488,0.23804,-0.033835,0.0010961,0.30746,-0.12007,0.11047
0.0071054,-0.01454,-0.061533,-0.01345,-0.48085,0.08843,-0.1601,0.067188,0.085513,1.5425,0.17967,1.6217,-0.2608,-0.28559,0.14809,0.30972,0.085115,0.25345,0.27594,-0.0077894,-0.0045817,0.22917,-0.1197,0.13419
0.0054076,-0.057743,-0.06872,-0.03372,-0.45997,0.0018804,-0.10651,0.014814,0.067089,1.6827,0.20607,1.9997,-0.26495,-0.2025,0.15023,0.47827,0.078045,0.30374,0.31283,0.049753,-0.013057,0.14884,-0.11505,0.16058
0.0017414,-0.094977,-0.07438,-0.056973,-0.43891,-0.024586,-0.069656,0.031438,0.04871,1.727,0.22924,2.3297,-0.27147,-0.085931,0.15493,0.66212,0.06424,0.35098,0.33598,0.11307,-0.021517,0.073526,-0.10805,0.17574
-0.001061,-0.10662,-0.075448,-0.071387,-0.4282,0.011361,-0.046066,0.10898,0.033964,1.6687,0.25154,2.5903,-0.28354,0.061066,0.16138,0.84613,0.046278,0.37105,0.33815,0.15538,-0.028168,0.0043468,-0.10137,0.16985
-0.0011828,-0.088182,-0.072019,-0.070552,-0.43373,0.088903,-0.028475,0.21807,0.023149,1.5294,0.27466,2.7724,-0.29993,0.22275,0.17094,1.0045,0.030123,0.35488,0.32167,0.16397,-0.032992,-0.062465,-0.097653,0.14282
0.00072827,-0.053985,-0.06672,-0.057612,-0.45659,0.17527,-0.012395,0.32466,0.01585,1.3497,0.29642,2.8748,-0.31366,0.37267,0.18396,1.1105,0.021419,0.31385,0.29504,0.14583,-0.037108,-0.13109,-0.098367,0.10258
0.0021971,-0.027052,-0.06254,-0.04253,-0.49325,0.24294,0.00064724,0.40677,0.014114,1.1727,0.31067,2.8963,-0.3161,0.47952,0.19659,1.1434,0.021722,0.27174,0.26504,0.11953,-0.041573,-0.202,-0.10286,0.058785
0.0010904,-0.022811,-0.061001,-0.034837,-0.53519,0.28188,0.0053718,0.4609,0.022092,1.0303,0.31045,2.8327,-0.30359,0.51634,0.20099,1.0918,0.02759,0.24868,0.23126,0.10012,-0.046632,-0.27153,-0.10835,0.017411
-0.0025697,-0.039095,-0.061887,-0.037445,-0.57039,0.29984,-0.0019085,0.49605,0.041852,0.93944,0.29155,2.6834,-0.28092,0.47143,0.1897,0.958,0.033184,0.2493,0.18806,0.089305,-0.051807,-0.33515,-0.11145,-0.020272
-0.0067068,-0.059836,-0.064163,-0.045724,-0.58817,0.31247,-0.019274,0.52276,0.06963,0.90517,0.25362,2.4608,-0.25858,0.35661,0.16105,0.76286,0.034336,0.26448,0.1319,0.079076,-0.056485,-0.39135,-0.11024,-0.055337
-0.0090434,-0.06856,-0.066904,-0.051777,-0.5856,0.33175,-0.039346,0.54641,0.09709,0.92579,0.19859,2.1932,-0.24578,0.20655,0.12151,0.54633,0.031099,0.28482,0.067616,0.06507,-0.060366,-0.44255,-0.1055,-0.08883
-0.0089916,-0.060184,-0.069538,-0.050131,-0.57009,0.36083,-0.053047,0.56849,0.1176,0.99402,0.12871,1.9169,-0.24474,0.065997,0.082576,0.35679,0.027232,0.31251,0.0077853,0.05633,-0.063453,-0.49261,-0.099793,-0.1216
-0.0078923,-0.042158,-0.071635,-0.040765,-0.55491,0.39681,-0.054065,0.59174,0.13228,1.0952,0.046811,1.6608,-0.25053,-0.030048,0.054252,0.23062,0.027427,0.35852,-0.034613,0.07015,-0.065696,-0.54371,-0.095267,-0.15556
-0.0074761,-0.0257,-0.072838,-0.027986,-0.54993,0.43681,-0.041257,0.62249,0.14992,1.2064,-0.041753,1.4373,-0.25587,-0.071528,0.039963,0.1742,0.034408,0.4246,-0.054443,0.11379,-0.066683,-0.59601,-0.092031,-0.19394
-0.0080706,-0.016035,-0.07303,-0.016766,-0.5549,0.48074,-0.018199,0.66724,0.17952,1.2995,-0.12841,1.2429,-0.25666,-0.073216,0.036533,0.16248,0.04761,0.48591,-0.057097,0.1687,-0.065667,-0.64995,-0.088482,-0.23943
-0.0082761,-0.010054,-0.072398,-0.0095016,-0.56099,0.52884,0.0089442,0.72661,0.22097,1.3472,-0.20428,1.0676,-0.25391,-0.059436,0.038745,0.15762,0.063723,0.49444,-0.053671,0.19441,-0.061968,-0.70794,-0.083103,-0.29161
-0.006418,-0.0021256,-0.071196,-0.0051849,-0.55955,0.57705,0.033498,0.79209,0.26151,1.328,-0.26508,0.90143,-0.25097,-0.04523,0.044301,0.13503,0.078313,0.40852,-0.052545,0.15504,-0.05549,-0.77204,-0.07597,-0.34629
-0.0024011,0.0085447,-0.069556,-0.0011083,-0.55057,0.61556,0.049484,0.84821,0.28155,1.2291,-0.31371,0.73545,-0.24911,-0.028051,0.05511,0.097099,0.087554,0.2301,-0.053837,0.050911,-0.046996,-0.83891,-0.068569,-0.39764
0.0018032,0.016116,-0.067709,0.0043902,-0.54334,0.63272,0.052329,0.87856,0.26625,1.0471,-0.35705,0.55764,-0.24509,0.0050359,0.074337,0.065051,0.089437,0.018777,-0.050653,-0.070588,-0.037921,-0.89694,-0.062258,-0.4413
0.0035572,0.013129,-0.066381,0.010113,-0.54859,0.62149,0.039848,0.87178,0.21463,0.78969,-0.39922,0.35432,-0.23276,0.062453,0.10235,0.057121,0.084157,-0.13527,-0.035705,-0.13813,-0.029776,-0.93034,-0.05694,-0.47578
0.0016419,-0.0027049,-0.066698,0.012457,-0.56913,0.5836,0.013668,0.82515,0.13992,0.47827,-0.4366,0.11843,-0.20717,0.13851,0.1352,0.07191,0.073606,-0.16565,-0.0079719,-0.1006,-0.023478,-0.92843,-0.051149,-0.50107
-0.0028081,-0.026091,-0.06934,0.0079865,-0.59699,0.52845,-0.019634,0.74563,0.061517,0.14678,-0.45959,-0.14108,-0.16835,0.2159,0.16666,0.089383,0.060239,-0.072772,0.025557,0.039245,-0.018969,-0.89322,-0.043297,-0.51619
-0.0073425,-0.047931,-0.073656,-0.0036098,-0.61951,0.46836,-0.048787,0.64903,-0.0051234,-0.16535,-0.45968,-0.39912,-0.12209,0.27612,0.19153,0.08567,0.045895,0.078258,0.054007,0.22739,-0.015365,-0.83839,-0.03281,-0.51851
-0.010279,-0.061795,-0.077777,-0.018549,-0.62862,0.41417,-0.0602,0.55679,-0.053922,-0.42579,-0.43603,-0.6268,-0.077368,0.30791,0.20756,0.047013,0.031213,0.20457,0.069158,0.39591,-0.011562,-0.77997,-0.020257,-0.50614
-0.011984,-0.067819,-0.07989,-0.031126,-0.6249,0.37382,-0.042285,0.48981,-0.086698,-0.62119,-0.39596,-0.80864,-0.042174,0.30821,0.21491,-0.027933,0.015919,0.26151,0.069591,0.50621,-0.0070048,-0.72653,-0.0067463,-0.48147
-0.014203,-0.071448,-0.079626,-0.037726,-0.61296,0.35289,0.0094606,0.45998,-0.10798,-0.76083,-0.34927,-0.95147,-0.020071,0.27815,0.21475,-0.13511,-0.00030815,0.26484,0.060046,0.56565,-0.0022278,-0.67703,0.0064555,-0.45304
-0.01808,-0.078624,-0.07825,-0.039581,-0.59238,0.3542,0.088839,0.46346,-0.12096,-0.86919,-0.30176,-1.078,-0.0094628,0.22086,0.20848,-0.27062,-0.016943,0.2647,0.047438,0.60758,0.0011289,-0.6276,0.017736,-0.43343
-0.022698,-0.091376,-0.077442,-0.041798,-0.5526,0.37569,0.17936,0.48076,-0.12687,-0.97126,-0.25329,-1.2106,-0.0057384,0.14374,0.19768,-0.42809,-0.032182,0.29652,0.037057,0.65512,0.00094294,-0.58006,0.025054,-0.43412
-0.025588,-0.10679,-0.077818,-0.049162,-0.4772,0.40897,0.26,0.48581,-0.12635,-1.0792,-0.20152,-1.3579,-0.0048173,0.061531,0.18367,-0.59197,-0.043238,0.35062,0.031364,0.7003,-0.0043126,-0.54311,0.026854,-0.45989
-0.024859,-0.11957,-0.078544,-0.062054,-0.35558,0.44227,0.31471,0.46026,-0.12009,-1.1878,-0.14709,-1.5136,-0.005747,-0.0060704,0.16632,-0.7366,-0.047389,0.3833,0.030965,0.71434,-0.014509,-0.5244,0.023766,-0.50621
-0.021065,-0.12585,-0.078242,-0.075936,-0.19394,0.46763,0.34054,0.40427,-0.10807,-1.2805,-0.095461,-1.6652,-0.010668,-0.042741,0.14336,-0.8346,-0.043487,0.35602,0.035577,0.67688,-0.027444,-0.52069,0.019556,-0.56099
-0.017026,-0.1256,-0.07613,-0.084917,-0.017451,0.48696,0.3491,0.33606,-0.088801,-1.3403,-0.054059,-1.8039,-0.022324,-0.043829,0.11186,-0.86814,-0.033171,0.26759,0.043709,0.59677,-0.039498,-0.51604,0.019789,-0.61018
-0.015609,-0.12208,-0.072327,-0.086372,0.13897,0.51062,0.35923,0.27905,-0.060166,-1.3589,-0.027591,-1.9242,-0.041101,-0.017052,0.071725,-0.83255,-0.02079,0.1547,0.051926,0.50732,-0.047257,-0.49115,0.028458,-0.6443
-0.017331,-0.11921,-0.067288,-0.082742,0.24634,0.5473,0.38529,0.24489,-0.021532,-1.3379,-0.015631,-2.0175,-0.063949,0.02531,0.028412,-0.72996,-0.011598,0.06484,0.055597,0.4422,-0.049273,-0.43659,0.044973,-0.66214
-0.0199,-0.11885,-0.061329,-0.079198,0.29457,0.59257,0.42859,0.22417,0.024985,-1.2844,-0.013834,-2.0666,-0.086068,0.075047,-0.0083316,-0.56148,-0.0089692,0.026277,0.051635,0.41382,-0.046857,-0.3589,0.064174,-0.66915
-0.020175,-0.12014,-0.054896,-0.079565,0.2948,0.62616,0.47766,0.19198,0.075364,-1.2051,-0.017024,-2.0515,-0.10416,0.12784,-0.030004,-0.32899,-0.012418,0.03679,0.041273,0.41062,-0.043196,-0.27415,0.079891,-0.67138
-0.016881,-0.12103,-0.04912,-0.08419,0.26996,0.62222,0.51646,0.12439,0.1257,-1.1051,-0.021451,-1.9631,-0.11887,0.17234,-0.035721,-0.04802,-0.017958,0.073324,0.030112,0.41147,-0.041229,-0.1949,0.089447,-0.66946
-0.011804,-0.12064,-0.045617,-0.091238,0.23991,0.56547,0.53421,0.013921,0.17311,-0.98935,-0.025151,-1.8148,-0.13463,0.1784,-0.034373,0.24009,-0.020729,0.10907,0.024676,0.40218,-0.041687,-0.12196,0.095433,-0.65752
-0.0084662,-0.12011,-0.045221,-0.099398,0.21083,0.46076,0.53,-0.12744,0.21463,-0.86481,-0.027226,-1.6386,-0.15687,0.099161,-0.040031,0.47169,-0.018065,0.12469,0.02785,0.38114,-0.042774,-0.048061,0.10313,-0.62854
-0.0094499,-0.12103,-0.046755,-0.1088,0.17563,0.3283,0.51049,-0.27869,0.24572,-0.73866,-0.027333,-1.4674,-0.18819,-0.10653,-0.062967,0.58356,-0.010801,0.11103,0.036853,0.35364,-0.041857,0.030463,0.11567,-0.58149
-0.014487,-0.12274,-0.047257,-0.11916,0.12441,0.18913,0.48426,-0.42438,0.26107,-0.61396,-0.025588,-1.3156,-0.22562,-0.4416,-0.10217,0.54149,-0.0020284,0.068605,0.045442,0.32413,-0.037965,0.10496,0.13101,-0.52382
-0.020659,-0.12126,-0.043853,-0.12756,0.056586,0.053289,0.45774,-0.56095,0.2585,-0.48824,-0.02231,-1.1731,-0.26048,-0.85109,-0.14455,0.35392,0.0054837,0.0072672,0.048443,0.29398,-0.033156,0.15672,0.14323,-0.46696
-0.024303,-0.11138,-0.035761,-0.1289,-0.014558,-0.079794,0.43519,-0.69072,0.24289,-0.35821,-0.017331,-1.0193,-0.28137,-1.2346,-0.1718,0.060527,0.01105,-0.056119,0.044805,0.26386,-0.031556,0.16836,0.14696,-0.41893
-0.023145,-0.090851,-0.024587,-0.11972,-0.068766,-0.21143,0.42064,-0.81035,0.22629,-0.2278,-0.0095153,-0.84338,-0.27881,-1.4903,-0.17074,-0.29421,0.015766,-0.10516,0.036845,0.23512,-0.036655,0.13503,0.14129,-0.38132
-0.017398,-0.063509,-0.012694,-0.10204,-0.091941,-0.33533,0.41882,-0.90602,0.22231,-0.11219,0.0027095,-0.65554,-0.2494,-1.566,-0.14079,-0.67928,0.020711,-0.13386,0.026837,0.2073,-0.048769,0.067197,0.13017,-0.35293
-0.0095115,-0.038245,-0.0012864,-0.083387,-0.085504,-0.4401,0.43296,-0.96153,0.23806,-0.032882,0.019879,-0.47875,-0.19719,-1.4852,-0.094101,-1.0718,0.025377,-0.15112,0.014278,0.17492,-0.064514,-0.015235,0.11946,-0.33489
-0.0029976,-0.023987,0.0098796,-0.072376,-0.064465,-0.52063,0.4613,-0.97359,0.26919,-0.0063525,0.04021,-0.32962,-0.1315,-1.3296,-0.048449,-1.4353,0.027699,-0.17465,-0.0037136,0.12903,-0.078573,-0.091098,0.11322,-0.32992
-0.00079895,-0.024033,0.021051,-0.072919,-0.045252,-0.5872,0.49495,-0.961,0.3018,-0.035145,0.059657,-0.20498,-0.062711,-1.1886,-0.017514,-1.7077,0.025619,-0.21793,-0.029434,0.063877,-0.086477,-0.14257,0.11194,-0.33437
-0.0037224,-0.033918,0.031127,-0.081854,-0.0324,-0.6622,0.51977,-0.95807,0.31977,-0.10834,0.073422,-0.085553,0.0011891,-1.1093,-0.0046303,-1.8198,0.018874,-0.2806,-0.061824,-0.016667,-0.086596,-0.15559,0.11317,-0.33073
-0.0096505,-0.044435,0.03821,-0.09169,-0.014561,-0.76506,0.52188,-0.99481,0.3121,-0.21035,0.077921,0.047138,0.055486,-1.0802,-0.0036163,-1.7397,0.0095767,-0.34988,-0.096275,-0.099115,-0.080422,-0.11943,0.11357,-0.29036
-0.014337,-0.047479,0.041774,-0.096092,0.02642,-0.89674,0.49441,-1.0776,0.2757,-0.32997,0.072021,0.19527,0.097309,-1.0547,-0.0054084,-1.5093,0.001071,-0.41118,-0.12703,-0.16767,-0.071517,-0.027718,0.11082,-0.18823
-0.013873,-0.040446,0.044162,-0.093723,0.099551,-1.0361,0.44142,-1.1843,0.21322,-0.4619,0.057182,0.34291,0.1241,-0.99541,-0.0053613,-1.2405,-0.0041455,-0.4583,-0.15013,-0.21334,-0.064055,0.11962,0.10456,-0.020147
-0.0075048,-0.026366,0.049466,-0.087928,0.19385,-1.1515,0.37654,-1.2782,0.12927,-0.60102,0.036875,0.46802,0.13371,-0.90398,-0.0059459,-1.063,-0.0059579,-0.49498,-0.16459,-0.23825,-0.061568,0.31474,0.096106,0.19077
0.0013698,-0.010509,0.060339,-0.083267,0.28152,-1.2196,0.31659,-1.3298,0.028816,-0.73645,0.015748,0.5577,0.12596,-0.81825,-0.013368,-1.0555,-0.0064764,-0.52807,-0.17141,-0.25302,-0.065978,0.53987,0.087226,0.40405
0.0073004,0.0033416,0.075569,-0.082054,0.33391,-1.2378,0.27326,-1.3325,-0.081756,-0.85246,-0.0014276,0.61604,0.10386,-0.78161,-0.031381,-1.2081,-0.0082294,-0.55976,-0.17145,-0.27033,-0.076999,0.7639,0.078528,0.5811
0.006867,0.0143,0.090789,-0.083264,0.33909,-1.2229,0.24786,-1.3019,-0.19343,-0.9362,-0.011167,0.66177,0.073055,-0.81105,-0.057531,-1.439,-0.012007,-0.586,-0.16409,-0.29915,-0.092271,0.94113,0.068814,0.70021
0.0016487,0.023312,0.10189,-0.083909,0.30815,-1.1986,0.23162,-1.262,-0.29552,-0.9849,-0.012684,0.72025,0.040089,-0.88728,-0.084725,-1.6524,-0.016036,-0.60162,-0.14755,-0.34209,-0.10844,1.0192,0.056317,0.7585
-0.0025815,0.031408,0.1081,-0.081274,0.26557,-1.1813,0.2111,-1.23,-0.37863,-1.0058,-0.0084078,0.81426,0.011039,-0.97129,-0.10647,-1.7916,-0.017247,-0.60608,-0.12045,-0.39476,-0.1226,0.95994,0.041339,0.76296
-0.00021009,0.038915,0.11207,-0.074494,0.23144,-1.1745,0.17467,-1.2106,-0.43715,-1.0083,-0.0029259,0.95442,-0.0086573,-1.0317,-0.12126,-1.8525,-0.013732,-0.60401,-0.083284,-0.44629,-0.13275,0.76429,0.028066,0.72055
0.0096097,0.045721,0.11693,-0.064915,0.20988,-1.1729,0.1167,-1.2024,-0.46968,-0.99648,-0.00070527,1.129,-0.014046,-1.0613,-0.13258,-1.8577,-0.0064165,-0.60048,-0.039096,-0.48159,-0.13682,0.48357,0.023329,0.63604
0.021912,0.051691,0.12336,-0.055433,0.19287,-1.1723,0.03815,-1.2064,-0.47802,-0.96687,-0.0039824,1.2983,-0.0018747,-1.0723,-0.14496,-1.8199,0.0014753,-0.59676,0.0066918,-0.4868,-0.13129,0.20263,0.032374,0.51799
0.029527,0.056714,0.12917,-0.049119,0.17535,-1.1753,-0.054993,-1.2295,-0.46669,-0.9142,-0.012159,1.4025,0.026629,-1.0782,-0.1595,-1.7286,0.006749,-0.59175,0.046632,-0.45741,-0.11154,0.00084938,0.054641,0.38625
0.028616,0.060749,0.13175,-0.047542,0.16717,-1.1895,-0.15359,-1.2772,-0.44355,-0.83731,-0.022901,1.387,0.063459,-1.078,-0.17242,-1.5665,0.0083954,-0.58836,0.071611,-0.40488,-0.074889,-0.083772,0.083171,0.27316
0.021704,0.064306,0.13066,-0.049514,0.18968,-1.218,-0.24708,-1.343,-0.41954,-0.74005,-0.033862,1.2333,0.094839,-1.0577,-0.17743,-1.336,0.0077843,-0.59802,0.071863,-0.35647,-0.02428,-0.062209,0.1086,0.21569
0.015703,0.068946,0.12791,-0.051274,0.2582,-1.2533,-0.3257,-1.4053,-0.40515,-0.62736,-0.043695,0.97698,0.10637,-1.0051,-0.16963,-1.0688,0.0069485,-0.63665,0.039461,-0.34535,0.030906,0.029991,0.12487,0.24179
0.016453,0.076794,0.12581,-0.0485,0.36478,-1.2802,-0.38356,-1.4379,-0.40422,-0.50212,-0.051871,0.69372,0.089845,-0.92486,-0.14811,-0.81164,0.0067499,-0.71259,-0.028021,-0.39473,0.078852,0.16614,0.13209,0.35796
0.02411,0.088821,0.12459,-0.039193,0.47706,-1.2909,-0.4213,-1.4292,-0.40937,-0.36737,-0.057937,0.46167,0.047487,-0.84066,-0.11594,-0.60062,0.0066717,-0.81557,-0.12461,-0.5045,0.11174,0.34132,0.13459,0.54398
0.033072,0.10317,0.1223,-0.025419,0.55618,-1.2978,-0.44627,-1.3966,-0.40389,-0.23195,-0.061131,0.3226,-0.0092953,-0.77944,-0.078448,-0.44753,0.0062017,-0.91688,-0.23617,-0.64932,0.12945,0.55534,0.13588,0.75756
0.036478,0.11535,0.11686,-0.012285,0.58094,-1.3334,-0.46893,-1.3806,-0.3707,-0.11233,-0.060587,0.26849,-0.065757,-0.75148,-0.041552,-0.34512,0.0060917,-0.9836,-0.34457,-0.79092,0.13727,0.78537,0.13513,0.94743
0.03168,0.12081,0.10828,-0.0045274,0.55968,-1.4272,-0.49687,-1.4197,-0.30342,-0.026023,-0.055667,0.2598,-0.11043,-0.74176,-0.010945,-0.28298,0.0079351,-0.99807,-0.43428,-0.89839,0.13948,0.97858,0.12788,1.0701
0.022328,0.11802,0.098902,-0.0031434,0.52136,-1.5755,-0.52941,-1.5194,-0.21188,0.019926,-0.045964,0.25793,-0.13855,-0.7207,0.0083751,-0.25774,0.012352,-0.96866,-0.49783,-0.96433,0.13491,1.0769,0.11009,1.1037
0.015428,0.10944,0.091339,-0.0048229,0.49324,-1.7283,-0.5565,-1.6394,-0.11792,0.035071,-0.031173,0.24682,-0.15114,-0.66678,0.013112,-0.27069,0.01768,-0.92406,-0.53759,-1.0068,0.11875,1.0552,0.081982,1.0535
0.015779,0.099264,0.086292,-0.004865,0.4829,-1.8106,-0.56341,-1.7118,-0.043861,0.038517,-0.011347,0.23112,-0.15173,-0.58379,0.0030715,-0.31874,0.020734,-0.89585,-0.56321,-1.0557,0.089152,0.94117,0.048364,0.94649
0.022245,0.0898,0.082138,-0.0013352,0.47749,-1.7702,-0.53925,-1.6824,-0.0010749,0.04172,0.012441,0.21899,-0.14378,-0.49951,-0.0182,-0.39003,0.019209,-0.90234,-0.58624,-1.1333,0.051979,0.79736,0.015512,0.81734
0.028787,0.079816,0.076562,0.0030403,0.45895,-1.6175,-0.48431,-1.5465,0.014361,0.034571,0.037769,0.20778,-0.13047,-0.44779,-0.044528,-0.46849,0.013602,-0.94404,-0.61446,-1.24,0.01857,0.6806,-0.01276,0.69401
0.029255,0.066444,0.068578,0.0030352,0.42204,-1.4255,-0.41128,-1.3543,0.017106,-0.011627,0.061554,0.18362,-0.11582,-0.44874,-0.069534,-0.54205,0.0068412,-1.0101,-0.64787,-1.3552,-0.0023475,0.61034,-0.036663,0.58903
0.022017,0.049089,0.059119,-0.0044689,0.38078,-1.2843,-0.33891,-1.1794,0.022962,-0.12287,0.081483,0.13132,-0.10536,-0.50219,-0.088715,-0.60644,0.0018632,-1.0871,-0.67813,-1.4486,-0.011471,0.56952,-0.058696,0.50084
0.010837,0.031707,0.049989,-0.017205,0.35892,-1.2427,-0.28195,-1.0729,0.040515,-0.29688,0.097017,0.043934,-0.10489,-0.59651,-0.099874,-0.66178,-0.00077461,-1.162,-0.69187,-1.4945,-0.018114,0.53308,-0.080426,0.42267
0.0017079,0.021137,0.042469,-0.028327,0.37233,-1.2803,-0.24395,-1.0352,0.068467,-0.49296,0.10919,-0.074026,-0.11815,-0.7212,-0.10218,-0.70693,-0.0031763,-1.2206,-0.67695,-1.48,-0.032108,0.49688,-0.1007,0.35241
-0.001449,0.022572,0.036931,-0.030692,0.41667,-1.3312,-0.21793,-1.0256,0.099027,-0.6468,0.11969,-0.207,-0.1447,-0.86889,-0.09524,-0.73736,-0.0080586,-1.2467,-0.62907,-1.4048,-0.055383,0.48259,-0.1168,0.29673
0.0011746,0.035824,0.033434,-0.021305,0.46966,-1.3377,-0.19371,-0.99778,0.12428,-0.70098,0.13062,-0.32767,-0.17938,-1.0244,-0.079178,-0.74685,-0.016121,-1.2277,-0.55494,-1.277,-0.080524,0.51647,-0.12754,0.26685
0.0065575,0.055373,0.03216,-0.0027555,0.50598,-1.2891,-0.16587,-0.93319,0.1414,-0.62985,0.14504,-0.39686,-0.21322,-1.1536,-0.054989,-0.72878,-0.025035,-1.1618,-0.46963,-1.1097,-0.097434,0.60242,-0.13524,0.26906
0.011687,0.074005,0.03287,0.018862,0.51359,-1.2161,-0.13614,-0.84576,0.15374,-0.4428,0.16716,-0.37127,-0.23527,-1.2083,-0.024195,-0.67404,-0.030877,-1.0606,-0.3894,-0.92015,-0.10217,0.71206,-0.14469,0.29641
0.015372,0.086943,0.033967,0.037481,0.49919,-1.1508,-0.10898,-0.7587,0.16775,-0.16797,0.2002,-0.22195,-0.23502,-1.1502,0.012237,-0.56938,-0.03088,-0.94166,-0.32403,-0.72858,-0.10044,0.79926,-0.15934,0.3277
0.017976,0.093338,0.032536,0.049537,0.47915,-1.0907,-0.085196,-0.67714,0.18795,0.16574,0.24228,0.044465,-0.20553,-0.97986,0.054224,-0.40306,-0.025367,-0.81764,-0.27364,-0.55473,-0.10308,0.82624,-0.17784,0.33568
0.020073,0.094568,0.025954,0.054459,0.46318,-0.99998,-0.059609,-0.58207,0.21359,0.53144,0.28367,0.37757,-0.14692,-0.74547,0.10097,-0.17848,-0.017406,-0.68948,-0.2316,-0.41153,-0.11757,0.78177,-0.19401,0.30065
0.02163,0.091556,0.013936,0.053869,0.44431,-0.84541,-0.024985,-0.45062,0.2392,0.89127,0.30898,0.6977,-0.068666,-0.5228,0.14858,0.07401,-0.010502,-0.55018,-0.19108,-0.29987,-0.14241,0.68068,-0.20066,0.22196
0.022277,0.083758,-0.0008699,0.050518,0.40368,-0.6326,0.021271,-0.28315,0.25855,1.1843,0.30463,0.92698,0.011511,-0.3767,0.1895,0.30109,-0.006103,-0.39474,-0.15032,-0.20849,-0.1681,0.54922,-0.19478,0.11981
0.02191,0.070508,-0.01453,0.047235,0.32647,-0.40925,0.07362,-0.11135,0.26875,1.3346,0.26722,1.019,0.073332,-0.33054,0.21551,0.44995,-0.0028143,-0.22735,-0.11301,-0.12021,-0.18316,0.4092,-0.17994,0.025005
0.020722,0.05296,-0.024437,0.045714,0.21569,-0.23195,0.12114,0.021739,0.2713,1.2835,0.20653,0.97026,0.10247,-0.36328,0.22199,0.49677,0.0021174,-0.060251,-0.084166,-0.022067,-0.1804,0.27125,-0.16406,-0.03808
0.018705,0.034396,-0.030669,0.045448,0.092217,-0.1249,0.15455,0.094277,0.26925,1.0276,0.14016,0.81111,0.097464,-0.43269,0.20973,0.45736,0.010286,0.093335,-0.065365,0.086001,-0.15964,0.13803,-0.15435,-0.064335
0.015445,0.018406,-0.035034,0.043791,-0.019114,-0.064402,0.17249,0.12409,0.26278,0.63563,0.083588,0.5871,0.070569,-0.50467,0.18217,0.36899,0.020636,0.22505,-0.053343,0.18909,-0.12659,0.010916,-0.15312,-0.067352
0.010694,0.0066308,-0.038876,0.037782,-0.10535,0.00053249,0.18328,0.15795,0.24705,0.22795,0.04296,0.34472,0.041509,-0.56685,0.14094,0.25816,0.030235,0.33176,-0.042769,0.26437,-0.089771,-0.1068,-0.15739,-0.065419
0.0052187,-0.0017139,-0.04181,0.026917,-0.17007,0.11081,0.20125,0.23993,0.21384,-0.074681,0.015894,0.12658,0.027564,-0.61974,0.084696,0.12441,0.036718,0.4129,-0.030417,0.29469,-0.057433,-0.21229,-0.16193,-0.064618
0.00091818,-0.007987,-0.042491,0.014738,-0.22427,0.27278,0.23984,0.38293,0.15601,-0.20498,-0.0012714,-0.029198,0.035862,-0.65758,0.013182,-0.042219,0.040376,0.47029,-0.01672,0.28146,-0.035321,-0.30765,-0.16273,-0.052738
-0.00018472,-0.011751,-0.040459,0.0074953,-0.27329,0.4615,0.30417,0.563,0.071689,-0.17523,-0.0068434,-0.093948,0.061905,-0.65884,-0.06762,-0.22472,0.044172,0.51186,-0.0031757,0.24843,-0.02516,-0.40086,-0.15846,-0.0095679
0.0026433,-0.01042,-0.037138,0.010241,-0.31289,0.64325,0.38641,0.73845,-0.034012,-0.061621,0.0058855,-0.059119,0.093988,-0.59768,-0.14607,-0.36163,0.051607,0.55394,0.011948,0.23171,-0.024168,-0.50101,-0.14952,0.074529
0.0081801,-0.0017861,-0.034977,0.022999,-0.33727,0.79754,0.46665,0.87819,-0.15017,0.042635,0.041354,0.054619,0.11972,-0.47039,-0.21319,-0.37499,0.064109,0.6153,0.035209,0.25994,-0.026086,-0.61017,-0.13653,0.18737
0.01388,0.012544,-0.035637,0.040077,-0.34977,0.92522,0.52043,0.98023,-0.26281,0.077605,0.094107,0.20002,0.13098,-0.31648,-0.27241,-0.22963,0.079874,0.70312,0.074559,0.33599,-0.023708,-0.71808,-0.12002,0.30069
0.017314,0.026164,-0.038935,0.053447,-0.36382,1.0435,0.53047,1.0705,-0.35811,0.042902,0.14818,0.32079,0.12622,-0.21466,-0.34072,0.024903,0.094867,0.80074,0.13301,0.43305,-0.011872,-0.80422,-0.10137,0.38791
0.017427,0.031149,-0.043378,0.058006,-0.3914,1.1757,0.49595,1.1853,-0.42521,-0.011292,0.18505,0.376,0.1111,-0.24879,-0.43711,0.27193,0.10509,0.86987,0.20449,0.50951,0.010639,-0.84677,-0.08353,0.4385
0.014894,0.02377,-0.047529,0.054833,-0.4289,1.3414,0.43297,1.3503,-0.45837,-0.018682,0.19433,0.35677,0.097739,-0.45966,-0.56568,0.40068,0.10854,0.8705,0.2755,0.53438,0.041157,-0.83278,-0.070329,0.45719
0.011568,0.008168,-0.050867,0.049953,-0.4541,1.5485,0.36433,1.5662,-0.45788,0.065572,0.17912,0.28479,0.10134,-0.81105,-0.70718,0.38195,0.10593,0.78727,0.33175,0.5063,0.07477,-0.76322,-0.064495,0.45085
0.0094412,-0.0055769,-0.053581,0.049506,-0.4382,1.7882,0.30509,1.8099,-0.42964,0.24425,0.15231,0.19432,0.13288,-1.193,-0.82722,0.28696,0.099917,0.64354,0.36469,0.45281,0.10632,-0.65076,-0.065951,0.417
0.0096479,-0.0082763,-0.055968,0.055074,-0.36415,2.0357,0.25396,2.0483,-0.38313,0.48131,0.12761,0.11032,0.19014,-1.4644,-0.89607,0.23376,0.093645,0.49142,0.37337,0.40987,0.13172,-0.51364,-0.07184,0.34577
0.011942,0.0016346,-0.058277,0.062765,-0.23733,2.2616,0.19703,2.2574,-0.32837,0.72179,0.11228,0.036906,0.25355,-1.5118,-0.90484,0.30324,0.089011,0.38282,0.36103,0.39645,0.14828,-0.37081,-0.078425,0.23349
0.014899,0.016859,-0.061038,0.066649,-0.081632,2.4467,0.1211,2.4339,-0.27241,0.91502,0.1061,-0.038448,0.29261,-1.2951,-0.86615,0.48901,0.085561,0.34062,0.33035,0.40186,0.15441,-0.24075,-0.083476,0.094184
0.016806,0.026678,-0.065126,0.063676,0.074131,2.5921,0.026148,2.5924,-0.21664,1.0305,0.10499,-0.13096,0.28252,-0.85472,-0.80063,0.71467,0.080585,0.34816,0.28161,0.39402,0.14936,-0.14152,-0.087302,-0.042555
0.016754,0.024781,-0.071071,0.056074,0.20902,2.7144,-0.072479,2.7492,-0.15655,1.0631,0.10453,-0.24586,0.2213,-0.28508,-0.7223,0.89578,0.070687,0.36177,0.21498,0.34109,0.13312,-0.088342,-0.091561,-0.14603
0.015205,0.013217,-0.078183,0.049377,0.3146,2.8301,-0.1538,2.9052,-0.085007,1.0291,0.10059,-0.37421,0.13453,0.30635,-0.635,0.99205,0.054134,0.33551,0.13401,0.2306,0.10663,-0.087817,-0.096757,-0.19856
0.013577,-0.00042137,-0.084541,0.047762,0.39208,2.9416,-0.20484,3.0409,0.0014766,0.95729,0.088532,-0.49671,0.061393,0.83165,-0.54057,1.0125,0.032464,0.242,0.046662,0.074339,0.071968,-0.13282,-0.10054,-0.19826
0.013072,-0.0097279,-0.088246,0.050513,0.44686,3.034,-0.22763,3.1284,0.09712,0.87742,0.064173,-0.59074,0.029643,1.2353,-0.44819,0.98214,0.010087,0.079818,-0.037304,-0.10038,0.032477,-0.2033,-0.098506,-0.15138
0.013656,-0.014242,-0.089048,0.052426,0.48462,3.084,-0.2349,3.1491,0.18644,0.81049,0.027276,-0.63755,0.03686,1.492,-0.37401,0.91148,-0.0080397,-0.13105,-0.11025,-0.26393,-0.007439,-0.27472,-0.087104,-0.065374
0.014013,-0.018571,-0.088877,0.047807,0.50945,3.0714,-0.23866,3.1027,0.25077,0.76348,-0.015571,-0.62867,0.052887,1.6004,-0.33102,0.79957,-0.019092,-0.35902,-0.16901,-0.39381,-0.042791,-0.3301,-0.066495,0.049184
0.012569,-0.02735,-0.090638,0.034944,0.52343,2.9848,-0.24114,3.0007,0.27819,0.73079,-0.052394,-0.57091,0.042958,1.5782,-0.31899,0.66549,-0.023603,-0.57162,-0.21471,-0.47939,-0.068994,-0.3682,-0.040885,0.17129
0.0087749,-0.040866,-0.096133,0.017672,0.52744,2.8212,-0.23483,2.8511,0.26962,0.70082,-0.07182,-0.48604,-0.0052479,1.4596,-0.32422,0.57251,-0.024679,-0.74671,-0.25151,-0.52528,-0.083368,-0.40229,-0.015941,0.26885
0.0035568,-0.054966,-0.10477,0.0029686,0.52324,2.5874,-0.21088,2.6513,0.23624,0.66328,-0.069521,-0.40232,-0.071309,1.2936,-0.32905,0.61503,-0.026187,-0.88311,-0.2858,-0.55376,-0.086614,-0.45008,0.0046766,0.31133
-0.0014582,-0.064763,-0.11404,-0.0035612,0.51519,2.3031,-0.16851,2.397,0.19037,0.6126,-0.050112,-0.34026,-0.11642,1.1415,-0.3218,0.87078,-0.03131,-1.0043,-0.32558,-0.60075,-0.083073,-0.52051,0.020918,0.28843
-0.0052541,-0.068548,-0.12134,-0.0010686,0.50875,2.0018,-0.11821,2.0979,0.13757,0.54621,-0.023181,-0.3021,-0.11079,1.0719,-0.29852,1.3512,-0.041926,-1.1474,-0.37821,-0.70045,-0.078675,-0.60503,0.035095,0.21843
-0.0080694,-0.068705,-0.12548,0.0064931,0.50566,1.7227,-0.076442,1.7849,0.076887,0.46106,0.0031269,-0.2744,-0.052279,1.1498,-0.2575,1.9851,-0.058196,-1.3385,-0.44625,-0.86311,-0.077009,-0.67794,0.049329,0.13679
-0.010772,-0.06937,-0.12691,0.013353,0.49961,1.4942,-0.055938,1.5001,0.0084976,0.35249,0.025814,-0.24395,0.037502,1.4161,-0.19522,2.647,-0.077903,-1.568,-0.52361,-1.0605,-0.075989,-0.70528,0.064198,0.072155
-0.01363,-0.073145,-0.12663,0.015603,0.47822,1.3224,-0.058518,1.2759,-0.059201,0.21769,0.045639,-0.21558,0.13421,1.8641,-0.11024,3.2113,-0.096221,-1.785,-0.59567,-1.2335,-0.068193,-0.65791,0.079576,0.029177
-0.015835,-0.079491,-0.12507,0.013063,0.43243,1.193,-0.074628,1.1208,-0.11093,0.060812,0.062779,-0.21678,0.22976,2.4288,-0.011469,3.6004,-0.10721,-1.9208,-0.64522,-1.3232,-0.045808,-0.52274,0.096266,-0.007787
-0.016449,-0.085621,-0.12203,0.0084108,0.36695,1.0876,-0.089137,1.0227,-0.13459,-0.10558,0.074027,-0.28342,0.33318,3.0038,0.079399,3.8042,-0.10714,-1.9298,-0.66127,-1.3063,-0.0072309,-0.30781,0.11622,-0.053236
-0.015879,-0.088815,-0.11757,0.0046819,0.30241,0.99897,-0.089189,0.96303,-0.13182,-0.26598,0.074307,-0.43559,0.4542,3.485,0.13803,3.8657,-0.097607,-1.8197,-0.64546,-1.2129,0.039819,-0.0393,0.14061,-0.099745
-0.016149,-0.088273,-0.11288,0.0031943,0.26513,0.93293,-0.069662,0.92984,-0.11946,-0.41169,0.061269,-0.66145,0.58541,3.8171,0.15429,3.8471,-0.085442,-1.6488,-0.61149,-1.1113,0.081853,0.24796,0.1674,-0.11532
-0.01922,-0.085346,-0.10993,0.0032227,0.2705,0.89462,-0.034099,0.91695,-0.11955,-0.5475,0.038876,-0.92065,0.69951,4.0117,0.1418,3.7911,-0.078537,-1.4901,-0.57752,-1.069,0.10786,0.5225,0.1908,-0.061408
-0.024634,-0.082303,-0.11005,0.003196,0.31241,0.87407,0.0082459,0.91504,-0.14508,-0.68846,0.016558,-1.1648,0.76461,4.1229,0.13035,3.698,-0.080242,-1.3858,-0.5562,-1.1138,0.11617,0.76511,0.20372,0.081987
-0.028938,-0.080804,-0.11247,0.0020705,0.36689,0.8454,0.046989,0.90626,-0.19221,-0.84733,0.004014,-1.3601,0.76541,4.1967,0.1456,3.5246,-0.086888,-1.3227,-0.54821,-1.2186,0.11458,0.97073,0.20165,0.30184
-0.02804,-0.081251,-0.11442,-0.00031087,0.40729,0.78202,0.074538,0.8701,-0.24474,-1.0214,0.0051532,-1.4993,0.71418,4.2334,0.19171,3.2117,-0.090838,-1.2436,-0.54303,-1.3184,0.11379,1.1424,0.18538,0.55678
-0.020941,-0.08335,-0.11279,-0.0039418,0.41956,0.67485,0.088137,0.7958,-0.28635,-1.1904,0.015395,-1.5981,0.64409,4.1918,0.25056,2.7269,-0.086845,-1.0874,-0.52593,-1.3473,0.11942,1.2808,0.16063,0.79588
-0.0115,-0.087155,-0.10636,-0.0095014,0.40696,0.53758,0.09015,0.68939,-0.31112,-1.3286,0.024082,-1.6842,0.5908,4.0336,0.29763,2.1058,-0.07644,-0.8278,-0.48661,-1.274,0.12876,1.3771,0.13507,0.97896
-0.0061886,-0.093467,-0.096735,-0.018296,0.38249,0.39505,0.087497,0.56903,-0.32456,-1.4243,0.020231,-1.7866,0.57479,3.7708,0.32056,1.4623,-0.066545,-0.48975,-0.42423,-1.115,0.13405,1.4131,0.11485,1.0879
-0.0091766,-0.10309,-0.087081,-0.031141,0.35667,0.26563,0.090755,0.45303,-0.33585,-1.4892,-0.0021429,-1.9275,0.59396,3.4784,0.32573,0.95613,-0.063546,-0.13294,-0.3459,-0.92044,0.12881,1.3721,0.10284,1.1265
-0.018753,-0.11555,-0.07954,-0.047093,0.33039,0.15311,0.11222,0.35128,-0.34871,-1.5499,-0.042162,-2.1166,0.62782,3.2567,0.32916,0.72401,-0.067953,0.18144,-0.26036,-0.74167,0.11197,1.2533,0.098851,1.1119
-0.028312,-0.12841,-0.073434,-0.063219,0.29717,0.053087,0.16168,0.26582,-0.3584,-1.6255,-0.094068,-2.3458,0.64873,3.1692,0.34158,0.81084,-0.074199,0.41873,-0.17179,-0.59945,0.087332,1.0801,0.10115,1.0648
-0.0314,-0.13808,-0.065803,-0.075887,0.25136,-0.034337,0.24026,0.1966,-0.35648,-1.7088,-0.15112,-2.5897,0.63392,3.1987,0.36106,1.141,-0.075471,0.5779,-0.078629,-0.4725,0.060159,0.89397,0.10745,1.0009
-0.026764,-0.14143,-0.054002,-0.082778,0.19507,-0.09925,0.33564,0.14453,-0.3385,-1.7679,-0.20886,-2.8139,0.5738,3.2532,0.37794,1.5521,-0.069203,0.67876,0.021819,-0.31307,0.034461,0.73603,0.11507,0.92772
-0.01919,-0.13736,-0.038212,-0.084148,0.13864,-0.12916,0.42347,0.10869,-0.30788,-1.7652,-0.26632,-2.9908,0.47409,3.2173,0.38526,1.8754,-0.05863,0.74395,0.12711,-0.079872,0.012635,0.62632,0.12079,0.84528
-0.015392,-0.12693,-0.021684,-0.082346,0.094791,-0.12191,0.47726,0.082056,-0.27317,-1.6824,-0.32533,-3.1109,0.3511,3.0147,0.38434,2.014,-0.049584,0.78999,0.2274,0.23253,-0.003539,0.55579,0.12136,0.74994
-0.018413,-0.11242,-0.0084058,-0.079913,0.070772,-0.092328,0.48238,0.052365,-0.24162,-1.531,-0.38934,-3.1827,0.22231,2.6418,0.38121,1.9711,-0.045758,0.82984,0.30979,0.58652,-0.012495,0.49679,0.11502,0.63872
-0.025213,-0.096065,-0.00011697,-0.077762,0.063492,-0.066493,0.44497,0.0087417,-0.21477,-1.3452,-0.46232,-3.2205,0.097491,2.1561,0.37903,1.8145,-0.04648,0.87805,0.3659,0.92055,-0.013629,0.42445,0.10299,0.51201
-0.029362,-0.079691,0.0047929,-0.074896,0.060379,-0.067527,0.38851,-0.050856,-0.18937,-1.1638,-0.54799,-3.231,-0.023867,1.6328,0.37485,1.6056,-0.048245,0.94889,0.39681,1.1813,-0.0080911,0.33286,0.089879,0.37379
-0.026449,-0.065137,0.0096364,-0.069914,0.045429,-0.10241,0.33873,-0.1171,-0.16186,-1.0163,-0.6481,-3.2095,-0.14672,1.1236,0.36313,1.3501,-0.047945,1.0485,0.41114,1.3487,0.0015377,0.23454,0.082237,0.2299
-0.017655,-0.05466,0.016574,-0.063025,0.0072821,-0.15715,0.3074,-0.17247,-0.13218,-0.91935,-0.7594,-3.1468,-0.27048,0.6433,0.34182,1.0023,-0.044755,1.1707,0.4186,1.4414,0.012571,0.14576,0.085918,0.086429
-0.0086629,-0.050274,0.025084,-0.056825,-0.054781,-0.20199,0.28677,-0.19708,-0.10333,-0.87758,-0.87031,-3.0398,-0.38302,0.1881,0.31415,0.5169,-0.039558,1.3039,0.42396,1.5017,0.023366,0.071759,0.10339,-0.05047
-0.0050146,-0.052125,0.032935,-0.054969,-0.13014,-0.20421,0.25844,-0.17483,-0.077658,-0.88469,-0.96031,-2.8932,-0.46443,-0.23593,0.28508,-0.096446,-0.033252,1.443,0.42609,1.5728,0.033457,0.0046347,0.13235,-0.17347
-0.0078554,-0.057283,0.038547,-0.059565,-0.20196,-0.14375,0.20955,-0.10005,-0.053168,-0.9227,-1.0051,-2.7126,-0.49835,-0.59957,0.25682,-0.75999,-0.025966,1.5919,0.42126,1.6793,0.042893,-0.065713,0.16632,-0.27338
-0.013391,-0.060503,0.042461,-0.06927,-0.25531,-0.025391,0.1432,0.015631,-0.023315,-0.96576,-0.98674,-2.4961,-0.4826,-0.86322,0.22867,-1.363,-0.017769,1.7512,0.40766,1.8178,0.051603,-0.13965,0.19724,-0.34056
-0.016172,-0.057074,0.046758,-0.079688,-0.28385,0.11932,0.075648,0.14136,0.019537,-0.99108,-0.90489,-2.2339,-0.43081,-1.0048,0.20119,-1.816,-0.0097127,1.9025,0.38801,1.9613,0.059214,-0.20735,0.21881,-0.36848
-0.013298,-0.045886,0.053265,-0.086,-0.29131,0.24443,0.023872,0.23621,0.079501,-0.99087,-0.77986,-1.9186,-0.36422,-1.0393,0.17957,-2.0836,-0.0037479,2.0091,0.37051,2.0762,0.065133,-0.26104,0.22898,-0.35815
-0.0061909,-0.030174,0.062353,-0.085956,-0.2876,0.31166,-0.0060267,0.26901,0.15466,-0.97455,-0.64487,-1.5572,-0.30021,-1.0146,0.17157,-2.1774,-0.0014042,2.0413,0.36885,2.1444,0.068594,-0.30822,0.22992,-0.32081
0.0011175,-0.014994,0.073243,-0.080967,-0.28262,0.30945,-0.020738,0.23724,0.23821,-0.95666,-0.52959,-1.1725,-0.24584,-0.98506,0.18107,-2.1259,-0.0025362,2.0073,0.40079,2.1794,0.068795,-0.37248,0.22528,-0.27702
0.0053973,-0.0032594,0.085024,-0.07444,-0.28182,0.25519,-0.032002,0.1689,0.32227,-0.93896,-0.44552,-0.79298,-0.19984,-0.98419,0.20329,-1.9507,-0.0054443,1.9598,0.48333,2.2225,0.065442,-0.47851,0.21667,-0.25125
0.0064449,0.0063849,0.097068,-0.068774,-0.28588,0.17824,-0.04639,0.10204,0.40179,-0.90244,-0.38318,-0.43965,-0.15892,-1.0139,0.22672,-1.6682,-0.0083155,1.9635,0.62423,2.3162,0.059629,-0.63217,0.20232,-0.26331
0.0065388,0.017948,0.10851,-0.063588,-0.29368,0.09622,-0.060285,0.055404,0.47576,-0.81787,-0.32328,-0.12237,-0.1225,-1.0558,0.24067,-1.3056,-0.010617,2.045,0.81382,2.4705,0.054389,-0.81131,0.17914,-0.31953
0.0079759,0.034059,0.11776,-0.056746,-0.30555,0.0037032,-0.062675,0.013744,0.54498,-0.66799,-0.25349,0.1518,-0.092733,-1.0932,0.24185,-0.91079,-0.013156,2.1671,1.0234,2.6477,0.054114,-0.97533,0.14696,-0.4085
0.010991,0.05306,0.12315,-0.047223,-0.32389,-0.11717,-0.042765,-0.058423,0.60793,-0.46313,-0.17819,0.36877,-0.072245,-1.1253,0.23448,-0.54165,-0.01688,2.2505,1.2139,2.78,0.062712,-1.0875,0.11087,-0.50508
0.013777,0.069866,0.12435,-0.03705,-0.35025,-0.27353,0.0025324,-0.18487,0.65792,-0.23657,-0.11385,0.51064,-0.06315,-1.167,0.22393,-0.24543,-0.021695,2.2314,1.351,2.8095,0.081309,-1.1348,0.079093,-0.58207
0.014383,0.079902,0.12321,-0.030244,-0.38123,-0.44704,0.065012,-0.35416,0.68466,-0.02194,-0.074134,0.57397,-0.068017,-1.2374,0.21015,-0.046618,-0.02649,2.1081,1.4194,2.7229,0.10688,-1.1329,0.057178,-0.62424
0.012665,0.08266,0.12279,-0.029386,-0.407,-0.6018,0.12702,-0.52484,0.68014,0.17001,-0.057066,0.58775,-0.090079,-1.3497,0.18672,0.046615,-0.030203,1.9404,1.4266,2.5544,0.13289,-1.1141,0.042892,-0.63632
0.010556,0.081842,0.12512,-0.032881,-0.41545,-0.70864,0.16842,-0.65448,0.64541,0.35738,-0.044672,0.60992,-0.13047,-1.5063,0.14629,0.028758,-0.032694,1.8047,1.3947,2.3575,0.15187,-1.1088,0.026257,-0.6401
0.010483,0.082198,0.12971,-0.035645,-0.40078,-0.76393,0.17608,-0.7272,0.59319,0.57118,-0.015579,0.6966,-0.18422,-1.6975,0.087521,-0.10437,-0.034439,1.7419,1.3475,2.1701,0.15856,-1.1321,-0.0045421,-0.66245
0.013388,0.086057,0.13408,-0.033016,-0.37088,-0.78574,0.15124,-0.75652,0.54312,0.82914,0.039422,0.86328,-0.23934,-1.8973,0.018056,-0.33818,-0.035417,1.7385,1.299,1.9995,0.15175,-1.1839,-0.055121,-0.72165
0.018066,0.092506,0.13599,-0.024672,-0.34694,-0.79115,0.10938,-0.76436,0.51202,1.1178,0.11074,1.0688,-0.28145,-2.0584,-0.048242,-0.61996,-0.034543,1.7499,1.2509,1.8341,0.13368,-1.2595,-0.12023,-0.81966
0.022278,0.099359,0.13525,-0.015109,-0.35309,-0.7772,0.071039,-0.75868,0.50491,1.395,0.1768,1.238,-0.30086,-2.1147,-0.096941,-0.86375,-0.030529,1.7414,1.1977,1.666,0.10762,-1.3602,-0.18553,-0.94354
0.024515,0.10545,0.13337,-0.010113,-0.40167,-0.72562,0.048477,-0.73218,0.51308,1.61,0.21839,1.3086,-0.29634,-2.0031,-0.11807,-0.9885,-0.023474,1.7113,1.1347,1.5023,0.075823,-1.4947,-0.23453,-1.0742
0.024838,0.11096,0.13157,-0.012051,-0.4843,-0.62885,0.037608,-0.68223,0.52039,1.7289,0.22957,1.2663,-0.27265,-1.6963,-0.10902,-0.96756,-0.015521,1.6842,1.0636,1.358,0.039572,-1.671,-0.25623,-1.1974
0.024269,0.116,0.12925,-0.017785,-0.57592,-0.51321,0.021878,-0.62994,0.51326,1.75,0.21808,1.1434,-0.23487,-1.232,-0.075682,-0.85041,-0.0095913,1.6869,0.99167,1.2417,0.0012358,-1.882,-0.24946,-1.3129
0.023591,0.11965,0.12455,-0.02074,-0.64951,-0.43445,-0.013988,-0.61556,0.48737,1.7008,0.19711,0.98393,-0.18579,-0.713,-0.031355,-0.73397,-0.0070378,1.7303,0.92788,1.1487,-0.033787,-2.0997,-0.22241,-1.4357
0.022871,0.12096,0.1165,-0.01537,-0.69103,-0.44435,-0.070775,-0.67,0.44724,1.6202,0.17633,0.8093,-0.12871,-0.27188,0.0077044,-0.69967,-0.0062561,1.8077,0.87693,1.0675,-0.057605,-2.2818,-0.18888,-1.5885
0.022044,0.12079,0.10654,-0.00063339,-0.70337,-0.55326,-0.13259,-0.78603,0.40007,1.5362,0.15882,0.61149,-0.072024,-0.016177,0.030079,-0.76279,-0.0036194,1.9048,0.83623,0.99024,-0.063244,-2.3883,-0.1632,-1.7853
0.021652,0.12211,0.097655,0.019718,-0.69749,-0.71906,-0.17728,-0.91587,0.34994,1.4549,0.14471,0.37771,-0.029127,0.01654,0.036103,-0.87287,0.0038814,2.0058,0.79732,0.91775,-0.048751,-2.3982,-0.15581,-2.0162
0.022647,0.12752,0.09176,0.039645,-0.67887,-0.87251,-0.19073,-1.0005,0.29668,1.3661,0.13612,0.12123,-0.011544,-0.13187,0.037954,-0.96318,0.016403,2.0929,0.75111,0.85413,-0.018909,-2.3145,-0.17008,-2.2431
0.025223,0.1362,0.087958,0.053979,-0.64143,-0.95945,-0.17352,-1.0085,0.23933,1.263,0.13817,-0.11048,-0.020457,-0.36841,0.050848,-1.0064,0.03117,2.1422,0.69377,0.79954,0.016916,-2.1552,-0.20119,-2.4136
0.027954,0.1433,0.083436,0.060248,-0.57398,-0.96859,-0.13603,-0.95537,0.17999,1.1568,0.15531,-0.25856,-0.044429,-0.59499,0.080974,-1.0289,0.04447,2.1279,0.62979,0.74821,0.049407,-1.9387,-0.23774,-2.4882
0.02846,0.14303,0.076237,0.058697,-0.47322,-0.9267,-0.08803,-0.88849,0.12368,1.0742,0.1869,-0.28819,-0.066418,-0.74491,0.12,-1.0738,0.054014,2.0341,0.57023,0.69286,0.073257,-1.6735,-0.26629,-2.4633
0.025368,0.13304,0.067215,0.051378,-0.35164,-0.87014,-0.032903,-0.85282,0.074311,1.0347,0.22626,-0.20893,-0.075042,-0.79375,0.15158,-1.1479,0.05989,1.8673,0.52766,0.62987,0.087982,-1.3618,-0.27717,-2.3745
0.019833,0.11639,0.059274,0.041412,-0.23291,-0.81776,0.029673,-0.86343,0.030529,1.0267,0.26428,-0.065659,-0.071163,-0.74777,0.16502,-1.2028,0.063743,1.6579,0.51101,0.55942,0.095547,-1.0125,-0.26891,-2.278
0.014995,0.099479,0.054671,0.032709,-0.13786,-0.76451,0.097288,-0.9036,-0.014238,1.0031,0.29427,0.090847,-0.064845,-0.62502,0.16436,-1.1688,0.067229,1.4488,0.52291,0.48171,0.097099,-0.65449,-0.24869,-2.2227
0.013547,0.087844,0.053044,0.029511,-0.071986,-0.69544,0.16248,-0.94493,-0.06693,0.90566,0.31398,0.23082,-0.065894,-0.44335,0.16487,-1.0101,0.071152,1.2749,0.55962,0.39477,0.091467,-0.3382,-0.22849,-2.2329
0.015519,0.083363,0.051951,0.035072,-0.024046,-0.60399,0.21699,-0.96982,-0.12895,0.70148,0.3237,0.35193,-0.076236,-0.21938,0.17967,-0.75415,0.075758,1.1484,0.61213,0.29788,0.0765,-0.12121,-0.21914,-2.3102
