1.7171e-010,1.8232e-009,4.9969e-010,2.2129e-009,1.4296e-009,6.0792e-009,1.8155e-009,3.1428e-009,-3.5692e-010,6.2702e-010,-5.3056e-010,2.0354e-009,3.8393e-010,1.9467e-009,2.7145e-009,4.4046e-009,5.6143e-010,5.5757e-010,2.4116e-010,-1.036e-009,1.1094e-009,5.485e-009,-5.4985e-010,4.6091e-009
4.9456e-009,5.0841e-008,1.3909e-008,6.1058e-008,3.932e-008,1.6666e-007,4.9964e-008,8.6231e-008,-9.7936e-009,1.6949e-008,-1.4862e-008,5.6478e-008,1.0671e-008,5.4091e-008,7.5313e-008,1.2176e-007,1.5618e-008,1.5543e-008,6.6025e-009,-2.8151e-008,3.0605e-008,1.5174e-007,-1.5071e-008,1.2721e-007
6.9231e-008,6.8884e-007,1.8794e-007,8.1909e-007,5.2502e-007,2.2192e-006,6.6795e-007,1.1487e-006,-1.3061e-007,2.2209e-007,-2.026e-007,7.6153e-007,1.4423e-007,7.3097e-007,1.0158e-006,1.6363e-006,2.1115e-007,2.103e-007,8.7825e-008,-3.7124e-007,4.1041e-007,2.0398e-006,-2.0075e-007,1.7066e-006
6.2764e-007,6.0407e-006,1.6419e-006,7.1171e-006,4.5324e-006,1.9118e-005,5.7785e-006,9.8938e-006,-1.128e-006,1.8785e-006,-1.7906e-006,6.6471e-006,1.2627e-006,6.401e-006,8.8719e-006,1.4242e-005,1.848e-006,1.8389e-006,7.5598e-007,-3.165e-006,3.5637e-006,1.7751e-005,-1.7317e-006,1.4825e-005
4.1422e-006,3.8529e-005,1.0419e-005,4.5019e-005,2.8417e-005,0.00011973,3.6354e-005,6.1907e-005,-7.0921e-006,1.1519e-005,-1.153e-005,4.2207e-005,8.0474e-006,4.0829e-005,5.64e-005,9.024e-005,1.1768e-005,1.1669e-005,4.731e-006,-1.96e-005,2.2517e-005,0.00011238,-1.0876e-005,9.3722e-005
2.1205e-005,0.0001904,5.113e-005,0.00022086,0.00013778,0.00058063,0.00017718,0.00029965,-3.4594e-005,5.4512e-005,-5.7629e-005,0.00020769,3.9772e-005,0.00020213,0.00027803,0.00044349,5.8085e-005,5.719e-005,2.292e-005,-9.3911e-005,0.00011029,0.00055134,-5.3013e-005,0.00045934
8.7582e-005,0.00075808,0.00020167,0.00087414,0.0005368,0.002267,0.00069574,0.0011662,-0.00013621,0.00020679,-0.00023254,0.00082359,0.00015853,0.00080813,0.0011054,0.0017585,0.00023113,0.0002248,8.9324e-005,-0.00036195,0.00043553,0.0021799,-0.00020873,0.0018152
0.00029964,0.0024959,0.00065553,0.0028657,0.0017231,0.007312,0.0022593,0.0037422,-0.00044454,0.00064447,-0.00077775,0.0027018,0.00052318,0.0026798,0.0036398,0.005777,0.00076113,0.00072587,0.00028708,-0.0011513,0.0014233,0.0071299,-0.00068224,0.0059375
0.00086474,0.0069183,0.0017854,0.0079255,0.0046317,0.019828,0.0061777,0.010069,-0.0012252,0.0016759,-0.002196,0.0074655,0.0014558,0.0075104,0.010109,0.016016,0.002112,0.0019537,0.00077293,-0.0030754,0.0039191,0.019641,-0.001888,0.016369
0.0021315,0.016342,0.0041156,0.018732,0.010524,0.045726,0.014399,0.022949,-0.0028892,0.0036667,-0.0053027,0.017593,0.0034595,0.018034,0.023988,0.037968,0.0049997,0.0044128,0.0017575,-0.0069749,0.0092074,0.046137,-0.0044891,0.038514
0.0045237,0.033152,0.0080626,0.038171,0.020274,0.090275,0.028831,0.044504,-0.0058807,0.0067579,-0.01105,0.035643,0.0070804,0.037466,0.049069,0.077658,0.010177,0.0083441,0.0033746,-0.013504,0.018605,0.093143,-0.009276,0.077961
0.0083019,0.057968,0.013388,0.067419,0.03293,0.15284,0.049772,0.073253,-0.010387,0.010399,-0.019984,0.06234,0.012544,0.067816,0.086993,0.13783,0.017875,0.012988,0.0054,-0.022293,0.032475,0.16224,-0.016808,0.13634
0.013178,0.087314,0.018596,0.10344,0.044187,0.22091,0.07401,0.10103,-0.015948,0.012999,-0.031457,0.094148,0.019267,0.10746,0.13397,0.21282,0.027065,0.015811,0.0069053,-0.031026,0.048982,0.24372,-0.026903,0.20598
0.018016,0.1126,0.020862,0.13776,0.046257,0.26883,0.094125,0.11277,-0.021252,0.012197,-0.0431,0.12219,0.025603,0.14958,0.17903,0.28588,0.035057,0.012512,0.006105,-0.035186,0.063575,0.31401,-0.038279,0.26745
0.02099,0.12256,0.017072,0.15856,0.030592,0.26647,0.10063,0.092056,-0.024437,0.0060786,-0.051232,0.13472,0.029245,0.18346,0.20668,0.33306,0.038097,-0.0013691,0.00073759,-0.029236,0.070278,0.34228,-0.048704,0.29459
0.02042,0.1093,0.00587,0.15661,-0.0067399,0.19731,0.086984,0.031655,-0.024018,-0.0051141,-0.052454,0.12327,0.028369,0.19942,0.20447,0.33488,0.033147,-0.027356,-0.010886,-0.0091559,0.064875,0.30701,-0.055765,0.26777
0.015969,0.074838,-0.010513,0.1318,-0.059956,0.075729,0.054899,-0.057111,-0.019992,-0.018054,-0.045659,0.089351,0.022959,0.19484,0.17168,0.28975,0.019988,-0.061214,-0.028526,0.024904,0.048286,0.2137,-0.057936,0.18883
0.009325,0.032522,-0.026412,0.095159,-0.11309,-0.051593,0.015619,-0.14509,-0.014308,-0.027477,-0.032997,0.046222,0.015272,0.17698,0.12244,0.21895,0.0021178,-0.093074,-0.049191,0.067722,0.027359,0.099348,-0.055294,0.086195
0.0035093,0.00033353,-0.035633,0.06326,-0.14637,-0.12762,-0.01504,-0.19988,-0.01006,-0.029351,-0.018756,0.012445,0.0087805,0.15901,0.078986,0.15632,-0.014701,-0.11189,-0.067709,0.11087,0.011464,0.015287,-0.049433,0.0025993
0.00086236,-0.010841,-0.035657,0.047587,-0.1468,-0.12008,-0.02566,-0.20706,-0.0096187,-0.024053,-0.0067435,0.00026196,0.0060375,0.15127,0.058017,0.12722,-0.025687,-0.11219,-0.078788,0.14652,0.0065052,-0.0043963,-0.042598,-0.029589
0.0010562,-0.0052656,-0.02997,0.046717,-0.11581,-0.045045,-0.015979,-0.18271,-0.012872,-0.016757,0.0018734,0.0070126,0.0069752,0.15398,0.05979,0.13142,-0.02985,-0.09822,-0.079611,0.17069,0.010682,0.033301,-0.036544,-0.0088196
0.00090996,0.00071093,-0.026104,0.048094,-0.06802,0.041456,0.003868,-0.16506,-0.016988,-0.013911,0.0084923,0.017058,0.0091152,0.1578,0.068896,0.14434,-0.03011,-0.081087,-0.071318,0.18393,0.01575,0.084178,-0.031755,0.035582
-0.0033446,-0.008225,-0.030194,0.038802,-0.021315,0.08125,0.021267,-0.18862,-0.018131,-0.017956,0.014965,0.01377,0.0097261,0.15245,0.066805,0.13702,-0.030443,-0.069982,-0.058299,0.18895,0.013369,0.098441,-0.027419,0.065238
-0.012801,-0.033383,-0.042042,0.016713,0.014632,0.054258,0.029911,-0.25933,-0.014112,-0.024609,0.021516,-0.0075412,0.0082304,0.1361,0.046328,0.09937,-0.032361,-0.063902,-0.045639,0.18734,0.0016653,0.056866,-0.022195,0.060132
-0.024301,-0.060517,-0.054833,-0.0076418,0.042588,-0.00978,0.032435,-0.35093,-0.0060602,-0.025598,0.026683,-0.036419,0.0066905,0.1171,0.016144,0.047295,-0.033735,-0.051446,-0.036416,0.17788,-0.01349,-0.017048,-0.015375,0.030179
-0.032207,-0.071735,-0.060147,-0.020381,0.071861,-0.056837,0.035375,-0.42586,0.0021785,-0.015337,0.029224,-0.056549,0.0076916,0.10591,-0.008022,0.0077733,-0.031009,-0.020202,-0.030658,0.15787,-0.023679,-0.078582,-0.0077607,0.0024804
-0.032452,-0.061025,-0.054452,-0.016631,0.10772,-0.049953,0.041705,-0.4638,0.0065354,0.0037186,0.029916,-0.059574,0.011321,0.10453,-0.017432,-0.0051674,-0.022825,0.03128,-0.026452,0.12642,-0.025152,-0.098633,-0.0014989,-0.003863
-0.025704,-0.039822,-0.041828,-0.0048817,0.14528,0.006919,0.048033,-0.47353,0.0053065,0.02188,0.031301,-0.051504,0.014098,0.10329,-0.017209,-0.0023319,-0.011699,0.089287,-0.022073,0.087195,-0.021791,-0.085104,0.0012873,0.0063833
-0.016992,-0.027576,-0.030693,0.00060229,0.17284,0.079248,0.048703,-0.47855,3.4677e-005,0.029133,0.035539,-0.046512,0.011328,0.088955,-0.020551,-0.0088562,-0.0022209,0.13322,-0.017353,0.048246,-0.021294,-0.072188,0.00028139,0.010629
-0.012028,-0.035485,-0.027274,-0.0076719,0.18111,0.13343,0.04224,-0.48961,-0.0057366,0.022863,0.04246,-0.054146,0.001301,0.057195,-0.036262,-0.041081,0.0025932,0.1504,-0.01336,0.018707,-0.028138,-0.088858,-0.0022535,-0.010439
-0.013213,-0.057576,-0.031203,-0.024333,0.17025,0.16037,0.033469,-0.48946,-0.008709,0.010064,0.049749,-0.071523,-0.01224,0.018146,-0.061038,-0.091596,0.0034379,0.14532,-0.010962,0.0043926,-0.039612,-0.13473,-0.0026279,-0.055836
-0.018479,-0.076559,-0.036622,-0.036836,0.14878,0.17273,0.029089,-0.444,-0.0074804,0.0020809,0.055014,-0.086919,-0.021951,-0.010404,-0.082884,-0.13544,0.0034881,0.13533,-0.0097641,0.0051042,-0.048287,-0.18297,0.0018075,-0.10538
-0.023609,-0.078776,-0.037447,-0.037355,0.1262,0.18293,0.031059,-0.33078,-0.0027977,0.0060115,0.057737,-0.090641,-0.022068,-0.016647,-0.0917,-0.15136,0.0051244,0.13616,-0.0083592,0.015312,-0.048463,-0.20505,0.010779,-0.13639
-0.025793,-0.065047,-0.032152,-0.029884,0.10611,0.1852,0.034334,-0.1604,0.0032564,0.019566,0.059274,-0.082988,-0.012878,-0.0034869,-0.087199,-0.13896,0.007765,0.14954,-0.0055828,0.027566,-0.040831,-0.19419,0.021412,-0.14065
-0.025419,-0.048683,-0.024326,-0.026391,0.085531,0.15806,0.031178,0.027009,0.0083564,0.033224,0.061108,-0.072756,-0.00066846,0.014905,-0.07774,-0.1174,0.0087456,0.16316,-0.0015066,0.036321,-0.031497,-0.16772,0.030578,-0.12802
-0.024939,-0.043617,-0.019097,-0.036071,0.059936,0.083106,0.017957,0.18647,0.010837,0.037654,0.063206,-0.068851,0.0069873,0.025203,-0.072287,-0.10796,0.0062146,0.16267,0.0027761,0.039962,-0.026677,-0.14909,0.037284,-0.11588
-0.026203,-0.053611,-0.018859,-0.057624,0.028642,-0.038239,-0.0019072,0.29327,0.010339,0.030453,0.064098,-0.073263,0.0068213,0.024904,-0.073346,-0.11673,0.0011742,0.14489,0.0063489,0.040266,-0.02791,-0.14757,0.04308,-0.11497
-0.028706,-0.071113,-0.021708,-0.080982,-0.0044292,-0.18424,-0.02118,0.34905,0.0080558,0.017304,0.062496,-0.081185,0.0017926,0.022007,-0.076701,-0.13205,-0.0032478,0.12071,0.0094945,0.040089,-0.031638,-0.15321,0.050212,-0.12343
-0.030103,-0.085012,-0.023284,-0.096012,-0.034617,-0.32667,-0.034736,0.36776,0.006246,0.0072683,0.058786,-0.086712,-0.0020565,0.025756,-0.076991,-0.13751,-0.0045305,0.10519,0.013571,0.040734,-0.032918,-0.14927,0.059276,-0.13174
-0.028288,-0.089219,-0.01993,-0.099959,-0.060685,-0.44533,-0.042497,0.35706,0.0069308,0.0062332,0.054913,-0.087916,-0.00089188,0.037335,-0.073255,-0.12762,-0.0029271,0.10385,0.019875,0.040293,-0.02962,-0.12864,0.068474,-0.1322
-0.02317,-0.085017,-0.010682,-0.097655,-0.085011,-0.53171,-0.047268,0.31257,0.010495,0.013392,0.052835,-0.086919,0.004027,0.048483,-0.069535,-0.1125,-0.00115,0.10711,0.028551,0.033886,-0.02363,-0.0994,0.075034,-0.12445
-0.016775,-0.077039,0.0027729,-0.095687,-0.10957,-0.5822,-0.050496,0.22894,0.015338,0.022854,0.053039,-0.086192,0.008058,0.048281,-0.070749,-0.10868,-0.0019723,0.097986,0.038509,0.016057,-0.018577,-0.075953,0.077436,-0.1137
-0.011714,-0.068301,0.017339,-0.096748,-0.1315,-0.59001,-0.050713,0.11568,0.019054,0.028593,0.054396,-0.085643,0.0075576,0.031367,-0.078086,-0.12538,-0.0059133,0.06646,0.048316,-0.015441,-0.016534,-0.065658,0.076473,-0.10518
-0.009302,-0.059032,0.029813,-0.09896,-0.14261,-0.54428,-0.046183,0.00204,0.020254,0.028751,0.055265,-0.083326,0.0028935,0.00069099,-0.087988,-0.15826,-0.010916,0.018394,0.057174,-0.05664,-0.01656,-0.063391,0.074412,-0.10018
-0.0086836,-0.04902,0.037926,-0.099489,-0.13374,-0.43701,-0.038718,-0.07456,0.019453,0.026223,0.054623,-0.078293,-0.0023658,-0.036345,-0.095096,-0.19474,-0.014087,-0.028369,0.065164,-0.097725,-0.015947,-0.058052,0.073159,-0.096536
-0.007558,-0.039618,0.041271,-0.097955,-0.10114,-0.27198,-0.034284,-0.08804,0.018288,0.025485,0.052297,-0.072051,-0.0049593,-0.073764,-0.096263,-0.22455,-0.01392,-0.057317,0.072682,-0.12769,-0.012744,-0.043908,0.073031,-0.091883
-0.0039563,-0.032854,0.041823,-0.096306,-0.050279,-0.068803,-0.039195,-0.036198,0.017897,0.028508,0.048463,-0.066981,-0.0048081,-0.10979,-0.092372,-0.24589,-0.011264,-0.065017,0.079704,-0.14099,-0.007325,-0.026168,0.072975,-0.086222
0.0021735,-0.028978,0.043268,-0.096034,0.0055207,0.14037,-0.05502,0.061902,0.018098,0.033084,0.043306,-0.06363,-0.0048732,-0.14556,-0.087035,-0.26296,-0.008504,-0.06214,0.085459,-0.14141,-0.0019088,-0.016271,0.071766,-0.081863
0.0087401,-0.025704,0.048862,-0.096248,0.05095,0.32,-0.076719,0.17975,0.01807,0.034761,0.037274,-0.05997,-0.008484,-0.18277,-0.083789,-0.27902,-0.0078143,-0.06379,0.088675,-0.13965,0.0013268,-0.021724,0.069051,-0.081312
0.012943,-0.020303,0.05906,-0.094779,0.075514,0.44181,-0.09571,0.29708,0.017666,0.030582,0.031372,-0.053565,-0.01666,-0.22301,-0.08409,-0.29234,-0.0097668,-0.07753,0.088184,-0.1455,0.0019202,-0.039561,0.065468,-0.08517
0.013452,-0.01237,0.070886,-0.090947,0.077438,0.49265,-0.10538,0.40465,0.017861,0.021444,0.026761,-0.044446,-0.027523,-0.26837,-0.087199,-0.29801,-0.013106,-0.098455,0.083654,-0.16022,0.0013221,-0.058609,0.06199,-0.091694
0.01167,-0.0042444,0.079965,-0.086732,0.062768,0.4766,-0.10465,0.50049,0.019793,0.011288,0.023725,-0.035692,-0.037815,-0.32072,-0.091307,-0.2928,-0.015604,-0.11411,0.076217,-0.17523,0.0015691,-0.068042,0.059192,-0.098035
0.010884,0.0014136,0.083792,-0.084844,0.040635,0.41098,-0.097343,0.58397,0.023404,0.0040299,0.021034,-0.030994,-0.044917,-0.37869,-0.094629,-0.2775,-0.015364,-0.11425,0.068542,-0.17851,0.0035214,-0.06483,0.057048,-0.10193
0.013674,0.0043571,0.083511,-0.08551,0.017757,0.31866,-0.088499,0.65358,0.027111,0.00093025,0.016601,-0.031444,-0.047836,-0.43508,-0.09577,-0.25466,-0.011794,-0.097501,0.063929,-0.16386,0.0060339,-0.054413,0.055257,-0.10245
0.019552,0.0070767,0.082636,-0.085387,-0.004546,0.2204,-0.081277,0.70845,0.028927,0.00033157,0.0091723,-0.034496,-0.04694,-0.47811,-0.093682,-0.22469,-0.0057963,-0.070833,0.064516,-0.13568,0.0067196,-0.044894,0.053649,-0.099455
0.024936,0.012544,0.083881,-0.080097,-0.029371,0.13022,-0.076496,0.74937,0.028002,-0.00044335,-0.00035106,-0.035978,-0.043255,-0.49689,-0.087807,-0.18485,0.00090122,-0.043501,0.069644,-0.10532,0.0037946,-0.040073,0.052241,-0.092654
0.025822,0.021727,0.086978,-0.068319,-0.060367,0.053571,-0.074237,0.7767,0.025234,-0.0029111,-0.0092091,-0.033264,-0.03806,-0.48705,-0.078528,-0.13257,0.0067692,-0.020872,0.07582,-0.082417,-0.0023206,-0.03688,0.050987,-0.08139
0.021142,0.033154,0.089374,-0.053648,-0.097788,-0.012795,-0.075069,0.7867,0.022489,-0.0066194,-0.01459,-0.026817,-0.032726,-0.45184,-0.067385,-0.069867,0.011152,-0.0022766,0.078729,-0.068312,-0.008853,-0.028701,0.049639,-0.065595
0.01397,0.044568,0.088935,-0.042228,-0.13707,-0.079842,-0.07937,0.77054,0.021244,-0.0098666,-0.015529,-0.018978,-0.028357,-0.39803,-0.056593,-0.0045574,0.014128,0.016581,0.076084,-0.056904,-0.012221,-0.011368,0.047986,-0.046899
0.0093798,0.054751,0.086049,-0.03792,-0.17063,-0.16254,-0.085596,0.71825,0.0218,-0.010868,-0.01339,-0.011317,-0.02522,-0.33093,-0.048008,0.053385,0.015817,0.039094,0.069106,-0.041518,-0.01033,0.013062,0.046203,-0.028491
0.010646,0.063851,0.083249,-0.039058,-0.19145,-0.27228,-0.08976,0.62527,0.023511,-0.0083401,-0.010672,-0.0029767,-0.022546,-0.25339,-0.042297,0.097324,0.015928,0.064236,0.061374,-0.021588,-0.0040973,0.03743,0.044764,-0.013294
0.016933,0.072292,0.08295,-0.039621,-0.196,-0.40792,-0.087356,0.49735,0.025547,-0.00147,-0.0092602,0.0086027,-0.019222,-0.16943,-0.038917,0.12679,0.014165,0.086083,0.055968,-0.0035153,0.0029407,0.0543,0.043748,-0.0017338
0.024291,0.079642,0.08547,-0.034002,-0.18497,-0.55102,-0.076599,0.35064,0.027374,0.010001,-0.0096245,0.025248,-0.014994,-0.087931,-0.036822,0.14565,0.011188,0.096778,0.053244,0.0045836,0.0068433,0.060768,0.042205,0.0088941
0.028862,0.084568,0.088961,-0.02161,-0.16206,-0.67031,-0.060343,0.20718,0.028597,0.02507,-0.011446,0.045935,-0.011065,-0.021565,-0.035253,0.15757,0.0090564,0.091595,0.051038,-0.00044523,0.0059374,0.059905,0.038481,0.022488
0.029456,0.085707,0.090954,-0.0076448,-0.13211,-0.73394,-0.044803,0.088255,0.028532,0.040632,-0.014801,0.066692,-0.0092981,0.019288,-0.034042,0.16305,0.010326,0.073233,0.046884,-0.014022,0.0020566,0.058109,0.031603,0.040845
0.027584,0.082575,0.089964,0.00057388,-0.099961,-0.72274,-0.035693,0.0081238,0.02618,0.051647,-0.020545,0.082656,-0.010556,0.032621,-0.03343,0.16001,0.016158,0.052073,0.040219,-0.026682,-0.00071809,0.060479,0.022638,0.061629
0.025517,0.075893,0.085991,-0.00097433,-0.069727,-0.63666,-0.034331,-0.029879,0.020867,0.053004,-0.029388,0.090846,-0.013678,0.02553,-0.033743,0.14702,0.02496,0.041055,0.032744,-0.029952,0.00089338,0.067487,0.014547,0.079421
0.024496,0.067406,0.079975,-0.0098053,-0.044152,-0.49239,-0.036386,-0.033325,0.013162,0.042393,-0.04054,0.091744,-0.016182,0.008954,-0.035198,0.12566,0.032943,0.047634,0.026905,-0.021056,0.0067359,0.07516,0.010265,0.089249
0.024454,0.059516,0.073051,-0.018267,-0.02379,-0.31639,-0.034166,-0.016355,0.005201,0.022327,-0.051405,0.08869,-0.01622,-0.0089524,-0.037806,0.10007,0.036494,0.068271,0.023992,-0.0038319,0.013117,0.078411,0.010423,0.089892
0.024892,0.054733,0.06614,-0.018535,-0.0070177,-0.13839,-0.021159,0.0071128,-0.00018595,-0.00037203,-0.058945,0.085629,-0.014095,-0.025487,-0.041307,0.074434,0.034646,0.090043,0.023383,0.013971,0.015504,0.074911,0.012723,0.084439
0.025574,0.054753,0.059816,-0.0078573,0.0083506,0.01322,0.0037093,0.028592,-0.0012428,-0.017715,-0.061799,0.084844,-0.012012,-0.040998,-0.045217,0.050742,0.029634,0.098928,0.023227,0.024966,0.012015,0.066533,0.013649,0.077859
0.026477,0.05939,0.054183,0.009585,0.022555,0.11668,0.034512,0.045103,0.0012701,-0.024565,-0.061355,0.08615,-0.012322,-0.055004,-0.049027,0.028695,0.025001,0.088962,0.021686,0.025662,0.0049313,0.057391,0.011097,0.073737
0.027462,0.066145,0.048831,0.025521,0.032657,0.16399,0.060554,0.054418,0.0042452,-0.021073,-0.060721,0.087813,-0.015801,-0.065055,-0.052334,0.0072683,0.022798,0.065512,0.017755,0.017693,-0.0010334,0.050252,0.0056405,0.072659
0.028284,0.071175,0.0431,0.033204,0.034247,0.16567,0.071594,0.050131,0.0042403,-0.012004,-0.062267,0.08829,-0.021303,-0.068881,-0.054506,-0.013737,0.02221,0.040552,0.0114,0.0064024,-0.0022987,0.044417,-0.00051605,0.072941
0.028793,0.07148,0.036585,0.031816,0.025246,0.14716,0.063362,0.021891,4.8437e-005,-0.0033816,-0.065694,0.087484,-0.026754,-0.066564,-0.054065,-0.033356,0.020731,0.024233,0.0033499,-0.0023081,0.0010619,0.036744,-0.0056938,0.072222
0.028753,0.066892,0.029377,0.026507,0.0086044,0.13544,0.04003,-0.038089,-0.0061678,0.0014359,-0.068236,0.08691,-0.030383,-0.059701,-0.048668,-0.050027,0.016756,0.019489,-0.0051245,-0.0050041,0.0058129,0.024666,-0.0098243,0.068082
0.027371,0.060247,0.021723,0.024111,-0.0088984,0.14318,0.011662,-0.12693,-0.010279,0.0037539,-0.066883,0.088962,-0.031235,-0.048374,-0.036467,-0.061987,0.011191,0.023011,-0.012568,-0.0019101,0.0084453,0.0083719,-0.013561,0.057341
0.023366,0.055307,0.013492,0.027908,-0.021295,0.16132,-0.012013,-0.22824,-0.0092625,0.0082116,-0.060883,0.095806,-0.029032,-0.029808,-0.018278,-0.067165,0.0065712,0.030046,-0.01798,0.0041607,0.0078998,-0.0096244,-0.016644,0.035436
0.016125,0.053853,0.0042393,0.035535,-0.027728,0.16588,-0.027275,-0.31801,-0.0035972,0.018842,-0.052581,0.10824,-0.024044,-0.0012415,0.0014859,-0.063382,0.004532,0.037854,-0.021484,0.0099394,0.0059128,-0.026699,-0.017526,-0.0026345
0.0070712,0.054257,-0.0058464,0.041561,-0.03252,0.13398,-0.03733,-0.37623,0.002976,0.035158,-0.04596,0.12472,-0.017301,0.035225,0.016798,-0.049722,0.0040656,0.045302,-0.024384,0.0132,0.0050131,-0.041763,-0.014913,-0.059883
-0.00038175,0.052888,-0.015041,0.042368,-0.040662,0.057847,-0.04789,-0.39692,0.0062392,0.051262,-0.044052,0.14115,-0.010625,0.071023,0.024106,-0.028537,0.0023309,0.050764,-0.028247,0.01298,0.0062283,-0.05495,-0.0097429,-0.13496
-0.0029356,0.047384,-0.020564,0.039137,-0.05258,-0.052078,-0.061281,-0.39045,0.00462,0.059128,-0.047096,0.15198,-0.0058981,0.095572,0.025261,-0.0061124,-0.0025837,0.05213,-0.033488,0.0093649,0.008537,-0.066253,-0.0054646,-0.22139
-6.4291e-005,0.039145,-0.020679,0.036483,-0.062905,-0.17436,-0.074243,-0.37655,0.00014181,0.054074,-0.052654,0.15282,-0.003745,0.10368,0.026312,0.0095514,-0.0094751,0.049663,-0.038673,0.0039295,0.010194,-0.07508,-0.0060005,-0.30873
0.0052632,0.032796,-0.016812,0.038221,-0.064546,-0.28689,-0.081288,-0.37255,-0.0035022,0.038387,-0.057343,0.14316,-0.0027818,0.099253,0.032681,0.013071,-0.014584,0.048307,-0.041333,0.00055898,0.010245,-0.08157,-0.012924,-0.38485
0.0088079,0.032805,-0.013417,0.044158,-0.054643,-0.3733,-0.080307,-0.38359,-0.0040729,0.019993,-0.058852,0.12703,-0.00040841,0.091701,0.044728,0.005041,-0.014646,0.055566,-0.039916,0.005008,0.008653,-0.088412,-0.024181,-0.43862
0.0085017,0.039878,-0.015002,0.050691,-0.037175,-0.42426,-0.075093,-0.40063,-0.0025118,0.0067853,-0.05698,0.11067,0.0051227,0.088061,0.057719,-0.008424,-0.0098645,0.075252,-0.035334,0.022078,0.0052511,-0.10127,-0.035368,-0.46304
0.0060467,0.050078,-0.022499,0.054373,-0.019895,-0.43689,-0.072342,-0.40698,-0.0019681,0.00088198,-0.053365,0.098402,0.01294,0.08827,0.06625,-0.019799,-0.0041377,0.10215,-0.030685,0.051709,-0.00082314,-0.12709,-0.042538,-0.45833
0.0051806,0.057416,-0.032279,0.054918,-0.0082395,-0.41458,-0.076003,-0.38901,-0.0050949,-0.0025702,-0.050407,0.089761,0.019689,0.087782,0.06904,-0.024542,-0.0021626,0.12292,-0.029161,0.087252,-0.010132,-0.17136,-0.044457,-0.43367
0.0081703,0.057763,-0.039163,0.054883,-0.0014652,-0.3663,-0.084198,-0.34409,-0.011863,-0.010924,-0.050088,0.080467,0.021732,0.084519,0.069672,-0.022158,-0.0057443,0.12368,-0.031773,0.11824,-0.021244,-0.23556,-0.042877,-0.40542
0.013721,0.050968,-0.041104,0.056568,0.0057619,-0.30302,-0.091319,-0.28043,-0.019498,-0.027466,-0.053122,0.06653,0.017851,0.082699,0.072805,-0.013511,-0.012377,0.09878,-0.036784,0.13636,-0.030284,-0.31535,-0.040962,-0.39135
0.018098,0.039804,-0.041339,0.059366,0.01795,-0.23195,-0.092851,-0.20971,-0.024364,-0.048155,-0.05866,0.048197,0.01037,0.089207,0.079683,0.0023673,-0.017285,0.054174,-0.04137,0.14011,-0.032548,-0.39968,-0.04111,-0.40276
0.018261,0.027211,-0.045756,0.060228,0.034443,-0.15284,-0.088174,-0.13854,-0.024279,-0.064371,-0.064683,0.030323,0.0037823,0.10585,0.087219,0.028312,-0.017236,0.002857,-0.044044,0.13431,-0.024813,-0.47169,-0.0436,-0.43883
0.014092,0.014593,-0.057448,0.056827,0.049926,-0.060292,-0.079068,-0.065562,-0.019736,-0.069384,-0.069059,0.018775,0.0018476,0.12542,0.091248,0.065546,-0.01302,-0.043539,-0.045729,0.1249,-0.0062685,-0.51313,-0.046779,-0.48634
0.0079403,0.0024754,-0.073197,0.050302,0.059142,0.048856,-0.066197,0.013825,-0.013469,-0.063252,-0.070786,0.015853,0.0052824,0.13631,0.090532,0.11021,-0.0086747,-0.080381,-0.048567,0.11394,0.022343,-0.51223,-0.048544,-0.52519
0.0023776,-0.0076893,-0.085168,0.044837,0.061452,0.16913,-0.04768,0.099546,-0.0088824,-0.052363,-0.070561,0.018585,0.011627,0.13188,0.087593,0.15376,-0.0082461,-0.10887,-0.053652,0.099437,0.059681,-0.47122,-0.048029,-0.53659
-0.001512,-0.013069,-0.086662,0.044251,0.061278,0.28658,-0.02131,0.18293,-0.0083146,-0.044392,-0.070167,0.021178,0.017239,0.11626,0.085858,0.1876,-0.01275,-0.12973,-0.05984,0.080679,0.10308,-0.40767,-0.046297,-0.51028
-0.0039316,-0.011389,-0.077247,0.048632,0.064327,0.38577,0.012143,0.25034,-0.012004,-0.04308,-0.071017,0.019363,0.019857,0.10096,0.086231,0.20802,-0.01969,-0.13745,-0.064728,0.063767,0.1467,-0.3464,-0.045496,-0.44807
-0.0050505,-0.0036677,-0.063106,0.054079,0.073232,0.45795,0.048299,0.29154,-0.018173,-0.046799,-0.073026,0.012935,0.019887,0.095226,0.086552,0.21719,-0.025292,-0.1201,-0.066873,0.061533,0.18134,-0.30596,-0.047158,-0.3631
-0.0043339,0.0051231,-0.052491,0.055877,0.086397,0.50412,0.08212,0.30631,-0.024069,-0.051282,-0.074693,0.0047305,0.019623,0.098773,0.08429,0.21961,-0.027496,-0.065719,-0.067174,0.086328,0.19778,-0.28889,-0.051011,-0.27505
-0.0013,0.0088292,-0.050056,0.052419,0.10047,0.5314,0.11146,0.30453,-0.027368,-0.053429,-0.074253,-0.0024368,0.021115,0.10302,0.079502,0.21733,-0.027269,0.028622,-0.06817,0.14061,0.19215,-0.28316,-0.055293,-0.20278
0.0032415,0.0045339,-0.054454,0.046508,0.11346,0.54675,0.13745,0.30035,-0.027145,-0.052954,-0.070837,-0.0078487,0.024294,0.09897,0.074902,0.2085,-0.027286,0.15106,-0.071854,0.21279,0.16915,-0.27385,-0.058236,-0.1567
0.0069854,-0.0050458,-0.060522,0.042915,0.12535,0.55315,0.16132,0.30477,-0.023992,-0.051338,-0.064781,-0.012456,0.026746,0.084369,0.072869,0.19008,-0.029164,0.2766,-0.077788,0.28193,0.13978,-0.25553,-0.059413,-0.13472
0.0074255,-0.01355,-0.063723,0.044271,0.13606,0.55019,0.18075,0.32103,-0.019381,-0.050192,-0.057176,-0.017214,0.025285,0.064066,0.07241,0.16196,-0.031573,0.37575,-0.082839,0.32822,0.1147,-0.23541,-0.059852,-0.12448
0.003625,-0.016094,-0.063176,0.048705,0.14354,0.53689,0.19001,0.34418,-0.014842,-0.051046,-0.049387,-0.022452,0.018218,0.0446,0.069311,0.12833,-0.03086,0.42559,-0.082504,0.3416,0.098227,-0.22521,-0.060974,-0.11092
-0.0030246,-0.013431,-0.061325,0.051141,0.14451,0.51317,0.18406,0.36375,-0.011437,-0.056165,-0.042872,-0.028824,0.0066538,0.028838,0.059708,0.095127,-0.023722,0.41713,-0.072861,0.32315,0.087458,-0.22943,-0.063416,-0.084566
-0.0096624,-0.011592,-0.06122,0.047143,0.1373,0.47938,0.16334,0.36805,-0.0096471,-0.068202,-0.038913,-0.038064,-0.0060603,0.015434,0.043964,0.065948,-0.0098261,0.35572,-0.052215,0.27986,0.07684,-0.24041,-0.06672,-0.04487
-0.013732,-0.017076,-0.063885,0.036211,0.12394,0.43554,0.13482,0.34905,-0.009461,-0.087662,-0.03784,-0.05169,-0.016366,0.002434,0.02722,0.039964,0.0077487,0.25541,-0.022039,0.21825,0.063796,-0.24448,-0.069982,0.0029544
-0.014366,-0.031328,-0.067635,0.02211,0.10894,0.38235,0.10807,0.30644,-0.01046,-0.11019,-0.038261,-0.068295,-0.022492,-0.0095988,0.015805,0.013556,0.024515,0.1317,0.013071,0.14218,0.050619,-0.23371,-0.072757,0.053835
-0.012539,-0.048936,-0.069401,0.010235,0.095838,0.32339,0.089526,0.24879,-0.011941,-0.12718,-0.037436,-0.082495,-0.025067,-0.018269,0.012364,-0.016108,0.037336,-0.002611,0.046732,0.055212,0.041487,-0.21291,-0.075416,0.10582
-0.010113,-0.061139,-0.066836,0.004201,0.084706,0.26601,0.079303,0.1901,-0.013205,-0.13083,-0.033197,-0.087792,-0.026145,-0.022755,0.013772,-0.04873,0.045729,-0.13707,0.073309,-0.035759,0.03788,-0.19574,-0.078743,0.15795
-0.0086115,-0.062118,-0.059844,0.0040259,0.072991,0.21893,0.072788,0.1433,-0.013949,-0.12035,-0.026097,-0.081893,-0.027581,-0.026001,0.013605,-0.081666,0.050932,-0.26063,0.09058,-0.11978,0.036754,-0.19305,-0.083138,0.2063
-0.0085134,-0.053414,-0.050764,0.0067465,0.058673,0.18796,0.065171,0.11452,-0.014477,-0.10379,-0.019663,-0.069954,-0.029994,-0.033268,0.0071364,-0.11282,0.053957,-0.35992,0.1007,-0.18466,0.032827,-0.20326,-0.088044,0.24382
-0.0093433,-0.043183,-0.043167,0.0085566,0.042442,0.17297,0.055127,0.1023,-0.015432,-0.092948,-0.017954,-0.062167,-0.032844,-0.048399,-0.0052556,-0.14284,0.054586,-0.42166,0.10835,-0.22128,0.022488,-0.21281,-0.092046,0.26554
-0.010256,-0.040727,-0.039869,0.006916,0.026793,0.16885,0.045076,0.10173,-0.017153,-0.094661,-0.022112,-0.066781,-0.035187,-0.071256,-0.018954,-0.17444,0.052126,-0.4386,0.11707,-0.22684,0.0057465,-0.20636,-0.093642,0.27529
-0.010629,-0.050175,-0.041236,0.0015798,0.013308,0.16951,0.038489,0.10918,-0.019163,-0.10539,-0.02887,-0.083879,-0.036361,-0.098251,-0.029312,-0.20924,0.046882,-0.41538,0.12645,-0.20609,-0.014935,-0.17824,-0.092223,0.28733
-0.010361,-0.067782,-0.044971,-0.0056571,0.0012878,0.17124,0.036863,0.1231,-0.020331,-0.11378,-0.032579,-0.10504,-0.03615,-0.12488,-0.035531,-0.24475,0.040603,-0.36967,0.13264,-0.17075,-0.03707,-0.13566,-0.088557,0.32021
-0.0098231,-0.084709,-0.047731,-0.012161,-0.010642,0.17211,0.038674,0.14041,-0.019727,-0.10943,-0.02927,-0.11933,-0.034554,-0.14771,-0.040947,-0.27442,0.035237,-0.32566,0.13191,-0.13678,-0.059374,-0.09157,-0.084364,0.38666
-0.0096293,-0.093192,-0.047569,-0.016005,-0.021822,0.16787,0.04065,0.15302,-0.017525,-0.090997,-0.019456,-0.12091,-0.031503,-0.16471,-0.049663,-0.29109,0.031135,-0.3024,0.12437,-0.11899,-0.081289,-0.053849,-0.081248,0.48699
-0.010344,-0.091671,-0.045311,-0.017086,-0.029067,0.14853,0.039874,0.14922,-0.015126,-0.067297,-0.0073993,-0.11237,-0.026716,-0.17474,-0.062531,-0.29182,0.026539,-0.30355,0.1145,-0.12415,-0.10233,-0.020412,-0.079805,0.61043
-0.012239,-0.085368,-0.043668,-0.017101,-0.029564,0.10041,0.035043,0.12033,-0.01422,-0.050601,0.002387,-0.10158,-0.019762,-0.17781,-0.076001,-0.28052,0.019045,-0.31596,0.10783,-0.14663,-0.12253,0.016325,-0.079624,0.74288
-0.015137,-0.08224,-0.044785,-0.018285,-0.02449,0.014221,0.02637,0.067177,-0.015433,-0.04765,0.008371,-0.09524,-0.010314,-0.17589,-0.08478,-0.26641,0.0078537,-0.31892,0.10655,-0.17062,-0.14326,0.060832,-0.080094,0.87481
-0.018379,-0.087456,-0.048349,-0.021756,-0.019429,-0.10542,0.014891,0.0010291,-0.017697,-0.05528,0.012381,-0.094392,0.0014337,-0.17295,-0.086021,-0.25944,-0.0051946,-0.29858,0.10764,-0.17946,-0.16687,0.1106,-0.081164,1.0035
-0.02095,-0.10021,-0.051902,-0.026786,-0.020466,-0.23684,0.0021359,-0.062299,-0.018969,-0.063723,0.017158,-0.095322,0.014377,-0.17308,-0.081562,-0.26559,-0.016801,-0.25691,0.10528,-0.16643,-0.19461,0.16083,-0.083249,1.129
-0.021799,-0.11468,-0.053,-0.031623,-0.029141,-0.34876,-0.0097536,-0.1103,-0.017821,-0.064544,0.023494,-0.094194,0.02651,-0.17801,-0.076487,-0.28498,-0.024626,-0.20865,0.095272,-0.13928,-0.22485,0.2127,-0.086394,1.2471
-0.020356,-0.12389,-0.051163,-0.035143,-0.040936,-0.41527,-0.018224,-0.13815,-0.014623,-0.056809,0.029486,-0.091041,0.035597,-0.18609,-0.075322,-0.31316,-0.02889,-0.1685,0.078069,-0.11458,-0.25386,0.27661,-0.0897,1.3446
-0.017011,-0.12382,-0.04791,-0.037754,-0.048836,-0.42869,-0.021345,-0.1478,-0.011273,-0.046828,0.032431,-0.089659,0.040299,-0.19427,-0.078989,-0.34408,-0.031817,-0.13894,0.058078,-0.10594,-0.27923,0.36568,-0.091904,1.3996
-0.013183,-0.11534,-0.045098,-0.040669,-0.048754,-0.40127,-0.019172,-0.14479,-0.0096025,-0.042108,0.031573,-0.093768,0.041026,-0.20125,-0.08475,-0.37257,-0.035425,-0.10862,0.04047,-0.11473,-0.30322,0.48407,-0.092868,1.3869
-0.010661,-0.10313,-0.043343,-0.044276,-0.041964,-0.35431,-0.01421,-0.13602,-0.0097306,-0.044658,0.029255,-0.10298,0.039784,-0.2088,-0.088823,-0.39522,-0.039541,-0.06258,0.028262,-0.13037,-0.33275,0.61936,-0.094548,1.2871
-0.01043,-0.092671,-0.042008,-0.04733,-0.032688,-0.30285,-0.01032,-0.1292,-0.0097941,-0.049076,0.029461,-0.11202,0.038992,-0.21941,-0.089305,-0.40995,-0.041693,0.0044881,0.021556,-0.13933,-0.37514,0.74555,-0.10012,1.0966
-0.011815,-0.087128,-0.04048,-0.047938,-0.023683,-0.24781,-0.010831,-0.13158,-0.0073914,-0.046721,0.034921,-0.11388,0.040115,-0.23177,-0.087028,-0.41512,-0.038997,0.083,0.018472,-0.13551,-0.43192,0.83581,-0.11143,0.83547
-0.012782,-0.08582,-0.039184,-0.045462,-0.014325,-0.18103,-0.01731,-0.14702,-0.0016657,-0.032367,0.045095,-0.10431,0.043147,-0.23865,-0.083944,-0.40904,-0.030616,0.15571,0.016154,-0.12393,-0.49479,0.87697,-0.12652,0.54774
-0.011456,-0.085364,-0.039249,-0.041398,-0.0027642,-0.098179,-0.029726,-0.17395,0.0056817,-0.0079465,0.056645,-0.084439,0.04728,-0.23012,-0.080741,-0.39013,-0.018913,0.21115,0.011091,-0.11564,-0.54625,0.87694,-0.1396,0.29219
-0.0078093,-0.082714,-0.0413,-0.038213,0.010633,-0.0078169,-0.047309,-0.20777,0.01139,0.019277,0.065937,-0.059857,0.05198,-0.20064,-0.075939,-0.35803,-0.0083761,0.25182,-0.00045693,-0.11863,-0.56524,0.86025,-0.14377,0.12171
-0.0040821,-0.077972,-0.04479,-0.037237,0.022538,0.07139,-0.068938,-0.24783,0.012989,0.042023,0.071531,-0.037174,0.057361,-0.1546,-0.067326,-0.3148,-0.0029793,0.28996,-0.020954,-0.13243,-0.53546,0.85361,-0.13478,0.059246
-0.0033849,-0.074675,-0.048588,-0.037798,0.029609,0.12266,-0.092813,-0.30326,0.010681,0.057237,0.074616,-0.020605,0.063501,-0.10494,-0.054423,-0.26547,-0.0037629,0.33444,-0.0495,-0.15005,-0.45305,0.86962,-0.11315,0.082425
-0.0074197,-0.077006,-0.052108,-0.038617,0.032068,0.14159,-0.11633,-0.3905,0.0072575,0.06625,0.077198,-0.010522,0.069544,-0.065114,-0.039726,-0.21687,-0.0083279,0.38007,-0.080986,-0.16451,-0.32968,0.89852,-0.083011,0.12899
-0.015093,-0.085886,-0.055664,-0.040001,0.033966,0.13612,-0.13694,-0.52139,0.0060672,0.071838,0.079799,-0.0043398,0.073811,-0.04035,-0.027465,-0.17489,-0.012644,0.40903,-0.10788,-0.17355,-0.1886,0.91433,-0.049031,0.125
-0.023141,-0.097177,-0.059565,-0.044206,0.039452,0.11618,-0.15331,-0.68933,0.0086036,0.075537,0.080904,0.0013092,0.075093,-0.025451,-0.020789,-0.14166,-0.013898,0.4045,-0.12385,-0.17848,-0.054818,0.89249,-0.013928,0.023145
-0.028279,-0.1038,-0.062898,-0.052989,0.048355,0.082878,-0.16538,-0.86537,0.013528,0.077513,0.078766,0.0085798,0.073983,-0.011086,-0.01963,-0.11472,-0.012264,0.36576,-0.12676,-0.17921,0.055721,0.82755,0.021543,-0.17106
-0.02916,-0.10038,-0.063394,-0.064392,0.055337,0.027199,-0.17263,-1.0094,0.017768,0.078163,0.073815,0.017529,0.072739,0.0067704,-0.020925,-0.089152,-0.010208,0.31207,-0.11879,-0.17121,0.14105,0.73766,0.056747,-0.40254
-0.026727,-0.086944,-0.058808,-0.072294,0.05376,-0.059658,-0.17227,-1.0902,0.018736,0.07894,0.069106,0.026533,0.073459,0.022379,-0.020932,-0.061275,-0.0099016,0.27123,-0.10409,-0.14844,0.209,0.65182,0.089611,-0.59862
-0.022961,-0.068659,-0.048832,-0.070244,0.04126,-0.17259,-0.15947,-1.0995,0.015984,0.08119,0.067944,0.033558,0.076077,0.02441,-0.017767,-0.031514,-0.010983,0.26052,-0.086068,-0.11034,0.26709,0.58936,0.11693,-0.70911
-0.019321,-0.052217,-0.03594,-0.057026,0.022483,-0.28733,-0.13048,-1.0519,0.011198,0.084411,0.070601,0.037523,0.078079,0.004808,-0.012315,-0.0042496,-0.01076,0.27422,-0.066714,-0.066381,0.31472,0.54838,0.13611,-0.72825
-0.016206,-0.041675,-0.024365,-0.039109,0.0067047,-0.36957,-0.086593,-0.97138,0.0067754,0.086227,0.073304,0.038966,0.076446,-0.035407,-0.0070415,0.015097,-0.0068505,0.28691,-0.047869,-0.033106,0.34382,0.51254,0.14654,-0.6858
-0.01357,-0.036853,-0.017781,-0.027035,0.0019794,-0.39358,-0.035374,-0.87812,0.0041882,0.08459,0.070922,0.03968,0.070307,-0.087759,-0.0038609,0.023572,7.0309e-005,0.27,-0.03266,-0.024785,0.3471,0.46996,0.1494,-0.61764
-0.011692,-0.034746,-0.017167,-0.027794,0.0099571,-0.35779,0.012132,-0.784,0.0033194,0.080185,0.061389,0.0416,0.062015,-0.14268,-0.0027103,0.022425,0.0060938,0.20939,-0.025063,-0.04423,0.32627,0.42663,0.14631,-0.54073
-0.0111,-0.032055,-0.020173,-0.039099,0.024788,-0.28591,0.046604,-0.69767,0.003078,0.076565,0.048016,0.04576,0.055656,-0.19405,-0.0018529,0.016265,0.0069689,0.11275,-0.027653,-0.080863,0.29274,0.40141,0.13836,-0.4508
-0.011755,-0.026753,-0.022387,-0.050555,0.036645,-0.21189,0.064393,-0.62906,0.0025932,0.0776,0.037418,0.051971,0.054101,-0.23825,0.00043268,0.010767,0.0016802,0.0024136,-0.03952,-0.11769,0.26012,0.40656,0.12646,-0.34048
-0.01253,-0.018276,-0.019875,-0.051324,0.037451,-0.15804,0.067871,-0.58617,0.0019191,0.084369,0.034527,0.059225,0.056875,-0.27004,0.0041691,0.01078,-0.0064818,-0.099423,-0.056394,-0.14219,0.23515,0.4316,0.11241,-0.21825
-0.011837,-0.0073016,-0.011602,-0.038462,0.025279,-0.12061,0.062836,-0.5662,0.0017038,0.0941,0.038801,0.066294,0.060426,-0.2811,0.0074709,0.019773,-0.012384,-0.18325,-0.073097,-0.15344,0.21476,0.44602,0.099134,-0.10972
-0.0090039,0.0042533,-0.00024529,-0.019219,0.0049653,-0.072552,0.055577,-0.55095,0.0022358,0.10195,0.044756,0.072067,0.060497,-0.26379,0.0081897,0.04012,-0.012878,-0.25493,-0.086359,-0.16083,0.19122,0.42009,0.089609,-0.040345
-0.0050787,0.013607,0.0093849,-0.0053295,-0.015125,0.01795,0.051461,-0.51429,0.0028443,0.10403,0.046265,0.075672,0.054887,-0.21731,0.0061991,0.073071,-0.0086366,-0.32837,-0.095789,-0.1758,0.16021,0.3465,0.085106,-0.016245
-0.002157,0.018632,0.013591,-0.0038298,-0.027984,0.16497,0.054668,-0.43847,0.0022896,0.099512,0.041024,0.076728,0.044764,-0.15017,0.0042699,0.11788,-0.0026335,-0.41375,-0.1025,-0.20287,0.12462,0.24481,0.08446,-0.020863
-0.0017118,0.019885,0.012526,-0.011777,-0.031455,0.35265,0.067521,-0.32785,-0.00017442,0.090614,0.031715,0.075709,0.033821,-0.076315,0.0063875,0.17084,0.0029407,-0.50928,-0.10701,-0.23595,0.091592,0.14537,0.085047,-0.030419
-0.0034206,0.021173,0.010201,-0.018998,-0.028423,0.54092,0.08899,-0.2089,-0.004062,0.080986,0.023416,0.073955,0.025926,-0.0076611,0.014545,0.22544,0.008241,-0.60126,-0.10843,-0.26195,0.066429,0.066958,0.084613,-0.033683
-0.0055288,0.02729,0.011406,-0.01638,-0.024061,0.6848,0.11393,-0.11581,-0.0079504,0.07385,0.019815,0.072998,0.022749,0.051005,0.026671,0.27429,0.014507,-0.67253,-0.10567,-0.26882,0.049206,0.0067004,0.082308,-0.038399
-0.0063379,0.040174,0.017828,-0.0028618,-0.022412,0.75471,0.13499,-0.071908,-0.010534,0.070779,0.02126,0.07355,0.022792,0.10122,0.03773,0.31179,0.021586,-0.71347,-0.099261,-0.25234,0.036507,-0.05077,0.078236,-0.059482
-0.0054006,0.056699,0.026635,0.01434,-0.024596,0.7456,0.14684,-0.079166,-0.011445,0.071421,0.025575,0.075052,0.022418,0.14594,0.043357,0.33593,0.026974,-0.72828,-0.091919,-0.2178,0.025622,-0.11498,0.072391,-0.10067
-0.0034369,0.070429,0.03292,0.02592,-0.029259,0.67176,0.14989,-0.12145,-0.011109,0.074056,0.030211,0.076295,0.018296,0.1853,0.043084,0.34794,0.027464,-0.73179,-0.087161,-0.1763,0.016767,-0.17892,0.064458,-0.14646
-0.0013354,0.076339,0.033969,0.027668,-0.033995,0.55458,0.15011,-0.17675,-0.0099208,0.076783,0.033716,0.076632,0.0097181,0.21669,0.040386,0.35049,0.02185,-0.73915,-0.08709,-0.13907,0.011591,-0.22486,0.054743,-0.17102
0.00056182,0.074662,0.031525,0.02291,-0.03623,0.41383,0.15469,-0.22845,-0.0077036,0.078831,0.035771,0.076683,-0.00082067,0.23823,0.039577,0.34606,0.012147,-0.75595,-0.091272,-0.11351,0.0102,-0.24033,0.044934,-0.15569
0.0022189,0.070605,0.029981,0.018854,-0.033335,0.26739,0.16643,-0.26883,-0.0040876,0.081193,0.036539,0.077938,-0.0093495,0.25226,0.042358,0.33688,0.0022548,-0.77595,-0.097509,-0.10268,0.010024,-0.22981,0.037302,-0.099566
0.0032554,0.070069,0.032205,0.020461,-0.023036,0.13503,0.18163,-0.29522,0.00055927,0.085884,0.03634,0.081634,-0.013344,0.26535,0.046999,0.32579,-0.0047331,-0.78758,-0.10358,-0.10643,0.0074897,-0.21222,0.032681,-0.015378
0.0029307,0.074937,0.036967,0.026982,-0.0048324,0.037898,0.1927,-0.30505,0.0047075,0.094056,0.035728,0.087852,-0.013728,0.2845,0.050569,0.31631,-0.0083698,-0.78313,-0.10822,-0.12223,0.00037697,-0.20726,0.029307,0.084201
0.0010044,0.081755,0.040311,0.033515,0.018522,-0.009202,0.19362,-0.29503,0.0063968,0.10434,0.035379,0.095339,-0.014368,0.31206,0.051808,0.31107,-0.010598,-0.76304,-0.11071,-0.14475,-0.011701,-0.22302,0.024166,0.19659
-0.0014949,0.084694,0.039347,0.035641,0.041382,-0.0071107,0.18369,-0.26511,0.0046724,0.11289,0.035465,0.10187,-0.01935,0.34319,0.051886,0.30951,-0.013916,-0.73291,-0.10985,-0.16622,-0.028844,-0.2548,0.016005,0.32683
-0.0027208,0.08024,0.03467,0.033009,0.058095,0.025807,0.16694,-0.22269,0.00052142,0.11552,0.035105,0.10485,-0.030073,0.36794,0.052569,0.30755,-0.019462,-0.69757,-0.10412,-0.17913,-0.052087,-0.29433,0.0070612,0.47532
-0.0015973,0.069899,0.029175,0.029118,0.066596,0.062491,0.14856,-0.18259,-0.0035747,0.11019,0.032703,0.10207,-0.044338,0.3772,0.053886,0.30012,-0.026257,-0.65931,-0.093189,-0.18072,-0.082144,-0.33893,0.0013975,0.62709
0.00091838,0.059046,0.024872,0.027938,0.069689,0.080569,0.13151,-0.16198,-0.005235,0.098076,0.027218,0.092893,-0.058006,0.36869,0.053708,0.28516,-0.031924,-0.62204,-0.079581,-0.17569,-0.11634,-0.39096,0.00098302,0.75262
0.0023407,0.053107,0.021186,0.030557,0.072648,0.070443,0.11615,-0.1734,-0.0037464,0.08239,0.019306,0.079244,-0.067823,0.34852,0.049594,0.26542,-0.034336,-0.5964,-0.068523,-0.17413,-0.14692,-0.4474,0.0032763,0.82064
0.00077911,0.054041,0.016481,0.034695,0.078984,0.03371,0.10227,-0.21981,-0.00044172,0.066329,0.011152,0.065471,-0.07325,0.32662,0.040956,0.2462,-0.03321,-0.59882,-0.065401,-0.18566,-0.16332,-0.49024,0.0030484,0.81406
-0.0031534,0.059512,0.010835,0.037309,0.087972,-0.023546,0.090866,-0.29347,0.0023459,0.052098,0.0049647,0.056473,-0.076204,0.30887,0.029483,0.23063,-0.030596,-0.64307,-0.072561,-0.21385,-0.15766,-0.4891,-0.0027958,0.73815
-0.0065382,0.064971,0.0067058,0.037773,0.095965,-0.094762,0.083843,-0.37773,0.0029287,0.041491,0.0013525,0.054895,-0.079294,0.29186,0.0176,0.2163,-0.029706,-0.73004,-0.087979,-0.25533,-0.12964,-0.41757,-0.011853,0.61633
-0.0065514,0.066861,0.0064435,0.038605,0.10002,-0.17154,0.08187,-0.45109,0.0012811,0.036611,-0.00098169,0.059412,-0.084024,0.26511,0.0067015,0.19666,-0.032598,-0.84485,-0.10686,-0.30367,-0.086974,-0.2727,-0.017827,0.47793
-0.0030988,0.064635,0.0092233,0.042916,0.10026,-0.24185,0.082951,-0.49331,-0.0012808,0.039114,-0.0040342,0.065693,-0.089985,0.21977,-0.0030916,0.16613,-0.038284,-0.96426,-0.12481,-0.35397,-0.041045,-0.082149,-0.016064,0.34678
0.00069263,0.060391,0.010954,0.050818,0.098777,-0.29386,0.083274,-0.49327,-0.0034406,0.048286,-0.0089564,0.06957,-0.095064,0.15751,-0.011606,0.12526,-0.042908,-1.0691,-0.13996,-0.40386,-0.00087768,0.10785,-0.0080274,0.23717
0.00078336,0.056787,0.0078038,0.058244,0.096268,-0.32481,0.079764,-0.45503,-0.0051349,0.060101,-0.015556,0.07005,-0.096176,0.092319,-0.017288,0.081813,-0.042228,-1.1519,-0.15272,-0.4506,0.030286,0.2565,-0.00035779,0.15729
-0.0044327,0.055071,0.00014868,0.059705,0.090062,-0.34641,0.072131,-0.39718,-0.007636,0.068989,-0.023063,0.069782,-0.09033,0.042944,-0.017355,0.047008,-0.034704,-1.2151,-0.16385,-0.48804,0.054115,0.34835,0.00095385,0.11452
-0.012518,0.054685,-0.0070531,0.052932,0.075908,-0.3787,0.062847,-0.34326,-0.012274,0.071386,-0.031076,0.072613,-0.07603,0.021079,-0.009448,0.029504,-0.022716,-1.2609,-0.1731,-0.50732,0.073641,0.39637,-0.0039319,0.11666
-0.018559,0.054366,-0.0081993,0.041354,0.052342,-0.43406,0.055374,-0.30803,-0.018765,0.068006,-0.039536,0.080203,-0.054704,0.023889,0.0065644,0.030977,-0.010801,-1.2831,-0.17932,-0.50178,0.09025,0.428,-0.0086829,0.16738
-0.018754,0.053286,-0.0018805,0.031922,0.023804,-0.50341,0.052296,-0.28896,-0.024609,0.062506,-0.047731,0.090303,-0.031132,0.036503,0.027988,0.045701,-0.002278,-1.2678,-0.18165,-0.47183,0.10318,0.46568,-0.0064477,0.25956
-0.013142,0.05102,0.0078059,0.029817,-0.00056137,-0.5577,0.05449,-0.26964,-0.026309,0.057461,-0.053512,0.097833,-0.011901,0.0427,0.050242,0.063939,0.0029106,-1.2012,-0.18008,-0.4259,0.11099,0.51503,0.0039239,0.3728
-0.0053182,0.046644,0.014709,0.034458,-0.011881,-0.56604,0.061201,-0.23286,-0.021655,0.051243,-0.053812,0.097741,-0.0021689,0.035988,0.068614,0.076967,0.0073952,-1.0798,-0.1752,-0.37633,0.11319,0.56652,0.016815,0.47864
0.00053805,0.038603,0.015751,0.040268,-0.006602,-0.51763,0.070288,-0.17286,-0.011285,0.038846,-0.046286,0.087572,-0.0026422,0.023182,0.079904,0.08105,0.01345,-0.91432,-0.16776,-0.33414,0.11049,0.60605,0.024917,0.55168
0.0027358,0.026303,0.013203,0.041553,0.012086,-0.43009,0.078542,-0.097666,0.0018084,0.016235,-0.030817,0.068324,-0.0091266,0.018262,0.083362,0.078362,0.020633,-0.72465,-0.159,-0.30656,0.1041,0.62469,0.025743,0.57958
0.0027329,0.012217,0.012278,0.037216,0.037032,-0.33689,0.082649,-0.02071,0.014412,-0.015451,-0.009729,0.043526,-0.015364,0.031329,0.080775,0.074484,0.026029,-0.53124,-0.15148,-0.29866,0.094973,0.6211,0.02357,0.56551
0.0030728,0.0018341,0.01644,0.031226,0.061356,-0.26334,0.080952,0.049611,0.024989,-0.049547,0.013238,0.017463,-0.017315,0.060762,0.075668,0.074026,0.026694,-0.34787,-0.14911,-0.31605,0.083882,0.59707,0.025087,0.52145
0.0046946,0.00015906,0.024606,0.028583,0.080693,-0.21027,0.074921,0.11369,0.033752,-0.077827,0.034276,-0.0064705,-0.015641,0.094046,0.071781,0.077246,0.021968,-0.18106,-0.15557,-0.36483,0.071855,0.55201,0.032843,0.45746
0.0061041,0.0069425,0.032405,0.030546,0.092407,-0.15783,0.068753,0.17609,0.041094,-0.095545,0.050401,-0.026635,-0.014428,0.11638,0.071337,0.080117,0.01363,-0.034297,-0.17207,-0.4472,0.060171,0.48206,0.042543,0.37506
0.0050124,0.015096,0.035921,0.033438,0.093725,-0.085304,0.066704,0.23903,0.046183,-0.10346,0.059932,-0.042938,-0.017222,0.12072,0.074013,0.077992,0.0040566,0.087532,-0.19601,-0.55587,0.04975,0.38445,0.046644,0.26928
0.00073826,0.014873,0.03443,0.032009,0.081638,0.0098532,0.069803,0.30078,0.047246,-0.1054,0.06287,-0.05568,-0.02377,0.11219,0.07733,0.070123,-0.0056669,0.17788,-0.22176,-0.67224,0.040638,0.26327,0.040955,0.13747
-0.0048856,0.001405,0.03009,0.024206,0.055268,0.10884,0.074499,0.35982,0.043269,-0.1039,0.061003,-0.064208,-0.030255,0.10396,0.078376,0.061292,-0.015859,0.23288,-0.24288,-0.77131,0.032362,0.13137,0.028359,-0.012367
-0.0087909,-0.020527,0.025591,0.01307,0.018604,0.18523,0.074456,0.41881,0.035317,-0.097861,0.057107,-0.066617,-0.032757,0.1079,0.075763,0.058794,-0.026675,0.25667,-0.25413,-0.83169,0.024953,0.0061941,0.01652,-0.16061
-0.0088073,-0.039075,0.022395,0.004242,-0.019409,0.22317,0.064283,0.48304,0.026057,-0.084583,0.053182,-0.061218,-0.030794,0.12671,0.070446,0.066757,-0.036627,0.26292,-0.25247,-0.84484,0.019473,-0.098048,0.01174,-0.2837
-0.0048125,-0.043813,0.020991,0.0014653,-0.048355,0.22593,0.042575,0.5543,0.017922,-0.063992,0.048916,-0.048968,-0.027768,0.15278,0.064858,0.082283,-0.042874,0.27057,-0.2374,-0.81767,0.017153,-0.17677,0.014255,-0.36554
0.0016901,-0.033438,0.022122,0.0040156,-0.061241,0.21051,0.012368,0.62665,0.011671,-0.041114,0.041964,-0.034659,-0.027987,0.17403,0.061127,0.096812,-0.043166,0.29612,-0.21113,-0.76673,0.017657,-0.236,0.018651,-0.40518
0.0086822,-0.016362,0.026928,0.0079319,-0.057422,0.19523,-0.020835,0.68894,0.0066047,-0.023847,0.030301,-0.025051,-0.033023,0.18208,0.059832,0.10208,-0.03768,0.34762,-0.17853,-0.70788,0.018214,-0.28769,0.018575,-0.4161
0.014364,-0.0038321,0.035443,0.0095071,-0.041844,0.19071,-0.051724,0.73256,0.0019525,-0.01731,0.014829,-0.024558,-0.040638,0.17699,0.060192,0.096254,-0.029002,0.42378,-0.14597,-0.64811,0.014885,-0.34271,0.011586,-0.41803
0.017411,-0.0014314,0.045165,0.0078999,-0.021745,0.1987,-0.07684,0.75711,-0.0021538,-0.019374,-0.00032017,-0.031643,-0.04698,0.16611,0.061202,0.08545,-0.020203,0.51746,-0.11885,-0.58436,0.0053627,-0.40604,0.0004463,-0.42677
0.017347,-0.0058558,0.051819,0.005034,-0.0034234,0.21606,-0.094615,0.76911,-0.0050516,-0.021571,-0.010448,-0.03928,-0.049702,0.15848,0.06241,0.079261,-0.012708,0.61908,-0.099293,-0.50912,-0.0088539,-0.47621,-0.0095239,-0.44798
0.015141,-0.0090667,0.052351,0.0035014,0.0092592,0.23877,-0.10439,0.77536,-0.0066354,-0.015496,-0.01383,-0.039886,-0.048987,0.15918,0.063551,0.083661,-0.0057779,0.71716,-0.085744,-0.41788,-0.022811,-0.54794,-0.014383,-0.47782
0.013221,-0.005697,0.047623,0.0045331,0.014962,0.26403,-0.10553,0.77752,-0.0077731,-0.00011078,-0.012966,-0.031329,-0.045818,0.167,0.063645,0.096683,0.0020811,0.79768,-0.075221,-0.31313,-0.030841,-0.61481,-0.01376,-0.50882
0.014162,0.0026501,0.042062,0.0074259,0.014606,0.29167,-0.097467,0.77273,-0.0095014,0.015929,-0.012361,-0.019274,-0.039645,0.17611,0.060942,0.11012,0.011218,0.84691,-0.066318,-0.20292,-0.029672,-0.67046,-0.010188,-0.53608
0.018657,0.0093636,0.040151,0.010293,0.011078,0.32521,-0.08088,0.75867,-0.011898,0.019416,-0.014896,-0.013771,-0.028182,0.18008,0.05432,0.11578,0.020191,0.85898,-0.060368,-0.096282,-0.019747,-0.7088,-0.0067469,-0.55986
0.024517,0.0087763,0.042698,0.011214,0.0082117,0.37109,-0.059108,0.73721,-0.013961,0.0019205,-0.020083,-0.022473,-0.0097835,0.17588,0.045033,0.1113,0.026835,0.84266,-0.059682,0.00045584,-0.0041725,-0.72572,-0.0049537,-0.5833
0.027943,0.00089228,0.046215,0.0091507,0.0087896,0.43441,-0.038352,0.7129,-0.014729,-0.033529,-0.025594,-0.045557,0.013938,0.16565,0.036917,0.10133,0.02993,0.81926,-0.064434,0.08404,0.013432,-0.7225,-0.0041103,-0.60826
0.02634,-0.0086959,0.046052,0.0045239,0.012706,0.5135,-0.025659,0.68816,-0.014469,-0.073638,-0.030185,-0.075929,0.038096,0.15558,0.034253,0.09368,0.029951,0.80908,-0.071048,0.15239,0.030449,-0.70842,-0.002072,-0.63309
0.02039,-0.013028,0.040501,-0.00059269,0.017086,0.59794,-0.025265,0.66061,-0.014577,-0.10332,-0.034899,-0.10412,0.057587,0.15262,0.038678,0.094029,0.028389,0.81491,-0.073663,0.20303,0.045348,-0.69874,0.0033085,-0.65397
0.013644,-0.0083886,0.03224,-0.0029891,0.018759,0.67302,-0.035639,0.62572,-0.016178,-0.11533,-0.041371,-0.12385,0.070734,0.16077,0.04776,0.10348,0.026403,0.81649,-0.067607,0.23373,0.056931,-0.70688,0.012872,-0.6682
0.0099854,0.0040558,0.025895,0.00023967,0.017186,0.72762,-0.049806,0.58205,-0.018881,-0.11411,-0.049152,-0.1344,0.080316,0.17908,0.056652,0.12001,0.02406,0.78307,-0.052187,0.24462,0.063916,-0.73471,0.025557,-0.67599
0.011052,0.020012,0.023954,0.0098407,0.015146,0.7582,-0.059528,0.53356,-0.021078,-0.11131,-0.055016,-0.13897,0.090991,0.20257,0.061667,0.14139,0.020715,0.69665,-0.030756,0.24016,0.065464,-0.76813,0.038788,-0.67919
0.015444,0.03504,0.024616,0.023366,0.016334,0.76474,-0.060883,0.48566,-0.02158,-0.1168,-0.055241,-0.14152,0.10522,0.22519,0.062849,0.16637,0.016085,0.56844,-0.0081875,0.22921,0.062189,-0.78282,0.049674,-0.67889
0.019913,0.04636,0.023397,0.036013,0.021955,0.74226,-0.057287,0.43847,-0.020906,-0.13191,-0.048807,-0.14475,0.12101,0.24289,0.063441,0.19328,0.011005,0.43523,0.012296,0.22323,0.056543,-0.75862,0.056351,-0.67483
0.021276,0.052876,0.017061,0.04318,0.029536,0.67725,-0.057475,0.38405,-0.020739,-0.14959,-0.038518,-0.15017,0.13315,0.25492,0.066812,0.21862,0.0071672,0.33778,0.030797,0.23315,0.05186,-0.69372,0.058607,-0.66761
0.017843,0.054479,0.0065462,0.04319,0.035071,0.55545,-0.069663,0.31163,-0.022,-0.16032,-0.028959,-0.15842,0.13675,0.26324,0.073544,0.23815,0.0059724,0.29749,0.050091,0.26589,0.050435,-0.6087,0.057441,-0.6608
0.0099852,0.051766,-0.0034631,0.038226,0.036309,0.37651,-0.095939,0.21739,-0.023506,-0.15877,-0.023127,-0.16874,0.13016,0.27094,0.08105,0.25021,0.0073477,0.30808,0.073382,0.3214,0.05207,-0.53659,0.054029,-0.6598
5.325e-005,0.046159,-0.0079012,0.032677,0.033709,0.16327,-0.13082,0.11024,-0.022746,-0.14654,-0.020648,-0.1781,0.11527,0.28064,0.085774,0.25793,0.0094958,0.34593,0.10203,0.39203,0.054432,-0.50452,0.049038,-0.66794
-0.0083033,0.039603,-0.0049245,0.030019,0.028007,-0.044467,-0.16469,0.0074206,-0.018186,-0.12989,-0.018907,-0.18213,0.095263,0.29323,0.085782,0.26718,0.0099324,0.3885,0.13454,0.4651,0.05523,-0.51898,0.042836,-0.68403
-0.011603,0.033491,0.0029309,0.030477,0.01717,-0.20965,-0.18925,-0.077113,-0.010898,-0.11538,-0.015792,-0.17842,0.072074,0.30689,0.081575,0.28122,0.0071789,0.4254,0.16726,0.52841,0.054626,-0.56372,0.03621,-0.70506
-0.0084721,0.027584,0.01068,0.031173,-0.0030963,-0.31699,-0.20109,-0.14167,-0.0038901,-0.10692,-0.011506,-0.16991,0.045471,0.31712,0.074869,0.29674,0.0018581,0.45592,0.19606,0.57588,0.055783,-0.61067,0.030708,-0.73214
-0.00088799,0.020076,0.014229,0.028502,-0.034275,-0.37664,-0.20113,-0.19501,0.00023132,-0.10551,-0.0080292,-0.16442,0.014458,0.31875,0.067036,0.30562,-0.0037445,0.47959,0.21812,0.6099,0.062846,-0.63543,0.028092,-0.77319
0.0065367,0.0091449,0.012644,0.020859,-0.069457,-0.41002,-0.19144,-0.24509,0.0010194,-0.11048,-0.0070134,-0.16961,-0.020307,0.30961,0.058847,0.30172,-0.0074414,0.49131,0.23272,0.63896,0.077757,-0.62778,0.029324,-0.83765
0.0092701,-0.0050115,0.008037,0.009686,-0.093363,-0.42965,-0.17251,-0.28888,-0.00017053,-0.12034,-0.0081523,-0.18659,-0.055101,0.29348,0.051381,0.28722,-0.008901,0.48595,0.24086,0.67232,0.098467,-0.5925,0.033962,-0.92631
0.0058738,-0.019271,0.0036389,-0.0016835,-0.090285,-0.43002,-0.14361,-0.31314,-0.0019756,-0.13284,-0.0094546,-0.20798,-0.084072,0.27896,0.046489,0.27225,-0.0099636,0.46696,0.24418,0.7154,0.12003,-0.54312,0.040503,-1.0248
-0.00097429,-0.028747,0.0017901,-0.010238,-0.055269,-0.39657,-0.10579,-0.30633,-0.0041859,-0.14495,-0.0090564,-0.22287,-0.10214,0.27374,0.045657,0.26738,-0.013163,0.44839,0.24408,0.7683,0.1377,-0.49359,0.047335,-1.107
-0.0063878,-0.029514,0.0031351,-0.014785,0.00016142,-0.32477,-0.064786,-0.27161,-0.0070755,-0.15357,-0.0069117,-0.22503,-0.10798,0.2775,0.048109,0.27445,-0.019542,0.44684,0.24167,0.82774,0.1495,-0.45188,0.053475,-1.1473
-0.0067425,-0.021198,0.0070361,-0.015845,0.053232,-0.23261,-0.030828,-0.22918,-0.0098702,-0.15681,-0.0048678,-0.21756,-0.10486,0.2791,0.050293,0.28339,-0.02745,0.46962,0.2383,0.89005,0.15647,-0.41693,0.058539,-1.1306
-0.0020704,-0.0076589,0.012317,-0.014427,0.083172,-0.15552,-0.014764,-0.20499,-0.010383,-0.15461,-0.0050027,-0.20974,-0.098697,0.26149,0.047912,0.27815,-0.033266,0.50998,0.23588,0.95324,0.16082,-0.38019,0.0621,-1.0559
0.0043532,0.0049738,0.017616,-0.010938,0.08295,-0.12679,-0.022598,-0.214,-0.0066287,-0.14813,-0.0075359,-0.20858,-0.094479,0.2118,0.039177,0.24754,-0.033517,0.55397,0.23631,1.0173,0.16398,-0.332,0.063199,-0.93132
0.0086525,0.011883,0.021419,-0.0050975,0.061022,-0.15776,-0.051912,-0.24981,0.0010424,-0.1385,-0.010054,-0.21261,-0.093588,0.12995,0.026534,0.19243,-0.026892,0.59243,0.23985,1.0831,0.16628,-0.27062,0.060578,-0.76963
0.0089814,0.01255,0.02232,0.0032728,0.032632,-0.23112,-0.092393,-0.28688,0.0095743,-0.12605,-0.0089022,-0.21306,-0.093767,0.029406,0.015187,0.1238,-0.014873,0.62696,0.24396,1.1511,0.16798,-0.20775,0.053576,-0.58666
0.0062176,0.010995,0.019667,0.013332,0.0083557,-0.31067,-0.13011,-0.29261,0.015334,-0.11064,-0.0019652,-0.20164,-0.091487,-0.070737,0.0095782,0.052701,-0.00082082,0.66473,0.24372,1.2199,0.17015,-0.16459,0.042948,-0.40259
0.0026263,0.01282,0.014093,0.022949,-0.011159,-0.35981,-0.15316,-0.24126,0.016943,-0.092533,0.0091795,-0.17774,-0.084745,-0.15679,0.010661,-0.020065,0.011675,0.70763,0.23459,1.2862,0.17414,-0.1583,0.030747,-0.23993
-2.6126e-005,0.020783,0.007278,0.0293,-0.031458,-0.35729,-0.15593,-0.1235,0.016176,-0.072674,0.019615,-0.1489,-0.074268,-0.22691,0.015955,-0.10594,0.020136,0.74705,0.21581,1.3446,0.18007,-0.18734,0.019114,-0.11665
-0.0013977,0.031972,0.00093219,0.030055,-0.056566,-0.30345,-0.1405,0.05023,0.016025,-0.052069,0.024155,-0.12428,-0.062542,-0.28847,0.02184,-0.21936,0.023736,0.76977,0.192,1.3892,0.18609,-0.2271,0.0087764,-0.038483
-0.0022137,0.038878,-0.0042189,0.024575,-0.084702,-0.21704,-0.11494,0.2521,0.017765,-0.031009,0.021147,-0.10714,-0.051774,-0.3486,0.02586,-0.36256,0.023152,0.76991,0.17119,1.4143,0.18933,-0.24127,-0.0014807,0.0031148
-0.0033885,0.034171,-0.0085891,0.014468,-0.1104,-0.12648,-0.08948,0.44447,0.019808,-0.0092717,0.014073,-0.093032,-0.042406,-0.40553,0.027352,-0.51572,0.020079,0.75537,0.16025,1.4158,0.18795,-0.20244,-0.013686,0.024989
-0.0054314,0.016219,-0.012907,0.0030767,-0.12958,-0.059776,-0.071908,0.5917,0.019423,0.012581,0.0092832,-0.075038,-0.033092,-0.4477,0.02662,-0.64146,0.016617,0.74197,0.16083,1.3927,0.1824,-0.10854,-0.028585,0.0424
-0.0083008,-0.0085522,-0.017152,-0.0059982,-0.14191,-0.035464,-0.064242,0.67239,0.015604,0.032,0.011201,-0.051116,-0.021849,-0.46171,0.024061,-0.70383,0.014603,0.74022,0.16905,1.3477,0.17453,0.016213,-0.044284,0.061915
-0.011445,-0.02865,-0.020169,-0.010581,-0.14855,-0.057255,-0.062422,0.68581,0.01028,0.044845,0.018636,-0.026917,-0.0074338,-0.44321,0.020138,-0.69046,0.014977,0.7468,0.17916,1.2879,0.1655,0.13612,-0.056953,0.080734
-0.013936,-0.034374,-0.020299,-0.010761,-0.14842,-0.11437,-0.059624,0.64831,0.0067064,0.047673,0.025389,-0.011503,0.0099118,-0.40173,0.015791,-0.6221,0.017464,0.74955,0.18851,1.2237,0.15442,0.22476,-0.063296,0.090965
-0.014848,-0.024024,-0.016508,-0.0083639,-0.13758,-0.18776,-0.051258,0.58208,0.0065535,0.040491,0.025061,-0.0097143,0.028679,-0.35515,0.01232,-0.54108,0.020859,0.74226,0.19974,1.167,0.13941,0.27833,-0.062831,0.084819
-0.013814,-0.0049032,-0.0091463,-0.0054798,-0.11301,-0.25857,-0.038058,0.50472,0.0084526,0.027817,0.016384,-0.017689,0.0471,-0.31782,0.01056,-0.48506,0.02387,0.73577,0.21852,1.1294,0.1201,0.31402,-0.058065,0.057967
-0.011285,0.011886,0.00024113,-0.003175,-0.076882,-0.31351,-0.024635,0.42688,0.0092869,0.016886,0.0046715,-0.025265,0.064341,-0.2914,0.010173,-0.46438,0.026014,0.75343,0.24846,1.1196,0.099287,0.35567,-0.052363,0.010968
-0.0080989,0.01914,0.0098707,-0.0012121,-0.037007,-0.34391,-0.014499,0.35779,0.0069855,0.013853,-0.0020329,-0.023154,0.081032,-0.26582,0.0099866,-0.45949,0.027894,0.81209,0.28709,1.1401,0.081598,0.41674,-0.047337,-0.050253
-0.0047007,0.017923,0.018673,0.0012586,-0.0024219,-0.34123,-0.0058984,0.31129,0.0022955,0.020422,0.0008781,-0.0090471,0.098456,-0.22922,0.0092565,-0.43974,0.030482,0.9033,0.32588,1.1853,0.069959,0.49145,-0.041997,-0.11451
-0.00087972,0.015318,0.026488,0.0047796,0.022071,-0.29492,0.0073608,0.30466,-0.0019147,0.033177,0.011079,0.011901,0.1166,-0.17885,0.0086578,-0.38831,0.033861,0.99159,0.35435,1.2411,0.062616,0.55926,-0.034351,-0.1663
0.0035627,0.017708,0.033413,0.0091319,0.037702,-0.19664,0.030333,0.34988,-0.0030245,0.046103,0.021283,0.031898,0.13248,-0.12421,0.0098427,-0.31393,0.036425,1.0343,0.36553,1.2886,0.053671,0.59847,-0.02391,-0.18757
0.0079447,0.025401,0.03902,0.013474,0.048618,-0.04829,0.061507,0.44493,-0.00060151,0.054557,0.024927,0.046199,0.14046,-0.080584,0.013694,-0.24165,0.03545,1.01,0.35931,1.3105,0.037369,0.59929,-0.012853,-0.16001
0.010818,0.03311,0.042306,0.016786,0.057127,0.13329,0.093065,0.57283,0.0035479,0.05787,0.020852,0.055156,0.13503,-0.058721,0.018792,-0.1924,0.028941,0.93512,0.34202,1.2982,0.013127,0.56755,-0.0048329,-0.068354
0.011275,0.03547,0.042542,0.018344,0.061908,0.32039,0.11749,0.70985,0.0069371,0.058726,0.013343,0.061805,0.11449,-0.058457,0.021759,-0.16859,0.017548,0.8552,0.3231,1.2559,-0.012788,0.51779,-0.0024602,0.094256
0.010171,0.032286,0.040249,0.018131,0.060649,0.48541,0.13507,0.8362,0.0080992,0.059949,0.0079833,0.067952,0.082476,-0.070107,0.019658,-0.15615,0.0049587,0.81836,0.31114,1.1997,-0.030817,0.4622,-0.0054985,0.31918
0.0096937,0.028604,0.037266,0.01704,0.054192,0.61138,0.15508,0.94126,0.0071904,0.061458,0.0071731,0.072453,0.045924,-0.080959,0.01267,-0.13813,-0.0038411,0.84911,0.31128,1.1507,-0.03482,0.40393,-0.011044,0.57779
0.011327,0.029684,0.035705,0.016622,0.047635,0.69498,0.18836,1.0211,0.0053855,0.060148,0.009023,0.072831,0.010811,-0.081402,0.0046239,-0.10658,-0.0054343,0.94036,0.32477,1.127,-0.02714,0.3387,-0.015399,0.82572
0.014119,0.03576,0.036637,0.018197,0.046647,0.74155,0.23678,1.0729,0.0038403,0.052971,0.010023,0.06821,-0.021057,-0.067376,0.0004636,-0.063656,9.8433e-005,1.0653,0.34967,1.1365,-0.018129,0.26154,-0.016316,1.0184
0.015247,0.041681,0.039623,0.021766,0.051856,0.75778,0.28857,1.0923,0.0030261,0.040583,0.0085669,0.060627,-0.051693,-0.039755,0.0023609,-0.014057,0.009664,1.1963,0.38175,1.1733,-0.020155,0.17178,-0.014304,1.1316
0.012718,0.041813,0.043355,0.025579,0.056433,0.74787,0.32452,1.0755,0.0027019,0.028116,0.0060223,0.053669,-0.083704,-0.0030248,0.0076376,0.041279,0.019676,1.3157,0.41516,1.2191,-0.040099,0.072232,-0.012471,1.1743
0.0076891,0.035529,0.046669,0.026978,0.049681,0.71462,0.3314,1.0235,0.0023153,0.021983,0.004672,0.049852,-0.11723,0.035725,0.010438,0.10365,0.028559,1.4138,0.44327,1.2499,-0.075358,-0.035217,-0.015008,1.1832
0.003962,0.027982,0.048996,0.024195,0.024438,0.66198,0.31235,0.94239,0.0015097,0.025176,0.0049209,0.049075,-0.14971,0.068351,0.0060387,0.16972,0.037172,1.4815,0.46026,1.2442,-0.11558,-0.15221,-0.025008,1.2009
0.0047975,0.025317,0.050112,0.017874,-0.01737,0.59565,0.28596,0.8409,0.00048042,0.035048,0.0046865,0.049199,-0.1782,0.088534,-0.0056013,0.22767,0.046881,1.5088,0.46293,1.1919,-0.14816,-0.28042,-0.042562,1.2515
0.0099236,0.028832,0.04985,0.011132,-0.065527,0.52182,0.27393,0.72703,-2.8326e-005,0.045494,0.0015565,0.047864,-0.20196,0.09482,-0.01987,0.26186,0.057105,1.4902,0.45171,1.0972,-0.16339,-0.41373,-0.064196,1.3296
0.015608,0.033689,0.048298,0.0079282,-0.1082,0.4462,0.28636,0.60757,0.00079818,0.051549,-0.0045425,0.043883,-0.22265,0.091358,-0.030978,0.26311,0.064721,1.4316,0.42972,0.97437,-0.15644,-0.53212,-0.084108,1.4077
0.017823,0.033549,0.046154,0.010697,-0.13935,0.37443,0.31535,0.48911,0.003098,0.052318,-0.010946,0.037352,-0.2423,0.085116,-0.035982,0.23611,0.066151,1.3481,0.40048,0.83851,-0.12676,-0.6037,-0.096703,1.4554
0.015577,0.026796,0.04444,0.018685,-0.16134,0.31174,0.34129,0.37732,0.0059026,0.049888,-0.014604,0.028984,-0.26092,0.08132,-0.036255,0.1975,0.060514,1.2563,0.3659,0.69714,-0.077384,-0.59595,-0.099016,1.4554
0.011361,0.018398,0.043497,0.028058,-0.1811,0.2601,0.34637,0.27346,0.0075784,0.045804,-0.014871,0.019646,-0.27603,0.080626,-0.035656,0.16595,0.051054,1.1672,0.32614,0.54983,-0.015372,-0.49093,-0.091705,1.4077
0.0084547,0.015409,0.04223,0.033849,-0.20369,0.21454,0.32506,0.17184,0.0070076,0.038975,-0.013963,0.010453,-0.28428,0.08036,-0.037294,0.15198,0.043331,1.0869,0.28153,0.3962,0.047938,-0.29599,-0.078253,1.323
0.0078198,0.020193,0.038777,0.03276,-0.22841,0.16329,0.28462,0.062837,0.0045477,0.027312,-0.01462,0.0029073,-0.2836,0.078809,-0.041553,0.15486,0.041326,1.0239,0.23464,0.24497,0.09925,-0.044195,-0.063192,1.2156
0.0075252,0.027735,0.032386,0.025191,-0.25016,0.094317,0.23731,-0.058916,0.0017546,0.011465,-0.017297,-0.0014757,-0.27423,0.07905,-0.046526,0.1682,0.044542,0.99107,0.1905,0.11424,0.1285,0.21553,-0.05048,1.0997
0.0050651,0.029775,0.024768,0.015104,-0.26388,0.0043102,0.19176,-0.18767,-7.3937e-005,-0.0033018,-0.019623,-0.0018636,-0.25775,0.089256,-0.049943,0.18939,0.048523,0.99578,0.15392,0.019419,0.13383,0.43329,-0.042684,0.98907
0.0001413,0.022167,0.019231,0.0075338,-0.26808,-0.097537,0.15025,-0.30815,-0.0011872,-0.0095195,-0.018504,0.0016437,-0.2356,0.1193,-0.050805,0.22556,0.04852,1.0252,0.12612,-0.042847,0.1223,0.57185,-0.040752,0.89414
-0.004798,0.0087937,0.017925,0.0052842,-0.26468,-0.19495,0.11206,-0.40524,-0.0030566,-0.0026339,-0.012681,0.0085037,-0.20827,0.17612,-0.049749,0.29208,0.043425,1.0424,0.10323,-0.10013,0.10514,0.615,-0.043946,0.81719
-0.0066676,-0.0015739,0.019626,0.0072194,-0.25663,-0.27499,0.077555,-0.47355,-0.0065106,0.015262,-0.0033469,0.018206,-0.17613,0.2606,-0.04846,0.40447,0.036751,1.0024,0.078733,-0.19039,0.090704,0.56985,-0.049822,0.74895
-0.0044181,-0.0026562,0.020398,0.0095668,-0.24621,-0.33437,0.048278,-0.51779,-0.010177,0.036042,0.0073086,0.029757,-0.14076,0.36658,-0.04902,0.56841,0.033797,0.8814,0.048595,-0.33558,0.080355,0.46284,-0.054601,0.67249
0.00014204,0.0042646,0.016911,0.0092554,-0.23564,-0.37627,0.023333,-0.5437,-0.011143,0.04997,0.017649,0.04045,-0.10544,0.48117,-0.053533,0.77306,0.037223,0.69695,0.015505,-0.52169,0.069918,0.33005,-0.054234,0.57395
0.0038976,0.011876,0.0095039,0.0064549,-0.22872,-0.40171,-0.0032737,-0.54877,-0.0076616,0.050808,0.026589,0.045685,-0.073905,0.58549,-0.063618,0.99123,0.044666,0.50155,-0.011152,-0.70198,0.054939,0.20356,-0.04591,0.45271
0.0047646,0.013228,0.002079,0.004036,-0.23077,-0.40484,-0.040415,-0.52236,-0.0013948,0.03864,0.03263,0.041311,-0.048162,0.6568,-0.079403,1.1866,0.050353,0.35195,-0.020083,-0.8236,0.035129,0.099149,-0.029301,0.32229
0.0028331,0.0071351,-0.0012486,0.0044016,-0.24583,-0.37731,-0.093928,-0.45619,0.0033401,0.019426,0.033902,0.027454,-0.026833,0.67338,-0.098469,1.3256,0.049434,0.27575,-0.004509,-0.85926,0.014677,0.011844,-0.0068204,0.20012
-0.00029771,-0.0018331,0.00032314,0.0066581,-0.27305,-0.31807,-0.16217,-0.35554,0.0031371,0.0020038,0.029913,0.010396,-0.0054627,0.62173,-0.11592,1.3874,0.041512,0.25962,0.034186,-0.82174,-0.001099,-0.077019,0.017282,0.093217
-0.0030069,-0.0080262,0.0038328,0.0069518,-0.3056,-0.23945,-0.23714,-0.24072,-0.0012665,-0.0060203,0.023239,-0.00024577,0.021245,0.50284,-0.12632,1.3682,0.030603,0.26618,0.087886,-0.75157,-0.0096025,-0.1844,0.038536,-0.0095919
-0.0046093,-0.0093907,0.005474,0.0019253,-0.33358,-0.16394,-0.31,-0.13724,-0.0053497,-0.0018105,0.01873,0.002201,0.05653,0.33378,-0.12674,1.2769,0.021801,0.26402,0.14661,-0.68881,-0.01236,-0.3114,0.053794,-0.13278
-0.0053144,-0.0082459,0.0039326,-0.0077684,-0.3491,-0.11492,-0.376,-0.063229,-0.0047849,0.011583,0.020111,0.016664,0.099786,0.14377,-0.11881,1.1266,0.017564,0.24663,0.2028,-0.65042,-0.013527,-0.43978,0.062057,-0.29976
-0.0057151,-0.0083344,0.00092764,-0.017266,-0.34981,-0.10871,-0.43463,-0.024084,0.00053385,0.027624,0.026856,0.035417,0.14703,-0.032901,-0.10798,0.93023,0.0166,0.22747,0.25214,-0.62823,-0.017137,-0.54181,0.06435,-0.51841
-0.0064703,-0.011496,-0.0012967,-0.021137,-0.33846,-0.15212,-0.48571,-0.016183,0.0063001,0.041111,0.034473,0.050448,0.19343,-0.16378,-0.099962,0.70238,0.015846,0.21917,0.29167,-0.60503,-0.025064,-0.59649,0.062891,-0.77507
-0.0082114,-0.016823,-0.0026445,-0.017891,-0.31943,-0.24336,-0.52632,-0.033135,0.007819,0.05207,0.038283,0.059579,0.23617,-0.22407,-0.096936,0.4667,0.013359,0.21672,0.31849,-0.57286,-0.03653,-0.6004,0.060096,-1.0394
-0.011237,-0.022152,-0.0050596,-0.011368,-0.29566,-0.37222,-0.55211,-0.06783,0.0045378,0.065409,0.037276,0.066891,0.27572,-0.20274,-0.096301,0.25798,0.0094719,0.19848,0.33117,-0.53884,-0.048847,-0.56587,0.057893,-1.2762
-0.014889,-0.025673,-0.0097517,-0.0075905,-0.26862,-0.51984,-0.56222,-0.11066,0.00073426,0.086292,0.034467,0.077363,0.31419,-0.10839,-0.093203,0.11331,0.0055245,0.14204,0.33251,-0.51637,-0.058746,-0.50872,0.057516,-1.4583
-0.017251,-0.026168,-0.014863,-0.0096189,-0.24076,-0.66235,-0.56284,-0.1498,0.0015728,0.115,0.033545,0.091127,0.35206,0.029435,-0.084833,0.054912,0.0017848,0.040148,0.32958,-0.51178,-0.063774,-0.43609,0.059599,-1.5742
-0.015965,-0.022616,-0.016405,-0.01488,-0.2174,-0.78042,-0.56548,-0.17659,0.008159,0.14587,0.035246,0.10301,0.38605,0.16893,-0.073001,0.076528,-0.0032222,-0.095902,0.32903,-0.51853,-0.063366,-0.34409,0.064217,-1.6291
-0.010042,-0.014722,-0.011944,-0.017481,-0.20535,-0.86905,-0.58041,-0.19126,0.016248,0.17125,0.036983,0.10769,0.41047,0.27405,-0.062769,0.14441,-0.011331,-0.24523,0.33048,-0.52225,-0.059135,-0.22602,0.070839,-1.6387
-0.0012975,-0.004384,-0.0035189,-0.013728,-0.20866,-0.93801,-0.61013,-0.20109,0.01988,0.18708,0.035857,0.10528,0.42172,0.332,-0.058289,0.21393,-0.022666,-0.38885,0.3241,-0.50976,-0.054144,-0.082744,0.078409,-1.619
0.0061411,0.0038546,0.0032844,-0.0060583,-0.22491,-0.99937,-0.6479,-0.20997,0.016619,0.19503,0.031753,0.10176,0.42235,0.35687,-0.059428,0.25074,-0.034857,-0.51437,0.29614,-0.47318,-0.051439,0.074824,0.08587,-1.5778
0.008372,0.0050339,0.0035795,-0.0017279,-0.24549,-1.0516,-0.68194,-0.20845,0.0096002,0.19969,0.027337,0.10385,0.42071,0.3744,-0.062087,0.24219,-0.044258,-0.6135,0.23969,-0.40668,-0.052692,0.23272,0.09291,-1.5123
0.0044853,-0.0023794,-0.0029374,-0.0069725,-0.26023,-1.0751,-0.70195,-0.17571,0.0046006,0.20373,0.025134,0.11317,0.42548,0.39798,-0.061852,0.19332,-0.048218,-0.67885,0.1622,-0.3018,-0.057758,0.38312,0.10022,-1.4155
-0.0027964,-0.014418,-0.011838,-0.021438,-0.26299,-1.0458,-0.70308,-0.094798,0.0049123,0.20562,0.02492,0.1252,0.43884,0.41495,-0.05768,0.1137,-0.046684,-0.70557,0.083181,-0.14982,-0.065238,0.52635,0.10866,-1.2859
-0.0092806,-0.023795,-0.017481,-0.03768,-0.25416,-0.95607,-0.68544,0.030981,0.0086869,0.20171,0.024199,0.13364,0.45366,0.39552,-0.052354,0.0075447,-0.042124,-0.69709,0.022513,0.047485,-0.073426,0.66385,0.11763,-1.1334
-0.012462,-0.025077,-0.016993,-0.046391,-0.23824,-0.82392,-0.65097,0.17599,0.010964,0.19009,0.021186,0.13588,0.45747,0.31855,-0.049502,-0.12566,-0.037995,-0.66931,-0.012229,0.26643,-0.080881,0.79007,0.1241,-0.97527
-0.012935,-0.018574,-0.011536,-0.043218,-0.21893,-0.67969,-0.60112,0.30838,0.0082894,0.17275,0.017048,0.1347,0.44042,0.19314,-0.050044,-0.28315,-0.036807,-0.64887,-0.029972,0.46052,-0.086565,0.89229,0.12355,-0.82533
-0.012958,-0.0095833,-0.0044796,-0.031686,-0.19604,-0.54089,-0.53682,0.41184,0.0016856,0.15442,0.01499,0.13539,0.40142,0.05794,-0.051334,-0.4531,-0.038909,-0.66567,-0.048791,0.57537,-0.090194,0.95953,0.113,-0.68468
-0.01373,-0.0036984,0.0013121,-0.020025,-0.16659,-0.39819,-0.46005,0.49473,-0.0044235,0.14022,0.017142,0.14159,0.34834,-0.042486,-0.049657,-0.61784,-0.042623,-0.74361,-0.082737,0.57264,-0.09329,0.99179,0.093961,-0.54209
-0.014099,-0.0023566,0.0047857,-0.014711,-0.12921,-0.22655,-0.37465,0.57899,-0.0059758,0.13458,0.022499,0.15377,0.29281,-0.085899,-0.043686,-0.76387,-0.045597,-0.89304,-0.13259,0.44876,-0.10032,0.9997,0.072885,-0.38431
-0.0119,-0.0023295,0.0062681,-0.016015,-0.087658,-0.012808,-0.28548,0.67891,-0.0022116,0.14165,0.02804,0.17102,0.24418,-0.083819,-0.035794,-0.88974,-0.0465,-1.106,-0.18665,0.23643,-0.11833,0.99396,0.057916,-0.20796
-0.0065239,0.0008673,0.0065581,-0.018874,-0.050251,0.22528,-0.19684,0.78806,0.0044558,0.16492,0.03182,0.19346,0.20683,-0.068926,-0.030171,-1.0045,-0.045823,-1.3548,-0.22995,-0.011459,-0.15409,0.9743,0.053866,-0.023695
-0.00014555,0.0090155,0.0065754,-0.017837,-0.025219,0.44636,-0.11181,0.88445,0.01084,0.20439,0.034766,0.22229,0.18162,-0.070377,-0.029528,-1.1173,-0.045081,-1.5951,-0.25442,-0.24431,-0.2097,0.92931,0.05886,0.15012
0.0036854,0.020038,0.007355,-0.011716,-0.015192,0.61301,-0.033155,0.94734,0.015068,0.25284,0.039284,0.25734,0.16856,-0.09683,-0.033217,-1.2258,-0.044972,-1.7751,-0.26292,-0.42861,-0.27962,0.84854,0.065239,0.29835
0.0028895,0.030072,0.009673,-0.0042571,-0.01491,0.71528,0.035217,0.97006,0.016721,0.29535,0.046097,0.2948,0.16781,-0.13825,-0.038173,-1.3133,-0.044058,-1.8508,-0.26541,-0.54825,-0.35164,0.73657,0.064183,0.41567
-0.0013349,0.036418,0.013358,-0.00073525,-0.013847,0.77003,0.088212,0.95909,0.01569,0.31468,0.05263,0.32759,0.1779,-0.18108,-0.041657,-1.356,-0.039363,-1.8012,-0.27108,-0.59566,-0.41157,0.61606,0.050821,0.50482
-0.0052858,0.038871,0.017167,-0.0036227,-0.0021085,0.79924,0.12177,0.9237,0.011571,0.30052,0.054698,0.34876,0.19343,-0.2216,-0.043384,-1.3363,-0.028671,-1.6374,-0.28264,-0.56474,-0.44865,0.51609,0.026481,0.57007
-0.0054582,0.038976,0.019753,-0.010774,0.024074,0.80916,0.13622,0.86843,0.0044053,0.25633,0.049994,0.35523,0.20499,-0.2662,-0.045324,-1.2519,-0.012759,-1.3983,-0.29663,-0.45322,-0.45808,0.45493,-0.0029284,0.6125
-0.0010175,0.038654,0.020973,-0.017179,0.060441,0.78963,0.13808,0.7956,-0.0042843,0.19851,0.039982,0.34912,0.20246,-0.32024,-0.049441,-1.1153,0.0043976,-1.1358,-0.30864,-0.2717,-0.43989,0.43072,-0.030523,0.63016
0.0057752,0.039509,0.022138,-0.01854,0.097208,0.73203,0.13789,0.71328,-0.011752,0.14756,0.028395,0.33568,0.17984,-0.37697,-0.055353,-0.94751,0.017773,-0.89582,-0.31883,-0.049649,-0.39637,0.42638,-0.05127,0.62095
0.011308,0.042721,0.024716,-0.013948,0.12428,0.64589,0.14433,0.63776,-0.015803,0.11691,0.017799,0.31968,0.13856,-0.41716,-0.059994,-0.76881,0.02423,-0.70509,-0.33302,0.17031,-0.33136,0.42284,-0.06265,0.58413
0.013071,0.048586,0.028558,-0.0060866,0.13614,0.55677,0.15836,0.58558,-0.016552,0.10651,0.0075838,0.30302,0.086858,-0.42049,-0.059803,-0.59505,0.024035,-0.56791,-0.3582,0.34886,-0.25189,0.409,-0.063967,0.52007
0.011034,0.055653,0.031416,0.00074569,0.13407,0.48732,0.17208,0.5618,-0.016361,0.10522,-0.0046775,0.28514,0.035376,-0.37985,-0.05383,-0.43776,0.019992,-0.47346,-0.39582,0.4666,-0.16956,0.38213,-0.055974,0.43128
0.0071934,0.060659,0.030435,0.0032952,0.12483,0.44078,0.17438,0.55575,-0.017771,0.099529,-0.01977,0.26541,-0.0080544,-0.30739,-0.045148,-0.30555,0.015135,-0.40796,-0.43857,0.52861,-0.098613,0.34264,-0.04143,0.32718
0.0039108,0.060316,0.024534,0.0011635,0.11703,0.40295,0.16009,0.54916,-0.021156,0.082625,-0.034597,0.24542,-0.041316,-0.22776,-0.039023,-0.20386,0.01083,-0.36568,-0.47393,0.55273,-0.050453,0.29156,-0.025555,0.22986
0.0024054,0.05402,0.015688,-0.003112,0.11719,0.36014,0.13535,0.52934,-0.024174,0.057977,-0.043373,0.22904,-0.06702,-0.16341,-0.038888,-0.13293,0.0064689,-0.35358,-0.49264,0.55015,-0.028051,0.23442,-0.014896,0.17395
0.0023664,0.04495,0.0079435,-0.0056939,0.12731,0.31447,0.1143,0.49568,-0.023568,0.035819,-0.041439,0.22041,-0.089007,-0.12201,-0.043304,-0.086618,0.00052059,-0.38707,-0.49574,0.51387,-0.024823,0.18513,-0.014483,0.19645
0.0026593,0.037864,0.0048001,-0.0039168,0.14449,0.28121,0.10846,0.45421,-0.01782,0.025509,-0.028613,0.2212,-0.10929,-0.09425,-0.046653,-0.054126,-0.0081455,-0.47816,-0.4944,0.42502,-0.029263,0.16097,-0.025062,0.31972
0.0023393,0.034993,0.0068894,0.0018518,0.16269,0.27115,0.11754,0.40706,-0.0084561,0.02906,-0.0094758,0.22913,-0.12759,-0.062669,-0.04339,-0.024035,-0.019526,-0.62213,-0.5018,0.27322,-0.032171,0.16746,-0.042672,0.53781
0.0011903,0.033695,0.011654,0.0082156,0.17546,0.2764,0.1296,0.34838,0.0010553,0.039833,0.0094688,0.23856,-0.14306,-0.014935,-0.032557,0.011647,-0.032452,-0.79137,-0.52266,0.074277,-0.031307,0.18466,-0.061225,0.81518
-0.00038774,0.028475,0.015264,0.010778,0.17893,0.27411,0.13127,0.27098,0.0078862,0.04662,0.023423,0.2428,-0.15594,0.04748,-0.018706,0.055759,-0.044941,-0.94278,-0.54864,-0.13087,-0.030514,0.17033,-0.076261,1.099
-0.001778,0.015987,0.015353,0.0069433,0.17385,0.24454,0.11972,0.1765,0.011781,0.039926,0.031115,0.23684,-0.16725,0.11055,-0.0083013,0.10702,-0.054743,-1.037,-0.56388,-0.29798,-0.034801,0.084625,-0.086921,1.3376
-0.0024354,-0.0013606,0.012566,-0.0023771,0.16553,0.18574,0.10582,0.077395,0.014764,0.016368,0.033957,0.2192,-0.17707,0.15719,-0.004545,0.16254,-0.060062,-1.0586,-0.55755,-0.40719,-0.045729,-0.077789,-0.094679,1.4947
-0.002021,-0.016627,0.0097978,-0.013289,0.16144,0.11087,0.10507,-0.012568,0.018895,-0.020844,0.033791,0.19229,-0.18367,0.17802,-0.0050034,0.21996,-0.060317,-1.0239,-0.53388,-0.47515,-0.060609,-0.27306,-0.10018,1.5542
-0.00056429,-0.023478,0.0097617,-0.021184,0.16711,0.032747,0.12375,-0.090271,0.024049,-0.064336,0.031261,0.16136,-0.18483,0.17609,-0.0040383,0.27834,-0.056422,-0.9686,-0.51104,-0.54116,-0.075601,-0.42639,-0.10131,1.5167
0.0013594,-0.020738,0.012777,-0.023124,0.18282,-0.046872,0.15226,-0.16472,0.027738,-0.10545,0.025924,0.13257,-0.18056,0.16325,0.0021305,0.33753,-0.050103,-0.92347,-0.50801,-0.63663,-0.089762,-0.4748,-0.094551,1.3951
0.0027618,-0.012492,0.016491,-0.018879,0.20341,-0.1312,0.17182,-0.24486,0.02729,-0.13601,0.017602,0.11126,-0.17425,0.15148,0.012102,0.39694,-0.042449,-0.8939,-0.52816,-0.7605,-0.10669,-0.40546,-0.078465,1.2111
0.0029043,-0.0041116,0.017672,-0.010351,0.22152,-0.21235,0.16929,-0.32492,0.022535,-0.14923,0.0075602,0.10087,-0.17075,0.14592,0.020439,0.45443,-0.032669,-0.85987,-0.55255,-0.87904,-0.13252,-0.26192,-0.056153,0.99286
0.002116,0.0018236,0.014582,-0.00027062,0.2323,-0.26498,0.14752,-0.38294,0.016448,-0.1409,-0.0015909,0.10268,-0.17259,0.14415,0.022116,0.50624,-0.018285,-0.79695,-0.55021,-0.94985,-0.17171,-0.11355,-0.033949,0.76927
0.0019211,0.0061188,0.0080319,0.0088357,0.23581,-0.26138,0.12263,-0.39712,0.012885,-0.11105,-0.007234,0.11566,-0.17784,0.14127,0.016462,0.54828,0.0029475,-0.70296,-0.49984,-0.95192,-0.22327,-0.011143,-0.017104,0.56117
0.0039943,0.010301,0.00044563,0.015113,0.23524,-0.19811,0.1106,-0.36723,0.013221,-0.064975,-0.0083771,0.13623,-0.18156,0.13591,0.0075815,0.57793,0.030489,-0.6092,-0.40777,-0.90009,-0.27964,0.03908,-0.0059512,0.37363
0.0085518,0.01404,-0.0060636,0.017636,0.23257,-0.1091,0.1147,-0.32178,0.014974,-0.012311,-0.0064529,0.158,-0.17975,0.13196,0.0013464,0.59532,0.059771,-0.56591,-0.30789,-0.83514,-0.32856,0.066551,0.00405,0.1969
0.013599,0.015412,-0.010958,0.01673,0.22586,-0.049253,0.12389,-0.30246,0.013904,0.035488,-0.004755,0.17239,-0.17233,0.1346,0.0016875,0.60292,0.0836,-0.61146,-0.24193,-0.79905,-0.3569,0.10435,0.018217,0.018093
0.01601,0.013332,-0.015076,0.014047,0.2115,-0.057608,0.12302,-0.33661,0.0078898,0.067972,-0.0067883,0.17059,-0.16279,0.14422,0.008852,0.60353,0.09571,-0.74745,-0.23344,-0.81393,-0.35489,0.16219,0.037795,-0.16365
0.013858,0.0090949,-0.019543,0.011807,0.19011,-0.12915,0.10552,-0.41912,-0.00093932,0.07728,-0.014394,0.14655,-0.15501,0.15377,0.020257,0.598,0.09429,-0.93788,-0.27401,-0.87726,-0.31955,0.22443,0.05833,-0.33081
0.008137,0.0050642,-0.024949,0.011276,0.17092,-0.21871,0.078135,-0.51732,-0.0078865,0.058447,-0.026654,0.099346,-0.15034,0.1524,0.032567,0.58447,0.083035,-1.1325,-0.33157,-0.97229,-0.25635,0.26969,0.07256,-0.45775
0.0022538,0.0018989,-0.031254,0.011531,0.16936,-0.27443,0.054448,-0.59387,-0.0097541,0.0096132,-0.040258,0.033619,-0.14733,0.13287,0.043291,0.55942,0.068919,-1.2972,-0.37399,-1.0826,-0.17827,0.29037,0.075333,-0.53219
-0.00052143,-0.0024915,-0.038039,0.0098127,0.19795,-0.27431,0.043644,-0.62934,-0.0075673,-0.06684,-0.05134,-0.042059,-0.14366,0.096485,0.051244,0.51996,0.058109,-1.4301,-0.39005,-1.2001,-0.1018,0.29388,0.066547,-0.57151
0.00035824,-0.010773,-0.044556,0.0037186,0.25629,-0.23785,0.044127,-0.62857,-0.0054429,-0.16271,-0.057872,-0.11777,-0.13842,0.051428,0.056295,0.46543,0.052739,-1.5539,-0.39292,-1.3236,-0.040757,0.28656,0.049936,-0.61928
0.0022887,-0.02278,-0.049696,-0.0062522,0.32811,-0.20678,0.046746,-0.60984,-0.0067064,-0.26375,-0.061113,-0.18431,-0.13255,0.0059557,0.058978,0.39766,0.050483,-1.6934,-0.40533,-1.4526,-0.00084055,0.25803,0.029099,-0.72141
0.0017149,-0.034417,-0.052361,-0.016025,0.38867,-0.21309,0.043989,-0.58842,-0.010918,-0.35241,-0.064878,-0.23412,-0.12759,-0.037413,0.060169,0.32012,0.04685,-1.8556,-0.43955,-1.5827,0.021891,0.1824,0.0043596,-0.89746
-0.0028038,-0.040305,-0.052194,-0.02021,0.41804,-0.25958,0.036909,-0.56773,-0.014502,-0.41321,-0.072757,-0.26188,-0.12414,-0.081649,0.060729,0.23697,0.03834,-2.0283,-0.48792,-1.7067,0.0369,0.036334,-0.02686,-1.127
-0.0092334,-0.037941,-0.049897,-0.015923,0.41148,-0.32414,0.034078,-0.54193,-0.014199,-0.43848,-0.085142,-0.26537,-0.12135,-0.12954,0.061195,0.15251,0.024327,-2.1963,-0.5303,-1.8193,0.051723,-0.18228,-0.066533,-1.3604
-0.013605,-0.029578,-0.046526,-0.0052032,0.37999,-0.37866,0.043787,-0.50419,-0.009961,-0.43083,-0.098428,-0.24666,-0.11744,-0.17828,0.061748,0.071078,0.006801,-2.3602,-0.55071,-1.9225,0.06626,-0.45109,-0.11236,-1.5452
-0.013214,-0.020151,-0.042364,0.0061453,0.34168,-0.40537,0.066096,-0.45247,-0.0046684,-0.40078,-0.10739,-0.21238,-0.11072,-0.21971,0.0625,-0.0033105,-0.011378,-2.5399,-0.54929,-2.0252,0.073108,-0.73745,-0.15702,-1.6523
-0.0088196,-0.013325,-0.036702,0.012633,0.31067,-0.40065,0.091155,-0.38977,-0.0012109,-0.36058,-0.1091,-0.17184,-0.1003,-0.24599,0.063739,-0.067376,-0.028194,-2.7571,-0.54061,-2.1377,0.063936,-1.0162,-0.19093,-1.6853
-0.0039844,-0.0093412,-0.029115,0.012905,0.29109,-0.3695,0.10515,-0.3217,9.1806e-005,-0.31776,-0.10515,-0.1337,-0.086777,-0.25547,0.065786,-0.11893,-0.043032,-3.0073,-0.54109,-2.2618,0.037324,-1.2752,-0.20679,-1.6724
-0.0021174,-0.0063941,-0.021005,0.010211,0.27885,-0.31968,0.099516,-0.25519,0.0013579,-0.27276,-0.10014,-0.10316,-0.072449,-0.25363,0.068515,-0.157,-0.055989,-3.2467,-0.5566,-2.3859,0.0023041,-1.5062,-0.2026,-1.6486
-0.0037062,-0.0036829,-0.015454,0.0091794,0.2679,-0.26013,0.076724,-0.19855,0.0046948,-0.22226,-0.097702,-0.082109,-0.061008,-0.2486,0.071045,-0.18216,-0.066768,-3.4074,-0.57997,-2.4902,-0.024952,-1.6911,-0.18179,-1.6385
-0.0060613,-0.0027614,-0.014901,0.011677,0.25548,-0.20107,0.048755,-0.16054,0.0099549,-0.166,-0.097509,-0.072331,-0.056076,-0.24566,0.072073,-0.19725,-0.074216,-3.435,-0.59893,-2.5585,-0.028996,-1.8016,-0.15053,-1.6464
-0.0057488,-0.0057569,-0.018632,0.015296,0.2431,-0.15177,0.029452,-0.14687,0.014778,-0.1121,-0.096341,-0.079085,-0.059214,-0.24544,0.070714,-0.20802,-0.076968,-3.3211,-0.60649,-2.5898,-0.0024546,-1.8141,-0.1147,-1.6573
-0.0016202,-0.012421,-0.022746,0.015703,0.23394,-0.11619,0.026387,-0.15635,0.016699,-0.076171,-0.092246,-0.11115,-0.068801,-0.24618,0.067209,-0.22227,-0.07467,-3.1061,-0.60489,-2.5956,0.051086,-1.7291,-0.078066,-1.6467
0.0041211,-0.019308,-0.023151,0.010738,0.22991,-0.090935,0.037933,-0.18039,0.015277,-0.073552,-0.087861,-0.17587,-0.081039,-0.24701,0.062861,-0.24714,-0.068673,-2.8499,-0.60092,-2.5846,0.11931,-1.5779,-0.042634,-1.5946
0.0076786,-0.02227,-0.019082,0.0026349,0.23077,-0.067957,0.057147,-0.20718,0.012452,-0.1092,-0.089245,-0.2721,-0.092688,-0.24859,0.059148,-0.28556,-0.061344,-2.593,-0.59808,-2.544,0.18637,-1.4072,-0.0099908,-1.4967
0.0067346,-0.020009,-0.013767,-0.003541,0.23519,-0.039925,0.078734,-0.22759,0.011018,-0.17229,-0.10062,-0.38668,-0.1035,-0.25121,0.056593,-0.33454,-0.054306,-2.338,-0.59332,-2.4358,0.23823,-1.2531,0.017687,-1.3667
0.0022935,-0.015223,-0.01142,-0.0038809,0.24192,-0.0031037,0.10305,-0.23787,0.012631,-0.24034,-0.11948,-0.49827,-0.11631,-0.25304,0.054205,-0.38696,-0.047011,-2.064,-0.58092,-2.2146,0.26645,-1.1235,0.037977,-1.2265
-0.0021369,-0.012168,-0.01326,0.0013393,0.24977,0.044575,0.13387,-0.23701,0.016853,-0.29094,-0.13678,-0.587,-0.13454,-0.25121,0.049964,-0.436,-0.037056,-1.7588,-0.5591,-1.8597,0.26957,-1.0008,0.049573,-1.0917
-0.0032493,-0.012934,-0.016333,0.0080289,0.25653,0.10752,0.17226,-0.22139,0.021716,-0.3138,-0.14264,-0.64364,-0.15914,-0.24509,0.042164,-0.47912,-0.022349,-1.4393,-0.53284,-1.3983,0.2522,-0.86339,0.053383,-0.96338
-0.00031736,-0.015958,-0.016288,0.011542,0.25847,0.19344,0.21272,-0.18232,0.025218,-0.31489,-0.13325,-0.67182,-0.1873,-0.2385,0.030875,-0.51838,-0.0035229,-1.1447,-0.51039,-0.90427,0.22221,-0.7071,0.052246,-0.8312
0.0045209,-0.017993,-0.011489,0.010019,0.25146,0.30879,0.24532,-0.11031,0.026662,-0.31011,-0.11336,-0.68229,-0.21387,-0.23803,0.01857,-0.5571,0.015489,-0.90813,-0.49699,-0.46867,0.18713,-0.55157,0.049225,-0.68723
0.0080788,-0.017369,-0.0046318,0.0052159,0.23314,0.45094,0.26208,-0.0044486,0.027021,-0.31354,-0.092239,-0.68387,-0.23419,-0.2482,0.0093372,-0.59564,0.029471,-0.73326,-0.49161,-0.15895,0.15147,-0.42837,0.045649,-0.53788
0.0084543,-0.015335,-0.00046018,0.00055339,0.20416,0.60296,0.26134,0.11977,0.028099,-0.32858,-0.076798,-0.67828,-0.24628,-0.26729,0.0068685,-0.6299,0.035095,-0.59357,-0.48897,0.0089506,0.11632,-0.36236,0.040314,-0.405
0.0061044,-0.014462,-0.0018768,-0.00168,0.16741,0.73611,0.24595,0.23142,0.031017,-0.3478,-0.067447,-0.6619,-0.25127,-0.28801,0.0123,-0.65407,0.032795,-0.45254,-0.4839,0.070335,0.080967,-0.36089,0.030454,-0.31521
0.0030564,-0.016132,-0.0079891,-0.0016699,0.12578,0.82114,0.21762,0.29668,0.035064,-0.36028,-0.059753,-0.63191,-0.25227,-0.30361,0.023275,-0.66583,0.025923,-0.28616,-0.47336,0.085396,0.045149,-0.41644,0.013841,-0.28563
0.0011269,-0.019831,-0.015487,-0.0012595,0.080687,0.84346,0.17403,0.29739,0.037854,-0.3598,-0.049815,-0.59081,-0.25267,-0.31513,0.034999,-0.67009,0.018075,-0.090717,-0.45454,0.1044,0.00996,-0.51636,-0.0093532,-0.31601
0.0006567,-0.024684,-0.021534,-0.0021151,0.032634,0.81344,0.11302,0.2439,0.036876,-0.34766,-0.038271,-0.54533,-0.25438,-0.33375,0.042776,-0.67851,0.010887,0.12571,-0.42216,0.14549,-0.022892,-0.64893,-0.036021,-0.39089
0.00065725,-0.031127,-0.025349,-0.0045775,-0.016663,0.76362,0.040293,0.17225,0.031372,-0.32883,-0.029551,-0.50094,-0.25663,-0.37492,0.044429,-0.70425,0.0039083,0.35542,-0.3691,0.19628,-0.052339,-0.80082,-0.06115,-0.48802
1.2577e-005,-0.040485,-0.027493,-0.0079439,-0.062737,0.73169,-0.027713,0.12493,0.02302,-0.30569,-0.027491,-0.45716,-0.25563,-0.4471,0.041048,-0.75467,-0.0038057,0.59522,-0.29064,0.23419,-0.078087,-0.95086,-0.079725,-0.58591
-0.0014568,-0.052722,-0.028408,-0.011544,-0.099226,0.73843,-0.070839,0.12664,0.014773,-0.27519,-0.031522,-0.40746,-0.24628,-0.54304,0.035695,-0.82595,-0.01214,0.84183,-0.18871,0.24927,-0.099304,-1.0686,-0.088414,-0.66704
-0.0030048,-0.064893,-0.028106,-0.015414,-0.12096,0.77512,-0.077867,0.17145,0.0087296,-0.23181,-0.036789,-0.34373,-0.22545,-0.64108,0.03115,-0.90309,-0.01981,1.0876,-0.072061,0.25277,-0.11324,-1.1217,-0.086125,-0.71813
-0.0039001,-0.072395,-0.027136,-0.019952,-0.12727,0.81035,-0.054214,0.23059,0.0048051,-0.17366,-0.037763,-0.26171,-0.19511,-0.71673,0.028395,-0.96586,-0.025503,1.3231,0.047989,0.2664,-0.11562,-1.0871,-0.073247,-0.73083
-0.0042612,-0.072265,-0.027164,-0.024949,-0.1231,0.81236,-0.017412,0.27462,0.0013067,-0.1062,-0.031963,-0.16355,-0.16243,-0.75704,0.026738,-0.99782,-0.028948,1.544,0.16246,0.30145,-0.10311,-0.95872,-0.05034,-0.70383
-0.0048954,-0.065571,-0.029903,-0.029012,-0.11684,0.77049,0.016287,0.2925,-0.0032078,-0.040453,-0.020763,-0.056632,-0.1357,-0.76733,0.025139,-0.99362,-0.03089,1.7546,0.26656,0.34451,-0.076266,-0.74664,-0.017538,-0.64411
-0.0063003,-0.056679,-0.035223,-0.03007,-0.11595,0.69931,0.042779,0.29267,-0.0085395,0.013279,-0.007238,0.049625,-0.11846,-0.76533,0.023337,-0.96052,-0.032175,1.9621,0.35821,0.36202,-0.040366,-0.47011,0.024569,-0.56432
-0.0078871,-0.050105,-0.040599,-0.026864,-0.12265,0.62247,0.069302,0.28639,-0.013166,0.051405,0.0064242,0.1468,-0.10629,-0.76763,0.021794,-0.91387,-0.033014,2.1684,0.43587,0.32113,-0.003283,-0.15106,0.073145,-0.47589
-0.0083138,-0.047803,-0.042971,-0.020383,-0.13262,0.5501,0.10338,0.26934,-0.015829,0.078683,0.019654,0.2293,-0.089448,-0.77901,0.0206,-0.86955,-0.033167,2.3643,0.49849,0.21165,0.028193,0.18953,0.12217,-0.38095
-0.0067085,-0.048984,-0.041552,-0.014032,-0.13782,0.46959,0.14211,0.21911,-0.016768,0.10469,0.032322,0.29491,-0.059889,-0.79222,0.01856,-0.838,-0.032752,2.5317,0.54653,0.052346,0.050706,0.5333,0.16373,-0.26754
-0.0036305,-0.05191,-0.038841,-0.011986,-0.13204,0.35802,0.17162,0.11226,-0.01747,0.1377,0.043523,0.34409,-0.017262,-0.79677,0.013567,-0.82231,-0.032736,2.6491,0.58195,-0.12325,0.063757,0.86656,0.19122,-0.1115
-0.00081614,-0.055457,-0.038601,-0.016535,-0.11565,0.20573,0.17709,-0.053395,-0.019319,0.17964,0.051817,0.37793,0.030766,-0.78865,0.0042335,-0.81995,-0.034437,2.6957,0.60592,-0.29036,0.067192,1.1822,0.20203,0.11529
9.9612e-005,-0.059048,-0.042468,-0.026291,-0.096135,0.029962,0.15451,-0.25123,-0.02262,0.22484,0.056583,0.39587,0.073904,-0.7735,-0.0085197,-0.82552,-0.038371,2.6543,0.61678,-0.44748,0.059382,1.4781,0.19785,0.4331
-0.0012545,-0.061753,-0.048321,-0.036814,-0.083686,-0.13464,0.11458,-0.44162,-0.026872,0.26283,0.058807,0.39511,0.10561,-0.76229,-0.021415,-0.83255,-0.043409,2.5135,0.61123,-0.61104,0.037916,1.7498,0.18219,0.84374
-0.0039329,-0.06225,-0.052003,-0.043509,-0.084672,-0.26191,0.076433,-0.59913,-0.031722,0.28426,0.060348,0.37325,0.12522,-0.76441,-0.030659,-0.83422,-0.047056,2.2729,0.58873,-0.79522,0.0020371,1.9818,0.1577,1.3247
-0.006649,-0.06009,-0.050865,-0.044738,-0.097585,-0.35488,0.057405,-0.72881,-0.037243,0.28694,0.062432,0.33292,0.13477,-0.78307,-0.03433,-0.82395,-0.046808,1.9462,0.55513,-0.99319,-0.045741,2.1444,0.12568,1.8295
-0.0087749,-0.056813,-0.045916,-0.042719,-0.11424,-0.44227,0.066499,-0.85722,-0.043008,0.27875,0.065008,0.2846,0.13452,-0.81447,-0.033349,-0.79665,-0.041706,1.5604,0.52116,-1.1743,-0.10072,2.2006,0.088086,2.294
-0.010437,-0.055216,-0.040695,-0.041478,-0.12525,-0.55198,0.10449,-1.0046,-0.047017,0.275,0.067617,0.24442,0.12207,-0.84894,-0.030132,-0.75027,-0.033046,1.1503,0.49593,-1.2986,-0.15909,2.1213,0.049668,2.6466
-0.011738,-0.056872,-0.038013,-0.043485,-0.12589,-0.6821,0.1676,-1.1602,-0.046126,0.29046,0.070697,0.22682,0.096143,-0.87297,-0.026099,-0.68653,-0.023781,0.7502,0.48074,-1.338,-0.22025,1.9004,0.017505,2.8231
-0.012044,-0.060037,-0.037596,-0.047687,-0.11868,-0.79438,0.25038,-1.2823,-0.038374,0.33021,0.075653,0.23663,0.061246,-0.87276,-0.020301,-0.61042,-0.017042,0.38711,0.46902,-1.2898,-0.28588,1.5608,-0.0024237,2.7831
-0.010239,-0.060232,-0.036703,-0.050451,-0.11143,-0.83769,0.34654,-1.3226,-0.025505,0.38501,0.083377,0.26583,0.027838,-0.83968,-0.01054,-0.52893,-0.01474,0.075146,0.45304,-1.1748,-0.3558,1.1521,-0.0089761,2.5252
-0.0059204,-0.053585,-0.032953,-0.048596,-0.11258,-0.78513,0.44982,-1.26,-0.013167,0.4352,0.092689,0.29746,0.0066284,-0.77524,0.0038852,-0.45034,-0.016989,-0.18608,0.43149,-1.0256,-0.42348,0.74192,-0.0065229,2.0956
-0.00045273,-0.040508,-0.026655,-0.042127,-0.12632,-0.65641,0.55638,-1.1161,-0.0078738,0.46122,0.10054,0.31432,0.0011711,-0.69204,0.020162,-0.38462,-0.022403,-0.40794,0.41096,-0.87146,-0.47452,0.40411,-0.0014916,1.5818
0.0033145,-0.026552,-0.020579,-0.034646,-0.15024,-0.50755,0.66685,-0.94432,-0.012601,0.45458,0.10413,0.30692,0.0049958,-0.60864,0.032458,-0.34414,-0.028851,-0.603,0.3999,-0.73083,-0.49013,0.20569,0.0028284,1.0929
0.0028286,-0.019236,-0.017509,-0.031123,-0.17631,-0.39535,0.78482,-0.79847,-0.02448,0.4218,0.10304,0.27595,0.0060628,-0.5413,0.034612,-0.34283,-0.034252,-0.77313,0.40052,-0.60998,-0.45444,0.1899,0.0091198,0.7304
-0.0021234,-0.022788,-0.017916,-0.034535,-0.19495,-0.34354,0.91102,-0.70536,-0.036597,0.37893,0.099427,0.22856,-0.0047808,-0.49769,0.023058,-0.39238,-0.037278,-0.90434,0.40619,-0.50657,-0.36235,0.35946,0.023961,0.56161
-0.0088487,-0.034652,-0.019727,-0.043591,-0.19999,-0.33554,1.037,-0.65817,-0.042629,0.34059,0.096118,0.17176,-0.027912,-0.47613,-0.0017648,-0.49597,-0.037875,-0.97487,0.40682,-0.41368,-0.22393,0.66884,0.052003,0.60427
-0.013389,-0.046651,-0.020167,-0.053177,-0.19126,-0.33696,1.1445,-0.63265,-0.040719,0.31164,0.094445,0.10776,-0.055803,-0.46918,-0.035833,-0.64273,-0.03729,-0.97244,0.39732,-0.32314,-0.062474,1.0354,0.090648,0.82649
-0.013284,-0.050367,-0.017868,-0.057523,-0.17292,-0.32756,1.2114,-0.61139,-0.033737,0.2871,0.093881,0.034529,-0.079142,-0.4679,-0.072923,-0.80722,-0.037321,-0.90632,0.38184,-0.22845,0.093218,1.3694,0.12957,1.1598
-0.0093051,-0.04296,-0.013496,-0.054263,-0.14818,-0.31658,1.2227,-0.59775,-0.026214,0.25996,0.09347,-0.04958,-0.092747,-0.46419,-0.10621,-0.95596,-0.039068,-0.80144,0.37049,-0.12656,0.21913,1.61,0.15608,1.5203
-0.0047314,-0.029018,-0.008709,-0.046541,-0.11481,-0.33083,1.1771,-0.61056,-0.020865,0.22995,0.093295,-0.14088,-0.096935,-0.45176,-0.12999,-1.059,-0.042112,-0.67678,0.372,-0.01717,0.30377,1.7447,0.16299,1.8323
-0.0027254,-0.016851,-0.0046598,-0.0412,-0.065785,-0.38811,1.0861,-0.66642,-0.017509,0.20607,0.094358,-0.22926,-0.094504,-0.42733,-0.14155,-1.1006,-0.044884,-0.52617,0.38843,0.10069,0.3497,1.8019,0.15319,2.048
-0.0039339,-0.011987,-0.0013039,-0.043758,0.0044366,-0.47947,0.96684,-0.76435,-0.014653,0.20057,0.097158,-0.30211,-0.087163,-0.39213,-0.1422,-1.0834,-0.045977,-0.32168,0.41513,0.23198,0.36856,1.8187,0.13741,2.158
-0.0062265,-0.013042,0.0022511,-0.053671,0.092245,-0.57445,0.83374,-0.88455,-0.011651,0.2191,0.10062,-0.35091,-0.074848,-0.35189,-0.13652,-1.0242,-0.045173,-0.041649,0.444,0.38424,0.37332,1.8097,0.12635,2.1855
-0.0066495,-0.01333,0.0069932,-0.063885,0.18233,-0.64346,0.69515,-1.0009,-0.0092771,0.25516,0.10255,-0.37581,-0.057871,-0.31415,-0.12952,-0.94508,-0.04323,0.2972,0.46645,0.56012,0.37256,1.7592,0.12322,2.1679
-0.0038579,-0.0069143,0.01345,-0.065701,0.25303,-0.67806,0.55478,-1.0964,-0.0084734,0.29391,0.10116,-0.38501,-0.039051,-0.28444,-0.12361,-0.86649,-0.040729,0.63201,0.47468,0.74806,0.36946,1.6406,0.12229,2.1321
0.00096175,0.0060459,0.021408,-0.055605,0.28625,-0.69313,0.41538,-1.1695,-0.0088829,0.32277,0.096079,-0.38868,-0.023249,-0.26429,-0.11786,-0.80431,-0.037297,0.88157,0.46317,0.91948,0.36462,1.4475,0.11452,2.0805
0.0052443,0.019234,0.029778,-0.03852,0.27528,-0.71071,0.28075,-1.2277,-0.0087534,0.34075,0.088206,-0.39107,-0.014606,-0.25273,-0.11031,-0.76952,-0.03209,0.99183,0.43148,1.0376,0.35896,1.2087,0.095532,1.9935
0.0070961,0.025469,0.036785,-0.02446,0.22554,-0.73935,0.15482,-1.274,-0.006226,0.35853,0.078944,-0.38547,-0.014037,-0.24922,-0.10136,-0.76594,-0.02501,0.965,0.38632,1.0745,0.35402,0.9739,0.069232,1.8489
0.0065123,0.022763,0.040751,-0.020965,0.14935,-0.76519,0.039591,-1.2987,-0.00067083,0.38828,0.069725,-0.35555,-0.019194,-0.25494,-0.094851,-0.78523,-0.017316,0.84982,0.33924,1.0255,0.34995,0.78348,0.044115,1.6427
0.0049873,0.016015,0.041234,-0.0274,0.059507,-0.76078,-0.065822,-1.2828,0.0071301,0.43047,0.061932,-0.28319,-0.026747,-0.27115,-0.095382,-0.80418,-0.010932,0.70156,0.29919,0.91114,0.34386,0.64434,0.025736,1.3948
0.0041722,0.01308,0.039598,-0.035814,-0.033922,-0.70511,-0.16436,-1.2125,0.015887,0.46817,0.056626,-0.15904,-0.034994,-0.29678,-0.10385,-0.79065,-0.0071579,0.54553,0.26519,0.76586,0.33107,0.53132,0.011877,1.1367
0.0048258,0.018793,0.038216,-0.037531,-0.12385,-0.601,-0.2592,-1.0929,0.024757,0.47447,0.053906,0.009849,-0.044946,-0.32839,-0.11545,-0.71852,-0.0060433,0.37403,0.22608,0.62306,0.30867,0.4093,-0.0053988,0.88959
0.0067267,0.031822,0.038667,-0.029913,-0.2063,-0.47899,-0.35225,-0.95256,0.033508,0.4296,0.052661,0.2,-0.059562,-0.36326,-0.12249,-0.58282,-0.0068536,0.17786,0.16996,0.50732,0.27843,0.25683,-0.032742,0.65292
0.0092336,0.046319,0.040442,-0.017833,-0.28228,-0.38528,-0.4432,-0.83316,0.041958,0.3362,0.051455,0.38029,-0.081968,-0.40283,-0.12024,-0.4032,-0.0088507,-0.017596,0.097081,0.43716,0.24631,0.074944,-0.069596,0.41157
0.011793,0.056218,0.041486,-0.0091236,-0.35933,-0.36049,-0.52911,-0.77186,0.049402,0.22194,0.050039,0.52527,-0.11355,-0.45322,-0.11093,-0.21161,-0.011403,-0.14699,0.025155,0.43026,0.21877,-0.11927,-0.10814,0.15749
0.014084,0.058509,0.04027,-0.0082335,-0.44871,-0.42068,-0.60503,-0.78576,0.054492,0.12605,0.049947,0.62583,-0.15256,-0.52193,-0.10234,-0.032695,-0.0134,-0.14044,-0.019207,0.50081,0.19874,-0.30293,-0.13858,-0.093958
0.015998,0.053694,0.037525,-0.013367,-0.55737,-0.55079,-0.66589,-0.86751,0.055558,0.077547,0.05332,0.69016,-0.19392,-0.61389,-0.10196,0.12753,-0.012896,0.025222,-0.018515,0.64649,0.1846,-0.45242,-0.1549,-0.3077
0.017679,0.044364,0.035854,-0.018894,-0.67914,-0.71358,-0.70931,-0.99297,0.051092,0.078651,0.060992,0.73422,-0.23129,-0.73,-0.11171,0.27594,-0.0077558,0.30022,0.021408,0.8357,0.17264,-0.54543,-0.15661,-0.45125
0.019479,0.033764,0.0374,-0.020341,-0.79254,-0.8691,-0.73693,-1.1351,0.040324,0.10442,0.071899,0.76759,-0.26083,-0.86875,-0.12775,0.41546,0.0030031,0.58332,0.072683,1.0096,0.16073,-0.56762,-0.14606,-0.51753
0.02161,0.025029,0.041612,-0.01759,-0.86923,-0.99384,-0.7524,-1.2754,0.023935,0.11945,0.084604,0.78495,-0.28467,-1.0276,-0.14547,0.53304,0.018251,0.77815,0.10261,1.1046,0.1501,-0.52442,-0.12526,-0.52965
0.02367,0.02049,0.045202,-0.01409,-0.8891,-1.0895,-0.75698,-1.4075,0.004659,0.1015,0.099384,0.77068,-0.31032,-1.2008,-0.16473,0.60459,0.034972,0.84542,0.095075,1.0844,0.14374,-0.44717,-0.095313,-0.52389
0.024592,0.02059,0.044477,-0.013429,-0.85219,-1.1777,-0.7467,-1.5336,-0.012837,0.057167,0.11845,0.71463,-0.34507,-1.3752,-0.19028,0.61399,0.04948,0.81735,0.060928,0.9611,0.14322,-0.3821,-0.058716,-0.52617
0.023322,0.023159,0.03809,-0.01649,-0.77886,-1.2858,-0.71499,-1.6574,-0.023205,0.019501,0.14368,0.62843,-0.38833,-1.5277,-0.2264,0.57054,0.058766,0.7694,0.029992,0.79038,0.14655,-0.36438,-0.021005,-0.54135
0.019753,0.024264,0.028001,-0.021241,-0.69724,-1.4318,-0.66003,-1.7791,-0.02241,0.028673,0.17393,0.5489,-0.4279,-1.6291,-0.27042,0.51018,0.061232,0.77299,0.030902,0.64304,0.14914,-0.39541,0.01079,-0.5618
0.014999,0.020741,0.018036,-0.024716,-0.6263,-1.6164,-0.5913,-1.8938,-0.0093046,0.10764,0.20483,0.52239,-0.4445,-1.6546,-0.31108,0.47839,0.056742,0.86085,0.073105,0.57043,0.1471,-0.44297,0.032173,-0.58364
0.010661,0.012813,0.011411,-0.025089,-0.56566,-1.8249,-0.52906,-1.9927,0.014203,0.24729,0.2316,0.57727,-0.42274,-1.5938,-0.33392,0.50713,0.046298,1.0209,0.14284,0.58489,0.14024,-0.46647,0.044031,-0.61239
0.0077355,0.0045831,0.0091601,-0.022275,-0.49915,-2.0348,-0.49592,-2.0668,0.044341,0.40917,0.25244,0.70157,-0.36128,-1.4552,-0.33022,0.60149,0.031684,1.2134,0.21424,0.6646,0.13236,-0.44809,0.051504,-0.6525
0.0062079,0.0015544,0.010282,-0.017118,-0.40928,-2.2257,-0.50614,-2.109,0.076961,0.54337,0.26922,0.84234,-0.27474,-1.2614,-0.30253,0.74357,0.015187,1.3947,0.26649,0.77565,0.12831,-0.40471,0.059742,-0.69278
0.0056306,0.0066836,0.012935,-0.010415,-0.29209,-2.3842,-0.55998,-2.1161,0.10834,0.61083,0.28471,0.92993,-0.18543,-1.0386,-0.26281,0.90869,-0.00064759,1.5346,0.29542,0.89438,0.13008,-0.37178,0.07031,-0.70547
0.0059178,0.017898,0.015453,-0.0027444,-0.16179,-2.5042,-0.64631,-2.0878,0.13522,0.59883,0.29869,0.91405,-0.11025,-0.80505,-0.22432,1.082,-0.013325,1.6241,0.31351,1.0161,0.13504,-0.37362,0.081232,-0.66403
0.0073759,0.029171,0.016613,0.0050339,-0.041974,-2.5826,-0.74974,-2.0236,0.15499,0.52342,0.3066,0.78957,-0.051811,-0.56409,-0.19338,1.2656,-0.020825,1.6757,0.34054,1.1478,0.13791,-0.40538,0.090146,-0.56524
0.0099083,0.03456,0.015506,0.011525,0.049908,-2.6163,-0.85646,-1.9213,0.16645,0.41972,0.30215,0.5965,0.00048143,-0.30532,-0.16666,1.4739,-0.022164,1.7173,0.3919,1.2933,0.13518,-0.43987,0.097141,-0.4354
0.012369,0.032204,0.011634,0.015398,0.11316,-2.6027,-0.95565,-1.7794,0.17094,0.32617,0.28173,0.39603,0.060469,-0.01432,-0.13557,1.7208,-0.017869,1.7805,0.47123,1.4439,0.12828,-0.45081,0.1045,-0.31313
0.013014,0.025216,0.0053208,0.016471,0.16179,-2.5446,-1.0383,-1.6033,0.1723,0.27028,0.24726,0.24037,0.13396,0.3133,-0.094163,2.0065,-0.010007,1.8864,0.56955,1.5795,0.12285,-0.4318,0.11388,-0.22267
0.010873,0.018929,-0.0020724,0.016256,0.21194,-2.4535,-1.0967,-1.4098,0.17531,0.26219,0.20534,0.15555,0.2142,0.66113,-0.044593,2.311,-0.0014852,2.0327,0.66979,1.6775,0.12426,-0.39706,0.12408,-0.16007
0.0067825,0.016884,-0.0086442,0.01719,0.26913,-2.3457,-1.125,-1.2244,0.18312,0.29745,0.16384,0.14387,0.28715,0.99274,0.0036476,2.5986,0.0051734,2.1918,0.75377,1.7224,0.13312,-0.36711,0.132,-0.10307
0.0029652,0.018656,-0.013056,0.020854,0.3251,-2.2314,-1.1199,-1.0688,0.1955,0.36566,0.12852,0.19663,0.34217,1.266,0.039935,2.8309,0.0089231,2.3204,0.809,1.7089,0.14427,-0.35433,0.13575,-0.034529
0.0012843,0.0207,-0.015469,0.026383,0.36596,-2.1068,-1.0794,-0.94847,0.20917,0.45766,0.10165,0.302,0.37967,1.4537,0.059509,2.9826,0.010413,2.3771,0.83301,1.6411,0.15031,-0.35922,0.13688,0.041858
0.0016054,0.018879,-0.017479,0.030404,0.3842,-1.9557,-1.0012,-0.85034,0.21986,0.56549,0.082626,0.44147,0.40962,1.5562,0.066228,3.0498,0.011147,2.3393,0.83375,1.5301,0.1467,-0.37628,0.13892,0.10637
0.0017686,0.010718,-0.020895,0.028911,0.38461,-1.7648,-0.8842,-0.75425,0.22463,0.67575,0.068912,0.58229,0.44178,1.5994,0.069317,3.0449,0.012149,2.2129,0.82572,1.3955,0.13438,-0.40012,0.14363,0.14253
-0.00058491,-0.0034351,-0.026123,0.020129,0.37973,-1.5381,-0.73098,-0.64978,0.22279,0.76367,0.056367,0.67865,0.47584,1.6167,0.076731,2.9823,0.013108,2.0312,0.82312,1.2658,0.11825,-0.42563,0.14852,0.15272
-0.0057112,-0.020016,-0.031414,0.0064854,0.37963,-1.2987,-0.5504,-0.54315,0.21531,0.79646,0.03944,0.68715,0.49983,1.6315,0.090049,2.8662,0.012637,1.8449,0.83325,1.175,0.10299,-0.44497,0.14856,0.15678
-0.010981,-0.032788,-0.033787,-0.0059458,0.38443,-1.0734,-0.35561,-0.44744,0.20355,0.74756,0.012427,0.5881,0.49891,1.6507,0.10442,2.6898,0.0095058,1.7046,0.8534,1.1527,0.08999,-0.44884,0.14093,0.17621
-0.012578,-0.035245,-0.031213,-0.010682,0.38554,-0.8724,-0.1594,-0.3649,0.18837,0.61356,-0.027855,0.39737,0.46801,1.6722,0.11317,2.4465,0.0038877,1.6442,0.87314,1.2101,0.077547,-0.43421,0.12836,0.21857
-0.0086058,-0.024841,-0.024525,-0.0049276,0.37342,-0.68183,0.028884,-0.27908,0.16986,0.42074,-0.079402,0.15899,0.41786,1.6987,0.11337,2.1451,-0.0023627,1.6689,0.88078,1.3346,0.063443,-0.41184,0.11786,0.27474
-0.0011006,-0.0064204,-0.017413,0.0082901,0.34535,-0.47788,0.20168,-0.1664,0.14753,0.21378,-0.13469,-0.077534,0.369,1.744,0.10806,1.8163,-0.0067423,1.7562,0.8703,1.4953,0.047346,-0.40417,0.11552,0.32975
0.0050135,0.0089958,-0.014133,0.021796,0.30711,-0.25073,0.34913,-0.018667,0.12034,0.031719,-0.1838,-0.28101,0.33817,1.8265,0.10373,1.505,-0.0077424,1.869,0.84447,1.6593,0.031017,-0.43155,0.12189,0.37676
0.0056262,0.011087,-0.016432,0.02893,0.26799,-0.0178,0.45831,0.14369,0.086983,-0.11363,-0.2196,-0.44993,0.32766,1.9556,0.10523,1.2534,-0.0058765,1.9732,0.81216,1.8055,0.016619,-0.49612,0.13204,0.42297
0.00096873,-0.0015827,-0.022028,0.027969,0.23358,0.18582,0.51839,0.28139,0.046357,-0.24191,-0.24141,-0.60695,0.32572,2.1214,0.11193,1.086,-0.0032627,2.0508,0.78184,1.9281,0.0049559,-0.5774,0.13985,0.48432
-0.0041401,-0.019165,-0.026078,0.022933,0.20218,0.33224,0.52847,0.36301,-0.0015062,-0.38722,-0.25446,-0.78231,0.31671,2.2961,0.11813,1.0023,-0.0020145,2.1011,0.75572,2.0272,-0.0048815,-0.64537,0.14262,0.57462
-0.0039825,-0.027307,-0.024763,0.020094,0.16715,0.42052,0.50045,0.38771,-0.054701,-0.57069,-0.26527,-0.99611,0.29194,2.4453,0.11709,0.97969,-0.002599,2.1322,0.72902,2.0994,-0.014565,-0.68294,0.14165,0.69713
0.0031695,-0.018596,-0.018332,0.022908,0.12326,0.47581,0.45334,0.38562,-0.10944,-0.7811,-0.27665,-1.2477,0.25248,2.5408,0.10593,0.9829,-0.0033457,2.152,0.69501,2.1375,-0.025571,-0.7002,0.13909,0.84285
0.013078,0.00088596,-0.011147,0.02945,0.072604,0.5301,0.40283,0.39608,-0.16098,-0.97674,-0.28627,-1.5153,0.20334,2.5673,0.087614,0.97459,-0.0014319,2.1651,0.65198,2.1415,-0.039181,-0.72839,0.13442,0.99333
0.018471,0.016111,-0.0085384,0.034365,0.026329,0.60126,0.3541,0.44164,-0.20516,-1.1075,-0.29008,-1.7653,0.14619,2.5218,0.0689,0.92512,0.0053618,2.1746,0.60645,2.1297,-0.057144,-0.79697,0.12468,1.124
0.014798,0.015491,-0.012807,0.033578,0.0013053,0.68616,0.30327,0.51753,-0.23969,-1.1417,-0.28756,-1.9653,0.078305,2.41,0.05582,0.81947,0.017283,2.1828,0.56929,2.1355,-0.08186,-0.91107,0.10808,1.2055
0.0041212,0.00055051,-0.021475,0.02774,0.013847,0.77032,0.24518,0.60256,-0.26457,-1.0795,-0.28383,-2.0961,-0.0015009,2.2423,0.050002,0.65972,0.032429,2.1869,0.54716,2.187,-0.11534,-1.0465,0.087133,1.2051
-0.0062349,-0.015637,-0.029187,0.021587,0.073221,0.84284,0.18013,0.67986,-0.28142,-0.94466,-0.28626,-2.1559,-0.08638,2.0322,0.04843,0.4612,0.047748,2.1727,0.53594,2.2837,-0.15742,-1.1655,0.067555,1.092
-0.0093517,-0.019868,-0.031723,0.019945,0.17693,0.90307,0.11437,0.74946,-0.2922,-0.76335,-0.29784,-2.1551,-0.16143,1.7944,0.046546,0.2436,0.060544,2.1168,0.52182,2.388,-0.20439,-1.238,0.053477,0.85092
-0.0041273,-0.0098969,-0.028964,0.023835,0.3088,0.95498,0.055017,0.82362,-0.29818,-0.55056,-0.31305,-2.1048,-0.21108,1.5433,0.042067,0.021566,0.069558,1.9979,0.49018,2.4432,-0.24895,-1.2504,0.043485,0.49899
0.0040286,0.0045196,-0.024499,0.029862,0.44133,0.99659,0.0049952,0.91066,-0.30008,-0.31603,-0.32023,-2.0084,-0.22776,1.2933,0.03651,-0.19952,0.075052,1.8128,0.43581,2.4068,-0.2813,-1.196,0.031648,0.097142
0.0077554,0.011021,-0.022359,0.033176,0.5437,1.0159,-0.037163,1.0021,-0.29917,-0.085368,-0.30938,-1.8619,-0.21459,1.0611,0.033382,-0.4197,0.077931,1.5831,0.36654,2.2746,-0.29094,-1.0595,0.012811,-0.25861
0.0037437,0.0055298,-0.023704,0.031391,0.59531,0.99867,-0.073046,1.074,-0.29856,0.085489,-0.27974,-1.6639,-0.18044,0.86738,0.034797,-0.63556,0.078605,1.3442,0.29736,2.0807,-0.26897,-0.81704,-0.013076,-0.47047
-0.0047481,-0.0051305,-0.026151,0.026298,0.5991,0.94244,-0.10015,1.1014,-0.30319,0.1229,-0.24106,-1.427,-0.13211,0.73312,0.039532,-0.83326,0.076529,1.1256,0.23947,1.8728,-0.21119,-0.46013,-0.042137,-0.48562
-0.010771,-0.010529,-0.026199,0.022174,0.58553,0.86586,-0.11212,1.0739,-0.31788,-0.024617,-0.2075,-1.1794,-0.070542,0.67098,0.044177,-0.98941,0.070901,0.93577,0.19318,1.683,-0.12145,-0.026269,-0.072159,-0.33032
-0.0093756,-0.0063845,-0.022554,0.022218,0.59989,0.80391,-0.10341,1.0017,-0.34423,-0.34384,-0.18842,-0.95433,0.0067886,0.67579,0.046278,-1.0805,0.062024,0.765,0.14988,1.5166,-0.013351,0.39195,-0.10637,-0.10626
-0.0013941,0.0022381,-0.017553,0.025981,0.67654,0.79077,-0.07452,0.90825,-0.37839,-0.74484,-0.18311,-0.77305,0.10034,0.72302,0.046552,-1.0956,0.052104,0.602,0.10069,1.3624,0.09204,0.67769,-0.15024,0.0558
0.007547,0.006479,-0.015513,0.02971,0.81534,0.84098,-0.033045,0.81813,-0.41162,-1.0952,-0.18288,-0.63294,0.20522,0.77794,0.048132,-1.0455,0.044436,0.44925,0.044065,1.2125,0.17321,0.74809,-0.20304,0.061418
0.011549,0.0019191,-0.019409,0.029217,0.97781,0.94174,0.01033,0.74839,-0.43369,-1.2844,-0.17866,-0.51035,0.31238,0.81005,0.053438,-0.96172,0.041274,0.32212,-0.014258,1.0722,0.217,0.60278,-0.25254,-0.10205
0.0085792,-0.0083994,-0.028535,0.023013,1.1087,1.0619,0.04768,0.70853,-0.43743,-1.2786,-0.16801,-0.37422,0.41208,0.80315,0.061493,-0.88545,0.04196,0.23182,-0.067817,0.95185,0.22406,0.3276,-0.27971,-0.36771
0.0010962,-0.01829,-0.038906,0.01334,1.1699,1.1711,0.077003,0.70446,-0.42153,-1.1327,-0.15627,-0.19882,0.49642,0.75568,0.068173,-0.85036,0.043072,0.16682,-0.11572,0.85015,0.20724,0.047993,-0.27171,-0.63559
-0.0066613,-0.02495,-0.045972,0.0044525,1.1616,1.2566,0.10073,0.74005,-0.3902,-0.9517,-0.15172,0.034533,0.55959,0.67451,0.069271,-0.86616,0.040788,0.089382,-0.16236,0.74768,0.18357,-0.13805,-0.23298,-0.83062
-0.011904,-0.030956,-0.047523,-0.00040588,1.1173,1.3261,0.12166,0.81404,-0.35039,-0.82963,-0.15882,0.34402,0.59764,0.56935,0.063836,-0.91177,0.033759,-0.048712,-0.21117,0.61808,0.16512,-0.20421,-0.18403,-0.93432
-0.01436,-0.040107,-0.044712,-0.00097732,1.076,1.3973,0.14027,0.91651,-0.30871,-0.80351,-0.17501,0.74793,0.60949,0.45149,0.054971,-0.94334,0.024088,-0.28274,-0.25901,0.44907,0.15451,-0.19228,-0.14775,-0.97476
-0.014968,-0.051972,-0.040718,0.00042513,1.0549,1.4835,0.15526,1.0299,-0.26975,-0.84681,-0.1931,1.2481,0.59859,0.33366,0.047531,-0.91597,0.01547,-0.62072,-0.29763,0.25522,0.14715,-0.17065,-0.13391,-0.99066
-0.014137,-0.061138,-0.038303,0.0010435,1.0435,1.585,0.16601,1.1355,-0.23551,-0.89889,-0.20711,1.8031,0.57243,0.22611,0.04473,-0.80928,0.0099922,-1.0455,-0.32169,0.07102,0.13757,-0.18894,-0.1343,-1.0015
-0.011495,-0.062219,-0.038151,-0.00043361,1.0199,1.6925,0.17382,1.22,-0.205,-0.90609,-0.21684,2.3169,0.5389,0.12936,0.046422,-0.64236,0.0063148,-1.5263,-0.33604,-0.070105,0.12452,-0.2585,-0.13221,-1.0049
-0.0071112,-0.055641,-0.039038,-0.003664,0.97382,1.7947,0.18061,1.2779,-0.1739,-0.84841,-0.22768,2.6646,0.50181,0.030677,0.050213,-0.46706,0.00091152,-2.0273,-0.35527,-0.15339,0.11171,-0.3632,-0.1173,-0.99586
-0.0025275,-0.048238,-0.039345,-0.0078842,0.91494,1.8853,0.18693,1.3091,-0.13532,-0.74076,-0.2461,2.7524,0.45963,-0.089598,0.054154,-0.34108,-0.008637,-2.5064,-0.39447,-0.18298,0.10445,-0.4816,-0.092901,-0.98423
-0.00017694,-0.047711,-0.038496,-0.013065,0.86235,1.963,0.19187,1.3161,-0.082927,-0.61552,-0.27441,2.574,0.40933,-0.24362,0.058658,-0.29541,-0.021145,-2.9125,-0.45814,-0.16656,0.10551,-0.59936,-0.070516,-0.99097
-0.0015455,-0.055948,-0.037196,-0.019778,0.82691,2.0273,0.19529,1.3031,-0.015361,-0.50175,-0.3086,2.2218,0.352,-0.42391,0.066177,-0.3163,-0.032397,-3.1898,-0.5353,-0.10016,0.11298,-0.70689,-0.057755,-1.0256
-0.0058054,-0.067419,-0.036526,-0.028013,0.80311,2.0747,0.19981,1.2757,0.061203,-0.41296,-0.34088,1.8357,0.29508,-0.60344,0.079047,-0.35317,-0.038449,-3.2958,-0.60407,0.031289,0.12123,-0.7938,-0.051589,-1.0678
-0.01028,-0.074115,-0.036908,-0.036342,0.77624,2.0976,0.20951,1.2371,0.13507,-0.34607,-0.36461,1.5233,0.24846,-0.74858,0.097258,-0.34786,-0.038867,-3.2206,-0.64209,0.2366,0.12395,-0.85231,-0.04283,-1.073
-0.012373,-0.072512,-0.037877,-0.042512,0.73541,2.0881,0.22575,1.1847,0.19516,-0.28748,-0.37815,1.3071,0.21767,-0.83519,0.1177,-0.26645,-0.03706,-2.9942,-0.63594,0.49878,0.11741,-0.88788,-0.026901,-1.0026
-0.011287,-0.066356,-0.038656,-0.045123,0.67917,2.0417,0.24398,1.1101,0.23715,-0.22115,-0.38494,1.1329,0.20033,-0.8565,0.13538,-0.11475,-0.037276,-2.6732,-0.58511,0.77142,0.10231,-0.92359,-0.01021,-0.8543
-0.0081722,-0.062974,-0.038789,-0.044886,0.60971,1.9606,0.25512,1.0067,0.265,-0.13716,-0.39045,0.92883,0.18903,-0.81978,0.14576,0.069883,-0.040739,-2.3163,-0.50037,0.99697,0.082933,-0.98819,-0.0059304,-0.66666
-0.0049016,-0.066575,-0.03815,-0.044194,0.52454,1.8538,0.25149,0.87978,0.2864,-0.040156,-0.3987,0.66276,0.17759,-0.73791,0.14708,0.2413,-0.044239,-1.9634,-0.39909,1.135,0.064029,-1.0939,-0.023024,-0.49258
-0.0028001,-0.074388,-0.03648,-0.045172,0.41649,1.7333,0.23264,0.74784,0.30566,0.045278,-0.41078,0.35546,0.16469,-0.62514,0.14128,0.3659,-0.042454,-1.633,-0.2999,1.1808,0.047155,-1.2224,-0.058399,-0.3609
-0.002347,-0.078785,-0.033143,-0.047801,0.28334,1.6072,0.20632,0.63098,0.31955,0.078339,-0.4257,0.047582,0.15147,-0.49907,0.13312,0.43095,-0.032153,-1.3324,-0.21765,1.1622,0.029016,-1.3332,-0.098917,-0.257
-0.0036454,-0.073432,-0.027581,-0.049768,0.13705,1.4733,0.18364,0.53352,0.31917,0.018879,-0.44179,-0.24198,0.13589,-0.38339,0.12763,0.43992,-0.014826,-1.0698,-0.15936,1.1194,0.0031502,-1.3884,-0.13096,-0.13757
-0.0066942,-0.058452,-0.020139,-0.048365,0.0013712,1.3187,0.1723,0.43717,0.2964,-0.14744,-0.4571,-0.52623,0.10989,-0.30394,0.12726,0.40328,0.0043265,-0.85434,-0.12255,1.0838,-0.036262,-1.3762,-0.14896,0.032216
-0.011005,-0.040701,-0.012444,-0.043056,-0.10223,1.1271,0.17307,0.31336,0.24978,-0.39045,-0.46862,-0.82284,0.062587,-0.27748,0.13026,0.33282,0.020055,-0.68766,-0.097189,1.0675,-0.091319,-1.3123,-0.15625,0.24786
-0.015154,-0.029209,-0.0067976,-0.036598,-0.16878,0.89276,0.18182,0.14702,0.18588,-0.63943,-0.47186,-1.1202,-0.013025,-0.30025,0.13138,0.24165,0.030297,-0.55779,-0.071313,1.0664,-0.16,-1.2232,-0.15901,0.46351
-0.017198,-0.029322,-0.0048694,-0.03357,-0.21141,0.63039,0.19473,-0.047635,0.11573,-0.81367,-0.46216,-1.3731,-0.11539,-0.34549,0.12465,0.1458,0.036596,-0.44487,-0.037477,1.0683,-0.23769,-1.1254,-0.15999,0.61846
-0.015995,-0.039634,-0.0066175,-0.037173,-0.24917,0.37353,0.21243,-0.23294,0.049605,-0.86515,-0.43725,-1.5347,-0.23459,-0.3732,0.1068,0.063602,0.041907,-0.3359,0.0036429,1.0584,-0.31817,-1.0182,-0.15771,0.67143
-0.012382,-0.053465,-0.010276,-0.046647,-0.29178,0.16056,0.23995,-0.37067,-0.0061921,-0.80629,-0.39945,-1.5972,-0.35557,-0.34725,0.079255,0.011987,0.048081,-0.23413,0.044806,1.0224,-0.39246,-0.89342,-0.15036,0.61949
-0.0089626,-0.063357,-0.013471,-0.057438,-0.33437,0.01717,0.28329,-0.44274,-0.049203,-0.70208,-0.35531,-1.6029,-0.46092,-0.25091,0.047517,0.0017849,0.055079,-0.15249,0.077813,0.95079,-0.4472,-0.74613,-0.13907,0.49296
-0.0084052,-0.065285,-0.01465,-0.064202,-0.36513,-0.051938,0.34543,-0.45368,-0.078838,-0.62881,-0.31275,-1.6158,-0.5325,-0.093735,0.018157,0.034259,0.061993,-0.095148,0.09932,0.84377,-0.46591,-0.57564,-0.12659,0.33538
-0.011463,-0.059918,-0.013774,-0.064477,-0.37741,-0.057195,0.42433,-0.41641,-0.094892,-0.6254,-0.27706,-1.6751,-0.55469,0.091912,-0.0048217,0.09948,0.06828,-0.043744,0.11301,0.7142,-0.43491,-0.37644,-0.11311,0.18412
-0.016288,-0.05073,-0.01175,-0.060178,-0.37507,-0.01057,0.51329,-0.33754,-0.097545,-0.6711,-0.24822,-1.7697,-0.52124,0.2623,-0.022092,0.17708,0.073862,0.037014,0.12685,0.58216,-0.35173,-0.13391,-0.094643,0.060926
-0.019588,-0.040988,-0.0091873,-0.055777,-0.368,0.082636,0.60216,-0.21712,-0.088159,-0.70551,-0.2211,-1.8516,-0.44224,0.37743,-0.038102,0.24074,0.078308,0.17615,0.14751,0.46252,-0.23067,0.16444,-0.06724,-0.028414
-0.018787,-0.032051,-0.0056135,-0.054681,-0.36404,0.21935,0.67811,-0.061742,-0.069541,-0.67627,-0.18822,-1.8753,-0.34441,0.4146,-0.0575,0.26718,0.080369,0.37293,0.17537,0.35344,-0.10053,0.50897,-0.033762,-0.090425
-0.013623,-0.023863,5.9569e-005,-0.056749,-0.36561,0.38723,0.72692,0.10495,-0.045208,-0.57828,-0.14339,-1.8289,-0.26061,0.37557,-0.081086,0.24672,0.078627,0.5921,0.20325,0.23485,0.0056313,0.85832,-0.0062449,-0.13841
-0.006217,-0.016481,0.0082091,-0.058848,-0.37312,0.55988,0.73619,0.2483,-0.018284,-0.45427,-0.08435,-1.734,-0.2132,0.28406,-0.10412,0.18903,0.072624,0.7821,0.21929,0.079179,0.063813,1.1538,9.4485e-005,-0.18468
0.00025535,-0.010782,0.017586,-0.057741,-0.38984,0.707,0.7007,0.34339,0.0090289,-0.35726,-0.013257,-1.6199,-0.20243,0.1742,-0.11842,0.1184,0.063316,0.90318,0.21269,-0.13196,0.067792,1.3486,-0.022443,-0.23247
0.0032886,-0.0075731,0.025826,-0.052731,-0.42247,0.81326,0.62678,0.39298,0.035105,-0.30598,0.064614,-1.4968,-0.2088,0.075748,-0.11707,0.059701,0.052444,0.94534,0.17933,-0.3956,0.028348,1.4277,-0.067377,-0.27403
0.0021576,-0.0061536,0.031095,-0.045943,-0.47701,0.88935,0.53135,0.42607,0.058246,-0.27059,0.14281,-1.3543,-0.20807,0.0033735,-0.098448,0.024108,0.041586,0.92577,0.12437,-0.68678,-0.035973,1.4006,-0.11754,-0.29946
-0.0020102,-0.0040587,0.033443,-0.04032,-0.55483,0.9633,0.43412,0.47696,0.076525,-0.20003,0.21515,-1.1818,-0.1879,-0.044789,-0.066833,0.0047038,0.031841,0.87127,0.060293,-0.96985,-0.11005,1.2764,-0.15652,-0.31141
-0.0069876,0.0013691,0.034547,-0.037273,-0.65303,1.0574,0.34712,0.56151,0.088444,-0.067149,0.27632,-0.99131,-0.15408,-0.080238,-0.029496,-0.014797,0.02416,0.80136,0.0012537,-1.2157,-0.188,1.048,-0.17912,-0.33204
-0.01049,0.010781,0.036039,-0.035952,-0.76764,1.1699,0.26918,0.6696,0.093929,0.10714,0.32221,-0.81829,-0.12319,-0.11419,0.007185,-0.045538,0.019483,0.72405,-0.043287,-1.4159,-0.27057,0.70736,-0.19275,-0.39138
-0.011006,0.022012,0.037987,-0.034411,-0.89499,1.2777,0.19018,0.77817,0.094851,0.27039,0.35069,-0.69674,-0.10925,-0.15057,0.039636,-0.084844,0.018132,0.64387,-0.071752,-1.5871,-0.35737,0.282,-0.20937,-0.50191
-0.0081546,0.031587,0.039082,-0.031272,-1.0289,1.3588,0.10251,0.87236,0.094482,0.3796,0.36267,-0.631,-0.11542,-0.1847,0.06638,-0.11951,0.019046,0.57172,-0.088687,-1.7604,-0.44065,-0.14202,-0.23503,-0.63966
-0.0025801,0.037432,0.038378,-0.026402,-1.1571,1.4169,0.010502,0.95733,0.096019,0.42995,0.36258,-0.59003,-0.13569,-0.20635,0.086616,-0.13686,0.019988,0.52574,-0.099652,-1.9621,-0.50583,-0.44018,-0.2654,-0.75056
0.0043938,0.040461,0.036814,-0.020358,-1.2632,1.4842,-0.070442,1.0537,0.10091,0.44769,0.35712,-0.53218,-0.1625,-0.20464,0.10027,-0.13331,0.019072,0.52107,-0.10676,-2.1944,-0.53831,-0.50895,-0.28988,-0.78224
0.011159,0.043604,0.036722,-0.013558,-1.3326,1.6025,-0.12526,1.1834,0.10787,0.45744,0.3523,-0.44091,-0.19227,-0.17267,0.1095,-0.11398,0.016499,0.55651,-0.10815,-2.4286,-0.53164,-0.32489,-0.3,-0.71896
0.016192,0.049082,0.039527,-0.0061351,-1.359,1.7945,-0.15232,1.3585,0.11322,0.45682,0.35045,-0.33969,-0.22416,-0.1114,0.11931,-0.085599,0.014792,0.60928,-0.10144,-2.6169,-0.49128,0.041491,-0.29514,-0.59264
0.018448,0.056376,0.04382,0.0016295,-1.3421,2.0489,-0.16748,1.578,0.1124,0.42275,0.3495,-0.27003,-0.25526,-0.032184,0.13531,-0.050986,0.016994,0.64332,-0.087838,-2.7181,-0.43167,0.46932,-0.28201,-0.46107
0.017729,0.062753,0.045994,0.0090866,-1.2784,2.3291,-0.19525,1.8307,0.10201,0.34193,0.34541,-0.24824,-0.27836,0.043879,0.15945,-0.011039,0.024065,0.6265,-0.073354,-2.7211,-0.36883,0.85717,-0.26917,-0.37064
0.014787,0.065881,0.043253,0.015621,-1.1562,2.5951,-0.25341,2.0981,0.081313,0.23473,0.33621,-0.23742,-0.28543,0.091634,0.18722,0.028025,0.033654,0.54578,-0.065953,-2.652,-0.31309,1.1681,-0.2616,-0.33272
0.010954,0.066013,0.036353,0.02115,-0.96233,2.8205,-0.34232,2.3581,0.052228,0.14706,0.32425,-0.16199,-0.2734,0.092145,0.20925,0.049732,0.041359,0.41086,-0.071152,-2.5592,-0.26583,1.4207,-0.25853,-0.33017
0.007393,0.065557,0.029326,0.025972,-0.70009,2.996,-0.44586,2.5909,0.017895,0.11533,0.31455,0.041275,-0.24619,0.042882,0.2169,0.030554,0.043618,0.24522,-0.089593,-2.4861,-0.22133,1.6414,-0.25536,-0.34435
0.0045111,0.066386,0.026142,0.030005,-0.40337,3.1205,-0.54172,2.7876,-0.0193,0.13452,0.3103,0.37308,-0.21056,-0.038815,0.20777,-0.050067,0.040094,0.072331,-0.11825,-2.4514,-0.17211,1.8233,-0.24737,-0.37683
0.0020151,0.067541,0.027221,0.032308,-0.13002,3.1949,-0.61237,2.9552,-0.05859,0.1582,0.30939,0.76193,-0.16969,-0.1228,0.18717,-0.20004,0.033824,-0.093065,-0.15374,-2.4489,-0.11457,1.9261,-0.23282,-0.44646
-0.00042912,0.065765,0.029069,0.031603,0.065468,3.2219,-0.64979,3.1093,-0.099493,0.13163,0.30542,1.1043,-0.12123,-0.1808,0.1644,-0.41192,0.029098,-0.24413,-0.19465,-2.4647,-0.051965,1.9139,-0.21363,-0.56598
-0.0025811,0.058561,0.027503,0.027434,0.16216,3.2118,-0.65348,3.2597,-0.13892,0.031758,0.29253,1.3257,-0.062731,-0.20001,0.14699,-0.66798,0.028586,-0.3756,-0.24111,-2.4952,0.0066097,1.794,-0.19365,-0.7205
-0.003686,0.046859,0.021568,0.020853,0.18233,3.183,-0.62691,3.3991,-0.16905,-0.11662,0.27014,1.4185,0.00020008,-0.18742,0.13707,-0.94799,0.03162,-0.48047,-0.2925,-2.5482,0.050644,1.6205,-0.17587,-0.86878
-0.0031634,0.034656,0.014561,0.013967,0.17257,3.1533,-0.57683,3.5053,-0.17863,-0.25783,0.24335,1.431,0.051691,-0.16262,0.13186,-1.2336,0.034708,-0.5545,-0.34604,-2.628,0.073524,1.4583,-0.16041,-0.96809
-0.0011911,0.025895,0.01124,0.0088031,0.17146,3.1282,-0.51488,3.556,-0.15814,-0.33892,0.21842,1.4233,0.073534,-0.14494,0.12709,-1.5072,0.033917,-0.60532,-0.39767,-2.7162,0.075821,1.3377,-0.14487,-1.0027
0.0014744,0.021606,0.013787,0.0065448,0.18928,3.0953,-0.45729,3.5426,-0.10613,-0.33411,0.19746,1.4257,0.058506,-0.14385,0.12005,-1.7497,0.027621,-0.65661,-0.44446,-2.7699,0.06489,1.2389,-0.1267,-0.99329
0.0042817,0.020017,0.020131,0.0076092,0.21328,3.0304,-0.42006,3.4702,-0.032268,-0.24717,0.17686,1.4304,0.018132,-0.15799,0.11012,-1.9403,0.017805,-0.74039,-0.48598,-2.7403,0.05133,1.1144,-0.10593,-0.98004
0.007412,0.0193,0.025951,0.012074,0.22897,2.9118,-0.41153,3.3458,0.045831,-0.098796,0.15106,1.4136,-0.022796,-0.18154,0.097362,-2.0635,0.0089674,-0.87927,-0.52316,-2.5999,0.044511,0.93102,-0.085949,-0.99385
0.011394,0.019919,0.028342,0.019672,0.23537,2.7339,-0.42805,3.1693,0.11079,0.085356,0.11815,1.3626,-0.042027,-0.21171,0.081411,-2.1165,0.0052285,-1.0701,-0.55536,-2.3567,0.049429,0.69491,-0.071624,-1.0382
0.016129,0.02399,0.027865,0.029262,0.24096,2.5095,-0.45616,2.9371,0.15333,0.27732,0.082257,1.2834,-0.034052,-0.25151,0.062345,-2.1131,0.0075672,-1.2818,-0.57856,-2.0465,0.065874,0.44464,-0.065967,-1.0936
0.020364,0.032232,0.027443,0.038527,0.24742,2.2627,-0.48028,2.6551,0.17454,0.445,0.050508,1.1856,-0.011544,-0.3064,0.042711,-2.0802,0.013147,-1.4724,-0.5869,-1.7122,0.089497,0.22309,-0.067904,-1.1366
0.022324,0.041737,0.029433,0.044639,0.24026,2.0168,-0.49014,2.3476,0.18131,0.55521,0.026971,1.0651,0.0066807,-0.37833,0.02803,-2.046,0.017222,-1.615,-0.57735,-1.3861,0.1138,0.054247,-0.072769,-1.1546
0.021096,0.047191,0.03356,0.045762,0.19705,1.7875,-0.48345,2.0491,0.17884,0.58425,0.0086382,0.90264,0.010756,-0.46244,0.024041,-2.03,0.016169,-1.7158,-0.55407,-1.0888,0.1323,-0.059782,-0.075351,-1.1451
0.017535,0.044835,0.037291,0.042322,0.10584,1.5826,-0.4627,1.7868,0.16651,0.52847,-0.013012,0.67981,0.0052909,-0.54908,0.032005,-2.0361,0.0093433,-1.8102,-0.52914,-0.83784,0.14038,-0.12712,-0.073497,-1.1045
0.013819,0.035614,0.037961,0.036856,-0.023992,1.408,-0.42976,1.5679,0.14009,0.40501,-0.045749,0.39787,0.0014752,-0.62935,0.046073,-2.0557,-0.0014639,-1.9381,-0.51825,-0.65345,0.13635,-0.15605,-0.069911,-1.0221
0.011958,0.024437,0.034659,0.032263,-0.16803,1.2716,-0.38279,1.3844,0.097983,0.24126,-0.090014,0.083138,0.0037056,-0.69935,0.055872,-2.0753,-0.014128,-2.1153,-0.53354,-0.55314,0.12123,-0.15559,-0.07083,-0.88978
0.012451,0.015989,0.028475,0.029606,-0.30329,1.1801,-0.31801,1.2278,0.045686,0.061593,-0.13665,-0.2222,0.0030916,-0.7598,0.053385,-2.0866,-0.027768,-2.321,-0.57801,-0.54054,0.097413,-0.14108,-0.082068,-0.71846
0.014179,0.010808,0.021293,0.027255,-0.41924,1.1307,-0.23489,1.0984,-0.0057299,-0.11855,-0.17058,-0.47332,-0.016387,-0.81195,0.038953,-2.094,-0.042466,-2.5102,-0.64466,-0.6012,0.067283,-0.13379,-0.10473,-0.54364
0.01552,0.0053175,0.014464,0.022398,-0.51525,1.103,-0.14022,0.99742,-0.045946,-0.2892,-0.17827,-0.63111,-0.064697,-0.85509,0.021134,-2.1153,-0.057822,-2.6427,-0.72069,-0.71153,0.032865,-0.15182,-0.13339,-0.40882
0.015722,-0.0039788,0.0084799,0.014058,-0.59096,1.0598,-0.046849,0.91311,-0.071309,-0.44067,-0.15501,-0.66739,-0.13707,-0.88935,0.0098263,-2.1768,-0.072251,-2.7069,-0.79377,-0.85347,-0.0032224,-0.20067,-0.15842,-0.33723
0.015394,-0.015879,0.0036528,0.0051503,-0.6415,0.95912,0.033376,0.81638,-0.085496,-0.56564,-0.10805,-0.57453,-0.21688,-0.9221,0.0079678,-2.301,-0.08411,-2.7226,-0.85693,-1.0209,-0.036837,-0.27392,-0.17137,-0.31555
0.01577,-0.023918,0.00083644,0.0013691,-0.66262,0.77374,0.09799,0.67681,-0.094721,-0.6676,-0.053969,-0.37854,-0.28673,-0.97082,0.008781,-2.4918,-0.09361,-2.7209,-0.90956,-1.2116,-0.063027,-0.36357,-0.17007,-0.30639
0.01742,-0.021109,0.0012238,0.0070393,-0.65864,0.5076,0.1565,0.48733,-0.10177,-0.76531,-0.011254,-0.14159,-0.33779,-1.0569,0.0010623,-2.7234,-0.10327,-2.7178,-0.95461,-1.4114,-0.078551,-0.46906,-0.15982,-0.28133
0.019521,-0.006516,0.0051892,0.02092,-0.64313,0.19692,0.22352,0.27511,-0.10385,-0.88283,0.0084214,0.060191,-0.3701,-1.1927,-0.021948,-2.94,-0.1158,-2.7018,-0.99429,-1.5886,-0.084323,-0.59456,-0.14979,-0.24732
0.020363,0.012012,0.011191,0.035733,-0.63078,-0.10681,0.30613,0.085729,-0.095762,-1.0273,0.0054199,0.17884,-0.38556,-1.3715,-0.057778,-3.0701,-0.13104,-2.6438,-1.0269,-1.7048,-0.085327,-0.7362,-0.14709,-0.24219
0.018728,0.022124,0.015957,0.04266,-0.62821,-0.3637,0.39472,-0.048967,-0.075168,-1.1713,-0.0095318,0.22839,-0.38177,-1.5695,-0.098017,-3.0526,-0.14475,-2.5224,-1.047,-1.7366,-0.087334,-0.87233,-0.15265,-0.30133
0.015023,0.015911,0.016257,0.037865,-0.63285,-0.56482,0.46563,-0.13342,-0.045464,-1.2568,-0.023439,0.279,-0.35332,-1.7606,-0.13645,-2.864,-0.15113,-2.343,-1.0495,-1.6886,-0.092615,-0.9687,-0.16144,-0.42273
0.011185,-0.0032104,0.011139,0.025825,-0.64,-0.73054,0.495,-0.20236,-0.013893,-1.2257,-0.030525,0.40647,-0.29912,-1.9318,-0.17452,-2.5312,-0.14727,-2.1363,-1.0336,-1.5882,-0.098069,-0.99696,-0.16627,-0.56061
0.0093496,-0.021727,0.0028902,0.016279,-0.65013,-0.8887,0.47468,-0.29156,0.013233,-1.0574,-0.036526,0.62967,-0.22792,-2.0891,-0.21944,-2.1209,-0.13577,-1.9361,-1.0051,-1.4641,-0.09751,-0.95198,-0.16209,-0.65411
0.010302,-0.025543,-0.0042727,0.016735,-0.66848,-1.0492,0.41836,-0.40999,0.034113,-0.78945,-0.054492,0.88413,-0.15576,-2.2479,-0.27698,-1.7097,-0.12293,-1.7559,-0.97294,-1.3275,-0.086501,-0.85337,-0.14812,-0.66855
0.012883,-0.011003,-0.0069714,0.026501,-0.69771,-1.1954,0.35338,-0.53641,0.050995,-0.50278,-0.095032,1.0565,-0.096536,-2.4173,-0.34566,-1.3474,-0.11389,-1.5818,-0.94312,-1.1705,-0.06597,-0.72982,-0.12726,-0.61644
0.014786,0.011499,-0.0048682,0.037325,-0.73171,-1.2985,0.30392,-0.64118,0.066381,-0.2821,-0.15815,1.0588,-0.053496,-2.5897,-0.41716,-1.0356,-0.10867,-1.3906,-0.91412,-0.98037,-0.041837,-0.59955,-0.10409,-0.54286
0.014084,0.025034,-0.00069104,0.040341,-0.75704,-1.3436,0.2775,-0.71309,0.07936,-0.17436,-0.23252,0.88873,-0.019021,-2.7405,-0.48149,-0.73289,-0.10278,-1.1764,-0.8787,-0.75787,-0.021143,-0.46253,-0.082893,-0.48895
0.010368,0.019408,0.0017667,0.033541,-0.76149,-1.3437,0.26375,-0.76783,0.085309,-0.17148,-0.30205,0.63185,0.017593,-2.8377,-0.53152,-0.38312,-0.091852,-0.96568,-0.83129,-0.52236,-0.0079284,-0.3097,-0.066371,-0.46365
