8.9713e-010,2.3711e-009,-1.447e-010,4.3236e-009,3.6464e-010,7.2735e-010,-8.6819e-011,2.0547e-009,3.7236e-010,1.5685e-009,5.1918e-009,5.7358e-009,8.6819e-011,-1.0515e-009,5.3442e-010,-3.0271e-009,1.3061e-009,-1.4275e-008,-1.534e-008,2.3441e-009,1.5878e-009,3.2818e-009,1.2508e-008,1.1788e-009
2.459e-008,6.5503e-008,-4.1374e-009,1.1945e-007,1.0042e-008,2.0427e-008,-2.4068e-009,5.7177e-008,1.0093e-008,4.6088e-008,1.4517e-007,1.5809e-007,2.5766e-009,-2.8006e-008,1.5088e-008,-8.4718e-008,3.5773e-008,-3.9191e-007,-4.3001e-007,6.3904e-008,4.2913e-008,8.9124e-008,3.4616e-007,3.144e-008
3.2738e-007,8.7938e-007,-5.7475e-008,1.6042e-006,1.344e-007,2.7903e-007,-3.248e-008,7.7405e-007,1.3267e-007,6.605e-007,1.9749e-006,2.1167e-006,3.7484e-008,-3.5942e-007,2.0757e-007,-1.1544e-006,4.7586e-007,-5.2254e-006,-5.8668e-006,8.4524e-007,5.6224e-007,1.1728e-006,4.6561e-006,4.0502e-007
2.8202e-006,7.6429e-006,-5.1639e-007,1.3951e-005,1.1648e-006,2.4699e-006,-2.8439e-007,6.7926e-006,1.1254e-006,6.1528e-006,1.7414e-005,1.8339e-005,3.5605e-007,-2.9528e-006,1.8547e-006,-1.0206e-005,4.0952e-006,-4.5067e-005,-5.1909e-005,7.2237e-006,4.7547e-006,9.9546e-006,4.055e-005,3.3518e-006
1.7664e-005,4.833e-005,-3.3695e-006,8.8301e-005,7.3473e-006,1.5923e-005,-1.8171e-006,4.3432e-005,6.9139e-006,4.1886e-005,0.00011188,0.00011552,2.4814e-006,-1.7385e-005,1.2103e-005,-6.5815e-005,2.5621e-005,-0.00028249,-0.00033482,4.4814e-005,2.9144e-005,6.1179e-005,0.00025696,1.9983e-005
8.5689e-005,0.00023688,-1.6992e-005,0.00043332,3.594e-005,7.9658e-005,-9.0356e-006,0.00021563,3.2691e-005,0.00022211,0.00055803,0.00056346,1.3518e-005,-7.7671e-005,6.1501e-005,-0.00032998,0.00012413,-0.0013706,-0.0016777,0.00021489,0.00013778,0.00028958,0.0012623,9.1124e-005
0.0003348,0.00093594,-6.8785e-005,0.0017147,0.00014183,0.00032174,-3.6419e-005,0.00086484,0.00012328,0.00095478,0.0022479,0.0022122,5.9895e-005,-0.00027116,0.00025336,-0.0013385,0.00048424,-0.0053512,-0.0067945,0.00082776,0.00052163,0.0010954,0.0049988,0.0003289
0.0010814,0.0030603,-0.000229,0.0056176,0.00046375,0.0010775,-0.00012239,0.0028782,0.00037835,0.0034185,0.0075099,0.007172,0.00022172,-0.00074558,0.0008698,-0.0045134,0.0015611,-0.017248,-0.022843,0.0026272,0.0016197,0.0033872,0.016383,0.00095643
0.0029394,0.0084324,-0.00063676,0.015515,0.00128,0.0030489,-0.00035022,0.0080998,0.0009521,0.010393,0.021196,0.01953,0.00069916,-0.0015818,0.0025384,-0.012896,0.0042338,-0.046686,-0.064962,0.0069866,0.0041842,0.0086697,0.045253,0.0022474
0.0068061,0.019827,-0.001491,0.036582,0.0030229,0.0073892,-0.00086732,0.01954,0.0019486,0.027214,0.051207,0.045151,0.0019058,-0.0023561,0.006392,-0.031661,0.0097756,-0.1073,-0.15839,0.015733,0.0090486,0.018416,0.10667,0.0041877
0.013527,0.04011,-0.0029432,0.074248,0.0061676,0.015492,-0.001884,0.040807,0.0031166,0.062025,0.10682,0.089081,0.0045425,-0.0013468,0.014047,-0.067484,0.019361,-0.2106,-0.33426,0.030152,0.01633,0.032114,0.21637,0.0057527
0.023152,0.07012,-0.004854,0.1303,0.010948,0.028302,-0.0036308,0.0743,0.0033505,0.12402,0.19344,0.1498,0.009558,0.0051523,0.027182,-0.1258,0.033002,-0.35287,-0.61446,0.049134,0.024139,0.044211,0.37932,0.0040956
0.034087,0.10599,-0.0065022,0.19781,0.016993,0.045291,-0.0062723,0.11851,0.00026332,0.21887,0.30457,0.21238,0.017904,0.022244,0.046638,-0.20614,0.048357,-0.50048,-0.98736,0.067453,0.027648,0.042047,0.57516,-0.0054234
0.042853,0.13798,-0.006512,0.25873,0.023171,0.063762,-0.0098048,0.16611,-0.0096217,0.34246,0.41585,0.2462,0.030109,0.053313,0.071343,-0.29784,0.060511,-0.58646,-1.3879,0.076128,0.019974,0.0083892,0.75129,-0.027174
0.045222,0.1531,-0.003309,0.28846,0.027943,0.079351,-0.013992,0.20516,-0.029575,0.47699,0.48807,0.21351,0.045881,0.094643,0.09774,-0.37992,0.063753,-0.53166,-1.7028,0.066373,-0.0041401,-0.069042,0.83632,-0.0609
0.038619,0.14185,0.0038736,0.26822,0.030225,0.088043,-0.018384,0.22422,-0.060434,0.59423,0.48291,0.089195,0.064073,0.13101,0.12041,-0.42792,0.055166,-0.28924,-1.8134,0.036028,-0.042997,-0.18392,0.77514,-0.097007
0.024433,0.10552,0.013988,0.19906,0.030271,0.088713,-0.02241,0.21932,-0.098636,0.66747,0.38576,-0.11798,0.083158,0.13763,0.134,-0.42557,0.037943,0.11173,-1.6607,-0.0058749,-0.084575,-0.30272,0.56662,-0.1154
0.0082231,0.058296,0.024089,0.10658,0.029768,0.084269,-0.025532,0.19758,-0.13622,0.68674,0.22116,-0.35923,0.10189,0.091757,0.13573,-0.37458,0.021488,0.56,-1.2929,-0.041377,-0.1091,-0.37166,0.27324,-0.091232
-0.0030885,0.02056,0.030726,0.029326,0.030769,0.080003,-0.027376,0.17393,-0.16373,0.66625,0.046701,-0.56515,0.11944,-0.0097256,0.127,-0.29499,0.017009,0.91203,-0.85174,-0.053534,-0.098205,-0.34104,-0.01411,-0.0068739
-0.0056264,0.0065961,0.032195,-0.0044532,0.034029,0.079876,-0.027835,0.16164,-0.17482,0.63588,-0.075653,-0.68267,0.13454,-0.13833,0.11325,-0.21422,0.030768,1.0751,-0.49513,-0.038163,-0.045842,-0.19517,-0.23682,0.13602
-0.0013232,0.015123,0.030008,0.0043707,0.038048,0.083493,-0.027092,0.16348,-0.16988,0.61876,-0.11443,-0.70532,0.144,-0.24,0.10168,-0.15174,0.059658,1.0666,-0.30243,-0.0081703,0.036506,0.032462,-0.40619,0.31259
0.0034408,0.030507,0.02808,0.026769,0.039854,0.086417,-0.025573,0.17037,-0.15607,0.6098,-0.086487,-0.67318,0.14183,-0.26146,0.098099,-0.11024,0.092664,1.0003,-0.22976,0.014355,0.12497,0.27183,-0.57986,0.48353
0.0026592,0.034443,0.02986,0.027525,0.037217,0.08386,-0.023797,0.16923,-0.14334,0.57232,-0.045364,-0.64131,0.1204,-0.18333,0.10414,-0.079586,0.11732,1.0042,-0.14977,0.013296,0.19568,0.45063,-0.78955,0.61268
-0.0047218,0.01925,0.035528,-0.0081179,0.030625,0.074772,-0.022199,0.15375,-0.13919,0.45834,-0.049048,-0.6407,0.073519,-0.037221,0.11626,-0.049267,0.12617,1.129,0.054432,-0.011023,0.23583,0.52741,-0.9828,0.68314
-0.014257,-0.0077154,0.041729,-0.064443,0.023303,0.062819,-0.020966,0.12934,-0.14505,0.24102,-0.12938,-0.66231,-4.6856e-005,0.10825,0.12714,-0.018393,0.11845,1.3162,0.41175,-0.044896,0.24588,0.50235,-1.0403,0.70204
-0.020003,-0.031578,0.044362,-0.10998,0.019049,0.053377,-0.01998,0.10799,-0.15614,-0.062917,-0.28082,-0.67432,-0.094777,0.18613,0.12892,0.0051261,0.096298,1.4481,0.85484,-0.075246,0.23324,0.4026,-0.87029,0.69138
-0.019697,-0.042425,0.042203,-0.12432,0.019516,0.049234,-0.018878,0.097957,-0.16379,-0.39596,-0.46892,-0.65387,-0.19933,0.16941,0.11711,0.014273,0.060139,1.4361,1.2758,-0.10205,0.20412,0.25886,-0.50696,0.67186
-0.01669,-0.04206,0.038203,-0.11423,0.023123,0.04875,-0.017225,0.097317,-0.15852,-0.68569,-0.64565,-0.60308,-0.29941,0.082832,0.092947,0.011693,0.0080488,1.2741,1.5948,-0.13768,0.16074,0.093338,-0.1248,0.65023
-0.01704,-0.040191,0.037134,-0.10594,0.026462,0.047914,-0.014746,0.096713,-0.13278,-0.87639,-0.76034,-0.53694,-0.38095,-0.018419,0.062775,0.009131,-0.059936,1.0244,1.7923,-0.19338,0.10457,-0.075237,0.061056,0.61731
-0.024321,-0.044759,0.041558,-0.12152,0.026927,0.044122,-0.011548,0.088237,-0.083547,-0.94772,-0.76597,-0.45882,-0.43233,-0.085828,0.034702,0.01833,-0.13689,0.75692,1.8985,-0.26505,0.040375,-0.22115,-0.058455,0.55542
-0.036552,-0.055661,0.049656,-0.16041,0.024361,0.038155,-0.0081515,0.07201,-0.014548,-0.91362,-0.6281,-0.35114,-0.44591,-0.1033,0.014556,0.042112,-0.20879,0.50362,1.9634,-0.3317,-0.024069,-0.31191,-0.40467,0.44851
-0.047702,-0.066798,0.056828,-0.20168,0.020495,0.032756,-0.0052481,0.054757,0.063189,-0.80819,-0.33902,-0.19248,-0.41918,-0.086242,0.0038266,0.073809,-0.26026,0.26079,2.0355,-0.36852,-0.082373,-0.32295,-0.76194,0.2885
-0.052362,-0.073133,0.059556,-0.22335,0.016983,0.029486,-0.0032303,0.042405,0.1342,-0.67049,0.069572,0.015008,-0.35568,-0.060465,0.00077176,0.10498,-0.28217,0.026385,2.1519,-0.36347,-0.133,-0.25526,-0.92561,0.076749
-0.049711,-0.075275,0.058015,-0.22079,0.013983,0.026987,-0.0018435,0.03418,0.1846,-0.53544,0.52631,0.23515,-0.26467,-0.04121,0.0033721,0.13375,-0.27506,-0.17435,2.3286,-0.32341,-0.178,-0.14013,-0.83597,-0.17597
-0.043792,-0.077538,0.05522,-0.20848,0.010468,0.022221,-0.00030214,0.023789,0.208,-0.42981,0.93603,0.4159,-0.15931,-0.027861,0.011407,0.16585,-0.24643,-0.30376,2.5471,-0.2655,-0.21851,-0.025548,-0.60078,-0.44771
-0.040176,-0.08239,0.053787,-0.20516,0.0056803,0.013379,0.0021337,0.0061626,0.20743,-0.36881,1.2056,0.52059,-0.053686,-0.014133,0.025812,0.2078,-0.205,-0.35188,2.7498,-0.2032,-0.25238,0.046759,-0.39897,-0.70381
-0.041817,-0.087572,0.05351,-0.21722,0.00012601,0.0017033,0.0056024,-0.017035,0.19165,-0.35215,1.2688,0.54554,0.040119,-0.00086097,0.045981,0.25845,-0.15743,-0.35918,2.8552,-0.14018,-0.27654,0.058477,-0.34918,-0.90104
-0.047175,-0.088875,0.051928,-0.23488,-0.0048761,-0.0093693,0.0096434,-0.038537,0.16878,-0.36307,1.104,0.51139,0.11397,0.00090946,0.067622,0.30667,-0.10955,-0.39437,2.7897,-0.076821,-0.29155,0.01707,-0.4445,-1.0007
-0.051732,-0.085394,0.047093,-0.24302,-0.0084758,-0.01687,0.013765,-0.052096,0.14235,-0.37454,0.73978,0.44034,0.16468,-0.021704,0.083446,0.33692,-0.069155,-0.50258,2.517,-0.020613,-0.30253,-0.054359,-0.59006,-0.98626
-0.051473,-0.081436,0.039742,-0.23534,-0.010994,-0.020446,0.017955,-0.058215,0.11244,-0.36222,0.25085,0.34254,0.19414,-0.071705,0.08665,0.33862,-0.045442,-0.66859,2.049,0.012331,-0.31452,-0.1305,-0.69403,-0.87284
-0.045698,-0.082744,0.032845,-0.21896,-0.013349,-0.022309,0.0225,-0.063544,0.080046,-0.31746,-0.26124,0.22224,0.20848,-0.13674,0.07474,0.31238,-0.043906,-0.82805,1.44,0.0085106,-0.32641,-0.19276,-0.72818,-0.70054
-0.037245,-0.090621,0.029116,-0.20645,-0.015918,-0.025295,0.027267,-0.074631,0.049589,-0.25274,-0.69807,0.092909,0.21555,-0.19353,0.050733,0.26982,-0.060917,-0.91851,0.77292,-0.02867,-0.33014,-0.23162,-0.71559,-0.51313
-0.030255,-0.099878,0.028819,-0.20404,-0.018147,-0.030741,0.031313,-0.091953,0.026626,-0.19637,-0.996,-0.019035,0.22101,-0.21879,0.020609,0.22795,-0.083901,-0.92804,0.14357,-0.076144,-0.31709,-0.245,-0.67455,-0.33751
-0.027317,-0.10298,0.029713,-0.20697,-0.019355,-0.037831,0.033519,-0.10975,0.01282,-0.18019,-1.1436,-0.08889,0.22505,-0.20037,-0.011282,0.20176,-0.09877,-0.90274,-0.36081,-0.10526,-0.28627,-0.23531,-0.58329,-0.1797
-0.028101,-0.096721,0.028941,-0.20538,-0.019876,-0.044654,0.033827,-0.12162,0.0035657,-0.22712,-1.1741,-0.11379,0.22191,-0.14333,-0.045468,0.19842,-0.099554,-0.90986,-0.6903,-0.10256,-0.24617,-0.20662,-0.40103,-0.039614
-0.030237,-0.08521,0.025101,-0.19389,-0.021236,-0.049913,0.033786,-0.12662,-0.0084052,-0.34353,-1.138,-0.11769,0.20325,-0.068465,-0.086566,0.21516,-0.092273,-0.98918,-0.8551,-0.079903,-0.20761,-0.16228,-0.12002,0.06993
-0.031404,-0.076389,0.018875,-0.17583,-0.025036,-0.053884,0.035543,-0.13017,-0.025873,-0.51664,-1.0734,-0.134,0.16359,-0.0033961,-0.13853,0.24141,-0.089203,-1.13,-0.92148,-0.064393,-0.17348,-0.10401,0.20794,0.11926
-0.030805,-0.075181,0.012033,-0.15881,-0.031507,-0.05797,0.03992,-0.13938,-0.042925,-0.71531,-0.99162,-0.17981,0.1044,0.03051,-0.19908,0.26492,-0.097541,-1.2856,-0.97322,-0.075394,-0.13539,-0.033766,0.50165,0.079195
-0.028973,-0.079458,0.0059005,-0.14692,-0.039071,-0.063345,0.045325,-0.15687,-0.04818,-0.89382,-0.88528,-0.24346,0.034271,0.029159,-0.2575,0.27903,-0.1115,-1.4055,-1.059,-0.10677,-0.081348,0.042438,0.71232,-0.05423
-0.026482,-0.082219,0.00056238,-0.13708,-0.045307,-0.069839,0.048706,-0.1787,-0.033373,-1.0006,-0.74616,-0.29521,-0.034739,0.0078015,-0.29832,0.28677,-0.11445,-1.4595,-1.163,-0.12861,-0.0089321,0.11188,0.86048,-0.25052
-0.023043,-0.077694,-0.0047271,-0.12265,-0.048476,-0.075976,0.047949,-0.19776,-0.00012839,-0.99306,-0.57809,-0.30989,-0.092092,-0.0087012,-0.30939,0.2981,-0.090038,-1.4411,-1.2215,-0.10716,0.067685,0.15747,1.0137,-0.46195
-0.017946,-0.065828,-0.010526,-0.10022,-0.048413,-0.080155,0.043736,-0.20934,0.040963,-0.85343,-0.39654,-0.28169,-0.13255,-0.0024701,-0.28953,0.32126,-0.034015,-1.3613,-1.1748,-0.028016,0.12381,0.16569,1.224,-0.65562
-0.011296,-0.051546,-0.016549,-0.072962,-0.046348,-0.082031,0.039258,-0.21407,0.078031,-0.59898,-0.21983,-0.22069,-0.15731,0.024971,-0.25066,0.35401,0.041695,-1.2446,-1.0141,0.094186,0.13956,0.1358,1.4785,-0.8341
-0.0045949,-0.040185,-0.021921,-0.047875,-0.044131,-0.082943,0.037996,-0.21647,0.10543,-0.27777,-0.062723,-0.13833,-0.17257,0.054067,-0.21208,0.38183,0.11545,-1.128,-0.78923,0.22513,0.11284,0.083386,1.7029,-1.0262
0.00017282,-0.03355,-0.02602,-0.02986,-0.043515,-0.084925,0.04136,-0.22078,0.12457,0.048358,0.062642,-0.037915,-0.18639,0.062486,-0.19014,0.38563,0.16799,-1.0548,-0.57541,0.33107,0.060284,0.034192,1.8098,-1.2525
0.002261,-0.029759,-0.029087,-0.018053,-0.045594,-0.088985,0.047962,-0.22805,0.13807,0.32531,0.14274,0.082092,-0.20479,0.043276,-0.18936,0.35383,0.19208,-1.0543,-0.42612,0.39571,0.0065749,0.010941,1.7504,-1.4923
0.0030041,-0.026053,-0.032034,-0.007354,-0.050206,-0.09404,0.054821,-0.23623,0.14369,0.521,0.16394,0.21804,-0.22857,0.011626,-0.20078,0.29021,0.19397,-1.1217,-0.34825,0.4241,-0.028734,0.021311,1.532,-1.679
0.0047879,-0.021283,-0.035628,0.0067833,-0.055532,-0.097533,0.059364,-0.24255,0.13475,0.62704,0.12144,0.35672,-0.25258,-0.0057991,-0.20849,0.21165,0.18717,-1.2129,-0.31201,0.43407,-0.03764,0.055086,1.2017,-1.7309
0.008916,-0.01593,-0.039855,0.024753,-0.058624,-0.09745,0.060754,-0.24585,0.107,0.65136,0.029061,0.48173,-0.26843,0.0090733,-0.2,0.13793,0.1833,-1.2649,-0.28242,0.443,-0.021371,0.092044,0.82258,-1.6008
0.014317,-0.010488,-0.04406,0.043262,-0.057215,-0.094218,0.059928,-0.24708,0.065598,0.61038,-0.079917,0.58413,-0.26937,0.052426,-0.17349,0.081395,0.18577,-1.2282,-0.24683,0.45832,0.015214,0.11458,0.46478,-1.31
0.018424,-0.0045511,-0.047762,0.058982,-0.051784,-0.090835,0.058728,-0.24819,0.024854,0.5261,-0.16448,0.66662,-0.25435,0.10293,-0.13761,0.043641,0.18917,-1.091,-0.22142,0.47562,0.066423,0.11616,0.20464,-0.94328
0.019615,0.0023867,-0.051378,0.071928,-0.045968,-0.090864,0.058836,-0.25064,5.5541e-005,0.42581,-0.19324,0.738,-0.22829,0.13993,-0.10454,0.019896,0.18352,-0.88095,-0.23699,0.48319,0.12501,0.10096,0.11027,-0.60661
0.019094,0.009698,-0.056136,0.085681,-0.044331,-0.095638,0.060958,-0.25452,-0.0021499,0.33808,-0.1559,0.80393,-0.19864,0.15966,-0.081775,0.0055177,0.16042,-0.64825,-0.31715,0.46948,0.1819,0.077078,0.20753,-0.37283
0.020393,0.015822,-0.063137,0.10446,-0.048809,-0.10291,0.064413,-0.25871,0.013156,0.28273,-0.062044,0.86274,-0.17099,0.17586,-0.068439,-0.0015189,0.11774,-0.44553,-0.46289,0.42971,0.2294,0.050228,0.45066,-0.24884
0.026624,0.019987,-0.072286,0.12965,-0.056779,-0.1082,0.067273,-0.26177,0.034753,0.26015,0.069456,0.90844,-0.14745,0.20468,-0.05794,-0.0034487,0.060916,-0.31299,-0.65102,0.36908,0.26567,0.022478,0.73156,-0.18276
0.037604,0.02358,-0.081953,0.15865,-0.062671,-0.10805,0.067268,-0.26282,0.054118,0.24927,0.2209,0.936,-0.12828,0.24797,-0.044254,-0.0065522,0.00091682,-0.26917,-0.84438,0.30128,0.29538,-0.0052044,0.93452,-0.10386
0.049255,0.029394,-0.089764,0.1867,-0.062105,-0.10267,0.063263,-0.26198,0.069791,0.21827,0.37885,0.94328,-0.11421,0.28975,-0.026755,-0.020771,-0.049896,-0.30366,-1.0052,0.24295,0.32463,-0.031316,1.0016,0.031564
0.05608,0.039151,-0.09409,0.21006,-0.055166,-0.095927,0.056471,-0.2602,0.084393,0.14277,0.53048,0.92968,-0.10645,0.30846,-0.01044,-0.054207,-0.082116,-0.37463,-1.1032,0.20651,0.35373,-0.055787,0.95895,0.21619
0.05508,0.051651,-0.095216,0.22779,-0.0461,-0.0925,0.050254,-0.25841,0.098515,0.020477,0.65986,0.89612,-0.10427,0.29353,-0.002174,-0.10692,-0.092424,-0.41959,-1.1154,0.19505,0.37449,-0.082941,0.88475,0.40086
0.048239,0.063466,-0.095289,0.24125,-0.03982,-0.094504,0.048171,-0.25681,0.10825,-0.12567,0.74984,0.8485,-0.1035,0.25138,-0.0061473,-0.16956,-0.084567,-0.38171,-1.0245,0.20188,0.37469,-0.12027,0.84545,0.52801
0.041564,0.071676,-0.096902,0.2521,-0.038354,-0.10023,0.051368,-0.25479,0.10894,-0.25558,0.78874,0.80032,-0.098894,0.19681,-0.021398,-0.2283,-0.067787,-0.23967,-0.82313,0.21455,0.34628,-0.17124,0.85256,0.56794
0.04116,0.076117,-0.10115,0.26101,-0.040134,-0.10587,0.057319,-0.2515,0.10114,-0.32564,0.77616,0.76753,-0.089176,0.13918,-0.042133,-0.27224,-0.052996,-0.020785,-0.52577,0.2207,0.29098,-0.22674,0.86801,0.53803
0.049067,0.079114,-0.10656,0.2678,-0.042266,-0.10855,0.061199,-0.24665,0.09227,-0.30241,0.7225,0.75526,-0.079797,0.076807,-0.059974,-0.29745,-0.047932,0.21481,-0.17808,0.21263,0.21962,-0.26317,0.84323,0.49562
0.061834,0.083044,-0.10985,0.27241,-0.043256,-0.10814,0.059159,-0.24065,0.09153,-0.17415,0.6419,0.74598,-0.079363,0.0043952,-0.067185,-0.30581,-0.053479,0.4107,0.15072,0.18896,0.14712,-0.25132,0.75305,0.50871
0.072846,0.088163,-0.10824,0.27524,-0.043659,-0.1064,0.051051,-0.23415,0.10221,0.0415,0.54405,0.70209,-0.091346,-0.074739,-0.060417,-0.30092,-0.063285,0.54731,0.39382,0.1539,0.087219,-0.17236,0.60018,0.61929
0.076657,0.092668,-0.10165,0.27657,-0.044483,-0.10476,0.040406,-0.22728,0.11833,0.29767,0.43118,0.58687,-0.10811,-0.14428,-0.043988,-0.28565,-0.067311,0.6496,0.51562,0.11531,0.049558,-0.031251,0.39881,0.81896
0.07223,0.094718,-0.093138,0.27608,-0.045408,-0.10294,0.031612,-0.21964,0.12893,0.5307,0.30244,0.39209,-0.11355,-0.18355,-0.030438,-0.26301,-0.057578,0.76498,0.52026,0.082095,0.038508,0.1413,0.16202,1.0519
0.063008,0.094258,-0.086922,0.27331,-0.044797,-0.099779,0.02658,-0.2107,0.12645,0.68357,0.16264,0.15193,-0.093715,-0.18219,-0.036148,-0.23753,-0.032803,0.92698,0.43259,0.061059,0.052263,0.30006,-0.095637,1.246
0.054184,0.092902,-0.085402,0.26879,-0.04139,-0.095123,0.023599,-0.20024,0.1122,0.73021,0.027838,-0.069454,-0.047241,-0.14817,-0.072535,-0.21431,0.00078125,1.1277,0.2692,0.053713,0.082539,0.40381,-0.35123,1.3553
0.049413,0.092196,-0.087551,0.26435,-0.035755,-0.090623,0.019201,-0.18823,0.094678,0.6866,-0.077669,-0.2109,0.013083,-0.10229,-0.13738,-0.19513,0.032795,1.3148,0.029033,0.054924,0.1167,0.43195,-0.57828,1.3855
0.049203,0.092179,-0.089989,0.26186,-0.029911,-0.08832,0.011296,-0.17424,0.082571,0.60087,-0.1333,-0.24566,0.069343,-0.063398,-0.21253,-0.17572,0.054147,1.4158,-0.28373,0.055159,0.14289,0.3914,-0.76221,1.386
0.051594,0.091659,-0.089867,0.26135,-0.025468,-0.088173,0.00087997,-0.15731,0.07858,0.52759,-0.13597,-0.19042,0.11066,-0.035848,-0.27099,-0.14789,0.061553,1.3773,-0.62545,0.046147,0.15557,0.3114,-0.90883,1.4128
0.054038,0.089725,-0.087045,0.26046,-0.022197,-0.087073,-0.0089616,-0.13675,0.078765,0.50135,-0.1057,-0.087924,0.13863,-0.0081517,-0.29046,-0.10624,0.058992,1.2002,-0.90608,0.026863,0.15743,0.22904,-1.0332,1.4895
0.054925,0.086804,-0.083722,0.25596,-0.018483,-0.080745,-0.015622,-0.11316,0.076963,0.52435,-0.076826,0.021014,0.16249,0.037056,-0.2649,-0.05432,0.05555,0.95024,-1.0305,0.005431,0.15546,0.17228,-1.1381,1.5942
0.053946,0.084207,-0.081952,0.2464,-0.013213,-0.067337,-0.018827,-0.088757,0.069843,0.57279,-0.078381,0.11437,0.19007,0.10938,-0.20702,-0.0042575,0.060572,0.73315,-0.96564,-0.0054324,0.15411,0.14876,-1.2062,1.6793
0.051594,0.082804,-0.081425,0.23314,-0.0071874,-0.04968,-0.020423,-0.066355,0.058494,0.61518,-0.11613,0.1849,0.22361,0.20225,-0.14014,0.030849,0.078175,0.64003,-0.78126,0.0027344,0.15056,0.14644,-1.2163,1.7049
0.048562,0.082311,-0.079575,0.21903,-0.0026266,-0.033952,-0.022719,-0.047706,0.046121,0.63072,-0.1694,0.22454,0.26398,0.29398,-0.085002,0.04629,0.104,0.69337,-0.62153,0.026982,0.13631,0.14594,-1.1697,1.6606
0.045482,0.081835,-0.073895,0.20594,-0.0011255,-0.025416,-0.026987,-0.03254,0.034761,0.61789,-0.20667,0.21604,0.31723,0.35641,-0.050087,0.049113,0.12676,0.82897,-0.61674,0.053248,0.10381,0.13713,-1.0982,1.5597
0.042862,0.080885,-0.064337,0.19352,-0.0019639,-0.024463,-0.033136,-0.019022,0.024043,0.59072,-0.21,0.14207,0.39413,0.36597,-0.031045,0.052409,0.1347,0.93184,-0.79226,0.064956,0.053221,0.12774,-1.0427,1.4191
0.040928,0.079599,-0.053684,0.1803,-0.0023913,-0.026276,-0.040216,-0.0052288,0.012453,0.56662,-0.1913,0.0045683,0.50026,0.3125,-0.018052,0.06509,0.12354,0.90669,-1.041,0.054309,-0.0062135,0.13652,-1.0237,1.2436
0.039382,0.078002,-0.045625,0.16582,0.00023395,-0.024577,-0.046893,0.0095006,-0.00080833,0.55329,-0.18763,-0.16436,0.62466,0.2035,-0.0047018,0.085782,0.10013,0.73566,-1.1839,0.027775,-0.061288,0.17396,-1.0337,1.0292
0.03741,0.075292,-0.042138,0.15142,0.0062517,-0.016543,-0.05169,0.024267,-0.015319,0.54178,-0.23747,-0.31233,0.73866,0.063729,0.0083633,0.10608,0.078271,0.48235,-1.0798,0.00096146,-0.10282,0.22557,-1.0629,0.77957
0.034183,0.070203,-0.042191,0.13879,0.013361,-0.0048768,-0.053436,0.037465,-0.030332,0.51012,-0.35335,-0.3925,0.80921,-0.06967,0.017109,0.12027,0.06873,0.24186,-0.71213,-0.013741,-0.1307,0.25305,-1.1302,0.51833
0.02962,0.062251,-0.042555,0.12783,0.018481,0.0047069,-0.052191,0.048206,-0.04549,0.43565,-0.50929,-0.38696,0.81787,-0.15621,0.020993,0.13287,0.071049,0.079205,-0.19607,-0.017099,-0.15232,0.21707,-1.2812,0.28496
0.02474,0.052555,-0.04002,0.11614,0.020268,0.0084693,-0.049923,0.057441,-0.060208,0.30959,-0.65147,-0.31127,0.77066,-0.16463,0.026363,0.15689,0.073928,0.005468,0.29481,-0.022168,-0.17547,0.10766,-1.5417,0.11738
0.021127,0.043224,-0.033505,0.10097,0.020202,0.007857,-0.049882,0.068066,-0.072309,0.1446,-0.72479,-0.19927,0.69097,-0.085908,0.042688,0.20386,0.064622,0.0050767,0.62765,-0.042794,-0.20079,-0.040889,-1.8614,0.033984
0.019718,0.035719,-0.02477,0.081792,0.021351,0.0081815,-0.05456,0.083686,-0.077714,-0.030243,-0.69825,-0.081776,0.60153,0.0585,0.074211,0.27365,0.040057,0.079918,0.77056,-0.080731,-0.21935,-0.16486,-2.1031,0.027336
0.019833,0.02971,-0.017217,0.06118,0.025895,0.01396,-0.063694,0.10646,-0.07222,-0.18472,-0.57448,0.024878,0.51105,0.2194,0.11401,0.35255,0.010492,0.26113,0.7813,-0.12225,-0.21762,-0.20828,-2.1025,0.071068
0.019336,0.023563,-0.01344,0.042978,0.033468,0.025032,-0.074141,0.13523,-0.054458,-0.30373,-0.38158,0.11539,0.41614,0.33589,0.14606,0.42141,-0.0075712,0.57211,0.74446,-0.14749,-0.18677,-0.15695,-1.7679,0.13264
0.016044,0.01606,-0.013084,0.029398,0.041577,0.036845,-0.082047,0.16544,-0.027788,-0.39402,-0.15734,0.18511,0.31551,0.36029,0.15475,0.46749,-0.0035801,0.97659,0.70861,-0.14512,-0.13001,-0.044609,-1.1486,0.1839
0.0094006,0.007701,-0.012762,0.019472,0.047561,0.044529,-0.08564,0.19121,0.0004733,-0.4772,0.062269,0.22508,0.2222,0.28082,0.13519,0.49159,0.019617,1.3664,0.66657,-0.12035,-0.062642,0.073099,-0.41767,0.20708
0.0010815,0.00033199,-0.0084978,0.010046,0.050389,0.04701,-0.086313,0.20866,0.022259,-0.57367,0.24626,0.2276,0.16132,0.1292,0.096974,0.50574,0.048825,1.6119,0.58366,-0.090239,-0.0044553,0.15687,0.22377,0.19875
-0.0060682,-0.0045913,0.00089251,-0.0017154,0.050923,0.047506,-0.087132,0.21798,0.032561,-0.68741,0.36937,0.19655,0.15349,-0.033278,0.059047,0.52388,0.070996,1.6426,0.44337,-0.070726,0.030586,0.20523,0.65678,0.17266
-0.0099896,-0.0074565,0.012242,-0.016397,0.050765,0.050191,-0.090168,0.2229,0.031784,-0.80006,0.41717,0.15168,0.19723,-0.14562,0.039329,0.55174,0.082196,1.4932,0.27049,-0.066484,0.040288,0.24438,0.8944,0.15732
-0.010713,-0.010239,0.019992,-0.032275,0.050873,0.056308,-0.095,0.22783,0.0255,-0.87699,0.39469,0.12106,0.26493,-0.17722,0.046144,0.5823,0.087993,1.2755,0.11398,-0.071147,0.032364,0.29703,1.0433,0.18346
-0.0099925,-0.014712,0.020446,-0.046784,0.051067,0.063344,-0.099517,0.23499,0.021663,-0.88269,0.32869,0.1261,0.3167,-0.14083,0.075881,0.59899,0.095846,1.0933,0.0043896,-0.076126,0.017098,0.35701,1.2134,0.263
-0.0097182,-0.020769,0.014896,-0.058157,0.050559,0.067766,-0.10202,0.24355,0.026329,-0.80007,0.25608,0.16966,0.32263,-0.081274,0.11672,0.58496,0.10671,0.96539,-0.080214,-0.079266,0.00065799,0.39083,1.4428,0.37222
-0.010583,-0.026447,0.0088248,-0.066203,0.048876,0.068469,-0.10257,0.25094,0.039784,-0.6462,0.20279,0.23598,0.27828,-0.047741,0.15498,0.53324,0.11326,0.8156,-0.21151,-0.085977,-0.016219,0.36426,1.6861,0.45476
-0.012123,-0.029683,0.0076515,-0.072077,0.046447,0.067589,-0.1026,0.25498,0.055356,-0.47542,0.16899,0.30162,0.2036,-0.067389,0.1805,0.45173,0.10611,0.53798,-0.46924,-0.10295,-0.034498,0.27217,1.8597,0.44964
-0.013828,-0.030221,0.012558,-0.077555,0.044598,0.068125,-0.1032,0.25515,0.062423,-0.36255,0.13453,0.34904,0.12766,-0.13557,0.1895,0.35901,0.082621,0.088268,-0.88495,-0.13095,-0.052613,0.14734,1.9016,0.33024
-0.015965,-0.029912,0.01993,-0.084239,0.044984,0.070946,-0.1041,0.25245,0.052765,-0.36719,0.081898,0.37307,0.070451,-0.22565,0.18453,0.27266,0.050918,-0.46602,-1.4067,-0.16298,-0.066073,0.041591,1.8022,0.12834
-0.019162,-0.031156,0.024812,-0.092897,0.048626,0.074203,-0.10392,0.2487,0.026665,-0.49431,0.018098,0.37768,0.033186,-0.30853,0.17196,0.19734,0.02565,-0.97339,-1.9098,-0.18859,-0.071165,-0.0066504,1.5955,-0.076889
-0.023251,-0.034932,0.025278,-0.10311,0.05492,0.075553,-0.10154,0.24586,-0.0056284,-0.67634,-0.024204,0.36861,0.0018413,-0.36796,0.15776,0.12173,0.018663,-1.2849,-2.2507,-0.20023,-0.068974,0.0047274,1.3277,-0.20094
-0.026774,-0.040199,0.023901,-0.11358,0.061308,0.074818,-0.097164,0.24533,-0.028968,-0.7957,-0.0085304,0.34998,-0.040386,-0.40375,0.14353,0.027766,0.031294,-1.3399,-2.3391,-0.19672,-0.065589,0.042456,1.0314,-0.2011
-0.027995,-0.045144,0.025191,-0.12315,0.064323,0.074331,-0.092132,0.24717,-0.032131,-0.74363,0.078133,0.32697,-0.1006,-0.42511,0.12553,-0.093698,0.053451,-1.1962,-2.1847,-0.18274,-0.067844,0.059441,0.71711,-0.097835
-0.026613,-0.048979,0.031442,-0.13196,0.06178,0.076678,-0.087821,0.24961,-0.014562,-0.48421,0.21491,0.30923,-0.17144,-0.44173,0.098123,-0.23274,0.069613,-0.98762,-1.8949,-0.16627,-0.078022,0.02142,0.37861,0.0414
-0.024466,-0.052585,0.040614,-0.14156,0.054643,0.082098,-0.084601,0.24972,0.013586,-0.082709,0.36084,0.3079,-0.23608,-0.45868,0.059774,-0.36423,0.067343,-0.84224,-1.6183,-0.15596,-0.091889,-0.076708,0.0042094,0.14113
-0.024293,-0.057436,0.047909,-0.15349,0.04681,0.088054,-0.081708,0.24526,0.037855,0.32374,0.47998,0.32619,-0.27874,-0.47584,0.017018,-0.46352,0.04306,-0.81454,-1.4687,-0.15873,-0.10159,-0.21117,-0.41181,0.15094
-0.027485,-0.063881,0.04947,-0.1673,0.042421,0.091292,-0.077978,0.23661,0.047437,0.59781,0.55747,0.35218,-0.29352,-0.4889,-0.017583,-0.52246,0.0023928,-0.8716,-1.4716,-0.17698,-0.10092,-0.34282,-0.86103,0.0537
-0.032819,-0.070394,0.045116,-0.17988,0.04264,0.090415,-0.072742,0.22673,0.0392,0.67181,0.59725,0.36303,-0.28623,-0.48992,-0.032913,-0.55347,-0.043931,-0.93364,-1.5658,-0.20629,-0.088869,-0.43557,-1.3192,-0.14738
-0.0374,-0.074477,0.038235,-0.1872,0.044686,0.086727,-0.066178,0.21877,0.016041,0.57266,0.6094,0.34006,-0.26933,-0.46855,-0.026908,-0.57931,-0.085596,-0.93572,-1.6552,-0.23612,-0.068979,-0.47183,-1.752,-0.44277
-0.039057,-0.074462,0.033382,-0.18738,0.044276,0.082834,-0.059084,0.21318,-0.017527,0.39059,0.60203,0.28306,-0.25457,-0.4157,-0.008305,-0.61686,-0.11673,-0.8694,-1.6731,-0.25452,-0.045683,-0.45855,-2.1233,-0.81641
-0.03808,-0.070837,0.033575,-0.18246,0.03948,0.08044,-0.052455,0.20701,-0.058077,0.21821,0.58363,0.21124,-0.2488,-0.32975,0.0089536,-0.66771,-0.13716,-0.78257,-1.6135,-0.25471,-0.020925,-0.42099,-2.3963,-1.2343
-0.036772,-0.066137,0.038917,-0.17707,0.032508,0.079232,-0.047193,0.19642,-0.10231,0.10297,0.56835,0.14949,-0.2544,-0.22173,0.014152,-0.72128,-0.15119,-0.74519,-1.51,-0.23867,0.0064436,-0.38634,-2.5275,-1.64
-0.03726,-0.06349,0.046911,-0.17494,0.027688,0.077573,-0.043883,0.18054,-0.14451,0.039959,0.57289,0.11186,-0.27198,-0.11495,0.0045086,-0.76575,-0.16485,-0.80737,-1.3886,-0.21512,0.038544,-0.36589,-2.4649,-1.9688
-0.03958,-0.064715,0.053947,-0.17634,0.027486,0.074217,-0.042424,0.16307,-0.17602,-0.00081323,0.60392,0.096272,-0.30126,-0.036936,-0.01653,-0.79606,-0.18274,-0.97397,-1.2385,-0.19344,0.075727,-0.34766,-2.1673,-2.1765
-0.041761,-0.069139,0.057207,-0.17873,0.030375,0.069564,-0.041715,0.14998,-0.18852,-0.041045,0.64814,0.093393,-0.33924,-0.0061173,-0.043996,-0.81222,-0.20541,-1.2038,-1.0288,-0.17846,0.11536,-0.30631,-1.6412,-2.2574
-0.041823,-0.073956,0.056236,-0.17996,0.032547,0.065502,-0.039946,0.14496,-0.17882,-0.079695,0.67879,0.098569,-0.37841,-0.020056,-0.073404,-0.81128,-0.22837,-1.4265,-0.75215,-0.16959,0.15271,-0.22504,-0.96729,-2.2374
-0.039808,-0.07608,0.053252,-0.1807,0.031669,0.063949,-0.035733,0.14641,-0.15142,-0.10102,0.67829,0.11385,-0.40846,-0.05284,-0.098266,-0.78286,-0.24353,-1.5648,-0.44908,-0.16344,0.18285,-0.11363,-0.28377,-2.1444
-0.037955,-0.074398,0.051715,-0.18358,0.028882,0.065192,-0.029393,0.14851,-0.11632,-0.090685,0.65954,0.13816,-0.42152,-0.065764,-0.10747,-0.71452,-0.24277,-1.5574,-0.18348,-0.15663,0.20234,-0.0078243,0.27729,-1.9835
-0.038734,-0.07071,0.0538,-0.18995,0.027047,0.06728,-0.023104,0.14548,-0.083493,-0.04492,0.6651,0.15715,-0.41707,-0.028147,-0.088376,-0.60344,-0.22229,-1.3784,0.011187,-0.14667,0.20981,0.051344,0.65903,-1.7385
-0.042442,-0.068414,0.058647,-0.19752,0.027198,0.067084,-0.019414,0.13556,-0.058187,0.029515,0.7393,0.14571,-0.40206,0.062585,-0.036066,-0.46364,-0.18531,-1.0503,0.16229,-0.13174,0.2057,0.043845,0.89864,-1.4031
-0.046549,-0.069695,0.063003,-0.20178,0.027014,0.062405,-0.019131,0.12154,-0.040025,0.11779,0.89236,0.083795,-0.38561,0.17509,0.038707,-0.32073,-0.14134,-0.64286,0.33045,-0.11146,0.19163,-0.016877,1.0758,-1.0118
-0.047557,-0.073473,0.064012,-0.20003,0.023134,0.053617,-0.020475,0.10786,-0.026178,0.19751,1.0851,-0.027693,-0.37215,0.25962,0.11162,-0.19764,-0.10242,-0.25075,0.54459,-0.088341,0.16956,-0.093701,1.2314,-0.63998
-0.043976,-0.076036,0.061763,-0.19434,0.015076,0.043555,-0.02049,0.096997,-0.015447,0.24149,1.2482,-0.16575,-0.35841,0.27789,0.15846,-0.10265,-0.077976,0.044811,0.75968,-0.067867,0.1411,-0.14902,1.3277,-0.36531
-0.037886,-0.074092,0.059174,-0.19031,0.0067015,0.035639,-0.017599,0.088072,-0.0098786,0.22826,1.3242,-0.30089,-0.33631,0.22819,0.17093,-0.029549,-0.071292,0.21208,0.88073,-0.055743,0.10723,-0.16354,1.2878,-0.21558
-0.033597,-0.067773,0.059128,-0.19242,0.0033578,0.031699,-0.012978,0.078592,-0.01279,0.1566,1.2982,-0.41637,-0.29879,0.14711,0.16173,0.031695,-0.078747,0.28176,0.83705,-0.054111,0.068435,-0.13942,1.0802,-0.14603
-0.034295,-0.060896,0.061478,-0.20015,0.0071022,0.031145,-0.0093613,0.067414,-0.02513,0.051448,1.1982,-0.51487,-0.24425,0.084737,0.15343,0.084448,-0.091827,0.32805,0.6436,-0.06035,0.025181,-0.091058,0.77029,-0.068626
-0.039352,-0.058054,0.06293,-0.20817,0.014444,0.031983,-0.0083284,0.056244,-0.04338,-0.047887,1.0654,-0.60836,-0.17646,0.070797,0.15972,0.12442,-0.10049,0.42803,0.39561,-0.069942,-0.021859,-0.035329,0.48683,0.084107
-0.044606,-0.060852,0.060156,-0.21059,0.018886,0.032504,-0.008655,0.048415,-0.060835,-0.11112,0.92344,-0.70201,-0.10121,0.097075,0.17431,0.14737,-0.096479,0.6223,0.20113,-0.080668,-0.072006,0.011275,0.32802,0.30818
-0.045561,-0.06648,0.05331,-0.20527,0.01615,0.032124,-0.0074324,0.046068,-0.07133,-0.13345,0.77112,-0.78773,-0.022593,0.12945,0.17692,0.15593,-0.075608,0.89788,0.10913,-0.093738,-0.12476,0.032139,0.28922,0.52983
-0.040991,-0.069882,0.046476,-0.19487,0.0075316,0.030936,-0.0030025,0.048123,-0.072502,-0.13111,0.59937,-0.85287,0.058675,0.13878,0.15151,0.15769,-0.038722,1.2004,0.090631,-0.11045,-0.17925,0.014435,0.2771,0.65846
-0.034032,-0.067749,0.044341,-0.18402,-0.0014772,0.028931,0.003115,0.050717,-0.066106,-0.12047,0.41358,-0.89525,0.14449,0.12455,0.10119,0.15648,0.0088985,1.4666,0.080141,-0.12792,-0.2328,-0.041487,0.19787,0.64829
-0.029802,-0.061061,0.048017,-0.17552,-0.0058949,0.026008,0.0073507,0.049779,-0.055353,-0.099951,0.23811,-0.93007,0.23729,0.11171,0.047455,0.14657,0.059443,1.6592,0.032219,-0.13915,-0.27997,-0.11629,0.041116,0.519
-0.031419,-0.054164,0.0539,-0.16891,-0.0051281,0.022668,0.0074698,0.043744,-0.041865,-0.051199,0.098937,-0.98162,0.33754,0.12441,0.014427,0.11694,0.10514,1.7836,-0.057924,-0.13885,-0.31364,-0.17939,-0.11493,0.32183
-0.037549,-0.051276,0.056744,-0.16198,-0.0028403,0.020219,0.0051201,0.03433,-0.025215,0.042191,0.0010854,-1.0665,0.44116,0.16006,0.01144,0.062638,0.14048,1.8785,-0.17879,-0.13039,-0.32851,-0.2088,-0.17912,0.085253
-0.043349,-0.053261,0.054145,-0.15334,-0.0033117,0.01975,0.0049533,0.024865,-0.0057759,0.17614,-0.078917,-1.1813,0.53794,0.18649,0.027878,-0.007794,0.16321,1.9844,-0.33376,-0.1267,-0.32508,-0.20873,-0.13429,-0.20768
-0.043988,-0.057104,0.048315,-0.14345,-0.0076841,0.020702,0.010739,0.017559,0.011757,0.32437,-0.17931,-1.3039,0.61273,0.16565,0.043674,-0.07655,0.17392,2.1131,-0.53563,-0.14207,-0.31076,-0.20882,-0.057606,-0.58743
-0.038016,-0.058205,0.043549,-0.13353,-0.013212,0.020734,0.021747,0.011968,0.018078,0.45422,-0.33013,-1.405,0.65088,0.08515,0.046016,-0.13018,0.17482,2.2391,-0.76307,-0.17923,-0.2962,-0.24297,-0.057416,-1.0408
-0.028167,-0.053522,0.041876,-0.12388,-0.015791,0.017547,0.032709,0.0059135,0.0038719,0.54531,-0.53855,-1.4611,0.64611,-0.026611,0.038619,-0.1715,0.16867,2.3222,-0.92498,-0.22161,-0.28868,-0.32242,-0.18302,-1.4843
-0.019248,-0.043303,0.041099,-0.11329,-0.013324,0.011263,0.0377,-0.001979,-0.033426,0.5958,-0.79048,-1.4628,0.60581,-0.11334,0.036941,-0.21996,0.15836,2.3424,-0.88345,-0.23854,-0.28711,-0.42349,-0.3843,-1.7994
-0.014847,-0.030562,0.03714,-0.10027,-0.0071697,0.004968,0.034823,-0.010443,-0.086153,0.61345,-1.0626,-1.4152,0.5486,-0.12294,0.054251,-0.29961,0.14679,2.3193,-0.53798,-0.20253,-0.28282,-0.49912,-0.5519,-1.906
-0.015238,-0.01912,0.028456,-0.084697,-0.00086851,0.0025402,0.027707,-0.016312,-0.1398,0.60195,-1.3334,-1.3341,0.4935,-0.037903,0.089998,-0.4228,0.13651,2.2941,0.086989,-0.10859,-0.26577,-0.50558,-0.60046,-1.8135
-0.017713,-0.011683,0.018224,-0.068433,0.0024249,0.0054225,0.022484,-0.017426,-0.18143,0.55521,-1.5873,-1.2398,0.44744,0.11387,0.12903,-0.57988,0.12895,2.2884,0.82708,0.017743,-0.23156,-0.42623,-0.52648,-1.6087
-0.018804,-0.008907,0.012047,-0.054138,0.0017168,0.011212,0.022782,-0.015099,-0.20674,0.46315,-1.8139,-1.1477,0.4005,0.27263,0.15133,-0.74025,0.12376,2.2716,1.4644,0.1312,-0.18406,-0.27844,-0.40051,-1.3903
-0.016664,-0.0094892,0.013125,-0.043401,-0.0018297,0.015422,0.027007,-0.013581,-0.22018,0.32282,-2.0062,-1.0604,0.33399,0.37603,0.14458,-0.86376,0.1192,2.1673,1.8645,0.19142,-0.13178,-0.10283,-0.30942,-1.2062
-0.012004,-0.010905,0.019301,-0.03564,-0.0061133,0.014945,0.030227,-0.016554,-0.22808,0.14564,-2.1588,-0.96457,0.23656,0.38836,0.11105,-0.91665,0.11378,1.8989,2.0662,0.18625,-0.081961,0.056006,-0.29942,-1.0393
-0.0071997,-0.010498,0.02473,-0.028651,-0.009329,0.010277,0.028937,-0.023644,-0.23104,-0.043238,-2.2649,-0.83745,0.11652,0.31571,0.065301,-0.88514,0.10834,1.4453,2.2504,0.13804,-0.037396,0.16682,-0.35979,-0.84467
-0.0044332,-0.0067322,0.024745,-0.020313,-0.010514,0.0047516,0.024425,-0.030377,-0.22246,-0.21215,-2.3103,-0.66173,0.0002692,0.20014,0.025591,-0.78093,0.10709,0.87053,2.6042,0.088275,0.0016614,0.22095,-0.44829,-0.59501
-0.004266,-0.00013705,0.019553,-0.010072,-0.0095314,0.0017144,0.021754,-0.032079,-0.19513,-0.33285,-2.2717,-0.438,-0.08307,0.096184,0.00462,-0.63542,0.11611,0.30967,3.1774,0.071355,0.033218,0.23168,-0.52853,-0.29663
-0.0054972,0.0068021,0.013558,0.0009378,-0.0069359,0.0021921,0.025241,-0.028383,-0.15017,-0.39015,-2.1254,-0.18675,-0.12024,0.041878,0.0044819,-0.48473,0.13999,-0.08023,3.8381,0.095759,0.051773,0.22466,-0.58885,0.02897
-0.0061631,0.011216,0.011082,0.011174,-0.0039031,0.0047844,0.034484,-0.024113,-0.10019,-0.38781,-1.8652,0.061389,-0.12243,0.039494,0.017172,-0.35297,0.17826,-0.18137,4.3638,0.14501,0.051241,0.22278,-0.63561,0.36761
-0.0048015,0.012135,0.012477,0.020322,-0.002014,0.0073509,0.044466,-0.025373,-0.062973,-0.3473,-1.5187,0.27842,-0.11793,0.05639,0.029276,-0.24338,0.22422,0.035034,4.5952,0.19502,0.030046,0.23266,-0.67516,0.71186
-0.0011209,0.011706,0.014082,0.029958,-0.0026925,0.0086542,0.049622,-0.034196,-0.050021,-0.29772,-1.146,0.44503,-0.13436,0.044916,0.028233,-0.14296,0.2673,0.48786,4.5321,0.23238,-0.0064183,0.24114,-0.70357,1.0408
0.0041961,0.01394,0.01186,0.042612,-0.0064241,0.0086547,0.048228,-0.046649,-0.058912,-0.26126,-0.8174,0.54797,-0.18302,-0.030485,0.0077553,-0.036894,0.29769,1.0057,4.3005,0.25932,-0.048453,0.2254,-0.71065,1.3085
0.010178,0.021482,0.0052032,0.059799,-0.012221,0.0077493,0.043335,-0.056211,-0.075565,-0.24334,-0.57884,0.57582,-0.2552,-0.17415,-0.029248,0.077936,0.31063,1.3879,4.0263,0.28397,-0.087823,0.17114,-0.69075,1.4635
0.016108,0.032943,-0.0025725,0.080391,-0.017815,0.0061566,0.039722,-0.059399,-0.084632,-0.23448,-0.42851,0.52165,-0.33142,-0.35686,-0.071136,0.19058,0.30738,1.4869,3.7309,0.30728,-0.122,0.085689,-0.64845,1.4864
0.021534,0.043366,-0.0073326,0.10062,-0.020689,0.00408,0.039854,-0.058535,-0.079966,-0.22194,-0.32158,0.39288,-0.39552,-0.52863,-0.10142,0.28593,0.29243,1.2723,3.3395,0.31907,-0.15376,-0.0043334,-0.59437,1.4134
0.025888,0.047924,-0.0078402,0.11589,-0.019546,0.0021084,0.042498,-0.059245,-0.06749,-0.201,-0.2022,0.21942,-0.44334,-0.63782,-0.10509,0.35794,0.26914,0.83674,2.7903,0.30632,-0.18709,-0.069795,-0.53608,1.3184
0.028235,0.045955,-0.006677,0.12346,-0.015344,0.00097705,0.044809,-0.065133,-0.059104,-0.17633,-0.041809,0.049867,-0.48093,-0.64857,-0.075387,0.41437,0.23697,0.33501,2.1399,0.26481,-0.22295,-0.097681,-0.47287,1.2636
0.02764,0.041699,-0.0076612,0.1241,-0.011088,0.00069254,0.045459,-0.074528,-0.063021,-0.15346,0.14248,-0.065706,-0.51541,-0.55247,-0.017954,0.46883,0.19267,-0.10466,1.5631,0.20324,-0.25804,-0.097502,-0.3991,1.2554
0.024048,0.040829,-0.012239,0.12167,-0.010173,5.2734e-005,0.045637,-0.08205,-0.077845,-0.12985,0.30155,-0.097301,-0.54695,-0.3735,0.04992,0.5266,0.13439,-0.43601,1.2388,0.1368,-0.28651,-0.091492,-0.31252,1.2406
0.018956,0.045646,-0.018116,0.12072,-0.0141,-0.0025511,0.04722,-0.083307,-0.094024,-0.094985,0.3893,-0.047384,-0.56838,-0.16363,0.10568,0.57695,0.065601,-0.68079,1.2173,0.076915,-0.30258,-0.097604,-0.22006,1.146
0.015022,0.053243,-0.021248,0.12365,-0.021096,-0.0075009,0.050286,-0.078428,-0.10059,-0.039554,0.39382,0.053236,-0.57223,0.013569,0.131,0.59917,-0.0045544,-0.86568,1.38,0.026432,-0.30172,-0.11898,-0.13613,0.93428
0.01456,0.058382,-0.019311,0.12937,-0.026879,-0.013075,0.052737,-0.071592,-0.091911,0.035417,0.3442,0.16265,-0.55839,0.10893,0.11972,0.57831,-0.06493,-0.97172,1.5241,-0.016559,-0.28064,-0.14647,-0.075335,0.63584
0.017888,0.058444,-0.013606,0.1344,-0.027383,-0.016478,0.052458,-0.067429,-0.070209,0.11808,0.29141,0.24719,-0.53513,0.11117,0.079948,0.51805,-0.10781,-0.94533,1.4982,-0.051777,-0.2373,-0.16913,-0.045699,0.33774
0.022913,0.055818,-0.0079223,0.13556,-0.021667,-0.016123,0.049776,-0.067623,-0.043257,0.19355,0.27863,0.29227,-0.51238,0.051977,0.02896,0.43981,-0.13246,-0.76259,1.2791,-0.074405,-0.17224,-0.18178,-0.046468,0.1376
0.026459,0.055415,-0.0055309,0.1324,-0.012779,-0.013101,0.04757,-0.07031,-0.019621,0.25125,0.32049,0.30061,-0.49369,-0.01464,-0.016183,0.36815,-0.14471,-0.4865,0.93975,-0.079901,-0.090319,-0.18408,-0.069486,0.092668
0.026429,0.059656,-0.0069335,0.12729,-0.005712,-0.010341,0.048684,-0.072096,-0.0045343,0.28442,0.40076,0.2823,-0.47471,-0.047081,-0.047017,0.31356,-0.15335,-0.25716,0.5561,-0.070948,-0.00091428,-0.17443,-0.10088,0.19312
0.023123,0.065796,-0.010061,0.12335,-0.0038658,-0.010071,0.052979,-0.070566,0.0018418,0.28394,0.48525,0.24494,-0.44989,-0.04058,-0.066306,0.26613,-0.16574,-0.21078,0.14558,-0.059093,0.084886,-0.14735,-0.12274,0.37189
0.01875,0.068343,-0.012404,0.12184,-0.0067589,-0.011903,0.056853,-0.065335,0.0036997,0.23588,0.54016,0.19034,-0.42055,-0.022374,-0.083614,0.20517,-0.18466,-0.38666,-0.31143,-0.058263,0.15884,-0.098171,-0.11844,0.54178
0.015678,0.064399,-0.013021,0.12121,-0.010773,-0.013315,0.055878,-0.05743,0.0072904,0.12926,0.54707,0.11854,-0.39547,-0.021799,-0.10677,0.11699,-0.20725,-0.69602,-0.80058,-0.074754,0.21889,-0.030626,-0.083281,0.63688
0.014899,0.056833,-0.012734,0.11862,-0.012244,-0.012024,0.048417,-0.048121,0.018167,-0.030756,0.50999,0.03389,-0.38184,-0.041077,-0.13484,0.0065879,-0.22591,-0.97969,-1.233,-0.10181,0.26858,0.040778,-0.034599,0.63553
0.015737,0.052029,-0.012583,0.11249,-0.01029,-0.007969,0.037196,-0.038304,0.038983,-0.21688,0.45264,-0.05305,-0.37499,-0.052912,-0.15762,-0.10561,-0.23082,-1.111,-1.4851,-0.12348,0.31286,0.097446,-0.0097346,0.55591
0.016702,0.05408,-0.012157,0.10378,-0.0070984,-0.0030862,0.027524,-0.028648,0.068619,-0.38985,0.40645,-0.13086,-0.3577,-0.027726,-0.16235,-0.19885,-0.21419,-1.0668,-1.4917,-0.12538,0.3534,0.12771,-0.045841,0.43221
0.016566,0.060774,-0.0094751,0.094855,-0.0056751,0.00068391,0.023588,-0.019971,0.1028,-0.52024,0.39435,-0.19677,-0.31264,0.034017,-0.14293,-0.26553,-0.17452,-0.91841,-1.314,-0.10448,0.38729,0.13333,-0.15158,0.29014
0.014963,0.065205,-0.002704,0.087219,-0.00715,0.0030335,0.025696,-0.013262,0.13561,-0.60639,0.4191,-0.26372,-0.23861,0.095288,-0.10463,-0.31192,-0.11854,-0.76031,-1.1212,-0.071285,0.41046,0.12661,-0.29315,0.13707
0.012386,0.061739,0.0076917,0.080278,-0.0099194,0.0050084,0.03043,-0.0092444,0.16098,-0.67352,0.46482,-0.35865,-0.15643,0.11069,-0.059855,-0.34616,-0.058583,-0.63978,-1.0938,-0.043091,0.42297,0.12091,-0.41158,-0.030714
0.0097887,0.050973,0.018314,0.072335,-0.011139,0.0073442,0.033382,-0.0077994,0.17368,-0.75329,0.51162,-0.51061,-0.098144,0.066635,-0.018253,-0.36553,-0.0059617,-0.5406,-1.3153,-0.033561,0.43155,0.12267,-0.46378,-0.21441
0.0079965,0.039254,0.024573,0.062625,-0.0091252,0.0093496,0.032292,-0.0077138,0.17024,-0.85779,0.55243,-0.73287,-0.086558,-0.00183,0.020454,-0.35533,0.035326,-0.42235,-1.7291,-0.04585,0.44595,0.1302,-0.45658,-0.40576
0.0071157,0.033213,0.023747,0.052285,-0.0046742,0.0095475,0.028318,-0.0071004,0.15051,-0.96741,0.59745,-1.0081,-0.12068,-0.034269,0.063843,-0.30104,0.069978,-0.27111,-2.1838,-0.07351,0.47102,0.13824,-0.44296,-0.59143
0.0063783,0.03426,0.017028,0.043327,-0.00041181,0.0073281,0.024693,-0.0043924,0.11911,-1.0417,0.66065,-1.2862,-0.17737,0.0095986,0.11592,-0.20256,0.10627,-0.11636,-2.5312,-0.10757,0.50037,0.14302,-0.47811,-0.76205
0.0047647,0.037845,0.0088571,0.03673,0.0011536,0.0038163,0.023928,0.00067696,0.085153,-1.0456,0.73915,-1.4984,-0.22664,0.11924,0.1678,-0.077616,0.14807,-0.0063505,-2.7105,-0.14394,0.51758,0.14341,-0.56884,-0.91591
0.0021008,0.037885,0.0039091,0.031604,-0.00062151,0.0010532,0.025701,0.0069038,0.058964,-0.97134,0.8053,-1.5854,-0.24844,0.24228,0.19979,0.048724,0.19005,0.027247,-2.765,-0.18515,0.50601,0.13918,-0.65899,-1.0539
-0.00037709,0.032133,0.0040436,0.026193,-0.0041058,0.00038576,0.026968,0.012589,0.046752,-0.83981,0.82263,-1.5228,-0.23964,0.32447,0.19534,0.15819,0.21993,-0.019081,-2.7889,-0.23505,0.461,0.12992,-0.66673,-1.172
-0.00080774,0.023709,0.0075944,0.01965,-0.006459,0.0016948,0.024197,0.017058,0.046913,-0.68084,0.77629,-1.3325,-0.20944,0.34737,0.15614,0.24449,0.22586,-0.13787,-2.8427,-0.2902,0.39551,0.11679,-0.54528,-1.2589
0.0015668,0.017753,0.011392,0.01285,-0.0054069,0.0040792,0.016057,0.021501,0.051177,-0.50884,0.6929,-1.0695,-0.16939,0.33498,0.10517,0.30668,0.20343,-0.33105,-2.8958,-0.33526,0.33363,0.10491,-0.31778,-1.3028
0.0052874,0.016629,0.013601,0.0076371,-0.00061436,0.0070613,0.0045967,0.028254,0.050447,-0.31416,0.62997,-0.79458,-0.12529,0.32813,0.073659,0.34027,0.15751,-0.60666,-2.8385,-0.34744,0.2953,0.10245,-0.057927,-1.3005
0.0074556,0.018116,0.014885,0.0053445,0.0061508,0.010952,-0.0059373,0.038927,0.041136,-0.078197,0.63816,-0.54831,-0.0741,0.35161,0.081394,0.3374,0.098425,-0.95295,-2.5573,-0.309,0.28284,0.11515,0.16664,-1.2592
0.0059826,0.017937,0.017041,0.0059041,0.012118,0.016085,-0.011728,0.052776,0.027041,0.20014,0.7228,-0.34385,-0.0050215,0.40021,0.1253,0.2965,0.036407,-1.3175,-2.0262,-0.22055,0.27923,0.14005,0.34143,-1.1919
0.0013657,0.013891,0.020645,0.008013,0.015147,0.021923,-0.01156,0.066671,0.015328,0.49005,0.83375,-0.17823,0.095996,0.45035,0.18429,0.23043,-0.021577,-1.6185,-1.3473,-0.10559,0.26003,0.16443,0.5079,-1.1082
-0.0036745,0.0076235,0.024038,0.009868,0.014834,0.027142,-0.0070937,0.076759,0.01023,0.74136,0.89239,-0.04982,0.23805,0.48125,0.23489,0.16137,-0.071426,-1.7845,-0.70634,-0.0013774,0.21054,0.17271,0.72665,-1.0114
-0.0064087,0.0026992,0.024642,0.0098387,0.012412,0.030672,-0.0013297,0.080694,0.0099521,0.91624,0.83703,0.034217,0.41497,0.48565,0.26448,0.10389,-0.11014,-1.7934,-0.26711,0.059667,0.13576,0.15739,1.0367,-0.90153
-0.0061401,0.0011795,0.021337,0.0069741,0.0096558,0.03259,0.0033682,0.078948,0.0091597,1.015,0.65506,0.065046,0.59893,0.46404,0.27306,0.050583,-0.13553,-1.6779,-0.075082,0.067247,0.056405,0.12584,1.4419,-0.78168
-0.0042635,0.0020942,0.015676,0.0015037,0.0076418,0.033892,0.0062388,0.074417,0.004206,1.0731,0.38172,0.044757,0.74527,0.41375,0.26561,-0.025219,-0.14785,-1.497,-0.037399,0.038264,-0.0054266,0.097057,1.9242,-0.66075
-0.0025018,0.0029668,0.010843,-0.0048721,0.006255,0.035351,0.0076988,0.07069,-0.0041859,1.1314,0.070187,-0.0093642,0.81042,0.32712,0.24452,-0.14947,-0.15152,-1.2988,0.0098932,0.0065412,-0.039863,0.089118,2.4592,-0.5501
-0.0012092,0.0024873,0.0093032,-0.0094793,0.0046401,0.036658,0.0082836,0.070047,-0.013273,1.2021,-0.24214,-0.073498,0.7743,0.20155,0.20919,-0.32539,-0.15422,-1.1087,0.19862,0.003796,-0.052749,0.10571,3.0125,-0.45803
0.00058262,0.0015519,0.011195,-0.010117,0.0020896,0.036773,0.0079964,0.0723,-0.022919,1.2617,-0.54669,-0.13056,0.6525,0.0501,0.16119,-0.52694,-0.16321,-0.94458,0.56236,0.043497,-0.057945,0.13123,3.5212,-0.38623
0.0035687,0.0018611,0.014655,-0.006605,-0.0013579,0.035154,0.0064632,0.075112,-0.037179,1.2758,-0.84976,-0.17562,0.48845,-0.10019,0.10746,-0.71269,-0.18132,-0.8371,1.0455,0.11644,-0.06562,0.13876,3.8862,-0.32951
0.0068031,0.0038358,0.017522,-0.0011033,-0.0049534,0.032575,0.0034744,0.075572,-0.060416,1.2347,-1.1463,-0.20957,0.32988,-0.22316,0.057113,-0.84858,-0.2056,-0.82448,1.5658,0.19865,-0.075401,0.10649,3.9973,-0.27687
0.0080672,0.006117,0.018792,0.0033101,-0.0077189,0.030594,-0.0007553,0.072105,-0.091107,1.1684,-1.4051,-0.22901,0.20549,-0.30912,0.014833,-0.92296,-0.22986,-0.92177,2.0735,0.26479,-0.078142,0.032246,3.7844,-0.21247
0.0057139,0.0070293,0.018757,0.0047602,-0.0089519,0.030048,-0.0058594,0.065507,-0.11954,1.1251,-1.5791,-0.22399,0.1177,-0.36702,-0.021968,-0.94547,-0.24926,-1.0925,2.5639,0.29838,-0.063326,-0.063461,3.2672,-0.11752
0.00025875,0.0062744,0.018097,0.0036088,-0.0085029,0.030044,-0.01179,0.058433,-0.13268,1.1292,-1.635,-0.18647,0.054684,-0.41094,-0.058499,-0.93507,-0.26344,-1.2557,3.0466,0.29439,-0.026123,-0.14781,2.5661,0.024737
-0.0057676,0.0050059,0.017024,0.0015412,-0.0068383,0.028525,-0.018934,0.053675,-0.12321,1.1532,-1.579,-0.12099,0.0097468,-0.44341,-0.094691,-0.90845,-0.27608,-1.3309,3.5086,0.25595,0.029861,-0.19309,1.8609,0.22149
-0.0095832,0.0043085,0.015233,-0.00032871,-0.0049549,0.024052,-0.027607,0.052418,-0.095361,1.1294,-1.4606,-0.046047,-0.0086962,-0.45115,-0.12208,-0.87564,-0.29131,-1.2892,3.9074,0.19041,0.094085,-0.19048,1.3108,0.4646
-0.010016,0.0038599,0.012453,-0.0024215,-0.0040948,0.017182,-0.037219,0.053612,-0.062592,0.99423,-1.3472,0.016387,0.01575,-0.41757,-0.12948,-0.84086,-0.30997,-1.1671,4.1966,0.10834,0.15249,-0.15232,0.97866,0.7315
-0.0079975,0.0023119,0.0088846,-0.0057362,-0.0051942,0.010178,-0.045799,0.054709,-0.038455,0.73356,-1.2865,0.054471,0.089928,-0.34109,-0.11299,-0.80309,-0.32839,-1.0319,4.3595,0.024743,0.19092,-0.10288,0.80334,0.99348
-0.0055036,-0.00097213,0.0051693,-0.0099587,-0.0082528,0.0052736,-0.050525,0.053125,-0.027948,0.39581,-1.2818,0.071531,0.19806,-0.24235,-0.081506,-0.75432,-0.34026,-0.92758,4.4192,-0.041673,0.19837,-0.064382,0.64192,1.2266
-0.004013,-0.0046961,0.0020717,-0.012699,-0.012091,0.0030897,-0.049235,0.04744,-0.026054,0.063245,-1.295,0.079,0.30373,-0.15351,-0.05243,-0.67929,-0.33997,-0.8457,4.4213,-0.073386,0.17012,-0.046933,0.36122,1.4186
-0.0037187,-0.0063212,0.00024335,-0.010963,-0.014882,0.0025513,-0.042025,0.03779,-0.024116,-0.19674,-1.275,0.084736,0.36602,-0.098134,-0.040791,-0.56119,-0.32503,-0.74518,4.4042,-0.061595,0.11038,-0.046828,-0.075274,1.5683
-0.0038974,-0.004141,6.8382e-005,-0.0037697,-0.015293,0.0021725,-0.031648,0.025485,-0.018256,-0.36564,-1.1916,0.087499,0.35934,-0.078333,-0.050589,-0.39255,-0.29615,-0.59953,4.3802,-0.011273,0.03252,-0.052086,-0.58223,1.68
-0.0038553,0.0011821,0.0013752,0.0065065,-0.013457,0.0012972,-0.022092,0.012222,-0.012684,-0.47124,-1.051,0.081453,0.2857,-0.078571,-0.074833,-0.18448,-0.25594,-0.42833,4.3347,0.060289,-0.04421,-0.050125,-1.008,1.7573
-0.0035426,0.0070422,0.0031037,0.015552,-0.010938,0.00013939,-0.016168,-0.00067464,-0.015506,-0.55481,-0.88608,0.064918,0.17378,-0.080902,-0.103,0.033452,-0.20764,-0.28513,4.2347,0.13108,-0.10134,-0.032988,-1.2343,1.8014
-0.0033846,0.010869,0.003478,0.020289,-0.0095768,-0.0011155,-0.013908,-0.012624,-0.031028,-0.63604,-0.73154,0.044375,0.065957,-0.077597,-0.1287,0.22404,-0.15481,-0.21451,4.0369,0.18353,-0.1283,0.0014635,-1.2496,1.8111
-0.0036003,0.011911,0.0010826,0.021078,-0.01007,-0.0028565,-0.013087,-0.023572,-0.055124,-0.70237,-0.60305,0.030292,-0.00020301,-0.071512,-0.15129,0.35774,-0.10169,-0.21812,3.6948,0.21015,-0.12647,0.051083,-1.1425,1.7859
-0.0036994,0.011403,-0.0036964,0.020956,-0.011486,-0.0054462,-0.011395,-0.033381,-0.077195,-0.72749,-0.49475,0.029364,-0.0081133,-0.066833,-0.17156,0.42332,-0.053097,-0.25972,3.1729,0.21353,-0.10773,0.11138,-1.0213,1.7281
-0.0026907,0.011236,-0.008232,0.022568,-0.012227,-0.0081396,-0.0083487,-0.041406,-0.086687,-0.69989,-0.39214,0.0405,0.031676,-0.060966,-0.18708,0.429,-0.013509,-0.30227,2.47,0.20239,-0.088194,0.17629,-0.92431,1.6445
4.9496e-005,0.012438,-0.0091515,0.02556,-0.011624,-0.0089712,-0.0052812,-0.046788,-0.078994,-0.63524,-0.28655,0.057474,0.088802,-0.045459,-0.19243,0.39595,0.014319,-0.34104,1.6387,0.18697,-0.080644,0.23763,-0.79173,1.5456
0.0039195,0.014669,-0.0049918,0.026837,-0.010698,-0.0061711,-0.0036105,-0.049376,-0.056973,-0.56242,-0.17874,0.074761,0.13039,-0.014019,-0.18404,0.34954,0.029925,-0.40171,0.7804,0.17575,-0.090101,0.28446,-0.52462,1.4413
0.0070778,0.016803,0.0022319,0.023439,-0.011237,2.6047e-005,-0.0031525,-0.050426,-0.028217,-0.49674,-0.071298,0.091004,0.13833,0.030896,-0.16458,0.31235,0.034516,-0.50601,0.010248,0.17368,-0.11453,0.30439,-0.083462,1.3324
0.0075751,0.017819,0.0083013,0.015449,-0.013917,0.0070211,-0.0020931,-0.052224,-0.00092855,-0.42594,0.040083,0.10795,0.11588,0.078942,-0.14241,0.29937,0.029787,-0.63801,-0.59211,0.18134,-0.14911,0.28832,0.45282,1.2051
0.0049525,0.017272,0.010229,0.0063584,-0.017266,0.011591,0.0014812,-0.056641,0.01907,-0.3228,0.16646,0.12743,0.080407,0.11834,-0.12623,0.31476,0.017361,-0.74384,-1.0138,0.19468,-0.18994,0.23761,0.91762,1.0344
0.00097963,0.015334,0.0089133,0.00061362,-0.018617,0.012374,0.0080494,-0.063697,0.029588,-0.17411,0.31598,0.15003,0.049076,0.14114,-0.11982,0.35184,-0.00069572,-0.76734,-1.3009,0.20608,-0.23417,0.16895,1.1589,0.80138
-0.0013719,0.012781,0.0083937,0.00048962,-0.016428,0.010905,0.01649,-0.071374,0.032201,-0.00026052,0.48321,0.17628,0.029216,0.14327,-0.12129,0.39818,-0.021048,-0.69316,-1.5203,0.20724,-0.27713,0.11115,1.1406,0.51607
-0.00019119,0.010993,0.012061,0.0047477,-0.011899,0.010232,0.02517,-0.076986,0.031496,0.15301,0.64658,0.20779,0.019429,0.12202,-0.12695,0.44484,-0.039261,-0.56296,-1.7196,0.19291,-0.31015,0.091656,0.97333,0.22984
0.0036819,0.011563,0.019174,0.0098174,-0.0083104,0.012306,0.033033,-0.079119,0.032957,0.24477,0.77573,0.24582,0.017342,0.076575,-0.1355,0.49345,-0.051381,-0.45341,-1.9158,0.1638,-0.32245,0.11854,0.85244,0.022268
0.00717,0.015231,0.025039,0.012211,-0.0084736,0.016411,0.039647,-0.078613,0.03966,0.26603,0.84308,0.28808,0.024096,0.013065,-0.14861,0.5548,-0.055852,-0.43428,-2.1109,0.12651,-0.30718,0.17028,0.94668,-0.036197
0.0074918,0.020726,0.024989,0.010322,-0.012473,0.01987,0.044447,-0.077785,0.049522,0.24204,0.83293,0.32709,0.04033,-0.050945,-0.16738,0.63897,-0.054118,-0.53514,-2.3112,0.090194,-0.26758,0.20349,1.3043,0.074577
0.0045961,0.024756,0.018709,0.0047432,-0.01764,0.020246,0.046181,-0.078442,0.05553,0.21028,0.74591,0.35265,0.058712,-0.089939,-0.18849,0.74497,-0.049256,-0.73739,-2.5263,0.061376,-0.2182,0.17779,1.8295,0.30741
0.0012129,0.023853,0.010974,-0.0025101,-0.020752,0.017086,0.043343,-0.080249,0.049695,0.19518,0.60039,0.35741,0.063396,-0.083207,-0.20399,0.85932,-0.043803,-0.98753,-2.7472,0.040173,-0.17917,0.083359,2.3372,0.56937
0.00029683,0.017109,0.0079929,-0.0090889,-0.02053,0.011915,0.035342,-0.080842,0.02839,0.20114,0.43142,0.34126,0.040988,-0.029212,-0.20539,0.96482,-0.038662,-1.2175,-2.9287,0.020425,-0.16606,-0.048109,2.6501,0.76987
0.0021286,0.0075964,0.012463,-0.013256,-0.018342,0.006806,0.023468,-0.077763,-0.0048994,0.22525,0.28467,0.31112,-0.0044726,0.049822,-0.1887,1.0514,-0.033893,-1.3627,-3.004,-0.0058776,-0.18104,-0.15947,2.6823,0.8641
0.0038497,0.00082722,0.021532,-0.014514,-0.016698,0.0029202,0.010802,-0.070799,-0.041739,0.27178,0.20259,0.27649,-0.046555,0.11852,-0.1563,1.1191,-0.030277,-1.376,-2.9296,-0.042524,-0.21072,-0.20292,2.4666,0.86412
0.0020481,0.00091269,0.029198,-0.013676,-0.016999,7.8873e-005,0.00093061,-0.062744,-0.074253,0.34963,0.20612,0.24442,-0.049201,0.1482,-0.11431,1.1709,-0.029763,-1.2407,-2.7292,-0.085423,-0.23259,-0.17096,2.116,0.81468
-0.0038833,0.0072814,0.030882,-0.012161,-0.018488,-0.0026541,-0.0038428,-0.057686,-0.099626,0.45385,0.28201,0.21778,0.0097929,0.13251,-0.067837,1.2039,-0.034053,-0.97921,-2.4994,-0.12408,-0.22673,-0.10165,1.7496,0.75614
-0.010739,0.014752,0.026291,-0.010842,-0.019128,-0.0061072,-0.0036998,-0.057916,-0.12012,0.55168,0.38626,0.19739,0.12176,0.088089,-0.018351,1.2083,-0.042519,-0.64934,-2.3651,-0.14745,-0.18628,-0.053046,1.4341,0.70326
-0.013879,0.017234,0.0186,-0.0093397,-0.017461,-0.01046,-0.0010706,-0.061895,-0.139,0.59352,0.46545,0.18518,0.24997,0.04048,0.034707,1.1754,-0.051493,-0.32635,-2.4118,-0.15034,-0.1203,-0.063256,1.1758,0.65145
-0.010949,0.012306,0.011288,-0.0064793,-0.013808,-0.015141,0.0010371,-0.065036,-0.15614,0.54698,0.48524,0.1849,0.35069,0.0062501,0.089391,1.1068,-0.055765,-0.07421,-2.6347,-0.13595,-0.047235,-0.12383,0.95655,0.59757
-0.0036902,0.0030482,0.0057245,-0.0015731,-0.009842,-0.019047,0.001118,-0.062756,-0.16713,0.42848,0.44909,0.19976,0.39706,-0.015734,0.13799,1.0165,-0.051208,0.080287,-2.9361,-0.11337,0.016723,-0.18566,0.77681,0.55222
0.003609,-0.0043474,0.0013904,0.0047186,-0.0069819,-0.020993,0.00022551,-0.053312,-0.16628,0.30359,0.39504,0.22923,0.38943,-0.038314,0.16854,0.92214,-0.036622,0.1573,-3.1695,-0.091958,0.065935,-0.19417,0.66329,0.53167
0.0075067,-0.0052531,-0.0020942,0.010859,-0.005026,-0.020282,0.0012278,-0.038198,-0.15098,0.24977,0.37208,0.268,0.34713,-0.07112,0.17111,0.83494,-0.013849,0.21152,-3.2064,-0.077033,0.10446,-0.12953,0.63845,0.53875
0.0076894,0.00018734,-0.003561,0.015783,-0.0022427,-0.017026,0.0067974,-0.020142,-0.12379,0.30493,0.41028,0.30823,0.29102,-0.10904,0.14514,0.75538,0.013134,0.30233,-2.9949,-0.069294,0.13718,-0.023367,0.68384,0.5525
0.0064255,0.0077121,-0.001085,0.019682,0.0030483,-0.01186,0.017581,-0.00089992,-0.091241,0.43783,0.50254,0.34322,0.23118,-0.13358,0.10221,0.67734,0.039075,0.46071,-2.5841,-0.0673,0.16101,0.060157,0.73692,0.53827
0.0060515,0.012583,0.0057674,0.02333,0.010691,-0.0051622,0.031759,0.019015,-0.060803,0.56138,0.6085,0.36982,0.16751,-0.12671,0.061386,0.59584,0.058153,0.66971,-2.103,-0.069859,0.16461,0.065989,0.72873,0.47097
0.0068838,0.013009,0.01453,0.0267,0.018367,0.0034146,0.046093,0.038763,-0.037983,0.58107,0.67827,0.3887,0.099286,-0.087125,0.038859,0.51162,0.065459,0.87023,-1.6992,-0.075918,0.13803,-0.016132,0.63025,0.35296
0.0072699,0.010705,0.020925,0.028473,0.023307,0.01439,0.0576,0.05589,-0.024654,0.44799,0.68175,0.40331,0.033425,-0.036069,0.03846,0.43026,0.059521,0.99076,-1.4669,-0.08244,0.084883,-0.14568,0.46529,0.21314
0.0054622,0.0086392,0.02187,0.027205,0.024801,0.027149,0.06483,0.067198,-0.018438,0.18562,0.62621,0.41895,-0.016258,-0.0068264,0.049672,0.35819,0.04428,0.98673,-1.4036,-0.083233,0.02639,-0.25754,0.27793,0.089154
0.001478,0.0083806,0.017967,0.023023,0.025201,0.039201,0.068226,0.071252,-0.013247,-0.12332,0.5513,0.44202,-0.037422,-0.02372,0.055293,0.29933,0.028099,0.86834,-1.4258,-0.071237,-0.0073881,-0.30127,0.083506,0.0063512
-0.0027007,0.0093377,0.013234,0.018004,0.028122,0.047179,0.069609,0.069993,-0.0016122,-0.38051,0.50407,0.47813,-0.027547,-0.084712,0.043937,0.25353,0.019139,0.70045,-1.4342,-0.043649,0.0059236,-0.2679,-0.15303,-0.033035
-0.0046848,0.010081,0.012038,0.014625,0.035052,0.049186,0.071088,0.067472,0.021253,-0.52224,0.50923,0.52895,0.0048193,-0.1602,0.018504,0.21598,0.019831,0.57269,-1.3823,-0.0060242,0.068126,-0.18927,-0.49296,-0.046581
-0.003581,0.010001,0.015533,0.013759,0.043392,0.046509,0.073866,0.06652,0.053704,-0.54944,0.55403,0.58957,0.046459,-0.20973,-0.005878,0.17715,0.024813,0.55383,-1.296,0.028728,0.15998,-0.11427,-0.97554,-0.059065
-0.00058345,0.0096158,0.020515,0.014298,0.048098,0.042888,0.07754,0.066438,0.087475,-0.52197,0.59809,0.6491,0.08776,-0.20587,-0.013309,0.12438,0.024566,0.65334,-1.2329,0.04709,0.25309,-0.078871,-1.5842,-0.088506
0.0022173,0.0095584,0.02173,0.014894,0.045967,0.041647,0.080387,0.064126,0.11244,-0.51975,0.60207,0.69538,0.12608,-0.14947,0.00046937,0.04627,0.012465,0.81105,-1.2204,0.043453,0.32586,-0.087561,-2.2476,-0.13721
0.0037179,0.009706,0.015915,0.016001,0.038904,0.043136,0.080524,0.057798,0.12363,-0.59291,0.55557,0.72096,0.16219,-0.067269,0.024162,-0.061219,-0.010043,0.92284,-1.2271,0.024507,0.37377,-0.11434,-2.862,-0.1914
0.0046688,0.0095675,0.0043878,0.019927,0.033013,0.044879,0.077124,0.049773,0.1249,-0.73155,0.48424,0.72601,0.19397,0.005188,0.038636,-0.1909,-0.034052,0.89246,-1.1928,0.0061313,0.40879,-0.11983,-3.3118,-0.22985
0.0067187,0.0094208,-0.0077904,0.028505,0.033912,0.044301,0.070767,0.045343,0.12576,-0.87529,0.43079,0.71589,0.2136,0.042752,0.03044,-0.32578,-0.048971,0.68416,-1.0856,0.0046804,0.44979,-0.074009,-3.4795,-0.23748
0.010508,0.010652,-0.015295,0.040514,0.042139,0.041347,0.062664,0.048328,0.13312,-0.95655,0.42353,0.69568,0.21121,0.040386,0.00090609,-0.44526,-0.048968,0.34646,-0.9314,0.028309,0.51013,0.026936,-3.2661,-0.21529
0.014632,0.014514,-0.015889,0.051552,0.05267,0.038297,0.053544,0.057135,0.14518,-0.94653,0.45515,0.66646,0.18195,0.010026,-0.03567,-0.53203,-0.035635,-0.0099804,-0.7887,0.073547,0.58885,0.15737,-2.637,-0.17883
0.016572,0.020339,-0.011238,0.056911,0.058939,0.036904,0.043199,0.065036,0.15287,-0.86955,0.48723,0.62655,0.13033,-0.030075,-0.062662,-0.57576,-0.015814,-0.27123,-0.69373,0.12833,0.66949,0.27372,-1.6778,-0.14491
0.014892,0.025181,-0.0050672,0.055155,0.057783,0.035792,0.03101,0.064722,0.14846,-0.7752,0.47652,0.57621,0.067974,-0.065498,-0.071937,-0.57326,0.0029425,-0.38113,-0.62594,0.17854,0.72708,0.33501,-0.61011,-0.11677
0.01069,0.02573,-0.00050149,0.049252,0.051007,0.030995,0.01678,0.053435,0.13373,-0.69241,0.40359,0.52156,0.0066425,-0.090548,-0.066975,-0.52806,0.01596,-0.36439,-0.52264,0.21401,0.74026,0.32228,0.27159,-0.080116
0.0068802,0.021135,0.0013685,0.044171,0.042562,0.019418,0.0010187,0.034438,0.12047,-0.60513,0.2833,0.47371,-0.047944,-0.10788,-0.057278,-0.45159,0.022484,-0.29475,-0.32643,0.23135,0.70262,0.24703,0.72663,-0.013706
0.0058162,0.014171,0.0011986,0.042941,0.034406,0.002065,-0.015468,0.013829,0.12187,-0.47187,0.15072,0.44371,-0.097269,-0.12498,-0.049872,-0.36404,0.024715,-0.23046,-0.024463,0.23368,0.62683,0.14456,0.68327,0.094475
0.0073581,0.0094351,0.00030079,0.044496,0.025154,-0.016091,-0.032021,-0.0042975,0.14193,-0.27225,0.034337,0.43693,-0.14644,-0.14931,-0.045083,-0.2905,0.026035,-0.16584,0.34612,0.22803,0.53833,0.056391,0.26386,0.23884
0.0091339,0.0098598,-0.00016364,0.045012,0.012565,-0.029534,-0.047958,-0.020171,0.17167,-0.038111,-0.062971,0.45082,-0.19967,-0.18364,-0.039015,-0.25061,0.029077,-0.038259,0.71982,0.22154,0.46163,0.011332,-0.29824,0.4003
0.0087527,0.014497,0.00051111,0.041383,-0.0029596,-0.035867,-0.061979,-0.036521,0.19545,0.16258,-0.16179,0.47685,-0.2581,-0.22377,-0.029228,-0.2471,0.033962,0.21216,1.0277,0.21761,0.40722,0.014829,-0.78943,0.55549
0.0059247,0.019503,0.0023676,0.033799,-0.017697,-0.036614,-0.07197,-0.054807,0.20241,0.27906,-0.28567,0.50463,-0.32026,-0.26066,-0.018022,-0.26235,0.037495,0.57641,1.2137,0.21375,0.36713,0.050583,-1.104,0.68095
0.0025858,0.021425,0.0045581,0.025399,-0.027517,-0.034953,-0.075783,-0.073194,0.19352,0.32305,-0.43833,0.52521,-0.38321,-0.28638,-0.010805,-0.26808,0.034384,0.95916,1.2473,0.20295,0.32181,0.091699,-1.2429,0.75183
0.0010351,0.019805,0.005571,0.019595,-0.031414,-0.032875,-0.072566,-0.087991,0.17924,0.36318,-0.59558,0.53239,-0.44333,-0.29936,-0.011733,-0.24315,0.020549,1.2291,1.1386,0.17864,0.25349,0.11432,-1.2538,0.74338
0.0019183,0.016864,0.0042501,0.017536,-0.031961,-0.03032,-0.063584,-0.096851,0.17021,0.46787,-0.7174,0.52306,-0.4972,-0.30333,-0.020701,-0.18672,-0.0034337,1.302,0.94546,0.14003,0.15708,0.10703,-1.1793,0.64145
0.0038836,0.014792,0.0010142,0.017705,-0.032181,-0.026467,-0.051817,-0.10048,0.16927,0.6419,-0.77114,0.49762,-0.54332,-0.29945,-0.033674,-0.11634,-0.031551,1.1921,0.75278,0.094201,0.042218,0.07267,-1.0564,0.45508
0.0050123,0.013468,-0.0019518,0.017609,-0.032105,-0.021269,-0.040603,-0.10132,0.17081,0.81117,-0.74959,0.46078,-0.58353,-0.27784,-0.044962,-0.052503,-0.055456,0.99241,0.62412,0.052653,-0.073573,0.02373,-0.94302,0.21683
0.0044793,0.010857,-0.0021163,0.015757,-0.028708,-0.01557,-0.032289,-0.10084,0.16701,0.87212,-0.67241,0.42142,-0.62166,-0.21782,-0.04893,-0.0021369,-0.069574,0.79872,0.55568,0.024726,-0.17508,-0.02526,-0.92097,-0.034434
0.0028981,0.0055828,0.001332,0.012211,-0.019444,-0.010051,-0.027599,-0.098118,0.15456,0.76807,-0.5718,0.39051,-0.65861,-0.10032,-0.040533,0.045761,-0.074427,0.63868,0.47462,0.012455,-0.25591,-0.064154,-1.0506,-0.27595
0.0012913,-0.0010621,0.0066188,0.007602,-0.0057628,-0.0046192,-0.025785,-0.091293,0.13604,0.53126,-0.47452,0.37714,-0.68683,0.07425,-0.016216,0.10963,-0.075688,0.46271,0.29431,0.010444,-0.31825,-0.08997,-1.3116,-0.50821
-3.746e-005,-0.0058565,0.010707,0.001941,0.007192,0.00088724,-0.025205,-0.079996,0.11567,0.25696,-0.39349,0.38469,-0.68905,0.27603,0.023541,0.19978,-0.079789,0.2014,-0.0086808,0.010367,-0.36756,-0.10561,-1.5885,-0.74022
-0.001572,-0.0065702,0.011816,-0.00539,0.014709,0.0055148,-0.02411,-0.066429,0.094214,0.032753,-0.33327,0.40919,-0.64421,0.4532,0.071498,0.31073,-0.08952,-0.16028,-0.35661,0.0065225,-0.40724,-0.116,-1.7272,-0.96838
-0.0036933,-0.0042324,0.010918,-0.014521,0.016513,0.0071225,-0.021564,-0.054083,0.068351,-0.11754,-0.30075,0.4409,-0.53821,0.55417,0.11405,0.42621,-0.10258,-0.55495,-0.60815,-0.001287,-0.43695,-0.12401,-1.6287,-1.1724
-0.0059177,-0.0024671,0.010821,-0.024232,0.016598,0.0038411,-0.018291,-0.04567,0.035148,-0.22991,-0.30708,0.46867,-0.37304,0.55103,0.13641,0.53024,-0.11349,-0.87371,-0.65149,-0.0088095,-0.45495,-0.12829,-1.3117,-1.3345
-0.0071065,-0.0044103,0.013581,-0.032571,0.018853,-0.0042656,-0.016887,-0.042395,-0.0026937,-0.34413,-0.3554,0.48514,-0.16858,0.44993,0.13006,0.61353,-0.11686,-1.0408,-0.48892,-0.011027,-0.46142,-0.12412,-0.90108,-1.463
-0.0064362,-0.01004,0.018511,-0.038572,0.022563,-0.015077,-0.020973,-0.044927,-0.035977,-0.44844,-0.4246,0.49066,0.044047,0.28395,0.097108,0.67078,-0.10999,-1.0602,-0.25175,-0.0062271,-0.45937,-0.10658,-0.55568,-1.5923
-0.004206,-0.016351,0.022546,-0.043262,0.022139,-0.026114,-0.033476,-0.054513,-0.053896,-0.47711,-0.46875,0.49363,0.23293,0.096,0.048357,0.6942,-0.093959,-0.99798,-0.13207,0.0013817,-0.45234,-0.07406,-0.38725,-1.7535
-0.0018106,-0.020123,0.022591,-0.048568,0.011462,-0.036521,-0.054977,-0.072646,-0.051104,-0.36647,-0.44192,0.50593,0.37356,-0.075662,-0.0032809,0.67244,-0.073524,-0.92156,-0.27296,0.0017954,-0.44136,-0.029849,-0.42178,-1.9399
-0.000964,-0.02068,0.017853,-0.05491,-0.01099,-0.047432,-0.083058,-0.099525,-0.031606,-0.12349,-0.3349,0.53433,0.45103,-0.20255,-0.048452,0.59833,-0.055783,-0.85015,-0.6848,-0.01711,-0.42465,0.019005,-0.61529,-2.1011
-0.0027454,-0.020147,0.010289,-0.059969,-0.040683,-0.06035,-0.11297,-0.13292,-0.0067229,0.15276,-0.19377,0.5722,0.45762,-0.26452,-0.082204,0.47951,-0.047422,-0.75845,-1.2378,-0.062978,-0.4011,0.064622,-0.90055,-2.1763
-0.0069668,-0.021156,0.0030448,-0.060361,-0.070216,-0.075027,-0.13913,-0.16854,0.011193,0.31935,-0.098799,0.59782,0.39004,-0.24989,-0.10121,0.34152,-0.050971,-0.62458,-1.7337,-0.13257,-0.37466,0.10089,-1.2295,-2.141
-0.012107,-0.02426,-0.0016174,-0.055076,-0.094036,-0.08879,-0.15664,-0.20125,0.014881,0.27461,-0.11347,0.58349,0.2502,-0.16143,-0.10232,0.21805,-0.062287,-0.47354,-2.0136,-0.21032,-0.35507,0.12437,-1.5883,-2.0288
-0.015913,-0.027488,-0.0032541,-0.047351,-0.1106,-0.097899,-0.16227,-0.22596,0.0044666,0.017664,-0.24092,0.51219,0.049581,-0.023261,-0.085405,0.13307,-0.071863,-0.37236,-2.0385,-0.27477,-0.35272,0.13365,-1.9817,-1.9063
-0.016574,-0.028348,-0.0026619,-0.042676,-0.12068,-0.099689,-0.15479,-0.23801,-0.014697,-0.35933,-0.42342,0.39128,-0.18669,0.12118,-0.058018,0.086974,-0.070313,-0.37753,-1.8957,-0.31004,-0.37079,0.12863,-2.4024,-1.8233
-0.013964,-0.026342,-0.00073675,-0.044235,-0.12411,-0.093708,-0.13474,-0.2339,-0.036385,-0.73545,-0.58633,0.25197,-0.42129,0.22534,-0.035458,0.05704,-0.054672,-0.47909,-1.7294,-0.31473,-0.40079,0.11038,-2.8053,-1.778
-0.010012,-0.023607,0.0020224,-0.049851,-0.11848,-0.081133,-0.10396,-0.21292,-0.056918,-1.0298,-0.69118,0.1326,-0.61439,0.26376,-0.033014,0.013362,-0.030597,-0.59119,-1.641,-0.30067,-0.42613,0.081368,-3.1064,-1.7247
-0.0076007,-0.023113,0.0050744,-0.053487,-0.10107,-0.063324,-0.065317,-0.17844,-0.075697,-1.2262,-0.75421,0.056018,-0.73841,0.24849,-0.0547,-0.059648,-0.0081476,-0.60215,-1.6252,-0.28167,-0.43243,0.045064,-3.2128,-1.6151
-0.0084732,-0.026045,0.0072244,-0.050219,-0.072018,-0.041028,-0.022519,-0.13688,-0.093162,-1.3452,-0.81683,0.017348,-0.78979,0.22386,-0.088016,-0.15041,0.0059355,-0.44944,-1.5816,-0.26055,-0.41777,0.0047874,-3.069,-1.4386
-0.011762,-0.030674,0.0067904,-0.040276,-0.035614,-0.014921,0.019987,-0.094082,-0.10818,-1.4,-0.89592,-0.0090153,-0.78955,0.23927,-0.11121,-0.22524,0.013308,-0.16508,-1.3904,-0.22544,-0.39526,-0.03745,-2.6903,-1.2279
-0.014524,-0.03362,0.0026704,-0.02852,0.0014907,0.013103,0.057648,-0.051976,-0.1172,-1.3774,-0.95774,-0.049019,-0.77065,0.3159,-0.10937,-0.24883,0.022159,0.14099,-0.99512,-0.15931,-0.38549,-0.081018,-2.159,-1.0308
-0.014072,-0.032342,-0.0045927,-0.019942,0.033613,0.039195,0.086955,-0.0087292,-0.11593,-1.2592,-0.9377,-0.11119,-0.75933,0.42996,-0.086987,-0.20721,0.039775,0.34737,-0.43351,-0.05586,-0.40366,-0.12549,-1.5831,-0.87342
-0.010217,-0.026802,-0.012842,-0.01537,0.057931,0.058146,0.10653,0.036848,-0.10239,-1.0554,-0.78791,-0.18396,-0.76254,0.52542,-0.065913,-0.11816,0.065511,0.39163,0.1968,0.070313,-0.45018,-0.16908,-1.0444,-0.74591
-0.0054158,-0.019183,-0.019626,-0.011239,0.073622,0.065145,0.11718,0.080302,-0.07868,-0.81515,-0.51273,-0.247,-0.76958,0.54886,-0.068563,-0.021913,0.089791,0.29884,0.80075,0.18724,-0.51144,-0.20793,-0.57036,-0.61829
-0.0026585,-0.012224,-0.023792,-0.0033669,0.079669,0.057759,0.12057,0.11088,-0.04999,-0.60107,-0.16585,-0.28472,-0.76565,0.48278,-0.099117,0.041437,0.099956,0.1537,1.3237,0.26038,-0.57021,-0.23668,-0.141,-0.47109
-0.0029611,-0.0076391,-0.025996,0.0089852,0.074063,0.037147,0.11749,0.11702,-0.021396,-0.45066,0.18386,-0.29094,-0.74605,0.35455,-0.13805,0.053,0.08858,0.039911,1.7436,0.26907,-0.61821,-0.25012,0.28131,-0.31456
-0.0046719,-0.0056089,-0.027685,0.022423,0.055692,0.0079218,0.10743,0.094562,0.0048794,-0.36,0.48677,-0.26452,-0.71949,0.21616,-0.15524,0.020982,0.058483,-0.0099172,2.0416,0.21543,-0.66185,-0.24525,0.72712,-0.18285
-0.0050681,-0.0052468,-0.029513,0.032426,0.027289,-0.023306,0.090172,0.051261,0.029665,-0.3023,0.72175,-0.20436,-0.69858,0.11139,-0.13172,-0.030962,0.021492,-0.022035,2.1948,0.12268,-0.71683,-0.22304,1.2118,-0.10916
-0.0026499,-0.0053594,-0.030685,0.037014,-0.003646,-0.050124,0.068271,0.0038007,0.05466,-0.26119,0.88096,-0.11038,-0.68614,0.054893,-0.073008,-0.083086,-0.0076384,-0.047865,2.2028,0.025657,-0.79544,-0.18926,1.7363,-0.10082
0.001909,-0.0050138,-0.029845,0.037835,-0.02765,-0.068302,0.047906,-0.031053,0.080237,-0.24635,0.95223,0.011788,-0.66928,0.035359,-0.0039189,-0.13207,-0.018231,-0.11891,2.117,-0.04216,-0.8956,-0.15358,2.2813,-0.13076
0.0067129,-0.0038718,-0.026673,0.038149,-0.038292,-0.076652,0.036481,-0.045066,0.1054,-0.27783,0.91976,0.15034,-0.62671,0.034721,0.049824,-0.18842,-0.0079992,-0.22455,2.0314,-0.061085,-0.99938,-0.12653,2.7971,-0.15
0.01028,-0.0023162,-0.022646,0.040018,-0.035677,-0.076478,0.038201,-0.041248,0.12973,-0.35709,0.78323,0.29428,-0.54391,0.043813,0.077812,-0.26256,0.016818,-0.32428,2.0259,-0.033055,-1.0816,-0.11529,3.204,-0.11324
0.012319,-0.0012017,-0.020235,0.043295,-0.025677,-0.07014,0.051029,-0.029551,0.15481,-0.45461,0.5756,0.4412,-0.42476,0.062163,0.087047,-0.35207,0.044925,-0.37656,2.1043,0.019344,-1.1223,-0.12026,3.4199,-0.0026288
0.013313,-0.0011499,-0.021221,0.046906,-0.015385,-0.05976,0.067844,-0.019377,0.18305,-0.5269,0.35913,0.59627,-0.2915,0.08672,0.091082,-0.44122,0.065238,-0.35662,2.1838,0.064203,-1.1138,-0.13496,3.4056,0.16339
0.013833,-0.001802,-0.025586,0.050652,-0.0082467,-0.046821,0.081348,-0.014387,0.21441,-0.54635,0.19689,0.76066,-0.17385,0.10447,0.097779,-0.51338,0.071655,-0.25298,2.1536,0.077371,-1.0598,-0.14957,3.1968,0.34133
0.014437,-0.0017595,-0.031796,0.055595,-0.0025072,-0.032599,0.089013,-0.012587,0.24426,-0.51617,0.11869,0.92053,-0.095248,0.097965,0.10596,-0.56619,0.065225,-0.058621,1.9586,0.055354,-0.96777,-0.15624,2.8937,0.48704
0.01597,0.00051161,-0.038034,0.062761,0.0060581,-0.018776,0.094024,-0.010455,0.26509,-0.4581,0.10665,1.0496,-0.064849,0.058101,0.11089,-0.6164,0.052699,0.22072,1.6418,0.01529,-0.84332,-0.15257,2.6098,0.57751
0.019357,0.0054876,-0.043212,0.071701,0.019508,-0.0075808,0.10144,-0.0071175,0.27155,-0.38761,0.11162,1.1266,-0.078465,-0.0092544,0.11007,-0.68951,0.04233,0.54149,1.3131,-0.01813,-0.6912,-0.14113,2.4102,0.6156
0.024629,0.012205,-0.047032,0.080485,0.034973,-0.0013607,0.11286,-0.0052304,0.26461,-0.30202,0.088222,1.1532,-0.12542,-0.089421,0.10254,-0.80127,0.039492,0.80964,1.0731,-0.029246,-0.52099,-0.12597,2.2828,0.61607
0.030138,0.019082,-0.049414,0.087188,0.046015,-0.0018732,0.12421,-0.0082287,0.25095,-0.19199,0.022466,1.1537,-0.19545,-0.17078,0.08371,-0.94428,0.044827,0.91168,0.95724,-0.019477,-0.35099,-0.10894,2.1568,0.5866
0.033155,0.025103,-0.050118,0.091405,0.047133,-0.009662,0.12874,-0.016584,0.23735,-0.06246,-0.067864,1.1521,-0.28161,-0.24929,0.044315,-1.0888,0.055808,0.78503,0.93735,-0.0019713,-0.20422,-0.088281,1.9532,0.52247
0.031833,0.030149,-0.048995,0.094317,0.03804,-0.023655,0.12269,-0.026348,0.22465,0.061004,-0.15743,1.1457,-0.37871,-0.32067,-0.021858,-1.1952,0.07009,0.47988,0.96461,0.011323,-0.097344,-0.059627,1.6285,0.42116
0.026958,0.034222,-0.046499,0.097288,0.024457,-0.041082,0.1086,-0.031273,0.20655,0.14959,-0.24003,1.0977,-0.47965,-0.36908,-0.10673,-1.2295,0.087854,0.15629,1.0058,0.019118,-0.03027,-0.018251,1.1874,0.30269
0.02169,0.036633,-0.043751,0.10037,0.014755,-0.057924,0.093415,-0.026886,0.17511,0.19764,-0.33424,0.96023,-0.57259,-0.36638,-0.18465,-1.1719,0.11144,0.0039282,1.0425,0.029907,0.015035,0.0384,0.66451,0.2125
0.019229,0.036346,-0.041914,0.10221,0.014792,-0.070079,0.082784,-0.01337,0.12887,0.23354,-0.46276,0.712,-0.6411,-0.2876,-0.22365,-1.0191,0.14283,0.13415,1.0485,0.053008,0.064242,0.10804,0.098468,0.19677
0.020306,0.033322,-0.041398,0.1014,0.024529,-0.074999,0.076721,0.0048169,0.077012,0.30378,-0.62317,0.38109,-0.66821,-0.13268,-0.20516,-0.78303,0.18113,0.52147,0.98176,0.089697,0.13532,0.1816,-0.48071,0.26663
0.022761,0.029323,-0.041635,0.098016,0.038554,-0.072994,0.070241,0.021978,0.035634,0.44238,-0.77582,0.033484,-0.6434,0.062883,-0.13769,-0.48864,0.22181,1.0361,0.80705,0.13113,0.22855,0.24449,-1.0446,0.38219
0.023625,0.026925,-0.041646,0.093845,0.049732,-0.067274,0.058295,0.034259,0.018111,0.64962,-0.86109,-0.26501,-0.56976,0.23904,-0.052844,-0.16991,0.25803,1.5389,0.5263,0.16347,0.32804,0.28261,-1.5535,0.47552
0.021805,0.027363,-0.04086,0.09097,0.053171,-0.06249,0.040359,0.040493,0.026329,0.89414,-0.83503,-0.48573,-0.46646,0.33915,0.014341,0.139,0.28339,1.9647,0.18425,0.1755,0.41233,0.29126,-1.9544,0.49882
0.018896,0.029287,-0.03943,0.089924,0.047974,-0.062443,0.020526,0.040841,0.049013,1.1326,-0.69746,-0.6467,-0.36317,0.33818,0.046957,0.41481,0.29491,2.335,-0.15791,0.16396,0.46579,0.2806,-2.1976,0.46056
0.017441,0.029911,-0.03783,0.088989,0.036348,-0.068243,0.0033135,0.035347,0.068462,1.3293,-0.49326,-0.79027,-0.28716,0.25418,0.054404,0.65112,0.29509,2.7025,-0.45451,0.1345,0.48377,0.27185,-2.2614,0.41898
0.018385,0.027672,-0.036235,0.085338,0.021571,-0.077794,-0.01056,0.024283,0.071193,1.4625,-0.28735,-0.94756,-0.24979,0.13679,0.06221,0.8536,0.29184,3.0812,-0.68406,0.099192,0.47057,0.2851,-2.1686,0.43664
0.020205,0.023857,-0.034372,0.077221,0.0065655,-0.086746,-0.024273,0.0099329,0.055513,1.5209,-0.1313,-1.1159,-0.24099,0.040104,0.091864,1.0261,0.29533,3.4196,-0.83584,0.071952,0.43432,0.32666,-1.9811,0.53178
0.020476,0.021524,-0.032018,0.065558,-0.0064419,-0.090345,-0.040922,-0.0026161,0.03146,1.4996,-0.042131,-1.2626,-0.23615,-0.0044513,0.14537,1.158,0.31212,3.6285,-0.9016,0.063003,0.38316,0.38509,-1.7752,0.66515
0.01824,0.022631,-0.029571,0.053693,-0.015852,-0.085427,-0.059609,-0.0075768,0.013714,1.4023,-0.0022138,-1.3486,-0.21104,-6.3289e-005,0.20464,1.2233,0.33969,3.6337,-0.89013,0.073871,0.32372,0.43849,-1.6107,0.77112
0.014807,0.026132,-0.027955,0.045416,-0.020936,-0.071791,-0.075619,-0.0025238,0.012395,1.2457,0.024419,-1.352,-0.15446,0.024292,0.24447,1.1948,0.36555,3.4112,-0.84804,0.095675,0.26076,0.46673,-1.5101,0.8062
0.012247,0.028864,-0.027737,0.042612,-0.022191,-0.052299,-0.084502,0.0090442,0.027443,1.0575,0.071059,-1.2769,-0.069903,0.036723,0.24896,1.0631,0.37308,2.9886,-0.8516,0.11303,0.19738,0.4594,-1.4556,0.77557
0.01118,0.028378,-0.028208,0.044168,-0.0211,-0.031339,-0.085846,0.019482,0.049506,0.8659,0.15264,-1.145,0.033681,0.023853,0.21975,0.84881,0.35154,2.4274,-0.95959,0.11273,0.13618,0.41578,-1.4011,0.71903
0.01017,0.024977,-0.02742,0.046841,-0.019103,-0.012267,-0.082773,0.022362,0.066051,0.68698,0.26019,-0.97988,0.15367,-0.0033151,0.17187,0.59692,0.30367,1.8044,-1.1628,0.092235,0.081665,0.34081,-1.294,0.67198
0.0073964,0.02107,-0.023499,0.047346,-0.016513,0.0046456,-0.077599,0.017287,0.068489,0.52107,0.36593,-0.79741,0.29804,-0.021778,0.12203,0.35652,0.24485,1.1985,-1.3828,0.061853,0.041422,0.24324,-1.0989,0.6361
0.0029785,0.01856,-0.01637,0.044141,-0.012321,0.022099,-0.068169,0.010252,0.056093,0.35973,0.43665,-0.6066,0.47855,-0.015986,0.079229,0.15784,0.19368,0.6733,-1.5325,0.037931,0.023594,0.13762,-0.81814,0.58279
-0.00041415,0.016891,-0.0084502,0.037806,-0.0049737,0.043298,-0.048991,0.0094544,0.034969,0.19714,0.45029,-0.41611,0.69801,0.012105,0.04423,0.0011139,0.16027,0.25494,-1.5928,0.031284,0.030776,0.044992,-0.50032,0.48394
0.00050498,0.013669,-0.0034699,0.030137,0.0066948,0.068943,-0.016702,0.020392,0.013498,0.036245,0.40857,-0.23876,0.94042,0.050319,0.016941,-0.13684,0.14093,-0.081757,-1.6324,0.039093,0.054874,-0.012842,-0.22552,0.34184
0.0066885,0.007301,-0.0040803,0.023,0.023164,0.096179,0.024962,0.044243,-0.0024858,-0.11368,0.33892,-0.089754,1.1705,0.092968,0.0037021,-0.28419,0.12294,-0.39722,-1.7469,0.046642,0.078248,-0.02468,-0.068072,0.19293
0.015352,-0.00087161,-0.00998,0.017797,0.044424,0.12052,0.06544,0.07985,-0.01209,-0.24319,0.28376,0.018786,1.3435,0.1498,0.016835,-0.45737,0.095557,-0.74087,-1.9653,0.038029,0.082079,0.0008063,-0.054566,0.082432
0.021477,-0.0070461,-0.018029,0.015472,0.069864,0.13909,0.093085,0.12588,-0.018716,-0.34554,0.28177,0.081941,1.4204,0.23662,0.06545,-0.65645,0.058983,-1.102,-2.2096,0.0081659,0.056795,0.035963,-0.1464,0.030825
0.0212,-0.0078091,-0.024284,0.016366,0.097487,0.15239,0.10183,0.1799,-0.027688,-0.41472,0.35023,0.10225,1.3836,0.35466,0.14456,-0.87248,0.02466,-1.3963,-2.3451,-0.032703,0.0072803,0.046712,-0.26393,0.018856
0.01449,-0.0029807,-0.026389,0.019638,0.12328,0.16307,0.093552,0.2352,-0.043866,-0.44402,0.47734,0.087944,1.2466,0.47835,0.23212,-1.0962,0.0075224,-1.505,-2.2807,-0.065138,-0.050465,0.010168,-0.33826,0.002915
0.0050862,0.0039788,-0.024546,0.022877,0.14195,0.17311,0.074756,0.27956,-0.069965,-0.43009,0.62774,0.052212,1.0513,0.56591,0.29815,-1.3179,0.016296,-1.3455,-2.0266,-0.072786,-0.098045,-0.072562,-0.35198,-0.051014
-0.0021903,0.008373,-0.020589,0.022844,0.14929,0.18203,0.050803,0.29952,-0.10529,-0.38039,0.7585,0.013362,0.85419,0.58741,0.32098,-1.5173,0.048504,-0.92808,-1.6631,-0.052448,-0.12238,-0.17523,-0.33684,-0.14031
-0.0046056,0.0075197,-0.016214,0.017323,0.14487,0.18778,0.02263,0.28829,-0.14479,-0.31519,0.83776,-0.0072531,0.70449,0.5476,0.29933,-1.6557,0.092344,-0.35892,-1.2561,-0.016148,-0.11851,-0.25764,-0.3322,-0.22575
-0.0028409,0.0022746,-0.011895,0.0068114,0.13293,0.18917,-0.011937,0.25131,-0.17927,-0.25776,0.85768,0.0081309,0.62552,0.48315,0.25172,-1.6828,0.1326,0.21113,-0.80682,0.014597,-0.088583,-0.28429,-0.34242,-0.25901
0.00022139,-0.0041667,-0.0071494,-0.005524,0.12084,0.18751,-0.05418,0.20407,-0.19808,-0.21777,0.83612,0.065103,0.60978,0.43448,0.2036,-1.5625,0.15612,0.66086,-0.28826,0.017773,-0.040717,-0.24249,-0.33249,-0.21885
0.0019173,-0.0089175,-0.0015548,-0.015876,0.11566,0.18581,-0.10164,0.16316,-0.19402,-0.1821,0.80641,0.15301,0.62956,0.41457,0.17143,-1.3008,0.15446,0.95061,0.27225,-0.021322,0.01092,-0.15091,-0.26602,-0.13138
0.0014006,-0.011256,0.0045441,-0.022318,0.12115,0.18661,-0.14849,0.13728,-0.16796,-0.12439,0.80039,0.25003,0.65579,0.40025,0.1549,-0.95533,0.12443,1.1246,0.75629,-0.10518,0.047111,-0.052217,-0.15066,-0.060977
-0.00054427,-0.012463,0.010084,-0.025766,0.13663,0.19035,-0.18807,0.12506,-0.12974,-0.02936,0.83284,0.33517,0.67276,0.35307,0.14162,-0.61302,0.068259,1.2677,1.0168,-0.22223,0.048744,0.0089551,-0.048447,-0.077645
-0.0027887,-0.014265,0.013755,-0.028622,0.15808,0.19574,-0.21475,0.12106,-0.0937,0.086875,0.89472,0.39886,0.68118,0.25232,0.11906,-0.34688,-0.0060114,1.446,0.99371,-0.34882,0.0054953,0.011931,-0.039033,-0.22076
-0.0048437,-0.017439,0.014394,-0.032354,0.18028,0.20101,-0.22406,0.12401,-0.07125,0.17915,0.95777,0.44443,0.69076,0.1134,0.083946,-0.17889,-0.085256,1.6658,0.7743,-0.45648,-0.077122,-0.026464,-0.16422,-0.47961
-0.0068192,-0.021528,0.011273,-0.036138,0.199,0.20464,-0.21216,0.14005,-0.065257,0.19968,0.98731,0.48001,0.71003,-0.021795,0.042424,-0.075046,-0.15454,1.8723,0.53287,-0.52327,-0.17816,-0.061611,-0.39695,-0.79909
-0.0087976,-0.025414,0.0045363,-0.037684,0.21225,0.20454,-0.17699,0.17806,-0.070044,0.12992,0.95621,0.50816,0.74025,-0.11236,0.0032135,0.024511,-0.2024,1.9859,0.39258,-0.5441,-0.27017,-0.049774,-0.65598,-1.1036
-0.010502,-0.027973,-0.0043081,-0.035389,0.22038,0.19707,-0.12106,0.24186,-0.076561,-0.0065169,0.85426,0.52201,0.77515,-0.14069,-0.028694,0.16212,-0.22561,1.9499,0.33235,-0.53239,-0.33157,0.02301,-0.85132,-1.3244
-0.011577,-0.02847,-0.012468,-0.029918,0.22541,0.17771,-0.053383,0.32607,-0.078524,-0.15961,0.6903,0.51083,0.80411,-0.11472,-0.051977,0.33647,-0.23015,1.7609,0.22683,-0.51066,-0.35507,0.13209,-0.9257,-1.4175
-0.012009,-0.026848,-0.01701,-0.023938,0.22964,0.14392,0.012507,0.41886,-0.075117,-0.28464,0.48802,0.46942,0.81588,-0.054798,-0.064261,0.50935,-0.2276,1.4622,-0.010069,-0.49522,-0.34778,0.23154,-0.86722,-1.3687
-0.012093,-0.023985,-0.016581,-0.0204,0.23414,0.098152,0.064292,0.50796,-0.069205,-0.36531,0.27815,0.40314,0.80132,0.017703,-0.059932,0.63532,-0.22865,1.1096,-0.3052,-0.4861,-0.32497,0.28421,-0.69448,-1.1907
-0.011953,-0.021527,-0.012342,-0.020832,0.2375,0.048089,0.096745,0.584,-0.063764,-0.41276,0.089392,0.32446,0.75459,0.07898,-0.035362,0.68992,-0.23787,0.7352,-0.44197,-0.46961,-0.30227,0.28235,-0.43395,-0.91656
-0.011246,-0.021023,-0.0071197,-0.024821,0.23561,0.0030345,0.11307,0.63892,-0.06002,-0.44528,-0.058931,0.2446,0.67269,0.09486,0.0018396,0.67771,-0.25281,0.33771,-0.20927,-0.43171,-0.29019,0.24545,-0.10842,-0.59424
-0.0095263,-0.022803,-0.0032613,-0.030678,0.22303,-0.031561,0.12057,0.66346,-0.058327,-0.46831,-0.16015,0.16753,0.55419,0.023154,0.029358,0.62091,-0.26769,-0.098664,0.43256,-0.37138,-0.29172,0.20087,0.25963,-0.27912
-0.0070386,-0.025628,-0.00098374,-0.036492,0.19581,-0.057355,0.12429,0.64905,-0.059849,-0.47108,-0.21846,0.090682,0.40001,-0.16456,0.019688,0.5437,-0.2788,-0.57518,1.2999,-0.3036,-0.30158,0.16525,0.63876,-0.02418
-0.0050786,-0.027645,0.0013149,-0.040923,0.15435,-0.081482,0.12405,0.59459,-0.066619,-0.44012,-0.24394,0.010029,0.2184,-0.45217,-0.040679,0.46533,-0.28734,-1.0673,2.0855,-0.24985,-0.30724,0.14056,0.98527,0.1328
-0.0053503,-0.027913,0.0050681,-0.043648,0.10477,-0.11101,0.11712,0.51214,-0.079756,-0.37498,-0.24823,-0.076062,0.03176,-0.76369,-0.13564,0.40231,-0.2976,-1.5392,2.5316,-0.22356,-0.29277,0.12335,1.2507,0.18195
-0.0086418,-0.027093,0.0097793,-0.045618,0.057369,-0.14755,0.10374,0.42454,-0.097887,-0.29146,-0.24336,-0.16764,-0.12223,-0.98197,-0.2209,0.37036,-0.31185,-1.9669,2.5515,-0.2214,-0.24578,0.1143,1.397,0.14879
-0.013905,-0.026625,0.013223,-0.0489,0.022607,-0.18606,0.08972,0.35441,-0.11767,-0.20937,-0.24236,-0.26656,-0.20202,-0.99849,-0.24517,0.379,-0.32604,-2.3462,2.2331,-0.22594,-0.16444,0.11726,1.411,0.090777
-0.018628,-0.027246,0.013484,-0.055698,0.0067823,-0.21839,0.083215,0.3119,-0.13606,-0.13584,-0.25785,-0.37755,-0.18374,-0.76912,-0.1797,0.42227,-0.33046,-2.6773,1.7483,-0.21699,-0.059812,0.13005,1.3116,0.079369
-0.020369,-0.028373,0.010917,-0.066719,0.009507,-0.23877,0.088203,0.29022,-0.15217,-0.058249,-0.29671,-0.5046,-0.079013,-0.34421,-0.037856,0.47561,-0.3154,-2.9452,1.2523,-0.18325,0.049262,0.13889,1.1455,0.17085
-0.018353,-0.02895,0.0080991,-0.080016,0.024265,-0.247,0.10046,0.27175,-0.16682,0.04713,-0.35398,-0.64523,0.066525,0.14536,0.12857,0.50523,-0.27799,-3.1172,0.8334,-0.12712,0.14607,0.12505,0.97104,0.37809
-0.013949,-0.028802,0.0076996,-0.091575,0.04148,-0.24728,0.10987,0.23893,-0.18037,0.19694,-0.41205,-0.78792,0.19789,0.54149,0.25505,0.48519,-0.22495,-3.165,0.52137,-0.060806,0.22421,0.080117,0.83717,0.66012
-0.009747,-0.028972,0.010171,-0.09775,0.052456,-0.24447,0.10758,0.18216,-0.19101,0.38553,-0.44861,-0.9153,0.28322,0.72633,0.29731,0.4104,-0.16866,-3.0879,0.31608,0.002114,0.28858,0.01627,0.76659,0.93957
-0.0079956,-0.030623,0.013385,-0.097895,0.05249,-0.24093,0.092216,0.10097,-0.1949,0.5825,-0.44988,-1.0109,0.33018,0.67164,0.25214,0.29686,-0.11926,-2.9137,0.20489,0.054026,0.34925,-0.038586,0.75112,1.1407
-0.0094821,-0.033663,0.01463,-0.095021,0.042133,-0.2362,0.070649,0.0016457,-0.18807,0.74454,-0.42023,-1.0642,0.37275,0.44575,0.15435,0.17009,-0.078809,-2.6727,0.16454,0.095325,0.41353,-0.058459,0.76184,1.2249
-0.013423,-0.036596,0.013207,-0.093732,0.026342,-0.22902,0.05311,-0.10446,-0.16844,0.83465,-0.38102,-1.0717,0.43815,0.17438,0.052985,0.051214,-0.041819,-2.3707,0.16364,0.13122,0.48184,-0.036418,0.76752,1.2004
-0.018117,-0.037821,0.011278,-0.096979,0.012007,-0.2191,0.047064,-0.20123,-0.13674,0.83887,-0.35849,-1.035,0.52022,-0.024816,-0.017174,-0.050348,-0.0017956,-1.9908,0.17585,0.16641,0.54888,0.01122,0.75069,1.1011
-0.021786,-0.037078,0.01211,-0.10429,0.0049476,-0.20712,0.054338,-0.27048,-0.096462,0.77171,-0.36848,-0.95954,0.58066,-0.098698,-0.050628,-0.13556,0.041793,-1.5255,0.196,0.20153,0.60693,0.055289,0.71294,0.95363
-0.023238,-0.035638,0.017146,-0.1128,0.007746,-0.19342,0.072727,-0.29891,-0.053142,0.66789,-0.40785,-0.85631,0.57727,-0.074937,-0.064775,-0.21035,0.081808,-1.0127,0.24405,0.23331,0.64727,0.069745,0.66828,0.75967
-0.022275,-0.035135,0.024426,-0.12006,0.019411,-0.17746,0.099575,-0.28632,-0.013103,0.56486,-0.45767,-0.74209,0.4964,-0.03053,-0.079701,-0.28142,0.10853,-0.53527,0.35095,0.25776,0.65987,0.042455,0.63045,0.50657
-0.019824,-0.036326,0.029748,-0.12587,0.036812,-0.15925,0.13372,-0.24801,0.018632,0.48649,-0.4955,-0.6361,0.36462,-0.035207,-0.10112,-0.35402,0.11754,-0.17645,0.53505,0.27376,0.63493,-0.023091,0.60253,0.19567
-0.017569,-0.038941,0.029708,-0.13176,0.05676,-0.14159,0.17415,-0.20754,0.040654,0.4367,-0.50809,-0.55231,0.23229,-0.10806,-0.11924,-0.42952,0.11415,0.039012,0.78335,0.28441,0.56892,-0.1114,0.57589,-0.13768
-0.017046,-0.04247,0.02422,-0.13873,0.077332,-0.13087,0.21698,-0.18343,0.056025,0.40538,-0.49644,-0.49276,0.14365,-0.21468,-0.12208,-0.50192,0.11058,0.16997,1.0467,0.29523,0.47249,-0.199,0.54015,-0.43037
-0.018629,-0.046707,0.016615,-0.14555,0.097813,-0.13475,0.25384,-0.17894,0.070159,0.37939,-0.47095,-0.44781,0.11598,-0.30128,-0.10975,-0.55679,0.11798,0.325,1.2502,0.31042,0.37282,-0.25846,0.49909,-0.62041
-0.021183,-0.051351,0.011352,-0.14928,0.11774,-0.15775,0.2743,-0.18245,0.086438,0.34931,-0.44122,-0.4043,0.13971,-0.33603,-0.096023,-0.57723,0.13904,0.58989,1.316,0.32943,0.30482,-0.26581,0.4806,-0.67859
-0.022827,-0.055304,0.011069,-0.14757,0.13604,-0.19751,0.27151,-0.17799,0.10278,0.3081,-0.40826,-0.35572,0.1934,-0.32584,-0.096165,-0.55529,0.16675,0.96801,1.1931,0.3462,0.29415,-0.21206,0.52869,-0.62292
-0.022342,-0.056869,0.015002,-0.14055,0.1508,-0.24442,0.24719,-0.15806,0.11244,0.24735,-0.36406,-0.30612,0.25846,-0.30047,-0.11276,-0.50069,0.19003,1.3762,0.8825,0.35183,0.34247,-0.11277,0.6746,-0.50941
-0.020113,-0.055089,0.019628,-0.13089,0.15965,-0.28479,0.21153,-0.12931,0.10935,0.1595,-0.29773,-0.26455,0.3235,-0.28328,-0.13326,-0.43772,0.20175,1.698,0.44543,0.33945,0.42592,-0.0062802,0.90142,-0.40611
-0.017798,-0.050963,0.020988,-0.12199,0.16027,-0.30569,0.17694,-0.10748,0.093981,0.047246,-0.20289,-0.23506,0.38041,-0.2761,-0.14187,-0.39042,0.20307,1.855,-0.016793,0.30879,0.50871,0.063159,1.1283,-0.36314
-0.016969,-0.04708,0.017179,-0.11577,0.15103,-0.299,0.14979,-0.10592,0.074787,-0.069348,-0.081355,-0.21134,0.42092,-0.26902,-0.13478,-0.36671,0.20123,1.8484,-0.40269,0.26763,0.56291,0.0694,1.2351,-0.39079
-0.017866,-0.045642,0.0095372,-0.11179,0.13202,-0.26288,0.1268,-0.12621,0.063115,-0.15917,0.057628,-0.18108,0.43877,-0.26192,-0.12459,-0.35498,0.20315,1.7459,-0.64916,0.22915,0.581,0.019801,1.1226,-0.4547
-0.019289,-0.046609,0.001778,-0.108,0.1061,-0.20105,0.099373,-0.15711,0.065108,-0.20016,0.20003,-0.13665,0.43446,-0.27399,-0.12957,-0.33633,0.21057,1.6316,-0.74613,0.20619,0.57394,-0.049788,0.77589,-0.49319
-0.019654,-0.047756,-0.0024452,-0.10237,0.078863,-0.12101,0.062797,-0.18156,0.076957,-0.19882,0.32902,-0.082665,0.41565,-0.33052,-0.15725,-0.30176,0.22014,1.5554,-0.72307,0.20562,0.55843,-0.098103,0.28708,-0.45261
-0.01826,-0.046734,-0.0020089,-0.094276,0.05678,-0.032142,0.022053,-0.1861,0.087606,-0.19106,0.42667,-0.03353,0.39078,-0.43758,-0.19677,-0.25828,0.22795,1.5134,-0.62418,0.22555,0.5443,-0.10396,-0.1844,-0.32402
-0.015692,-0.043227,0.00093013,-0.08461,0.043882,0.055968,-0.010994,-0.16614,0.087088,-0.21979,0.47739,-0.0023763,0.36103,-0.56694,-0.22636,-0.21825,0.2336,1.4659,-0.49383,0.25639,0.53068,-0.076859,-0.49665,-0.15791
-0.013127,-0.039185,0.0025508,-0.074838,0.039367,0.13494,-0.026761,-0.12469,0.073937,-0.30429,0.47373,0.0098259,0.3185,-0.66462,-0.22925,-0.1817,0.24023,1.3743,-0.37799,0.28478,0.51158,-0.047064,-0.60337,-0.042354
-0.011233,-0.036912,0.00018941,-0.065633,0.038411,0.19885,-0.025056,-0.066876,0.055781,-0.42521,0.42202,0.016414,0.2538,-0.67834,-0.20504,-0.1291,0.2505,1.229,-0.32653,0.29827,0.48449,-0.044429,-0.57411,-0.053479
-0.0096319,-0.036877,-0.005848,-0.056191,0.036242,0.24494,-0.013497,0.0048034,0.042796,-0.53724,0.34357,0.036849,0.16729,-0.5857,-0.1685,-0.033508,0.26241,1.052,-0.37815,0.28922,0.45431,-0.082057,-0.5418,-0.20869
-0.007337,-0.037335,-0.012919,-0.044827,0.032513,0.27315,0.0011882,0.091031,0.039528,-0.59995,0.26969,0.084393,0.074214,-0.40681,-0.13886,0.11681,0.26887,0.87471,-0.52914,0.25735,0.4305,-0.15407,-0.6122,-0.45455
-0.003679,-0.036064,-0.018465,-0.030514,0.032174,0.28482,0.020416,0.19234,0.041827,-0.60292,0.23192,0.15804,-0.0021577,-0.1963,-0.1292,0.30413,0.26152,0.71003,-0.71243,0.21007,0.42063,-0.24399,-0.79623,-0.69836
0.0011076,-0.032437,-0.022011,-0.014148,0.041494,0.28099,0.052041,0.30489,0.041142,-0.5677,0.25124,0.24288,-0.045256,-0.020403,-0.14255,0.48818,0.23594,0.54086,-0.81656,0.15972,0.42589,-0.33256,-1.0098,-0.86135
0.0061045,-0.027764,-0.025036,0.0016464,0.062098,0.26162,0.10062,0.41865,0.032179,-0.52873,0.32968,0.31689,-0.056658,0.070723,-0.17419,0.62923,0.19426,0.3386,-0.74678,0.11767,0.44153,-0.39806,-1.1368,-0.91676
0.010424,-0.023638,-0.029095,0.014223,0.087999,0.2264,0.15857,0.51912,0.017218,-0.51047,0.44701,0.35921,-0.054518,0.064895,-0.21504,0.70957,0.14386,0.10112,-0.49055,0.087771,0.46133,-0.4128,-1.1051,-0.88893
0.013694,-0.020078,-0.034163,0.022859,0.10854,0.17664,0.20703,0.59174,0.0034452,-0.51774,0.56509,0.35639,-0.059294,-0.0051789,-0.25296,0.73755,0.093468,-0.11946,-0.13466,0.063883,0.48214,-0.34667,-0.92178,-0.82035
0.015896,-0.015539,-0.038797,0.02925,0.11534,0.11674,0.22697,0.62683,-0.004107,-0.54182,0.64145,0.30607,-0.07766,-0.076029,-0.27385,0.73424,0.04983,-0.22915,0.18872,0.034495,0.50492,-0.18319,-0.64808,-0.73591
0.016869,-0.0089166,-0.04172,0.036019,0.10777,0.053703,0.21199,0.62324,-0.0075924,-0.5722,0.64898,0.21863,-0.097854,-0.085674,-0.26613,0.71608,0.016488,-0.14815,0.39358,-0.0074455,0.53175,0.059669,-0.34494,-0.63209
0.016162,-0.0014839,-0.043076,0.04447,0.092574,-0.0051705,0.17231,0.58951,-0.014615,-0.60257,0.59229,0.11597,-0.10104,-0.0086907,-0.2279,0.68771,-0.0055573,0.12243,0.49885,-0.056781,0.56088,0.32162,-0.038924,-0.49515
0.013536,0.0035153,-0.044098,0.053566,0.077723,-0.05484,0.12697,0.54165,-0.030917,-0.62821,0.50873,0.025889,-0.08006,0.12753,-0.17144,0.64768,-0.01684,0.47442,0.60441,-0.097477,0.58409,0.51859,0.26642,-0.32763
0.009643,0.0037138,-0.045737,0.061092,0.065614,-0.093242,0.090473,0.49768,-0.053703,-0.64106,0.44879,-0.027699,-0.050272,0.25832,-0.11917,0.59788,-0.019148,0.73668,0.79959,-0.11347,0.58883,0.58283,0.55399,-0.15724
0.0060744,0.0004447,-0.047866,0.066006,0.051057,-0.11998,0.064591,0.4706,-0.071572,-0.62937,0.44442,-0.034801,-0.04279,0.32104,-0.091567,0.5462,-0.015864,0.76947,1.078,-0.1013,0.5649,0.50095,0.77509,-0.019027
0.004491,-0.0013525,-0.049874,0.069845,0.025683,-0.13486,0.040836,0.46299,-0.071724,-0.58295,0.48521,-0.0039536,-0.084757,0.29191,-0.095018,0.50128,-0.012098,0.54777,1.3299,-0.074555,0.51143,0.32295,0.87279,0.073891
0.0055197,0.0033523,-0.051806,0.075832,-0.014876,-0.13848,0.010432,0.46658,-0.049046,-0.49976,0.51995,0.041821,-0.1817,0.19507,-0.11872,0.46666,-0.013962,0.17525,1.4197,-0.056249,0.43948,0.13276,0.82583,0.14457
0.0084379,0.015419,-0.054577,0.08631,-0.066892,-0.13478,-0.02717,0.46738,-0.010154,-0.38905,0.48549,0.075677,-0.31532,0.079485,-0.14341,0.44133,-0.026909,-0.18163,1.285,-0.064784,0.36774,-0.0019082,0.66805,0.23615
0.011982,0.030254,-0.05884,0.10061,-0.12082,-0.13267,-0.063911,0.45346,0.030522,-0.26959,0.34486,0.077992,-0.45725,-0.016507,-0.15534,0.42554,-0.053676,-0.39277,0.97756,-0.10404,0.3138,-0.065927,0.45991,0.37506
0.015512,0.040974,-0.063711,0.11515,-0.16796,-0.14373,-0.090219,0.42073,0.059336,-0.16399,0.10977,0.04187,-0.58678,-0.085327,-0.15473,0.42401,-0.092618,-0.42822,0.61896,-0.16405,0.28659,-0.093929,0.23667,0.54147
0.01938,0.043657,-0.066886,0.12579,-0.20597,-0.17567,-0.10281,0.37369,0.070339,-0.090271,-0.16667,-0.028507,-0.69869,-0.1426,-0.15278,0.44122,-0.13733,-0.34779,0.3153,-0.22981,0.28478,-0.13158,-0.016366,0.67201
0.024115,0.04035,-0.066317,0.13063,-0.23863,-0.22575,-0.10656,0.32168,0.066279,-0.053109,-0.4198,-0.12352,-0.79731,-0.20316,-0.16047,0.47252,-0.17819,-0.23414,0.10437,-0.29012,0.30135,-0.19184,-0.33392,0.69666
0.029273,0.037182,-0.061979,0.13118,-0.27024,-0.27925,-0.10957,0.27387,0.054441,-0.039378,-0.60413,-0.2329,-0.88475,-0.26342,-0.17846,0.50113,-0.20556,-0.12645,-0.031627,-0.33982,0.32986,-0.24138,-0.71183,0.58642
0.033214,0.039076,-0.056044,0.13112,-0.29968,-0.31536,-0.11648,0.23587,0.041501,-0.023526,-0.70614,-0.34679,-0.9551,-0.3041,-0.19584,0.507,-0.21358,-0.0053059,-0.11654,-0.37619,0.36684,-0.22868,-1.0767,0.37905
0.034204,0.045572,-0.05123,0.13344,-0.31971,-0.31731,-0.12642,0.20855,0.030965,0.017001,-0.7369,-0.45404,-0.99894,-0.3077,-0.19802,0.48239,-0.20247,0.16483,-0.15031,-0.39485,0.40887,-0.13231,-1.3199,0.16469
0.031946,0.051388,-0.048764,0.13831,-0.32258,-0.28041,-0.13688,0.18824,0.023662,0.085425,-0.71752,-0.54017,-1.012,-0.27382,-0.17737,0.4414,-0.1781,0.37582,-0.12415,-0.39026,0.44793,0.010006,-1.3729,0.039948
0.028115,0.051229,-0.047705,0.14299,-0.30778,-0.213,-0.14928,0.16738,0.01943,0.16226,-0.67151,-0.58766,-0.99875,-0.22005,-0.13878,0.41372,-0.14884,0.55196,-0.055026,-0.36027,0.47089,0.11726,-1.2625,0.059346
0.025309,0.044598,-0.046109,0.14398,-0.28513,-0.13081,-0.1703,0.13646,0.018256,0.22105,-0.62613,-0.57853,-0.96633,-0.17034,-0.096993,0.42562,-0.12159,0.5861,0.0056525,-0.31007,0.4653,0.11776,-1.0962,0.21289
0.025221,0.03638,-0.042881,0.13973,-0.27031,-0.049494,-0.20715,0.087125,0.020732,0.25293,-0.61287,-0.49862,-0.91657,-0.14172,-0.068355,0.48171,-0.099332,0.41121,0.0032786,-0.25115,0.42775,0.0010819,-0.98917,0.43959
0.0275,0.032741,-0.038707,0.1319,-0.27584,0.019347,-0.26108,0.015623,0.028388,0.27863,-0.6572,-0.3424,-0.8434,-0.13821,-0.062721,0.56131,-0.081546,0.053085,-0.079556,-0.19574,0.36803,-0.16949,-0.9912,0.66375
0.03014,0.036059,-0.035344,0.12422,-0.30405,0.067542,-0.32527,-0.076005,0.043732,0.33395,-0.76031,-0.11776,-0.74003,-0.15193,-0.079998,0.63109,-0.066824,-0.37788,-0.21567,-0.15106,0.3052,-0.29459,-1.0698,0.82914
0.030975,0.043295,-0.033965,0.11959,-0.34717,0.088457,-0.38931,-0.18203,0.068966,0.43698,-0.88785,0.15113,-0.60943,-0.16745,-0.11215,0.66349,-0.055211,-0.75108,-0.36664,-0.11751,0.25818,-0.30084,-1.1543,0.913
0.029057,0.048957,-0.034015,0.1177,-0.3936,0.077964,-0.44601,-0.29693,0.1031,0.56352,-0.98009,0.42553,-0.46828,-0.16696,-0.14818,0.64698,-0.048218,-0.98776,-0.52192,-0.091446,0.2375,-0.18454,-1.1973,0.9189
0.025024,0.049666,-0.033588,0.11513,-0.435,0.038582,-0.4943,-0.41788,0.13927,0.65369,-0.9827,0.6611,-0.33978,-0.13739,-0.17871,0.58307,-0.046365,-1.087,-0.70228,-0.069212,0.24351,-0.0085301,-1.2019,0.86183
0.020465,0.04627,-0.031093,0.10816,-0.46894,-0.017395,-0.53564,-0.54392,0.16511,0.64842,-0.8796,0.82299,-0.24027,-0.078684,-0.1982,0.47721,-0.046471,-1.091,-0.92419,-0.04887,0.27057,0.14235,-1.1993,0.7598
0.016973,0.042069,-0.026859,0.096138,-0.4963,-0.070378,-0.56794,-0.67313,0.16765,0.52944,-0.70435,0.90098,-0.16974,-0.0078985,-0.20484,0.33543,-0.041522,-1.0246,-1.164,-0.029147,0.31228,0.21358,-1.2088,0.63521
0.015527,0.039397,-0.023172,0.082672,-0.51713,-0.10173,-0.58367,-0.80131,0.14045,0.33343,-0.51989,0.91535,-0.11342,0.04732,-0.19964,0.17084,-0.024148,-0.86681,-1.3645,-0.0081613,0.36311,0.20606,-1.2197,0.51719
0.016307,0.037922,-0.02242,0.073082,-0.52904,-0.10247,-0.57466,-0.92412,0.088414,0.1317,-0.3786,0.90682,-0.052548,0.064759,-0.18555,0.012501,0.008314,-0.57706,-1.485,0.015518,0.41649,0.16197,-1.2104,0.43486
0.018729,0.035851,-0.024749,0.070014,-0.52945,-0.076166,-0.53985,-1.0409,0.026428,-0.0068267,-0.28975,0.91286,0.023658,0.042626,-0.16667,-0.095412,0.051039,-0.15418,-1.5496,0.040079,0.46301,0.12805,-1.1786,0.40163
0.021532,0.032287,-0.027362,0.070788,-0.51913,-0.034355,-0.48849,-1.1562,-0.027695,-0.042625,-0.21661,0.94302,0.11298,0.0010924,-0.14692,-0.10861,0.093935,0.32975,-1.6444,0.059443,0.49222,0.12543,-1.1512,0.40312
0.02304,0.028165,-0.026492,0.069059,-0.50363,0.011226,-0.43533,-1.2762,-0.061498,0.030386,-0.10541,0.96981,0.20382,-0.032149,-0.12821,-0.0033426,0.12797,0.75411,-1.8536,0.066747,0.49764,0.14488,-1.16,0.40229
0.021786,0.025031,-0.020666,0.059793,-0.49148,0.053172,-0.39127,-1.4017,-0.072237,0.19564,0.074848,0.94478,0.2832,-0.041385,-0.10963,0.21164,0.15129,1.0168,-2.1828,0.060818,0.48061,0.16433,-1.2069,0.36268
0.017367,0.023255,-0.012396,0.043553,-0.49077,0.08716,-0.35727,-1.523,-0.065259,0.42317,0.30995,0.83238,0.34314,-0.031866,-0.088773,0.49948,0.17041,1.0896,-2.5287,0.050293,0.44933,0.16957,-1.2505,0.27443
0.011028,0.021633,-0.0064919,0.02641,-0.50636,0.108,-0.32695,-1.6211,-0.048667,0.67029,0.55089,0.6397,0.38214,-0.02186,-0.06473,0.811,0.19501,1.0192,-2.7231,0.050658,0.41309,0.16134,-1.2286,0.16311
0.0053623,0.018721,-0.0061573,0.015431,-0.53847,0.1083,-0.29552,-1.6753,-0.028544,0.88162,0.74781,0.41924,0.40244,-0.026108,-0.040427,1.0998,0.22972,0.87637,-2.6217,0.074867,0.37604,0.14682,-1.1018,0.073366
0.0030386,0.014383,-0.010215,0.013402,-0.582,0.082242,-0.26732,-1.672,-0.0075205,0.99951,0.88119,0.23879,0.40619,-0.045755,-0.02166,1.3292,0.26885,0.6992,-2.1802,0.12386,0.3354,0.12745,-0.88199,0.039187
0.0051471,0.0099884,-0.013986,0.017068,-0.62626,0.031682,-0.25507,-1.6101,0.013707,0.98514,0.96649,0.13755,0.39313,-0.07253,-0.013039,1.474,0.29845,0.47656,-1.4729,0.18423,0.28539,0.096566,-0.62626,0.062347
0.010303,0.0071509,-0.01313,0.020097,-0.65626,-0.030771,-0.27069,-1.4991,0.03423,0.8368,1.0308,0.099987,0.36092,-0.10104,-0.013875,1.5217,0.30454,0.17815,-0.6526,0.23523,0.22346,0.049314,-0.39689,0.11355
0.015299,0.0063584,-0.0071037,0.018033,-0.65709,-0.085211,-0.31462,-1.3531,0.051863,0.59074,1.0817,0.068066,0.30778,-0.13573,-0.017557,1.4775,0.28192,-0.20164,0.11482,0.26048,0.15363,-0.0054669,-0.21629,0.15296
0.017068,0.0067469,0.00068382,0.011117,-0.62059,-0.1133,-0.37143,-1.1859,0.063148,0.30248,1.0948,-0.016216,0.23627,-0.18501,-0.015056,1.366,0.23716,-0.62697,0.70631,0.25596,0.08472,-0.044175,-0.047318,0.15379
0.014622,0.0070053,0.0059112,0.0030417,-0.55067,-0.10754,-0.41501,-1.0078,0.063625,0.022183,1.0309,-0.17038,0.15597,-0.24783,0.00032673,1.2238,0.18343,-1.0426,1.0666,0.22931,0.025346,-0.041977,0.1855,0.1137
0.0095048,0.0063235,0.0067417,-0.0027996,-0.46285,-0.075316,-0.41975,-0.82689,0.048502,-0.21899,0.86878,-0.36376,0.083277,-0.30561,0.030571,1.0844,0.13097,-1.4111,1.203,0.19161,-0.019849,0.0081198,0.54463,0.050286
0.004364,0.0045035,0.00478,-0.0061806,-0.3772,-0.034996,-0.37108,-0.65027,0.014726,-0.40528,0.62804,-0.54654,0.037426,-0.32822,0.073808,0.96689,0.080382,-1.7313,1.162,0.14866,-0.050321,0.085091,1.0292,-0.01219
0.00077655,0.0014272,0.0032527,-0.009851,-0.30865,-0.0057726,-0.27074,-0.48508,-0.035337,-0.52476,0.36461,-0.68878,0.034373,-0.29052,0.12611,0.87433,0.023944,-2.0257,1.001,0.098611,-0.067351,0.14695,1.5597,-0.055148
-0.00185,-0.0032332,0.0044305,-0.01691,-0.26098,0.0032246,-0.13601,-0.33825,-0.090834,-0.56455,0.14049,-0.79552,0.080849,-0.18785,0.18177,0.80335,-0.045533,-2.3121,0.77104,0.037917,-0.072679,0.15136,2.0107,-0.07191
-0.0053805,-0.0095882,0.0084552,-0.028218,-0.2282,-0.0018671,0.005198,-0.21605,-0.13343,-0.51945,-0.01089,-0.88618,0.17079,-0.040073,0.23261,0.7526,-0.12491,-2.585,0.51458,-0.029261,-0.069605,0.077589,2.2765,-0.067652
-0.010858,-0.016862,0.013968,-0.041884,-0.20142,-0.0035377,0.12207,-0.12378,-0.14392,-0.40562,-0.10124,-0.95997,0.28495,0.11781,0.26953,0.72148,-0.19788,-2.8174,0.27126,-0.086732,-0.064743,-0.062137,2.327,-0.054935
-0.017077,-0.023344,0.019304,-0.054821,-0.17579,0.016242,0.19012,-0.06514,-0.11156,-0.26418,-0.1762,-0.98258,0.3939,0.25139,0.28763,0.70071,-0.24269,-2.9748,0.074905,-0.11271,-0.067219,-0.22689,2.2179,-0.046645
-0.021121,-0.027211,0.023047,-0.064729,-0.15276,0.064947,0.19991,-0.041215,-0.040226,-0.14639,-0.28407,-0.91078,0.46415,0.33979,0.29169,0.66684,-0.24615,-3.0276,-0.065518,-0.09473,-0.084354,-0.36401,2.0491,-0.048919
-0.020489,-0.027558,0.024033,-0.070857,-0.13739,0.1352,0.161,-0.048988,0.052973,-0.087736,-0.4444,-0.73623,0.46689,0.37989,0.29592,0.59112,-0.2143,-2.9568,-0.18418,-0.042846,-0.11665,-0.43084,1.8998,-0.057638
-0.015096,-0.024787,0.021658,-0.073327,-0.13371,0.20951,0.097734,-0.080328,0.14566,-0.088998,-0.63542,-0.50895,0.38679,0.38157,0.31534,0.45971,-0.17137,-2.7608,-0.34706,0.010301,-0.15636,-0.41216,1.7883,-0.060914
-0.0075944,-0.020176,0.016772,-0.072245,-0.14162,0.27034,0.037836,-0.12225,0.21916,-0.11892,-0.8079,-0.31599,0.22718,0.35784,0.35361,0.28919,-0.14623,-2.4665,-0.60215,0.025892,-0.1914,-0.32561,1.6818,-0.04612
-0.0018148,-0.015237,0.012178,-0.067816,-0.15616,0.30846,0.00019358,-0.1592,0.26306,-0.13746,-0.91634,-0.22796,0.0088524,0.31603,0.39699,0.12202,-0.15518,-2.1364,-0.92492,-0.017509,-0.2124,-0.21211,1.5444,-0.006665
-0.00052154,-0.011461,0.011523,-0.061389,-0.16868,0.32518,-0.010483,-0.17751,0.27445,-0.12332,-0.94692,-0.25517,-0.23733,0.25506,0.4205,0.0019802,-0.1926,-1.8566,-1.2141,-0.10982,-0.21799,-0.11568,1.3802,0.055704
-0.0040314,-0.010382,0.01676,-0.05605,-0.16926,0.32865,0.00019056,-0.17096,0.25557,-0.086237,-0.923,-0.34865,-0.48016,0.17051,0.40291,-0.05353,-0.23595,-1.7013,-1.3607,-0.21619,-0.21508,-0.063603,1.2367,0.13313
-0.010425,-0.013341,0.026066,-0.055513,-0.15061,0.32813,0.024326,-0.14493,0.21336,-0.056008,-0.8839,-0.44446,-0.69587,0.064039,0.33969,-0.063509,-0.26061,-1.6911,-1.3453,-0.30071,-0.21438,-0.058457,1.1633,0.21501
-0.016942,-0.020673,0.0343,-0.061651,-0.1128,0.32974,0.056124,-0.11578,0.16033,-0.057313,-0.85251,-0.51397,-0.87111,-0.04983,0.245,-0.069295,-0.25392,-1.7754,-1.2775,-0.3501,-0.22421,-0.085703,1.1623,0.28971
-0.021519,-0.030927,0.03622,-0.072629,-0.065999,0.33463,0.089304,-0.10404,0.1128,-0.089399,-0.81596,-0.57789,-1.0017,-0.14544,0.14291,-0.10858,-0.21916,-1.8572,-1.3276,-0.37938,-0.2464,-0.1288,1.1741,0.34554
-0.023579,-0.041059,0.030243,-0.083591,-0.027899,0.33925,0.11222,-0.12396,0.084319,-0.12524,-0.73441,-0.67407,-1.0889,-0.19622,0.056146,-0.19723,-0.16913,-1.8492,-1.5923,-0.41598,-0.27591,-0.17847,1.1155,0.37329
-0.023878,-0.04793,0.019769,-0.08988,-0.015345,0.33693,0.10829,-0.17544,0.077559,-0.13014,-0.57156,-0.80854,-1.135,-0.18714,0.00054999,-0.32877,-0.1165,-1.7245,-2.0029,-0.47512,-0.30387,-0.22886,0.94432,0.3707
-0.023736,-0.050198,0.010927,-0.090538,-0.03452,0.32115,0.064443,-0.24378,0.081731,-0.08569,-0.32345,-0.93431,-1.1404,-0.12169,-0.014089,-0.48558,-0.068822,-1.5257,-2.3555,-0.54579,-0.32194,-0.26691,0.70125,0.3451
-0.024226,-0.049169,0.0084162,-0.08923,-0.076491,0.28955,-0.018485,-0.30766,0.079418,-0.0020044,-0.024225,-0.97852,-1.1023,-0.020201,0.017339,-0.64808,-0.030023,-1.3281,-2.4476,-0.59752,-0.32604,-0.26921,0.49284,0.31031
-0.025711,-0.047838,0.012661,-0.091609,-0.122,0.2465,-0.12272,-0.35008,0.058866,0.089715,0.27457,-0.89702,-1.0165,0.087749,0.09228,-0.7956,-0.0041477,-1.1845,-2.2098,-0.6015,-0.31786,-0.21447,0.42303,0.2782
-0.027844,-0.04874,0.020289,-0.10091,-0.15283,0.20161,-0.2217,-0.3652,0.022253,0.15779,0.5341,-0.71157,-0.88235,0.17217,0.19549,-0.90448,0.0040205,-1.0938,-1.7317,-0.54943,-0.30401,-0.1043,0.52135,0.25063
-0.029914,-0.052241,0.02718,-0.11519,-0.16205,0.16421,-0.29363,-0.35803,-0.017013,0.18842,0.74571,-0.4987,-0.708,0.21033,0.29958,-0.95264,-0.0076281,-1.0142,-1.1716,-0.45644,-0.29349,0.026362,0.72012,0.21802
-0.031274,-0.056508,0.031345,-0.12844,-0.15627,0.13698,-0.32985,-0.33958,-0.045828,0.18911,0.92505,-0.33904,-0.51301,0.19349,0.3755,-0.93171,-0.034971,-0.90531,-0.63433,-0.34792,-0.29476,0.12255,0.89718,0.16579
-0.031642,-0.059096,0.033408,-0.13488,-0.14915,0.11327,-0.33257,-0.32221,-0.06198,0.17649,1.0906,-0.2673,-0.32614,0.13178,0.40825,-0.85738,-0.068325,-0.76054,-0.11716,-0.24182,-0.31321,0.14112,0.95272,0.083865
-0.031145,-0.05881,0.034795,-0.13334,-0.15161,0.080053,-0.30619,-0.31736,-0.074798,0.15966,1.2448,-0.25999,-0.17695,0.052901,0.40586,-0.7668,-0.097574,-0.60378,0.44593,-0.14005,-0.34963,0.07916,0.86614,-0.027384
-0.030185,-0.056343,0.035817,-0.12826,-0.16612,0.02499,-0.2522,-0.33412,-0.095464,0.13344,1.3708,-0.26514,-0.084509,-0.0088042,0.39363,-0.7025,-0.11742,-0.45386,1.0964,-0.034223,-0.39954,-0.022414,0.69893,-0.15752
-0.029269,-0.053333,0.035617,-0.12654,-0.18782,-0.056692,-0.1734,-0.37624,-0.12548,0.087353,1.4467,-0.24431,-0.048512,-0.030019,0.39647,-0.69336,-0.12808,-0.28866,1.8002,0.080326,-0.4537,-0.10373,0.5517,-0.29045
-0.028899,-0.050877,0.033904,-0.13255,-0.20994,-0.15904,-0.083385,-0.43867,-0.15327,0.02286,1.4657,-0.1921,-0.048284,-0.011996,0.42272,-0.74533,-0.13089,-0.040042,2.4681,0.19468,-0.50006,-0.12181,0.51184,-0.40901
-0.029495,-0.048957,0.032354,-0.14499,-0.22809,-0.26729,-0.010841,-0.50721,-0.16184,-0.036902,1.4464,-0.12293,-0.051511,0.020746,0.46118,-0.84505,-0.12347,0.37256,3.0192,0.28881,-0.52747,-0.072756,0.62183,-0.49802
-0.031257,-0.047218,0.033812,-0.15805,-0.24051,-0.3636,0.0091134,-0.56412,-0.14144,-0.05644,1.4263,-0.045322,-0.029167,0.037357,0.49272,-0.96878,-0.099585,0.99042,3.427,0.34434,-0.53007,0.012397,0.87127,-0.54704
-0.033952,-0.0461,0.039641,-0.16594,-0.24598,-0.43434,-0.04655,-0.59728,-0.097293,-0.013198,1.4392,0.048441,0.031232,0.021326,0.50554,-1.087,-0.054898,1.7782,3.7186,0.35718,-0.51057,0.091468,1.1986,-0.5538
-0.036825,-0.046878,0.047746,-0.16727,-0.24296,-0.47617,-0.17256,-0.60667,-0.046982,0.078672,1.4908,0.16852,0.12141,-0.020718,0.50122,-1.1635,0.0061553,2.624,3.9404,0.33937,-0.47993,0.13552,1.4966,-0.52648
-0.038798,-0.050363,0.053486,-0.16593,-0.23139,-0.49809,-0.33389,-0.60295,-0.010075,0.16594,1.5498,0.30653,0.21902,-0.068234,0.48796,-1.1566,0.06903,3.3782,4.1265,0.30914,-0.45249,0.13881,1.6341,-0.48179
-0.038961,-0.055537,0.053124,-0.16753,-0.21463,-0.51767,-0.48188,-0.59878,0.0021613,0.18203,1.5615,0.43124,0.3001,-0.10527,0.46883,-1.0312,0.11582,3.9117,4.2935,0.27827,-0.43856,0.11285,1.5052,-0.43758
-0.037058,-0.059735,0.046876,-0.17439,-0.19817,-0.55162,-0.57857,-0.5989,-0.0095754,0.087045,1.4826,0.50726,0.34901,-0.13221,0.437,-0.78028,0.13596,4.1649,4.4523,0.24787,-0.4385,0.074031,1.0912,-0.40395
-0.033647,-0.060561,0.038785,-0.18295,-0.18475,-0.6049,-0.61374,-0.59617,-0.036351,-0.10393,1.3128,0.52029,0.36091,-0.16117,0.38258,-0.44108,0.13298,4.1649,4.6145,0.21581,-0.44269,0.035204,0.49381,-0.37851
-0.029838,-0.057899,0.033391,-0.18608,-0.1701,-0.66505,-0.60411,-0.57611,-0.067822,-0.32443,1.1039,0.48598,0.33827,-0.2003,0.30446,-0.091081,0.12218,4.0045,4.7776,0.18748,-0.43782,0.0042528,-0.098723,-0.34959
-0.026787,-0.054127,0.032136,-0.17857,-0.14421,-0.70719,-0.57673,-0.52616,-0.097061,-0.49115,0.93347,0.4353,0.2869,-0.24149,0.21561,0.18161,0.12101,3.7947,4.903,0.17796,-0.41563,-0.014226,-0.50443,-0.30493
-0.025244,-0.052208,0.032615,-0.16156,-0.09851,-0.70893,-0.54895,-0.44291,-0.1213,-0.54747,0.85776,0.39069,0.21519,-0.26338,0.13582,0.31898,0.13926,3.6168,4.9131,0.20202,-0.37797,-0.018868,-0.64434,-0.23988
-0.02528,-0.053313,0.03118,-0.14223,-0.03356,-0.66677,-0.51905,-0.33268,-0.14016,-0.48909,0.8731,0.3538,0.13542,-0.24837,0.077106,0.32,0.17591,3.4964,4.7237,0.26047,-0.33457,-0.013698,-0.57628,-0.15956
-0.026265,-0.056024,0.026371,-0.12869,0.03919,-0.6023,-0.47239,-0.20591,-0.15402,-0.35812,0.9123,0.31307,0.063027,-0.19999,0.033978,0.23519,0.22336,3.4076,4.2943,0.3361,-0.2957,-0.0091641,-0.44131,-0.074953
-0.027113,-0.057698,0.020099,-0.12428,0.10348,-0.55191,-0.396,-0.070385,-0.16408,-0.21382,0.88109,0.26062,0.012327,-0.14564,-0.012527,0.13212,0.27433,3.3003,3.6599,0.40449,-0.2658,-0.018959,-0.36112,0.0034029
-0.026839,-0.056643,0.015727,-0.12566,0.14728,-0.54539,-0.28899,0.071724,-0.17298,-0.10165,0.71255,0.20141,-0.0085978,-0.11985,-0.078865,0.055361,0.32528,3.1334,2.915,0.45083,-0.24277,-0.053225,-0.35934,0.069464
-0.025188,-0.053253,0.015026,-0.12621,0.16779,-0.58758,-0.16117,0.22142,-0.18457,-0.03819,0.4057,0.147,0.00022407,-0.13784,-0.16292,0.0081074,0.37434,2.9001,2.1575,0.47834,-0.22247,-0.11224,-0.35833,0.12218
-0.022881,-0.049375,0.016772,-0.12146,0.16979,-0.65613,-0.023285,0.37796,-0.20197,-0.015436,0.025157,0.10201,0.032757,-0.17867,-0.24074,-0.035247,0.417,2.6344,1.4352,0.50079,-0.20299,-0.18495,-0.24624,0.16386
-0.021081,-0.04673,0.018035,-0.112,0.1607,-0.71625,0.12074,0.53589,-0.22499,-0.014266,-0.33571,0.057887,0.079759,-0.19249,-0.28,-0.10041,0.44488,2.3957,0.73703,0.5266,-0.18441,-0.25372,0.03844,0.1983
-0.020337,-0.045757,0.016735,-0.10155,0.14794,-0.74052,0.27223,0.68591,-0.24891,-0.015448,-0.6029,0.00058573,0.12914,-0.13082,-0.26179,-0.19422,0.44967,2.2363,0.035735,0.54922,-0.16484,-0.30261,0.4617,0.22917
-0.019889,-0.045559,0.013112,-0.092493,0.13982,-0.71854,0.42884,0.81776,-0.26592,-0.0038249,-0.75211,-0.074754,0.16514,0.018984,-0.19521,-0.3092,0.42965,2.1652,-0.65765,0.55261,-0.13793,-0.32441,0.91012,0.25804
-0.018129,-0.04463,0.0089944,-0.08321,0.14624,-0.65146,0.57766,0.92178,-0.26863,0.030769,-0.80678,-0.1559,0.17104,0.21933,-0.11372,-0.44243,0.39278,2.1336,-1.2783,0.52652,-0.096261,-0.32229,1.2478,0.2825
-0.014062,-0.041686,0.0057914,-0.069828,0.175,-0.53958,0.69786,0.98799,-0.25374,0.091462,-0.81141,-0.22022,0.1373,0.40068,-0.055139,-0.60589,0.35297,2.0546,-1.7472,0.4772,-0.038763,-0.30587,1.375,0.29601
-0.0084987,-0.036165,0.0031384,-0.050551,0.2252,-0.37729,0.77135,1.0058,-0.22354,0.17179,-0.80187,-0.25113,0.070404,0.50168,-0.039172,-0.81433,0.32128,1.8543,-2.0325,0.42383,0.02416,-0.28489,1.2591,0.29059
-0.0037117,-0.028414,-0.00069902,-0.028292,0.28412,-0.16122,0.79259,0.96754,-0.18434,0.25717,-0.79154,-0.25075,-0.0065563,0.50383,-0.058284,-1.0595,0.29844,1.5205,-2.1778,0.38394,0.073545,-0.26516,0.93161,0.2613
-0.0015323,-0.019554,-0.0071899,-0.0088577,0.33253,0.095482,0.7696,0.87606,-0.143,0.33247,-0.77766,-0.23865,-0.065219,0.43681,-0.0876,-1.2944,0.27473,1.1146,-2.2682,0.36086,0.092005,-0.24904,0.46151,0.20942
-0.0014961,-0.011047,-0.016176,0.0038249,0.35595,0.35663,0.71602,0.74874,-0.10386,0.39133,-0.75682,-0.23771,-0.088308,0.35304,-0.10497,-1.4469,0.23768,0.73253,-2.362,0.34357,0.074179,-0.23855,-0.078087,0.14206
-0.00089886,-0.0040424,-0.025845,0.011087,0.35299,0.572,0.64163,0.61307,-0.06774,0.43908,-0.73418,-0.25846,-0.077567,0.29299,-0.10526,-1.4568,0.18212,0.4392,-2.445,0.318,0.030081,-0.23696,-0.6348,0.068873
0.0029133,0.0010816,-0.033847,0.018313,0.33391,0.6973,0.54889,0.49298,-0.033453,0.48543,-0.71919,-0.29363,-0.045827,0.26792,-0.098973,-1.3145,0.1145,0.2227,-2.4468,0.27916,-0.020555,-0.24636,-1.1793,-0.00094031
0.0098534,0.004618,-0.038513,0.030111,0.31096,0.71278,0.43736,0.39536,-8.0608e-005,0.53163,-0.71375,-0.32586,-0.00022516,0.26878,-0.0987,-1.0719,0.04811,0.0012642,-2.307,0.23374,-0.058291,-0.26333,-1.6809,-0.058765
0.016543,0.0069474,-0.039359,0.046162,0.2894,0.63033,0.31122,0.30817,0.031622,0.56303,-0.7056,-0.34108,0.066758,0.28677,-0.10663,-0.81971,-0.0070652,-0.3198,-2.0342,0.19222,-0.071431,-0.27703,-2.0699,-0.094261
0.018792,0.0080954,-0.036903,0.061471,0.26653,0.48784,0.18412,0.21359,0.059606,0.55431,-0.67492,-0.33672,0.1676,0.32279,-0.11374,-0.64298,-0.051459,-0.77977,-1.7088,0.15845,-0.057296,-0.27281,-2.2211,-0.09437
0.015269,0.0080001,-0.032396,0.070863,0.23818,0.33576,0.078563,0.10665,0.082027,0.48526,-0.60983,-0.31941,0.29854,0.3771,-0.10976,-0.58266,-0.094093,-1.3284,-1.4249,0.12619,-0.019009,-0.23923,-1.9899,-0.047271
0.0091884,0.0073134,-0.02774,0.073776,0.20516,0.22188,0.021167,0.0039023,0.098507,0.35587,-0.51815,-0.29636,0.42766,0.43302,-0.093541,-0.6246,-0.14328,-1.8491,-1.2215,0.08512,0.038035,-0.1736,-1.3023,0.048915
0.006268,0.0078017,-0.025258,0.075167,0.17317,0.1774,0.035592,-0.066597,0.11021,0.1899,-0.42497,-0.26856,0.50831,0.456,-0.073744,-0.71842,-0.1978,-2.2245,-1.06,0.03088,0.10746,-0.081893,-0.24803,0.17822
0.010381,0.011536,-0.026855,0.081703,0.14715,0.20659,0.13445,-0.087427,0.11886,0.024365,-0.35716,-0.2314,0.51173,0.41489,-0.059898,-0.81131,-0.2462,-2.4056,-0.86709,-0.029695,0.18183,0.025884,0.89983,0.30733
0.020427,0.019184,-0.032777,0.096469,0.12662,0.28376,0.31155,-0.068364,0.12568,-0.10719,-0.32624,-0.18087,0.45339,0.30856,-0.052651,-0.87524,-0.27525,-2.4407,-0.60512,-0.082303,0.25349,0.14021,1.7815,0.398
0.031086,0.028874,-0.040969,0.11656,0.10672,0.36175,0.53792,-0.04331,0.13095,-0.18621,-0.32232,-0.11895,0.38831,0.1727,-0.042793,-0.91433,-0.28046,-2.4458,-0.31117,-0.1148,0.31665,0.25288,2.1244,0.42556
0.03692,0.037013,-0.047929,0.13536,0.083279,0.39155,0.76627,-0.048844,0.1343,-0.20954,-0.32272,-0.05374,0.37487,0.057537,-0.020115,-0.95332,-0.27016,-2.5323,-0.071518,-0.12516,0.36888,0.35467,1.8852,0.39155
0.036468,0.040856,-0.05083,0.14748,0.056251,0.3452,0.94506,-0.10044,0.13491,-0.18196,-0.30779,0.0049639,0.43319,-0.0070289,0.015938,-1.0189,-0.25944,-2.7344,0.044642,-0.12178,0.40963,0.43404,1.2584,0.3204
0.033007,0.040873,-0.049401,0.15217,0.028002,0.22914,1.0372,-0.18415,0.13114,-0.10976,-0.27213,0.050463,0.53093,-0.029983,0.053606,-1.1256,-0.25899,-2.9842,0.035547,-0.11657,0.4367,0.48021,0.54174,0.24257
0.031499,0.040673,-0.046019,0.15297,-0.00065095,0.079044,1.0334,-0.26905,0.12,-0.0013691,-0.22435,0.08051,0.60839,-0.046722,0.077001,-1.2704,-0.2676,-3.1503,-0.039948,-0.11624,0.44418,0.48915,-0.042926,0.17801
0.03442,0.04418,-0.043786,0.15428,-0.031392,-0.061996,0.95114,-0.32994,0.097485,0.12662,-0.17822,0.095449,0.62314,-0.087413,0.078613,-1.4349,-0.27386,-3.1172,-0.11722,-0.11866,0.42532,0.46766,-0.44121,0.13363
0.039972,0.052228,-0.044073,0.15807,-0.064739,-0.16825,0.82124,-0.36279,0.060527,0.24564,-0.14377,0.095785,0.57891,-0.15318,0.06574,-1.5915,-0.26518,-2.8513,-0.17931,-0.1164,0.37904,0.43106,-0.71574,0.11524
0.043974,0.06153,-0.045568,0.1632,-0.095996,-0.24312,0.66972,-0.38284,0.0095714,0.32027,-0.12496,0.081265,0.5171,-0.21767,0.055213,-1.7135,-0.23692,-2.4099,-0.26356,-0.10416,0.31495,0.3949,-0.91924,0.13859
0.043575,0.067139,-0.045644,0.16727,-0.11645,-0.31042,0.50824,-0.40877,-0.050083,0.32182,-0.12315,0.051181,0.47993,-0.248,0.060239,-1.7872,-0.19546,-1.8935,-0.41935,-0.084114,0.25125,0.36613,-1.0168,0.22357
0.039526,0.066446,-0.042899,0.16882,-0.12022,-0.39202,0.33797,-0.44614,-0.10969,0.2435,-0.14036,0.0045236,0.47696,-0.22409,0.079742,-1.8203,-0.15437,-1.3813,-0.65707,-0.065335,0.20536,0.34027,-0.92791,0.37172
0.035233,0.061331,-0.038613,0.16806,-0.11078,-0.48812,0.16162,-0.48172,-0.1607,0.10761,-0.17689,-0.060183,0.48186,-0.14196,0.098954,-1.8383,-0.12742,-0.90187,-0.93364,-0.057953,0.18318,0.30653,-0.64028,0.54723
0.033692,0.05663,-0.035786,0.16599,-0.10021,-0.57402,-0.0075709,-0.49111,-0.19834,-0.040625,-0.2248,-0.14391,0.45992,-0.0052792,0.10126,-1.867,-0.12274,-0.45564,-1.1847,-0.066545,0.1751,0.25725,-0.2776,0.68396
0.035104,0.056245,-0.036459,0.16328,-0.10055,-0.61484,-0.14746,-0.45317,-0.22262,-0.15075,-0.26431,-0.24397,0.40126,0.17905,0.08206,-1.9115,-0.14011,-0.059302,-1.3712,-0.087127,0.16261,0.1947,-0.043322,0.72033
0.03711,0.060237,-0.039649,0.16003,-0.11419,-0.58716,-0.23756,-0.36175,-0.23645,-0.18845,-0.26939,-0.35031,0.33143,0.39296,0.053365,-1.9484,-0.1714,0.23524,-1.4984,-0.10943,0.13118,0.13072,-0.079416,0.63817
0.037131,0.065255,-0.041821,0.15614,-0.13145,-0.49304,-0.26968,-0.22876,-0.24232,-0.14969,-0.22141,-0.44468,0.29182,0.59637,0.034759,-1.9402,-0.20359,0.37002,-1.5921,-0.12273,0.0806,0.080016,-0.35957,0.47417
0.034529,0.067659,-0.039717,0.15159,-0.13747,-0.35875,-0.25113,-0.078562,-0.24004,-0.059482,-0.12208,-0.50521,0.30751,0.7314,0.037627,-1.8625,-0.22407,0.33431,-1.6597,-0.12167,0.025208,0.052509,-0.70975,0.29365
0.030745,0.066456,-0.03321,0.14605,-0.12269,-0.22115,-0.19972,0.06232,-0.22688,0.044631,0.0037655,-0.51486,0.3692,0.74876,0.05535,-1.7216,-0.22624,0.19255,-1.6746,-0.10859,-0.015931,0.049595,-0.9392,0.14693
0.027584,0.063592,-0.025656,0.13874,-0.088671,-0.11109,-0.13566,0.17521,-0.19984,0.1346,0.11799,-0.469,0.44188,0.64123,0.067807,-1.5471,-0.21233,0.057112,-1.602,-0.091237,-0.032039,0.065455,-0.97264,0.042843
0.025518,0.061651,-0.021237,0.1291,-0.045618,-0.041881,-0.074874,0.2552,-0.15843,0.20439,0.185,-0.37793,0.48981,0.45741,0.056784,-1.3667,-0.19066,0.022524,-1.4399,-0.077043,-0.027676,0.090544,-0.88004,-0.04272
0.023619,0.0613,-0.021451,0.11783,-0.0047746,-0.0059851,-0.024704,0.3111,-0.10664,0.26351,0.18409,-0.26317,0.49614,0.27938,0.019796,-1.1866,-0.16879,0.11165,-1.2347,-0.067771,-0.019222,0.11417,-0.793,-0.13492
0.020999,0.060785,-0.023806,0.1071,0.028001,0.020442,0.018917,0.35916,-0.053057,0.31648,0.11369,-0.14958,0.46374,0.17533,-0.028966,-0.99778,-0.1475,0.27436,-1.0536,-0.058054,-0.023713,0.12576,-0.79045,-0.23394
0.018094,0.057792,-0.024008,0.099165,0.053597,0.066867,0.070954,0.41303,-0.0087189,0.34599,-0.010368,-0.056583,0.40261,0.15937,-0.070941,-0.80135,-0.12061,0.43546,-0.93421,-0.039186,-0.048175,0.11668,-0.85101,-0.31448
0.016352,0.051827,-0.01983,0.094261,0.076448,0.15399,0.14971,0.47423,0.016914,0.31692,-0.15797,0.0089721,0.31961,0.18772,-0.097997,-0.62608,-0.081345,0.54931,-0.85545,-0.0057413,-0.086871,0.083794,-0.90016,-0.34632
0.016564,0.044878,-0.013207,0.089901,0.099858,0.2809,0.26228,0.52845,0.020206,0.20205,-0.28909,0.055612,0.22056,0.19403,-0.11714,-0.5165,-0.029916,0.61823,-0.75438,0.039607,-0.1278,0.032564,-0.89701,-0.31545
0.017588,0.039769,-0.0085284,0.082554,0.12272,0.42106,0.39143,0.55108,0.005364,0.010197,-0.36313,0.10331,0.11921,0.13753,-0.14155,-0.4977,0.023971,0.66732,-0.574,0.086699,-0.16293,-0.02389,-0.87917,-0.23026
0.01692,0.037622,-0.0085444,0.070647,0.13913,0.53188,0.49651,0.52019,-0.017625,-0.20768,-0.35453,0.17243,0.039736,0.028793,-0.17642,-0.54815,0.065964,0.70754,-0.30293,0.12372,-0.19415,-0.07085,-0.93047,-0.11344
0.01283,0.036689,-0.011626,0.056324,0.14139,0.57454,0.53354,0.4304,-0.038539,-0.38343,-0.26815,0.27008,0.0053788,-0.08351,-0.2122,-0.60793,0.085676,0.72499,0.02065,0.14429,-0.23036,-0.099659,-1.1048,0.0089916
0.0061626,0.033647,-0.013074,0.044256,0.12523,0.53332,0.48349,0.29923,-0.052527,-0.47121,-0.14288,0.38293,0.021051,-0.15118,-0.23119,-0.61909,0.082697,0.70486,0.33436,0.15096,-0.27874,-0.11119,-1.3714,0.11357
6.1154e-005,0.026431,-0.0094442,0.03823,0.094785,0.42276,0.36809,0.16145,-0.061821,-0.47246,-0.036718,0.48338,0.065242,-0.1592,-0.22133,-0.56521,0.06605,0.66239,0.57817,0.15283,-0.33741,-0.11252,-1.6226,0.18134
-0.0023488,0.016331,-0.0019153,0.038243,0.063376,0.27944,0.23821,0.054423,-0.072146,-0.42819,0.00059154,0.54716,0.1003,-0.12937,-0.18512,-0.47701,0.048068,0.64482,0.70427,0.15894,-0.39575,-0.11032,-1.7334,0.20028
-0.00041435,0.0075898,0.0046208,0.040459,0.048234,0.14521,0.14148,0.0029441,-0.086593,-0.38674,-0.048635,0.56953,0.095005,-0.09669,-0.13646,-0.40087,0.037108,0.69636,0.68012,0.17193,-0.44191,-0.10731,-1.6277,0.16813
0.0035205,0.0046344,0.0060952,0.040084,0.061518,0.053064,0.092507,0.012231,-0.10183,-0.37299,-0.16412,0.56664,0.043296,-0.081569,-0.089205,-0.35961,0.033519,0.81445,0.50587,0.18592,-0.47106,-0.10493,-1.3112,0.091202
0.0059601,0.0088952,0.0032546,0.034875,0.10373,0.021746,0.068362,0.071369,-0.10978,-0.38088,-0.30154,0.55906,-0.033508,-0.080667,-0.048513,-0.33974,0.030681,0.93738,0.24619,0.19024,-0.48737,-0.10842,-0.85832,-0.021343
0.0049104,0.017555,0.0012516,0.026518,0.16472,0.057388,0.030872,0.1628,-0.10351,-0.38958,-0.41569,0.55093,-0.10098,-0.080634,-0.012376,-0.31302,0.020019,0.97768,0.043766,0.17652,-0.49841,-0.12676,-0.36865,-0.16158
0.0011595,0.025161,0.0050367,0.018806,0.23175,0.15652,-0.043961,0.27061,-0.082667,-0.38517,-0.47874,0.52356,-0.13124,-0.078863,0.019163,-0.26834,-0.002995,0.87687,0.077084,0.145,-0.50712,-0.16444,0.078515,-0.3192
-0.002738,0.026977,0.014772,0.014099,0.29853,0.30829,-0.15271,0.38331,-0.054489,-0.36958,-0.48617,0.45163,-0.11578,-0.090654,0.037376,-0.22259,-0.035249,0.63989,0.46486,0.10566,-0.50891,-0.21092,0.44823,-0.47375
-0.0047384,0.021751,0.02557,0.010886,0.36787,0.49825,-0.27394,0.49203,-0.029656,-0.35345,-0.45208,0.33015,-0.066286,-0.13578,0.028448,-0.20151,-0.067045,0.32602,1.1735,0.073136,-0.49609,-0.23908,0.74434,-0.59506
-0.0048563,0.012127,0.031836,0.004565,0.44636,0.71531,-0.38644,0.5882,-0.016361,-0.34428,-0.3996,0.1887,-0.0065162,-0.21655,-0.015104,-0.21132,-0.087499,0.0095759,1.9995,0.05832,-0.46563,-0.21902,0.98203,-0.6593
-0.0047955,0.0026201,0.032163,-0.0089064,0.53586,0.95815,-0.47756,0.66396,-0.016601,-0.3424,-0.35111,0.078535,0.038416,-0.30766,-0.085749,-0.22986,-0.091153,-0.25596,2.6528,0.062114,-0.42236,-0.14082,1.1588,-0.6709
-0.0062049,-0.0032968,0.03021,-0.029153,0.62954,1.2337,-0.53728,0.71528,-0.02658,-0.34635,-0.32029,0.04012,0.050516,-0.36852,-0.16392,-0.22628,-0.081417,-0.44797,2.8934,0.075346,-0.37428,-0.029323,1.2451,-0.66834
-0.0092078,-0.0050319,0.030844,-0.050483,0.71599,1.5453,-0.55056,0.74531,-0.040027,-0.3583,-0.30762,0.076391,0.023136,-0.37016,-0.2313,-0.19025,-0.068243,-0.56404,2.6345,0.084571,-0.324,0.063691,1.2034,-0.70021
-0.012426,-0.0046241,0.035256,-0.065077,0.78768,1.8785,-0.50208,0.76507,-0.051607,-0.38076,-0.30165,0.15265,-0.039097,-0.31617,-0.28333,-0.14276,-0.061428,-0.61173,1.9569,0.079254,-0.265,0.088907,1.0241,-0.78495
-0.014297,-0.0048557,0.039704,-0.068238,0.84641,2.1978,-0.39278,0.78982,-0.058345,-0.40633,-0.28687,0.22253,-0.12371,-0.24141,-0.32992,-0.11819,-0.064226,-0.60972,1.0456,0.055356,-0.18745,0.031986,0.75111,-0.88752
