-9.5887e-010,-1.31e-009,1.8772e-009,-4.3737e-009,-3.8335e-009,4.5339e-010,2.375e-009,-9.1931e-009,1.1749e-009,2.5448e-009,-8.4697e-010,5.485e-009,-4.3409e-010,-4.8233e-011,3.9551e-010,-3.0657e-009,4.4567e-010,3.7236e-010,1.6013e-010,6.5403e-010,-7.3892e-010,-1.256e-009,4.1229e-009,-4.5628e-009
-2.6543e-008,-3.6084e-008,5.1828e-008,-1.2086e-007,-1.0587e-007,1.2876e-008,6.6332e-008,-2.5397e-007,3.2287e-008,7.0298e-008,-2.3231e-008,1.514e-007,-1.2771e-008,-8.428e-010,1.0706e-008,-8.4148e-008,1.2292e-008,1.0054e-008,4.4212e-009,1.8394e-008,-2.0531e-008,-3.468e-008,1.1419e-007,-1.2594e-007
-3.5733e-007,-4.8308e-007,6.9566e-007,-1.623e-006,-1.4212e-006,1.7877e-007,9.0231e-007,-3.4101e-006,4.3086e-007,9.4389e-007,-3.0938e-007,2.0315e-006,-1.8277e-007,-3.9308e-009,1.4057e-007,-1.1212e-006,1.6515e-007,1.3202e-007,5.9175e-008,2.5179e-007,-2.7745e-007,-4.6546e-007,1.5381e-006,-1.6901e-006
-3.1166e-006,-4.1877e-006,6.0476e-006,-1.411e-005,-1.2352e-005,1.6175e-006,7.9676e-006,-2.9645e-005,3.7196e-006,8.2068e-006,-2.6651e-006,1.7654e-005,-1.6952e-006,3.8386e-008,1.1928e-006,-9.6584e-006,1.4406e-006,1.1241e-006,5.1193e-007,2.2362e-006,-2.4297e-006,-4.0452e-006,1.3423e-005,-1.4693e-005
-1.9793e-005,-2.642e-005,3.8269e-005,-8.9254e-005,-7.8136e-005,1.0725e-005,5.1355e-005,-0.00018752,2.3344e-005,5.1931e-005,-1.6691e-005,0.00011167,-1.1453e-005,7.6509e-007,7.3515e-006,-6.0429e-005,9.1732e-006,6.9856e-006,3.222e-006,1.449e-005,-1.5499e-005,-2.5584e-005,8.5323e-005,-9.3011e-005
-9.752e-005,-0.00012925,0.00018779,-0.00043763,-0.00038323,5.5548e-005,0.00025759,-0.00091958,0.00011346,0.0002548,-8.0967e-005,0.00054785,-6.0043e-005,6.6892e-006,3.5063e-005,-0.0002924,4.5455e-005,3.3825e-005,1.5755e-005,7.3044e-005,-7.674e-005,-0.00012544,0.00042089,-0.00045684
-0.00038769,-0.00050999,0.00074323,-0.0017299,-0.001516,0.00023386,0.0010467,-0.0036358,0.00044409,0.0010083,-0.00031648,0.0021681,-0.00025409,3.9893e-005,0.00013462,-0.0011373,0.00018243,0.00013313,6.2505e-005,0.00029827,-0.00030685,-0.00049595,0.0016762,-0.0018112
-0.0012768,-0.0016666,0.0024356,-0.0056595,-0.0049666,0.00082191,0.0035417,-0.011899,0.0014371,0.0033044,-0.0010234,0.0071068,-0.00089111,0.00018209,0.00042722,-0.0036466,0.00060938,0.0004391,0.00020776,0.0010144,-0.0010177,-0.0016231,0.0055345,-0.0059525
-0.0035471,-0.0045938,0.0067294,-0.015605,-0.013727,0.0024563,0.010178,-0.032823,0.0039146,0.0091338,-0.0027894,0.019652,-0.0026375,0.00067114,0.0011415,-0.0098002,0.0017271,0.0012431,0.00059436,0.0029321,-0.0028522,-0.0044775,0.015434,-0.016523
-0.0084179,-0.010818,0.015874,-0.036725,-0.032427,0.006322,0.02521,-0.077294,0.0090907,0.021573,-0.006491,0.046441,-0.0066718,0.0020613,0.002601,-0.022302,0.0042131,0.0030825,0.0014994,0.0073151,-0.006846,-0.010544,0.036833,-0.03926
-0.017204,-0.021952,0.032228,-0.074378,-0.066079,0.014126,0.054438,-0.15668,0.018148,0.043921,-0.013012,0.094609,-0.014541,0.0053843,0.0050977,-0.043152,0.0089395,0.006819,0.0034126,0.015946,-0.014204,-0.021374,0.075895,-0.080599
-0.030402,-0.038564,0.056553,-0.13021,-0.11684,0.027501,0.10339,-0.27466,0.031298,0.077495,-0.022594,0.16702,-0.027405,0.012133,0.0086311,-0.070782,0.01663,0.013682,0.0071477,0.030677,-0.025623,-0.037461,0.13577,-0.14386
-0.046438,-0.058707,0.085772,-0.19716,-0.17986,0.046565,0.17392,-0.41679,0.046706,0.11876,-0.034053,0.256,-0.044606,0.023828,0.012619,-0.097006,0.027286,0.025264,0.01398,0.052545,-0.040298,-0.056802,0.21126,-0.22401
-0.060926,-0.07716,0.11184,-0.25708,-0.24125,0.067864,0.26062,-0.54573,0.060224,0.1579,-0.044481,0.34013,-0.06212,0.041079,0.015805,-0.10671,0.039684,0.043433,0.025713,0.080781,-0.0552,-0.074203,0.28537,-0.3045
-0.067573,-0.086641,0.12371,-0.28542,-0.28175,0.082763,0.34959,-0.6112,0.066811,0.18133,-0.050045,0.38951,-0.072165,0.062485,0.016556,-0.082996,0.051419,0.070038,0.044433,0.11241,-0.065486,-0.082591,0.3321,-0.36052
-0.0611,-0.081246,0.11274,-0.26336,-0.28647,0.077873,0.4216,-0.5759,0.063429,0.17846,-0.047849,0.38038,-0.065181,0.084158,0.013505,-0.017228,0.05982,0.10626,0.071715,0.14293,-0.066393,-0.076501,0.32738,-0.3698
-0.040959,-0.060441,0.079073,-0.19134,-0.25533,0.038673,0.45904,-0.44393,0.05162,0.14924,-0.037836,0.31192,-0.034128,0.1006,0.0061792,0.08196,0.063449,0.15158,0.1073,0.16807,-0.055883,-0.055993,0.26347,-0.3258
-0.013226,-0.030646,0.034003,-0.093437,-0.20602,-0.044345,0.45291,-0.26931,0.037375,0.10662,-0.023217,0.21214,0.02086,0.10692,-0.0048029,0.1886,0.063254,0.20273,0.14782,0.18559,-0.036295,-0.027984,0.1573,-0.24384
0.011513,-0.0024038,-0.0047538,-0.0060566,-0.16464,-0.1698,0.40524,-0.13108,0.027511,0.070147,-0.0087374,0.12466,0.090586,0.10127,-0.018084,0.27181,0.062343,0.2533,0.18657,0.19602,-0.013506,-0.0030986,0.044656,-0.15367
0.023889,0.015689,-0.023334,0.043739,-0.14896,-0.3234,0.32551,-0.085978,0.024747,0.053696,0.002214,0.082046,0.15958,0.085774,-0.032128,0.31435,0.064093,0.29453,0.21485,0.20186,0.0062286,0.010559,-0.038521,-0.081735
0.021625,0.022153,-0.020615,0.055158,-0.15674,-0.48151,0.22396,-0.13235,0.025447,0.056046,0.0095101,0.084357,0.21259,0.065335,-0.04552,0.32388,0.069621,0.31729,0.22456,0.20559,0.019661,0.012383,-0.075728,-0.035851
0.011186,0.022847,-0.0087511,0.052029,-0.16916,-0.61831,0.10762,-0.21479,0.022397,0.06231,0.015628,0.10051,0.24104,0.045078,-0.05688,0.32686,0.076395,0.31439,0.21044,0.20794,0.027632,0.0090168,-0.076667,-0.0040244
0.0034989,0.025869,-0.0041848,0.062926,-0.16688,-0.71213,-0.017286,-0.26843,0.010838,0.055924,0.02298,0.093009,0.24568,0.028441,-0.064792,0.34821,0.079275,0.28227,0.17108,0.20752,0.0331,0.0088869,-0.066493,0.031686
0.0064589,0.035201,-0.015633,0.098817,-0.14514,-0.74692,-0.13798,-0.2677,-0.0071702,0.031871,0.031539,0.046952,0.23437,0.017146,-0.06814,0.39215,0.073581,0.22187,0.10854,0.20188,0.037973,0.015921,-0.066756,0.078386
0.019688,0.048244,-0.03834,0.14646,-0.11423,-0.70975,-0.22947,-0.23879,-0.023956,0.00016348,0.038837,-0.020096,0.21702,0.012422,-0.066639,0.43985,0.058168,0.13897,0.027755,0.18939,0.041605,0.027614,-0.083226,0.12707
0.035459,0.059032,-0.058971,0.1823,-0.085409,-0.5891,-0.25723,-0.22626,-0.032243,-0.02331,0.042249,-0.074937,0.20124,0.01564,-0.060821,0.46571,0.036247,0.044243,-0.063356,0.17038,0.042224,0.038689,-0.10884,0.16266
0.044899,0.063952,-0.066789,0.19361,-0.056409,-0.37899,-0.19084,-0.24498,-0.030901,-0.030464,0.041423,-0.096917,0.19064,0.027312,-0.051071,0.45824,0.013301,-0.047741,-0.15414,0.14719,0.03967,0.046555,-0.13631,0.17908
0.04452,0.064763,-0.061754,0.18827,-0.011883,-0.08844,-0.023647,-0.26188,-0.02556,-0.027238,0.038658,-0.093056,0.18545,0.045457,-0.036483,0.42765,-0.0063017,-0.12186,-0.23314,0.12295,0.036554,0.053262,-0.16732,0.18501
0.038105,0.066471,-0.053222,0.18547,0.060024,0.25085,0.21235,-0.22409,-0.023701,-0.027261,0.037024,-0.088479,0.18386,0.06545,-0.015046,0.39455,-0.021352,-0.16814,-0.29184,0.10013,0.036477,0.062319,-0.21006,0.19526
0.033009,0.072438,-0.05117,0.19764,0.15011,0.58781,0.44804,-0.10757,-0.028614,-0.039302,0.038063,-0.10286,0.1829,0.082201,0.014189,0.37109,-0.033059,-0.1871,-0.32793,0.079737,0.04094,0.073906,-0.26908,0.21665
0.034376,0.081444,-0.057974,0.22066,0.22754,0.86845,0.59998,0.058704,-0.037377,-0.060053,0.041097,-0.13477,0.17916,0.092974,0.048402,0.35202,-0.042534,-0.19063,-0.34492,0.061647,0.047959,0.083661,-0.33841,0.24218
0.041942,0.089261,-0.067591,0.24018,0.25954,1.0571,0.60678,0.21448,-0.044163,-0.078272,0.044496,-0.16661,0.16976,0.098158,0.080432,0.32301,-0.049065,-0.19594,-0.34782,0.045455,0.053817,0.08662,-0.405,0.25863
0.051336,0.092853,-0.072005,0.24636,0.23609,1.1478,0.46039,0.31515,-0.045513,-0.085556,0.047433,-0.18306,0.15347,0.099105,0.10177,0.27729,-0.050867,-0.21527,-0.33817,0.031279,0.056345,0.082609,-0.4583,0.25986
0.057941,0.093004,-0.06857,0.24222,0.17836,1.1578,0.21211,0.36152,-0.042842,-0.083379,0.050463,-0.18467,0.13118,0.095225,0.10743,0.2241,-0.047492,-0.24785,-0.31284,0.019907,0.056619,0.077682,-0.49594,0.25273
0.059805,0.092989,-0.061777,0.23859,0.1234,1.1055,-0.053308,0.38762,-0.040379,-0.080414,0.054624,-0.18515,0.10541,0.08354,0.09902,0.18073,-0.041346,-0.2802,-0.26793,0.012379,0.05752,0.07982,-0.52003,0.25046
0.057755,0.09495,-0.058473,0.24211,0.097647,0.99111,-0.26195,0.42144,-0.04096,-0.083743,0.060208,-0.19693,0.079191,0.061569,0.083328,0.15535,-0.036551,-0.29495,-0.20404,0.0093971,0.060625,0.092524,-0.529,0.26032
0.053668,0.097767,-0.061411,0.24874,0.10084,0.79472,-0.38595,0.45685,-0.043707,-0.092833,0.066362,-0.21994,0.055426,0.030887,0.067597,0.13637,-0.035977,-0.28205,-0.12815,0.010827,0.064478,0.11191,-0.51498,0.27747
0.049007,0.098493,-0.06698,0.24861,0.11209,0.49406,-0.44765,0.46221,-0.045485,-0.10155,0.071691,-0.24336,0.036633,-0.0023399,0.05521,0.097855,-0.039169,-0.24445,-0.050557,0.015327,0.065886,0.12965,-0.4711,0.29027
0.044696,0.095682,-0.068742,0.23631,0.11014,0.090149,-0.49208,0.41556,-0.044388,-0.10521,0.075045,-0.25684,0.024427,-0.030779,0.045113,0.016999,-0.043073,-0.19489,0.019848,0.020208,0.062943,0.13888,-0.40192,0.29119
0.041572,0.091017,-0.063193,0.21607,0.089168,-0.37811,-0.54994,0.33206,-0.041808,-0.10512,0.075879,-0.25953,0.017937,-0.050505,0.034849,-0.11041,-0.044889,-0.147,0.077662,0.02194,0.056851,0.13811,-0.32555,0.28248
0.040267,0.087472,-0.052605,0.19728,0.058181,-0.84099,-0.61791,0.25788,-0.041165,-0.10643,0.074271,-0.25904,0.011979,-0.062819,0.024073,-0.26726,-0.044367,-0.10766,0.11962,0.017509,0.050834,0.13049,-0.26307,0.27196
0.040446,0.085908,-0.042827,0.18557,0.028288,-1.2226,-0.66794,0.23624,-0.044587,-0.11199,0.070997,-0.26283,-0.0027791,-0.072143,0.015389,-0.42528,-0.04353,-0.075233,0.14336,0.0060808,0.047213,0.12044,-0.22364,0.26384
0.040476,0.083737,-0.038418,0.17849,0.0026328,-1.4686,-0.67397,0.27608,-0.050657,-0.11897,0.067573,-0.27147,-0.035958,-0.082304,0.01202,-0.55935,-0.044346,-0.043456,0.1495,-0.01032,0.045454,0.11109,-0.19874,0.25404
0.038356,0.077265,-0.039366,0.16952,-0.021611,-1.5621,-0.63302,0.3497,-0.055326,-0.1215,0.065704,-0.2795,-0.091109,-0.094263,0.014615,-0.65684,-0.046724,-0.0069739,0.14534,-0.028029,0.042968,0.10412,-0.17174,0.23449
0.033341,0.065576,-0.041777,0.15552,-0.043472,-1.5233,-0.5657,0.4187,-0.055191,-0.11671,0.066043,-0.28195,-0.16108,-0.10591,0.020025,-0.71859,-0.048669,0.034903,0.14464,-0.044168,0.037805,0.10053,-0.13444,0.20196
0.026745,0.052142,-0.041348,0.13975,-0.05298,-1.3945,-0.50006,0.46303,-0.050227,-0.10807,0.067201,-0.27906,-0.22939,-0.11232,0.023063,-0.75419,-0.04818,0.077363,0.16042,-0.058336,0.030642,0.10009,-0.095433,0.16285
0.021014,0.04243,-0.036479,0.12798,-0.037272,-1.2194,-0.45432,0.48878,-0.043589,-0.10259,0.066269,-0.27503,-0.27811,-0.10566,0.019813,-0.77544,-0.044856,0.11153,0.19458,-0.072022,0.024192,0.09957,-0.072175,0.1294
0.017777,0.039576,-0.028775,0.12194,0.0078456,-1.0245,-0.43086,0.51202,-0.038738,-0.10465,0.06098,-0.27296,-0.2975,-0.076611,0.0099911,-0.79053,-0.039837,0.12739,0.23371,-0.0864,0.02062,0.0924,-0.073725,0.11103
0.016601,0.041975,-0.021184,0.11696,0.072854,-0.81172,-0.42129,0.53783,-0.036523,-0.11216,0.051879,-0.27157,-0.29073,-0.020129,-0.0033418,-0.80035,-0.034569,0.11775,0.25661,-0.10082,0.019372,0.072067,-0.090027,0.1083
0.015516,0.044752,-0.015691,0.10603,0.14137,-0.56638,-0.41394,0.55528,-0.034815,-0.1185,0.042431,-0.26683,-0.2703,0.055959,-0.016475,-0.79845,-0.030043,0.081785,0.24945,-0.11372,0.017392,0.037616,-0.097679,0.11411
0.012791,0.043527,-0.012286,0.086064,0.20216,-0.27918,-0.39724,0.55089,-0.030882,-0.11843,0.036574,-0.2563,-0.24918,0.12619,-0.028185,-0.77544,-0.027196,0.026342,0.21653,-0.1251,0.011477,-0.0031973,-0.077179,0.11996
0.0083253,0.037104,-0.0095177,0.060356,0.25472,0.030435,-0.36079,0.52488,-0.024142,-0.11252,0.035556,-0.24147,-0.23334,0.15417,-0.040917,-0.72607,-0.027506,-0.036426,0.17752,-0.1376,0.00069229,-0.036901,-0.026611,0.12126
0.0035111,0.027234,-0.0057752,0.0354,0.3039,0.30756,-0.29873,0.49302,-0.016698,-0.10622,0.03675,-0.22614,-0.22094,0.11106,-0.058835,-0.65404,-0.032309,-0.093865,0.15258,-0.15432,-0.013081,-0.052397,0.039389,0.11749
-0.00018032,0.016466,-0.00034828,0.01541,0.35043,0.48182,-0.21582,0.47279,-0.011271,-0.10463,0.035531,-0.2128,-0.20759,-0.0042003,-0.083791,-0.57073,-0.040887,-0.13685,0.14715,-0.17497,-0.026604,-0.048391,0.10296,0.10869
-0.0025335,0.0064858,0.0062205,-0.00028218,0.38778,0.50497,-0.12979,0.46822,-0.0086834,-0.10777,0.028691,-0.20077,-0.19242,-0.15781,-0.11212,-0.48812,-0.0492,-0.16055,0.14819,-0.19411,-0.037192,-0.034187,0.15619,0.09293
-0.0047038,-0.0019246,0.012491,-0.015156,0.40852,0.38081,-0.064471,0.46808,-0.0073579,-0.11051,0.016663,-0.18731,-0.17984,-0.29479,-0.13502,-0.41179,-0.051169,-0.16251,0.13385,-0.20416,-0.04359,-0.02286,0.20375,0.068136
-0.0081388,-0.0081946,0.016975,-0.03145,0.41263,0.16461,-0.0366,0.4584,-0.0051802,-0.10701,0.0029904,-0.1703,-0.17642,-0.36653,-0.14275,-0.33982,-0.042298,-0.14093,0.088416,-0.20134,-0.045696,-0.022026,0.25577,0.036703
-0.013343,-0.012005,0.019099,-0.048175,0.40844,-0.068994,-0.046381,0.4361,-0.0016507,-0.095522,-0.0081847,-0.14968,-0.18603,-0.35493,-0.13002,-0.26866,-0.023061,-0.095717,0.01141,-0.18966,-0.044211,-0.029522,0.31958,0.0082284
-0.019515,-0.014143,0.019677,-0.062658,0.40481,-0.26604,-0.080176,0.4104,0.0019292,-0.0795,-0.014518,-0.12724,-0.20767,-0.2783,-0.098787,-0.20054,0.00069378,-0.031469,-0.083627,-0.17916,-0.040851,-0.037245,0.39743,-0.0034841
-0.025185,-0.016835,0.020467,-0.073581,0.4025,-0.41167,-0.12291,0.39196,0.0043185,-0.064389,-0.016268,-0.10561,-0.23695,-0.17729,-0.056827,-0.14526,0.020819,0.040498,-0.17679,-0.17932,-0.038453,-0.039603,0.48884,0.011688
-0.029151,-0.022526,0.022966,-0.082391,0.39407,-0.51662,-0.16865,0.38143,0.0060928,-0.053359,-0.015577,-0.087602,-0.26949,-0.092345,-0.013765,-0.11372,0.031217,0.10395,-0.24906,-0.19277,-0.039866,-0.039221,0.59176,0.052662
-0.030919,-0.031872,0.027331,-0.092021,0.37254,-0.58802,-0.21948,0.3693,0.0092375,-0.045759,-0.01514,-0.075571,-0.30309,-0.046976,0.022385,-0.10806,0.030486,0.14319,-0.28603,-0.21399,-0.045759,-0.045074,0.69952,0.10576
-0.030598,-0.042902,0.032379,-0.10448,0.3403,-0.6123,-0.27428,0.34689,0.01487,-0.039128,-0.017014,-0.070404,-0.33754,-0.04325,0.046603,-0.11707,0.021479,0.14936,-0.27985,-0.23356,-0.053241,-0.064752,0.7978,0.15131
-0.028732,-0.052455,0.03677,-0.11962,0.30883,-0.56421,-0.31937,0.31686,0.021531,-0.032201,-0.021738,-0.070437,-0.37284,-0.066532,0.057162,-0.12183,0.0087917,0.12398,-0.2319,-0.24422,-0.057187,-0.097427,0.86725,0.17433
-0.02646,-0.058805,0.040397,-0.13589,0.28917,-0.43057,-0.3317,0.2919,0.026113,-0.025767,-0.027997,-0.071653,-0.4077,-0.093435,0.056295,-0.10873,-0.0037641,0.077756,-0.15526,-0.24426,-0.053851,-0.13319,0.89189,0.17244
-0.025622,-0.063119,0.044682,-0.15182,0.28176,-0.22454,-0.29341,0.2819,0.026833,-0.02081,-0.033298,-0.069642,-0.43953,-0.10036,0.050602,-0.080061,-0.014283,0.025061,-0.072928,-0.23708,-0.043883,-0.1588,0.86632,0.15578
-0.02813,-0.068379,0.051296,-0.16677,0.27557,0.02323,-0.20512,0.28179,0.025389,-0.016309,-0.035728,-0.061959,-0.46565,-0.073104,0.048934,-0.053424,-0.022531,-0.023395,-0.0097301,-0.22834,-0.031865,-0.16485,0.7952,0.13924
-0.034561,-0.076665,0.060242,-0.18054,0.25734,0.28764,-0.084984,0.27251,0.025932,-0.0093765,-0.035813,-0.048775,-0.48492,-0.015822,0.057118,-0.048764,-0.029183,-0.065879,0.018754,-0.22349,-0.022489,-0.14903,0.68555,0.13248
-0.043064,-0.087153,0.068962,-0.19273,0.223,0.56388,0.046578,0.23659,0.031411,0.0021115,-0.036838,-0.031226,-0.49851,0.04666,0.072877,-0.071885,-0.035185,-0.10982,0.013098,-0.22636,-0.016738,-0.11446,0.5401,0.13447
-0.049943,-0.096492,0.07355,-0.20284,0.18117,0.86022,0.18354,0.17566,0.040505,0.017042,-0.042876,-0.0091958,-0.50949,0.078728,0.086037,-0.10693,-0.041319,-0.1661,-0.012244,-0.23838,-0.011671,-0.066708,0.35903,0.13545
-0.052056,-0.10118,0.071461,-0.21097,0.14612,1.1756,0.33686,0.11431,0.048057,0.031421,-0.055727,0.018967,-0.52132,0.053434,0.08562,-0.12478,-0.047822,-0.24022,-0.038646,-0.25788,-0.0040869,-0.013059,0.1491,0.12427
-0.049293,-0.10002,0.06376,-0.21817,0.12656,1.4829,0.51924,0.085091,0.04892,0.041579,-0.073214,0.054267,-0.53609,-0.03024,0.068977,-0.10259,-0.054104,-0.32537,-0.053179,-0.28018,0.0053916,0.035892,-0.068735,0.09548
-0.044898,-0.094869,0.054972,-0.22577,0.11951,1.7332,0.72423,0.10521,0.042052,0.047395,-0.090356,0.094539,-0.55354,-0.14487,0.04515,-0.040571,-0.058809,-0.40182,-0.051865,-0.29946,0.011864,0.066323,-0.26234,0.051861
-0.043021,-0.089344,0.050297,-0.23407,0.11354,1.8775,0.91744,0.16302,0.031355,0.052514,-0.1026,0.1344,-0.57141,-0.24937,0.028906,0.036683,-0.060329,-0.4432,-0.0356,-0.31164,0.010071,0.066164,-0.40175,0.00165
-0.0454,-0.086649,0.052062,-0.24178,0.097742,1.8906,1.0491,0.22522,0.022521,0.061211,-0.10856,0.1683,-0.58631,-0.31061,0.030062,0.096233,-0.057524,-0.4265,-0.0041519,-0.31638,-0.00071286,0.03327,-0.47363,-0.046438
-0.05004,-0.087924,0.058144,-0.24686,0.068956,1.7804,1.0801,0.25909,0.018493,0.074566,-0.11033,0.19423,-0.59449,-0.31724,0.047142,0.11862,-0.050197,-0.3408,0.04541,-0.3163,-0.015265,-0.019717,-0.48608,-0.086883
-0.053037,-0.092015,0.063691,-0.24832,0.032135,1.5803,1.004,0.25266,0.017294,0.089279,-0.1114,0.21483,-0.59196,-0.27839,0.070434,0.10952,-0.039117,-0.1914,0.11419,-0.31413,-0.02595,-0.06965,-0.46106,-0.11817
-0.051905,-0.096551,0.064903,-0.24744,-0.0050686,1.3333,0.84921,0.21821,0.013977,0.10013,-0.11418,0.23485,-0.57504,-0.21272,0.090854,0.09312,-0.025804,0.00066792,0.19515,-0.31031,-0.028306,-0.095446,-0.42151,-0.14179
-0.047465,-0.099545,0.061865,-0.24734,-0.038627,1.0779,0.66269,0.17886,0.0050111,0.10409,-0.11885,0.25712,-0.5419,-0.1385,0.10602,0.093067,-0.012394,0.20263,0.27133,-0.30348,-0.024023,-0.09076,-0.38362,-0.16117
-0.042843,-0.10062,0.058166,-0.25102,-0.070754,0.84009,0.48745,0.15104,-0.0085328,0.10261,-0.124,0.28039,-0.49428,-0.070676,0.11849,0.11625,-0.001643,0.37647,0.32146,-0.29337,-0.019005,-0.067265,-0.35782,-0.18135
-0.040762,-0.10119,0.057692,-0.25928,-0.10782,0.6296,0.3481,0.13674,-0.021601,0.10054,-0.1279,0.30069,-0.43685,-0.021948,0.12941,0.15108,0.0033766,0.4881,0.3297,-0.28312,-0.018428,-0.045781,-0.35354,-0.20862
-0.041637,-0.10335,0.061325,-0.27012,-0.15595,0.43923,0.24981,0.12896,-0.029021,0.10244,-0.12946,0.31461,-0.37289,-0.001456,0.13516,0.17974,0.00029876,0.51823,0.29318,-0.27833,-0.023068,-0.041948,-0.37854,-0.24914
-0.043898,-0.1082,0.066304,-0.27991,-0.21752,0.24996,0.18444,0.12149,-0.029377,0.10947,-0.12846,0.32169,-0.2982,-0.0099689,0.13088,0.19279,-0.011027,0.47113,0.22211,-0.28286,-0.029756,-0.057301,-0.43015,-0.30681
-0.045786,-0.11454,0.068651,-0.28554,-0.29013,0.04211,0.13545,0.11217,-0.025677,0.11894,-0.12538,0.32421,-0.19901,-0.036885,0.11683,0.19426,-0.027579,0.37511,0.13278,-0.29469,-0.035022,-0.081744,-0.48533,-0.38154
-0.046765,-0.11918,0.06648,-0.28608,-0.36748,-0.19065,0.078933,0.097019,-0.022366,0.12671,-0.12118,0.32512,-0.058111,-0.064637,0.10003,0.19467,-0.043872,0.27136,0.03862,-0.30568,-0.038348,-0.10385,-0.50104,-0.46892
-0.04746,-0.11886,0.061409,-0.28283,-0.44077,-0.43276,-0.013885,0.063553,-0.021387,0.13017,-0.11693,0.32635,0.13233,-0.078978,0.088753,0.19991,-0.054448,0.19442,-0.054755,-0.30585,-0.042156,-0.11948,-0.43037,-0.56123
-0.048548,-0.11263,0.057062,-0.27819,-0.50055,-0.64982,-0.16744,-0.007073,-0.020862,0.12972,-0.11342,0.32856,0.35984,-0.076917,0.085015,0.2063,-0.056785,0.15498,-0.14757,-0.28931,-0.04888,-0.13201,-0.24762,-0.64875
-0.049857,-0.10298,0.056092,-0.27418,-0.53937,-0.80204,-0.38807,-0.12749,-0.017605,0.12776,-0.11075,0.33207,0.59221,-0.065324,0.082949,0.2055,-0.05262,0.13646,-0.23923,-0.25754,-0.058163,-0.1456,0.033359,-0.72097
-0.050452,-0.094671,0.058174,-0.27159,-0.55505,-0.85971,-0.65531,-0.29063,-0.011069,0.12648,-0.10834,0.33771,0.79184,-0.051819,0.075137,0.19346,-0.04658,0.10887,-0.32238,-0.21784,-0.066915,-0.15917,0.36061,-0.76823
-0.049455,-0.091905,0.060379,-0.27001,-0.55247,-0.8119,-0.9268,-0.46762,-0.0048145,0.12634,-0.10538,0.34657,0.93575,-0.036949,0.060538,0.17484,-0.04299,0.051355,-0.38227,-0.17848,-0.072139,-0.16706,0.66632,-0.78446
-0.046821,-0.095754,0.059388,-0.26822,-0.54149,-0.66585,-1.1553,-0.62078,-0.0037657,0.12606,-0.10131,0.35915,1.0268,-0.015226,0.045654,0.1592,-0.043168,-0.032279,-0.40252,-0.14438,-0.073762,-0.1653,0.89692,-0.77037
-0.043482,-0.10359,0.053781,-0.26488,-0.53111,-0.4408,-1.3064,-0.72366,-0.0094991,0.124,-0.096041,0.37462,1.0875,0.016382,0.037212,0.15345,-0.045171,-0.11626,-0.37363,-0.11585,-0.074758,-0.15684,1.0335,-0.7346
-0.040807,-0.1108,0.044876,-0.25911,-0.5239,-0.16252,-1.3666,-0.77359,-0.017981,0.11932,-0.089743,0.39058,1.1394,0.051471,0.033442,0.15813,-0.04605,-0.1717,-0.29887,-0.090737,-0.078417,-0.15001,1.0917,-0.69081
-0.039764,-0.11352,0.035776,-0.25114,-0.51532,0.13923,-1.3381,-0.78843,-0.022164,0.11246,-0.082595,0.40339,1.1855,0.076309,0.023003,0.17061,-0.04462,-0.18733,-0.19381,-0.067469,-0.085299,-0.15139,1.1041,-0.65088
-0.040266,-0.11052,0.029326,-0.24245,-0.49882,0.43224,-1.2307,-0.79079,-0.017426,0.10467,-0.0748,0.409,1.2082,0.079648,-0.0064768,0.19129,-0.042462,-0.17681,-0.079958,-0.046845,-0.09262,-0.15976,1.0986,-0.61846
-0.041149,-0.10349,0.026272,-0.23503,-0.47203,0.6861,-1.0595,-0.7927,-0.0050621,0.0973,-0.066835,0.40399,1.1862,0.06134,-0.057557,0.2256,-0.042388,-0.16782,0.023409,-0.031384,-0.096549,-0.16714,1.0855,-0.58763
-0.040904,-0.095611,0.024762,-0.22977,-0.43832,0.87954,-0.84946,-0.79194,0.0092425,0.091131,-0.059537,0.38675,1.1151,0.031977,-0.11956,0.27911,-0.04579,-0.18185,0.10485,-0.022964,-0.095291,-0.16664,1.0606,-0.54839
-0.038769,-0.089762,0.021631,-0.22522,-0.40197,1.0075,-0.63662,-0.78125,0.020448,0.086118,-0.053747,0.35835,1.014,0.0043491,-0.17558,0.35003,-0.051127,-0.21962,0.16181,-0.020365,-0.090283,-0.15986,1.0163,-0.49558
-0.035343,-0.087145,0.014753,-0.2178,-0.36187,1.0828,-0.45931,-0.76128,0.028036,0.081451,-0.0497,0.32232,0.91169,-0.015153,-0.21356,0.42658,-0.054727,-0.26131,0.19855,-0.018445,-0.084707,-0.15682,0.95178,-0.43418
-0.032075,-0.0869,0.0048267,-0.20377,-0.31021,1.1314,-0.34089,-0.74532,0.035345,0.076134,-0.04673,0.28332,0.82324,-0.027658,-0.23225,0.49272,-0.053116,-0.27938,0.22333,-0.0098486,-0.080848,-0.16709,0.87364,-0.37667
-0.029873,-0.086701,-0.0049297,-0.18168,-0.23766,1.1807,-0.27792,-0.75091,0.045394,0.069828,-0.043739,0.24517,0.73902,-0.035518,-0.23795,0.53797,-0.044946,-0.25384,0.24606,0.011356,-0.078569,-0.18879,0.78851,-0.33398
-0.028053,-0.084007,-0.011177,-0.15351,-0.14022,1.249,-0.24499,-0.78464,0.057453,0.063331,-0.040155,0.20941,0.63623,-0.035531,-0.23667,0.56335,-0.031211,-0.18077,0.27581,0.046256,-0.075837,-0.20484,0.69516,-0.30716
-0.024767,-0.077432,-0.013136,-0.12363,-0.021291,1.3377,-0.21365,-0.8322,0.067594,0.058111,-0.036584,0.17534,0.50482,-0.018564,-0.22905,0.57817,-0.014014,-0.071553,0.31761,0.090325,-0.070399,-0.19083,0.58354,-0.28659
-0.018777,-0.067561,-0.013251,-0.096517,0.11186,1.4301,-0.16961,-0.86272,0.072474,0.055055,-0.034368,0.1413,0.36498,0.023901,-0.21172,0.59076,0.004767,0.053297,0.36949,0.13615,-0.061059,-0.13011,0.44179,-0.25939
-0.010994,-0.056731,-0.015156,-0.074713,0.25208,1.4965,-0.11398,-0.84586,0.072588,0.053427,-0.034169,0.1063,0.25952,0.091907,-0.18225,0.60079,0.023817,0.17041,0.42198,0.17789,-0.04786,-0.026417,0.26509,-0.21913
-0.004161,-0.047739,-0.020665,-0.058354,0.3916,1.5039,-0.049797,-0.77099,0.072021,0.051024,-0.034736,0.070914,0.2251,0.17424,-0.14239,0.59958,0.041819,0.2578,0.46091,0.21404,-0.031683,0.094508,0.059037,-0.17005
-0.00070856,-0.042185,-0.02844,-0.045941,0.51767,1.4292,0.030204,-0.65574,0.075179,0.045538,-0.033189,0.036818,0.26489,0.2525,-0.097473,0.57792,0.056973,0.29816,0.47257,0.24652,-0.014029,0.19571,-0.1649,-0.12291
-0.00060153,-0.039463,-0.035486,-0.035456,0.61122,1.2702,0.14003,-0.53817,0.083578,0.036055,-0.027054,0.00573,0.3449,0.30889,-0.053643,0.53475,0.067417,0.28278,0.44816,0.277,0.002936,0.24596,-0.39655,-0.08644
-0.001221,-0.037142,-0.039958,-0.025059,0.65337,1.0487,0.28333,-0.4572,0.09518,0.023533,-0.016581,-0.02143,0.41737,0.3328,-0.016065,0.47976,0.072385,0.21581,0.38579,0.30381,0.016657,0.23355,-0.6291,-0.061721
0.00049595,-0.032567,-0.042597,-0.013397,0.63641,0.80256,0.44079,-0.43305,0.10616,0.010056,-0.0052199,-0.044658,0.45233,0.32364,0.011421,0.42786,0.073041,0.11572,0.28957,0.32238,0.025132,0.17019,-0.85286,-0.043399
0.0055449,-0.024668,-0.045543,0.00013508,0.56997,0.5672,0.57811,-0.45844,0.11308,-0.0023408,0.0026358,-0.064557,0.45228,0.28984,0.026738,0.38986,0.072084,0.011061,0.16705,0.32862,0.027991,0.083931,-1.0465,-0.025791
0.012213,-0.014714,-0.049943,0.015195,0.47562,0.35835,0.67133,-0.50466,0.11388,-0.012348,0.0050704,-0.082149,0.4392,0.24519,0.030996,0.36573,0.072198,-0.069698,0.026545,0.32237,0.026747,0.0058772,-1.1764,-0.0079985
0.017791,-0.0054725,-0.054911,0.030768,0.37358,0.1666,0.7281,-0.53743,0.10788,-0.019378,0.0043269,-0.098876,0.42653,0.20361,0.029361,0.34476,0.074528,-0.11029,-0.12486,0.30796,0.023843,-0.042313,-1.2088,0.0060617
0.020952,0.00068102,-0.058914,0.046134,0.27237,-0.031652,0.78389,-0.53291,0.095745,-0.023387,0.0050322,-0.11625,0.40105,0.17401,0.029033,0.31188,0.078413,-0.11418,-0.28143,0.29165,0.021196,-0.054461,-1.131,0.012023
0.022647,0.0034157,-0.06203,0.061926,0.16969,-0.25408,0.8734,-0.48567,0.079787,-0.024942,0.010256,-0.1349,0.33113,0.15745,0.034574,0.25594,0.082579,-0.10243,-0.43703,0.27859,0.019412,-0.037907,-0.96544,0.0097415
0.024913,0.0047139,-0.066437,0.080175,0.062449,-0.49725,0.9995,-0.40618,0.063822,-0.025337,0.018793,-0.15351,0.19469,0.14858,0.044131,0.17491,0.086647,-0.10223,-0.58253,0.27156,0.01817,-0.0065937,-0.76439,0.0048574
0.02896,0.0075872,-0.074232,0.10281,-0.044151,-0.73625,1.1258,-0.31137,0.05173,-0.026262,0.026156,-0.16887,0.0035633,0.14053,0.05029,0.075605,0.091483,-0.13203,-0.70496,0.27186,0.017168,0.025759,-0.58642,0.0069833
0.034353,0.014123,-0.084557,0.12953,-0.13724,-0.93749,1.1997,-0.21505,0.045248,-0.028947,0.028507,-0.17759,-0.19711,0.12963,0.045536,-0.031142,0.098004,-0.19206,-0.79088,0.28008,0.016593,0.048896,-0.46782,0.026436
0.03978,0.024168,-0.093101,0.15683,-0.20581,-1.0737,1.188,-0.12341,0.042579,-0.033433,0.026047,-0.17843,-0.35516,0.11585,0.027954,-0.13618,0.10563,-0.26588,-0.8334,0.29542,0.016763,0.056015,-0.4085,0.070961
0.044336,0.035478,-0.095111,0.17966,-0.25019,-1.1317,1.0969,-0.037131,0.039213,-0.038723,0.02282,-0.17361,-0.44355,0.098973,0.0022937,-0.23483,0.11198,-0.33188,-0.83881,0.3141,0.017538,0.043481,-0.38125,0.14249
0.047991,0.045159,-0.089637,0.19471,-0.28284,-1.1127,0.96572,0.042398,0.030737,-0.043815,0.023136,-0.16762,-0.47435,0.074863,-0.02432,-0.32524,0.11442,-0.37703,-0.82736,0.32928,0.018331,0.012377,-0.35664,0.2341
0.051002,0.051442,-0.081185,0.20303,-0.31982,-1.03,0.84084,0.10764,0.015821,-0.048665,0.027865,-0.16446,-0.48537,0.037099,-0.047771,-0.40448,0.11198,-0.40408,-0.82533,0.33391,0.018749,-0.029489,-0.32503,0.32928
0.05318,0.054676,-0.076844,0.20948,-0.36999,-0.90881,0.75518,0.14467,-0.0027034,-0.054057,0.033892,-0.1651,-0.51185,-0.015686,-0.068236,-0.46626,0.10604,-0.42732,-0.85175,0.32492,0.019042,-0.068648,-0.30081,0.40616
0.053906,0.056983,-0.080844,0.21923,-0.42966,-0.78492,0.72371,0.13979,-0.019497,-0.060351,0.037125,-0.16722,-0.56515,-0.072841,-0.086368,-0.5029,0.099128,-0.46003,-0.90707,0.30533,0.019734,-0.091724,-0.30766,0.44684
0.052799,0.060827,-0.090974,0.23371,-0.48544,-0.69587,0.75041,0.089965,-0.030054,-0.066313,0.036217,-0.1671,-0.63236,-0.11284,-0.098738,-0.51028,0.092956,-0.50187,-0.97126,0.28228,0.020795,-0.092757,-0.35745,0.44694
0.050235,0.067403,-0.099952,0.24931,-0.52151,-0.66568,0.83165,0.010871,-0.033545,-0.069428,0.033726,-0.16225,-0.69254,-0.11462,-0.098153,-0.4917,0.087704,-0.53478,-1.0129,0.26232,0.021495,-0.07626,-0.43777,0.41853
0.047162,0.075815,-0.10088,0.25997,-0.52597,-0.69272,0.94964,-0.064387,-0.033278,-0.067807,0.033885,-0.15296,-0.73389,-0.072249,-0.079994,-0.45746,0.082945,-0.5304,-1.0035,0.24795,0.021501,-0.052882,-0.51541,0.38312
0.04452,0.083596,-0.092515,0.26168,-0.49363,-0.75179,1.0654,-0.097878,-0.034433,-0.06215,0.039188,-0.14202,-0.75845,-0.0019159,-0.0494,-0.42022,0.079105,-0.46427,-0.92901,0.23813,0.022253,-0.030905,-0.5516,0.35908
0.042917,0.088241,-0.080209,0.25534,-0.42618,-0.81124,1.1262,-0.065762,-0.040522,-0.055827,0.048739,-0.13294,-0.77375,0.0655,-0.022015,-0.38946,0.077817,-0.32843,-0.79237,0.23195,0.026928,-0.010847,-0.51925,0.35241
0.042723,0.088796,-0.07186,0.24613,-0.33182,-0.85243,1.0897,0.026953,-0.050928,-0.052604,0.05944,-0.12784,-0.78141,0.10227,-0.01559,-0.3686,0.080773,-0.13531,-0.60795,0.23151,0.038299,0.012129,-0.41374,0.35776
0.044149,0.086414,-0.072078,0.23986,-0.22458,-0.87638,0.94821,0.14545,-0.061257,-0.053696,0.068486,-0.12578,-0.7731,0.10024,-0.037544,-0.35549,0.088224,0.087741,-0.39448,0.24074,0.055941,0.040542,-0.25381,0.36781
0.046955,0.083529,-0.079026,0.23937,-0.12244,-0.89361,0.73423,0.24013,-0.066376,-0.056676,0.074843,-0.12228,-0.73653,0.074543,-0.077925,-0.34487,0.098523,0.30875,-0.17159,0.26103,0.075314,0.069327,-0.073336,0.38263
0.05012,0.082218,-0.086102,0.24331,-0.04341,-0.90902,0.49826,0.27013,-0.064087,-0.057321,0.078808,-0.11049,-0.66529,0.052197,-0.11396,-0.33082,0.10898,0.50015,0.0399,0.28748,0.090019,0.088539,0.092298,0.41048
0.052122,0.083005,-0.086902,0.24776,-0.00060992,-0.91813,0.27773,0.22202,-0.056757,-0.052993,0.080755,-0.083985,-0.56505,0.053529,-0.12376,-0.3087,0.11702,0.64372,0.21839,0.30969,0.095825,0.091965,0.22016,0.45891
0.051919,0.084916,-0.079607,0.24907,0.0012438,-0.9192,0.080228,0.11326,-0.049642,-0.044798,0.080692,-0.04025,-0.45207,0.078922,-0.099643,-0.2769,0.12072,0.73181,0.34667,0.31706,0.093347,0.08368,0.30758,0.52347
0.049808,0.086645,-0.067714,0.24559,-0.033687,-0.92812,-0.10727,-0.020977,-0.047072,-0.0368,0.07897,0.016866,-0.34628,0.10931,-0.051709,-0.23804,0.1186,0.76692,0.42005,0.30475,0.087219,0.076117,0.36941,0.58368
0.047211,0.08773,-0.056956,0.23775,-0.094647,-0.97716,-0.29469,-0.14867,-0.049405,-0.033049,0.077057,0.077564,-0.26309,0.11945,0.00027716,-0.19822,0.10966,0.76013,0.45074,0.27576,0.082477,0.080923,0.42559,0.61047
0.045424,0.088707,-0.051007,0.22676,-0.1677,-1.092,-0.4732,-0.25648,-0.053099,-0.0349,0.077095,0.12976,-0.20779,0.094691,0.04006,-0.16387,0.094069,0.72785,0.46256,0.23794,0.081074,0.1005,0.48593,0.58068
0.044458,0.090168,-0.049198,0.2137,-0.23892,-1.2626,-0.62043,-0.35097,-0.053774,-0.040554,0.080333,0.16446,-0.17396,0.040001,0.063231,-0.13767,0.073985,0.68671,0.47787,0.19871,0.081181,0.12745,0.54143,0.48899
0.043097,0.091646,-0.047678,0.19945,-0.29699,-1.435,-0.71907,-0.44642,-0.049708,-0.046717,0.08579,0.17975,-0.1464,-0.02437,0.075379,-0.11661,0.053427,0.64841,0.50554,0.16202,0.079451,0.15177,0.56749,0.3501
0.04013,0.091433,-0.042812,0.18529,-0.33538,-1.5342,-0.77038,-0.54875,-0.042935,-0.050694,0.090452,0.18108,-0.10774,-0.077124,0.082965,-0.094161,0.036672,0.6169,0.53929,0.12933,0.074072,0.16886,0.53714,0.1909
0.035528,0.087661,-0.034039,0.17303,-0.35327,-1.5054,-0.79054,-0.64677,-0.037222,-0.051367,0.091028,0.17719,-0.046505,-0.10962,0.085158,-0.064994,0.02606,0.58938,0.56753,0.10249,0.066076,0.18095,0.43602,0.038854
0.030462,0.079847,-0.024077,0.16436,-0.35414,-1.3423,-0.79507,-0.71668,-0.034832,-0.049007,0.085979,0.1743,0.037343,-0.12918,0.073347,-0.028624,0.02076,0.55983,0.58612,0.085045,0.058141,0.19138,0.27088,-0.086723
0.026263,0.069719,-0.016597,0.15955,-0.3418,-1.0794,-0.78618,-0.73632,-0.03491,-0.044835,0.076391,0.17224,0.13274,-0.14999,0.0384,0.011042,0.017504,0.5229,0.60261,0.080045,0.052154,0.19804,0.067406,-0.17745
0.023474,0.060575,-0.01347,0.15681,-0.31624,-0.75544,-0.75371,-0.69965,-0.034713,-0.040916,0.065185,0.16524,0.22395,-0.17877,-0.020432,0.049607,0.012848,0.47618,0.62845,0.086364,0.047602,0.19301,-0.13995,-0.23464
0.0219,0.055479,-0.013809,0.15302,-0.27256,-0.38215,-0.6867,-0.62215,-0.032381,-0.039875,0.055334,0.14693,0.29919,-0.20673,-0.091971,0.08592,0.0053862,0.42079,0.66605,0.097419,0.041909,0.16916,-0.32025,-0.26685
0.021345,0.05539,-0.015297,0.14561,-0.20487,0.055766,-0.58465,-0.53418,-0.0287,-0.043766,0.048274,0.11575,0.35618,-0.21437,-0.15748,0.12232,-0.003626,0.36072,0.70331,0.10417,0.032333,0.12794,-0.45435,-0.28726
0.021995,0.058447,-0.01629,0.13421,-0.11286,0.56653,-0.45999,-0.46667,-0.026366,-0.052463,0.043481,0.076812,0.40148,-0.18568,-0.19955,0.16137,-0.011565,0.30143,0.72119,0.10052,0.018035,0.08082,-0.53667,-0.30984
0.023848,0.060964,-0.016706,0.121,-0.006204,1.1151,-0.33251,-0.43747,-0.027525,-0.063083,0.039359,0.038734,0.44521,-0.12063,-0.20943,0.20235,-0.016604,0.24763,0.70881,0.08691,0.00099193,0.043005,-0.57143,-0.34416
0.02582,0.059628,-0.017114,0.10924,0.09704,1.6203,-0.22155,-0.44534,-0.031789,-0.071516,0.034776,0.007894,0.49503,-0.036422,-0.18873,0.24068,-0.019132,0.20073,0.67301,0.069193,-0.014728,0.024551,-0.56664,-0.39141
0.025734,0.053563,-0.017248,0.10098,0.1776,1.9951,-0.14054,-0.4732,-0.036439,-0.075221,0.030122,-0.015448,0.55288,0.043618,-0.14588,0.27075,-0.021444,0.15743,0.63395,0.053746,-0.024939,0.026113,-0.52897,-0.44476
0.021669,0.044893,-0.015684,0.095734,0.22299,2.1994,-0.093943,-0.49759,-0.038567,-0.074916,0.027043,-0.036438,0.61527,0.10463,-0.091099,0.28934,-0.026037,0.11093,0.60997,0.042782,-0.027496,0.041791,-0.46135,-0.49451
0.013756,0.037343,-0.011103,0.090948,0.2312,2.2629,-0.076211,-0.49892,-0.037324,-0.073491,0.026995,-0.06148,0.6762,0.14731,-0.033363,0.29668,-0.033856,0.054825,0.60411,0.033383,-0.023487,0.065066,-0.36361,-0.53388
0.0047872,0.033756,-0.0038584,0.084087,0.20823,2.2554,-0.074668,-0.46839,-0.034427,-0.073015,0.029732,-0.09443,0.73094,0.18278,0.019664,0.29479,-0.043779,-0.012494,0.60275,0.020653,-0.01673,0.091725,-0.23584,-0.56026
-0.0012167,0.034229,0.0038353,0.074631,0.16272,2.2253,-0.078318,-0.40932,-0.032509,-0.072622,0.033081,-0.13608,0.77887,0.22012,0.060648,0.2852,-0.053646,-0.086115,0.58633,0.0022105,-0.011761,0.11775,-0.082462,-0.57081
-0.0016664,0.036182,0.009473,0.064496,0.10238,2.1581,-0.089245,-0.33351,-0.032729,-0.069284,0.034335,-0.18647,0.82336,0.257,0.082882,0.26864,-0.061939,-0.15702,0.54231,-0.019631,-0.011382,0.13598,0.08513,-0.55721
0.0026816,0.036329,0.012204,0.056568,0.034781,1.9891,-0.12716,-0.25442,-0.033627,-0.06071,0.032246,-0.24689,0.8673,0.28066,0.082609,0.24661,-0.06878,-0.21696,0.47005,-0.039584,-0.015206,0.13699,0.24969,-0.50656
0.0081566,0.03311,0.013327,0.052484,-0.029314,1.6632,-0.21887,-0.18048,-0.032274,-0.04759,0.027961,-0.31913,0.90617,0.27809,0.061882,0.22244,-0.075446,-0.2619,0.37611,-0.053523,-0.020006,0.1153,0.39279,-0.41033
0.010763,0.027772,0.014825,0.05138,-0.073844,1.1918,-0.37549,-0.11174,-0.026854,-0.033206,0.024113,-0.40242,0.92384,0.24715,0.029487,0.20016,-0.082792,-0.29095,0.26756,-0.061617,-0.021578,0.076029,0.50021,-0.27503
0.0089673,0.023328,0.017262,0.050558,-0.079525,0.66113,-0.57282,-0.041745,-0.018574,-0.021046,0.02285,-0.49132,0.89691,0.19985,-0.0014354,0.18149,-0.08979,-0.30152,0.15131,-0.067748,-0.016849,0.035051,0.56457,-0.1251
0.0044763,0.02219,0.019072,0.047517,-0.029781,0.18462,-0.75255,0.03655,-0.011185,-0.012819,0.024497,-0.57703,0.80759,0.15523,-0.018257,0.16417,-0.093344,-0.28561,0.039074,-0.075431,-0.0050527,0.010882,0.58374,0.0069841
0.00039433,0.024317,0.018035,0.041745,0.081734,-0.16327,-0.84883,0.12497,-0.0083144,-0.0083647,0.027949,-0.65125,0.65788,0.12704,-0.013573,0.14362,-0.089638,-0.23207,-0.050422,-0.083531,0.012349,0.013471,0.55779,0.097446
-0.0016056,0.027247,0.013734,0.034845,0.24469,-0.38041,-0.82531,0.2186,-0.010677,-0.0067457,0.032269,-0.70937,0.47387,0.11521,0.012763,0.11686,-0.076276,-0.13587,-0.099169,-0.085764,0.0324,0.038412,0.48828,0.14305
-0.0025939,0.027945,0.0087412,0.028919,0.42945,-0.51832,-0.69717,0.30956,-0.015457,-0.0067778,0.037903,-0.75001,0.29531,0.10685,0.054987,0.085062,-0.053997,-0.0085941,-0.10415,-0.075281,0.051338,0.070981,0.38115,0.15945
-0.0050114,0.024999,0.0072368,0.024564,0.59135,-0.63442,-0.52143,0.3926,-0.018402,-0.0065561,0.046264,-0.77174,0.15608,0.085916,0.10458,0.052015,-0.027,0.11921,-0.085016,-0.051243,0.065231,0.096593,0.24986,0.16799
-0.0099286,0.019503,0.011947,0.020262,0.68402,-0.758,-0.36081,0.46713,-0.016918,-0.0033175,0.057999,-0.77047,0.068694,0.044664,0.15288,0.019755,-0.0016268,0.20891,-0.074628,-0.021843,0.071018,0.1094,0.11369,0.18161
-0.015589,0.014044,0.021832,0.01379,0.67859,-0.89258,-0.24613,0.53288,-0.011619,0.0050693,0.07148,-0.74111,0.023046,-0.010206,0.19191,-0.014203,0.016132,0.23382,-0.096003,-0.00039564,0.067997,0.1129,-0.0098906,0.19993
-0.018746,0.010685,0.032473,0.004521,0.57925,-1.0411,-0.16293,0.58209,-0.0052092,0.017782,0.082977,-0.68271,-0.0017417,-0.059993,0.21443,-0.05465,0.023227,0.19565,-0.14326,0.0033584,0.05882,0.11347,-0.11399,0.21509
-0.01764,0.0096094,0.038943,-0.0054331,0.42313,-1.2213,-0.069776,0.59537,6.411e-005,0.030404,0.088568,-0.60296,-0.022672,-0.083175,0.21469,-0.10267,0.020952,0.12496,-0.18353,-0.0098493,0.048706,0.113,-0.20464,0.22119
-0.01379,0.0094182,0.038969,-0.01243,0.26071,-1.4538,0.067661,0.54658,0.0040275,0.037518,0.086373,-0.51704,-0.046113,-0.066749,0.1907,-0.15126,0.014209,0.063352,-0.18094,-0.029442,0.042706,0.10676,-0.2937,0.21892
-0.010814,0.0087178,0.034021,-0.014036,0.12708,-1.7351,0.25267,0.416,0.0079883,0.036928,0.077414,-0.44042,-0.071185,-0.014718,0.14621,-0.18751,0.0087507,0.038522,-0.12521,-0.04294,0.042581,0.08709,-0.38707,0.21291
-0.011262,0.0075027,0.027765,-0.011009,0.023804,-2.0247,0.45893,0.20388,0.012828,0.031844,0.064552,-0.38025,-0.096917,0.050487,0.090549,-0.20094,0.0078426,0.048978,-0.042675,-0.044931,0.04565,0.0491,-0.47755,0.20612
-0.01439,0.0070964,0.023399,-0.0067774,-0.074633,-2.2643,0.65081,-0.064906,0.017841,0.028622,0.050503,-0.33207,-0.12528,0.096051,0.035728,-0.19209,0.010421,0.068512,0.019026,-0.039978,0.04667,-0.0060921,-0.54794,0.19758
-0.016936,0.008738,0.022034,-0.0047898,-0.1944,-2.4152,0.80266,-0.34912,0.021461,0.03161,0.036607,-0.28477,-0.15803,0.094739,-0.007494,-0.17414,0.012052,0.066176,0.021441,-0.037563,0.041497,-0.071504,-0.58153,0.18507
-0.016127,0.012171,0.022993,-0.005983,-0.33688,-2.4835,0.90205,-0.60707,0.023014,0.039425,0.023162,-0.22996,-0.19217,0.041487,-0.032082,-0.16535,0.0080942,0.026811,-0.040799,-0.043866,0.029853,-0.13598,-0.57175,0.16932
-0.012079,0.015605,0.025188,-0.0085008,-0.47502,-2.5142,0.94024,-0.81016,0.0236,0.045924,0.010627,-0.1682,-0.21991,-0.040172,-0.034918,-0.17746,-0.0030803,-0.041649,-0.1377,-0.057343,0.015264,-0.18587,-0.52435,0.15534
-0.0074712,0.017114,0.028034,-0.0097756,-0.57409,-2.557,0.90557,-0.94639,0.025074,0.0451,9.1448e-005,-0.10698,-0.23474,-0.10888,-0.015983,-0.20808,-0.018994,-0.11672,-0.22196,-0.071135,0.0024985,-0.20753,-0.45258,0.14954
-0.0049934,0.016185,0.031291,-0.0090092,-0.61918,-2.6339,0.79083,-1.0145,0.028083,0.03581,-0.007809,-0.052287,-0.23885,-0.12946,0.021713,-0.24285,-0.034622,-0.17684,-0.2536,-0.079265,-0.0053105,-0.19219,-0.37097,0.15549
-0.0051264,0.013965,0.034476,-0.0078592,-0.62651,-2.728,0.6089,-1.0162,0.031127,0.022549,-0.014613,-0.0012519,-0.24541,-0.095148,0.071306,-0.26552,-0.045295,-0.21204,-0.21696,-0.080826,-0.0078183,-0.14216,-0.29176,0.17178
-0.0062282,0.012032,0.03682,-0.0088931,-0.62988,-2.8014,0.39851,-0.95398,0.031739,0.01197,-0.024348,0.0573,-0.27275,-0.032129,0.12207,-0.26899,-0.048979,-0.22445,-0.12379,-0.079073,-0.0065517,-0.07364,-0.22348,0.19261
-0.0065306,0.010924,0.037905,-0.013383,-0.65455,-2.8226,0.20851,-0.83543,0.028806,0.0082309,-0.041205,0.13423,-0.3332,0.017691,0.16178,-0.25934,-0.046826,-0.22234,-0.0050415,-0.077359,-0.0032869,-0.011755,-0.16856,0.20999
-0.0058765,0.0097897,0.038179,-0.020423,-0.69965,-2.7863,0.069179,-0.67882,0.023837,0.01069,-0.065773,0.23032,-0.42384,0.023447,0.18071,-0.25061,-0.042238,-0.21473,0.10259,-0.076322,0.00072375,0.02157,-0.12074,0.21591
-0.00553,0.0074031,0.038611,-0.027922,-0.74155,-2.7133,-0.025918,-0.51186,0.019797,0.01514,-0.09292,0.33357,-0.52562,-0.018001,0.17478,-0.25452,-0.039357,-0.20989,0.16955,-0.074791,0.0043635,0.019777,-0.066742,0.2043
-0.0064749,0.0034523,0.039726,-0.034269,-0.75232,-2.6366,-0.10921,-0.36232,0.018367,0.016984,-0.11378,0.426,-0.61199,-0.086423,0.14538,-0.2728,-0.041643,-0.21535,0.18177,-0.072839,0.0060891,-0.0050665,0.0041739,0.17332
-0.0080907,-0.0011021,0.041036,-0.039092,-0.71712,-2.5819,-0.20521,-0.24556,0.0181,0.013899,-0.12105,0.49487,-0.66199,-0.15713,0.096657,-0.29739,-0.050702,-0.23568,0.14197,-0.073304,0.0042505,-0.031185,0.087188,0.12694
-0.0085873,-0.0047978,0.041525,-0.04273,-0.63889,-2.5545,-0.30107,-0.1576,0.015384,0.0066113,-0.11383,0.53942,-0.66901,-0.21677,0.03322,-0.31746,-0.065481,-0.26786,0.064379,-0.0798,-0.0017831,-0.042259,0.1563,0.074099
-0.0067419,-0.0066988,0.040776,-0.045368,-0.53105,-2.5374,-0.34932,-0.078843,0.0077514,-0.0019728,-0.097779,0.56849,-0.6394,-0.26296,-0.038989,-0.32717,-0.082198,-0.29885,-0.033224,-0.092877,-0.010839,-0.037777,0.17475,0.024661
-0.0032087,-0.0067705,0.039551,-0.046956,-0.40791,-2.5011,-0.30521,0.013649,-0.0031665,-0.0083419,-0.080416,0.59152,-0.58284,-0.29112,-0.10965,-0.32799,-0.095455,-0.3102,-0.13482,-0.10808,-0.020513,-0.031109,0.11789,-0.01577
-0.00014245,-0.005546,0.039119,-0.047878,-0.28042,-2.4215,-0.17109,0.13325,-0.011748,-0.0099114,-0.065221,0.61104,-0.50255,-0.28429,-0.163,-0.32473,-0.10048,-0.289,-0.22656,-0.11824,-0.028864,-0.037489,-0.0064802,-0.048236
0.00049308,-0.0037232,0.039865,-0.049303,-0.15749,-2.2954,-0.010712,0.27771,-0.011906,-0.0060766,-0.049614,0.62247,-0.3944,-0.21939,-0.18277,-0.32017,-0.095567,-0.23857,-0.29533,-0.11861,-0.035855,-0.061951,-0.1559,-0.077954
-0.0016265,-0.002137,0.040562,-0.052441,-0.047601,-2.1436,0.082123,0.43226,-0.0014872,0.0016181,-0.028526,0.6208,-0.25626,-0.087783,-0.16193,-0.31439,-0.083411,-0.18026,-0.33063,-0.11082,-0.043255,-0.096624,-0.27222,-0.10874
-0.0051964,-0.001823,0.039224,-0.057223,0.042516,-1.9991,0.03974,0.578,0.015918,0.01048,-0.00033983,0.60728,-0.10003,0.086953,-0.11115,-0.30974,-0.070164,-0.14347,-0.33074,-0.10232,-0.052993,-0.12851,-0.31016,-0.13875
-0.008546,-0.003624,0.034996,-0.061866,0.11061,-1.8893,-0.13995,0.69988,0.033329,0.018448,0.030047,0.58974,0.044735,0.25111,-0.057755,-0.3159,-0.062481,-0.14878,-0.30782,-0.10149,-0.065249,-0.15014,-0.258,-0.16064
-0.010863,-0.0073906,0.029453,-0.064128,0.15946,-1.8227,-0.39892,0.79084,0.045121,0.025404,0.053675,0.57601,0.14131,0.34556,-0.033191,-0.34761,-0.063991,-0.19458,-0.28434,-0.11212,-0.077821,-0.16391,-0.14029,-0.16556
-0.01233,-0.011605,0.025932,-0.063349,0.1944,-1.788,-0.66053,0.85325,0.050476,0.032788,0.063243,0.56631,0.16522,0.33761,-0.054845,-0.41366,-0.073307,-0.25547,-0.27963,-0.13136,-0.087303,-0.17714,-0.0039079,-0.14732
-0.013345,-0.014172,0.027103,-0.061333,0.22059,-1.7581,-0.86993,0.89959,0.052904,0.041526,0.057305,0.55177,0.11977,0.23867,-0.1142,-0.50442,-0.084899,-0.29389,-0.29513,-0.15203,-0.091174,-0.1933,0.10333,-0.10359
-0.013898,-0.014043,0.032581,-0.060918,0.24298,-1.6901,-1.0016,0.95246,0.056487,0.049974,0.039994,0.52115,0.036841,0.095815,-0.18014,-0.58941,-0.092338,-0.27871,-0.31059,-0.16688,-0.089238,-0.20788,0.15223,-0.034349
-0.013819,-0.012297,0.038601,-0.063277,0.26832,-1.5222,-1.0371,1.0408,0.062148,0.053912,0.01749,0.47031,-0.038382,-0.035959,-0.21651,-0.62995,-0.091825,-0.20102,-0.29669,-0.17148,-0.08335,-0.21213,0.14379,0.059973
-0.013469,-0.01149,0.040328,-0.066327,0.30549,-1.1798,-0.94556,1.1903,0.067035,0.049113,-0.0052239,0.40671,-0.069043,-0.12217,-0.20305,-0.60032,-0.083775,-0.079776,-0.23642,-0.1643,-0.075644,-0.20069,0.10867,0.17788
-0.013798,-0.013551,0.035267,-0.065899,0.3622,-0.60183,-0.69718,1.41,0.067306,0.034633,-0.025083,0.34489,-0.041545,-0.16062,-0.14595,-0.50285,-0.071778,0.04513,-0.13929,-0.14569,-0.066683,-0.17575,0.092827,0.31399
-0.015347,-0.017917,0.025248,-0.058899,0.43992,0.21997,-0.30318,1.6847,0.061655,0.014134,-0.039995,0.29663,0.033501,-0.17246,-0.071704,-0.36594,-0.060075,0.12913,-0.036774,-0.11764,-0.055052,-0.14404,0.13334,0.45681
-0.017172,-0.02158,0.015351,-0.045861,0.53196,1.2159,0.1564,1.9784,0.052442,-0.0059771,-0.048479,0.26345,0.13161,-0.18229,-0.0092365,-0.22654,-0.05148,0.142,0.038525,-0.084512,-0.038846,-0.11021,0.23553,0.59018
-0.017087,-0.021172,0.010476,-0.030759,0.62715,2.2517,0.5533,2.2505,0.043597,-0.020056,-0.050716,0.23719,0.22695,-0.20202,0.026686,-0.11036,-0.046786,0.081532,0.07446,-0.052758,-0.017975,-0.073083,0.36612,0.69911
-0.013501,-0.015468,0.012061,-0.018266,0.71673,3.1795,0.7759,2.4727,0.037378,-0.025542,-0.049399,0.20722,0.29941,-0.22779,0.040022,-0.023679,-0.04534,-0.024946,0.085227,-0.028377,0.0046848,-0.028385,0.4696,0.77655
-0.0073153,-0.0063743,0.017394,-0.010771,0.79908,3.8932,0.79274,2.6364,0.032938,-0.022567,-0.048465,0.16837,0.33551,-0.24794,0.044861,0.040093,-0.045787,-0.1336,0.097087,-0.013405,0.024505,0.025005,0.50009,0.82607
-0.0018098,0.0022967,0.021914,-0.0074704,0.87844,4.3558,0.66567,2.744,0.02783,-0.012008,-0.049985,0.12344,0.32737,-0.25334,0.052064,0.087933,-0.046448,-0.20627,0.12543,-0.0044617,0.038057,0.081192,0.4488,0.8574
-0.00014637,0.0072434,0.022579,-0.0059048,0.95885,4.5868,0.50215,2.7938,0.020812,0.0054193,-0.051919,0.079686,0.27384,-0.24173,0.061644,0.12085,-0.045534,-0.22948,0.1616,0.0049112,0.045522,0.12941,0.34829,0.87753
-0.0024909,0.0075325,0.019708,-0.0042996,1.0385,4.6325,0.38455,2.7721,0.013173,0.027803,-0.049276,0.042898,0.18291,-0.21501,0.065251,0.13797,-0.041575,-0.21803,0.18009,0.019719,0.050472,0.16015,0.25051,0.88429
-0.0055427,0.0047804,0.01608,-0.0026903,1.1087,4.5475,0.32876,2.6612,0.007376,0.049946,-0.038277,0.014069,0.071364,-0.1745,0.054767,0.14441,-0.033973,-0.20021,0.16014,0.040442,0.056951,0.17002,0.19365,0.86848
-0.005276,0.0018031,0.014342,-0.002175,1.1587,4.3935,0.29549,2.4582,0.004394,0.063504,-0.020093,-0.0098212,-0.040612,-0.11996,0.02919,0.15315,-0.02318,-0.19556,0.10406,0.063717,0.066085,0.16193,0.18051,0.82361
-0.00064973,0.00077581,0.014913,-0.0033118,1.1825,4.2371,0.23414,2.1893,0.0023922,0.060669,-0.00069022,-0.032611,-0.13728,-0.053278,-0.0049559,0.1775,-0.01032,-0.20245,0.037073,0.08562,0.074989,0.1415,0.18165,0.75549
0.0051347,0.0020574,0.015885,-0.0051935,1.1831,4.1306,0.11929,1.9071,-0.0019029,0.039357,0.013429,-0.056395,-0.21201,0.017666,-0.038453,0.22087,0.0033915,-0.2055,-0.011198,0.10429,0.078923,0.11367,0.15828,0.68256
0.0072167,0.0043094,0.014644,-0.0058752,1.1717,4.0848,-0.042887,1.6704,-0.010367,0.00583,0.020188,-0.081162,-0.26567,0.08002,-0.064738,0.27368,0.016826,-0.19568,-0.028296,0.11972,0.075001,0.082127,0.086309,0.62502
0.0033851,0.0057626,0.0097999,-0.0035758,1.163,4.0633,-0.22986,1.5199,-0.021756,-0.027833,0.023438,-0.10601,-0.30129,0.12194,-0.082136,0.32073,0.028676,-0.18433,-0.025936,0.13171,0.064493,0.05105,-0.034395,0.59055
-0.0036973,0.0057621,0.0020723,0.0024376,1.1693,4.0118,-0.41596,1.4639,-0.032593,-0.050094,0.029725,-0.13035,-0.32009,0.13869,-0.092654,0.35294,0.037393,-0.19654,-0.027184,0.13859,0.051992,0.026248,-0.18773,0.56759
-0.0083956,0.0054473,-0.0061799,0.011853,1.197,3.9035,-0.57248,1.4804,-0.039764,-0.0557,0.04303,-0.15424,-0.32202,0.13389,-0.099136,0.37351,0.041932,-0.24792,-0.045335,0.13848,0.042264,0.01368,-0.35421,0.53157
-0.0065449,0.0069088,-0.012268,0.023854,1.2466,3.7587,-0.66408,1.5322,-0.042492,-0.046907,0.06183,-0.17768,-0.30846,0.11576,-0.1025,0.39389,0.043024,-0.32464,-0.072705,0.13183,0.03734,0.015963,-0.51569,0.45919
0.001332,0.011303,-0.014525,0.037444,1.3128,3.6165,-0.65653,1.5834,-0.042199,-0.029955,0.080686,-0.20001,-0.28292,0.093051,-0.10014,0.42398,0.043788,-0.38589,-0.088619,0.12258,0.035932,0.029575,-0.64999,0.34028
0.010629,0.017423,-0.013105,0.051227,1.3842,3.484,-0.53714,1.61,-0.040877,-0.010309,0.094709,-0.21965,-0.2484,0.074504,-0.086481,0.46508,0.048653,-0.38941,-0.079161,0.11642,0.03527,0.045285,-0.72645,0.18018
0.016372,0.022145,-0.0098885,0.063133,1.4431,3.312,-0.33184,1.6005,-0.03976,0.0093809,0.10296,-0.23453,-0.20498,0.070017,-0.056545,0.51032,0.060811,-0.32116,-0.051234,0.11729,0.033591,0.052248,-0.71466,-0.005675
0.016878,0.022749,-0.0075197,0.070883,1.4668,3.025,-0.10187,1.5524,-0.039357,0.027649,0.10809,-0.24309,-0.15173,0.088316,-0.011491,0.55007,0.079797,-0.20605,-0.02867,0.1248,0.031269,0.043759,-0.60596,-0.19797
0.014537,0.019421,-0.0079686,0.073341,1.4352,2.5835,0.080655,1.4664,-0.040179,0.041654,0.113,-0.24525,-0.092619,0.12908,0.037694,0.57668,0.10096,-0.091198,-0.033649,0.13446,0.029926,0.021426,-0.4311,-0.37627
0.013455,0.015721,-0.011415,0.071794,1.3406,2.0247,0.16188,1.3449,-0.042812,0.047156,0.11787,-0.24287,-0.040497,0.17544,0.072652,0.58534,0.11741,-0.014887,-0.068945,0.14037,0.030517,-0.0047179,-0.25461,-0.52028
0.016088,0.016249,-0.016144,0.069754,1.195,1.4455,0.1219,1.1928,-0.046983,0.041696,0.12024,-0.23899,-0.0133,0.1966,0.076989,0.57281,0.12343,0.016277,-0.11517,0.13868,0.032117,-0.020465,-0.14231,-0.61418
0.021463,0.0231,-0.019532,0.070839,1.027,0.94228,-0.026923,1.0208,-0.050809,0.027996,0.1177,-0.23601,-0.023095,0.16391,0.047302,0.53763,0.11748,0.027333,-0.1441,0.12981,0.032451,-0.013945,-0.12161,-0.654
0.026088,0.033917,-0.019464,0.076024,0.86942,0.5561,-0.24809,0.8476,-0.051564,0.013721,0.11033,-0.23353,-0.066043,0.071242,-0.0023799,0.48217,0.10315,0.055374,-0.13626,0.11849,0.029673,0.018737,-0.16425,-0.65155
0.026623,0.04333,-0.015284,0.082548,0.74434,0.26271,-0.48461,0.69645,-0.047752,0.0068253,0.10026,-0.22767,-0.12222,-0.056667,-0.047489,0.41392,0.087798,0.12605,-0.089098,0.1117,0.023852,0.071184,-0.2067,-0.62806
0.022299,0.046797,-0.007884,0.085756,0.65381,0.0050078,-0.66024,0.588,-0.040654,0.0099359,0.088999,-0.21278,-0.16687,-0.17708,-0.067723,0.34357,0.079298,0.24089,-0.011701,0.11531,0.016848,0.12843,-0.19441,-0.59936
0.015441,0.04384,0.00078635,0.082707,0.58299,-0.26651,-0.69238,0.53071,-0.033643,0.01854,0.075364,-0.18504,-0.18498,-0.25555,-0.059715,0.2805,0.082285,0.37991,0.085812,0.1307,0.01066,0.17199,-0.11694,-0.56352
0.0098664,0.038095,0.0082834,0.074627,0.51185,-0.57496,-0.52502,0.51633,-0.029649,0.024777,0.056502,-0.1457,-0.1783,-0.28529,-0.038333,0.22957,0.095636,0.51391,0.19729,0.15331,0.0057285,0.18685,-0.008417,-0.50297
0.0083504,0.034209,0.012202,0.065964,0.42715,-0.92049,-0.1695,0.52377,-0.029026,0.0238,0.031374,-0.10124,-0.16001,-0.28373,-0.025388,0.1916,0.11267,0.61777,0.31596,0.17415,0.00075049,0.16828,0.083605,-0.40151
0.010929,0.034239,0.010951,0.060698,0.32745,-1.2859,0.27656,0.52955,-0.029788,0.017454,0.0034523,-0.060126,-0.14281,-0.27,-0.03392,0.16606,0.12439,0.6789,0.42685,0.18412,-0.0057892,0.1256,0.13291,-0.2632
0.015159,0.036517,0.0047975,0.059004,0.21945,-1.6318,0.65634,0.5174,-0.0299,0.012375,-0.020187,-0.028033,-0.13071,-0.2444,-0.059565,0.15264,0.12432,0.69913,0.50609,0.17844,-0.013828,0.079388,0.14499,-0.1166
0.018014,0.037698,-0.0035593,0.057173,0.11039,-1.8922,0.82151,0.48082,-0.02928,0.014382,-0.033112,-0.0050091,-0.12027,-0.19024,-0.085139,0.14978,0.1119,0.69075,0.53086,0.15843,-0.021439,0.051735,0.13926,0.00091539
0.017905,0.035967,-0.0098428,0.05085,0.0027288,-1.9884,0.70392,0.41796,-0.029507,0.023956,-0.033839,0.013365,-0.10771,-0.098038,-0.094556,0.15256,0.092305,0.66941,0.49333,0.12959,-0.026399,0.053442,0.12519,0.06672
0.015333,0.032479,-0.01055,0.038738,-0.10606,-1.865,0.34714,0.3252,-0.031667,0.036287,-0.026735,0.031772,-0.093781,0.010247,-0.085158,0.15331,0.072547,0.64686,0.40772,0.097641,-0.028149,0.076504,0.097818,0.085561
0.011853,0.02988,-0.0053075,0.023596,-0.21985,-1.5262,-0.11977,0.19653,-0.034712,0.045292,-0.018825,0.051205,-0.081879,0.082772,-0.068907,0.14613,0.056845,0.62716,0.30435,0.065893,-0.028296,0.098256,0.056575,0.081366
0.0084361,0.029456,0.0028138,0.0099224,-0.33984,-1.0436,-0.54512,0.030417,-0.036185,0.047936,-0.015019,0.068289,-0.072941,0.070509,-0.061635,0.13183,0.044717,0.60784,0.21449,0.035662,-0.029238,0.0959,0.026014,0.076368
0.0047264,0.029695,0.0096755,0.00055185,-0.46248,-0.5279,-0.81211,-0.16141,-0.034675,0.045519,-0.015377,0.078228,-0.063816,-0.031534,-0.068872,0.11855,0.033064,0.58446,0.1562,0.0085739,-0.03236,0.061718,0.052603,0.075765
-0.00022476,0.027673,0.013369,-0.0049392,-0.57936,-0.08382,-0.86235,-0.35173,-0.031487,0.041554,-0.016226,0.07889,-0.051601,-0.16854,-0.079512,0.1166,0.020186,0.55509,0.12909,-0.01215,-0.037534,0.0076477,0.17367,0.069947
-0.0065085,0.021983,0.015515,-0.0090906,-0.67873,0.22334,-0.68966,-0.50651,-0.029674,0.038626,-0.013905,0.072756,-0.039222,-0.25279,-0.072548,0.13125,0.0080659,0.52215,0.11896,-0.023274,-0.044124,-0.044375,0.38293,0.050092
-0.012619,0.014439,0.019214,-0.014193,-0.74877,0.3726,-0.32884,-0.60135,-0.031211,0.03691,-0.0080259,0.065304,-0.035509,-0.21807,-0.032051,0.15898,0.00091045,0.49111,0.10691,-0.024867,-0.052051,-0.07869,0.6245,0.021739
-0.016203,0.008804,0.025451,-0.02085,-0.78334,0.37295,0.14502,-0.63652,-0.035033,0.035153,-0.0017228,0.061238,-0.048478,-0.063846,0.040674,0.19016,0.0012564,0.46772,0.076884,-0.022221,-0.061512,-0.095906,0.8249,0.0044614
-0.015766,0.0075388,0.031444,-0.02823,-0.78801,0.24889,0.61726,-0.6408,-0.037932,0.032689,0.001109,0.061504,-0.077713,0.14251,0.12656,0.21547,0.0070526,0.45473,0.019683,-0.024085,-0.071703,-0.10917,0.93957,0.019124
-0.011937,0.0094469,0.032836,-0.035078,-0.78181,0.037693,0.95753,-0.66018,-0.03757,0.03043,-0.00081519,0.063223,-0.11299,0.30761,0.1999,0.23096,0.012193,0.44883,-0.066093,-0.037989,-0.080229,-0.13077,0.97663,0.074381
-0.0072319,0.010438,0.027932,-0.040295,-0.79013,-0.20642,1.072,-0.73548,-0.034799,0.029941,-0.0050428,0.06235,-0.14032,0.36887,0.24285,0.23835,0.010032,0.43868,-0.17472,-0.06592,-0.084287,-0.1607,0.97962,0.16243
-0.0044409,0.0069043,0.019962,-0.04292,-0.83058,-0.41402,0.95514,-0.8803,-0.033016,0.031552,-0.0074292,0.056885,-0.14962,0.32809,0.25338,0.24172,-0.0028493,0.4065,-0.29558,-0.10344,-0.082618,-0.18634,0.98682,0.26438
-0.0048272,-0.0011197,0.014895,-0.042269,-0.9002,-0.51561,0.69894,-1.0718,-0.035016,0.033415,-0.0055548,0.048309,-0.13767,0.24126,0.24249,0.244,-0.02514,0.33531,-0.41673,-0.14266,-0.076129,-0.19254,1.0046,0.35859
-0.0074513,-0.0097436,0.016439,-0.03864,-0.97447,-0.46513,0.44135,-1.2605,-0.040168,0.032674,-0.00050894,0.040393,-0.10561,0.17553,0.2243,0.2457,-0.051965,0.22018,-0.52792,-0.17664,-0.066313,-0.17285,1.0175,0.42683
-0.010028,-0.014167,0.022692,-0.033895,-1.0213,-0.25848,0.28331,-1.3949,-0.044518,0.028045,0.0045019,0.036474,-0.055947,0.16519,0.20686,0.2454,-0.07728,0.077133,-0.62117,-0.2019,-0.053037,-0.13302,1.0229,0.45861
-0.01059,-0.012345,0.027666,-0.030897,-1.0211,0.064275,0.23222,-1.4466,-0.043853,0.021618,0.0073405,0.037222,0.0066049,0.19555,0.18955,0.24043,-0.09588,-0.058252,-0.68884,-0.21795,-0.034189,-0.084945,1.0509,0.45597
-0.0087292,-0.0063966,0.026546,-0.031776,-0.9781,0.43599,0.21299,-1.4208,-0.037174,0.018006,0.0088178,0.040404,0.071742,0.22184,0.16714,0.22728,-0.10453,-0.14567,-0.72236,-0.22483,-0.0079232,-0.03738,1.1454,0.4361
-0.0056166,-0.00074378,0.020083,-0.036301,-0.91413,0.79082,0.13674,-1.3466,-0.027624,0.021027,0.011338,0.042649,0.12303,0.20532,0.13604,0.20296,-0.10258,-0.16211,-0.71467,-0.22162,0.024491,0.0086087,1.3156,0.42586
-0.0029991,0.0013026,0.014105,-0.041842,-0.84997,1.0903,-0.025962,-1.2554,-0.020133,0.030332,0.015518,0.041901,0.14332,0.13993,0.098054,0.16773,-0.092209,-0.11831,-0.66597,-0.20726,0.05804,0.056388,1.5017,0.44628
-0.0020272,-0.00029559,0.014428,-0.045072,-0.78972,1.3338,-0.22212,-1.162,-0.017758,0.040877,0.018171,0.038922,0.12309,0.052924,0.05956,0.12715,-0.077899,-0.05804,-0.58797,-0.18292,0.08635,0.10644,1.5874,0.49566
-0.0027221,-0.0029309,0.021599,-0.044032,-0.72124,1.547,-0.35664,-1.0617,-0.019679,0.046054,0.014055,0.036916,0.06508,-0.017051,0.027625,0.090529,-0.064764,-0.038732,-0.50153,-0.15344,0.10503,0.1518,1.4594,0.54518
-0.0042383,-0.0038846,0.030159,-0.038917,-0.63106,1.756,-0.36117,-0.945,-0.02232,0.042357,0.00038666,0.039577,-0.018199,-0.046087,0.0062503,0.065373,-0.05648,-0.10275,-0.4272,-0.12585,0.11312,0.18037,1.0719,0.55424
-0.0054888,-0.0024556,0.033156,-0.031229,-0.5198,1.962,-0.23873,-0.81509,-0.022447,0.032011,-0.019751,0.048722,-0.11169,-0.037349,-0.0048409,0.051669,-0.054072,-0.25433,-0.37396,-0.10556,0.11188,0.18272,0.47409,0.49645
-0.0056367,-2.1858e-005,0.028,-0.02236,-0.40385,2.1355,-0.05519,-0.69504,-0.019611,0.021413,-0.038421,0.062904,-0.20368,-0.014007,-0.0083885,0.04135,-0.056198,-0.45353,-0.33324,-0.092868,0.10267,0.15929,-0.21338,0.37707
-0.004309,0.0016754,0.018501,-0.012948,-0.3024,2.2334,0.10963,-0.61716,-0.016059,0.016475,-0.048015,0.077809,-0.28694,-0.0012181,-0.0062717,0.024575,-0.060149,-0.62979,-0.28222,-0.082365,0.086311,0.12162,-0.84726,0.22813
-0.0016909,0.0022479,0.011362,-0.0033184,-0.22264,2.228,0.21198,-0.6031,-0.014471,0.018339,-0.046666,0.088301,-0.35674,-0.011232,0.0026753,-0.0017399,-0.062325,-0.70914,-0.19463,-0.065993,0.064439,0.086003,-1.3031,0.085836
0.001427,0.0028285,0.010289,0.0057674,-0.15729,2.127,0.26215,-0.64993,-0.015576,0.022596,-0.039545,0.090997,-0.40945,-0.040561,0.021586,-0.030509,-0.058175,-0.64489,-0.054186,-0.037747,0.040731,0.063833,-1.4959,-0.031194
0.0038078,0.0047026,0.013002,0.013,-0.096367,1.9679,0.30501,-0.73312,-0.017578,0.022392,-0.034925,0.085862,-0.44353,-0.077925,0.051354,-0.049785,-0.042966,-0.44036,0.13512,0.0029186,0.020157,0.055149,-1.3912,-0.12588
0.0042751,0.0078212,0.013688,0.017171,-0.041156,1.7926,0.38332,-0.82344,-0.017624,0.013029,-0.038102,0.075854,-0.46103,-0.11452,0.086291,-0.05275,-0.014419,-0.15354,0.3456,0.050772,0.0063112,0.049789,-1.0208,-0.20845
0.0023533,0.010632,0.0085359,0.017961,-0.0057752,1.6198,0.51038,-0.90387,-0.013843,-0.0051937,-0.047918,0.064856,-0.46709,-0.14847,0.11382,-0.043878,0.024111,0.12171,0.53206,0.097296,-0.00079182,0.035228,-0.49367,-0.27901
-0.0014218,0.011376,-0.00072087,0.016177,-0.0041801,1.4367,0.6658,-0.97377,-0.0062848,-0.027501,-0.058293,0.055337,-0.46701,-0.18131,0.12013,-0.035763,0.06312,0.29358,0.64734,0.13424,-0.0042339,0.0055555,0.025166,-0.32293
-0.0057532,0.0096497,-0.0083605,0.013357,-0.035,1.2123,0.81092,-1.039,0.003764,-0.047675,-0.063083,0.04733,-0.46329,-0.21099,0.098857,-0.039258,0.091049,0.31332,0.66303,0.15654,-0.0072751,-0.034371,0.37609,-0.32215
-0.0091209,0.0068304,-0.0097747,0.011138,-0.079731,0.92024,0.91022,-1.0998,0.015164,-0.061237,-0.060194,0.039277,-0.4546,-0.22815,0.056467,-0.055444,0.10104,0.19711,0.58564,0.16369,-0.010573,-0.071735,0.48082,-0.27086
-0.01017,0.0050039,-0.0054541,0.010839,-0.11742,0.55418,0.94617,-1.1476,0.027732,-0.066817,-0.052048,0.029888,-0.43657,-0.21956,0.0093157,-0.07618,0.095327,0.014352,0.45755,0.15956,-0.012025,-0.092788,0.37922,-0.18162
-0.0078984,0.0053545,-0.00040737,0.013305,-0.14286,0.12735,0.92222,-1.1755,0.041958,-0.065355,-0.042899,0.019464,-0.40314,-0.17715,-0.0266,-0.092213,0.083348,-0.15283,0.33836,0.15069,-0.0092658,-0.089188,0.1941,-0.078123
-0.0020024,0.0073839,0.00025419,0.0188,-0.17078,-0.3373,0.85596,-1.1891,0.058132,-0.058369,-0.035897,0.0098403,-0.34856,-0.10665,-0.045963,-0.1013,0.074774,-0.25447,0.27448,0.14353,-0.0023746,-0.060515,0.044959,0.017308
0.0064871,0.0095582,-0.0044579,0.026806,-0.22129,-0.81631,0.76842,-1.2081,0.075788,-0.046879,-0.032258,0.0032488,-0.27149,-0.029362,-0.056667,-0.10942,0.072795,-0.29391,0.27457,0.14149,0.0057225,-0.013246,-0.026516,0.090546
0.014891,0.010755,-0.010949,0.035904,-0.29929,-1.2895,0.67567,-1.2532,0.093884,-0.03174,-0.032401,0.0011322,-0.18121,0.025206,-0.072489,-0.1248,0.072937,-0.31337,0.30698,0.14338,0.011491,0.041663,-0.064558,0.1336
0.019765,0.011241,-0.014417,0.044089,-0.3875,-1.74,0.58606,-1.3307,0.11145,-0.014783,-0.037031,0.0035347,-0.10157,0.032913,-0.10164,-0.15093,0.067832,-0.35681,0.32181,0.14407,0.013579,0.091192,-0.14128,0.13991
0.018979,0.012371,-0.012862,0.049673,-0.46019,-2.1532,0.50231,-1.4262,0.12806,0.00065347,-0.046678,0.008996,-0.066095,-0.012422,-0.1399,-0.1847,0.053537,-0.43774,0.28334,0.13747,0.013733,0.12305,-0.28566,0.10482
0.013539,0.015276,-0.0082965,0.052305,-0.50521,-2.5139,0.42476,-1.5145,0.14365,0.010734,-0.060256,0.014697,-0.10191,-0.093984,-0.17309,-0.22009,0.032212,-0.53334,0.19103,0.12009,0.015265,0.12949,-0.45889,0.031776
0.0073637,0.019693,-0.0044703,0.053255,-0.5331,-2.8008,0.35285,-1.575,0.15772,0.013224,-0.074497,0.017062,-0.21034,-0.17717,-0.18593,-0.25277,0.0097301,-0.60478,0.076008,0.093249,0.020637,0.11119,-0.5913,-0.062815
0.0046191,0.02392,-0.0034601,0.054392,-0.56337,-2.9802,0.28488,-1.6017,0.16844,0.0090065,-0.085325,0.013198,-0.35884,-0.22279,-0.17016,-0.28099,-0.0088467,-0.62505,-0.022181,0.062673,0.030265,0.078482,-0.64282,-0.15361
0.0065355,0.026006,-0.0041976,0.056377,-0.59994,-3.0093,0.21875,-1.6001,0.17271,0.0015097,-0.090218,0.0028135,-0.49409,-0.2031,-0.12683,-0.30308,-0.021808,-0.59358,-0.080746,0.035797,0.043104,0.047741,-0.63296,-0.21886
0.010429,0.025225,-0.0039922,0.057563,-0.61887,-2.853,0.15518,-1.5776,0.1673,-0.0058465,-0.089485,-0.010925,-0.57149,-0.11473,-0.063323,-0.31583,-0.029873,-0.5307,-0.1036,0.018237,0.057788,0.033687,-0.61848,-0.25245
0.011996,0.02267,-0.0013752,0.054925,-0.58224,-2.5091,0.10049,-1.5353,0.15085,-0.012325,-0.085299,-0.023017,-0.58142,0.016507,0.010385,-0.31662,-0.033764,-0.46098,-0.11274,0.011334,0.072798,0.041663,-0.64379,-0.26568
0.0090455,0.020449,0.002406,0.04673,-0.46887,-2.0265,0.06395,-1.4703,0.12521,-0.020436,-0.07938,-0.030323,-0.55258,0.14297,0.083443,-0.30751,-0.033143,-0.40015,-0.13135,0.011863,0.085571,0.064819,-0.70953,-0.27666
0.0034106,0.020114,0.0044848,0.03485,-0.29703,-1.5008,0.048806,-1.3821,0.094909,-0.033733,-0.07144,-0.034552,-0.52876,0.21452,0.14474,-0.29596,-0.027809,-0.35336,-0.17224,0.013883,0.092117,0.088447,-0.78306,-0.29518
-0.00067975,0.021516,0.0029175,0.024404,-0.11995,-1.0443,0.043463,-1.2782,0.064972,-0.053417,-0.059847,-0.041557,-0.53588,0.2032,0.18529,-0.29026,-0.019373,-0.32073,-0.23705,0.011683,0.088576,0.099076,-0.83543,-0.31432
-0.00031026,0.022969,-0.0016346,0.020443,0.0033326,-0.74258,0.022537,-1.172,0.038606,-0.076339,-0.043933,-0.056714,-0.56368,0.11997,0.20249,-0.29275,-0.011117,-0.30207,-0.3211,0.0023995,0.074205,0.092648,-0.86821,-0.31514
0.0036443,0.022572,-0.0064264,0.02408,0.04035,-0.62034,-0.038732,-1.0755,0.016535,-0.095954,-0.02587,-0.079887,-0.57456,0.011073,0.20254,-0.29737,-0.0056222,-0.29579,-0.41581,-0.012739,0.053354,0.076512,-0.90722,-0.28101
0.0074064,0.019688,-0.008694,0.031319,-0.0015237,-0.63317,-0.14516,-0.99141,-0.0016957,-0.10557,-0.010255,-0.10452,-0.53086,-0.067593,0.19695,-0.29431,-0.0021812,-0.29539,-0.50643,-0.028897,0.03423,0.064059,-0.97223,-0.2113
0.0075933,0.015488,-0.0074257,0.035791,-0.086609,-0.68997,-0.27271,-0.91148,-0.015973,-0.10174,-0.0014147,-0.1222,-0.41873,-0.083455,0.19394,-0.27796,0.0034227,-0.2894,-0.57067,-0.039591,0.024749,0.065693,-1.0526,-0.12499
0.0039103,0.012199,-0.0035677,0.033281,-0.1748,-0.69391,-0.37917,-0.822,-0.025329,-0.08579,-0.00037337,-0.12918,-0.25267,-0.045353,0.19129,-0.25125,0.016071,-0.26715,-0.58464,-0.039463,0.028344,0.082227,-1.1112,-0.051899
-0.00098703,0.011613,0.0010825,0.024396,-0.23968,-0.58287,-0.42856,-0.71385,-0.029445,-0.062922,-0.0038957,-0.12923,-0.061885,0.0067698,0.17725,-0.22267,0.037393,-0.22629,-0.53574,-0.026848,0.042724,0.1049,-1.1122,-0.017038
-0.0039935,0.013878,0.0050818,0.013413,-0.2719,-0.35217,-0.41225,-0.59105,-0.030228,-0.039561,-0.0064622,-0.13029,0.12696,0.033136,0.14032,-0.19903,0.063876,-0.1753,-0.43351,-0.0048829,0.062128,0.12156,-1.0489,-0.028331
-0.003973,0.017356,0.0077739,0.0046238,-0.27259,-0.052235,-0.35221,-0.47145,-0.031404,-0.020522,-0.0037666,-0.13793,0.29752,0.022544,0.080557,-0.18083,0.088611,-0.12793,-0.30869,0.019829,0.080823,0.1245,-0.9472,-0.07527
-0.0021133,0.019588,0.0090814,-0.00059153,-0.24695,0.23552,-0.28637,-0.37764,-0.035898,-0.0072255,0.0048468,-0.15132,0.44091,-0.0035024,0.012998,-0.16371,0.10536,-0.093428,-0.19866,0.040653,0.095099,0.11459,-0.84405,-0.13875
-0.0003916,0.018717,0.0092982,-0.0038358,-0.20341,0.43389,-0.24823,-0.32209,-0.04322,0.0021759,0.016647,-0.16517,0.55077,-0.012475,-0.040075,-0.14393,0.11183,-0.070243,-0.12784,0.054414,0.10291,0.099445,-0.75969,-0.20454
4.8568e-005,0.014465,0.0091376,-0.0075153,-0.15502,0.50291,-0.25399,-0.2959,-0.049484,0.010826,0.027924,-0.17533,0.62361,0.010926,-0.062422,-0.12223,0.10975,-0.04839,-0.09599,0.062285,0.10272,0.087514,-0.68629,-0.27047
-0.00083646,0.0081126,0.0096691,-0.012727,-0.1168,0.45845,-0.30031,-0.26936,-0.050539,0.020441,0.036429,-0.18263,0.66341,0.053247,-0.052504,-0.10265,0.10217,-0.01887,-0.082114,0.067123,0.093413,0.082644,-0.60036,-0.34241
-0.0028491,0.0015844,0.011764,-0.018867,-0.097612,0.36786,-0.36709,-0.20574,-0.04575,0.029639,0.042116,-0.19143,0.68315,0.085404,-0.021441,-0.088388,0.090566,0.017336,-0.060662,0.069316,0.075598,0.082627,-0.48651,-0.42325
-0.0061718,-0.0036899,0.015298,-0.024654,-0.092765,0.32173,-0.41999,-0.080097,-0.039086,0.034642,0.046124,-0.20476,0.69947,0.087551,0.016985,-0.079217,0.074287,0.048041,-0.018946,0.06499,0.052548,0.082106,-0.35203,-0.50494
-0.010912,-0.0073491,0.018864,-0.029143,-0.085125,0.39157,-0.41484,0.10848,-0.03633,0.032001,0.049342,-0.22093,0.72363,0.064364,0.05564,-0.072737,0.052506,0.057704,0.035322,0.048768,0.029289,0.077039,-0.22133,-0.57087
-0.016182,-0.0097925,0.020466,-0.031822,-0.056648,0.59267,-0.3105,0.33855,-0.040565,0.021293,0.051777,-0.23475,0.75651,0.039382,0.095637,-0.067782,0.026543,0.038453,0.079934,0.019191,0.010041,0.067301,-0.11668,-0.60714
-0.020033,-0.01137,0.018819,-0.032232,-0.0028755,0.87207,-0.090076,0.57922,-0.049646,0.005541,0.052838,-0.24198,0.79074,0.035267,0.14038,-0.066076,0.00020909,-0.0043037,0.092301,-0.017981,-0.0039495,0.055925,-0.041747,-0.61301
-0.020708,-0.011864,0.014307,-0.030015,0.060962,1.1301,0.22126,0.80463,-0.057766,-0.01105,0.05187,-0.2425,0.81658,0.057335,0.18846,-0.070427,-0.022183,-0.056,0.062232,-0.052061,-0.014354,0.046247,0.0197,-0.60146
-0.018144,-0.01082,0.0088671,-0.025595,0.10826,1.2658,0.5588,1.0015,-0.059807,-0.026029,0.0485,-0.23945,0.82507,0.092766,0.23187,-0.081372,-0.038275,-0.10307,-0.0037043,-0.074081,-0.023606,0.039587,0.090906,-0.58927
-0.014205,-0.008452,0.0049228,-0.02069,0.11879,1.2225,0.84719,1.1676,-0.054962,-0.039483,0.042932,-0.23564,0.8069,0.12346,0.26083,-0.0956,-0.04835,-0.14027,-0.086786,-0.082569,-0.032625,0.035034,0.1865,-0.5853
-0.011221,-0.0062074,0.0040929,-0.017782,0.09278,1.0113,1.0409,1.3062,-0.046848,-0.051716,0.036446,-0.23103,0.75133,0.13978,0.27016,-0.1076,-0.053819,-0.16837,-0.16454,-0.083733,-0.040398,0.030706,0.3053,-0.5866
-0.010157,-0.0061655,0.0064808,-0.018706,0.050276,0.70005,1.1478,1.4203,-0.040281,-0.059922,0.031635,-0.22371,0.65015,0.14368,0.26143,-0.11285,-0.055142,-0.18412,-0.21692,-0.085978,-0.045548,0.024647,0.43439,-0.58499
-0.010129,-0.0094822,0.010843,-0.023455,0.015325,0.37809,1.2152,1.5096,-0.0375,-0.057548,0.031582,-0.21293,0.50589,0.14053,0.23886,-0.10998,-0.051278,-0.17196,-0.22812,-0.093325,-0.048213,0.014453,0.55885,-0.57699
-0.0097002,-0.015136,0.015403,-0.030296,-0.0034272,0.11253,1.2843,1.5668,-0.036841,-0.038203,0.03784,-0.20091,0.33719,0.12901,0.20312,-0.10044,-0.041145,-0.10706,-0.18708,-0.10291,-0.050323,-0.0031771,0.66967,-0.56769
-0.0085854,-0.020289,0.018784,-0.037138,-0.020881,-0.080873,1.3455,1.5748,-0.034673,-0.0019643,0.048445,-0.19136,0.1741,0.099366,0.14936,-0.086999,-0.025613,0.028997,-0.090721,-0.10807,-0.054003,-0.03097,0.76602,-0.56513
-0.0079793,-0.022318,0.020568,-0.043008,-0.065568,-0.23957,1.332,1.5084,-0.028748,0.040995,0.057815,-0.18622,0.044449,0.042497,0.072229,-0.072461,-0.0081002,0.23005,0.049719,-0.10405,-0.05957,-0.067503,0.85267,-0.57085
-0.0091613,-0.020988,0.021206,-0.048405,-0.1585,-0.42774,1.1612,1.3459,-0.02017,0.07337,0.059333,-0.18385,-0.040052,-0.03797,-0.025318,-0.059178,0.0067813,0.45899,0.20523,-0.091762,-0.065025,-0.10428,0.93517,-0.57591
-0.011816,-0.018807,0.021428,-0.054315,-0.29623,-0.69492,0.79675,1.087,-0.012525,0.079461,0.049324,-0.18053,-0.087433,-0.12126,-0.12704,-0.048744,0.015352,0.66062,0.33577,-0.077333,-0.067595,-0.12722,1.0152,-0.56631
-0.01386,-0.018983,0.021589,-0.060854,-0.45052,-1.0428,0.28816,0.76493,-0.0091574,0.054114,0.029703,-0.17366,-0.11633,-0.17786,-0.20768,-0.041273,0.016141,0.7879,0.40854,-0.068497,-0.066082,-0.12343,1.088,-0.53355
-0.01308,-0.022554,0.021409,-0.066772,-0.58469,-1.4211,-0.24564,0.44165,-0.010921,0.0056981,0.0072018,-0.16374,-0.14123,-0.18577,-0.2452,-0.034845,0.0097882,0.82547,0.4184,-0.070674,-0.062003,-0.089381,1.1429,-0.48135
-0.0091107,-0.027206,0.020236,-0.070208,-0.67451,-1.7561,-0.67774,0.18155,-0.016126,-0.04873,-0.01053,-0.15316,-0.1634,-0.1437,-0.23338,-0.026118,-0.0017084,0.79553,0.39559,-0.084803,-0.058511,-0.034268,1.1674,-0.42333
-0.0039122,-0.029021,0.017569,-0.069928,-0.71929,-1.9954,-0.93917,0.019102,-0.022336,-0.092214,-0.019332,-0.14324,-0.17318,-0.072103,-0.18571,-0.012226,-0.01549,0.74268,0.39151,-0.10729,-0.057871,0.024651,1.1524,-0.37394
-0.00032949,-0.025844,0.013413,-0.065929,-0.73692,-2.1376,-1.046,-0.059173,-0.028128,-0.11437,-0.020365,-0.13233,-0.16053,-0.0016164,-0.12734,0.0072759,-0.028074,0.70816,0.44872,-0.13143,-0.059473,0.071649,1.0957,-0.34035
-5.6124e-005,-0.019385,0.0083098,-0.059043,-0.7488,-2.2274,-1.0743,-0.10475,-0.033215,-0.11213,-0.018187,-0.11707,-0.12426,0.043108,-0.080343,0.029931,-0.035999,0.70937,0.57438,-0.14973,-0.060002,0.099939,1.0018,-0.32087
-0.0027237,-0.014143,0.0031524,-0.050241,-0.76666,-2.3193,-1.1062,-0.17482,-0.037159,-0.086653,-0.016662,-0.095662,-0.073741,0.053954,-0.052261,0.05174,-0.037198,0.73578,0.73584,-0.15681,-0.055786,0.11175,0.87862,-0.30937
-0.0066718,-0.013957,-0.0010476,-0.040549,-0.78913,-2.4375,-1.1849,-0.2989,-0.03844,-0.040953,-0.015966,-0.070108,-0.023738,0.038688,-0.035539,0.069202,-0.032419,0.76056,0.88185,-0.15202,-0.045734,0.11232,0.73568,-0.30032
-0.01043,-0.019067,-0.0034684,-0.031605,-0.8073,-2.5591,-1.303,-0.46514,-0.03536,0.019211,-0.013033,-0.045433,0.012051,0.011691,-0.017315,0.080549,-0.025527,0.758,0.97383,-0.14038,-0.032743,0.10404,0.58331,-0.29014
-0.013511,-0.026097,-0.0038793,-0.025846,-0.81206,-2.6324,-1.4217,-0.63258,-0.028211,0.083166,-0.0050733,-0.026361,0.02417,-0.015929,0.0087408,0.085652,-0.022156,0.71553,1.0052,-0.13076,-0.022443,0.085584,0.4338,-0.27545
-0.016029,-0.030819,-0.0028994,-0.025486,-0.79797,-2.612,-1.4981,-0.75769,-0.020364,0.13611,0.0067798,-0.01425,0.0080168,-0.039817,0.037743,0.085269,-0.027281,0.63514,0.99651,-0.13175,-0.019899,0.055562,0.30069,-0.25215
-0.017841,-0.031254,-0.0017122,-0.030836,-0.76349,-2.4868,-1.5045,-0.81701,-0.016442,0.16458,0.016873,-0.0066651,-0.034852,-0.058564,0.058988,0.080548,-0.043011,0.52651,0.97345,-0.1474,-0.026394,0.015457,0.19551,-0.21785
-0.018258,-0.028639,-0.0011816,-0.039642,-0.71083,-2.2836,-1.4357,-0.81426,-0.018487,0.16358,0.018354,0.00039425,-0.094014,-0.068155,0.065938,0.072954,-0.067634,0.39877,0.94644,-0.17561,-0.038577,-0.031537,0.12365,-0.17523
-0.01663,-0.025819,-0.0010051,-0.048521,-0.64657,-2.0493,-1.31,-0.77301,-0.023477,0.13979,0.0080643,0.0097703,-0.14986,-0.061454,0.061828,0.064127,-0.096181,0.25685,0.90646,-0.20971,-0.050774,-0.083989,0.082712,-0.13186
-0.013174,-0.024826,0.00020675,-0.055495,-0.58072,-1.8276,-1.1673,-0.72404,-0.025019,0.10781,-0.010789,0.022123,-0.18003,-0.034457,0.056188,0.055363,-0.12212,0.10378,0.83736,-0.24217,-0.059036,-0.14273,0.064554,-0.09522
-0.0091824,-0.025737,0.0037232,-0.061237,-0.52229,-1.6451,-1.0581,-0.69546,-0.018493,0.081704,-0.030377,0.036923,-0.17156,0.0061648,0.055659,0.047152,-0.13952,-0.053985,0.73236,-0.26761,-0.06396,-0.20596,0.05926,-0.066882
-0.0064035,-0.027396,0.0092927,-0.067675,-0.47384,-1.5092,-1.0217,-0.70754,-0.0054169,0.06772,-0.043184,0.053853,-0.13094,0.042358,0.057454,0.039432,-0.14487,-0.2033,0.60181,-0.28339,-0.069936,-0.26293,0.057901,-0.04202
-0.0060707,-0.028898,0.014896,-0.075288,-0.43037,-1.4134,-1.0624,-0.77073,0.0070715,0.062884,-0.046424,0.072943,-0.083084,0.053936,0.051327,0.032537,-0.13806,-0.32618,0.46857,-0.28835,-0.081134,-0.29384,0.052308,-0.015408
-0.0083045,-0.030295,0.018091,-0.081951,-0.3849,-1.3454,-1.1431,-0.88491,0.011699,0.059534,-0.042804,0.093427,-0.057273,0.031938,0.028421,0.027935,-0.12197,-0.40589,0.35676,-0.28149,-0.097261,-0.27946,0.033268,0.011511
-0.012164,-0.032112,0.01789,-0.084771,-0.33619,-1.2949,-1.2065,-1.0404,0.007018,0.051666,-0.037557,0.11299,-0.068181,-0.01463,-0.010578,0.027765,-0.10094,-0.43275,0.2824,-0.26229,-0.11271,-0.21534,-0.0097104,0.029933
-0.016154,-0.034462,0.015519,-0.083245,-0.29082,-1.2599,-1.2123,-1.2214,-0.0013504,0.038471,-0.034521,0.12885,-0.10512,-0.064987,-0.054839,0.03325,-0.07893,-0.40572,0.24995,-0.23243,-0.12021,-0.11998,-0.084973,0.031097
-0.018864,-0.036769,0.013378,-0.080426,-0.25659,-1.2484,-1.1612,-1.4105,-0.0054004,0.023484,-0.034323,0.14004,-0.13779,-0.10143,-0.090621,0.04311,-0.05833,-0.32959,0.25328,-0.19698,-0.11646,-0.029115,-0.19287,0.015336
-0.019538,-0.03831,0.01318,-0.080631,-0.23344,-1.2717,-1.0863,-1.5915,-0.0013525,0.01124,-0.035469,0.1487,-0.13554,-0.12102,-0.11016,0.053202,-0.040018,-0.21212,0.27832,-0.16337,-0.10519,0.021793,-0.32157,-0.0061412
-0.018457,-0.038887,0.014922,-0.085699,-0.21146,-1.3303,-1.0197,-1.7502,0.0075058,0.0045059,-0.036545,0.1587,-0.087648,-0.13495,-0.11509,0.057623,-0.024252,-0.065377,0.30604,-0.13815,-0.095034,0.015905,-0.4486,-0.019377
-0.016894,-0.038916,0.017453,-0.093398,-0.17973,-1.4029,-0.9641,-1.874,0.01407,0.0036835,-0.037287,0.1723,-0.011052,-0.15687,-0.11252,0.050613,-0.011479,0.089432,0.31628,-0.12376,-0.093532,-0.037674,-0.54905,-0.01896
-0.016441,-0.038938,0.019812,-0.099626,-0.13896,-1.4467,-0.89575,-1.9528,0.013719,0.0077233,-0.037835,0.18792,0.059586,-0.19092,-0.10832,0.028488,-0.0023871,0.22006,0.29222,-0.11767,-0.10182,-0.11151,-0.6066,-0.012376
-0.01798,-0.039115,0.021869,-0.1023,-0.10602,-1.4118,-0.79373,-1.9829,0.0081379,0.015027,-0.03749,0.20121,0.092976,-0.22936,-0.10401,-0.0085904,0.0025973,0.29076,0.22454,-0.11468,-0.11411,-0.17625,-0.62115,-0.013464
-0.020991,-0.039239,0.023773,-0.10324,-0.10497,-1.2652,-0.66723,-1.9692,0.0035632,0.023655,-0.034576,0.20881,0.079794,-0.26036,-0.099478,-0.055172,0.0035733,0.27856,0.11385,-0.11078,-0.1223,-0.21484,-0.60798,-0.031071
-0.023888,-0.039181,0.025069,-0.10621,-0.15007,-1.0108,-0.55529,-1.9258,0.0053554,0.031381,-0.0277,0.21132,0.037175,-0.27684,-0.097387,-0.10026,0.00067921,0.18801,-0.028035,-0.10545,-0.12187,-0.22661,-0.58872,-0.06353
-0.02527,-0.039237,0.024747,-0.11311,-0.23358,-0.69461,-0.50023,-1.8719,0.013763,0.036306,-0.017118,0.21286,-0.0027197,-0.27779,-0.10348,-0.12959,-0.006651,0.052196,-0.17751,-0.1011,-0.11457,-0.22129,-0.57916,-0.10401
-0.025062,-0.039987,0.022385,-0.12186,-0.32691,-0.39102,-0.51973,-1.8253,0.024261,0.037856,-0.0047741,0.21738,-0.011522,-0.26172,-0.12095,-0.13084,-0.019534,-0.083898,-0.30108,-0.10022,-0.106,-0.20882,-0.58145,-0.15143
-0.024527,-0.0418,0.019143,-0.12795,-0.3939,-0.17303,-0.6002,-1.7964,0.03161,0.037192,0.0071617,0.22511,0.021609,-0.22116,-0.14392,-0.099656,-0.038017,-0.18786,-0.36337,-0.10293,-0.10056,-0.19243,-0.58554,-0.21586
-0.025019,-0.044455,0.01727,-0.12815,-0.40748,-0.079526,-0.71109,-1.7835,0.033762,0.036455,0.017951,0.23232,0.08874,-0.14677,-0.15762,-0.042862,-0.059024,-0.25513,-0.34275,-0.10648,-0.098116,-0.1686,-0.57906,-0.31193
-0.026587,-0.047214,0.018192,-0.1231,-0.36077,-0.095089,-0.82111,-1.7715,0.032447,0.037342,0.028557,0.23461,0.1723,-0.039666,-0.14754,0.02416,-0.076003,-0.30435,-0.24838,-0.10681,-0.094982,-0.13271,-0.55903,-0.44421
-0.027711,-0.04923,0.020881,-0.11651,-0.26843,-0.15648,-0.90146,-1.7362,0.030621,0.0402,0.040174,0.23071,0.25604,0.07901,-0.11134,0.085004,-0.0816,-0.35733,-0.12599,-0.10025,-0.087867,-0.086113,-0.53677,-0.59629
-0.026491,-0.049953,0.022288,-0.11198,-0.1591,-0.18687,-0.92034,-1.6531,0.02962,0.044268,0.052279,0.22358,0.33052,0.17301,-0.063318,0.13034,-0.072128,-0.4195,-0.042161,-0.084424,-0.076994,-0.03936,-0.53125,-0.73287
-0.022285,-0.049268,0.019832,-0.11026,-0.06213,-0.14097,-0.84508,-1.5102,0.028561,0.048541,0.062079,0.21777,0.39208,0.21079,-0.026278,0.16154,-0.050459,-0.47546,-0.050582,-0.058158,-0.06561,-0.009133,-0.55423,-0.81483
-0.016372,-0.047453,0.013884,-0.10906,0.0064012,-0.03266,-0.65848,-1.3168,0.026004,0.052232,0.066098,0.21553,0.44012,0.18733,-0.016142,0.18786,-0.024514,-0.50052,-0.15956,-0.021534,-0.056593,-0.010008,-0.59764,-0.81756
-0.01111,-0.045082,0.00788,-0.10533,0.052091,0.075832,-0.37703,-1.1018,0.021789,0.054458,0.062729,0.21484,0.47665,0.13096,-0.031374,0.21973,-0.0018931,-0.47731,-0.32378,0.023729,-0.049566,-0.045975,-0.63454,-0.74164
-0.0083487,-0.042916,0.0056585,-0.097927,0.098698,0.11992,-0.051144,-0.90193,0.017223,0.053811,0.053547,0.21099,0.50801,0.088112,-0.055501,0.26264,0.015317,-0.40412,-0.46883,0.073986,-0.041331,-0.10727,-0.63603,-0.61093
-0.0084078,-0.041666,0.0081843,-0.088496,0.17215,0.084379,0.25804,-0.74463,0.013715,0.048684,0.04214,0.20029,0.54443,0.095657,-0.070067,0.31525,0.031263,-0.29179,-0.53387,0.12419,-0.029239,-0.17472,-0.5936,-0.46099
-0.01024,-0.041614,0.012527,-0.080132,0.28036,0.024806,0.50929,-0.63716,0.011484,0.038414,0.031408,0.1831,0.59535,0.15971,-0.066786,0.37154,0.051813,-0.15552,-0.50388,0.16914,-0.014272,-0.22835,-0.5299,-0.32547
-0.012295,-0.042313,0.014087,-0.075008,0.40256,0.042101,0.69583,-0.5677,0.0096292,0.024301,0.021746,0.16394,0.66274,0.25513,-0.049338,0.42467,0.078539,-0.010196,-0.41082,0.20474,-0.00083183,-0.25404,-0.48717,-0.226
-0.013197,-0.042658,0.010186,-0.072729,0.49777,0.22482,0.83409,-0.51604,0.0072931,0.0095355,0.011707,0.14895,0.73839,0.34399,-0.025211,0.4699,0.10628,0.12907,-0.30641,0.22849,0.0067217,-0.24426,-0.499,-0.1679
-0.011921,-0.041421,0.0019461,-0.07047,0.52853,0.59532,0.93922,-0.46584,0.004615,-0.0020198,0.00036622,0.14233,0.80807,0.398,0.0032007,0.5055,0.12626,0.24654,-0.22902,0.23931,0.0077344,-0.19518,-0.56574,-0.14169
-0.0079205,-0.037952,-0.0070614,-0.064702,0.48419,1.0916,1.0088,-0.41068,0.0025647,-0.0073664,-0.011044,0.14439,0.85984,0.40909,0.039511,0.53198,0.13199,0.33011,-0.18788,0.23724,0.0058456,-0.10634,-0.65232,-0.12957
-0.0015913,-0.032596,-0.013962,-0.053396,0.38701,1.5931,1.0266,-0.35267,0.0019743,-0.0053791,-0.019932,0.15179,0.88985,0.3843,0.086069,0.55072,0.12296,0.37801,-0.17095,0.2231,0.0059413,0.013986,-0.71128,-0.11539
0.0053208,-0.026502,-0.018598,-0.037369,0.277,1.9733,0.97916,-0.29702,0.0028124,0.0028846,-0.024756,0.15971,0.90093,0.33375,0.13627,0.56254,0.10345,0.4008,-0.16388,0.19833,0.010104,0.14223,-0.71372,-0.093745
0.010252,-0.020918,-0.022718,-0.019918,0.18758,2.1505,0.87011,-0.24673,0.0043532,0.014333,-0.026455,0.16422,0.89617,0.26384,0.17419,0.56689,0.078403,0.41437,-0.16225,0.16468,0.016027,0.24168,-0.66475,-0.072368
0.011446,-0.016429,-0.027436,-0.0048418,0.13046,2.1125,0.72135,-0.19905,0.0059562,0.024486,-0.027163,0.16355,0.87386,0.18008,0.1821,0.56193,0.050388,0.42778,-0.17006,0.12418,0.019186,0.27804,-0.59252,-0.064611
0.0095101,-0.012695,-0.031638,0.0059545,0.099594,1.9103,0.56383,-0.14413,0.007634,0.029001,-0.027265,0.158,0.82895,0.093481,0.14964,0.54562,0.020273,0.43577,-0.19069,0.079515,0.016857,0.24107,-0.52153,-0.076232
0.0072565,-0.0089356,-0.032976,0.013616,0.087589,1.6271,0.42682,-0.066725,0.0098579,0.025967,-0.023812,0.14892,0.7601,0.02127,0.07818,0.51727,-0.010026,0.42229,-0.22161,0.034702,0.010586,0.15579,-0.45295,-0.096549
0.0075162,-0.0048534,-0.030442,0.021231,0.097363,1.3401,0.33146,0.04719,0.012776,0.017644,-0.012374,0.13777,0.67586,-0.021062,-0.020683,0.4785,-0.036187,0.37291,-0.25704,-0.0049952,0.0050604,0.07085,-0.36792,-0.10255
0.010597,-0.0012229,-0.025896,0.031113,0.13745,1.093,0.28792,0.20091,0.015541,0.0098386,0.0087452,0.12568,0.59425,-0.029725,-0.12882,0.43306,-0.053435,0.28629,-0.29383,-0.034372,0.0043162,0.028826,-0.2501,-0.074819
0.013774,0.00050286,-0.022961,0.042575,0.2053,0.89137,0.29317,0.38077,0.016416,0.0084174,0.035528,0.11349,0.53493,-0.015053,-0.22439,0.38576,-0.06007,0.17644,-0.33345,-0.050423,0.0083222,0.03884,-0.10811,-0.013465
0.01358,-0.00052716,-0.02424,0.052256,0.27584,0.71868,0.33049,0.56003,0.013754,0.014996,0.059463,0.10182,0.50943,0.0071387,-0.28445,0.34127,-0.059007,0.065141,-0.37865,-0.0539,0.0126,0.072435,0.020719,0.059173
0.0090757,-0.003354,-0.029425,0.057036,0.30955,0.56283,0.37464,0.71315,0.0072755,0.025238,0.072553,0.090991,0.51557,0.028785,-0.29034,0.30328,-0.05559,-0.02812,-0.42873,-0.049001,0.01113,0.086526,0.088432,0.11262
0.0031747,-0.0052336,-0.03592,0.057215,0.2775,0.43421,0.40407,0.83107,-0.0013367,0.031696,0.072455,0.080807,0.5393,0.056014,-0.2356,0.27404,-0.053486,-0.0909,-0.47774,-0.041117,0.0003373,0.055901,0.063764,0.12864
0.00066087,-0.0032155,-0.041176,0.057014,0.18409,0.36455,0.41389,0.92553,-0.0091214,0.02949,0.063886,0.070685,0.56163,0.1023,-0.13216,0.25391,-0.052331,-0.11595,-0.51601,-0.034011,-0.018707,-0.0096965,-0.048224,0.11192
0.0044818,0.0037239,-0.044404,0.061529,0.067796,0.38934,0.41992,1.0179,-0.013533,0.020359,0.055296,0.060138,0.56615,0.17283,-0.0085333,0.24077,-0.049087,-0.098673,-0.53222,-0.028189,-0.041134,-0.075879,-0.20361,0.082711
0.013452,0.013659,-0.046265,0.072502,-0.023192,0.52909,0.44841,1.1217,-0.014027,0.011493,0.053416,0.049403,0.54333,0.2528,0.10089,0.22999,-0.0416,-0.040327,-0.51535,-0.021482,-0.061143,-0.11107,-0.33294,0.058373
0.02327,0.022781,-0.047296,0.086633,-0.062374,0.78331,0.51715,1.2322,-0.012372,0.0096769,0.059574,0.039599,0.49097,0.31029,0.17019,0.21549,-0.030981,0.043782,-0.45829,-0.011408,-0.07462,-0.10808,-0.36395,0.039587
0.029858,0.027905,-0.047079,0.098209,-0.058744,1.1373,0.62022,1.3335,-0.011419,0.015356,0.069893,0.032099,0.4122,0.31376,0.19112,0.19183,-0.020756,0.1201,-0.364,0.0022792,-0.079953,-0.083855,-0.2477,0.012791
0.03212,0.028602,-0.045075,0.10392,-0.042455,1.5684,0.72636,1.4135,-0.013187,0.021671,0.078446,0.0274,0.31318,0.25233,0.17215,0.15648,-0.013899,0.14588,-0.25039,0.016612,-0.077264,-0.060572,0.018525,-0.033742
0.031953,0.027337,-0.042056,0.10556,-0.035195,2.0396,0.79121,1.4752,-0.01765,0.019613,0.080697,0.024354,0.20131,0.14437,0.12939,0.11094,-0.010602,0.090868,-0.14744,0.02693,-0.06741,-0.046401,0.38107,-0.093909
0.031916,0.027544,-0.04023,0.10802,-0.031034,2.4851,0.77601,1.5321,-0.023028,0.0053463,0.075212,0.020503,0.084012,0.027919,0.077002,0.060143,-0.0086408,-0.041571,-0.084337,0.030153,-0.051741,-0.031848,0.74292,-0.14114
0.032909,0.031139,-0.041528,0.11433,-0.0045797,2.8095,0.66398,1.5943,-0.027232,-0.016287,0.063405,0.013464,-0.031964,-0.060106,0.023464,0.010459,-0.0055692,-0.21037,-0.073431,0.027641,-0.032465,-0.002822,1.0014,-0.1415
0.033895,0.037299,-0.045572,0.12247,0.060373,2.9146,0.46939,1.6579,-0.02927,-0.035075,0.0484,0.0024649,-0.14079,-0.10205,-0.025776,-0.032826,-0.00045914,-0.35573,-0.10251,0.025282,-0.012799,0.042799,1.0959,-0.073047
0.033499,0.043291,-0.04944,0.127,0.14696,2.7482,0.23611,1.7079,-0.029585,-0.043033,0.033935,-0.011146,-0.23741,-0.10398,-0.064082,-0.067209,0.0062348,-0.42979,-0.14229,0.030124,0.0035446,0.089777,1.0376,0.061146
0.031627,0.046568,-0.049711,0.12421,0.20868,2.3414,0.023436,1.7311,-0.029239,-0.04025,0.023429,-0.02494,-0.31766,-0.08646,-0.083451,-0.093309,0.014045,-0.41878,-0.16441,0.045477,0.013243,0.11509,0.90161,0.2337
0.029475,0.046491,-0.045132,0.1159,0.20059,1.8029,-0.12009,1.7275,-0.028801,-0.034458,0.019024,-0.03731,-0.37926,-0.070511,-0.079255,-0.11386,0.023365,-0.34312,-0.15679,0.068045,0.014163,0.10365,0.78211,0.40511
0.028187,0.044476,-0.037637,0.10797,0.11503,1.2676,-0.1845,1.7081,-0.027976,-0.035017,0.020727,-0.048754,-0.42305,-0.068323,-0.055343,-0.13203,0.034942,-0.23937,-0.12633,0.089585,0.0060249,0.057556,0.73862,0.53981
0.027767,0.042663,-0.030943,0.10522,-0.0067163,0.8322,-0.20918,1.6842,-0.026269,-0.04632,0.0263,-0.06135,-0.45289,-0.081914,-0.023822,-0.15006,0.048716,-0.14019,-0.089062,0.1023,-0.008979,-0.0068052,0.76832,0.61818
0.027386,0.042253,-0.028041,0.1072,-0.097811,0.52096,-0.26197,1.6575,-0.02399,-0.065508,0.032293,-0.076597,-0.47335,-0.10637,0.0017415,-0.16876,0.06334,-0.065669,-0.057967,0.10414,-0.026038,-0.069452,0.81988,0.64032
0.026539,0.042741,-0.02954,0.10899,-0.10877,0.30247,-0.39345,1.6209,-0.022522,-0.085223,0.035843,-0.093339,-0.48674,-0.13308,0.014814,-0.18798,0.076752,-0.026217,-0.037731,0.09993,-0.038942,-0.11617,0.83511,0.62158
0.025564,0.042493,-0.033777,0.10607,-0.039083,0.1369,-0.59622,1.5682,-0.023385,-0.098047,0.036173,-0.10775,-0.49289,-0.15193,0.019139,-0.20736,0.086968,-0.026633,-0.028039,0.09739,-0.042909,-0.14087,0.78643,0.58302
0.024869,0.04007,-0.038071,0.098405,0.064495,0.013062,-0.80251,1.501,-0.026741,-0.098933,0.034777,-0.11589,-0.49322,-0.15423,0.02395,-0.22663,0.09224,-0.063406,-0.029015,0.10106,-0.037648,-0.14232,0.68468,0.54187
0.023875,0.035307,-0.040016,0.089839,0.14072,-0.05325,-0.92735,1.4252,-0.030658,-0.085064,0.034167,-0.11699,-0.49591,-0.1371,0.035213,-0.24539,0.09085,-0.11842,-0.04241,0.10881,-0.028171,-0.12056,0.55725,0.50643
0.021108,0.029454,-0.038265,0.083736,0.15358,-0.051748,-0.92699,1.341,-0.032026,-0.055594,0.035975,-0.1147,-0.51599,-0.10634,0.050307,-0.26267,0.081589,-0.15936,-0.068158,0.1136,-0.022017,-0.077052,0.41926,0.47703
0.015676,0.024398,-0.03295,0.079432,0.11181,-0.0067345,-0.82662,1.2388,-0.028726,-0.013292,0.039611,-0.11491,-0.56678,-0.074097,0.060397,-0.27702,0.065224,-0.15237,-0.1012,0.1089,-0.024284,-0.017841,0.26298,0.45069
0.008668,0.021487,-0.025783,0.073134,0.057295,0.026792,-0.69474,1.1083,-0.021523,0.033184,0.04231,-0.12163,-0.64724,-0.051301,0.057982,-0.28716,0.045636,-0.080505,-0.13267,0.093573,-0.034017,0.044047,0.073568,0.42552
0.0029152,0.020653,-0.019523,0.06226,0.033331,-0.0013469,-0.5863,0.95523,-0.014141,0.069932,0.040538,-0.13434,-0.736,-0.040323,0.042942,-0.29272,0.028845,0.045569,-0.15469,0.072466,-0.044727,0.090255,-0.14333,0.40216
0.0010627,0.020349,-0.01659,0.048705,0.055948,-0.099498,-0.50344,0.80812,-0.011241,0.083311,0.031956,-0.14904,-0.7993,-0.033989,0.022331,-0.29443,0.01973,0.19297,-0.16428,0.052492,-0.048627,0.1032,-0.34673,0.38318
0.0036029,0.018402,-0.017457,0.037611,0.1065,-0.22736,-0.40643,0.70363,-0.015526,0.067593,0.016793,-0.16196,-0.8098,-0.022028,0.005025,-0.29362,0.018683,0.32416,-0.16385,0.037412,-0.041229,0.073999,-0.47326,0.37233
0.0085463,0.013378,-0.020069,0.032764,0.1477,-0.32512,-0.2614,0.65943,-0.025914,0.029062,-0.0021041,-0.17261,-0.76259,0.0006108,-0.0035636,-0.29173,0.021148,0.41423,-0.15908,0.025367,-0.022949,0.0083352,-0.47225,0.37419
0.012881,0.0056378,-0.021102,0.033042,0.15017,-0.35467,-0.078658,0.65628,-0.038002,-0.01729,-0.020523,-0.18341,-0.67616,0.030773,-0.0026438,-0.2901,0.020885,0.45769,-0.15716,0.010928,0.0028431,-0.072968,-0.34013,0.39245
0.014466,-0.002711,-0.0184,0.033359,0.1117,-0.32109,0.094544,0.6475,-0.046534,-0.056578,-0.034622,-0.19637,-0.57786,0.061563,0.006309,-0.29021,0.014541,0.46368,-0.16623,-0.01008,0.03293,-0.13972,-0.1297,0.4261
0.012894,-0.0090356,-0.012781,0.029214,0.058519,-0.26165,0.21899,0.59174,-0.048296,-0.081956,-0.042248,-0.21,-0.48624,0.089314,0.02154,-0.29384,0.0038664,0.44618,-0.19426,-0.036725,0.065562,-0.16272,0.075143,0.46589
0.0090617,-0.011793,-0.0076405,0.020642,0.029821,-0.21595,0.30212,0.48386,-0.043657,-0.096021,-0.043371,-0.21941,-0.40471,0.11589,0.040044,-0.30269,-0.0061449,0.41641,-0.24568,-0.062946,0.099235,-0.12474,0.20559,0.49561
0.0042323,-0.011369,-0.0064513,0.012051,0.056518,-0.20153,0.39223,0.35887,-0.035903,-0.10551,-0.039816,-0.21994,-0.33024,0.14391,0.05521,-0.31776,-0.011308,0.38058,-0.31695,-0.081205,0.1307,-0.027466,0.24634,0.49984
-0.00052256,-0.0095506,-0.0099534,0.0082369,0.14701,-0.20846,0.5324,0.26542,-0.028901,-0.11455,-0.034596,-0.21107,-0.2665,0.16937,0.057122,-0.33889,-0.01088,0.34167,-0.39437,-0.086955,0.15465,0.10831,0.24102,0.47388
-0.0043823,-0.0081253,-0.015256,0.010152,0.2867,-0.2084,0.71716,0.23103,-0.024703,-0.12216,-0.030935,-0.1974,-0.22736,0.17937,0.037478,-0.36464,-0.006776,0.30248,-0.45709,-0.080767,0.16576,0.24945,0.26087,0.42805
-0.006751,-0.0077511,-0.017696,0.01399,0.44891,-0.16643,0.89301,0.24718,-0.022718,-0.12537,-0.030961,-0.18556,-0.22596,0.15816,-0.003634,-0.3924,-0.00078041,0.26715,-0.48459,-0.067069,0.16158,0.36149,0.35799,0.38198
-0.0074104,-0.0079378,-0.014216,0.014114,0.60814,-0.050659,1.0034,0.2843,-0.020982,-0.12387,-0.034499,-0.17963,-0.25931,0.098279,-0.054705,-0.41819,0.0070731,0.23956,-0.46527,-0.051136,0.14402,0.42002,0.5352,0.35236
-0.0066509,-0.0079646,-0.0057406,0.0072285,0.747,0.15755,1.0374,0.31986,-0.018388,-0.12126,-0.038952,-0.17851,-0.30381,0.0091879,-0.096981,-0.43658,0.017233,0.21929,-0.40195,-0.036823,0.11836,0.41824,0.75089,0.34335
-0.0050748,-0.007818,0.0033797,-0.0054848,0.85415,0.45193,1.0372,0.35256,-0.015926,-0.12158,-0.040877,-0.17751,-0.32818,-0.082544,-0.11383,-0.44134,0.027994,0.19818,-0.3116,-0.026246,0.090615,0.36744,0.95062,0.34677
-0.003168,-0.0083435,0.0085967,-0.01964,0.9186,0.79548,1.0582,0.39066,-0.015691,-0.12465,-0.03859,-0.17242,-0.31504,-0.14237,-0.099272,-0.42746,0.034662,0.16179,-0.21908,-0.020535,0.065177,0.28959,1.0992,0.35126
-0.0011139,-0.010593,0.008663,-0.030993,0.92791,1.1293,1.1178,0.42816,-0.018424,-0.12516,-0.033831,-0.16292,-0.27402,-0.14239,-0.060312,-0.39391,0.032032,0.097168,-0.14684,-0.020134,0.043864,0.20549,1.1917,0.35246
0.00086681,-0.015021,0.0065686,-0.038212,0.8736,1.394,1.1794,0.43477,-0.021896,-0.11686,-0.030843,-0.15245,-0.23522,-0.075336,-0.012544,-0.34549,0.018362,0.0026636,-0.10513,-0.024331,0.026448,0.12524,1.245,0.3557
0.0020061,-0.021182,0.0069975,-0.043195,0.75928,1.5497,1.1844,0.3728,-0.021995,-0.098306,-0.03323,-0.14499,-0.22784,0.038399,0.027219,-0.29196,-0.0027578,-0.10824,-0.08787,-0.031096,0.01177,0.047014,1.2853,0.36949
0.001053,-0.028033,0.012244,-0.049025,0.60338,1.5805,1.1025,0.22822,-0.015993,-0.075162,-0.041034,-0.14142,-0.25955,0.15569,0.046752,-0.24416,-0.024559,-0.21364,-0.077289,-0.038244,-0.0013305,-0.03514,1.3434,0.39579
-0.0027729,-0.03443,0.019975,-0.057267,0.43252,1.4864,0.95693,0.028324,-0.0052481,-0.056657,-0.05061,-0.13869,-0.31141,0.22809,0.040902,-0.20913,-0.041657,-0.29682,-0.055832,-0.04526,-0.013523,-0.12085,1.4521,0.42539
-0.0086108,-0.039411,0.024862,-0.066536,0.2701,1.2752,0.80293,-0.17085,0.0052915,-0.049152,-0.057617,-0.1321,-0.35037,0.22531,0.011813,-0.18705,-0.053185,-0.35648,-0.018269,-0.053849,-0.024823,-0.19903,1.6295,0.442
-0.01381,-0.042221,0.022881,-0.073268,0.12899,0.96734,0.68315,-0.31866,0.010767,-0.051917,-0.060621,-0.11887,-0.34889,0.15192,-0.031809,-0.17193,-0.061974,-0.40505,0.023901,-0.066108,-0.034631,-0.25316,1.8514,0.43156
-0.015427,-0.042366,0.014796,-0.074102,0.013335,0.60638,0.59777,-0.39897,0.010364,-0.058299,-0.062101,-0.099889,-0.29807,0.045585,-0.076726,-0.15555,-0.070735,-0.45625,0.04917,-0.08168,-0.042003,-0.27181,2.0367,0.38914
-0.012506,-0.039873,0.0059165,-0.068317,-0.074905,0.25755,0.51173,-0.43296,0.0080914,-0.060905,-0.065835,-0.07868,-0.20799,-0.044686,-0.10948,-0.13195,-0.078778,-0.51195,0.039847,-0.096776,-0.046047,-0.25543,2.0745,0.31863
-0.0072723,-0.035624,0.0022467,-0.058695,-0.13366,-0.015319,0.38675,-0.45695,0.0095153,-0.056466,-0.072882,-0.058655,-0.09872,-0.086966,-0.12207,-0.099888,-0.082156,-0.55921,-0.0057992,-0.1066,-0.046283,-0.21452,1.8894,0.22732
-0.0039172,-0.031348,0.0060722,-0.05018,-0.16677,-0.18078,0.20914,-0.49563,0.017005,-0.046835,-0.079809,-0.041099,0.0095179,-0.0823,-0.11549,-0.062308,-0.077026,-0.57982,-0.0703,-0.10941,-0.042748,-0.16175,1.5017,0.12143
-0.005613,-0.029027,0.014335,-0.047078,-0.19229,-0.25302,-0.0046364,-0.551,0.027475,-0.036188,-0.080986,-0.025243,0.10145,-0.057069,-0.098094,-0.024171,-0.063244,-0.5645,-0.12376,-0.10845,-0.035951,-0.10569,1.0294,0.0070067
-0.012037,-0.029912,0.020903,-0.050572,-0.2414,-0.27356,-0.2186,-0.61082,0.034629,-0.027421,-0.073266,-0.0098624,0.16775,-0.039054,-0.079072,0.0095499,-0.045163,-0.52066,-0.13586,-0.10955,-0.026925,-0.050919,0.61676,-0.10579
-0.019518,-0.033766,0.020911,-0.058249,-0.34311,-0.2752,-0.38785,-0.66418,0.033992,-0.020775,-0.059193,0.0053052,0.2052,-0.036996,-0.062011,0.034706,-0.029089,-0.46842,-0.08661,-0.11627,-0.01754,-0.0025497,0.33505,-0.2014
-0.023848,-0.038913,0.014009,-0.066034,-0.50275,-0.25862,-0.46384,-0.7088,0.026696,-0.015207,-0.045977,0.019549,0.21739,-0.03942,-0.043327,0.048162,-0.019578,-0.42974,0.027921,-0.12706,-0.010738,0.030488,0.13263,-0.26476
-0.023557,-0.043201,0.0044024,-0.07119,-0.69122,-0.20102,-0.40403,-0.74614,0.018895,-0.010501,-0.040915,0.032362,0.21398,-0.031021,-0.016617,0.048149,-0.017401,-0.41925,0.19538,-0.13732,-0.010096,0.03743,-0.12074,-0.29136
-0.020994,-0.045277,-0.0021227,-0.074186,-0.85576,-0.087605,-0.19423,-0.77239,0.017195,-0.0078271,-0.046758,0.044528,0.20666,-0.0096922,0.021011,0.034791,-0.020303,-0.44196,0.39084,-0.14451,-0.018375,0.011351,-0.5214,-0.29304
-0.020288,-0.045325,-0.0020249,-0.077997,-0.94727,0.06357,0.12743,-0.77619,0.023697,-0.008305,-0.060397,0.058034,0.20331,0.011865,0.065708,0.010065,-0.025311,-0.49503,0.58315,-0.15143,-0.035554,-0.04594,-1.0349,-0.29285
-0.023864,-0.044713,0.0038941,-0.085385,-0.94616,0.20536,0.46965,-0.74576,0.034568,-0.01115,-0.075475,0.074811,0.20506,0.020366,0.10868,-0.0232,-0.030431,-0.56814,0.74283,-0.16382,-0.05759,-0.12293,-1.492,-0.31099
-0.030312,-0.044842,0.011427,-0.096389,-0.86919,0.28966,0.724,-0.67882,0.043212,-0.013344,-0.086529,0.095309,0.20899,0.016922,0.14069,-0.062412,-0.034571,-0.64088,0.84983,-0.18419,-0.077169,-0.20126,-1.6897,-0.35162
-0.035338,-0.046069,0.016149,-0.1081,-0.75466,0.29433,0.82007,-0.58594,0.04545,-0.011282,-0.091617,0.118,0.21388,0.017211,0.15573,-0.10508,-0.036378,-0.68318,0.89831,-0.20715,-0.086635,-0.26072,-1.528,-0.40034
-0.035022,-0.04758,0.016509,-0.11688,-0.63816,0.22671,0.76051,-0.48446,0.042537,-0.003132,-0.092113,0.14018,0.22248,0.035949,0.15215,-0.14736,-0.033631,-0.66553,0.89518,-0.22129,-0.081766,-0.28522,-1.0883,-0.43407
-0.028843,-0.048274,0.014533,-0.12115,-0.53596,0.10474,0.60852,-0.3874,0.039757,0.009769,-0.090779,0.15942,0.23722,0.070412,0.1323,-0.18321,-0.024234,-0.57733,0.85196,-0.21669,-0.064111,-0.26883,-0.59645,-0.43565
-0.020153,-0.047905,0.013716,-0.12222,-0.44429,-0.062908,0.43844,-0.2958,0.041954,0.023244,-0.089978,0.17477,0.25299,0.099292,0.10196,-0.20623,-0.0083574,-0.44141,0.77352,-0.19251,-0.040213,-0.21928,-0.29396,-0.40241
-0.013786,-0.047426,0.015878,-0.1227,-0.35044,-0.27745,0.28953,-0.19938,0.049775,0.031886,-0.090985,0.18696,0.25596,0.099122,0.069468,-0.21399,0.0099443,-0.30987,0.65133,-0.15857,-0.017884,-0.15587,-0.3046,-0.3439
-0.012646,-0.048175,0.019672,-0.12418,-0.24562,-0.53134,0.15786,-0.084902,0.059534,0.031152,-0.093946,0.19767,0.2327,0.064147,0.043419,-0.21155,0.023368,-0.238,0.46819,-0.12957,-0.001837,-0.10094,-0.57904,-0.27313
-0.015813,-0.050613,0.021999,-0.12638,-0.13226,-0.79034,0.024754,0.053133,0.066451,0.019403,-0.097863,0.20842,0.18417,0.012104,0.029058,-0.21007,0.024711,-0.25003,0.21486,-0.11602,0.0084026,-0.069345,-0.94537,-0.19949
-0.019538,-0.053802,0.021004,-0.12847,-0.024437,-0.99751,-0.11012,0.20618,0.068299,-0.00059974,-0.1007,0.21967,0.13221,-0.029139,0.025629,-0.22006,0.011437,-0.32031,-0.090225,-0.11825,0.016817,-0.063193,-1.2225,-0.12803
-0.020291,-0.056212,0.017889,-0.13084,0.056818,-1.1008,-0.22237,0.35411,0.066576,-0.02154,-0.10015,0.23081,0.10957,-0.042439,0.027409,-0.24379,-0.011458,-0.38533,-0.39323,-0.12711,0.026713,-0.075586,-1.3195,-0.062338
-0.017509,-0.057159,0.015838,-0.1352,0.09229,-1.0846,-0.28441,0.4763,0.064735,-0.033603,-0.094986,0.24079,0.13795,-0.032228,0.028516,-0.27275,-0.032866,-0.38146,-0.61947,-0.13018,0.037308,-0.099294,-1.2648,-0.0051377
-0.013928,-0.057503,0.017071,-0.1426,0.075705,-0.97874,-0.28985,0.56509,0.065423,-0.028495,-0.085952,0.24904,0.20922,-0.017548,0.028013,-0.29285,-0.041387,-0.28431,-0.70657,-0.11919,0.043921,-0.1317,-1.1588,0.045628
-0.013288,-0.058843,0.02079,-0.15175,0.021878,-0.83761,-0.25628,0.63244,0.069029,-0.0035426,-0.075114,0.25586,0.28516,-0.015057,0.030804,-0.29371,-0.032369,-0.12389,-0.63747,-0.094341,0.041881,-0.17103,-1.0916,0.10063
-0.017252,-0.061904,0.023935,-0.15943,-0.035809,-0.70324,-0.20703,0.70303,0.074154,0.036627,-0.064094,0.26208,0.3179,-0.027328,0.042978,-0.27495,-0.011368,0.034501,-0.45148,-0.063816,0.031119,-0.20833,-1.0781,0.17613
-0.024032,-0.065683,0.023962,-0.16309,-0.061327,-0.58229,-0.15286,0.79632,0.078911,0.082009,-0.052665,0.26799,0.27802,-0.045218,0.065196,-0.2452,0.0088836,0.13036,-0.22428,-0.039218,0.017638,-0.2254,-1.0455,0.28272
-0.029807,-0.068232,0.021007,-0.16285,-0.036906,-0.45418,-0.091841,0.90982,0.081708,0.12141,-0.039172,0.27252,0.17129,-0.0597,0.090031,-0.2151,0.016432,0.1424,-0.028944,-0.029534,0.010336,-0.20449,-0.87605,0.41324
-0.031693,-0.068367,0.017499,-0.16084,0.026904,-0.30248,-0.023972,1.0176,0.081316,0.14628,-0.022579,0.27336,0.033528,-0.070811,0.10624,-0.1904,0.007505,0.095105,0.096519,-0.036628,0.015428,-0.14351,-0.48181,0.54111
-0.029762,-0.066644,0.015813,-0.15839,0.10198,-0.14223,0.038167,1.0877,0.076962,0.15234,-0.004461,0.26818,-0.091138,-0.085742,0.10694,-0.16992,-0.011982,0.034679,0.15535,-0.054586,0.03273,-0.063066,0.12875,0.63364
-0.026471,-0.064668,0.016277,-0.15424,0.16695,-0.01838,0.075574,1.1067,0.06893,0.13964,0.010852,0.25627,-0.17219,-0.10929,0.094739,-0.1486,-0.031802,-0.0070475,0.17232,-0.073344,0.056565,0.0041927,0.83074,0.6728
-0.02418,-0.06344,0.017275,-0.14578,0.22442,0.025808,0.079102,1.0915,0.059077,0.11219,0.018324,0.23923,-0.20085,-0.13713,0.079133,-0.12208,-0.045275,-0.03415,0.16726,-0.084471,0.080294,0.035948,1.4293,0.66811
-0.023097,-0.062398,0.017022,-0.13228,0.2947,-0.014767,0.057674,1.0785,0.050317,0.077852,0.01518,0.22023,-0.18272,-0.15881,0.067883,-0.089271,-0.053276,-0.076932,0.14348,-0.085373,0.1006,0.036956,1.755,0.65134
-0.021506,-0.060106,0.015112,-0.11683,0.39057,-0.09626,0.028678,1.0956,0.044942,0.046879,0.0028344,0.20217,-0.12522,-0.16769,0.059763,-0.052225,-0.061344,-0.15755,0.097131,-0.079021,0.11826,0.035019,1.7546,0.65611
-0.017917,-0.055917,0.012504,-0.10454,0.49703,-0.15166,-0.00019867,1.1408,0.043005,0.028216,-0.013463,0.18616,-0.031584,-0.16775,0.045126,-0.015021,-0.072709,-0.25766,0.034618,-0.069593,0.13525,0.05767,1.5172,0.69745
-0.012969,-0.050962,0.010293,-0.098588,0.5775,-0.13357,-0.038906,1.1851,0.042261,0.024864,-0.027085,0.17161,0.095444,-0.17034,0.01421,0.016965,-0.083598,-0.31668,-0.021446,-0.057739,0.1512,0.1077,1.213,0.76549
-0.0091806,-0.047492,0.0086365,-0.097533,0.60488,-0.039684,-0.10344,1.1972,0.039959,0.031834,-0.03316,0.15756,0.24687,-0.18331,-0.03375,0.037881,-0.085265,-0.26839,-0.045859,-0.039633,0.16225,0.15793,0.98232,0.83503
-0.0087318,-0.047062,0.0067284,-0.096444,0.59048,0.099405,-0.19436,1.1711,0.035139,0.039252,-0.030612,0.1441,0.40637,-0.20247,-0.088322,0.043425,-0.071396,-0.09353,-0.033337,-0.010865,0.16295,0.17032,0.85365,0.88099
-0.011335,-0.049114,0.0035418,-0.090745,0.58259,0.25813,-0.28511,1.1336,0.029496,0.039161,-0.022079,0.13254,0.55637,-0.21329,-0.13441,0.033781,-0.044662,0.15116,-0.0097807,0.02801,0.14943,0.12469,0.74812,0.88765
-0.014195,-0.051115,-0.0015024,-0.079344,0.63113,0.44483,-0.33179,1.1257,0.026038,0.030956,-0.012032,0.12409,0.68479,-0.20174,-0.16189,0.015219,-0.016626,0.35417,-0.020268,0.069176,0.12154,0.03422,0.56215,0.84906
-0.014116,-0.050171,-0.0083417,-0.064615,0.7459,0.69399,-0.29849,1.1719,0.026579,0.020969,-0.0044849,0.11855,0.78488,-0.16512,-0.17041,-0.0017481,-0.00059469,0.41189,-0.10041,0.10098,0.082967,-0.063992,0.2594,0.76692
-0.0099082,-0.044892,-0.016331,-0.049792,0.88412,1.0263,-0.18016,1.2626,0.03007,0.016422,-0.0016611,0.11404,0.84857,-0.1139,-0.16623,-0.0073296,-0.002882,0.29106,-0.25112,0.11491,0.03999,-0.13468,-0.10058,0.65206
-0.0031296,-0.036195,-0.024306,-0.036401,0.98009,1.4111,-0.0082274,1.3601,0.033109,0.018831,-0.004008,0.10835,0.8612,-0.063793,-0.15512,0.0024785,-0.019279,0.046875,-0.43457,0.11092,-0.00025209,-0.16552,-0.41327,0.52681
0.0032817,-0.026593,-0.030818,-0.023773,0.99459,1.7675,0.16324,1.4249,0.032268,0.02251,-0.010888,0.10049,0.80582,-0.025318,-0.13843,0.024184,-0.03913,-0.21546,-0.59364,0.097355,-0.031597,-0.16826,-0.60978,0.41995
0.0071612,-0.018562,-0.034818,-0.010404,0.94443,2.009,0.28133,1.44,0.026523,0.019383,-0.021021,0.091161,0.67561,0.00073745,-0.11531,0.04954,-0.053194,-0.40617,-0.68151,0.085558,-0.050809,-0.16225,-0.69812,0.35095
0.0083533,-0.013143,-0.036483,0.0045547,0.88921,2.0991,0.31535,1.4186,0.018024,0.0058295,-0.032407,0.081808,0.48435,0.019755,-0.087842,0.070725,-0.058778,-0.495,-0.68289,0.083538,-0.05898,-0.15654,-0.73773,0.31346
0.0083274,-0.0096322,-0.037384,0.020911,0.88641,2.073,0.2662,1.3883,0.01066,-0.014318,-0.042242,0.073198,0.26421,0.036584,-0.062753,0.084433,-0.058564,-0.50571,-0.61558,0.092948,-0.061225,-0.14561,-0.78049,0.27436
0.0087889,-0.0063863,-0.039473,0.037932,0.95079,2.0054,0.16137,1.3678,0.0074165,-0.032945,-0.047376,0.064822,0.050663,0.0521,-0.047319,0.092496,-0.055369,-0.47394,-0.5143,0.1107,-0.064108,-0.11992,-0.83497,0.19487
0.010453,-0.0020794,-0.04348,0.054695,1.0479,1.9482,0.038062,1.3519,0.0083894,-0.043887,-0.045334,0.055517,-0.13451,0.064912,-0.043129,0.099118,-0.048306,-0.40928,-0.40816,0.13285,-0.071877,-0.079152,-0.88013,0.061437
0.012746,0.0034362,-0.048099,0.06992,1.123,1.8878,-0.077246,1.3155,0.010861,-0.046766,-0.03533,0.044454,-0.28883,0.07477,-0.044083,0.10696,-0.033893,-0.29382,-0.30562,0.15721,-0.083785,-0.035142,-0.90352,-0.098202
0.014454,0.009146,-0.050854,0.081951,1.1397,1.758,-0.18123,1.2329,0.011369,-0.045572,-0.01873,0.031398,-0.41996,0.083358,-0.041147,0.11478,-0.010554,-0.11401,-0.19502,0.18298,-0.09438,-0.0022461,-0.91854,-0.22844
0.014754,0.013669,-0.050115,0.089596,1.1006,1.4979,-0.28884,1.097,0.0081947,-0.044004,0.0012641,0.016023,-0.53096,0.09173,-0.030032,0.11813,0.018276,0.10745,-0.059541,0.20893,-0.096699,0.015195,-0.9435,-0.28034
0.013968,0.016304,-0.046654,0.093486,1.0381,1.1097,-0.41241,0.92429,0.0023799,-0.042186,0.02063,-0.00283,-0.61365,0.097525,-0.015042,0.11268,0.045717,0.31219,0.10317,0.23246,-0.086425,0.026457,-0.96933,-0.24093
0.013531,0.017659,-0.043431,0.096592,0.98861,0.67016,-0.53912,0.74345,-0.0034712,-0.037528,0.036009,-0.026798,-0.65604,0.095298,-0.005642,0.097974,0.066358,0.44123,0.26982,0.25093,-0.064438,0.045988,-0.95777,-0.13567
0.015144,0.01942,-0.043707,0.10291,0.97183,0.28839,-0.62602,0.57727,-0.0074751,-0.028289,0.046162,-0.056394,-0.65656,0.080225,-0.0086008,0.078947,0.079918,0.47563,0.3973,0.26369,-0.036337,0.08073,-0.88015,-0.0057632
0.019609,0.0233,-0.04888,0.1149,0.98585,0.042941,-0.62137,0.43261,-0.0098192,-0.016006,0.052557,-0.089305,-0.63135,0.052372,-0.022255,0.06413,0.090286,0.44845,0.4436,0.27246,-0.0093422,0.12431,-0.76099,0.11776
0.026159,0.029768,-0.057561,0.13154,1.0165,-0.055394,-0.50064,0.30472,-0.012047,-0.0044232,0.058402,-0.12025,-0.60679,0.018131,-0.037421,0.061298,0.1009,0.41821,0.39236,0.27905,0.011472,0.16252,-0.67782,0.22207
0.032839,0.037478,-0.066434,0.14876,1.049,-0.055383,-0.29187,0.18967,-0.015129,0.0037448,0.066478,-0.14314,-0.60231,-0.012601,-0.044029,0.073246,0.11079,0.42585,0.26638,0.28231,0.025396,0.18463,-0.70484,0.30167
0.037722,0.043949,-0.072209,0.16205,1.0746,-0.027591,-0.069746,0.092026,-0.018341,0.0087817,0.077343,-0.15446,-0.6174,-0.032316,-0.03833,0.096038,0.11499,0.46856,0.12171,0.27746,0.035533,0.1906,-0.84242,0.34664
0.040109,0.047221,-0.073361,0.16942,1.0895,-0.029293,0.080488,0.020353,-0.020168,0.012713,0.089498,-0.15564,-0.63361,-0.041769,-0.02569,0.12029,0.10876,0.50849,0.024181,0.25923,0.046012,0.18884,-0.99484,0.34656
0.04079,0.047379,-0.070633,0.17256,1.092,-0.091477,0.10651,-0.024976,-0.020324,0.016279,0.10144,-0.15238,-0.63041,-0.052001,-0.017489,0.13434,0.092142,0.50568,0.019918,0.22693,0.058914,0.18742,-1.0242,0.30772
0.041236,0.046779,-0.066187,0.17532,1.0787,-0.22333,0.0123,-0.059436,-0.02071,0.017466,0.11357,-0.15103,-0.60232,-0.079814,-0.024489,0.12765,0.070773,0.44797,0.114,0.18748,0.072963,0.18692,-0.84528,0.26408
0.042421,0.048665,-0.062119,0.18085,1.0436,-0.41844,-0.15066,-0.10888,-0.024024,0.013389,0.12777,-0.15436,-0.56383,-0.13728,-0.050669,0.093821,0.052684,0.35652,0.26767,0.15323,0.084662,0.18086,-0.48957,0.26551
0.04424,0.05498,-0.059373,0.18939,0.97932,-0.65531,-0.31395,-0.19373,-0.031128,0.0038756,0.1449,-0.15995,-0.53787,-0.2204,-0.090696,0.033018,0.043712,0.26672,0.41603,0.13546,0.090721,0.16236,-0.088429,0.34798
0.045882,0.064826,-0.057635,0.19818,0.88254,-0.89844,-0.423,-0.31476,-0.039671,-0.0068078,0.1628,-0.16238,-0.53666,-0.30459,-0.13205,-0.046751,0.044897,0.20213,0.49835,0.13757,0.089802,0.13077,0.21232,0.50893
0.046661,0.07465,-0.056042,0.20349,0.76113,-1.1088,-0.45265,-0.45139,-0.045531,-0.01216,0.17731,-0.15797,-0.54951,-0.35201,-0.16054,-0.13082,0.053101,0.16144,0.48649,0.15295,0.082458,0.09211,0.34195,0.70805
0.046472,0.080193,-0.054025,0.20309,0.63734,-1.2615,-0.40781,-0.57388,-0.045998,-0.0081239,0.18589,-0.14824,-0.54714,-0.32885,-0.16651,-0.20242,0.063528,0.12574,0.39658,0.1689,0.069889,0.053313,0.33455,0.8926
0.045555,0.079076,-0.051644,0.19767,0.54215,-1.3576,-0.31837,-0.66075,-0.041929,0.0035914,0.19044,-0.13929,-0.49981,-0.22343,-0.14865,-0.24922,0.072051,0.077688,0.27695,0.17406,0.053126,0.015656,0.28457,1.0264
0.043985,0.07241,-0.049353,0.19024,0.50079,-1.4185,-0.23389,-0.71015,-0.036911,0.016425,0.19607,-0.13757,-0.39636,-0.054689,-0.11389,-0.26837,0.076303,0.017291,0.17914,0.16455,0.033647,-0.026578,0.27034,1.1005
0.041589,0.064273,-0.047519,0.18397,0.51747,-1.4668,-0.21338,-0.73924,-0.034162,0.023612,0.20679,-0.14522,-0.25094,0.13384,-0.073805,-0.26672,0.075893,-0.036625,0.12955,0.1451,0.014772,-0.080521,0.30632,1.1229
0.038419,0.059249,-0.046133,0.18,0.56982,-1.5079,-0.30387,-0.77372,-0.033872,0.023005,0.22193,-0.15858,-0.093825,0.29134,-0.039669,-0.25593,0.072368,-0.058741,0.11934,0.12537,0.0022099,-0.14614,0.354,1.1011
0.035167,0.059554,-0.044855,0.17667,0.61826,-1.5279,-0.51198,-0.8344,-0.033279,0.018335,0.23688,-0.17102,0.04572,0.37919,-0.018614,-0.24596,0.068857,-0.033771,0.11832,0.11439,0.0026614,-0.21073,0.37138,1.0353
0.032866,0.063743,-0.043285,0.17093,0.62573,-1.5082,-0.78689,-0.92771,-0.029273,0.015921,0.24732,-0.17745,0.15178,0.38407,-0.011931,-0.24136,0.068839,0.033617,0.10175,0.11634,0.020948,-0.25016,0.35392,0.92509
0.031947,0.067945,-0.04125,0.16081,0.57644,-1.4438,-1.0333,-1.0439,-0.021229,0.019341,0.25249,-0.1773,0.22251,0.31984,-0.015538,-0.24236,0.074001,0.12052,0.070268,0.12909,0.057304,-0.2368,0.33541,0.77827
0.031543,0.068736,-0.038941,0.14728,0.48319,-1.3501,-1.155,-1.1626,-0.011683,0.026139,0.25399,-0.17394,0.26305,0.21885,-0.022192,-0.24864,0.082274,0.19654,0.04889,0.14518,0.10632,-0.15106,0.3556,0.61026
0.029914,0.065462,-0.036797,0.13383,0.37989,-1.2528,-1.1053,-1.2636,-0.0044582,0.029031,0.25146,-0.17182,0.27991,0.11706,-0.024999,-0.26155,0.087725,0.23649,0.067346,0.15396,0.158,0.00714,0.42857,0.4336
0.025816,0.060269,-0.035144,0.12388,0.30369,-1.1704,-0.91111,-1.3359,-0.0019973,0.020669,0.23999,-0.17368,0.28196,0.039783,-0.021224,-0.28289,0.083063,0.229,0.13762,0.14507,0.20047,0.21108,0.53789,0.2493
0.019687,0.055939,-0.033807,0.11806,0.27632,-1.0996,-0.65409,-1.3818,-0.0040445,-0.0016191,0.21282,-0.17958,0.28361,-0.0054881,-0.014354,-0.31183,0.063743,0.17866,0.24543,0.11272,0.2234,0.4093,0.6551,0.050183
0.013533,0.053432,-0.03204,0.11364,0.29424,-1.0166,-0.4229,-1.4124,-0.0084666,-0.034453,0.16767,-0.18733,0.30216,-0.025971,-0.012389,-0.34392,0.031234,0.1031,0.36026,0.0595,0.22127,0.54038,0.75605,-0.16569
0.0095338,0.051215,-0.028975,0.10666,0.33299,-0.89174,-0.26905,-1.4373,-0.013157,-0.070916,0.11087,-0.19352,0.34675,-0.033457,-0.022438,-0.37394,-0.0067615,0.028317,0.45394,-0.0029414,0.19533,0.55813,0.81606,-0.38461
0.0085227,0.046904,-0.024369,0.095162,0.36329,-0.70951,-0.19448,-1.456,-0.017334,-0.10462,0.054707,-0.19436,0.40678,-0.034891,-0.044897,-0.40028,-0.039495,-0.015806,0.51326,-0.058177,0.15298,0.45594,0.79218,-0.58137
0.0095812,0.039658,-0.019055,0.08085,0.36868,-0.48396,-0.17155,-1.458,-0.021404,-0.13225,0.0096841,-0.18673,0.45193,-0.03057,-0.071802,-0.42646,-0.058025,0.00042604,0.53928,-0.09272,0.10445,0.27484,0.62054,-0.73658
0.010951,0.031162,-0.014638,0.067702,0.35228,-0.25978,-0.17297,-1.4318,-0.025926,-0.1534,-0.02216,-0.1697,0.44805,-0.020005,-0.091351,-0.45747,-0.05898,0.10072,0.53848,-0.10266,0.058207,0.08609,0.24778,-0.85304
0.011359,0.024293,-0.01254,0.058776,0.32763,-0.097925,-0.18701,-1.3765,-0.030759,-0.16891,-0.047065,-0.14567,0.38022,-0.0084579,-0.095641,-0.49342,-0.045411,0.29337,0.51622,-0.094744,0.017769,-0.044789,-0.31631,-0.956
0.01065,0.020711,-0.01307,0.054001,0.30141,-0.051177,-0.21166,-1.3064,-0.035043,-0.17949,-0.07274,-0.11992,0.26626,-0.0064727,-0.085585,-0.52594,-0.02478,0.5599,0.47744,-0.081244,-0.017756,-0.091139,-0.96529,-1.0742
0.0094299,0.019608,-0.015178,0.050783,0.2638,-0.14124,-0.24095,-1.2449,-0.037742,-0.18547,-0.10085,-0.098308,0.14979,-0.021755,-0.069089,-0.54091,-0.0056611,0.84852,0.42972,-0.072501,-0.049864,-0.07369,-1.519,-1.2144
0.0082759,0.018697,-0.017038,0.04668,0.19645,-0.34918,-0.2607,-1.2088,-0.038196,-0.18679,-0.12517,-0.084033,0.076151,-0.051035,-0.054401,-0.52632,0.0051081,1.0819,0.38048,-0.072561,-0.076562,-0.038911,-1.804,-1.3473
0.0072939,0.016429,-0.016988,0.041495,0.092571,-0.62366,-0.25784,-1.1972,-0.036316,-0.1826,-0.13667,-0.075962,0.066716,-0.080855,-0.044776,-0.4794,0.0039756,1.1833,0.32748,-0.08019,-0.091527,-0.023497,-1.7492,-1.4185
0.006258,0.013275,-0.014231,0.036827,-0.029282,-0.90125,-0.23193,-1.1902,-0.0325,-0.17115,-0.13104,-0.069693,0.10807,-0.098419,-0.03908,-0.4082,-0.0089906,1.1119,0.25266,-0.092924,-0.087586,-0.031173,-1.4353,-1.378
0.0049795,0.010918,-0.0090247,0.03366,-0.13203,-1.1266,-0.19617,-1.161,-0.027446,-0.151,-0.11233,-0.061041,0.16218,-0.10352,-0.036826,-0.32653,-0.030548,0.88825,0.13042,-0.10971,-0.062141,-0.037437,-1.0611,-1.2117
0.0034452,0.01026,-0.0024549,0.030549,-0.18402,-1.2634,-0.16667,-1.0925,-0.021968,-0.12354,-0.090303,-0.04974,0.18995,-0.11007,-0.041428,-0.24658,-0.055269,0.59046,-0.05083,-0.12993,-0.020397,-0.015425,-0.84028,-0.95316
0.0016227,0.010287,0.0040105,0.024388,-0.18059,-1.2969,-0.1516,-0.98811,-0.016768,-0.09458,-0.074283,-0.040778,0.17297,-0.13401,-0.057158,-0.17436,-0.077022,0.31724,-0.27044,-0.15073,0.026225,0.039796,-0.88985,-0.66961
-0.00079504,0.0088842,0.0090827,0.013206,-0.1445,-1.2327,-0.15101,-0.86985,-0.012214,-0.072556,-0.068631,-0.042036,0.12045,-0.17696,-0.0822,-0.11032,-0.090706,0.13803,-0.47997,-0.16633,0.06565,0.10761,-1.1733,-0.428
-0.0043774,0.0047537,0.012236,-0.0016525,-0.10496,-1.0984,-0.16562,-0.7671,-0.0081802,-0.063618,-0.072524,-0.059153,0.058481,-0.22031,-0.10532,-0.053509,-0.093725,0.060411,-0.63246,-0.17094,0.091002,0.1592,-1.5309,-0.26421
-0.0095812,-0.001465,0.014033,-0.016149,-0.07328,-0.94101,-0.20178,-0.7025,-0.0040622,-0.066909,-0.082794,-0.090596,0.0098661,-0.23682,-0.11146,-0.0051848,-0.08657,0.035976,-0.71562,-0.16301,0.10303,0.17882,-1.7725,-0.17303
-0.0162,-0.0078428,0.015861,-0.026609,-0.035798,-0.81415,-0.26283,-0.68303,0.00095064,-0.074325,-0.096579,-0.12648,-0.021379,-0.21247,-0.093258,0.030668,-0.072245,-0.00032049,-0.7604,-0.14682,0.10787,0.17102,-1.7782,-0.12383
-0.022995,-0.012796,0.019023,-0.032608,0.031084,-0.75309,-0.33236,-0.69875,0.0073358,-0.075835,-0.11196,-0.15275,-0.050499,-0.16127,-0.058727,0.049866,-0.054802,-0.085311,-0.81446,-0.12988,0.1119,0.14982,-1.5502,-0.089333
-0.027856,-0.016084,0.023703,-0.037143,0.1382,-0.75107,-0.36748,-0.72693,0.014671,-0.066821,-0.12735,-0.15888,-0.097461,-0.11967,-0.027196,0.051229,-0.037754,-0.20732,-0.89995,-0.11801,0.11733,0.12245,-1.1966,-0.066707
-0.028653,-0.018406,0.028543,-0.043908,0.2729,-0.75592,-0.31626,-0.73866,0.021524,-0.051731,-0.1413,-0.14411,-0.16845,-0.12246,-0.01522,0.038208,-0.023162,-0.32057,-0.9905,-0.11223,0.12109,0.083305,-0.86228,-0.076445
-0.024496,-0.020318,0.031262,-0.053939,0.408,-0.69642,-0.15291,-0.70619,0.02617,-0.040855,-0.15292,-0.11762,-0.24772,-0.1769,-0.023208,0.0181,-0.011784,-0.37904,-1.0276,-0.1095,0.11772,0.023351,-0.64812,-0.14042
-0.01671,-0.021731,0.030051,-0.06443,0.52083,-0.52547,0.094337,-0.6118,0.027842,-0.042371,-0.16177,-0.092009,-0.30656,-0.25475,-0.033964,-0.00039927,-0.0040329,-0.36335,-0.96404,-0.10607,0.10388,-0.054523,-0.56043,-0.25559
-0.0086898,-0.022393,0.024927,-0.070738,0.60574,-0.25222,0.34823,-0.45664,0.027528,-0.055558,-0.16644,-0.07473,-0.32323,-0.30913,-0.025098,-0.0099761,-0.00093337,-0.28544,-0.79931,-0.10044,0.081445,-0.12912,-0.51458,-0.38306
-0.0043643,-0.02258,0.018197,-0.070053,0.67123,0.060162,0.5228,-0.26511,0.027381,-0.070261,-0.16304,-0.063702,-0.29845,-0.305,0.013949,-0.0067729,-0.0043365,-0.17554,-0.58129,-0.094108,0.05677,-0.17057,-0.39025,-0.46218
-0.0059581,-0.023079,0.013541,-0.06389,0.72681,0.33021,0.57357,-0.078711,0.028948,-0.0729,-0.14587,-0.050511,-0.2548,-0.24161,0.073399,0.0086974,-0.016204,-0.067592,-0.37607,-0.090606,0.036571,-0.15954,-0.10808,-0.44188
-0.012456,-0.024458,0.013982,-0.057451,0.77209,0.50238,0.52182,0.061499,0.031682,-0.054525,-0.11101,-0.028258,-0.22093,-0.15115,0.1294,0.031791,-0.037469,0.0069219,-0.23321,-0.094326,0.023262,-0.10211,0.31537,-0.31007
-0.019958,-0.026517,0.019776,-0.056248,0.79648,0.56983,0.43462,0.13578,0.033242,-0.015228,-0.060397,0.0023866,-0.21357,-0.07619,0.15966,0.054972,-0.067211,0.020222,-0.17041,-0.10957,0.013214,-0.029547,0.76767,-0.10252
-0.023938,-0.028561,0.027722,-0.062425,0.78771,0.56364,0.37563,0.15624,0.031599,0.037553,-0.002808,0.033627,-0.23148,-0.043793,0.15612,0.069882,-0.10256,-0.045795,-0.17961,-0.13892,-0.00069301,0.016748,1.0983,0.11414
-0.022062,-0.03015,0.032863,-0.073487,0.74079,0.52178,0.36271,0.15811,0.027163,0.094555,0.049793,0.056549,-0.26403,-0.055368,0.12573,0.069917,-0.13915,-0.18754,-0.23763,-0.18058,-0.023991,0.0056339,1.2026,0.27477
-0.01571,-0.031443,0.031883,-0.084349,0.66048,0.46393,0.36192,0.17622,0.022844,0.14933,0.088224,0.067309,-0.30461,-0.096757,0.080885,0.052678,-0.17186,-0.37272,-0.30807,-0.22648,-0.056627,-0.069377,1.0855,0.3447
-0.0091524,-0.03276,0.025833,-0.091174,0.55699,0.38894,0.31819,0.2236,0.021687,0.19883,0.11,0.068625,-0.35546,-0.15619,0.029093,0.021235,-0.1957,-0.55104,-0.33974,-0.26402,-0.092732,-0.18804,0.86825,0.33007
-0.0068661,-0.033986,0.019727,-0.094093,0.43983,0.29157,0.19649,0.28828,0.024037,0.24082,0.11854,0.066179,-0.41984,-0.23251,-0.029066,-0.016745,-0.20703,-0.68139,-0.27843,-0.28217,-0.12399,-0.3128,0.73385,0.2665
-0.010754,-0.034656,0.018857,-0.096761,0.31467,0.18062,0.0032171,0.34981,0.02684,0.27151,0.11894,0.063812,-0.49004,-0.32685,-0.093151,-0.052033,-0.20493,-0.75724,-0.097344,-0.27858,-0.14396,-0.40423,0.83725,0.19545
-0.019073,-0.034696,0.024565,-0.10318,0.18428,0.083129,-0.22221,0.40028,0.025982,0.28637,0.11401,0.061731,-0.54415,-0.42725,-0.15484,-0.077612,-0.19192,-0.8082,0.17316,-0.26207,-0.15053,-0.43567,1.2246,0.14262
-0.027704,-0.034918,0.033114,-0.11431,0.050977,0.032202,-0.43229,0.45061,0.019842,0.28335,0.10361,0.058644,-0.55651,-0.50276,-0.19712,-0.09088,-0.17304,-0.87251,0.4467,-0.24727,-0.14537,-0.40165,1.8037,0.10972
-0.032827,-0.036524,0.038818,-0.12712,-0.082506,0.048749,-0.59141,0.51666,0.011037,0.26535,0.086812,0.055196,-0.5138,-0.51516,-0.20231,-0.092775,-0.15326,-0.95907,0.62425,-0.24441,-0.13153,-0.31733,2.3845,0.081934
-0.033153,-0.039957,0.038812,-0.13673,-0.21417,0.12851,-0.68048,0.59896,0.0048224,0.23929,0.064286,0.055282,-0.42366,-0.44084,-0.16273,-0.08463,-0.13461,-1.0287,0.65515,-0.25152,-0.1113,-0.20964,2.7729,0.043758
-0.030265,-0.044271,0.035241,-0.1399,-0.34421,0.24012,-0.69209,0.6763,0.0054517,0.21225,0.038689,0.064132,-0.30903,-0.28651,-0.085658,-0.065659,-0.11503,-1.0122,0.57041,-0.25534,-0.085484,-0.10483,2.8675,-0.0079893
-0.027024,-0.047759,0.03299,-0.1372,-0.47465,0.33374,-0.62736,0.72093,0.013532,0.18801,0.013109,0.084942,-0.19398,-0.0879,0.010394,-0.033667,-0.090041,-0.85433,0.46013,-0.24069,-0.054301,-0.018538,2.7016,-0.062473
-0.025349,-0.049288,0.035158,-0.13238,-0.60672,0.35798,-0.49782,0.7222,0.026358,0.1666,-0.010552,0.11684,-0.092749,0.10628,0.10459,0.011277,-0.056326,-0.55457,0.41026,-0.20119,-0.01865,0.047116,2.4041,-0.10428
-0.025039,-0.049087,0.040494,-0.12963,-0.73781,0.28163,-0.32631,0.69659,0.040525,0.14638,-0.031997,0.1556,-0.0093962,0.25346,0.18127,0.063626,-0.014442,-0.17516,0.44691,-0.14344,0.019,0.099166,2.105,-0.12591
-0.024402,-0.048312,0.044997,-0.13105,-0.85995,0.11251,-0.14094,0.67386,0.054181,0.12599,-0.052108,0.19606,0.055107,0.3293,0.2325,0.11336,0.031101,0.18811,0.52935,-0.081767,0.054596,0.1462,1.8527,-0.13354
-0.022043,-0.047971,0.045838,-0.13594,-0.96048,-0.09884,0.035058,0.67118,0.066972,0.10396,-0.072835,0.2344,0.097275,0.33086,0.25671,0.15153,0.074283,0.45216,0.59113,-0.028423,0.083305,0.19232,1.5982,-0.14243
-0.018293,-0.048314,0.043815,-0.14211,-1.0242,-0.27978,0.18813,0.67838,0.07816,0.077304,-0.09745,0.26846,0.11235,0.27414,0.25693,0.17614,0.11028,0.57983,0.58982,0.012755,0.10094,0.23542,1.2525,-0.16643
-0.015175,-0.049134,0.042186,-0.14785,-1.036,-0.37478,0.30919,0.66777,0.085293,0.042033,-0.12985,0.29673,0.099357,0.18902,0.23996,0.19329,0.13634,0.58262,0.52424,0.044915,0.1056,0.26932,0.7672,-0.21018
-0.014976,-0.050374,0.043373,-0.15279,-0.98402,-0.38034,0.38478,0.62002,0.08522,-0.0028082,-0.17207,0.31718,0.062914,0.1105,0.21558,0.21187,0.15086,0.4982,0.41217,0.071565,0.098812,0.28796,0.17719,-0.26917
-0.018585,-0.052227,0.046792,-0.15729,-0.86445,-0.34939,0.39637,0.54355,0.076757,-0.050375,-0.22134,0.32761,0.0086919,0.066068,0.1939,0.23627,0.15241,0.36357,0.25947,0.091447,0.085211,0.28917,-0.4172,-0.33577
-0.024794,-0.054637,0.049623,-0.1611,-0.68729,-0.35704,0.33202,0.47143,0.062368,-0.085668,-0.26989,0.32731,-0.062532,0.063665,0.18139,0.26331,0.14065,0.20262,0.055885,0.099535,0.070431,0.27644,-0.90418,-0.40474
-0.030981,-0.056904,0.049403,-0.16296,-0.47936,-0.44884,0.20149,0.43941,0.046868,-0.092507,-0.3091,0.31874,-0.15475,0.088321,0.17784,0.28641,0.11833,0.031118,-0.198,0.092812,0.058155,0.25723,-1.2056,-0.4741
-0.034555,-0.058004,0.04588,-0.16143,-0.27973,-0.60859,0.04014,0.46351,0.03388,-0.064721,-0.33582,0.30738,-0.26855,0.11187,0.17714,0.30327,0.092176,-0.13269,-0.46271,0.075259,0.048193,0.23817,-1.2916,-0.54206
-0.034244,-0.057408,0.040693,-0.15641,-0.12604,-0.77023,-0.10466,0.53382,0.023164,-0.013682,-0.35573,0.29929,-0.3919,0.11065,0.17168,0.31967,0.070636,-0.26609,-0.66514,0.057481,0.037146,0.21983,-1.1765,-0.60469
-0.030572,-0.055582,0.035642,-0.14973,-0.037334,-0.86546,-0.19591,0.62617,0.011408,0.034593,-0.3801,0.2978,-0.49979,0.07935,0.15744,0.34533,0.059428,-0.35156,-0.74064,0.051247,0.021462,0.19517,-0.91728,-0.65722
-0.025432,-0.053633,0.031357,-0.14385,-0.004541,-0.87092,-0.22137,0.71997,-0.0039332,0.052601,-0.41758,0.30158,-0.56607,0.031399,0.13625,0.38437,0.058411,-0.38842,-0.67913,0.063259,0.00079194,0.15424,-0.61428,-0.69776
-0.021046,-0.052374,0.027333,-0.1397,0.0030729,-0.81953,-0.1901,0.80894,-0.021192,0.026797,-0.4672,0.30585,-0.57934,-0.012986,0.11369,0.42827,0.062545,-0.39382,-0.53608,0.092417,-0.020827,0.092623,-0.39444,-0.72937
-0.018748,-0.051615,0.022948,-0.13549,0.017907,-0.76876,-0.11548,0.90024,-0.034738,-0.034975,-0.51816,0.30578,-0.55013,-0.040775,0.094432,0.45761,0.066359,-0.39039,-0.39783,0.13157,-0.036893,0.017261,-0.36617,-0.75808
-0.018205,-0.050258,0.018389,-0.12782,0.054039,-0.75154,0.00076399,1.0067,-0.039023,-0.10898,-0.55634,0.2998,-0.50242,-0.051356,0.078916,0.45247,0.068118,-0.39031,-0.32864,0.17154,-0.042126,-0.055949,-0.56587,-0.78868
-0.017628,-0.047108,0.014779,-0.11447,0.10202,-0.74697,0.17119,1.1388,-0.032993,-0.16978,-0.57217,0.2903,-0.45586,-0.050744,0.064023,0.40511,0.070139,-0.38944,-0.33898,0.20467,-0.03534,-0.1118,-0.93665,-0.82255
-0.015074,-0.04182,0.013488,-0.096543,0.142,-0.69099,0.41019,1.3002,-0.020959,-0.20322,-0.56382,0.28169,-0.41299,-0.041968,0.04729,0.32684,0.075224,-0.37584,-0.39342,0.22662,-0.019713,-0.14497,-1.3612,-0.85959
-0.010053,-0.035321,0.015023,-0.078203,0.16353,-0.51689,0.71524,1.485,-0.0091713,-0.20988,-0.53436,0.27711,-0.36178,-0.021162,0.030896,0.24486,0.082842,-0.34356,-0.44337,0.23684,-0.00059125,-0.1603,-1.7262,-0.90185
-0.004162,-0.029382,0.018153,-0.063824,0.17491,-0.19682,1.0537,1.6778,-0.0011925,-0.19885,-0.48703,0.27651,-0.29069,0.017247,0.021522,0.1904,0.088805,-0.29844,-0.4547,0.23819,0.017433,-0.16294,-1.9687,-0.95392
