-5.9808e-011,8.161e-010,1.4412e-009,-4.1094e-010,2.375e-009,1.9042e-009,-5.73e-010,5.7551e-009,8.3925e-010,5.8323e-009,2.0071e-008,-4.8985e-009,-7.8774e-009,2.564e-009,-1.6013e-010,-2.3981e-009,-5.0355e-010,7.4259e-009,1.0023e-008,-3.6078e-010,8.8555e-010,3.4014e-009,4.4374e-011,1.256e-009
-1.6797e-009,2.2548e-008,3.9702e-008,-1.1522e-008,6.5687e-008,5.2239e-008,-1.678e-008,1.5974e-007,2.2856e-008,1.6067e-007,5.5404e-007,-1.3472e-007,-2.1848e-007,6.8739e-008,-4.0662e-009,-6.5956e-008,-1.3703e-008,2.0777e-007,2.7661e-007,-9.8539e-009,2.4251e-008,9.4459e-008,9.2097e-009,3.4719e-008
-2.291e-008,3.028e-007,5.3151e-007,-1.5704e-007,8.8326e-007,6.9565e-007,-2.3974e-007,2.1559e-006,3.0176e-007,2.1505e-006,7.4329e-006,-1.8005e-006,-2.9457e-006,8.9257e-007,-4.9191e-008,-8.8183e-007,-1.8157e-007,2.829e-006,3.711e-006,-1.3097e-007,3.2238e-007,1.2759e-006,2.4397e-007,4.6645e-007
-2.023e-007,2.633e-006,4.6068e-006,-1.3865e-006,7.6924e-006,5.9897e-006,-2.2276e-006,1.8852e-005,2.5713e-006,1.8627e-005,6.4558e-005,-1.5579e-005,-2.5723e-005,7.4727e-006,-3.7472e-007,-7.6367e-006,-1.5612e-006,2.4977e-005,3.2245e-005,-1.1298e-006,2.7706e-006,1.1168e-005,3.3019e-006,4.0574e-006
-1.3011e-006,1.6658e-005,2.9051e-005,-8.9141e-006,4.8768e-005,3.7464e-005,-1.5138e-005,0.00012004,1.5877e-005,0.00011734,0.00040794,-9.8084e-005,-0.00016348,4.5286e-005,-1.9927e-006,-4.8158e-005,-9.7955e-006,0.00016075,0.00020395,-7.1166e-006,1.7293e-005,7.1209e-005,2.9383e-005,2.5678e-005
-6.5004e-006,8.1685e-005,0.00014201,-4.4479e-005,0.00023977,0.00018129,-8.0216e-005,0.000593,7.5592e-005,0.00057258,0.0019979,-0.00047881,-0.00080555,0.00021133,-7.6742e-006,-0.00023568,-4.7798e-005,0.00080371,0.0010005,-3.4936e-005,8.347e-005,0.00035245,0.00019184,0.00012593
-2.628e-005,0.00032283,0.00055968,-0.00017924,0.0009509,0.00070556,-0.00034505,0.0023644,0.00028807,0.0022506,0.007886,-0.0018855,-0.0032007,0.00078808,-2.0903e-005,-0.00093154,-0.00018876,0.0032484,0.0039594,-0.00013931,0.00032379,0.0014088,0.00097707,0.00049759
-8.8434e-005,0.0010554,0.0018258,-0.00059931,0.0031229,0.0022659,-0.0012383,0.0078127,0.00089963,0.0073138,0.025751,-0.0061509,-0.010525,0.0024029,-3.2977e-005,-0.0030553,-0.00061973,0.010903,0.012978,-0.0004644,0.0010351,0.0046707,0.004035,0.0016255
-0.00025288,0.0029059,0.005021,-0.0016949,0.0086489,0.0061093,-0.0037806,0.021793,0.0023345,0.020005,0.070818,-0.016941,-0.029164,0.0060666,2.2269e-005,-0.0084783,-0.0017235,0.030975,0.035882,-0.0013222,0.0027723,0.013087,0.013873,0.0044667
-0.00062441,0.0068207,0.011791,-0.0041122,0.020455,0.013985,-0.0099628,0.051986,0.0050617,0.046628,0.16604,-0.039936,-0.068926,0.012717,0.00036568,-0.020192,-0.0041136,0.075528,0.084743,-0.0032682,0.006282,0.03141,0.040461,0.010444
-0.0013489,0.013754,0.023851,-0.0086503,0.041652,0.027351,-0.022906,0.107,0.0091273,0.09336,0.33445,-0.081394,-0.14001,0.021885,0.0015008,-0.041726,-0.0085001,0.15967,0.17236,-0.007102,0.012086,0.065185,0.10147,0.020917
-0.0025785,0.023914,0.041787,-0.015905,0.07334,0.045743,-0.046313,0.19101,0.01339,0.1613,0.58075,-0.14451,-0.24525,0.029671,0.0042621,-0.075445,-0.015275,0.29479,0.3031,-0.013699,0.019659,0.11771,0.22092,0.035965
-0.0044074,0.035823,0.063557,-0.025728,0.11168,0.065047,-0.082837,0.29635,0.014948,0.24075,0.86827,-0.22481,-0.36992,0.027343,0.0095967,-0.12016,-0.023869,0.47763,0.46061,-0.023608,0.026565,0.18557,0.4203,0.053006
-0.0068084,0.045927,0.083885,-0.036826,0.14638,0.077326,-0.13165,0.39886,0.0096378,0.30987,1.1092,-0.30807,-0.47661,0.0027374,0.017962,-0.16954,-0.032213,0.68112,0.60062,-0.036473,0.028383,0.25563,0.70113,0.066698
-0.0096125,0.049583,0.095786,-0.046965,0.16305,0.073716,-0.18665,0.46273,-0.0058086,0.34258,1.1886,-0.37426,-0.51453,-0.054176,0.028528,-0.21308,-0.03684,0.85587,0.65954,-0.050501,0.020194,0.30702,1.0256,0.0718
-0.012555,0.043486,0.094249,-0.05395,0.15032,0.049896,-0.23737,0.45684,-0.030637,0.32468,1.0236,-0.40758,-0.4456,-0.14318,0.038738,-0.24006,-0.033994,0.94743,0.58202,-0.062353,-0.00056929,0.31997,1.3102,0.069106
-0.015354,0.028222,0.079985,-0.056947,0.1081,0.010821,-0.27391,0.37543,-0.058205,0.26788,0.62717,-0.40629,-0.27534,-0.24812,0.044884,-0.24448,-0.021507,0.92317,0.35538,-0.067849,-0.031573,0.28754,1.4459,0.071373
-0.017761,0.0088775,0.06011,-0.057198,0.051064,-0.029667,-0.29443,0.24843,-0.077822,0.2079,0.12575,-0.38419,-0.065493,-0.33902,0.043744,-0.2278,-0.00044875,0.79176,0.027068,-0.063571,-0.065562,0.22238,1.3466,0.10367
-0.019555,-0.0074711,0.04423,-0.057363,0.0026697,-0.055882,-0.3106,0.12969,-0.080558,0.18208,-0.30094,-0.36042,0.088951,-0.38344,0.034419,-0.19744,0.024657,0.59946,-0.31347,-0.048865,-0.093813,0.15181,1.0024,0.19384
-0.020524,-0.01613,0.038072,-0.059674,-0.018184,-0.06014,-0.3457,0.06648,-0.065773,0.19991,-0.52929,-0.34436,0.11167,-0.36192,0.018929,-0.16241,0.047547,0.40256,-0.58282,-0.027111,-0.11121,0.10212,0.50264,0.35504
-0.020505,-0.017783,0.039537,-0.06415,-0.0090499,-0.048097,-0.42302,0.070025,-0.043242,0.23118,-0.57299,-0.32851,-0.0066014,-0.27845,0.00082265,-0.12977,0.063043,0.23526,-0.74983,-0.0050299,-0.11922,0.082315,0.0017107,0.56976
-0.019484,-0.017469,0.040788,-0.068331,0.014951,-0.034728,-0.54947,0.10919,-0.028024,0.2263,-0.56686,-0.29655,-0.19975,-0.15984,-0.017333,-0.10388,0.0692,0.096911,-0.84423,0.010287,-0.12402,0.078957,-0.36415,0.78745
-0.017641,-0.020063,0.035079,-0.068943,0.032575,-0.03341,-0.70422,0.13382,-0.030623,0.15652,-0.65751,-0.2405,-0.36804,-0.044216,-0.035387,-0.087497,0.067355,-0.03254,-0.9183,0.015358,-0.13082,0.06658,-0.5626,0.94118
-0.015278,-0.025999,0.02267,-0.064372,0.032086,-0.046566,-0.842,0.11067,-0.049347,0.040571,-0.88505,-0.17122,-0.44141,0.03472,-0.054329,-0.081407,0.060224,-0.16472,-0.99048,0.012833,-0.1387,0.025855,-0.69618,0.97629
-0.012697,-0.031071,0.010554,-0.056047,0.018768,-0.065291,-0.91236,0.044637,-0.070939,-0.067944,-1.153,-0.1114,-0.41745,0.060513,-0.072969,-0.081783,0.049742,-0.2889,-1.0181,0.010494,-0.14029,-0.043894,-0.94824,0.87475
-0.010188,-0.030642,0.0060883,-0.047556,0.0084435,-0.07776,-0.88562,-0.030087,-0.079418,-0.1245,-1.3112,-0.076256,-0.34707,0.039847,-0.085568,-0.07848,0.036503,-0.38416,-0.92503,0.016876,-0.12663,-0.12612,-1.4674,0.66079
-0.0081386,-0.024533,0.010176,-0.042109,0.012777,-0.078839,-0.76973,-0.079438,-0.066614,-0.13086,-1.2783,-0.059186,-0.2833,0.00070607,-0.083348,-0.058318,0.021082,-0.444,-0.66645,0.036141,-0.093353,-0.19934,-2.2596,0.38627
-0.0070176,-0.017962,0.0162,-0.040289,0.028861,-0.072984,-0.60698,-0.094448,-0.036487,-0.1306,-1.0991,-0.035789,-0.23799,-0.017012,-0.059906,-0.013273,0.0056867,-0.4872,-0.27874,0.065636,-0.043214,-0.24951,-3.158,0.10717
-0.0070029,-0.017362,0.015715,-0.039872,0.041485,-0.069237,-0.4511,-0.092979,-0.0003848,-0.16481,-0.89105,0.016728,-0.18179,0.022603,-0.016971,0.052342,-0.00585,-0.54166,0.12636,0.0978,0.016433,-0.27403,-3.897,-0.13341
-0.0074791,-0.02463,0.0057414,-0.037757,0.035391,-0.074159,-0.3378,-0.1007,0.032269,-0.22799,-0.73492,0.10162,-0.083083,0.13344,0.034147,0.12271,-0.010207,-0.61559,0.42286,0.12493,0.078237,-0.27758,-4.2472,-0.30913
-0.0070277,-0.034955,-0.0088671,-0.032394,0.0067369,-0.089073,-0.26589,-0.13027,0.060026,-0.26632,-0.6123,0.20084,0.052149,0.29609,0.077305,0.18046,-0.0071438,-0.68447,0.54295,0.14334,0.13705,-0.26642,-4.1288,-0.40652
-0.0043133,-0.040365,-0.019903,-0.024698,-0.035244,-0.11218,-0.19901,-0.1756,0.087635,-0.22358,-0.44162,0.28888,0.17659,0.46225,0.099694,0.21865,-0.00013857,-0.70932,0.50883,0.1542,0.18824,-0.2468,-3.6361,-0.42343
0.00063665,-0.03608,-0.022876,-0.016824,-0.07614,-0.14057,-0.086017,-0.22211,0.11878,-0.095929,-0.17323,0.34831,0.23734,0.57579,0.09793,0.24493,0.0057594,-0.67245,0.40449,0.16096,0.22494,-0.22678,-2.9677,-0.37384
0.0059609,-0.024283,-0.020353,-0.010039,-0.10575,-0.16799,0.11221,-0.25954,0.15019,0.053172,0.14799,0.37433,0.21912,0.59997,0.078047,0.27393,0.0072978,-0.59887,0.3132,0.16597,0.23827,-0.21674,-2.3172,-0.29191
0.0090657,-0.012219,-0.018991,-0.0035917,-0.12113,-0.18017,0.40358,-0.28512,0.17231,0.13323,0.4088,0.36858,0.15737,0.53433,0.050073,0.31383,0.0049456,-0.54244,0.26885,0.16881,0.22169,-0.22542,-1.795,-0.2243
0.0086385,-0.0064429,-0.02341,0.0044478,-0.12265,-0.15465,0.76158,-0.29658,0.17592,0.090092,0.51541,0.33281,0.11099,0.41178,0.021881,0.35821,0.0019441,-0.54611,0.25309,0.16751,0.17605,-0.25387,-1.411,-0.20788
0.0058361,-0.0081355,-0.032515,0.015238,-0.10906,-0.069486,1.137,-0.28546,0.15881,-0.058271,0.46344,0.27066,0.11876,0.2799,-0.0029599,0.39008,0.0014908,-0.60865,0.23215,0.161,0.1109,-0.29256,-1.1019,-0.24447
0.0034341,-0.013148,-0.041142,0.027866,-0.077391,0.08213,1.4771,-0.2401,0.12702,-0.2398,0.33275,0.19421,0.17518,0.18067,-0.02254,0.3949,0.0044707,-0.68483,0.1981,0.15092,0.040579,-0.32473,-0.76405,-0.29236
0.0035484,-0.016097,-0.044959,0.039848,-0.027988,0.2812,1.7416,-0.15688,0.090033,-0.38148,0.22025,0.12429,0.24217,0.13946,-0.032945,0.37199,0.0093414,-0.71848,0.18068,0.1411,-0.021641,-0.33433,-0.28097,-0.28719
0.005935,-0.014551,-0.044013,0.048973,0.03096,0.48499,1.9108,-0.049348,0.054344,-0.45336,0.17313,0.079258,0.28295,0.16335,-0.02844,0.3353,0.013676,-0.68129,0.22336,0.1353,-0.066961,-0.31379,0.44047,-0.1842
0.0084071,-0.0098585,-0.042093,0.05499,0.084836,0.64306,1.9838,0.054175,0.020694,-0.47294,0.17457,0.059851,0.28919,0.24125,-0.0067175,0.30326,0.015564,-0.58801,0.3463,0.13469,-0.09046,-0.26729,1.4154,0.0042994
0.0089515,-0.004596,-0.043039,0.05984,0.11995,0.71909,1.9712,0.12423,-0.013424,-0.47514,0.18021,0.044801,0.28301,0.34221,0.025037,0.28606,0.013732,-0.47982,0.52663,0.13672,-0.089104,-0.2087,2.5356,0.20436
0.0075975,0.00034685,-0.047583,0.066311,0.1314,0.70627,1.8864,0.14538,-0.049093,-0.47951,0.16228,0.0047976,0.29772,0.41798,0.049726,0.28012,0.006981,-0.39294,0.71025,0.13631,-0.061746,-0.15489,3.5852,0.31709
0.0064132,0.0061987,-0.053258,0.07613,0.12526,0.62777,1.7402,0.12203,-0.083482,-0.48096,0.12278,-0.073425,0.3552,0.41819,0.048473,0.27311,-0.0056315,-0.33743,0.84353,0.12873,-0.011352,-0.11713,4.3353,0.27646
0.0077674,0.014172,-0.056952,0.088764,0.11356,0.52231,1.5389,0.071638,-0.11128,-0.46455,0.074792,-0.17095,0.4547,0.31608,0.012992,0.25437,-0.023432,-0.29901,0.90007,0.1126,0.053775,-0.093882,4.669,0.090601
0.012438,0.023243,-0.057483,0.10163,0.10594,0.42352,1.2875,0.011255,-0.12805,-0.42419,0.020808,-0.24189,0.57496,0.12844,-0.046834,0.22243,-0.042927,-0.25702,0.88488,0.091136,0.12264,-0.069586,4.6426,-0.16242
0.019045,0.030261,-0.056055,0.11154,0.10409,0.3453,0.99392,-0.052325,-0.13234,-0.3673,-0.047902,-0.23799,0.68313,-0.088631,-0.10683,0.18456,-0.058486,-0.20195,0.81778,0.070725,0.18676,-0.022217,4.4287,-0.3828
0.025011,0.032424,-0.054583,0.1165,0.10241,0.28103,0.67412,-0.12243,-0.12518,-0.30503,-0.13421,-0.13679,0.74501,-0.27002,-0.14211,0.15045,-0.065048,-0.14131,0.71284,0.057461,0.24315,0.062584,4.182,-0.50863
0.028153,0.029849,-0.053815,0.1168,0.093458,0.21556,0.35172,-0.20356,-0.1083,-0.24253,-0.22267,0.044384,0.7357,-0.3774,-0.14091,0.12648,-0.060917,-0.093902,0.57027,0.053697,0.29178,0.17906,3.9376,-0.54625
0.027821,0.025864,-0.05301,0.11481,0.07399,0.14033,0.053244,-0.291,-0.083279,-0.1799,-0.28633,0.25678,0.65047,-0.41319,-0.10851,0.11507,-0.04836,-0.079289,0.38413,0.056799,0.32934,0.29991,3.6253,-0.55238
0.025076,0.024669,-0.051313,0.11359,0.047198,0.060628,-0.1994,-0.36739,-0.052185,-0.12069,-0.30543,0.44521,0.51062,-0.4022,-0.059376,0.11865,-0.031697,-0.10795,0.1565,0.060764,0.34573,0.38872,3.1808,-0.58493
0.021978,0.028258,-0.049236,0.11514,0.020099,-0.0097018,-0.39404,-0.40983,-0.018495,-0.075428,-0.27854,0.57478,0.35787,-0.35928,-0.004961,0.14292,-0.014852,-0.17402,-0.09441,0.059395,0.32764,0.41896,2.6411,-0.66109
0.020405,0.03503,-0.048579,0.11941,-0.0019535,-0.060776,-0.52782,-0.40394,0.013116,-0.05366,-0.21667,0.64416,0.23599,-0.27416,0.051715,0.19488,-0.00054714,-0.25228,-0.33705,0.048797,0.26768,0.38674,2.1329,-0.75256
0.021051,0.041085,-0.050665,0.12462,-0.019713,-0.095701,-0.60309,-0.35597,0.038314,-0.05137,-0.12942,0.67851,0.16934,-0.12978,0.11031,0.27558,0.0087639,-0.3031,-0.53571,0.027836,0.17191,0.30943,1.7609,-0.81655
0.023232,0.043108,-0.05454,0.1284,-0.040207,-0.12875,-0.62402,-0.29389,0.054776,-0.047726,-0.019306,0.7075,0.15263,0.062138,0.16244,0.37322,0.010255,-0.28723,-0.65897,-0.0029042,0.05976,0.21323,1.507,-0.83315
0.025671,0.040656,-0.057087,0.12918,-0.072149,-0.17456,-0.59744,-0.25482,0.062858,-0.017476,0.11034,0.74305,0.15974,0.24363,0.18789,0.46318,0.0021059,-0.18552,-0.68517,-0.042112,-0.043879,0.12069,1.242,-0.81798
0.027619,0.036284,-0.055342,0.12676,-0.11949,-0.23756,-0.53603,-0.2652,0.065152,0.049388,0.24452,0.77201,0.16508,0.33414,0.16421,0.51772,-0.013978,-0.011563,-0.6082,-0.087644,-0.11863,0.046928,0.8437,-0.80272
0.029265,0.033649,-0.049135,0.12219,-0.17769,-0.30988,-0.4594,-0.32624,0.065586,0.13714,0.35661,0.76867,0.16088,0.28276,0.084394,0.52051,-0.032088,0.19262,-0.44595,-0.13586,-0.15463,0.0034315,0.31116,-0.80397
0.030971,0.03508,-0.041586,0.11712,-0.23584,-0.37848,-0.39093,-0.41466,0.06849,0.21288,0.42179,0.71725,0.15722,0.109,-0.031372,0.47655,-0.045202,0.37651,-0.24655,-0.18168,-0.15269,0.00086966,-0.23576,-0.80878
0.032157,0.040303,-0.036734,0.11317,-0.28332,-0.43449,-0.35211,-0.49856,0.077454,0.24891,0.43161,0.6261,0.16576,-0.10219,-0.14109,0.40982,-0.050341,0.50327,-0.08208,-0.2199,-0.12156,0.044322,-0.67537,-0.78814
0.031265,0.046932,-0.036235,0.11135,-0.31615,-0.47688,-0.35837,-0.55739,0.093837,0.24227,0.39575,0.52122,0.18203,-0.25032,-0.20224,0.34896,-0.051407,0.55997,-0.024362,-0.24698,-0.075412,0.12378,-1.0082,-0.72441
0.027241,0.052087,-0.038095,0.11151,-0.33791,-0.50853,-0.41698,-0.5917,0.11547,0.21754,0.32902,0.42328,0.18233,-0.27823,-0.19524,0.31035,-0.05663,0.55237,-0.11153,-0.26206,-0.031833,0.21009,-1.3618,-0.62769
0.021242,0.053879,-0.038642,0.11212,-0.35461,-0.52965,-0.52405,-0.61623,0.13662,0.21113,0.23597,0.32686,0.13929,-0.1981,-0.13341,0.29013,-0.07216,0.49319,-0.32604,-0.26688,-0.0081837,0.26392,-1.8603,-0.52761
0.016546,0.05196,-0.03595,0.11071,-0.36787,-0.53532,-0.65929,-0.64261,0.14988,0.24888,0.10801,0.20076,0.044813,-0.070762,-0.053272,0.27084,-0.097072,0.39539,-0.6022,-0.26544,-0.015654,0.25483,-2.4707,-0.44931
0.016159,0.04722,-0.031496,0.10515,-0.37268,-0.51931,-0.78391,-0.66602,0.14916,0.33214,-0.063072,0.012271,-0.07745,0.040119,0.0073488,0.23711,-0.12411,0.2731,-0.86266,-0.26373,-0.053855,0.17778,-2.9745,-0.39511
0.019979,0.041158,-0.028484,0.09513,-0.36167,-0.48038,-0.85049,-0.66634,0.13228,0.43996,-0.26604,-0.24091,-0.17989,0.1025,0.028664,0.18788,-0.14539,0.14355,-1.0618,-0.26885,-0.11053,0.055241,-3.1089,-0.34672
0.024343,0.035356,-0.02846,0.082882,-0.33237,-0.42497,-0.82664,-0.62263,0.10177,0.54361,-0.46283,-0.51508,-0.21478,0.11872,0.014831,0.13592,-0.15783,0.023301,-1.2063,-0.28622,-0.16804,-0.076923,-2.7804,-0.28446
0.024856,0.031019,-0.029533,0.07221,-0.29078,-0.36387,-0.71951,-0.52913,0.063675,0.62255,-0.60153,-0.73432,-0.15929,0.10498,-0.014152,0.095752,-0.16323,-0.078822,-1.3379,-0.31531,-0.2131,-0.18941,-2.1771,-0.20608
0.020282,0.028555,-0.028001,0.066233,-0.24817,-0.30574,-0.58004,-0.40039,0.025306,0.67223,-0.64322,-0.82676,-0.027497,0.071732,-0.036625,0.070669,-0.16339,-0.16289,-1.4903,-0.34718,-0.24291,-0.27129,-1.6764,-0.13012
0.013905,0.0274,-0.021896,0.065233,-0.21392,-0.25306,-0.47565,-0.26256,-0.0068698,0.70188,-0.58466,-0.76096,0.13634,0.020899,-0.040305,0.050036,-0.15547,-0.22867,-1.6517,-0.36683,-0.26372,-0.32664,-1.5983,-0.082748
0.010821,0.026456,-0.013094,0.066227,-0.19052,-0.20368,-0.44522,-0.1383,-0.028614,0.72676,-0.46055,-0.5612,0.27864,-0.043672,-0.025678,0.018691,-0.13285,-0.26344,-1.7601,-0.36066,-0.28308,-0.36092,-1.9772,-0.07985
0.013333,0.024999,-0.005952,0.06476,-0.17446,-0.15615,-0.46886,-0.036903,-0.038472,0.7605,-0.32203,-0.29426,0.36105,-0.10822,-0.0027833,-0.029888,-0.091428,-0.2404,-1.7371,-0.32435,-0.30237,-0.3696,-2.5174,-0.11781
0.018603,0.023347,-0.0036937,0.057799,-0.16148,-0.1136,-0.47907,0.044686,-0.037753,0.80977,-0.20509,-0.037469,0.37693,-0.15318,0.014991,-0.087953,-0.035521,-0.13357,-1.5359,-0.2655,-0.31516,-0.33888,-2.7706,-0.17719
0.020902,0.022526,-0.0057688,0.045709,-0.15056,-0.082586,-0.40897,0.11329,-0.030098,0.8707,-0.10982,0.15351,0.3513,-0.16495,0.017028,-0.13972,0.022712,0.060619,-1.1709,-0.19884,-0.31245,-0.25825,-2.4164,-0.23326
0.016659,0.023036,-0.0084722,0.031902,-0.14341,-0.067582,-0.24288,0.17191,-0.02067,0.92681,-0.0050019,0.26171,0.32322,-0.14347,-0.0002589,-0.17379,0.070755,0.31315,-0.71095,-0.13745,-0.29007,-0.13484,-1.4585,-0.26441
0.0078436,0.023832,-0.0081172,0.020454,-0.14034,-0.065876,-0.030014,0.2189,-0.015009,0.95107,0.14494,0.30566,0.31947,-0.099271,-0.032124,-0.19144,0.10408,0.57295,-0.24271,-0.086658,-0.25231,0.0024731,-0.21038,-0.25505
0.00053004,0.022662,-0.0039314,0.0135,-0.13739,-0.067496,0.14958,0.25259,-0.017636,0.91461,0.34987,0.32193,0.33581,-0.044893,-0.067794,-0.20503,0.12816,0.79023,0.16837,-0.044464,-0.20906,0.11405,0.90405,-0.19592
-0.00026216,0.017785,0.001665,0.010257,-0.12769,-0.060949,0.24025,0.27536,-0.030651,0.80059,0.58244,0.34504,0.33942,0.0099052,-0.09564,-0.22909,0.15236,0.93477,0.49516,-0.0069362,-0.16925,0.16926,1.5887,-0.086263
0.004994,0.009714,0.0053305,0.0081714,-0.10644,-0.040764,0.24498,0.29259,-0.052776,0.61561,0.79328,0.39451,0.29275,0.055598,-0.10876,-0.27211,0.18099,0.99834,0.7391,0.026622,-0.13575,0.16197,1.7944,0.062548
0.010548,0.0013153,0.0055085,0.0049983,-0.075229,-0.011156,0.21547,0.30734,-0.07944,0.38996,0.94106,0.47296,0.18255,0.078397,-0.10781,-0.33423,0.20931,0.98645,0.90942,0.052794,-0.10554,0.11141,1.6625,0.2265
0.010136,-0.0040814,0.0034163,7.4816e-005,-0.042158,0.017,0.21075,0.31602,-0.10425,0.16425,1.0145,0.57167,0.032049,0.061813,-0.099546,-0.41048,0.22738,0.9126,1.0115,0.067244,-0.07424,0.048338,1.37,0.37569
0.002256,-0.0051887,0.0018284,-0.006017,-0.017608,0.033605,0.25893,0.30959,-0.12154,-0.030863,1.0307,0.67704,-0.11389,-0.0041434,-0.09217,-0.49426,0.22832,0.80001,1.0516,0.068506,-0.040573,-0.0037801,1.0115,0.48661
-0.0085442,-0.0037956,0.0028994,-0.012708,-0.0086221,0.035511,0.34841,0.27971,-0.1287,-0.18871,1.0123,0.77353,-0.22014,-0.11311,-0.090531,-0.57791,0.21354,0.68261,1.0481,0.059242,-0.0071138,-0.039757,0.5988,0.55261
-0.015385,-0.0033886,0.0067353,-0.020216,-0.015517,0.027013,0.44684,0.22496,-0.12703,-0.32529,0.96468,0.84359,-0.28492,-0.24083,-0.093986,-0.65145,0.19123,0.59414,1.032,0.044651,0.022864,-0.069841,0.14462,0.58531
-0.014593,-0.0064452,0.011556,-0.029125,-0.032344,0.014877,0.52514,0.15251,-0.1204,-0.46368,0.86915,0.86881,-0.33734,-0.35435,-0.097654,-0.70347,0.17003,0.54822,1.0323,0.030021,0.048967,-0.10694,-0.26982,0.60578
-0.0084398,-0.012648,0.015035,-0.039307,-0.050358,0.0024639,0.56636,0.074259,-0.11249,-0.61539,0.69905,0.83526,-0.41123,-0.42561,-0.095773,-0.72573,0.15374,0.52696,1.0568,0.019263,0.07419,-0.15407,-0.51713,0.63116
-0.0030086,-0.019478,0.015719,-0.04944,-0.06222,-0.012075,0.55937,0.0012278,-0.10456,-0.77206,0.44383,0.74122,-0.51642,-0.43999,-0.084908,-0.71845,0.14085,0.49332,1.0872,0.01452,0.10199,-0.20046,-0.51183,0.66521
-0.0032065,-0.024562,0.013651,-0.057681,-0.064864,-0.032331,0.49231,-0.060077,-0.09516,-0.91309,0.1244,0.60161,-0.62981,-0.39624,-0.065161,-0.6911,0.12796,0.42084,1.0953,0.01594,0.13277,-0.22751,-0.27565,0.69761
-0.0091175,-0.027605,0.010021,-0.062994,-0.060067,-0.058237,0.35794,-0.10803,-0.081931,-1.0231,-0.20974,0.44427,-0.71191,-0.30165,-0.039,-0.65693,0.11302,0.31438,1.068,0.021268,0.16302,-0.21944,0.08339,0.71073
-0.01644,-0.030219,0.0063737,-0.065966,-0.052961,-0.08366,0.16693,-0.1449,-0.064371,-1.1057,-0.4977,0.29889,-0.7342,-0.1698,-0.0088641,-0.62499,0.095568,0.20052,1.0201,0.026157,0.18751,-0.17179,0.45358,0.68877
-0.020242,-0.033933,0.0040071,-0.068469,-0.0495,-0.099248,-0.046407,-0.17634,-0.04547,-1.1827,-0.68827,0.18459,-0.69584,-0.022833,0.024311,-0.59613,0.075026,0.095215,0.98319,0.026099,0.20248,-0.093541,0.78021,0.62478
-0.018746,-0.038437,0.0038159,-0.0725,-0.053971,-0.098398,-0.23578,-0.21058,-0.031005,-1.2774,-0.75623,0.10364,-0.61897,0.10704,0.060119,-0.56605,0.04988,-0.018631,0.97894,0.019361,0.20718,-0.003003,1.0487,0.52429
-0.014283,-0.041773,0.0062922,-0.079022,-0.067254,-0.081715,-0.3659,-0.25527,-0.026612,-1.3946,-0.70961,0.044065,-0.52949,0.18393,0.09589,-0.53228,0.019359,-0.17667,0.99905,0.0087429,0.20356,0.080055,1.221,0.40537
-0.011103,-0.042271,0.011273,-0.087463,-0.086133,-0.056598,-0.4294,-0.31192,-0.034248,-1.5113,-0.58626,-0.011594,-0.44061,0.18307,0.12487,-0.49845,-0.014284,-0.39076,1.0094,0.00021333,0.19549,0.14218,1.2086,0.29486
-0.012123,-0.040248,0.017498,-0.09599,-0.10381,-0.032367,-0.44535,-0.37128,-0.050252,-1.5871,-0.43931,-0.077716,-0.35053,0.10525,0.13825,-0.47187,-0.045911,-0.61876,0.97492,-0.0012228,0.18837,0.1805,0.92984,0.22004
-0.017128,-0.03779,0.022638,-0.10233,-0.11189,-0.014598,-0.44222,-0.41487,-0.066493,-1.5882,-0.31526,-0.16199,-0.25247,-0.020852,0.13079,-0.45718,-0.070764,-0.78087,0.88615,0.0044246,0.1884,0.20139,0.40654,0.1977
-0.023378,-0.036868,0.024337,-0.10486,-0.10381,-0.002713,-0.44021,-0.42382,-0.074247,-1.5098,-0.23516,-0.267,-0.14598,-0.15205,0.10617,-0.45215,-0.088135,-0.81553,0.76508,0.011385,0.19989,0.21438,-0.19869,0.2262
-0.027781,-0.037751,0.021909,-0.10356,-0.078494,0.0077017,-0.44573,-0.39018,-0.06858,-1.3782,-0.19099,-0.39364,-0.040503,-0.25211,0.076688,-0.4498,-0.10193,-0.72876,0.64781,0.011552,0.2215,0.225,-0.65901,0.28662
-0.028866,-0.039244,0.017272,-0.10029,-0.042148,0.019886,-0.4585,-0.32249,-0.050471,-1.2318,-0.16037,-0.54216,0.048794,-0.30731,0.056306,-0.44478,-0.11739,-0.59234,0.55708,-0.00038564,0.24433,0.23137,-0.82655,0.35374
-0.027327,-0.040348,0.013928,-0.098078,-0.0062219,0.032196,-0.48067,-0.24082,-0.025325,-1.0929,-0.12791,-0.70983,0.10746,-0.32731,0.05124,-0.43797,-0.1371,-0.48957,0.48559,-0.024006,0.25484,0.22666,-0.72901,0.4101
-0.025044,-0.04145,0.014365,-0.099565,0.01844,0.038604,-0.51776,-0.16427,0.00096806,-0.95253,-0.094314,-0.88701,0.12638,-0.33347,0.055814,-0.43506,-0.15976,-0.45333,0.40062,-0.054486,0.24166,0.20493,-0.54043,0.45318
-0.023483,-0.043734,0.017929,-0.10547,0.02824,0.033049,-0.57002,-0.1001,0.025557,-0.77949,-0.064613,-1.0555,0.10539,-0.34411,0.057435,-0.44044,-0.18236,-0.44833,0.26468,-0.086583,0.2018,0.16545,-0.44998,0.49116
-0.022667,-0.047526,0.021195,-0.11419,0.029896,0.01424,-0.62282,-0.042076,0.04933,-0.54815,-0.02731,-1.1915,0.057281,-0.36476,0.047304,-0.4518,-0.2028,-0.41078,0.057077,-0.11747,0.14177,0.11244,-0.53228,0.53208
-0.02141,-0.051473,0.020852,-0.12277,0.037275,-0.012878,-0.6459,0.021397,0.074634,-0.26339,0.051736,-1.2716,0.0087899,-0.3857,0.028376,-0.46014,-0.21979,-0.30958,-0.21657,-0.14596,0.072838,0.051246,-0.71192,0.57631
-0.018607,-0.053576,0.016704,-0.12858,0.063379,-0.040188,-0.60496,0.096702,0.1021,0.036474,0.20789,-1.2799,-0.0075542,-0.3847,0.014096,-0.45508,-0.23029,-0.1764,-0.52955,-0.16936,0.0045479,-0.014497,-0.83091,0.61837
-0.014515,-0.053074,0.012062,-0.13069,0.11252,-0.061754,-0.4797,0.18028,0.12905,0.30041,0.44228,-1.2122,0.028456,-0.33428,0.018923,-0.43095,-0.228,-0.081077,-0.84746,-0.18201,-0.058785,-0.081919,-0.75078,0.65446
-0.010905,-0.051246,0.010986,-0.12996,0.17782,-0.077583,-0.27769,0.26244,0.15043,0.49246,0.70354,-1.0775,0.10718,-0.21396,0.048086,-0.38956,-0.20594,-0.075377,-1.1401,-0.17779,-0.11677,-0.14574,-0.41333,0.68617
-0.0098422,-0.050299,0.014707,-0.12824,0.24557,-0.093404,-0.034861,0.33512,0.16134,0.60566,0.90836,-0.89784,0.18818,-0.025698,0.094079,-0.33838,-0.16171,-0.15186,-1.3853,-0.15513,-0.16921,-0.19722,0.16045,0.71461
-0.012052,-0.051525,0.020462,-0.12721,0.30301,-0.1171,0.19965,0.39646,0.15915,0.65428,0.99059,-0.70444,0.22267,0.19593,0.14148,-0.28666,-0.101,-0.24852,-1.5646,-0.11965,-0.21366,-0.22784,0.89807,0.72924
-0.016277,-0.054548,0.02383,-0.12759,0.34391,-0.15469,0.38778,0.4492,0.14435,0.65503,0.94243,-0.5314,0.1872,0.3896,0.17545,-0.24247,-0.035673,-0.29135,-1.6579,-0.081338,-0.24579,-0.235,1.6901,0.70377
-0.020255,-0.058218,0.022519,-0.12892,0.36861,-0.20847,0.52212,0.49604,0.12005,0.61488,0.81484,-0.40512,0.10366,0.49258,0.18768,-0.21106,0.022462,-0.24054,-1.6435,-0.047958,-0.26156,-0.22388,2.3924,0.60746
-0.022509,-0.061879,0.018172,-0.12997,0.37984,-0.27783,0.62728,0.53724,0.090997,0.53475,0.67654,-0.33444,0.028234,0.47444,0.1773,-0.19356,0.067102,-0.10964,-1.509,-0.020347,-0.25874,-0.20216,2.849,0.42772
-0.023336,-0.065481,0.014631,-0.1295,0.37874,-0.36097,0.73925,0.57261,0.06274,0.42209,0.56487,-0.30772,0.015215,0.35749,0.1484,-0.18536,0.098046,0.048111,-1.2664,0.0060589,-0.23745,-0.17103,2.9514,0.18705
-0.024134,-0.068559,0.014352,-0.12717,0.36475,-0.45532,0.87498,0.60472,0.040676,0.2981,0.46751,-0.30059,0.082387,0.20737,0.10758,-0.17599,0.11738,0.17011,-0.95822,0.034712,-0.20028,-0.12124,2.7024,-0.061966
-0.025741,-0.069616,0.016343,-0.12398,0.33877,-0.5557,1.0148,0.63873,0.028911,0.19187,0.34708,-0.29056,0.20333,0.096387,0.063015,-0.15301,0.12566,0.21135,-0.64413,0.062565,-0.15284,-0.039929,2.2241,-0.26505
-0.027421,-0.067161,0.017459,-0.12186,0.30605,-0.65181,1.1134,0.67787,0.028957,0.12666,0.18491,-0.26878,0.33011,0.062224,0.02396,-0.10947,0.12192,0.15868,-0.37165,0.081245,-0.10401,0.074586,1.6867,-0.39957
-0.027538,-0.061678,0.015634,-0.12238,0.27539,-0.72775,1.1343,0.71902,0.038831,0.11025,0.0060406,-0.24089,0.42544,0.089397,-0.00071495,-0.050201,0.10702,0.032786,-0.14977,0.0843,-0.064387,0.2019,1.2047,-0.48754
-0.025324,-0.056361,0.01184,-0.12525,0.25501,-0.76525,1.0797,0.75304,0.053225,0.13573,-0.1342,-0.2179,0.47866,0.12509,-0.0052821,0.0086679,0.086324,-0.11917,0.051685,0.074188,-0.042622,0.30341,0.78363,-0.57587
-0.022031,-0.055258,0.0088992,-0.12796,0.24833,-0.75007,0.99034,0.77107,0.064937,0.1892,-0.18958,-0.20571,0.49646,0.11693,0.010327,0.048212,0.068355,-0.24022,0.27197,0.062364,-0.041463,0.34185,0.3631,-0.69703
-0.020228,-0.059994,0.008418,-0.12721,0.25305,-0.67798,0.91228,0.77176,0.067133,0.25657,-0.157,-0.20213,0.48297,0.045745,0.039956,0.057781,0.060006,-0.28703,0.51911,0.061604,-0.056177,0.30433,-0.084098,-0.83971
-0.021684,-0.067966,0.0089827,-0.12133,0.26384,-0.55702,0.85782,0.76315,0.055544,0.32556,-0.081613,-0.20193,0.43105,-0.067607,0.073277,0.040233,0.062337,-0.25041,0.75204,0.076511,-0.076643,0.21219,-0.49259,-0.95271
-0.025632,-0.073881,0.0075015,-0.11196,0.27583,-0.40465,0.79526,0.75742,0.029731,0.38576,-0.032359,-0.2026,0.33363,-0.18207,0.099465,0.0074087,0.070518,-0.1594,0.90286,0.099962,-0.09198,0.10946,-0.74473,-0.97927
-0.029022,-0.073626,0.0024435,-0.10318,0.2861,-0.24131,0.67816,0.76252,-0.0069532,0.43019,-0.065839,-0.20395,0.20222,-0.26543,0.11055,-0.02989,0.077815,-0.062804,0.9247,0.11851,-0.095094,0.037318,-0.77831,-0.89558
-0.028713,-0.067268,-0.0042013,-0.09841,0.29275,-0.08376,0.49032,0.77746,-0.048488,0.45722,-0.19862,-0.20247,0.071714,-0.3118,0.10277,-0.068511,0.080218,0.0018447,0.82826,0.12249,-0.084965,0.012612,-0.66203,-0.72459
-0.02391,-0.058758,-0.0082522,-0.097552,0.29395,0.059466,0.26706,0.7946,-0.08785,0.4688,-0.39933,-0.18847,-0.017432,-0.33817,0.075791,-0.1108,0.078196,0.030528,0.67686,0.11298,-0.066052,0.024871,-0.56309,-0.51715
-0.016899,-0.052722,-0.006849,-0.096833,0.28869,0.1896,0.072384,0.80635,-0.11869,0.46461,-0.60176,-0.15201,-0.046798,-0.36601,0.031426,-0.15687,0.074913,0.050037,0.54288,0.10051,-0.045583,0.051822,-0.62663,-0.31819
-0.011447,-0.051175,-0.00096506,-0.091895,0.27904,0.31675,-0.05145,0.8105,-0.13679,0.43798,-0.73332,-0.09428,-0.033985,-0.40214,-0.026089,-0.19967,0.073093,0.092519,0.45919,0.09692,-0.029989,0.079125,-0.8653,-0.14526
-0.010095,-0.052712,0.0053388,-0.081652,0.27084,0.45681,-0.12142,0.81003,-0.14106,0.38035,-0.74761,-0.03342,-0.019951,-0.43149,-0.088177,-0.22847,0.073205,0.16706,0.40327,0.10689,-0.021866,0.10813,-1.1499,0.0069314
-0.012416,-0.054375,0.0081987,-0.069531,0.27114,0.62607,-0.20737,0.80882,-0.13392,0.29298,-0.64559,0.0031735,-0.039242,-0.42605,-0.14085,-0.23735,0.073886,0.24985,0.32564,0.12521,-0.01881,0.14692,-1.3061,0.14489
-0.0155,-0.054125,0.0068407,-0.060788,0.28352,0.83442,-0.38354,0.80776,-0.12067,0.19518,-0.47244,-0.0030443,-0.097195,-0.36456,-0.16789,-0.23032,0.07346,0.29964,0.19928,0.14145,-0.015048,0.19452,-1.2373,0.2586
-0.016228,-0.051794,0.0036646,-0.058083,0.30489,1.079,-0.66994,0.80474,-0.10775,0.1184,-0.2902,-0.046692,-0.17176,-0.25148,-0.15863,-0.21735,0.070991,0.28601,0.050594,0.14776,-0.0055246,0.23407,-0.97956,0.32234
-0.013553,-0.048221,0.0017097,-0.059162,0.32695,1.3416,-1.0013,0.79813,-0.10047,0.087021,-0.14361,-0.098935,-0.23628,-0.12247,-0.11577,-0.20505,0.066313,0.21004,-0.052971,0.14422,0.00978,0.24207,-0.6572,0.31104
-0.0091328,-0.044012,0.0019076,-0.058742,0.34133,1.5914,-1.2436,0.78966,-0.10109,0.10019,-0.043013,-0.12441,-0.28229,-0.030044,-0.056391,-0.19099,0.059638,0.10426,-0.050627,0.13789,0.024471,0.20651,-0.3861,0.21816
-0.0059257,-0.039309,0.0024612,-0.052892,0.34448,1.7925,-1.2527,0.78345,-0.10831,0.13035,0.024031,-0.10258,-0.32343,-0.014686,-0.0031697,-0.16746,0.051485,0.014302,0.06376,0.13699,0.029191,0.13855,-0.20245,0.062622
-0.0058951,-0.034498,0.00063782,-0.042042,0.33855,1.9137,-0.94819,0.78158,-0.11828,0.14167,0.064628,-0.03825,-0.37908,-0.077922,0.029445,-0.13087,0.043003,-0.024057,0.22917,0.14481,0.018362,0.067147,-0.063916,-0.1173
-0.0085296,-0.030588,-0.0047767,-0.030077,0.32793,1.9362,-0.36773,0.78002,-0.12667,0.1147,0.063269,0.045478,-0.45442,-0.17606,0.04393,-0.087024,0.036065,0.0013469,0.35108,0.15777,-0.0044863,0.020266,0.089958,-0.27752
-0.011229,-0.028431,-0.012426,-0.020678,0.31463,1.8593,0.32821,0.76873,-0.13054,0.058679,-0.0064114,0.12469,-0.53455,-0.24189,0.055954,-0.046221,0.03263,0.080099,0.35865,0.1687,-0.02749,0.0069145,0.27088,-0.38259
-0.01123,-0.027481,-0.01938,-0.014469,0.29674,1.7003,0.91335,0.73681,-0.12901,0.0030684,-0.1495,0.18872,-0.59669,-0.22308,0.080485,-0.012377,0.033575,0.1908,0.24583,0.17244,-0.037909,0.013324,0.41872,-0.41725
-0.0076537,-0.025625,-0.023131,-0.0094514,0.27075,1.4897,1.1943,0.67964,-0.12255,-0.023334,-0.32761,0.24117,-0.62821,-0.11301,0.11866,0.022891,0.037874,0.31399,0.068308,0.16942,-0.031407,0.015064,0.43697,-0.39116
-0.0021569,-0.020774,-0.022999,-0.0037969,0.23546,1.2614,1.1017,0.60293,-0.1114,-0.0097286,-0.47252,0.29022,-0.63488,0.046477,0.1561,0.074035,0.042954,0.43861,-0.099173,0.16477,-0.016066,-0.0050964,0.26079,-0.33309
0.0023044,-0.012988,-0.020124,0.002187,0.19356,1.0413,0.71858,0.52076,-0.094599,0.033241,-0.53218,0.33867,-0.63368,0.19177,0.17398,0.14739,0.046247,0.55976,-0.2119,0.16415,-0.0075034,-0.046928,-0.089656,-0.27424
0.0037179,-0.005058,-0.016432,0.0069609,0.14972,0.8391,0.22552,0.44834,-0.070458,0.08199,-0.5148,0.38282,-0.63828,0.27484,0.1634,0.23156,0.046906,0.67185,-0.27466,0.16946,-0.018473,-0.096276,-0.50803,-0.22918
0.002552,-0.00057087,-0.013495,0.010351,0.10718,0.64859,-0.20594,0.39433,-0.038538,0.1116,-0.49139,0.41972,-0.64998,0.28583,0.13133,0.30198,0.046349,0.76426,-0.32091,0.17771,-0.050942,-0.13769,-0.85607,-0.18845
0.0013603,-0.00085356,-0.011971,0.014731,0.066501,0.45782,-0.50067,0.35793,-0.0016875,0.10427,-0.54511,0.45398,-0.66,0.24788,0.09362,0.33707,0.047058,0.82413,-0.37395,0.18312,-0.096658,-0.16564,-1.0386,-0.13066
0.0027163,-0.0034591,-0.011646,0.023116,0.027701,0.26348,-0.6922,0.33276,0.033756,0.054403,-0.69723,0.49641,-0.65864,0.19231,0.062219,0.33316,0.050499,0.84506,-0.4248,0.18089,-0.14502,-0.18632,-1.05,-0.045792
0.0071185,-0.0037711,-0.011818,0.035836,-0.006241,0.079293,-0.85956,0.31424,0.060455,-0.027874,-0.86409,0.55467,-0.6423,0.13518,0.037611,0.30604,0.055802,0.83429,-0.4442,0.16982,-0.19092,-0.21008,-0.96246,0.051008
0.012588,0.0013989,-0.011736,0.049239,-0.028629,-0.0689,-1.0451,0.30374,0.074068,-0.11671,-0.88512,0.62403,-0.61359,0.072152,0.012331,0.2784,0.060236,0.8105,-0.41438,0.1526,-0.23561,-0.24108,-0.86863,0.13048
0.016296,0.01122,-0.010952,0.058113,-0.032579,-0.15958,-1.219,0.30563,0.076002,-0.17811,-0.6158,0.68634,-0.57678,-0.0077569,-0.018892,0.264,0.060995,0.79112,-0.34911,0.1341,-0.28062,-0.27194,-0.82195,0.17878
0.016838,0.021517,-0.009483,0.059913,-0.016326,-0.19203,-1.312,0.31908,0.072711,-0.18527,-0.030171,0.71755,-0.53429,-0.10379,-0.052053,0.26124,0.056796,0.77769,-0.28279,0.119,-0.32103,-0.28684,-0.81565,0.21948
0.015209,0.028173,-0.0077148,0.056943,0.01439,-0.19009,-1.2808,0.33224,0.071666,-0.13351,0.73815,0.6977,-0.487,-0.19617,-0.075813,0.25946,0.048218,0.75153,-0.23884,0.10991,-0.34541,-0.2705,-0.8074,0.30463
0.013682,0.030306,-0.0061095,0.054414,0.049282,-0.18963,-1.1459,0.32505,0.076724,-0.043999,1.4536,0.61724,-0.43628,-0.25473,-0.079864,0.25063,0.036927,0.68625,-0.20734,0.10669,-0.343,-0.21689,-0.76173,0.47637
0.013691,0.0305,-0.0049464,0.056089,0.079422,-0.21868,-0.97397,0.28033,0.086099,0.048034,1.9064,0.47908,-0.38439,-0.25551,-0.061782,0.23542,0.024825,0.56994,-0.15294,0.10697,-0.31187,-0.13241,-0.67489,0.72835
0.014664,0.032028,-0.0042657,0.061419,0.10097,-0.28485,-0.82337,0.19522,0.094145,0.11275,2.0277,0.2994,-0.33214,-0.19263,-0.026794,0.2199,0.013773,0.42049,-0.046899,0.10766,-0.26097,-0.032333,-0.56821,0.99984
0.014865,0.035728,-0.0039675,0.066632,0.11372,-0.37807,-0.70516,0.084363,0.095304,0.13868,1.9129,0.10805,-0.27694,-0.079141,0.018009,0.20814,0.0056755,0.28034,0.10466,0.10685,-0.2039,0.066542,-0.46521,1.2103
0.013377,0.039416,-0.0038512,0.068497,0.1167,-0.48378,-0.58843,-0.027609,0.087293,0.13116,1.736,-0.055736,-0.21375,0.059998,0.068584,0.19891,0.0022477,0.19173,0.25972,0.10487,-0.15023,0.15191,-0.37627,1.3089
0.011275,0.040291,-0.003508,0.067121,0.10592,-0.59381,-0.44026,-0.11868,0.071748,0.1005,1.6178,-0.15603,-0.13856,0.19581,0.12315,0.18879,0.0042658,0.16882,0.36599,0.10373,-0.10141,0.21763,-0.30073,1.301
0.010773,0.037919,-0.0022749,0.065243,0.077375,-0.70661,-0.26144,-0.17859,0.052828,0.052373,1.5476,-0.17755,-0.051034,0.30003,0.17706,0.17658,0.010681,0.18639,0.39114,0.10475,-0.054171,0.26129,-0.23669,1.2331
0.013085,0.034884,0.00046137,0.064995,0.032738,-0.81985,-0.088853,-0.20992,0.035469,-0.011191,1.4147,-0.13591,0.04622,0.34881,0.21947,0.16294,0.018188,0.19289,0.33548,0.10614,-0.0076483,0.28103,-0.18457,1.1535
0.016985,0.034465,0.0046466,0.065527,-0.018372,-0.92543,0.032431,-0.22335,0.024316,-0.083369,1.1215,-0.070425,0.1498,0.32897,0.23647,0.14512,0.0216,0.13878,0.22358,0.10255,0.032724,0.27484,-0.1424,1.0806
0.019522,0.037612,0.0091364,0.06395,-0.062761,-1.0133,0.080375,-0.23166,0.023043,-0.14705,0.68256,-0.02146,0.2552,0.24593,0.21945,0.11383,0.015206,0.0017572,0.088566,0.087922,0.057774,0.24305,-0.10369,1.004
0.018367,0.042136,0.012052,0.058651,-0.091882,-1.0794,0.066341,-0.24544,0.033378,-0.1798,0.23104,-0.0073576,0.35311,0.12726,0.17183,0.058454,-0.0048906,-0.20486,-0.036177,0.060088,0.061304,0.19153,-0.066325,0.90964
0.013781,0.044837,0.011946,0.05159,-0.10677,-1.1282,0.022662,-0.26981,0.054037,-0.16621,-0.070327,-0.017817,0.42686,0.015629,0.10784,-0.021283,-0.03803,-0.44128,-0.11741,0.023762,0.045247,0.13218,-0.045618,0.80218
0.0084907,0.044407,0.0090204,0.047057,-0.115,-1.164,-0.016906,-0.30156,0.080605,-0.10746,-0.13917,-0.02781,0.45741,-0.048293,0.04333,-0.10691,-0.077477,-0.65881,-0.12542,-0.010935,0.01928,0.079262,-0.074427,0.70522
0.0055984,0.042282,0.0053371,0.047866,-0.12207,-1.1776,-0.028874,-0.32868,0.10697,-0.019935,-0.018522,-0.019809,0.43575,-0.04413,-0.01401,-0.16531,-0.11199,-0.81597,-0.047468,-0.034131,-0.0044983,0.043183,-0.18136,0.64123
0.0062991,0.04081,0.0036243,0.052598,-0.12473,-1.1442,-0.0020592,-0.33574,0.12753,0.075384,0.16994,0.0036698,0.37376,0.020239,-0.066664,-0.16491,-0.13086,-0.88897,0.096822,-0.042287,-0.017655,0.025938,-0.36019,0.61221
0.0092341,0.040837,0.0054143,0.056662,-0.1127,-1.0361,0.062537,-0.31412,0.13856,0.164,0.31667,0.025522,0.30203,0.11651,-0.11909,-0.093346,-0.12991,-0.87658,0.25497,-0.040227,-0.018222,0.021204,-0.55787,0.59801
0.011795,0.041232,0.0099662,0.056338,-0.077735,-0.84605,0.14971,-0.27088,0.13828,0.24116,0.38385,0.03006,0.25224,0.21436,-0.16629,0.036065,-0.11434,-0.8005,0.36392,-0.03753,-0.0090715,0.019238,-0.69854,0.57206
0.012106,0.040639,0.014901,0.052037,-0.022845,-0.60154,0.23061,-0.22774,0.12633,0.30694,0.39618,0.014388,0.23583,0.29812,-0.18994,0.19325,-0.095735,-0.7002,0.38251,-0.042043,0.0059841,0.013273,-0.73151,0.51898
0.010103,0.039287,0.018065,0.047715,0.03643,-0.35718,0.27273,-0.20854,0.10418,0.36001,0.38721,-0.013603,0.23681,0.371,-0.16766,0.34887,-0.084878,-0.62235,0.30996,-0.055404,0.025122,0.0031893,-0.66704,0.43974
0.0071542,0.038699,0.019036,0.046981,0.080111,-0.16867,0.25761,-0.22309,0.076355,0.39694,0.35706,-0.046158,0.22671,0.44522,-0.090125,0.48785,-0.085302,-0.60699,0.17608,-0.07351,0.048596,-0.0057189,-0.56919,0.3425
0.0048885,0.039607,0.019005,0.049596,0.095512,-0.065979,0.19396,-0.26009,0.050476,0.41789,0.27522,-0.083576,0.19093,0.5259,0.026788,0.61075,-0.092191,-0.67521,0.01318,-0.090642,0.076748,-0.0075322,-0.50783,0.22923
0.0042657,0.040533,0.019274,0.051629,0.084087,-0.044219,0.11391,-0.29555,0.034536,0.43204,0.11546,-0.13181,0.14428,0.59991,0.14478,0.72416,-0.096942,-0.82213,-0.16444,-0.10321,0.1084,-0.00046291,-0.50618,0.089448
0.0052928,0.038886,0.019927,0.049088,0.058866,-0.076039,0.052692,-0.31101,0.032028,0.45577,-0.11681,-0.19345,0.12107,0.63698,0.22011,0.82887,-0.09335,-1.0173,-0.35546,-0.11017,0.14153,0.011428,-0.52592,-0.094775
0.0071524,0.033699,0.020013,0.041638,0.035042,-0.13252,0.026587,-0.30729,0.038505,0.50257,-0.39024,-0.26214,0.14577,0.60326,0.22392,0.915,-0.080688,-1.2129,-0.54883,-0.11093,0.17574,0.019881,-0.50188,-0.33642
0.0084643,0.027137,0.018959,0.033052,0.020813,-0.19491,0.026325,-0.30296,0.043057,0.57211,-0.67528,-0.32663,0.2081,0.48129,0.15377,0.9675,-0.062194,-1.359,-0.70972,-0.10389,0.21414,0.0155,-0.39854,-0.6308
0.007787,0.023022,0.017629,0.028083,0.014459,-0.25036,0.030605,-0.31892,0.034788,0.64791,-0.9623,-0.38057,0.26397,0.28695,0.031634,0.97779,-0.041552,-1.4214,-0.79386,-0.087779,0.26226,-0.0097235,-0.24283,-0.94844
0.0044953,0.023611,0.01776,0.028609,0.0084236,-0.28035,0.027318,-0.3617,0.010147,0.70709,-1.2509,-0.42817,0.26379,0.073771,-0.10731,0.95292,-0.021008,-1.3946,-0.78173,-0.064611,0.3242,-0.060695,-0.10815,-1.2374
-0.00038952,0.027704,0.02022,0.032295,-0.0036763,-0.25685,0.024031,-0.41879,-0.0243,0.73559,-1.5219,-0.47967,0.18744,-0.082207,-0.22734,0.91505,-0.0022634,-1.3026,-0.70187,-0.040497,0.39885,-0.13731,-0.06316,-1.4371
-0.0043217,0.031818,0.023838,0.034659,-0.022343,-0.15274,0.039341,-0.46912,-0.05604,0.73687,-1.7231,-0.54018,0.059292,-0.11511,-0.30151,0.89009,0.011956,-1.1841,-0.6173,-0.022641,0.47942,-0.23219,-0.1253,-1.5009
-0.0047433,0.033191,0.026073,0.032588,-0.042399,0.040896,0.08368,-0.49944,-0.074853,0.72669,-1.7889,-0.60225,-0.068222,-0.0058617,-0.31728,0.89178,0.018355,-1.0702,-0.58054,-0.014399,0.55659,-0.32974,-0.25227,-1.4198
-0.0011244,0.031714,0.025035,0.026447,-0.05701,0.3044,0.14704,-0.51332,-0.079149,0.71771,-1.6828,-0.64955,-0.15009,0.19927,-0.2791,0.91107,0.015667,-0.9688,-0.59221,-0.012829,0.62297,-0.40887,-0.37409,-1.2319
0.0042128,0.029207,0.021044,0.019443,-0.062347,0.59394,0.20435,-0.52627,-0.075838,0.70624,-1.4328,-0.66925,-0.17701,0.40506,-0.20666,0.9186,0.0066585,-0.86476,-0.59884,-0.011324,0.67493,-0.44966,-0.43896,-1.0085
0.0075381,0.027207,0.016418,0.015145,-0.060053,0.85665,0.23358,-0.55219,-0.074165,0.67284,-1.1279,-0.66256,-0.17672,0.51554,-0.12719,0.88054,-0.0032125,-0.73492,-0.53402,-0.0055183,0.71071,-0.4408,-0.44075,-0.81907
0.0065279,0.02565,0.0138,0.015187,-0.056477,1.046,0.23096,-0.59278,-0.078438,0.5973,-0.87631,-0.64409,-0.18965,0.48729,-0.063836,0.77953,-0.010077,-0.56659,-0.37037,0.0024174,0.72708,-0.38394,-0.41333,-0.695
0.0021184,0.023597,0.01448,0.018591,-0.059444,1.1304,0.21095,-0.63784,-0.085249,0.47712,-0.7492,-0.63012,-0.23862,0.3529,-0.026356,0.62862,-0.015287,-0.36697,-0.13978,0.0047513,0.7184,-0.29253,-0.40156,-0.61541
-0.0022996,0.020868,0.017897,0.022726,-0.074369,1.0957,0.19191,-0.6748,-0.087093,0.33421,-0.74839,-0.62575,-0.31487,0.19687,-0.010177,0.46867,-0.024822,-0.15816,0.093622,-0.0063367,0.67967,-0.18682,-0.43102,-0.52733
-0.0037271,0.018642,0.022299,0.024957,-0.10172,0.94543,0.18016,-0.69845,-0.079285,0.20307,-0.81647,-0.62214,-0.38834,0.099428,-0.0041689,0.3492,-0.044446,0.036892,0.28344,-0.033194,0.6113,-0.088299,-0.49344,-0.3872
-0.0019439,0.01837,0.025739,0.023981,-0.1371,0.70169,0.16543,-0.71308,-0.064605,0.10845,-0.88027,-0.6066,-0.43145,0.087035,-0.00068907,0.30293,-0.074404,0.20767,0.43059,-0.071177,0.5213,-0.01555,-0.5507,-0.19391
0.00064971,0.020181,0.026774,0.020308,-0.17385,0.40301,0.1307,-0.72651,-0.052014,0.049623,-0.89614,-0.57718,-0.43662,0.1235,-0.00029347,0.32891,-0.10805,0.35995,0.5686,-0.11166,0.4225,0.018773,-0.55095,0.011166
0.0014412,0.022418,0.024824,0.015839,-0.20653,0.098066,0.067671,-0.74222,-0.050553,0.0042414,-0.86712,-0.54912,-0.4155,0.14453,-0.0086841,0.3947,-0.13552,0.50816,0.72002,-0.14657,0.32634,0.011011,-0.44885,0.17628
-9.7086e-005,0.022812,0.0204,0.0128,-0.23315,-0.1644,-0.01444,-0.7562,-0.063337,-0.050892,-0.82452,-0.54686,-0.38356,0.10664,-0.030077,0.45655,-0.14959,0.66049,0.86435,-0.17112,0.23805,-0.031092,-0.22517,0.27686
-0.0023326,0.020237,0.015104,0.012532,-0.25486,-0.34507,-0.092552,-0.76046,-0.086382,-0.11973,-0.79315,-0.58692,-0.34489,0.013812,-0.063079,0.48436,-0.14939,0.80567,0.94671,-0.18384,0.15659,-0.089214,0.099732,0.32843
-0.0034514,0.015619,0.011102,0.014804,-0.27352,-0.42028,-0.14227,-0.74926,-0.11305,-0.18535,-0.76959,-0.66481,-0.28984,-0.093528,-0.10155,0.47553,-0.13981,0.91053,0.92008,-0.1856,0.079002,-0.14027,0.46569,0.36631
-0.0033243,0.011341,0.010083,0.018083,-0.28951,-0.38531,-0.15004,-0.72277,-0.14028,-0.22885,-0.7295,-0.75584,-0.20561,-0.17237,-0.13823,0.44937,-0.12784,0.93325,0.7854,-0.17918,0.0054959,-0.16532,0.79044,0.41234
-0.0033585,0.0096934,0.012274,0.020628,-0.30138,-0.25591,-0.11788,-0.68598,-0.1713,-0.25189,-0.65387,-0.82974,-0.089014,-0.20475,-0.16792,0.42774,-0.11861,0.84742,0.59656,-0.16906,-0.058705,-0.1566,0.9999,0.45844
-0.0046224,0.011456,0.016281,0.021631,-0.30754,-0.066473,-0.060283,-0.64464,-0.21222,-0.28066,-0.54851,-0.86783,0.049566,-0.20085,-0.18911,0.41728,-0.11336,0.66323,0.42735,-0.16002,-0.10566,-0.11812,1.0551,0.48014
-0.0063619,0.015481,0.019941,0.021524,-0.30838,0.13861,0.002881,-0.60208,-0.26496,-0.34448,-0.43784,-0.87007,0.19262,-0.18227,-0.20492,0.40606,-0.1095,0.42982,0.32761,-0.15444,-0.12916,-0.060092,0.95936,0.46488
-0.0065999,0.019472,0.021561,0.021258,-0.30689,0.32043,0.052788,-0.55897,-0.32221,-0.44565,-0.33863,-0.84718,0.3246,-0.16331,-0.22318,0.37589,-0.10228,0.214,0.30101,-0.15021,-0.12835,0.0082731,0.74313,0.42726
-0.0042915,0.021462,0.020646,0.021216,-0.30722,0.46101,0.076244,-0.51547,-0.36884,-0.54768,-0.23917,-0.80478,0.43557,-0.14461,-0.25367,0.31899,-0.087329,0.067432,0.31624,-0.14192,-0.10851,0.082065,0.44024,0.39694
-0.00079674,0.021007,0.017728,0.020782,-0.31234,0.5683,0.068939,-0.47298,-0.38949,-0.59534,-0.10577,-0.73317,0.51861,-0.11895,-0.30173,0.24533,-0.063043,0.0050204,0.33698,-0.12501,-0.079096,0.15832,0.075172,0.39126
0.00099921,0.019287,0.01372,0.018984,-0.32217,0.66603,0.037524,-0.43351,-0.37734,-0.55321,0.08548,-0.61224,0.56706,-0.080428,-0.3616,0.17514,-0.031755,0.010007,0.34529,-0.099671,-0.05014,0.23129,-0.33007,0.3987
-0.00072968,0.017987,0.0095085,0.015603,-0.33331,0.77538,-0.0011076,-0.39712,-0.338,-0.43219,0.3181,-0.42895,0.57658,-0.029772,-0.41552,0.12357,0.0015434,0.059209,0.34361,-0.070973,-0.028673,0.29045,-0.73891,0.38893
-0.0048541,0.017825,0.0060186,0.011686,-0.34026,0.90158,-0.025103,-0.36003,-0.28583,-0.28254,0.53408,-0.19406,0.54983,0.024893,-0.44202,0.090372,0.032219,0.14455,0.33972,-0.044866,-0.01694,0.32386,-1.0919,0.3398
-0.0079396,0.01797,0.0042792,0.0089053,-0.33773,1.0338,-0.016764,-0.31608,-0.23537,-0.15941,0.66679,0.05597,0.49744,0.069954,-0.42881,0.062148,0.058483,0.27051,0.33101,-0.023561,-0.013204,0.32486,-1.3206,0.25662
-0.0069917,0.016933,0.0049603,0.0083009,-0.32365,1.154,0.028418,-0.26167,-0.19372,-0.088907,0.68369,0.27641,0.43213,0.090789,-0.38118,0.024563,0.081072,0.43045,0.30107,-0.004331,-0.014376,0.29695,-1.3794,0.16648
-0.0019445,0.014233,0.00755,0.0095108,-0.30159,1.2437,0.09777,-0.20126,-0.15878,-0.060204,0.60537,0.44106,0.36085,0.079504,-0.31887,-0.026009,0.10035,0.58666,0.22949,0.017429,-0.018297,0.25309,-1.2802,0.093153
0.0042376,0.011307,0.010094,0.011136,-0.28106,1.2826,0.16517,-0.14929,-0.12359,-0.045622,0.4864,0.56104,0.28279,0.042734,-0.26372,-0.080096,0.11374,0.67788,0.10501,0.043856,-0.023862,0.20929,-1.1051,0.034918
0.0079086,0.010687,0.010233,0.01183,-0.27409,1.2454,0.20105,-0.12569,-0.082847,-0.027798,0.37471,0.68163,0.19558,0.0022107,-0.22771,-0.12253,0.11656,0.6532,-0.068707,0.072808,-0.029397,0.17646,-0.98323,-0.035006
0.0075577,0.013921,0.0070971,0.011121,-0.28899,1.1085,0.18389,-0.14641,-0.036861,-0.010195,0.28275,0.85661,0.10341,-0.016433,-0.20973,-0.14276,0.10595,0.50582,-0.2775,0.099663,-0.031726,0.15554,-1.0286,-0.145
0.0048079,0.019891,0.002487,0.0093635,-0.32473,0.8678,0.10795,-0.2141,0.0094421,-0.0053389,0.19199,1.114,0.018344,-0.0012165,-0.20148,-0.14042,0.084581,0.27825,-0.50466,0.12057,-0.027786,0.13897,-1.263,-0.29645
0.0028811,0.025054,4.7547e-007,0.0071109,-0.37045,0.55517,-0.016152,-0.31474,0.050557,-0.015655,0.08341,1.4333,-0.047025,0.035853,-0.19516,-0.12407,0.060282,0.034956,-0.73313,0.13419,-0.017671,0.11731,-1.565,-0.45188
0.0038764,0.025686,0.0024401,0.0046447,-0.41133,0.23405,-0.16783,-0.42296,0.084005,-0.02637,-0.035028,1.7489,-0.088607,0.066036,-0.18592,-0.10645,0.041467,-0.17366,-0.93958,0.14091,-0.0057501,0.086882,-1.6923,-0.54992
0.007095,0.020628,0.009518,0.0020428,-0.43734,-0.029771,-0.32644,-0.51318,0.1111,-0.016337,-0.12835,1.9807,-0.11209,0.065155,-0.16892,-0.1007,0.031938,-0.32708,-1.0877,0.1412,0.0022532,0.053107,-1.3886,-0.53934
0.0097037,0.012501,0.017884,-0.00049385,-0.44816,-0.20514,-0.47912,-0.57019,0.13526,0.024662,-0.16164,2.0747,-0.12472,0.032632,-0.13725,-0.11846,0.029187,-0.42295,-1.1317,0.13463,0.004307,0.02719,-0.5314,-0.41229
0.0090981,0.0063168,0.023568,-0.0025504,-0.4502,-0.31194,-0.62196,-0.59259,0.15998,0.088344,-0.13016,2.0313,-0.12524,-0.0073661,-0.085251,-0.16747,0.02712,-0.45713,-1.035,0.12022,0.0046439,0.018334,0.76936,-0.21627
0.0049773,0.0061827,0.024777,-0.0037539,-0.44803,-0.40241,-0.75328,-0.58814,0.18779,0.15557,-0.065969,1.9035,-0.1023,-0.023897,-0.015128,-0.24748,0.020432,-0.42038,-0.79265,0.09714,0.011022,0.026961,2.1959,-0.035105
-0.00053589,0.012265,0.022654,-0.0040544,-0.43801,-0.5205,-0.8637,-0.56535,0.22031,0.21031,-0.01525,1.7662,-0.04385,-0.0017287,0.060506,-0.34693,0.007171,-0.31627,-0.4459,0.065201,0.028689,0.044104,3.3723,0.053468
-0.0047189,0.020221,0.019579,-0.0037365,-0.41025,-0.67025,-0.93127,-0.5283,0.258,0.247,-0.0048301,1.6756,0.050036,0.049369,0.12472,-0.4447,-0.011509,-0.17977,-0.073883,0.025686,0.056282,0.05774,4.0491,0.020699
-0.0063911,0.023788,0.01687,-0.0032166,-0.35807,-0.8167,-0.928,-0.47772,0.29954,0.26708,-0.024653,1.6437,0.16212,0.10432,0.16715,-0.51839,-0.032733,-0.07108,0.23304,-0.017313,0.087161,0.061477,4.2056,-0.096512
-0.0065626,0.019021,0.01413,-0.0028633,-0.28664,-0.91546,-0.83673,-0.41584,0.34158,0.27211,-0.038497,1.642,0.26591,0.14123,0.19055,-0.55452,-0.052586,-0.041266,0.40722,-0.056063,0.11453,0.058873,4.0075,-0.21853
-0.0071359,0.0073037,0.010616,-0.0028897,-0.21255,-0.94465,-0.66765,-0.34924,0.37965,0.26291,-0.012006,1.6285,0.34094,0.15263,0.2069,-0.55367,-0.066185,-0.094491,0.42917,-0.080814,0.13519,0.059689,3.664,-0.27341
-0.0088997,-0.0051426,0.006825,-0.0031904,-0.15354,-0.91418,-0.46156,-0.2865,0.40974,0.24519,0.064716,1.5766,0.38437,0.14186,0.22648,-0.52703,-0.068669,-0.17947,0.33382,-0.084318,0.14849,0.070525,3.2963,-0.24203
-0.010615,-0.0112,0.0043586,-0.0031795,-0.11676,-0.84954,-0.27387,-0.23303,0.42916,0.23263,0.1744,1.4859,0.41057,0.11116,0.24916,-0.48777,-0.057587,-0.22105,0.19428,-0.066652,0.15202,0.086905,2.9028,-0.16663
-0.0099872,-0.0075972,0.004133,-0.0019913,-0.095526,-0.7691,-0.14749,-0.18833,0.43582,0.23874,0.2857,1.3723,0.44004,0.054851,0.26498,-0.44427,-0.034979,-0.16977,0.089239,-0.036212,0.13941,0.093265,2.4249,-0.11689
-0.0056922,0.0029332,0.0050013,0.00076959,-0.077411,-0.6761,-0.091939,-0.14845,0.42706,0.26101,0.367,1.2492,0.48552,-0.03508,0.26238,-0.39964,-0.0068075,-0.03211,0.067974,-0.0050525,0.10367,0.071741,1.8378,-0.13946
0.0012647,0.013704,0.0045814,0.004246,-0.05617,-0.56912,-0.082994,-0.11096,0.40011,0.27186,0.39084,1.1176,0.54421,-0.15578,0.23615,-0.35602,0.020384,0.14059,0.13092,0.018545,0.044227,0.014211,1.1937,-0.22932
0.0079623,0.018817,0.0017515,0.0064702,-0.036805,-0.45626,-0.082354,-0.077266,0.355,0.22941,0.333,0.97052,0.59932,-0.28503,0.18875,-0.31784,0.042917,0.293,0.23678,0.034489,-0.028335,-0.070512,0.5977,-0.34273
0.011427,0.017047,-0.0016993,0.0057642,-0.029485,-0.35631,-0.062122,-0.05012,0.29772,0.10548,0.17666,0.80485,0.62841,-0.38649,0.12586,-0.29063,0.060466,0.40247,0.33156,0.048538,-0.095012,-0.15921,0.15406,-0.43802
0.010519,0.012047,-0.0022194,0.0023926,-0.03859,-0.28481,-0.016812,-0.02959,0.24019,-0.088422,-0.074586,0.62729,0.61269,-0.42673,0.052283,-0.27692,0.073359,0.48431,0.37981,0.06514,-0.13766,-0.22489,-0.073953,-0.5086
0.0064941,0.0089832,0.0022887,-0.0011822,-0.057745,-0.23906,0.042873,-0.012987,0.19556,-0.29871,-0.3848,0.44946,0.54348,-0.39341,-0.027622,-0.2738,0.079749,0.56629,0.37727,0.08169,-0.14873,-0.2489,-0.077442,-0.58188
0.001969,0.010488,0.010095,-0.002049,-0.075835,-0.19762,0.10512,-0.00051597,0.17119,-0.45655,-0.68854,0.27891,0.42428,-0.30279,-0.10617,-0.27474,0.075964,0.65803,0.33928,0.089339,-0.13453,-0.22763,0.098979,-0.68831
-0.00084892,0.015072,0.016462,0.00075411,-0.088286,-0.13611,0.16651,-0.001853,0.16424,-0.51687,-0.91278,0.11604,0.26953,-0.19196,-0.17081,-0.27384,0.060085,0.74134,0.27881,0.07975,-0.11004,-0.17123,0.36502,-0.82913
-0.0013714,0.018884,0.017156,0.0054375,-0.10242,-0.045758,0.22965,-0.036088,0.16347,-0.48253,-1.0061,-0.040384,0.10114,-0.10024,-0.20795,-0.26835,0.035274,0.78675,0.19492,0.051999,-0.089291,-0.097061,0.60724,-0.97028
-0.00054474,0.01894,0.011682,0.0091484,-0.13096,0.06141,0.29541,-0.12186,0.15631,-0.39662,-0.95661,-0.18617,-0.056733,-0.050231,-0.20996,-0.25782,0.0091806,0.77813,0.080771,0.013818,-0.078361,-0.022795,0.72927,-1.0659
0.000271,0.015096,0.0034908,0.010607,-0.17912,0.16423,0.36022,-0.26306,0.13637,-0.31012,-0.78958,-0.3121,-0.18366,-0.038999,-0.17977,-0.24197,-0.010684,0.72247,-0.058057,-0.02357,-0.07535,0.037677,0.68872,-1.0899
0.00046963,0.0095417,-0.0028592,0.011093,-0.23698,0.2498,0.42142,-0.44079,0.10652,-0.24933,-0.54873,-0.41229,-0.26864,-0.043864,-0.12943,-0.22079,-0.021828,0.63785,-0.19278,-0.052372,-0.076088,0.07551,0.4993,-1.0505
0.00049252,0.0048455,-0.0050549,0.012774,-0.28494,0.32143,0.48304,-0.61898,0.075912,-0.20609,-0.27765,-0.49182,-0.31322,-0.039225,-0.074035,-0.19739,-0.027747,0.53323,-0.27836,-0.071312,-0.079894,0.087406,0.19408,-0.9784
0.0011232,0.0024064,-0.0041177,0.016138,-0.30767,0.39245,0.55242,-0.76121,0.053609,-0.1548,-0.011966,-0.56464,-0.33032,-0.013779,-0.025575,-0.18019,-0.034243,0.40092,-0.27417,-0.083338,-0.090228,0.07637,-0.21314,-0.90167
0.0025393,0.002261,-0.00271,0.019325,-0.30464,0.47469,0.62796,-0.84776,0.043151,-0.079428,0.21778,-0.64257,-0.33825,0.023025,0.0097615,-0.18063,-0.044403,0.23098,-0.16611,-0.091232,-0.10986,0.05163,-0.72265,-0.82828
0.0040738,0.0037121,-0.0025544,0.020269,-0.28786,0.57396,0.68944,-0.88138,0.041124,0.011364,0.38162,-0.72529,-0.35199,0.049516,0.030798,-0.20643,-0.056418,0.03628,0.020622,-0.095522,-0.13528,0.025942,-1.2979,-0.74692
0.0049234,0.0058392,-0.0033058,0.019449,-0.2695,0.69506,0.70375,-0.87914,0.039822,0.091318,0.45355,-0.80128,-0.37595,0.048779,0.039252,-0.25521,-0.065615,-0.1344,0.22343,-0.095999,-0.15622,0.01035,-1.8231,-0.64142
0.0050509,0.007669,-0.0035138,0.020132,-0.25065,0.84586,0.64591,-0.85778,0.03192,0.13755,0.42406,-0.85928,-0.40257,0.021034,0.038106,-0.31401,-0.068427,-0.212,0.36058,-0.094273,-0.1618,0.0091824,-2.1306,-0.50486
0.0052622,0.0084702,-0.0023134,0.025348,-0.22153,1.0289,0.52114,-0.82392,0.014589,0.14781,0.31383,-0.89968,-0.41836,-0.018063,0.03063,-0.36608,-0.064885,-0.14759,0.36278,-0.094146,-0.14873,0.018819,-2.102,-0.34318
0.0062577,0.008365,-8.9198e-005,0.034324,-0.17217,1.2229,0.36945,-0.7753,-0.008782,0.14185,0.17634,-0.93555,-0.4139,-0.051193,0.019513,-0.40023,-0.058167,0.046782,0.20679,-0.099317,-0.12473,0.031321,-1.7686,-0.16909
0.0076155,0.008647,0.002277,0.042133,-0.10341,1.3712,0.24688,-0.7092,-0.02995,0.14777,0.081688,-0.98227,-0.39099,-0.073038,0.0062003,-0.41631,-0.052354,0.28734,-0.068663,-0.11077,-0.10362,0.04027,-1.3233,0.0060308
0.0079021,0.01106,0.0044331,0.043432,-0.028095,1.398,0.19478,-0.62953,-0.03987,0.1842,0.085691,-1.0447,-0.36159,-0.091919,-0.0087878,-0.42331,-0.050353,0.45353,-0.3796,-0.12624,-0.095938,0.044395,-1.0175,0.17529
0.006045,0.016267,0.0066068,0.037185,0.038142,1.2493,0.21759,-0.54588,-0.033854,0.24899,0.2002,-1.1127,-0.3389,-0.11824,-0.024349,-0.43219,-0.052744,0.45434,-0.64114,-0.14157,-0.10249,0.046577,-1.0118,0.33393
0.0027064,0.022821,0.0087226,0.027959,0.087752,0.93434,0.28289,-0.46625,-0.015295,0.31925,0.38415,-1.1672,-0.32773,-0.1505,-0.037195,-0.44876,-0.057103,0.28564,-0.81073,-0.15213,-0.11588,0.049897,-1.2875,0.47555
0.00017331,0.027852,0.0098344,0.022387,0.12449,0.5329,0.34195,-0.39005,0.0045093,0.36139,0.56485,-1.1917,-0.32192,-0.17213,-0.041835,-0.4712,-0.057789,0.036725,-0.89852,-0.15307,-0.1277,0.054795,-1.676,0.59126
0.00061277,0.029161,0.0088474,0.023835,0.15745,0.15787,0.3565,-0.30763,0.01122,0.34677,0.68011,-1.18,-0.31102,-0.16294,-0.032887,-0.49255,-0.047404,-0.16529,-0.93673,-0.13978,-0.13472,0.059824,-1.9736,0.67274
0.0042037,0.026989,0.0059986,0.030022,0.19272,-0.1047,0.31597,-0.20689,-0.0050419,0.26665,0.71633,-1.1358,-0.29059,-0.11626,-0.0086369,-0.50565,-0.02083,-0.23925,-0.93502,-0.11012,-0.13889,0.064577,-2.0496,0.7168
0.0089204,0.023823,0.0034425,0.035559,0.23011,-0.23694,0.2379,-0.08205,-0.043754,0.13874,0.71802,-1.0658,-0.2679,-0.047586,0.026519,-0.5073,0.019716,-0.20205,-0.86178,-0.067748,-0.1424,0.071027,-1.885,0.72826
0.012212,0.022328,0.0039027,0.036801,0.26623,-0.28473,0.15417,0.061152,-0.093475,-8.7474e-005,0.76155,-0.9732,-0.25845,0.012773,0.062702,-0.49949,0.062762,-0.1476,-0.67012,-0.023062,-0.14358,0.081283,-1.5398,0.71861
0.012978,0.023227,0.0082746,0.034459,0.29858,-0.31626,0.092832,0.20684,-0.13753,-0.11284,0.90879,-0.85458,-0.27623,0.037746,0.088447,-0.48733,0.09221,-0.16554,-0.34745,0.010963,-0.13799,0.09384,-1.1041,0.70023
0.011959,0.02502,0.014406,0.031811,0.32597,-0.37856,0.065235,0.33543,-0.16278,-0.1817,1.1681,-0.70365,-0.32454,0.019419,0.095899,-0.47508,0.097133,-0.26236,0.054264,0.026591,-0.12333,0.10247,-0.67313,0.67831
0.01035,0.025717,0.018504,0.030746,0.34552,-0.48273,0.064016,0.43151,-0.16619,-0.21378,1.4843,-0.51869,-0.3925,-0.027744,0.084376,-0.46228,0.08016,-0.34978,0.43484,0.026941,-0.10315,0.099617,-0.34446,0.64516
0.008282,0.024895,0.018212,0.029803,0.3515,-0.62039,0.070922,0.48949,-0.15546,-0.22886,1.7602,-0.31029,-0.45844,-0.077305,0.060115,-0.44291,0.057198,-0.31334,0.69717,0.024087,-0.085574,0.081483,-0.20762,0.58166
0.004933,0.024141,0.014648,0.02613,0.33889,-0.7874,0.068194,0.51505,-0.14351,-0.2399,1.8966,-0.10343,-0.49797,-0.10703,0.032377,-0.4091,0.047182,-0.10848,0.79414,0.030102,-0.078075,0.049971,-0.31301,0.46733
0.00016011,0.025488,0.011382,0.01913,0.30922,-0.9897,0.046359,0.5221,-0.14065,-0.24425,1.8306,0.069902,-0.49413,-0.11059,0.0083978,-0.3576,0.058683,0.19392,0.73915,0.047817,-0.083121,0.0093738,-0.63928,0.29468
-0.0043012,0.029313,0.011156,0.011843,0.2726,-1.227,0.005153,0.52694,-0.14928,-0.23429,1.5562,0.18532,-0.44609,-0.09863,-0.009514,-0.29459,0.083709,0.45174,0.58125,0.068952,-0.097961,-0.038883,-1.0898,0.079598
-0.0057493,0.033625,0.013357,0.0083926,0.24269,-1.4731,-0.050113,0.54202,-0.16384,-0.21805,1.1225,0.23961,-0.37171,-0.089485,-0.022927,-0.23429,0.10396,0.55188,0.37278,0.081344,-0.11804,-0.097728,-1.5228,-0.13925
-0.002998,0.035379,0.014729,0.0099431,0.22783,-1.6748,-0.11173,0.57202,-0.1756,-0.22878,0.61051,0.25256,-0.30039,-0.095663,-0.033321,-0.19132,0.10488,0.48727,0.15476,0.079139,-0.14059,-0.16959,-1.7894,-0.31236
0.0020057,0.032686,0.012768,0.013246,0.22535,-1.775,-0.16969,0.61349,-0.17852,-0.31064,0.099385,0.25355,-0.2577,-0.11413,-0.038509,-0.17221,0.086266,0.35058,-0.03937,0.067155,-0.16549,-0.24899,-1.7524,-0.39686
0.0053097,0.026127,0.0085323,0.013394,0.22342,-1.7447,-0.21062,0.65743,-0.1725,-0.48839,-0.36242,0.26102,-0.25044,-0.12695,-0.032679,-0.17294,0.06121,0.25279,-0.18088,0.055807,-0.1936,-0.31979,-1.294,-0.3719
0.0041075,0.018243,0.0059881,0.0082781,0.20894,-1.6028,-0.21976,0.6934,-0.162,-0.74397,-0.76667,0.27056,-0.26301,-0.1129,-0.010698,-0.1851,0.044712,0.23494,-0.25744,0.051451,-0.22473,-0.36158,-0.34411,-0.24691
-0.00087345,0.011825,0.0082625,0.00053803,0.17566,-1.4102,-0.18707,0.71333,-0.15173,-1.0192,-1.1289,0.26159,-0.26934,-0.063395,0.026146,-0.20528,0.042086,0.24333,-0.28959,0.051106,-0.25708,-0.36193,1.0576,-0.060457
-0.005953,0.0083771,0.014292,-0.0048146,0.12748,-1.2437,-0.11413,0.71427,-0.14231,-1.2431,-1.4569,0.21761,-0.25211,0.0081858,0.067535,-0.23904,0.046748,0.18368,-0.32835,0.046424,-0.28827,-0.32538,2.704,0.13127
-0.0075434,0.0077361,0.01923,-0.0048104,0.07607,-1.1636,-0.016345,0.6995,-0.12956,-1.364,-1.7272,0.14203,-0.21428,0.072032,0.097612,-0.29495,0.048424,0.0055745,-0.42353,0.033259,-0.31653,-0.27075,4.2362,0.27592
-0.0049484,0.008689,0.018547,-0.00087817,0.035367,-1.1921,0.082001,0.67711,-0.10763,-1.3662,-1.8901,0.054228,-0.17347,0.10063,0.10336,-0.37299,0.043772,-0.25236,-0.582,0.017953,-0.34078,-0.21694,5.2656,0.34942
-0.00057071,0.0098238,0.012221,0.0028266,0.015942,-1.3095,0.15699,0.65591,-0.074141,-1.2649,-1.9029,-0.032462,-0.14419,0.088993,0.082668,-0.45759,0.039789,-0.48896,-0.75203,0.014279,-0.35971,-0.16708,5.5539,0.36938
0.0023691,0.010016,0.005095,0.0032412,0.021286,-1.4673,0.19349,0.63999,-0.03339,-1.0909,-1.767,-0.13077,-0.12373,0.06167,0.04655,-0.52278,0.047304,-0.61175,-0.85308,0.033171,-0.37068,-0.10421,5.136,0.38362
0.0023839,0.0085955,0.0029058,0.0006904,0.046925,-1.6115,0.18886,0.6252,0.0048902,-0.87848,-1.5393,-0.27634,-0.09427,0.059913,0.0135,-0.54717,0.070675,-0.59377,-0.83267,0.073647,-0.36986,-0.0047898,4.2943,0.43502
0.00042079,0.0055467,0.0074036,-0.0022005,0.082981,-1.7014,0.15211,0.60072,0.030747,-0.6618,-1.3031,-0.49821,-0.038672,0.11568,-0.00031752,-0.52747,0.10279,-0.47573,-0.70681,0.12223,-0.35387,0.13782,3.395,0.52441
-0.001476,0.0017565,0.014855,-0.0034307,0.11974,-1.7166,0.10054,0.55619,0.039755,-0.47354,-1.1175,-0.78368,0.045173,0.22914,0.011383,-0.47977,0.12947,-0.32197,-0.55161,0.16113,-0.32224,0.29747,2.6937,0.60115
-0.0019645,-0.0010897,0.019225,-0.0032916,0.15372,-1.6463,0.055775,0.49016,0.035194,-0.33925,-0.98272,-1.0673,0.14498,0.36497,0.044256,-0.42682,0.13916,-0.17413,-0.45245,0.17857,-0.27896,0.42188,2.2433,0.59427
-0.0010711,-0.0013164,0.017188,-0.0033417,0.19035,-1.4723,0.039253,0.41414,0.024954,-0.26942,-0.8481,-1.2574,0.24801,0.47038,0.088648,-0.38124,0.13017,-0.040281,-0.4497,0.17407,-0.23158,0.46096,1.9474,0.46482
0.00046353,0.0015575,0.010619,-0.0041956,0.24058,-1.1617,0.066845,0.34834,0.015401,-0.25735,-0.6592,-1.2865,0.35292,0.50384,0.13597,-0.33747,0.11017,0.079786,-0.51884,0.15605,-0.18773,0.39863,1.6935,0.24023
0.0021082,0.006198,0.0045574,-0.0047444,0.313,-0.67927,0.14367,0.31147,0.0068898,-0.28698,-0.4061,-1.1502,0.46592,0.45628,0.18135,-0.2785,0.089631,0.16615,-0.59227,0.13559,-0.15133,0.26491,1.4471,0.003448
0.0037587,0.010124,0.0026593,-0.0036417,0.4067,-0.01624,0.26166,0.31116,-0.0055213,-0.34505,-0.13551,-0.90935,0.58329,0.35241,0.22184,-0.19113,0.075154,0.18072,-0.59931,0.12142,-0.12141,0.11817,1.2378,-0.15518
0.0053065,0.011358,0.0042485,-0.0012288,0.51008,0.78478,0.40235,0.3417,-0.026729,-0.42621,0.083551,-0.65345,0.67837,0.2332,0.25377,-0.076851,0.06747,0.10181,-0.49576,0.1187,-0.094876,0.0096394,1.0798,-0.18642
0.0063344,0.009789,0.0054318,0.00051484,0.60673,1.6297,0.54494,0.3903,-0.056109,-0.52654,0.21291,-0.45129,0.70962,0.13281,0.27295,0.049879,0.06424,-0.039819,-0.27275,0.12977,-0.07136,-0.044492,0.92216,-0.098002
0.0063896,0.0070622,0.0030359,0.00022299,0.68401,2.4017,0.67613,0.44711,-0.086649,-0.63232,0.27488,-0.32075,0.64832,0.064876,0.27802,0.17344,0.063915,-0.16102,0.046201,0.15418,-0.055698,-0.063659,0.68894,0.065023
0.0054555,0.0050618,-0.0023367,-0.00082155,0.73818,3.0024,0.79611,0.51136,-0.10958,-0.71641,0.33476,-0.23358,0.50524,0.024596,0.27329,0.288,0.066925,-0.17139,0.40987,0.18727,-0.054978,-0.078213,0.37192,0.25038
0.0039721,0.0042976,-0.0068907,0.00059767,0.77266,3.3792,0.91647,0.58946,-0.12056,-0.74739,0.45011,-0.14632,0.33299,0.00088834,0.26738,0.3984,0.073644,-0.034305,0.74738,0.21964,-0.071706,-0.10032,0.075298,0.41349
0.0023543,0.0036346,-0.0072384,0.0064173,0.79155,3.524,1.0505,0.68658,-0.12192,-0.70465,0.62585,-0.033464,0.19922,-0.012753,0.26763,0.51121,0.081699,0.20215,0.98763,0.2397,-0.098723,-0.11339,-0.047883,0.51495
0.00064956,0.0015707,-0.0036713,0.014736,0.79415,3.4529,1.2013,0.79801,-0.11912,-0.5872,0.80792,0.098004,0.14862,-0.016132,0.27498,0.62443,0.085519,0.42978,1.088,0.23868,-0.12122,-0.086807,0.074486,0.51858
-0.0011564,-0.0021524,-0.00010984,0.020869,0.77504,3.1866,1.3561,0.90674,-0.11465,-0.41069,0.91828,0.2176,0.18103,-0.0075859,0.28377,0.72529,0.078773,0.54475,1.0553,0.21492,-0.12584,-0.0025558,0.35134,0.40494
-0.0025456,-0.0060884,-0.00075857,0.02151,0.72988,2.7492,1.4891,0.98935,-0.1052,-0.19841,0.904,0.29386,0.25975,0.010378,0.28687,0.79788,0.057817,0.50699,0.94114,0.17389,-0.11068,0.12743,0.57506,0.19207
-0.0024823,-0.0081455,-0.0064192,0.018125,0.66241,2.1805,1.5726,1.0271,-0.084978,0.024702,0.76725,0.3144,0.34081,0.030301,0.28159,0.83419,0.023632,0.35534,0.81112,0.12423,-0.087999,0.26513,0.56786,-0.059939
-0.0003437,-0.0071542,-0.013656,0.016016,0.5869,1.5454,1.5874,1.0156,-0.051814,0.23194,0.56026,0.29264,0.39956,0.043316,0.27099,0.83946,-0.018773,0.17294,0.70888,0.072694,-0.07664,0.36664,0.30927,-0.27486
0.0031045,-0.003581,-0.017478,0.019527,0.52306,0.92619,1.5271,0.96735,-0.010451,0.39499,0.35451,0.25949,0.43662,0.043007,0.25987,0.82793,-0.062604,0.032615,0.64007,0.022162,-0.088968,0.40333,-0.059458,-0.40307
0.0059286,0.001055,-0.015239,0.027822,0.48556,0.39846,1.3938,0.90559,0.03041,0.49098,0.20677,0.24637,0.46421,0.027136,0.24988,0.81285,-0.10153,-0.039628,0.58384,-0.026563,-0.12195,0.37156,-0.35396,-0.4493
0.0065878,0.0053259,-0.00859,0.035449,0.47427,0.0069746,1.1925,0.85231,0.064425,0.51497,0.13968,0.26912,0.48864,-0.0018432,0.23906,0.79901,-0.13113,-0.064041,0.51811,-0.071414,-0.15908,0.28889,-0.48589,-0.46256
0.0054457,0.0085547,-0.0021413,0.03742,0.47217,-0.24342,0.92888,0.81811,0.091299,0.48723,0.14137,0.32092,0.50439,-0.036099,0.22646,0.78338,-0.14957,-0.079382,0.43742,-0.10784,-0.18155,0.18308,-0.51065,-0.49588
0.0046092,0.010666,-0.00013022,0.034093,0.45361,-0.37882,0.61349,0.79924,0.11445,0.44669,0.17758,0.37749,0.5017,-0.062952,0.21661,0.76247,-0.15806,-0.11254,0.35297,-0.13106,-0.18001,0.080954,-0.5569,-0.56779
0.0060353,0.011761,-0.0037481,0.031097,0.39967,-0.43758,0.26871,0.78334,0.1353,0.43232,0.20845,0.41155,0.47698,-0.069476,0.21798,0.73947,-0.16065,-0.16416,0.2809,-0.13996,-0.15833,0.00046764,-0.71042,-0.6546
0.0096814,0.012053,-0.010865,0.03414,0.31115,-0.45318,-0.068004,0.75934,0.15017,0.46498,0.20499,0.4081,0.43514,-0.050695,0.23545,0.72441,-0.16286,-0.21304,0.23144,-0.13907,-0.12771,-0.053307,-0.95238,-0.71612
0.013565,0.012121,-0.017893,0.04349,0.21029,-0.4449,-0.34901,0.72452,0.15317,0.54169,0.16186,0.37164,0.38311,-0.015378,0.26333,0.72688,-0.16915,-0.23117,0.20581,-0.1369,-0.097251,-0.087454,-1.1914,-0.73063
0.015688,0.012924,-0.022117,0.053298,0.12842,-0.41718,-0.52972,0.6839,0.14233,0.64374,0.10235,0.32082,0.32337,0.017534,0.28671,0.74742,-0.18064,-0.20085,0.19862,-0.14185,-0.069347,-0.11474,-1.3451,-0.71042
0.015844,0.015242,-0.02293,0.056504,0.086689,-0.36576,-0.58548,0.64351,0.1227,0.74966,0.07121,0.27493,0.25567,0.031866,0.29191,0.77529,-0.19457,-0.1282,0.20053,-0.15848,-0.04303,-0.14344,-1.3941,-0.68789
0.015451,0.018959,-0.021503,0.050884,0.082879,-0.28827,-0.52469,0.60399,0.10308,0.84266,0.11589,0.24153,0.18545,0.027051,0.27786,0.79537,-0.20625,-0.048123,0.19856,-0.18628,-0.020739,-0.16957,-1.3733,-0.68669
0.015717,0.022992,-0.019574,0.04089,0.093998,-0.19412,-0.39011,0.56097,0.089262,0.91036,0.26412,0.21427,0.12937,0.019141,0.25815,0.79859,-0.21203,-0.01514,0.17591,-0.22072,-0.010986,-0.17794,-1.3258,-0.70221
0.016215,0.026067,-0.018331,0.033877,0.093405,-0.1066,-0.24405,0.51236,0.080312,0.94331,0.50976,0.18169,0.11011,0.027196,0.25073,0.78723,-0.21083,-0.078799,0.11376,-0.25492,-0.02332,-0.15255,-1.2729,-0.70547
0.015483,0.027698,-0.01802,0.034298,0.070272,-0.052695,-0.14133,0.46571,0.071833,0.9386,0.81507,0.13984,0.14248,0.055598,0.26314,0.77021,-0.20324,-0.25336,-0.0034272,-0.28095,-0.059383,-0.089584,-1.22,-0.66502
0.012978,0.028404,-0.018283,0.040874,0.03723,-0.04494,-0.10368,0.43757,0.063198,0.9078,1.1272,0.099003,0.22148,0.087952,0.28606,0.75222,-0.18915,-0.50038,-0.17852,-0.29102,-0.10791,-0.0031779,-1.1787,-0.56944
0.01014,0.028983,-0.018743,0.04862,0.020793,-0.068844,-0.11206,0.44253,0.061827,0.88043,1.3988,0.07965,0.3223,0.099427,0.3012,0.72617,-0.16662,-0.73953,-0.39067,-0.27944,-0.14885,0.080352,-1.1695,-0.43477
0.009248,0.02961,-0.019301,0.053241,0.041942,-0.088572,-0.12444,0.47948,0.079769,0.89496,1.6007,0.10062,0.41258,0.078339,0.29718,0.67586,-0.13352,-0.88577,-0.5899,-0.24505,-0.16445,0.13555,-1.1993,-0.29409
0.01114,0.029711,-0.019927,0.05383,0.10106,-0.071305,-0.1084,0.52682,0.12466,0.9787,1.7236,0.16762,0.46781,0.03878,0.27934,0.58741,-0.090922,-0.89264,-0.7078,-0.19249,-0.14971,0.14897,-1.2397,-0.17806
0.014145,0.02869,-0.020237,0.052121,0.17733,-0.014508,-0.065966,0.55273,0.19206,1.1281,1.7718,0.26838,0.47959,0.012484,0.26447,0.46045,-0.04505,-0.77585,-0.68862,-0.13099,-0.11471,0.12211,-1.2344,-0.099654
0.015372,0.026653,-0.019438,0.049913,0.24163,0.045112,-0.031976,0.53494,0.26519,1.304,1.7572,0.37594,0.45294,0.025054,0.26408,0.31056,-0.0054694,-0.60403,-0.52722,-0.071054,-0.077462,0.066858,-1.1349,-0.051656
0.01311,0.024269,-0.016949,0.047538,0.27288,0.050121,-0.047669,0.47553,0.32201,1.4473,1.6955,0.45718,0.39789,0.074795,0.27068,0.16096,0.01961,-0.46415,-0.28647,-0.021105,-0.052572,-0.0012915,-0.93612,-0.016707
0.0080592,0.021951,-0.01324,0.044495,0.26713,-0.043804,-0.13063,0.39934,0.34464,1.5075,1.6053,0.48304,0.32292,0.13091,0.25954,0.030053,0.027535,-0.42188,-0.07221,0.014123,-0.043567,-0.067885,-0.68379,0.017601
0.002433,0.019357,-0.0099755,0.040874,0.23511,-0.2437,-0.26405,0.33695,0.32559,1.466,1.5066,0.43823,0.23407,0.15289,0.2059,-0.076141,0.021768,-0.49554,0.026293,0.033246,-0.043557,-0.12189,-0.45288,0.048616
-0.0018663,0.015925,-0.0089731,0.037622,0.19247,-0.52181,-0.41098,0.30506,0.26866,1.3401,1.4163,0.32786,0.13717,0.1171,0.10463,-0.16207,0.0088326,-0.65085,-0.008665,0.03751,-0.042527,-0.15766,-0.31578,0.060235
-0.0041283,0.011932,-0.010658,0.035295,0.15032,-0.83904,-0.53861,0.29922,0.18645,1.1662,1.3419,0.1778,0.038501,0.031468,-0.022853,-0.23438,-0.0053203,-0.8144,-0.11522,0.030869,-0.035016,-0.17675,-0.31606,0.035575
-0.0042874,0.0087939,-0.013471,0.032888,0.11165,-1.1659,-0.63187,0.30279,0.096338,0.97442,1.273,0.025993,-0.057966,-0.070888,-0.13971,-0.29492,-0.01648,-0.9005,-0.19967,0.020305,-0.022458,-0.18703,-0.44899,-0.027418
-0.0021599,0.0079696,-0.015032,0.028348,0.073776,-1.4819,-0.68926,0.30279,0.015835,0.77168,1.1731,-0.093336,-0.15369,-0.15303,-0.21481,-0.34065,-0.020826,-0.84455,-0.2033,0.014623,-0.0092881,-0.19735,-0.64776,-0.10845
0.0022674,0.0093355,-0.014195,0.020604,0.033007,-1.7573,-0.71156,0.29824,-0.042802,0.54333,0.97951,-0.16469,-0.25465,-0.19445,-0.23879,-0.36994,-0.013968,-0.63202,-0.13493,0.020856,0.0029945,-0.21016,-0.78833,-0.17221
0.0078006,0.010714,-0.012082,0.01117,-0.012484,-1.9402,-0.6984,0.29444,-0.077048,0.27015,0.61981,-0.19581,-0.36526,-0.1968,-0.22515,-0.38875,0.0070696,-0.30806,-0.045134,0.039938,0.018461,-0.21767,-0.73389,-0.1875
0.011802,0.0093381,-0.010967,0.0035688,-0.063095,-1.9708,-0.65557,0.29001,-0.09452,-0.051736,0.050558,-0.20775,-0.48077,-0.17404,-0.19764,-0.41017,0.039843,0.042187,0.030603,0.064891,0.044137,-0.20641,-0.41545,-0.14632
0.011655,0.0041732,-0.012005,0.00080156,-0.11961,-1.817,-0.60137,0.27022,-0.10751,-0.40028,-0.69704,-0.21705,-0.58413,-0.13761,-0.17409,-0.44565,0.074672,0.33576,0.10582,0.083733,0.084845,-0.16815,0.097112,-0.069801
0.0069097,-0.0029536,-0.014004,0.0029605,-0.18361,-1.505,-0.55965,0.21478,-0.12414,-0.73069,-1.4937,-0.22294,-0.65054,-0.090173,-0.15739,-0.49371,0.098416,0.5323,0.22243,0.086042,0.14006,-0.10948,0.59875,0.0042245
4.2754e-005,-0.0085651,-0.014545,0.0070977,-0.25562,-1.1152,-0.54205,0.11418,-0.14234,-0.98901,-2.1391,-0.20953,-0.65796,-0.032625,-0.13816,-0.53495,0.10255,0.64594,0.39624,0.069235,0.20496,-0.051286,0.85336,0.044492
-0.0051265,-0.010157,-0.012347,0.0094819,-0.33276,-0.74337,-0.53581,-0.01935,-0.15179,-1.1296,-2.441,-0.16145,-0.59811,0.023291,-0.10547,-0.5391,0.089748,0.72121,0.58228,0.040514,0.27407,-0.016814,0.74586,0.045412
-0.0061349,-0.0080384,-0.0085188,0.0082975,-0.40864,-0.45371,-0.51147,-0.15652,-0.14308,-1.1302,-2.3096,-0.080917,-0.48243,0.05053,-0.057757,-0.48155,0.073208,0.79227,0.69694,0.013203,0.3437,-0.015558,0.37662,0.029585
-0.0034199,-0.0049106,-0.0054158,0.0045404,-0.47634,-0.25889,-0.44673,-0.26859,-0.11711,-1.0002,-1.8117,0.0068182,-0.34033,0.018412,-0.0069707,-0.35953,0.068345,0.8575,0.68078,-0.00023833,0.41165,-0.035137,0.017939,0.032732
0.00045062,-0.0036616,-0.0042667,0.00058109,-0.53203,-0.13664,-0.34652,-0.34381,-0.087029,-0.77873,-1.1448,0.064149,-0.21017,-0.085266,0.026422,-0.19693,0.08253,0.88755,0.54714,0.0055836,0.475,-0.048321,-0.053054,0.081731
0.0029465,-0.0052957,-0.0039963,-0.0020472,-0.57605,-0.063508,-0.2414,-0.3902,-0.070542,-0.52107,-0.54273,0.059969,-0.1259,-0.23767,0.024346,-0.033691,0.11039,0.85711,0.37223,0.026832,0.52894,-0.031559,0.26271,0.18
0.0032036,-0.0085561,-0.0024364,-0.0035925,-0.61061,-0.035073,-0.16541,-0.42328,-0.078181,-0.27923,-0.1656,-0.016243,-0.10342,-0.384,-0.018777,0.093991,0.13783,0.77098,0.23398,0.052921,0.56824,0.017781,0.8129,0.30808
0.0019841,-0.011201,0.001298,-0.0051728,-0.63642,-0.059022,-0.13229,-0.45033,-0.10661,-0.085371,-0.042059,-0.15343,-0.13243,-0.46112,-0.092976,0.17012,0.15143,0.66182,0.15232,0.071811,0.59032,0.078209,1.2817,0.43641
0.00044944,-0.011627,0.005644,-0.0072915,-0.65203,-0.13414,-0.12938,-0.46437,-0.14199,0.051939,-0.091726,-0.32893,-0.17879,-0.42837,-0.17859,0.20187,0.1461,0.56228,0.081714,0.075272,0.59783,0.11786,1.3797,0.54025
-0.00093336,-0.0096214,0.0077941,-0.009448,-0.65647,-0.23846,-0.13105,-0.45244,-0.17042,0.13802,-0.20339,-0.52001,-0.19914,-0.28753,-0.25708,0.20889,0.12615,0.47703,-0.040131,0.061835,0.59854,0.11569,1.0102,0.60777
-0.0024801,-0.0061351,0.0061205,-0.011128,-0.65257,-0.33715,-0.11706,-0.4104,-0.18707,0.17776,-0.30878,-0.7086,-0.16236,-0.081498,-0.31963,0.20836,0.10047,0.38014,-0.23177,0.036572,0.60233,0.075097,0.30862,0.63881
-0.0045528,-0.0027193,0.0015675,-0.012848,-0.64688,-0.40064,-0.080265,-0.35127,-0.19737,0.16916,-0.40349,-0.8783,-0.066498,0.12571,-0.36826,0.20751,0.076726,0.24155,-0.44777,0.0082819,0.61626,0.020545,-0.45818,0.63857
-0.0068265,-0.0011296,-0.0031889,-0.015865,-0.64556,-0.41632,-0.021716,-0.30036,-0.2101,0.1096,-0.51254,-1.0099,0.059876,0.276,-0.40968,0.20772,0.058754,0.060719,-0.61251,-0.014402,0.63979,-0.019455,-1.0534,0.61213
-0.0082576,-0.0029082,-0.0059412,-0.020673,-0.64952,-0.38733,0.055815,-0.28057,-0.22875,0.0078265,-0.6412,-1.0823,0.17394,0.3388,-0.44714,0.21415,0.047826,-0.12149,-0.67467,-0.026216,0.66282,-0.030271,-1.3838,0.56306
-0.0078301,-0.0086151,-0.0065243,-0.025893,-0.65322,-0.32566,0.14609,-0.29891,-0.24832,-0.11129,-0.75778,-1.0812,0.24258,0.3196,-0.47595,0.24013,0.044685,-0.24505,-0.63488,-0.026503,0.66853,-0.017451,-1.5025,0.49542
-0.005512,-0.017001,-0.0065045,-0.028907,-0.64869,-0.24888,0.2321,-0.3434,-0.25932,-0.21609,-0.82236,-1.0087,0.25829,0.2538,-0.48519,0.30073,0.049499,-0.27202,-0.5277,-0.018294,0.64098,0.0015083,-1.521,0.41598
-0.0026058,-0.025015,-0.0074704,-0.027891,-0.63153,-0.18046,0.28503,-0.39174,-0.25533,-0.28535,-0.83326,-0.88585,0.23681,0.18916,-0.46344,0.40062,0.059871,-0.21611,-0.38185,-0.0062385,0.57411,0.01219,-1.5113,0.33445
-0.0010266,-0.029197,-0.009535,-0.023437,-0.6042,-0.14683,0.27637,-0.42516,-0.23773,-0.31899,-0.84708,-0.74475,0.19959,0.16396,-0.40496,0.52706,0.069668,-0.13817,-0.20003,0.0051069,0.47681,0.013451,-1.4697,0.26119
-0.0018878,-0.027798,-0.011296,-0.018263,-0.57425,-0.16799,0.19658,-0.43864,-0.21431,-0.33278,-0.9498,-0.61291,0.1552,0.19008,-0.31362,0.6552,0.071054,-0.11033,0.023085,0.011779,0.36984,0.016188,-1.3566,0.20396
-0.0045104,-0.022042,-0.01113,-0.015241,-0.54912,-0.2482,0.064736,-0.44173,-0.19355,-0.34155,-1.1969,-0.50149,0.093645,0.24897,-0.20385,0.76179,0.058979,-0.17402,0.26543,0.010189,0.27518,0.032993,-1.1629,0.16571
-0.0068479,-0.0154,-0.0086048,-0.015452,-0.53174,-0.37596,-0.080147,-0.45081,-0.1793,-0.34601,-1.5659,-0.4049,-0.0028505,0.30201,-0.098411,0.83628,0.034701,-0.31996,0.46475,-0.002474,0.2043,0.067101,-0.93898,0.14453
-0.007186,-0.011278,-0.0048353,-0.017805,-0.51954,-0.53349,-0.20085,-0.47897,-0.16968,-0.33567,-1.9557,-0.31176,-0.14138,0.30964,-0.022457,0.881,0.0052512,-0.50024,0.54958,-0.026572,0.15319,0.10842,-0.76183,0.13569
-0.005732,-0.01086,-0.0015865,-0.02032,-0.50674,-0.70561,-0.2815,-0.52984,-0.16003,-0.30565,-2.2351,-0.21739,-0.30643,0.24889,0.0054023,0.90217,-0.021018,-0.65978,0.4946,-0.058154,0.10797,0.1389,-0.6742,0.13399
-0.0045845,-0.012717,3.4975e-005,-0.021816,-0.48748,-0.8788,-0.33309,-0.5987,-0.14701,-0.27102,-2.3094,-0.12731,-0.46303,0.12192,-0.018375,0.90172,-0.039436,-0.76354,0.35501,-0.089067,0.057083,0.14327,-0.65268,0.13491
-0.0059081,-0.014343,0.00025187,-0.022622,-0.45786,-1.0328,-0.38419,-0.67835,-0.1307,-0.26297,-2.1647,-0.049164,-0.57221,-0.046242,-0.07929,0.87791,-0.050843,-0.80346,0.24695,-0.11012,0.00088428,0.11821,-0.63409,0.13397
-0.009799,-0.014236,0.0002082,-0.023919,-0.4167,-1.1383,-0.46497,-0.76444,-0.1139,-0.30625,-1.8661,0.01856,-0.60804,-0.21678,-0.15069,0.8333,-0.059227,-0.78697,0.28229,-0.11575,-0.048498,0.074276,-0.57654,0.12544
-0.013757,-0.012863,0.00090679,-0.026459,-0.36586,-1.1694,-0.59244,-0.85574,-0.099892,-0.39537,-1.5132,0.089712,-0.56564,-0.34873,-0.20625,0.78049,-0.067553,-0.72135,0.5022,-0.10682,-0.076677,0.029777,-0.49984,0.10252
-0.014386,-0.011888,0.0023559,-0.029733,-0.31053,-1.1243,-0.76085,-0.95,-0.090554,-0.49067,-1.1842,0.18135,-0.45766,-0.41072,-0.23155,0.73786,-0.075344,-0.60739,0.85509,-0.089133,-0.077992,0.00070668,-0.46686,0.059907
-0.010068,-0.012504,0.003566,-0.032229,-0.25888,-1.0338,-0.93946,-1.0397,-0.085612,-0.54099,-0.89941,0.29986,-0.30535,-0.3911,-0.22737,0.7171,-0.079759,-0.44509,1.2317,-0.068661,-0.059224,-0.0066863,-0.51743,-0.0017247
-0.0024935,-0.014349,0.003391,-0.032536,-0.22023,-0.94623,-1.081,-1.1128,-0.08281,-0.51747,-0.62802,0.43472,-0.13242,-0.30361,-0.20344,0.71305,-0.078822,-0.24349,1.5296,-0.047586,-0.033643,0.0038872,-0.60935,-0.072433
0.0041752,-0.015916,0.0015913,-0.030483,-0.20205,-0.89659,-1.1417,-1.1588,-0.078705,-0.43322,-0.32932,0.56585,0.035039,-0.18443,-0.16839,0.7051,-0.07387,-0.024522,1.7024,-0.024519,-0.011127,0.024869,-0.6213,-0.13411
0.0059707,-0.016077,-0.00071512,-0.027464,-0.20725,-0.88318,-1.1058,-1.1769,-0.069983,-0.33394,0.0018668,0.67847,0.1671,-0.079173,-0.12467,0.67017,-0.069223,0.18337,1.7684,0.0013255,0.0070333,0.051665,-0.42789,-0.16733
0.0017735,-0.015383,-0.0016749,-0.025692,-0.23343,-0.87222,-0.99781,-1.1787,-0.054987,-0.26728,0.32199,0.7726,0.23407,-0.024179,-0.071568,0.59684,-0.069474,0.35846,1.7807,0.026115,0.024664,0.084354,0.0023404,-0.16136
-0.0058651,-0.015896,-8.6761e-005,-0.026843,-0.27431,-0.82613,-0.87161,-1.1837,-0.034612,-0.25431,0.57074,0.85944,0.21758,-0.031809,-0.012289,0.49032,-0.076437,0.49756,1.7889,0.041939,0.042619,0.12326,0.56331,-0.1213
-0.012319,-0.019464,0.0034438,-0.031019,-0.32202,-0.73189,-0.77798,-1.2087,-0.011743,-0.28273,0.72437,0.94775,0.12237,-0.087946,0.042872,0.36563,-0.087728,0.61872,1.8132,0.042361,0.054137,0.16316,1.0689,-0.06676
-0.013901,-0.02571,0.0066014,-0.03673,-0.36883,-0.60609,-0.7336,-1.2577,0.010533,-0.32294,0.82495,1.0318,-0.021001,-0.16279,0.081331,0.23682,-0.09757,0.75101,1.8414,0.028597,0.048361,0.19234,1.3815,-0.021393
-0.010304,-0.031509,0.0068881,-0.041869,-0.40762,-0.47488,-0.71462,-1.3183,0.030464,-0.35106,0.95581,1.0902,-0.16672,-0.22738,0.097156,0.11156,-0.099336,0.91466,1.8395,0.01061,0.019135,0.19853,1.517,0.00029498
-0.0047473,-0.032756,0.0035798,-0.044987,-0.43204,-0.34953,-0.68075,-1.3667,0.047534,-0.36113,1.1782,1.0981,-0.27207,-0.26531,0.096066,-0.0059979,-0.088766,1.1011,1.7691,0.0011969,-0.028746,0.17743,1.6332,-0.00020353
-0.0016202,-0.027389,-0.0014517,-0.046034,-0.43722,-0.22104,-0.61078,-1.3783,0.060975,-0.36124,1.4798,1.043,-0.31285,-0.27379,0.091646,-0.10948,-0.06664,1.2663,1.6059,0.00712,-0.081498,0.13656,1.8982,-0.0096815
-0.0032527,-0.017419,-0.0049276,-0.046188,-0.42121,-0.077864,-0.52079,-1.3365,0.068758,-0.36186,1.7793,0.93694,-0.28824,-0.25645,0.095763,-0.18943,-0.039441,1.3462,1.3567,0.024245,-0.12509,0.090904,2.3341,-0.014576
-0.0082339,-0.0081696,-0.0046574,-0.047023,-0.3861,0.072894,-0.45069,-1.2383,0.068761,-0.36797,1.9849,0.81498,-0.21531,-0.21554,0.11123,-0.23905,-0.016926,1.2916,1.0672,0.040766,-0.1537,0.053547,2.7699,-0.0098786
-0.012638,-0.0050125,-0.0014105,-0.049591,-0.33766,0.20508,-0.43165,-1.0931,0.061648,-0.37851,2.0555,0.72164,-0.1195,-0.15008,0.13238,-0.26099,-0.0071036,1.1027,0.80974,0.04602,-0.17136,0.028785,2.9533,0.00098685
-0.013239,-0.0098724,0.0015159,-0.053911,-0.28333,0.29877,-0.46242,-0.91973,0.052892,-0.38819,2.0159,0.69025,-0.026166,-0.060716,0.15182,-0.26806,-0.011382,0.83985,0.64821,0.037813,-0.18636,0.013148,2.744,0.013241
-0.010126,-0.02008,0.00095629,-0.059004,-0.22974,0.36937,-0.51349,-0.74255,0.051474,-0.38657,1.9164,0.72654,0.045498,0.043393,0.16658,-0.27637,-0.023419,0.59588,0.5955,0.02251,-0.20345,0.0027744,2.2352,0.026594
-0.0065664,-0.03038,-0.0032576,-0.063374,-0.18096,0.47041,-0.55234,-0.5869,0.065384,-0.35649,1.781,0.8065,0.087534,0.14161,0.17823,-0.29627,-0.033121,0.44386,0.59065,0.0084184,-0.22004,-0.00014399,1.7021,0.043979
-0.006224,-0.036501,-0.0077155,-0.065671,-0.13818,0.65965,-0.56426,-0.47237,0.096818,-0.27872,1.5955,0.89163,0.10615,0.20615,0.18799,-0.32842,-0.033212,0.39397,0.5193,-0.0013256,-0.22837,0.011366,1.4147,0.065263
-0.010064,-0.037575,-0.0079581,-0.06529,-0.10029,0.95102,-0.54839,-0.40434,0.14051,-0.14503,1.3412,0.95302,0.1191,0.21251,0.19256,-0.36747,-0.02332,0.39265,0.27466,-0.0099557,-0.22095,0.040194,1.4572,0.083298
-0.015499,-0.03584,-0.0023138,-0.06269,-0.064822,1.2917,-0.49364,-0.36907,0.18635,0.028737,1.0378,0.98817,0.14625,0.15105,0.18504,-0.40895,-0.008218,0.36778,-0.17457,-0.021435,-0.19514,0.076321,1.6842,0.086916
-0.018433,-0.034274,0.0061585,-0.059245,-0.028956,1.5871,-0.3617,-0.33807,0.22434,0.2029,0.74471,1.0177,0.19825,0.033809,0.15997,-0.45286,0.0081881,0.28639,-0.75566,-0.033457,-0.1543,0.097125,1.8358,0.067899
-0.016467,-0.034323,0.011557,-0.0566,0.0094438,1.7587,-0.10214,-0.28224,0.24858,0.33268,0.51623,1.0639,0.27227,-0.10757,0.11774,-0.50102,0.027577,0.17831,-1.328,-0.036225,-0.10629,0.079163,1.7132,0.024943
-0.010727,-0.035427,0.0096436,-0.055718,0.051006,1.7919,0.30326,-0.18825,0.25814,0.39457,0.35369,1.1267,0.35875,-0.23255,0.0651,-0.55158,0.055934,0.10461,-1.7664,-0.019488,-0.060966,0.014002,1.2889,-0.038569
-0.0049733,-0.036257,0.0013486,-0.056123,0.094745,1.7368,0.80066,-0.065655,0.25538,0.40093,0.20221,1.1768,0.45292,-0.30582,0.012493,-0.59656,0.096878,0.096303,-2.0364,0.016935,-0.027939,-0.083872,0.69149,-0.11909
-0.0028691,-0.036158,-0.007772,-0.05597,0.13894,1.6632,1.268,0.061482,0.2435,0.39076,-0.00061797,1.1725,0.55869,-0.30841,-0.028951,-0.62542,0.14531,0.11692,-2.2088,0.057596,-0.014319,-0.18392,0.10135,-0.21344
-0.0055111,-0.035468,-0.01185,-0.053174,0.18245,1.609,1.5724,0.17247,0.22516,0.40315,-0.26793,1.0862,0.67901,-0.24152,-0.049553,-0.6325,0.18739,0.084302,-2.4009,0.076248,-0.022515,-0.2569,-0.35812,-0.31448
-0.010954,-0.034711,-0.0092641,-0.047025,0.2253,1.5636,1.6478,0.26365,0.20228,0.45314,-0.55036,0.92328,0.80107,-0.12392,-0.043833,-0.6226,0.20773,-0.064158,-2.688,0.048947,-0.048737,-0.29052,-0.66585,-0.40776
-0.015819,-0.033753,-0.0036527,-0.039089,0.26769,1.4968,1.5359,0.34692,0.17632,0.52657,-0.77766,0.71777,0.89303,0.013925,-0.014509,-0.61012,0.19874,-0.31806,-3.0502,-0.032646,-0.083496,-0.29293,-0.87643,-0.47523
-0.017627,-0.031878,-0.00063614,-0.032414,0.30792,1.4,1.3592,0.43483,0.14822,0.59394,-0.91591,0.51137,0.92023,0.13682,0.025146,-0.61216,0.16514,-0.59856,-3.392,-0.15563,-0.11456,-0.2834,-1.059,-0.50405
-0.016184,-0.028658,-0.0031974,-0.029349,0.34072,1.2996,1.2395,0.52545,0.11825,0.62967,-0.98912,0.33205,0.86975,0.21353,0.055101,-0.63994,0.12084,-0.81611,-3.6107,-0.28994,-0.13137,-0.27884,-1.2477,-0.4918
-0.01321,-0.02469,-0.0096747,-0.029598,0.35771,1.2274,1.2217,0.60032,0.086192,0.62272,-1.0486,0.18707,0.76131,0.22722,0.058863,-0.69391,0.08101,-0.92955,-3.6518,-0.39805,-0.12883,-0.28614,-1.4297,-0.44142
-0.010745,-0.021441,-0.015804,-0.03022,0.35068,1.1779,1.2567,0.63747,0.052107,0.57586,-1.1215,0.071941,0.63205,0.1834,0.03373,-0.7653,0.055247,-0.95581,-3.5079,-0.44506,-0.10868,-0.30351,-1.5662,-0.35055
-0.009679,-0.020353,-0.018597,-0.027798,0.31601,1.0963,1.2519,0.62834,0.017171,0.49999,-1.1855,-0.016002,0.50648,0.10875,-0.0077659,-0.84222,0.045638,-0.92736,-3.1741,-0.40709,-0.078073,-0.32605,-1.6252,-0.20832
-0.0094336,-0.021961,-0.018444,-0.021055,0.2576,0.91276,1.1481,0.58446,-0.016106,0.40988,-1.1903,-0.071749,0.37831,0.037701,-0.047646,-0.91578,0.048924,-0.84443,-2.6197,-0.27908,-0.046365,-0.34876,-1.6017,-0.0076374
-0.0088321,-0.02565,-0.017854,-0.011714,0.18588,0.59725,0.96241,0.52894,-0.044393,0.32115,-1.1019,-0.088322,0.22124,-0.0065937,-0.075836,-0.98227,0.059536,-0.6729,-1.8192,-0.081653,-0.021834,-0.36508,-1.5164,0.23427
-0.0072164,-0.030052,-0.018589,-0.0028595,0.11289,0.18685,0.76793,0.48014,-0.064377,0.24542,-0.93051,-0.067183,0.019665,-0.023977,-0.095494,-1.0411,0.071291,-0.39303,-0.81973,0.13875,-0.0096491,-0.36494,-1.3977,0.46646
-0.0048249,-0.033635,-0.020274,0.003652,0.046472,-0.23656,0.63049,0.44064,-0.073546,0.18518,-0.72008,-0.023377,-0.20876,-0.032436,-0.11571,-1.091,0.078248,-0.051614,0.22347,0.32256,-0.01147,-0.33739,-1.2659,0.62012
-0.002253,-0.03514,-0.021688,0.0083335,-0.012652,-0.59881,0.55568,0.39865,-0.070947,0.13471,-0.51318,0.018912,-0.41971,-0.050527,-0.13877,-1.1294,0.076182,0.23866,1.0996,0.42194,-0.026225,-0.27776,-1.1321,0.64371
0.00028302,-0.03386,-0.022912,0.012827,-0.068578,-0.87171,0.48717,0.33858,-0.058116,0.08975,-0.32444,0.036548,-0.57209,-0.081687,-0.15469,-1.1547,0.064569,0.36323,1.6569,0.42486,-0.051271,-0.19396,-1.0116,0.53393
0.0030365,-0.029866,-0.025557,0.017704,-0.12463,-1.0693,0.35405,0.25135,-0.039723,0.058714,-0.14244,0.01601,-0.65463,-0.1135,-0.14876,-1.1695,0.047103,0.28545,1.8908,0.36118,-0.08332,-0.10565,-0.93505,0.33954
0.0060878,-0.024114,-0.03054,0.021706,-0.17895,-1.2129,0.12645,0.13765,-0.022836,0.062484,0.046797,-0.043868,-0.68661,-0.1316,-0.11577,-1.1809,0.029268,0.075881,1.9307,0.28309,-0.11893,-0.03541,-0.94297,0.13465
0.0087354,-0.018207,-0.035868,0.023307,-0.22489,-1.3013,-0.1659,0.0046808,-0.014103,0.11801,0.23862,-0.13373,-0.69468,-0.13454,-0.067418,-1.1947,0.014315,-0.13512,1.9326,0.23154,-0.15461,0.0024673,-1.06,-0.019902
0.0097453,-0.013711,-0.037379,0.022997,-0.25598,-1.3134,-0.46479,-0.13823,-0.01594,0.21721,0.40816,-0.23668,-0.68889,-0.13537,-0.025968,-1.2076,0.0010881,-0.24502,1.9675,0.21278,-0.18686,0.0078613,-1.2682,-0.1022
0.0084332,-0.011349,-0.032472,0.02372,-0.27138,-1.2373,-0.73614,-0.28139,-0.024503,0.3212,0.52629,-0.33116,-0.65911,-0.14833,-0.0092015,-1.204,-0.01409,-0.23839,1.9966,0.2022,-0.21227,-0.0079488,-1.502,-0.1287
0.0056145,-0.010647,-0.023395,0.028583,-0.27711,-1.0964,-0.99911,-0.41426,-0.031778,0.37955,0.57752,-0.3955,-0.59221,-0.17318,-0.01955,-1.1623,-0.033085,-0.17627,1.9436,0.17115,-0.22798,-0.030713,-1.6734,-0.1333
0.0033845,-0.010352,-0.016447,0.037721,-0.28218,-0.94724,-1.3062,-0.5261,-0.031198,0.36267,0.56674,-0.415,-0.49137,-0.19263,-0.04606,-1.0678,-0.053373,-0.13291,1.7886,0.11357,-0.2324,-0.05073,-1.7148,-0.14281
0.0036693,-0.0093415,-0.017076,0.047354,-0.2926,-0.84929,-1.6882,-0.60876,-0.022937,0.2819,0.51366,-0.38859,-0.37918,-0.18607,-0.076282,-0.92564,-0.069919,-0.13736,1.5933,0.050342,-0.22598,-0.064888,-1.6125,-0.16289
0.0066622,-0.0073179,-0.02505,0.052324,-0.30805,-0.83079,-2.1057,-0.65937,-0.014513,0.18001,0.44243,-0.32985,-0.28321,-0.14784,-0.10694,-0.76166,-0.079862,-0.16521,1.4401,0.0095546,-0.21139,-0.073577,-1.4076,-0.17971
0.010527,-0.0047832,-0.034261,0.050209,-0.32361,-0.87558,-2.4436,-0.67959,-0.015655,0.099564,0.3736,-0.25998,-0.21895,-0.093722,-0.14436,-0.61042,-0.085374,-0.17698,1.3482,0.0016931,-0.1927,-0.076307,-1.1669,-0.17344
0.012767,-0.0024116,-0.037669,0.043493,-0.33448,-0.93736,-2.5578,-0.67157,-0.03109,0.054282,0.31984,-0.19664,-0.18528,-0.049584,-0.19536,-0.4964,-0.091662,-0.16064,1.2528,0.012049,-0.17387,-0.069665,-0.9418,-0.13548
0.012224,-0.00044637,-0.033067,0.03776,-0.34,-0.96813,-2.3463,-0.63489,-0.056851,0.02554,0.28378,-0.14661,-0.17386,-0.031639,-0.25769,-0.42201,-0.10176,-0.13875,1.0691,0.015966,-0.15732,-0.048514,-0.74377,-0.079523
0.010035,0.0013553,-0.024565,0.037335,-0.34373,-0.94157,-1.8069,-0.56898,-0.08303,-0.016352,0.25802,-0.10662,-0.18109,-0.035083,-0.31879,-0.37126,-0.113,-0.13922,0.77925,0.0016805,-0.14361,-0.0091562,-0.5502,-0.038265
0.0087204,0.0032803,-0.01866,0.042037,-0.34993,-0.86046,-1.0495,-0.48053,-0.10063,-0.08645,0.22897,-0.069813,-0.21121,-0.040193,-0.36364,-0.32616,-0.11877,-0.16333,0.46053,-0.020288,-0.13228,0.047218,-0.33403,-0.044439
0.010113,0.0052403,-0.01873,0.047801,-0.35932,-0.74996,-0.2587,-0.38915,-0.107,-0.17654,0.18495,-0.030862,-0.26964,-0.029951,-0.38501,-0.28287,-0.114,-0.18378,0.22564,-0.028761,-0.12311,0.11184,-0.096162,-0.1061
0.013877,0.0068336,-0.022952,0.050468,-0.36724,-0.64418,0.37717,-0.32415,-0.10585,-0.26777,0.12392,0.013994,-0.35512,-0.0039079,-0.38736,-0.25433,-0.099785,-0.17407,0.12671,-0.012623,-0.11666,0.16749,0.12122,-0.19381
0.017833,0.0078403,-0.027053,0.04931,-0.36541,-0.57306,0.7351,-0.31153,-0.10275,-0.35006,0.054795,0.069141,-0.45854,0.023073,-0.38207,-0.25673,-0.082766,-0.13986,0.10809,0.018658,-0.11386,0.19096,0.24955,-0.25288
0.01975,0.008645,-0.028666,0.047193,-0.34596,-0.55272,0.79362,-0.35938,-0.10059,-0.43048,-0.010105,0.13814,-0.56783,0.035292,-0.37831,-0.29088,-0.069938,-0.12119,0.048782,0.043615,-0.11517,0.1601,0.23092,-0.23695
0.019021,0.010095,-0.028944,0.047455,-0.30518,-0.58127,0.62037,-0.45265,-0.098662,-0.52469,-0.066503,0.21735,-0.67219,0.031143,-0.37692,-0.33391,-0.063171,-0.16193,-0.14164,0.047715,-0.12028,0.064127,0.060381,-0.14094
0.016832,0.012773,-0.030224,0.05059,-0.24503,-0.64121,0.32361,-0.56218,-0.095455,-0.6413,-0.12427,0.29091,-0.76148,0.025954,-0.37109,-0.34921,-0.0579,-0.2711,-0.45208,0.035387,-0.12829,-0.08686,-0.18841,-0.0088524
0.014823,0.016234,-0.032637,0.053843,-0.17135,-0.70731,0.0014557,-0.66127,-0.091618,-0.77323,-0.2022,0.33478,-0.82361,0.040504,-0.35235,-0.30804,-0.046703,-0.40705,-0.77774,0.025254,-0.13775,-0.25886,-0.374,0.091704
0.013594,0.018928,-0.033397,0.05394,-0.090398,-0.75599,-0.27992,-0.73773,-0.09005,-0.90158,-0.314,0.33055,-0.84624,0.084422,-0.3169,-0.20733,-0.024656,-0.49535,-0.99417,0.033946,-0.14631,-0.40096,-0.34341,0.11081
0.012438,0.019092,-0.029547,0.050152,-0.0056992,-0.7717,-0.47466,-0.79311,-0.093169,-1.0063,-0.45503,0.27941,-0.82382,0.14718,-0.26857,-0.071499,0.0075957,-0.46616,-1.0364,0.062949,-0.15092,-0.46166,-0.017975,0.043294
0.010444,0.016098,-0.021357,0.044792,0.082147,-0.74859,-0.53917,-0.83249,-0.10025,-1.0738,-0.5993,0.20394,-0.76387,0.20309,-0.21779,0.061822,0.044687,-0.28611,-0.92707,0.098696,-0.14967,-0.40915,0.53709,-0.077359
0.0077961,0.011187,-0.012861,0.040853,0.17246,-0.68952,-0.43987,-0.85536,-0.10743,-1.0966,-0.70943,0.13405,-0.68441,0.22621,-0.17772,0.16136,0.079761,0.031407,-0.74482,0.12391,-0.14486,-0.24771,1.1157,-0.21072
0.0059234,0.0068108,-0.0088729,0.039296,0.26053,-0.60516,-0.18939,-0.85608,-0.11034,-1.0692,-0.75353,0.086622,-0.60198,0.20481,-0.1596,0.21477,0.10732,0.43666,-0.56812,0.12954,-0.14473,-0.022047,1.4695,-0.33883
0.0062849,0.0048854,-0.011124,0.038589,0.33663,-0.51329,0.12482,-0.83212,-0.10671,-0.98744,-0.71945,0.054726,-0.51906,0.14622,-0.16821,0.22921,0.12411,0.86332,-0.43869,0.11801,-0.16069,0.19474,1.4576,-0.46952
0.0089186,0.0052929,-0.016974,0.03665,0.39002,-0.43586,0.36334,-0.79066,-0.096834,-0.85228,-0.61931,0.015117,-0.42206,0.070333,-0.1995,0.22333,0.12861,1.247,-0.36087,0.097572,-0.20032,0.32791,1.1466,-0.6137
0.012136,0.0059511,-0.021713,0.03297,0.41617,-0.39227,0.41284,-0.74571,-0.081858,-0.67575,-0.48306,-0.051806,-0.29342,-0.0028795,-0.24166,0.21754,0.12036,1.5376,-0.32194,0.074129,-0.26036,0.33243,0.77874,-0.76016
0.013708,0.0045339,-0.022355,0.028806,0.42165,-0.39036,0.26796,-0.70756,-0.062077,-0.48129,-0.34547,-0.14566,-0.12922,-0.063739,-0.27995,0.22658,0.099834,1.7055,-0.30861,0.047758,-0.3256,0.21375,0.61473,-0.87267
0.012539,0.00045007,-0.019704,0.025504,0.4223,-0.41954,0.047533,-0.67389,-0.037174,-0.29621,-0.2329,-0.24644,0.051377,-0.11549,-0.30291,0.25487,0.068596,1.7408,-0.30983,0.015143,-0.37591,0.025869,0.7599,-0.91282
0.009393,-0.0046418,-0.01718,0.022986,0.43452,-0.45034,-0.079861,-0.63081,-0.0080711,-0.14026,-0.15584,-0.33115,0.2135,-0.16891,-0.3061,0.29454,0.029416,1.6487,-0.3145,-0.025558,-0.39747,-0.15439,1.1035,-0.86841
0.0061282,-0.0082612,-0.017603,0.019979,0.46556,-0.44179,-0.011653,-0.56312,0.021619,-0.01829,-0.10973,-0.39362,0.32653,-0.23287,-0.29112,0.32741,-0.013639,1.442,-0.31644,-0.071791,-0.39036,-0.26336,1.4153,-0.76182
0.0041706,-0.0092151,-0.020673,0.015596,0.5094,-0.35501,0.21962,-0.46473,0.046275,0.077494,-0.082563,-0.45208,0.38319,-0.30675,-0.26205,0.3324,-0.054968,1.1385,-0.32549,-0.11716,-0.36709,-0.27676,1.5177,-0.6315
0.0035299,-0.0085024,-0.023057,0.010454,0.55121,-0.16855,0.47703,-0.34086,0.060883,0.15715,-0.063579,-0.53869,0.40428,-0.37855,-0.22286,0.29623,-0.08774,0.76211,-0.37101,-0.15412,-0.34319,-0.2124,1.3945,-0.50313
0.0030697,-0.00824,-0.02095,0.0061528,0.57694,0.11065,0.62264,-0.20164,0.063662,0.22215,-0.047537,-0.67825,0.42523,-0.42962,-0.17812,0.22148,-0.10568,0.34891,-0.48705,-0.17705,-0.32682,-0.11119,1.16,-0.37483
0.001648,-0.0096667,-0.013149,0.0037617,0.58098,0.44676,0.60933,-0.054136,0.056788,0.26223,-0.032339,-0.87037,0.47303,-0.44327,-0.13459,0.12649,-0.10631,-0.051765,-0.6851,-0.18447,-0.31439,-0.011496,0.93615,-0.22647
-0.00088837,-0.012096,-0.0023785,0.0029488,0.56665,0.78672,0.49304,0.099606,0.044853,0.26247,-0.013789,-1.0863,0.54892,-0.41248,-0.099842,0.037312,-0.093448,-0.38453,-0.93544,-0.18012,-0.29406,0.066692,0.75906,-0.041546
-0.0036203,-0.013761,0.0061342,0.002512,0.54044,1.0789,0.36839,0.25811,0.032351,0.21574,0.016473,-1.2818,0.62919,-0.34287,-0.077363,-0.022498,-0.076494,-0.60348,-1.1747,-0.17209,-0.25376,0.12129,0.59312,0.17815
-0.0053481,-0.013702,0.0079877,0.0015233,0.5054,1.2887,0.29302,0.41554,0.021974,0.1315,0.067099,-1.4178,0.6843,-0.24975,-0.062567,-0.038241,-0.065538,-0.68925,-1.3379,-0.16932,-0.18819,0.15766,0.42136,0.41513
-0.0055767,-0.012875,0.002603,-0.00022957,0.45972,1.4019,0.26521,0.56229,0.014616,0.034796,0.14055,-1.4765,0.70388,-0.15155,-0.045141,-0.0053713,-0.065452,-0.65942,-1.3939,-0.1768,-0.10133,0.17917,0.30648,0.6487
-0.0049332,-0.013407,-0.0062339,-0.0027948,0.40165,1.4175,0.26249,0.69113,0.010603,-0.044658,0.23024,-1.4634,0.70981,-0.063941,-0.017796,0.070887,-0.073384,-0.56681,-1.3584,-0.19212,-0.0043141,0.18533,0.35094,0.86338
-0.0047085,-0.016609,-0.012788,-0.0066194,0.33652,1.3384,0.29229,0.80287,0.010749,-0.086893,0.32431,-1.3969,0.74683,0.0022745,0.01557,0.1754,-0.081876,-0.48451,-1.2783,-0.20642,0.089279,0.17549,0.58836,1.0476
-0.0058498,-0.021558,-0.013124,-0.012155,0.27906,1.1699,0.39959,0.90602,0.016156,-0.091335,0.4126,-1.2915,0.85575,0.040035,0.040485,0.28483,-0.084954,-0.48008,-1.2003,-0.20964,0.16837,0.15225,0.91096,1.1897
-0.0081422,-0.025584,-0.0075043,-0.018832,0.24791,0.92884,0.62332,1.0105,0.026874,-0.075974,0.49066,-1.1491,1.0469,0.044881,0.042323,0.37495,-0.081786,-0.58614,-1.147,-0.19651,0.22779,0.12095,1.111,1.2798
-0.010234,-0.026413,0.00025827,-0.024759,0.25512,0.65384,0.94417,1.1207,0.040736,-0.06602,0.55754,-0.96278,1.2913,0.017137,0.018276,0.43203,-0.074757,-0.77931,-1.1151,-0.16901,0.26898,0.086638,1.0138,1.3187
-0.010583,-0.02419,0.0058473,-0.027926,0.29773,0.40433,1.2756,1.2338,0.053872,-0.077835,0.61096,-0.73019,1.5331,-0.03312,-0.019738,0.45999,-0.064281,-0.98126,-1.0897,-0.13359,0.29788,0.052057,0.59744,1.3232
-0.0086859,-0.021593,0.0074008,-0.028012,0.35767,0.2435,1.5102,1.3434,0.063053,-0.10706,0.64607,-0.46395,1.7128,-0.083302,-0.054135,0.47555,-0.046185,-1.0896,-1.059,-0.096046,0.3211,0.018575,0.0045844,1.3182
-0.0056375,-0.021732,0.0061622,-0.02694,0.41036,0.21326,1.5839,1.4442,0.068334,-0.12836,0.66075,-0.18891,1.7847,-0.10346,-0.074596,0.49301,-0.015215,-1.0295,-1.0171,-0.058577,0.34226,-0.011068,-0.56012,1.3213
-0.0035106,-0.025444,0.0046826,-0.027366,0.43667,0.31692,1.5077,1.5331,0.073715,-0.10784,0.66359,0.072736,1.7215,-0.070124,-0.083226,0.511,0.027952,-0.79986,-0.95703,-0.021256,0.36036,-0.030808,-0.96392,1.3304
-0.0039432,-0.030327,0.0044467,-0.030362,0.43093,0.52136,1.3439,1.6069,0.084811,-0.021628,0.67663,0.31556,1.5114,0.01814,-0.087851,0.51341,0.073009,-0.48371,-0.86598,0.014181,0.37076,-0.031929,-1.2117,1.3278
-0.007013,-0.032596,0.0049866,-0.034518,0.40118,0.77709,1.1521,1.6603,0.10485,0.13069,0.72762,0.55038,1.1609,0.13491,-0.090936,0.48482,0.10431,-0.20863,-0.72993,0.042664,0.368,-0.0066558,-1.4068,1.2939
-0.01127,-0.030418,0.0049397,-0.037422,0.36263,1.0426,0.95024,1.6871,0.1318,0.32584,0.83374,0.78767,0.70248,0.23697,-0.08568,0.42723,0.1108,-0.077117,-0.54514,0.058443,0.34878,0.046501,-1.6508,1.219
-0.014841,-0.025847,0.0037346,-0.038108,0.32959,1.2976,0.71763,1.6846,0.15878,0.5291,0.9854,1.0183,0.20017,0.2881,-0.063277,0.36281,0.09377,-0.10875,-0.32465,0.059915,0.31385,0.11833,-1.9608,1.1026
-0.01661,-0.023394,0.0022609,-0.038049,0.31054,1.5403,0.43075,1.6565,0.17756,0.71,1.1402,1.2095,-0.26047,0.28067,-0.023633,0.31948,0.065908,-0.23348,-0.092818,0.051974,0.26778,0.1892,-2.2524,0.94455
-0.016507,-0.026138,0.0020738,-0.039661,0.30841,1.7747,0.099107,1.6109,0.1828,0.85061,1.2327,1.3221,-0.60062,0.23909,0.022056,0.31101,0.04216,-0.34194,0.12761,0.043234,0.21715,0.23637,-2.3827,0.74116
-0.014858,-0.0327,0.0040563,-0.043791,0.32449,2.0007,-0.22692,1.556,0.17447,0.94349,1.1981,1.3373,-0.78058,0.20066,0.060363,0.32775,0.029689,-0.35903,0.32428,0.040097,0.16801,0.24607,-2.2157,0.49289
-0.011721,-0.037971,0.0077654,-0.048741,0.36186,2.2118,-0.47853,1.4978,0.15703,0.98487,1.0012,1.2716,-0.81647,0.18623,0.087663,0.344,0.02465,-0.29016,0.49344,0.042606,0.12404,0.22264,-1.6802,0.2164
-0.0071036,-0.037319,0.011858,-0.051866,0.42482,2.397,-0.60227,1.4422,0.13648,0.97224,0.65768,1.17,-0.76948,0.1822,0.1127,0.3341,0.017551,-0.20964,0.63259,0.045489,0.086448,0.18682,-0.80923,-0.053885
-0.0018856,-0.030717,0.015018,-0.052236,0.51348,2.5411,-0.58314,1.3984,0.11712,0.90896,0.23697,1.08,-0.71354,0.1482,0.14607,0.28333,0.001945,-0.20276,0.7387,0.043267,0.055346,0.1621,0.24362,-0.27966
0.0017158,-0.02307,0.016595,-0.051727,0.61721,2.6226,-0.447,1.3781,0.10004,0.8101,-0.15918,1.0285,-0.70067,0.046414,0.18635,0.18749,-0.020832,-0.30556,0.81571,0.034834,0.031362,0.15824,1.2285,-0.43734
0.0011782,-0.020247,0.016639,-0.053378,0.71341,2.6173,-0.24623,1.3888,0.083728,0.70071,-0.43438,1.0129,-0.7427,-0.128,0.21689,0.046407,-0.044026,-0.48417,0.88246,0.023683,0.015988,0.16478,1.8766,-0.52512
-0.004214,-0.024208,0.015603,-0.058528,0.77567,2.5096,-0.038711,1.4269,0.066119,0.6048,-0.53562,1.0112,-0.8163,-0.33648,0.21829,-0.13832,-0.061841,-0.66366,0.96744,0.013996,0.010222,0.16029,2.014,-0.55396
-0.011966,-0.031477,0.01408,-0.065429,0.78838,2.3081,0.13078,1.4766,0.046472,0.53258,-0.47227,0.99772,-0.8838,-0.51311,0.18665,-0.35783,-0.073974,-0.78007,1.0876,0.0063873,0.012526,0.13015,1.6512,-0.53413
-0.017318,-0.036301,0.012654,-0.070666,0.75777,2.0507,0.24167,1.5187,0.025847,0.47642,-0.3054,0.95473,-0.91494,-0.59584,0.14102,-0.58954,-0.084981,-0.81699,1.2258,-0.0029254,0.017968,0.07843,0.98378,-0.47264
-0.01635,-0.035591,0.011789,-0.072101,0.70944,1.7911,0.29856,1.542,0.0061761,0.4191,-0.11452,0.8741,-0.89814,-0.55468,0.11204,-0.79975,-0.10004,-0.80565,1.3293,-0.018972,0.019789,0.024312,0.28598,-0.3829
-0.0090351,-0.03125,0.011683,-0.070661,0.6716,1.5716,0.32235,1.5484,-0.011116,0.34746,0.038046,0.75403,-0.8389,-0.40447,0.11943,-0.95766,-0.12127,-0.79676,1.3364,-0.043709,0.01293,-0.012882,-0.24422,-0.292
0.00029608,-0.027989,0.012165,-0.069429,0.65513,1.403,0.33558,1.5479,-0.025743,0.26097,0.12426,0.59675,-0.75115,-0.20016,0.15651,-1.0514,-0.14729,-0.82937,1.2177,-0.073941,-0.0024906,-0.026815,-0.58434,-0.23158
0.0057394,-0.028831,0.012752,-0.070985,0.64585,1.2647,0.34962,1.5476,-0.038051,0.16977,0.14318,0.41007,-0.6496,-0.018467,0.19437,-1.0925,-0.17503,-0.91549,1.0026,-0.10262,-0.020076,-0.024885,-0.86016,-0.21587
0.0038893,-0.032513,0.012852,-0.075384,0.61584,1.1263,0.36054,1.5435,-0.04802,0.086511,0.1025,0.21041,-0.54693,0.069843,0.20291,-1.1051,-0.20101,-1.0417,0.77172,-0.12192,-0.02942,-0.017916,-1.2092,-0.22779
-0.0038869,-0.035002,0.012035,-0.080455,0.5457,0.97253,0.35518,1.5209,-0.054767,0.019871,0.0089356,0.022606,-0.45431,0.029882,0.17246,-1.1083,-0.2208,-1.1768,0.61869,-0.12576,-0.020688,-0.0095106,-1.6351,-0.23002
-0.012682,-0.03348,0.010295,-0.08391,0.44061,0.81223,0.32217,1.4612,-0.056998,-0.025805,-0.12471,-0.12647,-0.38094,-0.11767,0.11979,-1.1075,-0.22813,-1.2785,0.6069,-0.11076,0.011006,0.0052307,-1.9648,-0.19521
-0.017733,-0.029028,0.0081991,-0.085266,0.32825,0.66591,0.26018,1.35,-0.053919,-0.047462,-0.26715,-0.21919,-0.33067,-0.30171,0.075109,-1.1006,-0.21619,-1.302,0.74392,-0.07655,0.063826,0.031483,-1.9492,-0.1299
-0.017623,-0.025653,0.0068113,-0.085922,0.24114,0.54403,0.17834,1.1819,-0.045726,-0.042471,-0.37125,-0.25806,-0.29831,-0.43462,0.061276,-1.0914,-0.18145,-1.2173,0.98141,-0.026604,0.13081,0.065376,-1.4445,-0.070526
-0.01464,-0.026749,0.0072684,-0.087508,0.19728,0.43545,0.089917,0.96279,-0.033277,-0.012086,-0.39881,-0.26911,-0.27058,-0.45886,0.080948,-1.0937,-0.12742,-1.0295,1.2323,0.030915,0.2036,0.092279,-0.54802,-0.054622
-0.012355,-0.032284,0.010094,-0.090126,0.19237,0.31564,0.0040705,0.71157,-0.017359,0.034201,-0.35031,-0.29324,-0.23381,-0.37669,0.11974,-1.1194,-0.064587,-0.78751,1.3946,0.084023,0.27592,0.094412,0.41426,-0.092316
-0.012668,-0.039085,0.014634,-0.092096,0.20593,0.1674,-0.079097,0.45881,0.001561,0.078983,-0.27136,-0.36767,-0.18461,-0.24172,0.16016,-1.1623,-0.0056485,-0.56449,1.3792,0.12083,0.34481,0.062231,1.0528,-0.16179
-0.01475,-0.043663,0.019102,-0.091468,0.21361,-0.0040725,-0.16767,0.24044,0.022678,0.10403,-0.22287,-0.50653,-0.13485,-0.11819,0.1939,-1.1932,0.041372,-0.41483,1.1401,0.13523,0.40907,0.0020334,1.1341,-0.22963
-0.016423,-0.044911,0.021398,-0.087974,0.19726,-0.17382,-0.27173,0.08563,0.043772,0.10042,-0.23417,-0.69176,-0.10531,-0.03837,0.22341,-1.1769,0.077075,-0.3349,0.69902,0.13083,0.46615,-0.064461,0.71501,-0.27587
-0.016406,-0.044403,0.020347,-0.083656,0.1495,-0.31412,-0.39456,0.0045401,0.060883,0.074602,-0.27715,-0.87999,-0.11038,0.011012,0.25403,-1.098,0.10883,-0.26009,0.14917,0.11979,0.50975,-0.10817,0.10395,-0.30283
-0.015322,-0.044373,0.016547,-0.08146,0.074698,-0.41049,-0.52591,-0.015351,0.069561,0.04507,-0.28672,-1.0218,-0.145,0.066752,0.2853,-0.97378,0.14429,-0.10859,-0.37532,0.11629,0.53017,-0.1048,-0.32505,-0.32438
-0.014758,-0.04545,0.012145,-0.082782,-0.01207,-0.46348,-0.64196,-0.0012649,0.06724,0.029956,-0.2151,-1.0831,-0.18513,0.15356,0.30939,-0.84202,0.18481,0.15449,-0.75306,0.12863,0.51816,-0.046212,-0.34791,-0.34964
-0.01557,-0.046223,0.0094976,-0.08599,-0.089879,-0.477,-0.71433,0.019014,0.05503,0.032262,-0.077312,-1.0582,-0.2035,0.26474,0.31717,-0.73303,0.22334,0.47947,-0.92474,0.15488,0.4706,0.054325,-0.0018617,-0.37604
-0.01715,-0.044876,0.0095197,-0.08732,-0.1411,-0.44654,-0.72463,0.027206,0.03725,0.032496,0.050271,-0.97051,-0.18966,0.37165,0.30554,-0.64966,0.24824,0.7532,-0.90951,0.18485,0.39474,0.1666,0.46624,-0.39459
-0.018251,-0.041216,0.010906,-0.083679,-0.1606,-0.36035,-0.67573,0.015046,0.018736,-0.0040429,0.080204,-0.86203,-0.15847,0.44885,0.2797,-0.57124,0.25037,0.86845,-0.78285,0.20685,0.30764,0.25697,0.76742,-0.39853
-0.018333,-0.03716,0.010995,-0.075251,-0.15724,-0.21385,-0.59082,-0.020935,0.0020484,-0.10631,-0.023614,-0.77539,-0.1395,0.49131,0.24907,-0.47602,0.22877,0.79398,-0.63451,0.21412,0.22983,0.30414,0.73968,-0.387
-0.017941,-0.035206,0.0078293,-0.065748,-0.14459,-0.024616,-0.49945,-0.081825,-0.01281,-0.27386,-0.21743,-0.73391,-0.15486,0.51144,0.22155,-0.36072,0.19129,0.59533,-0.53272,0.207,0.17593,0.30726,0.41889,-0.36319
-0.017782,-0.036295,0.0018735,-0.059911,-0.12757,0.16663,-0.41973,-0.16222,-0.025728,-0.46655,-0.40291,-0.72724,-0.2025,0.52311,0.20119,-0.24026,0.14997,0.39333,-0.50742,0.1903,0.1478,0.28095,-0.013813,-0.33218
-0.01761,-0.039026,-0.0041123,-0.060042,-0.097749,0.31182,-0.35006,-0.24489,-0.033518,-0.61866,-0.48716,-0.71263,-0.2577,0.52974,0.18989,-0.13001,0.11442,0.29313,-0.54898,0.16884,0.13491,0.24073,-0.35538,-0.30095
-0.016301,-0.040888,-0.0071777,-0.06418,-0.043742,0.37694,-0.27737,-0.30308,-0.030277,-0.67337,-0.43636,-0.63678,-0.29051,0.52564,0.18967,-0.029014,0.087723,0.33433,-0.61515,0.14472,0.12226,0.19072,-0.49143,-0.27751
-0.01316,-0.040369,-0.0066216,-0.067317,0.030972,0.3538,-0.19484,-0.31292,-0.01196,-0.61812,-0.29084,-0.4701,-0.28476,0.50605,0.20187,0.079859,0.06706,0.4905,-0.64645,0.11775,0.10064,0.12379,-0.43582,-0.26585
-0.0090837,-0.037996,-0.0046316,-0.064771,0.099734,0.2553,-0.11407,-0.26803,0.018369,-0.49648,-0.1368,-0.23151,-0.24428,0.47396,0.2238,0.21365,0.04813,0.70496,-0.59349,0.087552,0.072143,0.034206,-0.29389,-0.2597
-0.0061419,-0.035458,-0.0044223,-0.055259,0.12477,0.10124,-0.060438,-0.18462,0.049954,-0.38508,-0.056126,0.017418,-0.18337,0.43772,0.24688,0.37275,0.029488,0.92616,-0.44884,0.055145,0.047098,-0.068631,-0.18587,-0.24241
-0.005733,-0.033801,-0.0074238,-0.041576,0.0829,-0.092263,-0.054889,-0.092183,0.07049,-0.34731,-0.083979,0.21036,-0.11125,0.40341,0.25957,0.53888,0.013727,1.1176,-0.26124,0.023239,0.03485,-0.1583,-0.17934,-0.19701
-0.0070771,-0.032502,-0.01205,-0.028562,-0.015569,-0.3122,-0.097153,-0.016604,0.075053,-0.39344,-0.1956,0.32131,-0.023289,0.37043,0.25388,0.68787,0.0051218,1.2482,-0.11243,-0.0043197,0.035647,-0.20506,-0.26408,-0.12036
-0.0077119,-0.030255,-0.015221,-0.019957,-0.13121,-0.54063,-0.16452,0.031976,0.070587,-0.47493,-0.32595,0.38235,0.094643,0.33402,0.23077,0.80478,0.0060911,1.2871,-0.06304,-0.023239,0.03978,-0.19537,-0.37594,-0.029063
-0.0057617,-0.026555,-0.01527,-0.016318,-0.22091,-0.75005,-0.22708,0.059062,0.071594,-0.51784,-0.40872,0.45813,0.25297,0.29112,0.20004,0.88887,0.015353,1.2167,-0.1039,-0.029879,0.034447,-0.14187,-0.45045,0.049581
-0.0018633,-0.022376,-0.013551,-0.015243,-0.26429,-0.90961,-0.26696,0.076513,0.089723,-0.47298,-0.4117,0.59503,0.446,0.24302,0.17491,0.94753,0.028857,1.0517,-0.15393,-0.023169,0.012951,-0.075754,-0.47178,0.095829
0.0012582,-0.019248,-0.01324,-0.013458,-0.27071,-0.99984,-0.28691,0.093152,0.12503,-0.34816,-0.34834,0.78377,0.6481,0.19289,0.16531,0.98822,0.042265,0.83955,-0.1139,-0.0065442,-0.020426,-0.027306,-0.48494,0.11025
0.0013905,-0.017719,-0.016449,-0.0090881,-0.26359,-1.0254,-0.30375,0.11165,0.16549,-0.2011,-0.26015,0.9634,0.82036,0.14141,0.17418,1.0162,0.052893,0.63445,0.060117,0.012128,-0.052777,-0.0090967,-0.56085,0.11052
-0.00077618,-0.0168,-0.022315,-0.0025357,-0.2576,-1.0155,-0.33514,0.13078,0.19469,-0.10031,-0.18494,1.0615,0.92398,0.08589,0.19829,1.0372,0.059949,0.46218,0.31995,0.023894,-0.06971,-0.013391,-0.73572,0.11557
-0.0018759,-0.014944,-0.027776,0.0044334,-0.24867,-1.0099,-0.39101,0.14799,0.2019,-0.083088,-0.13537,1.0385,0.93412,0.023931,0.23145,1.0582,0.063542,0.30732,0.55623,0.023918,-0.062134,-0.02351,-0.96763,0.13077
0.0012421,-0.011526,-0.030224,0.010417,-0.22305,-1.0368,-0.4736,0.15958,0.18738,-0.13908,-0.10338,0.90478,0.84863,-0.042028,0.26757,1.0826,0.06378,0.1352,0.67527,0.014857,-0.028985,-0.028754,-1.1464,0.14645
0.0084832,-0.0072825,-0.029579,0.015464,-0.17462,-1.0962,-0.58017,0.16038,0.16063,-0.22582,-0.083253,0.70454,0.68826,-0.10386,0.3023,1.104,0.060853,-0.069565,0.66357,0.0055,0.024263,-0.031459,-1.1566,0.14907
0.016161,-0.0033351,-0.028002,0.020775,-0.11362,-1.1578,-0.70108,0.14578,0.13415,-0.29898,-0.088747,0.48693,0.48846,-0.15183,0.33337,1.1078,0.055883,-0.28138,0.59103,0.0053746,0.088922,-0.042456,-0.95306,0.13389
0.019815,0.00010798,-0.02774,0.027481,-0.059918,-1.179,-0.81393,0.11555,0.11745,-0.33334,-0.14456,0.28772,0.28711,-0.18031,0.36043,1.0812,0.051549,-0.44842,0.55274,0.019289,0.15578,-0.070352,-0.596,0.10794
0.017803,0.0039383,-0.02915,0.035639,-0.028811,-1.1308,-0.88327,0.075055,0.11417,-0.32287,-0.25714,0.12998,0.11427,-0.19027,0.38419,1.0244,0.051602,-0.53134,0.59631,0.045705,0.21642,-0.1136,-0.21889,0.082224
0.012578,0.0089934,-0.030621,0.044174,-0.022444,-1.0183,-0.87373,0.031373,0.12253,-0.26824,-0.39246,0.032326,-0.011626,-0.18675,0.40504,0.95339,0.059171,-0.53357,0.69015,0.079324,0.26382,-0.16074,0.049053,0.062235
0.0086371,0.014766,-0.03023,0.051627,-0.032677,-0.88145,-0.77211,-0.012817,0.13753,-0.16817,-0.48645,0.010034,-0.081407,-0.17373,0.4219,0.89089,0.074709,-0.49899,0.75352,0.11467,0.29332,-0.1973,0.15152,0.045971
0.0090272,0.019398,-0.027514,0.056992,-0.049719,-0.77322,-0.60239,-0.061072,0.1534,-0.023446,-0.48667,0.065524,-0.091547,-0.1511,0.43258,0.85375,0.094802,-0.48037,0.7204,0.14722,0.30371,-0.21382,0.12049,0.030218
0.013394,0.021131,-0.02385,0.0601,-0.066948,-0.72913,-0.41882,-0.11756,0.16539,0.15206,-0.3937,0.17838,-0.04393,-0.1166,0.43575,0.84592,0.11276,-0.50492,0.5868,0.17171,0.2977,-0.20968,0.036555,0.017286
0.018899,0.019952,-0.021344,0.061532,-0.0788,-0.7486,-0.2783,-0.17842,0.17008,0.32611,-0.2664,0.30713,0.051368,-0.071731,0.43289,0.86141,0.12093,-0.56262,0.40849,0.18082,0.28052,-0.19163,-0.027168,0.014397
0.022723,0.017881,-0.021315,0.062303,-0.077404,-0.79981,-0.21039,-0.22893,0.16427,0.45586,-0.18193,0.4052,0.17552,-0.026662,0.42818,0.89174,0.11382,-0.6225,0.25675,0.16715,0.25712,-0.16921,-0.032591,0.026021
0.02378,0.017541,-0.023609,0.063472,-0.05503,-0.84208,-0.20663,-0.2509,0.14382,0.50425,-0.17952,0.44187,0.30716,0.00074546,0.42575,0.92966,0.090275,-0.66054,0.16886,0.12799,0.22925,-0.15032,0.03823,0.047386
0.022501,0.020162,-0.027012,0.065692,-0.012131,-0.84664,-0.23575,-0.23548,0.10436,0.45475,-0.2318,0.41512,0.43307,-0.0065618,0.42671,0.96671,0.053699,-0.67714,0.1287,0.068785,0.19456,-0.13852,0.21504,0.067219
0.019616,0.024664,-0.030152,0.06882,0.037229,-0.80009,-0.27056,-0.19099,0.044927,0.31685,-0.26657,0.34926,0.55443,-0.052693,0.42878,0.98985,0.010156,-0.6927,0.08572,0.0014023,0.14873,-0.13234,0.54878,0.079258
0.015592,0.028563,-0.032074,0.071918,0.07026,-0.69213,-0.30418,-0.13901,-0.027891,0.12251,-0.2218,0.27999,0.68106,-0.12076,0.42943,0.98357,-0.034359,-0.72707,-0.0071029,-0.062239,0.089425,-0.12599,1.0806,0.092953
0.011181,0.029957,-0.032259,0.073788,0.069093,-0.50498,-0.3441,-0.10217,-0.099099,-0.082285,-0.090498,0.23622,0.81561,-0.17595,0.42949,0.93818,-0.075622,-0.77824,-0.1643,-0.11623,0.01957,-0.11153,1.791,0.13244
0.0079708,0.029009,-0.030447,0.073757,0.032584,-0.22064,-0.39289,-0.093611,-0.15033,-0.24838,0.077789,0.22789,0.94016,-0.18084,0.43325,0.85715,-0.11083,-0.8143,-0.36396,-0.1613,-0.052589,-0.082809,2.5708,0.22143
0.007734,0.027776,-0.026689,0.072087,-0.023849,0.15573,-0.43504,-0.11526,-0.16866,-0.33614,0.21629,0.24445,1.0177,-0.11617,0.44377,0.75632,-0.13687,-0.784,-0.56505,-0.19985,-0.11717,-0.039685,3.246,0.36335
0.010831,0.028518,-0.021609,0.069642,-0.080314,0.57632,-0.44303,-0.16362,-0.15334,-0.32831,0.28739,0.2627,1.0102,0.0053197,0.45709,0.65425,-0.14926,-0.64103,-0.73035,-0.2302,-0.16777,0.010002,3.6478,0.532
0.015332,0.03184,-0.016456,0.067082,-0.126,0.95733,-0.39747,-0.23554,-0.11559,-0.23671,0.30097,0.25855,0.9011,0.14217,0.46149,0.56108,-0.14352,-0.37057,-0.84099,-0.24613,-0.20447,0.053056,3.6904,0.68172
0.018114,0.036158,-0.012655,0.064338,-0.16305,1.2153,-0.3044,-0.32833,-0.071703,-0.096959,0.2962,0.21674,0.70646,0.2453,0.44452,0.4747,-0.11859,-0.0050831,-0.89788,-0.24223,-0.23244,0.07762,3.4064,0.77246
0.017313,0.038933,-0.011015,0.060842,-0.19899,1.3128,-0.19505,-0.43613,-0.034664,0.048247,0.3072,0.13464,0.46695,0.28572,0.40362,0.38627,-0.079677,0.37974,-0.91447,-0.22026,-0.2569,0.080048,2.919,0.79313
0.013936,0.038667,-0.011199,0.056323,-0.2362,1.2823,-0.10789,-0.54811,-0.01016,0.16723,0.3413,0.019982,0.22838,0.27155,0.35179,0.28966,-0.037602,0.68977,-0.90805,-0.19012,-0.2781,0.067147,2.3668,0.76674
0.011035,0.036008,-0.011889,0.051421,-0.26844,1.2107,-0.064934,-0.65196,0.0014164,0.247,0.38256,-0.11468,0.024363,0.24223,0.3122,0.18714,-0.0038906,0.84965,-0.89427,-0.1641,-0.29023,0.051852,1.8278,0.73321
0.01098,0.033038,-0.011609,0.047502,-0.28673,1.1909,-0.057738,-0.73941,0.00053337,0.28711,0.41063,-0.25701,-0.12974,0.24281,0.30413,0.088464,0.015493,0.83704,-0.88458,-0.14901,-0.28526,0.044982,1.2909,0.72233
0.013263,0.031403,-0.009652,0.045732,-0.28776,1.2729,-0.050649,-0.80819,-0.013617,0.28798,0.41551,-0.39665,-0.23254,0.29481,0.32997,0.0065844,0.023256,0.69654,-0.88347,-0.14297,-0.25921,0.048451,0.69105,0.73607
0.014856,0.030938,-0.0064744,0.046098,-0.27687,1.4424,0.001071,-0.85836,-0.041468,0.24605,0.39809,-0.52378,-0.28956,0.38349,0.37319,-0.045998,0.028085,0.52231,-0.88323,-0.13911,-0.21656,0.054194,-0.01234,0.75163
0.012884,0.029961,-0.0032912,0.047185,-0.26387,1.6399,0.12802,-0.88733,-0.080312,0.16013,0.36123,-0.6269,-0.30871,0.46964,0.40881,-0.059553,0.037865,0.41275,-0.85891,-0.13217,-0.16954,0.049289,-0.77008,0.74026
0.0072663,0.026879,-0.0011769,0.046985,-0.25679,1.8025,0.32981,-0.8896,-0.12402,0.041031,0.30376,-0.69342,-0.29807,0.51654,0.41882,-0.030814,0.053834,0.41789,-0.77078,-0.12212,-0.13274,0.024107,-1.4387,0.68597
0.00097594,0.021614,-0.00033154,0.044229,-0.25924,1.8998,0.57314,-0.86228,-0.16603,-0.087149,0.22403,-0.71475,-0.26358,0.51165,0.40133,0.031498,0.070141,0.51004,-0.58049,-0.11219,-0.11625,-0.021099,-1.849,0.59085
-0.0022945,0.015617,-6.1128e-005,0.039298,-0.27177,1.94,0.80629,-0.81112,-0.2027,-0.19786,0.12925,-0.69368,-0.20721,0.46819,0.36818,0.10406,0.078972,0.59928,-0.27826,-0.1044,-0.12104,-0.074723,-1.9062,0.46645
-0.0010189,0.010652,0.00052882,0.033956,-0.29336,1.9478,0.98329,-0.7503,-0.23406,-0.27678,0.040292,-0.64837,-0.12859,0.40815,0.33457,0.15559,0.076995,0.58893,0.094509,-0.097383,-0.13886,-0.11858,-1.6535,0.3213
0.0031601,0.007597,0.0017289,0.030049,-0.32021,1.9333,1.0842,-0.6952,-0.26113,-0.32796,-0.014958,-0.6075,-0.031084,0.3429,0.30953,0.16274,0.067956,0.43682,0.44779,-0.088438,-0.15637,-0.13677,-1.2494,0.1552
0.0069908,0.0063185,0.003027,0.028157,-0.34364,1.8778,1.1196,-0.65429,-0.28298,-0.36691,-0.017904,-0.59694,0.072067,0.26824,0.29344,0.12589,0.059649,0.18166,0.67968,-0.076776,-0.1613,-0.12392,-0.87154,-0.037053
0.0082119,0.0064701,0.0036949,0.027264,-0.35168,1.7457,1.1175,-0.62759,-0.29614,-0.40721,0.024437,-0.62532,0.15838,0.17657,0.28201,0.071614,0.05817,-0.083635,0.73142,-0.064218,-0.14743,-0.087538,-0.61391,-0.25688
0.0069746,0.008118,0.0035849,0.025737,-0.3354,1.5123,1.1009,-0.61228,-0.29702,-0.45152,0.074683,-0.67893,0.20521,0.073496,0.27161,0.037007,0.064174,-0.27116,0.62533,-0.052608,-0.11631,-0.042524,-0.45555,-0.49413
0.005126,0.011411,0.0033279,0.022724,-0.29599,1.1842,1.0737,-0.60861,-0.28468,-0.49152,0.077793,-0.73125,0.20095,-0.018106,0.26129,0.045368,0.073611,-0.34681,0.45476,-0.041269,-0.074819,-0.0015319,-0.32033,-0.72334
0.0043004,0.01568,0.0037141,0.018687,-0.24603,0.8002,1.0211,-0.61866,-0.26131,-0.51365,-0.013029,-0.76148,0.14871,-0.071817,0.2514,0.091085,0.081286,-0.33705,0.32706,-0.027974,-0.030739,0.031596,-0.1755,-0.9053
0.0045926,0.019134,0.0049003,0.01461,-0.2029,0.41276,0.92468,-0.63836,-0.23044,-0.50462,-0.21046,-0.769,0.05942,-0.078086,0.24147,0.14564,0.083636,-0.2966,0.29691,-0.01296,0.010865,0.060169,-0.081919,-0.99548
0.0047994,0.019826,0.006315,0.010706,-0.17829,0.066546,0.77745,-0.65126,-0.19484,-0.45549,-0.48206,-0.77251,-0.058952,-0.053393,0.22937,0.18006,0.078782,-0.26829,0.3378,-0.0015955,0.047982,0.086593,-0.1501,-0.96003
0.0037278,0.01722,0.0073994,0.0060422,-0.17132,-0.21295,0.59121,-0.63311,-0.15615,-0.36626,-0.76087,-0.7945,-0.20506,-0.029364,0.21172,0.18616,0.065164,-0.26537,0.37166,-0.0018767,0.07919,0.10559,-0.43763,-0.79461
0.0012717,0.012851,0.0083561,-0.00037658,-0.16965,-0.41707,0.39269,-0.56698,-0.11606,-0.25042,-0.97146,-0.84302,-0.37674,-0.03013,0.18427,0.18016,0.041418,-0.28171,0.33131,-0.017886,0.10111,0.10541,-0.87733,-0.53499
-0.0015996,0.0092035,0.0099587,-0.0080891,-0.15744,-0.54644,0.21466,-0.45817,-0.076986,-0.13408,-1.056,-0.90496,-0.55972,-0.056229,0.14223,0.18756,0.0083138,-0.31176,0.20569,-0.044902,0.10858,0.0762,-1.3019,-0.2484
-0.0037204,0.0075796,0.012455,-0.01491,-0.12485,-0.60843,0.086879,-0.33641,-0.041011,-0.044623,-0.98687,-0.95562,-0.72428,-0.087587,0.081856,0.22277,-0.02933,-0.35904,0.034866,-0.071219,0.097761,0.018209,-1.5497,-0.0052878
-0.0045732,0.0068623,0.014724,-0.018536,-0.074344,-0.62154,0.027856,-0.24181,-0.0083818,0.0069139,-0.76392,-0.97644,-0.83484,-0.10181,0.0036914,0.28029,-0.063498,-0.42861,-0.13289,-0.086046,0.069817,-0.057596,-1.5667,0.15378
-0.0044233,0.0045056,0.014853,-0.018722,-0.021371,-0.61906,0.036777,-0.20343,0.022313,0.036699,-0.40534,-0.9666,-0.86589,-0.091598,-0.084691,0.34226,-0.086884,-0.51418,-0.27804,-0.087157,0.031783,-0.13618,-1.4257,0.23498
-0.0038173,-0.00090302,0.011958,-0.017879,0.010797,-0.64209,0.089302,-0.22456,0.05156,0.080135,0.056114,-0.94047,-0.81239,-0.067205,-0.16943,0.39317,-0.096924,-0.5926,-0.40609,-0.08182,-0.0063704,-0.20566,-1.2514,0.27963
-0.003051,-0.0077502,0.007631,-0.019221,0.00075481,-0.72081,0.1445,-0.28327,0.076254,0.16727,0.56911,-0.91423,-0.68831,-0.04376,-0.23549,0.42795,-0.096465,-0.62778,-0.51056,-0.080114,-0.036573,-0.25872,-1.1201,0.33229
-0.0021057,-0.012072,0.0053513,-0.023962,-0.059693,-0.85521,0.16558,-0.34611,0.090179,0.29903,1.0608,-0.8935,-0.51706,-0.026558,-0.27334,0.4478,-0.090382,-0.57812,-0.54475,-0.08623,-0.056005,-0.28887,-1.0147,0.41111
-0.0010192,-0.010539,0.0078949,-0.030143,-0.15806,-1.0118,0.14424,-0.38509,0.088305,0.44372,1.4465,-0.8712,-0.32241,-0.0079977,-0.28246,0.45094,-0.081187,-0.4041,-0.43912,-0.094952,-0.066841,-0.28797,-0.86242,0.50057
-0.00023381,-0.0034001,0.014749,-0.034323,-0.26364,-1.1427,0.10917,-0.38866,0.071588,0.55756,1.6545,-0.83619,-0.12432,0.021674,-0.26958,0.4298,-0.067573,-0.079163,-0.15841,-0.096034,-0.073076,-0.24979,-0.61543,0.56845
-0.00048932,0.0051549,0.02191,-0.034678,-0.3415,-1.2177,0.10624,-0.36295,0.047635,0.61318,1.6539,-0.78456,0.061842,0.060538,-0.24347,0.37872,-0.047154,0.3931,0.2488,-0.082626,-0.077091,-0.17702,-0.30178,0.59043
-0.002259,0.0096951,0.024607,-0.032661,-0.37165,-1.2447,0.16028,-0.32486,0.025815,0.61336,1.4675,-0.72445,0.22635,0.091466,-0.21085,0.30461,-0.020757,0.96276,0.65692,-0.056963,-0.07841,-0.084359,-0.010962,0.56279
-0.0051782,0.0073666,0.020959,-0.031714,-0.36043,-1.2635,0.24773,-0.29122,0.010504,0.58049,1.1611,-0.67079,0.36619,0.092728,-0.17604,0.22868,0.0058749,1.5342,0.93149,-0.02918,-0.074994,0.0071296,0.16685,0.49674
-0.0080308,-5.6169e-005,0.013607,-0.034254,-0.33469,-1.3148,0.30672,-0.26865,-0.0015842,0.53403,0.81311,-0.63415,0.48319,0.054028,-0.14314,0.17533,0.024753,1.9936,1.0109,-0.010785,-0.065411,0.080686,0.19616,0.40469
-0.0094862,-0.0074159,0.00789,-0.039688,-0.32076,-1.4081,0.28256,-0.24833,-0.017241,0.47755,0.48555,-0.61185,0.57819,-0.015318,-0.11748,0.15628,0.030655,2.2531,0.93782,-0.0080571,-0.049811,0.1306,0.10869,0.29344
-0.0091401,-0.0097942,0.0079772,-0.045109,-0.32342,-1.5109,0.17473,-0.20935,-0.039136,0.40627,0.20962,-0.58796,0.64577,-0.09232,-0.10406,0.16352,0.024433,2.2867,0.81397,-0.019828,-0.029073,0.15968,-0.025649,0.16923
-0.0080046,-0.0059039,0.013977,-0.047811,-0.32177,-1.5694,0.045894,-0.13033,-0.061495,0.32525,-0.0088603,-0.54261,0.67542,-0.15483,-0.10467,0.17721,0.012156,2.1325,0.71356,-0.040095,-0.0033601,0.171,-0.14,0.045882
-0.0078586,0.0011242,0.022164,-0.047278,-0.28659,-1.5399,-0.018881,-0.0035197,-0.073285,0.25797,-0.17265,-0.46507,0.65976,-0.1928,-0.11671,0.18134,0.0010936,1.8667,0.625,-0.062378,0.028011,0.16289,-0.19566,-0.055772
-0.0097867,0.0060534,0.027894,-0.045163,-0.2061,-1.4111,0.026893,0.15788,-0.066635,0.23451,-0.27675,-0.36191,0.60345,-0.20856,-0.13546,0.17322,-0.0042215,1.5684,0.46773,-0.082452,0.064816,0.1325,-0.18308,-0.11933
-0.013082,0.0052673,0.028796,-0.04374,-0.098922,-1.2012,0.15765,0.32509,-0.04364,0.26867,-0.30205,-0.25479,0.52478,-0.20837,-0.15778,0.15883,-0.0033584,1.3031,0.16882,-0.098541,0.10372,0.083849,-0.1092,-0.14454
-0.015612,-0.0007681,0.02591,-0.044469,-0.0026533,-0.94104,0.29612,0.46908,-0.016047,0.34409,-0.22243,-0.16926,0.44772,-0.19433,-0.18347,0.1395,0.0011802,1.1232,-0.26486,-0.11049,0.13797,0.03083,0.014757,-0.14704
-0.015575,-0.0080658,0.022324,-0.047629,0.053162,-0.6593,0.37022,0.57499,0.0017321,0.42183,-0.023246,-0.1223,0.39036,-0.16396,-0.21284,0.10337,0.0057505,1.0653,-0.73805,-0.11966,0.15998,-0.01022,0.17778,-0.145
-0.013186,-0.012234,0.020739,-0.052708,0.067923,-0.38119,0.36096,0.6453,0.00062386,0.46274,0.2782,-0.11708,0.35784,-0.11666,-0.24293,0.031135,0.0064083,1.1313,-1.1277,-0.1295,0.16532,-0.032996,0.36731,-0.14427
-0.010676,-0.011733,0.021874,-0.058687,0.067962,-0.13288,0.30576,0.69064,-0.019792,0.44631,0.62441,-0.14733,0.34352,-0.059722,-0.26713,-0.087627,-0.0010625,1.2638,-1.3626,-0.14536,0.15526,-0.047207,0.56619,-0.13568
-0.010372,-0.0087337,0.024635,-0.064098,0.084273,0.060985,0.26048,0.71728,-0.053748,0.3734,0.93243,-0.2056,0.3352,-0.0078261,-0.27994,-0.24095,-0.02062,1.3515,-1.4596,-0.17225,0.13569,-0.070872,0.75253,-0.10693
-0.012503,-0.006995,0.027498,-0.067388,0.1289,0.18986,0.25537,0.72266,-0.093843,0.2555,1.1282,-0.28678,0.32089,0.023883,-0.28356,-0.39573,-0.054144,1.281,-1.4949,-0.2117,0.11351,-0.11369,0.90475,-0.05772
-0.014877,-0.0086015,0.029821,-0.06787,0.18859,0.26851,0.27978,0.70187,-0.13334,0.10411,1.181,-0.3837,0.29158,0.026769,-0.28958,-0.51417,-0.09913,1.0102,-1.5383,-0.25973,0.093171,-0.16496,1.0108,-0.0037416
-0.014932,-0.012361,0.032055,-0.066541,0.23871,0.33142,0.30147,0.65764,-0.1653,-0.070099,1.114,-0.48018,0.24202,0.00038223,-0.31257,-0.57442,-0.1478,0.60589,-1.6054,-0.30736,0.075909,-0.19704,1.0766,0.03403
-0.012353,-0.015157,0.034851,-0.065707,0.26385,0.40897,0.29732,0.60283,-0.18156,-0.25044,0.98317,-0.55112,0.17131,-0.050653,-0.35896,-0.58124,-0.18908,0.20681,-1.6561,-0.34347,0.061639,-0.18293,1.1265,0.044981
-0.0096637,-0.01494,0.03792,-0.067313,0.2684,0.50169,0.2673,0.55242,-0.17471,-0.41064,0.83878,-0.57349,0.083175,-0.11929,-0.42002,-0.56019,-0.21293,-0.068445,-1.6318,-0.35803,0.051089,-0.1159,1.1897,0.03535
-0.010001,-0.012629,0.039734,-0.071283,0.27072,0.57416,0.22376,0.5124,-0.14285,-0.52165,0.69835,-0.54122,-0.015437,-0.19458,-0.47524,-0.5401,-0.21493,-0.19879,-1.497,-0.34481,0.045885,-0.016845,1.2776,0.020482
-0.014009,-0.011247,0.038485,-0.07545,0.28816,0.57595,0.17102,0.47658,-0.093193,-0.56589,0.5467,-0.47147,-0.11671,-0.25874,-0.50449,-0.53585,-0.19816,-0.26212,-1.2579,-0.30339,0.046392,0.075305,1.3657,0.010765
