-4.0323e-010,-4.2638e-010,1.0939e-009,-1.4065e-009,-9.087e-010,-7.8523e-010,-3.8567e-009,-3.2605e-010,1.9814e-009,2.5023e-009,-4.1345e-009,1.8153e-008,3.8104e-009,-1.5917e-009,-9.8202e-010,1.0225e-010,9.6658e-010,1.2523e-008,-7.8696e-009,2.9306e-009,1.1248e-009,4.1268e-009,1.8435e-008,-2.9461e-009
-1.1243e-008,-1.1778e-008,3.0094e-008,-3.9109e-008,-2.5072e-008,-2.3416e-008,-1.0515e-007,-9.311e-009,5.4888e-008,6.9472e-008,-1.136e-007,5.0212e-007,1.0529e-007,-4.4667e-008,-2.6759e-008,2.405e-009,2.654e-008,3.4574e-007,-2.1833e-007,8.0999e-008,3.0935e-008,1.1402e-007,5.1213e-007,-8.1931e-008
-1.5245e-007,-1.5817e-007,4.023e-007,-5.286e-007,-3.366e-007,-3.4192e-007,-1.3921e-006,-1.2998e-007,7.393e-007,9.3839e-007,-1.5152e-006,6.7521e-006,1.4142e-006,-6.0929e-007,-3.5327e-007,2.6501e-008,3.5402e-007,4.6386e-006,-2.9467e-006,1.0882e-006,4.1314e-007,1.5312e-006,6.9155e-006,-1.1081e-006
-1.3394e-006,-1.3756e-006,3.4817e-006,-4.6264e-006,-2.931e-006,-3.2598e-006,-1.1918e-005,-1.1829e-006,6.4508e-006,8.2167e-006,-1.3065e-005,5.8805e-005,1.2297e-005,-5.3806e-006,-3.0082e-006,1.7873e-007,3.056e-006,4.0287e-005,-2.5779e-005,9.4666e-006,3.5684e-006,1.3318e-005,6.0467e-005,-9.7098e-006
-8.5675e-006,-8.7095e-006,2.1924e-005,-2.9468e-005,-1.8621e-005,-2.2826e-005,-7.4142e-005,-7.8948e-006,4.0985e-005,5.2428e-005,-8.1813e-005,0.0003728,7.7804e-005,-3.4556e-005,-1.8548e-005,7.9609e-007,1.9186e-005,0.00025455,-0.00016434,5.9937e-005,2.2396e-005,8.4302e-005,0.0003847,-6.1965e-005
-4.2509e-005,-4.2769e-005,0.00010702,-0.00014552,-9.206e-005,-0.00012522,-0.00035697,-4.1225e-005,0.00020203,0.00025977,-0.00039611,0.0018328,0.00038155,-0.00017186,-8.8085e-005,2.2307e-006,9.3333e-005,0.0012464,-0.00081359,0.00029424,0.00010877,0.00041377,0.0018971,-0.00030685
-0.00017014,-0.00016945,0.0004212,-0.00057949,-0.00036901,-0.00056056,-0.001383,-0.00017546,0.00080383,0.0010399,-0.0015409,0.0072687,0.0015082,-0.00068778,-0.00033437,2.1141e-006,0.0003659,0.0049186,-0.003255,0.0011649,0.00042495,0.0016377,0.0075402,-0.0012267
-0.00056391,-0.00055615,0.0013722,-0.0019102,-0.0012342,-0.0021061,-0.0044242,-0.00062613,0.0026509,0.0034546,-0.0049374,0.023874,0.0049328,-0.0022709,-0.0010379,-1.5103e-005,0.0011868,0.016055,-0.010812,0.0038189,0.00137,0.005366,0.02479,-0.004065
-0.001576,-0.0015401,0.0037687,-0.0053074,-0.0035195,-0.0067789,-0.011895,-0.0019125,0.0073825,0.0097062,-0.013244,0.066141,0.01359,-0.0062874,-0.0026676,-0.00010163,0.0032439,0.044132,-0.030394,0.010557,0.0037068,0.01482,0.068619,-0.011376
-0.0037604,-0.0036442,0.0088362,-0.012587,-0.0087097,-0.018986,-0.027199,-0.0050798,0.017592,0.023382,-0.030019,0.15655,0.031925,-0.014733,-0.0056918,-0.00037477,0.0075687,0.1034,-0.073344,0.024927,0.0085088,0.034929,0.16182,-0.027246
-0.0077235,-0.007429,0.017836,-0.025685,-0.018993,-0.046833,-0.053302,-0.011879,0.0362,0.048777,-0.057655,0.31928,0.064443,-0.029297,-0.0099687,-0.0010093,0.015209,0.2081,-0.15354,0.050698,0.016654,0.070799,0.32739,-0.05636
-0.013714,-0.013103,0.031134,-0.045291,-0.037025,-0.10274,-0.08988,-0.0247,0.064703,0.088743,-0.093292,0.56386,0.11215,-0.049125,-0.013757,-0.002122,0.026475,0.36088,-0.28112,0.089254,0.027755,0.12385,0.56948,-0.1013
-0.021063,-0.019989,0.047036,-0.069014,-0.06545,-0.20201,-0.13054,-0.046057,0.10073,0.14151,-0.12457,0.86347,0.16804,-0.067914,-0.012955,-0.0035128,0.040055,0.53851,-0.45293,0.13619,0.038945,0.18668,0.84838,-0.15875
-0.027862,-0.026221,0.061275,-0.090411,-0.10643,-0.35821,-0.16321,-0.077572,0.13655,0.19847,-0.12944,1.1435,0.215,-0.072542,-0.0016572,-0.0043718,0.052755,0.68592,-0.64547,0.17961,0.044565,0.24029,1.0678,-0.21714
-0.031398,-0.029128,0.068155,-0.1005,-0.1614,-0.57572,-0.17611,-0.11884,0.16053,0.24554,-0.084137,1.2994,0.23027,-0.046176,0.025145,-0.0032585,0.060615,0.7316,-0.8173,0.20314,0.037846,0.25801,1.0974,-0.25931
-0.029459,-0.026496,0.06347,-0.092102,-0.23094,-0.84187,-0.16758,-0.16681,0.16239,0.26935,0.021847,1.2474,0.19704,0.023074,0.067479,0.0013388,0.061244,0.62568,-0.92373,0.19417,0.014518,0.21725,0.83537,-0.27115
-0.021887,-0.01816,0.047673,-0.065,-0.31414,-1.1232,-0.15275,-0.21633,0.13964,0.26531,0.1723,0.98443,0.11753,0.13144,0.11756,0.009912,0.055971,0.38148,-0.93625,0.15329,-0.023543,0.11369,0.28348,-0.2527
-0.01117,-0.0068057,0.02681,-0.027889,-0.40722,-1.3697,-0.1586,-0.2619,0.10093,0.24212,0.32475,0.61018,0.017628,0.25429,0.16135,0.020969,0.04982,0.087687,-0.85265,0.097752,-0.067518,-0.032144,-0.42266,-0.22359
-0.0012519,0.0029963,0.0097037,0.0054216,-0.50205,-1.5279,-0.20654,-0.29966,0.062462,0.21808,0.43025,0.28281,-0.063912,0.3532,0.18523,0.031131,0.048588,-0.12928,-0.68923,0.054082,-0.10528,-0.18298,-1.0674,-0.21643
0.0048844,0.0073837,0.0026277,0.024112,-0.58607,-1.5586,-0.2927,-0.32837,0.038936,0.21029,0.463,0.12474,-0.097646,0.39437,0.18424,0.036686,0.054711,-0.17777,-0.46185,0.042778,-0.12778,-0.30409,-1.4753,-0.25933
0.0070729,0.0058458,0.0051731,0.027153,-0.64498,-1.4518,-0.38304,-0.34871,0.034835,0.22398,0.43896,0.14384,-0.082676,0.36782,0.16579,0.035786,0.06515,-0.059967,-0.17465,0.065207,-0.13371,-0.38008,-1.618,-0.35774
0.0075965,0.0018433,0.010681,0.023304,-0.66762,-1.231,-0.43171,-0.36159,0.042728,0.24977,0.40709,0.23358,-0.047954,0.29322,0.14495,0.029621,0.073354,0.12866,0.16999,0.10293,-0.12887,-0.41599,-1.6222,-0.48804
0.0087756,0.00051673,0.011279,0.023919,-0.65066,-0.94449,-0.41315,-0.36736,0.049982,0.27065,0.41659,0.25777,-0.032926,0.20639,0.13386,0.021407,0.074009,0.26337,0.5484,0.13065,-0.12024,-0.42214,-1.6623,-0.60807
0.010657,0.0048675,0.0037352,0.034211,-0.6004,-0.64742,-0.34383,-0.36734,0.048518,0.27231,0.4838,0.15475,-0.060824,0.13499,0.13294,0.013761,0.066684,0.27082,0.90454,0.13319,-0.10961,-0.39675,-1.8159,-0.67809
0.011079,0.013351,-0.0085258,0.050159,-0.53095,-0.38249,-0.27406,-0.36665,0.039666,0.2486,0.58381,-0.02385,-0.12432,0.081699,0.13127,0.0065604,0.055235,0.16572,1.1696,0.11334,-0.092033,-0.32375,-1.9992,-0.67895
0.0082275,0.021067,-0.018815,0.063352,-0.45974,-0.16807,-0.25272,-0.3754,0.03052,0.19925,0.67275,-0.1704,-0.1938,0.028228,0.11593,-0.0027996,0.043602,0.01959,1.3029,0.085592,-0.060516,-0.18937,-2.0377,-0.61786
0.0032547,0.023899,-0.022987,0.069052,-0.40251,0.0023826,-0.29016,-0.40534,0.025662,0.1256,0.72141,-0.22236,-0.24062,-0.04316,0.082852,-0.016831,0.032,-0.10526,1.3205,0.062277,-0.013276,-0.0034057,-1.8158,-0.52184
0.00018211,0.022244,-0.022671,0.070065,-0.36875,0.15052,-0.34742,-0.46221,0.022014,0.031818,0.73293,-0.21776,-0.25627,-0.12861,0.039868,-0.035165,0.017146,-0.19798,1.2849,0.044796,0.042594,0.19534,-1.3813,-0.4257
0.0027757,0.020961,-0.023257,0.073213,-0.35825,0.29761,-0.36015,-0.53831,0.011353,-0.067408,0.73277,-0.25803,-0.25315,-0.20005,-6.9328e-005,-0.053862,-0.0037069,-0.28599,1.2596,0.026574,0.094074,0.35709,-0.9169,-0.361
0.011098,0.025231,-0.028593,0.082216,-0.36045,0.44933,-0.27922,-0.61129,-0.012065,-0.14126,0.7436,-0.4143,-0.24872,-0.22355,-0.02906,-0.067255,-0.028839,-0.38717,1.2674,0.003233,0.12947,0.44962,-0.60263,-0.34758
0.021011,0.035751,-0.037217,0.093978,-0.35833,0.587,-0.099318,-0.65209,-0.045805,-0.14935,0.76874,-0.66146,-0.24843,-0.18376,-0.048448,-0.070662,-0.052099,-0.47773,1.2848,-0.020741,0.14434,0.47453,-0.48319,-0.38734
0.027273,0.047612,-0.043486,0.10166,-0.33668,0.67036,0.14102,-0.63872,-0.080362,-0.062167,0.79617,-0.89492,-0.24245,-0.09516,-0.063819,-0.061967,-0.066967,-0.50645,1.2755,-0.03526,0.14194,0.45852,-0.44431,-0.46194
0.02755,0.054175,-0.042604,0.10132,-0.29014,0.65393,0.38249,-0.56791,-0.10572,0.11572,0.81406,-1.0106,-0.2179,0.0075725,-0.076703,-0.041622,-0.071001,-0.44058,1.2268,-0.034238,0.12862,0.42811,-0.31074,-0.53882
0.023842,0.052727,-0.035049,0.095567,-0.22451,0.51173,0.57172,-0.45682,-0.11767,0.33612,0.81875,-0.97683,-0.17433,0.090693,-0.082094,-0.012219,-0.066894,-0.30011,1.1538,-0.022003,0.10842,0.38917,0.017529,-0.58612
0.020298,0.046877,-0.026477,0.091001,-0.14896,0.25782,0.67677,-0.33331,-0.11925,0.52114,0.80666,-0.84262,-0.12752,0.13705,-0.074843,0.021427,-0.059761,-0.15028,1.0683,-0.010419,0.081014,0.3271,0.49523,-0.58891
0.019698,0.043407,-0.023114,0.09209,-0.065049,-0.052113,0.68959,-0.2207,-0.11757,0.59577,0.76073,-0.68675,-0.097827,0.14656,-0.058474,0.052389,-0.053547,-0.060318,0.94719,-0.009491,0.043925,0.22486,0.97155,-0.55505
0.021774,0.046331,-0.026621,0.097464,0.036901,-0.34331,0.62284,-0.12637,-0.11953,0.52252,0.64969,-0.56085,-0.093278,0.12583,-0.046613,0.073497,-0.049589,-0.062701,0.73803,-0.019955,-0.0031779,0.082155,1.2978,-0.50434
0.024438,0.053483,-0.032832,0.10186,0.16833,-0.55762,0.50596,-0.041091,-0.1296,0.31991,0.44701,-0.47269,-0.10265,0.07916,-0.053744,0.081035,-0.047624,-0.1414,0.4056,-0.034,-0.055746,-0.079467,1.4198,-0.4482
0.02614,0.058684,-0.035377,0.1014,0.32625,-0.67906,0.37912,0.0512,-0.14941,0.055582,0.1561,-0.41141,-0.10504,0.0089013,-0.082632,0.077734,-0.047189,-0.25014,-0.019765,-0.042688,-0.10508,-0.22729,1.3946,-0.37614
0.026862,0.057365,-0.031013,0.096998,0.48489,-0.73124,0.28188,0.16009,-0.17749,-0.18246,-0.18088,-0.37874,-0.088004,-0.077365,-0.11996,0.07183,-0.047715,-0.34071,-0.43851,-0.043168,-0.14202,-0.33299,1.3345,-0.2611
0.027147,0.050437,-0.02216,0.092785,0.60549,-0.74907,0.23916,0.27997,-0.20836,-0.32272,-0.50157,-0.393,-0.058991,-0.16193,-0.14503,0.071703,-0.047816,-0.38224,-0.73467,-0.039878,-0.16118,-0.3813,1.3257,-0.080686
0.026722,0.043001,-0.014667,0.09153,0.65949,-0.74777,0.25271,0.39075,-0.23268,-0.33881,-0.75861,-0.46636,-0.040183,-0.22048,-0.14467,0.079783,-0.045504,-0.36688,-0.84731,-0.03978,-0.16321,-0.36955,1.381,0.16233
0.024575,0.039383,-0.012936,0.091746,0.6478,-0.71465,0.30441,0.46653,-0.24038,-0.2576,-0.94598,-0.58308,-0.050934,-0.23194,-0.12145,0.090823,-0.039867,-0.30765,-0.80496,-0.046548,-0.15379,-0.30395,1.4518,0.43708
0.020472,0.039339,-0.016572,0.08926,0.60058,-0.62905,0.36917,0.48712,-0.22606,-0.14435,-1.097,-0.7027,-0.091549,-0.18749,-0.08858,0.096361,-0.032619,-0.23272,-0.6965,-0.058542,-0.14001,-0.19924,1.4821,0.70208
0.016101,0.038902,-0.021155,0.08156,0.5575,-0.49066,0.42781,0.4465,-0.19289,-0.07197,-1.255,-0.78484,-0.14054,-0.093402,-0.056695,0.091775,-0.027546,-0.1748,-0.6042,-0.071314,-0.12647,-0.080451,1.4605,0.93027
0.014199,0.034742,-0.02215,0.070588,0.54396,-0.32749,0.47188,0.35574,-0.15155,-0.088549,-1.4377,-0.81109,-0.16659,0.03145,-0.025339,0.079797,-0.02778,-0.15578,-0.55343,-0.081508,-0.11349,0.019853,1.4294,1.123
0.016096,0.027678,-0.01849,0.061226,0.56152,-0.17261,0.50054,0.24019,-0.1139,-0.19756,-1.6186,-0.78484,-0.1462,0.15987,0.012863,0.067418,-0.033226,-0.17408,-0.51536,-0.088651,-0.098528,0.072866,1.444,1.3036
0.019948,0.021926,-0.013001,0.056897,0.59698,-0.028127,0.51632,0.13267,-0.085664,-0.359,-1.7393,-0.71288,-0.075905,0.26084,0.059747,0.059101,-0.040554,-0.20572,-0.45176,-0.093991,-0.079665,0.068323,1.5157,1.4968
0.021633,0.020922,-0.0096471,0.056433,0.63911,0.1498,0.52505,0.064493,-0.063584,-0.50969,-1.744,-0.59079,0.026307,0.30632,0.10368,0.052584,-0.045884,-0.22079,-0.35768,-0.098363,-0.058322,0.021414,1.5865,1.7084
0.017934,0.023793,-0.010099,0.055115,0.6868,0.42515,0.53728,0.056397,-0.039207,-0.59187,-1.6147,-0.40844,0.12861,0.28162,0.12512,0.041094,-0.047703,-0.20364,-0.26561,-0.10134,-0.038967,-0.035747,1.5614,1.9185
0.009411,0.025864,-0.012423,0.048898,0.743,0.829,0.56486,0.1128,-0.0063656,-0.57645,-1.3862,-0.17089,0.19717,0.19514,0.11169,0.019796,-0.047329,-0.15989,-0.21395,-0.10214,-0.02583,-0.07393,1.3779,2.0913
0.00035459,0.022725,-0.012731,0.037898,0.80309,1.3186,0.61069,0.222,0.033534,-0.47133,-1.1303,0.086636,0.20844,0.078753,0.069055,-0.0096298,-0.046618,-0.10475,-0.21383,-0.10081,-0.019083,-0.08377,1.0597,2.1921
-0.0043884,0.014128,-0.0083265,0.025954,0.85128,1.7842,0.65925,0.36262,0.072452,-0.31353,-0.9198,0.30709,0.15898,-0.025857,0.016585,-0.040525,-0.045241,-0.044847,-0.24518,-0.098289,-0.013604,-0.077083,0.71143,2.2041
-0.0031946,0.0042284,0.00011592,0.016799,0.87006,2.1054,0.67917,0.51223,0.10186,-0.15179,-0.79186,0.44048,0.069084,-0.089139,-0.029133,-0.067414,-0.040325,0.027832,-0.28164,-0.095417,-0.0015765,-0.071985,0.45354,2.136
0.0010969,-0.0019376,0.0089119,0.010543,0.85441,2.2231,0.64049,0.6531,0.11898,-0.02894,-0.73333,0.47276,-0.023719,-0.10874,-0.068165,-0.09104,-0.029004,0.12244,-0.31648,-0.09214,0.022672,-0.074575,0.34539,2.0181
0.0035523,-0.0025415,0.013876,0.00386,0.81794,2.1784,0.53555,0.77247,0.12813,0.02935,-0.6952,0.43355,-0.081308,-0.10555,-0.11506,-0.11759,-0.011674,0.22886,-0.36371,-0.087957,0.058909,-0.072831,0.35093,1.8904
0.0011438,-0.00013311,0.013112,-0.0062878,0.78525,2.0905,0.38617,0.86041,0.13646,0.017647,-0.6265,0.37726,-0.084435,-0.10309,-0.18183,-0.1526,0.0070308,0.31162,-0.43508,-0.083109,0.10084,-0.0479,0.36772,1.7844
-0.0049502,0.00087837,0.00812,-0.019049,0.77706,2.0891,0.22955,0.9103,0.14776,-0.052343,-0.50586,0.35154,-0.043047,-0.10713,-0.2615,-0.19468,0.020594,0.32777,-0.51742,-0.079098,0.13949,0.0069727,0.29171,1.7079
-0.010585,-0.001961,0.0025799,-0.029895,0.79961,2.2416,0.093268,0.92345,0.15951,-0.15792,-0.35161,0.37359,0.010594,-0.10334,-0.32811,-0.23412,0.024566,0.25676,-0.5731,-0.077713,0.1677,0.076414,0.068904,1.6392
-0.012243,-0.0073025,-0.00013334,-0.034727,0.84496,2.5219,-0.019663,0.91342,0.1653,-0.27224,-0.20584,0.42729,0.042999,-0.075036,-0.35434,-0.25761,0.019074,0.11771,-0.56357,-0.079314,0.18283,0.13088,-0.29528,1.5364
-0.0098694,-0.011459,0.0011454,-0.034094,0.89877,2.8317,-0.12264,0.90331,0.16025,-0.37053,-0.10534,0.47887,0.041585,-0.024807,-0.33195,-0.25553,0.0081443,-0.041271,-0.47521,-0.082074,0.18635,0.14655,-0.75874,1.3588
-0.0066312,-0.011703,0.0052597,-0.033336,0.9481,3.0573,-0.2217,0.91484,0.14495,-0.43513,-0.059392,0.49837,0.023611,0.020904,-0.27711,-0.22692,-0.003412,-0.17417,-0.32732,-0.08324,0.18125,0.12117,-1.2651,1.0916
-0.0060135,-0.0085724,0.010112,-0.038215,0.98426,3.1235,-0.29877,0.95597,0.12478,-0.45871,-0.048225,0.4739,0.026722,0.030291,-0.21646,-0.17933,-0.013074,-0.2642,-0.16002,-0.08169,0.1695,0.073617,-1.7458,0.75705
-0.008877,-0.0054254,0.014184,-0.049901,1.002,3.0193,-0.3198,1.0169,0.10582,-0.44534,-0.040049,0.41321,0.087827,-0.0075416,-0.16696,-0.12448,-0.021578,-0.32603,-0.015953,-0.079784,0.15145,0.028573,-2.1132,0.40771
-0.012949,-0.0057931,0.017064,-0.063984,0.99842,2.7881,-0.26425,1.0777,0.090924,-0.40876,-0.012155,0.3357,0.22318,-0.072092,-0.12698,-0.072878,-0.031429,-0.38321,0.071139,-0.082759,0.12724,-0.00034522,-2.2728,0.10207
-0.014965,-0.010758,0.01898,-0.074464,0.97316,2.4964,-0.15184,1.1207,0.079101,-0.36731,0.039063,0.26191,0.41966,-0.12703,-0.085264,-0.030494,-0.044306,-0.44112,0.080404,-0.09564,0.098676,-0.015777,-2.1645,-0.12201
-0.013451,-0.018347,0.02017,-0.078992,0.92774,2.1993,-0.041909,1.1382,0.06818,-0.33669,0.10381,0.20617,0.63965,-0.14888,-0.036909,0.0013294,-0.059141,-0.47875,0.0084484,-0.11957,0.069878,-0.02792,-1.8097,-0.262
-0.0097874,-0.025213,0.02077,-0.080485,0.86354,1.9204,-0.0011461,1.1294,0.057766,-0.32345,0.17248,0.17393,0.83539,-0.14402,0.0096054,0.023725,-0.07202,-0.46587,-0.1233,-0.15011,0.045863,-0.041591,-1.3218,-0.34629
-0.0068741,-0.029104,0.02107,-0.083762,0.77995,1.65,-0.061517,1.0941,0.049747,-0.32358,0.24461,0.16223,0.96637,-0.13932,0.040736,0.038038,-0.077924,-0.39088,-0.26762,-0.179,0.030099,-0.05113,-0.85852,-0.41496
-0.0067611,-0.030202,0.021541,-0.090615,0.67573,1.3636,-0.19947,1.0305,0.046067,-0.32844,0.3269,0.16126,1.0137,-0.15561,0.052465,0.045084,-0.073506,-0.27556,-0.36782,-0.19861,0.022739,-0.046931,-0.53995,-0.49807
-0.0092689,-0.030459,0.022435,-0.098158,0.55354,1.0462,-0.35256,0.94084,0.046115,-0.33498,0.42356,0.15659,0.98536,-0.18786,0.056245,0.046027,-0.059535,-0.1644,-0.38817,-0.20647,0.020816,-0.026498,-0.38845,-0.60283
-0.01257,-0.031718,0.023421,-0.10194,0.42382,0.70901,-0.46144,0.83676,0.046281,-0.35258,0.52808,0.13269,0.91007,-0.20936,0.070122,0.04351,-0.04162,-0.096648,-0.33884,-0.20682,0.020215,0.00073346,-0.33351,-0.71426
-0.014981,-0.034237,0.023861,-0.10069,0.30336,0.3868,-0.5063,0.73614,0.042231,-0.39947,0.62246,0.07848,0.81937,-0.19523,0.10318,0.041416,-0.028364,-0.083277,-0.27366,-0.20802,0.018041,0.019287,-0.2758,-0.80593
-0.016329,-0.03671,0.023571,-0.097964,0.20833,0.1186,-0.51202,0.65124,0.031986,-0.48856,0.68348,-0.006613,0.7285,-0.14394,0.14741,0.042917,-0.02738,-0.10601,-0.25814,-0.21729,0.013914,0.018859,-0.15972,-0.85363
-0.017813,-0.037547,0.023266,-0.099186,0.14628,-0.073775,-0.52107,0.57895,0.017338,-0.61192,0.69117,-0.10981,0.62755,-0.078615,0.18395,0.048219,-0.041089,-0.13724,-0.32855,-0.23609,0.0096096,0.0010684,-0.0007352,-0.84641
-0.020632,-0.036257,0.024037,-0.10681,0.11307,-0.19387,-0.55734,0.50384,0.0025765,-0.73651,0.63541,-0.20866,0.49117,-0.028677,0.19745,0.054122,-0.064836,-0.16293,-0.47126,-0.25905,0.0076115,-0.023484,0.14561,-0.7921
-0.024651,-0.033862,0.026207,-0.11816,0.096131,-0.26224,-0.60942,0.41283,-0.008311,-0.81731,0.51953,-0.28152,0.30241,-0.0089987,0.18625,0.056272,-0.088757,-0.18961,-0.63531,-0.27697,0.0096727,-0.044237,0.23769,-0.7165
-0.02828,-0.032231,0.0287,-0.12774,0.080959,-0.30206,-0.64436,0.3082,-0.013871,-0.8215,0.361,-0.31975,0.073872,-0.013463,0.16101,0.052697,-0.10256,-0.231,-0.76571,-0.28146,0.016201,-0.057354,0.2765,-0.65524
-0.029657,-0.032991,0.029703,-0.13164,0.05586,-0.33219,-0.63808,0.20592,-0.015449,-0.74757,0.18845,-0.33407,-0.15094,-0.025374,0.13519,0.045849,-0.10033,-0.28733,-0.83112,-0.26843,0.026578,-0.064767,0.29026,-0.63886
-0.028176,-0.036768,0.028192,-0.13014,0.01341,-0.3704,-0.59614,0.12033,-0.015678,-0.62542,0.034578,-0.3493,-0.32031,-0.032878,0.11659,0.041259,-0.082605,-0.33604,-0.82832,-0.2387,0.039932,-0.067962,0.29914,-0.67605
-0.025102,-0.042999,0.024938,-0.12654,-0.049556,-0.43732,-0.54868,0.050184,-0.016509,-0.49621,-0.073562,-0.38946,-0.40692,-0.036076,0.10609,0.043596,-0.054696,-0.34279,-0.76778,-0.1964,0.055802,-0.063685,0.29909,-0.74489
-0.022727,-0.050156,0.022023,-0.12388,-0.13108,-0.55,-0.52547,-0.019287,-0.018068,-0.38593,-0.1223,-0.46239,-0.42649,-0.042725,0.1017,0.053035,-0.023124,-0.28451,-0.65851,-0.14709,0.074348,-0.046395,0.27958,-0.80076
-0.022659,-0.0562,0.021212,-0.12278,-0.22291,-0.70587,-0.53338,-0.099047,-0.018856,-0.29141,-0.11343,-0.55462,-0.42769,-0.059744,0.10211,0.064761,0.0072924,-0.16671,-0.50648,-0.09662,0.096091,-0.015175,0.25269,-0.80104
-0.024534,-0.059278,0.022602,-0.12201,-0.31184,-0.87146,-0.55448,-0.18021,-0.016898,-0.18873,-0.060594,-0.64095,-0.45899,-0.088933,0.10632,0.072007,0.034067,-0.021998,-0.3242,-0.050529,0.12124,0.02206,0.25805,-0.73271
-0.026207,-0.058575,0.02467,-0.12055,-0.38498,-0.99146,-0.56406,-0.23617,-0.011061,-0.057361,0.016401,-0.7022,-0.53593,-0.12841,0.1114,0.070392,0.055941,0.10865,-0.13733,-0.013297,0.14872,0.052116,0.33287,-0.62341
-0.025398,-0.054923,0.025532,-0.11894,-0.4366,-1.0186,-0.5504,-0.2436,-0.0018798,0.098679,0.096001,-0.73821,-0.63218,-0.17498,0.11252,0.060495,0.071783,0.19785,0.021729,0.012819,0.17519,0.065626,0.47259,-0.52509
-0.02161,-0.05057,0.024237,-0.1185,-0.47127,-0.94606,-0.51849,-0.20476,0.0083356,0.24878,0.1584,-0.76617,-0.70017,-0.2233,0.10635,0.047026,0.080628,0.24181,0.12987,0.028462,0.1947,0.063815,0.62031,-0.47951
-0.016802,-0.048,0.021064,-0.11962,-0.50046,-0.81805,-0.47613,-0.15163,0.016023,0.35447,0.19024,-0.80519,-0.70542,-0.26317,0.09426,0.035321,0.082507,0.25361,0.1848,0.036602,0.19987,0.056586,0.6988,-0.49063
-0.014129,-0.048496,0.01694,-0.12105,-0.53465,-0.70634,-0.41776,-0.1269,0.017392,0.39487,0.19023,-0.85865,-0.64942,-0.27993,0.081267,0.027547,0.078811,0.24715,0.20198,0.040884,0.18479,0.053302,0.66105,-0.52527
-0.01559,-0.051501,0.012798,-0.12092,-0.57709,-0.66617,-0.32351,-0.15712,0.0098233,0.3804,0.17132,-0.90762,-0.56607,-0.26067,0.070918,0.020953,0.071525,0.2252,0.20034,0.044033,0.14876,0.054529,0.5197,-0.54145
-0.020374,-0.055297,0.0094225,-0.11855,-0.62398,-0.70047,-0.17642,-0.23863,-0.0066672,0.3457,0.15433,-0.92038,-0.49637,-0.20318,0.060574,0.0092857,0.061932,0.17932,0.18984,0.047275,0.09838,0.052299,0.33517,-0.52095
-0.025297,-0.05839,0.0075118,-0.11516,-0.67047,-0.75812,0.016829,-0.34567,-0.028759,0.3282,0.15425,-0.87199,-0.46121,-0.12112,0.042146,-0.013274,0.050012,0.099058,0.17164,0.050791,0.046111,0.038553,0.17712,-0.4793
-0.027107,-0.060422,0.0073682,-0.11276,-0.71712,-0.76883,0.22016,-0.45135,-0.050949,0.34809,0.16735,-0.76106,-0.45128,-0.041012,0.0085224,-0.04773,0.035132,-0.018819,0.1488,0.054436,0.0050132,0.013398,0.090803,-0.44684
-0.024916,-0.061891,0.0082966,-0.11224,-0.77078,-0.69206,0.38385,-0.54328,-0.068623,0.4016,0.1696,-0.61359,-0.43868,0.0081165,-0.039354,-0.088101,0.017395,-0.16828,0.13529,0.058074,-0.01768,-0.015413,0.087077,-0.44016
-0.020848,-0.06315,0.0085066,-0.11255,-0.83909,-0.54731,0.47077,-0.62276,-0.081486,0.46829,0.12986,-0.47198,-0.39909,0.0070768,-0.090861,-0.12326,-0.0015793,-0.33828,0.1527,0.061518,-0.024166,-0.042161,0.15097,-0.45049
-0.018384,-0.063825,0.0061222,-0.11162,-0.9229,-0.4056,0.47449,-0.69159,-0.094591,0.52356,0.030566,-0.37534,-0.32749,-0.045386,-0.13137,-0.14231,-0.01907,-0.51641,0.21605,0.06447,-0.02434,-0.073006,0.25253,-0.458
-0.019641,-0.063309,0.00074761,-0.10831,-1.0125,-0.34762,0.41855,-0.74052,-0.11524,0.5481,-0.11739,-0.34111,-0.23771,-0.13244,-0.15119,-0.14044,-0.032464,-0.68738,0.32076,0.066713,-0.029724,-0.12548,0.35384,-0.45544
-0.023679,-0.061774,-0.0058437,-0.1035,-1.0899,-0.41591,0.34016,-0.75065,-0.14725,0.53229,-0.27608,-0.35724,-0.14959,-0.2267,-0.15112,-0.12145,-0.040259,-0.82902,0.4429,0.068401,-0.047016,-0.21539,0.41901,-0.45613
-0.02709,-0.06054,-0.010812,-0.099223,-1.1359,-0.59132,0.27096,-0.70674,-0.18689,0.47857,-0.39827,-0.38878,-0.076083,-0.30172,-0.14079,-0.094969,-0.042327,-0.91379,0.55282,0.070104,-0.075257,-0.34004,0.43177,-0.4783
-0.026428,-0.061157,-0.012439,-0.096791,-1.1359,-0.80738,0.22559,-0.61216,-0.22425,0.40303,-0.45137,-0.39562,-0.020101,-0.3418,-0.13132,-0.07,-0.039672,-0.92014,0.63067,0.072444,-0.1077,-0.47098,0.41053,-0.52246
-0.020698,-0.063932,-0.011533,-0.095421,-1.0855,-0.99137,0.201,-0.49335,-0.24967,0.33301,-0.43386,-0.35144,0.019152,-0.34573,-0.12808,-0.04945,-0.034276,-0.84816,0.67057,0.07535,-0.1361,-0.56321,0.40277,-0.5661
-0.012098,-0.067276,-0.010767,-0.092684,-0.99204,-1.1042,0.18325,-0.39012,-0.26003,0.2969,-0.37476,-0.2525,0.039,-0.32328,-0.1286,-0.029457,-0.029092,-0.72665,0.67151,0.077388,-0.15424,-0.57566,0.45456,-0.58201
-0.0045059,-0.068624,-0.012499,-0.086297,-0.87503,-1.1536,0.15721,-0.33709,-0.25953,0.3091,-0.31652,-0.11167,0.033391,-0.28732,-0.12677,-0.0038513,-0.027562,-0.60217,0.6261,0.075822,-0.1589,-0.49049,0.57539,-0.56223
-0.00085136,-0.066249,-0.016973,-0.075808,-0.76098,-1.174,0.11576,-0.3473,-0.25418,0.36,-0.291,0.056015,-6.2849e-005,-0.24667,-0.11935,0.030028,-0.032079,-0.51303,0.52081,0.067991,-0.14951,-0.32009,0.72774,-0.52258
-0.0012965,-0.060514,-0.022406,-0.062927,-0.67339,-1.1887,0.065092,-0.40705,-0.24517,0.4206,-0.30236,0.24355,-0.053997,-0.20312,-0.10935,0.068912,-0.041872,-0.46453,0.35042,0.053659,-0.128,-0.10005,0.85235,-0.48237
-0.0035104,-0.053581,-0.026669,-0.050408,-0.62074,-1.1831,0.023176,-0.48445,-0.22757,0.46067,-0.32673,0.44918,-0.11341,-0.15318,-0.10333,0.10637,-0.051933,-0.42345,0.13428,0.036783,-0.099215,0.12535,0.90853,-0.4402
-0.0046953,-0.047911,-0.02894,-0.040472,-0.59044,-1.1101,0.01042,-0.54665,-0.19615,0.46733,-0.32857,0.66445,-0.16495,-0.09228,-0.10488,0.13809,-0.054635,-0.33845,-0.082478,0.024798,-0.070608,0.3162,0.89497,-0.37214
-0.0036855,-0.044756,-0.02996,-0.033816,-0.55517,-0.92719,0.036903,-0.57608,-0.15295,0.44922,-0.28317,0.86625,-0.20471,-0.019104,-0.10996,0.16471,-0.043907,-0.1747,-0.24784,0.024931,-0.049782,0.44396,0.83516,-0.25729
-0.0014777,-0.043651,-0.030986,-0.029635,-0.49028,-0.64014,0.094061,-0.57689,-0.10931,0.42225,-0.19094,1.0228,-0.23695,0.061156,-0.10876,0.18951,-0.019536,0.059991,-0.32973,0.039583,-0.04062,0.49363,0.74481,-0.10646
7.2595e-005,-0.043007,-0.032662,-0.026327,-0.39181,-0.32174,0.15715,-0.56897,-0.079699,0.38925,-0.074674,1.1107,-0.26483,0.13542,-0.092981,0.21292,0.011626,0.31585,-0.3306,0.064167,-0.040573,0.46477,0.61477,0.036735
0.00011403,-0.041244,-0.034822,-0.022295,-0.28252,-0.08647,0.19771,-0.57387,-0.072165,0.33219,0.036588,1.1283,-0.28224,0.18455,-0.062758,0.22904,0.038925,0.52922,-0.27938,0.089352,-0.041496,0.37245,0.42575,0.12862
-0.00042512,-0.037732,-0.037108,-0.016487,-0.20026,-0.032691,0.19829,-0.60186,-0.083408,0.22548,0.12461,1.095,-0.27534,0.18981,-0.026887,0.22826,0.053657,0.65918,-0.20964,0.10619,-0.034054,0.24527,0.17781,0.16448
0.00025911,-0.033099,-0.039505,-0.0085504,-0.17596,-0.18709,0.16003,-0.64752,-0.10233,0.060858,0.18749,1.0358,-0.23318,0.14259,0.0041552,0.20446,0.053294,0.70802,-0.14264,0.1102,-0.013136,0.1176,-0.097792,0.18615
0.0031597,-0.028733,-0.04218,0.0013196,-0.21549,-0.4871,0.099121,-0.69552,-0.11852,-0.137,0.231,0.96665,-0.15796,0.052836,0.026407,0.16116,0.041371,0.7122,-0.087355,0.10159,0.019028,0.017343,-0.3586,0.24699
0.0074905,-0.025714,-0.04494,0.01271,-0.29731,-0.81201,0.036189,-0.73141,-0.12821,-0.31887,0.25467,0.89063,-0.065297,-0.050427,0.044216,0.11136,0.023776,0.71194,-0.051411,0.082374,0.053806,-0.043961,-0.58269,0.36228
0.011227,-0.023835,-0.047077,0.025222,-0.38629,-1.0417,-0.013465,-0.74988,-0.13349,-0.43891,0.24499,0.8069,0.026564,-0.12935,0.063471,0.070547,0.0049564,0.72322,-0.047022,0.054181,0.080472,-0.071501,-0.77782,0.49001
0.01264,-0.021591,-0.047916,0.03834,-0.4531,-1.1061,-0.042894,-0.75529,-0.1369,-0.48177,0.18227,0.71968,0.1098,-0.15433,0.08202,0.048311,-0.012952,0.73275,-0.082662,0.019359,0.091427,-0.077336,-0.95504,0.56175
0.01157,-0.017434,-0.047558,0.050967,-0.48621,-1.0017,-0.050747,-0.75507,-0.1375,-0.46875,0.056547,0.63817,0.19134,-0.1184,0.086225,0.044735,-0.028241,0.71846,-0.14831,-0.016094,0.085586,-0.068189,-1.0911,0.53912
0.0094884,-0.011409,-0.046983,0.061163,-0.49054,-0.774,-0.038364,-0.75139,-0.13197,-0.43894,-0.11895,0.56863,0.28485,-0.040101,0.057873,0.053522,-0.037865,0.67743,-0.21132,-0.042003,0.068298,-0.041465,-1.1198,0.44658
0.0084176,-0.0055864,-0.04734,0.066754,-0.477,-0.48912,-0.011163,-0.73755,-0.11876,-0.42019,-0.30645,0.5088,0.39729,0.047258,-0.012937,0.068057,-0.038278,0.63791,-0.23155,-0.048434,0.047909,0.0065963,-0.96845,0.35112
0.0095919,-0.0024792,-0.049035,0.066853,-0.45296,-0.20979,0.017518,-0.70235,-0.10035,-0.4116,-0.45632,0.4521,0.52087,0.11332,-0.11844,0.084764,-0.028247,0.64505,-0.18582,-0.03247,0.031006,0.067873,-0.61609,0.30604
0.012785,-0.002576,-0.051463,0.063272,-0.42004,0.018151,0.026917,-0.63977,-0.081165,-0.38963,-0.52789,0.39735,0.6367,0.14491,-0.23423,0.10158,-0.010578,0.73135,-0.081707,-0.0012868,0.019251,0.11738,-0.12528,0.30783
0.016635,-0.0033242,-0.053566,0.060318,-0.3786,0.17366,-0.0016245,-0.55697,-0.063501,-0.33142,-0.50862,0.35227,0.72623,0.14896,-0.3298,0.11453,0.0096305,0.89448,0.050839,0.032286,0.0098931,0.12387,0.37859,0.30322
0.019575,-0.00093505,-0.054545,0.062477,-0.33237,0.2632,-0.070163,-0.47352,-0.045902,-0.23711,-0.4227,0.32482,0.78112,0.14358,-0.38158,0.11717,0.029164,1.0986,0.18209,0.058956,-0.00045437,0.070748,0.76762,0.23883
0.020678,0.0062478,-0.054043,0.071305,-0.28815,0.31176,-0.15631,-0.41013,-0.025872,-0.13421,-0.32368,0.30977,0.80447,0.14412,-0.38113,0.10446,0.049499,1.296,0.29906,0.079318,-0.011703,-0.027782,0.97007,0.10893
0.019973,0.015855,-0.051804,0.083947,-0.25063,0.34025,-0.22164,-0.37317,-0.0038712,-0.061012,-0.27175,0.28534,0.80419,0.15326,-0.33533,0.077733,0.075289,1.4513,0.40264,0.10165,-0.019224,-0.1283,0.99246,-0.039725
0.018262,0.023086,-0.047566,0.094829,-0.2171,0.34232,-0.23385,-0.34579,0.015872,-0.041049,-0.30406,0.2269,0.78569,0.16121,-0.26041,0.045627,0.1094,1.5504,0.49053,0.13292,-0.016861,-0.17882,0.89997,-0.14756
0.01668,0.02466,-0.041642,0.099542,-0.17696,0.2823,-0.18742,-0.29385,0.029087,-0.0666,-0.41315,0.12832,0.74982,0.15505,-0.17395,0.019526,0.14872,1.5923,0.54458,0.17097,-0.0017291,-0.14649,0.77505,-0.18997
0.016211,0.021647,-0.035664,0.09801,-0.11721,0.12405,-0.10678,-0.18505,0.036244,-0.10258,-0.54753,0.012256,0.69587,0.13001,-0.088347,0.0067102,0.18456,1.5758,0.53658,0.20492,0.022993,-0.035834,0.67893,-0.19306
0.017235,0.018549,-0.032327,0.094405,-0.030644,-0.12701,-0.028784,-0.010074,0.043485,-0.10804,-0.63766,-0.082144,0.62468,0.094184,-0.0083361,0.0067124,0.20757,1.4966,0.44893,0.22334,0.049404,0.11284,0.6306,-0.20816
0.019241,0.019383,-0.033674,0.093815,0.078063,-0.40356,0.021558,0.20851,0.05829,-0.060698,-0.6342,-0.12625,0.53766,0.06288,0.066698,0.013339,0.21314,1.3565,0.29302,0.22265,0.069137,0.24311,0.60691,-0.27187
0.02095,0.024258,-0.039086,0.09833,0.19218,-0.60073,0.042805,0.42566,0.083504,0.031676,-0.53503,-0.12263,0.43321,0.046535,0.13705,0.019871,0.20309,1.1756,0.11,0.2086,0.07729,0.30901,0.56203,-0.38556
0.021044,0.029551,-0.044888,0.10562,0.28916,-0.63328,0.048068,0.59551,0.1151,0.13946,-0.38339,-0.10241,0.30627,0.041289,0.1974,0.022605,0.18282,0.99159,-0.046804,0.19027,0.073575,0.29478,0.45848,-0.52579
0.019204,0.031449,-0.046475,0.11097,0.35013,-0.48597,0.045462,0.69126,0.14577,0.2317,-0.23841,-0.10135,0.15412,0.029665,0.23632,0.020158,0.15711,0.84432,-0.13436,0.17298,0.060783,0.21873,0.29445,-0.66765
0.016686,0.029579,-0.041587,0.11095,0.36761,-0.2211,0.027382,0.71203,0.17109,0.29373,-0.13879,-0.13362,-0.014911,-0.0086776,0.24174,0.01048,0.12827,0.75352,-0.13355,0.15685,0.042526,0.12094,0.10879,-0.79605
0.015748,0.027405,-0.032106,0.10568,0.34693,0.060579,-0.020233,0.67652,0.19295,0.33026,-0.084608,-0.18286,-0.17825,-0.083512,0.20926,-0.010266,0.097655,0.70689,-0.050522,0.14086,0.021972,0.041969,-0.043223,-0.8978
0.018006,0.029057,-0.022741,0.098288,0.30135,0.27574,-0.095933,0.61152,0.21734,0.3544,-0.047958,-0.21546,-0.30719,-0.18685,0.14681,-0.04493,0.067841,0.66644,0.087739,0.12706,0.0017969,0.0041453,-0.12852,-0.95047
0.022885,0.035512,-0.017597,0.092337,0.24465,0.39346,-0.16813,0.54417,0.24874,0.37388,-0.0014569,-0.20317,-0.38315,-0.29582,0.071672,-0.091039,0.042676,0.58836,0.23784,0.11935,-0.01554,0.0046429,-0.16091,-0.92695
0.027529,0.043554,-0.017441,0.089539,0.18679,0.43176,-0.18396,0.49841,0.28614,0.38644,0.05866,-0.13764,-0.41082,-0.38242,0.0019753,-0.13944,0.024792,0.44303,0.34706,0.11827,-0.02793,0.022831,-0.19321,-0.81675
0.028625,0.048423,-0.019776,0.089305,0.13422,0.42676,-0.1,0.49099,0.32377,0.38719,0.11167,-0.029063,-0.41714,-0.42365,-0.051288,-0.1781,0.013384,0.22474,0.3695,0.11788,-0.034082,0.035901,-0.28549,-0.64425
0.02494,0.04773,-0.021351,0.089891,0.091794,0.40011,0.084734,0.52405,0.35537,0.37956,0.13187,0.1045,-0.43452,-0.40756,-0.08598,-0.19857,0.0049511,-0.049857,0.29002,0.10932,-0.033827,0.032456,-0.47659,-0.4634
0.018574,0.043219,-0.020675,0.089777,0.061965,0.34498,0.31769,0.57938,0.37773,0.37857,0.11113,0.24533,-0.47881,-0.33476,-0.10436,-0.19994,-0.0033111,-0.34881,0.14044,0.088811,-0.028096,0.016157,-0.77824,-0.32849
0.013656,0.038971,-0.01843,0.088277,0.041282,0.23447,0.51472,0.62315,0.39063,0.40239,0.066538,0.37617,-0.53781,-0.21715,-0.10751,-0.18717,-0.010671,-0.63198,-0.0098708,0.062273,-0.018829,-0.00088697,-1.1847,-0.26314
0.013295,0.037823,-0.015901,0.085371,0.0189,0.043546,0.60419,0.62349,0.39406,0.45877,0.028605,0.47718,-0.57929,-0.074878,-0.094103,-0.16586,-0.013528,-0.85799,-0.091941,0.04179,-0.0090222,-0.0082881,-1.6749,-0.25251
0.017099,0.039196,-0.013376,0.081388,-0.018257,-0.22984,0.56627,0.57084,0.38601,0.53718,0.020904,0.52801,-0.57329,0.068624,-0.064169,-0.13835,-0.0091991,-0.99303,-0.081083,0.036146,-0.0026742,-0.0031293,-2.1991,-0.26407
0.021361,0.04008,-0.010158,0.076894,-0.07548,-0.55582,0.44201,0.48528,0.36355,0.6123,0.04764,0.51689,-0.51265,0.19297,-0.023724,-0.10471,0.00063485,-1.0214,-0.013583,0.043574,-0.0040783,0.011765,-2.6672,-0.27767
0.021887,0.038058,-0.0059113,0.07259,-0.14367,-0.88087,0.30624,0.4027,0.32598,0.65568,0.097691,0.44971,-0.41699,0.28658,0.015252,-0.066892,0.010081,-0.95266,0.040444,0.052812,-0.016273,0.033502,-2.9689,-0.29906
0.017307,0.033545,-0.0015588,0.068993,-0.20355,-1.1493,0.22239,0.34834,0.27709,0.6475,0.15959,0.34996,-0.31787,0.34901,0.040699,-0.031329,0.01273,-0.82096,0.030414,0.05127,-0.039225,0.062529,-3.0266,-0.34647
0.010223,0.02931,0.0014252,0.066037,-0.23929,-1.3265,0.20902,0.31733,0.22397,0.58283,0.23302,0.24758,-0.23765,0.38888,0.048074,-0.0064808,0.0056858,-0.67366,-0.036053,0.033389,-0.068876,0.10058,-2.8416,-0.42444
0.0052391,0.027869,0.0026269,0.063058,-0.25142,-1.41,0.23794,0.27719,0.17328,0.47196,0.32562,0.16449,-0.17825,0.41851,0.04334,0.00283,-0.0093339,-0.55546,-0.10031,0.0030012,-0.098002,0.14554,-2.4892,-0.50933
0.0054371,0.029169,0.0033682,0.059339,-0.25812,-1.4242,0.2606,0.19047,0.12811,0.33704,0.43681,0.10676,-0.12717,0.44789,0.038194,-0.0011176,-0.028157,-0.49397,-0.10035,-0.03076,-0.11884,0.18859,-2.0548,-0.5601
0.010024,0.030621,0.00554,0.054784,-0.28394,-1.4039,0.24028,0.040208,0.087701,0.20598,0.54265,0.067588,-0.073342,0.48041,0.040601,-0.011377,-0.047106,-0.49199,-0.020263,-0.059469,-0.12633,0.21688,-1.5644,-0.54634
0.01495,0.029367,0.0096634,0.050087,-0.34499,-1.3795,0.16785,-0.16007,0.049976,0.10377,0.59777,0.03634,-0.017846,0.51196,0.047904,-0.022552,-0.064092,-0.52755,0.097883,-0.078689,-0.12021,0.22034,-0.97343,-0.47152
0.015931,0.02473,0.014163,0.046171,-0.44216,-1.3718,0.055733,-0.37718,0.014261,0.043046,0.55815,0.0058255,0.029547,0.534,0.048347,-0.034456,-0.07758,-0.56073,0.18784,-0.087561,-0.1048,0.19737,-0.23552,-0.37381
0.011509,0.018747,0.016681,0.043413,-0.56563,-1.3926,-0.077169,-0.57948,-0.0179,0.018961,0.4121,-0.026022,0.063131,0.53928,0.030602,-0.048847,-0.08535,-0.54588,0.20927,-0.086956,-0.086687,0.15539,0.60677,-0.30415
0.0039103,0.014462,0.016209,0.041391,-0.70378,-1.4446,-0.2135,-0.75212,-0.044098,0.013201,0.19742,-0.05793,0.089932,0.52719,-0.0055507,-0.061889,-0.084884,-0.44705,0.17455,-0.078484,-0.071721,0.10614,1.3944,-0.29709
-0.0027536,0.01356,0.014012,0.039393,-0.84708,-1.5162,-0.33487,-0.89709,-0.063045,0.0060952,-0.010289,-0.087015,0.12512,0.50456,-0.045722,-0.060463,-0.07519,-0.25213,0.13501,-0.064432,-0.063175,0.059295,1.9259,-0.35311
-0.0054045,0.01533,0.012471,0.037139,-0.98488,-1.5786,-0.41879,-1.0221,-0.075536,-0.010701,-0.13425,-0.10995,0.17829,0.48011,-0.068057,-0.028366,-0.058149,0.020145,0.14316,-0.047396,-0.06173,0.018608,2.0833,-0.44216
-0.0038527,0.017596,0.013015,0.034941,-1.1012,-1.5941,-0.44605,-1.13,-0.083927,-0.029873,-0.13653,-0.12556,0.244,0.45612,-0.056751,0.040477,-0.037809,0.32523,0.22192,-0.029131,-0.066785,-0.017661,1.91,-0.52379
-0.00045217,0.018542,0.015078,0.033119,-1.1773,-1.5349,-0.41611,-1.2165,-0.090789,-0.035271,-0.036534,-0.1387,0.30634,0.4238,-0.012875,0.13266,-0.018033,0.60952,0.35955,-0.0097951,-0.077766,-0.053592,1.5778,-0.5703
0.0018618,0.017861,0.016946,0.031353,-1.1999,-1.3991,-0.35546,-1.2778,-0.097672,-0.014067,0.10345,-0.16144,0.35331,0.3678,0.044954,0.21959,-0.00040545,0.83249,0.52408,0.011197,-0.094517,-0.092383,1.2686,-0.57894
0.0015536,0.01655,0.017527,0.028775,-1.1695,-1.2111,-0.30618,-1.317,-0.10445,0.035303,0.21639,-0.20747,0.38676,0.27811,0.090725,0.27463,0.015985,0.9844,0.67962,0.033219,-0.11672,-0.13484,1.0655,-0.56713
-0.00081652,0.015907,0.017305,0.024839,-1.0986,-1.005,-0.29945,-1.3447,-0.10935,0.10458,0.26832,-0.2816,0.41717,0.16116,0.10564,0.29053,0.033038,1.0905,0.79473,0.053473,-0.14293,-0.17952,0.93196,-0.55563
-0.0033718,0.016678,0.017665,0.020102,-1.003,-0.80562,-0.33464,-1.3721,-0.10952,0.18337,0.27299,-0.37294,0.44761,0.041042,0.088182,0.28288,0.051881,1.1976,0.84701,0.068397,-0.17004,-0.22363,0.77908,-0.55106
-0.0044006,0.018743,0.019403,0.015971,-0.89283,-0.6238,-0.38261,-1.4035,-0.1021,0.26523,0.27583,-0.4594,0.46309,-0.051368,0.054052,0.27599,0.072141,1.3478,0.83035,0.076332,-0.19347,-0.26405,0.55227,-0.53939
-0.0035112,0.021175,0.021919,0.0135,-0.77174,-0.46906,-0.41172,-1.4346,-0.085413,0.34711,0.31927,-0.52158,0.43841,-0.094535,0.026708,0.28259,0.092214,1.5495,0.76071,0.078627,-0.20852,-0.29845,0.26283,-0.49425
-0.0017913,0.022557,0.023801,0.012366,-0.64278,-0.36519,-0.41451,-1.4594,-0.059586,0.42451,0.41309,-0.55446,0.36034,-0.086421,0.024927,0.29457,0.10967,1.7621,0.66896,0.077625,-0.21218,-0.32635,-0.048399,-0.39436
-0.00092419,0.021687,0.024103,0.011129,-0.51269,-0.35002,-0.41183,-1.4775,-0.026389,0.48895,0.52927,-0.56546,0.24552,-0.041884,0.054584,0.29278,0.12148,1.9072,0.57799,0.073306,-0.20459,-0.34925,-0.36588,-0.2388
-0.0018404,0.018622,0.02302,0.0086966,-0.38818,-0.45492,-0.43121,-1.497,0.011499,0.53177,0.62352,-0.55984,0.13643,0.019695,0.10841,0.26738,0.12466,1.9039,0.4801,0.062315,-0.18902,-0.36903,-0.71268,-0.050607
-0.003868,0.015243,0.02138,0.0056271,-0.26733,-0.67891,-0.47957,-1.5274,0.051017,0.55113,0.66689,-0.52762,0.076096,0.086205,0.1721,0.23037,0.11811,1.7135,0.33824,0.041384,-0.17007,-0.38503,-1.1087,0.13302
-0.0051435,0.014375,0.019612,0.0038932,-0.13656,-0.9793,-0.53558,-1.5691,0.088534,0.55473,0.66403,-0.44706,0.080636,0.15479,0.23172,0.20841,0.10477,1.3654,0.11795,0.0127,-0.15146,-0.39229,-1.5161,0.27748
-0.004141,0.017551,0.017396,0.0051287,0.019806,-1.2876,-0.56841,-1.6073,0.11934,0.5538,0.64606,-0.30543,0.13104,0.2236,0.27795,0.22114,0.091931,0.94804,-0.17206,-0.013943,-0.13509,-0.38342,-1.8281,0.36511
-0.0011198,0.023152,0.014444,0.0088819,0.20265,-1.5385,-0.56459,-1.6158,0.13775,0.55239,0.64634,-0.11986,0.18952,0.2823,0.30608,0.26286,0.088176,0.56743,-0.46716,-0.025449,-0.12198,-0.35415,-1.921,0.39991
0.0018818,0.026967,0.011607,0.012575,0.38864,-1.6908,-0.53669,-1.5708,0.13852,0.54088,0.68056,0.062309,0.22564,0.31172,0.31404,0.30296,0.098162,0.29776,-0.67954,-0.013865,-0.11365,-0.30903,-1.7319,0.40158
0.0027226,0.025371,0.011024,0.013413,0.53989,-1.7283,-0.50459,-1.4635,0.11919,0.50023,0.74608,0.18881,0.23113,0.29536,0.30168,0.30477,0.11891,0.15474,-0.75671,0.017487,-0.11176,-0.26209,-1.3042,0.39298
0.0011051,0.018711,0.014774,0.010684,0.62883,-1.6469,-0.46726,-1.3049,0.081933,0.41456,0.83614,0.23545,0.21454,0.23419,0.27182,0.24757,0.14087,0.10369,-0.72121,0.055377,-0.11567,-0.22994,-0.76578,0.38786
-0.001068,0.011683,0.022955,0.0064223,0.66014,-1.447,-0.39427,-1.1194,0.033699,0.28265,0.94985,0.22034,0.18512,0.1515,0.23149,0.13534,0.15342,0.090204,-0.65868,0.084761,-0.12009,-0.22014,-0.25906,0.38533
-0.0014229,0.0098357,0.032852,0.0037577,0.6709,-1.1389,-0.24994,-0.93195,-0.015941,0.11979,1.0848,0.18691,0.14269,0.081439,0.19036,-0.01197,0.1509,0.068021,-0.66096,0.097379,-0.11603,-0.22252,0.12724,0.37418
0.00059982,0.0149,0.04019,0.004299,0.70663,-0.75462,-0.032816,-0.75779,-0.058342,-0.050644,1.2196,0.1693,0.081277,0.047522,0.15639,-0.17427,0.13472,0.0078855,-0.76628,0.094527,-0.09562,-0.21065,0.379,0.34497
0.00308,0.02306,0.041808,0.0067903,0.78998,-0.35099,0.20446,-0.59916,-0.089001,-0.20888,1.3091,0.16853,-0.0006071,0.046919,0.13105,-0.33997,0.11043,-0.10882,-0.93935,0.082915,-0.057852,-0.15481,0.52644,0.30229
0.003274,0.027951,0.037855,0.0082055,0.90589,0.0047308,0.37693,-0.4491,-0.10874,-0.3446,1.3046,0.15837,-0.096116,0.052776,0.1084,-0.50198,0.08282,-0.29512,-1.1014,0.068224,-0.010586,-0.040353,0.59617,0.26761
8.0303e-005,0.025943,0.031784,0.0063317,1.0143,0.25822,0.41952,-0.29853,-0.12207,-0.45414,1.1897,0.11399,-0.19704,0.033837,0.079572,-0.64817,0.053272,-0.55199,-1.1823,0.052162,0.033227,0.11949,0.58615,0.2682
-0.0049556,0.019121,0.02802,0.0015856,1.0801,0.38549,0.33201,-0.14216,-0.13364,-0.53363,0.99819,0.037585,-0.30321,-0.022613,0.04009,-0.75806,0.021183,-0.85684,-1.154,0.034733,0.062718,0.28505,0.47896,0.3174
-0.0089323,0.013354,0.028939,-0.0035123,1.0967,0.39552,0.1829,0.019264,-0.14487,-0.57598,0.79634,-0.040749,-0.42223,-0.10096,-0.005242,-0.81086,-0.012638,-1.1625,-1.0273,0.018308,0.074673,0.40676,0.27421,0.39948
-0.0098716,0.013182,0.033361,-0.006689,1.0875,0.32248,0.069083,0.18109,-0.15329,-0.57631,0.63728,-0.086263,-0.55763,-0.16721,-0.044123,-0.79856,-0.044167,-1.4138,-0.82525,0.0085844,0.073893,0.44876,0.0073845,0.47194
-0.0079307,0.018027,0.037645,-0.0079322,1.0853,0.21732,0.06043,0.34002,-0.15522,-0.5418,0.52501,-0.085901,-0.69647,-0.19081,-0.064307,-0.73294,-0.067816,-1.5715,-0.56419,0.010872,0.068844,0.40693,-0.26239,0.48663
-0.0047451,0.022927,0.038526,-0.0093073,1.1096,0.14148,0.16704,0.49896,-0.15,-0.49643,0.418,-0.056106,-0.81029,-0.16287,-0.061444,-0.64039,-0.080102,-1.627,-0.25854,0.024922,0.066262,0.31188,-0.48452,0.41754
-0.0019131,0.022966,0.035482,-0.012752,1.1566,0.15641,0.34644,0.66736,-0.14219,-0.4728,0.26987,-0.02788,-0.87147,-0.099194,-0.041292,-0.54848,-0.082225,-1.5979,0.062145,0.043279,0.068387,0.21514,-0.64192,0.27702
-0.00017924,0.017437,0.03083,-0.017944,1.2086,0.30359,0.53858,0.85462,-0.13921,-0.49291,0.073037,-0.02371,-0.8724,-0.028465,-0.015042,-0.47434,-0.079514,-1.513,0.34834,0.055258,0.073787,0.16618,-0.75107,0.10959
0.0002188,0.010279,0.027544,-0.02233,1.2487,0.58194,0.70074,1.0597,-0.14566,-0.5511,-0.1316,-0.04497,-0.83088,0.024106,0.0077332,-0.42193,-0.078326,-1.4012,0.55039,0.053807,0.080029,0.19151,-0.84281,-0.032123
-0.0010509,0.0066794,0.026691,-0.023396,1.2696,0.94013,0.82189,1.2647,-0.15858,-0.61427,-0.28665,-0.076715,-0.77691,0.046189,0.022269,-0.38719,-0.082781,-1.2889,0.64873,0.039961,0.085837,0.28507,-0.94325,-0.11349
-0.0042221,0.0089045,0.0267,-0.021086,1.2721,1.2962,0.91491,1.4393,-0.16788,-0.64346,-0.36429,-0.10182,-0.73195,0.036479,0.025883,-0.36458,-0.093342,-1.1995,0.66722,0.021524,0.091536,0.41281,-1.0676,-0.13025
-0.0085531,0.014753,0.025124,-0.018052,1.2571,1.5765,0.99878,1.5552,-0.1625,-0.62274,-0.3877,-0.11143,-0.69772,-0.0033802,0.013554,-0.34966,-0.10753,-1.1458,0.65554,0.0072716,0.098204,0.52775,-1.2216,-0.10245
-0.011962,0.019569,0.0213,-0.017394,1.2213,1.7482,1.0835,1.6013,-0.13781,-0.57238,-0.41077,-0.10556,-0.66225,-0.073834,-0.021742,-0.33801,-0.12163,-1.1177,0.65482,0.0013956,0.10646,0.58847,-1.3969,-0.057242
-0.012087,0.019822,0.017373,-0.01993,1.1592,1.8229,1.1638,1.5874,-0.098662,-0.5332,-0.47363,-0.087315,-0.61557,-0.17382,-0.081984,-0.32445,-0.13209,-1.0803,0.67632,0.0022005,0.11557,0.57359,-1.5591,-0.012785
-0.0082087,0.015287,0.016529,-0.023486,1.0672,1.8328,1.2206,1.5354,-0.055386,-0.53267,-0.5709,-0.058459,-0.56001,-0.29128,-0.15589,-0.30515,-0.13628,-0.99246,0.71069,0.0052093,0.12307,0.48707,-1.6441,0.02839
-0.0023186,0.0084467,0.019903,-0.024821,0.94764,1.8005,1.2283,1.4638,-0.016175,-0.56107,-0.65779,-0.0196,-0.50656,-0.39712,-0.21827,-0.2807,-0.13305,-0.83652,0.75543,0.0072636,0.1252,0.3532,-1.58,0.075697
0.0019388,0.0021566,0.025066,-0.022401,0.80924,1.7295,1.1664,1.3795,0.017936,-0.57947,-0.6884,0.026871,-0.46252,-0.45088,-0.24077,-0.25616,-0.12328,-0.63489,0.82952,0.0080235,0.11821,0.20399,-1.3321,0.14123
0.0018746,-0.0021553,0.027765,-0.017582,0.66644,1.6185,1.0294,1.2842,0.05136,-0.55486,-0.6549,0.075079,-0.42285,-0.41872,-0.20829,-0.2366,-0.11005,-0.43562,0.95592,0.0082921,0.10022,0.065509,-0.93791,0.23094
-0.002184,-0.004417,0.025552,-0.013359,0.53684,1.4788,0.83217,1.1875,0.087327,-0.49233,-0.5967,0.11673,-0.37356,-0.29389,-0.12958,-0.22199,-0.097698,-0.27577,1.1247,0.0077385,0.072682,-0.05002,-0.50203,0.34064
-0.007201,-0.0046301,0.019996,-0.011972,0.43578,1.3364,0.60733,1.1146,0.12252,-0.43461,-0.57261,0.14375,-0.30372,-0.10625,-0.033701,-0.20657,-0.089472,-0.15259,1.2728,0.0048481,0.040194,-0.14259,-0.14135,0.4581
-0.0099333,-0.0021435,0.015285,-0.013447,0.36928,1.2145,0.39537,1.0984,0.1481,-0.42667,-0.61758,0.15094,-0.21542,0.087179,0.045531,-0.18458,-0.085263,-0.028836,1.3069,-0.00076793,0.0085393,-0.21555,0.084296,0.56921
-0.0094969,0.0035366,0.014391,-0.015997,0.33073,1.1176,0.23296,1.1611,0.1566,-0.47388,-0.71681,0.13803,-0.12312,0.22643,0.086535,-0.15766,-0.081101,0.13034,1.1609,-0.0063686,-0.018109,-0.26677,0.20821,0.66387
-0.0077724,0.011265,0.016405,-0.017585,0.30657,1.0353,0.14341,1.2982,0.14901,-0.52961,-0.81553,0.11105,-0.043595,0.27421,0.087453,-0.13672,-0.071458,0.32007,0.84681,-0.0070191,-0.039067,-0.28713,0.33318,0.73781
-0.007355,0.017963,0.017649,-0.017297,0.28923,0.96267,0.13036,1.478,0.13574,-0.52397,-0.85523,0.081713,0.01524,0.22883,0.061333,-0.13484,-0.053159,0.49061,0.45989,0.00078715,-0.057008,-0.26841,0.56449,0.78988
-0.0089818,0.02036,0.015526,-0.015711,0.2871,0.91537,0.17512,1.6569,0.13056,-0.41118,-0.80809,0.06367,0.057823,0.1192,0.025134,-0.1562,-0.028164,0.58024,0.12952,0.015919,-0.07603,-0.21457,0.9453,0.8187
-0.010831,0.017547,0.011321,-0.014328,0.32029,0.91996,0.23876,1.7987,0.1421,-0.19873,-0.68563,0.06649,0.094753,-0.012526,-0.0085217,-0.19014,-0.0029613,0.55924,-0.051336,0.032793,-0.099209,-0.14684,1.4343,0.82281
-0.01032,0.011959,0.0090577,-0.01454,0.40237,0.98446,0.27167,1.8864,0.16927,0.061757,-0.52026,0.090717,0.13213,-0.12931,-0.032725,-0.21638,0.01515,0.44946,-0.071789,0.044921,-0.127,-0.096188,1.933,0.80485
-0.0066677,0.0076028,0.011341,-0.016582,0.52211,1.0774,0.23021,1.9206,0.2033,0.30974,-0.34007,0.1278,0.1646,-0.20953,-0.043525,-0.21806,0.022185,0.30498,0.0035176,0.048754,-0.157,-0.086366,2.3374,0.77558
-0.0017833,0.0068475,0.016239,-0.018964,0.64334,1.1401,0.095139,1.9117,0.23387,0.50635,-0.15913,0.16536,0.17744,-0.24675,-0.038437,-0.19238,0.018961,0.17176,0.082924,0.044699,-0.18495,-0.11892,2.5814,0.75311
0.001346,0.008571,0.018429,-0.018923,0.72728,1.1297,-0.11723,1.8735,0.25391,0.6395,0.01201,0.1941,0.15692,-0.243,-0.018409,-0.15026,0.0091911,0.059492,0.10163,0.034984,-0.2062,-0.17163,2.6513,0.7565
0.0012327,0.0093604,0.013834,-0.013997,0.76174,1.0598,-0.35755,1.8211,0.2605,0.70824,0.15187,0.21136,0.10245,-0.20208,0.0095238,-0.10571,-0.0037631,-0.054136,0.046383,0.020925,-0.21736,-0.21276,2.5742,0.79786
-0.00097796,0.0067178,0.003525,-0.003907,0.77227,1.006,-0.55974,1.7705,0.25301,0.70844,0.22888,0.21931,0.031754,-0.12737,0.033148,-0.064402,-0.01849,-0.19429,-0.058014,0.0023697,-0.21756,-0.22178,2.3965,0.87711
-0.0027691,0.001386,-0.0067969,0.0087048,0.80297,1.0656,-0.66459,1.7341,0.23168,0.63511,0.22072,0.22038,-0.025722,-0.024712,0.040555,-0.021364,-0.034334,-0.36079,-0.18119,-0.020426,-0.20886,-0.20185,2.1654,0.98036
-0.0025649,-0.0032495,-0.011378,0.019583,0.87998,1.2984,-0.64176,1.7139,0.19855,0.49639,0.13447,0.21443,-0.044233,0.093284,0.026691,0.030562,-0.049063,-0.5223,-0.30985,-0.044803,-0.19532,-0.17562,1.9194,1.0804
-0.00087118,-0.0040234,-0.0089621,0.02546,0.98665,1.6878,-0.50233,1.6978,0.15894,0.32113,0.0065975,0.20011,-0.016017,0.20651,-0.00379,0.089492,-0.058225,-0.63406,-0.44484,-0.066028,-0.18081,-0.1679,1.6851,1.1394
0.00067254,-0.00048055,-0.0033245,0.02599,1.0716,2.1455,-0.29731,1.6652,0.12087,0.14847,-0.12076,0.17864,0.04615,0.293,-0.039235,0.14096,-0.057401,-0.66315,-0.58097,-0.079978,-0.16675,-0.1882,1.4763,1.1174
0.0011457,0.0050872,0.00043679,0.023494,1.0838,2.5552,-0.10162,1.5979,0.091718,0.0063772,-0.22802,0.15567,0.12064,0.33878,-0.066858,0.16584,-0.045689,-0.60316,-0.69206,-0.085763,-0.15131,-0.22461,1.295,0.98925
0.0011635,0.0097305,0.00026673,0.020887,1.0078,2.8257,0.011753,1.4892,0.074222,-0.10278,-0.32574,0.1391,0.1944,0.34549,-0.077636,0.15363,-0.027302,-0.47242,-0.73827,-0.085726,-0.13093,-0.25197,1.1353,0.76455
0.0019473,0.011912,-0.0017177,0.019703,0.87121,2.9239,-0.0024318,1.3429,0.065218,-0.19801,-0.43402,0.13419,0.2726,0.3299,-0.067767,0.11079,-0.0095226,-0.30282,-0.69163,-0.08271,-0.10337,-0.24699,0.99266,0.4972
0.0037759,0.01185,-0.0019745,0.019854,0.72201,2.8727,-0.14679,1.1674,0.058155,-0.30168,-0.55211,0.14002,0.37246,0.31468,-0.037305,0.057648,0.0016841,-0.13033,-0.559,-0.077131,-0.07007,-0.20062,0.8715,0.27181
0.0054826,0.010405,0.00077281,0.020873,0.59401,2.7223,-0.38422,0.97062,0.047469,-0.42311,-0.64636,0.15049,0.5059,0.31626,0.011762,0.016362,0.0050071,0.0081262,-0.38285,-0.066697,-0.03594,-0.12147,0.78519,0.16751
0.0054734,0.0081627,0.0043975,0.022985,0.48829,2.5131,-0.65612,0.7613,0.031541,-0.55487,-0.66945,0.15911,0.66389,0.33765,0.076187,-0.0014764,0.0035359,0.075669,-0.21817,-0.049247,-0.0067069,-0.030867,0.74304,0.21732
0.003198,0.0056955,0.0055861,0.02674,0.38081,2.2537,-0.90565,0.55494,0.012525,-0.67989,-0.59623,0.16411,0.8139,0.3703,0.15063,0.0002314,0.0013541,0.041363,-0.1033,-0.026217,0.014334,0.046064,0.73124,0.3889
-0.00031363,0.0043487,0.0030468,0.031719,0.24646,1.9246,-1.0944,0.37417,-0.0060208,-0.78044,-0.44671,0.16995,0.91149,0.40185,0.22638,0.0067784,1.269e-005,-0.10704,-0.046202,-0.0034757,0.027751,0.08895,0.70315,0.60111
-0.0031907,0.0060746,-0.0013285,0.036033,0.079144,1.5054,-1.207,0.24031,-0.021433,-0.84272,-0.27631,0.18383,0.91837,0.42317,0.2912,0.0029739,-0.0021881,-0.34987,-0.033215,0.011587,0.03685,0.08759,0.59165,0.76748
-0.0039309,0.01193,-0.0042274,0.037534,-0.10516,1.0072,-1.2465,0.16109,-0.032694,-0.85864,-0.14094,0.20931,0.81737,0.43016,0.33161,-0.017438,-0.0078063,-0.63211,-0.048824,0.014639,0.045207,0.043505,0.3414,0.8389
-0.0021441,0.020562,-0.0037624,0.035754,-0.28059,0.48561,-1.2277,0.12485,-0.039898,-0.82857,-0.063746,0.24102,0.61969,0.42104,0.33762,-0.048224,-0.017206,-0.87647,-0.087696,0.00714,0.054878,-0.031903,-0.058649,0.81873
0.0014043,0.028417,-0.00079623,0.032606,-0.42685,0.024022,-1.1729,0.10688,-0.043529,-0.76353,-0.027596,0.26435,0.36369,0.39352,0.30798,-0.074167,-0.027695,-1.0102,-0.15026,-0.0047795,0.066323,-0.12091,-0.56538,0.74372
0.005149,0.031946,0.0022148,0.030892,-0.53743,-0.30688,-1.108,0.083413,-0.044214,-0.68126,0.0044571,0.26137,0.10546,0.34485,0.2524,-0.079177,-0.035511,-0.99439,-0.22954,-0.014286,0.079442,-0.20265,-1.1021,0.64854
0.0072949,0.030106,0.0035342,0.031866,-0.61784,-0.48667,-1.0565,0.042551,-0.042702,-0.59424,0.060021,0.22086,-0.098353,0.27417,0.18808,-0.054565,-0.038665,-0.8414,-0.30474,-0.017611,0.094327,-0.25536,-1.5949,0.54113
0.0066518,0.025055,0.0034523,0.034083,-0.67853,-0.55464,-1.0288,-0.014914,-0.03969,-0.49788,0.14201,0.14731,-0.2114,0.18495,0.13158,-0.0031843,-0.038035,-0.61207,-0.3501,-0.015119,0.11099,-0.25935,-1.9984,0.40481
0.0035173,0.020477,0.0035948,0.034651,-0.72847,-0.58435,-1.0153,-0.082865,-0.035542,-0.37128,0.23514,0.062789,-0.23222,0.08571,0.091159,0.062617,-0.035944,-0.39215,-0.35263,-0.0095133,0.12863,-0.20327,-2.2965,0.2211
-0.00011903,0.019019,0.0051421,0.031749,-0.77245,-0.6403,-0.98967,-0.15724,-0.03027,-0.19447,0.3241,-0.0011191,-0.19212,-0.010392,0.065023,0.12799,-0.033894,-0.25833,-0.32409,-0.0030706,0.14545,-0.092796,-2.4841,-0.0080426
-0.0016462,0.020913,0.0077275,0.026116,-0.81172,-0.74475,-0.92337,-0.23724,-0.023804,0.030197,0.40725,-0.018236,-0.13518,-0.08692,0.046922,0.18347,-0.031718,-0.24855,-0.29658,0.0038537,0.15958,0.044461,-2.5514,-0.25598
0.00028851,0.024585,0.0099543,0.020274,-0.84589,-0.87389,-0.80353,-0.32134,-0.016079,0.27214,0.49735,0.018706,-0.092339,-0.12734,0.034171,0.22916,-0.028819,-0.35005,-0.30431,0.012197,0.17002,0.16518,-2.4873,-0.48646
0.0045678,0.028253,0.010868,0.016331,-0.87457,-0.98115,-0.64056,-0.40389,-0.0066084,0.49086,0.61322,0.094474,-0.067312,-0.12118,0.031071,0.27282,-0.025956,-0.51074,-0.36469,0.022276,0.17667,0.22896,-2.2952,-0.67432
0.0082736,0.030906,0.010878,0.014448,-0.89813,-1.0291,-0.46099,-0.47671,0.005967,0.66546,0.77067,0.18011,-0.04337,-0.071559,0.044564,0.32323,-0.02554,-0.66803,-0.47127,0.032264,0.17912,0.21993,-2.0061,-0.81695
0.0088618,0.032051,0.011255,0.013199,-0.9177,-1.0089,-0.29215,-0.53462,0.023315,0.80897,0.97652,0.248,-0.003518,0.0010547,0.076099,0.38338,-0.029953,-0.7799,-0.60205,0.038271,0.1754,0.15582,-1.6732,-0.93139
0.0060268,0.031004,0.012789,0.011249,-0.93496,-0.94011,-0.15164,-0.57986,0.045378,0.95199,1.2237,0.28277,0.053334,0.063695,0.11739,0.44787,-0.039472,-0.84112,-0.73582,0.036047,0.1625,0.075786,-1.3502,-1.0436
0.0016426,0.02691,0.014936,0.008593,-0.95169,-0.8543,-0.048816,-0.62138,0.068007,1.1065,1.486,0.28144,0.11237,0.084413,0.15465,0.50626,-0.051807,-0.87679,-0.86555,0.023165,0.13846,0.013334,-1.0685,-1.178
-0.0020617,0.01975,0.016282,0.0062895,-0.96901,-0.77887,0.006893,-0.66937,0.082576,1.2417,1.7167,0.24535,0.15612,0.047534,0.1782,0.55008,-0.063762,-0.91964,-1.0008,0.00023764,0.10472,-0.025975,-0.82861,-1.3504
-0.0043077,0.011322,0.015811,0.0051283,-0.98632,-0.72884,0.0032105,-0.72919,0.079123,1.2965,1.8593,0.17335,0.1776,-0.03871,0.18941,0.57865,-0.073481,-0.9885,-1.158,-0.029635,0.06614,-0.06468,-0.60916,-1.5607
-0.0058981,0.0048787,0.013737,0.004682,-1.0006,-0.70941,-0.065218,-0.79834,0.052011,1.2235,1.8714,0.064091,0.18247,-0.14706,0.1987,0.59968,-0.081242,-1.0827,-1.344,-0.062542,0.028661,-0.13014,-0.3864,-1.7854
-0.0077494,0.0032053,0.011203,0.0036718,-1.0075,-0.72275,-0.18074,-0.86778,0.0045094,1.0317,1.7495,-0.074064,0.1817,-0.24526,0.21595,0.62415,-0.088174,-1.1934,-1.5403,-0.095016,-0.0036902,-0.22507,-0.15112,-1.9743
-0.0094847,0.0064513,0.0092795,0.0012201,-1.0042,-0.77183,-0.29527,-0.92602,-0.051466,0.79038,1.5371,-0.21592,0.18407,-0.3104,0.24108,0.65863,-0.09427,-1.3164,-1.6973,-0.12367,-0.029703,-0.31477,0.086362,-2.0608
-0.0095894,0.011618,0.0083317,-0.0022833,-0.99269,-0.85783,-0.34263,-0.96358,-0.10123,0.59019,1.3077,-0.32514,0.1954,-0.33602,0.26242,0.70025,-0.097695,-1.4522,-1.7481,-0.1438,-0.049253,-0.34183,0.30593,-1.9858
-0.0069615,0.014454,0.0082453,-0.0055277,-0.9791,-0.97447,-0.26717,-0.97592,-0.1353,0.48715,1.1302,-0.37265,0.22151,-0.33083,0.26428,0.73723,-0.096097,-1.5892,-1.6379,-0.1491,-0.060993,-0.25944,0.49605,-1.726
-0.0022481,0.012497,0.0090327,-0.0074289,-0.96868,-1.1054,-0.052553,-0.96432,-0.15396,0.47253,1.0395,-0.35589,0.26661,-0.31281,0.23766,0.75454,-0.088661,-1.6865,-1.3595,-0.13422,-0.062205,-0.06181,0.66818,-1.3086
0.0024088,0.006862,0.010969,-0.0079108,-0.95842,-1.2286,0.2675,-0.93488,-0.16514,0.48807,1.0288,-0.30324,0.32477,-0.30294,0.18595,0.74066,-0.076879,-1.6778,-0.96936,-0.099426,-0.051376,0.20693,0.85439,-0.80208
0.0049826,0.001251,0.014059,-0.007607,-0.93465,-1.3265,0.62308,-0.89641,-0.17722,0.47197,1.0651,-0.25799,0.37262,-0.31917,0.12176,0.69135,-0.063147,-1.5009,-0.56943,-0.053482,-0.031222,0.4693,1.085,-0.28673
0.0049842,-0.0010274,0.017505,-0.0069269,-0.88047,-1.3935,0.93793,-0.85821,-0.19263,0.39982,1.1102,-0.25083,0.37528,-0.36985,0.05798,0.60919,-0.048352,-1.1366,-0.25808,-0.011191,-0.0091724,0.64611,1.359,0.17658
0.0034284,0.00046362,0.019932,-0.0055897,-0.78983,-1.4373,1.1574,-0.82821,-0.20668,0.29348,1.1351,-0.27948,0.30768,-0.44769,2.7098e-005,0.50105,-0.030655,-0.62739,-0.07872,0.014476,0.0055223,0.6869,1.6287,0.56342
0.0015755,0.0033282,0.020314,-0.0031846,-0.67812,-1.471,1.2603,-0.81166,-0.21226,0.19876,1.1217,-0.30929,0.1778,-0.52884,-0.055148,0.37669,-0.0067591,-0.061244,-0.00034176,0.020743,0.0059347,0.58684,1.8133,0.88266
-0.00016595,0.0046629,0.018743,-0.00013226,-0.57896,-1.5041,1.2532,-0.80997,-0.20577,0.15491,1.0633,-0.29399,0.031687,-0.58098,-0.11337,0.24981,0.025155,0.4714,0.056099,0.017313,-0.010118,0.38538,1.8357,1.1597
-0.0021095,0.0034809,0.016301,0.0021355,-0.52625,-1.5372,1.1567,-0.82002,-0.18967,0.17746,0.96709,-0.20244,-0.068722,-0.57836,-0.17551,0.13892,0.063131,0.91664,0.16462,0.019891,-0.040487,0.14892,1.658,1.4174
-0.0042469,0.0011607,0.014164,0.0022372,-0.53319,-1.5644,0.9964,-0.83465,-0.17032,0.25877,0.85503,-0.034368,-0.082413,-0.51533,-0.23334,0.064417,0.1017,1.2687,0.35299,0.039096,-0.08045,-0.055011,1.2955,1.6634
-0.005589,-0.00019761,0.012827,0.00026522,-0.58378,-1.5801,0.80122,-0.84493,-0.15395,0.37501,0.75302,0.18215,-0.014669,-0.40907,-0.27156,0.040603,0.13461,1.5519,0.60063,0.073053,-0.12357,-0.18175,0.80639,1.8857
-0.0047839,0.0002295,0.012096,-0.0018817,-0.64372,-1.5835,0.60324,-0.84379,-0.14458,0.48922,0.66815,0.40591,0.087862,-0.28955,-0.2747,0.06654,0.15812,1.7917,0.87046,0.10937,-0.16117,-0.22166,0.27349,2.0583
-0.0015405,0.0014539,0.01167,-0.0018216,-0.68292,-1.5786,0.43169,-0.82925,-0.1447,0.553,0.57134,0.59879,0.16831,-0.18406,-0.23499,0.12239,0.17247,1.9962,1.1431,0.13473,-0.18213,-0.19521,-0.20957,2.1548
0.0025612,0.0018488,0.011552,0.0013479,-0.69219,-1.5702,0.30156,-0.80536,-0.15634,0.51731,0.40515,0.73487,0.19318,-0.10724,-0.15724,0.17554,0.18063,2.1542,1.4241,0.14426,-0.17521,-0.13509,-0.55098,2.1633
0.0048588,0.00071655,0.011855,0.0062032,-0.68238,-1.5595,0.20744,-0.78004,-0.18004,0.3556,0.11937,0.80283,0.16466,-0.061602,-0.058227,0.19464,0.18534,2.2428,1.721,0.143,-0.13392,-0.06703,-0.68665,2.095
0.0035336,-0.0011878,0.012294,0.010123,-0.66868,-1.5422,0.13141,-0.76125,-0.2119,0.086613,-0.28855,0.80644,0.10656,-0.044495,0.039525,0.16369,0.1866,2.2354,2.0143,0.1392,-0.061104,-0.00093414,-0.61857,1.9751
-0.00090918,-0.002436,0.012047,0.01147,-0.65538,-1.5095,0.06157,-0.75362,-0.24217,-0.22319,-0.76,0.7652,0.039282,-0.052901,0.11689,0.088456,0.18128,2.11,2.251,0.13561,0.030515,0.064206,-0.4377,1.8234
-0.0059147,-0.0020893,0.010275,0.010903,-0.63426,-1.4514,0.0053553,-0.75736,-0.25814,-0.48607,-1.202,0.71184,-0.03506,-0.081659,0.16577,-0.0083061,0.16536,1.8617,2.37,0.12679,0.12305,0.12897,-0.29516,1.6381
-0.0087524,-0.00021394,0.0069265,0.010656,-0.59664,-1.3604,-0.016316,-0.76979,-0.25051,-0.63411,-1.5357,0.68195,-0.12868,-0.11901,0.19073,-0.099376,0.13724,1.5179,2.3407,0.10466,0.20123,0.187,-0.31796,1.4034
-0.0084479,0.0024583,0.0031191,0.012434,-0.54627,-1.2342,0.0089537,-0.78773,-0.21873,-0.64745,-1.7325,0.69765,-0.25304,-0.14721,0.20313,-0.16614,0.10015,1.1417,2.1886,0.067323,0.25848,0.22872,-0.51792,1.1184
-0.0061826,0.0051461,0.00069939,0.01585,-0.49984,-1.076,0.06623,-0.80904,-0.17102,-0.5513,-1.8142,0.75492,-0.40716,-0.15141,0.2114,-0.20571,0.0618,0.81309,1.9874,0.023111,0.2973,0.25058,-0.76616,0.82454
-0.0039249,0.007295,0.00117,0.018816,-0.4741,-0.89046,0.11657,-0.83202,-0.11895,-0.38845,-1.8245,0.82509,-0.57664,-0.13124,0.21391,-0.22918,0.03099,0.59266,1.8233,-0.013802,0.32443,0.2599,-0.86761,0.60127
-0.0026127,0.008457,0.0046326,0.019541,-0.47163,-0.67929,0.12235,-0.85317,-0.070759,-0.19258,-1.8004,0.87243,-0.73964,-0.1049,0.1998,-0.2529,0.013329,0.48941,1.7501,-0.032733,0.34418,0.26966,-0.69257,0.5242
-0.00156,0.0081886,0.009437,0.018305,-0.47846,-0.43948,0.074089,-0.86489,-0.028669,0.016718,-1.7629,0.87676,-0.87228,-0.099938,0.15753,-0.28734,0.0087277,0.46007,1.7602,-0.033082,0.35524,0.28768,-0.26998,0.61212
0.00044407,0.0063137,0.012876,0.017381,-0.47555,-0.1687,-0.0042893,-0.85496,0.0086558,0.2196,-1.7262,0.84499,-0.95152,-0.13542,0.08516,-0.32971,0.012677,0.44362,1.7869,-0.022964,0.35293,0.30936,0.22928,0.80593
0.0035147,0.0034082,0.012658,0.019096,-0.453,0.1252,-0.07593,-0.80937,0.041574,0.38366,-1.7069,0.80347,-0.9595,-0.20771,-0.0053887,-0.36438,0.020432,0.40859,1.7363,-0.011507,0.33491,0.32042,0.60497,1
0.0062328,0.00097145,0.0083302,0.023719,-0.41394,0.41765,-0.11908,-0.7181,0.067536,0.47202,-1.7177,0.77766,-0.8922,-0.29036,-0.09331,-0.3713,0.03087,0.37794,1.5331,-0.001686,0.30537,0.30637,0.74645,1.104
0.0069396,0.00084997,0.0016941,0.029015,-0.36554,0.67033,-0.13922,-0.58196,0.083396,0.46773,-1.7524,0.77556,-0.76702,-0.34834,-0.1599,-0.33785,0.046753,0.41123,1.159,0.010246,0.27395,0.26035,0.66885,1.0868
0.0055444,0.0040778,-0.0041708,0.031913,-0.30778,0.84272,-0.15794,-0.41683,0.089273,0.39133,-1.7786,0.7872,-0.6196,-0.35608,-0.19775,-0.26692,0.070932,0.5555,0.66247,0.028694,0.2499,0.18407,0.45339,0.97256
0.0039601,0.009924,-0.0067224,0.030898,-0.23237,0.9048,-0.19238,-0.25124,0.089742,0.29193,-1.7495,0.79803,-0.4866,-0.30643,-0.21189,-0.17572,0.10153,0.79949,0.13758,0.051868,0.23568,0.083941,0.16073,0.7981
0.0044951,0.016023,-0.0053874,0.027143,-0.13437,0.84425,-0.24494,-0.11616,0.090797,0.21607,-1.6313,0.80253,-0.38394,-0.20616,-0.21281,-0.085707,0.13033,1.0646,-0.31586,0.070606,0.22546,-0.030535,-0.1994,0.57746
0.007575,0.019764,-0.0016376,0.023491,-0.025234,0.66922,-0.30933,-0.030719,0.095246,0.1795,-1.4238,0.80558,-0.29775,-0.065416,-0.20755,-0.0097657,0.14611,1.2405,-0.62946,0.074162,0.20963,-0.14362,-0.62132,0.30438
0.011046,0.020065,0.0022513,0.022221,0.066479,0.41256,-0.38124,0.0075845,0.10088,0.16506,-1.1608,0.81126,-0.19729,0.10684,-0.19603,0.054723,0.14092,1.2429,-0.78294,0.058043,0.18229,-0.23056,-1.0358,-0.013872
0.011991,0.018181,0.0047555,0.023517,0.11004,0.1378,-0.45871,0.020554,0.10318,0.14617,-0.88877,0.81078,-0.061518,0.29633,-0.17509,0.12201,0.1145,1.0581,-0.79857,0.027221,0.14572,-0.26333,-1.2992,-0.33085
0.0095621,0.016797,0.0058237,0.025781,0.092348,-0.064161,-0.53141,0.03464,0.10002,0.11271,-0.63958,0.78168,0.1014,0.47413,-0.14575,0.20578,0.073929,0.74928,-0.72319,-0.0077519,0.10883,-0.22619,-1.2622,-0.57506
0.0061137,0.018035,0.0063772,0.027277,0.026891,-0.10133,-0.57336,0.063328,0.09398,0.075949,-0.41656,0.69978,0.25735,0.59844,-0.11623,0.30709,0.029091,0.42383,-0.60992,-0.038082,0.081236,-0.13108,-0.86991,-0.69635
0.0053002,0.021918,0.0071991,0.027518,-0.054864,0.07305,-0.55264,0.099793,0.090135,0.050359,-0.20159,0.5539,0.36933,0.63245,-0.097299,0.41076,-0.012475,0.18289,-0.50442,-0.061247,0.067797,-0.018627,-0.21309,-0.70497
0.0086662,0.026482,0.0082256,0.027255,-0.12171,0.4217,-0.4545,0.1263,0.091576,0.032938,0.023517,0.3521,0.42058,0.56762,-0.093604,0.49292,-0.04769,0.080638,-0.43464,-0.079492,0.067573,0.060552,0.50658,-0.66851
0.013893,0.02936,0.0087873,0.027343,-0.15595,0.82827,-0.29753,0.13361,0.09696,0.0020224,0.25828,0.11637,0.41927,0.43289,-0.098954,0.53424,-0.076324,0.11047,-0.40392,-0.09463,0.076866,0.074053,1.0738,-0.66776
0.016545,0.029463,0.0084572,0.027766,-0.15338,1.1574,-0.12547,0.13446,0.10214,-0.062414,0.48107,-0.12738,0.38276,0.27975,-0.10024,0.53007,-0.097845,0.22003,-0.39152,-0.10436,0.092736,0.025618,1.3573,-0.74595
0.01391,0.027451,0.0076329,0.027709,-0.11466,1.3368,0.021575,0.15861,0.10383,-0.15698,0.66385,-0.35605,0.31823,0.15307,-0.087012,0.4912,-0.10976,0.34365,-0.36477,-0.10329,0.11372,-0.050074,1.3575,-0.88822
0.0074574,0.02485,0.007259,0.026468,-0.039624,1.4005,0.1331,0.23104,0.10149,-0.25383,0.79176,-0.55109,0.2183,0.070039,-0.058516,0.43609,-0.10883,0.43442,-0.29906,-0.087282,0.13771,-0.11111,1.1916,-1.0406
0.0015638,0.022756,0.0079343,0.024152,0.069181,1.4554,0.22875,0.3492,0.095712,-0.32287,0.87232,-0.6996,0.075895,0.022528,-0.022375,0.38065,-0.094079,0.4796,-0.19379,-0.057216,0.15988,-0.13206,1.0304,-1.1478
-0.00034874,0.021243,0.0092842,0.02154,0.19875,1.5895,0.33322,0.47693,0.08544,-0.35684,0.92852,-0.79788,-0.096258,-0.0027387,0.013192,0.33192,-0.068934,0.49258,-0.072941,-0.019154,0.17328,-0.11115,1.0132,-1.1812
0.0013016,0.019702,0.010289,0.019317,0.32438,1.7932,0.44833,0.56094,0.06771,-0.37535,0.98351,-0.8541,-0.26075,-0.0070771,0.045723,0.28816,-0.040629,0.48854,0.029694,0.018473,0.17211,-0.060109,1.174,-1.1425
0.0030107,0.01755,0.010356,0.01751,0.41976,1.9577,0.54766,0.55909,0.04094,-0.40342,1.0507,-0.88396,-0.37162,0.018259,0.077228,0.24277,-0.017013,0.46256,0.089115,0.048221,0.15487,0.009833,1.4137,-1.0509
0.0017654,0.014633,0.010106,0.015557,0.47161,1.9564,0.5986,0.4615,0.0087687,-0.44448,1.1352,-0.89913,-0.39947,0.075234,0.10684,0.18884,-0.0029262,0.38827,0.097631,0.06552,0.12501,0.091477,1.5479,-0.92965
-0.0020253,0.011154,0.010975,0.012798,0.48642,1.745,0.59185,0.29173,-0.019793,-0.47378,1.2389,-0.89756,-0.34584,0.14672,0.12556,0.12229,0.001377,0.23974,0.059778,0.068969,0.08857,0.17401,1.4183,-0.79951
-0.0050039,0.0074408,0.013771,0.0088717,0.48329,1.3994,0.55243,0.090116,-0.035022,-0.45973,1.3586,-0.86646,-0.23744,0.20374,0.11989,0.043544,-0.0012224,0.019587,-0.017912,0.059886,0.051165,0.23641,1.0089,-0.67831
-0.004162,0.0038179,0.017426,0.0038117,0.4793,1.0626,0.52235,-0.10673,-0.032534,-0.39444,1.4746,-0.79844,-0.10744,0.22732,0.082827,-0.041922,-0.0078265,-0.23146,-0.13107,0.041547,0.016674,0.25383,0.48412,-0.57873
0.00027912,0.00058338,0.019254,-0.0019906,0.48023,0.84528,0.52997,-0.27662,-0.015743,-0.30505,1.5433,-0.70769,0.020026,0.22435,0.022859,-0.12486,-0.017764,-0.45501,-0.27292,0.017901,-0.011951,0.21502,0.1058,-0.50334
0.0050976,-0.0020314,0.016826,-0.0077749,0.48362,0.75952,0.5708,-0.409,0.0072733,-0.23453,1.5098,-0.62919,0.13225,0.22098,-0.0382,-0.19561,-0.032243,-0.61223,-0.42891,-0.0080132,-0.031525,0.13527,0.068151,-0.44235
0.0070066,-0.0038903,0.010066,-0.012507,0.48905,0.73537,0.61376,-0.49672,0.029721,-0.20749,1.3418,-0.5966,0.22114,0.23766,-0.078509,-0.24788,-0.051931,-0.70894,-0.57947,-0.034904,-0.039273,0.050422,0.35951,-0.38024
0.0053922,-0.0048799,0.0017664,-0.015313,0.50404,0.69647,0.62508,-0.53284,0.049926,-0.21063,1.0629,-0.61418,0.27841,0.26774,-0.090833,-0.2803,-0.074723,-0.7882,-0.71082,-0.062338,-0.035444,-0.0062677,0.75397,-0.30986
0.0024038,-0.0048112,-0.004152,-0.016115,0.53907,0.62651,0.59033,-0.5162,0.070455,-0.20424,0.75653,-0.64604,0.29917,0.27918,-0.086718,-0.29485,-0.095777,-0.89542,-0.82319,-0.088682,-0.025555,-0.02609,0.95077,-0.24361
0.00067158,-0.0035313,-0.0053762,-0.015889,0.59646,0.5727,0.51948,-0.4595,0.094228,-0.15406,0.52834,-0.63539,0.28962,0.23914,-0.086607,-0.29437,-0.10994,-1.043,-0.9266,-0.1099,-0.01924,-0.02688,0.77176,-0.21038
0.0010735,-0.001297,-0.0027649,-0.01608,0.66431,0.59098,0.43602,-0.38947,0.12155,-0.0563,0.44661,-0.54245,0.26909,0.14113,-0.10372,-0.28287,-0.11469,-1.2009,-1.0262,-0.12095,-0.025045,-0.033078,0.27913,-0.23629
0.0025342,0.00095018,0.00056146,-0.017474,0.72209,0.68597,0.36185,-0.33517,0.15027,0.063426,0.50113,-0.37363,0.26204,0.012416,-0.13437,-0.2689,-0.11138,-1.3182,-1.1113,-0.1192,-0.044156,-0.051662,-0.27003,-0.32143
0.0035753,0.0018912,0.0018411,-0.01952,0.75376,0.79726,0.30891,-0.31093,0.17772,0.17201,0.61018,-0.17974,0.28543,-0.10404,-0.1618,-0.26763,-0.10392,-1.3573,-1.1602,-0.10712,-0.068021,-0.065786,-0.59791,-0.43109
0.0037349,0.00071869,0.00080587,-0.020842,0.75861,0.83911,0.27955,-0.30618,0.20152,0.24972,0.67217,-0.024064,0.34088,-0.1782,-0.16967,-0.29693,-0.096147,-1.3168,-1.1594,-0.091447,-0.082756,-0.052109,-0.58065,-0.51115
0.0035193,-0.0020856,-0.00041076,-0.020637,0.75263,0.75655,0.27048,-0.29099,0.21825,0.29299,0.62671,0.056304,0.4166,-0.21026,-0.15425,-0.36734,-0.089794,-1.2286,-1.1195,-0.078986,-0.078187,-0.006105,-0.29994,-0.51964
0.0033458,-0.0049242,0.00059111,-0.019623,0.76151,0.55371,0.27546,-0.23434,0.22208,0.30262,0.48461,0.068305,0.49513,-0.22539,-0.12677,-0.47331,-0.084291,-1.1371,-1.0708,-0.072024,-0.055278,0.048151,0.052997,-0.45256
0.0029035,-0.0062997,0.0041964,-0.019499,0.81101,0.28082,0.28643,-0.12318,0.20622,0.27455,0.3106,0.049614,0.55952,-0.25314,-0.10595,-0.5938,-0.078014,-1.0769,-1.0405,-0.067119,-0.026149,0.073739,0.33242,-0.34565
0.0016184,-0.0061307,0.0082804,-0.021268,0.91867,0.00099704,0.2957,0.029736,0.16738,0.20519,0.17574,0.037759,0.59509,-0.30758,-0.10728,-0.70354,-0.06971,-1.0607,-1.0311,-0.058388,-0.0061333,0.049611,0.52687,-0.25076
-0.0004703,-0.0059283,0.0098519,-0.023985,1.0867,-0.2332,0.29985,0.1927,0.1098,0.10445,0.11396,0.046219,0.59031,-0.38049,-0.13654,-0.78704,-0.059192,-1.0798,-1.0209,-0.042836,-0.0035295,-0.011912,0.72213,-0.20459
-0.0025089,-0.0074808,0.0074037,-0.025267,1.2958,-0.38316,0.3028,0.32988,0.045093,-0.0010093,0.10842,0.062755,0.54148,-0.44763,-0.18926,-0.84412,-0.04732,-1.1128,-0.98795,-0.023587,-0.014661,-0.073521,0.98761,-0.21142
-0.0034913,-0.011075,0.0020369,-0.023289,1.5049,-0.42057,0.31457,0.41395,-0.012939,-0.082953,0.10925,0.065488,0.46001,-0.48054,-0.25386,-0.88283,-0.03578,-1.1348,-0.93721,-0.0085412,-0.027907,-0.10001,1.2935,-0.24897
-0.0029926,-0.014877,-0.0034706,-0.018482,1.661,-0.33291,0.34527,0.43113,-0.054735,-0.13344,0.065008,0.039615,0.37464,-0.45693,-0.31527,-0.90643,-0.026903,-1.125,-0.90433,-0.0055536,-0.033379,-0.082055,1.5277,-0.28859
-0.0012606,-0.016215,-0.0067807,-0.013347,1.7212,-0.13753,0.39772,0.38055,-0.078191,-0.1719,-0.052884,-0.018184,0.32198,-0.36827,-0.35841,-0.90624,-0.023203,-1.071,-0.93057,-0.017701,-0.030608,-0.038764,1.5886,-0.31218
0.0011575,-0.013841,-0.0075331,-0.0105,1.6742,0.11197,0.46351,0.27273,-0.086958,-0.22753,-0.24284,-0.10622,0.32781,-0.22486,-0.37249,-0.86671,-0.026328,-0.97114,-1.0277,-0.041777,-0.028328,0.00042116,1.4637,-0.31502
0.0036037,-0.0092183,-0.0071345,-0.010694,1.5468,0.3405,0.52522,0.12877,-0.086297,-0.3111,-0.48033,-0.22394,0.3912,-0.056589,-0.35558,-0.77857,-0.035773,-0.83338,-1.1614,-0.070453,-0.036847,0.017929,1.2257,-0.29757
0.0051762,-0.0056047,-0.0071527,-0.012569,1.3886,0.48214,0.56355,-0.022666,-0.080232,-0.40187,-0.73074,-0.36987,0.48367,0.094284,-0.31641,-0.64873,-0.048328,-0.67214,-1.2658,-0.09598,-0.05928,0.01686,0.95789,-0.25786
0.0048682,-0.0055113,-0.0078216,-0.01421,1.2421,0.50624,0.56519,-0.15379,-0.071534,-0.46321,-0.96044,-0.53504,0.56548,0.18829,-0.27094,-0.49893,-0.059004,-0.50325,-1.2782,-0.11287,-0.088533,0.012151,0.67947,-0.19242
0.0023727,-0.0086004,-0.0079749,-0.014983,1.1203,0.4221,0.52718,-0.24914,-0.062901,-0.47365,-1.1429,-0.70132,0.60779,0.20488,-0.23452,-0.35451,-0.063152,-0.33862,-1.1677,-0.11859,-0.11211,0.014573,0.33846,-0.10348
-0.0010954,-0.011816,-0.0063985,-0.015938,1.0063,0.263,0.4557,-0.31257,-0.056978,-0.44483,-1.2607,-0.84907,0.60471,0.14934,-0.21458,-0.23172,-0.058479,-0.18165,-0.94342,-0.11302,-0.12071,0.021983,-0.12878,-0.0041573
-0.0031672,-0.011743,-0.0032965,-0.018563,0.87334,0.064642,0.36085,-0.3633,-0.054875,-0.40901,-1.3063,-0.96742,0.56752,0.045789,-0.20883,-0.13229,-0.045648,-0.024578,-0.64305,-0.098051,-0.11393,0.023764,-0.72982,0.083579
-0.0021382,-0.0073498,-0.00045967,-0.023145,0.70905,-0.14752,0.2511,-0.42201,-0.055092,-0.38703,-1.282,-1.0563,0.50735,-0.07774,-0.20965,-0.046995,-0.027209,0.15061,-0.31664,-0.077449,-0.099552,0.012299,-1.3999,0.13608
0.0011993,-0.00089769,0.00010583,-0.028264,0.52411,-0.35989,0.13086,-0.49641,-0.054646,-0.36689,-1.2012,-1.1177,0.42185,-0.20026,-0.2101,0.036383,-0.0058188,0.36649,-0.016125,-0.0562,-0.087732,-0.0097431,-2.0456,0.13458
0.0036833,0.0037067,-0.0020689,-0.031775,0.34271,-0.56735,0.0023361,-0.57626,-0.051773,-0.31408,-1.0852,-1.1454,0.29741,-0.30702,-0.20632,0.12687,0.016935,0.64034,0.2105,-0.038722,-0.085107,-0.032326,-2.6049,0.068397
0.0022692,0.0038013,-0.0053367,-0.032331,0.18571,-0.7698,-0.13024,-0.64115,-0.047593,-0.20596,-0.95722,-1.1246,0.12459,-0.38098,-0.1949,0.22861,0.040518,0.97303,0.32661,-0.026641,-0.092508,-0.047368,-3.0724,-0.062765
-0.003102,-0.00020089,-0.0071144,-0.030215,0.061341,-0.96701,-0.25762,-0.67437,-0.044912,-0.059583,-0.83413,-1.0451,-0.087042,-0.39834,-0.16983,0.34169,0.064745,1.3412,0.31759,-0.017832,-0.10633,-0.055294,-3.4745,-0.24496
-0.0089868,-0.0054276,-0.0059049,-0.026997,-0.031255,-1.1497,-0.3664,-0.67249,-0.045169,0.072977,-0.72195,-0.91524,-0.30919,-0.33703,-0.12406,0.46235,0.089266,1.6976,0.19825,-0.0079191,-0.12102,-0.062844,-3.8219,-0.44636
-0.011106,-0.0089639,-0.0024858,-0.024527,-0.093424,-1.2921,-0.4439,-0.64444,-0.04659,0.13945,-0.6192,-0.76462,-0.51187,-0.19431,-0.056368,0.58158,0.11355,1.9813,0.0097518,0.0065177,-0.13057,-0.074486,-4.0793,-0.61961
-0.0080735,-0.0099879,0.00076157,-0.024066,-0.12349,-1.3554,-0.48408,-0.60276,-0.045526,0.12369,-0.52568,-0.62984,-0.68405,0.00070681,0.022566,0.68483,0.13689,2.1366,-0.19434,0.025308,-0.1293,-0.085603,-4.1731,-0.7136
-0.0028772,-0.0099008,0.0018737,-0.025967,-0.12101,-1.3084,-0.49069,-0.55476,-0.039814,0.054171,-0.44911,-0.53499,-0.83992,0.19271,0.091671,0.75599,0.15787,2.1331,-0.36521,0.044711,-0.1131,-0.083985,-4.0271,-0.69141
-0.00061666,-0.010542,0.0010064,-0.02979,-0.092129,-1.1527,-0.47526,-0.4997,-0.030871,-0.02072,-0.40306,-0.4818,-1.0033,0.32407,0.12982,0.7855,0.17359,1.977,-0.47052,0.060092,-0.081342,-0.058773,-3.6026,-0.54551
-0.0042816,-0.012251,0.00035537,-0.034596,-0.048711,-0.93458,-0.45089,-0.43172,-0.022509,-0.068423,-0.3978,-0.45585,-1.1811,0.36255,0.12797,0.77755,0.17971,1.7081,-0.49812,0.069143,-0.037843,-0.0094217,-2.9243,-0.30255
-0.012125,-0.013589,0.0022902,-0.039312,-0.0014407,-0.72795,-0.42569,-0.34447,-0.017702,-0.090622,-0.43178,-0.44158,-1.3469,0.31495,0.093651,0.74995,0.17214,1.3812,-0.45452,0.073124,0.010342,0.05283,-2.0798,-0.015942
-0.018889,-0.012951,0.0072075,-0.043174,0.045672,-0.59587,-0.40005,-0.2337,-0.016555,-0.11311,-0.49038,-0.43286,-1.4497,0.21857,0.044126,0.72438,0.14979,1.0453,-0.36086,0.075375,0.055646,0.11207,-1.194,0.24944
-0.019917,-0.010512,0.012902,-0.04611,0.093028,-0.55354,-0.36938,-0.098644,-0.017366,-0.15989,-0.55086,-0.43234,-1.4441,0.11845,-0.0059778,0.71234,0.11642,0.72971,-0.24573,0.078601,0.091776,0.15724,-0.38481,0.43453
-0.014823,-0.0086102,0.016042,-0.048773,0.13726,-0.55931,-0.33047,0.055446,-0.019369,-0.23414,-0.58765,-0.4437,-1.32,0.046696,-0.052569,0.70698,0.079775,0.44569,-0.13441,0.083239,0.11325,0.18613,0.28047,0.5004
-0.0077993,-0.010036,0.014611,-0.052028,0.1656,-0.54164,-0.28732,0.21385,-0.024021,-0.3184,-0.57553,-0.466,-1.1109,0.016057,-0.099661,0.68781,0.047872,0.19628,-0.038509,0.087846,0.11432,0.20098,0.80421,0.43745
-0.0043666,-0.015631,0.0093858,-0.056115,0.15958,-0.44591,-0.25267,0.35197,-0.033298,-0.38923,-0.49476,-0.49477,-0.87662,0.026753,-0.14996,0.63578,0.024732,-0.016177,0.046146,0.090464,0.090079,0.20063,1.2408,0.2679
-0.0071466,-0.023267,0.0033165,-0.060135,0.10642,-0.27163,-0.24411,0.44209,-0.046701,-0.43192,-0.34289,-0.52635,-0.6715,0.076094,-0.19751,0.54782,0.0084038,-0.19236,0.1298,0.089216,0.040511,0.17698,1.6535,0.040074
-0.0139,-0.029177,-0.00065313,-0.062376,0.0096865,-0.076699,-0.27565,0.46634,-0.060198,-0.44547,-0.1478,-0.55932,-0.52199,0.16113,-0.2292,0.43909,-0.0073132,-0.34356,0.21423,0.081645,-0.026016,0.12,2.0757,-0.18542
-0.019251,-0.030634,-0.0015774,-0.061408,-0.10895,0.053989,-0.3485,0.42805,-0.068524,-0.4384,0.032407,-0.59096,-0.42431,0.27381,-0.23379,0.33113,-0.028715,-0.49309,0.28691,0.064203,-0.094214,0.027667,2.4998,-0.35541
-0.01872,-0.027842,-0.00081049,-0.057205,-0.21823,0.056368,-0.44544,0.35288,-0.06907,-0.42216,0.13285,-0.61334,-0.35914,0.39609,-0.21105,0.23502,-0.058483,-0.66437,0.33118,0.033598,-0.14894,-0.087527,2.8945,-0.44335
-0.01202,-0.023591,-0.0005188,-0.051422,-0.29103,-0.075958,-0.53339,0.27733,-0.064057,-0.40703,0.11901,-0.61453,-0.3089,0.50229,-0.17336,0.14349,-0.094602,-0.86151,0.34478,-0.0099923,-0.18282,-0.20143,3.2261,-0.45945
-0.0032422,-0.021057,-0.0017206,-0.046584,-0.316,-0.28537,-0.5754,0.23101,-0.0592,-0.40092,0.010878,-0.58545,-0.26539,0.56852,-0.13836,0.038687,-0.13183,-1.0576,0.34864,-0.0602,-0.19783,-0.2894,3.4661,-0.44543
0.0021202,-0.021581,-0.0034722,-0.044771,-0.3017,-0.47507,-0.54769,0.22399,-0.059942,-0.40832,-0.12832,-0.52658,-0.22611,0.58271,-0.11776,-0.090507,-0.16382,-1.203,0.37399,-0.10519,-0.19908,-0.33846,3.5866,-0.45394
0.0010363,-0.024148,-0.0038115,-0.046688,-0.27149,-0.54899,-0.45236,0.24619,-0.067997,-0.42839,-0.23444,-0.44761,-0.18707,0.54815,-0.11034,-0.23553,-0.18447,-1.2519,0.43516,-0.13277,-0.18659,-0.35227,3.5641,-0.52182
-0.0051132,-0.026766,-0.0015889,-0.051577,-0.25088,-0.44504,-0.31694,0.27754,-0.080313,-0.45353,-0.28409,-0.35956,-0.14027,0.47911,-0.10381,-0.37027,-0.18863,-1.1923,0.51095,-0.13723,-0.15343,-0.34583,3.3998,-0.65113
-0.011808,-0.028376,0.0024015,-0.057732,-0.2531,-0.14807,-0.17971,0.30062,-0.09074,-0.47005,-0.30234,-0.26557,-0.07823,0.39262,-0.08427,-0.46671,-0.17376,-1.0608,0.55364,-0.12344,-0.093007,-0.33338,3.1394,-0.80895
-0.01478,-0.029598,0.0059435,-0.063088,-0.27098,0.31703,-0.070068,0.30771,-0.09329,-0.46145,-0.33152,-0.15911,-0.00046605,0.3014,-0.046722,-0.51181,-0.14248,-0.93101,0.52332,-0.10456,-0.0092628,-0.31704,2.8624,-0.94638
-0.012921,-0.031736,0.0070704,-0.065693,-0.28214,0.90076,0.0027672,0.29989,-0.085443,-0.41327,-0.38905,-0.032074,0.084886,0.21069,0.0003951,-0.51319,-0.10401,-0.87999,0.42295,-0.094087,0.080361,-0.28361,2.6363,-1.0257
-0.0086289,-0.035097,0.0054116,-0.064212,-0.26624,1.5418,0.045446,0.28145,-0.07004,-0.31779,-0.45168,0.11296,0.16719,0.11923,0.040052,-0.49045,-0.071655,-0.94764,0.30684,-0.097077,0.15373,-0.21242,2.4621,-1.0399
-0.0055545,-0.038266,0.0021087,-0.058523,-0.22317,2.1737,0.066567,0.25531,-0.054561,-0.1773,-0.47896,0.25703,0.24311,0.023336,0.057649,-0.46054,-0.055995,-1.1105,0.25423,-0.10659,0.19853,-0.090986,2.2617,-1.0144
-0.0057049,-0.039093,-0.0014512,-0.050028,-0.17767,2.732,0.066842,0.22264,-0.047555,-0.0045982,-0.45413,0.37164,0.32221,-0.077663,0.050746,-0.42915,-0.058032,-1.2866,0.3256,-0.1084,0.22051,0.070644,1.924,-0.98965
-0.0081936,-0.03656,-0.004785,-0.041144,-0.16372,3.1651,0.042807,0.18572,-0.053691,0.1801,-0.40607,0.43468,0.42221,-0.17715,0.030707,-0.39346,-0.067883,-1.3736,0.531,-0.0912,0.23814,0.23716,1.3821,-0.99677
-0.010436,-0.031808,-0.0082847,-0.034011,-0.19837,3.4498,2.3156e-006,0.15081,-0.070475,0.35541,-0.39364,0.44391,0.55546,-0.26138,0.015019,-0.3516,-0.071376,-1.3038,0.8289,-0.055325,0.26747,0.36156,0.6626,-1.0385
-0.01056,-0.027361,-0.012192,-0.029239,-0.26495,3.5969,-0.038621,0.12787,-0.089315,0.50565,-0.46642,0.41799,0.71524,-0.31497,0.015617,-0.30889,-0.060475,-1.0846,1.1512,-0.013769,0.30929,0.40935,-0.12759,-1.0875
-0.0089335,-0.025192,-0.015765,-0.025735,-0.32103,3.6431,-0.039983,0.12642,-0.10092,0.62446,-0.63449,0.3836,0.87274,-0.32917,0.031335,-0.27518,-0.039578,-0.79849,1.4338,0.015742,0.34842,0.37865,-0.862,-1.1021
-0.0076081,-0.0253,-0.017598,-0.021838,-0.32704,3.6266,0.019811,0.1496,-0.10164,0.71271,-0.86892,0.35843,0.98916,-0.30747,0.049581,-0.25637,-0.022367,-0.55715,1.6342,0.022207,0.365,0.30225,-1.4504,-1.0519
-0.0083366,-0.025964,-0.016897,-0.016875,-0.27476,3.565,0.14015,0.19001,-0.096115,0.77232,-1.1272,0.3422,1.0369,-0.26489,0.055767,-0.24841,-0.021259,-0.43796,1.7324,0.0084781,0.34829,0.22859,-1.8507,-0.93662
-0.010948,-0.025305,-0.014459,-0.011807,-0.19289,3.4496,0.29843,0.23064,-0.094112,0.80075,-1.3777,0.32211,1.0161,-0.22129,0.043779,-0.23978,-0.037656,-0.44197,1.7248,-0.010784,0.3028,0.19376,-2.0441,-0.78801
-0.013435,-0.02272,-0.012359,-0.0083728,-0.12548,3.2602,0.46829,0.25179,-0.10344,0.79091,-1.6031,0.28732,0.955,-0.19271,0.020398,-0.2206,-0.060617,-0.50051,1.622,-0.018618,0.24351,0.20304,-2.0161,-0.65091
-0.01357,-0.019076,-0.01247,-0.0074606,-0.099803,2.9874,0.63661,0.24113,-0.12383,0.73662,-1.7853,0.24066,0.89316,-0.18504,0.0010475,-0.19059,-0.074814,-0.52342,1.452,-0.0060468,0.18586,0.23318,-1.7708,-0.55755
-0.010641,-0.0158,-0.01508,-0.0081324,-0.10922,2.6463,0.80309,0.20154,-0.14592,0.63883,-1.8926,0.19791,0.85717,-0.19253,8.455e-005,-0.15928,-0.071429,-0.45559,1.2577,0.023427,0.13837,0.25139,-1.3644,-0.5109
-0.005915,-0.013876,-0.01883,-0.0081657,-0.12327,2.2699,0.96277,0.15115,-0.15569,0.50754,-1.8876,0.17531,0.84483,-0.20098,0.022073,-0.13854,-0.05385,-0.30575,1.0829,0.057061,0.10215,0.23548,-0.91096,-0.48816
-0.0016123,-0.013519,-0.022014,-0.0056841,-0.11546,1.8913,1.0899,0.1142,-0.14156,0.35816,-1.7518,0.17514,0.8268,-0.19488,0.059297,-0.13381,-0.034683,-0.13457,0.94903,0.080502,0.075001,0.18177,-0.53633,-0.45972
0.00064018,-0.014448,-0.024039,-0.00053249,-0.085559,1.5276,1.142,0.10721,-0.099814,0.20679,-1.5055,0.1812,0.76476,-0.16651,0.096332,-0.14109,-0.027202,-0.01559,0.84083,0.084542,0.055427,0.099689,-0.30546,-0.40892
0.00066543,-0.016162,-0.025676,0.0056965,-0.059346,1.175,1.0858,0.12898,-0.035899,0.069569,-1.2015,0.16862,0.63478,-0.12331,0.11817,-0.15156,-0.037615,0.004832,0.71384,0.06777,0.043399,0.0028955,-0.18493,-0.33904
-0.00055981,-0.017968,-0.027905,0.010939,-0.067764,0.81709,0.92474,0.16169,0.038357,-0.034255,-0.89654,0.12177,0.44307,-0.088559,0.11684,-0.15927,-0.062629,-0.071469,0.52317,0.035444,0.038516,-0.093837,-0.077762,-0.26576
-0.0018372,-0.01904,-0.030573,0.014179,-0.12317,0.43545,0.70271,0.18315,0.10981,-0.081686,-0.62109,0.047429,0.22601,-0.0922,0.093413,-0.16551,-0.092363,-0.19813,0.25328,-0.0032803,0.037951,-0.17204,0.093163,-0.20415
-0.0024389,-0.018788,-0.032336,0.016061,-0.21085,0.019331,0.47874,0.18204,0.16879,-0.054456,-0.37314,-0.026527,0.035264,-0.1541,0.055943,-0.17614,-0.11565,-0.3072,-0.074385,-0.038214,0.035906,-0.20968,0.32187,-0.16096
-0.0021175,-0.017264,-0.032106,0.018271,-0.30038,-0.42832,0.28971,0.16487,0.21177,0.045193,-0.13771,-0.066938,-0.084351,-0.26841,0.015846,-0.19457,-0.12468,-0.34085,-0.42197,-0.061039,0.024802,-0.19002,0.52912,-0.13529
-0.00069557,-0.015047,-0.030563,0.022263,-0.36588,-0.88776,0.13081,0.14923,0.24086,0.18309,0.086806,-0.055478,-0.11456,-0.39951,-0.014851,-0.21595,-0.11762,-0.27924,-0.76619,-0.068339,-0.0023768,-0.11451,0.63435,-0.12306
0.0021793,-0.012532,-0.030011,0.028278,-0.39941,-1.3238,-0.03113,0.14887,0.26082,0.29948,0.27971,-5.7649e-006,-0.072645,-0.49479,-0.025425,-0.22754,-0.098868,-0.1505,-1.112,-0.063581,-0.049117,-0.0078011,0.62533,-0.11912
0.0067811,-0.0093457,-0.03237,0.035206,-0.40889,-1.6933,-0.22287,0.16315,0.27507,0.3355,0.41287,0.069859,-0.006099,-0.50908,-0.0089254,-0.21525,-0.077137,-0.015285,-1.4754,-0.056031,-0.11273,0.093009,0.56559,-0.11651
0.012754,-0.0047086,-0.037046,0.04122,-0.40499,-1.9566,-0.43686,0.18015,0.28336,0.26561,0.47404,0.1194,0.025721,-0.42765,0.034269,-0.17191,-0.061514,0.068574,-1.8493,-0.055883,-0.18369,0.15936,0.5371,-0.10641
0.018798,0.0014155,-0.040841,0.04472,-0.38915,-2.088,-0.63213,0.1907,0.28234,0.11354,0.4769,0.12658,-0.023596,-0.27421,0.093783,-0.1015,-0.057028,0.080132,-2.1833,-0.067881,-0.24857,0.1869,0.57142,-0.081463
0.023017,0.0075794,-0.040336,0.045104,-0.3526,-2.0794,-0.76219,0.19984,0.2686,-0.061383,0.45025,0.090111,-0.16627,-0.09847,0.15093,-0.016476,-0.062104,0.045282,-2.3998,-0.087769,-0.29617,0.19377,0.62803,-0.040108
0.023877,0.011568,-0.034798,0.043069,-0.28647,-1.9414,-0.80679,0.22371,0.24205,-0.20011,0.41756,0.024361,-0.37253,0.049714,0.18634,0.06965,-0.069887,0.015537,-2.4385,-0.10458,-0.32351,0.2031,0.63222,0.01284
0.021208,0.012183,-0.027021,0.040303,-0.19433,-1.7049,-0.7836,0.27273,0.20708,-0.27758,0.38518,-0.0536,-0.581,0.14487,0.19056,0.14918,-0.072991,0.032038,-2.2989,-0.10765,-0.33715,0.22404,0.53364,0.070657
0.016529,0.010431,-0.021207,0.038688,-0.096152,-1.4241,-0.733,0.33543,0.17084,-0.31182,0.34716,-0.13523,-0.72355,0.19511,0.17097,0.22187,-0.068506,0.10198,-2.0485,-0.093461,-0.34799,0.24569,0.33645,0.1296
0.012327,0.0088205,-0.019642,0.039334,-0.019403,-1.1743,-0.69046,0.37891,0.1398,-0.34441,0.29886,-0.22292,-0.75322,0.23137,0.1491,0.29074,-0.05958,0.2025,-1.7872,-0.067418,-0.36209,0.24716,0.08486,0.18847
0.010673,0.0092745,-0.021002,0.041955,0.01736,-1.0337,-0.66828,0.3688,0.11696,-0.40893,0.24537,-0.32332,-0.66216,0.28437,0.14844,0.3561,-0.052414,0.30272,-1.5945,-0.039645,-0.37401,0.2145,-0.17098,0.24278
0.012059,0.011637,-0.021732,0.044983,0.016823,-1.0515,-0.65759,0.29472,0.1013,-0.51003,0.19787,-0.43778,-0.48161,0.3641,0.18006,0.41289,-0.051234,0.3803,-1.4937,-0.018624,-0.36772,0.15158,-0.39565,0.28036
0.015227,0.014193,-0.019261,0.046467,0.0017856,-1.2199,-0.64388,0.182,0.089469,-0.62414,0.16345,-0.55731,-0.26563,0.45454,0.2357,0.45368,-0.055348,0.41853,-1.4569,-0.0076386,-0.32528,0.078201,-0.5663,0.28585
0.01804,0.015609,-0.014288,0.045262,0.00049718,-1.4703,-0.61961,0.080652,0.078349,-0.71571,0.13925,-0.66525,-0.068024,0.52587,0.29338,0.47508,-0.060434,0.39369,-1.4401,-0.0058386,-0.23792,0.01835,-0.66532,0.25322
0.018716,0.016217,-0.010246,0.041781,0.028147,-1.7016,-0.58418,0.039621,0.066808,-0.75481,0.11629,-0.74524,0.076432,0.55473,0.33171,0.48221,-0.062267,0.27596,-1.4155,-0.011247,-0.1124,-0.012819,-0.6857,0.19635
0.016635,0.017303,-0.01039,0.037769,0.077194,-1.828,-0.53515,0.084086,0.055541,-0.72718,0.088493,-0.78817,0.15951,0.53798,0.34268,0.48731,-0.059075,0.055431,-1.3763,-0.02173,0.030719,-0.015968,-0.64483,0.14638
0.012413,0.019187,-0.01496,0.035142,0.12311,-1.8174,-0.46348,0.20848,0.045282,-0.63784,0.057811,-0.79401,0.19574,0.49117,0.33421,0.50277,-0.050438,-0.22407,-1.3152,-0.033043,0.16509,-0.0058407,-0.58624,0.13472
0.0074714,0.020259,-0.020718,0.034615,0.14117,-1.699,-0.36031,0.38504,0.034765,-0.51219,0.030581,-0.76862,0.2118,0.43455,0.32154,0.53307,-0.034495,-0.45843,-1.2054,-0.037282,0.26748,-0.0027905,-0.55791,0.17332
0.0034581,0.018194,-0.023296,0.035065,0.12223,-1.5372,-0.2297,0.57842,0.020249,-0.39315,0.009053,-0.71905,0.23451,0.37888,0.31475,0.571,-0.0073211,-0.52543,-1.0114,-0.025653,0.32312,-0.022015,-0.58186,0.24759
0.0016777,0.012328,-0.020543,0.034244,0.076527,-1.3915,-0.094168,0.75692,-0.0023304,-0.32815,-0.013178,-0.6505,0.28097,0.3221,0.3117,0.60076,0.033721,-0.35864,-0.72406,0.0047242,0.32671,-0.065569,-0.6422,0.32796
0.0025483,0.0048089,-0.014256,0.030462,0.023462,-1.2859,0.015,0.89749,-0.03355,-0.34559,-0.047002,-0.56568,0.35292,0.25808,0.301,0.60625,0.08508,-0.0036879,-0.38751,0.045402,0.28138,-0.12114,-0.70465,0.39055
0.0052748,-0.00077368,-0.008914,0.024084,-0.024702,-1.2051,0.07652,0.98641,-0.067844,-0.43337,-0.098804,-0.46563,0.43667,0.18795,0.27167,0.57972,0.1354,0.38936,-0.086305,0.078622,0.19749,-0.1687,-0.75061,0.43047
0.0080754,-0.0022375,-0.0083192,0.0176,-0.073211,-1.1134,0.091593,1.0179,-0.094834,-0.53811,-0.16566,-0.35178,0.5092,0.12271,0.22168,0.52592,0.16985,0.6427,0.10653,0.087273,0.091412,-0.19202,-0.79479,0.45838
0.0090687,-0.00060264,-0.012713,0.014005,-0.14192,-0.98471,0.079488,0.99229,-0.10489,-0.59231,-0.23958,-0.2293,0.54865,0.074502,0.1596,0.45974,0.17825,0.6512,0.18054,0.066219,-0.017501,-0.18863,-0.87001,0.48661
0.0073847,0.0007908,-0.018563,0.014552,-0.25104,-0.82333,0.060138,0.91366,-0.095566,-0.55433,-0.31598,-0.11015,0.5446,0.045161,0.099156,0.39883,0.16116,0.44088,0.19507,0.026199,-0.11208,-0.17205,-0.9932,0.51988
0.0037214,-0.00089615,-0.021175,0.017624,-0.40491,-0.66707,0.039107,0.79059,-0.073945,-0.43199,-0.39581,-0.012094,0.50247,0.023604,0.05122,0.35552,0.12955,0.14637,0.23485,-0.013169,-0.18261,-0.164,-1.1442,0.55986
-0.00013227,-0.005664,-0.01809,0.019732,-0.58411,-0.56952,0.007785,0.63883,-0.052511,-0.27088,-0.47633,0.048909,0.43991,-0.0047904,0.01881,0.33226,0.098273,-0.075815,0.35019,-0.036145,-0.22873,-0.18079,-1.2782,0.61745
-0.0025009,-0.010763,-0.010737,0.01805,-0.75082,-0.57101,-0.042183,0.48292,-0.04104,-0.11648,-0.53823,0.069809,0.37768,-0.045423,-0.0025332,0.32289,0.078029,-0.13797,0.53028,-0.03975,-0.25621,-0.22183,-1.3623,0.71695
-0.0028596,-0.013029,-0.0032666,0.012552,-0.86426,-0.67197,-0.10406,0.3513,-0.040598,0.018595,-0.54431,0.066354,0.33129,-0.090939,-0.020184,0.31821,0.070964,-0.056314,0.72721,-0.032541,-0.27091,-0.26779,-1.4045,0.88269
-0.0019475,-0.011412,0.00033879,0.0060693,-0.89795,-0.82343,-0.15481,0.26385,-0.04427,0.15548,-0.45793,0.066368,0.30784,-0.13101,-0.038944,0.31195,0.072029,0.084886,0.90353,-0.025445,-0.27436,-0.29044,-1.4488,1.1159
-0.00098053,-0.0076361,-0.0013115,0.002168,-0.85025,-0.94261,-0.16936,0.21923,-0.043828,0.31911,-0.27241,0.092516,0.30767,-0.16634,-0.057678,0.303,0.073918,0.20425,1.0583,-0.022808,-0.26459,-0.26913,-1.5371,1.3819
-0.00070276,-0.0045717,-0.0065685,0.0024666,-0.74396,-0.94971,-0.13875,0.19335,-0.036638,0.50552,-0.028543,0.14685,0.32685,-0.21245,-0.06964,0.29297,0.071669,0.27304,1.2116,-0.020765,-0.24121,-0.20402,-1.6684,1.6218
-0.0010475,-0.003886,-0.012154,0.0054365,-0.61643,-0.80895,-0.077365,0.15366,-0.027165,0.67607,0.19729,0.21021,0.35718,-0.28709,-0.06624,0.28182,0.064228,0.31214,1.3679,-0.013192,-0.20974,-0.11743,-1.7897,1.7832
-0.0015414,-0.0049735,-0.015162,0.0075468,-0.5057,-0.55137,-0.013693,0.080761,-0.022359,0.78395,0.33158,0.2585,0.385,-0.38986,-0.042248,0.26587,0.053132,0.35077,1.4993,0.00073835,-0.18078,-0.04141,-1.83,1.8475
-0.0019016,-0.0059616,-0.014377,0.0058036,-0.43843,-0.26373,0.027628,-0.018845,-0.025521,0.80958,0.34424,0.28368,0.3929,-0.49123,0.0005246,0.24051,0.040332,0.38973,1.5649,0.014058,-0.16352,0.0014362,-1.7553,1.8339
-0.0021962,-0.0057443,-0.010445,-0.00024691,-0.42385,-0.046821,0.038656,-0.11968,-0.034134,0.77471,0.26318,0.30247,0.36614,-0.54206,0.053446,0.20508,0.027119,0.40171,1.55,0.016312,-0.15895,0.011111,-1.6007,1.7787
-0.0024847,-0.0051827,-0.0051388,-0.0084536,-0.45422,0.034653,0.027656,-0.19823,-0.042955,0.72427,0.15328,0.34555,0.30059,-0.50018,0.10515,0.16505,0.014552,0.36423,1.4855,0.00077529,-0.15856,0.0079457,-1.4526,1.7074
-0.0024439,-0.0064479,-0.00031442,-0.015809,-0.51052,-0.018411,0.0083921,-0.24994,-0.04873,0.69299,0.075312,0.43542,0.20538,-0.35789,0.14661,0.12828,0.0044096,0.29213,1.4282,-0.031102,-0.15036,0.015609,-1.3884,1.6214
-0.0015161,-0.011126,0.0028906,-0.020571,-0.56998,-0.14774,-0.010352,-0.28744,-0.051927,0.68443,0.053212,0.56963,0.09674,-0.15305,0.17341,0.097987,-0.00060874,0.23893,1.4179,-0.070729,-0.12795,0.041326,-1.4164,1.5066
0.00045982,-0.018704,0.0042586,-0.023141,-0.61263,-0.27667,-0.026819,-0.32182,-0.054482,0.67682,0.068559,0.72059,-0.012715,0.043368,0.18413,0.068432,0.0020997,0.26513,1.4486,-0.10718,-0.095378,0.068236,-1.4618,1.3523
0.002753,-0.026612,0.004101,-0.025166,-0.62468,-0.35301,-0.040555,-0.34467,-0.056834,0.64624,0.079067,0.84982,-0.12008,0.15743,0.17732,0.028393,0.013406,0.39904,1.4773,-0.13196,-0.064067,0.066477,-1.4142,1.1631
0.0039872,-0.03172,0.0027034,-0.027728,-0.59896,-0.36785,-0.046791,-0.32891,-0.057914,0.58492,0.042767,0.92535,-0.22742,0.14487,0.15125,-0.02944,0.031308,0.61924,1.4605,-0.14126,-0.044586,0.015407,-1.2057,0.95375
0.003073,-0.032173,0.00016368,-0.030268,-0.53427,-0.34132,-0.038151,-0.25011,-0.058104,0.50061,-0.067581,0.93183,-0.33001,0.010101,0.10767,-0.10045,0.051191,0.86832,1.388,-0.13557,-0.039948,-0.0796,-0.86486,0.73619
7.1991e-005,-0.028423,-0.003238,-0.031221,-0.43569,-0.29188,-0.013572,-0.11116,-0.06141,0.4019,-0.26067,0.87149,-0.40879,-0.19784,0.055621,-0.16862,0.067655,1.0842,1.2859,-0.11823,-0.045459,-0.18865,-0.50563,0.51083
-0.0037976,-0.02299,-0.0066368,-0.029836,-0.31568,-0.21748,0.013032,0.05097,-0.073445,0.28631,-0.52429,0.76047,-0.43613,-0.41046,0.0097773,-0.21611,0.077235,1.2268,1.1907,-0.093811,-0.054176,-0.27604,-0.2592,0.2736
-0.0070675,-0.019152,-0.0087938,-0.027464,-0.19345,-0.10522,0.01292,0.18364,-0.096085,0.14273,-0.81989,0.62464,-0.39226,-0.5723,-0.018128,-0.23502,0.080622,1.2875,1.1196,-0.066499,-0.06239,-0.32201,-0.19429,0.03282
-0.009042,-0.019194,-0.0089295,-0.026922,-0.089723,0.040393,-0.045903,0.24895,-0.1236,-0.035188,-1.0818,0.49513,-0.27917,-0.66229,-0.028793,-0.23245,0.082884,1.2814,1.0594,-0.038701,-0.070228,-0.33135,-0.28091,-0.179
-0.010006,-0.023038,-0.0073967,-0.030279,-0.017489,0.17919,-0.18106,0.24344,-0.14449,-0.23846,-1.2335,0.40148,-0.11993,-0.69191,-0.036762,-0.22497,0.090926,1.2333,0.98208,-0.010686,-0.077566,-0.32358,-0.41744,-0.31179
-0.010479,-0.028076,-0.0054023,-0.036964,0.02571,0.24945,-0.38193,0.19393,-0.1485,-0.44484,-1.2206,0.36296,0.056241,-0.68421,-0.060355,-0.22716,0.10905,1.1642,0.86996,0.018063,-0.080132,-0.31374,-0.49525,-0.32307
-0.010342,-0.030603,-0.003928,-0.044007,0.057467,0.20879,-0.60782,0.13553,-0.13345,-0.6303,-1.0433,0.38243,0.2297,-0.65121,-0.10697,-0.24291,0.13508,1.0838,0.73013,0.046525,-0.070556,-0.29963,-0.45212,-0.20641
-0.0088523,-0.02825,-0.0029161,-0.048306,0.10018,0.070103,-0.80052,0.090164,-0.10648,-0.77777,-0.76135,0.44703,0.39285,-0.5883,-0.16603,-0.26557,0.15997,0.99128,0.58773,0.070873,-0.044306,-0.26545,-0.28132,-0.0032213
-0.0056611,-0.021842,-0.0016089,-0.048965,0.1666,-0.098785,-0.90682,0.060504,-0.078637,-0.87419,-0.46378,0.53521,0.53872,-0.48901,-0.21642,-0.28578,0.17189,0.88291,0.46665,0.08589,-0.0053533,-0.19807,-0.0012375,0.21302
-0.0018171,-0.015181,0.00028666,-0.047658,0.25152,-0.21498,-0.90145,0.039031,-0.057137,-0.90057,-0.21877,0.62497,0.64932,-0.36506,-0.24268,-0.30001,0.16293,0.76257,0.37403,0.088375,0.03403,-0.10255,0.38083,0.37174
0.00045274,-0.012618,0.0019104,-0.046887,0.3362,-0.23002,-0.7991,0.020005,-0.041182,-0.82883,-0.038131,0.69771,0.69857,-0.25101,-0.24602,-0.3129,0.13403,0.64573,0.29952,0.079744,0.060254,-0.004354,0.87722,0.43784
-0.00068283,-0.016071,0.0019415,-0.047906,0.40252,-0.15095,-0.64827,0.0032776,-0.024201,-0.63547,0.11977,0.73734,0.6699,-0.18625,-0.24062,-0.33236,0.094457,0.55124,0.22673,0.065324,0.067197,0.063736,1.4931,0.42153
-0.0049999,-0.023733,0.00010599,-0.050221,0.446,-0.018965,-0.50822,-0.010155,-0.00028541,-0.32614,0.31207,0.72931,0.57231,-0.18795,-0.239,-0.36209,0.055963,0.48512,0.14605,0.050659,0.060116,0.080858,2.1869,0.36176
-0.010064,-0.031468,-0.0020808,-0.052787,0.47777,0.13266,-0.42071,-0.022034,0.030268,0.048187,0.56631,0.66386,0.43743,-0.23844,-0.24062,-0.39801,0.025784,0.42961,0.059799,0.037952,0.051829,0.050419,2.852,0.29746
-0.012946,-0.035728,-0.0023188,-0.055352,0.51437,0.30414,-0.39252,-0.033475,0.060192,0.40107,0.85889,0.54259,0.29702,-0.29851,-0.23487,-0.43126,0.0037705,0.3496,-0.019913,0.025783,0.054372,-0.001809,3.3451,0.24659
-0.012439,-0.035682,0.00046487,-0.058455,0.56398,0.51814,-0.39911,-0.037921,0.079393,0.64642,1.1288,0.38239,0.15961,-0.33537,-0.21565,-0.45501,-0.01433,0.21506,-0.074381,0.012257,0.072351,-0.041548,3.5525,0.20309
-0.0098545,-0.033069,0.0049724,-0.062266,0.62035,0.78472,-0.40569,-0.020589,0.080732,0.73989,1.3137,0.21151,0.0077429,-0.34144,-0.19335,-0.46963,-0.0306,0.023382,-0.0793,-0.0016331,0.10207,-0.042889,3.4558,0.14718
-0.007664,-0.030282,0.0084696,-0.065784,0.66901,1.0745,-0.39008,0.030701,0.063592,0.69906,1.3839,0.059262,-0.18082,-0.32911,-0.19126,-0.48248,-0.041545,-0.19611,-0.008265,-0.012089,0.13558,0.00051114,3.1482,0.057125
-0.0072623,-0.028526,0.0090981,-0.067524,0.70026,1.3232,-0.3512,0.11108,0.033411,0.58908,1.3547,-0.053605,-0.40685,-0.3093,-0.22802,-0.50286,-0.040953,-0.40012,0.15397,-0.016625,0.16546,0.073649,2.7796,-0.083359
-0.0079412,-0.027512,0.0075117,-0.067086,0.71817,1.4639,-0.29893,0.19526,-0.0017451,0.48348,1.2738,-0.11754,-0.64248,-0.27655,-0.30081,-0.53601,-0.026754,-0.55864,0.39001,-0.018729,0.18702,0.14657,2.4589,-0.27953
-0.0080261,-0.026553,0.0063055,-0.065961,0.7384,1.4632,-0.23646,0.25223,-0.034811,0.42563,1.1955,-0.13025,-0.84976,-0.21604,-0.38455,-0.57991,-0.0056782,-0.67155,0.63564,-0.028309,0.19753,0.18563,2.1808,-0.51833
-0.007005,-0.02572,0.0076762,-0.066564,0.77658,1.3378,-0.15235,0.2685,-0.061353,0.41345,1.1569,-0.093019,-1.008,-0.12617,-0.44873,-0.62636,0.0090902,-0.76372,0.79273,-0.056112,0.195,0.16662,1.8363,-0.76343
-0.0064484,-0.025926,0.011393,-0.070248,0.83599,1.1436,-0.030339,0.26051,-0.078986,0.41271,1.1687,-0.012976,-1.1255,-0.034087,-0.47838,-0.66518,0.0062246,-0.86329,0.77414,-0.1053,0.17835,0.086585,1.3027,-0.96225
-0.008635,-0.027998,0.014946,-0.076063,0.90335,0.948,0.13121,0.26416,-0.086203,0.38503,1.2204,0.090471,-1.2258,0.013048,-0.48232,-0.68916,-0.015669,-0.97781,0.55885,-0.16636,0.14899,-0.030192,0.54604,-1.0683
-0.014084,-0.031735,0.01583,-0.081315,0.95492,0.79951,0.30799,0.30815,-0.08241,0.30975,1.2922,0.18332,-1.3234,-0.022896,-0.48292,-0.69719,-0.046516,-1.0819,0.21867,-0.21972,0.11202,-0.13754,-0.34383,-1.0668
-0.020426,-0.035873,0.013913,-0.083382,0.96829,0.71118,0.45877,0.39179,-0.069389,0.18716,1.3642,0.22557,-1.411,-0.14367,-0.49653,-0.69404,-0.070919,-1.1219,-0.11077,-0.24538,0.075336,-0.18601,-1.21,-0.98445
-0.023943,-0.0389,0.011673,-0.081317,0.93229,0.66157,0.54987,0.48425,-0.052457,0.026778,1.4178,0.18842,-1.4689,-0.30939,-0.51996,-0.68654,-0.077216,-1.0372,-0.30549,-0.23338,0.046746,-0.14887,-1.9243,-0.87243
-0.022579,-0.039979,0.011898,-0.076167,0.85066,0.61202,0.57645,0.54483,-0.039275,-0.16455,1.4359,0.069165,-1.4854,-0.45777,-0.53222,-0.67768,-0.062928,-0.78926,-0.32905,-0.18843,0.030589,-0.041451,-2.4406,-0.77379
-0.017702,-0.039297,0.014864,-0.070124,0.73951,0.53032,0.56303,0.54818,-0.036067,-0.38162,1.407,-0.10673,-1.4675,-0.5327,-0.5081,-0.66289,-0.033577,-0.38934,-0.25606,-0.126,0.026086,0.080696,-2.7698,-0.70059
-0.012913,-0.037766,0.017683,-0.065346,0.62159,0.40699,0.54245,0.49699,-0.043684,-0.60729,1.3344,-0.29793,-1.433,-0.50431,-0.43356,-0.63177,0.0027005,0.092616,-0.22326,-0.062967,0.028405,0.14922,-2.9169,-0.63674
-0.010901,-0.036497,0.016677,-0.06312,0.52009,0.25434,0.52996,0.41692,-0.056741,-0.80066,1.241,-0.4653,-1.3942,-0.37388,-0.31429,-0.57563,0.039739,0.54657,-0.33874,-0.0098209,0.031821,0.12293,-2.8547,-0.56091
-0.011237,-0.036359,0.010784,-0.063541,0.45277,0.09041,0.51382,0.3414,-0.067055,-0.90334,1.1611,-0.5847,-1.3491,-0.16883,-0.17472,-0.4962,0.074048,0.86542,-0.61186,0.03086,0.033026,0.015669,-2.5629,-0.46701
-0.011147,-0.037661,0.0027999,-0.065586,0.42731,-0.077806,0.47003,0.29817,-0.069013,-0.86731,1.1208,-0.64928,-1.2887,0.064966,-0.049558,-0.4084,0.10267,0.99149,-0.95233,0.060027,0.032512,-0.10812,-2.0923,-0.36553
-0.0085252,-0.039899,-0.0028997,-0.067551,0.4393,-0.25645,0.38848,0.30293,-0.06269,-0.68827,1.12,-0.66459,-1.2097,0.2729,0.029373,-0.33347,0.12165,0.94026,-1.2378,0.076993,0.03318,-0.17044,-1.5785,-0.26896
-0.0042522,-0.041789,-0.0042025,-0.067855,0.47436,-0.44949,0.28757,0.35831,-0.052316,-0.41996,1.1317,-0.64247,-1.1187,0.40643,0.046963,-0.28636,0.12731,0.78763,-1.3983,0.078462,0.037121,-0.12695,-1.1785,-0.17973
-0.001533,-0.041837,-0.0030883,-0.065921,0.51419,-0.64106,0.20372,0.45454,-0.041747,-0.15482,1.1178,-0.59725,-1.0219,0.4417,0.01345,-0.26629,0.11935,0.62926,-1.4557,0.062449,0.042736,0.0062559,-0.97472,-0.09313
-0.002791,-0.039362,-0.0036428,-0.062549,0.54363,-0.79526,0.16332,0.57184,-0.031342,0.019572,1.0483,-0.54326,-0.91224,0.39216,-0.038593,-0.25821,0.10256,0.53674,-1.4897,0.033008,0.044189,0.16325,-0.92785,-0.0098596
-0.007067,-0.035269,-0.0080865,-0.0593,0.55498,-0.87941,0.16069,0.68659,-0.019284,0.060811,0.90587,-0.49214,-0.76966,0.3041,-0.070293,-0.24425,0.08489,0.53279,-1.5605,0.00090006,0.033745,0.26797,-0.91772,0.058743
-0.010507,-0.031772,-0.014602,-0.057135,0.54751,-0.89369,0.16209,0.78055,-0.0059991,-0.016738,0.6768,-0.45037,-0.57722,0.23362,-0.057775,-0.21641,0.072568,0.59187,-1.6499,-0.021155,0.0058228,0.27604,-0.83663,0.10141
-0.0096733,-0.03097,-0.019047,-0.055332,0.52333,-0.87989,0.13485,0.84756,0.0030859,-0.16308,0.34532,-0.41882,-0.33967,0.21777,-0.0051393,-0.18054,0.065752,0.65833,-1.669,-0.025421,-0.039376,0.19364,-0.65823,0.12395
-0.004731,-0.033184,-0.018884,-0.051709,0.48318,-0.89541,0.079235,0.89162,8.8579e-005,-0.3272,-0.091552,-0.39491,-0.086847,0.25787,0.060263,-0.1494,0.057969,0.67006,-1.5275,-0.013292,-0.094682,0.066015,-0.43218,0.15343
0.00045171,-0.036423,-0.01554,-0.044277,0.42509,-0.96756,0.035969,0.91718,-0.01877,-0.47958,-0.59462,-0.37535,0.14342,0.32501,0.10711,-0.13117,0.040271,0.58026,-1.2102,0.0061577,-0.14812,-0.05127,-0.22139,0.22125
0.0015147,-0.037599,-0.012981,-0.033161,0.34656,-1.0631,0.059748,0.91973,-0.048262,-0.61102,-1.0672,-0.35735,0.32939,0.38192,0.11976,-0.1233,0.0076116,0.37398,-0.79788,0.022031,-0.18782,-0.11885,-0.043897,0.33715
-0.0026269,-0.034756,-0.014001,-0.021186,0.24818,-1.1009,0.17547,0.88602,-0.075949,-0.71665,-1.3815,-0.33881,0.47682,0.40523,0.10436,-0.1162,-0.03675,0.074965,-0.41134,0.028066,-0.20764,-0.12497,0.13045,0.47672
-0.0087416,-0.028655,-0.017823,-0.012345,0.13584,-1.0053,0.34928,0.80523,-0.090169,-0.78369,-1.4421,-0.31907,0.60915,0.39391,0.07856,-0.1023,-0.081967,-0.26199,-0.12101,0.025795,-0.21066,-0.081906,0.33124,0.59438
-0.011857,-0.022405,-0.021198,-0.0091158,0.019741,-0.76409,0.4981,0.68208,-0.088002,-0.79348,-1.2486,-0.30081,0.7458,0.36163,0.05516,-0.082385,-0.11538,-0.57225,0.10562,0.022635,-0.20826,-0.015383,0.53589,0.65247
-0.0092063,-0.019263,-0.021682,-0.01062,-0.089044,-0.45097,0.53453,0.54008,-0.076603,-0.73342,-0.90814,-0.29061,0.88706,0.32236,0.033435,-0.063877,-0.12989,-0.80576,0.3716,0.026084,-0.21474,0.04593,0.66618,0.64345
-0.0022284,-0.020193,-0.019814,-0.013126,-0.18187,-0.19278,0.41855,0.41075,-0.066748,-0.60637,-0.5813,-0.29583,1.0161,0.28096,0.0039992,-0.053415,-0.12807,-0.94061,0.755,0.037631,-0.24015,0.077959,0.64263,0.58918
0.0048683,-0.02302,-0.018246,-0.012575,-0.25357,-0.10114,0.18177,0.31689,-0.064167,-0.43005,-0.39502,-0.31835,1.1131,0.23471,-0.038724,-0.050598,-0.12027,-0.9795,1.227,0.050613,-0.28539,0.06639,0.45564,0.5206
0.0085049,-0.023943,-0.019036,-0.0071865,-0.30115,-0.21196,-0.090338,0.263,-0.065948,-0.22921,-0.37879,-0.35022,1.1668,0.18206,-0.087892,-0.047939,-0.11767,-0.93629,1.6545,0.054083,-0.34264,0.0098186,0.19513,0.45589
0.0081839,-0.020419,-0.021969,0.0018302,-0.32249,-0.46996,-0.30452,0.24002,-0.064527,-0.029001,-0.4653,-0.37585,1.1749,0.12973,-0.12636,-0.03648,-0.12495,-0.82585,1.8922,0.040563,-0.4002,-0.079868,0.0097913,0.39353
0.0062318,-0.013248,-0.025428,0.011774,-0.31715,-0.76422,-0.40292,0.239,-0.054993,0.14671,-0.54825,-0.38023,1.1359,0.091746,-0.13697,-0.012117,-0.13758,-0.66275,1.8919,0.012279,-0.4481,-0.18068,0.02222,0.32219
0.0054988,-0.0061738,-0.028532,0.020667,-0.28903,-0.98819,-0.37875,0.26123,-0.038868,0.2755,-0.55149,-0.35747,1.0437,0.080658,-0.11241,0.022147,-0.14534,-0.46268,1.7419,-0.018948,-0.48052,-0.26677,0.26151,0.23557
0.0071491,-0.0031044,-0.032005,0.028265,-0.24821,-1.0855,-0.26253,0.31603,-0.021405,0.341,-0.46258,-0.31297,0.8924,0.097976,-0.058088,0.059029,-0.13923,-0.2376,1.6022,-0.038289,-0.49456,-0.31587,0.66049,0.13878
0.010151,-0.004985,-0.036846,0.035259,-0.20885,-1.059,-0.096511,0.40874,-0.0057579,0.34239,-0.31748,-0.25804,0.68579,0.13165,0.012306,0.092026,-0.11654,0.014081,1.5879,-0.036001,-0.4881,-0.31593,1.112,0.042155
0.012436,-0.0088356,-0.042376,0.041811,-0.1837,-0.94725,0.082735,0.52928,0.009963,0.30141,-0.16038,-0.20203,0.44281,0.16336,0.083564,0.11878,-0.080742,0.30903,1.6955,-0.011116,-0.46018,-0.26904,1.5319,-0.049889
0.012534,-0.0099035,-0.046081,0.047068,-0.17907,-0.79482,0.24679,0.65058,0.030022,0.25907,-0.015471,-0.14864,0.19171,0.18055,0.14338,0.14063,-0.03727,0.66231,1.8267,0.030984,-0.41409,-0.19141,1.8793,-0.14387
0.010545,-0.0053508,-0.045755,0.050083,-0.19439,-0.63537,0.37097,0.73743,0.055778,0.26064,0.11214,-0.098384,-0.042399,0.18375,0.1834,0.15902,0.010597,1.0606,1.8824,0.083427,-0.35953,-0.10859,2.1274,-0.25096
0.0080588,0.0035185,-0.041852,0.051071,-0.22659,-0.4932,0.43431,0.75941,0.083241,0.33709,0.21784,-0.053482,-0.24686,0.18267,0.19868,0.17191,0.062028,1.4491,1.8427,0.14004,-0.31032,-0.047283,2.2302,-0.37433
0.0072299,0.012407,-0.037501,0.051554,-0.27502,-0.38955,0.42688,0.70063,0.10586,0.49338,0.28589,-0.019373,-0.42127,0.18315,0.18746,0.17294,0.11524,1.7514,1.7663,0.19365,-0.27782,-0.026333,2.1276,-0.50077
0.0094502,0.017607,-0.035836,0.053173,-0.3418,-0.34103,0.35736,0.56386,0.11967,0.70809,0.29778,-0.0010044,-0.57049,0.17535,0.15107,0.15461,0.16422,1.9119,1.7179,0.2342,-0.26497,-0.050916,1.7927,-0.6043
0.014238,0.01891,-0.037074,0.056363,-0.42695,-0.34994,0.25193,0.36995,0.12566,0.94061,0.25084,0.0022429,-0.69825,0.13418,0.093402,0.11378,0.19941,1.9318,1.6978,0.25125,-0.26584,-0.11235,1.276,-0.66052
0.019114,0.019277,-0.038214,0.06017,-0.52306,-0.39808,0.14287,0.15312,0.12719,1.1397,0.16655,-0.0024871,-0.805,0.035073,0.020114,0.05563,0.21288,1.8677,1.6384,0.24054,-0.2711,-0.19317,0.70103,-0.66252
0.020931,0.02167,-0.035835,0.063292,-0.61583,-0.45435,0.053724,-0.048572,0.12517,1.2523,0.077969,-0.0063996,-0.88771,-0.12435,-0.061144,-0.0067886,0.20399,1.7926,1.4729,0.20915,-0.27446,-0.27429,0.20861,-0.62728
0.018163,0.026058,-0.029486,0.065194,-0.69157,-0.49311,-0.0094173,-0.20694,0.11594,1.2353,0.0059163,-0.0057517,-0.93832,-0.31209,-0.13947,-0.057802,0.18094,1.7511,1.211,0.17333,-0.2743,-0.34048,-0.107,-0.58788
0.012533,0.029491,-0.02248,0.066266,-0.74635,-0.50899,-0.055575,-0.31581,0.094143,1.0737,-0.055104,-0.0043271,-0.94268,-0.47024,-0.2006,-0.085564,0.15651,1.7395,0.95046,0.14903,-0.26997,-0.38211,-0.22324,-0.57551
0.0083973,0.02915,-0.01926,0.067114,-0.78845,-0.51576,-0.097835,-0.39341,0.05821,0.79487,-0.12864,-0.0092335,-0.88521,-0.54144,-0.23065,-0.085507,0.14063,1.7217,0.81082,0.14173,-0.25753,-0.39403,-0.16941,-0.60236
0.0098042,0.025419,-0.0216,0.067901,-0.83152,-0.53083,-0.14104,-0.47117,0.013698,0.46812,-0.23214,-0.023597,-0.76015,-0.49795,-0.2231,-0.059053,0.13517,1.6597,0.84255,0.14368,-0.2305,-0.37439,0.0031294,-0.6554
0.017198,0.021945,-0.027009,0.068382,-0.88317,-0.55959,-0.17593,-0.57467,-0.028371,0.17934,-0.3561,-0.042625,-0.58069,-0.35503,-0.18466,-0.0099485,0.13417,1.5331,0.98786,0.14069,-0.18573,-0.32521,0.22717,-0.70478
0.026489,0.022513,-0.030722,0.068312,-0.93851,-0.59272,-0.18383,-0.70909,-0.056978,-0.0078928,-0.46167,-0.05662,-0.37485,-0.1608,-0.13429,0.057664,0.12887,1.3402,1.1234,0.12322,-0.12846,-0.25411,0.40881,-0.72156
0.031619,0.02766,-0.029575,0.067647,-0.98339,-0.61599,-0.1502,-0.85891,-0.066446,-0.082068,-0.49673,-0.058508,-0.16742,0.02994,-0.094221,0.13773,0.11383,1.0934,1.1472,0.093037,-0.070491,-0.17433,0.43945,-0.69384
0.028946,0.034145,-0.024461,0.066373,-1.0045,-0.62078,-0.079371,-1.0009,-0.058404,-0.083042,-0.41839,-0.049736,0.037405,0.18052,-0.078113,0.21993,0.090232,0.82151,1.0389,0.061154,-0.022066,-0.10105,0.25416,-0.63178
0.020011,0.03773,-0.019359,0.064435,-0.99763,-0.60436,-5.4732e-005,-1.1196,-0.03994,-0.070122,-0.21005,-0.040142,0.25444,0.28142,-0.084495,0.29099,0.065012,0.57373,0.85123,0.039415,0.015726,-0.045254,-0.095797,-0.55886
0.010362,0.036613,-0.017856,0.062009,-0.96789,-0.56231,0.044725,-1.2136,-0.019885,-0.081008,0.11115,-0.042681,0.49414,0.34163,-0.099884,0.34076,0.046838,0.40845,0.65147,0.032607,0.050564,-0.0094253,-0.42692,-0.49622
0.0052947,0.032478,-0.02012,0.059702,-0.92402,-0.48517,0.01998,-1.2897,-0.0055499,-0.11053,0.4951,-0.067659,0.73713,0.37275,-0.10877,0.36882,0.041472,0.35981,0.4675,0.036331,0.090447,0.011731,-0.50672,-0.45122
0.0059885,0.028529,-0.022856,0.058161,-0.87251,-0.3676,-0.080185,-1.3523,-0.0009945,-0.12266,0.86706,-0.12022,0.93266,0.37907,-0.10288,0.38525,0.048855,0.40316,0.28232,0.040897,0.13474,0.026108,-0.19862,-0.41788
0.009169,0.026648,-0.022207,0.057257,-0.81677,-0.22307,-0.22786,-1.3982,-0.006687,-0.083927,1.1455,-0.2008,1.0286,0.35897,-0.083683,0.40311,0.063242,0.45396,0.0712,0.037521,0.17316,0.039469,0.43301,-0.38738
0.010388,0.026315,-0.017153,0.055816,-0.76009,-0.08698,-0.37774,-1.4217,-0.020084,0.0084906,1.2676,-0.30573,1.0108,0.31325,-0.058382,0.42771,0.076276,0.41426,-0.15942,0.022764,0.19404,0.055369,1.1429,-0.35855
0.0078887,0.025863,-0.010524,0.052534,-0.70732,0.0015364,-0.49387,-1.4249,-0.036993,0.1239,1.212,-0.42636,0.91725,0.25083,-0.034347,0.45149,0.081335,0.23996,-0.36773,-0.00056278,0.19473,0.078802,1.6438,-0.33819
0.0037005,0.024367,-0.0068059,0.047434,-0.66224,0.029283,-0.56736,-1.4212,-0.053626,0.21895,1.0065,-0.54868,0.81261,0.18682,-0.016661,0.45917,0.076625,-0.02341,-0.50817,-0.025451,0.18487,0.11778,1.7658,-0.33019
0.0012905,0.022173,-0.0085558,0.042329,-0.62327,0.025681,-0.61248,-1.4285,-0.068701,0.26353,0.71437,-0.65631,0.74186,0.13493,-0.0088636,0.43978,0.065097,-0.26927,-0.56847,-0.044113,0.17963,0.17803,1.5268,-0.3235
0.0022206,0.019864,-0.014384,0.039432,-0.58268,0.048811,-0.64577,-1.4553,-0.084314,0.25266,0.40866,-0.737,0.70184,0.1012,-0.013457,0.39628,0.051447,-0.40488,-0.58057,-0.051331,0.18864,0.25316,1.078,-0.2914
0.0049561,0.017203,-0.020073,0.039153,-0.53162,0.14676,-0.66665,-1.4904,-0.10455,0.20031,0.15041,-0.788,0.65348,0.083916,-0.029705,0.34557,0.038576,-0.41466,-0.59894,-0.046573,0.20955,0.31933,0.58577,-0.20616
0.0066954,0.013455,-0.021757,0.039216,-0.46749,0.32123,-0.65577,-1.5072,-0.13212,0.12566,-0.019554,-0.81511,0.56195,0.078848,-0.050482,0.30925,0.026264,-0.36288,-0.66581,-0.034023,0.23076,0.34286,0.14955,-0.059623
0.0061863,0.0087721,-0.018471,0.036313,-0.39737,0.52011,-0.59223,-1.48,-0.16482,0.04528,-0.080114,-0.82472,0.4288,0.084934,-0.0626,0.30241,0.012747,-0.33701,-0.78868,-0.020417,0.23993,0.29891,-0.19827,0.12628
0.0047382,0.0049199,-0.012178,0.029096,-0.3343,0.66474,-0.47399,-1.4024,-0.19436,-0.02508,-0.030729,-0.81468,0.29017,0.10577,-0.052699,0.32747,-0.0026617,-0.38184,-0.94191,-0.011795,0.23102,0.1893,-0.44182,0.30874
0.0046042,0.0041952,-0.0057019,0.019839,-0.28903,0.69262,-0.32408,-1.2931,-0.2091,-0.067022,0.10308,-0.77237,0.18692,0.14587,-0.0154,0.37535,-0.018563,-0.47734,-1.0857,-0.01106,0.20514,0.045432,-0.55044,0.44756
0.0065032,0.007278,-0.00066135,0.013039,-0.26342,0.58803,-0.17764,-1.1856,-0.19969,-0.063761,0.26874,-0.68312,0.13623,0.2048,0.042788,0.43074,-0.032935,-0.57117,-1.1881,-0.017691,0.16689,-0.087056,-0.50115,0.52674
0.0087654,0.012097,0.0028788,0.011919,-0.25026,0.38445,-0.061357,-1.1088,-0.16474,-0.012308,0.40066,-0.54357,0.12856,0.27342,0.10764,0.47754,-0.045324,-0.62807,-1.2395,-0.029353,0.12118,-0.17173,-0.32468,0.55921
0.0088671,0.015027,0.0052887,0.015735,-0.23913,0.14219,0.017892,-1.0728,-0.11298,0.067262,0.44769,-0.36936,0.14698,0.33523,0.16657,0.50291,-0.057269,-0.64947,-1.2553,-0.043792,0.073351,-0.19657,-0.11626,0.57288
0.0058109,0.013602,0.0064001,0.020152,-0.22384,-0.082211,0.068091,-1.0681,-0.060163,0.13747,0.39729,-0.19011,0.18547,0.37247,0.21586,0.50113,-0.070218,-0.65096,-1.2688,-0.059564,0.031118,-0.17235,0.013237,0.58961
0.0011095,0.0084112,0.0058285,0.02036,-0.20653,-0.25836,0.098593,-1.0776,-0.022107,0.1648,0.27885,-0.034641,0.24777,0.37378,0.26015,0.47718,-0.082844,-0.62844,-1.3175,-0.075601,0.0042413,-0.11933,0.010037,0.61235
-0.0024549,0.0025219,0.0040486,0.014385,-0.19562,-0.38764,0.11199,-1.0878,-0.0077212,0.14295,0.14367,0.08305,0.33037,0.3396,0.30553,0.44715,-0.090504,-0.55269,-1.4273,-0.090769,0.00015778,-0.055175,-0.088645,0.62839
-0.0030963,-0.0010582,0.0027008,0.0041237,-0.19943,-0.4923,0.10807,-1.0926,-0.016024,0.09948,0.037658,0.1671,0.41051,0.28232,0.35299,0.43226,-0.087842,-0.40068,-1.5999,-0.10432,0.018562,0.0072823,-0.19012,0.62377
-0.0013398,-0.001663,0.0034306,-0.0063404,-0.21958,-0.59527,0.093729,-1.0888,-0.038588,0.078072,-0.012542,0.23154,0.45419,0.22135,0.39775,0.44776,-0.072771,-0.19224,-1.8085,-0.11668,0.049973,0.055478,-0.22186,0.59654
0.00060657,-0.001086,0.0062953,-0.013452,-0.24874,-0.70183,0.086966,-1.0725,-0.065336,0.10772,0.0067986,0.28893,0.43893,0.17557,0.43419,0.49313,-0.048824,0.0071373,-2.0033,-0.12912,0.08065,0.075468,-0.18611,0.55865
0.00073782,-0.0016104,0.0094696,-0.015901,-0.2744,-0.79443,0.10919,-1.0412,-0.089567,0.18109,0.11012,0.34549,0.37098,0.15663,0.46062,0.55149,-0.024108,0.12508,-2.1254,-0.14195,0.10088,0.058627,-0.1545,0.5256
-0.0011905,-0.0038297,0.010785,-0.014573,-0.28652,-0.84436,0.17152,-1.0005,-0.10909,0.25851,0.31331,0.40474,0.28184,0.16559,0.47894,0.59975,-0.007627,0.13063,-2.1259,-0.1527,0.11048,0.011426,-0.21554,0.5023
-0.0035826,-0.0061996,0.0097292,-0.011434,-0.2838,-0.83264,0.26655,-0.96561,-0.12359,0.29479,0.61467,0.47255,0.20708,0.1934,0.48988,0.6226,-0.0053886,0.050294,-1.984,-0.15667,0.11735,-0.042876,-0.42075,0.47586
-0.004334,-0.0066433,0.0079519,-0.0084676,-0.27441,-0.76428,0.37191,-0.95268,-0.1313,0.26919,0.97152,0.55507,0.16468,0.22439,0.48942,0.61979,-0.018367,-0.060439,-1.7191,-0.15039,0.13017,-0.076141,-0.76442,0.4219
-0.0025222,-0.0047172,0.0077127,-0.0071336,-0.27053,-0.66432,0.46228,-0.9659,-0.12817,0.19731,1.2988,0.6493,0.14777,0.24182,0.47101,0.60161,-0.042718,-0.16177,-1.386,-0.13559,0.15125,-0.074064,-1.1954,0.32106
0.00074764,-0.0023698,0.0097624,-0.0081309,-0.28054,-0.5588,0.52048,-0.9905,-0.11051,0.11862,1.5022,0.73604,0.13317,0.23426,0.43263,0.57733,-0.071363,-0.24922,-1.0538,-0.11979,0.17478,-0.047216,-1.6374,0.176
0.002922,-0.0025167,0.012688,-0.011256,-0.30429,-0.45672,0.54125,-1.0001,-0.078489,0.071322,1.5287,0.78612,0.095812,0.20101,0.38258,0.54717,-0.096001,-0.33246,-0.77396,-0.1121,0.19155,-0.024618,-2.0024,0.016797
0.0016454,-0.0065063,0.014291,-0.015524,-0.33395,-0.34803,0.52809,-0.97384,-0.037473,0.073575,1.3983,0.77965,0.019653,0.15376,0.33816,0.50451,-0.10936,-0.39778,-0.55861,-0.11685,0.19627,-0.033602,-2.205,-0.11041
-0.0035747,-0.012559,0.013577,-0.01977,-0.35909,-0.21785,0.48837,-0.90925,0.0040807,0.12151,1.1889,0.72425,-0.097004,0.11189,0.31738,0.44568,-0.10768,-0.39543,-0.38328,-0.1303,0.19152,-0.080678,-2.191,-0.16692
-0.010808,-0.016621,0.011468,-0.023438,-0.37162,-0.062606,0.43034,-0.82118,0.038395,0.19953,0.98402,0.65477,-0.23928,0.092004,0.32888,0.37746,-0.092693,-0.27119,-0.21502,-0.14368,0.18589,-0.14732,-1.9698,-0.14348
-0.016727,-0.015208,0.009736,-0.026854,-0.3676,0.10752,0.36242,-0.72743,0.060818,0.28969,0.82192,0.61058,-0.37686,0.096766,0.36679,0.31447,-0.071591,-0.020029,-0.044824,-0.1501,0.18791,-0.20278,-1.6246,-0.066907
-0.018637,-0.008152,0.0094748,-0.030616,-0.34638,0.2802,0.2926,-0.6344,0.069659,0.37215,0.68515,0.60576,-0.47233,0.11033,0.41347,0.26796,-0.053938,0.2842,0.10247,-0.14944,0.20052,-0.22329,-1.2764,0.013418
-0.016197,0.00093575,0.010626,-0.034636,-0.30942,0.45242,0.22744,-0.535,0.064845,0.42029,0.53688,0.61665,-0.49761,0.105,0.44797,0.23555,-0.04652,0.51433,0.19111,-0.14661,0.21995,-0.20329,-1.0207,0.051139
-0.011587,0.0069758,0.012744,-0.037877,-0.26045,0.62681,0.1717,-0.41986,0.047774,0.40152,0.36895,0.59914,-0.45008,0.056734,0.45572,0.20153,-0.049182,0.55909,0.21263,-0.14507,0.23896,-0.1524,-0.88158,0.024567
-0.0080215,0.0068069,0.015756,-0.039235,-0.20573,0.79395,0.1292,-0.29095,0.022829,0.28952,0.21772,0.52391,-0.35569,-0.039636,0.43483,0.14866,-0.054738,0.3889,0.20573,-0.14165,0.25166,-0.083679,-0.81823,-0.057747
-0.0076866,0.0010778,0.019656,-0.038826,-0.15205,0.91878,0.10379,-0.16473,-0.0016392,0.081314,0.13244,0.4017,-0.25353,-0.16522,0.39665,0.072829,-0.053511,0.071791,0.23632,-0.12851,0.25625,-0.0047248,-0.77345,-0.16765
-0.010574,-0.0066798,0.023542,-0.038359,-0.10278,0.94957,0.098724,-0.060996,-0.015474,-0.19489,0.12374,0.27757,-0.1717,-0.28596,0.36035,-0.011187,-0.039587,-0.27027,0.3497,-0.10074,0.25446,0.081249,-0.71538,-0.27386
-0.014894,-0.012818,0.02544,-0.039993,-0.055349,0.8494,0.11439,0.01336,-0.011838,-0.48976,0.13934,0.19834,-0.11327,-0.37017,0.34343,-0.077933,-0.014375,-0.53147,0.53265,-0.062602,0.24907,0.16753,-0.63593,-0.35306
-0.018449,-0.015837,0.023666,-0.044584,-0.0039816,0.62794,0.14671,0.072433,0.0082461,-0.75524,0.092148,0.17895,-0.063083,-0.40376,0.3528,-0.10745,0.015059,-0.66939,0.71839,-0.025929,0.24208,0.23882,-0.51782,-0.39264
-0.019792,-0.016538,0.018656,-0.050878,0.052949,0.34705,0.18843,0.14399,0.035933,-0.96386,-0.07806,0.19399,-0.0084485,-0.39358,0.38128,-0.097455,0.041329,-0.70284,0.8324,-0.0011168,0.23451,0.27574,-0.31804,-0.39031
-0.0185,-0.016425,0.01331,-0.056436,0.10728,0.091932,0.23276,0.25169,0.059727,-1.1123,-0.35722,0.19951,0.045615,-0.35762,0.41245,-0.063071,0.061309,-0.67462,0.84227,0.011305,0.2272,0.26631,0.0010232,-0.35551
-0.014889,-0.016133,0.01107,-0.059463,0.14353,-0.072775,0.27615,0.39943,0.072035,-1.21,-0.66136,0.16596,0.079714,-0.30965,0.43116,-0.025828,0.076246,-0.6171,0.7701,0.020513,0.22089,0.21488,0.41752,-0.31087
-0.0098602,-0.015264,0.013174,-0.059971,0.14944,-0.13101,0.31742,0.56814,0.072191,-1.2653,-0.88968,0.097002,0.077444,-0.24977,0.43268,-0.0014327,0.087699,-0.54718,0.65876,0.036085,0.21527,0.14117,0.83373,-0.28668
-0.0050093,-0.013444,0.017586,-0.059388,0.12627,-0.1096,0.35417,0.72666,0.064227,-1.2808,-0.9867,0.023221,0.039414,-0.16818,0.424,0.0047502,0.093424,-0.48367,0.52519,0.057768,0.20829,0.070605,1.1317,-0.30621
-0.0024323,-0.011312,0.020755,-0.059242,0.089218,-0.048334,0.38031,0.84879,0.052138,-1.2585,-0.96887,-0.019604,-0.018827,-0.05971,0.41634,-0.006552,0.087575,-0.4573,0.34694,0.074068,0.19732,0.024257,1.2655,-0.36979
-0.00375,-0.010368,0.02076,-0.060223,0.056583,0.027771,0.38774,0.92598,0.037074,-1.2067,-0.90053,-0.0093178,-0.081175,0.062101,0.41496,-0.035164,0.065812,-0.49367,0.098705,0.071888,0.18188,0.015547,1.3085,-0.45157
-0.0087894,-0.011873,0.018998,-0.062253,0.036546,0.1141,0.37184,0.9691,0.018385,-1.1385,-0.84115,0.056794,-0.14226,0.16379,0.4143,-0.083501,0.031097,-0.58106,-0.1932,0.04925,0.16575,0.052226,1.404,-0.51432
-0.015114,-0.015831,0.01881,-0.065035,0.023758,0.21277,0.33586,0.99987,-0.0033826,-1.0621,-0.80312,0.16565,-0.20486,0.20753,0.40189,-0.15278,-0.0054115,-0.65665,-0.43294,0.019716,0.1558,0.13652,1.6484,-0.53306
-0.01921,-0.020924,0.022212,-0.068204,0.0090305,0.31907,0.2904,1.0378,-0.024938,-0.97256,-0.74697,0.29292,-0.26822,0.17466,0.36776,-0.23815,-0.030314,-0.63248,-0.50195,0.0038469,0.15749,0.25919,2.004,-0.50896
-0.018771,-0.025369,0.027658,-0.070972,-0.0073339,0.42349,0.24743,1.0895,-0.041515,-0.85475,-0.61227,0.40614,-0.32155,0.080344,0.31206,-0.32794,-0.036723,-0.44666,-0.34221,0.014212,0.17003,0.39284,2.3166,-0.46287
-0.014382,-0.027994,0.030919,-0.072042,-0.012433,0.52585,0.2134,1.1454,-0.049317,-0.69577,-0.36029,0.47136,-0.35136,-0.032606,0.24583,-0.40772,-0.02876,-0.10087,-0.010054,0.046154,0.1852,0.49525,2.4303,-0.41542
-0.0091871,-0.028822,0.028438,-0.070392,0.0073457,0.64344,0.18671,1.1841,-0.046612,-0.49912,-0.0019108,0.46622,-0.35526,-0.11839,0.18522,-0.46546,-0.017741,0.34347,0.34815,0.081705,0.1916,0.52736,2.3076,-0.37206
-0.0066915,-0.028935,0.020395,-0.066432,0.049518,0.79954,0.16113,1.1828,-0.032868,-0.28886,0.40215,0.39287,-0.34675,-0.15469,0.14333,-0.49424,-0.012914,0.80185,0.58616,0.10305,0.1815,0.47675,2.0585,-0.32618
-0.0083511,-0.029744,0.01092,-0.062263,0.090176,0.99767,0.13222,1.1286,-0.0076984,-0.10053,0.76483,0.27864,-0.34373,-0.15226,0.12424,-0.49241,-0.014524,1.2015,0.64727,0.10448,0.1555,0.36831,1.8584,-0.27516
-0.012764,-0.032018,0.0052782,-0.060346,0.097423,1.2032,0.10143,1.0256,0.028451,0.034916,1.0054,0.16008,-0.35026,-0.14149,0.12165,-0.46346,-0.015163,1.4891,0.58543,0.093894,0.12115,0.2507,1.8225,-0.23211
-0.016908,-0.035176,0.0062,-0.061436,0.054008,1.3503,0.074631,0.89274,0.072159,0.10395,1.0757,0.06061,-0.34966,-0.1474,0.12252,-0.41639,-0.0080959,1.6199,0.50587,0.08429,0.086602,0.16562,1.935,-0.22035
-0.018259,-0.037363,0.01213,-0.063609,-0.029421,1.3733,0.056607,0.75469,0.11593,0.11368,0.97191,-0.02011,-0.31725,-0.17273,0.11419,-0.36474,0.00513,1.5564,0.47719,0.083496,0.054264,0.1219,2.0782,-0.25521
-0.016188,-0.036572,0.01852,-0.063458,-0.12165,1.2415,0.045736,0.63004,0.1503,0.085551,0.7293,-0.096311,-0.24202,-0.20104,0.092076,-0.32202,0.015011,1.2893,0.48638,0.090436,0.019637,0.093744,2.1249,-0.33014
-0.011865,-0.032232,0.020958,-0.058672,-0.19255,0.97487,0.032886,0.52441,0.16856,0.044501,0.40772,-0.17533,-0.13694,-0.21455,0.063522,-0.29503,0.012342,0.86392,0.46759,0.099408,-0.023523,0.043763,2.0164,-0.42022
-0.0072152,-0.02607,0.01776,-0.049891,-0.23127,0.6328,0.0055452,0.43257,0.17063,0.0086797,0.073868,-0.2461,-0.027811,-0.21025,0.044268,-0.28004,-0.0030204,0.37539,0.37169,0.10692,-0.075616,-0.047771,1.7718,-0.49919
-0.003883,-0.021263,0.0104,-0.040271,-0.24724,0.28707,-0.045104,0.34728,0.16274,-0.016954,-0.21432,-0.28881,0.068995,-0.20099,0.048652,-0.26592,-0.02099,-0.075949,0.21242,0.11455,-0.1273,-0.16936,1.4442,-0.55407
-0.0026963,-0.020237,0.0019971,-0.033136,-0.25619,-0.0022704,-0.11813,0.26796,0.15287,-0.041254,-0.42066,-0.29729,0.15865,-0.20242,0.079492,-0.24282,-0.028988,-0.43896,0.051216,0.12609,-0.16268,-0.28759,1.0776,-0.58464
-0.0034988,-0.022767,-0.0046494,-0.029695,-0.26541,-0.19738,-0.20131,0.20233,0.14508,-0.080903,-0.54029,-0.2921,0.25817,-0.21862,0.1251,-0.20998,-0.021817,-0.73064,-0.060735,0.14258,-0.16758,-0.36815,0.70507,-0.5911
-0.0051711,-0.026027,-0.0081716,-0.028583,-0.27116,-0.28239,-0.27548,0.1603,0.13745,-0.14928,-0.60148,-0.30909,0.37459,-0.23867,0.16607,-0.17643,-0.0051435,-1.002,-0.12827,0.16046,-0.1372,-0.39171,0.37504,-0.56477
-0.0060226,-0.02669,-0.0086999,-0.027361,-0.26804,-0.26072,-0.32287,0.14496,0.12519,-0.24519,-0.65326,-0.3702,0.49271,-0.24568,0.18716,-0.15446,0.0099465,-1.2815,-0.20622,0.17396,-0.078129,-0.35672,0.1598,-0.49308
-0.0047387,-0.02339,-0.0074781,-0.024465,-0.25894,-0.15409,-0.33508,0.14834,0.1063,-0.34852,-0.73856,-0.46042,0.58542,-0.2289,0.18526,-0.15128,0.015866,-1.5461,-0.35054,0.1794,-0.0040417,-0.27461,0.11622,-0.37489
-0.0014513,-0.01753,-0.0064223,-0.019998,-0.25466,-0.00013456,-0.31591,0.15553,0.085149,-0.42758,-0.86482,-0.53189,0.63748,-0.18878,0.16823,-0.16574,0.013003,-1.7444,-0.57267,0.1771,0.071131,-0.16607,0.22327,-0.23096
0.0020368,-0.011899,-0.0074394,-0.015004,-0.26294,0.15538,-0.27726,0.1545,0.07061,-0.45549,-0.99224,-0.53409,0.66043,-0.13246,0.14656,-0.19155,0.0067537,-1.8473,-0.8356,0.16958,0.13805,-0.059286,0.35682,-0.09793
0.003428,-0.0084606,-0.011347,-0.010173,-0.27771,0.27033,-0.2312,0.14416,0.070127,-0.42598,-1.0525,-0.44725,0.68387,-0.066423,0.12548,-0.22322,0.0012539,-1.8743,-1.0887,0.15846,0.19279,0.015959,0.34193,-0.0090616
0.0017829,-0.007206,-0.016975,-0.0052023,-0.27971,0.31616,-0.18399,0.13438,0.084284,-0.35766,-0.98913,-0.29357,0.73037,0.0059219,0.10363,-0.25869,-0.0036877,-1.8715,-1.3031,0.14327,0.235,0.041334,0.058591,0.022932
-0.0015664,-0.0067791,-0.021491,0.00080773,-0.24995,0.28153,-0.13628,0.13731,0.1062,-0.282,-0.79264,-0.11919,0.79605,0.080179,0.077807,-0.29723,-0.010106,-1.8601,-1.4739,0.12369,0.26581,0.0223,-0.47504,0.0078963
-0.0040497,-0.0059129,-0.022242,0.0084849,-0.18574,0.17117,-0.08829,0.15644,0.12623,-0.22179,-0.50382,0.037088,0.85369,0.14596,0.048401,-0.33552,-0.017476,-1.8072,-1.5902,0.10302,0.28688,-0.013293,-1.1075,-0.034504
