2.9133e-010,1.4296e-009,2.6817e-010,2.4136e-009,1.9293e-012,4.613e-009,7.6593e-010,5.6934e-009,1.0708e-009,9.7912e-009,-4.7133e-009,-9.9359e-010,5.8632e-009,3.3203e-009,-2.0972e-009,4.4162e-009,1.91e-010,5.9866e-009,-1.773e-009,-1.1865e-009,1.9621e-009,-2.3518e-009,-8.5526e-009,7.8002e-009
7.9616e-009,3.9583e-008,7.5765e-009,6.6946e-008,2.2309e-010,1.3052e-007,2.3141e-008,1.5687e-007,2.9689e-008,2.6919e-007,-1.3018e-007,-3.1153e-008,1.6122e-007,9.237e-008,-5.7917e-008,1.221e-007,5.2356e-009,1.6527e-007,-4.5175e-008,-3.285e-008,5.4517e-008,-6.5738e-008,-2.3346e-007,2.1371e-007
1.0579e-007,5.3277e-007,1.0422e-007,9.0265e-007,5.458e-009,1.799e-006,3.4039e-007,2.1005e-006,4.0009e-007,3.5947e-006,-1.7481e-006,-4.736e-007,2.1534e-006,1.2497e-006,-7.7734e-007,1.6409e-006,6.9563e-008,2.2166e-006,-5.4843e-007,-4.4221e-007,7.3654e-007,-8.9334e-007,-3.0859e-006,2.8426e-006
9.1059e-007,4.644e-006,9.2978e-007,7.8818e-006,7.0672e-008,1.6098e-005,3.2484e-006,1.8208e-005,3.4906e-006,3.1059e-005,-1.5205e-005,-4.6546e-006,1.8612e-005,1.0955e-005,-6.7541e-006,1.4281e-005,5.9627e-007,1.9236e-005,-4.1879e-006,-3.8567e-006,6.4465e-006,-7.862e-006,-2.6283e-005,2.4449e-005
5.7062e-006,2.9464e-005,6.0456e-006,5.0095e-005,6.0775e-007,0.00010513,2.2611e-005,0.00011483,2.216e-005,0.00019509,-9.6279e-005,-3.3266e-005,0.00011696,6.9928e-005,-4.2692e-005,9.0445e-005,3.701e-006,0.00012139,-2.2244e-005,-2.4496e-005,4.1085e-005,-5.0352e-005,-0.00016183,0.00015277
2.7735e-005,0.00014496,3.052e-005,0.00024692,3.854e-006,0.00053395,0.00012235,0.00056114,0.00010905,0.00094894,-0.00047288,-0.00018434,0.00056926,0.00034633,-0.00020911,0.00044413,1.7688e-005,0.00059325,-8.4682e-005,-0.00012076,0.00020316,-0.00024995,-0.00076553,0.00073865
0.00010875,0.00057519,0.00012442,0.00098179,1.9149e-005,0.0021947,0.0005356,0.0022096,0.00043266,0.0037162,-0.001874,-0.00082462,0.0022312,0.0013843,-0.00082534,0.0017588,6.7517e-005,0.0023348,-0.00022043,-0.00048075,0.00081088,-0.00099988,-0.0028825,0.0028729
0.00035314,0.0018899,0.00042046,0.0032334,7.7595e-005,0.0074977,0.0019487,0.0071951,0.0014209,0.012024,-0.006153,-0.0030602,0.007227,0.0045842,-0.0026938,0.005767,0.00021038,0.007593,-0.00027124,-0.0015878,0.0026827,-0.0033074,-0.0088141,0.0092225
0.00096713,0.0052362,0.0011999,0.0089841,0.00026403,0.021695,0.0060069,0.019721,0.0039331,0.032714,-0.017049,-0.009607,0.019691,0.012809,-0.0074006,0.015946,0.00054099,0.020767,0.00076913,-0.0044342,0.0074952,-0.0092038,-0.022049,0.024866
0.0022623,0.012391,0.002929,0.021333,0.00077186,0.053881,0.015908,0.046038,0.009294,0.075722,-0.040381,-0.025881,0.04567,0.030577,-0.017318,0.037663,0.001147,0.048323,0.0062583,-0.010618,0.01792,-0.02179,-0.044741,0.056966
0.0045584,0.025256,0.0061723,0.043668,0.0019757,0.11593,0.036562,0.0922,0.018905,0.15016,-0.082469,-0.060462,0.090818,0.062856,-0.034762,0.076648,0.0019661,0.096315,0.024148,-0.02202,0.037005,-0.044148,-0.07071,0.11164
0.0079516,0.044559,0.011294,0.077459,0.0044999,0.21735,0.073463,0.15881,0.033249,0.25569,-0.14593,-0.12343,0.15528,0.11167,-0.059996,0.13509,0.002546,0.16472,0.068541,-0.03984,0.0664,-0.076542,-0.074637,0.1876
0.01203,0.068145,0.017999,0.11926,0.0092432,0.35587,0.12966,0.23463,0.050593,0.37273,-0.2239,-0.22132,0.2278,0.17123,-0.08872,0.20652,0.0018406,0.2406,0.15751,-0.063181,0.10384,-0.11261,-0.0043265,0.26952
0.015766,0.090121,0.024997,0.15907,0.017297,0.50796,0.20152,0.29422,0.066317,0.46013,-0.29651,-0.34964,0.28416,0.2246,-0.11098,0.2732,-0.0016903,0.29568,0.30414,-0.08803,0.14157,-0.13718,0.21133,0.32784
0.017824,0.10236,0.030196,0.18253,0.029655,0.627,0.27592,0.30532,0.074042,0.46925,-0.33431,-0.48703,0.29528,0.24631,-0.1137,0.31019,-0.0094453,0.29416,0.5016,-0.10774,0.16778,-0.1292,0.6291,0.33069
0.017284,0.098638,0.031626,0.1778,0.046586,0.65633,0.33217,0.24639,0.068789,0.37339,-0.31015,-0.59732,0.24433,0.21278,-0.087034,0.29695,-0.021615,0.21103,0.70994,-0.11543,0.17177,-0.071229,1.2406,0.26552
0.014355,0.079277,0.028706,0.14367,0.066621,0.55504,0.35,0.12478,0.050734,0.19622,-0.21433,-0.64245,0.14311,0.11699,-0.031463,0.23042,-0.036305,0.050919,0.85804,-0.10731,0.15057,0.038434,1.9355,0.1564
0.010469,0.052686,0.022957,0.0929,0.085454,0.32325,0.3202,-0.019288,0.026802,0.014324,-0.063123,-0.60191,0.033263,-0.021926,0.03991,0.12974,-0.049691,-0.14791,0.86982,-0.084843,0.11218,0.17916,2.5178,0.059561
0.0074547,0.031358,0.017403,0.046591,0.095522,0.0080917,0.25055,-0.13174,0.0081235,-0.078376,0.10685,-0.48677,-0.034413,-0.16284,0.10709,0.026592,-0.057615,-0.33249,0.70863,-0.054167,0.072039,0.31409,2.7898,0.031897
0.0062761,0.024076,0.014821,0.021639,0.087318,-0.3186,0.16126,-0.17808,0.0040634,-0.028101,0.25559,-0.33726,-0.032312,-0.26101,0.15427,-0.054118,-0.057947,-0.46722,0.41506,-0.023018,0.044081,0.40787,2.6654,0.090076
0.0063168,0.029815,0.016014,0.019957,0.052828,-0.59955,0.07118,-0.16752,0.016429,0.13885,0.35631,-0.20301,0.023616,-0.29034,0.17855,-0.10908,-0.052189,-0.55507,0.10691,0.0026389,0.032401,0.44509,2.236,0.19139
0.0059226,0.038527,0.019486,0.02808,-0.0099074,-0.82113,-0.015083,-0.14697,0.037945,0.32718,0.39993,-0.11856,0.083639,-0.25468,0.18935,-0.15477,-0.04495,-0.62901,-0.071931,0.020007,0.030114,0.43607,1.7293,0.25603
0.0038471,0.038891,0.022852,0.028157,-0.093647,-1.0096,-0.10806,-0.1661,0.056418,0.4323,0.38714,-0.090797,0.099439,-0.18047,0.199,-0.21007,-0.041364,-0.71847,-0.032748,0.028496,0.026296,0.4053,1.3728,0.21888
0.00037917,0.027127,0.024825,0.01185,-0.18282,-1.1958,-0.21951,-0.2395,0.062046,0.40784,0.3192,-0.10551,0.057652,-0.097177,0.2126,-0.27798,-0.044086,-0.81945,0.19539,0.02803,0.015265,0.37151,1.2537,0.07314
-0.0028933,0.0096149,0.026085,-0.014184,-0.2591,-1.3771,-0.34414,-0.33682,0.053131,0.29235,0.19917,-0.14405,-0.015787,-0.021156,0.22551,-0.34231,-0.051989,-0.89594,0.46665,0.018632,0.00048891,0.33561,1.2747,-0.12744
-0.0045301,-0.0029458,0.028289,-0.035468,-0.30932,-1.5078,-0.45332,-0.40963,0.036699,0.17746,0.042893,-0.19371,-0.083647,0.045009,0.22969,-0.38194,-0.061378,-0.91383,0.59056,0.0015993,-0.0096618,0.28572,1.2412,-0.30756
-0.0046033,-0.0047451,0.032196,-0.042843,-0.33141,-1.5309,-0.50908,-0.43287,0.02405,0.14416,-0.11449,-0.24326,-0.13227,0.0997,0.22136,-0.38896,-0.068656,-0.87819,0.43473,-0.019315,-0.0098162,0.21349,1.0061,-0.41792
-0.00471,0.00057368,0.036704,-0.039882,-0.33468,-1.4251,-0.49035,-0.42578,0.02435,0.2142,-0.22951,-0.27171,-0.18134,0.1302,0.20213,-0.37349,-0.072355,-0.83981,-0.0048739,-0.038615,-0.0017951,0.12608,0.56101,-0.45485
-0.0065787,0.0037969,0.039787,-0.038519,-0.33411,-1.2305,-0.41146,-0.43464,0.039955,0.34648,-0.27557,-0.24599,-0.25939,0.11487,0.17289,-0.35041,-0.073264,-0.86323,-0.6084,-0.051806,0.0081249,0.042517,0.0090625,-0.44347
-0.010495,-0.0013913,0.040434,-0.047662,-0.3417,-1.0274,-0.31717,-0.49234,0.065469,0.47083,-0.26187,-0.13584,-0.36766,0.039754,0.12866,-0.3208,-0.073108,-0.98233,-1.2039,-0.058296,0.015296,-0.021601,-0.53982,-0.40752
-0.014936,-0.013193,0.039685,-0.065546,-0.35982,-0.883,-0.25605,-0.58912,0.090272,0.52839,-0.2267,0.063397,-0.4662,-0.084145,0.062182,-0.26655,-0.073202,-1.1792,-1.6567,-0.062044,0.019825,-0.066469,-1.0479,-0.35576
-0.017736,-0.024245,0.039634,-0.082415,-0.38042,-0.80451,-0.25102,-0.67864,0.10288,0.49224,-0.2066,0.31848,-0.49673,-0.21922,-0.025313,-0.16481,-0.07397,-1.3989,-1.9229,-0.069193,0.024172,-0.1055,-1.5354,-0.29246
-0.017794,-0.029107,0.041237,-0.090132,-0.39025,-0.73546,-0.28856,-0.71271,0.095334,0.3652,-0.20664,0.5686,-0.42381,-0.31948,-0.11657,-0.010731,-0.075012,-1.581,-2.0435,-0.084133,0.028677,-0.15038,-2.0005,-0.23368
-0.015924,-0.02946,0.043016,-0.089273,-0.37912,-0.59708,-0.33357,-0.67532,0.06613,0.16788,-0.19886,0.75322,-0.26049,-0.35694,-0.18362,0.17188,-0.075016,-1.6791,-2.0977,-0.10649,0.03041,-0.19817,-2.3656,-0.20655
-0.014223,-0.032345,0.042012,-0.087445,-0.34629,-0.344,-0.35784,-0.58941,0.020782,-0.070472,-0.1526,0.83962,-0.058853,-0.3374,-0.20451,0.34216,-0.071575,-1.6568,-2.1467,-0.13053,0.026809,-0.23273,-2.5152,-0.22924
-0.014509,-0.043474,0.036188,-0.09132,-0.30107,0.0062224,-0.36017,-0.49483,-0.030282,-0.31744,-0.070394,0.83407,0.12364,-0.29462,-0.17865,0.4675,-0.061807,-1.4787,-2.1991,-0.14688,0.019985,-0.2395,-2.397,-0.29101
-0.017083,-0.062035,0.026088,-0.10058,-0.25714,0.38847,-0.36421,-0.41866,-0.075599,-0.54402,0.0045371,0.77248,0.25361,-0.26729,-0.12793,0.54257,-0.044193,-1.118,-2.2057,-0.14545,0.016413,-0.21937,-2.0918,-0.35325
-0.020708,-0.08145,0.014273,-0.10927,-0.22384,0.73401,-0.39698,-0.36194,-0.10652,-0.73323,0.019813,0.69949,0.32649,-0.274,-0.08191,0.58764,-0.020515,-0.58133,-2.0865,-0.1191,0.021294,-0.18863,-1.7776,-0.3726
-0.023738,-0.094708,0.0032087,-0.11252,-0.20001,1.0074,-0.46545,-0.30925,-0.1192,-0.88417,-0.040247,0.64887,0.35088,-0.30178,-0.058455,0.62923,0.004114,0.072348,-1.7815,-0.067493,0.032511,-0.16498,-1.6121,-0.32738
-0.025417,-0.098904,-0.0062204,-0.11135,-0.17449,1.2094,-0.54825,-0.24791,-0.11418,-1.0058,-0.13394,0.63402,0.33234,-0.31353,-0.054533,0.67906,0.023965,0.74577,-1.3028,9.2641e-005,0.040082,-0.15277,-1.6274,-0.22715
-0.026263,-0.095206,-0.014197,-0.11106,-0.13335,1.3497,-0.6074,-0.17863,-0.094696,-1.1035,-0.18658,0.64948,0.2719,-0.26927,-0.053146,0.72664,0.036518,1.3479,-0.74869,0.066349,0.032202,-0.14154,-1.7271,-0.10248
-0.027219,-0.085511,-0.020261,-0.11519,-0.06914,1.416,-0.61043,-0.11083,-0.065487,-1.1694,-0.14219,0.67918,0.17573,-0.14928,-0.039527,0.74755,0.044412,1.8382,-0.25338,0.11362,0.0029937,-0.11912,-1.781,0.012424
-0.028353,-0.070209,-0.022606,-0.1215,0.014097,1.3692,-0.54674,-0.050463,-0.032734,-1.1864,-0.0020999,0.70527,0.06136,0.032657,-0.013479,0.7181,0.053859,2.2372,0.10939,0.13497,-0.044227,-0.086747,-1.7314,0.0906
-0.028374,-0.049728,-0.019576,-0.12407,0.10335,1.1715,-0.42825,0.0068367,-0.004086,-1.1432,0.17844,0.71368,-0.049028,0.23302,0.011001,0.62509,0.070842,2.5938,0.39862,0.14074,-0.10007,-0.061779,-1.6185,0.11513
-0.025583,-0.027818,-0.012086,-0.11934,0.18447,0.82502,-0.27644,0.072105,0.012933,-1.049,0.33,0.696,-0.14192,0.39854,0.017398,0.46773,0.09818,2.937,0.77961,0.15324,-0.15492,-0.06498,-1.5081,0.08167
-0.019556,-0.012103,-0.0043069,-0.10987,0.24949,0.39031,-0.1075,0.15368,0.014379,-0.93302,0.41235,0.65025,-0.21835,0.49254,0.00026991,0.25641,0.1353,3.2466,1.3917,0.19049,-0.20238,-0.10341,-1.3965,0.0042952
-0.012057,-0.0098199,-0.0012855,-0.10209,0.29864,-0.033752,0.073309,0.2507,0.0030645,-0.82718,0.43102,0.58294,-0.28565,0.51233,-0.029226,0.013224,0.17966,3.4613,2.198,0.25018,-0.23859,-0.16351,-1.1836,-0.082038
-0.0061798,-0.021806,-0.0051267,-0.10027,0.33663,-0.3564,0.26581,0.35354,-0.011607,-0.74433,0.42167,0.51126,-0.34372,0.48598,-0.049915,-0.22791,0.22723,3.5131,2.9414,0.30761,-0.26022,-0.21937,-0.74958,-0.13203
-0.0042697,-0.040359,-0.013108,-0.10245,0.36736,-0.53639,0.46474,0.44901,-0.018389,-0.66803,0.42168,0.46069,-0.38047,0.44911,-0.045143,-0.42742,0.27111,3.3644,3.2695,0.33156,-0.26469,-0.24799,-0.072165,-0.11224
-0.0062874,-0.053813,-0.019675,-0.10224,0.39141,-0.5897,0.65522,0.52578,-0.011167,-0.56366,0.4519,0.45447,-0.38224,0.41753,-0.015733,-0.55506,0.30066,3.0266,2.9588,0.30746,-0.25286,-0.23928,0.71355,-0.019935
-0.0099501,-0.054763,-0.020807,-0.094711,0.40764,-0.55998,0.81791,0.57766,0.0065462,-0.40437,0.51603,0.49824,-0.34901,0.37634,0.017902,-0.60586,0.30409,2.5599,2.083,0.24935,-0.23108,-0.19566,1.3711,0.11757
-0.012443,-0.045285,-0.017004,-0.080713,0.41636,-0.47645,0.9388,0.60505,0.023181,-0.19355,0.60825,0.57077,-0.2985,0.29543,0.027438,-0.60452,0.27498,2.0543,0.9981,0.19079,-0.20935,-0.12618,1.6989,0.26388
-0.012216,-0.034744,-0.012329,-0.065886,0.42073,-0.33378,1.0146,0.61485,0.026199,0.032057,0.71729,0.63076,-0.2532,0.16089,-0.0041823,-0.59141,0.21816,1.601,0.14274,0.16127,-0.19603,-0.043106,1.6486,0.39781
-0.0094981,-0.032005,-0.010559,-0.055499,0.42499,-0.11073,1.0495,0.61858,0.010106,0.22163,0.82498,0.63923,-0.22159,-0.0023009,-0.068791,-0.5976,0.14948,1.2584,-0.21198,0.16687,-0.19278,0.037618,1.3396,0.52086
-0.0054933,-0.038564,-0.012122,-0.05007,0.43151,0.18806,1.0468,0.62808,-0.02004,0.33896,0.9075,0.58333,-0.19105,-0.13594,-0.13518,-0.62639,0.087863,1.0291,-0.099207,0.1894,-0.1936,0.097453,0.96501,0.64299
-0.001299,-0.048133,-0.014516,-0.045593,0.43939,0.50469,1.0042,0.65062,-0.051884,0.38133,0.94562,0.48355,-0.13969,-0.18166,-0.16789,-0.65478,0.04461,0.86124,0.20224,0.20266,-0.18838,0.12281,0.66369,0.76214
0.0024514,-0.052558,-0.01545,-0.03768,0.44599,0.74388,0.91912,0.68609,-0.073424,0.37681,0.93858,0.37772,-0.056762,-0.11891,-0.1508,-0.65353,0.018007,0.68176,0.36753,0.19118,-0.16822,0.11555,0.45107,0.85801
0.0052741,-0.048626,-0.015374,-0.025471,0.45014,0.82638,0.79732,0.72828,-0.079901,0.36273,0.90895,0.29327,0.046098,0.018806,-0.098865,-0.60985,-0.0024926,0.44318,0.22697,0.15701,-0.12933,0.096472,0.249,0.90665
0.0066341,-0.040007,-0.016914,-0.011812,0.45407,0.74048,0.65788,0.76914,-0.075669,0.36091,0.88965,0.22946,0.14142,0.16023,-0.049327,-0.53585,-0.026155,0.15252,-0.1548,0.1123,-0.07389,0.09507,-0.024193,0.90194
0.0063651,-0.033225,-0.021994,-3.0083e-005,0.46191,0.54972,0.52669,0.80253,-0.070358,0.36662,0.89984,0.16322,0.20267,0.23352,-0.038566,-0.4579,-0.053516,-0.13938,-0.55084,0.066977,-0.0088215,0.13061,-0.38159,0.86279
0.0052947,-0.031719,-0.029671,0.0092171,0.47557,0.34793,0.42275,0.82531,-0.072207,0.35839,0.92764,0.072557,0.21642,0.20007,-0.081029,-0.39753,-0.077641,-0.38054,-0.72727,0.022917,0.056427,0.19835,-0.76427,0.81789
0.0051877,-0.033251,-0.036841,0.017997,0.49125,0.19599,0.34841,0.83608,-0.082874,0.32156,0.93534,-0.042534,0.18301,0.066923,-0.16406,-0.35936,-0.092156,-0.55854,-0.57628,-0.022761,0.11234,0.27216,-1.0944,0.78073
0.0076591,-0.032485,-0.041,0.028333,0.49989,0.090166,0.2923,0.83406,-0.096781,0.26845,0.88557,-0.15929,0.11168,-0.12311,-0.25935,-0.33368,-0.097927,-0.70619,-0.15595,-0.070716,0.15178,0.32173,-1.3285,0.73741
0.012757,-0.025887,-0.042336,0.039666,0.49228,-0.014619,0.24269,0.81935,-0.10509,0.23957,0.7698,-0.25129,0.019324,-0.31165,-0.33983,-0.30817,-0.10169,-0.86776,0.36435,-0.11584,0.17171,0.33087,-1.4668,0.65861
0.018445,-0.014524,-0.043329,0.049198,0.46549,-0.15055,0.19989,0.79322,-0.10157,0.28245,0.61653,-0.31078,-0.066731,-0.44281,-0.38928,-0.2773,-0.1077,-1.0543,0.80082,-0.14889,0.17321,0.30321,-1.5212,0.52551
0.021657,-0.0027314,-0.046508,0.054728,0.42551,-0.30103,0.17663,0.7563,-0.086528,0.41999,0.47102,-0.35559,-0.11183,-0.47563,-0.4014,-0.24218,-0.11063,-1.2263,1.0345,-0.16024,0.15959,0.253,-1.4863,0.34672
0.02035,0.0055611,-0.052524,0.057078,0.38343,-0.41402,0.18606,0.70508,-0.066378,0.62868,0.3599,-0.41528,-0.089602,-0.39421,-0.37478,-0.20395,-0.097207,-1.3179,1.0425,-0.14285,0.13409,0.19084,-1.3483,0.15124
0.015115,0.0094494,-0.059948,0.059579,0.34779,-0.44994,0.22791,0.63039,-0.049449,0.84249,0.26667,-0.50783,-0.0020664,-0.21666,-0.31173,-0.15935,-0.056801,-1.2862,0.88546,-0.094863,0.099064,0.11697,-1.1251,-0.035767
0.0090711,0.0108,-0.066462,0.065053,0.31919,-0.41747,0.28486,0.52189,-0.041235,0.98225,0.13699,-0.6246,0.11451,0.0035235,-0.22202,-0.10327,0.0074138,-1.1444,0.67319,-0.022949,0.057523,0.026541,-0.89329,-0.21237
0.0059755,0.012103,-0.070191,0.073178,0.29176,-0.36244,0.33167,0.37775,-0.042335,0.9943,-0.08827,-0.7342,0.20903,0.19237,-0.12501,-0.035511,0.076449,-0.95746,0.52306,0.055636,0.015121,-0.079658,-0.76254,-0.39674
0.0077889,0.014675,-0.070451,0.080846,0.26022,-0.31807,0.34921,0.21286,-0.049935,0.87534,-0.43371,-0.80155,0.24928,0.28661,-0.044041,0.035707,0.12542,-0.80233,0.5169,0.11685,-0.019975,-0.18888,-0.80526,-0.6046
0.013378,0.018426,-0.067943,0.085234,0.22637,-0.26113,0.33204,0.057663,-0.06083,0.66941,-0.86927,-0.809,0.24283,0.26619,0.0052548,0.097443,0.1387,-0.72527,0.66408,0.14108,-0.040395,-0.27959,-0.99176,-0.82829
0.019303,0.022645,-0.064561,0.086688,0.19902,-0.11521,0.28561,-0.053866,-0.073075,0.44046,-1.3204,-0.76661,0.22646,0.16626,0.023808,0.13964,0.11929,-0.72454,0.88923,0.12582,-0.043881,-0.33064,-1.1875,-1.0368
0.022197,0.026651,-0.062568,0.088649,0.18778,0.19719,0.21842,-0.099945,-0.08523,0.2387,-1.6997,-0.7069,0.23145,0.056847,0.027057,0.15958,0.085652,-0.76683,1.0629,0.089185,-0.034917,-0.32964,-1.2264,-1.1976
0.021088,0.029912,-0.063109,0.094585,0.19641,0.69337,0.13747,-0.079345,-0.094728,0.081237,-1.9386,-0.66822,0.25447,0.00073099,0.032862,0.15962,0.058809,-0.81966,1.0706,0.059206,-0.021847,-0.27647,-1.0169,-1.2997
0.018012,0.032109,-0.06497,0.10471,0.2218,1.3082,0.050455,-0.0070643,-0.09775,-0.043927,-2.004,-0.6764,0.25929,0.017155,0.048894,0.14149,0.049213,-0.87246,0.8819,0.05507,-0.011441,-0.18253,-0.60965,-1.3582
0.016441,0.033441,-0.064943,0.11543,0.2587,1.9277,-0.02988,0.097802,-0.091263,-0.15728,-1.8978,-0.73338,0.20801,0.076276,0.069421,0.10409,0.052553,-0.93138,0.56997,0.074748,-0.0052834,-0.068116,-0.17758,-1.3943
0.018623,0.034758,-0.06013,0.1221,0.30454,2.4524,-0.085732,0.22134,-0.075444,-0.26738,-1.6492,-0.81797,0.094755,0.12658,0.083221,0.048057,0.056206,-0.99519,0.26143,0.098957,-0.00088668,0.04159,0.085142,-1.4098
0.023821,0.036956,-0.050566,0.12247,0.3591,2.8409,-0.10128,0.35463,-0.054021,-0.36445,-1.3091,-0.89784,-0.046691,0.13312,0.085047,-0.017057,0.050152,-1.036,0.048525,0.1079,0.0036343,0.12269,0.084631,-1.3801
0.028854,0.039947,-0.039737,0.11805,0.41946,3.1047,-0.072441,0.48724,-0.031945,-0.42965,-0.94473,-0.94691,-0.16652,0.097729,0.080865,-0.071036,0.033633,-1.0052,-0.06997,0.096365,0.0056376,0.16023,-0.1062,-1.2726
0.030595,0.042313,-0.032109,0.11234,0.47601,3.2651,-0.012047,0.60343,-0.012406,-0.44987,-0.62718,-0.95893,-0.23239,0.048995,0.083244,-0.090963,0.01317,-0.86545,-0.17317,0.074727,-0.0015416,0.15313,-0.28036,-1.0773
0.028492,0.042343,-0.029598,0.10786,0.51467,3.3124,0.05383,0.68652,0.0040824,-0.42581,-0.4088,-0.94949,-0.24513,0.014445,0.10181,-0.064646,-0.0051063,-0.62529,-0.34054,0.056545,-0.02387,0.1123,-0.21459,-0.82359
0.025015,0.0397,-0.030167,0.10467,0.52409,3.2052,0.096855,0.7275,0.017843,-0.36842,-0.30141,-0.94428,-0.2266,-7.3286e-005,0.1369,0.00046933,-0.021519,-0.34926,-0.57431,0.045183,-0.061643,0.052148,0.19345,-0.56882
0.023552,0.036076,-0.029991,0.10128,0.50161,2.9083,0.098352,0.72912,0.027569,-0.29005,-0.27259,-0.95997,-0.19472,-0.008584,0.18069,0.080458,-0.041914,-0.12906,-0.78201,0.031927,-0.10854,-0.018195,0.84929,-0.36662
0.025467,0.033972,-0.027264,0.096637,0.45322,2.4353,0.055717,0.7008,0.030165,-0.19927,-0.26805,-0.98949,-0.1496,-0.026585,0.22334,0.14873,-0.070701,-0.03226,-0.8305,0.0065142,-0.15556,-0.096637,1.4956,-0.23937
0.028815,0.034588,-0.02405,0.09114,0.38825,1.857,-0.019329,0.64885,0.023586,-0.10322,-0.24775,-1.0025,-0.081835,-0.055227,0.25834,0.19077,-0.10414,-0.063377,-0.63122,-0.030611,-0.19649,-0.18155,1.8421,-0.1732
0.02992,0.036821,-0.024307,0.085973,0.31433,1.2672,-0.10845,0.57113,0.010103,-0.012307,-0.20987,-0.96195,0.0079532,-0.081932,0.28342,0.20915,-0.13011,-0.16473,-0.20105,-0.066129,-0.23023,-0.26347,1.7184,-0.1354
0.026526,0.038317,-0.029875,0.08181,0.23631,0.73294,-0.19535,0.46087,-0.0036497,0.059493,-0.18481,-0.84621,0.099674,-0.094334,0.29817,0.21593,-0.13526,-0.25583,0.33249,-0.083673,-0.25817,-0.32446,1.1609,-0.097369
0.01982,0.037538,-0.03826,0.078379,0.15796,0.27181,-0.27068,0.31527,-0.010952,0.099252,-0.20527,-0.66187,0.16569,-0.092353,0.30198,0.21909,-0.11402,-0.28151,0.77772,-0.076575,-0.27941,-0.34819,0.38195,-0.04606
0.013529,0.034828,-0.044408,0.075105,0.082754,-0.13152,-0.33182,0.14083,-0.01052,0.098712,-0.27867,-0.43877,0.19411,-0.086548,0.29444,0.21436,-0.072601,-0.2348,0.95283,-0.052413,-0.28863,-0.33347,-0.35539,0.019422
0.010865,0.031601,-0.044906,0.071792,0.012046,-0.48755,-0.37909,-0.048263,-0.0083234,0.052372,-0.38434,-0.21286,0.20145,-0.085238,0.27736,0.18922,-0.024951,-0.14334,0.75917,-0.02639,-0.27926,-0.29911,-0.87605,0.096404
0.011972,0.028718,-0.040719,0.068464,-0.056268,-0.7808,-0.41223,-0.23542,-0.013225,-0.045748,-0.49492,-0.010917,0.22042,-0.083928,0.25541,0.13572,0.015691,-0.037462,0.22607,-0.010529,-0.24942,-0.27352,-1.1596,0.18146
0.014074,0.025872,-0.035955,0.064693,-0.12557,-0.9832,-0.43,-0.40492,-0.029303,-0.19778,-0.59871,0.15245,0.27089,-0.06833,0.23395,0.061749,0.042918,0.070839,-0.49649,-0.0082175,-0.20547,-0.2752,-1.3038,0.26649
0.014086,0.022505,-0.033919,0.059507,-0.19577,-1.087,-0.43365,-0.54234,-0.051118,-0.38859,-0.70117,0.26785,0.33825,-0.029151,0.21534,-0.0089427,0.057108,0.18437,-1.2026,-0.017173,-0.15944,-0.29903,-1.4255,0.33632
0.011291,0.019042,-0.034178,0.052279,-0.26115,-1.1236,-0.43186,-0.63563,-0.066521,-0.57573,-0.80546,0.3257,0.37982,0.024704,0.19684,-0.048701,0.061168,0.30366,-1.7248,-0.035443,-0.12236,-0.32017,-1.5732,0.37498
0.0076993,0.016833,-0.033298,0.043714,-0.31449,-1.1498,-0.44255,-0.67978,-0.065562,-0.69952,-0.8943,0.32057,0.35719,0.067415,0.17206,-0.041475,0.057348,0.4176,-2.0028,-0.062862,-0.098582,-0.31401,-1.706,0.37765
0.0059465,0.016741,-0.02836,0.035696,-0.35462,-1.2103,-0.48795,-0.68136,-0.04872,-0.71571,-0.93409,0.26128,0.27019,0.072681,0.13548,0.0090413,0.048155,0.51132,-2.0835,-0.096299,-0.085318,-0.27706,-1.7378,0.35749
0.0067898,0.017909,-0.019852,0.029856,-0.38933,-1.3094,-0.58271,-0.65681,-0.027657,-0.63019,-0.89979,0.17491,0.16449,0.032561,0.086725,0.083643,0.03919,0.58033,-2.0573,-0.12466,-0.076772,-0.23201,-1.6038,0.33891
0.008573,0.018203,-0.011298,0.026158,-0.42915,-1.4127,-0.72093,-0.62238,-0.017373,-0.50591,-0.79749,0.097521,0.10429,-0.036751,0.031582,0.15998,0.039066,0.63369,-1.9838,-0.13126,-0.06844,-0.21166,-1.3031,0.34079
0.0090366,0.016057,-0.0061873,0.022891,-0.4761,-1.4749,-0.87097,-0.58319,-0.025524,-0.4297,-0.66275,0.05747,0.12906,-0.10708,-0.021088,0.22378,0.054433,0.68109,-1.8664,-0.10449,-0.058028,-0.23358,-0.89678,0.36282
0.0076016,0.011905,-0.0051812,0.018144,-0.51859,-1.4693,-0.98442,-0.53166,-0.046995,-0.45857,-0.53559,0.06442,0.2258,-0.15799,-0.064262,0.27223,0.083718,0.7168,-1.687,-0.049155,-0.043568,-0.28506,-0.47205,0.38638
0.0058583,0.0076721,-0.006008,0.011375,-0.53926,-1.3988,-1.0173,-0.4586,-0.067705,-0.58404,-0.4349,0.11149,0.33697,-0.18716,-0.095835,0.30961,0.11569,0.7169,-1.4557,0.011994,-0.022344,-0.3307,-0.096719,0.38957
0.0058144,0.0047806,-0.0057748,0.0036364,-0.53089,-1.2853,-0.95206,-0.36755,-0.074521,-0.74068,-0.35426,0.18529,0.39718,-0.20285,-0.11776,0.34095,0.13543,0.65339,-1.224,0.050026,0.0069586,-0.33718,0.21342,0.3642
0.0076843,0.0026513,-0.0032849,-0.0035875,-0.50634,-1.1523,-0.80673,-0.27851,-0.063769,-0.85114,-0.27956,0.27261,0.37115,-0.20648,-0.13234,0.36858,0.13368,0.51285,-1.0441,0.047504,0.040614,-0.29623,0.49845,0.32101
0.0094264,-0.0007104,0.00065202,-0.0096519,-0.49244,-1.0159,-0.62425,-0.2156,-0.042508,-0.87263,-0.20831,0.35897,0.26745,-0.18317,-0.13898,0.39276,0.11214,0.30507,-0.9206,0.0089238,0.069071,-0.2284,0.8258,0.27982
0.0084754,-0.0065168,0.0047383,-0.014907,-0.51124,-0.88759,-0.44883,-0.18873,-0.0225,-0.81213,-0.15124,0.42499,0.12311,-0.11144,-0.13408,0.41321,0.080581,0.058997,-0.8029,-0.044307,0.081422,-0.16571,1.2412,0.25376
0.0039682,-0.013475,0.0086983,-0.019844,-0.56402,-0.77924,-0.30451,-0.18616,-0.012025,-0.70516,-0.11657,0.44939,-0.023849,0.014687,-0.11388,0.42887,0.048455,-0.18603,-0.6342,-0.090506,0.072607,-0.12788,1.727,0.24097
-0.0026177,-0.018282,0.01331,-0.024436,-0.63139,-0.70402,-0.18903,-0.18558,-0.011367,-0.58132,-0.095619,0.41906,-0.15151,0.17132,-0.077461,0.43609,0.018265,-0.38698,-0.41027,-0.12279,0.047619,-0.11089,2.1971,0.23007
-0.0088356,-0.018112,0.019196,-0.028562,-0.68878,-0.67023,-0.084879,-0.17408,-0.014371,-0.44595,-0.066745,0.3374,-0.25183,0.31322,-0.027874,0.4279,-0.014098,-0.50515,-0.19069,-0.15071,0.018874,-0.095312,2.5369,0.21323
-0.013143,-0.013107,0.025793,-0.032962,-0.7234,-0.67341,0.0225,-0.15811,-0.013875,-0.28855,-0.015029,0.22274,-0.31849,0.4004,0.028618,0.3963,-0.053101,-0.52177,-0.045681,-0.18778,-0.0014991,-0.065454,2.6642,0.19487
-0.015526,-0.0067998,0.031503,-0.039324,-0.73836,-0.69231,0.13216,-0.15372,-0.0066558,-0.10512,0.051612,0.098874,-0.34147,0.42086,0.083006,0.33647,-0.097266,-0.45687,0.017359,-0.23578,-0.0084246,-0.02285,2.5698,0.18811
-0.01663,-0.0040248,0.034747,-0.04883,-0.7427,-0.69204,0.22738,-0.16647,0.0053295,0.088002,0.10694,-0.012843,-0.31539,0.39018,0.12296,0.24941,-0.13817,-0.37374,0.079801,-0.27945,-0.0045597,0.016102,2.3103,0.20205
-0.016674,-0.0077238,0.034864,-0.06033,-0.739,-0.63491,0.28505,-0.18131,0.017523,0.26004,0.12904,-0.093639,-0.25298,0.32949,0.13306,0.14105,-0.16526,-0.35427,0.25986,-0.29628,0.0050192,0.034604,1.9631,0.23043
-0.015399,-0.016859,0.032216,-0.070161,-0.72129,-0.49715,0.28804,-0.17383,0.026631,0.38406,0.12106,-0.12496,-0.18818,0.24367,0.098736,0.019185,-0.17247,-0.4526,0.619,-0.27367,0.019164,0.029463,1.5815,0.25128
-0.01293,-0.026873,0.027723,-0.074447,-0.6848,-0.28555,0.23478,-0.13356,0.032722,0.45082,0.11125,-0.093094,-0.16108,0.1213,0.013924,-0.10845,-0.16179,-0.65812,1.1014,-0.21957,0.042789,0.014353,1.1832,0.23869
-0.010353,-0.032439,0.022412,-0.072262,-0.63646,-0.043721,0.14331,-0.077325,0.03818,0.46788,0.13182,-0.0020353,-0.19347,-0.043039,-0.11193,-0.23285,-0.1421,-0.89793,1.5571,-0.15845,0.083599,0.011552,0.77045,0.17915
-0.0091532,-0.030724,0.017237,-0.06683,-0.59426,0.16044,0.047811,-0.038445,0.044702,0.4477,0.19446,0.11728,-0.27323,-0.22634,-0.25356,-0.34131,-0.12454,-1.0809,1.8328,-0.11585,0.14662,0.039059,0.3528,0.082081
-0.0099786,-0.023048,0.012956,-0.063319,-0.57427,0.26453,-0.014219,-0.040092,0.050983,0.39747,0.28266,0.21532,-0.36074,-0.37842,-0.37866,-0.41761,-0.11775,-1.1516,1.8617,-0.1034,0.23055,0.10072,-0.05516,-0.02235
-0.011968,-0.01386,0.0098959,-0.064877,-0.57668,0.24364,-0.021204,-0.076437,0.053138,0.31958,0.36535,0.25002,-0.41376,-0.44955,-0.46136,-0.44712,-0.12458,-1.113,1.689,-0.11466,0.32752,0.18297,-0.45831,-0.097875
-0.013399,-0.007796,0.0078414,-0.070314,-0.58405,0.12424,0.016938,-0.11906,0.047564,0.2201,0.41916,0.21309,-0.41316,-0.42273,-0.49244,-0.42426,-0.14117,-1.0041,1.4232,-0.13267,0.42471,0.25846,-0.896,-0.12182
-0.013119,-0.0068929,0.0063996,-0.075531,-0.57452,-0.030984,0.0605,-0.14324,0.034033,0.11507,0.44125,0.13534,-0.37097,-0.32343,-0.48015,-0.35703,-0.15831,-0.85639,1.1637,-0.14185,0.50647,0.29576,-1.4205,-0.099032
-0.011491,-0.0098456,0.0056992,-0.07738,-0.53924,-0.15856,0.064222,-0.15041,0.016619,0.026566,0.44532,0.065385,-0.31635,-0.19962,-0.44229,-0.26504,-0.16488,-0.67028,0.95764,-0.1352,0.5571,0.27359,-2.046,-0.060696
-0.010018,-0.013624,0.0067015,-0.076384,-0.48946,-0.22652,0.011925,-0.16628,0.0018354,-0.028871,0.4478,0.037441,-0.27155,-0.089874,-0.39552,-0.17174,-0.15287,-0.43336,0.80621,-0.11338,0.56519,0.19422,-2.7074,-0.046195
-0.0099635,-0.016002,0.010499,-0.075819,-0.44735,-0.24244,-0.063517,-0.21617,-0.0046227,-0.049589,0.45749,0.052393,-0.23675,-0.0059704,-0.34878,-0.095802,-0.12164,-0.16268,0.69027,-0.079534,0.52856,0.087238,-3.2694,-0.076997
-0.011162,-0.017007,0.016935,-0.078218,-0.42865,-0.23404,-0.094498,-0.29977,-0.00046651,-0.047337,0.47552,0.08388,-0.1945,0.059148,-0.3033,-0.046626,-0.078814,0.072095,0.58257,-0.035601,0.45633,-0.0031411,-3.5881,-0.13922
-0.012057,-0.018331,0.023805,-0.082789,-0.43132,-0.21948,-0.023168,-0.38805,0.012474,-0.036128,0.50163,0.10096,-0.12809,0.11039,-0.25702,-0.02574,-0.03635,0.17382,0.44333,0.016776,0.36479,-0.04395,-3.5877,-0.18882
-0.011037,-0.021459,0.027737,-0.086301,-0.43882,-0.19159,0.15318,-0.44513,0.029297,-0.021033,0.53843,0.087786,-0.037824,0.13866,-0.20894,-0.03151,-0.0039044,0.079361,0.22712,0.072903,0.26827,-0.037375,-3.2985,-0.17928
-0.0080253,-0.026194,0.026425,-0.086489,-0.43386,-0.12795,0.37024,-0.45597,0.044026,0.0036584,0.5891,0.047504,0.057637,0.12907,-0.16073,-0.062762,0.016208,-0.18888,-0.079949,0.12334,0.17121,-0.024667,-2.8343,-0.094719
-0.0049805,-0.030744,0.020475,-0.084511,-0.4106,-0.017926,0.53085,-0.43639,0.051833,0.046061,0.65198,-0.0071716,0.1346,0.080334,-0.1152,-0.11831,0.028837,-0.52467,-0.41514,0.15645,0.067959,-0.063372,-2.3279,0.035054
-0.0047073,-0.033119,0.013198,-0.08392,-0.37606,0.11645,0.56383,-0.41839,0.050931,0.10632,0.71862,-0.064407,0.18015,0.016496,-0.073717,-0.19319,0.040925,-0.79671,-0.63548,0.16406,-0.048777,-0.19024,-1.8701,0.14957
-0.0087338,-0.032555,0.0083257,-0.087099,-0.34143,0.22493,0.46672,-0.4247,0.043467,0.17397,0.7781,-0.11626,0.19744,-0.020397,-0.034725,-0.27568,0.055693,-0.92447,-0.58264,0.14652,-0.1772,-0.39406,-1.486,0.19366
-0.015901,-0.029852,0.0074944,-0.092633,-0.31227,0.25823,0.30256,-0.45435,0.034685,0.23545,0.82413,-0.156,0.19733,0.0078399,0.0057124,-0.34912,0.070661,-0.91801,-0.18396,0.11364,-0.30235,-0.61673,-1.1473,0.14985
-0.022903,-0.026552,0.0094769,-0.096216,-0.28556,0.20114,0.15438,-0.48885,0.030197,0.2848,0.85846,-0.17727,0.18491,0.11378,0.051387,-0.3987,0.080661,-0.85651,0.48382,0.080164,-0.40216,-0.78106,-0.79617,0.046225
-0.026487,-0.023877,0.011608,-0.094353,-0.25463,0.084037,0.0717,-0.5104,0.0325,0.32709,0.88729,-0.17825,0.15316,0.2754,0.10289,-0.41861,0.082805,-0.82564,1.2221,0.05815,-0.45863,-0.8257,-0.361,-0.062468
-0.025641,-0.02232,0.011958,-0.087488,-0.21611,-0.037147,0.046614,-0.51525,0.038914,0.37063,0.91381,-0.16611,0.089103,0.44328,0.15582,-0.41376,0.079057,-0.86034,1.8141,0.050912,-0.46461,-0.72543,0.23372,-0.12448
-0.022038,-0.021989,0.010454,-0.079809,-0.17301,-0.11868,0.032584,-0.51242,0.042819,0.41418,0.9329,-0.15446,-0.012746,0.55929,0.2019,-0.39404,0.074559,-0.9301,2.1312,0.052364,-0.42155,-0.49036,1.0446,-0.11229
-0.018488,-0.023037,0.0083888,-0.075972,-0.13269,-0.15679,-0.013951,-0.51282,0.038123,0.44126,0.93269,-0.15288,-0.14103,0.57941,0.23304,-0.36572,0.073468,-0.96948,2.1681,0.052168,-0.33215,-0.15423,2.0691,-0.027277
-0.0168,-0.025552,0.0072259,-0.077576,-0.10286,-0.18607,-0.10319,-0.52025,0.024303,0.42919,0.90154,-0.1568,-0.26986,0.49262,0.24676,-0.32722,0.075733,-0.92577,1.9951,0.042645,-0.19722,0.23324,3.2119,0.10692
-0.016856,-0.028999,0.007865,-0.082193,-0.088797,-0.25209,-0.2133,-0.53152,0.0082725,0.36805,0.83515,-0.14789,-0.37103,0.32818,0.24953,-0.27318,0.076755,-0.7903,1.6785,0.022058,-0.021727,0.607,4.2959,0.25346
-0.017443,-0.031984,0.010622,-0.085437,-0.092383,-0.38089,-0.31599,-0.54259,0.00097909,0.27486,0.73852,-0.1073,-0.42711,0.14578,0.25507,-0.20288,0.069533,-0.59746,1.2353,-0.0078581,0.175,0.89124,5.1292,0.37083
-0.017784,-0.032919,0.015373,-0.084177,-0.11159,-0.56689,-0.4007,-0.55322,0.010431,0.18917,0.62238,-0.032209,-0.43636,0.010148,0.27764,-0.12511,0.047734,-0.39879,0.65366,-0.046822,0.35611,1.0195,5.5963,0.42337
-0.018228,-0.031228,0.021411,-0.078457,-0.14041,-0.78323,-0.47744,-0.56656,0.03597,0.15035,0.4983,0.057941,-0.40753,-0.038526,0.32351,-0.054525,0.0086379,-0.2325,-0.054186,-0.097453,0.47828,0.96601,5.7119,0.39408
-0.019563,-0.028057,0.027315,-0.071017,-0.17049,-1,-0.55994,-0.58596,0.068245,0.17189,0.37714,0.13173,-0.34981,-0.0020744,0.38601,-0.002111,-0.044492,-0.10487,-0.81654,-0.16065,0.51248,0.76794,5.5953,0.29264
-0.02181,-0.025644,0.031351,-0.065175,-0.1948,-1.1939,-0.64749,-0.61365,0.095221,0.23343,0.27145,0.16536,-0.2659,0.080569,0.44765,0.031968,-0.10154,0.010355,-1.5164,-0.2288,0.46038,0.51512,5.3831,0.15044
-0.023781,-0.025685,0.032407,-0.062726,-0.21094,-1.3457,-0.72242,-0.65154,0.10975,0.29789,0.19671,0.15635,-0.1528,0.15677,0.4882,0.05741,-0.14764,0.15772,-2.0404,-0.28422,0.35372,0.30747,5.144,0.0027844
-0.023872,-0.027976,0.030756,-0.063115,-0.22074,-1.4353,-0.76358,-0.70134,0.1129,0.34109,0.16638,0.1211,-0.0090364,0.18634,0.49372,0.085908,-0.16875,0.37773,-2.3246,-0.30667,0.23635,0.20413,4.8567,-0.12935
-0.021329,-0.030464,0.027954,-0.064065,-0.22587,-1.4446,-0.76203,-0.76172,0.1107,0.36933,0.18084,0.079837,0.15724,0.15494,0.46091,0.12323,-0.15863,0.68421,-2.3678,-0.28549,0.14121,0.19841,4.4583,-0.24362
-0.016888,-0.030695,0.025927,-0.062993,-0.2239,-1.3677,-0.72545,-0.82516,0.10757,0.40969,0.21868,0.042821,0.32483,0.070829,0.39561,0.167,-0.12284,1.0506,-2.2158,-0.22735,0.07794,0.23505,3.9182,-0.34367
-0.012272,-0.027454,0.025934,-0.058388,-0.20939,-1.216,-0.67039,-0.87924,0.10215,0.48067,0.24017,0.0092279,0.46355,-0.046165,0.30802,0.21018,-0.076671,1.414,-1.9367,-0.1529,0.037852,0.25493,3.2761,-0.42244
-0.0090526,-0.021407,0.028046,-0.050539,-0.1799,-1.0121,-0.61139,-0.91333,0.089179,0.56837,0.20544,-0.022642,0.54399,-0.17193,0.20932,0.24536,-0.03744,1.6996,-1.605,-0.084908,0.0094614,0.23336,2.62,-0.45871
-0.0077537,-0.014457,0.031218,-0.041393,-0.14088,-0.77527,-0.55547,-0.92583,0.065207,0.62966,0.097453,-0.046122,0.54824,-0.27851,0.11153,0.26602,-0.016178,1.8542,-1.292,-0.036817,-0.0091767,0.1859,2.0297,-0.43215
-0.0077711,-0.0085867,0.033713,-0.033588,-0.10336,-0.51393,-0.50124,-0.92506,0.032989,0.62154,-0.066438,-0.048736,0.47624,-0.33476,0.028277,0.26528,-0.013877,1.8691,-1.0534,-0.0095766,-0.010422,0.14349,1.5323,-0.34329
-0.0079895,-0.0050652,0.033761,-0.029045,-0.075221,-0.2308,-0.43777,-0.92225,0.00070627,0.5335,-0.24377,-0.024815,0.34459,-0.3156,-0.026652,0.23562,-0.024259,1.7752,-0.91096,0.0028474,0.013127,0.12279,1.1015,-0.21869
-0.007581,-0.0042629,0.030429,-0.027791,-0.053998,0.063812,-0.34358,-0.92256,-0.022962,0.39761,-0.39122,0.014752,0.17894,-0.21857,-0.044246,0.17196,-0.040175,1.6118,-0.84237,0.0056996,0.059331,0.11726,0.69285,-0.094257
-0.0064829,-0.005733,0.024441,-0.027764,-0.028999,0.34629,-0.19389,-0.92278,-0.033559,0.26893,-0.48638,0.046817,0.0041353,-0.075291,-0.025515,0.07598,-0.058554,1.3947,-0.79279,0.00011768,0.11621,0.11274,0.28615,0.010047
-0.0053186,-0.0082992,0.018198,-0.025851,0.0077377,0.58923,0.019117,-0.91817,-0.031914,0.19228,-0.53242,0.052028,-0.16254,0.055507,0.017341,-0.042334,-0.080698,1.1101,-0.70729,-0.01449,0.16995,0.10815,-0.094914,0.10167
-0.0048258,-0.01032,0.014519,-0.019673,0.051355,0.77836,0.26373,-0.91146,-0.021817,0.17965,-0.54546,0.028343,-0.31201,0.11472,0.06588,-0.16829,-0.10866,0.74187,-0.56382,-0.036509,0.21315,0.1186,-0.39457,0.20356
-0.0051255,-0.010357,0.014618,-0.0090708,0.085206,0.91955,0.46683,-0.9143,-0.0073482,0.21151,-0.53843,-0.010456,-0.43898,0.074554,0.10398,-0.28882,-0.14123,0.31001,-0.38352,-0.061186,0.24599,0.15677,-0.55918,0.33066
-0.0053594,-0.00799,0.016848,0.0036415,0.093714,1.0265,0.54705,-0.93745,0.0079418,0.25667,-0.51566,-0.049297,-0.53635,-0.045898,0.12477,-0.3967,-0.17261,-0.11672,-0.21237,-0.083221,0.27077,0.21094,-0.57369,0.47684
-0.004127,-0.0040838,0.017528,0.014838,0.076561,1.0983,0.46807,-0.97742,0.020677,0.29418,-0.48046,-0.084638,-0.5932,-0.19275,0.13198,-0.48944,-0.19467,-0.4505,-0.090436,-0.099643,0.28646,0.24328,-0.4804,0.62234
-0.00061642,-0.00015209,0.013623,0.021492,0.051344,1.1096,0.27228,-1.0123,0.028344,0.32358,-0.44553,-0.12255,-0.59803,-0.30913,0.13538,-0.56377,-0.20077,-0.63737,-0.032928,-0.10992,0.28936,0.21418,-0.36871,0.75148
0.0043871,0.0027318,0.0053139,0.022764,0.041241,1.0255,0.061619,-1.0124,0.031605,0.361,-0.43405,-0.16408,-0.54532,-0.36512,0.14426,-0.61068,-0.18895,-0.6905,-0.033718,-0.11362,0.27868,0.11427,-0.338,0.86116
0.0086167,0.0045249,-0.0037035,0.020406,0.057264,0.83522,-0.068283,-0.95966,0.035894,0.42651,-0.46948,-0.19349,-0.44054,-0.36596,0.16311,-0.61585,-0.1626,-0.6751,-0.081498,-0.10874,0.26044,-0.023179,-0.45123,0.95275
0.0098032,0.0058293,-0.0086766,0.017796,0.089702,0.57383,-0.093206,-0.85988,0.049212,0.53014,-0.56302,-0.1835,-0.30008,-0.3357,0.19174,-0.56622,-0.12872,-0.6559,-0.17015,-0.092759,0.24441,-0.14119,-0.70403,1.0191
0.0075009,0.007027,-0.0072795,0.018141,0.11586,0.3107,-0.072574,-0.73879,0.076062,0.66132,-0.70974,-0.11611,-0.1458,-0.29167,0.2281,-0.4589,-0.094709,-0.65038,-0.29428,-0.065675,0.23584,-0.19541,-1.0267,1.0441
0.0036747,0.0078872,-0.0014508,0.022864,0.11767,0.10802,-0.096406,-0.62482,0.1116,0.78533,-0.895,-0.0023095,0.002229,-0.23125,0.27029,-0.30561,-0.065641,-0.62616,-0.43756,-0.031704,0.22973,-0.17945,-1.3172,1.0181
0.0013286,0.0080581,0.0038868,0.031057,0.094957,-0.020183,-0.20773,-0.53248,0.14141,0.85022,-1.1035,0.11683,0.13104,-0.14133,0.31508,-0.1288,-0.043325,-0.54316,-0.56809,0.0022878,0.21373,-0.12115,-1.4846,0.95292
0.0021674,0.0078879,0.0043417,0.040258,0.06442,-0.11496,-0.36226,-0.45838,0.14872,0.80547,-1.3208,0.19134,0.23681,-0.021218,0.35411,0.049008,-0.027544,-0.403,-0.64704,0.030539,0.17794,-0.055891,-1.4793,0.87708
0.0052635,0.008643,-0.00075602,0.048003,0.046355,-0.23797,-0.45782,-0.39078,0.12481,0.62733,-1.526,0.19222,0.32408,0.10196,0.37246,0.21569,-0.018156,-0.26243,-0.64285,0.051226,0.12377,-0.00068931,-1.3011,0.81246
0.007925,0.011768,-0.0078276,0.053119,0.050666,-0.42189,-0.41078,-0.32221,0.075356,0.33816,-1.684,0.13045,0.40266,0.18123,0.35323,0.37265,-0.016096,-0.19847,-0.53953,0.066202,0.064099,0.051076,-0.98985,0.75218
0.0080307,0.017751,-0.011602,0.056039,0.072727,-0.64463,-0.22161,-0.25427,0.017308,0.005607,-1.7499,0.053702,0.48161,0.17771,0.28744,0.52854,-0.022275,-0.2527,-0.33617,0.078308,0.014613,0.11408,-0.61312,0.66425
0.005798,0.025543,-0.0089518,0.058145,0.10048,-0.84621,0.017796,-0.1919,-0.031548,-0.2833,-1.6868,0.023676,0.56074,0.087701,0.18226,0.68818,-0.035385,-0.39852,-0.045276,0.088855,-0.016676,0.19153,-0.25044,0.52162
0.0034975,0.03302,-0.0012347,0.060787,0.125,-0.97205,0.17796,-0.13482,-0.062879,-0.46203,-1.49,0.087314,0.62428,-0.052529,0.060274,0.8448,-0.050861,-0.55547,0.30262,0.097256,-0.03381,0.26884,0.029036,0.33366
0.0034797,0.038155,0.0066479,0.06463,0.14535,-1.0068,0.16881,-0.07488,-0.080199,-0.51489,-1.1984,0.25623,0.64334,-0.18912,-0.051953,0.9809,-0.062371,-0.63886,0.65333,0.10256,-0.048726,0.3237,0.19587,0.14915
0.0062947,0.040103,0.0098797,0.06953,0.16496,-0.97503,-0.0074454,-0.0018249,-0.09203,-0.47781,-0.88193,0.50319,0.58971,-0.28367,-0.13863,1.077,-0.064844,-0.609,0.93577,0.10503,-0.072907,0.34101,0.27928,0.024129
0.01043,0.039524,0.0073654,0.074666,0.18469,-0.91561,-0.25417,0.088343,-0.10202,-0.40861,-0.6096,0.77598,0.45435,-0.33215,-0.20179,1.1219,-0.056555,-0.4885,1.087,0.10635,-0.11124,0.31978,0.35306,-0.02054
0.01366,0.038066,0.0025152,0.078733,0.19995,-0.85719,-0.42545,0.18976,-0.10463,-0.34767,-0.41626,1.0216,0.25787,-0.35674,-0.25491,1.118,-0.038703,-0.34117,1.0813,0.10844,-0.16126,0.26855,0.48635,-0.016257
0.014668,0.037397,0.00043553,0.080288,0.20448,-0.81525,-0.39512,0.28986,-0.090309,-0.2972,-0.29031,1.2087,0.044325,-0.37957,-0.30837,1.078,-0.013461,-0.2306,0.93715,0.11207,-0.2162,0.19702,0.68962,-0.02321
0.013644,0.038423,0.0036953,0.078477,0.19648,-0.80535,-0.11968,0.37512,-0.055531,-0.23264,-0.18951,1.3361,-0.13821,-0.40122,-0.35879,1.0173,0.017104,-0.18525,0.69196,0.11628,-0.2684,0.11292,0.90118,-0.085015
0.011637,0.041071,0.010165,0.073878,0.18084,-0.85013,0.33217,0.43465,-0.0090666,-0.13404,-0.072272,1.4243,-0.25681,-0.40146,-0.39094,0.94654,0.050065,-0.18825,0.36461,0.1184,-0.31103,0.026131,1.0325,-0.19801
0.0095386,0.044611,0.014862,0.068745,0.16496,-0.96527,0.80186,0.46096,0.031647,-0.0094724,0.078295,1.4969,-0.30067,-0.3599,-0.39012,0.87012,0.080141,-0.19379,-0.056402,0.11459,-0.33875,-0.046225,1.0414,-0.31817
0.0076653,0.048141,0.014357,0.065995,0.1524,-1.1342,1.1121,0.45151,0.051707,0.10934,0.25299,1.565,-0.2749,-0.27767,-0.35403,0.79013,0.10036,-0.15831,-0.57878,0.10081,-0.34823,-0.081281,0.97157,-0.39663
0.0061158,0.050865,0.0099775,0.067278,0.14056,-1.2973,1.1563,0.41219,0.048994,0.19432,0.43369,1.6251,-0.19081,-0.18114,-0.2947,0.71178,0.10564,-0.068713,-1.1505,0.074767,-0.33905,-0.059925,0.92081,-0.41283
0.0052675,0.052118,0.0068946,0.071495,0.12473,-1.3727,0.95475,0.35943,0.035551,0.24584,0.61121,1.6693,-0.062467,-0.10484,-0.22995,0.64467,0.096883,0.048018,-1.6368,0.038505,-0.31403,0.021618,0.95749,-0.38058
0.0057043,0.051397,0.0097163,0.075148,0.10476,-1.2998,0.63957,0.31526,0.029054,0.29218,0.78827,1.6961,0.089503,-0.068244,-0.17313,0.59825,0.08162,0.13954,-1.8691,-0.00011763,-0.27861,0.14658,1.0548,-0.32804
0.0075704,0.048582,0.018329,0.074615,0.087687,-1.0749,0.37219,0.29553,0.040818,0.36309,0.96792,1.7109,0.23478,-0.065036,-0.12972,0.57442,0.069971,0.15996,-1.745,-0.029058,-0.23924,0.28315,1.0985,-0.27428
0.010068,0.044207,0.02767,0.068763,0.083731,-0.75465,0.24624,0.29905,0.068977,0.46061,1.1415,1.7187,0.33842,-0.072182,-0.10158,0.56356,0.068351,0.10055,-1.3092,-0.037242,-0.20138,0.39805,0.96502,-0.22261
0.011791,0.039411,0.031752,0.059832,0.098783,-0.42505,0.24293,0.30758,0.10107,0.5525,1.2895,1.7154,0.37415,-0.069216,-0.09214,0.54807,0.075692,0.0002421,-0.74531,-0.020657,-0.16763,0.47019,0.60784,-0.17127
0.011765,0.035383,0.028533,0.051789,0.13,-0.15874,0.26856,0.29883,0.12313,0.59437,1.3948,1.6887,0.33767,-0.051476,-0.10547,0.51207,0.085061,-0.071374,-0.27171,0.014803,-0.13685,0.49685,0.085585,-0.12486
0.010256,0.032623,0.021504,0.04742,0.16792,0.012156,0.24174,0.26286,0.12824,0.56152,1.4564,1.6254,0.25092,-0.028176,-0.13969,0.45077,0.089325,-0.048814,-0.012526,0.056208,-0.10536,0.4896,-0.48244,-0.092386
0.0084932,0.030621,0.016723,0.046471,0.20296,0.095716,0.16002,0.20847,0.11874,0.46424,1.4915,1.5189,0.15371,-0.010008,-0.18182,0.37318,0.086488,0.097758,0.0623,0.090457,-0.07048,0.46359,-0.9879,-0.0746
0.0074654,0.028331,0.01794,0.046245,0.23043,0.12084,0.094708,0.15427,0.10201,0.33521,1.5252,1.3682,0.087194,0.0013635,-0.21112,0.29675,0.080793,0.35148,0.084168,0.11028,-0.034347,0.42771,-1.3725,-0.056493
0.0069266,0.025136,0.02394,0.043989,0.25055,0.11661,0.12301,0.11267,0.084202,0.2023,1.5778,1.1727,0.077252,0.013451,-0.21038,0.23849,0.079096,0.66079,0.16697,0.11536,-0.0047495,0.38185,-1.6157,-0.016138
0.0056526,0.021503,0.030049,0.039025,0.2645,0.1024,0.2584,0.080992,0.067218,0.070941,1.6601,0.92912,0.12541,0.034724,-0.17673,0.20913,0.085421,0.96292,0.32128,0.10881,0.0091866,0.32191,-1.7041,0.056217
0.0027909,0.018705,0.032128,0.032994,0.27097,0.088772,0.43821,0.046968,0.050567,-0.070255,1.7748,0.63797,0.21025,0.066796,-0.12364,0.2126,0.097641,1.2045,0.46953,0.093193,0.004149,0.24746,-1.6299,0.14657
-0.00099358,0.017753,0.029485,0.02827,0.26667,0.081308,0.57597,0.0024945,0.035416,-0.22867,1.9179,0.31472,0.29731,0.10364,-0.072194,0.24764,0.10845,1.3524,0.5403,0.069776,-0.013193,0.16566,-1.4216,0.22494
-0.0037885,0.018448,0.024548,0.026061,0.2502,0.081494,0.63003,-0.047619,0.026413,-0.39256,2.0744,-0.0055602,0.35199,0.13696,-0.038706,0.30658,0.10984,1.3965,0.55035,0.041109,-0.029631,0.088318,-1.1688,0.26654
-0.0040119,0.019438,0.020217,0.025672,0.22513,0.084406,0.62835,-0.089605,0.029089,-0.53573,2.2151,-0.27742,0.34966,0.16156,-0.027489,0.3709,0.098164,1.3493,0.59529,0.013157,-0.035004,0.024978,-0.9922,0.26814
-0.0018785,0.019327,0.01765,0.025265,0.19899,0.0773,0.63088,-0.11297,0.044764,-0.637,2.3019,-0.46505,0.27964,0.17635,-0.0325,0.40966,0.07681,1.2415,0.75544,-0.0061261,-0.030461,-0.022302,-0.96595,0.24691
0.0006565,0.017866,0.016285,0.023272,0.17785,0.042316,0.66655,-0.11979,0.067434,-0.69628,2.3033,-0.56026,0.14418,0.1816,-0.044292,0.38806,0.055064,1.1116,1.0047,-0.010977,-0.027931,-0.058485,-1.0536,0.22529
0.0015093,0.016115,0.015447,0.019345,0.16064,-0.036753,0.70294,-0.12396,0.085926,-0.73265,2.2092,-0.58548,-0.04445,0.17644,-0.055759,0.28579,0.0438,0.98965,1.2121,-0.00082744,-0.040279,-0.090494,-1.1244,0.2169
0.000197,0.015308,0.015445,0.014393,0.13802,-0.16628,0.67478,-0.14279,0.090559,-0.76665,2.0328,-0.57882,-0.26615,0.15905,-0.063374,0.11434,0.050193,0.88506,1.2423,0.020623,-0.069864,-0.1219,-1.0523,0.22457
-0.0018955,0.015448,0.016949,0.0099338,0.097948,-0.33651,0.54418,-0.18872,0.07978,-0.80207,1.7967,-0.5708,-0.49473,0.12817,-0.065721,-0.081317,0.073938,0.7864,1.0689,0.048738,-0.10512,-0.15101,-0.82255,0.24772
-0.0029428,0.014993,0.019535,0.0073375,0.035112,-0.52014,0.33853,-0.26586,0.061849,-0.82249,1.517,-0.56893,-0.70118,0.083692,-0.062798,-0.24215,0.10671,0.67535,0.79518,0.079427,-0.12834,-0.17271,-0.55254,0.28794
-0.0024382,0.01211,0.0213,0.007276,-0.042283,-0.67788,0.13373,-0.36968,0.05007,-0.80434,1.1993,-0.56013,-0.85896,0.026548,-0.056886,-0.32514,0.13522,0.54406,0.55714,0.10671,-0.12823,-0.18167,-0.40196,0.34599
-0.0016035,0.0064741,0.020274,0.0094397,-0.11401,-0.77095,-0.00028867,-0.48623,0.054784,-0.73487,0.85255,-0.52853,-0.94951,-0.039712,-0.052415,-0.3239,0.14679,0.40238,0.39091,0.11934,-0.10711,-0.17513,-0.44082,0.41469
-0.0020486,-1.9842e-005,0.016334,0.012527,-0.15788,-0.77668,-0.043969,-0.59144,0.077644,-0.6211,0.50529,-0.47416,-0.96449,-0.10533,-0.052717,-0.26566,0.13496,0.27001,0.18735,0.10215,-0.077375,-0.15458,-0.58774,0.47707
-0.0039728,-0.0044128,0.011607,0.01466,-0.16222,-0.69993,-0.027423,-0.65467,0.11183,-0.48485,0.20943,-0.41762,-0.90435,-0.15282,-0.055553,-0.18845,0.10253,0.16208,-0.21416,0.044327,-0.051245,-0.1266,-0.67408,0.51291
-0.0057082,-0.0048447,0.008747,0.014308,-0.13219,-0.5728,0.0080027,-0.64907,0.14728,-0.34992,0.021968,-0.38659,-0.77609,-0.16305,-0.052348,-0.11706,0.060239,0.080968,-0.86172,-0.049881,-0.032829,-0.1019,-0.5823,0.50716
-0.0051905,-0.0019398,0.0086275,0.011379,-0.085093,-0.44134,0.046656,-0.56474,0.17655,-0.23191,-0.024257,-0.39479,-0.59403,-0.12854,-0.033977,-0.055791,0.021423,0.019898,-1.5954,-0.15684,-0.018367,-0.091361,-0.34204,0.45175
-0.002092,0.0016968,0.0096541,0.0076481,-0.038089,-0.34548,0.10105,-0.41579,0.19701,-0.13583,0.05818,-0.43021,-0.38324,-0.064929,0.00029189,-0.00012603,-0.0044857,-0.028242,-2.1118,-0.24115,-0.0028047,-0.099922,-0.10287,0.34024
0.0014163,0.0033585,0.009377,0.0058428,0.0024519,-0.30326,0.18251,-0.23507,0.20885,-0.059934,0.21213,-0.46263,-0.18011,-0.0082443,0.038577,0.046503,-0.015869,-0.067054,-2.1529,-0.27229,0.014088,-0.12221,-0.0090438,0.1632
0.0021967,0.0019091,0.0068839,0.0076859,0.042184,-0.30702,0.27294,-0.059033,0.21182,-0.00029283,0.35815,-0.46527,-0.024002,0.0051016,0.062247,0.067427,-0.017904,-0.10041,-1.6783,-0.24024,0.026982,-0.14455,-0.08467,-0.088382
-0.0011737,-0.001923,0.0037275,0.012314,0.090536,-0.33124,0.32788,0.088223,0.20397,0.046216,0.42544,-0.43409,0.058961,-0.036347,0.05886,0.042758,-0.017466,-0.13662,-0.89111,-0.15986,0.02881,-0.15375,-0.22531,-0.41332
-0.0068999,-0.0064511,0.0025568,0.016577,0.15075,-0.34485,0.30988,0.20238,0.18323,0.079391,0.37585,-0.39035,0.06951,-0.10866,0.032031,-0.036192,-0.01763,-0.18498,-0.096996,-0.061365,0.014754,-0.14681,-0.29693,-0.79353
-0.0111,-0.010069,0.0047533,0.017331,0.21687,-0.32115,0.22161,0.29536,0.14953,0.092348,0.21146,-0.36491,0.034166,-0.16833,-0.00073226,-0.16194,-0.015831,-0.24594,0.49212,0.026401,-0.016466,-0.13364,-0.25153,-1.1966
-0.010768,-0.011688,0.0092007,0.014026,0.27987,-0.24377,0.10772,0.38501,0.10523,0.069671,-0.03469,-0.37637,-0.012633,-0.18457,-0.02169,-0.31832,-0.0070504,-0.30509,0.86211,0.088814,-0.062995,-0.12946,-0.16071,-1.5842
-0.0061062,-0.010765,0.013174,0.0093053,0.33636,-0.11145,0.022468,0.48495,0.053567,-0.0080015,-0.31801,-0.41887,-0.050439,-0.16229,-0.027293,-0.49086,0.010459,-0.33893,1.1395,0.12694,-0.11945,-0.14233,-0.14623,-1.9178
-0.00021815,-0.0074736,0.014417,0.0068967,0.3915,0.057607,-0.00953,0.59907,-0.0024252,-0.15108,-0.60161,-0.46713,-0.080421,-0.13525,-0.031015,-0.66872,0.031528,-0.329,1.4352,0.14895,-0.17565,-0.16609,-0.27647,-2.1565
0.0035201,-0.0029708,0.012609,0.008432,0.45289,0.22636,-0.0073167,0.72166,-0.059342,-0.34561,-0.86584,-0.49384,-0.11166,-0.13325,-0.051279,-0.83804,0.045733,-0.272,1.726,0.15988,-0.21719,-0.18509,-0.51944,-2.2561
0.0040764,0.00091423,0.009212,0.011974,0.52113,0.35073,-0.012856,0.84169,-0.11204,-0.54718,-1.1041,-0.48694,-0.13896,-0.15088,-0.093846,-0.97729,0.043505,-0.17779,1.8703,0.15811,-0.23004,-0.18718,-0.78248,-2.1795
0.0031058,0.0028625,0.0061907,0.013655,0.58601,0.40166,-0.055509,0.94893,-0.15408,-0.69344,-1.3099,-0.45604,-0.13476,-0.14705,-0.14339,-1.0636,0.022293,-0.060054,1.7373,0.14012,-0.20736,-0.17368,-0.98889,-1.9191
0.0029313,0.0032879,0.0048658,0.011116,0.63267,0.38569,-0.13143,1.039,-0.18084,-0.73309,-1.4667,-0.42565,-0.066345,-0.079268,-0.1722,-1.0869,-0.011849,0.068186,1.3361,0.10768,-0.15318,-0.15767,-1.1165,-1.5164
0.004243,0.0042282,0.0056257,0.0057741,0.65281,0.34811,-0.21171,1.115,-0.19275,-0.65573,-1.5514,-0.4212,0.07468,0.05402,-0.16001,-1.0581,-0.048274,0.18878,0.83475,0.069632,-0.079916,-0.15174,-1.1717,-1.0599
0.0056929,0.0075504,0.0082399,0.001885,0.65163,0.35153,-0.26784,1.1838,-0.19544,-0.50262,-1.5499,-0.45689,0.25774,0.19993,-0.10973,-1.0007,-0.078058,0.27185,0.45768,0.036544,-0.0015019,-0.15566,-1.14,-0.65323
0.0055596,0.012903,0.012104,0.0031118,0.6446,0.43958,-0.29131,1.2511,-0.19581,-0.34795,-1.4733,-0.53143,0.42965,0.28148,-0.046489,-0.93176,-0.097673,0.28299,0.34874,0.013491,0.071718,-0.15493,-0.97758,-0.37043
0.0036174,0.017482,0.016204,0.0094525,0.64687,0.60792,-0.29322,1.3173,-0.19716,-0.25932,-1.3577,-0.63175,0.55066,0.25088,-0.00048573,-0.84927,-0.10772,0.20575,0.50688,-0.0016747,0.1324,-0.1316,-0.65992,-0.22562
0.0013018,0.018198,0.019172,0.017067,0.66406,0.80223,-0.28855,1.3787,-0.1977,-0.26084,-1.2466,-0.73987,0.61992,0.12457,0.013584,-0.73722,-0.10886,0.061429,0.82854,-0.01296,0.172,-0.078806,-0.24216,-0.17724
0.00016261,0.014497,0.019834,0.021125,0.69129,0.94567,-0.28068,1.4323,-0.19342,-0.32257,-1.1672,-0.8378,0.66823,-0.027167,0.0053811,-0.58474,-0.09946,-0.097285,1.1989,-0.01964,0.17922,-0.0075171,0.13617,-0.16171
0.00037029,0.0092226,0.018002,0.019361,0.71945,0.98016,-0.25761,1.4795,-0.18233,-0.38278,-1.1211,-0.90922,0.7251,-0.12769,0.00042843,-0.40102,-0.077469,-0.22211,1.5447,-0.015868,0.14469,0.059517,0.32139,-0.13146
0.00085296,0.0065622,0.014838,0.013572,0.74193,0.89748,-0.19987,1.5257,-0.1661,-0.38827,-1.0958,-0.94066,0.78968,-0.14149,0.021688,-0.21287,-0.044753,-0.3083,1.8175,0.0024231,0.06909,0.10135,0.24244,-0.072915
0.00077888,0.0087973,0.012324,0.0080614,0.75608,0.74383,-0.092993,1.5752,-0.14803,-0.32617,-1.0848,-0.9261,0.83135,-0.087462,0.075101,-0.048302,-0.0092637,-0.40037,1.9525,0.030214,-0.032826,0.10997,-0.041995,0.0016879
0.00063027,0.014654,0.012102,0.0063467,0.76044,0.59697,0.062152,1.6282,-0.1298,-0.22759,-1.0956,-0.87372,0.81832,-0.012679,0.14832,0.077852,0.017943,-0.55095,1.8741,0.053863,-0.13672,0.092133,-0.38378,0.07452
0.0016124,0.020556,0.01451,0.0086613,0.75313,0.52947,0.24407,1.6816,-0.11048,-0.14298,-1.1377,-0.80852,0.74794,0.047388,0.22093,0.16406,0.029263,-0.76089,1.5598,0.060391,-0.21914,0.062613,-0.64079,0.13553
0.0040308,0.023466,0.018474,0.011951,0.73468,0.57673,0.41274,1.7342,-0.08849,-0.10781,-1.2022,-0.76382,0.6522,0.089956,0.27655,0.21155,0.025683,-0.95164,1.1018,0.047661,-0.26646,0.035156,-0.75549,0.18189
0.0064797,0.022808,0.02223,0.012228,0.71223,0.72465,0.52133,1.7896,-0.064186,-0.1219,-1.2543,-0.76258,0.57541,0.13484,0.30825,0.21763,0.016332,-1.0016,0.6869,0.025757,-0.27694,0.016896,-0.76523,0.21117
0.0068929,0.020124,0.024331,0.007555,0.69879,0.92203,0.53599,1.8546,-0.040609,-0.15475,-1.2507,-0.79983,0.54485,0.19809,0.31621,0.182,0.012571,-0.828,0.48394,0.007359,-0.25701,0.008047,-0.7514,0.21925
0.0045348,0.017269,0.024284,-0.00037357,0.70563,1.1107,0.45424,1.9325,-0.021736,-0.16992,-1.1679,-0.84039,0.55833,0.27513,0.30316,0.11998,0.020881,-0.45637,0.52155,-0.0049398,-0.21682,0.0048959,-0.77806,0.20483
0.00093566,0.014983,0.022573,-0.007153,0.73342,1.2578,0.30895,2.0187,-0.0098608,-0.14917,-1.0193,-0.8374,0.59421,0.34638,0.27289,0.066528,0.039329,-0.021691,0.66198,-0.023074,-0.16834,0.0032693,-0.86532,0.17216
-0.0012715,0.012887,0.020223,-0.0085707,0.77077,1.3719,0.1519,2.1023,-0.0037719,-0.098725,-0.84705,-0.76162,0.62939,0.39639,0.23196,0.062341,0.059394,0.30382,0.70527,-0.065074,-0.12483,0.00095147,-1.0025,0.12574
-0.00061375,0.010414,0.018198,-0.0036316,0.80242,1.4941,0.02639,2.1731,0.0017357,-0.034734,-0.69291,-0.62153,0.64764,0.42647,0.19039,0.13018,0.071198,0.40906,0.54522,-0.14002,-0.097987,-0.0012828,-1.1719,0.061473
0.0019427,0.0075739,0.016888,0.0044422,0.82037,1.6682,-0.051495,2.2278,0.015068,0.037747,-0.57339,-0.45955,0.63527,0.44963,0.1585,0.26046,0.068561,0.30192,0.24969,-0.23835,-0.09267,-0.00013322,-1.3544,-0.032906
0.0038634,0.0049877,0.01588,0.01021,0.82767,1.9085,-0.089449,2.2701,0.045361,0.13284,-0.47577,-0.32647,0.57577,0.47437,0.14171,0.41791,0.051418,0.092318,-0.0012764,-0.33522,-0.10294,0.008171,-1.5187,-0.1626
0.0032328,0.0034757,0.014188,0.0098741,0.83119,2.1845,-0.098471,2.3041,0.097946,0.27038,-0.37664,-0.25231,0.45476,0.49402,0.1383,0.56368,0.025317,-0.079007,-0.065159,-0.40443,-0.11399,0.024908,-1.6163,-0.30684
0.00027434,0.0036745,0.010966,0.0042354,0.83035,2.4307,-0.075791,2.3266,0.16914,0.45126,-0.26652,-0.23287,0.27249,0.49154,0.14228,0.67466,-0.00086149,-0.1107,0.052572,-0.43252,-0.10995,0.046817,-1.5999,-0.41671
-0.0030644,0.0057996,0.0063463,-0.0017144,0.81293,2.573,-0.0087558,2.3236,0.24403,0.64365,-0.16045,-0.23889,0.050185,0.45459,0.14854,0.7468,-0.01769,0.033788,0.21598,-0.42336,-0.082209,0.066876,-1.4553,-0.43959
-0.0049108,0.0094448,0.0017727,-0.0025788,0.7628,2.5563,0.10226,2.2751,0.30079,0.79444,-0.087234,-0.23761,-0.17918,0.38658,0.15547,0.78478,-0.017718,0.34637,0.27902,-0.39139,-0.032282,0.078129,-1.2172,-0.35578
-0.0049268,0.013522,-0.0006835,0.0030829,0.67364,2.3598,0.22297,2.1644,0.32093,0.86024,-0.066482,-0.21018,-0.38908,0.30427,0.16299,0.79141,0.0026472,0.80421,0.19797,-0.35012,0.032242,0.07831,-0.95195,-0.19835
-0.0041984,0.016631,0.00025291,0.01142,0.55698,1.9968,0.28851,1.9862,0.29973,0.83469,-0.091456,-0.15521,-0.57023,0.22522,0.16896,0.76686,0.042092,1.3743,0.041813,-0.30464,0.10439,0.071845,-0.71771,-0.036826
-0.0038931,0.017833,0.0039348,0.016307,0.43756,1.5062,0.2345,1.749,0.24917,0.75126,-0.13018,-0.082027,-0.72417,0.15661,0.16817,0.71502,0.094324,1.9912,-0.095511,-0.25277,0.18125,0.067225,-0.53345,0.065632
-0.0041183,0.017238,0.0080249,0.014393,0.33952,0.93901,0.036007,1.473,0.19061,0.65993,-0.14283,-0.0030861,-0.84683,0.093578,0.15493,0.64614,0.14906,2.5412,-0.19085,-0.19212,0.26193,0.070996,-0.37888,0.089737
-0.0040368,0.015791,0.010139,0.0079397,0.27397,0.34288,-0.27308,1.184,0.14178,0.59666,-0.10174,0.068811,-0.91962,0.025871,0.12582,0.5706,0.19419,2.8847,-0.30729,-0.12618,0.34267,0.082356,-0.22072,0.064697
-0.0029403,0.014384,0.0096972,0.002959,0.23619,-0.24972,-0.61439,0.91054,0.10775,0.56827,-0.00077073,0.12138,-0.91829,-0.054551,0.079871,0.48942,0.21907,2.9182,-0.52197,-0.064493,0.4142,0.092361,-0.040349,0.039762
-0.0010548,0.013128,0.0084213,0.0041474,0.21299,-0.8239,-0.90312,0.68095,0.082259,0.56086,0.14911,0.14695,-0.83299,-0.14997,0.01675,0.39286,0.21813,2.6332,-0.83923,-0.016903,0.46366,0.088744,0.15755,0.048222
0.00073615,0.011561,0.0089561,0.010964,0.19344,-1.3689,-1.0843,0.52146,0.057461,0.56059,0.32967,0.14905,-0.68201,-0.25613,-0.063044,0.27032,0.19329,2.1256,-1.1689,0.013113,0.47973,0.063387,0.35479,0.0915
0.0018347,0.0094936,0.012658,0.018204,0.17545,-1.8562,-1.1467,0.45151,0.033347,0.56844,0.52053,0.14419,-0.50725,-0.36054,-0.15399,0.12287,0.15348,1.5425,-1.3854,0.030955,0.45714,0.017531,0.5327,0.15001
0.0024143,0.0074849,0.018373,0.020485,0.16488,-2.2284,-1.1113,0.47724,0.018746,0.59866,0.69721,0.15289,-0.35506,-0.44004,-0.24079,-0.033738,0.11111,1.003,-1.4122,0.047804,0.39811,-0.038536,0.67691,0.20455
0.0029013,0.0062885,0.023239,0.016702,0.16939,-2.4172,-1.009,0.58669,0.023417,0.66485,0.82945,0.18422,-0.25671,-0.46324,-0.29967,-0.17951,0.077184,0.54858,-1.2655,0.074868,0.31077,-0.090577,0.77632,0.24746
0.0031025,0.0058233,0.024875,0.010687,0.19156,-2.3869,-0.86519,0.75048,0.048445,0.7648,0.88798,0.22686,-0.22035,-0.40266,-0.30853,-0.30501,0.05782,0.15687,-1.0334,0.11926,0.2068,-0.12641,0.82419,0.27804
0.0021142,0.0049322,0.023162,0.0077855,0.22539,-2.1716,-0.69723,0.92958,0.083303,0.87336,0.85916,0.25645,-0.23452,-0.2529,-0.26102,-0.41746,0.053814,-0.2029,-0.82256,0.1834,0.099328,-0.13928,0.82265,0.29323
-0.0006755,0.0024805,0.020181,0.010529,0.25784,-1.8738,-0.52019,1.0869,0.11192,0.94628,0.75735,0.25526,-0.27542,-0.043183,-0.17388,-0.53288,0.06258,-0.52337,-0.71505,0.26597,0.0013629,-0.1281,0.78261,0.28719
-0.0044636,-0.0011356,0.018395,0.017042,0.27455,-1.611,-0.34952,1.1975,0.12247,0.93403,0.62344,0.22739,-0.31218,0.16799,-0.080552,-0.66084,0.08008,-0.76217,-0.75278,0.36161,-0.076118,-0.096812,0.71407,0.26046
-0.0071217,-0.0036849,0.018631,0.023146,0.26669,-1.4458,-0.19742,1.2516,0.11303,0.80256,0.508,0.19503,-0.31158,0.31702,-0.013673,-0.79331,0.10113,-0.88849,-0.93778,0.45843,-0.12625,-0.054482,0.61381,0.22703
-0.0067698,-0.0026445,0.019542,0.025914,0.23491,-1.3468,-0.06777,1.2517,0.089839,0.55357,0.44978,0.17742,-0.2473,0.36564,0.011561,-0.90506,0.11875,-0.92781,-1.2352,0.53689,-0.14755,-0.014647,0.46406,0.20822
-0.0035896,0.0025713,0.018987,0.02555,0.18806,-1.2156,0.04254,1.2056,0.06086,0.23249,0.46326,0.17072,-0.11304,0.31863,0.0015616,-0.96425,0.12468,-0.96,-1.5814,0.57413,-0.14357,0.0086962,0.24736,0.21654
-0.00014984,0.0097286,0.016148,0.024382,0.13714,-0.96277,0.13461,1.1197,0.030768,-0.086331,0.54094,0.14823,0.069183,0.21798,-0.026242,-0.94718,0.11232,-1.0662,-1.9024,0.55485,-0.1213,0.0083696,-0.033437,0.24418
0.00036314,0.015241,0.012567,0.024407,0.088222,-0.57994,0.19836,0.99749,0.00061508,-0.33475,0.66309,0.08275,0.25496,0.11774,-0.059413,-0.8505,0.080814,-1.2651,-2.1361,0.48354,-0.089673,-0.010535,-0.34673,0.26868
-0.0032112,0.01692,0.011175,0.025807,0.038931,-0.15567,0.21322,0.84099,-0.029238,-0.48692,0.80336,-0.027194,0.39752,0.055803,-0.098788,-0.696,0.037051,-1.4905,-2.2373,0.38962,-0.05845,-0.033263,-0.64124,0.27337
-0.0086538,0.015689,0.014059,0.027491,-0.019549,0.17742,0.16173,0.65341,-0.056757,-0.57062,0.92559,-0.15076,0.47007,0.038523,-0.15297,-0.52487,-0.0067886,-1.6315,-2.1631,0.31875,-0.036801,-0.046622,-0.86285,0.26558
-0.011637,0.014727,0.020694,0.028612,-0.096332,0.32755,0.047565,0.44175,-0.078773,-0.64282,0.98002,-0.2451,0.47517,0.044007,-0.22497,-0.38226,-0.039294,-1.6073,-1.8613,0.31214,-0.030442,-0.05079,-0.96599,0.27586
-0.008918,0.016629,0.027975,0.029256,-0.19434,0.30284,-0.095404,0.21781,-0.0935,-0.74497,0.91212,-0.28679,0.43554,0.038469,-0.30374,-0.29867,-0.055898,-1.4212,-1.2939,0.38367,-0.038297,-0.060722,-0.91861,0.33655
-0.0010799,0.020938,0.031952,0.029692,-0.30707,0.20626,-0.21113,-0.0020541,-0.10238,-0.87111,0.6882,-0.28833,0.37477,-0.0046421,-0.36865,-0.27878,-0.061035,-1.1559,-0.49078,0.50895,-0.051619,-0.093568,-0.7107,0.45476
0.0074513,0.024144,0.029975,0.029374,-0.42038,0.172,-0.24302,-0.19879,-0.10958,-0.97278,0.32559,-0.28674,0.30369,-0.09091,-0.40349,-0.30516,-0.065067,-0.91649,0.41399,0.63451,-0.057927,-0.15106,-0.37057,0.60055
0.011426,0.022296,0.021915,0.027228,-0.51831,0.28609,-0.15734,-0.35504,-0.11966,-0.99585,-0.095561,-0.31417,0.22227,-0.20045,-0.40755,-0.35367,-0.078154,-0.76627,1.2145,0.7041,-0.048443,-0.21219,0.024449,0.71982
0.0087094,0.014227,0.0099651,0.023188,-0.59029,0.5413,0.042764,-0.46151,-0.13518,-0.91876,-0.4543,-0.37509,0.13294,-0.29373,-0.39408,-0.40859,-0.10495,-0.69927,1.7341,0.68723,-0.023973,-0.2445,0.36468,0.76334
0.0020796,0.0028786,-0.0025639,0.019208,-0.63593,0.85147,0.31683,-0.52228,-0.15561,-0.76243,-0.63867,-0.4471,0.051522,-0.32701,-0.37745,-0.46624,-0.14299,-0.66315,1.9256,0.59314,0.0056399,-0.22673,0.55697,0.71236
-0.0027143,-0.006357,-0.012697,0.018085,-0.6645,1.1118,0.59828,-0.55428,-0.17794,-0.56768,-0.59594,-0.50178,0.0040347,-0.27303,-0.36072,-0.52761,-0.18474,-0.60707,1.8896,0.4619,0.02858,-0.16522,0.57856,0.58415
-0.001293,-0.0090427,-0.018924,0.020673,-0.68894,1.2647,0.814,-0.57832,-0.19833,-0.36372,-0.35258,-0.52672,0.0098108,-0.1378,-0.33469,-0.59035,-0.22129,-0.5161,1.792,0.33937,0.039239,-0.090576,0.49395,0.41633
0.0059769,-0.0044053,-0.021639,0.024201,-0.71769,1.3292,0.90835,-0.60563,-0.21426,-0.15601,0.0075733,-0.53131,0.063959,0.036761,-0.28913,-0.65017,-0.24522,-0.41108,1.7468,0.25297,0.040991,-0.037394,0.41363,0.24282
0.014292,0.004487,-0.022697,0.023872,-0.74947,1.3796,0.8647,-0.62967,-0.22589,0.058521,0.39015,-0.53484,0.13448,0.18903,-0.22559,-0.70965,-0.25196,-0.32121,1.763,0.20305,0.041695,-0.023005,0.41906,0.078914
0.018167,0.013001,-0.024146,0.01686,-0.77443,1.4922,0.71356,-0.6315,-0.23605,0.26755,0.72921,-0.54932,0.17897,0.26598,-0.15995,-0.78271,-0.2403,-0.25473,1.7932,0.17252,0.046281,-0.041053,0.50792,-0.076368
0.015564,0.017905,-0.026791,0.0051751,-0.78102,1.6975,0.51926,-0.5975,-0.24824,0.43643,0.99457,-0.57143,0.17038,0.24846,-0.11234,-0.88503,-0.21278,-0.18873,1.8278,0.1444,0.053079,-0.072066,0.6009,-0.22642
0.0090798,0.018977,-0.029554,-0.0055148,-0.76344,1.9697,0.34912,-0.53644,-0.26384,0.52676,1.1708,-0.5875,0.1132,0.15913,-0.093201,-1.0154,-0.17542,-0.082235,1.9351,0.11352,0.056707,-0.099473,0.60367,-0.36617
0.003441,0.018287,-0.030303,-0.010396,-0.72444,2.2541,0.24278,-0.48083,-0.28046,0.52397,1.2347,-0.5844,0.037645,0.049026,-0.097013,-1.1439,-0.13596,0.098165,2.1979,0.085781,0.054333,-0.11738,0.47546,-0.48409
0.0016749,0.017891,-0.027713,-0.0093995,-0.67208,2.5044,0.20118,-0.46918,-0.29272,0.44899,1.1558,-0.55623,-0.023904,-0.028863,-0.10762,-1.2212,-0.10049,0.35511,2.6003,0.069257,0.049331,-0.12648,0.25459,-0.57369
0.0032223,0.017746,-0.022767,-0.0069834,-0.61373,2.702,0.20074,-0.52205,-0.29527,0.34383,0.92274,-0.50338,-0.060103,-0.043816,-0.10919,-1.205,-0.070822,0.65054,2.9735,0.066278,0.049205,-0.12619,0.028229,-0.64082
0.0052552,0.015547,-0.018514,-0.008068,-0.55283,2.844,0.21858,-0.63185,-0.28565,0.2443,0.57031,-0.42841,-0.086012,0.0025657,-0.093498,-1.0875,-0.044734,0.91297,3.0666,0.07216,0.060035,-0.11276,-0.12351,-0.69652
0.0055212,0.0087641,-0.01801,-0.013872,-0.49055,2.9203,0.24744,-0.77483,-0.265,0.16283,0.17839,-0.33516,-0.1274,0.083225,-0.059962,-0.90137,-0.01947,1.0607,2.7034,0.079233,0.082434,-0.085165,-0.16692,-0.7397
0.0039355,-0.0026319,-0.021932,-0.0213,-0.42956,2.9052,0.29114,-0.93321,-0.23634,0.092573,-0.16308,-0.23183,-0.19733,0.16274,-0.011839,-0.70199,0.0045255,1.0337,1.9066,0.081204,0.11196,-0.050939,-0.1169,-0.74741
0.0017325,-0.015175,-0.027858,-0.026075,-0.37466,2.7742,0.35077,-1.1058,-0.20243,0.023957,-0.40072,-0.13282,-0.28334,0.21397,0.04572,-0.53604,0.023178,0.82316,0.89374,0.074803,0.14254,-0.023887,-0.012638,-0.68707
-0.00045795,-0.023927,-0.031985,-0.026454,-0.32844,2.5319,0.41994,-1.2959,-0.16529,-0.044859,-0.54149,-0.053948,-0.35377,0.22613,0.10476,-0.4191,0.032485,0.48197,-0.049799,0.059462,0.16913,-0.014203,0.10885,-0.54592
-0.0033105,-0.026275,-0.031991,-0.024187,-0.28623,2.2215,0.49525,-1.4887,-0.12772,-0.1121,-0.6366,-0.0028363,-0.37621,0.20292,0.15446,-0.33442,0.033081,0.10907,-0.72365,0.03706,0.18772,-0.02011,0.22601,-0.35363
-0.0074992,-0.024284,-0.028634,-0.022285,-0.23709,1.9054,0.58914,-1.6433,-0.094401,-0.18256,-0.73894,0.026877,-0.33363,0.15531,0.18507,-0.25123,0.031196,-0.18986,-1.0862,0.011992,0.19418,-0.029561,0.33253,-0.1748
-0.011925,-0.023156,-0.024688,-0.022136,-0.17329,1.6267,0.72628,-1.7121,-0.070503,-0.26864,-0.866,0.050307,-0.22867,0.095402,0.19391,-0.14881,0.034595,-0.34577,-1.2168,-0.0097757,0.18498,-0.031003,0.42955,-0.070597
-0.013702,-0.026608,-0.022182,-0.022729,-0.10132,1.3837,0.91911,-1.6752,-0.05782,-0.3773,-0.99261,0.077617,-0.078439,0.034795,0.18763,-0.031197,0.046688,-0.34985,-1.2208,-0.023214,0.16034,-0.02321,0.51418,-0.056798
-0.010403,-0.033058,-0.020559,-0.022358,-0.043598,1.1354,1.1403,-1.5596,-0.051515,-0.49455,-1.0729,0.10402,0.092595,-0.014511,0.17759,0.075016,0.063854,-0.24509,-1.1601,-0.026707,0.12701,-0.014777,0.56732,-0.091999
-0.0026463,-0.036317,-0.017593,-0.020706,-0.025669,0.83534,1.3175,-1.424,-0.040983,-0.58441,-1.0708,0.11459,0.2569,-0.040768,0.17137,0.13688,0.078172,-0.093691,-1.0473,-0.022486,0.096797,-0.013639,0.54963,-0.10796
0.0055974,-0.030679,-0.012252,-0.019142,-0.05626,0.46697,1.3612,-1.3185,-0.015503,-0.60734,-0.97746,0.10217,0.38822,-0.036818,0.16764,0.13469,0.083055,0.055988,-0.88234,-0.015005,0.080654,-0.016678,0.41659,-0.060014
0.0096914,-0.016193,-0.0066158,-0.019113,-0.11609,0.058618,1.2091,-1.2527,0.028654,-0.54529,-0.8097,0.082852,0.4695,-0.0053608,0.15866,0.072731,0.077055,0.18272,-0.68301,-0.0092804,0.082241,-0.0096387,0.15334,0.041463
0.0079045,0.00057377,-0.0046544,-0.020519,-0.16626,-0.33077,0.85901,-1.1973,0.084722,-0.41336,-0.59721,0.091971,0.50116,0.040147,0.13787,-0.025275,0.06322,0.2845,-0.48371,-0.010681,0.096582,0.021841,-0.18933,0.14227
0.0027388,0.011171,-0.0086216,-0.021815,-0.17173,-0.64125,0.37037,-1.1169,0.13824,-0.24909,-0.37211,0.15863,0.50135,0.08159,0.10579,-0.1327,0.045593,0.36593,-0.31587,-0.025133,0.1151,0.079383,-0.48863,0.18764
-0.0012609,0.011367,-0.01638,-0.021662,-0.12292,-0.83746,-0.1619,-1.0051,0.17429,-0.08922,-0.16489,0.27617,0.49347,0.10599,0.069294,-0.23624,0.026663,0.43767,-0.19663,-0.057391,0.13264,0.14802,-0.59194,0.16195
-0.0013463,0.0035571,-0.022452,-0.020317,-0.039258,-0.91781,-0.64174,-0.89081,0.18414,0.046956,-0.0033637,0.39333,0.48869,0.11187,0.035864,-0.33939,0.0080003,0.5271,-0.13539,-0.10702,0.15004,0.2043,-0.39565,0.094418
0.0013395,-0.0063109,-0.022283,-0.019311,0.046457,-0.90767,-0.99783,-0.81326,0.16726,0.15683,0.090471,0.4373,0.47916,0.1072,0.0084996,-0.45075,-0.0072392,0.68102,-0.14499,-0.16518,0.16982,0.22952,0.081812,0.030198
0.0032146,-0.014161,-0.016106,-0.019847,0.10916,-0.84529,-1.1969,-0.78896,0.12856,0.24259,0.10558,0.35558,0.4499,0.10101,-0.014667,-0.56765,-0.01336,0.94299,-0.23992,-0.21623,0.1896,0.21852,0.68105,-0.0059365
0.0017942,-0.020631,-0.0088544,-0.021632,0.14169,-0.76859,-1.2482,-0.8003,0.074372,0.30354,0.04478,0.14787,0.40002,0.095692,-0.036877,-0.67065,-0.00471,1.3114,-0.42048,-0.24472,0.20066,0.17933,1.1586,-0.022682
-0.0020366,-0.029063,-0.0060025,-0.023263,0.14907,-0.70634,-1.2006,-0.8144,0.01044,0.34119,-0.077862,-0.13451,0.3519,0.086606,-0.059593,-0.73547,0.019703,1.7104,-0.65763,-0.24363,0.1948,0.12655,1.297,-0.04428
-0.0050738,-0.040891,-0.0088297,-0.02354,0.136,-0.67276,-1.1261,-0.8141,-0.057213,0.3696,-0.24333,-0.42013,0.33543,0.068326,-0.082554,-0.75268,0.05354,2.0058,-0.89399,-0.21744,0.17429,0.0743,1.0087,-0.080955
-0.0050218,-0.052769,-0.013224,-0.022195,0.10085,-0.6648,-1.09,-0.81334,-0.12112,0.41586,-0.43346,-0.65649,0.35801,0.041034,-0.10606,-0.7371,0.085361,2.0693,-1.0626,-0.17793,0.15579,0.032272,0.3759,-0.11536
-0.0027024,-0.058015,-0.01308,-0.019369,0.041112,-0.66318,-1.1195,-0.8438,-0.17334,0.50344,-0.6335,-0.82931,0.38726,0.010624,-0.13235,-0.71683,0.10493,1.8536,-1.1132,-0.13595,0.16277,0.0044197,-0.39882,-0.11613
-0.0011215,-0.051175,-0.005422,-0.014799,-0.037184,-0.63936,-1.1921,-0.92491,-0.20861,0.62921,-0.83178,-0.95169,0.36623,-0.017475,-0.16431,-0.71,0.10917,1.4251,-1.0334,-0.095815,0.21052,-0.01085,-1.0977,-0.064662
-0.0023705,-0.032204,0.0069729,-0.008036,-0.11703,-0.5676,-1.2547,-1.0424,-0.22689,0.75465,-1.0178,-1.0357,0.25347,-0.044411,-0.20309,-0.70914,0.10311,0.92781,-0.85727,-0.056498,0.29439,-0.019008,-1.5838,0.029987
-0.0054449,-0.0073587,0.01745,0.00029326,-0.1788,-0.43666,-1.2616,-1.1521,-0.23274,0.8234,-1.1789,-1.0708,0.056861,-0.07757,-0.24698,-0.68773,0.0949,0.50025,-0.65703,-0.017491,0.38966,-0.025588,-1.8304,0.14081
-0.0071561,0.013666,0.020149,0.0077234,-0.21226,-0.25346,-1.2035,-1.2061,-0.2317,0.79656,-1.2958,-1.0259,-0.16708,-0.12371,-0.2927,-0.62369,0.088625,0.20227,-0.51908,0.01627,0.46333,-0.031556,-1.8791,0.24743
-0.0052881,0.022584,0.013787,0.01111,-0.22117,-0.034911,-1.1048,-1.1794,-0.22667,0.68053,-1.3428,-0.87415,-0.34892,-0.18194,-0.33697,-0.51958,0.080746,-0.00052867,-0.50924,0.035142,0.48936,-0.031292,-1.7712,0.35253
-0.0009353,0.016753,0.0019897,0.0092174,-0.21631,0.20671,-0.99559,-1.0807,-0.2174,0.52538,-1.2971,-0.6215,-0.44922,-0.24309,-0.37642,-0.40137,0.063114,-0.1898,-0.64338,0.030649,0.45854,-0.015583,-1.5134,0.47577
0.0023201,0.00062798,-0.0095214,0.0044422,-0.20365,0.47263,-0.88346,-0.94245,-0.20325,0.39261,-1.1579,-0.31821,-0.47636,-0.29549,-0.40575,-0.2964,0.030418,-0.42486,-0.88153,0.0017646,0.3789,0.022052,-1.1031,0.63143
0.001749,-0.01647,-0.016457,0.0017184,-0.17865,0.77073,-0.7506,-0.79916,-0.18645,0.31453,-0.96185,-0.043266,-0.46942,-0.33111,-0.41696,-0.20921,-0.013828,-0.70149,-1.1518,-0.043277,0.26926,0.080514,-0.57957,0.81045
-0.0017563,-0.025362,-0.017894,0.0050607,-0.1326,1.0953,-0.5761,-0.67109,-0.17229,0.27397,-0.77862,0.13022,-0.46383,-0.34611,-0.40225,-0.11656,-0.057648,-0.96354,-1.3882,-0.090702,0.15081,0.15102,-0.043015,0.98259
-0.0041645,-0.02213,-0.015908,0.014479,-0.065594,1.4088,-0.36076,-0.55955,-0.16578,0.21933,-0.68037,0.16796,-0.46801,-0.33646,-0.35971,0.013602,-0.087378,-1.1511,-1.5543,-0.1275,0.039906,0.22035,0.38772,1.1162
-0.0017871,-0.010112,-0.013787,0.025888,0.0055499,1.6438,-0.13089,-0.45329,-0.16745,0.10399,-0.70053,0.086373,-0.46477,-0.29541,-0.29764,0.19443,-0.096048,-1.2459,-1.6349,-0.14616,-0.056586,0.27329,0.65214,1.1974
0.0052841,0.0027919,-0.014136,0.034117,0.052859,1.731,0.081124,-0.33834,-0.1718,-0.077486,-0.81152,-0.062523,-0.42992,-0.21854,-0.23288,0.40676,-0.087453,-1.2824,-1.6076,-0.14582,-0.14249,0.2931,0.79383,1.2337
0.012919,0.0098384,-0.017767,0.036508,0.053751,1.6374,0.26013,-0.20482,-0.1702,-0.28155,-0.94098,-0.22182,-0.35044,-0.1137,-0.18291,0.61086,-0.073157,-1.3194,-1.4268,-0.13053,-0.22848,0.26341,0.93018,1.2396
0.016254,0.010035,-0.023585,0.03424,0.0067177,1.3886,0.41361,-0.048632,-0.15615,-0.44068,-1.0173,-0.35572,-0.23149,-0.0062948,-0.15661,0.77366,-0.064676,-1.3931,-1.0445,-0.10682,-0.32374,0.17567,1.164,1.22
0.013788,0.0080849,-0.029344,0.030674,-0.066428,1.0577,0.55566,0.12952,-0.12952,-0.50325,-1.0115,-0.45586,-0.093967,0.068516,-0.15029,0.88961,-0.066159,-1.4839,-0.45768,-0.081587,-0.42723,0.039877,1.5054,1.1642
0.0086978,0.0097618,-0.032888,0.028578,-0.1349,0.72482,0.6864,0.32405,-0.096913,-0.46116,-0.94423,-0.52833,0.031134,0.084778,-0.15166,0.97876,-0.07221,-1.5181,0.25708,-0.060178,-0.52501,-0.11089,1.8664,1.054
0.0061789,0.016622,-0.033294,0.028713,-0.1804,0.43592,0.78631,0.52175,-0.068094,-0.34868,-0.85516,-0.57514,0.10972,0.043135,-0.14854,1.0649,-0.07185,-1.4087,0.95679,-0.044456,-0.59676,-0.23073,2.1292,0.87694
0.0090325,0.024568,-0.031293,0.030495,-0.20966,0.18992,0.82997,0.69903,-0.050561,-0.21667,-0.76266,-0.58599,0.11528,-0.027217,-0.13539,1.1517,-0.055763,-1.1133,1.4912,-0.031711,-0.62754,-0.28344,2.2295,0.6337
0.015282,0.027509,-0.028712,0.033411,-0.24786,-0.039074,0.8055,0.82459,-0.045261,-0.10298,-0.64861,-0.54619,0.042091,-0.085526,-0.11375,1.2169,-0.022296,-0.67523,1.7676,-0.01608,-0.61669,-0.26294,2.185,0.33625
0.019866,0.022901,-0.027254,0.037385,-0.31712,-0.26374,0.72277,0.87017,-0.045901,-0.019647,-0.48053,-0.45286,-0.08758,-0.10456,-0.088127,1.2276,0.02118,-0.2183,1.7782,0.0071966,-0.57721,-0.19577,2.0532,0.0034843
0.018954,0.01423,-0.027409,0.041887,-0.41664,-0.46211,0.60559,0.82502,-0.042492,0.037092,-0.25048,-0.32547,-0.23148,-0.086375,-0.062519,1.1661,0.061882,0.11034,1.5773,0.036945,-0.52714,-0.12278,1.8622,-0.34049
0.01317,0.0082061,-0.028215,0.04517,-0.52089,-0.59073,0.47749,0.70375,-0.027479,0.066795,0.0044106,-0.20106,-0.34914,-0.058112,-0.040853,1.0452,0.087735,0.2183,1.2377,0.064398,-0.48005,-0.073419,1.5804,-0.66566
0.007019,0.009116,-0.028023,0.045015,-0.59826,-0.62123,0.3542,0.53923,-0.00084259,0.054686,0.21915,-0.1166,-0.42347,-0.051835,-0.029258,0.90252,0.092378,0.11812,0.82385,0.076843,-0.44141,-0.051794,1.1502,-0.93861
0.0050844,0.015339,-0.025708,0.040618,-0.63561,-0.56957,0.24629,0.3628,0.029422,-0.017859,0.3428,-0.089561,-0.46591,-0.083345,-0.035651,0.77776,0.076611,-0.085248,0.39114,0.064772,-0.41147,-0.043292,0.55027,-1.1316
0.0083395,0.02102,-0.021446,0.033759,-0.64879,-0.49205,0.165,0.18571,0.052332,-0.15032,0.37167,-0.10904,-0.50154,-0.14395,-0.065054,0.69049,0.04626,-0.26165,-0.0057406,0.027724,-0.38982,-0.03361,-0.17155,-1.2343
0.01363,0.021269,-0.01645,0.027795,-0.66992,-0.44951,0.12266,-0.0030655,0.061345,-0.30835,0.34824,-0.14231,-0.54665,-0.20823,-0.11453,0.63215,0.0086789,-0.33036,-0.32166,-0.025229,-0.37694,-0.023073,-0.91993,-1.2589
0.016521,0.01616,-0.011919,0.02503,-0.7218,-0.46624,0.1264,-0.21972,0.058917,-0.4337,0.32912,-0.15268,-0.59631,-0.24959,-0.17338,0.57667,-0.029548,-0.29047,-0.54417,-0.080349,-0.37247,-0.025253,-1.6007,-1.2338
0.014838,0.010119,-0.0081421,0.024713,-0.80005,-0.51503,0.17154,-0.46255,0.054629,-0.47584,0.34956,-0.11873,-0.62951,-0.25244,-0.22952,0.50069,-0.062675,-0.19213,-0.70406,-0.12551,-0.37357,-0.053287,-2.1471,-1.1882
0.0098947,0.0076183,-0.0046363,0.023617,-0.87723,-0.53944,0.24103,-0.70245,0.058125,-0.4241,0.41138,-0.045604,-0.62388,-0.21548,-0.27664,0.39986,-0.084895,-0.080711,-0.85159,-0.15358,-0.37604,-0.10688,-2.5052,-1.1379
0.0047479,0.0093281,-0.0012387,0.018893,-0.92445,-0.49654,0.31163,-0.89578,0.072067,-0.31638,0.49747,0.036525,-0.5662,-0.14848,-0.31479,0.29224,-0.090643,0.035707,-1.0096,-0.16193,-0.37701,-0.17066,-2.6124,-1.08
0.0014766,0.012111,0.00098643,0.010833,-0.93221,-0.3896,0.36229,-1.0095,0.090271,-0.2178,0.59326,0.085886,-0.45277,-0.067741,-0.34367,0.20878,-0.076966,0.17081,-1.1437,-0.15043,-0.37585,-0.22418,-2.4117,-0.99761
1.1641e-005,0.012401,0.00019715,0.0030894,-0.9139,-0.26876,0.38023,-1.0383,0.10211,-0.18394,0.69336,0.069101,-0.28506,0.0070382,-0.35548,0.17738,-0.046376,0.31752,-1.1802,-0.12099,-0.37218,-0.25485,-1.9097,-0.87153
-0.00079607,0.0094448,-0.0044916,-1.2857e-005,-0.89082,-0.20152,0.36379,-1.0012,0.09957,-0.23384,0.79102,-0.020674,-0.070175,0.05607,-0.33617,0.20902,-0.0073986,0.42376,-1.0645,-0.078759,-0.36314,-0.26454,-1.2243,-0.69053
-0.0014317,0.0054347,-0.011517,0.0030636,-0.87281,-0.23426,0.32299,-0.92179,0.081667,-0.34839,0.86813,-0.15636,0.1732,0.064679,-0.27622,0.29227,0.028655,0.41388,-0.8135,-0.032647,-0.34351,-0.26616,-0.56121,-0.45965
-0.0012724,0.0028806,-0.017285,0.0096796,-0.85093,-0.36913,0.27731,-0.81176,0.053665,-0.49025,0.90254,-0.28589,0.41172,0.0294,-0.18195,0.39828,0.053087,0.24008,-0.51978,0.0070479,-0.30973,-0.27361,-0.10876,-0.20388
0.00023292,0.0021914,-0.018551,0.014879,-0.80692,-0.56784,0.24916,-0.66986,0.022485,-0.6278,0.88952,-0.35542,0.60598,-0.038994,-0.076191,0.49402,0.063773,-0.079746,-0.30229,0.032913,-0.26446,-0.29193,0.078494,0.034704
0.0022955,0.0018241,-0.014896,0.01503,-0.73025,-0.77596,0.25384,-0.49558,-0.007515,-0.74719,0.85458,-0.33526,0.72826,-0.11884,0.01486,0.55663,0.064843,-0.47045,-0.24164,0.043262,-0.21747,-0.31342,0.11535,0.20931
0.0030662,0.00047374,-0.0090302,0.010357,-0.62831,-0.9512,0.29114,-0.30233,-0.035316,-0.84879,0.83913,-0.23354,0.77577,-0.18692,0.078726,0.58026,0.062392,-0.84733,-0.34559,0.040969,-0.18147,-0.32193,0.20354,0.28873
0.0013806,-0.0012868,-0.004528,0.0044681,-0.5225,-1.0799,0.34509,-0.1176,-0.06068,-0.93595,0.86572,-0.088108,0.76659,-0.22931,0.12351,0.57071,0.059447,-1.1644,-0.56124,0.02929,-0.16584,-0.30255,0.48906,0.27566
-0.0018043,-0.0016867,-0.0029455,0.0013825,-0.43521,-1.1759,0.39338,0.030036,-0.08119,-1.006,0.9126,0.057808,0.7197,-0.24792,0.16822,0.5318,0.053874,-1.4271,-0.81142,0.0086071,-0.17265,-0.25093,0.96645,0.20956
-0.0039123,9.3674e-005,-0.0029429,0.00251,-0.3784,-1.2654,0.42001,0.1251,-0.091906,-1.0488,0.92382,0.17942,0.6353,-0.25867,0.22471,0.45495,0.040622,-1.6648,-1.0198,-0.022714,-0.19736,-0.17602,1.4974,0.14786
-0.0029386,0.0027235,-0.0021571,0.0058672,-0.35069,-1.368,0.42128,0.16934,-0.088248,-1.0504,0.85124,0.2769,0.49339,-0.28142,0.28657,0.3225,0.01646,-1.8925,-1.1118,-0.064029,-0.23242,-0.094581,1.9175,0.13508
0.00065621,0.0038167,6.4777e-005,0.0079373,-0.34191,-1.4828,0.4009,0.17468,-0.069835,-0.9997,0.69507,0.36198,0.27427,-0.32652,0.33453,0.12443,-0.0164,-2.0923,-1.0122,-0.10898,-0.27034,-0.021573,2.1402,0.18041
0.0041689,0.0021895,0.0018048,0.0065071,-0.33891,-1.5862,0.35984,0.15354,-0.042061,-0.89382,0.50762,0.43827,-0.014092,-0.38547,0.35339,-0.12414,-0.050569,-2.2281,-0.66809,-0.14699,-0.30419,0.035815,2.1823,0.2598
0.0048819,-0.0010911,0.00047608,0.0022002,-0.32933,-1.6426,0.2925,0.11551,-0.013946,-0.74279,0.3544,0.49347,-0.32415,-0.43193,0.34598,-0.38024,-0.077586,-2.2745,-0.098018,-0.16972,-0.32672,0.076074,2.1113,0.33942
0.0023268,-0.0039737,-0.0043737,-0.0023733,-0.30412,-1.6225,0.19553,0.070582,0.0063078,-0.57111,0.26293,0.51065,-0.58367,-0.43415,0.3327,-0.59016,-0.092952,-2.2346,0.57009,-0.17748,-0.33043,0.0962,1.9771,0.40076
-0.0014189,-0.0056914,-0.010159,-0.0049614,-0.26112,-1.5204,0.083602,0.032175,0.015005,-0.4142,0.20112,0.48805,-0.72897,-0.37244,0.33767,-0.71565,-0.098412,-2.1325,1.1223,-0.17993,-0.30968,0.088037,1.7893,0.44712
-0.003595,-0.0076384,-0.013242,-0.00547,-0.20804,-1.3611,-0.0027199,0.013759,0.013745,-0.30835,0.10312,0.44858,-0.73454,-0.25202,0.37261,-0.75115,-0.09971,-1.9908,1.3531,-0.18945,-0.26317,0.044253,1.544,0.48902
-0.003041,-0.011831,-0.012001,-0.0057533,-0.16061,-1.1903,-0.0088236,0.020472,0.0076259,-0.27621,-0.077624,0.42911,-0.62038,-0.1035,0.42997,-0.72085,-0.10155,-1.812,1.1789,-0.21169,-0.19416,-0.029286,1.2578,0.52547
-0.00087158,-0.018387,-0.0081404,-0.0077139,-0.13426,-1.0529,0.10473,0.043495,0.0028757,-0.31427,-0.33031,0.45676,-0.43506,0.029553,0.4884,-0.66016,-0.10379,-1.579,0.69078,-0.24105,-0.10816,-0.10615,0.96764,0.54068
0.00090177,-0.024569,-0.0050824,-0.011487,-0.13442,-0.97286,0.33269,0.06352,0.0054009,-0.39024,-0.59223,0.53141,-0.22832,0.10929,0.52476,-0.5962,-0.10196,-1.2712,0.10058,-0.2649,-0.010047,-0.14704,0.69792,0.5204
0.0013419,-0.026538,-0.0049543,-0.015335,-0.15386,-0.94658,0.61596,0.06194,0.019947,-0.45508,-0.79198,0.62791,-0.031495,0.11936,0.52477,-0.54013,-0.091834,-0.88473,-0.38478,-0.27354,0.096276,-0.12129,0.43403,0.47214
0.0012465,-0.022397,-0.0068816,-0.017252,-0.18051,-0.9547,0.86149,0.031739,0.048653,-0.46619,-0.8959,0.71528,0.14521,0.071255,0.48773,-0.49216,-0.073927,-0.44389,-0.67063,-0.26763,0.20534,-0.028521,0.13127,0.4282
0.0019875,-0.013801,-0.0079806,-0.016683,-0.2095,-0.98321,0.98128,-0.019777,0.088934,-0.40958,-0.92414,0.77616,0.30276,-0.00013026,0.42553,-0.45032,-0.054119,0.0012065,-0.78974,-0.25716,0.30779,0.095854,-0.24786,0.42564
0.0038414,-0.0046924,-0.0060527,-0.014766,-0.24827,-1.0377,0.92759,-0.077912,0.13256,-0.30632,-0.9284,0.81113,0.44169,-0.04939,0.35807,-0.41384,-0.03965,0.38901,-0.82918,-0.25293,0.39206,0.19708,-0.7025,0.47801
0.0055662,0.0016883,-0.0016443,-0.013,-0.30942,-1.14,0.70545,-0.13193,0.16808,-0.19647,-0.9521,0.82671,0.55672,-0.037499,0.30642,-0.3794,-0.033896,0.66834,-0.84237,-0.25811,0.45013,0.23006,-1.1916,0.56275
0.0056447,0.0048045,0.0021856,-0.011856,-0.39735,-1.3093,0.35939,-0.18349,0.18628,-0.1098,-1.0036,0.82035,0.63767,0.052541,0.28482,-0.33623,-0.034224,0.82077,-0.82131,-0.26672,0.483,0.18264,-1.6516,0.63615
0.0038768,0.006188,0.0021632,-0.010754,-0.50073,-1.5416,-0.052042,-0.24752,0.1854,-0.044521,-1.0582,0.77794,0.67166,0.20699,0.29411,-0.26708,-0.034398,0.87237,-0.73921,-0.26965,0.50006,0.079802,-2.0086,0.66587
0.0016442,0.0069816,-0.0026014,-0.0092931,-0.59778,-1.8011,-0.47618,-0.34505,0.17178,0.027661,-1.0817,0.68692,0.64388,0.38424,0.31994,-0.15627,-0.029127,0.88327,-0.60767,-0.26243,0.5112,-0.031791,-2.1779,0.65615
0.00055823,0.0061109,-0.0096495,-0.008228,-0.66865,-2.0299,-0.87233,-0.49106,0.15499,0.13208,-1.0537,0.55347,0.53915,0.52998,0.33821,-0.00011286,-0.016981,0.91346,-0.48545,-0.24785,0.51758,-0.10758,-2.0732,0.64575
0.00087229,0.00083547,-0.014623,-0.0089702,-0.70344,-2.1692,-1.2096,-0.68193,0.14079,0.26021,-0.97591,0.40729,0.34804,0.59941,0.32581,0.18762,-1.3245e-005,0.9823,-0.43101,-0.23225,0.50927,-0.12395,-1.6481,0.67853
0.0012729,-0.010775,-0.014215,-0.012118,-0.69898,-2.1823,-1.4669,-0.88897,0.12753,0.36537,-0.86369,0.28756,0.077167,0.57625,0.2715,0.37913,0.018518,1.0514,-0.44907,-0.21977,0.47348,-0.084682,-0.95381,0.76657
0.0002226,-0.027541,-0.0085564,-0.016684,-0.64991,-2.0679,-1.6392,-1.064,0.109,0.393,-0.73442,0.21997,-0.24317,0.47889,0.18087,0.54342,0.035838,1.0505,-0.48594,-0.21023,0.40733,-0.015444,-0.1604,0.8724
-0.0025471,-0.044892,-0.0012013,-0.020994,-0.54557,-1.8602,-1.743,-1.1581,0.081654,0.32448,-0.6021,0.20249,-0.56207,0.35019,0.073169,0.65933,0.049762,0.93349,-0.47788,-0.20155,0.32422,0.049044,0.50248,0.92384
-0.0058646,-0.056803,0.0034623,-0.024362,-0.37859,-1.6151,-1.8093,-1.1453,0.050011,0.19877,-0.47875,0.21076,-0.82408,0.23693,-0.027582,0.72461,0.058296,0.72459,-0.40413,-0.19338,0.24713,0.08023,0.8653,0.85349
-0.0082917,-0.058621,0.0035278,-0.027679,-0.15848,-1.3871,-1.8644,-1.038,0.025385,0.091261,-0.37445,0.21773,-0.99069,0.17073,-0.10158,0.75687,0.060065,0.5145,-0.2951,-0.18744,0.1929,0.068532,0.9166,0.63734
-0.0093097,-0.049171,0.00099416,-0.0322,0.083083,-1.2053,-1.9091,-0.88009,0.018209,0.063178,-0.2903,0.21139,-1.0543,0.16107,-0.13782,0.78545,0.055445,0.40423,-0.19418,-0.18484,0.16009,0.028538,0.79709,0.30751
-0.0093528,-0.031221,4.0462e-005,-0.037806,0.30318,-1.0618,-1.9146,-0.72104,0.029652,0.1193,-0.20911,0.19794,-1.0365,0.2014,-0.13362,0.83722,0.046986,0.43737,-0.11809,-0.18394,0.13072,-0.007606,0.6839,-0.067812
-0.0089202,-0.010296,0.0034631,-0.042769,0.46903,-0.92192,-1.8429,-0.58747,0.049265,0.2065,-0.095095,0.19126,-0.97206,0.28021,-0.092164,0.92295,0.038272,0.57357,-0.058387,-0.18209,0.084986,-0.0077927,0.65158,-0.42149
-0.007979,0.0075855,0.010221,-0.045455,0.57444,-0.75499,-1.6794,-0.47274,0.061098,0.25407,0.09071,0.20085,-0.89225,0.38558,-0.021656,1.0316,0.032083,0.72478,-0.01906,-0.17961,0.017261,0.03986,0.62289,-0.71497
-0.0063579,0.018306,0.016185,-0.046213,0.63932,-0.56662,-1.455,-0.35269,0.054353,0.22485,0.36658,0.22907,-0.81721,0.49947,0.063343,1.1359,0.029675,0.82434,-0.042671,-0.18133,-0.059523,0.11685,0.45357,-0.93956
-0.0045171,0.021112,0.017463,-0.047331,0.69304,-0.40873,-1.2372,-0.21363,0.031008,0.13954,0.71426,0.2765,-0.76112,0.59024,0.14158,1.2071,0.031795,0.87304,-0.185,-0.19267,-0.1241,0.18244,0.085711,-1.0972
-0.0035675,0.018332,0.013495,-0.050845,0.75453,-0.35323,-1.093,-0.06868,0.004869,0.058739,1.0833,0.34548,-0.74012,0.61689,0.18998,1.2292,0.039989,0.92648,-0.45068,-0.21267,-0.16273,0.19686,-0.35604,-1.1825
-0.0043313,0.013506,0.0073473,-0.056368,0.82341,-0.44209,-1.0482,0.051631,-0.007411,0.039211,1.4115,0.43443,-0.77103,0.55053,0.19407,1.2041,0.056148,1.0377,-0.74941,-0.23086,-0.17776,0.14548,-0.61043,-1.1833
-0.0064717,0.0091068,0.0031572,-0.061224,0.88642,-0.64806,-1.0698,0.12571,0.0028917,0.097244,1.6447,0.52797,-0.85776,0.40098,0.15839,1.146,0.079934,1.2045,-0.92535,-0.23206,-0.18267,0.048388,-0.4444,-1.0981
-0.008775,0.0054402,0.0030574,-0.062923,0.93128,-0.87901,-1.0861,0.16058,0.031272,0.20289,1.7436,0.59582,-0.97603,0.22548,0.108,1.0708,0.10631,1.3634,-0.85307,-0.20704,-0.18912,-0.05062,0.17758,-0.95012
-0.010399,0.0013384,0.0061119,-0.061612,0.9556,-1.0297,-1.028,0.18758,0.063432,0.3041,1.6794,0.60779,-1.073,0.1046,0.076352,0.98793,0.12603,1.4321,-0.53135,-0.16117,-0.1971,-0.10799,1.0396,-0.78147
-0.011753,-0.004172,0.0097835,-0.060085,0.96486,-1.0485,-0.86554,0.23865,0.084654,0.36027,1.434,0.55592,-1.0888,0.094608,0.084774,0.90135,0.12975,1.362,-0.097741,-0.11361,-0.19534,-0.10192,1.7766,-0.62988
-0.013974,-0.010783,0.012257,-0.061316,0.96409,-0.97102,-0.61776,0.32421,0.088526,0.3627,1.0127,0.46477,-0.99057,0.18843,0.12722,0.81597,0.11322,1.1618,0.25653,-0.086644,-0.16979,-0.039313,2.0705,-0.50753
-0.017473,-0.017251,0.013535,-0.065824,0.95305,-0.89467,-0.33308,0.4306,0.07937,0.33276,0.46164,0.3781,-0.79379,0.31619,0.17287,0.74141,0.079919,0.88104,0.41318,-0.091563,-0.1127,0.053194,1.8178,-0.40143
-0.021064,-0.022599,0.01471,-0.071268,0.92984,-0.90877,-0.060594,0.53598,0.067354,0.30439,-0.13269,0.33011,-0.55566,0.38942,0.18712,0.68793,0.039302,0.57628,0.40137,-0.12066,-0.026168,0.14547,1.1709,-0.29486
-0.022682,-0.026879,0.016497,-0.074447,0.89829,-1.0308,0.16771,0.62757,0.060316,0.30426,-0.66988,0.32401,-0.34109,0.3593,0.15667,0.65662,0.0021112,0.29106,0.36387,-0.15096,0.07938,0.21635,0.43313,-0.1905
-0.021102,-0.030773,0.018495,-0.07378,0.8701,-1.1924,0.33628,0.70444,0.058413,0.34045,-1.0766,0.33581,-0.18492,0.24644,0.099825,0.63261,-0.024273,0.05727,0.44256,-0.15788,0.1881,0.25663,-0.12049,-0.11433
-0.017047,-0.034617,0.019572,-0.070196,0.85749,-1.2825,0.43636,0.7668,0.055412,0.40269,-1.333,0.33945,-0.076822,0.12041,0.053353,0.58978,-0.038283,-0.097951,0.67404,-0.13069,0.28111,0.26473,-0.38566,-0.096606
-0.012662,-0.037974,0.018699,-0.066077,0.86255,-1.2151,0.46244,0.80612,0.04539,0.4714,-1.4665,0.33083,0.021323,0.046122,0.045802,0.5068,-0.044125,-0.15979,0.97689,-0.079851,0.34025,0.24128,-0.45186,-0.14692
-0.009863,-0.040262,0.015381,-0.063526,0.87385,-0.97249,0.42019,0.80881,0.029417,0.5298,-1.5209,0.32969,0.13967,0.039335,0.0782,0.3846,-0.04979,-0.14568,1.2359,-0.03128,0.35477,0.18791,-0.50274,-0.24419
-0.009057,-0.04179,0.0095825,-0.063369,0.87501,-0.60353,0.33678,0.77052,0.016597,0.57329,-1.5295,0.35827,0.27411,0.063954,0.12674,0.25123,-0.063455,-0.11322,1.4072,-0.01058,0.32855,0.11024,-0.66971,-0.34916
-0.0092567,-0.044081,0.0015812,-0.065202,0.85851,-0.18564,0.25896,0.7061,0.018136,0.61106,-1.5098,0.41662,0.38886,0.068337,0.16365,0.14759,-0.088832,-0.13496,1.5495,-0.027046,0.28112,0.021145,-0.94004,-0.42807
-0.0092455,-0.049006,-0.0079297,-0.067895,0.83208,0.21453,0.23343,0.64301,0.038734,0.65868,-1.4763,0.47727,0.44456,0.02672,0.17784,0.10185,-0.12151,-0.249,1.7501,-0.067798,0.23851,-0.060283,-1.177,-0.4684
-0.0085854,-0.057282,-0.017709,-0.069988,0.81121,0.55875,0.27988,0.60173,0.072086,0.72577,-1.4475,0.50441,0.42907,-0.048195,0.17855,0.11021,-0.1494,-0.42295,2.0114,-0.10587,0.21758,-0.1156,-1.2285,-0.47731
-0.0076244,-0.067441,-0.026175,-0.070001,0.80394,0.83292,0.37558,0.5797,0.10433,0.80686,-1.4305,0.48149,0.36733,-0.12646,0.18159,0.139,-0.15869,-0.56615,2.2025,-0.11675,0.21461,-0.13615,-1.0412,-0.46817
-0.0067649,-0.075959,-0.031966,-0.066954,0.80209,1.0373,0.46431,0.55292,0.12293,0.88213,-1.3973,0.42395,0.304,-0.19042,0.19299,0.14751,-0.14265,-0.58837,2.1368,-0.09227,0.20739,-0.12839,-0.69898,-0.44898
-0.0059088,-0.078535,-0.034439,-0.060963,0.78733,1.1835,0.48591,0.49465,0.12399,0.92792,-1.2809,0.36679,0.27418,-0.24279,0.2057,0.11493,-0.10729,-0.46305,1.7218,-0.043241,0.17057,-0.11055,-0.36582,-0.42094
-0.0046354,-0.071984,-0.033739,-0.053417,0.74727,1.2957,0.40958,0.3958,0.11248,0.92908,-1.0112,0.33738,0.28519,-0.28805,0.21093,0.051304,-0.068888,-0.24652,1.0621,0.0094975,0.093785,-0.10113,-0.1805,-0.38481
-0.0027875,-0.056001,-0.0305,-0.046312,0.68716,1.405,0.25171,0.27112,0.095652,0.88427,-0.57266,0.33571,0.32157,-0.3103,0.21115,-0.014887,-0.04427,-0.039334,0.41867,0.048323,-0.010379,-0.10613,-0.17754,-0.34592
-0.00074576,-0.034012,-0.025554,-0.041051,0.62646,1.5335,0.069662,0.14752,0.0761,0.80154,-0.036729,0.33701,0.36524,-0.27537,0.22033,-0.061556,-0.040386,0.078167,0.043785,0.067455,-0.11405,-0.11422,-0.2807,-0.31248
0.00090161,-0.012353,-0.01987,-0.037564,0.58292,1.6782,-0.064349,0.045333,0.050633,0.68996,0.46606,0.31356,0.41138,-0.16051,0.25007,-0.090032,-0.050538,0.086045,0.0098476,0.073014,-0.19107,-0.10451,-0.36113,-0.28983
0.0018913,0.0023498,-0.014566,-0.034495,0.55797,1.8093,-0.095986,-0.032898,0.015775,0.55614,0.82666,0.25775,0.46656,0.014471,0.29473,-0.12164,-0.059821,0.015591,0.16223,0.076876,-0.23104,-0.063035,-0.31514,-0.27704
0.0024345,0.0065418,-0.010741,-0.03036,0.5361,1.8849,-0.013561,-0.099249,-0.025615,0.40865,1.034,0.18915,0.5335,0.18697,0.33116,-0.17824,-0.055501,-0.091337,0.22981,0.089563,-0.24119,0.0038573,-0.11627,-0.26895
0.0028661,0.00179,-0.0091319,-0.02477,0.49851,1.8716,0.14577,-0.16793,-0.063279,0.26429,1.1857,0.14202,0.59939,0.28877,0.33538,-0.2631,-0.034829,-0.2141,0.0096721,0.11574,-0.2368,0.069943,0.17821,-0.26028
0.0032054,-0.0062155,-0.0099145,-0.018688,0.43926,1.7541,0.3118,-0.2445,-0.085737,0.14701,1.4179,0.1448,0.64124,0.29296,0.3029,-0.35673,-0.0053718,-0.35128,-0.50636,0.15285,-0.22877,0.10465,0.45996,-0.24683
0.0030842,-0.011454,-0.012858,-0.013503,0.37016,1.5329,0.41344,-0.32433,-0.088741,0.075716,1.7998,0.20712,0.64467,0.23118,0.25475,-0.42935,0.021254,-0.49528,-1.1423,0.19205,-0.21757,0.093428,0.62173,-0.22312
0.0020928,-0.0116,-0.017599,-0.009735,0.31084,1.2189,0.4128,-0.39933,-0.078865,0.048591,2.2732,0.32086,0.6187,0.1653,0.22322,-0.45976,0.037086,-0.61508,-1.6596,0.2215,-0.19674,0.048295,0.60621,-0.18152
0.00021372,-0.0091718,-0.023586,-0.0065381,0.273,0.83617,0.32331,-0.46614,-0.069147,0.037249,2.6822,0.46926,0.59113,0.1366,0.22864,-0.4479,0.041772,-0.66776,-1.8948,0.23173,-0.16144,0.00077681,0.43022,-0.11711
-0.0020076,-0.0087972,-0.029665,-0.0024462,0.25232,0.42897,0.20096,-0.52906,-0.070318,-0.00077399,2.874,0.63351,0.58661,0.13534,0.26601,-0.4144,0.041039,-0.62991,-1.8257,0.22132,-0.11489,-0.017489,0.17091,-0.035814
-0.0036766,-0.012853,-0.033919,0.0033412,0.23462,0.05858,0.11274,-0.59576,-0.084416,-0.096156,2.7965,0.79257,0.606,0.11659,0.31156,-0.38959,0.041727,-0.52071,-1.5505,0.19871,-0.068245,0.0074233,-0.080783,0.042931
-0.004022,-0.019286,-0.034499,0.010336,0.21019,-0.21844,0.10114,-0.66957,-0.105,-0.24523,2.5251,0.92211,0.62527,0.047843,0.34228,-0.3989,0.046998,-0.39579,-1.218,0.17708,-0.034673,0.067151,-0.27201,0.095099
-0.0028474,-0.023589,-0.031222,0.017317,0.18315,-0.37932,0.16637,-0.74426,-0.12264,-0.40755,2.2044,1.0002,0.61511,-0.054,0.35126,-0.45156,0.054481,-0.31675,-0.96525,0.16456,-0.022646,0.14055,-0.41032,0.10841
-0.0006481,-0.023123,-0.026585,0.023396,0.16736,-0.44733,0.27574,-0.80542,-0.13082,-0.52782,1.9554,1.019,0.56343,-0.1302,0.34646,-0.53711,0.058047,-0.31971,-0.8839,0.15708,-0.032563,0.20795,-0.54169,0.092923
0.0017685,-0.019713,-0.024771,0.028447,0.17206,-0.47253,0.3906,-0.8376,-0.12829,-0.56884,1.816,0.99254,0.48072,-0.12737,0.33665,-0.63072,0.051986,-0.40347,-1.0047,0.14093,-0.057852,0.25921,-0.70435,0.075256
0.0039452,-0.017912,-0.028752,0.032503,0.19035,-0.49256,0.49025,-0.83261,-0.1179,-0.53355,1.7488,0.94987,0.38514,-0.04492,0.31899,-0.70521,0.035112,-0.53846,-1.2864,0.10505,-0.088475,0.29162,-0.89827,0.079106
0.0061609,-0.020438,-0.037604,0.034951,0.20165,-0.50373,0.5769,-0.79314,-0.10425,-0.4605,1.6942,0.91528,0.28357,0.058289,0.28097,-0.74347,0.012163,-0.68249,-1.6132,0.05387,-0.11411,0.30292,-1.0938,0.1075
0.009082,-0.025042,-0.04654,0.034681,0.18749,-0.46579,0.66166,-0.72933,-0.092101,-0.39568,1.6201,0.8912,0.16877,0.10473,0.2151,-0.74394,-0.0088803,-0.79087,-1.8223,0.0092883,-0.12599,0.28778,-1.264,0.14184
0.012868,-0.025893,-0.050177,0.031382,0.14789,-0.33586,0.74608,-0.65139,-0.08526,-0.36091,1.5301,0.85857,0.035904,0.053907,0.13227,-0.71526,-0.022254,-0.82212,-1.7661,-0.0023436,-0.11835,0.24204,-1.4031,0.1589
0.016554,-0.018434,-0.046618,0.026756,0.1038,-0.10334,0.81518,-0.56414,-0.084817,-0.34195,1.4378,0.79628,-0.098491,-0.071709,0.059955,-0.66404,-0.028866,-0.74881,-1.3847,0.03014,-0.090329,0.17086,-1.5086,0.1509
0.018466,-0.0034215,-0.038899,0.024117,0.081844,0.20168,0.8467,-0.46828,-0.087263,-0.30464,1.3393,0.70366,-0.19662,-0.20959,0.024303,-0.58604,-0.03586,-0.57585,-0.74062,0.091746,-0.047744,0.093076,-1.5498,0.13167
0.017494,0.013382,-0.032378,0.026232,0.092953,0.52952,0.82732,-0.36693,-0.084712,-0.22594,1.2139,0.60683,-0.2223,-0.30725,0.02969,-0.4694,-0.050789,-0.3527,0.01618,0.14884,-0.0023844,0.036243,-1.4658,0.12397
0.014168,0.025519,-0.03025,0.033019,0.12189,0.84053,0.76224,-0.27149,-0.068778,-0.11499,1.048,0.54277,-0.16811,-0.35696,0.053214,-0.30818,-0.074531,-0.16076,0.73741,0.17081,0.032412,0.024401,-1.2119,0.14003
0.010476,0.030366,-0.031105,0.041242,0.13693,1.1182,0.67117,-0.20002,-0.036399,-0.0065557,0.85634,0.53431,-0.062485,-0.388,0.060272,-0.11447,-0.098966,-0.072371,1.3594,0.15006,0.048361,0.066089,-0.82067,0.17247
0.0084635,0.030233,-0.030664,0.04677,0.11247,1.3594,0.57632,-0.16803,0.0068511,0.068025,0.67511,0.57625,0.050426,-0.42709,0.0305,0.083903,-0.11211,-0.10358,1.9183,0.10537,0.04682,0.15009,-0.41815,0.20248
0.0087541,0.029584,-0.026039,0.047677,0.047001,1.5577,0.49336,-0.17831,0.049278,0.10923,0.53265,0.64276,0.14052,-0.46439,-0.025877,0.26087,-0.10706,-0.19494,2.483,0.066848,0.037681,0.25063,-0.1644,0.21603
0.010285,0.031156,-0.018599,0.045578,-0.037179,1.6985,0.43188,-0.21872,0.080086,0.1531,0.42318,0.70718,0.2053,-0.45644,-0.074665,0.41106,-0.08747,-0.23917,3.0554,0.054709,0.032636,0.33773,-0.15586,0.21292
0.011431,0.034227,-0.012923,0.044017,-0.11111,1.7731,0.4018,-0.27062,0.095412,0.24585,0.30896,0.75619,0.25661,-0.36401,-0.083124,0.55256,-0.064477,-0.14075,3.5205,0.068133,0.037195,0.38655,-0.3641,0.20138
0.011495,0.035929,-0.012908,0.045308,-0.15864,1.7967,0.41677,-0.32148,0.098439,0.40779,0.14985,0.78732,0.29515,-0.19191,-0.045141,0.70881,-0.047612,0.13142,3.6945,0.091041,0.047178,0.38266,-0.66044,0.18542
0.011236,0.033933,-0.018598,0.048584,-0.18303,1.8103,0.48903,-0.37101,0.093855,0.61366,-0.064844,0.79592,0.29851,0.0044447,0.013324,0.88412,-0.037292,0.53201,3.4489,0.10773,0.052338,0.32397,-0.90552,0.15841
0.012052,0.028128,-0.026434,0.050732,-0.19754,1.8581,0.61951,-0.42535,0.08208,0.80382,-0.30891,0.76726,0.2357,0.15314,0.053053,1.0547,-0.02543,0.97051,2.8222,0.11444,0.044456,0.22096,-1.0313,0.10942
0.014577,0.02034,-0.032379,0.049318,-0.21053,1.9545,0.79176,-0.48467,0.058932,0.9176,-0.54051,0.68404,0.09645,0.21358,0.050464,1.1848,-0.0035663,1.3581,2.033,0.11834,0.023758,0.094684,-1.0553,0.036025
0.017953,0.012936,-0.034947,0.044831,-0.21904,2.0652,0.97545,-0.53611,0.021145,0.9254,-0.73196,0.54359,-0.09115,0.19944,0.014492,1.255,0.028612,1.6374,1.3717,0.12686,-0.0012554,-0.029081,-1.0289,-0.049124
0.020345,0.0076636,-0.035541,0.040235,-0.21592,2.1192,1.1372,-0.55946,-0.027508,0.83965,-0.88222,0.36839,-0.27178,0.15886,-0.021266,1.2768,0.061638,1.781,1.0353,0.13828,-0.020345,-0.12898,-0.97546,-0.12466
0.020258,0.0052703,-0.036206,0.038267,-0.20246,2.0499,1.2513,-0.54185,-0.075557,0.70216,-1.0042,0.1984,-0.39617,0.12961,-0.024507,1.2815,0.0827,1.7758,1.0133,0.14183,-0.029189,-0.19599,-0.87384,-0.17448
0.017596,0.0055557,-0.037217,0.038941,-0.19378,1.8397,1.3056,-0.48895,-0.10971,0.56124,-1.1023,0.069353,-0.45166,0.10733,0.012267,1.2919,0.084569,1.6136,1.1027,0.12667,-0.0321,-0.23471,-0.69428,-0.19761
0.013656,0.0074151,-0.036821,0.039524,-0.21101,1.5367,1.3015,-0.42289,-0.12235,0.45444,-1.1632,-0.0064355,-0.4673,0.053439,0.068464,1.3042,0.069919,1.2997,1.0435,0.091362,-0.037828,-0.25683,-0.44586,-0.20619
0.010113,0.0090207,-0.033279,0.037019,-0.2668,1.2304,1.2526,-0.36841,-0.11452,0.40273,-1.1669,-0.042368,-0.49072,-0.06497,0.11326,1.2949,0.048408,0.86784,0.68647,0.046074,-0.05216,-0.27221,-0.18932,-0.21472
0.007806,0.008543,-0.02717,0.030926,-0.35635,0.99863,1.1808,-0.33848,-0.092481,0.41172,-1.1077,-0.063272,-0.5545,-0.23763,0.12862,1.2467,0.029806,0.38234,0.083324,0.0060445,-0.07352,-0.28452,-0.0043234,-0.23018
0.0062987,0.0053142,-0.021673,0.02377,-0.46159,0.86111,1.1093,-0.33047,-0.062011,0.47251,-1.0028,-0.088341,-0.65509,-0.40844,0.11876,1.1673,0.018796,-0.079537,-0.55447,-0.017749,-0.095006,-0.2944,0.058955,-0.25038
0.0045374,0.000612,-0.020397,0.018882,-0.56433,0.7733,1.0525,-0.33398,-0.025914,0.56096,-0.88192,-0.12544,-0.75622,-0.51011,0.10032,1.0838,0.014542,-0.45216,-0.99462,-0.02356,-0.11066,-0.30533,0.0047989,-0.26977
0.0020407,-0.0028049,-0.024459,0.017393,-0.65706,0.66493,1.0092,-0.34119,0.013579,0.6403,-0.76767,-0.17842,-0.81056,-0.50752,0.08486,1.0178,0.013813,-0.69453,-1.123,-0.016653,-0.12011,-0.32522,-0.12122,-0.2858
-0.00044641,-0.0024016,-0.031207,0.017168,-0.74297,0.49571,0.96739,-0.3503,0.051086,0.67121,-0.66394,-0.25635,-0.78367,-0.41572,0.070495,0.96556,0.014299,-0.78608,-0.9939,-0.0031361,-0.12747,-0.36087,-0.26635,-0.29989
-0.001475,0.002272,-0.035713,0.014702,-0.82641,0.28576,0.92082,-0.36074,0.077912,0.62626,-0.56064,-0.37231,-0.66684,-0.28155,0.049739,0.90059,0.015847,-0.71867,-0.77068,0.014346,-0.13576,-0.41014,-0.39691,-0.31333
-0.00018801,0.0089561,-0.033999,0.0083449,-0.90356,0.097545,0.88409,-0.36811,0.086615,0.50013,-0.44672,-0.5314,-0.47589,-0.14852,0.023712,0.79726,0.019767,-0.50194,-0.6151,0.035815,-0.14251,-0.45961,-0.50157,-0.32351
0.002759,0.013884,-0.025687,-6.9038e-005,-0.96191,-0.015369,0.88829,-0.3668,0.07649,0.30906,-0.31867,-0.72005,-0.24159,-0.03527,0.0067241,0.6536,0.027646,-0.18205,-0.60909,0.059696,-0.14128,-0.491,-0.57862,-0.32489
0.0055221,0.014092,-0.014236,-0.006722,-0.98939,-0.051088,0.95322,-0.35945,0.054983,0.080906,-0.17953,-0.90963,0.00081709,0.059051,0.014731,0.49382,0.040472,0.14878,-0.75458,0.07954,-0.12822,-0.49135,-0.62386,-0.31413
0.0063962,0.0092726,-0.0046651,-0.0091698,-0.98525,-0.059451,1.0551,-0.36338,0.033578,-0.15563,-0.034267,-1.0744,0.21956,0.1355,0.047883,0.34946,0.057889,0.37587,-1.0258,0.085003,-0.10766,-0.45881,-0.62946,-0.29457
0.0049981,0.0018965,-0.0003906,-0.0085267,-0.96382,-0.10135,1.1211,-0.40517,0.021384,-0.37587,0.1107,-1.2093,0.39181,0.18554,0.084665,0.23599,0.077375,0.41698,-1.4089,0.06665,-0.091165,-0.40035,-0.59087,-0.27543
0.0023316,-0.0044762,-0.0013328,-0.0084541,-0.94791,-0.20292,1.0655,-0.50514,0.021059,-0.55865,0.24415,-1.3316,0.50762,0.20035,0.095333,0.14407,0.094102,0.27306,-1.8869,0.021456,-0.089946,-0.3254,-0.5131,-0.26642
-0.00018741,-0.0074919,-0.0044417,-0.011808,-0.95676,-0.34248,0.84744,-0.66399,0.029018,-0.68679,0.35053,-1.4622,0.57116,0.18668,0.064225,0.050908,0.10258,0.032005,-2.3922,-0.044142,-0.1067,-0.24324,-0.41061,-0.27233
-0.0017861,-0.0072911,-0.0060727,-0.017959,-0.99665,-0.47746,0.50653,-0.86316,0.038295,-0.75256,0.4183,-1.6021,0.59757,0.16866,0.0013839,-0.059198,0.099914,-0.18594,-2.7886,-0.11499,-0.13386,-0.16648,-0.30229,-0.29236
-0.0026108,-0.0059556,-0.0044128,-0.023211,-1.0597,-0.58276,0.14256,-1.0787,0.041417,-0.76428,0.44976,-1.7236,0.60497,0.16958,-0.066965,-0.18188,0.08836,-0.3051,-2.9243,-0.17149,-0.15974,-0.11514,-0.20564,-0.32399
-0.003221,-0.0056709,-0.0002994,-0.023975,-1.1301,-0.66449,-0.15034,-1.2962,0.032387,-0.74561,0.46076,-1.7836,0.60517,0.18916,-0.12041,-0.2958,0.074457,-0.33633,-2.7277,-0.19622,-0.17717,-0.11247,-0.13251,-0.36659
-0.003958,-0.0070842,0.003904,-0.019904,-1.1927,-0.73889,-0.34624,-1.5129,0.0086463,-0.724,0.46642,-1.7498,0.59839,0.19864,-0.15884,-0.37734,0.064171,-0.35327,-2.2655,-0.18093,-0.1872,-0.1706,-0.086729,-0.41993
-0.0047474,-0.0090761,0.0062615,-0.014306,-1.2384,-0.80197,-0.49725,-1.7267,-0.026782,-0.71516,0.46406,-1.6183,0.57581,0.16136,-0.19681,-0.41467,0.057371,-0.42554,-1.7059,-0.13075,-0.19524,-0.27526,-0.063398,-0.47778
-0.0053333,-0.0099617,0.0065033,-0.01161,-1.2661,-0.82543,-0.68196,-1.9222,-0.064712,-0.71566,0.43026,-1.4115,0.52854,0.063296,-0.24413,-0.41224,0.046559,-0.56612,-1.2035,-0.062629,-0.20379,-0.38358,-0.051278,-0.52298
-0.0055991,-0.0090314,0.0058074,-0.014103,-1.28,-0.78796,-0.93348,-2.0714,-0.092963,-0.71004,0.33852,-1.162,0.45677,-0.070966,-0.2918,-0.38514,0.022025,-0.73442,-0.79699,0.0023296,-0.20888,-0.44179,-0.038555,-0.53084
-0.0057243,-0.0071971,0.0056092,-0.020582,-1.2874,-0.71324,-1.2038,-2.1491,-0.10281,-0.6862,0.18506,-0.89787,0.37222,-0.18984,-0.31708,-0.34999,-0.019904,-0.88619,-0.40332,0.048508,-0.20361,-0.41464,-0.019334,-0.48213
-0.0061443,-0.0063469,0.0065227,-0.027652,-1.2959,-0.67291,-1.3916,-2.151,-0.0947,-0.64605,0.00045441,-0.63979,0.2916,-0.24472,-0.30337,-0.31922,-0.072361,-1.0208,0.087501,0.071257,-0.18514,-0.30775,0.0036033,-0.37764
-0.0073275,-0.008011,0.0080878,-0.032258,-1.3102,-0.74065,-1.4096,-2.0986,-0.078542,-0.60292,-0.16458,-0.40694,0.22626,-0.21684,-0.25694,-0.30098,-0.12165,-1.1819,0.69799,0.074847,-0.15851,-0.16721,0.021981,-0.24302
-0.0093934,-0.012316,0.0092886,-0.03337,-1.3282,-0.92933,-1.2425,-2.0226,-0.067625,-0.5698,-0.26939,-0.21944,0.17594,-0.12446,-0.20548,-0.30151,-0.15674,-1.4122,1.3271,0.06548,-0.13357,-0.05526,0.028591,-0.1177
-0.011783,-0.017837,0.0093465,-0.031915,-1.3389,-1.165,-0.95407,-1.9401,-0.070204,-0.54989,-0.30571,-0.090883,0.13165,-0.010291,-0.17973,-0.32601,-0.17669,-1.7034,1.822,0.045914,-0.11752,-0.016756,0.022182,-0.03362
-0.013377,-0.022326,0.0083464,-0.029636,-1.324,-1.3266,-0.64813,-1.8428,-0.084921,-0.53755,-0.29517,-0.017166,0.084687,0.079343,-0.19401,-0.37616,-0.18934,-1.987,2.0946,0.016163,-0.1096,-0.056651,0.0079955,0.0024888
-0.013228,-0.023903,0.0074415,-0.028132,-1.2654,-1.3261,-0.41369,-1.7078,-0.10311,-0.52657,-0.26647,0.02585,0.033713,0.11188,-0.24058,-0.44676,-0.20233,-2.1761,2.1841,-0.021556,-0.10202,-0.14062,-0.0043117,0.010818
-0.011424,-0.022115,0.0084399,-0.028554,-1.1558,-1.1681,-0.29167,-1.5227,-0.1155,-0.5163,-0.23324,0.070248,-0.015803,0.077442,-0.29968,-0.52482,-0.21461,-2.224,2.2154,-0.05992,-0.086119,-0.21645,-0.0024144,0.023327
-0.0092416,-0.018287,0.012734,-0.031538,-1.0059,-0.93851,-0.27503,-1.3038,-0.1177,-0.50984,-0.19104,0.1371,-0.058403,-0.0098912,-0.35424,-0.59322,-0.21649,-2.1541,2.2907,-0.089838,-0.058625,-0.24225,0.026999,0.062743
-0.0082123,-0.014805,0.020026,-0.036864,-0.84242,-0.72979,-0.33015,-1.0913,-0.11067,-0.508,-0.13333,0.22509,-0.094506,-0.1178,-0.39663,-0.6371,-0.19867,-2.0384,2.4071,-0.10744,-0.023542,-0.20579,0.093398,0.13006
-0.0088156,-0.013566,0.027828,-0.043101,-0.69688,-0.55966,-0.41869,-0.9259,-0.097291,-0.50758,-0.068933,0.31463,-0.12964,-0.20836,-0.42488,-0.64869,-0.16207,-1.9386,2.4645,-0.1175,0.010815,-0.12602,0.19389,0.20719
-0.010038,-0.01465,0.032554,-0.048017,-0.59126,-0.35028,-0.50776,-0.82405,-0.079064,-0.50733,-0.023299,0.38277,-0.16815,-0.25497,-0.43588,-0.62714,-0.11906,-1.8537,2.3549,-0.12874,0.036783,-0.038644,0.30736,0.26999
-0.010332,-0.01634,0.031839,-0.049948,-0.52882,0.011716,-0.57099,-0.77032,-0.056101,-0.51561,-0.021405,0.41643,-0.20806,-0.25574,-0.42451,-0.57354,-0.084306,-1.7095,2.0588,-0.14451,0.050972,0.024911,0.40029,0.3009
-0.0091148,-0.016718,0.026466,-0.049183,-0.4959,0.57629,-0.58901,-0.73174,-0.029738,-0.54999,-0.067279,0.41604,-0.2424,-0.23448,-0.38967,-0.486,-0.063102,-1.4027,1.6751,-0.15746,0.055129,0.05316,0.44598,0.29431
-0.0073272,-0.015539,0.020186,-0.047966,-0.47202,1.2662,-0.55412,-0.68144,-0.0043386,-0.62621,-0.13796,0.39086,-0.26575,-0.22667,-0.34001,-0.36019,-0.04768,-0.87413,1.3607,-0.15419,0.054704,0.056976,0.445,0.25568
-0.0064288,-0.014599,0.017241,-0.048787,-0.44109,1.8986,-0.4758,-0.61407,0.014135,-0.74417,-0.19719,0.35313,-0.27952,-0.25833,-0.29191,-0.19668,-0.024751,-0.16544,1.2274,-0.12637,0.056241,0.058501,0.42907,0.19934
-0.0068316,-0.016036,0.019363,-0.052266,-0.39614,2.2812,-0.38052,-0.54284,0.021997,-0.88313,-0.21766,0.31539,-0.29025,-0.3301,-0.25976,-0.009337,0.012561,0.58034,1.2672,-0.07851,0.064498,0.074045,0.44064,0.14701
-0.0074217,-0.020027,0.024612,-0.056608,-0.3365,2.3193,-0.30268,-0.48278,0.020911,-1.0109,-0.19473,0.28934,-0.30243,-0.4158,-0.24627,0.17388,0.059058,1.1808,1.3572,-0.025368,0.080274,0.10209,0.50115,0.12403
-0.0067846,-0.024143,0.029002,-0.059285,-0.26175,2.0624,-0.2704,-0.434,0.01759,-1.1008,-0.14295,0.28306,-0.31254,-0.47459,-0.24123,0.32165,0.10258,1.5053,1.3374,0.018831,0.10005,0.12418,0.59289,0.15
-0.004979,-0.025192,0.029569,-0.059569,-0.16923,1.6633,-0.2935,-0.3777,0.020351,-1.1433,-0.081467,0.29706,-0.31059,-0.46969,-0.2301,0.41548,0.13428,1.5401,1.1088,0.049353,0.11804,0.11809,0.67047,0.22725
-0.0039845,-0.022014,0.026442,-0.059562,-0.057061,1.2814,-0.36033,-0.28763,0.035143,-1.1469,-0.021805,0.32367,-0.28836,-0.38508,-0.20519,0.45871,0.15416,1.3856,0.68718,0.070422,0.1296,0.073889,0.69376,0.33579
-0.0061147,-0.016677,0.022419,-0.062598,0.07026,0.99728,-0.44478,-0.14833,0.063573,-1.1285,0.033384,0.352,-0.24723,-0.23448,-0.17052,0.46991,0.1672,1.1899,0.18223,0.086737,0.13374,0.0016551,0.65553,0.44158
-0.011677,-0.012946,0.020644,-0.070232,0.19963,0.79004,-0.51934,0.033267,0.1034,-1.1027,0.083333,0.37532,-0.19767,-0.059108,-0.13668,0.46522,0.17505,1.0639,-0.27988,0.096058,0.13282,-0.074644,0.58234,0.51434
-0.018083,-0.013401,0.022338,-0.080407,0.31334,0.58348,-0.56699,0.23166,0.15008,-1.076,0.12373,0.39395,-0.14966,0.086964,-0.11056,0.44435,0.17248,1.0341,-0.63282,0.090361,0.12985,-0.13232,0.50941,0.54281
-0.021481,-0.01769,0.026238,-0.088478,0.39707,0.31882,-0.58539,0.41961,0.19777,-1.0463,0.14921,0.41056,-0.10123,0.16028,-0.089182,0.39291,0.1527,1.0562,-0.89282,0.064329,0.12598,-0.16297,0.45196,0.53647
-0.01973,-0.023212,0.029832,-0.09041,0.44633,0.0013797,-0.58107,0.58567,0.23983,-1.0054,0.1606,0.42273,-0.035548,0.14957,-0.06271,0.29935,0.11645,1.0733,-1.1148,0.022816,0.12061,-0.17409,0.39508,0.51442
-0.014218,-0.02726,0.031214,-0.085648,0.46723,-0.30645,-0.55896,0.73949,0.26985,-0.94323,0.16814,0.4213,0.068467,0.081737,-0.024275,0.17097,0.075414,1.0682,-1.3196,-0.019962,0.11367,-0.17921,0.30654,0.49237
-0.0088686,-0.028696,0.030172,-0.077435,0.4716,-0.53328,-0.51655,0.90059,0.28399,-0.85181,0.18554,0.39841,0.21755,0.0057464,0.022008,0.033532,0.045628,1.0756,-1.4513,-0.048917,0.10733,-0.18475,0.15896,0.47822
-0.0070546,-0.028072,0.027968,-0.070424,0.46999,-0.64946,-0.44985,1.0795,0.28344,-0.7299,0.21904,0.35903,0.39071,-0.037104,0.062037,-0.086941,0.035986,1.1489,-1.4039,-0.056947,0.10468,-0.18371,-0.054099,0.47629
-0.0089769,-0.026698,0.026214,-0.067543,0.4668,-0.6857,-0.36674,1.2661,0.27491,-0.58501,0.2615,0.32473,0.54276,-0.036563,0.081783,-0.18497,0.04199,1.3139,-1.1017,-0.047287,0.10599,-0.16032,-0.31159,0.49116
-0.011717,-0.025737,0.025731,-0.068455,0.45983,-0.71096,-0.2927,1.4351,0.26759,-0.43144,0.29757,0.32296,0.62525,-0.013977,0.078806,-0.28059,0.050265,1.5439,-0.57874,-0.028778,0.10632,-0.10176,-0.56256,0.52402
-0.011898,-0.025806,0.026082,-0.070537,0.44407,-0.78831,-0.2557,1.5639,0.26782,-0.28518,0.31585,0.3672,0.61248,-0.00063718,0.065854,-0.40306,0.049838,1.7736,0.0057139,-0.009255,0.09778,-0.0086654,-0.72698,0.56565
-0.0086522,-0.026828,0.026,-0.071236,0.41709,-0.93914,-0.25567,1.6509,0.27477,-0.15869,0.31747,0.4422,0.51498,-0.011849,0.062924,-0.56584,0.040226,1.9382,0.4303,0.0075525,0.075437,0.10197,-0.70975,0.5973
-0.0043765,-0.027965,0.024403,-0.069807,0.38291,-1.1369,-0.24562,1.718,0.28061,-0.058183,0.31346,0.50691,0.37093,-0.037133,0.083102,-0.75275,0.029519,2.0069,0.51755,0.020444,0.042087,0.20283,-0.43736,0.60463
-0.002694,-0.027917,0.021285,-0.067245,0.35173,-1.3301,-0.15142,1.7963,0.27556,0.016798,0.31385,0.51586,0.22207,-0.052724,0.12264,-0.9258,0.024725,1.9868,0.21534,0.027404,0.0074033,0.2677,0.093415,0.59432
-0.0054498,-0.025834,0.017788,-0.064885,0.33567,-1.4778,0.07219,1.9044,0.25491,0.073745,0.31917,0.44638,0.091768,-0.043899,0.16281,-1.0478,0.023412,1.8973,-0.39251,0.023828,-0.018292,0.28298,0.78674,0.59574
-0.01128,-0.022289,0.015263,-0.063134,0.34316,-1.5723,0.38991,2.0371,0.22349,0.1283,0.32253,0.31379,-0.019311,-0.017657,0.18216,-1.1019,0.014373,1.7413,-1.143,0.0034497,-0.030555,0.25395,1.4705,0.64012
-0.016822,-0.019289,0.01393,-0.061384,0.37548,-1.6392,0.68797,2.1705,0.1943,0.20373,0.32004,0.16425,-0.12036,0.0040197,0.17035,-1.0952,-0.012979,1.4995,-1.8719,-0.038664,-0.032299,0.20254,1.9701,0.73109
-0.019368,-0.018969,0.012267,-0.058884,0.42749,-1.7174,0.84146,2.2811,0.18182,0.32523,0.31861,0.049276,-0.21463,0.0031033,0.13351,-1.0467,-0.058214,1.1569,-2.4623,-0.10174,-0.029468,0.15653,2.1919,0.8323
-0.018706,-0.021937,0.0078642,-0.05552,0.49083,-1.8348,0.80089,2.3635,0.19386,0.50903,0.33221,-0.0018948,-0.29611,-0.020036,0.088011,-0.9731,-0.10708,0.73805,-2.8442,-0.17427,-0.025148,0.13503,2.1629,0.88607
-0.016809,-0.026777,-0.00064925,-0.051732,0.55694,-1.9944,0.62788,2.4325,0.22641,0.75137,0.3679,0.0048312,-0.36045,-0.048211,0.047715,-0.88445,-0.1387,0.32066,-2.9651,-0.23098,-0.017237,0.13874,1.9997,0.85043
-0.01592,-0.031169,-0.012053,-0.047787,0.61834,-2.1748,0.44706,2.5096,0.26449,1.025,0.41323,0.037009,-0.41648,-0.062429,0.014127,-0.79125,-0.13769,0.0062071,-2.7711,-0.23686,-0.0010596,0.15159,1.831,0.72444
-0.016748,-0.033543,-0.022746,-0.043313,0.66887,-2.3394,0.35218,2.6034,0.2884,1.2872,0.43681,0.057967,-0.48325,-0.057232,-0.023664,-0.71353,-0.10284,-0.1349,-2.2261,-0.16198,0.025948,0.15368,1.728,0.5413
-0.018137,-0.033708,-0.028832,-0.037612,0.7048,-2.4467,0.34494,2.7001,0.28242,1.4962,0.40369,0.04708,-0.57126,-0.044334,-0.079339,-0.67977,-0.04746,-0.10637,-1.3647,-0.0031984,0.061292,0.1363,1.6812,0.33765
-0.01821,-0.032135,-0.028677,-0.030462,0.72676,-2.4566,0.35606,2.7699,0.24166,1.6248,0.29537,0.0056756,-0.66402,-0.042898,-0.15677,-0.71305,0.0077396,0.01464,-0.34068,0.2009,0.097693,0.10779,1.6266,0.12845
-0.015872,-0.029003,-0.024005,-0.02256,0.7405,-2.3382,0.32421,2.7852,0.17371,1.666,0.12052,-0.052169,-0.71891,-0.064885,-0.24326,-0.81366,0.043928,0.12238,0.57911,0.37758,0.12556,0.085688,1.4885,-0.089532
-0.011482,-0.024277,-0.018666,-0.015168,0.75497,-2.0802,0.25683,2.735,0.094265,1.6263,-0.09125,-0.11422,-0.69124,-0.10607,-0.31358,-0.95258,0.050736,0.141,1.1046,0.45398,0.13628,0.0817,1.2133,-0.31049
-0.0063564,-0.018628,-0.01602,-0.0093053,0.77819,-1.7024,0.21602,2.6267,0.019386,1.5167,-0.30758,-0.17831,-0.56479,-0.14755,-0.34256,-1.083,0.028289,0.059337,1.067,0.40064,0.12592,0.091966,0.7896,-0.49714
-0.0016929,-0.013823,-0.016961,-0.0051909,0.81375,-1.2584,0.2444,2.4765,-0.041362,1.3476,-0.51067,-0.24934,-0.36488,-0.16514,-0.31824,-1.1633,-0.014364,-0.075189,0.53807,0.25448,0.098577,0.10033,0.26372,-0.58784
0.0021196,-0.011644,-0.020005,-0.0022631,0.86027,-0.82112,0.30313,2.2986,-0.086734,1.13,-0.70222,-0.32956,-0.14369,-0.14086,-0.24731,-1.1764,-0.062855,-0.19201,-0.16786,0.10035,0.066945,0.090692,-0.25198,-0.53155
0.0053214,-0.012159,-0.023087,0.00046477,0.91392,-0.45344,0.28527,2.1023,-0.12028,0.87998,-0.89409,-0.41117,0.050096,-0.071873,-0.15063,-1.1323,-0.1023,-0.23566,-0.63786,0.019234,0.047772,0.056955,-0.60123,-0.32411
0.0080353,-0.013221,-0.025334,0.0041028,0.97126,-0.17709,0.10019,1.8967,-0.14492,0.61744,-1.0928,-0.47724,0.19402,0.025399,-0.053158,-1.0553,-0.12255,-0.18613,-0.58251,0.038097,0.052666,0.0020255,-0.65126,-0.017473
0.0097644,-0.012086,-0.027309,0.0096505,1.0297,0.040068,-0.23899,1.6958,-0.16029,0.36126,-1.2891,-0.50966,0.29196,0.118,0.024624,-0.96612,-0.12211,-0.057882,0.00089966,0.11793,0.079724,-0.071148,-0.37941,0.30452
0.0097106,-0.007884,-0.029847,0.017574,1.0851,0.26838,-0.59823,1.517,-0.16463,0.1246,-1.46,-0.49804,0.35681,0.16748,0.070207,-0.8737,-0.1084,0.11321,0.83476,0.18828,0.11275,-0.16546,0.085008,0.56577
0.0076983,-0.0025687,-0.0329,0.027237,1.1287,0.57926,-0.79401,1.374,-0.15864,-0.08295,-1.5793,-0.4438,0.39358,0.14733,0.079611,-0.77755,-0.09316,0.28457,1.5366,0.20061,0.13019,-0.28423,0.51543,0.72697
0.0048229,0.00074393,-0.035684,0.036755,1.1474,1.007,-0.70364,1.2703,-0.14696,-0.248,-1.631,-0.35834,0.39659,0.0589,0.058464,-0.67608,-0.085104,0.4186,1.8458,0.15923,0.1183,-0.4182,0.72055,0.79028
0.0030541,0.00065966,-0.037837,0.043844,1.1282,1.5301,-0.3394,1.2008,-0.1353,-0.34886,-1.6146,-0.2582,0.35927,-0.065206,0.023347,-0.57061,-0.084509,0.49119,1.7502,0.10888,0.079364,-0.53851,0.66346,0.78374
0.0038987,-0.0010455,-0.040146,0.04735,1.0661,2.0792,0.15844,1.1568,-0.12595,-0.3618,-1.543,-0.16052,0.2846,-0.17593,-0.0012235,-0.46281,-0.083475,0.49674,1.4395,0.094033,0.029376,-0.60652,0.47169,0.73979
0.0071514,-0.00082359,-0.043808,0.048281,0.96809,2.5633,0.59739,1.1307,-0.11627,-0.27675,-1.4345,-0.07987,0.18631,-0.23422,0.006439,-0.35133,-0.071766,0.44754,1.1423,0.12563,-0.011928,-0.59699,0.32367,0.68015
0.010857,0.0036055,-0.048832,0.049243,0.85164,2.9005,0.82463,1.1146,-0.10194,-0.11136,-1.3055,-0.025399,0.081966,-0.23241,0.050633,-0.23411,-0.043932,0.36658,0.97726,0.18021,-0.03051,-0.5177,0.30041,0.61146
0.012677,0.011288,-0.053343,0.052497,0.73544,3.0399,0.78281,1.0977,-0.082132,0.088766,-1.1677,0.0018776,-0.013855,-0.19538,0.11055,-0.11606,-0.0027251,0.27711,0.9217,0.22604,-0.020917,-0.40763,0.32353,0.52997
0.011654,0.018856,-0.054803,0.058197,0.63035,2.9724,0.50938,1.0674,-0.061471,0.26669,-1.0276,0.0095919,-0.090376,-0.15997,0.14834,-0.013882,0.043047,0.19532,0.89066,0.24955,0.016445,-0.31162,0.22863,0.43094
0.0089397,0.023328,-0.052303,0.064359,0.53667,2.7295,0.095551,1.0176,-0.04687,0.37856,-0.88836,0.010116,-0.13724,-0.14737,0.13101,0.050262,0.083802,0.13044,0.83664,0.26003,0.077978,-0.24885,-0.092124,0.31704
0.006907,0.024354,-0.047764,0.068624,0.44988,2.371,-0.3615,0.95431,-0.041959,0.41142,-0.75023,0.01308,-0.14317,-0.14821,0.052601,0.064879,0.11357,0.090603,0.77873,0.27351,0.15585,-0.19981,-0.60018,0.20063
0.0073643,0.024026,-0.044694,0.070243,0.36941,1.9653,-0.78736,0.89425,-0.044252,0.38508,-0.61167,0.019213,-0.099919,-0.13045,-0.059501,0.043222,0.13121,0.087944,0.75063,0.29507,0.23553,-0.12395,-1.1432,0.097803
0.01033,0.024647,-0.045293,0.070495,0.30254,1.5685,-1.1359,0.85175,-0.047341,0.33917,-0.47112,0.020919,-0.0083553,-0.063184,-0.15968,0.021602,0.13921,0.13641,0.73576,0.31629,0.29739,0.0035302,-1.5714,0.018468
0.014229,0.02664,-0.048368,0.071235,0.25971,1.215,-1.3849,0.82577,-0.045737,0.31355,-0.33038,0.010187,0.11914,0.061275,-0.21102,0.039173,0.14174,0.24159,0.66449,0.32696,0.32435,0.16366,-1.8334,-0.039546
0.017151,0.028511,-0.049974,0.073022,0.24571,0.92106,-1.5344,0.79761,-0.037949,0.33113,-0.19891,-0.012254,0.2628,0.22152,-0.20572,0.1117,0.1429,0.38901,0.48134,0.3262,0.31114,0.29722,-1.9796,-0.086789
0.018024,0.028751,-0.046478,0.074598,0.25458,0.69699,-1.6094,0.74282,-0.025864,0.38757,-0.096716,-0.034894,0.40353,0.37877,-0.16561,0.21846,0.14485,0.5403,0.21553,0.32108,0.26739,0.33978,-2.0877,-0.13168
0.016904,0.027687,-0.037628,0.074176,0.27256,0.55274,-1.654,0.64849,-0.012427,0.45025,-0.052229,-0.043591,0.52943,0.49629,-0.12421,0.3131,0.14609,0.64358,-0.020672,0.3155,0.21142,0.26447,-2.1909,-0.17231
0.014508,0.02738,-0.027108,0.071252,0.2858,0.49018,-1.7088,0.52183,-0.00071783,0.46769,-0.091485,-0.033925,0.63659,0.55419,-0.10434,0.35155,0.14144,0.65546,-0.11586,0.30282,0.15945,0.10297,-2.2641,-0.19769
0.011685,0.02955,-0.020042,0.067226,0.28614,0.48968,-1.7813,0.38374,0.0051385,0.38991,-0.21946,-0.016892,0.72416,0.55352,-0.10704,0.31788,0.12501,0.56357,-0.056567,0.27141,0.11875,-0.069426,-2.2631,-0.19676
0.0092332,0.033541,-0.019356,0.064244,0.27108,0.50788,-1.8332,0.25333,-0.00021802,0.19413,-0.40267,-0.011698,0.78738,0.51132,-0.11725,0.23111,0.094885,0.39474,0.049061,0.21793,0.089272,-0.17385,-2.1647,-0.16661
0.0078774,0.036453,-0.023768,0.063354,0.24068,0.49685,-1.8021,0.13633,-0.02063,-0.096248,-0.56833,-0.03027,0.81404,0.45149,-0.11895,0.13067,0.055998,0.19979,0.04615,0.15461,0.070453,-0.16683,-1.9717,-0.11265
0.0080179,0.0356,-0.02884,0.063609,0.19644,0.43529,-1.6499,0.02567,-0.054177,-0.41348,-0.6304,-0.066063,0.78903,0.39542,-0.10699,0.052971,0.018149,0.020094,-0.15387,0.10187,0.065555,-0.055428,-1.6923,-0.042301
0.0093161,0.031143,-0.030102,0.062876,0.14381,0.34803,-1.4017,-0.08883,-0.09173,-0.67254,-0.53536,-0.097135,0.70641,0.3548,-0.087564,0.015026,-0.0099034,-0.14413,-0.51378,0.072567,0.079142,0.1162,-1.3297,0.040061
0.010622,0.026354,-0.025809,0.059632,0.094347,0.29373,-1.1431,-0.21128,-0.12101,-0.81207,-0.30105,-0.10188,0.58172,0.32837,-0.070117,0.012663,-0.025624,-0.33883,-0.90675,0.062721,0.11087,0.29576,-0.89399,0.13154
0.010601,0.024995,-0.017491,0.054247,0.062404,0.32373,-0.9708,-0.33811,-0.13394,-0.82607,-0.018475,-0.075036,0.45359,0.30457,-0.059358,0.029497,-0.032752,-0.62268,-1.2075,0.057775,0.15262,0.44733,-0.4176,0.22475
0.0087172,0.028018,-0.0083425,0.048753,0.056118,0.43911,-0.93098,-0.46288,-0.13141,-0.76634,0.19235,-0.031134,0.36808,0.26944,-0.054004,0.047487,-0.036176,-1.0101,-1.358,0.048627,0.1927,0.55886,0.05382,0.30518
0.0057511,0.032577,-0.0010555,0.045318,0.069075,0.57852,-0.99215,-0.58078,-0.12153,-0.71287,0.24846,0.0069592,0.35223,0.21582,-0.051012,0.053411,-0.036383,-1.4294,-1.3631,0.041825,0.2236,0.63336,0.49394,0.35635
0.0032964,0.034346,0.0033115,0.04464,0.080143,0.64966,-1.0718,-0.68899,-0.1128,-0.72924,0.14871,0.024483,0.39451,0.14803,-0.049066,0.041587,-0.028848,-1.735,-1.2437,0.053514,0.24613,0.67512,0.92075,0.36901
0.0025844,0.031201,0.0051136,0.045473,0.063507,0.58534,-1.0948,-0.78417,-0.10791,-0.82842,-0.032522,0.022868,0.4487,0.07871,-0.047272,0.015083,-0.0093543,-1.7796,-1.0106,0.091983,0.26611,0.68263,1.3852,0.34612
0.003607,0.025057,0.00535,0.045596,0.0030321,0.38568,-1.0369,-0.86166,-0.10309,-0.96697,-0.19569,0.014248,0.4614,0.020194,-0.041529,-0.01518,0.01932,-1.5096,-0.68685,0.14477,0.2866,0.65251,1.9268,0.29897
0.0052721,0.020286,0.0051972,0.043441,-0.098464,0.11676,-0.92238,-0.91782,-0.092256,-1.0682,-0.27215,0.0091156,0.40446,-0.023309,-0.024455,-0.036221,0.045619,-1.0197,-0.34677,0.18281,0.30315,0.58871,2.5307,0.23821
0.0063992,0.020154,0.0059076,0.039123,-0.22079,-0.13236,-0.7855,-0.95254,-0.071756,-1.0598,-0.24812,0.0086898,0.28882,-0.057009,0.008877,-0.043343,0.054841,-0.52138,-0.11298,0.1794,0.30627,0.50734,3.1172,0.1684
0.0066145,0.024312,0.0085617,0.034129,-0.33691,-0.30216,-0.63383,-0.96848,-0.041608,-0.908,-0.14822,0.0076473,0.15163,-0.089829,0.054208,-0.048235,0.038488,-0.23393,-0.093518,0.12873,0.28941,0.43115,3.5705,0.090935
0.0063657,0.029321,0.013439,0.029971,-0.42493,-0.38747,-0.44675,-0.96755,-0.0037787,-0.63256,-0.002877,0.0023643,0.030389,-0.12635,0.097893,-0.075888,0.0003581,-0.26219,-0.30605,0.049543,0.25545,0.37723,3.7847,0.011601
0.0061765,0.031505,0.019493,0.026941,-0.47414,-0.42148,-0.20624,-0.94885,0.03925,-0.29977,0.16966,-0.0049007,-0.053401,-0.16253,0.12545,-0.14823,-0.04524,-0.53829,-0.65583,-0.028158,0.21643,0.34733,3.703,-0.055912
0.0060156,0.029625,0.02465,0.023958,-0.48319,-0.43902,0.07142,-0.91112,0.083455,0.0047345,0.35635,-0.010311,-0.091565,-0.1882,0.13232,-0.26434,-0.081732,-0.86512,-0.98989,-0.081787,0.1867,0.32889,3.3381,-0.095783
0.0054745,0.025298,0.027039,0.0196,-0.4545,-0.45254,0.33454,-0.85769,0.12146,0.21122,0.53399,-0.016268,-0.07856,-0.19434,0.12712,-0.39338,-0.098925,-1.0335,-1.1832,-0.10596,0.17469,0.30574,2.773,-0.10134
0.0045124,0.021198,0.026341,0.013438,-0.39076,-0.4584,0.52821,-0.79861,0.14345,0.29376,0.66753,-0.033704,-0.01103,-0.18001,0.12358,-0.48908,-0.096322,-0.93918,-1.1895,-0.10832,0.17932,0.27016,2.1422,-0.081918
0.0038272,0.018799,0.024157,0.0065684,-0.29684,-0.46042,0.63277,-0.7464,0.14201,0.27676,0.72659,-0.075116,0.098149,-0.15418,0.12789,-0.51829,-0.080088,-0.63083,-1.0308,-0.098383,0.19298,0.22718,1.5894,-0.05826
0.004256,0.017484,0.022992,0.0008538,-0.18416,-0.48208,0.67694,-0.70834,0.11767,0.21604,0.70329,-0.14386,0.20739,-0.13125,0.13278,-0.48316,-0.057465,-0.26729,-0.75669,-0.080306,0.20848,0.18919,1.2131,-0.048909
0.0057014,0.015482,0.024487,-0.0025038,-0.071898,-0.55259,0.71508,-0.68198,0.080285,0.16544,0.61226,-0.22926,0.25574,-0.12314,0.12379,-0.41983,-0.033404,-0.019646,-0.42354,-0.054754,0.22431,0.16676,1.023,-0.058181
0.0067689,0.011592,0.028184,-0.0039061,0.019076,-0.68092,0.7865,-0.65832,0.044383,0.1493,0.47225,-0.31216,0.19587,-0.13283,0.092608,-0.37368,-0.01099,0.019909,-0.10592,-0.025155,0.24463,0.16303,0.93826,-0.075274
0.0057416,0.0062761,0.031734,-0.0049893,0.077194,-0.84664,0.88675,-0.63037,0.021298,0.15736,0.2885,-0.37628,0.028221,-0.15305,0.045658,-0.37009,0.0067213,-0.12625,0.095403,-0.00013749,0.27379,0.17431,0.83813,-0.085011
0.0021681,0.0013511,0.032452,-0.0072059,0.10833,-1.0202,0.9701,-0.59971,0.013807,0.16255,0.055382,-0.41646,-0.19202,-0.17088,0.00084688,-0.40231,0.016723,-0.35003,0.086058,0.011212,0.30958,0.19342,0.63852,-0.08136
-0.0024167,-0.0013456,0.029187,-0.010547,0.13354,-1.194,0.97979,-0.57466,0.016554,0.14596,-0.22115,-0.43822,-0.38285,-0.17498,-0.024153,-0.44409,0.018505,-0.52278,-0.15663,0.0066399,0.34018,0.21145,0.34696,-0.073162
-0.0054388,-0.0012645,0.02322,-0.013546,0.17584,-1.3907,0.88499,-0.56099,0.021157,0.11038,-0.5026,-0.45087,-0.47797,-0.16131,-0.021754,-0.47402,0.016168,-0.55476,-0.54048,-0.0068741,0.34774,0.21724,0.055516,-0.078489
-0.0051671,0.00051834,0.017545,-0.014625,0.24389,-1.6333,0.70112,-0.55265,0.021914,0.074949,-0.72075,-0.46081,-0.45251,-0.1343,0.0050333,-0.48988,0.017114,-0.42045,-0.8866,-0.018197,0.31708,0.1979,-0.12742,-0.11298
-0.0019354,0.0021259,0.014976,-0.013601,0.32412,-1.9009,0.48247,-0.53097,0.018507,0.059375,-0.80699,-0.46966,-0.31754,-0.1035,0.049458,-0.50222,0.027391,-0.14748,-1.0218,-0.019928,0.24441,0.14276,-0.16103,-0.18089
0.0022377,0.002186,0.016357,-0.011961,0.38747,-2.1129,0.29326,-0.47493,0.014898,0.071657,-0.72895,-0.47671,-0.09667,-0.078467,0.10673,-0.51552,0.047145,0.21132,-0.87156,-0.012145,0.14075,0.049405,-0.11054,-0.27375
0.0051062,0.00059091,0.020114,-0.01161,0.40657,-2.1662,0.17574,-0.3759,0.015921,0.10714,-0.50911,-0.48209,0.18934,-0.065057,0.17259,-0.51655,0.069896,0.59965,-0.48905,0.00016284,0.027922,-0.072253,-0.10779,-0.3752
0.0054094,-0.0018079,0.023472,-0.013237,0.37178,-2.0032,0.13393,-0.2464,0.023801,0.15529,-0.21411,-0.48803,0.51658,-0.064358,0.23744,-0.4817,0.086124,0.96349,-0.0063466,0.011676,-0.070503,-0.20087,-0.25758,-0.46756
