3.2605e-010,1.5608e-009,-2.1222e-011,2.5563e-009,-3.492e-010,1.2676e-009,2.1801e-010,1.1441e-009,-1.0515e-009,-3.9724e-009,8.9327e-010,-1.6689e-009,-1.0482e-008,1.1827e-009,5.4349e-009,-6.5403e-010,1.0592e-009,1.0438e-009,2.7415e-009,2.5911e-009,4.4374e-011,2.5274e-010,6.3667e-011,1.611e-009
9.0409e-009,4.3297e-008,-3.858e-010,7.0714e-008,-9.7887e-009,3.5154e-008,6.2675e-009,3.1781e-008,-2.9889e-008,-1.1037e-007,2.387e-008,-4.4415e-008,-2.9095e-007,3.1335e-008,1.5024e-007,-1.7645e-008,2.9362e-008,2.8966e-008,7.6862e-008,7.1593e-008,1.3111e-009,6.5442e-009,1.605e-009,4.4552e-008
1.2182e-007,5.839e-007,-2.3102e-009,9.5089e-007,-1.3315e-007,4.741e-007,8.7685e-008,4.2919e-007,-4.132e-007,-1.4913e-006,3.0874e-007,-5.7164e-007,-3.9277e-006,4.012e-007,2.0193e-006,-2.3052e-007,3.9546e-007,3.9177e-007,1.0494e-006,9.618e-007,1.8702e-008,8.1723e-008,1.9558e-008,5.9873e-007
1.0626e-006,5.1001e-006,6.7105e-009,8.2808e-006,-1.1709e-006,4.1424e-006,7.9562e-007,3.754e-006,-3.7012e-006,-1.3056e-005,2.5732e-006,-4.7332e-006,-3.4358e-005,3.3024e-006,1.7581e-005,-1.941e-006,3.4475e-006,3.4426e-006,9.297e-006,8.3704e-006,1.7171e-007,6.5476e-007,1.5341e-007,5.2092e-006
6.7432e-006,3.2427e-005,2.2599e-007,5.2488e-005,-7.4838e-006,2.6358e-005,5.265e-006,2.3905e-005,-2.4146e-005,-8.324e-005,1.5519e-005,-2.8279e-005,-0.00021892,1.96e-005,0.00011145,-1.1824e-005,2.1862e-005,2.2105e-005,6.0098e-005,5.3045e-005,1.1413e-006,3.7763e-006,8.7035e-007,3.2977e-005
3.317e-005,0.0001599,2.0918e-006,0.000258,-3.7043e-005,0.00013015,2.709e-005,0.00011808,-0.00012224,-0.00041172,7.2087e-005,-0.00012948,-0.0010825,8.9099e-005,0.0005481,-5.541e-005,0.00010745,0.0001106,0.00030213,0.00026083,5.8541e-006,1.6672e-005,3.808e-006,0.00016183
0.00013156,0.00063601,1.2565e-005,0.001023,-0.00014775,0.00051877,0.00011283,0.00047064,-0.0004996,-0.0016432,0.00026795,-0.00047023,-0.0043221,0.00032123,0.0021753,-0.00020724,0.00042571,0.00044907,0.0012295,0.0010353,2.4123e-005,5.8506e-005,1.3401e-005,0.00064032
0.00043198,0.0020954,5.6822e-005,0.0033592,-0.00048772,0.0017144,0.00039103,0.0015544,-0.0016928,-0.0054328,0.00081707,-0.0013793,-0.014307,0.00093621,0.0071542,-0.00063238,0.0013963,0.0015212,0.0041611,0.0034072,8.2043e-005,0.00016743,3.923e-005,0.0020974
0.0011964,0.0058241,0.00020586,0.0093049,-0.0013579,0.004786,0.0011503,0.0043336,-0.0048446,-0.015151,0.0020786,-0.0032782,-0.040004,0.0022181,0.019863,-0.0015925,0.0038625,0.0043863,0.011943,0.0094723,0.00023475,0.00039904,9.8857e-005,0.0057927
0.0028322,0.013835,0.00061827,0.022024,-0.0032328,0.011438,0.0029148,0.010334,-0.011866,-0.036088,0.0044605,-0.006197,-0.095727,0.0042203,0.047172,-0.0033102,0.0091327,0.01093,0.029484,0.022548,0.00057282,0.00081215,0.00022393,0.013663
0.0057841,0.028337,0.0015734,0.044932,-0.0066456,0.023621,0.0064344,0.021267,-0.025104,-0.07401,0.0081331,-0.0086593,-0.19781,0.0061295,0.096696,-0.0055853,0.018636,0.023806,0.063286,0.046398,0.0012034,0.0014735,0.0004817,0.027763
0.010255,0.050322,0.0034445,0.079424,-0.011877,0.042424,0.012478,0.03799,-0.046142,-0.13121,0.012667,-0.0062397,-0.35494,0.0055401,0.17207,-0.0072179,0.033047,0.045733,0.11904,0.083083,0.0021889,0.0025735,0.0010356,0.048845
0.015841,0.077662,0.0065597,0.12186,-0.018539,0.066515,0.021386,0.059066,-0.073881,-0.20103,0.01697,0.0089452,-0.55419,-0.0015809,0.26654,-0.0056285,0.05117,0.078013,0.19739,0.13,0.0034544,0.0047512,0.0022625,0.074534
0.021337,0.10408,0.010966,0.16197,-0.02534,0.09119,0.032521,0.079901,-0.10299,-0.26459,0.019906,0.045914,-0.75165,-0.019297,0.3593,0.002698,0.069448,0.11877,0.28979,0.17816,0.0047164,0.0095547,0.0048918,0.098449
0.025021,0.12064,0.016227,0.18531,-0.030388,0.10936,0.04394,0.093713,-0.12441,-0.29474,0.021445,0.10872,-0.87944,-0.048395,0.42003,0.020593,0.082967,0.16202,0.37794,0.21415,0.0055134,0.019615,0.010041,0.11184
0.025426,0.12006,0.021447,0.1803,-0.032091,0.1149,0.052686,0.09468,-0.12884,-0.2687,0.023324,0.18875,-0.87395,-0.083075,0.42309,0.047988,0.087944,0.19866,0.43927,0.2264,0.0053776,0.03787,0.018957,0.10797
0.02223,0.10174,0.025602,0.14632,-0.030209,0.10671,0.055784,0.081769,-0.11194,-0.18407,0.027987,0.26104,-0.71352,-0.11072,0.36451,0.080651,0.084198,0.21976,0.45707,0.21269,0.0040898,0.065549,0.03235,0.086952
0.016584,0.073586,0.028006,0.09684,-0.026258,0.090456,0.05163,0.060407,-0.077765,-0.066369,0.035716,0.29111,-0.4403,-0.11677,0.26944,0.11139,0.075515,0.22099,0.42928,0.1832,0.0018662,0.09971,0.049514,0.057228
0.010557,0.048181,0.028545,0.053344,-0.02276,0.075841,0.041001,0.039915,-0.037063,0.04113,0.042057,0.25314,-0.14494,-0.093209,0.18104,0.13358,0.067072,0.20568,0.36918,0.15531,-0.00066573,0.13226,0.067753,0.031415
0.0059762,0.035013,0.027512,0.032491,-0.021657,0.07031,0.027004,0.027704,-0.00063011,0.10225,0.038588,0.15153,0.081872,-0.045061,0.13536,0.14484,0.061648,0.18449,0.29636,0.14243,-0.002724,0.15229,0.08275,0.018368
0.0034998,0.034357,0.025235,0.035365,-0.02302,0.073748,0.01378,0.024284,0.027914,0.11125,0.018277,0.030749,0.19938,0.010687,0.13917,0.1477,0.057808,0.17093,0.22408,0.14485,-0.0037318,0.15137,0.090137,0.01719
0.0025205,0.037896,0.021962,0.047367,-0.025116,0.078567,0.0045312,0.023189,0.054041,0.095802,-0.017358,-0.03817,0.23125,0.05473,0.16785,0.14657,0.051825,0.17458,0.15304,0.15012,-0.0035913,0.12904,0.087671,0.018229
0.0018589,0.03595,0.018166,0.049619,-0.025898,0.075728,-4.6331e-006,0.016321,0.086801,0.095082,-0.054815,0.0076786,0.23373,0.077579,0.18549,0.14311,0.041693,0.19515,0.077099,0.14329,-0.0027487,0.093966,0.076761,0.010873
0.00061635,0.025393,0.014868,0.033214,-0.024713,0.062124,-0.0016638,0.00063968,0.12997,0.12881,-0.072801,0.1856,0.24474,0.085198,0.17091,0.13425,0.029327,0.22073,-0.0039491,0.11883,-0.002023,0.059461,0.062146,-0.0079693
-0.0013856,0.011511,0.013355,0.0049861,-0.022731,0.043252,-0.0034092,-0.019294,0.17728,0.1824,-0.052506,0.45142,0.25684,0.093371,0.12867,0.11499,0.01852,0.23114,-0.076594,0.084143,-0.0022338,0.035571,0.049579,-0.031701
-0.0036784,0.0023831,0.014289,-0.019579,-0.021648,0.028841,-0.0072223,-0.034997,0.21611,0.221,0.012421,0.71801,0.23522,0.11487,0.077744,0.083788,0.010406,0.20523,-0.1198,0.052045,-0.0037064,0.023606,0.042795,-0.049956
-0.0054771,0.0011465,0.016959,-0.029798,-0.021804,0.025196,-0.012766,-0.040803,0.23713,0.22073,0.11258,0.89907,0.16112,0.14949,0.030481,0.045792,0.001002,0.12899,-0.12217,0.029012,-0.0058556,0.017097,0.041718,-0.057285
-0.0060641,0.0033707,0.0196,-0.027989,-0.021559,0.030833,-0.017763,-0.03795,0.24179,0.19012,0.22761,0.9517,0.058804,0.18477,-0.017438,0.010566,-0.01612,0.0014554,-0.096038,0.0098898,-0.007199,0.0082326,0.043139,-0.056955
-0.0052041,0.0017589,0.02072,-0.025954,-0.018713,0.038884,-0.019768,-0.032845,0.24155,0.16319,0.33483,0.89263,-0.019347,0.2062,-0.07742,-0.014189,-0.043852,-0.16332,-0.074977,-0.016509,-0.0060712,-0.0055882,0.04334,-0.056819
-0.0035017,-0.006618,0.020345,-0.033796,-0.012811,0.0436,-0.017944,-0.031485,0.24906,0.17083,0.41639,0.78084,-0.03537,0.20773,-0.14963,-0.027832,-0.077612,-0.33879,-0.093689,-0.056435,-0.0018537,-0.020336,0.040716,-0.061576
-0.0023743,-0.017627,0.019971,-0.051452,-0.0060886,0.044771,-0.013471,-0.034968,0.26826,0.21628,0.46224,0.6812,0.0035859,0.19356,-0.21536,-0.03647,-0.10745,-0.49256,-0.16425,-0.10493,0.0040736,-0.029704,0.03653,-0.068813
-0.0033594,-0.024375,0.021193,-0.070009,-0.0018827,0.046277,-0.0084189,-0.039509,0.29109,0.27609,0.47023,0.63269,0.054046,0.1705,-0.24886,-0.047323,-0.12486,-0.59604,-0.26695,-0.14948,0.008567,-0.031064,0.033446,-0.072348
-0.0070135,-0.024082,0.024229,-0.080557,-0.0016752,0.050789,-0.0042476,-0.040091,0.3028,0.32395,0.44518,0.63723,0.075462,0.139,-0.23815,-0.062294,-0.12863,-0.63429,-0.36325,-0.1797,0.0083019,-0.027929,0.03317,-0.069252
-0.012244,-0.020734,0.027634,-0.081925,-0.0034274,0.056189,-0.0012686,-0.03418,0.29166,0.35362,0.39644,0.66896,0.064158,0.092253,-0.19557,-0.075793,-0.12481,-0.61147,-0.42145,-0.19412,0.0017028,-0.027267,0.035022,-0.063551
-0.016821,-0.021006,0.029393,-0.080548,-0.0029326,0.057281,0.00066151,-0.022726,0.25615,0.37916,0.33278,0.69247,0.053021,0.024998,-0.14836,-0.078269,-0.12103,-0.54829,-0.43583,-0.19891,-0.010274,-0.034376,0.036344,-0.062985
-0.018912,-0.027609,0.028372,-0.083616,0.002774,0.051033,0.0012637,-0.008697,0.20536,0.41293,0.25586,0.67803,0.079925,-0.055864,-0.1181,-0.062635,-0.12036,-0.47159,-0.42635,-0.20081,-0.025156,-0.049513,0.034251,-0.071948
-0.018474,-0.036637,0.024982,-0.092556,0.012877,0.040165,-7.5804e-005,0.00477,0.15354,0.44415,0.15747,0.60901,0.15441,-0.12932,-0.10725,-0.029058,-0.11984,-0.40181,-0.42121,-0.20148,-0.040825,-0.068385,0.02741,-0.087324
-0.017314,-0.041493,0.020727,-0.10277,0.023373,0.031605,-0.003288,0.015198,0.11307,0.44081,0.025435,0.48326,0.25049,-0.17024,-0.10347,0.014677,-0.11424,-0.34602,-0.43698,-0.19776,-0.056489,-0.085336,0.016756,-0.10106
-0.017668,-0.039532,0.017231,-0.10898,0.030254,0.031201,-0.0068855,0.020914,0.089558,0.37586,-0.14332,0.31147,0.3282,-0.1643,-0.095736,0.056846,-0.10112,-0.30036,-0.4704,-0.18642,-0.071862,-0.096557,0.0047708,-0.10696
-0.020458,-0.034933,0.015459,-0.11044,0.03243,0.039366,-0.0085501,0.021433,0.080904,0.25477,-0.33175,0.11332,0.36268,-0.11619,-0.086354,0.08702,-0.082544,-0.25826,-0.50465,-0.16812,-0.085554,-0.10146,-0.0061875,-0.10543
-0.02467,-0.034932,0.015453,-0.11089,0.031826,0.051116,-0.006701,0.017935,0.079505,0.11833,-0.50462,-0.088565,0.35713,-0.045028,-0.088463,0.10019,-0.062593,-0.21672,-0.52251,-0.14687,-0.094629,-0.10214,-0.015553,-0.10207
-0.028261,-0.042915,0.016501,-0.11398,0.030811,0.059798,-0.0016302,0.012677,0.076248,0.016128,-0.62543,-0.27548,0.3338,0.028702,-0.11244,0.098187,-0.043691,-0.17589,-0.51588,-0.12618,-0.096316,-0.10174,-0.025081,-0.10179
-0.029711,-0.054843,0.017555,-0.11916,0.02959,0.06091,0.0047773,0.0069567,0.064758,-0.02824,-0.67815,-0.43689,0.31539,0.094241,-0.15422,0.088199,-0.025336,-0.13488,-0.48738,-0.10596,-0.090615,-0.10265,-0.037594,-0.10424
-0.028884,-0.062444,0.017754,-0.12217,0.026104,0.053222,0.010278,-0.00087026,0.044285,-0.031273,-0.67724,-0.56975,0.31341,0.15182,-0.19551,0.079158,-0.0061465,-0.090811,-0.44575,-0.083473,-0.08135,-0.10497,-0.054415,-0.10451
-0.026675,-0.060365,0.016779,-0.11948,0.01844,0.037494,0.01316,-0.015041,0.019706,-0.03224,-0.65715,-0.67447,0.32867,0.20493,-0.21496,0.077825,0.013225,-0.044305,-0.39977,-0.057293,-0.074301,-0.10624,-0.073111,-0.098246
-0.024096,-0.050875,0.014793,-0.11209,0.0072632,0.01511,0.012168,-0.039134,-0.001681,-0.060621,-0.64799,-0.75189,0.3576,0.25136,-0.20084,0.086398,0.029288,-0.0062879,-0.35332,-0.030536,-0.073621,-0.10268,-0.087503,-0.085927
-0.021766,-0.041988,0.012011,-0.10479,-0.0042441,-0.011861,0.0061528,-0.072225,-0.01486,-0.1161,-0.65579,-0.80449,0.39566,0.28053,-0.15633,0.10268,0.03776,0.0033036,-0.30268,-0.010104,-0.079335,-0.091855,-0.090609,-0.072481
-0.020069,-0.040815,0.0083327,-0.10173,-0.012971,-0.039945,-0.0054997,-0.10787,-0.020187,-0.17586,-0.66213,-0.8404,0.43633,0.27898,-0.096009,0.12223,0.036592,-0.031545,-0.23728,-0.002097,-0.087851,-0.074891,-0.079069,-0.062682
-0.019424,-0.048015,0.003532,-0.10267,-0.018503,-0.06463,-0.021652,-0.13728,-0.022652,-0.21917,-0.64265,-0.87482,0.4702,0.23915,-0.037885,0.14073,0.02749,-0.10597,-0.14498,-0.0069567,-0.09479,-0.056269,-0.05607,-0.056866
-0.02002,-0.057928,-0.0021154,-0.10331,-0.023212,-0.082238,-0.038717,-0.15445,-0.027927,-0.24563,-0.58815,-0.92488,0.48806,0.16502,0.0033657,0.15499,0.01506,-0.18724,-0.020465,-0.018334,-0.097629,-0.04097,-0.030485,-0.050955
-0.021181,-0.06374,-0.0074673,-0.099404,-0.029684,-0.091848,-0.051713,-0.15953,-0.038366,-0.27206,-0.51086,-0.99958,0.48566,0.070941,0.020131,0.16266,0.00461,-0.22637,0.12811,-0.026907,-0.096185,-0.030918,-0.012401,-0.040648
-0.021222,-0.062803,-0.011061,-0.090536,-0.037983,-0.095526,-0.056815,-0.15808,-0.052052,-0.31391,-0.4318,-1.0922,0.46554,-0.025166,0.013052,0.16145,0.00021558,-0.18347,0.27995,-0.026516,-0.091185,-0.023778,-0.0078731,-0.025809
-0.01835,-0.057741,-0.012314,-0.08032,-0.045445,-0.096764,-0.0536,-0.15741,-0.065356,-0.37014,-0.36166,-1.1823,0.43383,-0.10978,-0.0097625,0.14925,0.003746,-0.050818,0.41079,-0.018176,-0.082831,-0.015374,-0.016331,-0.010978
-0.012172,-0.053167,-0.012276,-0.073161,-0.04929,-0.098662,-0.045205,-0.16285,-0.076555,-0.42502,-0.29344,-1.2473,0.39514,-0.17847,-0.035926,0.1249,0.014613,0.14149,0.50468,-0.009051,-0.070836,-0.0038256,-0.032131,-0.0016515
-0.004473,-0.051619,-0.01301,-0.070752,-0.049573,-0.10327,-0.036242,-0.1762,-0.08742,-0.46326,-0.21324,-1.276,0.35022,-0.23472,-0.054157,0.088974,0.02995,0.34147,0.55989,-0.0072404,-0.055594,0.0082917,-0.048749,0.00028902
0.0016304,-0.05231,-0.015922,-0.071222,-0.049546,-0.11199,-0.030079,-0.19608,-0.10171,-0.4833,-0.11882,-1.2747,0.29733,-0.28364,-0.059499,0.044027,0.045451,0.5025,0.58426,-0.016215,-0.038905,0.015934,-0.0624,-0.0019949
0.0037497,-0.05303,-0.020462,-0.071144,-0.052904,-0.12585,-0.02747,-0.21892,-0.1222,-0.49752,-0.027972,-1.2618,0.23498,-0.32434,-0.055068,-0.0057091,0.05708,0.60482,0.58397,-0.0328,-0.023248,0.016211,-0.07273,-0.002978
0.0019205,-0.052663,-0.024481,-0.068173,-0.060324,-0.14491,-0.027228,-0.2399,-0.14877,-0.5208,0.032519,-1.2538,0.16365,-0.34631,-0.049034,-0.054819,0.062901,0.65848,0.55475,-0.04989,-0.010158,0.011528,-0.080802,0.0010681
-0.0014789,-0.051797,-0.026047,-0.062142,-0.068413,-0.16758,-0.027978,-0.25409,-0.1787,-0.55823,0.048531,-1.2553,0.086482,-0.33352,-0.049122,-0.097678,0.063526,0.68687,0.48301,-0.06177,0.00080851,0.008205,-0.086669,0.010023
-0.0035618,-0.05139,-0.025174,-0.05431,-0.072023,-0.19099,-0.029344,-0.25819,-0.20829,-0.60074,0.032785,-1.2553,0.010479,-0.27551,-0.058693,-0.13021,0.060359,0.7031,0.35669,-0.068262,0.011607,0.011483,-0.088778,0.021279
-0.0030302,-0.051405,-0.023937,-0.046048,-0.067908,-0.21252,-0.031727,-0.2521,-0.23404,-0.62901,0.019918,-1.2336,-0.052832,-0.17839,-0.076653,-0.15192,0.052924,0.6965,0.17844,-0.07495,0.02423,0.02117,-0.085537,0.032684
-0.00083829,-0.050979,-0.024892,-0.038165,-0.056651,-0.23102,-0.035177,-0.23884,-0.25294,-0.62063,0.047296,-1.1698,-0.090097,-0.067033,-0.099892,-0.16659,0.037975,0.63986,-0.02796,-0.089373,0.03949,0.031689,-0.077386,0.044122
0.0010235,-0.049704,-0.029156,-0.030952,-0.041608,-0.24659,-0.038597,-0.22245,-0.26241,-0.55672,0.13729,-1.0522,-0.093239,0.025914,-0.12508,-0.1804,0.012081,0.5131,-0.2231,-0.11568,0.056897,0.036357,-0.067366,0.056572
0.0014688,-0.048357,-0.03567,-0.024325,-0.026292,-0.2592,-0.04007,-0.20519,-0.26102,-0.42813,0.29275,-0.88304,-0.067069,0.078785,-0.1483,-0.19806,-0.023913,0.32516,-0.36759,-0.15128,0.075385,0.031983,-0.059573,0.070047
0.0012752,-0.048129,-0.042063,-0.017725,-0.012669,-0.26772,-0.038011,-0.18634,-0.24969,-0.2412,0.50402,-0.68089,-0.030841,0.094554,-0.16408,-0.21976,-0.062591,0.11561,-0.441,-0.18774,0.094018,0.019838,-0.056691,0.082785
0.0022879,-0.049172,-0.046229,-0.01012,-0.0014318,-0.27058,-0.032196,-0.16375,-0.23194,-0.019782,0.75653,-0.47575,-0.01072,0.097885,-0.16673,-0.24144,-0.092779,-0.067481,-0.45473,-0.21555,0.11214,0.0028395,-0.058466,0.092561
0.0056368,-0.050067,-0.047416,-0.00051698,0.0067939,-0.26716,-0.023924,-0.1368,-0.21253,0.20089,1.031,-0.2977,-0.027254,0.11553,-0.15446,-0.25835,-0.10609,-0.19673,-0.4514,-0.2296,0.12919,-0.017413,-0.062061,0.098724
0.010547,-0.048852,-0.046295,0.011231,0.011073,-0.25838,-0.015335,-0.10822,-0.19498,0.38761,1.2986,-0.1619,-0.086038,0.15331,-0.13328,-0.26889,-0.10205,-0.27753,-0.48794,-0.23146,0.1447,-0.040097,-0.063785,0.10283
0.014762,-0.044612,-0.044318,0.024018,0.011119,-0.24545,-0.0085054,-0.083109,-0.18012,0.52161,1.5206,-0.059162,-0.17696,0.18721,-0.11646,-0.27562,-0.087424,-0.33229,-0.60785,-0.22693,0.1588,-0.061467,-0.060899,0.10725
0.016228,-0.038078,-0.042983,0.035976,0.0084057,-0.22845,-0.0048887,-0.066012,-0.16688,0.60028,1.6567,0.039291,-0.28069,0.177,-0.11816,-0.28279,-0.070188,-0.37101,-0.81486,-0.22068,0.17251,-0.072417,-0.052579,0.1131
0.014679,-0.030759,-0.043287,0.045575,0.0059596,-0.2066,-0.0052453,-0.058228,-0.15459,0.6271,1.6788,0.16333,-0.37677,0.093818,-0.1449,-0.29287,-0.053579,-0.37617,-1.0622,-0.21243,0.18733,-0.061559,-0.039947,0.11954
0.011883,-0.023572,-0.045354,0.052516,0.0066501,-0.18066,-0.0097888,-0.057399,-0.14451,0.59965,1.5814,0.32334,-0.44917,-0.057268,-0.19068,-0.30514,-0.035644,-0.31877,-1.2657,-0.19756,0.20397,-0.023258,-0.025539,0.12502
0.010412,-0.016369,-0.048261,0.05776,0.011328,-0.15513,-0.018223,-0.059177,-0.13912,0.50824,1.3821,0.50253,-0.48891,-0.23515,-0.23925,-0.31687,-0.014442,-0.19362,-1.3362,-0.17169,0.22116,0.035283,-0.012468,0.12894
0.011864,-0.008688,-0.050306,0.062726,0.01835,-0.13722,-0.029549,-0.059355,-0.13952,0.34872,1.1154,0.66843,-0.49508,-0.38138,-0.27217,-0.32516,0.0064877,-0.042077,-1.2178,-0.13542,0.23564,0.094454,-0.0033541,0.13195
0.015852,-0.00077859,-0.049943,0.068272,0.024838,-0.13216,-0.041855,-0.055046,-0.1435,0.13866,0.82411,0.79433,-0.47414,-0.44601,-0.27711,-0.32727,0.018402,0.06248,-0.91481,-0.095213,0.24365,0.1316,0.00069153,0.13463
0.020361,0.0062369,-0.046973,0.074178,0.028593,-0.13816,-0.052505,-0.044897,-0.14583,-0.078898,0.55095,0.87363,-0.4357,-0.40484,-0.25188,-0.31978,0.014018,0.060358,-0.49456,-0.060103,0.2431,0.13369,0.00040058,0.13609
0.023132,0.011233,-0.043098,0.079427,0.029265,-0.14549,-0.059115,-0.029187,-0.14111,-0.25081,0.33077,0.91636,-0.38551,-0.2621,-0.20316,-0.29856,-0.0050844,-0.051208,-0.064981,-0.036554,0.2348,0.10457,-0.0024177,0.13424
0.023061,0.014071,-0.041063,0.083041,0.028124,-0.14141,-0.061085,-0.010127,-0.12685,-0.33917,0.1822,0.93269,-0.32007,-0.044207,-0.14284,-0.26124,-0.027334,-0.21149,0.2644,-0.025192,0.2216,0.061695,-0.0063358,0.12783
0.02075,0.015745,-0.04273,0.084852,0.026851,-0.11788,-0.060739,0.0083556,-0.10485,-0.33854,0.10232,0.91983,-0.22869,0.20697,-0.084884,-0.21062,-0.038131,-0.33266,0.42272,-0.02098,0.20623,0.024746,-0.011265,0.11821
0.018017,0.017621,-0.047484,0.085694,0.026271,-0.076393,-0.062814,0.022144,-0.080099,-0.27338,0.068762,0.86457,-0.10393,0.43903,-0.043266,-0.15563,-0.029724,-0.35268,0.40186,-0.01616,0.18911,0.0042907,-0.017945,0.109
0.016797,0.02052,-0.052397,0.086882,0.025778,-0.026422,-0.071857,0.029235,-0.058316,-0.17876,0.04992,0.75935,0.046098,0.59725,-0.029119,-0.1078,-0.0061615,-0.26736,0.25321,-0.0041171,0.16807,-0.0020589,-0.02628,0.10336
0.018089,0.024414,-0.054246,0.089413,0.023744,0.021083,-0.088836,0.031,-0.04362,-0.079127,0.018469,0.61683,0.19339,0.6406,-0.046244,-0.074952,0.020369,-0.12243,0.058701,0.017473,0.14002,-0.0043359,-0.034127,0.10128
0.021429,0.028731,-0.051865,0.093462,0.018739,0.059818,-0.10936,0.030956,-0.037346,0.021238,-0.039591,0.46924,0.29918,0.56038,-0.087217,-0.056714,0.038466,0.022326,-0.10816,0.045374,0.10351,-0.010845,-0.037977,0.099242
0.025036,0.032772,-0.046955,0.098471,0.010882,0.08938,-0.12532,0.031705,-0.037948,0.13241,-0.12426,0.35224,0.33239,0.38834,-0.13436,-0.045533,0.044492,0.12757,-0.20985,0.072158,0.060461,-0.022073,-0.035391,0.093032
0.026594,0.035835,-0.042715,0.1036,0.0023294,0.11158,-0.12942,0.032539,-0.041696,0.26437,-0.22686,0.28585,0.28602,0.18386,-0.16763,-0.032684,0.042692,0.1854,-0.24686,0.090111,0.015987,-0.031791,-0.027224,0.08145
0.024465,0.037199,-0.041471,0.10803,-0.0038391,0.12586,-0.1196,0.029812,-0.044005,0.41382,-0.33594,0.26715,0.18071,0.0040841,-0.17595,-0.014783,0.039635,0.20707,-0.23749,0.095883,-0.023588,-0.033239,-0.0175,0.067966
0.018816,0.036354,-0.043204,0.11084,-0.0059369,0.1282,-0.10039,0.019802,-0.041253,0.55938,-0.44015,0.27884,0.052955,-0.12431,-0.16445,0.0039922,0.038453,0.20525,-0.19292,0.092879,-0.053356,-0.024688,-0.010686,0.05861
0.01195,0.033507,-0.04599,0.11082,-0.0055193,0.1143,-0.079966,0.0015177,-0.032397,0.66747,-0.52932,0.30505,-0.064384,-0.21181,-0.15147,0.015322,0.037643,0.18698,-0.10562,0.089302,-0.071795,-0.010056,-0.008426,0.057542
0.0072607,0.029888,-0.0477,0.10683,-0.0069217,0.084045,-0.064978,-0.022867,-0.019215,0.70723,-0.59549,0.3413,-0.15676,-0.2867,-0.15617,0.012918,0.034546,0.15934,0.043095,0.092837,-0.081248,0.0050072,-0.0084867,0.063648
0.0071401,0.027296,-0.047397,0.098735,-0.014232,0.043082,-0.056847,-0.049887,-0.0045086,0.66832,-0.63386,0.39194,-0.22863,-0.36528,-0.18479,-0.0031356,0.029523,0.13633,0.26565,0.1058,-0.086716,0.017444,-0.0068701,0.070933
0.011188,0.026946,-0.045406,0.088301,-0.027761,0.00012968,-0.052091,-0.076718,0.01086,0.57226,-0.64123,0.45955,-0.29032,-0.4359,-0.22524,-0.026482,0.026664,0.13658,0.55483,0.1244,-0.09339,0.027756,-0.0012988,0.072559
0.016245,0.028438,-0.042348,0.078913,-0.043009,-0.037939,-0.046442,-0.10122,0.029823,0.46772,-0.6121,0.53671,-0.34091,-0.46943,-0.25416,-0.048102,0.030421,0.17202,0.88141,0.1424,-0.10385,0.037487,0.0069382,0.065534
0.018597,0.02978,-0.038307,0.073783,-0.053402,-0.069512,-0.039651,-0.12043,0.057748,0.40826,-0.53706,0.60729,-0.36013,-0.44681,-0.25149,-0.060351,0.041373,0.23818,1.2003,0.15581,-0.11642,0.046339,0.014345,0.052542
0.016813,0.028694,-0.033018,0.073698,-0.054823,-0.09776,-0.037186,-0.12988,0.097969,0.42289,-0.40943,0.65537,-0.31653,-0.37953,-0.21233,-0.058988,0.055102,0.31567,1.4593,0.16477,-0.1259,0.05195,0.018493,0.039602
0.012882,0.024344,-0.02689,0.07613,-0.048112,-0.12678,-0.047052,-0.12527,0.14699,0.49793,-0.23908,0.67321,-0.18761,-0.30481,-0.14825,-0.043075,0.065248,0.38252,1.6098,0.17151,-0.12706,0.052371,0.02025,0.0315
0.010511,0.018157,-0.021682,0.076763,-0.037241,-0.15704,-0.073479,-0.10552,0.19317,0.58342,-0.062735,0.66085,0.02147,-0.25845,-0.077732,-0.014283,0.068098,0.42723,1.6211,0.17692,-0.11885,0.048493,0.02301,0.028502
0.011919,0.012985,-0.019796,0.0725,-0.024772,-0.18306,-0.11181,-0.074212,0.22081,0.62172,0.062312,0.61816,0.27391,-0.24744,-0.013367,0.023234,0.064732,0.45271,1.497,0.17899,-0.10638,0.043813,0.029694,0.02673
0.015869,0.011136,-0.022353,0.063652,-0.0089802,-0.1949,-0.14862,-0.03767,0.21781,0.5805,0.083753,0.53775,0.51526,-0.24485,0.045096,0.062799,0.059034,0.46932,1.2839,0.17439,-0.098516,0.041598,0.040174,0.021621
0.018728,0.012716,-0.027547,0.053502,0.014237,-0.18283,-0.16775,-0.00084143,0.18215,0.4691,-0.014868,0.40749,0.69609,-0.2117,0.10734,0.096318,0.053607,0.48443,1.0588,0.16138,-0.102,0.04205,0.051215,0.011569
0.017612,0.015579,-0.031012,0.045596,0.046012,-0.14305,-0.15878,0.035471,0.12311,0.32893,-0.20031,0.22263,0.78892,-0.12876,0.18191,0.11704,0.04746,0.49723,0.89516,0.14147,-0.11612,0.042009,0.058585,-0.0010424
0.012799,0.016936,-0.028472,0.041048,0.080762,-0.081543,-0.1228,0.073708,0.056029,0.20622,-0.40559,-0.0023491,0.79085,-0.01375,0.26645,0.12267,0.037604,0.50152,0.82533,0.11874,-0.13208,0.037389,0.059194,-0.011984
0.007295,0.01536,-0.018954,0.038097,0.1082,-0.013656,-0.071712,0.11594,-0.005775,0.1255,-0.56688,-0.2342,0.71499,0.088893,0.34591,0.11657,0.022958,0.49175,0.82415,0.097688,-0.13803,0.026147,0.05159,-0.0185
0.0040778,0.011616,-0.0058968,0.034133,0.12024,0.041394,-0.022012,0.16093,-0.056981,0.079748,-0.65623,-0.43653,0.58139,0.13723,0.39988,0.10584,0.0066683,0.46565,0.82795,0.081079,-0.12622,0.0093842,0.035205,-0.021095
0.0036359,0.0076875,0.0050685,0.02824,0.11711,0.069463,0.013132,0.20444,-0.10062,0.040671,-0.68838,-0.59038,0.41483,0.11837,0.41418,0.09729,-0.0057582,0.42164,0.77878,0.068843,-0.097185,-0.0099605,0.010102,-0.02262
0.0039682,0.0049413,0.010153,0.021932,0.10721,0.069656,0.029225,0.24214,-0.14339,-0.019861,-0.7001,-0.70339,0.24776,0.054398,0.38869,0.094152,-0.011181,0.35485,0.6639,0.05829,-0.058324,-0.029295,-0.021835,-0.025792
0.0028171,0.0030314,0.010004,0.017446,0.10038,0.05677,0.031187,0.27213,-0.18955,-0.11162,-0.72068,-0.79985,0.11931,-0.014366,0.33664,0.095699,-0.012196,0.25756,0.52287,0.045524,-0.01896,-0.047466,-0.05547,-0.031431
-0.0001346,0.00047024,0.0086057,0.015267,0.10037,0.055171,0.030082,0.29487,-0.23751,-0.2213,-0.75574,-0.89923,0.064497,-0.054909,0.27637,0.099617,-0.015758,0.12551,0.41743,0.027738,0.013826,-0.064124,-0.082961,-0.038686
-0.0031123,-0.0037462,0.0093786,0.013275,0.10277,0.086114,0.037648,0.31114,-0.28065,-0.32218,-0.79187,-1.0008,0.097306,-0.058432,0.22172,0.10474,-0.027775,-0.034606,0.38631,0.0053455,0.03588,-0.078367,-0.097062,-0.046518
-0.0040428,-0.0089792,0.011918,0.0084655,0.10015,0.15524,0.060568,0.32037,-0.31117,-0.39004,-0.81229,-1.0867,0.19965,-0.039503,0.17749,0.11152,-0.048042,-0.2028,0.4181,-0.017517,0.044621,-0.08815,-0.095265,-0.05472
-0.0023985,-0.013288,0.012377,-0.00016838,0.089294,0.24795,0.096615,0.3214,-0.32412,-0.41468,-0.80776,-1.139,0.32654,-0.021527,0.14196,0.11993,-0.069834,-0.35214,0.46162,-0.03493,0.039129,-0.091043,-0.081551,-0.063474
0.00057339,-0.014907,0.007274,-0.010208,0.074233,0.33606,0.13486,0.31451,-0.31953,-0.40103,-0.7761,-1.1551,0.4271,-0.020608,0.11269,0.12699,-0.08454,-0.46055,0.46515,-0.042579,0.022969,-0.085665,-0.064021,-0.072142
0.003112,-0.013546,-0.0026647,-0.017318,0.062352,0.39174,0.16093,0.30255,-0.30201,-0.36205,-0.71649,-1.1473,0.46913,-0.03831,0.090558,0.12687,-0.087512,-0.52094,0.4139,-0.040228,0.0068825,-0.072667,-0.049894,-0.078809
0.0041854,-0.010495,-0.012206,-0.018656,0.057877,0.40022,0.16539,0.28972,-0.27885,-0.31084,-0.6279,-1.1276,0.45153,-0.065694,0.07901,0.1144,-0.080502,-0.54379,0.33607,-0.031429,0.0068369,-0.054682,-0.041479,-0.081312
0.0035781,-0.0076684,-0.015382,-0.015394,0.05889,0.36381,0.15005,0.27914,-0.25751,-0.25776,-0.51376,-1.0925,0.39705,-0.093052,0.080283,0.089346,-0.069242,-0.55104,0.27227,-0.020812,0.036298,-0.0355,-0.035943,-0.078969
0.0012047,-0.006509,-0.010218,-0.012128,0.060444,0.29639,0.12747,0.27161,-0.24335,-0.21135,-0.38624,-1.021,0.3319,-0.1173,0.092424,0.057682,-0.058827,-0.56493,0.23258,-0.011273,0.097117,-0.019045,-0.028746,-0.073476
-0.0031131,-0.0075267,-0.00037918,-0.013492,0.060227,0.21382,0.113,0.26642,-0.23785,-0.17849,-0.26347,-0.88989,0.26758,-0.1425,0.10917,0.028189,-0.050899,-0.59763,0.17791,-0.0031932,0.17594,-0.0085017,-0.017875,-0.06818
-0.0089193,-0.010447,0.0076556,-0.020668,0.060896,0.12735,0.1143,0.2631,-0.23792,-0.16098,-0.16106,-0.69164,0.19812,-0.17481,0.12193,0.0064605,-0.04438,-0.64589,0.044931,0.0042228,0.2496,-0.0056099,-0.0056483,-0.066273
-0.014379,-0.01449,0.0094914,-0.030607,0.066772,0.043097,0.12562,0.26187,-0.23699,-0.15263,-0.086626,-0.4448,0.11311,-0.21654,0.12184,-0.0090582,-0.038113,-0.69298,-0.20031,0.011316,0.2962,-0.010223,0.0030869,-0.069225
-0.016828,-0.018518,0.0057686,-0.038561,0.078412,-0.034558,0.13041,0.26245,-0.22805,-0.14232,-0.04278,-0.18921,0.014803,-0.26346,0.10146,-0.025788,-0.032447,-0.71713,-0.52101,0.017755,0.30459,-0.020473,0.0047062,-0.076341
-0.014672,-0.021233,0.0010195,-0.041758,0.090884,-0.10039,0.11068,0.26302,-0.20749,-0.1235,-0.034828,0.027925,-0.075707,-0.30613,0.057101,-0.051353,-0.02837,-0.70307,-0.81583,0.023608,0.27651,-0.033751,-0.00046476,-0.08538
-0.0090777,-0.021695,-0.00020309,-0.041213,0.097935,-0.14898,0.057045,0.26126,-0.17782,-0.10234,-0.072741,0.16736,-0.12871,-0.33337,-0.0079588,-0.08782,-0.025483,-0.65074,-0.97381,0.030076,0.22207,-0.048075,-0.0084724,-0.093608
-0.0036856,-0.019916,0.0034401,-0.040354,0.098321,-0.17726,-0.025032,0.25725,-0.1472,-0.095897,-0.16219,0.20926,-0.12492,-0.33538,-0.081604,-0.13006,-0.021126,-0.57571,-0.94102,0.038775,0.15332,-0.062731,-0.014671,-0.098813
-0.0022035,-0.016992,0.0098173,-0.04186,0.098043,-0.18605,-0.11474,0.25515,-0.1257,-0.11996,-0.29151,0.15954,-0.068355,-0.30563,-0.14568,-0.16908,-0.011807,-0.49966,-0.75141,0.050194,0.08067,-0.077422,-0.016828,-0.10014
-0.0056678,-0.014457,0.015614,-0.045518,0.10581,-0.17913,-0.18085,0.26105,-0.12001,-0.17661,-0.42848,0.049638,0.016181,-0.24174,-0.18415,-0.19737,0.0041681,-0.43637,-0.50026,0.063028,0.012732,-0.090458,-0.015967,-0.098576
-0.01163,-0.013258,0.018857,-0.048783,0.1253,-0.16129,-0.19153,0.27796,-0.12965,-0.25323,-0.53372,-0.072487,0.09812,-0.14597,-0.19245,-0.21227,0.025011,-0.3826,-0.28132,0.075155,-0.043264,-0.097811,-0.014501,-0.096672
-0.01598,-0.013183,0.019762,-0.049337,0.15097,-0.13801,-0.12755,0.30224,-0.14696,-0.33425,-0.5823,-0.15945,0.15604,-0.025398,-0.18136,-0.21547,0.046141,-0.32087,-0.13424,0.085142,-0.082545,-0.094681,-0.013548,-0.097244
-0.015976,-0.013228,0.019833,-0.047304,0.17146,-0.11686,0.0060989,0.32541,-0.161,-0.41451,-0.57576,-0.18296,0.18196,0.1081,-0.17165,-0.20995,0.062791,-0.23245,-0.03749,0.092606,-0.10467,-0.079196,-0.011971,-0.10156
-0.012114,-0.012546,0.020462,-0.045253,0.17794,-0.10835,0.17779,0.34088,-0.16295,-0.50046,-0.53412,-0.14346,0.17496,0.23836,-0.18223,-0.19748,0.072711,-0.11106,0.055333,0.097155,-0.11365,-0.05557,-0.0079833,-0.10828
-0.0075057,-0.011147,0.022148,-0.046119,0.17084,-0.12325,0.34095,0.35025,-0.14971,-0.59713,-0.4753,-0.064624,0.13341,0.34627,-0.21935,-0.17858,0.077093,0.032948,0.1703,0.097439,-0.11508,-0.033623,-0.0016238,-0.11417
-0.0054018,-0.0097813,0.02447,-0.050867,0.15958,-0.16652,0.45571,0.36311,-0.12378,-0.69289,-0.4016,0.023457,0.054754,0.41294,-0.27376,-0.15436,0.079155,0.18047,0.29471,0.091909,-0.11235,-0.023939,0.0045473,-0.11633
-0.0068645,-0.009212,0.026419,-0.057795,0.15568,-0.23196,0.50751,0.38948,-0.089939,-0.75804,-0.30622,0.10115,-0.05703,0.42507,-0.32662,-0.12795,0.081491,0.31616,0.39429,0.080902,-0.10515,-0.031464,0.0075056,-0.11427
-0.010268,-0.009604,0.026875,-0.063933,0.1647,-0.30266,0.50944,0.43004,-0.051656,-0.76176,-0.19348,0.1659,-0.18505,0.38101,-0.35948,-0.10399,0.084098,0.43486,0.44476,0.067746,-0.091648,-0.052086,0.0067441,-0.11007
-0.01279,-0.010529,0.025293,-0.067263,0.18289,-0.35858,0.48662,0.47232,-0.0097804,-0.69515,-0.091733,0.22668,-0.30278,0.29389,-0.36177,-0.086174,0.084481,0.53691,0.44901,0.057102,-0.072306,-0.074929,0.0052011,-0.1066
-0.012562,-0.011441,0.022375,-0.067967,0.2007,-0.38692,0.45483,0.49678,0.035777,-0.58227,-0.043553,0.29243,-0.38677,0.18875,-0.33286,-0.07513,0.079649,0.61815,0.42873,0.051369,-0.051612,-0.088991,0.0069722,-0.1052
-0.0098315,-0.012063,0.020068,-0.067772,0.20966,-0.38778,0.41062,0.48921,0.083295,-0.47011,-0.0782,0.363,-0.42971,0.094022,-0.27952,-0.068249,0.068423,0.66542,0.40387,0.048291,-0.036128,-0.089543,0.013775,-0.10488
-0.0064479,-0.01236,0.020408,-0.068128,0.20757,-0.37082,0.33999,0.45072,0.12818,-0.40514,-0.18843,0.42695,-0.4438,0.031706,-0.21187,-0.061903,0.052411,0.66364,0.38047,0.042376,-0.030419,-0.079962,0.023478,-0.10359
-0.004337,-0.012294,0.023801,-0.068865,0.19863,-0.3452,0.23696,0.39765,0.16485,-0.41297,-0.33096,0.46582,-0.45206,0.011014,-0.13955,-0.054324,0.035121,0.60893,0.35497,0.029525,-0.034365,-0.06815,0.032109,-0.10023
-0.004263,-0.011792,0.028215,-0.068536,0.1893,-0.31062,0.11483,0.35138,0.1902,-0.49243,-0.45051,0.46192,-0.47426,0.027586,-0.06882,-0.046935,0.020134,0.51518,0.32503,0.011212,-0.043817,-0.060578,0.037416,-0.095412
-0.0057057,-0.010992,0.030353,-0.066064,0.18358,-0.25671,0.00021351,0.32504,0.20583,-0.62225,-0.50867,0.40699,-0.51681,0.066545,-0.0010308,-0.042985,0.0096098,0.40559,0.29228,-0.0056297,-0.053538,-0.058318,0.040576,-0.090519
-0.0076445,-0.010366,0.028185,-0.062114,0.18117,-0.17139,-0.084224,0.31657,0.21709,-0.7706,-0.49753,0.30889,-0.57142,0.10704,0.066448,-0.044426,0.0037121,0.29447,0.25429,-0.013594,-0.059635,-0.05746,0.044507,-0.086176
-0.0093841,-0.010339,0.022843,-0.058778,0.17918,-0.052164,-0.13289,0.31248,0.22953,-0.90078,-0.43266,0.19253,-0.62077,0.12782,0.13653,-0.049378,0.00065689,0.17529,0.19746,-0.011174,-0.059741,-0.05293,0.050586,-0.081726
-0.010762,-0.010652,0.018099,-0.057769,0.17515,0.088337,-0.15552,0.29871,0.24556,-0.97529,-0.33597,0.092775,-0.64674,0.11467,0.20779,-0.052322,-0.0029609,0.028295,0.10362,-0.0054444,-0.051742,-0.042519,0.057076,-0.076207
-0.01181,-0.010255,0.017618,-0.058808,0.16878,0.22692,-0.16402,0.27023,0.26367,-0.96453,-0.22346,0.040886,-0.63779,0.068323,0.27256,-0.047198,-0.011319,-0.1554,-0.030812,-0.0084492,-0.033295,-0.028274,0.060818,-0.069627
-0.012438,-0.0081784,0.022108,-0.059821,0.16105,0.34149,-0.16121,0.23273,0.28033,-0.86072,-0.10419,0.051772,-0.59405,0.0077684,0.32025,-0.031386,-0.02754,-0.35185,-0.17908,-0.029484,-0.0033998,-0.014686,0.060442,-0.06314
-0.012534,-0.0047955,0.028689,-0.058874,0.1522,0.42191,-0.14095,0.19683,0.29248,-0.6883,0.014119,0.12006,-0.52882,-0.036053,0.34443,-0.0076647,-0.051287,-0.50504,-0.28841,-0.068716,0.034991,-0.0053531,0.057888,-0.057889
-0.012281,-0.0021813,0.033043,-0.056005,0.14065,0.47298,-0.097058,0.17082,0.29807,-0.49941,0.12116,0.2274,-0.46467,-0.036103,0.34845,0.017418,-0.077383,-0.55437,-0.30609,-0.11664,0.073743,-0.00064223,0.056718,-0.053737
-0.012201,-0.0028553,0.032641,-0.053086,0.12425,0.50848,-0.030268,0.15802,0.29478,-0.35196,0.20592,0.35515,-0.42396,0.013695,0.34463,0.03764,-0.097128,-0.47172,-0.21113,-0.15937,0.10144,0.0020614,0.058793,-0.049211
-0.012726,-0.0077263,0.028472,-0.051749,0.1029,0.54137,0.054351,0.15982,0.27919,-0.28169,0.26233,0.49264,-0.41721,0.091719,0.34635,0.050651,-0.10226,-0.2817,-0.029647,-0.18548,0.10794,0.0058474,0.062442,-0.042773
-0.013697,-0.015038,0.023979,-0.051414,0.080447,0.57698,0.15574,0.17966,0.24859,-0.28659,0.29376,0.63553,-0.43643,0.15852,0.35872,0.058457,-0.089217,-0.050315,0.1765,-0.18965,0.089203,0.01145,0.063739,-0.034296
-0.014424,-0.021417,0.022185,-0.04957,0.063979,0.61339,0.28053,0.22263,0.20472,-0.33438,0.31303,0.77728,-0.45848,0.17848,0.37488,0.064938,-0.060668,0.15006,0.33965,-0.17175,0.049651,0.016326,0.059618,-0.025412
-0.014393,-0.024215,0.023459,-0.044295,0.060697,0.64716,0.43602,0.29002,0.15584,-0.38744,0.33711,0.90277,-0.4577,0.13992,0.3817,0.072861,-0.023228,0.27509,0.41505,-0.13413,0.00051302,0.016529,0.050039,-0.018414
-0.013948,-0.023113,0.025702,-0.036674,0.074196,0.67949,0.6174,0.37373,0.11399,-0.42673,0.37912,0.9906,-0.42006,0.060651,0.3708,0.082837,0.016631,0.32077,0.39131,-0.080672,-0.045148,0.010141,0.037548,-0.014561
-0.014133,-0.019658,0.026542,-0.030567,0.10234,0.71755,0.80081,0.45634,0.088519,-0.45799,0.44174,1.0234,-0.34971,-0.024305,0.34619,0.094317,0.055005,0.30985,0.28021,-0.018269,-0.078319,-0.00044411,0.025097,-0.013113
-0.015644,-0.015433,0.025434,-0.029513,0.13774,0.77001,0.94938,0.51814,0.080502,-0.49801,0.51651,0.99843,-0.26418,-0.084446,0.32182,0.10653,0.08957,0.26676,0.09779,0.042014,-0.097726,-0.0094834,0.014285,-0.011824
-0.017849,-0.010816,0.023763,-0.033375,0.17036,0.83917,1.0284,0.54646,0.082904,-0.55367,0.5901,0.92941,-0.18292,-0.11102,0.30992,0.11768,0.11681,0.20102,-0.14597,0.087133,-0.1093,-0.011712,0.0053447,-0.0086222
-0.018988,-0.0054823,0.023081,-0.037826,0.19068,0.91517,1.0195,0.54071,0.086407,-0.61007,0.65346,0.8379,-0.11823,-0.11981,0.3088,0.1234,0.13101,0.10844,-0.44039,0.10753,-0.12169,-0.0062025,-0.0017967,-0.003292
-0.01761,0.00019601,0.023417,-0.037457,0.19253,0.97672,0.92549,0.51023,0.086051,-0.63486,0.70717,0.73879,-0.074436,-0.13951,0.30009,0.11742,0.12696,-0.014958,-0.7573,0.10221,-0.14066,0.0029151,-0.006924,0.0021149
-0.014001,0.0047198,0.023433,-0.030031,0.17463,0.99945,0.76715,0.46764,0.083187,-0.59294,0.7586,0.63085,-0.053202,-0.19403,0.25918,0.095978,0.10456,-0.16029,-1.0421,0.079332,-0.16586,0.0096153,-0.010072,0.0046578
-0.010171,0.0067439,0.022211,-0.018332,0.14067,0.96779,0.57595,0.42237,0.081652,-0.46096,0.81364,0.49983,-0.057507,-0.2891,0.17266,0.063317,0.07109,-0.30513,-1.2275,0.05174,-0.19207,0.010544,-0.012335,0.0028436
-0.0082194,0.0067735,0.020612,-0.0080319,0.097401,0.88327,0.38737,0.37783,0.08225,-0.23498,0.87012,0.33335,-0.088994,-0.40869,0.050773,0.033174,0.03838,-0.42476,-1.2666,0.03055,-0.21342,0.0072852,-0.015649,-0.0018227
-0.0084698,0.0072413,0.020551,-0.0033877,0.051037,0.76351,0.23353,0.33138,0.08074,0.067573,0.91875,0.13691,-0.14099,-0.52053,-0.074538,0.023048,0.016304,-0.50619,-1.1649,0.021067,-0.22725,0.0046117,-0.021348,-0.0054745
-0.0091143,0.010455,0.02272,-0.0042746,0.0035892,0.63248,0.13431,0.27561,0.070852,0.40923,0.95057,-0.061934,-0.19505,-0.58631,-0.16592,0.044003,0.0074752,-0.55441,-0.98475,0.022839,-0.23448,0.0064889,-0.028723,-0.0044704
-0.0077762,0.0162,0.025185,-0.0067715,-0.048166,0.50897,0.089888,0.2005,0.049183,0.73807,0.96442,-0.22627,-0.22677,-0.57251,-0.20111,0.093205,0.0072615,-0.58635,-0.81446,0.03241,-0.2367,0.013403,-0.035052,0.0019971
-0.0036551,0.021434,0.024639,-0.0064706,-0.1095,0.40169,0.080855,0.097127,0.017747,1.0009,0.96828,-0.33108,-0.21853,-0.46008,-0.18431,0.15517,0.0089235,-0.61712,-0.71899,0.046112,-0.23301,0.023095,-0.037295,0.011421
0.0016444,0.022697,0.019464,-0.0016339,-0.1817,0.3132,0.078142,-0.037445,-0.017144,1.1627,0.97358,-0.37661,-0.17027,-0.25251,-0.14095,0.2112,0.0094503,-0.64852,-0.70566,0.061483,-0.2199,0.033464,-0.034189,0.0201
0.0053355,0.01925,0.011711,0.0061656,-0.25728,0.24726,0.057787,-0.19684,-0.047406,1.2221,0.98644,-0.38271,-0.10068,0.019549,-0.099917,0.25015,0.011228,-0.66854,-0.72811,0.077599,-0.19444,0.044513,-0.027065,0.026104
0.0056723,0.014111,0.0058313,0.013951,-0.3206,0.21103,0.010922,-0.36655,-0.06448,1.2124,1.0014,-0.36891,-0.037915,0.30044,-0.075846,0.27283,0.018499,-0.6621,-0.72377,0.094991,-0.15782,0.057439,-0.018805,0.030573
0.0033181,0.011929,0.0050507,0.019857,-0.35419,0.20907,-0.056813,-0.52964,-0.059572,1.183,1.0009,-0.33726,-0.0062762,0.52201,-0.063769,0.28764,0.032211,-0.62498,-0.65611,0.11508,-0.11562,0.072058,-0.011764,0.036318
0.00080373,0.015418,0.0086284,0.024201,-0.34725,0.23481,-0.13352,-0.67278,-0.025372,1.1734,0.96055,-0.27328,-0.01618,0.62576,-0.048839,0.30202,0.048113,-0.56924,-0.53183,0.13874,-0.074191,0.085499,-0.0062463,0.045086
0.00060808,0.023291,0.012547,0.028565,-0.30097,0.26847,-0.20876,-0.78851,0.039333,1.1951,0.85805,-0.16405,-0.061666,0.58733,-0.022549,0.31674,0.059824,-0.51481,-0.38612,0.16456,-0.03621,0.093847,-0.00051086,0.05597
0.0033993,0.031301,0.013018,0.033981,-0.22784,0.28513,-0.27533,-0.87248,0.12481,1.2321,0.68232,-0.017715,-0.125,0.43056,0.0079964,0.32691,0.063887,-0.47339,-0.25402,0.18819,0.00055373,0.095436,0.0078053,0.066214
0.0076927,0.035382,0.0095809,0.039844,-0.1462,0.26713,-0.32681,-0.91999,0.21034,1.2574,0.43821,0.13334,-0.18554,0.22068,0.025283,0.32745,0.06208,-0.43809,-0.15283,0.20388,0.039951,0.092773,0.019912,0.073457
0.011031,0.034353,0.0050687,0.044377,-0.07348,0.21112,-0.35684,-0.92625,0.2718,1.2513,0.14551,0.24846,-0.2289,0.037063,0.016656,0.31778,0.058948,-0.38852,-0.085372,0.20756,0.082605,0.091195,0.034892,0.07731
0.011727,0.03033,0.0027551,0.046211,-0.021132,0.12504,-0.36244,-0.89112,0.29343,1.2101,-0.16706,0.301,-0.25204,-0.06088,-0.013277,0.30195,0.057147,-0.30796,-0.052581,0.19915,0.12408,0.095225,0.050083,0.079091
0.0099435,0.026951,0.0035321,0.045783,0.0076467,0.019601,-0.34763,-0.82387,0.27605,1.144,-0.46907,0.28954,-0.26138,-0.055466,-0.044048,0.2849,0.055204,-0.19869,-0.058222,0.18241,0.15804,0.10547,0.062476,0.080378
0.0074093,0.027029,0.0056343,0.045378,0.017355,-0.097017,-0.32165,-0.74225,0.23561,1.0678,-0.73362,0.23167,-0.26521,0.031042,-0.054396,0.26873,0.049865,-0.082327,-0.10107,0.16264,0.18171,0.11831,0.070212,0.081924
0.0060482,0.031192,0.0067372,0.047623,0.016937,-0.21731,-0.29164,-0.66535,0.19265,0.99409,-0.94052,0.14829,-0.26647,0.15682,-0.03963,0.25199,0.040586,0.014375,-0.16658,0.14422,0.19848,0.12833,0.073238,0.08369
0.0065362,0.037956,0.0060552,0.053435,0.014524,-0.3299,-0.2565,-0.60484,0.16021,0.92846,-1.0788,0.051834,-0.26285,0.28303,-0.017582,0.23197,0.031528,0.075657,-0.23219,0.12943,0.21495,0.13151,0.072884,0.085426
0.0079084,0.044745,0.0044601,0.061,0.012476,-0.41974,-0.20919,-0.56147,0.13826,0.86785,-1.1496,-0.055023,-0.2544,0.38423,-0.018076,0.20722,0.028683,0.10139,-0.28577,0.11871,0.23463,0.12701,0.070803,0.086804
0.0085718,0.04917,0.0029569,0.066767,0.0060779,-0.47538,-0.14676,-0.52881,0.11764,0.80053,-1.1653,-0.17395,-0.25097,0.4458,-0.063193,0.1782,0.034416,0.098807,-0.33989,0.11105,0.25379,0.11682,0.068067,0.086951
0.0079079,0.050118,0.0015196,0.067946,-0.012378,-0.4972,-0.078966,-0.50047,0.089312,0.70943,-1.1442,-0.3063,-0.26982,0.4584,-0.15218,0.14609,0.044285,0.072318,-0.42518,0.10348,0.26354,0.10407,0.064883,0.084235
0.007011,0.048332,-0.00038912,0.064683,-0.046487,-0.49868,-0.025762,-0.47439,0.051787,0.57971,-1.0989,-0.45195,-0.32178,0.4191,-0.26084,0.11169,0.049171,0.023237,-0.56331,0.090887,0.25646,0.091327,0.060796,0.077101
0.0077308,0.046089,-0.0023966,0.060124,-0.091093,-0.49849,-0.0041969,-0.45137,0.012126,0.40794,-1.0284,-0.60851,-0.39623,0.33808,-0.35464,0.075709,0.041167,-0.040179,-0.74017,0.067404,0.23245,0.080029,0.055066,0.065622
0.010744,0.045854,-0.0028091,0.058121,-0.13442,-0.50972,-0.016213,-0.43099,-0.018833,0.20705,-0.92061,-0.76742,-0.45918,0.24064,-0.40617,0.040238,0.018636,-0.093687,-0.90172,0.030008,0.19861,0.070905,0.047099,0.052361
0.014489,0.048577,-1.6228e-005,0.060271,-0.16601,-0.53485,-0.049503,-0.40999,-0.032626,0.0030152,-0.76496,-0.90921,-0.46978,0.1574,-0.40659,0.0094093,-0.013183,-0.10073,-0.97756,-0.017834,0.16338,0.064737,0.037049,0.04137
0.01622,0.0529,0.0056027,0.064651,-0.18448,-0.56925,-0.091939,-0.38563,-0.026738,-0.176,-0.56622,-1.0046,-0.40541,0.10711,-0.36624,-0.011773,-0.045847,-0.029325,-0.91577,-0.065721,0.13005,0.06251,0.026449,0.035699
0.014473,0.056139,0.011375,0.067365,-0.19873,-0.60827,-0.14626,-0.36055,-0.0045297,-0.31222,-0.34733,-1.0251,-0.27744,0.085629,-0.30659,-0.019963,-0.072355,0.12923,-0.70565,-0.10073,0.095282,0.064648,0.018263,0.035209
0.010671,0.056416,0.01426,0.065699,-0.22128,-0.65036,-0.22955,-0.34361,0.027046,-0.40579,-0.13821,-0.95876,-0.12577,0.071299,-0.24912,-0.015518,-0.089561,0.3531,-0.37691,-0.11461,0.053563,0.0699,0.015765,0.03652
0.0081305,0.054165,0.013367,0.060305,-0.25893,-0.69379,-0.35522,-0.3444,0.060084,-0.47345,0.03973,-0.81893,0.0040859,0.043502,-0.20612,-0.0025704,-0.09769,0.59816,0.017209,-0.109,0.0038578,0.07493,0.020537,0.035291
0.0091026,0.051598,0.010699,0.05456,-0.3077,-0.73147,-0.51236,-0.36501,0.087898,-0.53947,0.18024,-0.6393,0.085426,-0.00017796,-0.17671,0.012931,-0.098586,0.81516,0.41761,-0.094529,-0.047508,0.075367,0.030923,0.029182
0.012529,0.050545,0.009386,0.051662,-0.35609,-0.75098,-0.66245,-0.39629,0.10672,-0.62294,0.28538,-0.45627,0.12073,-0.041654,-0.14926,0.025996,-0.094471,0.96569,0.76824,-0.084152,-0.090133,0.068051,0.042394,0.019251
0.014786,0.050694,0.010989,0.051921,-0.39351,-0.74157,-0.75989,-0.42242,0.11677,-0.72728,0.35406,-0.29109,0.13349,-0.056041,-0.10924,0.034635,-0.087561,1.0311,1.0192,-0.085116,-0.11638,0.053194,0.04995,0.0088612
0.012979,0.04992,0.014332,0.052542,-0.41703,-0.70341,-0.78215,-0.43084,0.12196,-0.83724,0.37905,-0.14366,0.14927,-0.029898,-0.049044,0.040113,-0.079794,1.0146,1.132,-0.095354,-0.12639,0.034884,0.05101,0.001135
0.0078124,0.046384,0.016796,0.05,-0.43126,-0.65066,-0.74506,-0.41987,0.12775,-0.92565,0.35606,-0.00091377,0.17861,0.029814,0.025931,0.045258,-0.072325,0.93869,1.0889,-0.10653,-0.12744,0.0192,0.046662,-0.0029742
0.0032201,0.04038,0.016748,0.042889,-0.44198,-0.60484,-0.69039,-0.39787,0.13802,-0.96772,0.2951,0.14845,0.21107,0.10117,0.09926,0.05155,-0.065336,0.83796,0.90177,-0.111,-0.12859,0.010742,0.040378,-0.0046847
0.0028813,0.034125,0.014828,0.032835,-0.44938,-0.58238,-0.65514,-0.37526,0.15274,-0.9554,0.22073,0.30417,0.22195,0.16077,0.15287,0.056594,-0.058767,0.74828,0.6114,-0.10733,-0.13466,0.0096441,0.035304,-0.0058527
0.006711,0.029763,0.013025,0.022927,-0.44714,-0.58532,-0.64729,-0.35661,0.16797,-0.90305,0.15839,0.45539,0.18696,0.19455,0.17763,0.053861,-0.053534,0.69432,0.27506,-0.10064,-0.14422,0.011247,0.032253,-0.007447
0.010635,0.027519,0.012588,0.015308,-0.42797,-0.60194,-0.64664,-0.33943,0.17836,-0.83983,0.11864,0.58923,0.097288,0.19958,0.17759,0.035636,-0.051885,0.68115,-0.050821,-0.098294,-0.15221,0.0090517,0.029792,-0.0092547
0.010041,0.025714,0.012801,0.01007,-0.39071,-0.61649,-0.62757,-0.31989,0.18025,-0.79253,0.09456,0.69913,-0.032477,0.17915,0.16485,-0.0019972,-0.056183,0.69377,-0.32389,-0.10486,-0.1549,-0.00073278,0.026019,-0.010727
0.0039134,0.022482,0.011704,0.0061441,-0.3426,-0.62069,-0.58288,-0.29877,0.17343,-0.76974,0.075972,0.7877,-0.16784,0.13751,0.14955,-0.055357,-0.066955,0.70436,-0.51962,-0.11984,-0.15271,-0.016239,0.020382,-0.011854
-0.0040108,0.017507,0.0080109,0.0028818,-0.29475,-0.61857,-0.5282,-0.28142,0.16082,-0.7578,0.06722,0.86392,-0.26808,0.079119,0.1331,-0.11368,-0.082047,0.68271,-0.62717,-0.13909,-0.14925,-0.03102,0.014159,-0.013131
-0.0081598,0.012252,0.0024382,0.00062162,-0.25492,-0.62175,-0.48527,-0.27191,0.14656,-0.73134,0.090901,0.9379,-0.30296,0.011207,0.10987,-0.16433,-0.097815,0.60627,-0.64363,-0.15798,-0.14768,-0.038687,0.0094969,-0.014751
-0.0056325,0.0086688,-0.0026593,-0.0001567,-0.22402,-0.63904,-0.46075,-0.26787,0.13417,-0.67074,0.1721,1.0161,-0.26314,-0.054385,0.075092,-0.19944,-0.11133,0.46813,-0.57227,-0.1737,-0.14794,-0.03767,0.0079681,-0.016026
0.0014732,0.0076495,-0.0049187,0.00014699,-0.19868,-0.66827,-0.44029,-0.26216,0.12538,-0.57413,0.31636,1.098,-0.15874,-0.10342,0.032022,-0.21908,-0.12155,0.28247,-0.4263,-0.18556,-0.14711,-0.032294,0.0096807,-0.015842
0.0077373,0.0084487,-0.0034697,0.00041583,-0.17641,-0.69555,-0.40279,-0.25035,0.11983,-0.45557,0.50137,1.1758,-0.0094386,-0.12488,-0.0081292,-0.22878,-0.12852,0.084532,-0.23467,-0.19372,-0.14236,-0.029113,0.013296,-0.013819
0.008566,0.0093524,0.00073074,5.4594e-005,-0.15772,-0.70167,-0.34094,-0.23614,0.11528,-0.33198,0.69069,1.2375,0.16516,-0.11643,-0.033206,-0.23338,-0.1317,-0.078847,-0.043849,-0.19789,-0.13372,-0.031431,0.016661,-0.011009
0.0034287,0.0089235,0.0056734,-0.00020376,-0.14297,-0.67035,-0.2689,-0.22838,0.10847,-0.21011,0.85725,1.2729,0.34771,-0.086077,-0.038366,-0.23264,-0.12965,-0.16845,0.089684,-0.19714,-0.12421,-0.036569,0.017649,-0.0092148
-0.0041752,0.006938,0.0093917,0.00089453,-0.12799,-0.59296,-0.21057,-0.23135,0.096808,-0.084711,0.99504,1.2795,0.51919,-0.048897,-0.029096,-0.2223,-0.12173,-0.17352,0.11638,-0.19118,-0.11734,-0.038247,0.014979,-0.009364
-0.0096227,0.0044793,0.010714,0.0033568,-0.10402,-0.46817,-0.17986,-0.23776,0.080107,0.050301,1.1079,1.2635,0.65723,-0.020263,-0.016942,-0.19935,-0.11039,-0.1211,0.013911,-0.18213,-0.1143,-0.032117,0.0088631,-0.010366
-0.01044,0.0031861,0.0095533,0.0052178,-0.063374,-0.29954,-0.17137,-0.23228,0.061181,0.18744,1.1865,1.2343,0.74283,-0.0089727,-0.011493,-0.16663,-0.10114,-0.064932,-0.19992,-0.17514,-0.11324,-0.019722,0.0011592,-0.0096495
-0.0075236,0.0041119,0.0068889,0.0040459,-0.0064829,-0.095041,-0.16929,-0.20358,0.04416,0.3016,1.1979,1.1963,0.77229,-0.013734,-0.014402,-0.13221,-0.099647,-0.057768,-0.4702,-0.17632,-0.11112,-0.0074716,-0.0052985,-0.0051045
-0.0037909,0.006918,0.0044293,-0.00048827,0.056505,0.13126,-0.16413,-0.15395,0.031454,0.36266,1.102,1.1452,0.76328,-0.025107,-0.019107,-0.10396,-0.10756,-0.12314,-0.72433,-0.18834,-0.10615,-0.0014257,-0.0080696,0.0031294
-0.0017257,0.010001,0.003873,-0.005618,0.11155,0.35852,-0.15966,-0.096943,0.021874,0.35765,0.88614,1.0722,0.74653,-0.032194,-0.015588,-0.084011,-0.12058,-0.24407,-0.89853,-0.20646,-0.098963,-0.0023337,-0.0064237,0.012499
-0.0018415,0.011551,0.0059512,-0.0074806,0.14973,0.56326,-0.16265,-0.044189,0.01207,0.30638,0.58837,0.97271,0.74652,-0.03031,0.0033904,-0.068306,-0.13055,-0.3754,-0.9587,-0.21863,-0.091583,-0.0051429,-0.0016857,0.019588
-0.0030044,0.010793,0.009859,-0.0045781,0.17239,0.72738,-0.16672,0.0065739,0.00062361,0.25787,0.28896,0.85201,0.76541,-0.024572,0.038224,-0.051419,-0.1302,-0.47111,-0.90723,-0.21121,-0.085591,-0.0034114,0.003663,0.02211
-0.003915,0.0084429,0.013619,0.00058788,0.18874,0.84505,-0.14933,0.070623,-0.0087587,0.26737,0.070481,0.72332,0.78343,-0.026492,0.082208,-0.032352,-0.1171,-0.50905,-0.77668,-0.17752,-0.081036,0.005154,0.0074304,0.019897
-0.0042343,0.0060046,0.015259,0.0035421,0.20847,0.9227,-0.089051,0.16222,-0.008499,0.36765,-0.025176,0.59994,0.77614,-0.045473,0.12455,-0.015909,-0.094255,-0.49891,-0.61658,-0.1235,-0.076798,0.01677,0.0086328,0.014483
-0.0044351,0.0045043,0.013995,0.0018863,0.2354,0.97189,0.010931,0.27939,0.0072674,0.55252,-0.012819,0.48898,0.73462,-0.081269,0.15486,-0.0085132,-0.067296,-0.47161,-0.47843,-0.065528,-0.071688,0.024861,0.007417,0.0079867
-0.0048022,0.003755,0.010581,-0.0024059,0.26628,1.0007,0.11618,0.40108,0.037193,0.78233,0.056617,0.3916,0.6719,-0.12319,0.16689,-0.012484,-0.040996,-0.45938,-0.40046,-0.021272,-0.065234,0.025612,0.0044656,0.0022597
-0.0048109,0.0027562,0.006712,-0.0047653,0.29443,1.0108,0.18143,0.49987,0.07242,1.007,0.13501,0.30773,0.61002,-0.15696,0.16008,-0.024005,-0.017599,-0.47971,-0.39399,0.00063447,-0.057735,0.020903,0.00065944,-0.0013535
-0.0036251,0.00085331,0.0040824,-0.0023516,0.31437,1.0015,0.18315,0.56007,0.10237,1.1911,0.20439,0.23894,0.55864,-0.17398,0.13841,-0.036364,0.0023552,-0.53066,-0.43737,0.0046618,-0.049963,0.016163,-0.0028609,-0.0019884
-0.0011968,-0.0013785,0.0037838,0.0031318,0.32433,0.97662,0.13678,0.58709,0.12183,1.326,0.27503,0.18508,0.50335,-0.17604,0.10794,-0.04498,0.01842,-0.59679,-0.48543,0.0036329,-0.042959,0.015301,-0.0048018,0.00059478
0.0012867,-0.0023383,0.0061255,0.0068865,0.32585,0.94551,0.08338,0.60183,0.13303,1.4232,0.36148,0.13781,0.414,-0.172,0.07509,-0.049365,0.029882,-0.65883,-0.49452,0.009086,-0.037835,0.017502,-0.0043894,0.0057035
0.0022612,-0.00062734,0.010555,0.0054705,0.32194,0.91627,0.057527,0.62596,0.14077,1.497,0.45975,0.078825,0.26733,-0.1697,0.046704,-0.050643,0.03697,-0.701,-0.45007,0.024057,-0.035223,0.018852,-0.0020734,0.011652
0.001241,0.0036164,0.015555,0.00011024,0.31505,0.88691,0.065421,0.67004,0.14537,1.5506,0.54438,-0.012152,0.066554,-0.16969,0.030261,-0.048017,0.041886,-0.7141,-0.37698,0.043033,-0.034424,0.017035,0.00075974,0.016292
-0.00056235,0.0083859,0.01891,-0.0042536,0.30535,0.84306,0.091728,0.73183,0.14065,1.5753,0.58553,-0.14301,-0.1568,-0.16529,0.03188,-0.038579,0.047832,-0.69612,-0.32216,0.057851,-0.033034,0.014355,0.0032451,0.018017
-0.0011701,0.01095,0.018736,-0.0033359,0.28919,0.76669,0.12621,0.80274,0.1193,1.5597,0.57034,-0.29919,-0.35991,-0.14799,0.051649,-0.021084,0.056296,-0.65246,-0.31882,0.064134,-0.027822,0.015814,0.0063541,0.016644
0.00047206,0.0098495,0.014868,0.0027094,0.25858,0.65012,0.18184,0.87504,0.080759,1.5,0.51193,-0.44728,-0.5118,-0.11338,0.079901,0.00038584,0.065229,-0.59452,-0.35763,0.063611,-0.01673,0.023811,0.01234,0.013563
0.003602,0.0062949,0.0094421,0.009485,0.20305,0.50374,0.28415,0.94411,0.033649,1.4008,0.44131,-0.55232,-0.60656,-0.063494,0.099622,0.017507,0.070515,-0.53441,-0.38609,0.061912,-0.00068296,0.034483,0.022169,0.010919
0.0063629,0.0036975,0.0057717,0.012224,0.11452,0.35031,0.43974,1.006,-0.010013,1.2689,0.39028,-0.59755,-0.65936,-0.0057734,0.096341,0.023633,0.070157,-0.47653,-0.33776,0.064833,0.016294,0.03947,0.033087,0.010253
0.007414,0.0053352,0.0060255,0.0097662,-0.0068253,0.20931,0.61377,1.0548,-0.043733,1.1074,0.37695,-0.59261,-0.69068,0.048819,0.069644,0.019431,0.067419,-0.41193,-0.17146,0.075935,0.029047,0.031995,0.039089,0.011452
0.0069094,0.01173,0.009486,0.005192,-0.14954,0.084222,0.74014,1.0823,-0.06997,0.91902,0.40012,-0.56399,-0.71138,0.087078,0.036592,0.01261,0.069327,-0.32287,0.10443,0.095758,0.03414,0.012148,0.034852,0.01277
0.0060232,0.019862,0.012982,0.0028378,-0.29381,-0.036657,0.76006,1.0802,-0.094697,0.71581,0.44181,-0.53497,-0.71897,0.095691,0.021784,0.011281,0.080872,-0.19829,0.43551,0.12142,0.031635,-0.013068,0.020398,0.011979
0.0056593,0.025141,0.013357,0.0045868,-0.41957,-0.16579,0.65953,1.0427,-0.11842,0.52643,0.47499,-0.51076,-0.70562,0.06645,0.039604,0.016625,0.099613,-0.050459,0.74717,0.14636,0.024641,-0.034716,0.0024279,0.0079264
0.0057026,0.024838,0.010066,0.0086441,-0.51503,-0.29998,0.47804,0.9677,-0.13281,0.38974,0.47439,-0.47997,-0.66985,0.003497,0.082266,0.021642,0.11586,0.082251,0.97603,0.16173,0.017146,-0.047427,-0.0093826,0.0013505
0.0054801,0.020258,0.0057527,0.011509,-0.57961,-0.41531,0.28532,0.85821,-0.12682,0.3363,0.42793,-0.42996,-0.62184,-0.072693,0.12449,0.017565,0.1192,0.15353,1.0915,0.16057,0.011776,-0.051003,-0.0087136,-0.0056354
0.004772,0.015742,0.0042993,0.011047,-0.61943,-0.47785,0.1478,0.72411,-0.097238,0.36931,0.34362,-0.36211,-0.57778,-0.13021,0.14282,0.002556,0.10637,0.13872,1.1007,0.14266,0.0089841,-0.047644,0.0032962,-0.010978
0.0041677,0.015164,0.0078568,0.0079472,-0.63919,-0.46269,0.10803,0.58201,-0.053805,0.45864,0.24561,-0.29377,-0.54771,-0.13962,0.13484,-0.014923,0.083953,0.054283,1.0367,0.11605,0.0078973,-0.038321,0.019351,-0.013853
0.0043437,0.018803,0.015161,0.0046428,-0.63723,-0.36829,0.18254,0.45045,-0.014107,0.55255,0.15885,-0.2459,-0.52635,-0.089612,0.12254,-0.02118,0.063267,-0.04994,0.93929,0.092457,0.0077902,-0.022042,0.031524,-0.014646
0.0050814,0.023239,0.022375,0.0030593,-0.60789,-0.21786,0.36527,0.34086,0.0076725,0.60013,0.091246,-0.22767,-0.495,0.005856,0.13599,-0.0066489,0.051457,-0.12244,0.83457,0.078977,0.0089093,0.0015748,0.036503,-0.013911
0.005191,0.024386,0.025765,0.0032595,-0.54905,-0.049002,0.62514,0.24978,0.0088902,0.57152,0.027059,-0.23114,-0.43403,0.11438,0.18936,0.028086,0.046111,-0.14305,0.72739,0.072709,0.012146,0.029413,0.036563,-0.011455
0.0035693,0.021017,0.024205,0.0038994,-0.46812,0.10036,0.90168,0.15958,-0.0023304,0.46653,-0.061233,-0.23897,-0.33757,0.2018,0.26777,0.074026,0.037713,-0.13191,0.60928,0.063158,0.018112,0.054866,0.036124,-0.0065739
0.00038948,0.015738,0.019772,0.0037229,-0.38138,0.2023,1.1137,0.049706,-0.014546,0.31018,-0.19033,-0.23631,-0.21959,0.24801,0.33493,0.12093,0.017883,-0.12746,0.47836,0.041179,0.02656,0.071051,0.037398,0.0006999
-0.0028043,0.012657,0.016088,0.0026608,-0.30709,0.24279,1.1871,-0.088269,-0.020066,0.13976,-0.35052,-0.2164,-0.1066,0.2527,0.35566,0.16337,-0.013271,-0.15083,0.35577,0.0072801,0.036614,0.07464,0.038987,0.0086088
-0.0042896,0.013866,0.015688,0.0017433,-0.25811,0.22093,1.0872,-0.24293,-0.016804,-0.010343,-0.51019,-0.1774,-0.021994,0.22937,0.31693,0.20107,-0.046291,-0.18489,0.28405,-0.027673,0.047439,0.067411,0.03824,0.014216
-0.0035835,0.017806,0.018256,0.0021293,-0.23881,0.14576,0.83303,-0.38924,-0.0059796,-0.12042,-0.63675,-0.118,0.026526,0.19457,0.23356,0.23456,-0.068211,-0.18373,0.30458,-0.04992,0.05871,0.054823,0.034665,0.015424
-0.0018106,0.020777,0.020956,0.0041241,-0.24708,0.031704,0.4812,-0.50423,0.0099823,-0.19009,-0.71639,-0.039407,0.048206,0.16041,0.13714,0.26148,-0.070257,-0.10414,0.42884,-0.052019,0.070546,0.043147,0.030882,0.012923
-0.00072524,0.020042,0.020584,0.0068652,-0.27744,-0.10692,0.093575,-0.57991,0.027168,-0.23444,-0.75713,0.047772,0.059501,0.1337,0.058135,0.27755,-0.051826,0.066239,0.62511,-0.036183,0.08314,0.037021,0.030225,0.010237
-0.0012863,0.015789,0.015998,0.008805,-0.32186,-0.25991,-0.28576,-0.62377,0.039541,-0.27444,-0.7752,0.12098,0.072179,0.11822,0.013751,0.28104,-0.018734,0.30512,0.83296,-0.0096935,0.096432,0.038185,0.033403,0.011446
-0.0029796,0.010461,0.0090631,0.0086625,-0.36877,-0.42084,-0.62984,-0.64791,0.040984,-0.32713,-0.77973,0.15485,0.088287,0.11477,0.0067075,0.27583,0.021659,0.57547,0.99725,0.022457,0.10996,0.045166,0.037558,0.018121
-0.0043461,0.0064577,0.0033878,0.00628,-0.4038,-0.58161,-0.9139,-0.65742,0.029666,-0.40126,-0.7699,0.13776,0.10396,0.1176,0.031184,0.26913,0.064035,0.84965,1.0975,0.060393,0.12282,0.053847,0.038661,0.027919
-0.0041815,0.0044374,0.0017418,0.0028368,-0.41451,-0.72627,-1.108,-0.64854,0.01056,-0.49928,-0.74401,0.082246,0.11632,0.11172,0.07846,0.26538,0.10494,1.1167,1.1512,0.10516,0.13386,0.059188,0.034952,0.036165
-0.0024583,0.0035737,0.0040642,0.00018079,-0.3974,-0.83072,-1.1891,-0.6175,-0.0073967,-0.62181,-0.70667,0.018787,0.12636,0.076567,0.13825,0.26187,0.1401,1.3689,1.1896,0.15205,0.14213,0.057874,0.02818,0.039357
-0.00034446,0.0030497,0.0075917,-0.00038859,-0.36148,-0.87145,-1.1614,-0.57109,-0.018015,-0.7693,-0.66314,-0.024019,0.13615,-0.0030044,0.19776,0.25072,0.16274,1.5842,1.2246,0.18868,0.14753,0.05046,0.021628,0.037864
0.0006511,0.0030145,0.0090543,0.00094309,-0.32456,-0.83858,-1.0642,-0.52846,-0.022619,-0.93937,-0.60593,-0.03752,0.14499,-0.125,0.24302,0.22611,0.16526,1.7244,1.2344,0.20075,0.15077,0.041221,0.017053,0.035562
-0.00016337,0.0040575,0.0072738,0.0026257,-0.30374,-0.7433,-0.95472,-0.51167,-0.028187,-1.1233,-0.51158,-0.035249,0.14939,-0.26673,0.26387,0.19042,0.14371,1.7558,1.1786,0.18126,0.1523,0.035312,0.01359,0.036605
-0.0019841,0.0060263,0.004135,0.0029551,-0.30628,-0.61323,-0.87632,-0.53208,-0.04029,-1.3063,-0.35862,-0.038582,0.14704,-0.39368,0.25915,0.15365,0.10136,1.6747,1.0321,0.13561,0.1506,0.035113,0.0094505,0.041922
-0.0028859,0.0077733,0.003125,0.0014888,-0.32712,-0.47855,-0.83646,-0.58321,-0.057391,-1.4721,-0.15588,-0.058754,0.13992,-0.47628,0.23699,0.12625,0.048304,1.5141,0.81032,0.078277,0.14156,0.038582,0.0044025,0.048381
-0.0011853,0.0083262,0.0065358,-0.00050085,-0.354,-0.35924,-0.80998,-0.64512,-0.072048,-1.6089,0.04587,-0.089716,0.13273,-0.50383,0.20896,0.11153,-0.0031994,1.3224,0.564,0.023956,0.12031,0.040989,0.00029581,0.051357
0.0030708,0.0082138,0.013503,-0.00098629,-0.37566,-0.26189,-0.76364,-0.69679,-0.078157,-1.7109,0.17708,-0.11532,0.12856,-0.48663,0.18282,0.10447,-0.044421,1.129,0.34632,-0.019797,0.085078,0.038622,-0.00088735,0.048611
0.0077057,0.0092226,0.020433,0.0011775,-0.38694,-0.18572,-0.68198,-0.72774,-0.07748,-1.7751,0.19632,-0.122,0.12716,-0.44505,0.1605,0.097728,-0.072924,0.92626,0.17655,-0.053219,0.040423,0.031484,0.00068106,0.042201
0.0096962,0.012419,0.023514,0.0052927,-0.38827,-0.1299,-0.57655,-0.74209,-0.079158,-1.7952,0.12541,-0.10569,0.12878,-0.39307,0.14321,0.089271,-0.090759,0.68495,0.029274,-0.079254,-0.0033703,0.022912,0.0025507,0.036851
0.0074027,0.016319,0.021411,0.0093498,-0.38244,-0.095919,-0.4752,-0.75401,-0.092224,-1.7597,0.041549,-0.070325,0.1397,-0.32782,0.13834,0.084643,-0.10023,0.39196,-0.14149,-0.098175,-0.035231,0.016654,0.0022463,0.036163
0.0020141,0.017392,0.016082,0.011596,-0.37284,-0.085514,-0.4029,-0.77835,-0.11762,-1.6557,0.02754,-0.023985,0.17215,-0.23299,0.15961,0.09167,-0.1012,0.078203,-0.36053,-0.10672,-0.049667,0.013927,-0.00038069,0.039884
-0.0031308,0.012982,0.011154,0.011805,-0.36472,-0.0996,-0.36856,-0.82217,-0.14677,-1.4779,0.11563,0.020878,0.2355,-0.095246,0.21705,0.1125,-0.092254,-0.18959,-0.60411,-0.10181,-0.049923,0.012754,-0.0030947,0.044428
-0.0049975,0.0041937,0.0091466,0.011212,-0.36617,-0.14025,-0.3645,-0.88105,-0.16795,-1.2346,0.26664,0.044697,0.32462,0.077017,0.3037,0.14006,-0.07423,-0.35068,-0.80856,-0.084953,-0.045342,0.0098884,-0.0035573,0.046017
-0.003136,-0.0041539,0.0097054,0.011271,-0.38491,-0.2118,-0.37485,-0.94157,-0.17485,-0.94812,0.39886,0.023161,0.4158,0.24697,0.3914,0.16208,-0.052555,-0.39465,-0.90959,-0.063182,-0.044765,0.0035875,-0.0016412,0.043662
0.00016181,-0.0069681,0.010171,0.012401,-0.42105,-0.31632,-0.38469,-0.9885,-0.16979,-0.64578,0.44342,-0.061263,0.47632,0.36316,0.44347,0.1692,-0.035592,-0.37237,-0.88389,-0.045928,-0.050929,-0.0049543,0.00051409,0.039505
0.0019843,-0.0030041,0.0079271,0.013806,-0.46149,-0.44516,-0.38454,-1.0124,-0.15923,-0.3489,0.38461,-0.20495,0.48232,0.38814,0.43836,0.16061,-0.030014,-0.36213,-0.76346,-0.040329,-0.059904,-0.012496,0.00069441,0.036528
0.0013177,0.0039318,0.0025872,0.014426,-0.48293,-0.57582,-0.37009,-1.0132,-0.14606,-0.066587,0.25903,-0.37819,0.43257,0.3235,0.38723,0.1432,-0.036806,-0.41436,-0.61361,-0.048109,-0.065451,-0.01614,-0.0011787,0.035901
-0.0003001,0.0079425,-0.0037445,0.014024,-0.46453,-0.6808,-0.34071,-0.99724,-0.12614,0.19949,0.12026,-0.5363,0.3479,0.21222,0.33011,0.12575,-0.051002,-0.5155,-0.49255,-0.065253,-0.064329,-0.015416,-0.0030082,0.03632
-0.00051156,0.0058035,-0.0082362,0.01335,-0.40291,-0.74447,-0.29903,-0.97025,-0.092633,0.44355,-0.00011683,-0.6405,0.25746,0.11416,0.31058,0.11329,-0.065055,-0.59794,-0.4216,-0.083822,-0.058301,-0.012654,-0.0026552,0.035666
0.0014743,-0.0004491,-0.0095079,0.013273,-0.31765,-0.77402,-0.25159,-0.93231,-0.044188,0.64881,-0.1067,-0.67359,0.18273,0.070905,0.34635,0.10578,-0.07293,-0.58862,-0.385,-0.094781,-0.051819,-0.011467,-0.00012273,0.03314
0.004168,-0.0052704,-0.0083528,0.013793,-0.24098,-0.79327,-0.20838,-0.87927,0.010689,0.79501,-0.22366,-0.64067,0.13043,0.085078,0.41772,0.10081,-0.071906,-0.46046,-0.35391,-0.091228,-0.048025,-0.014406,0.0023477,0.029758
0.0054072,-0.0041952,-0.0065462,0.014013,-0.19709,-0.82228,-0.17968,-0.80962,0.057862,0.87748,-0.36465,-0.55774,0.096917,0.12819,0.48311,0.097102,-0.061602,-0.25021,-0.31259,-0.07131,-0.046665,-0.021251,0.0023577,0.026899
0.004609,0.0025786,-0.0050699,0.013179,-0.18591,-0.85926,-0.17084,-0.73002,0.087408,0.92095,-0.51352,-0.44045,0.076733,0.1681,0.50976,0.095448,-0.042195,-0.032226,-0.26617,-0.039388,-0.045266,-0.029031,-0.00039858,0.024565
0.003341,0.01051,-0.0035138,0.011716,-0.18427,-0.88041,-0.17766,-0.65341,0.10074,0.97089,-0.62868,-0.3019,0.066498,0.19211,0.49588,0.096714,-0.014028,0.12947,-0.22777,-0.0040053,-0.041958,-0.033799,-0.0038792,0.021295
0.0035799,0.014506,-0.0011169,0.011085,-0.1644,-0.85863,-0.18564,-0.59003,0.10863,1.062,-0.66568,-0.15714,0.062083,0.20775,0.46797,0.099229,0.021125,0.21514,-0.2002,0.026898,-0.037241,-0.033149,-0.0056784,0.015894
0.0054018,0.012914,0.001817,0.012351,-0.11552,-0.78572,-0.17466,-0.53923,0.12147,1.1863,-0.60124,-0.02442,0.055291,0.22443,0.45713,0.098085,0.058932,0.24804,-0.17023,0.050572,-0.033384,-0.027918,-0.0053529,0.009167
0.0065168,0.0084419,0.0037777,0.014814,-0.051428,-0.67984,-0.12778,-0.49005,0.14028,1.289,-0.44389,0.082379,0.037063,0.23629,0.47478,0.087049,0.093394,0.26508,-0.12026,0.070301,-0.032375,-0.02187,-0.0048514,0.0036844
0.0043131,0.0054421,0.0034681,0.016205,0.0019065,-0.5725,-0.039952,-0.43159,0.15612,1.3026,-0.22757,0.16434,0.0069502,0.22352,0.5068,0.061631,0.11965,0.28693,-0.045639,0.091581,-0.034342,-0.019439,-0.0065967,0.0014795
-0.0014154,0.0060864,0.0013565,0.014572,0.027646,-0.48578,0.078001,-0.36505,0.15844,1.1976,0.0044597,0.23925,-0.019849,0.17086,0.52847,0.02129,0.13659,0.3107,0.039182,0.11663,-0.037565,-0.022916,-0.011022,0.0018009
-0.0076773,0.0087239,-0.00034832,0.010239,0.030013,-0.41747,0.20309,-0.30655,0.14485,1.0085,0.21466,0.32903,-0.017085,0.085354,0.52559,-0.030219,0.14691,0.32607,0.11204,0.1419,-0.039739,-0.030972,-0.015942,0.001279
-0.010361,0.009708,0.00050112,0.0058462,0.027272,-0.34342,0.30998,-0.27731,0.12359,0.81343,0.37879,0.44093,0.035943,-0.0038356,0.50338,-0.086025,0.15435,0.3353,0.1618,0.16064,-0.039307,-0.039481,-0.018485,-0.0032441
-0.0075036,0.0069203,0.0040272,0.0041606,0.033494,-0.23301,0.38184,-0.28772,0.10685,0.67795,0.48614,0.55784,0.13643,-0.064011,0.47752,-0.13812,0.16032,0.35582,0.19687,0.16826,-0.036043,-0.044035,-0.01787,-0.011598
-0.00095554,0.0018346,0.0081041,0.0054901,0.046836,-0.065256,0.4163,-0.32755,0.10075,0.60783,0.53604,0.64648,0.25273,-0.08094,0.45741,-0.17976,0.16258,0.40161,0.23448,0.16546,-0.03083,-0.042397,-0.01646,-0.019865
0.0049899,-0.0016481,0.010174,0.0071335,0.055561,0.1633,0.42345,-0.36969,0.10092,0.54724,0.53347,0.67734,0.3375,-0.067546,0.43727,-0.20796,0.15704,0.46041,0.27938,0.15643,-0.025061,-0.03539,-0.017989,-0.023399
0.0068419,-0.00049436,0.0094421,0.0055615,0.056034,0.4388,0.41772,-0.38461,0.096711,0.42448,0.48508,0.64081,0.35185,-0.054679,0.40255,-0.22516,0.14116,0.48949,0.31166,0.14392,-0.02002,-0.025989,-0.024437,-0.020853
0.0043643,0.0049082,0.0074142,-0.00048992,0.065201,0.73299,0.40932,-0.35531,0.079884,0.20897,0.39663,0.5482,0.28496,-0.072185,0.34466,-0.23824,0.11602,0.43799,0.298,0.12638,-0.0164,-0.017594,-0.034308,-0.015603
0.00035328,0.011008,0.006299,-0.0087604,0.11451,1.0061,0.40065,-0.28309,0.050247,-0.064474,0.27392,0.41969,0.15687,-0.13154,0.27076,-0.25443,0.085972,0.28109,0.22058,0.10041,-0.014053,-0.012639,-0.043812,-0.013072
-0.0018473,0.013721,0.0068536,-0.015189,0.22874,1.2132,0.38925,-0.18252,0.014337,-0.32059,0.12794,0.27132,0.0041923,-0.21618,0.2008,-0.27577,0.0564,0.040424,0.10146,0.066772,-0.012122,-0.012056,-0.049882,-0.016183
-0.00091095,0.011105,0.0077297,-0.017111,0.40677,1.3177,0.37421,-0.071387,-0.020384,-0.49485,-0.01909,0.11113,-0.14014,-0.28091,0.15506,-0.29578,0.031797,-0.22556,7.3189e-005,0.034021,-0.0095402,-0.015351,-0.052343,-0.02294
0.001841,0.0040968,0.0068983,-0.015159,0.61972,1.3091,0.36058,0.036592,-0.050324,-0.5703,-0.13343,-0.055174,-0.25979,-0.26254,0.14249,-0.30175,0.015068,-0.45425,-0.0188,0.015494,-0.0056457,-0.020956,-0.053418,-0.028345
0.0039601,-0.0047552,0.0037129,-0.01236,0.82765,1.2125,0.35796,0.1329,-0.076274,-0.57551,-0.17989,-0.21675,-0.35408,-0.10429,0.1574,-0.28174,0.0076156,-0.61087,0.074675,0.020686,-0.00048164,-0.026799,-0.055192,-0.028888
0.0039813,-0.012993,-0.00038768,-0.011478,1.0013,1.0786,0.37398,0.21162,-0.10081,-0.55296,-0.13937,-0.35586,-0.42746,0.21065,0.18442,-0.23235,0.0091008,-0.6982,0.25621,0.047778,0.0054216,-0.031148,-0.057469,-0.025526
0.0022903,-0.019021,-0.0031306,-0.013063,1.1331,0.95478,0.40706,0.26791,-0.12581,-0.52848,-0.02333,-0.45308,-0.47955,0.63332,0.20618,-0.16172,0.016817,-0.74132,0.46355,0.083792,0.011538,-0.033441,-0.057956,-0.022466
0.00023323,-0.021947,-0.0032911,-0.015764,1.232,0.85721,0.44424,0.29947,-0.15163,-0.50514,0.12622,-0.49567,-0.50358,1.0536,0.20909,-0.085965,0.025815,-0.76264,0.63493,0.11293,0.017626,-0.034483,-0.054544,-0.023029
-0.0014287,-0.021456,-0.0013855,-0.018186,1.3096,0.76527,0.46621,0.30912,-0.17706,-0.47945,0.25398,-0.48449,-0.49355,1.3435,0.18635,-0.021252,0.03077,-0.76671,0.7404,0.12673,0.023524,-0.035728,-0.047555,-0.026498
-0.0031539,-0.018243,0.0012867,-0.020249,1.3689,0.64569,0.45728,0.3048,-0.1988,-0.45835,0.31712,-0.43636,-0.45328,1.421,0.13974,0.023282,0.028945,-0.74276,0.78463,0.1282,0.028693,-0.038067,-0.039951,-0.028853
-0.0058005,-0.014363,0.0039818,-0.022747,1.4036,0.4886,0.41411,0.29612,-0.21096,-0.4586,0.30457,-0.37974,-0.39955,1.294,0.07998,0.04783,0.022098,-0.67868,0.78566,0.12687,0.032063,-0.041091,-0.035297,-0.026607
-0.0092727,-0.012579,0.0067147,-0.025843,1.4044,0.32607,0.34731,0.29022,-0.20676,-0.49058,0.23907,-0.34356,-0.3559,1.0522,0.023739,0.059035,0.015527,-0.57447,0.7534,0.12989,0.032515,-0.04332,-0.035167,-0.020125
-0.012074,-0.014725,0.0092736,-0.028343,1.3676,0.21658,0.27476,0.29039,-0.18246,-0.54464,0.16211,-0.34257,-0.34088,0.80974,-0.013744,0.064619,0.014578,-0.44788,0.68839,0.13662,0.029833,-0.042991,-0.038066,-0.013409
-0.012315,-0.02033,0.010501,-0.028698,1.2982,0.2072,0.21129,0.29781,-0.14114,-0.59579,0.11179,-0.3682,-0.35821,0.63553,-0.027309,0.069062,0.021097,-0.332,0.59799,0.14105,0.025447,-0.038579,-0.040588,-0.010604
-0.0093175,-0.026807,0.0090719,-0.026751,1.2091,0.3046,0.16198,0.31365,-0.092502,-0.62439,0.10634,-0.39357,-0.39529,0.52163,-0.02588,0.072415,0.032414,-0.26687,0.50823,0.13862,0.022352,-0.028781,-0.039808,-0.012363
-0.0043559,-0.03125,0.0051788,-0.024284,1.1178,0.47828,0.12366,0.33851,-0.048099,-0.63449,0.14106,-0.39276,-0.43087,0.40867,-0.027667,0.072075,0.043521,-0.28583,0.45329,0.13071,0.02404,-0.012606,-0.035076,-0.015237
0.0001369,-0.032415,0.0011432,-0.023549,1.0415,0.69173,0.093102,0.36986,-0.015268,-0.65266,0.19721,-0.36167,-0.44697,0.246,-0.048445,0.06572,0.050581,-0.39841,0.44876,0.12275,0.032886,0.009705,-0.028073,-0.0145
0.0022187,-0.03134,-0.00023667,-0.025071,0.99295,0.93306,0.074619,0.40118,0.0053976,-0.70653,0.25535,-0.32367,-0.4379,0.03786,-0.090334,0.053371,0.053122,-0.57688,0.47437,0.11835,0.048748,0.035264,-0.021361,-0.0079536
0.0015777,-0.030237,0.0016191,-0.026914,0.9775,1.2185,0.080265,0.4251,0.017299,-0.79944,0.30409,-0.3132,-0.41115,-0.1592,-0.13903,0.037494,0.053505,-0.75798,0.48666,0.11553,0.068507,0.058113,-0.016726,0.0024164
-0.00063135,-0.030722,0.0040515,-0.026371,0.99191,1.5658,0.12163,0.43858,0.022836,-0.90124,0.3393,-0.34909,-0.38093,-0.28167,-0.1721,0.021483,0.054503,-0.86607,0.45464,0.10896,0.086957,0.071107,-0.014457,0.012096
-0.002879,-0.032776,0.003254,-0.022639,1.0272,1.9605,0.19919,0.44491,0.021044,-0.96292,0.35551,-0.41888,-0.35935,-0.30786,-0.17324,0.0078484,0.057103,-0.84985,0.3874,0.095799,0.09891,0.069681,-0.013796,0.017496
-0.0042513,-0.035039,-0.0021434,-0.017954,1.0737,2.3434,0.29782,0.44997,0.0099157,-0.94547,0.33635,-0.48686,-0.35086,-0.27105,-0.14323,-0.0025616,0.060137,-0.71139,0.32628,0.079506,0.1017,0.055134,-0.013808,0.018425
-0.0046752,-0.035889,-0.0093992,-0.015888,1.1249,2.6283,0.39255,0.45585,-0.0092702,-0.84332,0.25177,-0.51851,-0.35197,-0.22959,-0.10007,-0.0099475,0.061731,-0.50721,0.30485,0.067697,0.096801,0.03483,-0.013797,0.017842
-0.0045529,-0.034402,-0.013759,-0.01814,1.1781,2.7393,0.46111,0.4582,-0.03038,-0.68743,0.066552,-0.50061,-0.35363,-0.22186,-0.068065,-0.014337,0.061182,-0.31773,0.31022,0.06585,0.089253,0.01863,-0.013089,0.019376
-0.0043911,-0.030681,-0.012626,-0.022658,1.2297,2.6423,0.49481,0.45078,-0.045692,-0.52659,-0.24211,-0.44209,-0.34303,-0.24291,-0.063129,-0.015022,0.059749,-0.2034,0.28107,0.072546,0.084948,0.013554,-0.010764,0.024704
-0.0046977,-0.025657,-0.0079884,-0.024981,1.2714,2.3567,0.50108,0.43359,-0.051276,-0.39978,-0.66548,-0.3591,-0.30451,-0.25832,-0.084319,-0.011342,0.059822,-0.1752,0.14818,0.080519,0.08712,0.020088,-0.0059653,0.032705
-0.0059005,-0.020688,-0.0047741,-0.021856,1.2892,1.9475,0.49745,0.4166,-0.049467,-0.31742,-1.1528,-0.26099,-0.2229,-0.2393,-0.1174,-0.0043194,0.063148,-0.19727,-0.11286,0.082523,0.094446,0.032426,0.001307,0.040701
-0.0080115,-0.017106,-0.0065914,-0.014078,1.2697,1.5051,0.50207,0.41435,-0.045821,-0.26296,-1.6174,-0.1499,-0.091654,-0.188,-0.14752,0.0022368,0.069392,-0.21658,-0.45795,0.076757,0.10219,0.042288,0.0096611,0.046528
-0.010249,-0.01572,-0.012691,-0.0059892,1.2079,1.1185,0.52641,0.43446,-0.043082,-0.21215,-1.9604,-0.030598,0.077555,-0.13461,-0.1712,0.0024752,0.075981,-0.19725,-0.79788,0.067116,0.10559,0.043593,0.016692,0.049736
-0.011182,-0.016431,-0.0188,-0.0018934,1.1112,0.8482,0.57193,0.46886,-0.03763,-0.15513,-2.1061,0.083048,0.252,-0.11315,-0.19844,-0.0086371,0.079236,-0.13733,-1.0494,0.058321,0.10301,0.035055,0.020074,0.051209
-0.0096229,-0.018271,-0.020906,-0.0024186,0.99452,0.70263,0.62978,0.49515,-0.021993,-0.10436,-2.0319,0.17377,0.3883,-0.13855,-0.24326,-0.031607,0.075923,-0.061278,-1.1755,0.050542,0.096439,0.019517,0.018512,0.05186
-0.005687,-0.020009,-0.018542,-0.0040191,0.86956,0.63475,0.68277,0.48839,0.0083233,-0.08229,-1.7789,0.23313,0.45301,-0.2023,-0.3104,-0.060201,0.064286,0.0013848,-1.1894,0.038538,0.089222,0.0012501,0.011948,0.051696
-0.001038,-0.020974,-0.014859,-0.0021225,0.73703,0.56564,0.71076,0.43576,0.049521,-0.099282,-1.4333,0.26704,0.44121,-0.28453,-0.38906,-0.082813,0.044279,0.034725,-1.1281,0.016271,0.083257,-0.01644,0.0012337,0.050036
0.002108,-0.021418,-0.013771,0.0048181,0.58866,0.42899,0.69944,0.34503,0.090595,-0.14056,-1.0868,0.28816,0.37963,-0.36663,-0.4586,-0.087591,0.017523,0.043195,-1.0217,-0.016863,0.078045,-0.031775,-0.012081,0.046521
0.0025327,-0.021993,-0.016845,0.013956,0.41845,0.21081,0.64872,0.24152,0.12042,-0.17442,-0.7966,0.30236,0.31146,-0.43222,-0.50123,-0.068844,-0.01235,0.048896,-0.8831,-0.053448,0.072257,-0.04359,-0.025633,0.041867
0.0008526,-0.022709,-0.022442,0.020567,0.23353,-0.04342,0.57377,0.1553,0.13526,-0.17551,-0.56919,0.3026,0.27296,-0.45929,-0.51145,-0.030639,-0.039205,0.086088,-0.71663,-0.081369,0.066045,-0.050532,-0.036399,0.037636
-0.0010434,-0.022328,-0.027384,0.022155,0.054345,-0.26073,0.49564,0.10586,0.14048,-0.14338,-0.37492,0.27568,0.27789,-0.41822,-0.49531,0.015277,-0.054924,0.19537,-0.53085,-0.090538,0.061668,-0.051445,-0.041703,0.035236
-0.0014196,-0.019012,-0.029442,0.020457,-0.097243,-0.38929,0.42657,0.093043,0.14518,-0.099653,-0.18249,0.21403,0.31843,-0.28594,-0.46222,0.056289,-0.051923,0.41387,-0.33854,-0.078161,0.061679,-0.046543,-0.040724,0.035048
0.00025476,-0.01196,-0.028639,0.019649,-0.21246,-0.4274,0.36167,0.099451,0.15415,-0.065934,0.012696,0.12007,0.37847,-0.069373,-0.41785,0.085882,-0.02703,0.7588,-0.14602,-0.049265,0.066348,-0.037924,-0.035215,0.036388
0.0033787,-0.0027443,-0.026748,0.022506,-0.2998,-0.41276,0.28484,0.10304,0.16383,-0.042201,0.18531,-0.00057936,0.44615,0.18211,-0.36456,0.10571,0.015652,1.2098,0.055139,-0.013004,0.072863,-0.028577,-0.028471,0.038227
0.0070495,0.005043,-0.02575,0.028036,-0.37474,-0.38443,0.18546,0.091903,0.16527,-0.0059037,0.30164,-0.14843,0.5162,0.39164,-0.30733,0.12147,0.065346,1.7025,0.28294,0.022005,0.077305,-0.020508,-0.023123,0.039938
0.010673,0.0079825,-0.026557,0.032597,-0.44419,-0.35203,0.071809,0.071301,0.1512,0.066462,0.34699,-0.32986,0.58333,0.49338,-0.2574,0.13623,0.10889,2.1436,0.5494,0.050353,0.077782,-0.013621,-0.019563,0.041449
0.013844,0.0053686,-0.028723,0.033286,-0.50001,-0.29823,-0.031458,0.057725,0.12127,0.17429,0.33744,-0.54475,0.63603,0.46966,-0.22818,0.14696,0.13629,2.4428,0.84763,0.069867,0.075902,-0.0063812,-0.016398,0.042814
0.01591,-1.5339e-005,-0.031036,0.030488,-0.52809,-0.20972,-0.10129,0.064278,0.081601,0.28745,0.3085,-0.7727,0.65889,0.35971,-0.22603,0.14703,0.1441,2.5471,1.1515,0.080349,0.075174,0.0023052,-0.012507,0.043751
0.016023,-0.0037737,-0.032372,0.027423,-0.5248,-0.10593,-0.13531,0.088379,0.040085,0.36676,0.29234,-0.97222,0.64253,0.23173,-0.24472,0.13212,0.13509,2.4572,1.4264,0.082572,0.077719,0.01162,-0.0087108,0.043648
0.013845,-0.0031217,-0.03224,0.027325,-0.50537,-0.037291,-0.15554,0.11139,0.001726,0.3937,0.30216,-1.0974,0.59259,0.13801,-0.26951,0.10405,0.11541,2.2203,1.6408,0.077957,0.082242,0.019024,-0.007389,0.041972
0.010228,0.0011285,-0.030841,0.030822,-0.49565,-0.052801,-0.19289,0.11042,-0.032414,0.38397,0.33454,-1.1218,0.52963,0.084778,-0.28826,0.069066,0.091521,1.9042,1.772,0.068407,0.085073,0.021897,-0.010311,0.038686
0.0070265,0.0054713,-0.028792,0.035675,-0.51425,-0.16488,-0.26464,0.073186,-0.063106,0.37327,0.38346,-1.0524,0.47948,0.03714,-0.30036,0.032451,0.068525,1.571,1.8082,0.055829,0.083245,0.019259,-0.016621,0.034301
0.0059396,0.006701,-0.026809,0.038855,-0.56034,-0.34184,-0.36351,0.0048723,-0.090597,0.38749,0.45069,-0.92374,0.46094,-0.047745,-0.31572,-0.0053045,0.049431,1.2605,1.7502,0.041516,0.076795,0.012382,-0.022837,0.029624
0.0072869,0.0043928,-0.025492,0.039015,-0.61762,-0.53368,-0.46663,-0.076714,-0.11425,0.4225,0.54188,-0.77818,0.47886,-0.18567,-0.34484,-0.047098,0.03468,0.98819,1.6148,0.025813,0.068338,0.0041463,-0.024958,0.025438
0.0097696,0.00079679,-0.025155,0.037337,-0.66975,-0.70772,-0.55619,-0.15221,-0.13384,0.45028,0.65225,-0.64649,0.52545,-0.35264,-0.38855,-0.093901,0.022066,0.7524,1.4341,0.0082025,0.060605,-0.0020917,-0.020983,0.022293
0.011473,-0.0015313,-0.025618,0.036233,-0.71294,-0.8638,-0.63389,-0.20891,-0.15048,0.44559,0.75655,-0.54215,0.58704,-0.49878,-0.43571,-0.14074,0.0080369,0.54411,1.2459,-0.012381,0.05444,-0.0034177,-0.011915,0.020384
0.01128,-0.0020119,-0.026082,0.037134,-0.75496,-1.0187,-0.71761,-0.2416,-0.16599,0.41039,0.81536,-0.46889,0.65143,-0.57428,-0.47014,-0.17818,-0.0095784,0.35751,1.0807,-0.037098,0.048949,0.0019714,-0.00061079,0.019486
0.0095304,-0.0021261,-0.025356,0.039212,-0.8033,-1.1775,-0.82399,-0.2487,-0.18141,0.37555,0.79643,-0.43093,0.71288,-0.55003,-0.48066,-0.19868,-0.029248,0.19843,0.95409,-0.066503,0.043208,0.014075,0.010418,0.019008
0.0074383,-0.0034182,-0.0225,0.039982,-0.85492,-1.3193,-0.95209,-0.22954,-0.19611,0.37849,0.69613,-0.43453,0.77373,-0.42594,-0.4671,-0.20268,-0.046191,0.086832,0.86902,-0.099702,0.037482,0.030541,0.020472,0.01825
0.0059022,-0.0055591,-0.017573,0.03726,-0.8976,-1.4103,-1.0809,-0.18541,-0.20822,0.43488,0.54477,-0.47992,0.84194,-0.23092,-0.43951,-0.19919,-0.056031,0.047645,0.81977,-0.13401,0.032761,0.046998,0.030349,0.016717
0.0048124,-0.0064926,-0.011869,0.030928,-0.92103,-1.4302,-1.1813,-0.12198,-0.21564,0.52705,0.39082,-0.55261,0.92421,-0.018139,-0.41253,-0.19999,-0.059012,0.090355,0.78883,-0.16581,0.029377,0.058699,0.040669,0.014273
0.0034218,-0.0045596,-0.0073524,0.023173,-0.92657,-1.3892,-1.2318,-0.049159,-0.21666,0.6173,0.27496,-0.62441,1.0172,0.14798,-0.39848,-0.21158,-0.061062,0.18888,0.73735,-0.1924,0.026442,0.062773,0.050326,0.011041
0.0013161,-0.00048578,-0.0056136,0.017021,-0.92681,-1.3212,-1.227,0.022847,-0.20989,0.67478,0.21146,-0.66525,1.103,0.21697,-0.40173,-0.23083,-0.070244,0.27977,0.60593,-0.21339,0.022748,0.059444,0.056399,0.0072387
-0.0010033,0.0028189,-0.0070506,0.014233,-0.93604,-1.2632,-1.175,0.088124,-0.19423,0.69441,0.1881,-0.65642,1.1541,0.18178,-0.41626,-0.24744,-0.091016,0.2889,0.34034,-0.23023,0.018051,0.051143,0.055672,0.0031755
-0.0024576,0.0025987,-0.010745,0.014084,-0.96118,-1.2383,-1.0909,0.14629,-0.16948,0.69422,0.18083,-0.59501,1.1476,0.09088,-0.42885,-0.25141,-0.12081,0.17553,-0.065901,-0.24395,0.013246,0.040193,0.046603,-0.00067461
-0.0022667,-0.0014057,-0.014938,0.013925,-1.0008,-1.2552,-0.99104,0.19934,-0.13723,0.69568,0.17003,-0.48748,1.0783,0.024706,-0.42847,-0.23999,-0.1516,-0.035841,-0.54573,-0.25324,0.0092752,0.027135,0.030242,-0.0038405
-0.00053464,-0.006796,-0.017693,0.011182,-1.0512,-1.317,-0.89208,0.2469,-0.10121,0.7047,0.14723,-0.34106,0.96058,0.042848,-0.41717,-0.21927,-0.17513,-0.2635,-0.98124,-0.25497,0.0060541,0.011183,0.0094643,-0.0063852
0.0018848,-0.010664,-0.017513,0.0053746,-1.1115,-1.4251,-0.80933,0.28417,-0.066613,0.70902,0.1122,-0.1628,0.81819,0.13723,-0.4135,-0.19961,-0.18765,-0.41763,-1.2706,-0.24695,0.0026536,-0.0077498,-0.012686,-0.0093472
0.003952,-0.012004,-0.013899,-0.0013483,-1.1819,-1.5725,-0.7526,0.30428,-0.038674,0.69221,0.06905,0.032849,0.66885,0.23042,-0.44189,-0.18827,-0.19097,-0.45978,-1.3922,-0.23074,-0.0015084,-0.027615,-0.034102,-0.014366
0.0048799,-0.012127,-0.0077872,-0.0056469,-1.2558,-1.7341,-0.72033,0.303,-0.02159,0.65017,0.027348,0.21782,0.51855,0.22745,-0.51261,-0.18469,-0.18988,-0.42997,-1.4133,-0.21172,-0.0058789,-0.044935,-0.053366,-0.022322
0.0042546,-0.012812,-0.0014524,-0.0054751,-1.316,-1.8678,-0.69772,0.28195,-0.01792,0.59452,0.0051331,0.35647,0.36869,0.086015,-0.60724,-0.18152,-0.18898,-0.42,-1.4295,-0.19628,-0.0092964,-0.056978,-0.068782,-0.03188
0.0020655,-0.014108,0.0024487,-0.00176,-1.3395,-1.9327,-0.66243,0.24753,-0.028199,0.54014,0.024494,0.4246,0.22761,-0.14937,-0.6841,-0.17057,-0.1913,-0.51109,-1.4854,-0.1886,-0.011204,-0.063251,-0.078097,-0.039402
-0.0011798,-0.014069,0.0023736,0.0021214,-1.3109,-1.9107,-0.59537,0.20639,-0.050271,0.48932,0.096407,0.42881,0.11296,-0.37728,-0.70334,-0.14884,-0.19881,-0.72096,-1.5441,-0.18932,-0.012134,-0.064945,-0.079614,-0.040879
-0.0044657,-0.01077,-0.0011051,0.002837,-1.2327,-1.8164,-0.48987,0.16137,-0.078638,0.42848,0.20459,0.40975,0.04072,-0.51053,-0.65417,-0.12034,-0.21268,-0.99761,-1.5348,-0.19653,-0.012929,-0.063189,-0.073867,-0.034841
-0.0066987,-0.0046789,-0.0057116,-0.00031992,-1.1262,-1.6841,-0.35286,0.11156,-0.10484,0.3423,0.30476,0.42297,0.01008,-0.53218,-0.56282,-0.092228,-0.23208,-1.2604,-1.4332,-0.20701,-0.013633,-0.058189,-0.064112,-0.02395
-0.0074134,0.00099151,-0.0091169,-0.0049041,-1.0196,-1.5433,-0.19832,0.056938,-0.11965,0.23288,0.34635,0.50789,-0.00056498,-0.49429,-0.47393,-0.068657,-0.25228,-1.4538,-1.2992,-0.21627,-0.013398,-0.050156,-0.054722,-0.013667
-0.0071371,0.002502,-0.010508,-0.0074121,-0.93254,-1.4011,-0.038899,0.0040169,-0.11662,0.12615,0.30442,0.66533,-0.020899,-0.46568,-0.41981,-0.04743,-0.26484,-1.5718,-1.2294,-0.21795,-0.011555,-0.040765,-0.048481,-0.0086487
-0.0069551,-0.0015067,-0.010741,-0.006335,-0.8671,-1.2462,0.11762,-0.03309,-0.095165,0.05768,0.19746,0.85876,-0.06857,-0.4758,-0.40156,-0.02247,-0.26101,-1.6405,-1.2642,-0.20461,-0.0086498,-0.033166,-0.04496,-0.0096141
-0.0075732,-0.0089595,-0.011033,-0.0035625,-0.8105,-1.0709,0.26563,-0.038702,-0.061344,0.048685,0.07482,1.0381,-0.13814,-0.49985,-0.39557,0.0097692,-0.2369,-1.6794,-1.3384,-0.17107,-0.0062037,-0.030166,-0.041401,-0.013263
-0.0087329,-0.01603,-0.011517,-0.0028536,-0.74733,-0.89286,0.39733,-0.0055828,-0.025606,0.092264,-0.018351,1.1693,-0.20753,-0.49125,-0.3773,0.045242,-0.19631,-1.678,-1.3273,-0.11822,-0.0053545,-0.032347,-0.035342,-0.01537
-0.009542,-0.020015,-0.011129,-0.0066225,-0.67189,-0.75595,0.50282,0.058209,0.0015845,0.16161,-0.072121,1.2492,-0.25515,-0.42741,-0.34097,0.072966,-0.14878,-1.6082,-1.1545,-0.054146,-0.0057783,-0.038063,-0.026709,-0.014404
-0.0093773,-0.020932,-0.0089134,-0.013795,-0.59286,-0.70889,0.57599,0.13125,0.014229,0.23292,-0.11471,1.2982,-0.27271,-0.32856,-0.29981,0.081265,-0.10357,-1.4566,-0.86417,0.0093061,-0.0060461,-0.045241,-0.017607,-0.012511
-0.0084559,-0.020661,-0.0053464,-0.020565,-0.52807,-0.77468,0.62091,0.18867,0.013311,0.30282,-0.18636,1.3376,-0.2643,-0.23836,-0.26998,0.065124,-0.064118,-1.2472,-0.59012,0.062514,-0.0051128,-0.052899,-0.010233,-0.01308
-0.0075338,-0.020734,-0.0022019,-0.023367,-0.49384,-0.93402,0.65141,0.21316,0.0060019,0.38542,-0.30615,1.3701,-0.23615,-0.18869,-0.25506,0.029734,-0.0272,-1.0316,-0.44598,0.10229,-0.003484,-0.060647,-0.0050042,-0.017232
-0.0071058,-0.020901,-0.00096771,-0.021504,-0.49618,-1.1343,0.68174,0.19994,0.0015706,0.49244,-0.45753,1.3768,-0.18896,-0.18066,-0.24507,-0.011372,0.012106,-0.85662,-0.43731,0.13098,-0.0029172,-0.066844,-0.00064302,-0.022583
-0.0069632,-0.019684,-0.001377,-0.017348,-0.52846,-1.3169,0.71461,0.15388,0.0056896,0.6151,-0.60072,1.3326,-0.12049,-0.19328,-0.22872,-0.041391,0.05365,-0.73736,-0.47472,0.15127,-0.0049324,-0.067897,0.0040614,-0.025511
-0.0065343,-0.016177,-0.0016438,-0.014189,-0.57504,-1.4437,0.7365,0.083455,0.016243,0.72417,-0.69881,1.2261,-0.034583,-0.20494,-0.20564,-0.045368,0.089249,-0.65768,-0.4716,0.1612,-0.0094919,-0.060203,0.0087467,-0.024807
-0.0055663,-0.011254,-0.00033108,-0.013746,-0.61738,-1.5053,0.72579,-0.0027535,0.023676,0.78771,-0.73743,1.069,0.053748,-0.20511,-0.1866,-0.014125,0.10675,-0.59498,-0.42838,0.1543,-0.014977,-0.043358,0.011805,-0.023197
-0.0043565,-0.0070761,0.0019456,-0.015345,-0.63904,-1.5099,0.66845,-0.095497,0.016593,0.78999,-0.72853,0.89021,0.12341,-0.18892,-0.18241,0.052522,0.098708,-0.54386,-0.42025,0.12555,-0.019379,-0.021536,0.01215,-0.025135
-0.0032765,-0.0053936,0.0027972,-0.017113,-0.6291,-1.466,0.56973,-0.18397,-0.010413,0.73503,-0.70323,0.7175,0.15885,-0.14691,-0.19271,0.14354,0.069366,-0.51701,-0.50202,0.078867,-0.021619,-0.0013468,0.010476,-0.03275
-0.0021666,-0.0062677,0.00029419,-0.017832,-0.58528,-1.373,0.4523,-0.25838,-0.052112,0.63337,-0.70282,0.56293,0.15843,-0.066364,-0.20523,0.23787,0.034057,-0.524,-0.62822,0.029276,-0.022014,0.012219,0.0085488,-0.043644
-0.00038432,-0.0082963,-0.0048642,-0.017811,-0.51643,-1.2263,0.34203,-0.31495,-0.095231,0.48691,-0.76986,0.42014,0.13342,0.054151,-0.20559,0.31145,0.010811,-0.55021,-0.67411,-0.0034311,-0.02174,0.018293,0.0071468,-0.052664
0.0023994,-0.0099918,-0.0093993,-0.018259,-0.44162,-1.028,0.25264,-0.35788,-0.12735,0.2875,-0.93543,0.2741,0.099476,0.19239,-0.18813,0.34865,0.0097139,-0.55802,-0.5443,-0.0063009,-0.021937,0.019123,0.0048323,-0.056204
0.0054306,-0.010931,-0.0099011,-0.019996,-0.38284,-0.79384,0.18075,-0.39426,-0.14602,0.030963,-1.2028,0.11449,0.068054,0.30796,-0.15867,0.35139,0.027526,-0.5115,-0.26716,0.018174,-0.023106,0.016923,-0.00091719,-0.055255
0.0070141,-0.011677,-0.0055863,-0.022783,-0.35321,-0.5498,0.11433,-0.42487,-0.16096,-0.26721,-1.5373,-0.056691,0.043212,0.36525,-0.12818,0.33868,0.051192,-0.40395,0.017638,0.053177,-0.024967,0.011793,-0.011039,-0.054491
0.005623,-0.012756,0.0010908,-0.025776,-0.34777,-0.31985,0.046152,-0.43929,-0.18689,-0.56999,-1.8745,-0.22673,0.023649,0.35546,-0.10432,0.3347,0.067205,-0.26417,0.17246,0.07804,-0.026621,0.0025354,-0.02323,-0.058126
0.0010776,-0.013866,0.0064809,-0.028528,-0.34465,-0.11422,-0.019288,-0.42176,-0.23166,-0.83331,-2.1447,-0.37926,0.006237,0.29859,-0.08802,0.3526,0.069723,-0.13551,0.17588,0.080525,-0.026859,-0.010899,-0.033141,-0.066113
-0.0052204,-0.014142,0.0085434,-0.031458,-0.3178,0.075523,-0.06959,-0.3648,-0.28841,-1.025,-2.2998,-0.50108,-0.01166,0.22366,-0.075675,0.38562,0.06185,-0.045118,0.13723,0.062162,-0.024688,-0.026185,-0.037639,-0.073949
-0.01116,-0.013122,0.007959,-0.035252,-0.2533,0.27112,-0.093481,-0.2798,-0.33821,-1.1331,-2.3227,-0.58522,-0.031035,0.14489,-0.062416,0.4122,0.05028,0.011352,0.20184,0.033609,-0.019972,-0.040072,-0.037264,-0.076277
-0.015098,-0.011389,0.0068459,-0.039736,-0.15767,0.49311,-0.085688,-0.19433,-0.3617,-1.1612,-2.2178,-0.63037,-0.050392,0.054797,-0.042845,0.41113,0.038543,0.057832,0.43176,0.0048536,-0.013836,-0.051167,-0.035616,-0.071288
-0.016414,-0.010228,0.0066144,-0.043384,-0.052432,0.74255,-0.04479,-0.13689,-0.35146,-1.1187,-1.9953,-0.63789,-0.065822,-0.060316,-0.010755,0.37529,0.024545,0.10981,0.76025,-0.02157,-0.0083699,-0.061307,-0.03615,-0.062306
-0.015247,-0.010656,0.0070248,-0.044228,0.04006,0.98782,0.029769,-0.12052,-0.31593,-1.0176,-1.6665,-0.60783,-0.073364,-0.19755,0.038092,0.31404,0.0038328,0.1541,1.0472,-0.049619,-0.0056077,-0.074141,-0.039296,-0.055387
-0.012072,-0.012746,0.0070101,-0.041614,0.10827,1.1664,0.1336,-0.13853,-0.272,-0.87782,-1.254,-0.53621,-0.073085,-0.3285,0.099572,0.24428,-0.024866,0.15337,1.1784,-0.083183,-0.0063665,-0.092076,-0.042445,-0.054936
-0.007728,-0.01575,0.0060199,-0.037291,0.1527,1.2054,0.24682,-0.17579,-0.23219,-0.73127,-0.80211,-0.41738,-0.071376,-0.413,0.15664,0.17873,-0.056869,0.072301,1.1295,-0.1203,-0.0097357,-0.11398,-0.042622,-0.060769
-0.0037471,-0.018764,0.0044132,-0.034565,0.17856,1.0551,0.32814,-0.22577,-0.19649,-0.61679,-0.37293,-0.25346,-0.077914,-0.42465,0.18318,0.12106,-0.083774,-0.094384,0.9599,-0.15293,-0.013573,-0.13506,-0.03912,-0.06862
-0.0022158,-0.021288,0.0027712,-0.035871,0.18906,0.7168,0.32515,-0.29875,-0.15502,-0.56621,-0.026027,-0.066361,-0.097864,-0.36748,0.15672,0.069763,-0.098638,-0.31299,0.76446,-0.17202,-0.015643,-0.1487,-0.033583,-0.073303
-0.0046794,-0.023341,0.0012312,-0.040685,0.18625,0.24846,0.20041,-0.41374,-0.098878,-0.59075,0.20534,0.098567,-0.12504,-0.27146,0.07224,0.0245,-0.099865,-0.52743,0.62566,-0.17325,-0.014655,-0.14885,-0.027685,-0.071929
-0.010711,-0.025243,-0.0003203,-0.045752,0.17749,-0.2574,-0.042768,-0.5801,-0.02965,-0.67708,0.32636,0.18693,-0.14276,-0.17245,-0.053067,-0.012376,-0.091225,-0.68971,0.58824,-0.15934,-0.01064,-0.13259,-0.021056,-0.06506
-0.017496,-0.027323,-0.0016285,-0.047752,0.17872,-0.7122,-0.35462,-0.7834,0.040494,-0.79441,0.37519,0.16415,-0.13401,-0.093955,-0.18775,-0.040816,-0.078828,-0.7836,0.64852,-0.13812,-0.0046992,-0.10205,-0.011864,-0.055557
-0.021269,-0.029677,-0.0020693,-0.046262,0.20773,-1.0633,-0.66078,-0.9865,0.098126,-0.90651,0.4053,0.040396,-0.094934,-0.04425,-0.30107,-0.068868,-0.067961,-0.8264,0.75169,-0.11862,0.0015335,-0.065037,0.00035397,-0.046516
-0.019851,-0.032049,-0.0014695,-0.044323,0.27068,-1.3026,-0.89864,-1.1461,0.13914,-0.98183,0.46481,-0.12929,-0.041592,-0.027126,-0.37487,-0.11222,-0.06184,-0.849,0.80782,-0.10795,0.0063795,-0.03267,0.012533,-0.039825
-0.01434,-0.033941,-0.00072405,-0.045843,0.35312,-1.4502,-1.0438,-1.2339,0.17131,-0.99949,0.57953,-0.27494,-0.0036287,-0.052145,-0.40649,-0.18606,-0.061792,-0.86851,0.73745,-0.10985,0.0085203,-0.014151,0.019191,-0.035887
-0.0084087,-0.035007,-0.0011887,-0.05196,0.42568,-1.528,-1.1095,-1.2486,0.20657,-0.95291,0.74415,-0.35318,-0.0075246,-0.13142,-0.40417,-0.29483,-0.067085,-0.87181,0.52891,-0.12398,0.0074135,-0.01135,0.016292,-0.034121
-0.0055707,-0.035414,-0.0032436,-0.059595,0.46236,-1.5386,-1.1225,-1.2131,0.24934,-0.85164,0.92521,-0.37106,-0.060212,-0.26398,-0.38113,-0.4279,-0.073817,-0.82049,0.26183,-0.14545,0.0036466,-0.017729,0.0045115,-0.033601
-0.0065833,-0.03579,-0.0056272,-0.063714,0.45875,-1.4635,-1.0958,-1.1595,0.29099,-0.71942,1.0767,-0.37566,-0.14452,-0.4227,-0.35182,-0.56447,-0.074547,-0.67407,0.063666,-0.16532,-0.0010992,-0.023684,-0.011157,-0.03354
-0.0091234,-0.036658,-0.0065707,-0.06151,0.43589,-1.2757,-1.0179,-1.1113,0.31476,-0.58635,1.1628,-0.41916,-0.23031,-0.55929,-0.32978,-0.68408,-0.060839,-0.41706,0.019215,-0.17363,-0.0047327,-0.024971,-0.02527,-0.033562
-0.0099558,-0.037911,-0.0058146,-0.054907,0.42711,-0.9606,-0.86643,-1.0735,0.30724,-0.47724,1.174,-0.52651,-0.2944,-0.62827,-0.32479,-0.77536,-0.028504,-0.073759,0.10164,-0.16425,-0.005849,-0.027172,-0.035826,-0.033679
-0.0076693,-0.038936,-0.0053751,-0.049152,0.4588,-0.53093,-0.63088,-1.0336,0.26753,-0.40281,1.1271,-0.68727,-0.33612,-0.61358,-0.33933,-0.83785,0.017921,0.29808,0.1864,-0.13911,-0.0044858,-0.041306,-0.044673,-0.033943
-0.0036469,-0.039319,-0.0079434,-0.048639,0.54002,-0.028935,-0.3262,-0.96993,0.2075,-0.3593,1.0482,-0.87093,-0.3784,-0.53717,-0.36766,-0.87751,0.065569,0.63084,0.14398,-0.10819,-0.0018622,-0.072997,-0.054146,-0.033987
-0.00060572,-0.039352,-0.01419,-0.05346,0.66648,0.48658,0.01149,-0.86172,0.14447,-0.33612,0.9523,-1.0475,-0.45356,-0.44229,-0.39936,-0.90017,0.099358,0.87427,-0.061527,-0.084345,0.0007978,-0.11382,-0.063164,-0.032885
-0.00019311,-0.03967,-0.021564,-0.059511,0.83098,0.96087,0.34043,-0.69561,0.092515,-0.32467,0.83619,-1.1969,-0.58307,-0.36456,-0.42536,-0.90748,0.11001,1.0111,-0.35066,-0.075898,0.0033986,-0.14274,-0.066597,-0.029546
-0.0017783,-0.040392,-0.025944,-0.061824,1.0277,1.3598,0.62479,-0.4694,0.058444,-0.32144,0.69046,-1.3055,-0.76325,-0.31299,-0.4412,-0.8969,0.098285,1.0526,-0.60391,-0.082169,0.0070542,-0.13781,-0.05877,-0.023362
-0.0032872,-0.040814,-0.024832,-0.058207,1.2456,1.6739,0.83492,-0.19384,0.043321,-0.32428,0.51971,-1.3624,-0.96384,-0.27384,-0.44502,-0.86453,0.072644,1.0198,-0.77204,-0.095147,0.013031,-0.090222,-0.038249,-0.014527
-0.0030575,-0.040173,-0.019305,-0.05032,1.4596,1.9107,0.94315,0.1076,0.046022,-0.32731,0.35277,-1.3631,-1.1387,-0.23069,-0.43306,-0.80867,0.042747,0.92262,-0.92773,-0.1061,0.021515,-0.010782,-0.0098876,-0.0038222
-0.00099773,-0.03867,-0.013096,-0.041809,1.6314,2.0871,0.92841,0.40318,0.064863,-0.31987,0.23282,-1.3178,-1.2421,-0.18147,-0.39885,-0.73232,0.014114,0.75437,-1.2114,-0.11196,0.031275,0.075274,0.017559,0.0077666
0.0017462,-0.037414,-0.0097468,-0.035501,1.725,2.2305,0.793,0.66269,0.096588,-0.29047,0.19411,-1.2509,-1.2431,-0.1387,-0.33872,-0.64378,-0.012385,0.50443,-1.71,-0.11646,0.040384,0.14092,0.036318,0.01911
0.00398,-0.037056,-0.010346,-0.031972,1.7256,2.3874,0.57856,0.86883,0.13503,-0.23139,0.24347,-1.1888,-1.1344,-0.1151,-0.25939,-0.55457,-0.037091,0.18085,-2.3609,-0.12511,0.047142,0.16929,0.043319,0.028726
0.0052839,-0.036547,-0.013469,-0.030105,1.6486,2.6238,0.36172,1.023,0.17186,-0.14005,0.36007,-1.1434,-0.9334,-0.10909,-0.17951,-0.47525,-0.058161,-0.17577,-2.9585,-0.13813,0.050398,0.15881,0.040459,0.034881
0.005867,-0.033696,-0.016847,-0.028474,1.5305,3.0012,0.22319,1.141,0.19941,-0.018257,0.51081,-1.1069,-0.67708,-0.10302,-0.12104,-0.41108,-0.071426,-0.50054,-3.2624,-0.14723,0.049373,0.12083,0.032002,0.036407
0.0058734,-0.027435,-0.018998,-0.026148,1.4088,3.5322,0.20773,1.2404,0.21343,0.1274,0.66615,-1.0637,-0.41063,-0.07452,-0.095532,-0.36012,-0.073194,-0.73287,-3.1383,-0.13955,0.043773,0.072557,0.021558,0.033776
0.0049887,-0.01964,-0.019647,-0.022608,1.3062,4.1417,0.30345,1.3297,0.21375,0.28283,0.80395,-1.0083,-0.175,-0.010978,-0.095934,-0.31555,-0.062967,-0.84703,-2.6408,-0.10634,0.034477,0.029199,0.010604,0.029347
0.0027743,-0.014345,-0.019221,-0.017497,1.2268,4.6697,0.45651,1.4044,0.20271,0.42596,0.90323,-0.95173,0.0027298,0.083178,-0.10159,-0.27087,-0.04353,-0.8633,-1.987,-0.050378,0.024008,-0.001874,-0.0011461,0.026179
-0.00061342,-0.014581,-0.018389,-0.010802,1.1651,4.9302,0.60884,1.4556,0.18289,0.5334,0.94148,-0.91093,0.1119,0.18895,-0.093255,-0.22451,-0.018577,-0.83135,-1.4418,0.013719,0.015727,-0.022785,-0.014457,0.026091
-0.0040592,-0.019573,-0.018023,-0.0032377,1.1161,4.8029,0.7283,1.4804,0.15592,0.59283,0.905,-0.89025,0.15385,0.28064,-0.066773,-0.1808,0.0096547,-0.79775,-1.1864,0.066833,0.011887,-0.04159,-0.029293,0.028532
-0.005945,-0.025006,-0.019108,0.0038424,1.0783,4.3037,0.80899,1.4886,0.12259,0.61234,0.80553,-0.87339,0.1348,0.33445,-0.034806,-0.14687,0.040628,-0.78118,-1.2469,0.095436,0.012151,-0.064782,-0.043952,0.031308
-0.0051923,-0.026345,-0.022159,0.0092238,1.0517,3.5843,0.847,1.4974,0.08364,0.61688,0.68522,-0.8338,0.062117,0.33617,-0.015788,-0.12857,0.073729,-0.77177,-1.5144,0.097426,0.014154,-0.090152,-0.054892,0.032622
-0.0021005,-0.02235,-0.02651,0.012704,1.0327,2.8565,0.81956,1.5185,0.040429,0.63154,0.59815,-0.75397,-0.053339,0.28778,-0.019569,-0.12858,0.1065,-0.75203,-1.8317,0.080104,0.015868,-0.10531,-0.057623,0.032663
0.0017554,-0.015749,-0.030402,0.015254,1.0127,2.2833,0.69161,1.5461,-0.0049265,0.66243,0.57755,-0.63545,-0.19182,0.20981,-0.041255,-0.14756,0.13463,-0.72002,-2.0818,0.052879,0.017563,-0.094187,-0.048784,0.033349
0.0046084,-0.010631,-0.032161,0.018249,0.98057,1.9046,0.44802,1.5556,-0.049859,0.68958,0.61258,-0.49138,-0.32313,0.13485,-0.067121,-0.18571,0.15374,-0.69589,-2.2251,0.021153,0.021374,-0.04813,-0.028492,0.036479
0.0057786,-0.0090469,-0.031566,0.022396,0.92617,1.6424,0.12466,1.5169,-0.091971,0.678,0.65422,-0.32989,-0.41402,0.09167,-0.086195,-0.24154,0.16128,-0.70741,-2.2769,-0.013874,0.028753,0.025878,-0.0013164,0.042022
0.0061085,-0.0097677,-0.030066,0.027203,0.84272,1.3734,-0.19076,1.4145,-0.12974,0.6002,0.64759,-0.14597,-0.44239,0.088168,-0.097094,-0.30737,0.15721,-0.76752,-2.2578,-0.05045,0.038311,0.10607,0.025232,0.048092
0.0071447,-0.0099796,-0.029465,0.031416,0.72869,1.0177,-0.39531,1.2612,-0.16287,0.45527,0.56748,0.070393,-0.40927,0.10556,-0.10501,-0.36581,0.14336,-0.86183,-2.1641,-0.082084,0.046346,0.16596,0.04408,0.05257
0.0097123,-0.0080686,-0.030202,0.034035,0.58956,0.58376,-0.4237,1.0944,-0.1919,0.27282,0.43252,0.31791,-0.33891,0.11033,-0.11304,-0.39287,0.12248,-0.95504,-1.9769,-0.098656,0.049692,0.1875,0.05168,0.054854
0.013086,-0.004924,-0.030884,0.035122,0.43893,0.14893,-0.28358,0.95643,-0.21733,0.10053,0.29033,0.57616,-0.2652,0.07714,-0.11679,-0.36943,0.097575,-1.0104,-1.6905,-0.092418,0.048232,0.16921,0.048868,0.05612
0.015497,-0.0028209,-0.029609,0.035793,0.29686,-0.20195,-0.050718,0.87237,-0.23895,-0.016578,0.18752,0.81428,-0.21275,0.0063836,-0.10755,-0.29516,0.071314,-1.0079,-1.3291,-0.06394,0.044668,0.12508,0.039258,0.057934
0.015571,-0.0031543,-0.025916,0.037432,0.18417,-0.43217,0.17263,0.84128,-0.25608,-0.053118,0.14662,1.0088,-0.18546,-0.076688,-0.080673,-0.19377,0.044954,-0.95067,-0.93842,-0.023216,0.04184,0.075853,0.026771,0.060535
0.013503,-0.0051345,-0.021516,0.040748,0.11402,-0.57026,0.31005,0.84463,-0.26842,-0.0085454,0.16376,1.1557,-0.17037,-0.14014,-0.041025,-0.10252,0.017204,-0.85638,-0.56581,0.014573,0.040252,0.038486,0.014062,0.062354
0.010992,-0.0064716,-0.019053,0.045424,0.084823,-0.68739,0.34262,0.86224,-0.27608,0.10029,0.22466,1.2673,-0.15264,-0.16647,-2.3074e-005,-0.050161,-0.015545,-0.74263,-0.24834,0.035215,0.038105,0.0195,0.0024076,0.061144
0.010018,-0.0052822,-0.019936,0.050536,0.078677,-0.85792,0.30364,0.88131,-0.27844,0.25287,0.32503,1.3603,-0.12958,-0.1611,0.033134,-0.038224,-0.056608,-0.61352,-0.01531,0.029976,0.03357,0.014733,-0.0076676,0.055706
0.011455,-0.0015259,-0.023175,0.055287,0.067561,-1.1268,0.24473,0.89308,-0.2728,0.43544,0.48079,1.4443,-0.11287,-0.14417,0.058037,-0.040437,-0.10501,-0.4553,0.1106,-0.0022698,0.026815,0.01428,-0.015892,0.046736
0.014608,0.0031481,-0.026251,0.059299,0.025644,-1.4939,0.19955,0.88549,-0.25524,0.64092,0.72143,1.5192,-0.11778,-0.13468,0.081582,-0.022264,-0.15313,-0.24321,0.12719,-0.054054,0.019732,0.0091717,-0.022042,0.036266
0.01791,0.0068649,-0.027247,0.062245,-0.057303,-1.9132,0.16981,0.84409,-0.22434,0.85902,1.0692,1.578,-0.14872,-0.14036,0.11023,0.033675,-0.18877,0.042695,0.074708,-0.10935,0.013801,-0.0038859,-0.025775,0.02637
0.020073,0.0090144,-0.026388,0.063396,-0.16814,-2.304,0.14003,0.76398,-0.1855,1.0652,1.514,1.6097,-0.19266,-0.15881,0.14355,0.1159,-0.20143,0.39894,0.040846,-0.14675,0.0084675,-0.021809,-0.026537,0.018279
0.020716,0.01058,-0.025669,0.061823,-0.27327,-2.5725,0.10462,0.66172,-0.15123,1.2188,1.9979,1.6004,-0.22572,-0.18476,0.17502,0.19484,-0.18913,0.7875,0.13093,-0.14738,0.0018333,-0.03813,-0.023959,0.012384
0.020094,0.013108,-0.026981,0.057334,-0.33218,-2.6429,0.082985,0.57336,-0.13533,1.2753,2.4202,1.5359,-0.22793,-0.21416,0.19887,0.24627,-0.16064,1.1416,0.41421,-0.10531,-0.0070032,-0.04733,-0.018745,0.0086324
0.018431,0.017192,-0.03037,0.051194,-0.31528,-2.4862,0.10949,0.53587,-0.14373,1.2056,2.6678,1.4087,-0.19535,-0.24134,0.21581,0.26781,-0.13108,1.3906,0.88142,-0.033562,-0.016398,-0.047685,-0.013202,0.0066237
0.015683,0.02171,-0.033903,0.045654,-0.21673,-2.1333,0.20645,0.56519,-0.16891,1.0102,2.6633,1.2273,-0.14149,-0.25428,0.23188,0.27565,-0.1134,1.4945,1.4452,0.040205,-0.023128,-0.041226,-0.010422,0.0053717
0.011976,0.02448,-0.035168,0.042378,-0.055627,-1.6621,0.3625,0.64791,-0.19333,0.71972,2.4042,1.0169,-0.088591,-0.23606,0.25137,0.28675,-0.11159,1.4678,1.985,0.087878,-0.025119,-0.031634,-0.01227,0.0034118
0.0081239,0.023908,-0.033126,0.041149,0.13378,-1.1652,0.53394,0.75225,-0.20033,0.38144,1.9706,0.80892,-0.055946,-0.17454,0.2708,0.30334,-0.12007,1.3737,2.4059,0.096346,-0.023387,-0.022121,-0.017753,-0.00031286
0.0054253,0.020346,-0.028825,0.040192,0.31593,-0.7144,0.66869,0.84769,-0.18509,0.042411,1.4873,0.62276,-0.053268,-0.073668,0.27982,0.31305,-0.12945,1.2877,2.6756,0.073555,-0.021387,-0.014708,-0.023397,-0.0053641
0.0046933,0.015987,-0.024597,0.038008,0.4645,-0.33851,0.7357,0.91696,-0.1572,-0.26118,1.0602,0.45522,-0.081032,0.043921,0.26856,0.30241,-0.13375,1.2499,2.8213,0.040754,-0.022308,-0.010597,-0.025567,-0.0097155
0.0054468,0.013224,-0.02249,0.034991,0.56688,-0.022145,0.74022,0.95389,-0.13315,-0.50571,0.72395,0.28654,-0.13398,0.14733,0.23508,0.26972,-0.13388,1.2382,2.8983,0.016989,-0.02675,-0.010425,-0.022799,-0.011145
0.0062127,0.012693,-0.023145,0.033142,0.62508,0.27997,0.71731,0.95488,-0.12424,-0.67702,0.43769,0.10109,-0.20295,0.21489,0.18708,0.22531,-0.13482,1.1847,2.956,0.0078195,-0.032714,-0.013776,-0.016181,-0.0091177
0.0058385,0.012656,-0.025688,0.033984,0.65553,0.62199,0.71146,0.91646,-0.12912,-0.76897,0.13019,-0.092644,-0.27437,0.24597,0.13714,0.18032,-0.13937,1.0277,3.0196,0.0064292,-0.037724,-0.018726,-0.0077103,-0.0054345
0.0045963,0.010404,-0.028366,0.036693,0.68636,1.0479,0.7571,0.84253,-0.13586,-0.78536,-0.23732,-0.25969,-0.33123,0.25794,0.096138,0.13588,-0.14376,0.76262,3.0877,0.004765,-0.041061,-0.022551,0.0014347,-0.0029375
0.0039254,0.0046734,-0.029304,0.038394,0.74868,1.5787,0.86989,0.75224,-0.13128,-0.74179,-0.63667,-0.35796,-0.35851,0.26986,0.069609,0.083323,-0.13867,0.45408,3.1371,0.0041048,-0.044243,-0.023584,0.010912,-0.0033717
0.0049657,-0.0029016,-0.027058,0.036514,0.86153,2.2056,1.0472,0.67673,-0.11007,-0.66277,-0.98896,-0.36675,-0.35093,0.28517,0.05828,0.014874,-0.11516,0.19503,3.1288,0.01557,-0.049523,-0.022683,0.019772,-0.0063334
0.0072834,-0.0086392,-0.021076,0.030995,1.0178,2.8899,1.2704,0.64316,-0.077424,-0.57328,-1.2161,-0.30331,-0.31661,0.2869,0.06033,-0.065387,-0.070907,0.043377,3.0185,0.050462,-0.057899,-0.022676,0.025625,-0.010126
0.0090614,-0.0093937,-0.012184,0.024201,1.182,3.5655,1.5027,0.65719,-0.044322,-0.4895,-1.2885,-0.21434,-0.27199,0.25031,0.072821,-0.14035,-0.012294,-0.016929,2.7771,0.10937,-0.068291,-0.025845,0.025932,-0.013464
0.0086157,-0.0048416,-0.0027682,0.01861,1.3041,4.1483,1.6881,0.69848,-0.01972,-0.41507,-1.2396,-0.14727,-0.23071,0.16455,0.092019,-0.18911,0.049046,-0.059416,2.4149,0.17976,-0.078378,-0.031537,0.020518,-0.016256
0.0058202,0.0023346,0.0039039,0.014559,1.3441,4.5535,1.7582,0.73329,-0.0056574,-0.34563,-1.1434,-0.1215,-0.19513,0.04745,0.11396,-0.1984,0.1022,-0.15661,1.9936,0.24372,-0.086202,-0.036245,0.012671,-0.018896
0.002169,0.0084191,0.0053228,0.010275,1.2911,4.722,1.6535,0.73508,0.0019791,-0.27824,-1.0792,-0.11942,-0.15766,-0.058324,0.1358,-0.16778,0.14102,-0.32623,1.6106,0.28874,-0.091171,-0.036473,0.0071617,-0.021174
-0.00044987,0.011116,0.0015007,0.004122,1.166,4.6478,1.3506,0.69821,0.0087862,-0.21849,-1.1012,-0.10252,-0.11071,-0.10702,0.15674,-0.10647,0.16384,-0.52435,1.3572,0.31229,-0.093842,-0.032078,0.0065049,-0.022288
-0.0010526,0.010597,-0.0045275,-0.0032221,1.0069,4.3872,0.88031,0.63661,0.017592,-0.17975,-1.2249,-0.039858,-0.056204,-0.075936,0.17718,-0.027305,0.17025,-0.68867,1.2756,0.31768,-0.094915,-0.027016,0.008773,-0.022038
0.0001115,0.0086166,-0.0082389,-0.0089153,0.85043,4.0385,0.32127,0.57121,0.027796,-0.17511,-1.4257,0.070925,-0.005505,0.020749,0.19645,0.056605,0.15882,-0.79351,1.3412,0.30689,-0.094447,-0.026449,0.0091445,-0.02179
0.0021173,0.006808,-0.0064632,-0.010409,0.71845,3.6945,-0.2309,0.51686,0.03787,-0.20822,-1.6488,0.20221,0.030696,0.13929,0.21157,0.13163,0.12849,-0.87047,1.4837,0.27825,-0.091903,-0.032377,0.0040486,-0.023819
0.0039507,0.0056632,0.00040774,-0.0079198,0.6175,3.3957,-0.70202,0.47672,0.047741,-0.26991,-1.8317,0.3122,0.053748,0.22977,0.21858,0.18374,0.082696,-0.97898,1.6291,0.23134,-0.086863,-0.041524,-0.0056677,-0.029352
0.0046138,0.0047836,0.0085616,-0.0045561,0.54488,3.1161,-1.0631,0.44481,0.058251,-0.3425,-1.9361,0.36557,0.078654,0.26101,0.21546,0.20241,0.032147,-1.1533,1.7327,0.17383,-0.079656,-0.047519,-0.015308,-0.037124
0.0031182,0.0037174,0.013333,-0.0039185,0.49452,2.7921,-1.3266,0.41221,0.068188,-0.40776,-1.9731,0.34716,0.12301,0.23279,0.20378,0.18682,-0.0073936,-1.3698,1.7811,0.12246,-0.071343,-0.045775,-0.02006,-0.043965
-0.0010299,0.0023952,0.012431,-0.0072861,0.45905,2.3765,-1.5224,0.37239,0.072402,-0.45212,-1.9992,0.2648,0.19156,0.17019,0.18718,0.14866,-0.022307,-1.558,1.7698,0.095547,-0.063094,-0.037045,-0.018576,-0.047101
-0.0070129,0.00092257,0.0075063,-0.012831,0.43021,1.8765,-1.6723,0.32454,0.064068,-0.46699,-2.0788,0.14367,0.26919,0.10616,0.16807,0.10727,-0.0087409,-1.6423,1.6861,0.10208,-0.055491,-0.026663,-0.013368,-0.04621
-0.01252,-0.00067744,0.0029068,-0.017418,0.40101,1.3523,-1.7792,0.27489,0.040222,-0.44738,-2.2318,0.016362,0.32886,0.063866,0.1458,0.078722,0.024938,-1.5792,1.5171,0.1355,-0.048264,-0.020171,-0.0080185,-0.043501
-0.014908,-0.0022323,0.0025391,-0.019259,0.36953,0.88048,-1.8355,0.23562,0.0059439,-0.39353,-2.4038,-0.08873,0.34845,0.048229,0.11824,0.066125,0.063057,-1.3675,1.2782,0.17704,-0.040565,-0.01908,-0.0039933,-0.041883
-0.013094,-0.0030022,0.0070951,-0.019104,0.34099,0.51591,-1.8362,0.22026,-0.027202,-0.3154,-2.4839,-0.15784,0.32309,0.04866,0.085273,0.058246,0.091549,-1.0357,1.0327,0.20578,-0.031534,-0.020245,2.3856e-005,-0.042891
-0.0085888,-0.0019295,0.01363,-0.019104,0.32465,0.27863,-1.7868,0.23639,-0.048157,-0.23415,-2.3641,-0.19672,0.26353,0.048531,0.050555,0.037738,0.10446,-0.62701,0.87105,0.20854,-0.020881,-0.019005,0.0059344,-0.046031
-0.0045392,0.0011854,0.01776,-0.020639,0.32649,0.16686,-1.6998,0.28002,-0.053474,-0.17526,-2.0022,-0.22563,0.18321,0.034475,0.019607,-0.0068547,0.10374,-0.19557,0.85288,0.18358,-0.0093153,-0.013068,0.01356,-0.049764
-0.0033837,0.0045903,0.016874,-0.023212,0.34237,0.17261,-1.5875,0.33616,-0.048704,-0.15532,-1.4481,-0.26502,0.086207,0.00099681,-0.0039106,-0.073518,0.093699,0.19552,0.95185,0.13766,0.0013026,-0.003809,0.020223,-0.052945
-0.0050441,0.005081,0.01201,-0.025356,0.357,0.27898,-1.4583,0.38653,-0.043013,-0.1726,-0.81762,-0.32032,-0.033207,-0.049991,-0.019963,-0.14807,0.075919,0.48917,1.0504,0.080674,0.0083049,0.005636,0.022998,-0.055422
-0.00719,0.00039047,0.0070511,-0.026485,0.35054,0.44345,-1.3188,0.41985,-0.041878,-0.21011,-0.23403,-0.37696,-0.17971,-0.11226,-0.030158,-0.2123,0.049313,0.6629,1.001,0.022309,0.0091834,0.013202,0.02146,-0.057604
-0.0073133,-0.0083045,0.0058518,-0.027723,0.3092,0.59205,-1.1758,0.43775,-0.044183,-0.24965,0.22387,-0.41118,-0.34505,-0.17823,-0.034347,-0.25299,0.014943,0.74899,0.7176,-0.028253,0.0029274,0.018959,0.018248,-0.05978
-0.0048064,-0.016334,0.0094358,-0.030749,0.23327,0.64365,-1.033,0.45256,-0.045699,-0.28449,0.53742,-0.40949,-0.50605,-0.24076,-0.030017,-0.26667,-0.019931,0.82037,0.23334,-0.0619,-0.0089885,0.023812,0.016912,-0.061978
-0.0013448,-0.018766,0.015357,-0.035753,0.13695,0.55439,-0.88453,0.47904,-0.044899,-0.31881,0.72737,-0.38193,-0.63409,-0.29449,-0.016016,-0.25902,-0.043721,0.94114,-0.31989,-0.071433,-0.022752,0.027663,0.019016,-0.064322
0.00056854,-0.014617,0.019633,-0.040639,0.03955,0.34824,-0.71047,0.52627,-0.045179,-0.35457,0.82072,-0.3573,-0.70813,-0.33748,0.0027945,-0.24045,-0.048034,1.1135,-0.79476,-0.055694,-0.033728,0.029116,0.023149,-0.067231
-0.00047985,-0.0082359,0.019685,-0.042541,-0.046421,0.1055,-0.48163,0.59438,-0.051476,-0.37965,0.83234,-0.36307,-0.72157,-0.37268,0.015539,-0.22039,-0.034814,1.264,-1.1132,-0.022687,-0.038695,0.026959,0.026571,-0.071045
-0.0039789,-0.006063,0.016011,-0.040507,-0.12222,-0.086076,-0.17291,0.67658,-0.064969,-0.37144,0.77093,-0.40537,-0.68073,-0.40655,0.012194,-0.20221,-0.01651,1.286,-1.2913,0.012095,-0.037564,0.021713,0.027771,-0.075426
-0.0081509,-0.011121,0.011439,-0.036866,-0.19983,-0.18223,0.22099,0.76284,-0.081309,-0.31593,0.65699,-0.465,-0.60025,-0.44307,-0.0069292,-0.18088,-0.0081663,1.1127,-1.3948,0.032643,-0.033468,0.015457,0.027492,-0.079213
-0.01127,-0.020065,0.0087916,-0.035779,-0.29104,-0.19922,0.67668,0.84202,-0.094044,-0.22554,0.53195,-0.51272,-0.50122,-0.47478,-0.026987,-0.1454,-0.017154,0.76948,-1.4697,0.030798,-0.031001,0.0099887,0.027427,-0.080994
-0.012533,-0.025735,0.0089672,-0.039985,-0.39648,-0.19075,1.1461,0.90188,-0.099599,-0.13699,0.44696,-0.53121,-0.41107,-0.47756,-0.024593,-0.086383,-0.038391,0.36677,-1.5095,0.010336,-0.033495,0.0051457,0.028127,-0.079939
-0.012085,-0.023275,0.01082,-0.048498,-0.50299,-0.21012,1.5736,0.92943,-0.098786,-0.086964,0.437,-0.52653,-0.35898,-0.41699,0.018691,-0.0047174,-0.058422,0.040633,-1.4814,-0.016239,-0.040939,-0.00099325,0.028302,-0.076238
-0.010594,-0.014475,0.012567,-0.057309,-0.59137,-0.2887,1.9195,0.91381,-0.093704,-0.084424,0.49731,-0.52114,-0.36333,-0.26793,0.10412,0.085219,-0.064688,-0.11702,-1.3808,-0.036079,-0.049892,-0.010136,0.026157,-0.070939
-0.0089152,-0.006357,0.01326,-0.062607,-0.64927,-0.43969,2.1776,0.85105,-0.083784,-0.10444,0.57807,-0.53639,-0.41741,-0.038301,0.213,0.16203,-0.052822,-0.093897,-1.2586,-0.043859,-0.055591,-0.021885,0.021301,-0.065494
-0.0079349,-0.0051823,0.013179,-0.063783,-0.68019,-0.67028,2.3734,0.74701,-0.065564,-0.11158,0.6033,-0.57929,-0.48549,0.22027,0.31511,0.21028,-0.027363,0.055137,-1.1953,-0.044151,-0.054952,-0.03372,0.015236,-0.061392
-0.0082962,-0.011173,0.013233,-0.06363,-0.70234,-0.98163,2.5411,0.61535,-0.036627,-0.094215,0.50703,-0.64301,-0.51675,0.42745,0.38258,0.23034,0.0028507,0.24695,-1.2438,-0.047488,-0.048474,-0.042857,0.010043,-0.059844
-0.0099259,-0.018622,0.014241,-0.065569,-0.73788,-1.3556,2.6903,0.47088,0.00051775,-0.079142,0.27001,-0.71717,-0.47026,0.51139,0.40096,0.23671,0.029779,0.40388,-1.3916,-0.063464,-0.039721,-0.048292,0.0067362,-0.061327
-0.011749,-0.021177,0.016679,-0.070334,-0.79924,-1.7467,2.7863,0.32286,0.039082,-0.11083,-0.063523,-0.79617,-0.33433,0.44664,0.37241,0.24507,0.048181,0.46901,-1.5723,-0.09541,-0.032808,-0.051206,0.0050185,-0.065087
-0.012121,-0.017465,0.020596,-0.075108,-0.88092,-2.0958,2.7623,0.17336,0.073049,-0.21035,-0.40189,-0.87755,-0.12694,0.26746,0.31137,0.25849,0.054979,0.41289,-1.7129,-0.13905,-0.029797,-0.053522,0.0044735,-0.069152
-0.0099589,-0.012106,0.025275,-0.075961,-0.96214,-2.36,2.5632,0.021791,0.10186,-0.34871,-0.65011,-0.95294,0.12124,0.046317,0.2369,0.26397,0.048778,0.24445,-1.7729,-0.18454,-0.029892,-0.055997,0.0055786,-0.071227
-0.0058196,-0.011382,0.028865,-0.071555,-1.0193,-2.5336,2.1912,-0.12927,0.12996,-0.45956,-0.75755,-1.0017,0.38489,-0.14729,0.16569,0.24264,0.030927,0.020508,-1.7454,-0.22006,-0.030822,-0.057496,0.00916,-0.070075
-0.0019272,-0.017597,0.028855,-0.06479,-1.0415,-2.6405,1.7221,-0.27331,0.16137,-0.48397,-0.73879,-0.99506,0.64789,-0.27842,0.10804,0.18513,0.0064484,-0.16707,-1.6298,-0.23555,-0.030955,-0.055855,0.014824,-0.066266
-0.00086202,-0.027099,0.02371,-0.060811,-1.0393,-2.7041,1.2744,-0.40626,0.19425,-0.41276,-0.65359,-0.90864,0.89196,-0.34719,0.067396,0.099823,-0.017691,-0.23665,-1.4166,-0.22662,-0.030269,-0.049388,0.020332,-0.061546
-0.0036866,-0.033471,0.014633,-0.062887,-1.0408,-2.7225,0.95135,-0.53446,0.22067,-0.29294,-0.56167,-0.73633,1.0854,-0.3629,0.042765,0.0082759,-0.036917,-0.17181,-1.1058,-0.19789,-0.029495,-0.03784,0.023053,-0.057239
-0.0088992,-0.032821,0.0056384,-0.06964,-1.077,-2.675,0.79158,-0.67572,0.23219,-0.19282,-0.48622,-0.49517,1.1888,-0.3184,0.03285,-0.066969,-0.052508,-0.04144,-0.74125,-0.1635,-0.028605,-0.022422,0.022293,-0.053147
-0.013146,-0.026575,0.0012276,-0.075983,-1.1634,-2.5555,0.7613,-0.84978,0.22641,-0.1527,-0.4119,-0.21987,1.1794,-0.19054,0.038972,-0.1118,-0.070418,0.042334,-0.41963,-0.14255,-0.026374,-0.0054531,0.019992,-0.048021
-0.013387,-0.019715,0.00311,-0.077001,-1.2921,-2.4045,0.78695,-1.064,0.20926,-0.15739,-0.31348,0.049833,1.0757,0.030799,0.064017,-0.12099,-0.095506,0.0059974,-0.2456,-0.14969,-0.021642,0.0099565,0.018714,-0.041212
-0.0090714,-0.016547,0.0086901,-0.07161,-1.4373,-2.3057,0.8014,-1.3054,0.19116,-0.14858,-0.18667,0.2823,0.94058,0.31076,0.10726,-0.092437,-0.12581,-0.12526,-0.26007,-0.1858,-0.014975,0.02036,0.018689,-0.03382
-0.0027557,-0.01786,0.012862,-0.063093,-1.5714,-2.3433,0.77233,-1.5472,0.18039,-0.065453,-0.054866,0.46226,0.85382,0.56635,0.15909,-0.023173,-0.15224,-0.23992,-0.39863,-0.23546,-0.0088517,0.022988,0.016966,-0.028039
0.0014303,-0.021504,0.011887,-0.05639,-1.6791,-2.5483,0.70065,-1.764,0.17832,0.11587,0.050007,0.59126,0.87196,0.7031,0.20133,0.088535,-0.1646,-0.21867,-0.52183,-0.27445,-0.005824,0.017123,0.0098991,-0.025166
0.00050933,-0.025073,0.00622,-0.054534,-1.7616,-2.8735,0.60021,-1.9454,0.17939,0.36835,0.11106,0.68064,1.0021,0.66932,0.21566,0.23749,-0.15921,-0.017471,-0.50068,-0.28333,-0.0062358,0.0048302,-0.0031573,-0.024184
-0.0052901,-0.027769,-9.0724e-005,-0.056988,-1.8273,-3.2186,0.47925,-2.096,0.17474,0.62973,0.13253,0.74122,1.2076,0.4891,0.19552,0.40902,-0.14141,0.31067,-0.29387,-0.25802,-0.0078106,-0.0097408,-0.018488,-0.022436
-0.012661,-0.030001,-0.0028584,-0.060757,-1.8799,-3.4889,0.33481,-2.2239,0.1568,0.83417,0.12721,0.77606,1.4371,0.24899,0.15267,0.58319,-0.12077,0.66812,0.040753,-0.21013,-0.0077858,-0.022153,-0.030498,-0.017903
-0.017495,-0.031856,-0.0011162,-0.062887,-1.9125,-3.6482,0.15806,-2.328,0.12225,0.94034,0.10351,0.78189,1.6529,0.047585,0.11203,0.74262,-0.10302,0.98956,0.40259,-0.15754,-0.0057266,-0.029228,-0.03592,-0.010969
-0.017676,-0.032549,0.0024179,-0.062263,-1.9128,-3.7303,-0.057646,-2.3965,0.073097,0.94363,0.068046,0.75813,1.8381,-0.05668,0.096866,0.87765,-0.085989,1.2766,0.72045,-0.11289,-0.0041967,-0.029394,-0.035948,-0.0039639
-0.014283,-0.031476,0.0039397,-0.05961,-1.8743,-3.8045,-0.31086,-2.4176,0.015849,0.87065,0.039945,0.71546,1.9821,-0.065682,0.11401,0.9852,-0.0629,1.5652,0.98227,-0.078564,-0.0063069,-0.022225,-0.034485,0.0010861
-0.010361,-0.029423,0.001754,-0.056183,-1.8036,-3.9223,-0.58835,-2.3921,-0.040518,0.76241,0.056003,0.67513,2.0654,-0.022754,0.14934,1.0637,-0.029865,1.8643,1.2095,-0.050352,-0.012218,-0.0083522,-0.034336,0.0043368
-0.0083549,-0.028202,-0.0027235,-0.052449,-1.719,-4.0808,-0.8643,-2.337,-0.087728,0.65557,0.15268,0.65716,2.0602,0.024333,0.17642,1.1096,0.0091884,2.1264,1.4136,-0.024852,-0.017995,0.0099,-0.034992,0.0078469
-0.0084103,-0.028799,-0.0067708,-0.047769,-1.6415,-4.2278,-1.1052,-2.2763,-0.12153,0.57008,0.33508,0.66635,1.9503,0.050276,0.17221,1.1183,0.04442,2.2795,1.582,-0.0035946,-0.018294,0.028217,-0.033896,0.013511
-0.0089054,-0.029984,-0.0090031,-0.041171,-1.5851,-4.299,-1.2816,-2.2266,-0.14346,0.5076,0.56118,0.68872,1.7506,0.055836,0.12902,1.088,0.066783,2.29,1.7018,0.0090218,-0.010839,0.041656,-0.029586,0.021295
-0.0084689,-0.02909,-0.010293,-0.032474,-1.5521,-4.2624,-1.3814,-2.1916,-0.1595,0.45986,0.761,0.70274,1.5084,0.055591,0.055769,1.022,0.073616,2.195,1.7895,0.010874,0.0012227,0.047347,-0.023382,0.029455
-0.007393,-0.024504,-0.012275,-0.022834,-1.5341,-4.1393,-1.413,-2.1677,-0.17589,0.42034,0.88025,0.69662,1.2818,0.065378,-0.030384,0.92793,0.068788,2.0727,1.8861,0.0050535,0.011307,0.046392,-0.017951,0.036366
-0.0070544,-0.017516,-0.015175,-0.014204,-1.5149,-3.9915,-1.3953,-2.1538,-0.19458,0.39179,0.91386,0.67698,1.1092,0.097336,-0.11474,0.81507,0.058288,1.9734,2.0199,-0.0017214,0.014181,0.042928,-0.01441,0.04196
-0.0080786,-0.011564,-0.01732,-0.0080614,-1.4747,-3.8849,-1.3389,-2.1542,-0.21139,0.38522,0.90123,0.6616,0.99222,0.159,-0.19012,0.69338,0.0458,1.8756,2.1729,-0.0030748,0.0095908,0.040754,-0.011142,0.047306
-0.0093434,-0.0093779,-0.016889,-0.0043612,-1.3959,-3.8516,-1.2375,-2.1721,-0.21832,0.41208,0.8876,0.66378,0.90218,0.25013,-0.25404,0.57399,0.031957,1.7059,2.2886,0.0044006,0.0018549,0.040356,-0.0057276,0.052903
-0.0090427,-0.01058,-0.014079,-0.0016262,-1.2702,-3.8746,-1.0773,-2.1994,-0.20834,0.47589,0.88579,0.68309,0.80287,0.3577,-0.30246,0.46949,0.016896,1.4091,2.3171,0.021359,-0.0039096,0.039041,0.0019161,0.05768
-0.0067571,-0.011978,-0.011359,0.0018205,-1.104,-3.9,-0.85931,-2.2164,-0.17944,0.56807,0.87127,0.7102,0.67387,0.45583,-0.32698,0.39136,0.0026795,1.008,2.2529,0.047153,-0.0055478,0.034132,0.0084972,0.059947
-0.004222,-0.010337,-0.011404,0.0064703,-0.9182,-3.8693,-0.61574,-2.2022,-0.13537,0.66936,0.81245,0.73899,0.51883,0.51484,-0.31887,0.34513,-0.0072415,0.60211,2.1276,0.080238,-0.0046216,0.026222,0.009786,0.059429
-0.0037021,-0.0051475,-0.014715,0.011333,-0.73825,-3.7506,-0.40288,-2.1498,-0.083479,0.75424,0.70578,0.77169,0.356,0.51504,-0.27688,0.32663,-0.011005,0.30616,1.9635,0.11728,-0.0040678,0.019377,0.0044406,0.058153
-0.0054391,0.0010599,-0.019291,0.015092,-0.58088,-3.553,-0.27251,-2.071,-0.032043,0.79607,0.58209,0.81079,0.1996,0.45539,-0.21133,0.32272,-0.010602,0.17899,1.7342,0.15277,-0.0052711,0.017939,-0.0043845,0.058979
-0.006847,0.0050369,-0.022651,0.017705,-0.44747,-3.3148,-0.24234,-1.9871,0.01108,0.77196,0.47812,0.84629,0.045456,0.35109,-0.13969,0.31705,-0.010826,0.19566,1.3744,0.18057,-0.007148,0.022786,-0.011308,0.06292
-0.0045695,0.0056483,-0.024072,0.020895,-0.32965,-3.0772,-0.28828,-1.9151,0.038423,0.66761,0.39943,0.85365,-0.12881,0.22384,-0.075902,0.29733,-0.015401,0.27639,0.83658,0.19667,-0.0076635,0.030379,-0.012931,0.067823
0.0023697,0.0047274,-0.024779,0.026808,-0.22336,-2.8583,-0.3651,-1.8604,0.04324,0.48106,0.30786,0.80787,-0.34861,0.093369,-0.021713,0.25974,-0.023522,0.33937,0.14341,0.20047,-0.0059931,0.035469,-0.010235,0.069893
0.011359,0.0053424,-0.026043,0.035844,-0.13888,-2.6459,-0.43899,-1.822,0.021277,0.22389,0.14393,0.70342,-0.62193,-0.024746,0.032633,0.20756,-0.029923,0.33411,-0.60742,0.19341,-0.003251,0.035045,-0.0071329,0.066932
0.018209,0.0091288,-0.027416,0.045655,-0.096532,-2.412,-0.50607,-1.8023,-0.026768,-0.080854,-0.13409,0.56234,-0.92822,-0.11716,0.098641,0.14575,-0.028593,0.24086,-1.2892,0.17607,-0.0013146,0.030211,-0.0066599,0.060447
0.020552,0.015028,-0.027148,0.052512,-0.1092,-2.1358,-0.58205,-1.8083,-0.09405,-0.40226,-0.52334,0.42288,-1.2262,-0.17239,0.17847,0.075729,-0.017076,0.056848,-1.8016,0.1472,-0.0010849,0.024639,-0.0084174,0.05466
0.019447,0.020395,-0.024372,0.05416,-0.1648,-1.819,-0.67245,-1.84,-0.16881,-0.70468,-0.97548,0.31832,-1.4764,-0.18374,0.26144,-0.0052505,0.0023463,-0.20361,-2.0943,0.10625,-0.0018665,0.021327,-0.0095055,0.053184
0.017798,0.023346,-0.020609,0.051815,-0.22413,-1.4809,-0.74914,-1.8768,-0.23726,-0.95013,-1.4152,0.26348,-1.6621,-0.15237,0.33053,-0.099464,0.025686,-0.49377,-2.1534,0.05793,-0.0023099,0.020608,-0.007827,0.056149
0.017316,0.024272,-0.018717,0.049435,-0.2387,-1.1402,-0.75536,-1.8767,-0.28642,-1.103,-1.7634,0.25754,-1.792,-0.086311,0.37331,-0.20302,0.051784,-0.72967,-1.9833,0.014293,-0.0018453,0.020886,-0.0044357,0.06015
0.017093,0.025295,-0.020152,0.050721,-0.17773,-0.79985,-0.63924,-1.7959,-0.30599,-1.1396,-1.9564,0.29518,-1.8818,0.003746,0.38836,-0.30456,0.084087,-0.81961,-1.6085,-0.00868,-0.0011874,0.020919,-0.0026309,0.060966
0.015121,0.028292,-0.023319,0.056263,-0.045283,-0.44859,-0.39304,-1.6158,-0.29002,-1.0609,-1.9642,0.3712,-1.931,0.10738,0.38319,-0.39073,0.12751,-0.71921,-1.0935,0.00087001,-0.0015234,0.021157,-0.0046982,0.05674
0.011062,0.033255,-0.024838,0.063231,0.12475,-0.076421,-0.068346,-1.3585,-0.2393,-0.9009,-1.8045,0.4728,-1.9159,0.21322,0.36663,-0.45432,0.1826,-0.47219,-0.54455,0.043224,-0.0033126,0.022848,-0.0094815,0.049139
0.0073485,0.038352,-0.022628,0.067829,0.2919,0.30967,0.24661,-1.0758,-0.16359,-0.72146,-1.5445,0.56992,-1.8078,0.30618,0.34278,-0.49785,0.24197,-0.19947,-0.076285,0.10577,-0.0059307,0.02597,-0.013176,0.041847
0.0073312,0.041539,-0.017827,0.068408,0.43301,0.68466,0.47491,-0.81942,-0.080884,-0.59144,-1.2794,0.61924,-1.6031,0.3689,0.31102,-0.52831,0.29269,-0.036269,0.24021,0.16933,-0.0084429,0.028287,-0.012669,0.037846
0.01215,0.042265,-0.013665,0.06667,0.54976,1.0181,0.59269,-0.61296,-0.011479,-0.55663,-1.0914,0.58564,-1.3383,0.38974,0.2711,-0.54703,0.32344,-0.058294,0.40425,0.21808,-0.010597,0.026762,-0.0083434,0.037607
0.01929,0.041857,-0.012446,0.066065,0.65626,1.2867,0.63631,-0.44486,0.031294,-0.61704,-1.0109,0.46675,-1.0762,0.37264,0.22784,-0.54447,0.3313,-0.24736,0.4622,0.2463,-0.012934,0.020202,-0.0037451,0.039241
0.024254,0.04235,-0.013566,0.068829,0.7592,1.4738,0.67,-0.28546,0.048123,-0.72548,-1.0055,0.29927,-0.86951,0.34015,0.19125,-0.50697,0.32265,-0.51658,0.45409,0.25774,-0.015897,0.010695,-0.0024176,0.040116
0.023967,0.044819,-0.014394,0.07408,0.84778,1.5585,0.73692,-0.11333,0.052743,-0.81093,-1.0075,0.13896,-0.7305,0.32471,0.17183,-0.43202,0.30769,-0.77086,0.37967,0.25903,-0.018962,0.0023803,-0.0047903,0.0386
0.018995,0.048559,-0.012913,0.078382,0.9013,1.5118,0.82808,0.069161,0.062374,-0.81494,-0.96195,0.027528,-0.62788,0.35208,0.17479,-0.33887,0.29278,-0.95644,0.21559,0.25284,-0.020851,-0.0015634,-0.0079093,0.034873
0.012843,0.051664,-0.0094498,0.078186,0.90699,1.3107,0.89083,0.2406,0.08569,-0.72096,-0.86363,-0.029429,-0.51289,0.42732,0.19755,-0.26292,0.27662,-1.0688,-0.034394,0.2363,-0.020782,-0.0012061,-0.0082042,0.030531
0.0091308,0.052415,-0.0059472,0.072235,0.87294,0.96764,0.86937,0.37929,0.11699,-0.5594,-0.7583,-0.059133,-0.35359,0.53219,0.23231,-0.23509,0.2531,-1.1244,-0.30849,0.20499,-0.019517,0.00041501,-0.0047728,0.027361
0.0091394,0.050407,-0.0038657,0.06234,0.82609,0.54818,0.74679,0.47948,0.14089,-0.38656,-0.71095,-0.099206,-0.15325,0.63514,0.27149,-0.26112,0.21775,-1.1288,-0.51186,0.15862,-0.019053,-0.00016045,-0.00026803,0.02601
0.011559,0.04668,-0.0030225,0.052248,0.79785,0.15867,0.55775,0.55243,0.14401,-0.25106,-0.76478,-0.17565,0.056272,0.70616,0.31203,-0.31792,0.17268,-1.0673,-0.58162,0.10306,-0.021003,-0.004114,0.0013781,0.025346
0.014176,0.042904,-0.0024025,0.045594,0.80887,-0.094849,0.36392,0.61298,0.12467,-0.16905,-0.91817,-0.29573,0.23607,0.72686,0.35513,-0.37079,0.12604,-0.9219,-0.53595,0.047293,-0.025078,-0.00953,-0.0015845,0.023075
0.015667,0.040261,-0.0016955,0.04422,0.8629,-0.14934,0.21277,0.66419,0.093927,-0.12249,-1.1303,-0.4545,0.35898,0.69152,0.4019,-0.39786,0.087011,-0.69117,-0.46131,-0.0017794,-0.029112,-0.012881,-0.0070219,0.017453
0.015968,0.038737,-0.001607,0.047583,0.95131,-0.00068395,0.11173,0.69371,0.067882,-0.07862,-1.3449,-0.64264,0.41522,0.60279,0.44849,-0.40177,0.060499,-0.39371,-0.4453,-0.041715,-0.030766,-0.011544,-0.010395,0.0089714
0.015329,0.037314,-0.002566,0.05328,1.0617,0.31347,0.036032,0.68513,0.057988,-0.015336,-1.5132,-0.84686,0.40753,0.46885,0.48482,-0.39979,0.045461,-0.050382,-0.50908,-0.072465,-0.029522,-0.0055789,-0.0082174,0.00057125
0.013438,0.034904,-0.0034693,0.058242,1.1835,0.74404,-0.038913,0.63422,0.066153,0.06534,-1.6032,-1.0449,0.34482,0.30482,0.49879,-0.40241,0.037527,0.33559,-0.59432,-0.092444,-0.027245,0.0022729,-0.00074483,-0.0041944
0.0097194,0.031388,-0.0022089,0.060052,1.3073,1.2482,-0.10897,0.55572,0.086846,0.14305,-1.5986,-1.2048,0.23934,0.13496,0.48315,-0.40066,0.033378,0.77966,-0.61323,-0.097359,-0.02671,0.008228,0.0082027,-0.003899
0.0044746,0.027886,0.0022628,0.057829,1.4232,1.7857,-0.14088,0.4742,0.11273,0.1971,-1.4968,-1.2928,0.10558,-0.0101,0.44033,-0.3742,0.03329,1.2926,-0.52064,-0.083659,-0.029245,0.0097801,0.014114,-0.00065933
-0.00052674,0.025929,0.0084836,0.052323,1.5199,2.3065,-0.10059,0.40622,0.13881,0.22175,-1.3098,-1.2862,-0.043177,-0.10259,0.38193,-0.31326,0.040027,1.8495,-0.35341,-0.05371,-0.033446,0.0074433,0.01513,0.0012243
-0.0029439,0.026119,0.013417,0.045235,1.5871,2.7489,0.012922,0.34906,0.16276,0.22769,-1.0662,-1.1824,-0.20009,-0.12791,0.32311,-0.23453,0.055134,2.3779,-0.21288,-0.017533,-0.036136,0.004848,0.013294,-0.0014128
