-8.6819e-011,-1.8714e-010,9.9359e-010,-7.968e-010,-2.3094e-009,8.024e-009,-6.7159e-009,-1.1798e-008,-1.9293e-012,1.5647e-009,1.4952e-009,-4.6207e-009,-1.2251e-009,-3.2316e-009,1.4084e-010,6.3648e-009,1.0225e-010,2.3904e-009,-2.9306e-009,1.993e-009,-1.9486e-010,2.564e-009,3.9937e-010,5.3384e-009
-2.7194e-009,-5.0943e-009,2.7198e-008,-2.21e-008,-6.3373e-008,2.2091e-007,-1.8586e-007,-3.263e-007,-3.2342e-010,4.3446e-008,4.1515e-008,-1.2753e-007,-3.2967e-008,-8.947e-008,3.5909e-009,1.7433e-007,2.8063e-009,6.3744e-008,-8.2843e-008,5.4811e-008,-5.813e-009,7.0595e-008,1.2622e-008,1.4752e-007
-4.1086e-008,-6.7299e-008,3.616e-007,-2.979e-007,-8.4459e-007,2.9553e-006,-2.5018e-006,-4.388e-006,-8.0065e-009,5.8673e-007,5.6019e-007,-1.7104e-006,-4.2923e-007,-1.2042e-006,4.3347e-008,2.3168e-006,3.7135e-008,8.2038e-007,-1.1414e-006,7.3207e-007,-8.4394e-008,9.4411e-007,1.9408e-007,1.9811e-006
-3.9921e-007,-5.7464e-007,3.1104e-006,-2.5997e-006,-7.2822e-006,2.5593e-005,-2.1824e-005,-3.8224e-005,-1.0157e-007,5.1342e-006,4.8942e-006,-1.4849e-005,-3.5994e-006,-1.0498e-005,3.2558e-007,1.9892e-005,3.1503e-007,6.774e-006,-1.0217e-005,6.3252e-006,-7.945e-007,8.169e-006,1.9354e-006,1.7224e-005
-2.8052e-006,-3.5629e-006,1.9452e-005,-1.6506e-005,-4.5651e-005,0.00016124,-0.00013871,-0.00024245,-8.4365e-007,3.2718e-005,3.1115e-005,-9.3776e-005,-2.1823e-005,-6.6614e-005,1.6656e-006,0.00012394,1.9203e-006,4.0208e-005,-6.6808e-005,3.9727e-005,-5.4522e-006,5.1387e-005,1.4076e-005,0.00010894
-1.5195e-005,-1.708e-005,9.4203e-005,-8.1221e-005,-0.00022165,0.00078724,-0.00068452,-0.0011931,-5.1071e-006,0.00016176,0.00015336,-0.00045897,-0.00010176,-0.00032783,5.8098e-006,0.00059652,8.9243e-006,0.00018193,-0.00034023,0.0001932,-2.9068e-005,0.00025031,7.9603e-005,0.00053394
-6.6025e-005,-6.5796e-005,0.00036739,-0.00032209,-0.00086688,0.0030979,-0.0027295,-0.0047393,-2.3904e-005,0.00064534,0.00060949,-0.0018105,-0.00037885,-0.0013014,1.152e-005,0.0023037,3.2686e-005,0.00064771,-0.001405,0.00075646,-0.0001253,0.00098167,0.00036434,0.0021085
-0.00023634,-0.00020889,0.0011842,-0.0010565,-0.0028035,0.010085,-0.0090343,-0.015605,-8.9714e-005,0.0021328,0.0020051,-0.0059091,-0.0011528,-0.0042786,-8.6867e-006,0.007316,9.5842e-005,0.0018382,-0.0048353,0.0024475,-0.00044869,0.0031809,0.0013869,0.006884
-0.00071016,-0.00055583,0.0032113,-0.0029184,-0.0076345,0.027658,-0.025302,-0.043396,-0.00027633,0.0059457,0.0055596,-0.016248,-0.0029088,-0.011863,-0.00018391,0.019403,0.00022469,0.0041242,-0.014148,0.0066605,-0.0013609,0.0086674,0.0044772,0.01891
-0.0018151,-0.0012527,0.0074164,-0.006872,-0.017727,0.064684,-0.06081,-0.10329,-0.00070867,0.014157,0.013154,-0.038117,-0.0061293,-0.028093,-0.00090975,0.043328,0.00040865,0.0069443,-0.035719,0.015431,-0.0035466,0.020095,0.012434,0.044211
-0.0039831,-0.0024039,0.014698,-0.0139,-0.035392,0.13003,-0.12672,-0.21244,-0.001524,0.029016,0.02676,-0.076914,-0.010791,-0.057278,-0.0030859,0.081515,0.00051263,0.0069495,-0.078718,0.030659,-0.0080275,0.039922,0.030027,0.088535
-0.0075497,-0.0039264,0.025089,-0.024235,-0.06103,0.22552,-0.23072,-0.3799,-0.0027464,0.051387,0.046958,-0.1341,-0.015777,-0.10094,-0.0082631,0.12789,0.00017564,-0.0041707,-0.15281,0.052403,-0.015911,0.068129,0.063562,0.15202
-0.012398,-0.0054173,0.03686,-0.036384,-0.090995,0.33729,-0.36906,-0.59285,-0.0041004,0.078548,0.070911,-0.20215,-0.018958,-0.15366,-0.01836,0.16204,-0.0011925,-0.040101,-0.26321,0.07691,-0.027788,0.099589,0.11865,0.22246
-0.017644,-0.0061943,0.046347,-0.046681,-0.11696,0.43227,-0.52061,-0.80834,-0.0049098,0.10282,0.091171,-0.26258,-0.018853,-0.20061,-0.034633,0.15031,-0.0041703,-0.11586,-0.40491,0.096077,-0.042975,0.12338,0.19617,0.2723
-0.021687,-0.0056251,0.049223,-0.050247,-0.1286,0.4674,-0.64909,-0.96219,-0.004304,0.11298,0.097091,-0.29124,-0.017766,-0.22047,-0.056034,0.059547,-0.0088132,-0.23871,-0.55965,0.10003,-0.059116,0.12641,0.28829,0.2655
-0.022831,-0.003644,0.043064,-0.043439,-0.11938,0.41211,-0.71561,-0.99813,-0.00181,0.099226,0.079505,-0.27128,-0.024345,-0.19506,-0.077914,-0.11916,-0.014124,-0.39802,-0.69962,0.082598,-0.072702,0.10098,0.37786,0.17549
-0.02023,-0.0010768,0.029621,-0.026534,-0.091969,0.27189,-0.69553,-0.90309,0.0019667,0.059714,0.036842,-0.20657,-0.05207,-0.12166,-0.092567,-0.35112,-0.017997,-0.56245,-0.79775,0.046581,-0.080597,0.052194,0.44393,0.0058362
-0.014467,0.00064921,0.014713,-0.0045066,-0.058681,0.093958,-0.5879,-0.72278,0.0052134,0.0042827,-0.021302,-0.1245,-0.11173,-0.019897,-0.092469,-0.56211,-0.018016,-0.69031,-0.83936,0.0043177,-0.081778,-0.0014755,0.47206,-0.20159
-0.007234,0.00044828,0.004984,0.015354,-0.034722,-0.056295,-0.40973,-0.53933,0.0058206,-0.048469,-0.076546,-0.062065,-0.20071,0.074036,-0.075056,-0.67263,-0.012883,-0.75027,-0.82747,-0.028357,-0.078023,-0.037223,0.46286,-0.382
-0.00025189,-0.0014036,0.0033903,0.027843,-0.028072,-0.13696,-0.17997,-0.42084,0.0030256,-0.080322,-0.10989,-0.042026,-0.29694,0.12533,-0.045783,-0.64549,-0.0035638,-0.7387,-0.7772,-0.041483,-0.07274,-0.042068,0.43087,-0.48143
0.0056596,-0.003049,0.0069349,0.033074,-0.033635,-0.15928,0.091215,-0.37822,-0.0014224,-0.083317,-0.11104,-0.056575,-0.3651,0.12077,-0.016124,-0.51293,0.0068872,-0.67876,-0.70276,-0.036753,-0.068511,-0.02178,0.39128,-0.48726
0.010556,-0.0020582,0.0089118,0.035821,-0.037224,-0.17883,0.39623,-0.36425,-0.0038515,-0.063413,-0.082975,-0.073031,-0.37545,0.078047,0.0036509,-0.35857,0.015024,-0.59917,-0.60696,-0.0248,-0.065132,0.0034075,0.34234,-0.43226
0.014531,0.0028934,0.0042976,0.041276,-0.027076,-0.24993,0.71183,-0.31723,-0.0010801,-0.03511,-0.03878,-0.059307,-0.32475,0.036769,0.012499,-0.26253,0.019118,-0.50872,-0.48183,-0.016016,-0.059765,0.014135,0.25827,-0.3673
0.017091,0.010938,-0.0060562,0.0507,-0.0035691,-0.37731,0.98938,-0.21336,0.0069735,-0.011088,0.006638,-0.0094531,-0.24376,0.036105,0.020875,-0.24927,0.019955,-0.38972,-0.3209,-0.012726,-0.049246,0.0065394,0.10291,-0.32291
0.017557,0.019453,-0.016129,0.060686,0.021628,-0.5053,1.17,-0.083218,0.016718,0.0051821,0.043965,0.052167,-0.1823,0.092596,0.044007,-0.27811,0.01946,-0.21989,-0.13322,-0.0094955,-0.032695,-0.005801,-0.14079,-0.28997
0.0161,0.025768,-0.019916,0.066598,0.036942,-0.55645,1.2187,0.020838,0.0232,0.018636,0.071455,0.092138,-0.17848,0.19155,0.090079,-0.28284,0.018202,-0.0068368,0.053613,-0.00089614,-0.012267,-0.0041172,-0.44542,-0.23508
0.014148,0.028823,-0.016633,0.066955,0.043082,-0.49021,1.1515,0.07569,0.023719,0.035395,0.091554,0.096715,-0.23185,0.29632,0.15236,-0.22616,0.014064,0.19608,0.20703,0.011068,0.0085782,0.019647,-0.74003,-0.13695
0.013452,0.029546,-0.011301,0.064728,0.054704,-0.33386,1.0293,0.10934,0.019785,0.056087,0.10617,0.083236,-0.30026,0.36869,0.21236,-0.12381,0.003703,0.31223,0.31209,0.017448,0.027628,0.056588,-0.94264,-0.012339
0.014573,0.029828,-0.010151,0.06447,0.089008,-0.15989,0.92179,0.17397,0.0157,0.075495,0.11471,0.084592,-0.32506,0.38769,0.25236,-0.021568,-0.014035,0.29112,0.38621,0.010696,0.044882,0.088589,-1.0061,0.09083
0.016367,0.031097,-0.014993,0.068146,0.15046,-0.029096,0.86802,0.29615,0.014888,0.088105,0.1157,0.12075,-0.26912,0.35673,0.26752,0.049569,-0.035539,0.14842,0.47193,-0.0069681,0.061061,0.10219,-0.94592,0.12757
0.017151,0.033639,-0.021638,0.073632,0.22483,0.052929,0.86462,0.45102,0.017162,0.093751,0.10956,0.18211,-0.14195,0.29676,0.26756,0.097857,-0.053254,-0.03574,0.60889,-0.023406,0.075279,0.096478,-0.82965,0.088615
0.016474,0.036925,-0.023806,0.077162,0.28798,0.13041,0.88506,0.58374,0.019327,0.097819,0.099531,0.23818,0.0058991,0.23161,0.26648,0.15445,-0.059784,-0.16126,0.80284,-0.025395,0.084483,0.079782,-0.73297,0.0052558
0.015648,0.04029,-0.018909,0.077152,0.32223,0.24987,0.90578,0.65657,0.018542,0.10586,0.089793,0.26279,0.11615,0.17526,0.26915,0.23525,-0.052327,-0.16346,1.015,-0.0089568,0.085642,0.060532,-0.69369,-0.076054
0.016395,0.043237,-0.010474,0.075638,0.32669,0.4121,0.91237,0.67692,0.01536,0.11779,0.082506,0.25385,0.16079,0.1281,0.26627,0.31902,-0.034029,-0.040739,1.182,0.017619,0.078876,0.041677,-0.6952,-0.12728
0.018903,0.045264,-0.0050975,0.076048,0.31386,0.56389,0.88417,0.682,0.013634,0.1271,0.076488,0.23259,0.15821,0.082782,0.2417,0.36279,-0.011281,0.16012,1.2538,0.0403,0.068519,0.022658,-0.6891,-0.15378
0.021328,0.045739,-0.0067884,0.079592,0.29725,0.63492,0.78336,0.6978,0.017289,0.12614,0.068647,0.22561,0.15586,0.033696,0.18565,0.33957,0.010666,0.38243,1.2218,0.049399,0.060843,0.0046545,-0.63729,-0.18128
0.021349,0.044189,-0.013759,0.083769,0.28174,0.589,0.57279,0.7138,0.026784,0.11277,0.057113,0.24621,0.19191,-0.017139,0.10276,0.26373,0.030131,0.58919,1.1167,0.044899,0.060261,-0.0078084,-0.5408,-0.22849
0.018311,0.040776,-0.020308,0.084337,0.26471,0.4499,0.25601,0.69735,0.038378,0.092992,0.043646,0.28878,0.26401,-0.061308,0.0094288,0.18162,0.047728,0.76523,0.97919,0.033547,0.06722,-0.010903,-0.43548,-0.28815
0.013832,0.03643,-0.021812,0.078836,0.24462,0.28521,-0.097309,0.63153,0.046851,0.077452,0.033463,0.33687,0.32857,-0.090073,-0.075905,0.13694,0.063031,0.90059,0.83,0.021456,0.079301,-0.0066164,-0.36209,-0.32951
0.010228,0.032387,-0.018291,0.068497,0.22704,0.16414,-0.37383,0.53788,0.049413,0.07477,0.032566,0.37513,0.33182,-0.099815,-0.14114,0.14098,0.07261,0.97788,0.66294,0.0089198,0.093923,-0.0031551,-0.33731,-0.31785
0.0083638,0.029479,-0.013659,0.057106,0.22141,0.12022,-0.48056,0.46112,0.047603,0.086697,0.044509,0.39586,0.2499,-0.093079,-0.18231,0.17067,0.071494,0.97752,0.46536,-0.0088089,0.10968,-0.0097229,-0.34747,-0.23533
0.0071152,0.027774,-0.011804,0.048125,0.23205,0.14059,-0.40426,0.43123,0.045796,0.10813,0.068857,0.39861,0.10807,-0.075826,-0.20039,0.19187,0.056888,0.89397,0.24323,-0.036519,0.12509,-0.030278,-0.36495,-0.090285
0.0050004,0.02674,-0.013238,0.042613,0.25299,0.18149,-0.21779,0.44005,0.047732,0.13101,0.10215,0.38708,-0.03495,-0.05426,-0.19833,0.18532,0.030896,0.7451,0.026146,-0.07446,0.13655,-0.061428,-0.36803,0.087443
0.0022473,0.025691,-0.015138,0.03934,0.27254,0.19447,-0.027158,0.45486,0.053881,0.14875,0.14011,0.3673,-0.12449,-0.033627,-0.18067,0.15502,-0.00012514,0.5642,-0.15228,-0.11745,0.13849,-0.095366,-0.34588,0.25927
0.0010135,0.024098,-0.01429,0.036431,0.28346,0.14744,0.097973,0.45492,0.061463,0.15823,0.17893,0.34659,-0.13994,-0.018498,-0.15415,0.11711,-0.029035,0.38175,-0.27796,-0.15744,0.12642,-0.12456,-0.28902,0.39162
0.003303,0.021678,-0.0099882,0.032843,0.28894,0.032813,0.15483,0.45498,0.066677,0.15885,0.21458,0.33112,-0.095301,-0.012705,-0.12621,0.08342,-0.051403,0.21287,-0.35961,-0.18699,0.10059,-0.14478,-0.18229,0.4666
0.0085504,0.018421,-0.0043571,0.028616,0.29803,-0.1359,0.18021,0.49297,0.067102,0.15013,0.24122,0.3221,-0.013985,-0.018478,-0.10135,0.054627,-0.066525,0.060253,-0.40841,-0.20164,0.066746,-0.1558,-0.01495,0.4875
0.013401,0.014653,-0.00018077,0.024217,0.31506,-0.33443,0.19771,0.59407,0.062559,0.12981,0.25114,0.31377,0.096819,-0.036151,-0.078559,0.025999,-0.075767,-0.072771,-0.41589,-0.20059,0.03263,-0.16112,0.1978,0.47694
0.014214,0.01103,0.0014827,0.019903,0.33316,-0.53971,0.19114,0.74539,0.054266,0.093608,0.23717,0.29577,0.24807,-0.065317,-0.052781,-0.0025803,-0.080174,-0.17223,-0.35523,-0.18643,0.0028185,-0.16681,0.40516,0.4659
0.010172,0.0082829,0.00175,0.015679,0.33891,-0.73836,0.12662,0.90471,0.04344,0.036819,0.1964,0.25866,0.44587,-0.10586,-0.019822,-0.021937,-0.079429,-0.21532,-0.20789,-0.1643,-0.024015,-0.17841,0.54191,0.47685
0.0041169,0.0068174,0.0023404,0.011585,0.32402,-0.92778,-0.0026883,1.0342,0.030582,-0.042833,0.13224,0.19839,0.6662,-0.15657,0.019172,-0.017062,-0.072706,-0.18183,0.0095989,-0.14044,-0.053003,-0.19608,0.57261,0.51048
0.0002561,0.00647,0.0037742,0.0077613,0.29345,-1.1091,-0.15638,1.1273,0.015788,-0.14236,0.053142,0.11677,0.85344,-0.2118,0.05704,0.025146,-0.060234,-0.066269,0.24718,-0.12002,-0.087727,-0.21188,0.52638,0.54626
0.00067867,0.0066228,0.0051042,0.0041286,0.26201,-1.276,-0.27262,1.2046,-0.00044823,-0.25217,-0.031102,0.018558,0.94813,-0.26084,0.083724,0.10873,-0.044038,0.11625,0.454,-0.10509,-0.1258,-0.21408,0.49034,0.55865
0.0036941,0.0065367,0.0052327,1.8034e-005,0.24218,-1.4063,-0.316,1.2848,-0.016699,-0.35759,-0.11267,-0.091049,0.92391,-0.29385,0.090438,0.22451,-0.027264,0.33137,0.61397,-0.09384,-0.15892,-0.198,0.55953,0.53803
0.0053507,0.0056071,0.0042816,-0.0057324,0.2335,-1.463,-0.30283,1.3592,-0.030762,-0.44301,-0.18665,-0.20612,0.80486,-0.31175,0.072434,0.34983,-0.012715,0.53224,0.75047,-0.081943,-0.17738,-0.17505,0.77593,0.49904
0.0027063,0.0034493,0.0035593,-0.014076,0.22236,-1.4062,-0.28169,1.392,-0.040506,-0.49716,-0.25003,-0.31765,0.65052,-0.33028,0.030298,0.45376,-0.0016878,0.67066,0.89306,-0.065279,-0.17571,-0.16917,1.0995,0.46816
-0.0039524,-2.29e-005,0.0042077,-0.024845,0.19201,-1.2124,-0.29041,1.3478,-0.045024,-0.51653,-0.30072,-0.41252,0.52052,-0.36941,-0.028838,0.50832,0.006256,0.71183,1.035,-0.04238,-0.15556,-0.19853,1.4304,0.459
-0.011614,-0.0044207,0.0059938,-0.036327,0.13411,-0.89238,-0.33034,1.2193,-0.045468,-0.50524,-0.33776,-0.4759,0.44443,-0.43163,-0.090044,0.50151,0.012628,0.64866,1.1212,-0.015039,-0.12412,-0.25427,1.6653,0.45595
-0.017002,-0.0088389,0.0075413,-0.045838,0.053047,-0.49799,-0.37839,1.0337,-0.044801,-0.47149,-0.36213,-0.49629,0.41498,-0.48566,-0.1314,0.44375,0.018945,0.50757,1.0807,0.013041,-0.089912,-0.29524,1.7472,0.42074
-0.018716,-0.012273,0.0077971,-0.051139,-0.03876,-0.11028,-0.41903,0.83416,-0.046186,-0.42331,-0.37627,-0.47022,0.40378,-0.47394,-0.12941,0.3611,0.025809,0.33931,0.87976,0.038314,-0.059185,-0.26858,1.6804,0.31795
-0.017448,-0.014379,0.0072346,-0.05189,-0.12882,0.1882,-0.4612,0.6532,-0.050765,-0.36623,-0.38172,-0.40409,0.38398,-0.3459,-0.068789,0.27789,0.032591,0.19726,0.55252,0.058687,-0.034936,-0.14538,1.5108,0.14024
-0.014609,-0.01588,0.0075256,-0.05006,-0.20911,0.34583,-0.5245,0.49974,-0.056405,-0.30372,-0.37652,-0.31257,0.34409,-0.097181,0.04734,0.20124,0.037945,0.11539,0.18386,0.073597,-0.018101,0.053771,1.2927,-0.084538
-0.011063,-0.01802,0.0099358,-0.048876,-0.27516,0.36156,-0.61321,0.36561,-0.058732,-0.23897,-0.35502,-0.2144,0.28721,0.2144,0.19289,0.11988,0.040943,0.098595,-0.14107,0.083584,-0.0088622,0.26449,1.066,-0.30634
-0.0071858,-0.021319,0.013989,-0.05092,-0.32362,0.28002,-0.70844,0.24125,-0.054091,-0.17545,-0.31117,-0.12705,0.22146,0.49151,0.32385,0.018671,0.042013,0.1292,-0.3816,0.090147,-0.0067396,0.41378,0.85192,-0.47328
-0.0038267,-0.02479,0.017719,-0.056694,-0.35246,0.16419,-0.7879,0.12492,-0.042377,-0.11551,-0.24373,-0.061535,0.15195,0.64584,0.39236,-0.10322,0.04281,0.18162,-0.54939,0.09573,-0.0099274,0.46061,0.65704,-0.54649
-0.0026987,-0.026603,0.019315,-0.06462,-0.36408,0.06227,-0.85092,0.019725,-0.02745,-0.0587,-0.15951,-0.019422,0.080748,0.64083,0.36458,-0.22576,0.044799,0.23363,-0.68028,0.1029,-0.015265,0.41381,0.47875,-0.50723
-0.005344,-0.025829,0.018634,-0.072331,-0.36721,-0.01149,-0.91944,-0.074725,-0.014667,-0.0019893,-0.072045,0.0061498,0.013375,0.50159,0.23458,-0.31853,0.047539,0.26956,-0.79823,0.11243,-0.019436,0.31708,0.30934,-0.36177
-0.01146,-0.02367,0.017201,-0.078129,-0.3736,-0.072477,-1.0107,-0.16505,-0.0073851,0.057489,0.0040479,0.025147,-0.036026,0.29029,0.028136,-0.35897,0.048204,0.27926,-0.89994,0.12161,-0.020442,0.21629,0.14292,-0.14501
-0.018336,-0.022774,0.016746,-0.081626,-0.39072,-0.14509,-1.109,-0.25765,-0.0051709,0.11937,0.059505,0.043802,-0.048514,0.068741,-0.20614,-0.34364,0.043068,0.25879,-0.96649,0.12466,-0.017954,0.13477,-0.01598,0.085199
-0.022316,-0.024992,0.017674,-0.083431,-0.41599,-0.24252,-1.1679,-0.34995,-0.0049927,0.17943,0.093372,0.060503,-0.013526,-0.12527,-0.41448,-0.28513,0.03004,0.21264,-0.98516,0.11596,-0.012278,0.072198,-0.14955,0.26974
-0.021351,-0.029543,0.018849,-0.084536,-0.43794,-0.35998,-1.1454,-0.42887,-0.0042633,0.23214,0.11064,0.066875,0.057695,-0.27727,-0.55657,-0.20025,0.010268,0.15286,-0.96057,0.094138,-0.0032023,0.020796,-0.2363,0.37759
-0.016511,-0.033483,0.018847,-0.085958,-0.44403,-0.48156,-1.0403,-0.47956,-0.0031985,0.27402,0.11645,0.05253,0.13108,-0.38064,-0.6163,-0.10096,-0.012457,0.092713,-0.90859,0.064062,0.0098862,-0.019596,-0.26837,0.42092
-0.011148,-0.034292,0.017471,-0.088632,-0.42909,-0.59106,-0.89727,-0.49738,-0.0047527,0.30474,0.11121,0.0095094,0.1664,-0.42418,-0.60055,0.0056196,-0.033868,0.039895,-0.84316,0.034851,0.026658,-0.041116,-0.26164,0.43953
-0.0083511,-0.032358,0.016123,-0.093122,-0.39794,-0.67731,-0.77336,-0.4927,-0.012488,0.32492,0.090192,-0.066084,0.14272,-0.39304,-0.52907,0.1116,-0.051024,-0.0034795,-0.76891,0.015352,0.044817,-0.038985,-0.24716,0.46391
-0.0088109,-0.030977,0.016668,-0.099101,-0.36036,-0.73272,-0.69798,-0.48442,-0.028265,0.33289,0.04781,-0.17401,0.074215,-0.27997,-0.42357,0.20502,-0.062394,-0.034025,-0.68313,0.010209,0.060834,-0.020214,-0.24838,0.48736
-0.010759,-0.033623,0.019723,-0.10506,-0.32339,-0.75037,-0.65961,-0.48741,-0.051447,0.32387,-0.016976,-0.3084,0.0024342,-0.096663,-0.30311,0.27277,-0.0668,-0.042097,-0.58058,0.018897,0.072126,3.1738e-005,-0.26374,0.47339
-0.011824,-0.040739,0.023875,-0.10881,-0.2873,-0.72435,-0.62605,-0.5037,-0.079761,0.29265,-0.09827,-0.45463,-0.031964,0.12288,-0.18624,0.30665,-0.063046,-0.017492,-0.45535,0.037392,0.078833,0.010832,-0.27097,0.39336
-0.011091,-0.048869,0.026537,-0.10877,-0.24828,-0.65246,-0.57333,-0.52369,-0.1106,0.23795,-0.18558,-0.58827,-0.018745,0.32888,-0.093653,0.30691,-0.05121,0.036511,-0.30175,0.060336,0.083457,0.013983,-0.25049,0.26065
-0.0096764,-0.053104,0.025837,-0.10522,-0.20501,-0.53744,-0.49517,-0.53509,-0.14149,0.16488,-0.2687,-0.68096,0.012579,0.46956,-0.044745,0.28086,-0.034417,0.09463,-0.1197,0.082069,0.088544,0.019866,-0.20664,0.12894
-0.0095701,-0.050953,0.022056,-0.10051,-0.16305,-0.38529,-0.3907,-0.53209,-0.16966,0.08384,-0.3409,-0.71263,0.010784,0.50833,-0.047683,0.23865,-0.018719,0.11895,0.076795,0.096954,0.09438,0.034603,-0.16673,0.054224
-0.011914,-0.044504,0.017444,-0.097853,-0.13354,-0.20375,-0.25352,-0.51862,-0.19164,0.0067898,-0.39818,-0.68343,-0.06411,0.43876,-0.09047,0.18975,-0.010115,0.083201,0.2577,0.10042,0.098744,0.051111,-0.15792,0.053421
-0.016126,-0.039021,0.014529,-0.099375,-0.12697,-0.0040624,-0.082456,-0.5049,-0.20404,-0.056315,-0.43571,-0.61643,-0.2149,0.29028,-0.14217,0.14152,-0.010576,-0.0065215,0.38909,0.091036,0.099093,0.053088,-0.1831,0.095468
-0.020352,-0.039023,0.014209,-0.10463,-0.14645,0.19603,0.094084,-0.50145,-0.20525,-0.099246,-0.4458,-0.54801,-0.40352,0.11863,-0.16674,0.099177,-0.01644,-0.11326,0.45315,0.071968,0.095502,0.028911,-0.21846,0.131
-0.022676,-0.044913,0.015088,-0.11079,-0.18489,0.37441,0.21078,-0.51452,-0.19687,-0.11978,-0.42031,-0.51103,-0.56885,-0.017669,-0.14166,0.066034,-0.020922,-0.19402,0.45875,0.049789,0.092035,-0.016818,-0.23493,0.13231
-0.022182,-0.052796,0.014555,-0.11448,-0.22775,0.51506,0.19587,-0.54468,-0.1833,-0.12002,-0.35675,-0.52029,-0.65312,-0.083254,-0.069047,0.044051,-0.018987,-0.22935,0.43112,0.030656,0.095306,-0.064222,-0.22381,0.10854
-0.019382,-0.057583,0.010756,-0.11407,-0.2598,0.62121,0.024479,-0.58734,-0.16972,-0.10708,-0.26351,-0.56717,-0.6232,-0.078756,0.028576,0.034379,-0.010617,-0.23452,0.38982,0.01657,0.11092,-0.090775,-0.20291,0.0866
-0.015999,-0.056883,0.003995,-0.11061,-0.27232,0.71923,-0.24798,-0.63414,-0.15955,-0.092841,-0.15949,-0.62397,-0.48065,-0.032275,0.12411,0.037104,0.00012929,-0.2439,0.33784,0.0048807,0.13997,-0.084943,-0.19827,0.08001
-0.014238,-0.052642,-0.0034129,-0.10677,-0.26707,0.84589,-0.50552,-0.67455,-0.15339,-0.090807,-0.067064,-0.65411,-0.26118,0.023794,0.20152,0.049529,0.0092347,-0.28153,0.27497,-0.0082625,0.17764,-0.050176,-0.21874,0.076477
-0.015728,-0.049349,-0.0086444,-0.10443,-0.25485,1.025,-0.63665,-0.69844,-0.14983,-0.11048,-0.0022423,-0.62457,-0.025425,0.073153,0.26048,0.064216,0.016263,-0.34058,0.22128,-0.023242,0.21491,0.0024022,-0.24648,0.053581
-0.020482,-0.050416,-0.010129,-0.10305,-0.24913,1.2492,-0.59934,-0.69876,-0.14732,-0.15216,0.031744,-0.51751,0.15834,0.11893,0.3086,0.069463,0.024362,-0.38583,0.22046,-0.034976,0.2423,0.064604,-0.25082,0.004306
-0.026534,-0.055662,-0.0084213,-0.10033,-0.25809,1.4818,-0.43912,-0.67375,-0.14523,-0.20615,0.043468,-0.33811,0.23729,0.1703,0.34932,0.053631,0.037144,-0.37567,0.30798,-0.035372,0.25349,0.13523,-0.21198,-0.053733
-0.030723,-0.061797,-0.0057217,-0.094626,-0.27995,1.6753,-0.24986,-0.62705,-0.14366,-0.25754,0.046073,-0.11386,0.19534,0.22624,0.37586,0.011306,0.055554,-0.28789,0.46626,-0.01848,0.24679,0.21451,-0.13451,-0.093589
-0.030446,-0.065239,-0.0044615,-0.087103,-0.30478,1.7941,-0.10973,-0.56612,-0.14233,-0.29389,0.0491,0.11664,0.060853,0.2716,0.37588,-0.053215,0.077403,-0.13422,0.61118,0.015289,0.22404,0.29509,-0.041582,-0.10283
-0.025297,-0.064779,-0.0058654,-0.081381,-0.32184,1.8238,-0.040135,-0.49973,-0.1399,-0.31051,0.05475,0.32051,-0.10581,0.28821,0.34207,-0.12816,0.099351,0.042024,0.6355,0.058523,0.18836,0.3587,0.040875,-0.092939
-0.017438,-0.061986,-0.0093694,-0.080736,-0.32727,1.7638,-0.013162,-0.43596,-0.13437,-0.30983,0.06002,0.48298,-0.24004,0.27047,0.28017,-0.20079,0.1189,0.18211,0.48532,0.09979,0.14278,0.38307,0.095287,-0.08654
-0.010298,-0.059334,-0.013231,-0.085098,-0.32633,1.6162,0.0062364,-0.38149,-0.12413,-0.29616,0.061693,0.60728,-0.30024,0.2315,0.20835,-0.26321,0.13445,0.23481,0.20984,0.12826,0.090722,0.35429,0.11195,-0.096156
-0.0064612,-0.057973,-0.015918,-0.090489,-0.32855,1.3846,0.021348,-0.34207,-0.1087,-0.27055,0.059582,0.7041,-0.27958,0.19482,0.14881,-0.31301,0.14398,0.17797,-0.061366,0.13776,0.037217,0.27535,0.083085,-0.11485
-0.006179,-0.057107,-0.017289,-0.091621,-0.33993,1.0843,-0.00088021,-0.32304,-0.088688,-0.23049,0.055878,0.78086,-0.19911,0.17894,0.11745,-0.34896,0.14468,0.029956,-0.20301,0.12865,-0.011121,0.16437,0.0016091,-0.12639
-0.0075046,-0.05532,-0.018635,-0.085699,-0.35855,0.75359,-0.098705,-0.32897,-0.065043,-0.17451,0.05222,0.84032,-0.091578,0.18661,0.11731,-0.36636,0.13461,-0.15659,-0.17814,0.10723,-0.048469,0.044236,-0.13258,-0.12386
-0.0078772,-0.052286,-0.02146,-0.074367,-0.377,0.44859,-0.27496,-0.36141,-0.038523,-0.10745,0.047936,0.88694,0.01089,0.20478,0.13826,-0.35708,0.11521,-0.31924,-0.057284,0.082556,-0.073048,-0.06797,-0.30573,-0.11845
-0.0059675,-0.049135,-0.025928,-0.062249,-0.38872,0.22186,-0.47918,-0.41592,-0.009628,-0.041268,0.041267,0.93091,0.081046,0.21302,0.16185,-0.31534,0.091782,-0.41792,0.040104,0.062312,-0.088508,-0.16436,-0.49163,-0.13066
-0.0024759,-0.04716,-0.030372,-0.053298,-0.39234,0.097043,-0.62684,-0.48015,0.020933,0.010005,0.03229,0.98179,0.098044,0.19361,0.16917,-0.24502,0.070816,-0.45565,0.033664,0.0496,-0.10168,-0.24174,-0.66273,-0.17263
0.00060313,-0.046273,-0.032507,-0.047989,-0.39052,0.059271,-0.64367,-0.53593,0.051731,0.037629,0.024606,1.0361,0.053008,0.13957,0.14911,-0.16192,0.055925,-0.47315,-0.068671,0.042745,-0.11786,-0.29557,-0.80295,-0.2375
0.0015932,-0.044939,-0.031559,-0.043586,-0.38584,0.068301,-0.50579,-0.5657,0.080555,0.042623,0.024118,1.0722,-0.043276,0.059312,0.10425,-0.087947,0.045865,-0.5192,-0.19244,0.038095,-0.13712,-0.31917,-0.91249,-0.30441
0.00035734,-0.041838,-0.029461,-0.037077,-0.37878,0.084532,-0.2502,-0.56075,0.10499,0.034478,0.035911,1.0608,-0.1604,-0.023844,0.051009,-0.040247,0.036527,-0.61638,-0.26309,0.033613,-0.15471,-0.30936,-1.0009,-0.35314
-0.0017608,-0.037674,-0.029847,-0.028124,-0.36961,0.089319,0.049953,-0.52602,0.12345,0.025772,0.061785,0.98665,-0.26282,-0.080364,0.012196,-0.022827,0.025272,-0.74625,-0.25954,0.030319,-0.16529,-0.27267,-1.0747,-0.37548
-0.0031021,-0.035152,-0.0353,-0.019378,-0.36117,0.087789,0.32795,-0.47753,0.13599,0.026658,0.10003,0.86287,-0.33202,-0.091612,0.0041239,-0.026695,0.013807,-0.86343,-0.21595,0.030567,-0.16784,-0.22508,-1.1287,-0.37521
-0.0029305,-0.036699,-0.044965,-0.013936,-0.35768,0.096731,0.55619,-0.4329,0.14453,0.042084,0.14689,0.7253,-0.37924,-0.066676,0.02536,-0.038092,0.0069731,-0.92677,-0.17999,0.035,-0.16687,-0.1838,-1.1471,-0.36018
-0.0017595,-0.041768,-0.054633,-0.012229,-0.35931,0.1295,0.74957,-0.401,0.15205,0.071793,0.1979,0.61027,-0.43573,-0.044503,0.054931,-0.048077,0.0084077,-0.92309,-0.1693,0.041263,-0.16885,-0.15712,-1.1126,-0.33607
-0.0006502,-0.04634,-0.059505,-0.011218,-0.35818,0.18797,0.94127,-0.37789,0.16137,0.1116,0.24826,0.53258,-0.52567,-0.073159,0.062924,-0.05593,0.016874,-0.86737,-0.1618,0.045726,-0.17666,-0.14062,-1.0156,-0.30742
-0.00022758,-0.045531,-0.057635,-0.0067114,-0.34124,0.26287,1.1513,-0.35186,0.17407,0.15504,0.29279,0.48032,-0.64297,-0.17555,0.027957,-0.064442,0.02647,-0.78316,-0.12133,0.046466,-0.18687,-0.12321,-0.85805,-0.28266
-0.00026111,-0.037427,-0.051312,0.0031446,-0.29953,0.33781,1.3712,-0.31364,0.19011,0.19557,0.32704,0.42855,-0.75149,-0.32587,-0.049562,-0.072258,0.030572,-0.68305,-0.030959,0.044421,-0.19247,-0.098147,-0.65254,-0.27532
-1.3866e-005,-0.024823,-0.045251,0.016238,-0.23598,0.39352,1.5742,-0.26372,0.20804,0.2291,0.34919,0.35928,-0.80953,-0.45789,-0.1473,-0.070886,0.026147,-0.56635,0.094172,0.041471,-0.18898,-0.069821,-0.42104,-0.29754
0.0011186,-0.013151,-0.043077,0.028095,-0.16404,0.41263,1.7378,-0.21154,0.22562,0.25544,0.36143,0.27229,-0.79864,-0.50382,-0.23386,-0.049516,0.014984,-0.43425,0.22003,0.037454,-0.17881,-0.050734,-0.19484,-0.35084
0.0032474,-0.0062139,-0.044973,0.035308,-0.09757,0.38677,1.8574,-0.16782,0.24038,0.27696,0.36885,0.18145,-0.73352,-0.43735,-0.28568,-0.0035082,0.0012541,-0.30576,0.31619,0.029404,-0.16955,-0.051116,-0.012502,-0.42232
0.0060419,-0.0034192,-0.048276,0.037906,-0.040782,0.32298,1.9389,-0.13699,0.25024,0.29455,0.37609,0.1026,-0.64592,-0.28921,-0.29673,0.061086,-0.011992,-0.21636,0.36862,0.014294,-0.16742,-0.06995,0.090187,-0.4908
0.008946,-0.0009448,-0.050191,0.03891,0.012204,0.24258,1.9774,-0.11576,0.25389,0.30378,0.38371,0.043452,-0.55763,-0.12421,-0.2766,0.13124,-0.024221,-0.19628,0.37737,-0.00709,-0.17111,-0.095052,0.097991,-0.53847
0.011355,0.0043156,-0.050033,0.041749,0.067623,0.16859,1.944,-0.098208,0.25092,0.29498,0.38697,0.00074284,-0.46576,0.0012409,-0.24109,0.19593,-0.03587,-0.24414,0.34776,-0.029043,-0.17151,-0.11234,0.030114,-0.55926
0.012798,0.011755,-0.049075,0.04784,0.12135,0.10818,1.7981,-0.08216,0.2415,0.25809,0.37781,-0.036443,-0.35137,0.067979,-0.20374,0.25273,-0.045891,-0.31797,0.28446,-0.044272,-0.15792,-0.11655,-0.06454,-0.55788
0.013226,0.017794,-0.048537,0.056047,0.15802,0.044256,1.5182,-0.071188,0.22601,0.19001,0.34867,-0.080954,-0.20202,0.0901,-0.17306,0.30657,-0.051037,-0.35382,0.18968,-0.049224,-0.12598,-0.11395,-0.13418,-0.54197
0.013195,0.019552,-0.047977,0.063952,0.16214,-0.05226,1.1298,-0.070728,0.20529,0.099117,0.29609,-0.14188,-0.027951,0.088273,-0.1539,0.36208,-0.047644,-0.30104,0.062032,-0.04686,-0.080755,-0.11382,-0.15679,-0.51506
0.013642,0.017824,-0.045817,0.069564,0.13222,-0.19429,0.70412,-0.082218,0.18147,0.0037946,0.22245,-0.22015,0.14126,0.068001,-0.14817,0.41631,-0.034241,-0.15065,-0.10411,-0.044407,-0.032939,-0.11521,-0.15248,-0.47642
0.015178,0.01642,-0.041375,0.072274,0.085605,-0.35527,0.32642,-0.10061,0.15858,-0.075004,0.13578,-0.30742,0.27504,0.021625,-0.15346,0.45847,-0.012816,0.06188,-0.3137,-0.048022,0.0085839,-0.10068,-0.16179,-0.42703
0.017446,0.018495,-0.036145,0.072833,0.049256,-0.47297,0.052766,-0.1176,0.1416,-0.12328,0.047863,-0.39025,0.35903,-0.052645,-0.16239,0.4768,0.011882,0.27881,-0.55852,-0.059004,0.041705,-0.044939,-0.20446,-0.37486
0.019227,0.02344,-0.032768,0.0728,0.042895,-0.48444,-0.11654,-0.12783,0.1339,-0.14049,-0.028611,-0.45784,0.39803,-0.13815,-0.16643,0.46674,0.033908,0.45017,-0.80548,-0.074503,0.07014,0.065365,-0.25271,-0.33363
0.019438,0.027402,-0.032531,0.073798,0.067112,-0.37041,-0.22987,-0.133,0.13445,-0.13945,-0.08328,-0.50781,0.40531,-0.2091,-0.16285,0.43355,0.04738,0.5524,-0.9999,-0.091331,0.098259,0.21427,-0.24483,-0.31512
0.018227,0.026991,-0.033884,0.076664,0.10443,-0.17564,-0.34929,-0.14048,0.13757,-0.13931,-0.11092,-0.54442,0.38944,-0.25315,-0.1588,0.38747,0.047549,0.58904,-1.0887,-0.10867,0.12645,0.35623,-0.1322,-0.32165
0.017089,0.022696,-0.033661,0.080778,0.13143,0.01375,-0.51061,-0.15747,0.1358,-0.1548,-0.11282,-0.57031,0.34967,-0.28335,-0.16722,0.3361,0.032464,0.58116,-1.0503,-0.12699,0.15044,0.43672,0.077447,-0.34516
0.017631,0.018759,-0.030061,0.084166,0.13263,0.12335,-0.70246,-0.18568,0.12435,-0.18729,-0.09624,-0.57996,0.28115,-0.32515,-0.19633,0.28035,0.005004,0.55809,-0.9068,-0.14466,0.1643,0.42233,0.31746,-0.37366
0.019973,0.019648,-0.024625,0.084765,0.10753,0.13714,-0.87576,-0.22092,0.10381,-0.22289,-0.071789,-0.56282,0.18246,-0.38924,-0.2411,0.21715,-0.026652,0.55109,-0.70828,-0.1567,0.16384,0.32085,0.50528,-0.39942
0.02231,0.026342,-0.021219,0.082197,0.067927,0.10415,-0.97612,-0.25808,0.078932,-0.23952,-0.04971,-0.51532,0.058189,-0.45681,-0.28471,0.14561,-0.051955,0.58477,-0.49994,-0.15788,0.14817,0.17709,0.59723,-0.42163
0.022315,0.035702,-0.022757,0.078592,0.029512,0.10073,-0.97859,-0.29743,0.054896,-0.21975,-0.03647,-0.45132,-0.084606,-0.49267,-0.31003,0.070844,-0.063605,0.66341,-0.30134,-0.1482,0.11909,0.046843,0.61046,-0.442
0.019324,0.043172,-0.028526,0.077365,0.0031772,0.17683,-0.90379,-0.34693,0.034074,-0.16212,-0.033522,-0.3997,-0.24021,-0.47521,-0.31186,0.0021472,-0.062264,0.76012,-0.11393,-0.13553,0.08012,-0.033939,0.59478,-0.45799
0.015276,0.046156,-0.034497,0.080547,-0.0098056,0.32502,-0.80581,-0.41813,0.01596,-0.083973,-0.039353,-0.38791,-0.40316,-0.41508,-0.29965,-0.052489,-0.056483,0.82193,0.053623,-0.13191,0.036233,-0.06421,0.5799,-0.46081
0.01329,0.045159,-0.036359,0.08677,-0.01766,0.49237,-0.74065,-0.51839,-0.00042181,-0.013583,-0.053876,-0.42288,-0.56265,-0.34479,-0.28828,-0.090465,-0.057258,0.79505,0.17093,-0.14583,-0.0062035,-0.068927,0.54586,-0.44053
0.014916,0.042303,-0.032658,0.091805,-0.033648,0.62226,-0.73562,-0.64492,-0.014432,0.023784,-0.081879,-0.48418,-0.69827,-0.28955,-0.28488,-0.11411,-0.070818,0.65669,0.19996,-0.17606,-0.040444,-0.075228,0.4451,-0.39375
0.018557,0.039224,-0.025455,0.091562,-0.069025,0.69239,-0.77865,-0.78473,-0.024291,0.017201,-0.13193,-0.5352,-0.78302,-0.24697,-0.28294,-0.12684,-0.094725,0.43069,0.12699,-0.21199,-0.061519,-0.092638,0.25991,-0.3265
0.020701,0.036425,-0.018215,0.085289,-0.12639,0.72125,-0.83193,-0.92012,-0.029502,-0.027565,-0.20997,-0.54477,-0.7944,-0.19458,-0.26833,-0.12983,-0.11979,0.174,-0.018101,-0.24003,-0.068285,-0.11111,0.046089,-0.24903
0.019047,0.034156,-0.012979,0.076294,-0.19717,0.74218,-0.85768,-1.0355,-0.032514,-0.094527,-0.31168,-0.50386,-0.72817,-0.1166,-0.23111,-0.12178,-0.13592,-0.056568,-0.17496,-0.25121,-0.063813,-0.11547,-0.079951,-0.16627
0.014669,0.033177,-0.0092891,0.069494,-0.2655,0.76963,-0.83775,-1.121,-0.037572,-0.16686,-0.42004,-0.4274,-0.60606,-0.023888,-0.17253,-0.10107,-0.13759,-0.23262,-0.2884,-0.24511,-0.053829,-0.10232,-0.0096539,-0.072423
0.011089,0.034168,-0.0054824,0.067691,-0.31692,0.78608,-0.77675,-1.1725,-0.047532,-0.23262,-0.51204,-0.34219,-0.47087,0.051985,-0.10188,-0.067926,-0.12559,-0.35849,-0.33619,-0.22885,-0.044321,-0.084902,0.27935,0.044213
0.010986,0.036455,-0.00081638,0.069602,-0.34629,0.75941,-0.69214,-1.189,-0.061492,-0.28461,-0.57126,-0.27101,-0.36833,0.083992,-0.027826,-0.025012,-0.10512,-0.45319,-0.32783,-0.21356,-0.03974,-0.082982,0.69271,0.18844
0.013616,0.037781,0.0037081,0.071194,-0.35928,0.6745,-0.60162,-1.172,-0.075484,-0.3173,-0.5978,-0.223,-0.32442,0.070258,0.046462,0.022629,-0.082475,-0.52886,-0.28134,-0.21093,-0.042245,-0.10692,1.0622,0.34658
0.015473,0.035872,0.006484,0.069097,-0.36619,0.55138,-0.51501,-1.1267,-0.08565,-0.32529,-0.60713,-0.19381,-0.33218,0.032068,0.12013,0.06718,-0.062644,-0.58347,-0.20433,-0.23029,-0.051467,-0.14903,1.236,0.48656
0.013642,0.03051,0.0070858,0.063224,-0.37291,0.43444,-0.42991,-1.0632,-0.09108,-0.30468,-0.61772,-0.17211,-0.35907,-0.0064382,0.18804,0.097689,-0.048275,-0.60931,-0.096513,-0.27518,-0.064406,-0.18834,1.1587,0.57283
0.0086567,0.024019,0.0068305,0.056469,-0.37609,0.36116,-0.3291,-0.99688,-0.093846,-0.25577,-0.63566,-0.14687,-0.37294,-0.036296,0.23959,0.10185,-0.039409,-0.60406,0.034761,-0.3395,-0.075897,-0.20426,0.89035,0.58803
0.0040757,0.019507,0.0075544,0.051979,-0.36601,0.33563,-0.18252,-0.94332,-0.096353,-0.184,-0.64772,-0.11148,-0.36947,-0.063593,0.26595,0.071028,-0.033456,-0.57203,0.16914,-0.40614,-0.080338,-0.18898,0.56005,0.54665
0.0031494,0.018386,0.0098609,0.050483,-0.33436,0.32713,0.039683,-0.91325,-0.098469,-0.098274,-0.6284,-0.064556,-0.37923,-0.094514,0.26912,0.0063464,-0.02579,-0.51604,0.28871,-0.45161,-0.074437,-0.15108,0.28718,0.48917
0.0057571,0.019434,0.012581,0.049974,-0.28043,0.29311,0.34314,-0.90823,-0.096969,-0.0082237,-0.55675,-0.0087609,-0.4458,-0.12299,0.26275,-0.078493,-0.011504,-0.43198,0.39867,-0.45629,-0.059321,-0.10983,0.12193,0.4581
0.0085268,0.0202,0.013913,0.047887,-0.2116,0.20653,0.68836,-0.92075,-0.087741,0.077748,-0.43175,0.05039,-0.58919,-0.13415,0.26148,-0.16074,0.01207,-0.31493,0.52663,-0.41494,-0.040317,-0.085237,0.034763,0.47072
0.0079694,0.019319,0.013045,0.043684,-0.13901,0.066666,0.99325,-0.93818,-0.068992,0.15295,-0.27645,0.10507,-0.78323,-0.11955,0.26682,-0.21729,0.043526,-0.17244,0.6925,-0.34005,-0.024292,-0.089659,-0.048615,0.5068
0.0036171,0.017549,0.010718,0.039544,-0.072637,-0.1116,1.1674,-0.94841,-0.043082,0.21213,-0.12868,0.1454,-0.9669,-0.088187,0.26306,-0.23393,0.077541,-0.030709,0.87305,-0.25499,-0.016397,-0.12418,-0.19413,0.52007
-0.0017172,0.016713,0.0084007,0.038504,-0.018821,-0.3168,1.1614,-0.9438,-0.015874,0.25147,-0.024168,0.16095,-1.0826,-0.061227,0.22875,-0.2104,0.10709,0.075546,0.99768,-0.18107,-0.018439,-0.17952,-0.4183,0.46562
-0.0046028,0.017764,0.0071379,0.041686,0.02015,-0.55005,0.99812,-0.92156,0.0058099,0.26905,0.018966,0.14492,-1.112,-0.054697,0.15601,-0.15942,0.12636,0.12321,0.98936,-0.12754,-0.029496,-0.23976,-0.6769,0.32506
-0.0039357,0.019914,0.0072076,0.046959,0.046374,-0.8178,0.76044,-0.88091,0.017131,0.26596,0.0072785,0.10015,-1.0805,-0.06615,0.061468,-0.10143,0.13269,0.11376,0.82313,-0.090947,-0.047461,-0.2872,-0.88569,0.11453
-0.0015253,0.021559,0.0085848,0.050201,0.06687,-1.1171,0.54297,-0.81971,0.017257,0.2474,-0.031408,0.043287,-1.0291,-0.077519,-0.021524,-0.057566,0.12673,0.067535,0.55399,-0.062459,-0.069861,-0.30703,-0.96322,-0.12643
-0.00012891,0.021869,0.011271,0.048191,0.092362,-1.4279,0.40043,-0.73376,0.0097034,0.22307,-0.05988,0.002086,-0.97803,-0.071345,-0.06453,-0.043571,0.11121,0.0047172,0.28595,-0.036001,-0.093743,-0.29136,-0.8763,-0.35468
-0.0010476,0.021355,0.014922,0.040932,0.13288,-1.7188,0.329,-0.62024,0.00086359,0.20545,-0.04712,0.0040841,-0.91317,-0.045519,-0.063049,-0.066736,0.089333,-0.069664,0.10201,-0.010494,-0.11586,-0.24169,-0.66469,-0.53938
-0.0034207,0.020877,0.018347,0.031669,0.19189,-1.9597,0.2886,-0.48329,-0.00281,0.20508,0.018498,0.061115,-0.80533,-0.013779,-0.038134,-0.12671,0.063647,-0.16385,0.0087164,0.013989,-0.13402,-0.16907,-0.4281,-0.66856
-0.00542,0.020279,0.019903,0.02467,0.26344,-2.1309,0.24212,-0.33694,0.0021951,0.22476,0.12421,0.1592,-0.64166,0.0072246,-0.019855,-0.21903,0.035785,-0.28448,-0.060862,0.040583,-0.14879,-0.090575,-0.27901,-0.74816
-0.0058344,0.018289,0.01882,0.022382,0.33518,-2.2229,0.17808,-0.20167,0.014846,0.25646,0.23899,0.26204,-0.44068,0.011706,-0.026043,-0.33768,0.0068804,-0.42475,-0.18852,0.075235,-0.16332,-0.02235,-0.28764,-0.7974
-0.0046411,0.014029,0.016204,0.02398,0.39605,-2.2312,0.10289,-0.095392,0.030416,0.28432,0.3282,0.32832,-0.23921,0.0072563,-0.052394,-0.47286,-0.021666,-0.56778,-0.40363,0.12187,-0.18054,0.028159,-0.45237,-0.84102
-0.0025478,0.0086708,0.014444,0.026222,0.44318,-2.1538,0.017919,-0.024411,0.043424,0.2929,0.36935,0.33325,-0.066141,0.0054382,-0.079696,-0.60531,-0.047611,-0.70105,-0.65918,0.1785,-0.19941,0.065907,-0.71073,-0.8979
-0.00041875,0.0053282,0.015238,0.025907,0.48309,-1.9932,-0.091591,0.01889,0.050808,0.27516,0.36032,0.28112,0.071165,0.010671,-0.090205,-0.70398,-0.067908,-0.82652,-0.86683,0.23883,-0.2137,0.10386,-0.97624,-0.96983
0.00090475,0.0068072,0.018023,0.022128,0.5265,-1.7607,-0.24383,0.04974,0.053175,0.23421,0.31656,0.20096,0.1773,0.017954,-0.079409,-0.73454,-0.07949,-0.95455,-0.96025,0.29821,-0.21505,0.15154,-1.1717,-1.0385
0.00073795,0.012975,0.020421,0.016707,0.58075,-1.4763,-0.43725,0.080682,0.053269,0.17786,0.26064,0.12872,0.25001,0.020407,-0.05528,-0.67792,-0.080504,-1.0865,-0.93885,0.35762,-0.19878,0.20381,-1.2428,-1.0764
-0.00096437,0.020257,0.020482,0.012588,0.64541,-1.165,-0.64065,0.11533,0.052898,0.11112,0.21167,0.087828,0.2749,0.018098,-0.028256,-0.54657,-0.071327,-1.2022,-0.86445,0.42102,-0.16789,0.23954,-1.1611,-1.0655
-0.0031877,0.024109,0.018706,0.011549,0.71372,-0.85077,-0.80692,0.15086,0.050801,0.033965,0.18033,0.079722,0.24149,0.019154,-0.0019295,-0.38356,-0.054766,-1.266,-0.82155,0.48786,-0.13218,0.23419,-0.93439,-1.0094
-0.0043271,0.022625,0.017893,0.013051,0.77812,-0.55289,-0.89822,0.18641,0.043391,-0.053219,0.16946,0.088062,0.16454,0.032499,0.027834,-0.2405,-0.03524,-1.248,-0.87327,0.54799,-0.10254,0.17935,-0.62488,-0.92727
-0.0035516,0.018157,0.020785,0.015057,0.83525,-0.2863,-0.90135,0.22924,0.028037,-0.14113,0.17697,0.0911,0.087354,0.059824,0.065591,-0.14812,-0.017344,-1.1438,-1.0384,0.58504,-0.08474,0.094893,-0.34697,-0.83253
-0.0017994,0.015364,0.027488,0.015904,0.88636,-0.063603,-0.82334,0.29205,0.0064113,-0.20842,0.19783,0.073398,0.06031,0.094586,0.10773,-0.10155,-0.0045021,-0.97819,-1.293,0.58679,-0.077237,0.021941,-0.22142,-0.71611
-0.0010862,0.017222,0.034902,0.015496,0.9332,0.10273,-0.67735,0.38266,-0.014964,-0.22854,0.22559,0.031358,0.11179,0.12821,0.14009,-0.071761,0.0016548,-0.78947,-1.5835,0.55424,-0.074336,-0.0011862,-0.29839,-0.55097
-0.0024244,0.022483,0.038776,0.014843,0.97303,0.20034,-0.47542,0.4943,-0.027928,-0.18367,0.25444,-0.027393,0.23643,0.15648,0.14427,-0.03355,0.001026,-0.60897,-1.8435,0.50177,-0.072069,0.036147,-0.50375,-0.3174
-0.004388,0.026887,0.036793,0.014639,0.99769,0.22072,-0.23401,0.60562,-0.027675,-0.076836,0.28164,-0.087854,0.40818,0.17965,0.1091,0.0134,-0.005686,-0.44988,-2.0082,0.448,-0.071941,0.11003,-0.66339,-0.028098
-0.0041281,0.027075,0.030329,0.014418,0.99853,0.16609,0.017899,0.69216,-0.015976,0.065738,0.30765,-0.13268,0.60195,0.1974,0.039826,0.046998,-0.017481,-0.31071,-2.0317,0.40472,-0.079497,0.17921,-0.6069,0.26945
-0.00028253,0.023634,0.023524,0.013101,0.97407,0.055013,0.24228,0.74177,-0.00012241,0.20423,0.33311,-0.14798,0.8008,0.20614,-0.040932,0.044631,-0.032908,-0.18604,-1.9006,0.37255,-0.098777,0.21368,-0.28505,0.51735
0.0050192,0.020452,0.020414,0.010233,0.93377,-0.07928,0.40854,0.76241,0.011763,0.30173,0.35514,-0.129,0.9843,0.20378,-0.102,0.0043504,-0.049516,-0.073497,-1.6377,0.34532,-0.12703,0.21247,0.18688,0.67923
0.0074341,0.020925,0.02225,0.0065093,0.89389,-0.20003,0.50955,0.77618,0.015714,0.33925,0.36797,-0.083171,1.1176,0.19812,-0.11811,-0.051903,-0.063744,0.027396,-1.2931,0.31793,-0.15412,0.19733,0.59869,0.75474
0.0042794,0.02455,0.026913,0.0030943,0.8674,-0.28168,0.56189,0.80443,0.013646,0.32235,0.36905,-0.027896,1.1642,0.2085,-0.082173,-0.09294,-0.072005,0.11962,-0.92636,0.29026,-0.16762,0.18835,0.78183,0.76815
-0.0025228,0.027163,0.030726,0.00057879,0.85531,-0.3172,0.58909,0.85588,0.010816,0.27683,0.36591,0.016384,1.1208,0.25429,-0.0085305,-0.096295,-0.072742,0.20897,-0.58907,0.2648,-0.16044,0.1822,0.71424,0.74531
-0.0075445,0.024723,0.031189,-0.0012114,0.84653,-0.31219,0.6024,0.9269,0.011229,0.23613,0.37606,0.033232,1.0433,0.33623,0.074766,-0.056046,-0.06811,0.2985,-0.3125,0.24195,-0.13551,0.1508,0.5187,0.70128
-0.0064553,0.017237,0.02864,-0.0024151,0.82668,-0.2721,0.59612,1.0121,0.014601,0.22614,0.4169,0.012587,1.0304,0.42616,0.14018,0.020163,-0.063626,0.38244,-0.10059,0.21851,-0.10386,0.061473,0.3612,0.64673
-7.128e-005,0.0091676,0.025734,-0.0024538,0.78923,-0.19661,0.56047,1.1142,0.017051,0.25391,0.49181,-0.051785,1.1619,0.47704,0.17326,0.11603,-0.065347,0.44646,0.070695,0.19098,-0.077338,-0.096722,0.32951,0.60042
0.0060586,0.005836,0.02533,-0.00051982,0.74013,-0.088719,0.49845,1.2416,0.014679,0.30522,0.58366,-0.16442,1.4353,0.44973,0.17693,0.20752,-0.076024,0.47546,0.24313,0.15963,-0.060649,-0.29885,0.38167,0.58918
0.0064597,0.0089639,0.028425,0.0030902,0.69299,0.030773,0.42948,1.3956,0.0070552,0.35232,0.66268,-0.32407,1.7507,0.33842,0.16653,0.26381,-0.092904,0.46398,0.45302,0.12877,-0.048452,-0.48989,0.3955,0.6316
0.00068354,0.015282,0.033591,0.0062951,0.659,0.12248,0.37485,1.5581,-0.0020216,0.36835,0.7044,-0.51437,1.9662,0.17587,0.15978,0.25589,-0.10898,0.42203,0.70435,0.10266,-0.029168,-0.60457,0.27341,0.72109
-0.0061864,0.019357,0.03812,0.0062689,0.64009,0.15097,0.33757,1.6932,-0.006803,0.34146,0.70473,-0.69825,1.9858,0.014312,0.16782,0.17183,-0.11708,0.37324,0.95762,0.081353,0.0073909,-0.58992,0.021137,0.82789
-0.0080686,0.018061,0.039905,0.0015449,0.62973,0.11702,0.29533,1.7659,-0.0029852,0.28113,0.68098,-0.82643,1.816,-0.10439,0.19112,0.027152,-0.114,0.34664,1.1483,0.061019,0.063938,-0.42326,-0.25344,0.92177
-0.0033846,0.012764,0.038669,-0.0066844,0.6196,0.070969,0.21493,1.7638,0.010127,0.21276,0.65844,-0.86056,1.5502,-0.16826,0.22068,-0.14177,-0.10186,0.36614,1.2278,0.038556,0.13474,-0.12339,-0.41245,0.99557
0.0034923,0.0075463,0.035777,-0.015324,0.60562,0.088853,0.078656,1.7062,0.029599,0.16315,0.65272,-0.79787,1.297,-0.1929,0.243,-0.29913,-0.086008,0.44115,1.1969,0.015786,0.20912,0.24667,-0.37391,1.0662
0.0061449,0.0052971,0.03293,-0.021541,0.58897,0.22337,-0.09765,1.632,0.050222,0.14475,0.66041,-0.6785,1.1116,-0.20277,0.24675,-0.4292,-0.07137,0.56137,1.1062,-0.0015301,0.27598,0.59071,-0.15336,1.1503
0.001788,0.0053215,0.030821,-0.024429,0.57294,0.46555,-0.26964,1.5763,0.065999,0.1479,0.66311,-0.56666,0.98009,-0.21245,0.2286,-0.53729,-0.059925,0.69873,1.018,-0.0094822,0.32647,0.8084,0.15791,1.2364
-0.0063957,0.0044807,0.028785,-0.024873,0.55975,0.74728,-0.39099,1.5525,0.07131,0.14591,0.63986,-0.51556,0.86078,-0.22132,0.19538,-0.63152,-0.05069,0.81773,0.96206,-0.011141,0.35493,0.83591,0.45285,1.283
-0.012187,0.00063169,0.025717,-0.024127,0.55056,0.98303,-0.4439,1.5513,0.062091,0.11014,0.57869,-0.5396,0.73611,-0.22207,0.16044,-0.70298,-0.041458,0.89109,0.91955,-0.01564,0.36013,0.67883,0.66322,1.2476
-0.011686,-0.0049028,0.021454,-0.022708,0.54732,1.118,-0.45237,1.5545,0.037159,0.026635,0.4808,-0.61246,0.62986,-0.21223,0.13595,-0.72395,-0.030559,0.91237,0.84945,-0.031274,0.34746,0.41498,0.77956,1.1254
-0.0063226,-0.008141,0.017371,-0.020573,0.55275,1.1479,-0.46721,1.5503,-0.0010649,-0.095463,0.35753,-0.6909,0.57892,-0.19761,0.12604,-0.66691,-0.017605,0.89705,0.73308,-0.058463,0.33027,0.15906,0.83574,0.96203
-0.0011839,-0.0058481,0.015527,-0.018009,0.56665,1.1011,-0.52921,1.5371,-0.047413,-0.22849,0.22415,-0.74513,0.59205,-0.18572,0.12626,-0.5279,-0.0033982,0.87043,0.59747,-0.088931,0.32648,0.0059169,0.87787,0.82652
-0.000573,0.001474,0.016933,-0.0159,0.58165,1.008,-0.63278,1.5171,-0.096334,-0.34064,0.094132,-0.77379,0.63619,-0.17728,0.12961,-0.33269,0.010316,0.85003,0.49664,-0.11203,0.35036,-0.014435,0.9386,0.76204
-0.0047654,0.0096915,0.020441,-0.014888,0.58363,0.885,-0.71511,1.489,-0.14417,-0.41138,-0.024768,-0.79542,0.66186,-0.16559,0.13336,-0.11988,0.021031,0.835,0.4664,-0.12276,0.40321,0.057388,1.0261,0.75463
-0.010341,0.014214,0.023349,-0.014386,0.55905,0.74395,-0.68406,1.4472,-0.18951,-0.43857,-0.13209,-0.82744,0.64205,-0.14523,0.13994,0.084399,0.025963,0.80971,0.4919,-0.12469,0.47011,0.14503,1.1254,0.74469
-0.013179,0.013523,0.02338,-0.012761,0.50493,0.60853,-0.47337,1.3896,-0.23131,-0.43414,-0.23321,-0.87115,0.58932,-0.1218,0.15066,0.27841,0.023151,0.75807,0.51595,-0.12557,0.52623,0.1865,1.2053,0.6725
-0.011352,0.010026,0.020382,-0.0088719,0.43332,0.51353,-0.092505,1.3232,-0.26676,-0.4126,-0.33455,-0.91343,0.53831,-0.11172,0.1591,0.47377,0.01277,0.67755,0.48195,-0.13001,0.54948,0.16574,1.2288,0.52107
-0.0059138,0.0076013,0.016267,-0.0036021,0.36498,0.48227,0.36385,1.2613,-0.29134,-0.3813,-0.43776,-0.93983,0.51293,-0.12988,0.15204,0.6728,-0.0022207,0.58296,0.37674,-0.13566,0.53101,0.10839,1.1659,0.32276
0.00034263,0.0081081,0.013226,0.00022682,0.3161,0.50293,0.75848,1.2131,-0.30157,-0.33919,-0.53718,-0.9449,0.50795,-0.17404,0.11938,0.85537,-0.016811,0.49872,0.23975,-0.13583,0.47651,0.051569,1.0074,0.12684
0.0047607,0.0099869,0.011829,-0.00016087,0.28767,0.53026,0.98228,1.1763,-0.29842,-0.28364,-0.62391,-0.93044,0.49795,-0.2197,0.065095,0.98765,-0.025967,0.446,0.13319,-0.12565,0.39865,0.014377,0.77355,-0.042867
0.006105,0.010045,0.01076,-0.005111,0.26631,0.51812,1.0071,1.1403,-0.28792,-0.21874,-0.69373,-0.89531,0.46068,-0.23126,0.00916,1.0454,-0.027082,0.43304,0.097973,-0.10652,0.30759,-0.0095932,0.50863,-0.2045
0.0048611,0.006577,0.0084001,-0.011775,0.23596,0.45967,0.88596,1.0959,-0.278,-0.15737,-0.75232,-0.82887,0.39232,-0.18239,-0.022956,1.0326,-0.021606,0.45284,0.12902,-0.085587,0.20771,-0.03723,0.2604,-0.39597
0.0027329,0.00090012,0.0047024,-0.015769,0.19086,0.40105,0.70558,1.0443,-0.27356,-0.1148,-0.81173,-0.71636,0.30419,-0.070943,-0.01592,0.97951,-0.014844,0.48723,0.18559,-0.071797,0.10169,-0.075675,0.054968,-0.63347
0.0016422,-0.0039182,0.0015176,-0.014103,0.13932,0.41313,0.52859,0.99416,-0.2736,-0.098366,-0.87953,-0.55293,0.20966,0.080727,0.026024,0.92441,-0.013653,0.51406,0.2249,-0.071618,-0.0034046,-0.11507,-0.11535,-0.88451
0.0026144,-0.0056722,0.00097078,-0.0072115,0.095191,0.53879,0.36878,0.95093,-0.27258,-0.10126,-0.94895,-0.35329,0.11665,0.23756,0.08204,0.89239,-0.022839,0.51437,0.23199,-0.08696,-0.095198,-0.13806,-0.27975,-1.0769
0.005119,-0.0044985,0.0033742,0.0014428,0.064701,0.75385,0.21017,0.90854,-0.26481,-0.10542,-0.99886,-0.1474,0.030816,0.36539,0.12678,0.888,-0.042053,0.47802,0.22495,-0.11508,-0.16158,-0.13465,-0.45822,-1.1368
0.0073755,-0.0022007,0.0066359,0.0078468,0.03986,0.97122,0.04458,0.85191,-0.24832,-0.092129,-1.0048,0.03616,-0.038756,0.43875,0.14271,0.90207,-0.06511,0.40647,0.23436,-0.14948,-0.1975,-0.10795,-0.63489,-1.0296
0.0075704,-0.00054072,0.0077599,0.010134,0.0042697,1.0879,-0.1086,0.7695,-0.22562,-0.053901,-0.95372,0.1868,-0.082138,0.44397,0.12587,0.9222,-0.082554,0.3128,0.2741,-0.18143,-0.20654,-0.067285,-0.75712,-0.77871
0.0051928,-0.00022673,0.0051408,0.0095666,-0.05321,1.0443,-0.21546,0.66529,-0.20133,-0.00043056,-0.85097,0.31609,-0.099009,0.38264,0.084475,0.93572,-0.086264,0.21953,0.32479,-0.2024,-0.19581,-0.017688,-0.76376,-0.45342
0.0014705,-0.0010758,-0.00029007,0.0092631,-0.12777,0.85809,-0.25573,0.56004,-0.17925,0.044877,-0.71622,0.44724,-0.10561,0.27623,0.0338,0.92508,-0.073365,0.15548,0.34118,-0.20688,-0.16992,0.042435,-0.62244,-0.13747
-0.0014771,-0.0024611,-0.0059021,0.011837,-0.19941,0.6119,-0.23656,0.48023,-0.16091,0.056147,-0.5717,0.59871,-0.12784,0.16564,-0.0093279,0.86566,-0.047028,0.15021,0.27871,-0.19405,-0.12996,0.11296,-0.34812,0.1041
-0.002137,-0.003283,-0.0092987,0.017744,-0.24489,0.40541,-0.17984,0.44225,-0.14596,0.018425,-0.43303,0.77402,-0.18303,0.098927,-0.031592,0.73491,-0.013865,0.22397,0.12145,-0.16711,-0.07845,0.18225,0.0094811,0.24522
-0.0005794,-0.0019098,-0.0097183,0.025315,-0.25231,0.30253,-0.098873,0.44224,-0.1333,-0.063352,-0.30832,0.96377,-0.26499,0.10918,-0.02779,0.52957,0.01991,0.37369,-0.10706,-0.13087,-0.024309,0.22754,0.3964,0.30117
0.001821,0.002994,-0.0080032,0.03204,-0.22854,0.30547,0.009471,0.45722,-0.1214,-0.16418,-0.2033,1.1559,-0.34572,0.19553,-0.0035967,0.27695,0.050725,0.56278,-0.35748,-0.08999,0.018675,0.22793,0.77574,0.31528
0.0036015,0.010945,-0.0055461,0.035919,-0.19506,0.36638,0.14759,0.45648,-0.10783,-0.24786,-0.12542,1.345,-0.39344,0.3214,0.026076,0.027816,0.077131,0.72601,-0.58375,-0.049235,0.040087,0.18003,1.1236,0.33727
0.004299,0.019019,-0.0032926,0.036125,-0.17585,0.42298,0.29191,0.41663,-0.08896,-0.28107,-0.081637,1.5318,-0.39283,0.43356,0.044169,-0.16758,0.097844,0.79432,-0.76756,-0.014785,0.041061,0.10286,1.4084,0.40198
0.0045306,0.023433,-0.0014999,0.033077,-0.18543,0.43168,0.3868,0.3327,-0.06073,-0.24659,-0.072036,1.7152,-0.35218,0.4907,0.041292,-0.28411,0.11068,0.72899,-0.922,0.0060934,0.034502,0.027291,1.58,0.51708
0.0051298,0.022525,-0.00011967,0.02831,-0.2238,0.37933,0.36977,0.21969,-0.020401,-0.15044,-0.085701,1.8803,-0.29322,0.48337,0.022489,-0.32964,0.11354,0.54312,-1.0732,0.008187,0.035933,-0.022095,1.586,0.66447
0.0062292,0.018461,0.00079962,0.024151,-0.27931,0.27425,0.21247,0.1039,0.031864,-0.020135,-0.10341,1.9959,-0.23372,0.4339,0.0058887,-0.332,0.10644,0.29316,-1.235,-0.0076215,0.051819,-0.039048,1.4091,0.81329
0.0071593,0.015721,0.0011195,0.022865,-0.33604,0.13192,-0.052261,0.0089472,0.09279,0.10507,-0.10563,2.025,-0.17644,0.37868,0.012855,-0.31777,0.092453,0.044588,-1.3948,-0.033101,0.074671,-0.034582,1.0947,0.93638
0.0072092,0.017294,0.00094448,0.025408,-0.38094,-0.030679,-0.33863,-0.055084,0.15742,0.18867,-0.079863,1.9451,-0.11072,0.34648,0.05497,-0.3007,0.076569,-0.16353,-1.5185,-0.05606,0.088804,-0.026851,0.74231,1.0208
0.0064544,0.021969,0.00085254,0.030587,-0.40808,-0.19162,-0.54802,-0.092982,0.22135,0.211,-0.022859,1.7665,-0.022214,0.34581,0.12592,-0.28702,0.063275,-0.32925,-1.5684,-0.066342,0.081992,-0.031703,0.46016,1.0675
0.0057889,0.025364,0.0016767,0.035495,-0.4197,-0.32248,-0.61707,-0.1167,0.2824,0.17777,0.062012,1.5339,0.097648,0.36631,0.20376,-0.28852,0.054842,-0.46777,-1.5208,-0.060095,0.053913,-0.059284,0.31043,1.0835
0.0060659,0.023992,0.0039145,0.037161,-0.42464,-0.39735,-0.54588,-0.13572,0.34062,0.11861,0.16843,1.3078,0.24672,0.38897,0.26251,-0.32693,0.05151,-0.58079,-1.3732,-0.039467,0.015552,-0.11392,0.28151,1.0734
0.0071358,0.018733,0.0072545,0.034242,-0.43431,-0.40831,-0.39225,-0.15323,0.39669,0.074845,0.28892,1.1356,0.41054,0.39674,0.28568,-0.42217,0.053018,-0.64308,-1.1427,-0.0087909,-0.01882,-0.19158,0.30527,1.0363
0.0077424,0.014407,0.010713,0.027594,-0.4569,-0.37379,-0.23724,-0.1697,0.44933,0.080413,0.415,1.0308,0.56275,0.38004,0.27326,-0.57347,0.059768,-0.61886,-0.85872,0.029026,-0.040157,-0.27464,0.30627,0.96938
0.0065052,0.015631,0.013373,0.019532,-0.49244,-0.33033,-0.14296,-0.18837,0.49352,0.14415,0.53715,0.97318,0.67005,0.33721,0.23824,-0.75148,0.072229,-0.49435,-0.55365,0.072944,-0.047646,-0.33092,0.24908,0.87185
0.0032146,0.022545,0.015091,0.012589,-0.53198,-0.31253,-0.12598,-0.21605,0.52065,0.24306,0.64542,0.92879,0.70471,0.27296,0.19631,-0.91123,0.088887,-0.29949,-0.25408,0.12128,-0.045525,-0.32389,0.15421,0.7473
-0.00071481,0.030221,0.016451,0.0086089,-0.56193,-0.33659,-0.1595,-0.25774,0.52154,0.33157,0.72964,0.87415,0.66105,0.19738,0.157,-1.0181,0.10468,-0.1007,0.024675,0.16902,-0.037824,-0.23258,0.076243,0.60136
-0.0031528,0.032397,0.017911,0.0083154,-0.57078,-0.3991,-0.1994,-0.3107,0.49102,0.36375,0.77925,0.80716,0.56426,0.12511,0.12226,-1.0671,0.11194,0.030678,0.27618,0.20777,-0.025629,-0.068867,0.061905,0.43846
-0.002895,0.026424,0.018998,0.011064,-0.55337,-0.48925,-0.21477,-0.3643,0.43183,0.31692,0.78433,0.73991,0.46096,0.072709,0.092046,-1.0803,0.1043,0.05301,0.49346,0.22886,-0.0082242,0.1215,0.11558,0.26072
-0.00070437,0.015318,0.018524,0.014836,-0.51044,-0.6016,-0.20202,-0.40691,0.3551,0.20339,0.73956,0.68193,0.39369,0.053345,0.070032,-1.0862,0.08123,-0.028747,0.66125,0.22789,0.014083,0.27817,0.19033,0.069802
0.0011805,0.0053523,0.015875,0.016917,-0.44606,-0.73854,-0.17594,-0.43434,0.27655,0.063306,0.64954,0.6286,0.37573,0.070344,0.06313,-1.0985,0.050019,-0.17059,0.76141,0.20784,0.038537,0.35524,0.20506,-0.13018
0.00077899,0.0013591,0.012189,0.015359,-0.36754,-0.90277,-0.14898,-0.45332,0.21008,-0.05712,0.53113,0.56237,0.38531,0.11355,0.074429,-1.1106,0.022877,-0.31346,0.79249,0.17876,0.061142,0.34216,0.075446,-0.33151
-0.0020154,0.0035962,0.010073,0.010346,-0.2883,-1.0887,-0.11816,-0.47771,0.1626,-0.12851,0.40923,0.46358,0.38369,0.1617,0.095993,-1.1093,0.010521,-0.40954,0.7883,0.15371,0.079377,0.26406,-0.25479,-0.52411
-0.005274,0.0083993,0.011731,0.0042049,-0.22894,-1.2802,-0.07051,-0.52121,0.13278,-0.14863,0.30722,0.32184,0.34252,0.19081,0.1093,-1.0923,0.016194,-0.43943,0.81468,0.14268,0.094403,0.16334,-0.79006,-0.69741
-0.0065211,0.01156,0.016966,-0.0002369,-0.21063,-1.4541,-6.5912e-005,-0.59138,0.11444,-0.13522,0.23814,0.14103,0.25918,0.18474,0.09548,-1.075,0.034106,-0.41426,0.9376,0.14754,0.11141,0.076286,-1.4701,-0.84075
-0.0047111,0.01134,0.022884,-0.0017141,-0.24176,-1.5844,0.080179,-0.68738,0.10166,-0.10843,0.20241,-0.062084,0.15053,0.14192,0.049075,-1.0816,0.053177,-0.36315,1.1809,0.16057,0.13783,0.019645,-2.174,-0.94198
-0.001087,0.0088529,0.025819,-0.0012402,-0.30771,-1.645,0.14301,-0.80005,0.09225,-0.07611,0.19262,-0.26292,0.034651,0.074418,-0.014665,-1.1279,0.063325,-0.31246,1.5053,0.16801,0.17998,-0.0077106,-2.7497,-0.98749
0.0018065,0.0061121,0.024059,-0.00088442,-0.37433,-1.6143,0.16437,-0.91292,0.087417,-0.031815,0.19989,-0.43544,-0.080687,0.00017772,-0.065517,-1.2116,0.06023,-0.26843,1.8276,0.15696,0.23878,-0.014043,-3.0678,-0.96655
0.0021763,0.0039553,0.019174,-0.0018234,-0.40683,-1.4867,0.1389,-1.005,0.088311,0.034728,0.21573,-0.55962,-0.19338,-0.066242,-0.074405,-1.3144,0.046317,-0.21476,2.0688,0.12255,0.3065,-0.0058713,-3.0806,-0.87939
0.00040782,0.001719,0.014814,-0.0034989,-0.39206,-1.2828,0.0817,-1.0572,0.092338,0.124,0.22822,-0.62887,-0.29417,-0.11853,-0.030012,-1.4109,0.028576,-0.1283,2.1969,0.071319,0.36662,0.013023,-2.851,-0.74347
-0.0013484,-0.0014145,0.013878,-0.0045272,-0.34754,-1.0506,0.017018,-1.0613,0.092061,0.22056,0.21805,-0.65335,-0.36209,-0.15671,0.054586,-1.4775,0.015268,-0.0023001,2.2362,0.018849,0.39841,0.037116,-2.5236,-0.59097
-0.0011211,-0.0050352,0.016285,-0.0042698,-0.30953,-0.84826,-0.035998,-1.0255,0.0778,0.29871,0.16116,-0.6556,-0.37623,-0.18117,0.14904,-1.4954,0.012883,0.14034,2.2405,-0.017553,0.38535,0.056191,-2.2466,-0.45604
0.001049,-0.0075369,0.019096,-0.0034502,-0.30874,-0.71684,-0.070449,-0.97165,0.042592,0.33545,0.039705,-0.65871,-0.3346,-0.18802,0.22162,-1.4509,0.023632,0.25562,2.2533,-0.027498,0.32324,0.058371,-2.0901,-0.3586
0.0030213,-0.0074725,0.018918,-0.0033391,-0.35184,-0.66151,-0.089603,-0.92266,-0.013484,0.32189,-0.14431,-0.67379,-0.26226,-0.16934,0.25411,-1.3384,0.043801,0.30383,2.2852,-0.012733,0.22321,0.037378,-2.0172,-0.29582
0.0024084,-0.0048716,0.014714,-0.0045093,-0.42178,-0.65511,-0.1003,-0.88963,-0.082322,0.26656,-0.36292,-0.69478,-0.19909,-0.11801,0.24753,-1.1651,0.064251,0.2735,2.3163,0.014156,0.10749,-0.0017255,-1.9279,-0.24775
-0.001151,-0.0012966,0.0088132,-0.0064375,-0.49416,-0.66086,-0.10734,-0.86727,-0.15087,0.19024,-0.56939,-0.7045,-0.17483,-0.033261,0.21733,-0.95475,0.074172,0.18639,2.3145,0.036888,4.2016e-005,-0.04302,-1.7414,-0.19278
-0.0053152,0.0013388,0.0053143,-0.0081531,-0.55466,-0.65573,-0.11081,-0.84215,-0.20638,0.11679,-0.71647,-0.68784,-0.19067,0.076891,0.18234,-0.74282,0.067028,0.081686,2.2514,0.044173,-0.082384,-0.066789,-1.4531,-0.12108
-0.0067304,0.0021009,0.0070487,-0.0090179,-0.60382,-0.63616,-0.1057,-0.80653,-0.24063,0.065184,-0.77559,-0.64306,-0.22103,0.19755,0.15451,-0.56558,0.045069,-0.0067169,2.1091,0.03462,-0.13435,-0.059646,-1.1235,-0.036767
-0.0038245,0.0014686,0.013407,-0.0087934,-0.6479,-0.60404,-0.083707,-0.76576,-0.25101,0.045465,-0.74648,-0.58356,-0.23319,0.31159,0.13418,-0.44696,0.018707,-0.061827,1.8809,0.015139,-0.16014,-0.022643,-0.81745,0.050246
0.0016292,0.00071581,0.020654,-0.0071983,-0.68669,-0.54869,-0.03755,-0.73291,-0.23878,0.057933,-0.65271,-0.52931,-0.20954,0.40412,0.1116,-0.39096,0.00036766,-0.077892,1.5729,-0.0053438,-0.16923,0.026957,-0.54955,0.13268
0.005622,0.00091444,0.02449,-0.0038458,-0.70989,-0.44386,0.033,-0.7158,-0.20713,0.093948,-0.52767,-0.49393,-0.1575,0.46474,0.072888,-0.38233,-0.003178,-0.04713,1.2063,-0.021937,-0.17227,0.062192,-0.28548,0.20654
0.0049435,0.0023133,0.022947,0.0010834,-0.70473,-0.26585,0.11758,-0.70856,-0.161,0.13735,-0.40034,-0.47604,-0.10383,0.48695,0.0069311,-0.39369,0.0055857,0.044811,0.81324,-0.035421,-0.17882,0.059217,0.0091282,0.26553
-0.00026812,0.004372,0.017548,0.0061868,-0.66683,-0.019901,0.19838,-0.69591,-0.10809,0.16722,-0.28897,-0.46064,-0.080777,0.46632,-0.089311,-0.39491,0.017921,0.20669,0.4258,-0.049194,-0.196,0.010161,0.32454,0.29845
-0.0065454,0.0062499,0.011992,0.0092614,-0.60438,0.24681,0.25986,-0.66695,-0.058908,0.16329,-0.20368,-0.42941,-0.11333,0.3994,-0.20897,-0.36098,0.025743,0.42116,0.064234,-0.065033,-0.22656,-0.071907,0.61528,0.29604
-0.0096934,0.0073901,0.0094483,0.008832,-0.53293,0.45907,0.29882,-0.62647,-0.023626,0.11377,-0.15252,-0.37338,-0.21148,0.28517,-0.33755,-0.27688,0.026742,0.6348,-0.26573,-0.081652,-0.26706,-0.15997,0.85556,0.26248
-0.0079012,0.0078932,0.010429,0.0055095,-0.46639,0.54913,0.32689,-0.59384,-0.0073564,0.02264,-0.14383,-0.29951,-0.36658,0.12894,-0.45836,-0.13934,0.023974,0.77295,-0.56504,-0.096976,-0.30791,-0.22788,1.0868,0.21928
-0.0029249,0.0084663,0.012684,0.0018079,-0.41175,0.49313,0.36257,-0.58987,-0.0072017,-0.088643,-0.18218,-0.22639,-0.55176,-0.054217,-0.55855,0.043653,0.021196,0.77584,-0.83125,-0.11144,-0.33688,-0.26261,1.4042,0.19394
0.0014767,0.0098942,0.013024,0.00040864,-0.37002,0.32593,0.41842,-0.62168,-0.014092,-0.18855,-0.26167,-0.17138,-0.72917,-0.24022,-0.63241,0.25487,0.018738,0.6339,-1.0565,-0.12879,-0.34497,-0.26519,1.8842,0.20008
0.0024862,0.012305,0.0096826,0.002335,-0.33957,0.12534,0.49307,-0.67658,-0.018554,-0.24986,-0.36361,-0.13753,-0.86454,-0.40257,-0.68028,0.47103,0.013513,0.39643,-1.2349,-0.1536,-0.33126,-0.2414,2.5098,0.22514
0.00022441,0.01481,0.0035508,0.0065694,-0.31762,-0.024534,0.5743,-0.72867,-0.016259,-0.26298,-0.46237,-0.10926,-0.94284,-0.52167,-0.70427,0.66792,0.0023727,0.14336,-1.3694,-0.1878,-0.30342,-0.19258,3.1602,0.23717
-0.002601,0.016009,-0.0024659,0.01124,-0.29922,-0.068504,0.65013,-0.75237,-0.009285,-0.23916,-0.53612,-0.060518,-0.9735,-0.59059,-0.70445,0.82787,-0.015101,-0.063008,-1.468,-0.22962,-0.27325,-0.1167,3.6776,0.20609
-0.002905,0.015179,-0.0053945,0.015103,-0.27712,0.0053681,0.71875,-0.73384,-0.0025472,-0.20083,-0.57477,0.029444,-0.97948,-0.61339,-0.67859,0.94694,-0.037057,-0.21214,-1.5301,-0.27509,-0.2502,-0.019219,3.9614,0.12288
0.00049271,0.013235,-0.0040529,0.018025,-0.24495,0.17681,0.78891,-0.67418,0.0012763,-0.16614,-0.57929,0.16268,-0.97702,-0.59782,-0.62562,1.0367,-0.061733,-0.33905,-1.5342,-0.32002,-0.2369,0.078178,4.0183,0.0020593
0.006126,0.01241,0.00037794,0.020404,-0.20164,0.41622,0.87046,-0.58482,0.0041036,-0.13971,-0.55452,0.32012,-0.96232,-0.5497,-0.54981,1.1165,-0.088048,-0.48143,-1.4417,-0.35972,-0.22946,0.14337,3.9353,-0.13173
0.011015,0.014576,0.0052928,0.022469,-0.15274,0.69883,0.9626,-0.47984,0.010527,-0.11703,-0.50308,0.4709,-0.91701,-0.47421,-0.46213,1.1981,-0.11299,-0.6343,-1.2181,-0.38729,-0.22143,0.15362,3.8044,-0.25944
0.012692,0.019428,0.0083177,0.024212,-0.10673,0.9988,1.0491,-0.37079,0.023641,-0.097962,-0.42655,0.58671,-0.82819,-0.38223,-0.37744,1.2746,-0.12883,-0.74085,-0.86144,-0.39364,-0.20809,0.11438,3.6622,-0.37258
0.010693,0.024211,0.0085445,0.025675,-0.069772,1.2714,1.1048,-0.26615,0.042145,-0.095954,-0.33201,0.65206,-0.70567,-0.29325,-0.30873,1.3223,-0.12486,-0.73144,-0.41843,-0.37156,-0.18815,0.059843,3.4869,-0.4669
0.0066038,0.025627,0.0066688,0.026881,-0.043591,1.4452,1.1086,-0.17417,0.060738,-0.13272,-0.23535,0.66604,-0.58109,-0.22851,-0.26166,1.3182,-0.094561,-0.58293,0.025348,-0.32198,-0.16245,0.031824,3.2426,-0.53564
0.00282,0.022623,0.0042043,0.027362,-0.028272,1.4418,1.0551,-0.10481,0.072974,-0.22079,-0.1553,0.63754,-0.48948,-0.19708,-0.23168,1.2595,-0.043154,-0.35114,0.37719,-0.25693,-0.13184,0.052302,2.9228,-0.57192
0.0010017,0.017702,0.0024907,0.026051,-0.026006,1.2181,0.95782,-0.067167,0.074207,-0.34841,-0.10142,0.57908,-0.44896,-0.1867,-0.20549,1.1698,0.012007,-0.14702,0.57584,-0.19548,-0.09653,0.11085,2.5562,-0.57782
0.0012764,0.015331,0.0021275,0.022177,-0.041001,0.80224,0.84166,-0.063163,0.06282,-0.48145,-0.066835,0.50209,-0.4551,-0.16955,-0.16658,1.0839,0.050651,-0.069043,0.61551,-0.15402,-0.057468,0.17603,2.1759,-0.56842
0.0025979,0.018424,0.0029613,0.016536,-0.074903,0.29381,0.73146,-0.082295,0.039827,-0.58325,-0.033951,0.41311,-0.49213,-0.12148,-0.10322,1.0238,0.062681,-0.13912,0.54272,-0.13751,-0.017866,0.22,1.7894,-0.56292
0.0037728,0.025738,0.00435,0.011725,-0.12245,-0.18037,0.64229,-0.1037,0.0080339,-0.63827,0.010184,0.31049,-0.54848,-0.041147,-0.015152,0.9856,0.054932,-0.28798,0.42864,-0.13775,0.017103,0.23564,1.3802,-0.56862
0.0042541,0.032469,0.0054505,0.01058,-0.17253,-0.52759,0.5766,-0.10671,-0.028325,-0.66087,0.061518,0.18358,-0.62163,0.046248,0.085025,0.94672,0.045586,-0.40055,0.33399,-0.13982,0.042978,0.23429,0.93879,-0.57335
0.004166,0.033795,0.0055284,0.013874,-0.21475,-0.72704,0.52806,-0.083554,-0.063752,-0.6818,0.1005,0.018085,-0.70956,0.10435,0.17708,0.88764,0.050127,-0.38917,0.28665,-0.13173,0.059163,0.2298,0.48992,-0.55599
0.0037951,0.028573,0.0043711,0.019332,-0.24595,-0.82039,0.48836,-0.044375,-0.09234,-0.7224,0.1067,-0.19245,-0.79925,0.10864,0.24205,0.80801,0.069804,-0.24493,0.28213,-0.11069,0.069943,0.22551,0.085639,-0.50788
0.0032149,0.020171,0.002634,0.023105,-0.2708,-0.86818,0.45267,-0.0095594,-0.10964,-0.77608,0.07518,-0.43568,-0.86561,0.059995,0.26915,0.72436,0.09166,-0.035775,0.30121,-0.082773,0.082238,0.21525,-0.23395,-0.44564
0.0024218,0.013765,0.001711,0.022634,-0.29622,-0.90947,0.42165,0.0054782,-0.11469,-0.8103,0.022726,-0.67879,-0.88358,-0.020326,0.25702,0.65385,0.099615,0.14123,0.32895,-0.057527,0.10157,0.19441,-0.4787,-0.40155
0.001691,0.012337,0.0029285,0.018505,-0.32486,-0.95369,0.40009,0.0011028,-0.11061,-0.78669,-0.018843,-0.87942,-0.84373,-0.10827,0.21051,0.60044,0.087104,0.21745,0.36111,-0.04196,0.12919,0.1679,-0.71029,-0.39766
0.0015727,0.014612,0.0064878,0.013725,-0.35351,-1.0007,0.39367,-0.0083968,-0.10304,-0.68413,-0.015871,-1.0026,-0.75879,-0.1922,0.13748,0.55539,0.061122,0.1836,0.39676,-0.037345,0.16217,0.14643,-1.0018,-0.42588
0.0023542,0.016488,0.011027,0.011109,-0.37697,-1.0602,0.40545,-0.0064052,-0.096902,-0.50976,0.055618,-1.0322,-0.65663,-0.27413,0.048874,0.50876,0.035385,0.081672,0.42728,-0.039625,0.19581,0.13502,-1.383,-0.45285
0.003504,0.014569,0.01435,0.011062,-0.39281,-1.1467,0.43298,0.016037,-0.093666,-0.29363,0.20333,-0.97068,-0.5664,-0.35754,-0.039558,0.45811,0.019561,-0.027735,0.43414,-0.042224,0.22567,0.12613,-1.8104,-0.44696
0.0037875,0.0087946,0.014908,0.011586,-0.40196,-1.2565,0.46736,0.060551,-0.090967,-0.073973,0.41577,-0.83021,-0.50796,-0.43285,-0.1079,0.40522,0.013964,-0.097542,0.39979,-0.039479,0.24745,0.10469,-2.1824,-0.40467
0.0021552,0.0021356,0.012876,0.010292,-0.4052,-1.354,0.49517,0.12943,-0.085133,0.11602,0.66216,-0.6262,-0.48926,-0.47324,-0.13736,0.34583,0.013193,-0.10906,0.32353,-0.029198,0.25544,0.061071,-2.3911,-0.35314
-0.0013013,-0.0021,0.0098959,0.0065256,-0.39988,-1.39,0.50324,0.23015,-0.0749,0.25461,0.89744,-0.37732,-0.50865,-0.44567,-0.11775,0.26576,0.013813,-0.069176,0.22891,-0.013182,0.24228,-4.8307e-005,-2.3792,-0.32686
-0.0052215,-0.0028512,0.0076969,0.0017916,-0.38091,-1.3393,0.48393,0.36854,-0.063502,0.33277,1.0744,-0.10871,-0.55677,-0.33099,-0.052287,0.15029,0.018179,0.0005106,0.1537,0.0046491,0.20182,-0.062779,-2.171,-0.33873
-0.0078859,-0.0016217,0.0067743,-0.0016722,-0.34549,-1.2267,0.43791,0.535,-0.057231,0.35421,1.1602,0.15011,-0.6166,-0.14035,0.043365,-0.00058597,0.031097,0.073955,0.12648,0.021436,0.13393,-0.11195,-1.8607,-0.37047
-0.0084493,-0.00057503,0.0062559,-0.002761,-0.29672,-1.1146,0.37249,0.69768,-0.061212,0.33489,1.1478,0.37491,-0.66512,0.083056,0.14679,-0.16643,0.053277,0.12786,0.14488,0.037488,0.047321,-0.14303,-1.5644,-0.38932
-0.0074777,-0.00043015,0.0049843,-0.0022309,-0.24255,-1.0632,0.29759,0.8127,-0.075492,0.29886,1.0558,0.55624,-0.67967,0.27944,0.23574,-0.31755,0.078474,0.1474,0.17203,0.055339,-0.042562,-0.16181,-1.3618,-0.37459
-0.006372,-0.00016698,0.0027526,-0.0018989,-0.19051,-1.095,0.22311,0.84722,-0.094562,0.26908,0.91615,0.69895,-0.64738,0.39685,0.2937,-0.43481,0.09729,0.13085,0.15665,0.076242,-0.12019,-0.17552,-1.2608,-0.33098
-0.0062076,0.0013639,0.00054862,-0.0032199,-0.14322,-1.1921,0.15985,0.79924,-0.11075,0.25694,0.75824,0.81073,-0.57189,0.41127,0.31348,-0.52066,0.10419,0.0905,0.066247,0.097277,-0.17688,-0.18464,-1.2068,-0.27934
-0.0069592,0.0037377,-0.00035222,-0.0064123,-0.098416,-1.3217,0.12124,0.69946,-0.11867,0.25837,0.59992,0.88995,-0.47221,0.33208,0.29865,-0.59169,0.1014,0.047327,-0.087795,0.11235,-0.2135,-0.18334,-1.1302,-0.23663
-0.0076816,0.0050155,0.00046461,-0.010573,-0.053152,-1.4603,0.12028,0.59394,-0.11718,0.26104,0.44945,0.92434,-0.37418,0.19206,0.26198,-0.65932,0.096597,0.020801,-0.25029,0.11711,-0.23745,-0.16761,-0.99945,-0.20427
-0.0073907,0.0035857,0.0022284,-0.01439,-0.0080814,-1.5936,0.16011,0.52023,-0.10754,0.25821,0.31285,0.90154,-0.2996,0.030339,0.22001,-0.71611,0.096704,0.019252,-0.34888,0.11372,-0.25664,-0.14275,-0.84331,-0.17299
-0.005877,-7.4824e-005,0.0036974,-0.016844,0.032118,-1.6968,0.22502,0.49301,-0.090254,0.2584,0.1979,0.82039,-0.25916,-0.12137,0.18543,-0.74034,0.10323,0.036621,-0.33166,0.11061,-0.27475,-0.12251,-0.72426,-0.13518
-0.0038392,-0.0035931,0.0041507,-0.017636,0.062495,-1.7242,0.28243,0.50554,-0.064004,0.28263,0.11111,0.69242,-0.25146,-0.2439,0.16126,-0.71491,0.11226,0.057162,-0.19352,0.11619,-0.29069,-0.1201,-0.68551,-0.090119
-0.0023238,-0.004812,0.0037333,-0.017273,0.082654,-1.6262,0.30029,0.54149,-0.027697,0.35092,0.051924,0.53427,-0.26674,-0.32897,0.14133,-0.64481,0.11791,0.064411,0.023572,0.13122,-0.30151,-0.13897,-0.71227,-0.037909
-0.0019564,-0.0038354,0.0029623,-0.016767,0.098999,-1.385,0.26931,0.58609,0.016764,0.4688,0.012325,0.36192,-0.29205,-0.37554,0.11696,-0.55851,0.1159,0.048763,0.25493,0.14648,-0.30576,-0.17177,-0.73817,0.028604
-0.0025196,-0.0029894,0.0020438,-0.016919,0.12287,-1.036,0.21121,0.63003,0.064444,0.62401,-0.015437,0.19439,-0.31548,-0.38677,0.085238,-0.49219,0.1048,0.010449,0.44689,0.14896,-0.30483,-0.20784,-0.69251,0.12216
-0.0031386,-0.0046604,0.00075547,-0.017505,0.16572,-0.65269,0.16193,0.66747,0.11067,0.79399,-0.029608,0.060358,-0.32864,-0.36725,0.05234,-0.46892,0.085545,-0.041374,0.58017,0.13208,-0.30173,-0.24198,-0.5528,0.2493
-0.002927,-0.0090301,-0.001035,-0.017112,0.23382,-0.30332,0.13981,0.69384,0.15459,0.95597,-0.018929,-0.0063234,-0.32728,-0.31996,0.029037,-0.48705,0.060481,-0.090993,0.67025,0.10151,-0.29897,-0.27568,-0.36336,0.40002
-0.0016717,-0.013844,-0.002881,-0.014087,0.32473,-0.014417,0.12505,0.70667,0.19911,1.0907,0.024407,0.013251,-0.31019,-0.24499,0.021642,-0.52352,0.032876,-0.11916,0.74635,0.071305,-0.29714,-0.30933,-0.20657,0.55006
-7.4457e-005,-0.016398,-0.0039547,-0.0081583,0.42715,0.23267,0.071014,0.70835,0.24679,1.1797,0.088109,0.1016,-0.27734,-0.14315,0.025393,-0.54649,0.0060306,-0.10799,0.82341,0.052825,-0.29488,-0.33298,-0.14736,0.67452
0.00069553,-0.015833,-0.0038241,-0.0014089,0.52431,0.4729,-0.05823,0.70715,0.29506,1.2039,0.13564,0.20482,-0.22861,-0.023472,0.025634,-0.52776,-0.018256,-0.048005,0.8862,0.045636,-0.28969,-0.32558,-0.18941,0.76053
-9.19e-005,-0.013602,-0.0029859,0.002498,0.59995,0.72325,-0.25426,0.71454,0.33541,1.1495,0.12317,0.26211,-0.16472,0.091026,0.0064519,-0.44938,-0.040822,0.055564,0.89729,0.038107,-0.2789,-0.26646,-0.27201,0.80831
-0.0020311,-0.011839,-0.0024635,0.00065349,0.64438,0.96956,-0.46471,0.74018,0.35752,1.0187,0.028543,0.24636,-0.089986,0.16666,-0.038922,-0.30614,-0.064299,0.18292,0.82452,0.017391,-0.26039,-0.15181,-0.30813,0.82242
-0.0037471,-0.011345,-0.0027285,-0.0068203,0.65746,1.1792,-0.63061,0.78742,0.35507,0.83485,-0.12928,0.18361,-0.014459,0.17283,-0.10292,-0.1075,-0.090283,0.30857,0.66901,-0.01959,-0.23335,-0.0035845,-0.23737,0.80466
-0.0039399,-0.011132,-0.0030237,-0.016384,0.6468,1.3233,-0.73196,0.85166,0.32873,0.63378,-0.29753,0.13292,0.047513,0.099143,-0.16711,0.12136,-0.1168,0.41452,0.47214,-0.063395,-0.19907,0.1374,-0.05901,0.75659
-0.0025089,-0.0098026,-0.0019332,-0.023124,0.62246,1.389,-0.80419,0.92169,0.28446,0.44636,-0.42096,0.1402,0.083387,-0.03572,-0.21211,0.34368,-0.13882,0.49808,0.29263,-0.099613,-0.16134,0.23133,0.17494,0.6879
-0.00074326,-0.0072319,0.0011294,-0.023912,0.59156,1.3774,-0.91137,0.98341,0.22931,0.28424,-0.47531,0.20148,0.090308,-0.19048,-0.22766,0.52391,-0.15206,0.56709,0.16581,-0.11996,-0.1256,0.25957,0.39988,0.61907
-0.00030324,-0.0048425,0.0048633,-0.019438,0.55633,1.2962,-1.0958,1.0246,0.16855,0.14048,-0.47902,0.26427,0.079319,-0.32007,-0.21672,0.64509,-0.1572,0.62542,0.072172,-0.1275,-0.096913,0.23214,0.58306,0.57185
-0.001818,-0.0043055,0.0065905,-0.013644,0.51666,1.157,-1.3412,1.0398,0.10567,0.0036675,-0.4752,0.26531,0.071421,-0.39515,-0.1915,0.71951,-0.1604,0.66129,-0.060205,-0.13194,-0.077429,0.17843,0.74186,0.55434
-0.0043368,-0.006031,0.0041381,-0.010957,0.4745,0.97755,-1.5724,1.0332,0.043815,-0.12733,-0.49863,0.17478,0.085908,-0.41076,-0.16487,0.78203,-0.16898,0.65059,-0.31442,-0.13981,-0.065134,0.12848,0.92475,0.55398
-0.0061219,-0.0088871,-0.0023642,-0.013315,0.43622,0.78296,-1.6884,1.0187,-0.01378,-0.2405,-0.55259,0.014111,0.12735,-0.38072,-0.14337,0.86657,-0.18515,0.57608,-0.72587,-0.14792,-0.054918,0.098253,1.1707,0.54597
-0.0060458,-0.011268,-0.010248,-0.019097,0.41036,0.60056,-1.606,1.0148,-0.065246,-0.32169,-0.61202,-0.16287,0.18021,-0.32446,-0.12636,0.97988,-0.20281,0.44794,-1.2422,-0.14525,-0.04156,0.087702,1.4774,0.51064
-0.0043412,-0.012373,-0.015868,-0.024608,0.402,0.45353,-1.294,1.0347,-0.11147,-0.36896,-0.64868,-0.30745,0.21635,-0.25624,-0.1105,1.0922,-0.21055,0.30722,-1.7327,-0.12125,-0.022674,0.090494,1.799,0.4453
-0.0021481,-0.012556,-0.016804,-0.026915,0.40833,0.36025,-0.78914,1.0776,-0.15542,-0.39763,-0.65793,-0.40269,0.21248,-0.1828,-0.094448,1.1546,-0.19883,0.20505,-2.0488,-0.073685,0.00045283,0.1052,2.073,0.36135
-0.00046547,-0.012674,-0.013117,-0.025836,0.41946,0.34038,-0.19278,1.1245,-0.19933,-0.43195,-0.66544,-0.46204,0.1664,-0.10725,-0.079433,1.1329,-0.16648,0.1711,-2.1059,-0.010603,0.024515,0.13776,2.2518,0.27045
0.0004384,-0.013238,-0.0069507,-0.023659,0.42509,0.41793,0.35513,1.1441,-0.24238,-0.49036,-0.70735,-0.50628,0.10045,-0.03343,-0.065713,1.034,-0.12148,0.19571,-1.9357,0.054206,0.046669,0.19313,2.3195,0.17237
0.00076869,-0.014122,-0.00098378,-0.023015,0.42222,0.61123,0.72285,1.1083,-0.28134,-0.57538,-0.79747,-0.54044,0.048241,0.033313,-0.049928,0.90415,-0.075758,0.24137,-1.6744,0.10836,0.06558,0.26388,2.288,0.054804
0.00066796,-0.014842,0.0030278,-0.024788,0.41767,0.91144,0.84019,1.0071,-0.31418,-0.67357,-0.90616,-0.54954,0.032849,0.088084,-0.027586,0.79836,-0.037676,0.27499,-1.4904,0.14602,0.080396,0.32696,2.1827,-0.09542
0.00015117,-0.014933,0.0047437,-0.027812,0.42231,1.2662,0.72892,0.85505,-0.34315,-0.76269,-0.96996,-0.51514,0.051916,0.12849,0.00064793,0.74416,-0.007734,0.29409,-1.4941,0.16852,0.089331,0.35335,2.0318,-0.27913
-0.00049247,-0.014119,0.0047945,-0.030399,0.44088,1.5872,0.4869,0.68346,-0.37407,-0.81942,-0.92974,-0.43816,0.081017,0.15539,0.025346,0.72738,0.019791,0.32374,-1.6861,0.18101,0.09011,0.32501,1.8619,-0.47909
-0.00056765,-0.012378,0.0040916,-0.032082,0.46552,1.7851,0.23115,0.52348,-0.4113,-0.82431,-0.77349,-0.34913,0.093044,0.17297,0.032792,0.71027,0.050676,0.38587,-1.9695,0.18785,0.082481,0.24637,1.6929,-0.66446
0.00038889,-0.010086,0.0034775,-0.033838,0.47939,1.8118,0.03736,0.39194,-0.45211,-0.76557,-0.55227,-0.29638,0.0788,0.18804,0.015448,0.66592,0.084674,0.46743,-2.2107,0.18984,0.070318,0.14174,1.5295,-0.80119
0.0017187,-0.0081307,0.0036687,-0.036643,0.46866,1.682,-0.082955,0.28888,-0.48555,-0.64423,-0.35396,-0.3195,0.052828,0.20683,-0.020413,0.59992,0.11393,0.51702,-2.3018,0.18493,0.060383,0.04026,1.3545,-0.86173
0.0016257,-0.0076558,0.0050526,-0.039926,0.43374,1.4578,-0.1565,0.20602,-0.49761,-0.47885,-0.2493,-0.42602,0.040701,0.22897,-0.057658,0.54176,0.12719,0.4765,-2.1937,0.17187,0.057743,-0.040413,1.1364,-0.83089
-0.0015108,-0.0094003,0.0072171,-0.041674,0.39054,1.2113,-0.20288,0.13723,-0.47981,-0.30467,-0.24733,-0.5881,0.05944,0.24245,-0.080497,0.51555,0.11719,0.32447,-1.8953,0.15353,0.061526,-0.10009,0.85165,-0.7081
-0.0074483,-0.013025,0.0087598,-0.040308,0.35944,0.99028,-0.21232,0.081514,-0.43518,-0.16353,-0.29286,-0.76119,0.10793,0.2262,-0.085845,0.51684,0.086357,0.09676,-1.4611,0.13679,0.065252,-0.1488,0.50866,-0.50832
-0.013651,-0.01701,0.0080198,-0.036589,0.35004,0.80958,-0.16373,0.036931,-0.37734,-0.088008,-0.3082,-0.91075,0.17432,0.1624,-0.083918,0.51597,0.046684,-0.13394,-0.98111,0.1283,0.062271,-0.19346,0.15106,-0.26186
-0.016818,-0.019363,0.0045068,-0.03362,0.35298,0.66504,-0.060369,-0.0070375,-0.32293,-0.088356,-0.2475,-1.0263,0.25146,0.051845,-0.087618,0.48341,0.01329,-0.30542,-0.56851,0.12871,0.051875,-0.22902,-0.1662,-0.010684
-0.015296,-0.018797,-0.00023756,-0.034609,0.3453,0.55044,0.055398,-0.070054,-0.28258,-0.14989,-0.12204,-1.1131,0.34445,-0.079516,-0.1002,0.41321,-0.0046923,-0.40557,-0.32761,0.13037,0.040466,-0.24013,-0.4157,0.20129
-0.010369,-0.015695,-0.0035135,-0.040178,0.30541,0.46188,0.12564,-0.17198,-0.25627,-0.24078,0.020761,-1.1692,0.46286,-0.18958,-0.11167,0.32421,-0.0098781,-0.47525,-0.3048,0.121,0.036319,-0.21107,-0.62455,0.34304
-0.0053158,-0.012213,-0.0037026,-0.047515,0.22697,0.39146,0.11836,-0.32046,-0.23569,-0.3236,0.1441,-1.1709,0.6057,-0.23944,-0.10598,0.24059,-0.014708,-0.57337,-0.45185,0.091821,0.0424,-0.13699,-0.87074,0.4093
-0.0029845,-0.011276,-0.001899,-0.052228,0.12237,0.32467,0.050045,-0.50413,-0.21134,-0.36379,0.25307,-1.0805,0.75447,-0.21017,-0.07169,0.17274,-0.032517,-0.73011,-0.63714,0.044455,0.053641,-0.030374,-1.2499,0.42151
-0.0039002,-0.014826,-0.0011272,-0.051551,0.014363,0.24985,-0.029602,-0.69611,-0.17903,-0.3343,0.38417,-0.8739,0.8818,-0.10835,-0.0078709,0.1168,-0.067402,-0.92197,-0.7115,-0.0084146,0.061017,0.07967,-1.8308,0.41208
-0.0063307,-0.022274,-0.003517,-0.046385,-0.077256,0.17219,-0.075845,-0.86561,-0.14166,-0.22115,0.56404,-0.56555,0.96813,0.038344,0.076777,0.070678,-0.11012,-1.0857,-0.59139,-0.049625,0.058522,0.15523,-2.6203,0.39904
-0.0080468,-0.030324,-0.0080128,-0.040596,-0.14497,0.11663,-0.077412,-0.99089,-0.10565,-0.032681,0.77474,-0.21071,1.0113,0.18827,0.16699,0.046593,-0.14335,-1.16,-0.30237,-0.067125,0.046744,0.1628,-3.5494,0.36954
-0.0081705,-0.034722,-0.01104,-0.038132,-0.19372,0.11298,-0.055832,-1.0672,-0.075704,0.19265,0.95646,0.11792,1.0216,0.2935,0.24268,0.063876,-0.15294,-1.1266,0.048487,-0.060365,0.030493,0.088557,-4.4808,0.28843
-0.0076348,-0.033077,-0.009848,-0.040198,-0.23349,0.17435,-0.043566,-1.1066,-0.052045,0.39055,1.0458,0.3624,1.0073,0.31257,0.28143,0.12739,-0.13735,-1.0214,0.34988,-0.039648,0.013865,-0.051246,-5.2365,0.13163
-0.0080842,-0.026796,-0.0054771,-0.044574,-0.27061,0.28757,-0.064153,-1.1312,-0.031798,0.49355,1.0177,0.4992,0.96573,0.23031,0.26581,0.21436,-0.10854,-0.90955,0.55469,-0.019407,-0.0017024,-0.21223,-5.6421,-0.078588
-0.010305,-0.020403,-0.0023331,-0.047442,-0.30383,0.42348,-0.1288,-1.1615,-0.012514,0.46483,0.89926,0.53698,0.88628,0.074893,0.19457,0.2868,-0.083913,-0.84183,0.69108,-0.010074,-0.014543,-0.33912,-5.5802,-0.26674
-0.013478,-0.018397,-0.0044067,-0.0462,-0.3273,0.55698,-0.24389,-1.207,0.0057955,0.32371,0.74712,0.50085,0.7615,-0.085821,0.088977,0.32228,-0.075289,-0.8228,0.8149,-0.013447,-0.018815,-0.39094,-5.0375,-0.33923
-0.015709,-0.021952,-0.011457,-0.041111,-0.33765,0.67875,-0.41397,-1.2616,0.021966,0.14376,0.61249,0.41763,0.59567,-0.17655,-0.014314,0.33524,-0.082631,-0.81319,0.94722,-0.023554,-0.0049428,-0.35976,-4.1195,-0.24242
-0.015322,-0.028088,-0.018742,-0.034733,-0.33923,0.79015,-0.63368,-1.309,0.036767,0.020182,0.52018,0.31022,0.40372,-0.15915,-0.082483,0.36692,-0.096312,-0.7639,1.048,-0.031454,0.034211,-0.27051,-3.0187,-0.002906
-0.011934,-0.032055,-0.020749,-0.029815,-0.34291,0.88955,-0.87761,-1.3321,0.054286,0.023148,0.47259,0.19822,0.20353,-0.057185,-0.10485,0.44933,-0.10525,-0.65552,1.0441,-0.030486,0.096067,-0.16248,-1.9443,0.28236
-0.0067488,-0.030953,-0.01578,-0.027417,-0.359,0.96541,-1.1022,-1.3234,0.079561,0.16371,0.46545,0.098542,0.009763,0.061573,-0.0959,0.57389,-0.10438,-0.5122,0.8876,-0.019063,0.16649,-0.065795,-1.045,0.50235
-0.0019916,-0.025636,-0.0074268,-0.026612,-0.38942,1.003,-1.2631,-1.2857,0.11394,0.39111,0.49553,0.023721,-0.16632,0.13376,-0.080501,0.6932,-0.096354,-0.37897,0.59961,-0.00019911,0.22591,0.010565,-0.36804,0.59559
0.00014559,-0.01952,-0.0017626,-0.025714,-0.42563,0.9974,-1.3363,-1.2266,0.1521,0.62048,0.55433,-0.018917,-0.31406,0.14248,-0.073835,0.75618,-0.087333,-0.28116,0.26876,0.021016,0.25948,0.072911,0.12827,0.57679
-0.0013865,-0.015684,-0.0026979,-0.023751,-0.45424,0.95953,-1.326,-1.1486,0.18379,0.77287,0.61911,-0.025241,-0.42368,0.11906,-0.072822,0.74731,-0.081275,-0.20119,0.0040411,0.04002,0.26402,0.12775,0.52078,0.51108
-0.005837,-0.014861,-0.0093058,-0.020896,-0.46617,0.90999,-1.2545,-1.0462,0.1997,0.80584,0.65641,0.0078198,-0.49143,0.10511,-0.065057,0.69662,-0.077432,-0.094604,-0.12991,0.054015,0.24742,0.17254,0.8674,0.46063
-0.010889,-0.015806,-0.016996,-0.017656,-0.46192,0.86663,-1.1441,-0.91146,0.1975,0.72257,0.63969,0.080098,-0.52427,0.10986,-0.04525,0.6527,-0.072508,0.065745,-0.15659,0.061596,0.22167,0.20018,1.1842,0.44571
-0.013854,-0.017107,-0.021209,-0.013854,-0.44904,0.83689,-1.0064,-0.74571,0.18355,0.56067,0.56701,0.18216,-0.5373,0.10135,-0.02277,0.64274,-0.064742,0.25427,-0.18191,0.061715,0.1953,0.21084,1.4575,0.44514
-0.013231,-0.018407,-0.020589,-0.0086357,-0.43461,0.81961,-0.84591,-0.56568,0.16904,0.37064,0.46219,0.29213,-0.5429,0.039114,-0.013114,0.65379,-0.055779,0.39856,-0.33613,0.053272,0.17016,0.21719,1.6684,0.4263
-0.0095664,-0.019942,-0.01744,-0.0016527,-0.41979,0.81214,-0.67125,-0.39866,0.16314,0.19432,0.35704,0.38177,-0.53893,-0.08206,-0.021941,0.64953,-0.048489,0.42619,-0.69216,0.03616,0.14359,0.23492,1.8035,0.37404
-0.0049242,-0.021266,-0.015618,0.0057579,-0.40117,0.81495,-0.5004,-0.26794,0.16791,0.051323,0.26949,0.43007,-0.50608,-0.21804,-0.037585,0.60563,-0.042787,0.31798,-1.2081,0.013246,0.11287,0.26548,1.8501,0.29584
-0.0013152,-0.020867,-0.017695,0.010847,-0.37721,0.83029,-0.35445,-0.17945,0.17838,-0.062027,0.19581,0.43425,-0.41827,-0.30518,-0.039845,0.532,-0.033547,0.12647,-1.7342,-0.0083874,0.078191,0.28749,1.7931,0.20656
0.0006539,-0.01734,-0.023359,0.011389,-0.35292,0.85754,-0.24592,-0.12002,0.18755,-0.16074,0.12313,0.40887,-0.26044,-0.30937,-0.017279,0.46339,-0.013183,-0.054582,-2.0868,-0.018754,0.042323,0.26789,1.6301,0.11358
0.0018436,-0.011029,-0.029854,0.0077976,-0.33794,0.88987,-0.17278,-0.069154,0.19243,-0.25189,0.049928,0.37334,-0.041971,-0.25257,0.022836,0.42841,0.022568,-0.14629,-2.1483,-0.0091968,0.0082657,0.18721,1.3942,0.017861
0.0034464,-0.0043876,-0.033894,0.0034157,-0.33908,0.91451,-0.12354,-0.015382,0.19695,-0.31963,-0.0044263,0.33873,0.20262,-0.19496,0.060685,0.42462,0.070141,-0.12541,-1.9314,0.022373,-0.023014,0.059385,1.1584,-0.073944
0.0057913,-0.00042169,-0.033722,0.0023675,-0.35405,0.91564,-0.087883,0.03574,0.20949,-0.32673,-0.010933,0.30497,0.42615,-0.18876,0.080019,0.42031,0.11885,-0.02415,-1.5697,0.068526,-0.053232,-0.07147,1.0008,-0.14384
0.0081609,-0.00043922,-0.030033,0.0065249,-0.37207,0.87835,-0.062829,0.06779,0.2366,-0.23577,0.044955,0.26971,0.58688,-0.24145,0.079459,0.38007,0.15675,0.10301,-1.2417,0.11412,-0.085789,-0.15751,0.94782,-0.17419
0.0096288,-0.0030466,-0.02523,0.014119,-0.38121,0.79344,-0.049439,0.068051,0.27712,-0.039471,0.14525,0.23853,0.66302,-0.31536,0.069901,0.29173,0.17733,0.21499,-1.0796,0.14254,-0.12384,-0.17776,0.94097,-0.16779
0.0099754,-0.0052853,-0.021571,0.021272,-0.37643,0.66245,-0.045211,0.037941,0.32062,0.21988,0.24221,0.22459,0.65777,-0.35793,0.062513,0.17374,0.18208,0.29622,-1.1135,0.14313,-0.16811,-0.1497,0.86409,-0.156
0.009813,-0.0049042,-0.019607,0.025197,-0.36228,0.50051,-0.041377,-0.0091226,0.35171,0.45812,0.28216,0.23615,0.59432,-0.3342,0.059751,0.059488,0.17715,0.34415,-1.274,0.11608,-0.21525,-0.11332,0.62324,-0.18272
0.009956,-0.0018214,-0.018105,0.026318,-0.34852,0.3333,-0.029129,-0.059762,0.35786,0.58471,0.23627,0.26298,0.50422,-0.23723,0.057063,-0.026371,0.16745,0.35205,-1.4377,0.072349,-0.25776,-0.10101,0.22154,-0.27386
0.010775,0.0023262,-0.015546,0.027468,-0.34318,0.18711,-0.0091238,-0.1116,0.3364,0.54814,0.11998,0.27669,0.41469,-0.076587,0.051376,-0.080982,0.15349,0.30743,-1.485,0.029213,-0.28631,-0.11714,-0.23303,-0.4164
0.012107,0.0058789,-0.011923,0.030925,-0.34845,0.076729,0.0056407,-0.17376,0.29661,0.36465,-0.010963,0.24896,0.34072,0.13562,0.046195,-0.11843,0.13348,0.2077,-1.3444,0.0035521,-0.29431,-0.14167,-0.60103,-0.56491
0.013566,0.0084238,-0.0091635,0.036022,-0.36188,-0.0011059,-0.0021156,-0.25728,0.25529,0.11116,-0.087203,0.1756,0.28522,0.3843,0.04811,-0.15462,0.10818,0.075767,-1.0146,0.0052472,-0.28207,-0.15173,-0.81357,-0.67098
0.014744,0.010606,-0.009621,0.039553,-0.38033,-0.063598,-0.041056,-0.36426,0.22827,-0.1157,-0.062273,0.086238,0.24632,0.63974,0.059532,-0.19559,0.08322,-0.042991,-0.56334,0.032878,-0.25751,-0.14146,-0.92275,-0.71242
0.015097,0.012985,-0.013806,0.038662,-0.40251,-0.12951,-0.10471,-0.48509,0.22251,-0.251,0.06103,0.028854,0.22595,0.85289,0.076533,-0.23724,0.065945,-0.10456,-0.10079,0.073698,-0.23213,-0.12464,-1.0575,-0.7003
0.013905,0.015284,-0.019403,0.03361,-0.42816,-0.20699,-0.17708,-0.60478,0.23325,-0.29173,0.23077,0.038328,0.233,0.97112,0.094522,-0.27345,0.059459,-0.093435,0.26869,0.10908,-0.21454,-0.12095,-1.3171,-0.66136
0.010702,0.016761,-0.022721,0.027841,-0.45526,-0.28966,-0.24507,-0.71181,0.24748,-0.2873,0.3747,0.11272,0.2777,0.96729,0.11508,-0.30389,0.059609,-0.031136,0.49859,0.124,-0.20565,-0.13955,-1.6843,-0.61341
0.0059732,0.017104,-0.021638,0.025202,-0.47888,-0.36254,-0.30566,-0.80187,0.25136,-0.29836,0.44106,0.21623,0.3608,0.85921,0.14518,-0.33498,0.058407,0.041506,0.62547,0.11565,-0.19878,-0.17252,-2.0256,-0.55455
0.0013521,0.016743,-0.017591,0.026769,-0.4932,-0.41265,-0.36151,-0.8751,0.23667,-0.35466,0.42493,0.30687,0.46517,0.70101,0.18792,-0.37447,0.051154,0.09416,0.74465,0.094975,-0.18393,-0.19944,-2.1779,-0.47237
-0.0011954,0.016227,-0.014693,0.030134,-0.49559,-0.43694,-0.40976,-0.93205,0.20289,-0.44236,0.36237,0.36647,0.55698,0.55,0.23386,-0.42541,0.04059,0.12539,0.94477,0.078725,-0.15249,-0.19646,-2.0571,-0.36165
-0.00077069,0.015489,-0.016398,0.031784,-0.48938,-0.44387,-0.43674,-0.9733,0.15482,-0.52652,0.29881,0.40947,0.59741,0.43319,0.26293,-0.48472,0.03381,0.15625,1.243,0.076703,-0.099757,-0.14449,-1.7128,-0.23357
0.0016536,0.013964,-0.022374,0.030328,-0.48251,-0.44958,-0.42567,-1.0024,0.098666,-0.5859,0.25774,0.46472,0.5595,0.33863,0.25792,-0.54718,0.034574,0.20665,1.5674,0.08367,-0.025143,-0.036988,-1.2986,-0.10988
0.0039037,0.011486,-0.028344,0.02753,-0.48231,-0.47211,-0.37158,-1.0265,0.039837,-0.6273,0.23408,0.54779,0.44184,0.23697,0.21859,-0.61159,0.0384,0.27553,1.8021,0.082892,0.067826,0.11142,-0.9855,-0.0095958
0.0043717,0.0088656,-0.029296,0.026169,-0.48953,-0.52581,-0.28923,-1.052,-0.016826,-0.66741,0.21346,0.6474,0.27195,0.11502,0.16437,-0.68426,0.035675,0.34068,1.8625,0.059382,0.17067,0.26079,-0.87711,0.059138
0.003394,0.0072725,-0.023559,0.026877,-0.49581,-0.61618,-0.20511,-1.0778,-0.066117,-0.70182,0.19492,0.73614,0.097584,-0.006359,0.12243,-0.77682,0.020529,0.37572,1.7466,0.012724,0.26998,0.35569,-0.97335,0.096717
0.0029193,0.0068777,-0.01436,0.027128,-0.48704,-0.73573,-0.13934,-1.0929,-0.10306,-0.69465,0.19261,0.79343,-0.030836,-0.084164,0.11039,-0.8987,-0.0025308,0.36749,1.5254,-0.040908,0.35046,0.35113,-1.1915,0.10457
0.0046106,0.0062019,-0.0074788,0.023588,-0.45133,-0.86319,-0.09307,-1.084,-0.12509,-0.60362,0.21407,0.81962,-0.079078,-0.085977,0.1268,-1.0481,-0.020727,0.31929,1.286,-0.079503,0.40099,0.24122,-1.4202,0.081169
0.008042,0.0030871,-0.0069097,0.015676,-0.38664,-0.96898,-0.052548,-1.0459,-0.13376,-0.42067,0.23741,0.82984,-0.041,-0.018226,0.15499,-1.2073,-0.022776,0.24065,1.0746,-0.090533,0.4199,0.06905,-1.5707,0.024843
0.010745,-0.0033664,-0.012057,0.0068073,-0.30304,-1.0271,-0.005728,-0.98647,-0.13416,-0.19028,0.21295,0.83556,0.06174,0.071683,0.17563,-1.3459,-0.0083814,0.13759,0.88282,-0.079149,0.41563,-0.093969,-1.5994,-0.06061
0.010264,-0.011607,-0.018594,0.0018553,-0.21774,-1.028,0.044316,-0.92154,-0.132,0.0147,0.092881,0.83241,0.19147,0.12154,0.17763,-1.4325,0.010428,0.015313,0.68246,-0.063566,0.40193,-0.18825,-1.4998,-0.16364
0.006455,-0.018322,-0.022009,0.0029793,-0.1459,-0.98561,0.081312,-0.86327,-0.1308,0.14176,-0.13445,0.80484,0.31102,0.090627,0.16128,-1.4481,0.017269,-0.10976,0.47344,-0.061995,0.39078,-0.19824,-1.2798,-0.26797
0.0018545,-0.020533,-0.020797,0.0076854,-0.093552,-0.9321,0.090445,-0.81359,-0.1313,0.19108,-0.43474,0.74216,0.39598,-0.018569,0.1342,-1.3931,0.0024337,-0.2043,0.29948,-0.081308,0.38736,-0.15474,-0.94958,-0.35812
-0.00037925,-0.017457,-0.016918,0.011,-0.057024,-0.90253,0.071038,-0.76868,-0.13304,0.20469,-0.75078,0.65007,0.43762,-0.16625,0.10516,-1.2842,-0.0312,-0.23132,0.21718,-0.11492,0.38914,-0.10823,-0.5277,-0.42337
0.00080937,-0.010835,-0.013632,0.0097865,-0.028992,-0.91812,0.034653,-0.72991,-0.13623,0.22402,-1.0379,0.54744,0.43792,-0.30212,0.079607,-1.1429,-0.071015,-0.17706,0.24467,-0.1495,0.38814,-0.095193,-0.056265,-0.45865
0.003504,-0.0037122,-0.012818,0.005193,-0.0059896,-0.97775,-0.0097726,-0.70971,-0.14183,0.25509,-1.2818,0.4525,0.40358,-0.39273,0.057786,-0.98399,-0.10314,-0.070056,0.33533,-0.17385,0.37449,-0.12086,0.39894,-0.46314
0.0046543,0.0012638,-0.013843,0.0010286,0.0084075,-1.0625,-0.069313,-0.72481,-0.14964,0.27094,-1.4846,0.3715,0.34407,-0.43191,0.035064,-0.81157,-0.11995,0.027415,0.40279,-0.18344,0.34024,-0.16563,0.77279,-0.43808
0.002921,0.0029156,-0.01446,-0.00023716,0.0070283,-1.149,-0.16477,-0.78086,-0.15656,0.24572,-1.6364,0.29926,0.27322,-0.43144,0.0044179,-0.6238,-0.12195,0.054742,0.3812,-0.17884,0.28301,-0.20377,1.0339,-0.38501
-0.00017434,0.0015885,-0.012642,8.8329e-005,-0.013701,-1.2222,-0.31166,-0.86124,-0.1568,0.1854,-1.7003,0.22826,0.20885,-0.40444,-0.039062,-0.4205,-0.11401,-0.0079949,0.27501,-0.16171,0.20827,-0.21812,1.1961,-0.30528
-0.0018857,-0.0015083,-0.0079305,-0.0016326,-0.048361,-1.2782,-0.4983,-0.93053,-0.14478,0.1258,-1.6301,0.15607,0.16672,-0.35664,-0.093815,-0.20763,-0.10016,-0.1259,0.1585,-0.13235,0.12821,-0.20385,1.2928,-0.2014
-0.0010327,-0.0051151,-0.0016224,-0.0075556,-0.082867,-1.3188,-0.67903,-0.95179,-0.11889,0.10052,-1.4076,0.084343,0.15163,-0.29073,-0.15112,0.0036952,-0.080857,-0.23094,0.1228,-0.090715,0.056462,-0.16556,1.3336,-0.07936
0.00084401,-0.0084727,0.0040225,-0.015976,-0.10018,-1.3414,-0.79109,-0.90601,-0.083747,0.11055,-1.0688,0.013713,0.15341,-0.2158,-0.19973,0.20061,-0.054509,-0.26417,0.20841,-0.039042,0.0010854,-0.1145,1.2825,0.050153
0.0011339,-0.011427,0.0069399,-0.022693,-0.087722,-1.3364,-0.78741,-0.80145,-0.048896,0.12461,-0.69511,-0.056469,0.15336,-0.14958,-0.23319,0.3705,-0.021295,-0.20932,0.37324,0.016541,-0.039591,-0.06695,1.0818,0.17377
-0.0010376,-0.01413,0.0062061,-0.024718,-0.042309,-1.2924,-0.66598,-0.66834,-0.024595,0.11015,-0.3713,-0.12071,0.13797,-0.10908,-0.25418,0.50105,0.013901,-0.096861,0.52025,0.066925,-0.075119,-0.040081,0.70152,0.27968
-0.0037192,-0.016572,0.0024028,-0.022719,0.029211,-1.2053,-0.47692,-0.54414,-0.016552,0.066281,-0.14029,-0.16026,0.10988,-0.097512,-0.27217,0.58139,0.041924,0.019963,0.56586,0.10282,-0.11604,-0.043849,0.17035,0.36042
-0.0039656,-0.018314,-0.0027276,-0.019988,0.11327,-1.0828,-0.3009,-0.45871,-0.022635,0.028349,0.013392,-0.14776,0.087337,-0.10001,-0.29624,0.60627,0.0532,0.09746,0.49966,0.11798,-0.16665,-0.073795,-0.44283,0.41128
-0.00085878,-0.0187,-0.0071637,-0.019244,0.19491,-0.93985,-0.20977,-0.42573,-0.033539,0.040305,0.14031,-0.065323,0.092492,-0.093164,-0.32874,0.58115,0.042744,0.12075,0.392,0.11134,-0.22218,-0.11177,-1.0785,0.42567
0.0033007,-0.017478,-0.0095655,-0.020515,0.26304,-0.79026,-0.23171,-0.44185,-0.037303,0.11914,0.28293,0.076363,0.13776,-0.061066,-0.3649,0.52261,0.013259,0.10143,0.34345,0.08753,-0.27153,-0.13586,-1.7151,0.39342
0.0049511,-0.015413,-0.0097937,-0.021982,0.31365,-0.6417,-0.34169,-0.49191,-0.025331,0.24142,0.44595,0.23488,0.22001,-0.0045823,-0.39795,0.45144,-0.025737,0.060496,0.41256,0.055309,-0.30298,-0.13267,-2.3427,0.30731
0.0026132,-0.014306,-0.0087316,-0.022518,0.3496,-0.49887,-0.4825,-0.55761,0.0034288,0.36118,0.60083,0.35487,0.32527,0.062764,-0.42509,0.38226,-0.062434,0.010644,0.57463,0.024541,-0.30908,-0.10296,-2.9029,0.17578
-0.0015848,-0.016136,-0.0075853,-0.023068,0.3769,-0.37086,-0.60156,-0.62631,0.042413,0.44151,0.7164,0.39656,0.4386,0.12685,-0.44946,0.31793,-0.088336,-0.051249,0.74121,0.0026517,-0.28868,-0.057205,-3.2619,0.031698
-0.0037563,-0.02164,-0.007116,-0.0255,0.39995,-0.27435,-0.67805,-0.69536,0.081177,0.47327,0.78762,0.35364,0.55168,0.18108,-0.47698,0.2541,-0.10158,-0.13892,0.82413,-0.0079305,-0.24638,-0.0063576,-3.2624,-0.07483
-0.0018213,-0.029258,-0.0072327,-0.030356,0.41879,-0.2278,-0.72257,-0.76856,0.11035,0.46923,0.83822,0.24864,0.66469,0.22412,-0.51127,0.19036,-0.10607,-0.26313,0.79423,-0.010153,-0.19058,0.044047,-2.8335,-0.10159
0.0025388,-0.035475,-0.0071302,-0.035958,0.43068,-0.24064,-0.75286,-0.84602,0.12486,0.44439,0.89735,0.11279,0.78353,0.25196,-0.55026,0.13795,-0.10715,-0.41664,0.69133,-0.010172,-0.13096,0.092638,-2.0722,-0.043733
0.0053645,-0.036746,-0.0059003,-0.039807,0.43456,-0.30664,-0.76784,-0.91499,0.12407,0.40288,0.97231,-0.031762,0.9144,0.25444,-0.58653,0.11554,-0.10697,-0.56519,0.58217,-0.013485,-0.075609,0.13689,-1.2193,0.054714
0.0039231,-0.031931,-0.0033168,-0.040769,0.43444,-0.40773,-0.74284,-0.95049,0.10978,0.34119,1.0416,-0.17428,1.0565,0.2215,-0.61072,0.13513,-0.10269,-0.65021,0.50578,-0.021148,-0.028611,0.16994,-0.53143,0.121
-0.0010381,-0.023378,-0.00032819,-0.03988,0.43845,-0.5252,-0.65001,-0.92785,0.084158,0.2598,1.0731,-0.30542,1.195,0.1533,-0.61595,0.18887,-0.08861,-0.60698,0.45241,-0.028198,0.010756,0.18288,-0.13735,0.096391
-0.0062731,-0.015564,0.0012108,-0.039173,0.45366,-0.64903,-0.4855,-0.83901,0.048959,0.16793,1.0512,-0.40804,1.2982,0.064166,-0.60145,0.24866,-0.06044,-0.3947,0.39003,-0.025698,0.046496,0.17073,0.015252,-0.027126
-0.0091085,-0.012081,-0.00034167,-0.039868,0.4808,-0.77729,-0.27902,-0.69968,0.0058905,0.075604,0.9881,-0.45944,1.3261,-0.024321,-0.57354,0.28039,-0.018824,-0.026576,0.30888,-0.0059762,0.082985,0.13711,0.088947,-0.20355
-0.0095722,-0.013335,-0.0050485,-0.041668,0.51331,-0.90666,-0.076471,-0.54073,-0.042758,-0.017754,0.91263,-0.44262,1.2481,-0.094792,-0.54245,0.26385,0.030017,0.41826,0.23987,0.031623,0.1225,0.09443,0.22707,-0.36624
-0.0096848,-0.016828,-0.010857,-0.043521,0.54167,-1.023,0.089537,-0.38956,-0.094036,-0.12454,0.84736,-0.35569,1.0602,-0.14011,-0.5156,0.2046,0.076416,0.81428,0.22869,0.078273,0.16447,0.059542,0.47216,-0.47308
-0.010913,-0.019676,-0.014602,-0.044781,0.55987,-1.1016,0.21645,-0.2559,-0.14468,-0.25663,0.79433,-0.21123,0.79046,-0.15992,-0.49089,0.12995,0.11063,1.0379,0.28967,0.11881,0.20599,0.047559,0.78668,-0.52999
-0.012521,-0.021013,-0.014084,-0.045606,0.56909,-1.1181,0.32225,-0.13263,-0.19137,-0.41014,0.74022,-0.027485,0.4855,-0.15394,-0.45565,0.072474,0.12585,1.0224,0.38261,0.13926,0.24245,0.066603,1.1356,-0.57734
-0.012465,-0.022069,-0.0096921,-0.04649,0.57609,-1.0638,0.41955,-0.0092054,-0.23063,-0.56131,0.67364,0.17965,0.18844,-0.12113,-0.39405,0.051663,0.12003,0.78914,0.43611,0.13418,0.26783,0.11468,1.5399,-0.65404
-0.0098187,-0.024083,-0.0041823,-0.047673,0.58785,-0.95245,0.49714,0.11513,-0.25902,-0.67745,0.59786,0.39728,-0.075738,-0.066446,-0.29919,0.064945,0.096367,0.4352,0.40026,0.10916,0.27549,0.17864,2.0488,-0.76882
-0.0061783,-0.026311,-0.00062481,-0.049003,0.6065,-0.8145,0.52535,0.22998,-0.27397,-0.73345,0.52835,0.61037,-0.29689,-0.0067012,-0.18096,0.092403,0.062065,0.084173,0.28627,0.076802,0.26043,0.2352,2.662,-0.89859
-0.0045757,-0.026336,-0.00011779,-0.050145,0.62794,-0.6807,0.48089,0.32454,-0.27529,-0.72156,0.47876,0.79775,-0.46462,0.034222,-0.062046,0.11137,0.025599,-0.17155,0.16231,0.04932,0.22218,0.25498,3.2857,-1.009
-0.0068867,-0.022479,-0.0011354,-0.05075,0.6446,-0.56722,0.37021,0.39929,-0.26612,-0.65049,0.4484,0.93385,-0.55838,0.040473,0.036065,0.11146,-0.0065964,-0.30455,0.11039,0.032752,0.16632,0.21093,3.7735,-1.076
-0.012133,-0.015967,-0.001028,-0.050518,0.65046,-0.47134,0.23247,0.46682,-0.25224,-0.53974,0.42115,0.99491,-0.55592,0.01734,0.10654,0.10077,-0.032107,-0.34689,0.17958,0.026122,0.10274,0.090444,4.0218,-1.0926
-0.017168,-0.01059,0.0016177,-0.049432,0.64495,-0.37978,0.11977,0.54022,-0.23933,-0.41624,0.3745,0.96456,-0.45521,-0.010781,0.15902,0.099322,-0.051725,-0.35522,0.36958,0.02523,0.041645,-0.09303,4.0374,-1.06
-0.019041,-0.0099581,0.0057364,-0.048166,0.63371,-0.28262,0.069091,0.61907,-0.2299,-0.31219,0.28978,0.8356,-0.29051,-0.017934,0.20807,0.12407,-0.066408,-0.37193,0.65095,0.027613,-0.010202,-0.29644,3.9207,-0.97812
-0.016959,-0.014735,0.0086275,-0.048135,0.62557,-0.18243,0.084456,0.68616,-0.22211,-0.25805,0.15606,0.60937,-0.12405,0.0048054,0.25852,0.17581,-0.074627,-0.40572,0.99683,0.035047,-0.05014,-0.45802,3.7831,-0.84418
-0.012355,-0.022225,0.0080999,-0.050698,0.62721,-0.093088,0.13874,0.71868,-0.21168,-0.26849,-0.031375,0.2958,-0.014627,0.046287,0.30047,0.23737,-0.072822,-0.43901,1.394,0.052004,-0.077469,-0.52185,3.675,-0.66055
-0.0073868,-0.028581,0.0041489,-0.055872,0.63823,-0.030439,0.19103,0.70567,-0.19565,-0.32952,-0.27087,-0.084199,0.015855,0.09035,0.31825,0.28449,-0.059151,-0.45193,1.8234,0.081219,-0.090861,-0.4653,3.58,-0.44139
-0.0033929,-0.031638,-0.0010833,-0.061722,0.6498,-0.0025672,0.20776,0.65775,-0.17489,-0.39943,-0.5484,-0.49627,-0.0082236,0.13425,0.30487,0.30158,-0.037521,-0.44426,2.2306,0.11931,-0.087888,-0.31321,3.4648,-0.21182
-0.00055339,-0.032074,-0.0048885,-0.065296,0.64815,-0.0060291,0.17668,0.60153,-0.15321,-0.42713,-0.82988,-0.89401,-0.038832,0.19198,0.26882,0.29037,-0.017965,-0.44072,2.5222,0.15551,-0.066999,-0.12713,3.3231,0.00038881
0.0013474,-0.032216,-0.0058202,-0.064683,0.62175,-0.02838,0.10859,0.56317,-0.13369,-0.37783,-1.062,-1.2275,-0.04181,0.27826,0.22774,0.26573,-0.011971,-0.47655,2.6034,0.17501,-0.029994,0.026594,3.1665,0.17517
0.0021668,-0.033792,-0.004443,-0.060592,0.56788,-0.052458,0.028643,0.55396,-0.11559,-0.2486,-1.1883,-1.4583,-0.020113,0.38791,0.1953,0.24295,-0.025613,-0.57323,2.4372,0.1657,0.017304,0.11155,2.9798,0.30713
0.0015184,-0.036554,-0.0025958,-0.05606,0.49448,-0.058163,-0.0372,0.56787,-0.094853,-0.064968,-1.1756,-1.5766,-0.0058021,0.49069,0.17345,0.22746,-0.055475,-0.7195,2.0813,0.12481,0.066795,0.13625,2.7,0.40671
-0.00047489,-0.038717,-0.0018446,-0.054408,0.41586,-0.022135,-0.073149,0.59143,-0.068069,0.13588,-1.035,-1.6094,-0.029762,0.54787,0.15559,0.21452,-0.090456,-0.86938,1.6729,0.061603,0.11106,0.13961,2.2578,0.49503
-0.002785,-0.038625,-0.0023295,-0.056964,0.34512,0.080432,-0.076828,0.61666,-0.036599,0.32129,-0.82198,-1.6131,-0.095599,0.53677,0.13595,0.19723,-0.11786,-0.9586,1.3651,-0.0056744,0.1457,0.15798,1.651,0.5937
-0.0040909,-0.036206,-0.0028709,-0.062231,0.28848,0.26853,-0.054234,0.64715,-0.00708,0.46964,-0.613,-1.6475,-0.17853,0.46272,0.11539,0.17399,-0.12897,-0.93102,1.2564,-0.056589,0.17001,0.19877,0.97985,0.71334
-0.0039461,-0.033078,-0.0022342,-0.066966,0.24516,0.54457,-0.011444,0.69382,0.012267,0.56905,-0.46941,-1.7429,-0.24737,0.34975,0.098903,0.14859,-0.12024,-0.76188,1.3529,-0.075452,0.18595,0.23973,0.39722,0.84676
-0.0033302,-0.031298,-0.00051057,-0.068271,0.21192,0.88676,0.049904,0.76494,0.016571,0.61546,-0.4124,-1.8801,-0.28845,0.22095,0.089307,0.12394,-0.090815,-0.46817,1.5784,-0.055379,0.19601,0.25258,0.0056465,0.97139
-0.0038591,-0.031788,0.00061639,-0.065256,0.18762,1.251,0.13005,0.8582,0.0066212,0.61332,-0.42308,-1.9974,-0.31109,0.087103,0.084383,0.096911,-0.040312,-0.10315,1.8133,0.00079205,0.20094,0.2297,-0.21349,1.06
-0.0061994,-0.033746,-0.00089678,-0.059361,0.17385,1.5831,0.22499,0.95971,-0.012759,0.5751,-0.46543,-2.0232,-0.3326,-0.048107,0.080265,0.059833,0.029749,0.26111,1.9356,0.081376,0.19856,0.19114,-0.37533,1.0927
-0.0091301,-0.035528,-0.0056458,-0.053291,0.17113,1.8361,0.32395,1.0493,-0.036065,0.51549,-0.51367,-1.9135,-0.35887,-0.1751,0.076438,0.0073064,0.11198,0.55591,1.851,0.16789,0.18482,0.16711,-0.58948,1.0638
-0.010309,-0.036212,-0.011973,-0.049297,0.17462,1.984,0.41428,1.1081,-0.058935,0.44304,-0.56368,-1.6708,-0.37892,-0.27361,0.076283,-0.058552,0.19134,0.73509,1.5127,0.23912,0.15705,0.17222,-0.86636,0.9817
-0.008324,-0.036341,-0.017027,-0.047801,0.1738,2.0253,0.48971,1.1245,-0.077335,0.35701,-0.62188,-1.3347,-0.37708,-0.3223,0.082504,-0.12943,0.2494,0.78471,0.93605,0.2777,0.11738,0.19444,-1.1113,0.86425
-0.0043067,-0.037067,-0.018937,-0.047248,0.15732,1.9775,0.55421,1.0963,-0.086073,0.25456,-0.68356,-0.95757,-0.35034,-0.31384,0.092785,-0.19698,0.27302,0.72046,0.20019,0.27705,0.073275,0.20726,-1.2092,0.73558
-0.0015091,-0.038494,-0.01829,-0.045336,0.11991,1.8667,0.61713,1.0305,-0.07941,0.14281,-0.72066,-0.58505,-0.31419,-0.2608,0.10087,-0.25754,0.26165,0.57513,-0.57574,0.24428,0.033854,0.19295,-1.1255,0.62144
-0.002835,-0.038975,-0.017574,-0.040846,0.066445,1.7181,0.68435,0.94151,-0.054223,0.044402,-0.69082,-0.25177,-0.29213,-0.18737,0.10214,-0.31104,0.22732,0.38361,-1.2771,0.19599,0.0039125,0.15577,-0.93789,0.54172
-0.0082026,-0.036353,-0.019005,-0.034651,0.0099737,1.5502,0.75416,0.84744,-0.013061,-0.010996,-0.56191,0.013377,-0.2984,-0.11551,0.097571,-0.35636,0.18717,0.17426,-1.8372,0.14897,-0.019641,0.1148,-0.77403,0.50071
-0.014062,-0.030158,-0.022585,-0.029002,-0.035096,1.3746,0.82187,0.76624,0.036167,-0.004393,-0.33392,0.18659,-0.32884,-0.058239,0.091581,-0.38885,0.15393,-0.029776,-2.2523,0.11172,-0.045358,0.085271,-0.71135,0.48224
-0.015806,-0.022619,-0.026068,-0.025594,-0.060214,1.1965,0.8877,0.71046,0.08448,0.059201,-0.042004,0.25771,-0.36649,-0.023272,0.086124,-0.40388,0.13102,-0.20423,-2.5606,0.082659,-0.079831,0.066448,-0.72221,0.45655
-0.011347,-0.01727,-0.026898,-0.024068,-0.065902,1.0182,0.95825,0.68317,0.12692,0.15228,0.26083,0.2391,-0.39592,-0.018726,0.077668,-0.40308,0.11489,-0.3225,-2.8041,0.055035,-0.12077,0.046513,-0.70615,0.39805
-0.0029092,-0.016234,-0.024453,-0.022329,-0.059403,0.84313,1.0382,0.67758,0.1641,0.23952,0.5289,0.16347,-0.41404,-0.051266,0.060664,-0.39698,0.1009,-0.36562,-3.0012,0.023726,-0.15644,0.017765,-0.57798,0.30317
0.0046225,-0.018623,-0.020709,-0.018415,-0.048852,0.68032,1.1196,0.68161,0.19871,0.29391,0.73974,0.069901,-0.42968,-0.11752,0.033693,-0.4,0.087434,-0.33842,-3.1435,-0.011796,-0.17262,-0.013431,-0.33879,0.19557
0.0075197,-0.021492,-0.018762,-0.012146,-0.037984,0.5449,1.1809,0.6852,0.22989,0.30332,0.89191,-0.010876,-0.45433,-0.19945,0.00094714,-0.421,0.075348,-0.2774,-3.2101,-0.049582,-0.16242,-0.031358,-0.077034,0.11402
0.0059612,-0.022396,-0.020449,-0.0049998,-0.024569,0.45311,1.1998,0.68554,0.25078,0.26671,0.98967,-0.061134,-0.49274,-0.27231,-0.033445,-0.45665,0.0646,-0.2388,-3.1847,-0.08902,-0.13149,-0.025279,0.09433,0.090694
0.0033359,-0.021097,-0.024993,0.0015909,-0.0031061,0.41317,1.17,0.68598,0.25226,0.18784,1.0282,-0.071578,-0.54007,-0.32078,-0.072247,-0.49297,0.052381,-0.26891,-3.0674,-0.13225,-0.094711,0.00030421,0.11143,0.13321
0.0028232,-0.018978,-0.02971,0.0077054,0.030519,0.41928,1.1091,0.68971,0.23054,0.074177,0.99172,-0.037836,-0.5862,-0.34862,-0.12418,-0.51345,0.034761,-0.37413,-2.8823,-0.18228,-0.066542,0.028581,-0.0094257,0.22018
0.004492,-0.017047,-0.032091,0.014591,0.07585,0.45543,1.0485,0.69365,0.19243,-0.059765,0.86602,0.035554,-0.62216,-0.37138,-0.19326,-0.50758,0.010157,-0.51103,-2.6766,-0.23983,-0.052049,0.043274,-0.19752,0.31074
0.0056722,-0.014782,-0.031586,0.022844,0.12858,0.50857,1.0144,0.68871,0.15345,-0.19243,0.6553,0.12967,-0.64388,-0.39739,-0.26706,-0.47394,-0.01893,-0.60402,-2.4986,-0.3012,-0.044915,0.039823,-0.38188,0.36186
0.0041987,-0.010987,-0.02975,0.031066,0.18473,0.58207,1.0163,0.66688,0.1291,-0.30353,0.38954,0.21589,-0.65205,-0.41455,-0.31647,-0.41759,-0.047607,-0.5799,-2.3566,-0.35748,-0.033586,0.025961,-0.53234,0.34506
0.0012659,-0.0056105,-0.02885,0.036566,0.24487,0.69764,1.05,0.62929,0.12567,-0.38598,0.11519,0.27268,-0.65005,-0.39661,-0.31081,-0.34578,-0.071988,-0.39906,-2.1848,-0.39519,-0.010804,0.012595,-0.66481,0.25632
0.00087555,-0.00038852,-0.030111,0.037645,0.3144,0.88166,1.1097,0.58787,0.13728,-0.45038,-0.12546,0.30082,-0.64213,-0.32513,-0.23879,-0.26609,-0.091029,-0.068907,-1.8563,-0.39978,0.020569,0.0037367,-0.81827,0.11567
0.0061083,0.0025738,-0.032919,0.035288,0.39806,1.144,1.1941,0.5587,0.15137,-0.51528,-0.31226,0.31964,-0.63282,-0.20858,-0.11898,-0.18701,-0.10529,0.36156,-1.261,-0.36323,0.0497,-0.006411,-1.0265,-0.042959
0.015661,0.0028895,-0.035402,0.03262,0.4924,1.4646,1.2985,0.55243,0.15827,-0.58949,-0.45083,0.34307,-0.62651,-0.081752,0.009662,-0.11823,-0.11431,0.8181,-0.40608,-0.29306,0.066205,-0.028119,-1.3015,-0.18655
0.024121,0.0024412,-0.035816,0.032547,0.58223,1.798,1.4017,0.56964,0.15742,-0.66136,-0.56066,0.35566,-0.62636,0.01478,0.11047,-0.068144,-0.11573,1.222,0.53976,-0.2152,0.068375,-0.068087,-1.6313,-0.29418
0.026126,0.0036949,-0.033715,0.035757,0.64609,2.0934,1.4663,0.60461,0.15592,-0.70528,-0.65736,0.31387,-0.63264,0.058889,0.16826,-0.039983,-0.10741,1.5128,1.3123,-0.16424,0.064774,-0.12507,-1.9819,-0.35868
0.020886,0.0073905,-0.030141,0.040805,0.66853,2.315,1.4566,0.65306,0.16142,-0.7007,-0.74142,0.17808,-0.6415,0.05655,0.19158,-0.030046,-0.090627,1.6678,1.6991,-0.16372,0.067767,-0.19112,-2.2995,-0.38012
0.013059,0.01192,-0.026837,0.045942,0.65086,2.4517,1.3646,0.71635,0.1757,-0.64713,-0.79944,-0.048222,-0.64524,0.031821,0.19896,-0.030448,-0.071063,1.7104,1.666,-0.20961,0.083859,-0.2556,-2.5142,-0.35873
0.0090697,0.015028,-0.02508,0.050744,0.61154,2.5108,1.2209,0.79804,0.1942,-0.56207,-0.81433,-0.3055,-0.63487,0.0077805,0.20215,-0.034603,-0.055911,1.695,1.3668,-0.27129,0.10835,-0.30796,-2.5542,-0.2949
0.012014,0.016137,-0.024963,0.055935,0.57455,2.5032,1.0768,0.89615,0.21103,-0.4646,-0.77704,-0.50615,-0.60417,-0.0060511,0.20026,-0.041127,-0.049166,1.6722,1.0278,-0.31171,0.12848,-0.33839,-2.3731,-0.19614
0.019425,0.016942,-0.025593,0.061768,0.55363,2.4327,0.96938,0.99871,0.22462,-0.36103,-0.69386,-0.58444,-0.55334,-0.012683,0.18707,-0.053116,-0.048934,1.6553,0.79906,-0.31242,0.13233,-0.33883,-1.9833,-0.083343
0.025609,0.019662,-0.025964,0.066821,0.54407,2.2927,0.89504,1.0876,0.23879,-0.24681,-0.58751,-0.532,-0.48964,-0.01833,0.16282,-0.073776,-0.049094,1.6124,0.68599,-0.2836,0.11658,-0.30676,-1.4753,0.011625
0.026315,0.024643,-0.02575,0.068695,0.52795,2.073,0.81296,1.1482,0.25858,-0.12282,-0.49206,-0.39527,-0.42337,-0.025363,0.13862,-0.10243,-0.044028,1.4936,0.60298,-0.25138,0.087198,-0.25071,-0.99924,0.057645
0.021741,0.029689,-0.025328,0.066152,0.48829,1.77,0.67505,1.1776,0.2847,-0.0090317,-0.44148,-0.24226,-0.36066,-0.033124,0.13001,-0.13422,-0.032518,1.2745,0.48759,-0.23369,0.053695,-0.19214,-0.70337,0.037526
0.015689,0.03183,-0.02507,0.06069,0.42084,1.3969,0.45929,1.1838,0.31173,0.060235,-0.45386,-0.1272,-0.29752,-0.043308,0.1455,-0.16327,-0.017672,0.98218,0.36835,-0.22565,0.022752,-0.15882,-0.65478,-0.046163
0.012096,0.029945,-0.024607,0.055862,0.33509,0.98951,0.18207,1.178,0.33148,0.0582,-0.51825,-0.076309,-0.21973,-0.062446,0.17972,-0.18633,-0.0031734,0.68268,0.33089,-0.20605,-0.0033606,-0.17038,-0.79084,-0.17516
0.012134,0.025821,-0.022877,0.054668,0.24547,0.60554,-0.11626,1.1646,0.33878,-0.013281,-0.59454,-0.095003,-0.11015,-0.097646,0.21578,-0.20369,0.01069,0.44054,0.42254,-0.15802,-0.023197,-0.22445,-0.94638,-0.32442
0.014033,0.022691,-0.019025,0.057187,0.16139,0.31478,-0.39737,1.1373,0.33488,-0.12181,-0.63181,-0.17944,0.039881,-0.14885,0.23387,-0.21718,0.027533,0.2816,0.58839,-0.085051,-0.032261,-0.294,-0.95389,-0.469
0.015156,0.022565,-0.013388,0.060531,0.083885,0.1807,-0.6417,1.0833,0.32587,-0.22333,-0.5979,-0.31853,0.22172,-0.2047,0.21993,-0.22733,0.051135,0.18655,0.69831,-0.0094169,-0.023815,-0.34101,-0.75644,-0.58677
0.014119,0.024684,-0.0075996,0.061236,0.0098801,0.23785,-0.84792,0.99059,0.31789,-0.28549,-0.50123,-0.48857,0.40848,-0.2465,0.17034,-0.23218,0.080387,0.11536,0.63993,0.043612,0.0055522,-0.33974,-0.45078,-0.65991
0.011266,0.026341,-0.0035845,0.058067,-0.061609,0.4728,-1.0233,0.8526,0.31274,-0.29665,-0.38766,-0.65335,0.56321,-0.25851,0.092454,-0.22829,0.10732,0.038196,0.39489,0.061094,0.050679,-0.29418,-0.22192,-0.67908
0.007671,0.0252,-0.0022341,0.052876,-0.12751,0.81803,-1.1783,0.66783,0.30705,-0.25719,-0.31197,-0.77649,0.65213,-0.23782,0.0025499,-0.21267,0.12049,-0.052473,0.03452,0.045201,0.098261,-0.23658,-0.21339,-0.64979
0.0040773,0.021065,-0.0028848,0.048889,-0.18386,1.1653,-1.3276,0.43818,0.29496,-0.16688,-0.30289,-0.83817,0.65683,-0.19717,-0.078754,-0.18407,0.11198,-0.15334,-0.35479,0.0042306,0.1334,-0.20658,-0.43201,-0.59567
0.00080434,0.015722,-0.0040212,0.048033,-0.23004,1.3987,-1.4892,0.1709,0.27204,-0.024307,-0.34619,-0.84151,0.58017,-0.15822,-0.13344,-0.14341,0.083003,-0.26778,-0.74444,-0.057255,0.1473,-0.22477,-0.76043,-0.55318
-0.0016599,0.011297,-0.0045146,0.049572,-0.26954,1.4385,-1.6727,-0.11569,0.23796,0.16001,-0.39693,-0.80273,0.44385,-0.13903,-0.1533,-0.094,0.044125,-0.40825,-1.167,-0.1392,0.14016,-0.27945,-1.0605,-0.55688
-0.0024342,0.0087761,-0.0042681,0.051021,-0.3064,1.2754,-1.8608,-0.38841,0.19656,0.3518,-0.40943,-0.73449,0.27954,-0.14301,-0.14295,-0.041749,0.0095901,-0.57931,-1.6467,-0.2373,0.11787,-0.33532,-1.2732,-0.62067
-0.00091932,0.007886,-0.0037979,0.050253,-0.34072,0.9755,-2.0018,-0.60388,0.15378,0.49866,-0.36222,-0.63852,0.11761,-0.15656,-0.11539,0.0053058,-0.010054,-0.75741,-2.1223,-0.33361,0.086331,-0.35667,-1.4262,-0.72419
0.002231,0.0080928,-0.0033608,0.046902,-0.36692,0.64583,-2.0284,-0.72229,0.1148,0.55382,-0.26268,-0.51398,-0.021834,-0.15784,-0.082735,0.039177,-0.012083,-0.88937,-2.4385,-0.39644,0.04855,-0.32772,-1.548,-0.81329
0.0049756,0.0094237,-0.0026338,0.042079,-0.37655,0.37551,-1.8963,-0.72313,0.081853,0.50169,-0.13459,-0.37239,-0.13273,-0.13226,-0.04911,0.055255,-0.00032387,-0.9175,-2.4304,-0.39334,0.0060581,-0.25693,-1.5769,-0.81799
0.0050499,0.012194,-0.0012506,0.037016,-0.36373,0.18562,-1.6177,-0.61357,0.053987,0.36624,-0.0034447,-0.24313,-0.22099,-0.084588,-0.011769,0.054575,0.01917,-0.81766,-2.0457,-0.31071,-0.038062,-0.16614,-1.3632,-0.68347
0.0016433,0.016027,0.00051162,0.032078,-0.32992,0.023419,-1.2637,-0.42502,0.028819,0.19701,0.10953,-0.16217,-0.29885,-0.038593,0.031012,0.042806,0.041288,-0.62436,-1.4092,-0.16754,-0.078477,-0.076393,-0.77947,-0.40036
-0.0038084,0.019405,0.0018072,0.026915,-0.28509,-0.19103,-0.92946,-0.20139,0.0052336,0.044332,0.18663,-0.15274,-0.3787,-0.022542,0.073351,0.026011,0.061822,-0.42298,-0.77005,-0.01168,-0.11016,-0.0012471,0.14863,-0.017462
-0.0084722,0.020505,0.002124,0.021349,-0.24409,-0.49436,-0.68558,0.013599,-0.015074,-0.05991,0.21509,-0.21352,-0.4691,-0.04984,0.10388,0.006059,0.076093,-0.30922,-0.35562,0.10329,-0.13172,0.051789,1.2072,0.3741
-0.010002,0.018674,0.0020807,0.015919,-0.21994,-0.83551,-0.54746,0.18479,-0.028608,-0.1077,0.1943,-0.32275,-0.57361,-0.10876,0.11576,-0.020739,0.079636,-0.33703,-0.23122,0.14885,-0.14632,0.078962,2.0954,0.68075
-0.0079991,0.01511,0.0031595,0.011526,-0.21754,-1.0932,-0.48103,0.2895,-0.033058,-0.10964,0.14219,-0.45157,-0.69144,-0.1698,0.11546,-0.060474,0.071743,-0.48572,-0.26916,0.13979,-0.15952,0.082828,2.5929,0.84947
-0.0040172,0.011906,0.0064356,0.008599,-0.23192,-1.148,-0.43494,0.31897,-0.029835,-0.08567,0.090934,-0.5737,-0.81832,-0.206,0.12129,-0.11635,0.058606,-0.66772,-0.25423,0.12464,-0.17575,0.076694,2.6671,0.8885
-0.00030814,0.010211,0.011407,0.0066878,-0.25228,-0.96187,-0.37283,0.27801,-0.023786,-0.055441,0.070514,-0.66549,-0.94708,-0.21132,0.15128,-0.1855,0.051751,-0.77597,-0.050554,0.15196,-0.19588,0.082847,2.4482,0.85299
0.0015535,0.0091922,0.016031,0.0049163,-0.26901,-0.61029,-0.28523,0.18136,-0.019989,-0.029516,0.090749,-0.70393,-1.0681,-0.20343,0.20957,-0.26048,0.061132,-0.74545,0.29615,0.23528,-0.21673,0.12119,2.1059,0.80589
0.0012366,0.006842,0.018014,0.0028264,-0.27843,-0.24567,-0.18114,0.046162,-0.020232,-0.0050738,0.13534,-0.67351,-1.1705,-0.20964,0.28247,-0.33418,0.087547,-0.59285,0.60052,0.34342,-0.23241,0.19524,1.7328,0.78065
-0.00063799,0.001978,0.016353,0.0007021,-0.28164,-0.016311,-0.074202,-0.11617,-0.022413,0.028169,0.17274,-0.58155,-1.2436,-0.24804,0.34669,-0.40384,0.12064,-0.40926,0.69128,0.42439,-0.23683,0.28732,1.3197,0.76925
-0.0030561,-0.0043806,0.011964,-0.00098954,-0.27926,0.0057974,0.022988,-0.30327,-0.023692,0.07181,0.17568,-0.46724,-1.2782,-0.31829,0.38245,-0.4707,0.14471,-0.30948,0.55455,0.44446,-0.22661,0.36868,0.82058,0.73943
-0.0049883,-0.0095685,0.0070738,-0.0024295,-0.26797,-0.15372,0.096438,-0.51719,-0.024668,0.10386,0.13574,-0.38851,-1.2673,-0.40709,0.38094,-0.53569,0.1482,-0.3679,0.35142,0.41118,-0.20342,0.41721,0.23518,0.66408
-0.005634,-0.011342,0.0039342,-0.0045448,-0.24345,-0.40615,0.13006,-0.75471,-0.030352,0.081959,0.064962,-0.38875,-1.2059,-0.5001,0.34266,-0.59518,0.12972,-0.57932,0.29602,0.36258,-0.17394,0.42872,-0.36241,0.54001
-0.0047281,-0.0096783,0.0037094,-0.0080684,-0.2082,-0.65972,0.11336,-1.0001,-0.046126,-0.029351,-0.013073,-0.46666,-1.0928,-0.58766,0.27186,-0.641,0.096799,-0.86546,0.49377,0.33351,-0.1468,0.41318,-0.8645,0.38566
-0.0027894,-0.0067752,0.0060154,-0.012438,-0.17656,-0.86434,0.053111,-1.2265,-0.071534,-0.22297,-0.074833,-0.57514,-0.9322,-0.6593,0.17527,-0.66505,0.059448,-1.1184,0.86996,0.32876,-0.12796,0.38068,-1.1959,0.22442
-0.00094872,-0.0052989,0.0091551,-0.015832,-0.16998,-1.0179,-0.022005,-1.4054,-0.097598,-0.43439,-0.10511,-0.65362,-0.73505,-0.69446,0.06645,-0.6644,0.024528,-1.2506,1.241,0.32499,-0.11791,0.33046,-1.3516,0.06978
-0.00025384,-0.0063847,0.010899,-0.016667,-0.20279,-1.1401,-0.070507,-1.5176,-0.11124,-0.56593,-0.10106,-0.66962,-0.51782,-0.66202,-0.03067,-0.64222,-0.005377,-1.2229,1.4623,0.29679,-0.11299,0.25289,-1.3858,-0.077609
-0.00088992,-0.0089511,0.0096088,-0.015328,-0.26845,-1.2389,-0.056945,-1.5583,-0.10445,-0.53891,-0.073131,-0.63675,-0.29892,-0.53438,-0.086998,-0.60345,-0.029558,-1.0411,1.528,0.24135,-0.10982,0.1421,-1.3708,-0.22248
-0.0019546,-0.010664,0.0052902,-0.01433,-0.33821,-1.2975,0.029916,-1.5332,-0.081123,-0.33836,-0.042377,-0.59663,-0.09477,-0.30774,-0.08205,-0.54949,-0.047163,-0.73625,1.5462,0.17983,-0.10882,0.0073701,-1.3564,-0.36634
-0.0020415,-0.0095987,-6.6323e-005,-0.016368,-0.37656,-1.2896,0.16831,-1.4526,-0.055431,-0.019211,-0.032916,-0.5826,0.081349,-0.012785,-0.016824,-0.47726,-0.057846,-0.34855,1.6229,0.13646,-0.11342,-0.12663,-1.3486,-0.50474
-0.00025343,-0.0053757,-0.0033632,-0.021817,-0.36485,-1.2113,0.30701,-1.3282,-0.04229,0.3276,-0.061309,-0.59652,0.21737,0.29443,0.085217,-0.3843,-0.06358,0.074444,1.7587,0.11687,-0.12559,-0.23052,-1.3105,-0.63045
0.0030582,0.00071706,-0.002237,-0.028057,-0.31628,-1.1021,0.38009,-1.1756,-0.047168,0.62049,-0.12869,-0.61476,0.30053,0.55652,0.19132,-0.27546,-0.068598,0.47256,1.8443,0.1057,-0.14185,-0.28303,-1.1819,-0.7373
0.0063331,0.0063461,0.0032741,-0.031537,-0.27004,-1.0357,0.33009,-1.0182,-0.063299,0.81193,-0.22148,-0.61201,0.32035,0.73715,0.27752,-0.16481,-0.076608,0.7767,1.7504,0.083651,-0.15398,-0.27731,-0.91127,-0.8207
0.0076229,0.0090404,0.01055,-0.030874,-0.26742,-1.0796,0.13327,-0.88553,-0.07827,0.88439,-0.32077,-0.57902,0.27752,0.82741,0.33847,-0.070462,-0.087816,0.92884,1.4357,0.046264,-0.15442,-0.21951,-0.48973,-0.87473
0.0057245,0.0071922,0.016052,-0.028141,-0.32618,-1.2503,-0.18427,-0.80328,-0.084135,0.83613,-0.41352,-0.5215,0.19331,0.83599,0.3831,-0.0060462,-0.098936,0.90922,0.98825,0.006382,-0.14181,-0.12471,0.033982,-0.88961
0.00097124,0.00098046,0.017725,-0.027022,-0.43152,-1.4934,-0.55183,-0.78115,-0.082545,0.67942,-0.4975,-0.4485,0.11022,0.77631,0.42184,0.024354,-0.10649,0.75023,0.57831,-0.020091,-0.12192,-0.014364,0.57201,-0.85364
-0.0048188,-0.0072904,0.016286,-0.029479,-0.54917,-1.7091,-0.88304,-0.8076,-0.081125,0.45229,-0.57733,-0.36678,0.07863,0.66323,0.45721,0.024691,-0.11011,0.52332,0.36158,-0.029751,-0.10289,0.085589,1.0431,-0.76003
-0.0092659,-0.014047,0.014384,-0.034027,-0.64945,-1.8068,-1.1148,-0.8561,-0.085062,0.22293,-0.65577,-0.28626,0.13413,0.51934,0.48485,0.0020124,-0.11247,0.30372,0.39665,-0.033281,-0.089061,0.14973,1.4143,-0.61531
-0.010716,-0.016426,0.014324,-0.037189,-0.72346,-1.7548,-1.2323,-0.8988,-0.091652,0.068536,-0.72725,-0.22579,0.27906,0.3779,0.50151,-0.036267,-0.11575,0.13562,0.617,-0.0429,-0.078506,0.16167,1.7056,-0.44207
-0.0091115,-0.014191,0.016338,-0.036749,-0.78056,-1.5917,-1.2642,-0.91799,-0.092373,0.035575,-0.77711,-0.20635,0.48041,0.27206,0.51083,-0.080876,-0.11836,0.021194,0.86319,-0.059545,-0.066053,0.1213,1.9504,-0.27122
-0.0059052,-0.010032,0.018817,-0.03376,-0.83226,-1.3948,-1.2521,-0.90767,-0.080099,0.11201,-0.78601,-0.23358,0.68617,0.21502,0.5207,-0.11882,-0.11584,-0.060913,0.95662,-0.073063,-0.048691,0.044753,2.1434,-0.12545
-0.003096,-0.0076833,0.020159,-0.031586,-0.87872,-1.2306,-1.2196,-0.86643,-0.054886,0.2369,-0.73703,-0.28603,0.84959,0.18949,0.53515,-0.13621,-0.10548,-0.12483,0.78537,-0.07486,-0.028255,-0.043329,2.2234,-0.0047509
-0.0020379,-0.0091245,0.020381,-0.033043,-0.90971,-1.1222,-1.162,-0.78979,-0.023695,0.34222,-0.62408,-0.32381,0.94714,0.16024,0.54915,-0.12571,-0.09073,-0.16112,0.36569,-0.069802,-0.0092543,-0.11918,2.114,0.11361
-0.0027749,-0.01305,0.020879,-0.038262,-0.91829,-1.0527,-1.063,-0.67009,0.0048144,0.39359,-0.45947,-0.31355,0.98176,0.10408,0.55207,-0.091984,-0.080637,-0.14924,-0.15662,-0.074871,0.0056683,-0.16456,1.7952,0.25649
-0.0042629,-0.015946,0.022594,-0.044932,-0.913,-0.99382,-0.91993,-0.50436,0.025283,0.39812,-0.27603,-0.24991,0.97291,0.033377,0.53725,-0.048512,-0.084182,-0.087521,-0.57756,-0.10504,0.018098,-0.1663,1.3498,0.42878
-0.0052561,-0.014985,0.024455,-0.050277,-0.91597,-0.9335,-0.75656,-0.30329,0.036378,0.37788,-0.11876,-0.15527,0.94176,-0.007602,0.5091,-0.0065363,-0.1037,-0.012341,-0.7476,-0.15898,0.031811,-0.11661,0.93518,0.59958
-0.0052497,-0.010402,0.023882,-0.052839,-0.94679,-0.88342,-0.61324,-0.092175,0.037852,0.33785,-0.025955,-0.059164,0.89972,0.02699,0.4812,0.034716,-0.13261,0.015629,-0.65726,-0.21737,0.04842,-0.018971,0.69168,0.71405
-0.0048679,-0.005417,0.019174,-0.052844,-1.0052,-0.86492,-0.52374,0.098405,0.027965,0.25946,-0.009421,0.024091,0.84483,0.1506,0.46635,0.087075,-0.15896,-0.046746,-0.43518,-0.255,0.064937,0.10389,0.65033,0.72537
-0.0054346,-0.0037575,0.011682,-0.051502,-1.0675,-0.88905,-0.49756,0.24673,0.0043863,0.12439,-0.047594,0.10078,0.7668,0.332,0.46633,0.16141,-0.17191,-0.18594,-0.25667,-0.25639,0.075567,0.21012,0.7119,0.62539
-0.0079805,-0.0068023,0.0055366,-0.050249,-1.0998,-0.94551,-0.51911,0.34914,-0.032291,-0.056719,-0.098814,0.18464,0.65778,0.5119,0.46948,0.25487,-0.1663,-0.32863,-0.22797,-0.22282,0.076046,0.25406,0.71942,0.45237
-0.012353,-0.012639,0.0047369,-0.050319,-1.08,-1.006,-0.56087,0.41818,-0.076304,-0.24023,-0.12734,0.28014,0.52284,0.63376,0.45792,0.34929,-0.14321,-0.38226,-0.33122,-0.1675,0.066588,0.21127,0.57227,0.27085
-0.017097,-0.017726,0.009817,-0.052285,-1.0103,-1.0369,-0.59854,0.47205,-0.11862,-0.37601,-0.12405,0.37802,0.38275,0.66688,0.41929,0.42342,-0.1076,-0.29299,-0.46646,-0.10545,0.05103,0.096686,0.29457,0.13757
-0.020264,-0.019744,0.016932,-0.055418,-0.91499,-1.0141,-0.61838,0.52335,-0.15194,-0.44147,-0.10725,0.46546,0.26557,0.61083,0.35493,0.46869,-0.06583,-0.079608,-0.54937,-0.046909,0.033404,-0.03953,0.0053091,0.075505
-0.020591,-0.019315,0.020337,-0.05759,-0.82427,-0.93361,-0.61593,0.57536,-0.17455,-0.45352,-0.10445,0.53916,0.19169,0.48646,0.27913,0.49502,-0.024519,0.18051,-0.58152,0.0025136,0.015346,-0.13857,-0.18188,0.069501
-0.018169,-0.019253,0.016476,-0.056497,-0.75786,-0.81262,-0.5916,0.62657,-0.18985,-0.4494,-0.13031,0.60897,0.16358,0.32469,0.21083,0.52101,0.010298,0.40081,-0.63853,0.038646,-0.0035009,-0.16524,-0.24314,0.082198
-0.014138,-0.02209,0.0065637,-0.051742,-0.71724,-0.68021,-0.54866,0.67771,-0.20187,-0.45475,-0.17748,0.69036,0.16923,0.15911,0.16325,0.5569,0.034738,0.53313,-0.79263,0.057883,-0.023163,-0.12408,-0.24264,0.077853
-0.0098148,-0.027967,-0.0042437,-0.045906,-0.68884,-0.55814,-0.49361,0.73358,-0.21093,-0.46649,-0.22424,0.79405,0.1972,0.019698,0.13797,0.59449,0.048977,0.58151,-1.0388,0.059623,-0.04201,-0.04941,-0.25141,0.040598
-0.0060719,-0.03463,-0.010309,-0.043114,-0.65325,-0.44204,-0.43581,0.79773,-0.21316,-0.46222,-0.24934,0.92126,0.25042,-0.075222,0.12577,0.61204,0.057455,0.581,-1.2855,0.048522,-0.057945,0.020806,-0.26487,-0.020309
-0.0034133,-0.039356,-0.0090123,-0.045741,-0.59447,-0.29582,-0.38373,0.86571,-0.20389,-0.42373,-0.24108,1.065,0.3453,-0.1256,0.11266,0.5897,0.06602,0.56665,-1.4138,0.033018,-0.070619,0.066942,-0.19714,-0.078177
-0.0023297,-0.041048,-0.0019571,-0.052027,-0.50565,-0.066997,-0.33954,0.9247,-0.18193,-0.35232,-0.1969,1.2123,0.49447,-0.14743,0.086956,0.52243,0.07741,0.55932,-1.3562,0.020538,-0.081784,0.090827,0.040592,-0.10395
-0.0032117,-0.04067,0.006506,-0.056993,-0.39065,0.28265,-0.29667,0.96183,-0.15077,-0.26499,-0.12004,1.3451,0.68604,-0.15915,0.04413,0.4214,0.088568,0.5723,-1.1361,0.013411,-0.092814,0.10234,0.44797,-0.080738
-0.0057219,-0.039823,0.012044,-0.056237,-0.26171,0.7486,-0.24368,0.97461,-0.11635,-0.17954,-0.020791,1.4424,0.87673,-0.16459,-0.011445,0.30495,0.092443,0.62051,-0.84478,0.0089459,-0.10161,0.10449,0.91312,-0.010954
-0.0083965,-0.038975,0.012518,-0.049463,-0.13425,1.2752,-0.17296,0.97366,-0.083814,-0.10477,0.079174,1.4879,1.0068,-0.14633,-0.067627,0.18872,0.083333,0.71402,-0.58333,0.0032666,-0.10223,0.090535,1.2817,0.086582
-0.0092885,-0.037082,0.0085191,-0.040619,-0.020718,1.7735,-0.088205,0.97464,-0.056275,-0.042883,0.14889,1.4792,1.0284,-0.07773,-0.10817,0.08238,0.061611,0.83847,-0.4111,-0.0047866,-0.088164,0.053717,1.4589,0.18639
-0.0074352,-0.032872,0.0024162,-0.034489,0.073046,2.1564,-0.0042224,0.98586,-0.036098,0.002886,0.16286,1.4303,0.92889,0.052961,-0.11881,-0.0073243,0.033861,0.94517,-0.33172,-0.013049,-0.056769,-0.0016542,1.4606,0.26606
-0.003874,-0.02643,-0.0032511,-0.032749,0.14693,2.3719,0.062381,1.0032,-0.026347,0.026706,0.12172,1.363,0.73471,0.22388,-0.094028,-0.073797,0.0082223,0.96942,-0.31278,-0.01874,-0.011098,-0.059266,1.3774,0.31023
-0.0010748,-0.019444,-0.0070596,-0.032908,0.20229,2.4177,0.10574,1.0169,-0.030078,0.026803,0.06175,1.2928,0.49354,0.38238,-0.040852,-0.11278,-0.011102,0.87113,-0.31594,-0.021442,0.04208,-0.10138,1.2923,0.30815
-0.0010526,-0.013896,-0.0090858,-0.03089,0.23822,2.3334,0.13699,1.0238,-0.047597,0.011318,0.04083,1.2246,0.24699,0.4708,0.024224,-0.12696,-0.025329,0.6674,-0.31587,-0.023256,0.095945,-0.12133,1.2209,0.24983
-0.00372,-0.010542,-0.010343,-0.02473,0.25175,2.1741,0.17828,1.0336,-0.0744,-0.0058502,0.10545,1.162,0.010847,0.45887,0.08464,-0.12644,-0.037219,0.42903,-0.30291,-0.025751,0.14588,-0.12691,1.1178,0.12669
-0.0069171,-0.0086661,-0.011795,-0.016067,0.24172,1.9838,0.24769,1.0622,-0.10226,-0.016929,0.25989,1.1228,-0.22515,0.36042,0.13355,-0.12211,-0.045405,0.24015,-0.27877,-0.026412,0.18942,-0.13165,0.92952,-0.060863
-0.0080829,-0.0072134,-0.013689,-0.008293,0.2129,1.7814,0.34556,1.1186,-0.12307,-0.027226,0.45919,1.1412,-0.47895,0.22165,0.17614,-0.11682,-0.042519,0.15023,-0.25517,-0.018074,0.22562,-0.14181,0.64227,-0.29363
-0.0061315,-0.0059758,-0.015629,-0.0033155,0.17639,1.5666,0.45231,1.1969,-0.13243,-0.047563,0.63191,1.2471,-0.75185,0.089076,0.22173,-0.10291,-0.019789,0.15281,-0.25616,0.0073128,0.25582,-0.14978,0.29045,-0.52964
-0.0020699,-0.005552,-0.017156,1.7655e-006,0.14571,1.339,0.5394,1.2791,-0.13014,-0.077559,0.71819,1.4363,-1.0154,-0.01971,0.2717,-0.069324,0.024901,0.20292,-0.31534,0.052611,0.285,-0.13932,-0.067383,-0.71271
0.0019033,-0.006219,-0.018181,0.0044138,0.13085,1.1146,0.58501,1.3446,-0.11789,-0.096817,0.69928,1.6559,-1.2192,-0.12064,0.31375,-0.012835,0.082175,0.25426,-0.45966,0.11138,0.32124,-0.098181,-0.37738,-0.79257
0.003886,-0.0070854,-0.0189,0.011399,0.13451,0.92525,0.58317,1.3783,-0.097055,-0.076129,0.60201,1.825,-1.3155,-0.24003,0.32885,0.056426,0.1344,0.28565,-0.68371,0.16918,0.3717,-0.028685,-0.60548,-0.74678
0.0032644,-0.0066001,-0.019434,0.01959,0.15256,0.80219,0.54135,1.3718,-0.068982,-0.0021025,0.47867,1.8789,-1.2832,-0.38192,0.30614,0.11991,0.16563,0.30077,-0.93248,0.21039,0.43713,0.051454,-0.74282,-0.59164
