4.4953e-010,1.3293e-009,-1.1383e-010,2.3364e-009,-8.3153e-010,1.5647e-009,-7.6497e-009,-1.966e-009,6.4632e-010,-8.4677e-009,1.2515e-008,1.4425e-008,-9.7681e-009,-7.3507e-010,1.692e-009,-3.4901e-009,1.1479e-009,2.6682e-009,1.0517e-008,3.6522e-009,-2.2669e-009,9.28e-010,-2.0644e-010,2.2978e-009
1.2306e-008,3.6536e-008,-2.9371e-009,6.4571e-008,-2.2708e-008,4.367e-008,-2.1195e-007,-5.4385e-008,1.764e-008,-2.34e-007,3.4475e-007,3.981e-007,-2.6922e-007,-2.0228e-008,4.6606e-008,-9.6024e-008,3.1189e-008,7.2051e-008,2.8839e-007,1.007e-007,-6.2655e-008,2.5764e-008,-5.5541e-009,6.3524e-008
1.6372e-007,4.8811e-007,-3.6628e-008,8.6768e-007,-3.0123e-007,5.9287e-007,-2.8558e-006,-7.3123e-007,2.3378e-007,-3.1428e-006,4.615e-006,5.3409e-006,-3.6055e-006,-2.7024e-007,6.2342e-007,-1.2836e-006,4.1092e-007,9.4146e-007,3.8425e-006,1.3492e-006,-8.4204e-007,3.4799e-007,-7.2593e-008,8.5392e-007
1.4101e-006,4.223e-006,-2.9372e-007,7.553e-006,-2.5859e-006,5.2163e-006,-2.4931e-005,-6.3661e-006,2.0041e-006,-2.7329e-005,3.9995e-005,4.641e-005,-3.1254e-005,-2.3347e-006,5.394e-006,-1.1106e-005,3.4956e-006,7.9199e-006,3.3138e-005,1.1699e-005,-7.3311e-006,3.0472e-006,-6.1421e-007,7.4362e-006
8.8376e-006,2.6594e-005,-1.699e-006,4.7872e-005,-1.6144e-005,3.343e-005,-0.00015852,-4.0334e-005,1.2488e-005,-0.00017291,0.00025218,0.00029358,-0.00019708,-1.4657e-005,3.3918e-005,-6.9898e-005,2.1562e-005,4.8118e-005,0.00020788,7.379e-005,-4.6476e-005,1.9444e-005,-3.7823e-006,4.7149e-005
4.2942e-005,0.00012989,-7.5312e-006,0.00023539,-7.8087e-005,0.00016628,-0.00078215,-0.00019812,6.0253e-005,-0.00084797,0.0012325,0.0014405,-0.00096287,-7.1206e-005,0.00016509,-0.00034086,0.00010264,0.00022434,0.0010104,0.00036062,-0.0002286,9.6355e-005,-1.807e-005,0.00023189
0.00016828,0.0005119,-2.6491e-005,0.00093413,-0.00030431,0.0006677,-0.0031159,-0.00078481,0.00023412,-0.003352,0.0048559,0.0057034,-0.0037907,-0.00027833,0.00064661,-0.0013395,0.00039155,0.00083135,0.0039571,0.0014201,-0.00090745,0.00038581,-6.9712e-005,0.00092025
0.00054606,0.0016715,-7.5353e-005,0.0030722,-0.00098076,0.0022227,-0.010292,-0.002574,0.00075204,-0.010963,0.015834,0.018711,-0.012342,-0.00089804,0.0020911,-0.0043542,0.0012262,0.0024974,0.012815,0.0046253,-0.0029854,0.0012821,-0.0002232,0.0030253
0.0014946,0.0046073,-0.00017417,0.0085305,-0.0026612,0.0062488,-0.028721,-0.0071193,0.0020334,-0.030202,0.043517,0.051815,-0.033827,-0.0024331,0.0056821,-0.011921,0.0031989,0.0061223,0.03493,0.012685,-0.0082914,0.0036033,-0.00060487,0.0083917
0.0034956,0.010862,-0.00032239,0.020262,-0.006153,0.015032,-0.068619,-0.016821,0.0046855,-0.070939,0.10208,0.12273,-0.078998,-0.0055961,0.013123,-0.027832,0.0069985,0.012127,0.08109,0.029658,-0.019696,0.0086826,-0.0014075,0.019893
0.0070469,0.022108,-0.00044986,0.04155,-0.012212,0.031223,-0.14169,-0.034251,0.0092747,-0.14315,0.2061,0.25091,-0.15835,-0.010984,0.025932,-0.055854,0.01281,0.018574,0.16145,0.059575,-0.040377,0.018113,-0.0028416,0.040656
0.012308,0.039077,-0.00036204,0.073981,-0.020863,0.056324,-0.2545,-0.060426,0.015829,-0.24897,0.35977,0.44541,-0.27318,-0.018379,0.043934,-0.096738,0.019281,0.01857,0.27627,0.1032,-0.071827,0.032936,-0.0050112,0.072
0.018653,0.060171,0.00026647,0.1147,-0.030603,0.08848,-0.39909,-0.092579,0.023262,-0.37261,0.54341,0.68858,-0.40466,-0.025932,0.063583,-0.14457,0.022641,-0.00094433,0.40467,0.15409,-0.11113,0.052427,-0.0077347,0.1107
0.02447,0.080762,0.0017871,0.15485,-0.038146,0.121,-0.54733,-0.1231,0.029167,-0.47582,0.7075,0.92733,-0.50931,-0.029918,0.077683,-0.18542,0.017082,-0.055765,0.50042,0.19715,-0.14939,0.073214,-0.010392,0.14755
0.027575,0.094329,0.0043543,0.18147,-0.03942,0.14355,-0.65682,-0.14158,0.030415,-0.50789,0.78583,1.0855,-0.53098,-0.025769,0.078017,-0.20132,-0.0027591,-0.15474,0.50445,0.21312,-0.17366,0.089746,-0.011904,0.16956
0.0263,0.095642,0.0076896,0.1836,-0.031824,0.14667,-0.691,-0.14023,0.024463,-0.43171,0.72869,1.1,-0.42985,-0.010431,0.060554,-0.17982,-0.037829,-0.2875,0.37492,0.18918,-0.17303,0.096564,-0.010941,0.16641
0.020706,0.084342,0.011018,0.15952,-0.016597,0.12776,-0.64387,-0.11981,0.010595,-0.25309,0.53892,0.96331,-0.21404,0.015137,0.030139,-0.12374,-0.081733,-0.4192,0.11955,0.1298,-0.1461,0.091424,-0.0063848,0.13782
0.013028,0.066199,0.013309,0.11998,0.00056192,0.094104,-0.55084,-0.091406,-0.0099171,-0.030614,0.28249,0.73894,0.050804,0.045198,0.00032859,-0.05344,-0.12187,-0.50165,-0.19477,0.058921,-0.10447,0.077167,0.001995,0.096219
0.0067419,0.050281,0.013769,0.08333,0.011759,0.059551,-0.47135,-0.071015,-0.035038,0.14903,0.057349,0.53061,0.26912,0.07132,-0.013483,0.0030162,-0.14538,-0.50056,-0.47066,0.0082919,-0.068071,0.060587,0.012887,0.060857
0.0045989,0.043326,0.012305,0.064689,0.011197,0.035878,-0.44878,-0.069478,-0.063612,0.22087,-0.064841,0.41772,0.36839,0.086438,-0.0041232,0.026861,-0.1467,-0.4233,-0.63591,-0.0024977,-0.054041,0.048574,0.023266,0.045792
0.0068997,0.045253,0.0096601,0.066264,-0.0012293,0.024596,-0.47402,-0.084806,-0.095843,0.18355,-0.083041,0.40307,0.34188,0.088241,0.021432,0.020874,-0.13117,-0.32421,-0.68997,0.019832,-0.066156,0.044141,0.029234,0.050304
0.011276,0.049511,0.0070948,0.076486,-0.019709,0.015911,-0.48267,-0.10343,-0.13182,0.099925,-0.061649,0.41545,0.24802,0.07954,0.045727,0.0065977,-0.11104,-0.27584,-0.70681,0.046033,-0.092882,0.045247,0.027968,0.059733
0.014249,0.048367,0.005794,0.079062,-0.036044,-0.0035815,-0.39382,-0.11022,-0.16913,0.051908,-0.077654,0.36864,0.16515,0.065663,0.052432,0.0077056,-0.096277,-0.32004,-0.78995,0.044676,-0.11588,0.047166,0.019913,0.057058
0.013498,0.039074,0.0063406,0.065091,-0.044489,-0.039967,-0.16654,-0.09975,-0.20182,0.082094,-0.16168,0.2307,0.13685,0.051415,0.037516,0.032368,-0.087135,-0.43379,-1.0113,0.0034152,-0.12274,0.046197,0.0095378,0.036325
0.0092073,0.0259,0.0085472,0.038789,-0.044407,-0.086504,0.16651,-0.07961,-0.22225,0.16729,-0.27989,0.046702,0.1511,0.040327,0.011526,0.06883,-0.074845,-0.53978,-1.3757,-0.066173,-0.11431,0.041549,0.0034024,0.0068782
0.0036073,0.016284,0.011689,0.012737,-0.039121,-0.12803,0.51394,-0.063251,-0.22501,0.24433,-0.36859,-0.10338,0.16727,0.036361,-0.0085207,0.097332,-0.050413,-0.56003,-1.8295,-0.1436,-0.10149,0.034204,0.0061011,-0.015124
-0.00083386,0.01439,0.014942,-0.0026985,-0.032383,-0.15169,0.77891,-0.058539,-0.21009,0.26545,-0.38827,-0.17422,0.16318,0.045346,-0.010973,0.10751,-0.014287,-0.47505,-2.2956,-0.21984,-0.095018,0.024612,0.016779,-0.020435
-0.0031305,0.017532,0.017743,-0.0067184,-0.025668,-0.15535,0.91297,-0.061989,-0.18281,0.23642,-0.35019,-0.19225,0.15857,0.073162,0.0038174,0.10602,0.021536,-0.34269,-2.7028,-0.30348,-0.096774,0.012041,0.029187,-0.013794
-0.0041844,0.018483,0.019889,-0.0067568,-0.018262,-0.14737,0.93402,-0.063214,-0.15037,0.20683,-0.29683,-0.22991,0.19483,0.1208,0.02582,0.1086,0.041445,-0.25974,-2.9948,-0.40623,-0.099074,-0.0036,0.035874,-0.0086705
-0.0057041,0.011585,0.021381,-0.010877,-0.0093652,-0.13872,0.90043,-0.05484,-0.11765,0.22382,-0.25969,-0.34179,0.29202,0.18013,0.043034,0.12469,0.038131,-0.29407,-3.1277,-0.52165,-0.091061,-0.019601,0.033643,-0.015085
-0.008561,-0.0025454,0.02223,-0.021236,0.00035141,-0.13477,0.86587,-0.038532,-0.085491,0.29109,-0.2352,-0.51793,0.42402,0.23479,0.047988,0.14908,0.018799,-0.4385,-3.076,-0.61826,-0.066049,-0.030825,0.02596,-0.031608
-0.011865,-0.017552,0.022391,-0.033902,0.0093293,-0.13302,0.84897,-0.021918,-0.052212,0.36833,-0.19714,-0.69104,0.53459,0.26714,0.039329,0.16746,0.00048173,-0.61928,-2.8458,-0.6563,-0.024325,-0.033026,0.020161,-0.048027
-0.013499,-0.026394,0.021906,-0.043946,0.016975,-0.12794,0.83589,-0.010156,-0.01676,0.40925,-0.12833,-0.78729,0.57912,0.26719,0.019788,0.16977,-0.0018998,-0.74796,-2.479,-0.61501,0.029076,-0.026348,0.021603,-0.055147
-0.011778,-0.026578,0.021074,-0.050236,0.024484,-0.11755,0.80613,-0.00082094,0.019627,0.40301,-0.038532,-0.77663,0.55495,0.23735,-0.006138,0.15863,0.014677,-0.77323,-2.0315,-0.50708,0.087985,-0.015601,0.029562,-0.052333
-0.0070039,-0.021453,0.020461,-0.055622,0.033447,-0.10615,0.75647,0.012802,0.054356,0.38265,0.046927,-0.68553,0.49603,0.18984,-0.033205,0.14581,0.041029,-0.69524,-1.5388,-0.36765,0.14672,-0.0067466,0.038194,-0.046613
-0.0016606,-0.017043,0.020616,-0.063152,0.04353,-0.10114,0.70418,0.033457,0.085592,0.39446,0.11287,-0.57039,0.44079,0.13908,-0.056049,0.14132,0.064377,-0.54106,-0.998,-0.22796,0.19972,-0.002596,0.041592,-0.045526
0.001079,-0.01739,0.021643,-0.072623,0.0517,-0.10722,0.67046,0.055133,0.11317,0.45603,0.16707,-0.47927,0.40346,0.094966,-0.070629,0.14566,0.078373,-0.332,-0.39056,-0.09731,0.24151,-0.0015472,0.038483,-0.051091
-0.00051673,-0.022122,0.022907,-0.08084,0.054179,-0.12266,0.66088,0.066861,0.13745,0.53886,0.22802,-0.43109,0.37196,0.061223,-0.075885,0.15192,0.086594,-0.074017,0.27058,0.031608,0.26854,-0.00030844,0.032685,-0.059919
-0.0056134,-0.027682,0.023174,-0.084909,0.049651,-0.14032,0.65979,0.061971,0.15752,0.58909,0.30104,-0.41996,0.3289,0.038452,-0.073905,0.15403,0.097521,0.2257,0.91197,0.1613,0.28144,0.0021985,0.029293,-0.067907
-0.011579,-0.030638,0.021266,-0.085071,0.040946,-0.15186,0.64204,0.044421,0.171,0.56786,0.3668,-0.43113,0.27293,0.027437,-0.067933,0.1527,0.116,0.53978,1.423,0.27455,0.28509,0.0035546,0.030236,-0.074019
-0.01594,-0.030279,0.016924,-0.08436,0.033636,-0.15177,0.59145,0.026539,0.17571,0.47854,0.39307,-0.45236,0.22122,0.029025,-0.059779,0.15334,0.13854,0.82396,1.7222,0.34219,0.28553,0.00028092,0.033084,-0.079714
-0.017844,-0.028686,0.011326,-0.085768,0.03259,-0.13859,0.51113,0.020217,0.17193,0.36156,0.35838,-0.47563,0.19403,0.041138,-0.048879,0.15923,0.1559,1.0423,1.8156,0.34742,0.28605,-0.0085644,0.033776,-0.085712
-0.017948,-0.028705,0.0066937,-0.089833,0.039129,-0.11353,0.41884,0.029081,0.16286,0.2646,0.26728,-0.49502,0.19756,0.056991,-0.033708,0.16723,0.16029,1.1903,1.7969,0.30412,0.28573,-0.020204,0.030404,-0.090351
-0.017227,-0.031673,0.005057,-0.094792,0.050732,-0.078527,0.33272,0.04769,0.15308,0.21325,0.14652,-0.50655,0.22,0.067738,-0.013973,0.1703,0.15097,1.292,1.7855,0.25079,0.28158,-0.03044,0.024572,-0.09145
-0.016114,-0.036603,0.0069335,-0.098708,0.063124,-0.035755,0.25912,0.06739,0.1462,0.20232,0.028959,-0.50892,0.24158,0.068235,0.0085295,0.16406,0.13399,1.3733,1.8494,0.22399,0.27217,-0.037116,0.01938,-0.089405
-0.014771,-0.041228,0.010994,-0.10122,0.072893,0.011328,0.19088,0.083209,0.14349,0.20792,-0.060296,-0.501,0.24725,0.060827,0.031015,0.15081,0.11697,1.436,1.9743,0.23355,0.25904,-0.041472,0.016374,-0.087791
-0.013833,-0.043862,0.015105,-0.10332,0.078836,0.056945,0.1153,0.096334,0.1438,0.20513,-0.10743,-0.47726,0.23131,0.053144,0.051385,0.13724,0.10341,1.4557,2.0974,0.25975,0.24464,-0.046418,0.014459,-0.09051
-0.01439,-0.044616,0.017948,-0.10581,0.081523,0.093663,0.023965,0.11129,0.14416,0.17706,-0.10689,-0.42782,0.19309,0.051071,0.068701,0.12852,0.09081,1.406,2.1701,0.27305,0.22863,-0.053707,0.011578,-0.098297
-0.016963,-0.045099,0.019788,-0.10827,0.081909,0.11494,-0.08287,0.13126,0.14047,0.11408,-0.060222,-0.34774,0.13124,0.052626,0.082089,0.12426,0.073415,1.2845,2.191,0.25774,0.20656,-0.06274,0.0070933,-0.10816
-0.020603,-0.046968,0.021637,-0.10965,0.080232,0.11812,-0.19867,0.15564,0.12872,0.012165,0.020297,-0.24959,0.043854,0.047999,0.089455,0.11983,0.046801,1.1175,2.1838,0.21998,0.17288,-0.071754,0.002295,-0.11627
-0.023369,-0.050501,0.023617,-0.10969,0.075918,0.10583,-0.31535,0.18139,0.10698,-0.12295,0.10791,-0.16612,-0.065793,0.025891,0.087699,0.11101,0.01105,0.94196,2.1503,0.17696,0.1263,-0.079736,-0.0013575,-0.12137
-0.023999,-0.054294,0.024263,-0.10957,0.068445,0.084918,-0.42527,0.20626,0.07746,-0.2699,0.16449,-0.13535,-0.18415,-0.018673,0.074791,0.097391,-0.029088,0.78351,2.0483,0.14031,0.073186,-0.086967,-0.0041142,-0.12514
-0.023132,-0.056315,0.021717,-0.11097,0.05843,0.063694,-0.51987,0.23104,0.046837,-0.3948,0.15228,-0.17569,-0.28916,-0.08043,0.052274,0.081873,-0.066411,0.65104,1.8226,0.10945,0.025473,-0.09386,-0.0076736,-0.12945
-0.022676,-0.055512,0.015871,-0.11443,0.048054,0.049217,-0.58852,0.25902,0.023619,-0.46741,0.049027,-0.27003,-0.35901,-0.14559,0.026076,0.067497,-0.09426,0.54874,1.4629,0.077861,-0.0057931,-0.099608,-0.012923,-0.13338
-0.023774,-0.052763,0.0092813,-0.11854,0.040338,0.046099,-0.62122,0.29315,0.013824,-0.48111,-0.14116,-0.37286,-0.38224,-0.1971,0.0045459,0.055041,-0.10903,0.48736,1.0432,0.042575,-0.016849,-0.10222,-0.018175,-0.13335
-0.025415,-0.050457,0.0055951,-0.1208,0.037513,0.05677,-0.6146,0.33279,0.017866,-0.46009,-0.38681,-0.43654,-0.36254,-0.22046,-0.0054262,0.043331,-0.11152,0.47874,0.70837,0.0059912,-0.012787,-0.099957,-0.020089,-0.12644
-0.025274,-0.050989,0.0065355,-0.11944,0.039531,0.082147,-0.57652,0.37245,0.031068,-0.44496,-0.63883,-0.43734,-0.31553,-0.20866,-0.0019043,0.031245,-0.10657,0.51743,0.61755,-0.030413,-0.0032819,-0.092849,-0.016709,-0.11363
-0.022174,-0.055264,0.01008,-0.11459,0.043856,0.12163,-0.52431,0.40346,0.047318,-0.46504,-0.84731,-0.38359,-0.26023,-0.16582,0.01119,0.019045,-0.10102,0.57045,0.8731,-0.0715,0.0041696,-0.082837,-0.0096953,-0.099684
-0.017754,-0.062198,0.011653,-0.10819,0.046818,0.17229,-0.47685,0.41803,0.062865,-0.51794,-0.97867,-0.30326,-0.21083,-0.1079,0.02632,0.0078015,-0.10022,0.59175,1.4667,-0.12491,0.008466,-0.072658,-0.0034168,-0.089569
-0.015454,-0.069408,0.0075729,-0.10261,0.045655,0.22803,-0.44529,0.41331,0.077226,-0.57231,-1.0254,-0.22468,-0.17301,-0.058694,0.036255,-0.0021916,-0.10493,0.55479,2.2626,-0.19054,0.013877,-0.064352,-0.0015967,-0.084565
-0.017414,-0.074471,-0.0020114,-0.099188,0.039745,0.27987,-0.42866,0.39285,0.09092,-0.59215,-1.0038,-0.16553,-0.14547,-0.041023,0.03722,-0.012269,-0.11035,0.47683,3.0306,-0.25336,0.025195,-0.058415,-0.0045836,-0.081631
-0.022089,-0.075856,-0.01309,-0.097741,0.030244,0.31809,-0.41705,0.36436,0.10262,-0.56417,-0.94136,-0.13477,-0.12428,-0.066879,0.029523,-0.024739,-0.10837,0.41139,3.5283,-0.28846,0.043118,-0.053873,-0.0096522,-0.076503
-0.025025,-0.073192,-0.020632,-0.097008,0.018711,0.3354,-0.39919,0.3349,0.10891,-0.50742,-0.86261,-0.13891,-0.10668,-0.13221,0.015804,-0.041399,-0.092358,0.41051,3.6077,-0.27637,0.063213,-0.049055,-0.013758,-0.067549
-0.022523,-0.067081,-0.021999,-0.095542,0.0060761,0.3301,-0.36904,0.30674,0.10732,-0.4583,-0.78224,-0.18251,-0.093011,-0.21928,-0.0013305,-0.062386,-0.061808,0.48396,3.2898,-0.21781,0.078718,-0.042687,-0.015956,-0.056869
-0.015126,-0.058865,-0.018386,-0.092326,-0.007213,0.30714,-0.3272,0.27696,0.10024,-0.44307,-0.70742,-0.26092,-0.086767,-0.30431,-0.020307,-0.085935,-0.024089,0.58609,2.7515,-0.1363,0.08469,-0.034878,-0.017396,-0.047859
-0.0077098,-0.050389,-0.013568,-0.086918,-0.020366,0.27613,-0.27766,0.24113,0.09572,-0.45867,-0.64265,-0.354,-0.093736,-0.36504,-0.039568,-0.10883,0.0083623,0.64045,2.2197,-0.066203,0.08051,-0.027439,-0.019443,-0.041791
-0.0057072,-0.04356,-0.011262,-0.0794,-0.031991,0.24693,-0.22335,0.19826,0.10329,-0.47501,-0.58896,-0.43072,-0.11998,-0.38487,-0.055688,-0.1272,0.024226,0.58411,1.8357,-0.033937,0.069452,-0.023068,-0.022214,-0.036725
-0.010474,-0.039617,-0.013103,-0.070424,-0.04099,0.22495,-0.16439,0.15295,0.12697,-0.45557,-0.53718,-0.46559,-0.16853,-0.35458,-0.062739,-0.13763,0.019429,0.40174,1.5865,-0.044505,0.056256,-0.023686,-0.024949,-0.029617
-0.017785,-0.0385,-0.01827,-0.061265,-0.047863,0.2091,-0.10019,0.1125,0.16036,-0.38045,-0.46454,-0.45623,-0.23589,-0.27492,-0.054387,-0.13862,-0.00061434,0.12986,1.3562,-0.081225,0.044594,-0.028992,-0.027405,-0.019403
-0.020972,-0.03886,-0.024481,-0.053468,-0.05497,0.19354,-0.033276,0.081071,0.18796,-0.25666,-0.34441,-0.4269,-0.31085,-0.16022,-0.028143,-0.13189,-0.024259,-0.1653,1.0524,-0.11751,0.03577,-0.036401,-0.030353,-0.0080146
-0.016237,-0.03887,-0.029399,-0.047968,-0.065094,0.17199,0.02833,0.055677,0.19291,-0.11171,-0.16654,-0.41161,-0.37789,-0.038984,0.010886,-0.12238,-0.040463,-0.4178,0.70009,-0.13236,0.028717,-0.042503,-0.034499,0.0015194
-0.0057227,-0.037366,-0.031768,-0.044178,-0.079201,0.14166,0.072854,0.027769,0.16644,0.021944,0.047332,-0.42622,-0.42399,0.053429,0.050006,-0.11645,-0.04474,-0.58247,0.42398,-0.11997,0.020692,-0.044934,-0.039109,0.0079126
0.004247,-0.03453,-0.031949,-0.039939,-0.09509,0.1044,0.089748,-0.010134,0.113,0.1202,0.24837,-0.45008,-0.44456,0.089038,0.074051,-0.11855,-0.040385,-0.64084,0.33432,-0.088798,0.0082396,-0.04321,-0.042154,0.012648
0.0082247,-0.03161,-0.031719,-0.032751,-0.10805,0.064713,0.074652,-0.057889,0.04751,0.17249,0.3863,-0.43437,-0.444,0.060875,0.073365,-0.12859,-0.034464,-0.59811,0.42041,-0.052586,-0.0115,-0.038099,-0.042153,0.018402
0.0057264,-0.029912,-0.033243,-0.021622,-0.11316,0.026614,0.030686,-0.10672,-0.013175,0.18008,0.43793,-0.33539,-0.43069,-0.01366,0.049624,-0.14187,-0.031874,-0.47885,0.5467,-0.020563,-0.039192,-0.030439,-0.039966,0.026594
0.0010829,-0.029792,-0.037594,-0.0080945,-0.10791,-0.0086883,-0.034648,-0.14497,-0.058891,0.15223,0.41695,-0.15049,-0.411,-0.10304,0.015098,-0.15204,-0.031927,-0.32291,0.55536,0.0064458,-0.072138,-0.02064,-0.03858,0.036409
-0.00047329,-0.030346,-0.043779,0.0045722,-0.093548,-0.04315,-0.11379,-0.16634,-0.089596,0.10295,0.35801,0.07093,-0.38764,-0.17882,-0.014745,-0.15528,-0.029697,-0.17859,0.38503,0.032654,-0.10465,-0.0092007,-0.040782,0.045947
0.0030671,-0.029963,-0.049246,0.013658,-0.074848,-0.080428,-0.20019,-0.17408,-0.11228,0.047394,0.28941,0.25263,-0.36301,-0.22789,-0.030354,-0.1527,-0.020483,-0.090377,0.1037,0.060865,-0.13038,0.0026552,-0.046693,0.054023
0.0094921,-0.02735,-0.051786,0.01896,-0.058218,-0.12324,-0.28476,-0.17808,-0.13454,-0.0027955,0.21692,0.33684,-0.34308,-0.25196,-0.032486,-0.14888,-0.0035303,-0.084445,-0.16629,0.08885,-0.1455,0.013201,-0.053348,0.060788
0.014821,-0.022394,-0.05141,0.022857,-0.04909,-0.17051,-0.35147,-0.18729,-0.15935,-0.043527,0.12981,0.31725,-0.33621,-0.25701,-0.029131,-0.14789,0.01772,-0.15912,-0.35792,0.11118,-0.15057,0.021204,-0.056761,0.066834
0.016644,-0.016369,-0.05047,0.028345,-0.049567,-0.21585,-0.3784,-0.20369,-0.1839,-0.077605,0.020484,0.23612,-0.34683,-0.24359,-0.028207,-0.14992,0.038392,-0.28694,-0.50598,0.12409,-0.14969,0.026567,-0.054848,0.072077
0.015514,-0.011341,-0.051665,0.036668,-0.057544,-0.24904,-0.34694,-0.22236,-0.20201,-0.10801,-0.10123,0.15033,-0.37,-0.20708,-0.032346,-0.15156,0.055144,-0.42849,-0.69732,0.12846,-0.14753,0.029717,-0.048949,0.075785
0.013726,-0.0089671,-0.055534,0.046489,-0.068079,-0.26084,-0.25465,-0.23693,-0.20797,-0.12941,-0.21108,0.094169,-0.39303,-0.14722,-0.039438,-0.1496,0.067057,-0.55069,-0.98044,0.12859,-0.14631,0.03032,-0.042931,0.077658
0.013136,-0.0093041,-0.05973,0.055202,-0.076549,-0.24867,-0.1224,-0.24541,-0.19965,-0.12578,-0.28599,0.066911,-0.40405,-0.076811,-0.046801,-0.14482,0.074511,-0.63901,-1.3218,0.12836,-0.14502,0.026897,-0.040649,0.078633
0.014066,-0.010397,-0.060914,0.061104,-0.081749,-0.21897,0.011248,-0.25175,-0.17972,-0.079027,-0.31798,0.049342,-0.4004,-0.019189,-0.05359,-0.142,0.077937,-0.69699,-1.645,0.12882,-0.14113,0.01831,-0.043563,0.080391
0.015841,-0.0092088,-0.057662,0.064525,-0.086628,-0.18369,0.10729,-0.2621,-0.15473,0.015851,-0.31657,0.029415,-0.38892,0.0059018,-0.05865,-0.14561,0.077771,-0.73487,-1.9086,0.1292,-0.1331,0.0060902,-0.04995,0.083958
0.017922,-0.0035898,-0.051754,0.067126,-0.095784,-0.1528,0.14574,-0.27954,-0.13238,0.14075,-0.30155,0.012771,-0.37788,-0.0029363,-0.056784,-0.15477,0.075199,-0.75702,-2.1448,0.12942,-0.12184,-0.0047498,-0.056025,0.088821
0.020316,0.0059845,-0.04664,0.070293,-0.11131,-0.12865,0.13579,-0.30163,-0.11777,0.2601,-0.29476,0.012037,-0.36865,-0.026462,-0.039197,-0.16244,0.072276,-0.7584,-2.4212,0.13097,-0.11011,-0.0079219,-0.058136,0.093426
0.023041,0.016329,-0.044504,0.074177,-0.13017,-0.10705,0.11035,-0.32237,-0.11047,0.34142,-0.31551,0.030175,-0.35572,-0.038469,-0.00020333,-0.16011,0.070905,-0.73271,-2.7618,0.13499,-0.10074,-3.7466e-005,-0.05475,0.096536
0.025473,0.023484,-0.044659,0.078058,-0.14532,-0.083875,0.1073,-0.33642,-0.10436,0.37688,-0.37639,0.057153,-0.33575,-0.025479,0.054736,-0.14477,0.071684,-0.68525,-3.0995,0.13996,-0.094931,0.016354,-0.047183,0.09805
0.026436,0.025373,-0.044658,0.081318,-0.15017,-0.061319,0.14757,-0.34155,-0.090841,0.38887,-0.47539,0.083234,-0.31631,0.0030316,0.1077,-0.12199,0.073932,-0.63798,-3.3052,0.14253,-0.091907,0.03349,-0.038745,0.098561
0.02503,0.023129,-0.04291,0.083879,-0.14293,-0.047427,0.2222,-0.33783,-0.063935,0.41324,-0.58799,0.11351,-0.31403,0.021979,0.13707,-0.10219,0.076933,-0.61922,-3.2731,0.14134,-0.08971,0.042769,-0.032886,0.098297
0.02144,0.019982,-0.040227,0.085818,-0.12765,-0.049121,0.29659,-0.32518,-0.02386,0.47177,-0.6697,0.16625,-0.34097,0.0097924,0.13073,-0.092735,0.081013,-0.64263,-2.9964,0.14038,-0.086515,0.039818,-0.031377,0.096698
0.017016,0.018667,-0.038897,0.086899,-0.11116,-0.065216,0.33099,-0.30285,0.023345,0.55534,-0.67573,0.25401,-0.39031,-0.035257,0.093388,-0.092558,0.087203,-0.69088,-2.5784,0.14733,-0.081502,0.026818,-0.033511,0.093103
0.013564,0.019549,-0.040316,0.086816,-0.098594,-0.08652,0.30585,-0.27188,0.069898,0.63173,-0.58972,0.36507,-0.43494,-0.092923,0.042082,-0.093647,0.095745,-0.71903,-2.1721,0.1671,-0.074784,0.0107,-0.0366,0.087741
0.012419,0.020987,-0.043482,0.085967,-0.090899,-0.10362,0.23595,-0.2384,0.11082,0.67209,-0.44151,0.46393,-0.44317,-0.13298,-0.0062229,-0.088266,0.10502,-0.67963,-1.8919,0.19586,-0.06653,-0.0012003,-0.037358,0.081853
0.013876,0.0214,-0.045689,0.085744,-0.086178,-0.11548,0.1627,-0.21332,0.14533,0.67368,-0.29707,0.51336,-0.4008,-0.13162,-0.044661,-0.075686,0.1121,-0.55411,-1.7535,0.22192,-0.056026,-0.0050045,-0.03341,0.076796
0.017188,0.02097,-0.044645,0.087611,-0.082921,-0.13081,0.12846,-0.20686,0.17408,0.65913,-0.22287,0.50041,-0.32226,-0.081591,-0.076798,-0.062893,0.11458,-0.36718,-1.6745,0.23411,-0.041577,-0.0015131,-0.024343,0.073109
0.020961,0.021419,-0.040087,0.091543,-0.081924,-0.16054,0.14993,-0.22091,0.19504,0.65223,-0.2465,0.44508,-0.24136,0.0073585,-0.10909,-0.058998,0.11211,-0.17148,-1.5329,0.23147,-0.021612,0.0052609,-0.012055,0.070557
0.023724,0.024179,-0.03372,0.095351,-0.085088,-0.20815,0.20946,-0.24557,0.20218,0.65108,-0.33988,0.3847,-0.18833,0.11431,-0.14362,-0.068308,0.10626,-0.011849,-1.2435,0.22523,0.0036529,0.01075,-0.0002656,0.068943
0.024458,0.028806,-0.027885,0.095905,-0.09258,-0.2667,0.26975,-0.26367,0.18889,0.62314,-0.43578,0.34687,-0.17067,0.21376,-0.17721,-0.087666,0.09919,0.10365,-0.80987,0.23038,0.031369,0.012089,0.0068965,0.0685
0.02297,0.033142,-0.024242,0.091572,-0.10161,-0.32534,0.29952,-0.26141,0.15383,0.52849,-0.46603,0.33184,-0.17195,0.28102,-0.20571,-0.10959,0.092223,0.203,-0.31939,0.25319,0.057039,0.0091918,0.0069766,0.069159
0.019934,0.035013,-0.023272,0.083889,-0.10866,-0.3792,0.29009,-0.23762,0.1042,0.35382,-0.39689,0.31618,-0.16752,0.29776,-0.22721,-0.12781,0.085711,0.32018,0.11279,0.28529,0.076929,0.0045665,0.00096859,0.069513
0.016551,0.033831,-0.024431,0.076838,-0.11334,-0.43355,0.25168,-0.20461,0.053214,0.12944,-0.24212,0.2728,-0.14332,0.25837,-0.24072,-0.14044,0.079813,0.46097,0.41569,0.31002,0.090242,0.0020177,-0.0067067,0.067072
0.013996,0.030705,-0.026449,0.074029,-0.12008,-0.49815,0.1966,-0.17961,0.013047,-0.085163,-0.05069,0.19125,-0.10329,0.1739,-0.24282,-0.14879,0.075095,0.59359,0.60106,0.31584,0.099343,0.0046019,-0.010787,0.060263
0.012939,0.027199,-0.027684,0.07595,-0.13504,-0.57666,0.12696,-0.17303,-0.011505,-0.23679,0.11913,0.084434,-0.062162,0.069302,-0.22804,-0.15401,0.072029,0.67188,0.74256,0.3051,0.10778,0.012694,-0.0091141,0.050474
0.013384,0.024098,-0.026815,0.079527,-0.16025,-0.66025,0.03838,-0.18191,-0.024116,-0.30874,0.22351,-0.020898,-0.03253,-0.026944,-0.19413,-0.1553,0.069709,0.67012,0.91216,0.2907,0.11755,0.023413,-0.0049658,0.041795
0.014822,0.021315,-0.023741,0.080426,-0.18976,-0.73116,-0.065782,-0.19327,-0.032411,-0.3246,0.24393,-0.10162,-0.01797,-0.095617,-0.14755,-0.15128,0.06517,0.599,1.1238,0.28349,0.1276,0.032105,-0.0052116,0.037939
0.016516,0.018762,-0.019893,0.076261,-0.21184,-0.77315,-0.16687,-0.19391,-0.041957,-0.326,0.18397,-0.15151,-0.015698,-0.13357,-0.10255,-0.1426,0.054513,0.49016,1.3275,0.28208,0.13441,0.035129,-0.014828,0.038806
0.017745,0.017032,-0.017274,0.068134,-0.21617,-0.78039,-0.24096,-0.17945,-0.053581,-0.3434,0.058192,-0.18291,-0.023,-0.15034,-0.073316,-0.13281,0.035634,0.36664,1.4569,0.27403,0.13403,0.031984,-0.031826,0.04
0.017948,0.017014,-0.016699,0.05939,-0.2006,-0.75775,-0.27932,-0.15616,-0.065393,-0.38131,-0.11728,-0.21725,-0.039475,-0.15811,-0.06554,-0.12613,0.010825,0.22943,1.4861,0.24738,0.12404,0.025105,-0.047239,0.036261
0.016784,0.018799,-0.016859,0.052831,-0.17211,-0.71303,-0.29924,-0.13518,-0.0765,-0.42454,-0.32542,-0.27173,-0.063334,-0.16334,-0.07483,-0.12393,-0.012952,0.073868,1.4487,0.20203,0.10448,0.017566,-0.051149,0.026082
0.014143,0.021066,-0.015392,0.048829,-0.14099,-0.64828,-0.33084,-0.12404,-0.088227,-0.45582,-0.54025,-0.35034,-0.0872,-0.16623,-0.093073,-0.1233,-0.027026,-0.081773,1.4039,0.15075,0.077701,0.010731,-0.040432,0.013377
0.010135,0.021762,-0.011289,0.045818,-0.1129,-0.55817,-0.38769,-0.12122,-0.10153,-0.46858,-0.71859,-0.44366,-0.099439,-0.16648,-0.11616,-0.11922,-0.025843,-0.18888,1.3857,0.10891,0.04774,0.0039145,-0.021766,0.0045466
0.005147,0.019654,-0.0063437,0.042358,-0.085137,-0.43712,-0.44677,-0.1169,-0.11362,-0.46715,-0.80361,-0.53604,-0.091001,-0.16825,-0.14551,-0.10875,-0.010598,-0.19834,1.3835,0.082225,0.01921,-0.0037287,-0.0068823,0.003354
-3.8769e-005,0.01542,-0.003905,0.038596,-0.049615,-0.28979,-0.45958,-0.098722,-0.11809,-0.45863,-0.74442,-0.61418,-0.061598,-0.17863,-0.18241,-0.093846,0.011078,-0.10713,1.3739,0.063199,-0.0041953,-0.011035,-0.0035918,0.0079826
-0.004238,0.011214,-0.0057303,0.035702,4.2592e-005,-0.13624,-0.39065,-0.058892,-0.10987,-0.4468,-0.52223,-0.67136,-0.019264,-0.20081,-0.22151,-0.080288,0.029585,0.021557,1.3701,0.039328,-0.021204,-0.01467,-0.0099569,0.012649
-0.0061853,0.0089436,-0.0098359,0.034009,0.063079,-0.0065805,-0.25387,0.001137,-0.091174,-0.43345,-0.16416,-0.70572,0.026578,-0.22896,-0.25093,-0.073593,0.039206,0.091292,1.4372,0.0055753,-0.033505,-0.011506,-0.016524,0.012146
-0.0051816,0.0086343,-0.011672,0.031957,0.13166,0.072144,-0.11449,0.070683,-0.072829,-0.42428,0.26827,-0.71536,0.07253,-0.25065,-0.25945,-0.07495,0.04125,0.040945,1.6482,-0.029997,-0.044577,-0.0017518,-0.014658,0.0053806
-0.0016784,0.0083473,-0.0079533,0.027172,0.19563,0.088893,-0.050862,0.13445,-0.068569,-0.43169,0.71005,-0.69545,0.12306,-0.25601,-0.24439,-0.080322,0.042202,-0.10478,2.0076,-0.052404,-0.057317,0.0097816,-0.0038148,-0.0047225
0.0027145,0.0058734,0.00019659,0.018839,0.24787,0.05304,-0.10362,0.1794,-0.08586,-0.47071,1.1199,-0.63968,0.18604,-0.24635,-0.21295,-0.08333,0.048234,-0.24816,2.408,-0.052193,-0.07216,0.015541,0.008317,-0.014221
0.0059549,0.0009386,0.007771,0.0090379,0.28644,-0.012202,-0.25193,0.20011,-0.12033,-0.55027,1.4828,-0.54483,0.26639,-0.23496,-0.17636,-0.079702,0.060287,-0.29043,2.6608,-0.033187,-0.087165,0.0092074,0.012553,-0.021074
0.0065943,-0.0039547,0.0098774,0.0015441,0.31301,-0.082763,-0.43521,0.19976,-0.15836,-0.66621,1.7881,-0.41436,0.36269,-0.23915,-0.14289,-0.07,0.073529,-0.20724,2.5894,-0.0088099,-0.099934,-0.010649,0.0057389,-0.025701
0.004404,-0.0050131,0.005826,-0.0010645,0.32979,-0.14489,-0.6008,0.18653,-0.18596,-0.80041,2.0056,-0.25822,0.46804,-0.26906,-0.11579,-0.058755,0.081544,-0.064859,2.1256,0.0095022,-0.10967,-0.039258,-0.0072306,-0.029453
0.00023367,-9.7469e-005,-0.00024078,0.0005032,0.33782,-0.19831,-0.73666,0.16848,-0.19711,-0.92625,2.0856,-0.089303,0.57277,-0.32065,-0.09661,-0.05085,0.081691,0.038325,1.35,0.021339,-0.11764,-0.067193,-0.017909,-0.033004
-0.0046295,0.0090785,-0.0027088,0.0028135,0.33728,-0.25101,-0.86219,0.15073,-0.19546,-1.0176,1.987,0.080653,0.66679,-0.37642,-0.088337,-0.047945,0.077041,0.056286,0.45905,0.035733,-0.12578,-0.083874,-0.020722,-0.036177
-0.0090074,0.0174,0.0010804,0.0024029,0.32881,-0.31035,-0.98831,0.13645,-0.18898,-1.0574,1.7119,0.24327,0.74145,-0.41264,-0.09379,-0.047479,0.073002,0.032587,-0.31405,0.060428,-0.13493,-0.081634,-0.015779,-0.038832
-0.011967,0.019463,0.009062,-0.0017601,0.31422,-0.3764,-1.0855,0.12948,-0.18265,-1.0434,1.3185,0.39346,0.79192,-0.40889,-0.11048,-0.044646,0.071276,0.056459,-0.78005,0.091611,-0.14437,-0.059046,-0.0066749,-0.041419
-0.012767,0.013277,0.016588,-0.00805,0.29617,-0.44028,-1.0919,0.13475,-0.17495,-0.98709,0.90079,0.52847,0.81936,-0.35628,-0.128,-0.035532,0.066239,0.17468,-0.84897,0.11324,-0.15294,-0.022345,0.0033997,-0.044446
-0.011041,0.001852,0.020324,-0.014063,0.27769,-0.48619,-0.95912,0.15538,-0.16019,-0.90746,0.55231,0.64736,0.83066,-0.26151,-0.13224,-0.019019,0.047285,0.33659,-0.55519,0.10678,-0.16063,0.016047,0.013148,-0.047593
-0.0072336,-0.0085617,0.020484,-0.018643,0.26201,-0.49451,-0.69587,0.18886,-0.13357,-0.82006,0.33799,0.75047,0.83428,-0.14501,-0.11401,0.0034902,0.0060062,0.42243,-0.051574,0.0636,-0.16915,0.042154,0.021639,-0.049673
-0.0027978,-0.01242,0.019783,-0.022246,0.25234,-0.44489,-0.37335,0.22648,-0.094759,-0.72917,0.28483,0.83797,0.83447,-0.033234,-0.075133,0.02954,-0.056819,0.33349,0.43468,-0.0092989,-0.1809,0.046849,0.026756,-0.049648
0.00034901,-0.0082761,0.020539,-0.025663,0.25098,-0.3202,-0.082752,0.25775,-0.047821,-0.62784,0.38283,0.90747,0.82866,0.051864,-0.027238,0.056602,-0.12956,0.069357,0.68551,-0.093396,-0.19724,0.030932,0.02642,-0.047666
0.00097512,0.00061529,0.022754,-0.028704,0.25773,-0.11198,0.12254,0.2768,0.00085795,-0.50628,0.58413,0.95228,0.81076,0.10054,0.01558,0.081999,-0.1947,-0.27067,0.5865,-0.1681,-0.21743,0.0054988,0.021701,-0.044968
-0.00057433,0.0086468,0.024714,-0.030266,0.2689,0.17468,0.25603,0.28574,0.044289,-0.36227,0.80358,0.96301,0.77785,0.11631,0.044081,0.10271,-0.23713,-0.56055,0.17774,-0.21857,-0.23877,-0.013511,0.017994,-0.042743
-0.0026014,0.011368,0.025075,-0.029634,0.27841,0.52088,0.37725,0.29221,0.075391,-0.20547,0.93656,0.93328,0.7341,0.11109,0.056597,0.1162,-0.25041,-0.73311,-0.38155,-0.23853,-0.25782,-0.014056,0.021757,-0.04114
-0.0033866,0.0078574,0.024155,-0.027511,0.28083,0.89958,0.53854,0.30304,0.087623,-0.052341,0.90088,0.86692,0.68761,0.099494,0.057268,0.12203,-0.23786,-0.8118,-0.91999,-0.22956,-0.27173,0.0051622,0.034872,-0.039515
-0.0026054,0.00075131,0.023252,-0.025587,0.27428,1.284,0.74093,0.31897,0.077011,0.083517,0.68328,0.78188,0.64213,0.095899,0.053103,0.12257,-0.20887,-0.87165,-1.3594,-0.1999,-0.27895,0.034175,0.051801,-0.037617
-0.0016016,-0.005681,0.02299,-0.025013,0.26106,1.6518,0.93093,0.33432,0.04482,0.19693,0.35484,0.7062,0.59095,0.11328,0.052079,0.12155,-0.17387,-0.97024,-1.7413,-0.16337,-0.27914,0.057972,0.062849,-0.036385
-0.0021836,-0.008022,0.022619,-0.025297,0.24535,1.9826,1.0377,0.34094,-0.0014615,0.28845,0.035528,0.66668,0.51897,0.15946,0.061513,0.12136,-0.14088,-1.1056,-2.1589,-0.1365,-0.27266,0.065403,0.061382,-0.03736
-0.0048994,-0.0054063,0.021042,-0.024777,0.22992,2.2509,1.0208,0.33279,-0.05035,0.35704,-0.17311,0.67567,0.41254,0.22991,0.085155,0.12137,-0.11454,-1.227,-2.6571,-0.13311,-0.26,0.054959,0.049006,-0.04115
-0.0082936,0.00025769,0.01836,-0.022273,0.21463,2.4259,0.8947,0.30778,-0.090819,0.3965,-0.24022,0.72442,0.2697,0.3029,0.11978,0.11914,-0.096675,-1.2782,-3.1863,-0.15847,-0.24154,0.034056,0.034242,-0.046415
-0.009901,0.0054993,0.016154,-0.018396,0.19747,2.4803,0.71645,0.26637,-0.11622,0.40003,-0.20646,0.78777,0.10306,0.34487,0.15435,0.11312,-0.087063,-1.2337,-3.6415,-0.20725,-0.2177,0.013037,0.025828,-0.050469
-0.0082546,0.0073087,0.016079,-0.015321,0.17691,2.4055,0.55077,0.20936,-0.12552,0.36919,-0.13877,0.83779,-0.066846,0.32702,0.17401,0.10406,-0.084139,-1.1054,-3.9423,-0.26673,-0.18925,-0.0014643,0.026316,-0.051129
-0.0042309,0.0049564,0.018223,-0.015208,0.15305,2.2193,0.43861,0.13741,-0.12197,0.31891,-0.080178,0.85798,-0.2224,0.24353,0.16718,0.093491,-0.085705,-0.92674,-4.0773,-0.32287,-0.15736,-0.0093077,0.031059,-0.048303
-0.00051275,0.00052851,0.020986,-0.018605,0.12674,1.9594,0.38798,0.052606,-0.11093,0.27285,-0.034661,0.84941,-0.35549,0.11734,0.1314,0.080823,-0.089655,-0.73624,-4.0805,-0.36479,-0.12324,-0.014582,0.032877,-0.044038
0.00050099,-0.0023512,0.022628,-0.024065,0.098097,1.6638,0.38554,-0.039486,-0.098058,0.25181,0.0090635,0.82601,-0.46571,-0.012353,0.07433,0.062696,-0.094185,-0.57089,-3.9781,-0.38563,-0.087543,-0.020765,0.028076,-0.041018
-0.0013588,-0.0010074,0.022901,-0.02913,0.066242,1.3555,0.41366,-0.12958,-0.088161,0.26304,0.046014,0.80376,-0.5529,-0.11242,0.010114,0.036371,-0.097259,-0.46454,-3.766,-0.38135,-0.050217,-0.02729,0.018996,-0.040696
-0.0039097,0.0042343,0.023045,-0.03184,0.03073,1.0407,0.45851,-0.20682,-0.084012,0.29771,0.049799,0.79145,-0.61143,-0.17114,-0.045639,0.0045638,-0.096001,-0.44016,-3.4403,-0.35098,-0.011184,-0.029973,0.011678,-0.04239
-0.0045251,0.010061,0.024225,-0.031734,-0.0067474,0.72288,0.50748,-0.26223,-0.085401,0.33708,-0.0020443,0.78791,-0.63158,-0.19557,-0.079568,-0.023149,-0.087195,-0.49666,-3.0422,-0.29905,0.028305,-0.024656,0.011169,-0.043877
-0.0025248,0.012507,0.026124,-0.029901,-0.042158,0.41698,0.5455,-0.29147,-0.08932,0.36249,-0.099569,0.78487,-0.60736,-0.19519,-0.082597,-0.034971,-0.069269,-0.60196,-2.6608,-0.23752,0.064592,-0.011024,0.018257,-0.04296
2.2416e-005,0.0099935,0.027239,-0.028217,-0.070495,0.15151,0.55967,-0.29523,-0.091717,0.36342,-0.19876,0.77157,-0.54446,-0.16717,-0.051517,-0.02481,-0.044511,-0.70205,-2.3803,-0.18333,0.091812,0.0063904,0.029573,-0.038971
-8.4311e-005,0.0046521,0.0266,-0.028261,-0.087267,-0.043421,0.55108,-0.2772,-0.089819,0.3404,-0.24945,0.73814,-0.46125,-0.096658,0.0095569,0.0028455,-0.019325,-0.74321,-2.2161,-0.15112,0.1038,0.020812,0.040196,-0.033251
-0.0043818,0.00067892,0.025053,-0.030399,-0.088873,-0.15119,0.54231,-0.24118,-0.083234,0.30325,-0.22658,0.67778,-0.38126,0.028062,0.089178,0.035524,-0.0013884,-0.69303,-2.0975,-0.14501,0.096968,0.027455,0.046456,-0.028299
-0.011153,0.00089548,0.024623,-0.033499,-0.072335,-0.17446,0.56971,-0.18923,-0.073073,0.26579,-0.13613,0.58895,-0.32113,0.19864,0.1714,0.061187,0.0049666,-0.54858,-1.9142,-0.15563,0.072607,0.026227,0.047191,-0.026136
-0.016558,0.0043302,0.02648,-0.035571,-0.035934,-0.12952,0.66095,-0.12233,-0.060223,0.23861,0.0072746,0.47722,-0.2823,0.38253,0.24079,0.075854,0.001879,-0.33103,-1.5893,-0.16531,0.037078,0.021018,0.043275,-0.02698
-0.017697,0.0069627,0.029548,-0.035116,0.018696,-0.037837,0.81194,-0.042544,-0.044807,0.22178,0.20623,0.35501,-0.2519,0.53618,0.28712,0.084447,-0.0031511,-0.075523,-1.1255,-0.15877,-0.00057959,0.016381,0.036377,-0.029211
-0.015033,0.0051346,0.0313,-0.032339,0.084575,0.076696,0.97957,0.045092,-0.02755,0.20158,0.48195,0.23843,-0.21267,0.62644,0.30704,0.094696,-0.002365,0.17595,-0.59508,-0.13255,-0.032445,0.014355,0.027983,-0.030666
-0.011977,-0.0012356,0.030148,-0.029213,0.15,0.18536,1.0974,0.13287,-0.011533,0.15558,0.84723,0.1431,-0.15501,0.64573,0.3027,0.10969,0.0066148,0.379,-0.094168,-0.096846,-0.05469,0.013758,0.019119,-0.03021
-0.011844,-0.0084322,0.027165,-0.0281,0.20255,0.25555,1.106,0.21271,-0.0019241,0.066711,1.2752,0.081664,-0.083282,0.61164,0.27917,0.12545,0.018828,0.49345,0.30426,-0.068772,-0.067942,0.012056,0.010611,-0.028295
-0.014787,-0.011932,0.025367,-0.029865,0.23432,0.26054,0.98038,0.27868,-0.002982,-0.060049,1.694,0.063369,-0.011674,0.55332,0.24269,0.13519,0.025332,0.49456,0.57338,-0.061686,-0.075069,0.0078545,0.003407,-0.026114
-0.017509,-0.0099936,0.027003,-0.033036,0.24459,0.19261,0.74195,0.32765,-0.014397,-0.1899,2.0167,0.093197,0.047029,0.49492,0.20034,0.13578,0.019438,0.38455,0.7299,-0.077606,-0.07832,0.0019549,-0.0013686,-0.024299
-0.016195,-0.0047413,0.03125,-0.034808,0.23811,0.067653,0.4494,0.35837,-0.030284,-0.26848,2.1852,0.16815,0.091645,0.44686,0.15973,0.1307,0.0011568,0.19684,0.81562,-0.10732,-0.078033,-0.0034696,-0.0027509,-0.022472
-0.010177,4.4127e-005,0.034477,-0.033157,0.22044,-0.084958,0.1757,0.37034,-0.042253,-0.24848,2.1973,0.2728,0.13408,0.40814,0.12771,0.12673,-0.023308,-0.011638,0.87205,-0.13723,-0.073507,-0.0063984,-0.00049632,-0.020025
-0.0030068,0.0022426,0.033061,-0.028272,0.19449,-0.24003,-0.0186,0.36442,-0.044551,-0.11802,2.0983,0.37962,0.19116,0.37483,0.10799,0.12784,-0.046195,-0.17833,0.91584,-0.15773,-0.064673,-0.0058884,0.0045269,-0.017178
0.00022574,0.0027855,0.026449,-0.022141,0.16062,-0.38718,-0.10535,0.34457,-0.037301,0.087958,1.9448,0.45785,0.27319,0.34674,0.099591,0.13171,-0.062964,-0.25651,0.92752,-0.16739,-0.05266,-0.0021462,0.010534,-0.015039
-0.0028184,0.0040887,0.017879,-0.016761,0.11983,-0.52672,-0.095318,0.31874,-0.025364,0.30328,1.7709,0.48714,0.37798,0.32707,0.097232,0.13197,-0.073577,-0.23165,0.86695,-0.17108,-0.038895,0.0036871,0.015684,-0.014467
-0.0095465,0.0073327,0.01209,-0.01267,0.07648,-0.6575,-0.029818,0.29664,-0.013942,0.46493,1.5769,0.46681,0.49404,0.31648,0.093767,0.12407,-0.079975,-0.12532,0.71368,-0.1743,-0.024072,0.009726,0.019109,-0.014895
-0.014342,0.011307,0.011848,-0.0090698,0.037772,-0.77081,0.038342,0.28501,-0.0047281,0.54472,1.3464,0.41313,0.60889,0.30774,0.082787,0.10944,-0.08272,0.016171,0.50694,-0.17829,-0.0084579,0.013875,0.021295,-0.014418
-0.013047,0.013771,0.016071,-0.0051926,0.010239,-0.85688,0.066052,0.28323,0.0042816,0.55749,1.0743,0.34622,0.7147,0.28657,0.059726,0.094377,-0.080134,0.14351,0.34855,-0.17933,0.0067654,0.015003,0.023372,-0.011226
-0.0062881,0.013716,0.02096,-0.0013836,-0.0037902,-0.9161,0.034417,0.28297,0.015464,0.54215,0.7826,0.27631,0.80676,0.23955,0.021356,0.084523,-0.070629,0.22404,0.35313,-0.17188,0.018939,0.014106,0.025796,-0.0051018
0.0011188,0.012188,0.023059,0.0012623,-0.0069489,-0.96052,-0.048511,0.27262,0.027849,0.53092,0.51265,0.20003,0.87806,0.16392,-0.034565,0.079806,-0.055818,0.24747,0.57149,-0.15306,0.025401,0.014196,0.027627,0.0024244
0.0041097,0.010995,0.021678,0.0023014,-0.0045626,-1.0007,-0.15638,0.24422,0.036353,0.53014,0.3004,0.10905,0.91724,0.071896,-0.10758,0.074335,-0.041267,0.21612,0.94212,-0.12497,0.025974,0.018415,0.027188,0.0093832
0.0013688,0.01083,0.018813,0.002825,-0.0016003,-1.0293,-0.25986,0.19812,0.034793,0.52539,0.15421,0.0043949,0.91377,-0.014184,-0.19087,0.061673,-0.033753,0.1318,1.3131,-0.093949,0.023934,0.027536,0.02359,0.014866
-0.0038488,0.010838,0.016852,0.0047335,-0.0012528,-1.0178,-0.34184,0.14223,0.020436,0.50403,0.051531,-0.094829,0.86673,-0.07311,-0.26853,0.041375,-0.036868,-0.0044989,1.5264,-0.067452,0.024028,0.038914,0.01761,0.019351
-0.0065682,0.0099577,0.016269,0.0089473,-0.0055415,-0.93449,-0.40619,0.086529,-0.0033509,0.47423,-0.043747,-0.1555,0.78875,-0.094419,-0.31741,0.021338,-0.048161,-0.17608,1.5077,-0.050682,0.029,0.047891,0.010887,0.023716
-0.0041303,0.0084776,0.015339,0.014295,-0.016364,-0.76967,-0.47522,0.036889,-0.028361,0.46302,-0.15673,-0.14639,0.7008,-0.079711,-0.31516,0.013612,-0.059957,-0.33222,1.299,-0.044546,0.03772,0.050595,0.0040915,0.028104
0.0018918,0.0080902,0.012107,0.018314,-0.035301,-0.54826,-0.57618,-0.0069751,-0.04593,0.49409,-0.28761,-0.057398,0.62171,-0.035892,-0.25159,0.026363,-0.06347,-0.39078,1.0147,-0.04571,0.04666,0.04594,-0.0039835,0.031846
0.0072991,0.01036,0.0067416,0.019413,-0.062193,-0.31964,-0.72287,-0.048199,-0.051532,0.56361,-0.41659,0.089568,0.56129,0.032306,-0.13704,0.0578,-0.05377,-0.27094,0.75839,-0.048672,0.053312,0.035522,-0.015172,0.034457
0.0088474,0.015137,0.0019975,0.018449,-0.094023,-0.13205,-0.90307,-0.08717,-0.046599,0.63535,-0.52136,0.24658,0.52227,0.12237,-0.0018267,0.096584,-0.032765,0.060437,0.56234,-0.049097,0.058285,0.022063,-0.02943,0.036529
0.0067284,0.020434,0.0011308,0.018193,-0.12544,-0.010967,-1.0807,-0.11882,-0.036572,0.66141,-0.59236,0.36205,0.50724,0.22564,0.1148,0.12846,-0.0085124,0.56023,0.38443,-0.046897,0.064208,0.008074,-0.043541,0.039401
0.0039617,0.023817,0.0049248,0.021005,-0.15069,0.045635,-1.2127,-0.13556,-0.026781,0.61381,-0.63575,0.40797,0.52175,0.31895,0.18138,0.14428,0.0088193,1.1207,0.1517,-0.047034,0.072712,-0.0043079,-0.052645,0.043782
0.0034379,0.024066,0.010482,0.026714,-0.16553,0.056746,-1.2696,-0.13357,-0.019156,0.50278,-0.66497,0.3947,0.56899,0.36739,0.18768,0.14387,0.012269,1.6158,-0.18992,-0.056755,0.082553,-0.012899,-0.053531,0.048712
0.0053452,0.021854,0.013128,0.032605,-0.16808,0.044548,-1.2472,-0.11696,-0.012016,0.36773,-0.69035,0.3619,0.6408,0.34116,0.14723,0.13328,0.0018711,1.9545,-0.64783,-0.080153,0.090692,-0.015624,-0.046846,0.052084
0.0072674,0.01922,0.010134,0.035591,-0.15883,0.02695,-1.1614,-0.095961,-0.0027364,0.24864,-0.71498,0.35006,0.71457,0.2366,0.087718,0.11836,-0.015204,2.1083,-1.1764,-0.11341,0.095133,-0.011559,-0.036272,0.052484
0.0067525,0.018393,0.0032393,0.034798,-0.14077,0.016755,-1.0329,-0.080422,0.0090557,0.16097,-0.73802,0.37232,0.76102,0.084533,0.035449,0.099734,-0.028373,2.1049,-1.6796,-0.14457,0.096673,-0.0019478,-0.025561,0.050664
0.0038629,0.020659,-0.0023196,0.03237,-0.11921,0.021886,-0.87504,-0.074224,0.020366,0.093073,-0.76058,0.40753,0.75731,-0.063369,0.0039658,0.073122,-0.029244,1.9974,-2.024,-0.15904,0.09788,0.0099505,-0.016258,0.049095
0.0012417,0.025655,-0.0017687,0.031831,-0.10057,0.043307,-0.69385,-0.075341,0.026582,0.02513,-0.78861,0.41944,0.69477,-0.16269,-0.0070001,0.034425,-0.015982,1.8335,-2.0786,-0.14798,0.10045,0.020325,-0.0080559,0.049791
0.0015885,0.031414,0.0052771,0.035334,-0.089255,0.072999,-0.4982,-0.081108,0.02457,-0.048706,-0.83052,0.38604,0.57631,-0.199,-0.0036745,-0.014737,0.0060064,1.6399,-1.7826,-0.11392,0.10364,0.026624,-0.00092737,0.052337
0.0049624,0.035358,0.014108,0.04199,-0.084696,0.096272,-0.30867,-0.093288,0.014711,-0.11441,-0.89129,0.31498,0.4085,-0.18871,0.010574,-0.065505,0.027318,1.424,-1.2074,-0.069671,0.10532,0.028521,0.0035563,0.054093
0.0085765,0.035914,0.018156,0.048555,-0.081156,0.098831,-0.15483,-0.11743,0.00057152,-0.15154,-0.96615,0.2334,0.19835,-0.1592,0.037353,-0.10573,0.039654,1.1836,-0.55433,-0.030933,0.10462,0.027602,0.0033108,0.052558
0.0093948,0.033692,0.013771,0.051831,-0.071736,0.07428,-0.061765,-0.15604,-0.013249,-0.1521,-1.0377,0.16268,-0.041707,-0.12593,0.077716,-0.12668,0.039762,0.91654,-0.064969,-0.0075904,0.10336,0.026215,-0.0018503,0.047734
0.0070842,0.03111,0.0029092,0.050861,-0.053919,0.027403,-0.036367,-0.20106,-0.023459,-0.12748,-1.0793,0.10154,-0.2875,-0.085492,0.12535,-0.12783,0.03013,0.62654,0.11181,0.00073731,0.10484,0.026274,-0.0090546,0.042166
0.0044275,0.030496,-0.0082437,0.047264,-0.031842,-0.027323,-0.063682,-0.23253,-0.029337,-0.099027,-1.066,0.03197,-0.50589,-0.027884,0.16634,-0.11638,0.016494,0.32484,0.0039972,0.0025177,0.11098,0.028563,-0.013847,0.03853
0.0046971,0.03218,-0.013555,0.043613,-0.01265,-0.068827,-0.11493,-0.22628,-0.032615,-0.082565,-0.98725,-0.058588,-0.66894,0.045997,0.18725,-0.10212,0.0041268,0.028312,-0.21399,0.0078624,0.12032,0.032672,-0.013106,0.037119
0.0084519,0.034322,-0.010827,0.041306,0.00037953,-0.071827,-0.1599,-0.16674,-0.036296,-0.081299,-0.85526,-0.16014,-0.76971,0.11936,0.18523,-0.091328,-0.0046596,-0.24643,-0.34513,0.022637,0.12885,0.037483,-0.006866,0.035809
0.012836,0.03475,-0.0025715,0.039671,0.011663,-0.010066,-0.17542,-0.05691,-0.042864,-0.091084,-0.70107,-0.24437,-0.82626,0.17137,0.17081,-0.084042,-0.010504,-0.49009,-0.29179,0.046662,0.13309,0.041947,0.0023138,0.032643
0.01408,0.033105,0.0064472,0.036961,0.029866,0.13623,-0.14761,0.080861,-0.052465,-0.11006,-0.56004,-0.28655,-0.86915,0.19339,0.15998,-0.076314,-0.015069,-0.70341,-0.086792,0.075965,0.13272,0.045725,0.011532,0.028424
0.010857,0.031216,0.012613,0.032249,0.059425,0.36882,-0.071857,0.21401,-0.062065,-0.14203,-0.45571,-0.28597,-0.92188,0.19353,0.16158,-0.065273,-0.019067,-0.8908,0.17455,0.10622,0.13074,0.049286,0.019228,0.026482
0.0053756,0.03124,0.015193,0.026527,0.094295,0.66203,0.045361,0.31371,-0.066521,-0.19127,-0.39246,-0.26764,-0.98931,0.18552,0.1708,-0.052683,-0.021849,-1.0464,0.42748,0.13453,0.1309,0.053296,0.025268,0.029487
0.0013291,0.03335,0.015552,0.022028,0.11994,0.96419,0.18404,0.36609,-0.061465,-0.25599,-0.36026,-0.26527,-1.0616,0.17384,0.17452,-0.044072,-0.022596,-1.1426,0.67283,0.15903,0.13457,0.05769,0.030036,0.036245
0.0007591,0.035264,0.01513,0.020387,0.12271,1.2135,0.31245,0.37516,-0.046303,-0.32773,-0.34469,-0.30107,-1.1271,0.1502,0.16395,-0.044214,-0.021729,-1.1323,0.93687,0.17791,0.13956,0.061156,0.033753,0.041733
0.0027271,0.034198,0.014166,0.021292,0.099442,1.3623,0.39657,0.35695,-0.024946,-0.3965,-0.33271,-0.378,-1.1819,0.1046,0.14323,-0.052805,-0.021058,-0.97106,1.2115,0.18949,0.14174,0.061566,0.036464,0.040743
0.0047517,0.02944,0.0121,0.022764,0.059762,1.3966,0.41449,0.32915,-0.0031883,-0.45439,-0.3109,-0.48656,-1.2264,0.039599,0.12626,-0.064001,-0.022563,-0.64983,1.4402,0.1932,0.1382,0.057206,0.038158,0.032066
0.0053269,0.023121,0.0089161,0.022741,0.019583,1.3383,0.36834,0.30239,0.015779,-0.49301,-0.26287,-0.61489,-1.2563,-0.026997,0.12457,-0.070186,-0.027098,-0.21883,1.5606,0.18964,0.12943,0.048012,0.038571,0.019483
0.0050403,0.018412,0.0058853,0.020526,-0.0088456,1.2283,0.2862,0.27771,0.03438,-0.49869,-0.17415,-0.75095,-1.2577,-0.07372,0.13732,-0.06675,-0.034391,0.2162,1.5545,0.17905,0.11887,0.035892,0.037046,0.0086828
0.0054403,0.016794,0.0048626,0.016944,-0.023097,1.1006,0.21163,0.25012,0.059529,-0.45419,-0.044808,-0.8771,-1.2136,-0.090412,0.15219,-0.054029,-0.0443,0.53114,1.4542,0.15935,0.11033,0.023858,0.033142,0.0028572
0.0070506,0.016897,0.0066827,0.013352,-0.029482,0.96335,0.18492,0.2147,0.09761,-0.35045,0.10111,-0.96811,-1.1173,-0.082891,0.1562,-0.03529,-0.057931,0.63858,1.3038,0.12618,0.10537,0.014515,0.027745,0.00084912
0.0086196,0.015913,0.01012,0.010568,-0.037046,0.80015,0.22434,0.17078,0.14887,-0.19989,0.22139,-1.0007,-0.9807,-0.064425,0.1463,-0.013273,-0.077205,0.53054,1.1187,0.075981,0.10278,0.0089117,0.023396,-0.0007438
0.0083115,0.012214,0.012492,0.0086416,-0.051734,0.58889,0.31668,0.12211,0.20526,-0.037759,0.2777,-0.96964,-0.82876,-0.043788,0.13052,0.011174,-0.10287,0.28176,0.88401,0.0098744,0.1004,0.0064825,0.022837,-0.0037793
0.0055987,0.0067859,0.011641,0.0073459,-0.074224,0.32499,0.42249,0.073968,0.25367,0.09439,0.25944,-0.89544,-0.68448,-0.021672,0.11936,0.037353,-0.13241,0.0089693,0.58664,-0.065089,0.097423,0.0059337,0.026575,-0.006768
0.0019786,0.0022762,0.0077845,0.0066636,-0.10144,0.031545,0.49489,0.030025,0.28267,0.17343,0.19052,-0.81254,-0.55663,0.0026301,0.11616,0.062306,-0.15956,-0.18915,0.23991,-0.13887,0.095212,0.0062846,0.031728,-0.0066656
-0.00019646,0.00064355,0.0036741,0.0067572,-0.12954,-0.25109,0.50262,-0.0092503,0.28852,0.20839,0.11255,-0.74473,-0.44025,0.023363,0.11566,0.081117,-0.17593,-0.27325,-0.12481,-0.20322,0.0957,0.0072459,0.03374,-0.0023719
0.00027997,0.0015537,0.0027316,0.0075903,-0.15622,-0.48823,0.44407,-0.046473,0.27679,0.23083,0.056541,-0.68644,-0.32891,0.029237,0.11109,0.09056,-0.17425,-0.26169,-0.48301,-0.25398,0.099018,0.0087908,0.029951,0.0035475
0.002409,0.0028736,0.0064673,0.0086859,-0.18168,-0.66921,0.3421,-0.086345,0.25874,0.2681,0.025202,-0.60642,-0.22759,0.013375,0.10246,0.092943,-0.15148,-0.19485,-0.81898,-0.28893,0.10258,0.010506,0.021985,0.0066674
0.0037528,0.0026755,0.013162,0.0092384,-0.20812,-0.80818,0.2219,-0.13434,0.24543,0.32095,-0.0016397,-0.47214,-0.15463,-0.017678,0.097162,0.096039,-0.11069,-0.099163,-1.0932,-0.30346,0.10272,0.011468,0.014625,0.004446
0.0023137,0.00089153,0.018905,0.0084081,-0.23823,-0.92831,0.087709,-0.19506,0.24336,0.3649,-0.045185,-0.27643,-0.13094,-0.045936,0.10241,0.10819,-0.060617,0.020211,-1.2133,-0.2894,0.097622,0.010845,0.011961,-0.0014928
-0.0020416,-0.00082151,0.020292,0.0055938,-0.27324,-1.0427,-0.080948,-0.27036,0.25414,0.37522,-0.10944,-0.046378,-0.16516,-0.054913,0.11669,0.13217,-0.012794,0.15909,-1.0609,-0.24004,0.089085,0.0086528,0.014135,-0.0066011
-0.0076478,-0.00079276,0.0168,0.00070341,-0.31166,-1.146,-0.30555,-0.35815,0.27704,0.35544,-0.18168,0.17111,-0.24642,-0.042914,0.12885,0.16284,0.022824,0.29462,-0.58292,-0.15871,0.081298,0.0058747,0.017502,-0.0070948
-0.012322,0.00098006,0.0111,-0.0055216,-0.34974,-1.2216,-0.57255,-0.4527,0.31131,0.34452,-0.24932,0.33503,-0.3488,-0.025165,0.12596,0.19067,0.042047,0.3926,0.11847,-0.063579,0.077595,0.0036964,0.017975,-0.0029275
-0.014709,0.0027282,0.0071151,-0.011359,-0.38367,-1.2557,-0.81637,-0.54679,0.35559,0.39424,-0.3167,0.42888,-0.44235,-0.022705,0.10335,0.20804,0.048237,0.43859,0.78695,0.017446,0.077749,0.0024726,0.014462,0.002369
-0.014744,0.0025208,0.0072808,-0.014566,-0.41218,-1.2474,-0.94414,-0.63423,0.40491,0.53197,-0.40686,0.46176,-0.50177,-0.047101,0.068129,0.21324,0.050535,0.4622,1.1374,0.060996,0.078188,0.0014052,0.0094342,0.0046677
-0.013207,0.00016128,0.010973,-0.013565,-0.4373,-1.2085,-0.89368,-0.71116,0.44833,0.73589,-0.54708,0.45564,-0.50943,-0.092945,0.033716,0.20953,0.059266,0.52643,1.0356,0.062938,0.075024,-0.00066965,0.0063843,0.0024863
-0.011023,-0.0023865,0.015146,-0.0087115,-0.46242,-1.1563,-0.68473,-0.77527,0.47076,0.94094,-0.75018,0.42971,-0.45597,-0.14315,0.010501,0.20121,0.080917,0.68504,0.60132,0.042482,0.06741,-0.0040471,0.0067248,-0.0020629
-0.0089179,-0.0025599,0.016625,-0.0025933,-0.48848,-1.106,-0.42064,-0.82387,0.45922,1.0709,-1.0052,0.39138,-0.34351,-0.18184,-3.6106e-005,0.19077,0.11539,0.94165,0.14519,0.031128,0.058332,-0.0076667,0.0089271,-0.0051381
-0.0074452,0.00051144,0.014341,0.0012588,-0.51113,-1.0673,-0.23112,-0.85277,0.41024,1.0753,-1.2825,0.33597,-0.19033,-0.20485,-0.0044304,0.17927,0.15671,1.2434,-0.028103,0.052876,0.052097,-0.009946,0.010414,-0.0041818
-0.0070158,0.0050017,0.0099659,0.00064014,-0.52113,-1.0435,-0.19195,-0.85714,0.33329,0.94734,-1.5474,0.25255,-0.029893,-0.22077,-0.01212,0.16806,0.19623,1.5122,0.18741,0.10921,0.050607,-0.010224,0.010145,0.00025995
-0.0076962,0.0076734,0.0065766,-0.0036619,-0.50865,-1.0338,-0.27881,-0.83388,0.2471,0.71711,-1.7754,0.13164,0.10127,-0.24264,-0.030546,0.15889,0.2263,1.6844,0.64756,0.17944,0.051635,-0.0093939,0.0093558,0.0051329
-0.0089643,0.0064819,0.0063991,-0.0081918,-0.46917,-1.0348,-0.38902,-0.78361,0.17092,0.42824,-1.9598,-0.027922,0.18328,-0.27579,-0.062389,0.15201,0.24258,1.7305,1.0787,0.23576,0.050625,-0.0090025,0.0098591,0.0072475
-0.0098017,0.0023237,0.0092626,-0.0091102,-0.40748,-1.0436,-0.41446,-0.71108,0.116,0.1177,-2.111,-0.2157,0.2273,-0.30855,-0.10399,0.1449,0.24489,1.6477,1.2738,0.26167,0.044465,-0.0096082,0.011724,0.0055777
-0.0092208,-0.0015767,0.012803,-0.0048483,-0.33667,-1.0599,-0.31169,-0.62345,0.082745,-0.18877,-2.2458,-0.41166,0.27234,-0.31133,-0.14426,0.13444,0.23685,1.4464,1.2185,0.26077,0.033942,-0.010065,0.012785,0.0018284
-0.0068745,-0.0021405,0.014176,0.0028347,-0.27228,-1.085,-0.12045,-0.52816,0.064699,-0.46624,-2.3702,-0.59269,0.36308,-0.24708,-0.16602,0.1213,0.22498,1.1484,1.0703,0.25067,0.022739,-0.0085662,0.010624,-0.0010252
-0.0032566,0.001316,0.012007,0.010155,-0.22481,-1.1162,0.07566,-0.43157,0.055602,-0.67725,-2.4648,-0.74032,0.52134,-0.091211,-0.15228,0.11203,0.21655,0.79612,1.0259,0.24859,0.013995,-0.0045045,0.0051961,-0.00098846
0.00066777,0.0068966,0.0072489,0.01391,-0.19521,-1.1399,0.20949,-0.33917,0.053921,-0.77069,-2.4842,-0.8455,0.72957,0.14678,-0.096446,0.11536,0.21632,0.45085,1.1864,0.25995,0.0076493,0.00073843,-0.00050309,0.0016993
0.0040692,0.012002,0.0024638,0.013412,-0.17623,-1.1317,0.26458,-0.25664,0.061663,-0.69987,-2.3768,-0.90913,0.93788,0.41354,-0.010216,0.13484,0.22317,0.17038,1.5098,0.27726,0.0010506,0.0049742,-0.0026397,0.0052146
0.0065989,0.015487,0.00011851,0.010502,-0.1584,-1.0643,0.26483,-0.19019,0.079111,-0.45224,-2.1175,-0.94096,1.0914,0.62528,0.077886,0.16397,0.22941,-0.021466,1.8592,0.28793,-0.0078079,0.007223,0.00020238,0.0079703
0.0082715,0.01819,0.0010997,0.0079936,-0.13623,-0.92245,0.23929,-0.14512,0.10031,-0.072173,-1.7334,-0.95897,1.1619,0.70394,0.13527,0.1893,0.22447,-0.14566,2.0904,0.28351,-0.017608,0.0084598,0.0056153,0.0098944
0.0091407,0.021521,0.004386,0.0079263,-0.11067,-0.71328,0.19786,-0.12298,0.11334,0.34226,-1.3008,-0.98819,1.1652,0.61907,0.14263,0.19969,0.20175,-0.24494,2.1173,0.26356,-0.024321,0.010229,0.0091625,0.012055
0.0091781,0.025596,0.0079826,0.010769,-0.08677,-0.46664,0.13636,-0.1191,0.10561,0.67346,-0.90983,-1.0552,1.1528,0.40927,0.10464,0.19463,0.16406,-0.34252,1.9335,0.2335,-0.024701,0.012555,0.0078896,0.015155
0.008486,0.028748,0.010359,0.015617,-0.069549,-0.22377,0.05845,-0.12313,0.070542,0.83455,-0.61783,-1.1771,1.1816,0.16552,0.046664,0.18431,0.12321,-0.41616,1.6034,0.19993,-0.01942,0.013496,0.0025618,0.018516
0.0075657,0.028895,0.011322,0.020774,-0.061323,-0.021791,-0.012671,-0.12362,0.011286,0.80788,-0.42155,-1.3496,1.2773,-0.017573,-0.00079395,0.18122,0.092876,-0.41025,1.2406,0.16765,-0.012816,0.011104,-0.0031667,0.020615
0.0072473,0.025494,0.011733,0.024324,-0.061732,0.11802,-0.047394,-0.11477,-0.060492,0.64891,-0.26931,-1.5449,1.412,-0.093001,-0.019337,0.18991,0.0796,-0.27883,0.97432,0.13944,-0.009356,0.0059587,-0.0057257,0.020622
0.0082005,0.020297,0.012405,0.024814,-0.06886,0.19411,-0.035421,-0.10074,-0.12958,0.45288,-0.10331,-1.7223,1.5124,-0.081479,-0.010688,0.20305,0.078607,-0.028322,0.89949,0.11698,-0.010059,0.0015225,-0.004085,0.019328
0.010385,0.01624,0.0132,0.022156,-0.079505,0.22137,0.0013998,-0.093393,-0.18288,0.30401,0.099094,-1.8469,1.4949,-0.047038,0.0087163,0.20671,0.077906,0.27084,1.0277,0.10103,-0.012174,0.0015343,0.00020999,0.018472
0.012938,0.015425,0.013188,0.018196,-0.088779,0.22329,0.023042,-0.10319,-0.21342,0.23647,0.31472,-1.9041,1.3113,-0.045994,0.021365,0.19035,0.067555,0.51259,1.2718,0.090987,-0.01235,0.0066498,0.0049887,0.019105
0.014665,0.017815,0.011723,0.016058,-0.09098,0.22216,0.00080239,-0.1287,-0.22177,0.22654,0.49881,-1.8997,0.97677,-0.085887,0.020578,0.1539,0.046809,0.60699,1.486,0.084859,-0.010216,0.01354,0.0092945,0.020558
0.014793,0.021518,0.0094191,0.018111,-0.082718,0.22967,-0.063275,-0.15295,-0.21522,0.21575,0.62139,-1.849,0.56515,-0.12272,0.013234,0.10745,0.023773,0.52572,1.5424,0.080423,-0.0088968,0.017487,0.013481,0.020985
0.0134,0.024189,0.0079868,0.023868,-0.066302,0.24175,-0.14318,-0.15098,-0.20509,0.14802,0.68628,-1.7648,0.173,-0.096126,0.01293,0.064757,0.0085046,0.31661,1.3936,0.076725,-0.011908,0.01619,0.017862,0.018942
0.01122,0.024402,0.0088997,0.029762,-0.049734,0.24188,-0.21404,-0.10496,-0.20254,-0.00033455,0.72153,-1.655,-0.1238,0.024487,0.029362,0.035797,0.0057415,0.079979,1.077,0.074514,-0.019314,0.011352,0.02163,0.014537
0.0090309,0.022197,0.012023,0.03155,-0.041871,0.21314,-0.2718,-0.016581,-0.21411,-0.2106,0.75508,-1.5281,-0.29577,0.21532,0.061171,0.023066,0.013005,-0.080689,0.66454,0.075032,-0.026842,0.0067579,0.02333,0.009244
0.0071427,0.018767,0.015466,0.027741,-0.045894,0.15327,-0.32967,0.092458,-0.23869,-0.43273,0.79939,-1.3978,-0.35628,0.40953,0.096247,0.022833,0.024504,-0.10878,0.20187,0.078106,-0.029023,0.0048945,0.022442,0.0046901
0.0053439,0.015711,0.016928,0.021113,-0.056602,0.082231,-0.39612,0.19247,-0.26782,-0.609,0.8565,-1.2776,-0.33863,0.5339,0.11848,0.029068,0.036144,-0.020154,-0.31301,0.081174,-0.023779,0.0053695,0.020344,0.0015527
0.0032609,0.014242,0.015485,0.016679,-0.064418,0.034571,-0.45625,0.26189,-0.2894,-0.69824,0.93404,-1.1686,-0.27405,0.54574,0.11637,0.036957,0.046785,0.10717,-0.89854,0.080221,-0.014466,0.0062847,0.019436,-0.00058682
0.00078582,0.01456,0.01236,0.017542,-0.063064,0.039489,-0.476,0.29638,-0.29283,-0.69046,1.053,-1.0519,-0.18453,0.44899,0.088273,0.044213,0.055333,0.17141,-1.537,0.072124,-0.0075125,0.0066967,0.021006,-0.0024869
-0.001728,0.015689,0.01004,0.022212,-0.054194,0.10194,-0.42846,0.30627,-0.27314,-0.60687,1.2376,-0.89672,-0.087673,0.28463,0.041703,0.050371,0.057719,0.091352,-2.1462,0.056874,-0.0074695,0.0073975,0.023845,-0.0043426
-0.0035911,0.016035,0.010418,0.025873,-0.044685,0.19977,-0.32131,0.30613,-0.23245,-0.48713,1.4944,-0.68066,-0.0008741,0.10534,-0.012226,0.05526,0.047764,-0.16552,-2.6023,0.038155,-0.013512,0.009343,0.025122,-0.0055091
-0.0041376,0.014515,0.013368,0.02458,-0.038866,0.30036,-0.2013,0.30538,-0.17881,-0.37093,1.7985,-0.40842,0.063432,-0.048744,-0.064902,0.057857,0.021707,-0.58036,-2.7999,0.021775,-0.020231,0.011764,0.022964,-0.0050781
-0.0031628,0.011446,0.016779,0.018621,-0.032787,0.38387,-0.12884,0.30553,-0.12354,-0.28277,2.0953,-0.11231,0.10655,-0.16067,-0.11244,0.056156,-0.017873,-1.0984,-2.7145,0.012682,-0.02202,0.012374,0.018416,-0.0028559
-0.0012341,0.008322,0.017976,0.011992,-0.016005,0.45304,-0.13882,0.30402,-0.07783,-0.2258,2.3184,0.1674,0.14435,-0.23081,-0.1528,0.048156,-0.06265,-1.6475,-2.4237,0.012164,-0.017474,0.009745,0.014813,9.2948e-005
0.00037344,0.0064472,0.015543,0.0085876,0.020249,0.51999,-0.21599,0.29961,-0.049318,-0.18582,2.4103,0.40779,0.19515,-0.26245,-0.18118,0.033504,-0.10339,-2.15,-2.0737,0.01678,-0.010282,0.0053495,0.014907,0.0019509
0.00025639,0.0056308,0.010333,0.0087871,0.075353,0.58142,-0.3035,0.29508,-0.039344,-0.14232,2.3375,0.61455,0.26363,-0.25168,-0.18875,0.014821,-0.13487,-2.5293,-1.8047,0.019738,-0.0060423,0.0028145,0.018304,0.0015098
-0.0022231,0.0043252,0.0050357,0.0096509,0.13844,0.60642,-0.33953,0.29554,-0.042557,-0.081692,2.0988,0.81041,0.33585,-0.19124,-0.16756,-0.0025045,-0.15697,-2.7199,-1.6806,0.014145,-0.0077534,0.0046769,0.021647,-0.0006632
-0.006298,0.0013207,0.0025289,0.0083416,0.19501,0.55223,-0.29637,0.30422,-0.049869,-0.0070433,1.726,1.0107,0.39106,-0.085779,-0.11829,-0.01253,-0.17186,-2.6835,-1.664,-0.0034065,-0.013659,0.0096262,0.021534,-0.0024123
-0.010005,-0.0025979,0.0040187,0.0051909,0.23557,0.3989,-0.19455,0.319,-0.053805,0.060296,1.2792,1.2067,0.42008,0.034919,-0.054231,-0.01199,-0.18059,-2.4274,-1.6528,-0.03065,-0.019027,0.013084,0.017553,-0.0016653
-0.011324,-0.0048927,0.0081657,0.0032617,0.25982,0.17383,-0.083468,0.3323,-0.052966,0.090177,0.83312,1.3718,0.43286,0.12025,0.0033101,-0.0023926,-0.18238,-2.0102,-1.5488,-0.059913,-0.020118,0.010955,0.012671,0.001698
-0.0095663,-0.0035307,0.011851,0.0048563,0.27396,-0.056984,-0.0045129,0.3352,-0.052251,0.060666,0.45678,1.4836,0.44793,0.12364,0.036423,0.010793,-0.17642,-1.5273,-1.3102,-0.080886,-0.016952,0.0033132,0.01062,0.0055247
-0.0059951,0.0007977,0.012201,0.0085978,0.28415,-0.22784,0.035323,0.32361,-0.058284,-0.026711,0.19397,1.5453,0.47385,0.033191,0.041013,0.021565,-0.16389,-1.0812,-0.95473,-0.084949,-0.012751,-0.0053378,0.012699,0.0071369
-0.0030595,0.0048438,0.008581,0.010225,0.29134,-0.31341,0.060961,0.30207,-0.073341,-0.14422,0.052498,1.5857,0.50073,-0.11507,0.028563,0.026987,-0.14782,-0.75073,-0.52458,-0.069409,-0.010916,-0.0096573,0.016846,0.0057316
-0.0026995,0.0055135,0.0031328,0.006537,0.29078,-0.33965,0.10282,0.28169,-0.092567,-0.25121,0.0080876,1.6371,0.51003,-0.25491,0.017819,0.02822,-0.13109,-0.57184,-0.053037,-0.039513,-0.012303,-0.0078831,0.019641,0.0032179
-0.0049484,0.0026834,-0.00058959,-0.0013087,0.2758,-0.3597,0.16915,0.27287,-0.10673,-0.31531,0.019356,1.7089,0.49289,-0.32891,0.022467,0.028287,-0.11483,-0.53321,0.4367,-0.0065756,-0.014962,-0.0032754,0.019217,0.0025895
-0.0079121,-0.00065018,-1.0721e-005,-0.0084532,0.24282,-0.41663,0.23876,0.27798,-0.10826,-0.32709,0.044915,1.7761,0.45898,-0.32207,0.04357,0.028715,-0.098507,-0.58321,0.9095,0.01766,-0.016099,-0.0013359,0.016437,0.0052337
-0.0091486,-0.0011858,0.0047509,-0.010478,0.19419,-0.52229,0.27791,0.28991,-0.095608,-0.29838,0.054985,1.7939,0.42652,-0.26561,0.071384,0.028148,-0.081373,-0.64528,1.3082,0.027597,-0.01428,-0.0051705,0.013566,0.0096515
-0.0073797,0.0015166,0.011071,-0.007208,0.13751,-0.66309,0.26605,0.2979,-0.072832,-0.24816,0.035554,1.729,0.4029,-0.20946,0.093885,0.02423,-0.063574,-0.64327,1.5765,0.026869,-0.010103,-0.012915,0.012035,0.012794
-0.0032709,0.0045418,0.015721,-0.0026647,0.082052,-0.819,0.2099,0.29585,-0.045281,-0.18953,-0.012522,1.5844,0.37429,-0.1854,0.10479,0.01693,-0.046058,-0.53462,1.6966,0.025112,-0.0053034,-0.019329,0.011423,0.012785
0.0011676,0.0042722,0.016991,-0.0013108,0.034535,-0.97457,0.13671,0.28603,-0.015743,-0.12872,-0.077253,1.4005,0.31517,-0.18958,0.10533,0.0099753,-0.029893,-0.33698,1.7,0.030127,-0.0014608,-0.020099,0.010314,0.010533
0.0039435,-0.00034768,0.015472,-0.0041283,-0.0031828,-1.1145,0.074816,0.27517,0.015789,-0.074528,-0.14204,1.2299,0.21037,-0.19572,0.099811,0.008623,-0.015986,-0.12684,1.6315,0.041269,0.00069581,-0.015194,0.0078296,0.0088129
0.004183,-0.0069784,0.013046,-0.0080532,-0.03316,-1.2157,0.038452,0.26684,0.049181,-0.045641,-0.19464,1.1024,0.07101,-0.18506,0.089798,0.015295,-0.0052643,-0.00021541,1.4974,0.049613,0.0013564,-0.0085239,0.0043047,0.0097444
0.0023818,-0.012098,0.011159,-0.0090084,-0.058009,-1.2503,0.028163,0.25711,0.08145,-0.065523,-0.23439,1.0044,-0.069773,-0.16588,0.072241,0.026689,0.0014905,-0.01366,1.2477,0.04524,0.0015136,-0.0044435,0.00074401,0.012952
-7.4933e-005,-0.013978,0.0099106,-0.0055163,-0.077683,-1.2024,0.04415,0.23722,0.10709,-0.14705,-0.27187,0.88637,-0.17823,-0.16585,0.043069,0.034991,0.0046695,-0.14479,0.82271,0.025826,0.0027132,-0.0042229,-0.0020439,0.015967
-0.0016751,-0.013613,0.0085962,0.00035636,-0.088893,-1.081,0.098688,0.20043,0.12105,-0.28073,-0.3189,0.69641,-0.24164,-0.20457,0.0031782,0.03257,0.0069196,-0.30335,0.22925,-0.00080294,0.0063395,-0.0054508,-0.0037185,0.016385
-0.0014854,-0.012974,0.0069493,0.0052046,-0.08753,-0.91583,0.21437,0.14686,0.12149,-0.43876,-0.37617,0.41584,-0.27328,-0.27071,-0.038112,0.016851,0.012877,-0.38761,-0.41821,-0.022562,0.012513,-0.0045763,-0.0041179,0.013863
0.00037949,-0.012658,0.0056845,0.007224,-0.072052,-0.73679,0.40645,0.082322,0.10984,-0.59362,-0.42987,0.075721,-0.29768,-0.3247,-0.065422,-0.0080473,0.02706,-0.34564,-0.93739,-0.032544,0.019469,-8.2198e-005,-0.0031096,0.010369
0.0027323,-0.011383,0.0057484,0.0071401,-0.045098,-0.5516,0.66157,0.013577,0.088724,-0.73602,-0.46273,-0.25692,-0.32871,-0.32672,-0.065047,-0.033844,0.051163,-0.1976,-1.178,-0.033887,0.024347,0.006517,-0.00092429,0.0086185
0.0039266,-0.0077742,0.0070809,0.0066616,-0.01224,-0.34049,0.93047,-0.054797,0.060236,-0.87591,-0.47142,-0.51266,-0.35855,-0.2687,-0.033978,-0.052884,0.08273,-0.0068387,-1.1094,-0.035918,0.025185,0.012445,0.0015068,0.010046
0.0029341,-0.0024573,0.0082802,0.0064144,0.020794,-0.069545,1.1445,-0.11883,0.02676,-1.0243,-0.47372,-0.65104,-0.36574,-0.18477,0.015541,-0.062056,0.11624,0.17173,-0.82979,-0.045051,0.022625,0.016267,0.0028917,0.013825
0.00018354,0.0018589,0.0077086,0.0055415,0.050111,0.28822,1.2487,-0.17151,-0.0064646,-1.1703,-0.49591,-0.67219,-0.33496,-0.13011,0.060127,-0.063689,0.14567,0.32341,-0.49122,-0.058419,0.01977,0.018858,0.0025546,0.017537
-0.0026136,0.0025462,0.00508,0.0031762,0.073781,0.73668,1.2302,-0.20266,-0.030117,-1.2746,-0.54816,-0.60707,-0.2714,-0.14179,0.077429,-0.063449,0.16682,0.46487,-0.19844,-0.065676,0.020082,0.022047,0.0011815,0.018879
-0.0037012,-0.00057631,0.0019696,-1.5193e-005,0.090936,1.2495,1.1235,-0.20457,-0.033416,-1.2872,-0.609,-0.49804,-0.19804,-0.20898,0.05981,-0.066963,0.17797,0.60998,0.042465,-0.057193,0.02492,0.02644,0.00049811,0.01715
-0.0026458,-0.0049893,0.00062396,-0.0020479,0.10139,1.77,0.98834,-0.17965,-0.0098937,-1.1802,-0.63463,-0.3837,-0.13863,-0.2754,0.020104,-0.077243,0.17925,0.74418,0.29346,-0.031722,0.032612,0.03056,0.0019935,0.013556
-0.00064274,-0.0076062,0.0020695,-0.0015103,0.10607,2.2183,0.87592,-0.14282,0.037629,-0.97082,-0.58855,-0.29241,-0.1015,-0.27467,-0.016076,-0.094059,0.17137,0.82806,0.60505,0.0022045,0.039686,0.032039,0.0057289,0.010208
0.00054811,-0.0072693,0.0052137,0.00077724,0.10714,2.5096,0.80632,-0.1151,0.097054,-0.71701,-0.46871,-0.24065,-0.077642,-0.17658,-0.027645,-0.11506,0.15455,0.82197,0.95631,0.031075,0.043159,0.029718,0.010271,0.0085998
7.862e-005,-0.0053012,0.007726,0.0021298,0.1064,2.5852,0.76881,-0.11244,0.15287,-0.48705,-0.30991,-0.23127,-0.053151,-0.012309,-0.012922,-0.13747,0.12755,0.70679,1.2615,0.042566,0.0422,0.02477,0.01383,0.008649
-0.0014478,-0.0037685,0.0078639,0.00022371,0.1027,2.4409,0.73919,-0.13838,0.19428,-0.322,-0.15905,-0.25301,-0.023497,0.14074,0.009525,-0.15921,0.087385,0.48451,1.4328,0.028789,0.038254,0.019906,0.015649,0.0089576
-0.0027962,-0.0033462,0.0056464,-0.0048432,0.090644,2.1349,0.69807,-0.18582,0.2201,-0.21624,-0.043395,-0.28552,0.0037608,0.20666,0.015407,-0.17899,0.030386,0.16527,1.4448,-0.013448,0.033956,0.017335,0.016458,0.0079981
-0.0033687,-0.0029424,0.0025181,-0.010591,0.062791,1.7619,0.63838,-0.24487,0.23719,-0.12698,0.043178,-0.31079,0.019573,0.1599,-0.0064872,-0.1957,-0.044775,-0.23942,1.3458,-0.082392,0.031687,0.017111,0.017566,0.0052515
-0.0036273,-0.001347,5.3619e-005,-0.014275,0.014932,1.4061,0.56327,-0.3088,0.25399,-0.0044937,0.12667,-0.32416,0.026057,0.0413,-0.046226,-0.20803,-0.13344,-0.70673,1.208,-0.1695,0.032451,0.017134,0.019321,0.0013959
-0.0043244,0.00095428,-0.0010621,-0.015146,-0.049052,1.1054,0.48254,-0.37247,0.27432,0.17791,0.22656,-0.33598,0.037757,-0.070006,-0.081805,-0.2148,-0.22337,-1.1855,1.0589,-0.25821,0.035356,0.014749,0.020265,-0.0025204
-0.0054453,0.0018363,-0.0010928,-0.014856,-0.11676,0.84996,0.41212,-0.42654,0.29552,0.41211,0.34034,-0.36204,0.068603,-0.10867,-0.097437,-0.21562,-0.29753,-1.5943,0.85316,-0.32713,0.037938,0.0087172,0.017911,-0.0061092
-0.0060141,-0.00044434,-0.00067096,-0.015813,-0.17261,0.61382,0.37282,-0.45541,0.31155,0.66497,0.45092,-0.41013,0.11525,-0.061851,-0.095611,-0.21122,-0.34077,-1.8448,0.51537,-0.35826,0.037443,6.9697e-005,0.010786,-0.0099233
-0.0049699,-0.0052707,-0.00030854,-0.019135,-0.20613,0.38948,0.38259,-0.44431,0.31726,0.89864,0.54675,-0.47361,0.152,0.031383,-0.093198,-0.20296,-0.34686,-1.8828,0.028199,-0.34595,0.032648,-0.0087476,0.00019221,-0.014763
-0.0022323,-0.0098436,-0.00028845,-0.023993,-0.21781,0.19792,0.44407,-0.3911,0.31043,1.0862,0.63318,-0.53663,0.14369,0.11533,-0.1058,-0.1917,-0.32145,-1.7176,-0.50132,-0.30021,0.025014,-0.015682,-0.0099174,-0.020722
0.0010303,-0.011561,-0.00067603,-0.028646,-0.21857,0.068271,0.53761,-0.31256,0.29068,1.2147,0.72301,-0.58525,0.068751,0.15785,-0.13417,-0.17708,-0.2791,-1.4218,-0.85996,-0.24148,0.017976,-0.020339,-0.015291,-0.026914
0.0030864,-0.010412,-0.00121,-0.03192,-0.22308,0.0094539,0.62833,-0.23749,0.25765,1.2782,0.81585,-0.61439,-0.064393,0.16554,-0.1638,-0.15799,-0.2361,-1.0978,-0.83974,-0.19021,0.014427,-0.02371,-0.014345,-0.032123
0.0026343,-0.0090284,-0.0012839,-0.033797,-0.241,0.00042834,0.68457,-0.18952,0.21126,1.2719,0.88809,-0.6253,-0.21969,0.16757,-0.17672,-0.13394,-0.20339,-0.82983,-0.38035,-0.15775,0.014221,-0.026768,-0.0093467,-0.035701
-0.00055842,-0.010235,-0.00036423,-0.034955,-0.27173,0.0055264,0.69402,-0.17192,0.15401,1.193,0.90664,-0.61784,-0.35339,0.1873,-0.16432,-0.10609,-0.1831,-0.64825,0.35777,-0.14372,0.013967,-0.029294,-0.0046044,-0.03782
-0.0055293,-0.014367,0.0013227,-0.036127,-0.30544,-0.002017,0.66485,-0.16606,0.092527,1.0478,0.85719,-0.58664,-0.43771,0.22719,-0.13083,-0.076551,-0.16981,-0.52358,1.0582,-0.13948,0.0097383,-0.030062,-0.0029726,-0.038945
-0.010378,-0.018965,0.0025758,-0.037973,-0.32903,-0.029761,0.61275,-0.14507,0.036063,0.85735,0.76257,-0.52589,-0.47207,0.27616,-0.08634,-0.046568,-0.15483,-0.3925,1.4291,-0.13395,0.00070977,-0.028153,-0.0036157,-0.039226
-0.01291,-0.021181,0.0020087,-0.041138,-0.33307,-0.073447,0.54705,-0.092703,-0.0078071,0.6551,0.67391,-0.43834,-0.47587,0.32678,-0.037777,-0.015263,-0.13114,-0.20109,1.3854,-0.11858,-0.0094712,-0.024066,-0.003032,-0.038558
-0.011715,-0.020579,-0.00062613,-0.045846,-0.31544,-0.12782,0.46888,-0.013072,-0.036998,0.47521,0.63958,-0.33839,-0.47015,0.38228,0.01361,0.019093,-0.096986,0.059186,1.1033,-0.090358,-0.015113,-0.019527,0.0015161,-0.03714
-0.0072647,-0.019523,-0.0038303,-0.051079,-0.28044,-0.18598,0.38139,0.075293,-0.055185,0.33917,0.6755,-0.24352,-0.46346,0.44628,0.067092,0.055664,-0.057171,0.3439,0.89513,-0.053753,-0.012957,-0.016143,0.0092449,-0.03569
-0.0020785,-0.0207,-0.0052948,-0.054435,-0.23498,-0.22938,0.2986,0.15551,-0.068268,0.24861,0.7589,-0.15896,-0.45165,0.50709,0.11637,0.088444,-0.021677,0.58143,0.98719,-0.020831,-0.0049342,-0.014178,0.016262,-0.034758
0.00067626,-0.024194,-0.0037913,-0.053459,-0.18482,-0.22507,0.24108,0.22523,-0.079902,0.1887,0.84754,-0.068747,-0.42926,0.53474,0.14972,0.10777,-0.0016879,0.71627,1.3598,-0.0075578,0.0033071,-0.012584,0.018728,-0.033791
-0.00051109,-0.027139,-0.00039509,-0.047811,-0.13256,-0.14173,0.21989,0.29637,-0.089576,0.13937,0.90717,0.056495,-0.40036,0.49787,0.15688,0.10622,-0.0041158,0.74152,1.7701,-0.025756,0.0070143,-0.010187,0.015867,-0.031179
-0.0041124,-0.026489,0.0021421,-0.040289,-0.077696,0.024582,0.22393,0.38279,-0.094517,0.086722,0.92605,0.23729,-0.37884,0.38825,0.13661,0.084927,-0.027033,0.69967,1.9387,-0.07431,0.0061876,-0.0068952,0.010205,-0.025685
-0.0065782,-0.02228,0.0014397,-0.035327,-0.017762,0.2387,0.22429,0.48673,-0.093598,0.028285,0.90903,0.46385,-0.37879,0.23302,0.098055,0.054925,-0.05888,0.65325,1.7545,-0.13611,0.0053719,-0.0038285,0.0051061,-0.018097
-0.005263,-0.018061,-0.0027342,-0.035788,0.049712,0.44278,0.19403,0.59508,-0.089968,-0.029437,0.86121,0.69286,-0.40465,0.083393,0.055,0.03123,-0.082907,0.64939,1.3391,-0.18477,0.0095875,-0.0023485,0.0020737,-0.011296
-0.0008624,-0.017797,-0.0083829,-0.040658,0.12457,0.59028,0.12704,0.68798,-0.090215,-0.077537,0.77741,0.86792,-0.44979,-0.012733,0.018078,0.023333,-0.085162,0.70532,0.92972,-0.19818,0.019967,-0.0029636,0.00014386,-0.0082266
0.0029324,-0.022039,-0.012838,-0.04572,0.20163,0.66941,0.04025,0.75193,-0.10056,-0.1106,0.64576,0.9518,-0.50273,-0.03559,-0.0092485,0.02918,-0.061596,0.82335,0.68713,-0.17011,0.032864,-0.0050635,-0.0025558,-0.0093569
0.0025232,-0.027144,-0.014591,-0.04674,0.2707,0.69736,-0.042075,0.78669,-0.12276,-0.12911,0.46031,0.94845,-0.55268,-0.00027764,-0.029204,0.037435,-0.019674,1.0174,0.58947,-0.11174,0.043092,-0.0075685,-0.006964,-0.012045
-0.002352,-0.028501,-0.014039,-0.042538,0.32083,0.69346,-0.10722,0.80136,-0.15253,-0.13856,0.23021,0.89919,-0.58907,0.056402,-0.045548,0.036362,0.026762,1.3218,0.49167,-0.042694,0.048314,-0.0097786,-0.012666,-0.01268
-0.0081452,-0.024875,-0.012838,-0.035466,0.3474,0.65897,-0.15972,0.8046,-0.18167,-0.14675,-0.022367,0.85583,-0.5991,0.098471,-0.06035,0.022313,0.06605,1.7661,0.28262,0.021056,0.050684,-0.011732,-0.018799,-0.0098729
-0.010352,-0.019726,-0.012653,-0.029203,0.35694,0.58365,-0.21089,0.79797,-0.2023,-0.16088,-0.27365,0.84927,-0.57241,0.10896,-0.072788,0.0012775,0.094813,2.331,-0.0064138,0.073245,0.054405,-0.014044,-0.024876,-0.0058043
-0.0072757,-0.01809,-0.014239,-0.025928,0.36441,0.4716,-0.2641,0.77732,-0.21068,-0.18561,-0.50977,0.87474,-0.51469,0.095216,-0.079084,-0.017184,0.11754,2.9218,-0.23634,0.11424,0.061468,-0.017655,-0.030617,-0.0043171
-0.0014421,-0.021848,-0.017254,-0.025136,0.38282,0.35773,-0.31079,0.73858,-0.20846,-0.2233,-0.7303,0.90142,-0.45852,0.080684,-0.07328,-0.028125,0.14045,3.3884,-0.29805,0.1437,0.069398,-0.023675,-0.035341,-0.0073216
0.0025381,-0.027796,-0.0206,-0.024619,0.41184,0.29326,-0.34048,0.6812,-0.20082,-0.27625,-0.94256,0.89698,-0.45554,0.088393,-0.049876,-0.034686,0.16482,3.5913,-0.22334,0.15681,0.072928,-0.033008,-0.038062,-0.012715
0.0017299,-0.030387,-0.02298,-0.022376,0.43491,0.30739,-0.35434,0.60572,-0.19329,-0.34803,-1.1512,0.84872,-0.54691,0.12488,-0.0085436,-0.044517,0.18491,3.4728,-0.16876,0.14759,0.06813,-0.04545,-0.038462,-0.015792
-0.0029651,-0.026684,-0.02349,-0.017884,0.42885,0.37776,-0.36782,0.50994,-0.18902,-0.43974,-1.3499,0.76883,-0.72998,0.17346,0.041916,-0.062793,0.19203,3.0864,-0.29023,0.1153,0.055483,-0.058734,-0.037531,-0.013039
-0.0079209,-0.019045,-0.022113,-0.012139,0.38031,0.43888,-0.39883,0.39041,-0.18768,-0.54071,-1.5184,0.68409,-0.94842,0.202,0.084783,-0.087911,0.18081,2.5612,-0.62167,0.067275,0.039436,-0.068631,-0.036798,-0.0050594
-0.0099339,-0.013213,-0.019842,-0.0068776,0.29703,0.42701,-0.45155,0.25053,-0.18594,-0.62108,-1.6271,0.62038,-1.1185,0.18203,0.10324,-0.11307,0.15272,2.0278,-1.0593,0.014733,0.025012,-0.070758,-0.036646,0.0038984
-0.0085667,-0.013607,-0.018218,-0.0036278,0.20478,0.3275,-0.51077,0.10821,-0.17902,-0.63762,-1.6479,0.59172,-1.1764,0.10748,0.090452,-0.13168,0.11429,1.556,-1.4537,-0.034515,0.014365,-0.063237,-0.035579,0.0093781
-0.0058486,-0.019909,-0.018376,-0.0029387,0.13175,0.18528,-0.55267,-0.0066456,-0.16263,-0.55704,-1.5679,0.59696,-1.1144,-0.00026503,0.054202,-0.14173,0.072361,1.1471,-1.7204,-0.079549,0.005997,-0.048193,-0.031664,0.010188
-0.0039891,-0.027545,-0.020248,-0.0039597,0.091645,0.067785,-0.56331,-0.066759,-0.13497,-0.3848,-1.4018,0.62113,-0.97956,-0.10565,0.012031,-0.14582,0.030902,0.777,-1.8726,-0.12238,-0.0030226,-0.030606,-0.025059,0.0090446
-0.0033977,-0.031221,-0.02257,-0.004667,0.077959,0.0088186,-0.54961,-0.064806,-0.098079,-0.17619,-1.1929,0.6385,-0.84027,-0.1813,-0.01989,-0.14762,-0.0081306,0.44828,-1.9629,-0.16011,-0.013946,-0.01516,-0.018977,0.010044
-0.0027283,-0.028423,-0.023841,-0.0029162,0.073074,-0.020754,-0.53359,-0.019524,-0.057923,-0.013802,-0.99906,0.61779,-0.74571,-0.22275,-0.035524,-0.14826,-0.041621,0.20441,-2.0009,-0.18082,-0.025016,-0.0035114,-0.017555,0.015236
-0.00061825,-0.020495,-0.023527,0.0021216,0.064317,-0.090541,-0.5349,0.035525,-0.022682,0.039163,-0.86778,0.53119,-0.70713,-0.24478,-0.039105,-0.14567,-0.06399,0.094677,-1.9287,-0.16853,-0.032935,0.0058265,-0.022095,0.023152
0.0027309,-0.011219,-0.022508,0.0091938,0.054198,-0.25383,-0.5558,0.072653,0.00017181,-0.02225,-0.8159,0.36616,-0.70748,-0.2641,-0.038015,-0.13686,-0.069961,0.12202,-1.6769,-0.11436,-0.03577,0.015077,-0.029126,0.030282
0.005668,-0.0043978,-0.022294,0.015702,0.057268,-0.50257,-0.58012,0.084604,0.0067658,-0.14365,-0.82818,0.13409,-0.72467,-0.28403,-0.035691,-0.12075,-0.059302,0.22107,-1.2468,-0.025955,-0.034805,0.024575,-0.032503,0.034013
0.0067238,-0.0019399,-0.023608,0.019606,0.086967,-0.77053,-0.58572,0.082847,-0.001573,-0.24986,-0.87742,-0.13075,-0.74745,-0.29434,-0.030919,-0.099411,-0.038862,0.28856,-0.74579,0.073034,-0.03376,0.032303,-0.028157,0.034541
0.0061489,-0.0031303,-0.025578,0.021022,0.14354,-0.98087,-0.55988,0.083258,-0.018629,-0.29319,-0.95107,-0.38394,-0.77462,-0.28484,-0.023109,-0.077136,-0.019143,0.24434,-0.34238,0.15392,-0.036032,0.035844,-0.017527,0.034342
0.0058654,-0.0051955,-0.026366,0.022123,0.21254,-1.0987,-0.50618,0.092471,-0.035384,-0.2748,-1.0619,-0.5897,-0.80429,-0.25894,-0.017303,-0.058628,-0.0074354,0.076998,-0.1756,0.19762,-0.042145,0.034698,-0.0066253,0.035941
0.0078139,-0.0050025,-0.024793,0.025306,0.27442,-1.1469,-0.44005,0.10547,-0.043265,-0.2267,-1.2318,-0.73535,-0.82637,-0.2341,-0.022984,-0.047542,-0.0029002,-0.15853,-0.28231,0.20333,-0.049399,0.030746,-0.0014498,0.039941
0.012132,-0.0011611,-0.021553,0.031124,0.31699,-1.1779,-0.37907,0.11364,-0.037583,-0.17579,-1.4612,-0.8325,-0.82599,-0.22874,-0.046711,-0.045807,0.0022645,-0.38471,-0.58569,0.1863,-0.053896,0.026528,-0.0035814,0.044802
0.016763,0.0048444,-0.018823,0.037686,0.34108,-1.2281,-0.33621,0.11355,-0.01967,-0.12312,-1.7082,-0.90404,-0.79452,-0.24794,-0.084621,-0.05336,0.016364,-0.55016,-0.94072,0.16709,-0.053323,0.02318,-0.0095254,0.048245
0.018871,0.0096203,-0.018479,0.04202,0.35575,-1.2956,-0.31905,0.1081,0.0037287,-0.053342,-1.8987,-0.96499,-0.73922,-0.2809,-0.12157,-0.068083,0.041508,-0.6492,-1.1996,0.16048,-0.048435,0.020018,-0.014035,0.048912
0.01695,0.010515,-0.020439,0.042246,0.36852,-1.3539,-0.33137,0.10079,0.024101,0.040952,-1.9621,-1.0101,-0.68366,-0.31213,-0.13867,-0.086352,0.071786,-0.70653,-1.2618,0.17062,-0.042386,0.015923,-0.014326,0.047004
0.01197,0.0078983,-0.022622,0.038866,0.37873,-1.3839,-0.37254,0.090524,0.035944,0.1467,-1.868,-1.0173,-0.65762,-0.33624,-0.12475,-0.10457,0.097336,-0.74919,-1.0957,0.19355,-0.038684,0.010843,-0.01167,0.0437
0.0067304,0.0050227,-0.022634,0.034345,0.37912,-1.3921,-0.43462,0.072604,0.0394,0.24103,-1.6397,-0.9653,-0.68162,-0.36335,-0.084122,-0.12126,0.11069,-0.79198,-0.73718,0.22262,-0.039365,0.0057984,-0.0094777,0.040165
0.0039879,0.0054113,-0.019712,0.031502,0.36298,-1.3997,-0.50158,0.043976,0.038661,0.31112,-1.337,-0.853,-0.75421,-0.41112,-0.03589,-0.13815,0.11041,-0.84302,-0.27135,0.25173,-0.044404,0.0016011,-0.010052,0.036998
0.004782,0.0099657,-0.015237,0.0319,0.33045,-1.4146,-0.55446,0.0060299,0.037375,0.36095,-1.0238,-0.70575,-0.84907,-0.48992,-0.0050802,-0.15919,0.099752,-0.91569,0.19832,0.27476,-0.052251,-0.0020429,-0.013025,0.034281
0.0080433,0.016279,-0.011465,0.035137,0.28906,-1.415,-0.58023,-0.038474,0.035022,0.39862,-0.74341,-0.56324,-0.92418,-0.59214,-0.010641,-0.18744,0.082163,-1.0298,0.58844,0.28434,-0.060675,-0.0059062,-0.01653,0.031858
0.011542,0.02064,-0.0097165,0.039212,0.24898,-1.3571,-0.57749,-0.090494,0.027551,0.41968,-0.51331,-0.45732,-0.93922,-0.69197,-0.056517,-0.22193,0.057729,-1.1994,0.86553,0.27327,-0.067438,-0.009868,-0.019447,0.029486
0.013339,0.020852,-0.0096581,0.041607,0.21733,-1.2012,-0.55372,-0.15503,0.011773,0.40697,-0.33377,-0.3967,-0.87275,-0.75433,-0.12979,-0.25677,0.023357,-1.4195,1.0481,0.23896,-0.070859,-0.012622,-0.022291,0.026902
0.012771,0.017452,-0.010126,0.040609,0.19577,-0.9351,-0.51603,-0.23493,-0.010484,0.34936,-0.19814,-0.36982,-0.73069,-0.74765,-0.20619,-0.28324,-0.023638,-1.6646,1.1774,0.18692,-0.070518,-0.013139,-0.025932,0.023979
0.010544,0.012652,-0.010469,0.036313,0.18171,-0.57838,-0.46354,-0.32421,-0.032306,0.26085,-0.09682,-0.36235,-0.54249,-0.65578,-0.26024,-0.29358,-0.081473,-1.8987,1.2766,0.12939,-0.067762,-0.012365,-0.02981,0.020907
0.0081034,0.008374,-0.011024,0.030739,0.17134,-0.17002,-0.38875,-0.40877,-0.045911,0.17897,-0.017499,-0.37329,-0.34754,-0.48635,-0.27555,-0.28416,-0.14252,-2.0872,1.3304,0.078868,-0.065319,-0.013,-0.031845,0.0181
0.0067653,0.00525,-0.012417,0.026773,0.16184,0.24832,-0.28727,-0.47583,-0.047586,0.14124,0.052485,-0.41509,-0.17928,-0.27282,-0.25127,-0.25635,-0.19589,-2.2005,1.3024,0.041151,-0.065783,-0.016979,-0.030427,0.015771
0.0070441,0.0031343,-0.014606,0.026378,0.15233,0.64293,-0.1681,-0.52427,-0.039381,0.16009,0.12062,-0.49764,-0.054847,-0.067337,-0.20191,-0.21536,-0.23246,-2.2141,1.1737,0.012885,-0.069814,-0.022945,-0.026449,0.013594
0.0084295,0.0020514,-0.016739,0.029171,0.1441,0.99135,-0.054972,-0.5663,-0.026617,0.21875,0.1861,-0.61011,0.025954,0.076864,-0.1506,-0.16847,-0.24931,-2.1098,0.96817,-0.014559,-0.075532,-0.026474,-0.023022,0.010924
0.0097003,0.0023252,-0.017878,0.032483,0.14045,1.2822,0.023223,-0.61857,-0.013694,0.29057,0.24394,-0.71705,0.073492,0.12814,-0.11824,-0.12343,-0.25028,-1.885,0.73953,-0.048022,-0.079811,-0.023467,-0.022751,0.007542
0.0096639,0.0038035,-0.017685,0.033044,0.14538,1.5136,0.047096,-0.69054,-0.0015594,0.36157,0.29405,-0.77294,0.098565,0.09294,-0.11389,-0.08707,-0.24221,-1.5598,0.53012,-0.087422,-0.080584,-0.01396,-0.025078,0.0041818
0.0079646,0.0052554,-0.016328,0.029239,0.16057,1.689,0.016517,-0.78013,0.011752,0.4338,0.34645,-0.74448,0.10604,0.01454,-0.13134,-0.06378,-0.2294,-1.1765,0.33714,-0.12578,-0.078265,-0.0028364,-0.02645,0.002136
0.0054382,0.004897,-0.013912,0.022326,0.18197,1.811,-0.050073,-0.87914,0.028695,0.50721,0.4163,-0.62498,0.09499,-0.049143,-0.15428,-0.054154,-0.21053,-0.78975,0.11758,-0.1539,-0.075052,0.0035227,-0.023423,0.0020609
0.0036371,0.0017866,-0.010339,0.015673,0.19887,1.8798,-0.12495,-0.98078,0.050103,0.56088,0.51174,-0.43293,0.06368,-0.058028,-0.16729,-0.055103,-0.18089,-0.4565,-0.17123,-0.1663,-0.072768,0.0020315,-0.01585,0.0030217
0.0036867,-0.0031744,-0.0059465,0.01245,0.19744,1.8986,-0.18218,-1.0806,0.074693,0.55656,0.62512,-0.20011,0.014459,-0.013219,-0.16568,-0.062065,-0.13828,-0.2287,-0.52969,-0.16471,-0.071215,-0.0048337,-0.0070836,0.0027987
0.0052398,-0.007652,-0.0021193,0.013358,0.16786,1.8804,-0.20453,-1.1699,0.09992,0.46621,0.73624,0.040363,-0.045709,0.045009,-0.15745,-0.072164,-0.087347,-0.14336,-0.90739,-0.15656,-0.068533,-0.011131,-0.00097953,-0.00056164
0.0064385,-0.0094833,-0.00081136,0.016057,0.11059,1.847,-0.18507,-1.2308,0.12306,0.30007,0.82581,0.25944,-0.1091,0.065137,-0.15577,-0.085739,-0.037928,-0.20154,-1.2325,-0.14921,-0.063138,-0.012086,0.0013611,-0.0071187
0.0051655,-0.0081999,-0.0029529,0.016751,0.037392,1.8112,-0.12599,-1.2417,0.14167,0.10824,0.88759,0.43281,-0.17112,0.02065,-0.16727,-0.10441,0.0021861,-0.34415,-1.4514,-0.14308,-0.055285,-0.0074673,0.0019409,-0.014669
0.00080508,-0.0052818,-0.0071374,0.0129,-0.034194,1.7568,-0.037026,-1.1915,0.15336,-0.049177,0.92819,0.5421,-0.2297,-0.070146,-0.18502,-0.1269,0.034202,-0.45112,-1.5468,-0.12901,-0.046729,-0.0012054,0.0031313,-0.020013
-0.0048854,-0.0030227,-0.010107,0.0050639,-0.089434,1.6383,0.066622,-1.0906,0.15565,-0.14005,0.95388,0.57886,-0.28029,-0.15497,-0.19188,-0.14636,0.068522,-0.38593,-1.5258,-0.09288,-0.038901,0.0020191,0.0048349,-0.021009
-0.0086935,-0.0029706,-0.0090511,-0.003518,-0.12256,1.4099,0.16886,-0.96593,0.14642,-0.17542,0.95657,0.54798,-0.31227,-0.18162,-0.17194,-0.15261,0.11689,-0.07374,-1.4017,-0.025932,-0.031561,0.00021463,0.0045979,-0.018019
-0.0081873,-0.0051189,-0.0039266,-0.0093411,-0.13677,1.0689,0.25929,-0.84184,0.12529,-0.19137,0.91404,0.46613,-0.31233,-0.13115,-0.12177,-0.13861,0.18212,0.43841,-1.1924,0.066226,-0.023462,-0.0050422,0.00060464,-0.013834
-0.0036333,-0.0082895,0.0022577,-0.011153,-0.13898,0.6765,0.33792,-0.72095,0.094864,-0.21609,0.80914,0.35484,-0.27429,-0.027268,-0.053124,-0.10637,0.2537,0.99296,-0.93625,0.16326,-0.014471,-0.010484,-0.0056321,-0.012079
0.0019408,-0.011188,0.0055994,-0.010555,-0.13374,0.33329,0.41317,-0.58291,0.060806,-0.25139,0.65549,0.23192,-0.20665,0.082487,0.014345,-0.066881,0.31309,1.4113,-0.69948,0.23997,-0.0069308,-0.01385,-0.009923,-0.014964
0.0047167,-0.013209,0.0041641,-0.010255,-0.12093,0.1203,0.49241,-0.40332,0.030026,-0.28113,0.50785,0.10634,-0.12875,0.15767,0.064465,-0.03319,0.34502,1.6037,-0.55306,0.28011,-0.0045446,-0.015243,-0.0090927,-0.021672
0.0027161,-0.014466,-0.00080132,-0.011602,-0.098417,0.048112,0.5712,-0.17886,0.0076918,-0.29249,0.44231,-0.021483,-0.056061,0.18533,0.091847,-0.011477,0.34647,1.6189,-0.52654,0.28435,-0.009417,-0.016449,-0.0042183,-0.028542
-0.0027823,-0.015243,-0.0061704,-0.013662,-0.066923,0.052468,0.63017,0.062115,-0.0049959,-0.28554,0.51329,-0.15541,0.014,0.17839,0.10122,0.0026776,0.32692,1.5944,-0.57686,0.26724,-0.019832,-0.019158,-0.00012564,-0.031259
-0.0080315,-0.01552,-0.0094358,-0.014646,-0.032595,0.039722,0.64376,0.27244,-0.010534,-0.26216,0.71429,-0.29845,0.10142,0.15845,0.10143,0.01963,0.30107,1.6471,-0.60444,0.2466,-0.030926,-0.023541,-0.001313,-0.027902
-0.0092761,-0.015006,-0.010205,-0.014225,-0.0049431,-0.053066,0.59593,0.41296,-0.012347,-0.20902,0.9709,-0.4489,0.22575,0.13933,0.099812,0.04629,0.27991,1.7914,-0.51111,0.23381,-0.037915,-0.028052,-0.0078614,-0.020713
-0.0052771,-0.013598,-0.0096572,-0.014332,0.0083348,-0.22673,0.49121,0.47301,-0.011643,-0.097663,1.1747,-0.59896,0.38447,0.12261,0.10056,0.079721,0.26686,1.9434,-0.25687,0.23156,-0.039214,-0.030378,-0.014991,-0.014996
0.0017056,-0.011751,-0.0088868,-0.01748,0.0052047,-0.43482,0.35259,0.47052,-0.0066651,0.092433,1.2371,-0.73641,0.54668,0.10375,0.10591,0.10898,0.25983,1.9994,0.12756,0.23794,-0.036885,-0.028866,-0.016719,-0.015546
0.0071474,-0.01036,-0.0079497,-0.024084,-0.011557,-0.62584,0.2076,0.43453,0.0046446,0.34632,1.1293,-0.84919,0.66991,0.079547,0.11693,0.12341,0.25564,1.9173,0.57595,0.25085,-0.034238,-0.023611,-0.010552,-0.023141
0.0070805,-0.010186,-0.0064164,-0.031443,-0.038992,-0.77809,0.072999,0.3854,0.020524,0.60782,0.88225,-0.93085,0.7285,0.050011,0.13216,0.12045,0.25237,1.7358,1.0309,0.26817,-0.032948,-0.016591,0.00057475,-0.033838
0.0008421,-0.011288,-0.0045431,-0.03558,-0.077575,-0.90566,-0.050477,0.32738,0.033493,0.80429,0.55543,-0.98342,0.73148,0.015366,0.14611,0.10652,0.24845,1.5268,1.455,0.28503,-0.032234,-0.010652,0.010468,-0.041732
-0.0080954,-0.012955,-0.0035347,-0.034501,-0.12953,-1.0403,-0.17071,0.25584,0.033032,0.88462,0.20128,-1.0152,0.71609,-0.025862,0.15042,0.091184,0.24113,1.3332,1.8062,0.29302,-0.030558,-0.007849,0.014013,-0.043087
-0.014073,-0.014259,-0.0044628,-0.03,-0.19269,-1.2091,-0.29147,0.16981,0.011607,0.84221,-0.14618,-1.0346,0.72258,-0.074331,0.13818,0.08002,0.22701,1.1487,2.0162,0.28421,-0.027838,-0.0081769,0.010344,-0.038655
-0.013001,-0.014837,-0.0070008,-0.026344,-0.25596,-1.4228,-0.40546,0.078357,-0.030099,0.70839,-0.45678,-1.0437,0.77002,-0.12521,0.10856,0.072416,0.20455,0.94799,2.0131,0.25676,-0.025801,-0.0096733,0.0028122,-0.032588
-0.0054045,-0.01528,-0.0094676,-0.026969,-0.30234,-1.6756,-0.49854,-0.0031151,-0.082625,0.52624,-0.68741,-1.038,0.84909,-0.16647,0.067905,0.065188,0.17557,0.73013,1.7827,0.21655,-0.026156,-0.0099135,-0.0037562,-0.029143
0.0036369,-0.016716,-0.010305,-0.031944,-0.31939,-1.9483,-0.56117,-0.061842,-0.13238,0.32736,-0.78924,-1.0102,0.93297,-0.18297,0.026327,0.05769,0.14361,0.52945,1.4132,0.17236,-0.028523,-0.0078146,-0.0062412,-0.029914
0.0079515,-0.01981,-0.0094975,-0.038247,-0.30945,-2.2114,-0.59712,-0.093975,-0.16835,0.12657,-0.741,-0.95572,0.99407,-0.16424,-0.0077419,0.053197,0.11032,0.38451,1.0686,0.1286,-0.03038,-0.0043221,-0.0047111,-0.033548
0.0046903,-0.023935,-0.0083691,-0.04235,-0.29098,-2.4321,-0.62203,-0.10439,-0.1866,-0.069013,-0.58095,-0.87578,1.0146,-0.11147,-0.031114,0.055576,0.073435,0.29969,0.8896,0.082605,-0.029216,-0.0014312,-0.0015587,-0.03759
-0.0037401,-0.027316,-0.007905,-0.04279,-0.2883,-2.5839,-0.65264,-0.10187,-0.19046,-0.25018,-0.40438,-0.77569,0.98869,-0.039538,-0.045736,0.065015,0.029106,0.2386,0.88965,0.029214,-0.024817,-0.00038841,0.00071579,-0.040569
-0.011812,-0.028215,-0.0074146,-0.040746,-0.31671,-2.6572,-0.69421,-0.093907,-0.18741,-0.40491,-0.3186,-0.66307,0.92167,0.027163,-0.056031,0.077271,-0.023045,0.15698,0.92948,-0.031499,-0.019418,-0.00061047,0.0013487,-0.042675
-0.015289,-0.026306,-0.005166,-0.038583,-0.37327,-2.6599,-0.7354,-0.083654,-0.18547,-0.52423,-0.38383,-0.54783,0.83085,0.064258,-0.065995,0.087094,-0.076626,0.043757,0.80181,-0.091015,-0.015603,-0.00022855,0.0015381,-0.044896
-0.014184,-0.023047,-0.00054939,-0.037974,-0.43912,-2.6066,-0.75355,-0.069043,-0.19096,-0.60616,-0.5826,-0.44358,0.74527,0.058745,-0.077234,0.092295,-0.12058,-0.067606,0.37547,-0.13722,-0.014107,0.0022081,0.0030639,-0.047747
-0.011862,-0.020616,0.0044919,-0.039213,-0.49007,-2.5062,-0.727,-0.043535,-0.20765,-0.65373,-0.83873,-0.36628,0.69867,0.016981,-0.087856,0.094535,-0.14573,-0.12756,-0.29801,-0.16315,-0.013685,0.0062783,0.0064924,-0.050746
-0.01139,-0.020221,0.0065902,-0.041822,-0.50731,-2.3571,-0.64634,0.001367,-0.23649,-0.67079,-1.0672,-0.32813,0.71567,-0.036198,-0.092242,0.096499,-0.15079,-0.11274,-0.98867,-0.17165,-0.01299,0.0096667,0.010432,-0.052883
-0.012676,-0.021283,0.0039858,-0.04536,-0.48193,-2.1572,-0.51899,0.071616,-0.27534,-0.66154,-1.2138,-0.32965,0.79901,-0.069095,-0.082751,0.098806,-0.14299,-0.046644,-1.4035,-0.17163,-0.012261,0.0096246,0.012465,-0.053513
-0.01301,-0.022218,-0.0013219,-0.049432,-0.41374,-1.9151,-0.36596,0.16559,-0.3193,-0.63405,-1.2584,-0.3566,0.92774,-0.060558,-0.053953,0.099998,-0.13292,0.015255,-1.345,-0.16965,-0.012895,0.0048632,0.01104,-0.0529
-0.010254,-0.022053,-0.0046337,-0.053098,-0.30921,-1.6513,-0.21401,0.27162,-0.36196,-0.60181,-1.192,-0.38593,1.0686,-0.012818,-0.0076255,0.099354,-0.12769,0.019471,-0.82332,-0.1648,-0.015389,-0.0034795,0.0068096,-0.052108
-0.0053851,-0.021283,-0.002307,-0.054772,-0.1814,-1.3866,-0.087526,0.37049,-0.39743,-0.57826,-1.0014,-0.39803,1.1927,0.049378,0.045377,0.099003,-0.12789,-0.05973,-0.06325,-0.15173,-0.01805,-0.012503,0.0023332,-0.052374
-0.0018063,-0.021152,0.0049457,-0.053273,-0.050401,-1.1293,-0.0024077,0.44256,-0.42188,-0.56688,-0.68377,-0.38721,1.2851,0.093843,0.089088,0.10237,-0.12993,-0.21626,0.59618,-0.12839,-0.018218,-0.019422,0.00032428,-0.054392
-0.0021167,-0.022161,0.012254,-0.049298,0.060149,-0.87688,0.037222,0.47599,-0.4338,-0.55558,-0.27713,-0.36273,1.3426,0.1004,0.11055,0.10994,-0.13104,-0.42272,0.85915,-0.10086,-0.015021,-0.023365,0.0017565,-0.057901
-0.0055401,-0.023425,0.014383,-0.045765,0.13165,-0.63211,0.039318,0.47198,-0.43312,-0.52231,0.13186,-0.33999,1.3646,0.071284,0.10649,0.11653,-0.13212,-0.6418,0.61072,-0.080493,-0.010826,-0.025826,0.0052209,-0.061793
-0.0085757,-0.023633,0.010011,-0.046186,0.15985,-0.41757,0.020786,0.44437,-0.42012,-0.44946,0.44305,-0.32806,1.3472,0.025667,0.083616,0.11355,-0.13616,-0.83389,-0.033716,-0.075957,-0.0095637,-0.029421,0.0079624,-0.064705
-0.0082752,-0.022629,0.002853,-0.052054,0.15796,-0.27054,0.0009774,0.41417,-0.39479,-0.33641,0.60219,-0.3221,1.2844,-0.016269,0.052668,0.095188,-0.14413,-0.96666,-0.79306,-0.087717,-0.013208,-0.035851,0.0078022,-0.065789
-0.0050238,-0.021918,-0.0013586,-0.06142,0.14974,-0.21857,-0.0061953,0.40121,-0.35668,-0.2006,0.6357,-0.3053,1.1756,-0.04655,0.02131,0.063505,-0.1526,-1.029,-1.3648,-0.10932,-0.019721,-0.044658,0.004553,-0.065173
-0.0022159,-0.023447,0.00056043,-0.070057,0.15639,-0.25564,0.0023528,0.41621,-0.3054,-0.067247,0.62695,-0.25834,1.029,-0.069886,-0.0085505,0.027976,-0.15532,-1.0403,-1.5686,-0.1331,-0.024646,-0.053758,-4.3668e-005,-0.063793
-0.0031802,-0.027772,0.0069992,-0.074436,0.18534,-0.34087,0.019639,0.4564,-0.24151,0.043682,0.64884,-0.17046,0.85773,-0.092932,-0.038192,-0.00075539,-0.14749,-1.0427,-1.4084,-0.15395,-0.025145,-0.06134,-0.003748,-0.062628
-0.0082299,-0.033392,0.013371,-0.074105,0.22825,-0.42118,0.035833,0.50662,-0.16772,0.12327,0.70725,-0.045774,0.6733,-0.11374,-0.068177,-0.018244,-0.12891,-1.073,-1.0264,-0.16794,-0.022855,-0.06744,-0.0055169,-0.061903
-0.014466,-0.037882,0.016143,-0.071532,0.26843,-0.4567,0.047634,0.54587,-0.089592,0.17074,0.74317,0.097902,0.48157,-0.12224,-0.097553,-0.029121,-0.10342,-1.1352,-0.59303,-0.1688,-0.022836,-0.073637,-0.0061646,-0.060876
-0.018345,-0.039712,0.01542,-0.069721,0.29217,-0.42691,0.063009,0.55672,-0.014658,0.18804,0.69156,0.23664,0.28617,-0.11186,-0.12649,-0.043384,-0.075466,-1.1951,-0.21472,-0.14828,-0.029345,-0.080834,-0.007453,-0.058459
-0.01857,-0.039069,0.01396,-0.069814,0.29608,-0.31727,0.096812,0.53305,0.050217,0.17902,0.54545,0.35011,0.09456,-0.09122,-0.15855,-0.068988,-0.047089,-1.206,0.082934,-0.10217,-0.042053,-0.086996,-0.010305,-0.054217
-0.016781,-0.037127,0.013876,-0.070714,0.28692,-0.10912,0.15929,0.48204,0.10173,0.15291,0.36945,0.42855,-0.079617,-0.083669,-0.19882,-0.10623,-0.018234,-1.147,0.30857,-0.036999,-0.055894,-0.087278,-0.013625,-0.048896
-0.015646,-0.034809,0.014296,-0.070699,0.27567,0.20796,0.24583,0.41947,0.1412,0.12536,0.25147,0.47423,-0.22149,-0.11221,-0.24851,-0.14776,0.010227,-1.0437,0.45555,0.02961,-0.064597,-0.077237,-0.014866,-0.043937
-0.016278,-0.032428,0.012127,-0.069197,0.27083,0.60928,0.33694,0.36085,0.1728,0.11159,0.23554,0.49739,-0.32335,-0.18068,-0.30058,-0.18363,0.033965,-0.9542,0.50041,0.077131,-0.064834,-0.057042,-0.012132,-0.040339
-0.017306,-0.030422,0.005027,-0.066985,0.27516,1.0258,0.41086,0.31365,0.2,0.1151,0.29352,0.50979,-0.38914,-0.26608,-0.34088,-0.20744,0.046128,-0.93153,0.44299,0.093293,-0.057716,-0.033042,-0.0061853,-0.037885
-0.01632,-0.030041,-0.0063348,-0.064879,0.28628,1.3751,0.46021,0.27476,0.223,0.12235,0.35773,0.51985,-0.4308,-0.32879,-0.35509,-0.21914,0.041464,-0.99187,0.33622,0.079626,-0.046924,-0.014653,-0.00053472,-0.035471
-0.012274,-0.032797,-0.018794,-0.062577,0.29932,1.6177,0.499,0.23431,0.23895,0.1111,0.38282,0.53125,-0.45889,-0.33417,-0.33683,-0.22309,0.020184,-1.111,0.26451,0.047528,-0.035711,-0.0083238,0.00084872,-0.032294
-0.0066748,-0.038885,-0.0293,-0.059019,0.30934,1.7926,0.55134,0.18302,0.24465,0.068103,0.38194,0.54471,-0.475,-0.27106,-0.29166,-0.22378,-0.011965,-1.2475,0.28597,0.0089327,-0.02549,-0.01322,-0.0033779,-0.028725
-0.0025268,-0.04614,-0.036989,-0.053914,0.31299,1.9955,0.62794,0.11865,0.2395,0.0021163,0.40816,0.5604,-0.47166,-0.1563,-0.23435,-0.22273,-0.047678,-1.3706,0.39463,-0.030401,-0.016751,-0.022272,-0.010579,-0.02597
-0.0019639,-0.050883,-0.042848,-0.04867,0.30988,2.3081,0.70879,0.048336,0.2266,-0.060037,0.50086,0.57884,-0.43923,-0.024682,-0.18126,-0.2188,-0.082619,-1.4729,0.54196,-0.070179,-0.010548,-0.027882,-0.0159,-0.024749
-0.0045586,-0.050353,-0.047614,-0.045489,0.30371,2.7318,0.74869,-0.014133,0.2112,-0.092545,0.64605,0.60007,-0.374,0.087808,-0.14265,-0.2107,-0.11642,-1.5604,0.69601,-0.10962,-0.0084647,-0.027608,-0.01598,-0.024322
-0.0076984,-0.044762,-0.050304,-0.045264,0.30176,3.1758,0.70581,-0.054385,0.19803,-0.089663,0.78354,0.62265,-0.28114,0.15806,-0.11873,-0.19891,-0.14922,-1.6352,0.87646,-0.14263,-0.01089,-0.025119,-0.011651,-0.022951
-0.0086763,-0.037191,-0.049029,-0.046291,0.31141,3.509,0.57365,-0.064236,0.18925,-0.069037,0.85194,0.64414,-0.17163,0.18219,-0.10154,-0.18517,-0.17712,-1.6844,1.1262,-0.15875,-0.015609,-0.025935,-0.0073533,-0.019506
-0.0067772,-0.031323,-0.043274,-0.045218,0.33488,3.6337,0.39142,-0.046395,0.1844,-0.057326,0.83165,0.66302,-0.057186,0.17363,-0.080976,-0.1706,-0.1911,-1.6829,1.4453,-0.14892,-0.018703,-0.032037,-0.0076639,-0.014714
-0.0037047,-0.028904,-0.035244,-0.039616,0.36573,3.5283,0.22257,-0.014966,0.18187,-0.071535,0.75229,0.68041,0.051411,0.15474,-0.051539,-0.15486,-0.18121,-1.6055,1.7539,-0.11133,-0.01747,-0.04018,-0.013819,-0.010715
-0.002084,-0.028989,-0.028706,-0.029969,0.39088,3.2363,0.11613,0.0092934,0.18041,-0.11216,0.66423,0.69941,0.14201,0.145,-0.015739,-0.13786,-0.14333,-1.4386,1.9275,-0.053219,-0.01274,-0.045091,-0.023051,-0.0091441
-0.0032926,-0.029335,-0.026274,-0.019365,0.39818,2.8248,0.07891,0.007818,0.17957,-0.17166,0.60309,0.72201,0.19905,0.15019,0.018006,-0.12268,-0.083379,-1.188,1.8781,0.011971,-0.0081755,-0.044192,-0.031105,-0.009445
-0.0063364,-0.028506,-0.02762,-0.011176,0.38483,2.3513,0.07794,-0.026548,0.17885,-0.2465,0.57619,0.74605,0.20694,0.15831,0.04156,-0.11626,-0.015694,-0.87827,1.6118,0.069712,-0.0069036,-0.039387,-0.035582,-0.0090176
-0.0085889,-0.02678,-0.03023,-0.0067285,0.36027,1.8585,0.068038,-0.08514,0.17681,-0.33798,0.57546,0.76522,0.15906,0.14549,0.052899,-0.1263,0.043595,-0.54505,1.2154,0.10911,-0.0085935,-0.034563,-0.037295,-0.0051927
-0.007745,-0.025349,-0.031844,-0.00482,0.34056,1.3879,0.020738,-0.14736,0.17129,-0.43985,0.59795,0.77311,0.065586,0.089336,0.057029,-0.15597,0.084129,-0.2221,0.78949,0.1261,-0.0098864,-0.031604,-0.038804,0.0026338
-0.0034685,-0.024839,-0.032229,-0.0031639,0.33775,0.98406,-0.06679,-0.19165,0.16085,-0.52609,0.65237,0.76864,-0.047814,-0.018504,0.061061,-0.20051,0.10554,0.071705,0.39237,0.12502,-0.0079044,-0.0289,-0.041827,0.012524
0.0024512,-0.024651,-0.032754,-0.0002489,0.35162,0.67987,-0.1844,-0.2074,0.14598,-0.55489,0.74788,0.75836,-0.1522,-0.16829,0.067253,-0.249,0.11645,0.33589,0.038634,0.11768,-0.0033805,-0.023531,-0.045931,0.021528
0.0074265,-0.023566,-0.034496,0.0039749,0.36987,0.47491,-0.32611,-0.20024,0.12884,-0.49064,0.87908,0.75292,-0.23087,-0.33822,0.069853,-0.29026,0.12914,0.57886,-0.25855,0.11916,-0.00010638,-0.014702,-0.04935,0.027834
0.0097851,-0.020856,-0.036912,0.0088147,0.37615,0.33159,-0.4937,-0.18714,0.11144,-0.32873,1.0221,0.75981,-0.28641,-0.50449,0.058666,-0.31873,0.15292,0.80196,-0.45596,0.14056,-0.00099251,-0.0049763,-0.050727,0.03176
0.0096018,-0.016761,-0.038323,0.013882,0.35981,0.19749,-0.68443,-0.18472,0.093912,-0.10332,1.144,0.77749,-0.33328,-0.64748,0.026708,-0.33604,0.18887,0.99103,-0.49737,0.18195,-0.0046216,0.001741,-0.049972,0.034896
0.0081844,-0.012029,-0.037513,0.019336,0.32047,0.038929,-0.87752,-0.19887,0.074628,0.12879,1.2153,0.79573,-0.38197,-0.75165,-0.024185,-0.3478,0.22856,1.1239,-0.36519,0.23015,-0.0059991,0.0034302,-0.04767,0.038368
0.0068258,-0.0071252,-0.034769,0.025228,0.26494,-0.14073,-1.0353,-0.22278,0.052196,0.31615,1.217,0.80222,-0.42787,-0.80301,-0.084182,-0.35865,0.25711,1.1867,-0.11612,0.26402,-0.0011576,0.0014566,-0.044078,0.041829
0.0059147,-0.0019788,-0.031446,0.030841,0.20054,-0.31288,-1.1215,-0.24422,0.027418,0.4327,1.1416,0.79048,-0.45443,-0.78963,-0.14154,-0.36938,0.25965,1.1833,0.13602,0.26521,0.0087542,-0.0006616,-0.039036,0.044013
0.0050475,0.0035338,-0.028741,0.034856,0.13064,-0.45475,-1.1214,-0.25574,0.0031938,0.47864,0.99623,0.76339,-0.44793,-0.7057,-0.18846,-0.37744,0.22802,1.1272,0.28067,0.22782,0.018125,0.00022101,-0.032875,0.044263
0.0038619,0.008956,-0.02698,0.036326,0.055723,-0.57309,-1.0493,-0.25975,-0.017706,0.46688,0.80855,0.73003,-0.4112,-0.55511,-0.22189,-0.37931,0.16475,1.0258,0.27084,0.16078,0.022049,0.0051973,-0.027119,0.043573
0.0027258,0.013254,-0.025923,0.035586,-0.022264,-0.69966,-0.93532,-0.26484,-0.034896,0.40936,0.62528,0.69894,-0.36461,-0.35047,-0.23974,-0.37232,0.082357,0.87562,0.14591,0.081913,0.021254,0.013335,-0.023902,0.044111
0.0026197,0.015609,-0.025438,0.034279,-0.097041,-0.8617,-0.80564,-0.27732,-0.050403,0.31373,0.49624,0.67332,-0.33415,-0.10917,-0.23718,-0.35526,-0.0015325,0.6769,0.011567,0.0082232,0.021994,0.02271,-0.024366,0.047514
0.0042954,0.016315,-0.025619,0.034387,-0.15999,-1.0514,-0.66987,-0.29545,-0.066371,0.18969,0.44676,0.65153,-0.33669,0.14827,-0.20839,-0.3289,-0.070743,0.45423,-0.0052435,-0.0506,0.030731,0.031395,-0.027553,0.053384
0.0074425,0.016839,-0.026291,0.036958,-0.20567,-1.2192,-0.52419,-0.31106,-0.082638,0.056093,0.45853,0.63124,-0.37406,0.39542,-0.15334,-0.29684,-0.11577,0.25856,0.19136,-0.091927,0.048473,0.038021,-0.030954,0.059332
0.010637,0.018772,-0.02666,0.041441,-0.23639,-1.2973,-0.36443,-0.31623,-0.096615,-0.059563,0.47793,0.61282,-0.43803,0.59725,-0.084269,-0.2659,-0.13572,0.14066,0.61685,-0.11558,0.069997,0.04209,-0.032352,0.062673
0.012256,0.022455,-0.025743,0.0461,-0.26168,-1.2365,-0.19756,-0.30838,-0.10566,-0.1304,0.45114,0.59861,-0.51894,0.71511,-0.025059,-0.24411,-0.13666,0.11461,1.1753,-0.12037,0.088641,0.044054,-0.03133,0.062444
0.011746,0.026556,-0.023262,0.049239,-0.29269,-1.0312,-0.044287,-0.28949,-0.10969,-0.14268,0.36104,0.58932,-0.60917,0.72171,-0.0011654,-0.23638,-0.12764,0.14393,1.6737,-0.1052,0.10202,0.044845,-0.029166,0.060026
0.010186,0.029124,-0.020044,0.050343,-0.33531,-0.71882,0.067081,-0.26161,-0.11146,-0.10376,0.23534,0.58167,-0.69974,0.6182,-0.025452,-0.24077,-0.11631,0.16624,1.8994,-0.073129,0.11319,0.044917,-0.027365,0.057765
0.0095141,0.029302,-0.017386,0.050255,-0.387,-0.35915,0.11111,-0.22478,-0.11415,-0.040206,0.11732,0.5702,-0.77651,0.44051,-0.089323,-0.24881,-0.1064,0.1382,1.7356,-0.033481,0.12614,0.043565,-0.026371,0.056736
0.010841,0.028098,-0.015926,0.050216,-0.4393,-0.0086982,0.077017,-0.18062,-0.11834,0.013907,0.022271,0.55189,-0.82288,0.24733,-0.16622,-0.25041,-0.097853,0.063346,1.2436,0.0009349,0.14001,0.039398,-0.025622,0.055622
0.013274,0.027357,-0.015116,0.05057,-0.48377,0.29474,-0.020526,-0.13757,-0.12093,0.033251,-0.082776,0.52908,-0.82871,0.094544,-0.22642,-0.24018,-0.089471,-0.020128,0.6427,0.019747,0.14776,0.031849,-0.024695,0.051833
0.014497,0.027789,-0.01385,0.05036,-0.51644,0.53547,-0.13632,-0.11031,-0.11713,0.013664,-0.25734,0.50753,-0.79843,0.010872,-0.25386,-0.22014,-0.0817,-0.078439,0.18119,0.019236,0.14089,0.022358,-0.024106,0.04401
0.012882,0.027978,-0.011655,0.048326,-0.53778,0.71576,-0.20258,-0.11038,-0.10364,-0.026605,-0.54055,0.49103,-0.7506,-0.01091,-0.25338,-0.19701,-0.077545,-0.1115,-0.019967,0.0017543,0.11646,0.013906,-0.02477,0.033767
0.0093291,0.025555,-0.0092832,0.044465,-0.54902,0.84892,-0.15363,-0.13455,-0.080747,-0.05825,-0.91725,0.4777,-0.70791,-0.0026239,-0.24321,-0.17684,-0.080562,-0.14679,-0.038582,-0.028054,0.079999,0.0090096,-0.026642,0.025026
0.0069182,0.019654,-0.0081259,0.040559,-0.54894,0.95116,0.040492,-0.16179,-0.05195,-0.058571,-1.3234,0.46146,-0.68435,0.0025879,-0.23803,-0.16175,-0.091256,-0.20605,-0.082118,-0.065785,0.042134,0.0078633,-0.028084,0.021304
0.0083288,0.012344,-0.0089811,0.038891,-0.53431,1.0331,0.3504,-0.16421,-0.021921,-0.024787,-1.6833,0.43747,-0.67793,-0.0092668,-0.2353,-0.15127,-0.10464,-0.27774,-0.32848,-0.10608,0.011536,0.0083577,-0.026928,0.023067
0.013219,0.0074071,-0.011296,0.040154,-0.5037,1.0948,0.69259,-0.12533,0.0053278,0.024983,-1.9477,0.40629,-0.673,-0.027152,-0.21561,-0.14569,-0.11123,-0.32086,-0.79663,-0.13989,-0.0097491,0.0079788,-0.022408,0.027286
0.018123,0.0072401,-0.013545,0.04256,-0.46101,1.1279,0.96658,-0.051331,0.02689,0.062991,-2.1055,0.37281,-0.64969,-0.025543,-0.15724,-0.14694,-0.1015,-0.29511,-1.3414,-0.15505,-0.025275,0.0058276,-0.016096,0.029545
0.019247,0.010583,-0.014357,0.043204,-0.4152,1.1254,1.1052,0.033859,0.040536,0.067866,-2.1689,0.34139,-0.59428,0.017018,-0.054279,-0.15541,-0.071305,-0.18937,-1.7686,-0.14214,-0.039175,0.0029386,-0.010715,0.027073
0.015766,0.013283,-0.013434,0.040609,-0.37613,1.0889,1.1068,0.10561,0.044801,0.036078,-2.1525,0.31238,-0.50551,0.10377,0.075403,-0.16567,-0.024879,-0.024511,-1.977,-0.10215,-0.052039,0.00079406,-0.0077916,0.020429
0.010568,0.011697,-0.011558,0.036065,-0.34983,1.0285,1.0286,0.15349,0.040253,-0.016422,-2.0649,0.28379,-0.39456,0.21809,0.19846,-0.16658,0.026535,0.16755,-2.0204,-0.049418,-0.061177,-0.00030962,-0.0063334,0.012715
0.0076396,0.0059065,-0.0098317,0.032442,-0.33671,0.95159,0.94366,0.18223,0.030824,-0.062066,-1.916,0.25625,-0.27979,0.33332,0.28425,-0.14737,0.06981,0.36654,-2.054,-0.005737,-0.064375,-0.0013531,-0.0038701,0.007135
0.0084865,-0.00012723,-0.0088394,0.031492,-0.33368,0.85303,0.89188,0.19993,0.023294,-0.075081,-1.7263,0.23496,-0.17898,0.42562,0.31983,-0.10586,0.096033,0.56924,-2.2153,0.011393,-0.063115,-0.0031056,0.0011226,0.0047922
0.010863,-0.0017446,-0.0083226,0.032152,-0.33767,0.71593,0.85844,0.20604,0.024115,-0.044939,-1.5293,0.22515,-0.10304,0.48131,0.3122,-0.051837,0.10441,0.77907,-2.5275,-0.0011909,-0.062041,-0.0046594,0.0077892,0.0042767
0.010981,0.0025245,-0.0074503,0.03144,-0.34741,0.52631,0.79441,0.19124,0.035265,0.016368,-1.3646,0.22398,-0.05446,0.49615,0.27865,-0.0019112,0.10209,0.99536,-2.8847,-0.030672,-0.065224,-0.0036215,0.01388,0.0030994
0.0071043,0.0096883,-0.0053855,0.02712,-0.36225,0.29001,0.6638,0.14902,0.05228,0.078533,-1.2665,0.21738,-0.031076,0.47105,0.23465,0.030916,0.10023,1.2134,-3.1144,-0.055674,-0.072777,0.0019468,0.018133,-0.00027385
0.0012246,0.014739,-0.0017919,0.019719,-0.37989,0.037327,0.48143,0.087165,0.066474,0.10902,-1.2505,0.18729,-0.031445,0.40993,0.18793,0.04534,0.10811,1.4294,-3.0706,-0.057548,-0.080961,0.011373,0.021538,-0.0053392
-0.0026406,0.014704,0.0029161,0.012113,-0.39577,-0.19014,0.31294,0.026688,0.070177,0.093038,-1.2976,0.12586,-0.056441,0.32158,0.1406,0.0515,0.12848,1.6369,-2.7063,-0.028856,-0.085598,0.020823,0.026043,-0.010154
-0.0019096,0.0108,0.0076598,0.0071523,-0.40515,-0.36131,0.23626,-0.01265,0.061286,0.043626,-1.3442,0.045854,-0.105,0.22172,0.094177,0.062967,0.15635,1.8126,-2.0965,0.024468,-0.08568,0.024999,0.031911,-0.01306
0.0024226,0.0069045,0.011114,0.0054514,-0.40618,-0.47008,0.29239,-0.028352,0.043887,-0.007564,-1.2927,-0.022876,-0.16825,0.13071,0.052035,0.087445,0.18185,1.9073,-1.4096,0.086671,-0.08402,0.020103,0.036477,-0.014161
0.0066809,0.0058461,0.012319,0.0051751,-0.4012,-0.53276,0.46066,-0.038582,0.024899,-0.034453,-1.0503,-0.050362,-0.22937,0.066272,0.018141,0.12308,0.19555,1.8594,-0.84015,0.13873,-0.084583,0.0062003,0.035874,-0.015332
0.0074471,0.0069202,0.011157,0.0038116,-0.39492,-0.57292,0.67383,-0.06944,0.0097638,-0.037737,-0.58456,-0.025816,-0.27186,0.03589,-0.0046972,0.16239,0.19282,1.6312,-0.5285,0.16546,-0.088987,-0.012527,0.028394,-0.018682
0.0039783,0.0068478,0.0083663,0.00027936,-0.39084,-0.60649,0.85872,-0.13617,0.00053446,-0.04522,0.041754,0.034993,-0.29009,0.034423,-0.01441,0.19982,0.17508,1.2423,-0.50136,0.16145,-0.095162,-0.029838,0.016446,-0.024602
-0.0016804,0.0031591,0.0050637,-0.0043631,-0.38862,-0.63714,0.97156,-0.23296,-0.0029956,-0.089261,0.68868,0.09999,-0.29177,0.048874,-0.0079419,0.23662,0.14804,0.77346,-0.6653,0.13373,-0.099085,-0.040626,0.0051799,-0.031044
-0.0065629,-0.0032288,0.0021327,-0.0079963,-0.38414,-0.66119,1.0061,-0.33784,-0.001442,-0.17886,1.2079,0.1411,-0.28772,0.067214,0.018647,0.27984,0.11894,0.33093,-0.85884,0.099266,-0.097936,-0.043371,-0.0011366,-0.034829
-0.008853,-0.0086422,-2.7384e-005,-0.0092369,-0.37176,-0.67402,0.97695,-0.42646,0.0040626,-0.28978,1.5197,0.14953,-0.27631,0.085526,0.066881,0.33689,0.094841,-0.0041764,-0.93438,0.077226,-0.092099,-0.040435,-0.0019546,-0.034189
-0.0086513,-0.0098346,-0.0012686,-0.008481,-0.3466,-0.67151,0.89912,-0.48272,0.0097464,-0.38181,1.645,0.13548,-0.2366,0.10894,0.13171,0.41064,0.081625,-0.20792,-0.82045,0.079264,-0.084671,-0.036139,-0.0002209,-0.030524
-0.0073019,-0.0067331,-0.0013489,-0.0075149,-0.30574,-0.64786,0.78121,-0.50002,0.0079736,-0.42959,1.6712,0.11451,-0.13801,0.14571,0.20056,0.49834,0.082347,-0.30898,-0.52974,0.10338,-0.07916,-0.033952,0.00041258,-0.027746
-0.0062082,-0.0023065,2.7665e-005,-0.0081645,-0.24849,-0.59587,0.63318,-0.47649,-0.010029,-0.4416,1.6823,0.093492,0.039446,0.19819,0.25728,0.59409,0.094668,-0.35764,-0.11894,0.13526,-0.077205,-0.034672,-0.0016165,-0.029423
-0.0060533,9.8454e-005,0.0027402,-0.01105,-0.17685,-0.51213,0.47444,-0.41262,-0.047798,-0.45181,1.7107,0.068067,0.28981,0.25668,0.28893,0.6915,0.10978,-0.39351,0.35869,0.15653,-0.07773,-0.036636,-0.0051911,-0.035866
-0.0066587,-0.00064216,0.0058984,-0.015252,-0.096208,-0.40262,0.33058,-0.31429,-0.098022,-0.49099,1.7411,0.032882,0.58195,0.30119,0.29069,0.78403,0.11576,-0.43043,0.86802,0.15495,-0.07778,-0.037486,-0.0081215,-0.043601
-0.0072123,-0.0031237,0.0082147,-0.018979,-0.014938,-0.28124,0.22159,-0.19624,-0.14303,-0.56073,1.754,-0.0064312,0.87403,0.31097,0.26615,0.8636,0.10502,-0.45957,1.3685,0.13044,-0.074296,-0.035918,-0.0090846,-0.047858
-0.006651,-0.0052463,0.0090252,-0.020736,0.058434,-0.16025,0.15388,-0.079185,-0.16294,-0.6298,1.7581,-0.032107,1.129,0.27606,0.22357,0.92055,0.080832,-0.46137,1.7842,0.093859,-0.065838,-0.03206,-0.0081519,-0.046187
-0.0042128,-0.0061065,0.0090639,-0.02027,0.11937,-0.040801,0.1237,0.019837,-0.14713,-0.65384,1.784,-0.026717,1.3207,0.2027,0.17144,0.94692,0.0567,-0.41958,2.0065,0.059577,-0.05354,-0.02652,-0.0058644,-0.04029
-9.2142e-005,-0.0062003,0.010055,-0.018751,0.16965,0.085565,0.12603,0.095963,-0.10129,-0.60223,1.8488,0.010915,1.4311,0.10908,0.11632,0.94138,0.046935,-0.33496,1.9386,0.036381,-0.040833,-0.019381,-0.0022577,-0.034615
0.0042202,-0.0061625,0.013172,-0.01808,0.21517,0.2227,0.15698,0.15548,-0.044888,-0.47346,1.9335,0.060717,1.4488,0.014972,0.063757,0.91166,0.054627,-0.23511,1.5498,0.021821,-0.031869,-0.010461,0.0029597,-0.032954
0.0064235,-0.0057151,0.017594,-0.019691,0.25995,0.35412,0.20635,0.2056,-0.00037228,-0.2922,1.9959,0.092882,1.3742,-0.066395,0.019759,0.8714,0.066776,-0.17153,0.89979,0.0035495,-0.029172,-0.00082447,0.0093313,-0.035829
0.0047233,-0.004024,0.020622,-0.023607,0.30099,0.44182,0.25067,0.24458,0.018651,-0.094852,2.0079,0.087428,1.2274,-0.12937,-0.0094684,0.83313,0.062048,-0.19755,0.11216,-0.032423,-0.031822,0.0059251,0.015045,-0.040614
-0.00080046,-0.0009856,0.01958,-0.02842,0.32864,0.4454,0.25989,0.26237,0.012812,0.085154,1.9755,0.046401,1.0481,-0.17191,-0.020358,0.80254,0.026653,-0.33521,-0.67818,-0.090802,-0.035615,0.00426,0.017737,-0.043906
-0.0078581,0.0020665,0.014137,-0.032282,0.33309,0.34928,0.21746,0.25162,-0.0065019,0.22629,1.9221,-0.010272,0.88261,-0.19304,-0.015219,0.77804,-0.033509,-0.55317,-1.3676,-0.16046,-0.035545,-0.010412,0.016171,-0.044004
-0.01313,0.0031157,0.0070877,-0.034173,0.31229,0.17693,0.13685,0.21866,-0.025656,0.32243,1.8513,-0.060629,0.7649,-0.19502,-0.0027577,0.75529,-0.094498,-0.77588,-1.8973,-0.21808,-0.029125,-0.038136,0.011288,-0.041681
-0.014316,0.0010539,0.0027496,-0.034483,0.27496,-0.020642,0.056747,0.18308,-0.036012,0.3826,1.7313,-0.094664,0.70548,-0.18656,0.0056157,0.73193,-0.12954,-0.9231,-2.2499,-0.24181,-0.018018,-0.072354,0.0056968,-0.039133
-0.011649,-0.0033283,0.0040497,-0.034441,0.23619,-0.19406,0.014623,0.16507,-0.036164,0.42631,1.5223,-0.1163,0.6963,-0.18063,0.001923,0.70873,-0.12684,-0.95524,-2.4491,-0.2269,-0.0064723,-0.10092,0.0021448,-0.038362
-0.0077809,-0.0077916,0.01045,-0.034954,0.20889,-0.32013,0.01979,0.17179,-0.029979,0.47341,1.224,-0.13463,0.7255,-0.18573,-0.013634,0.68707,-0.096785,-0.89363,-2.5602,-0.19167,0.0023877,-0.11003,0.0023625,-0.040185
-0.0060363,-0.0101,0.01825,-0.035911,0.19766,-0.40356,0.049431,0.19539,-0.023578,0.53265,0.89921,-0.15412,0.78798,-0.19726,-0.032407,0.66656,-0.063425,-0.8035,-2.6675,-0.16725,0.0093599,-0.089527,0.0070033,-0.044149
-0.0082234,-0.0093342,0.023012,-0.036563,0.19899,-0.45765,0.071611,0.22429,-0.023161,0.59705,0.64483,-0.17221,0.88263,-0.19785,-0.041576,0.64555,-0.04733,-0.75384,-2.8184,-0.17594,0.018593,-0.037792,0.016054,-0.048938
-0.013471,-0.0062739,0.022383,-0.036555,0.20635,-0.48352,0.074417,0.25665,-0.033137,0.65126,0.53161,-0.18377,0.99989,-0.16876,-0.030251,0.62358,-0.05296,-0.78198,-2.9676,-0.2133,0.034036,0.035585,0.028661,-0.052935
-0.018865,-0.002879,0.017437,-0.036549,0.21505,-0.46723,0.074381,0.30249,-0.053601,0.68599,0.56122,-0.18563,1.1131,-0.1044,0.0058953,0.60216,-0.069388,-0.88196,-2.9787,-0.24823,0.055983,0.11099,0.042339,-0.054904
-0.021414,-0.0013522,0.011784,-0.037785,0.22309,-0.39696,0.096453,0.37171,-0.078193,0.70705,0.6752,-0.17619,1.1843,-0.018727,0.063217,0.58187,-0.081995,-1.0161,-2.7085,-0.24348,0.080772,0.16469,0.052817,-0.0547
-0.020003,-0.0031887,0.0091811,-0.040964,0.22852,-0.28314,0.1446,0.45909,-0.095114,0.72993,0.80439,-0.15164,1.1822,0.06154,0.13176,0.55857,-0.084486,-1.1359,-2.1271,-0.18266,0.10379,0.17844,0.055687,-0.053526
-0.016008,-0.0084367,0.011237,-0.045468,0.2272,-0.16116,0.19155,0.54081,-0.092722,0.76388,0.91398,-0.10512,1.1002,0.1116,0.19895,0.52317,-0.081592,-1.1995,-1.3753,-0.083888,0.1229,0.1486,0.0493,-0.053275
-0.012205,-0.015456,0.016636,-0.049671,0.21404,-0.071786,0.19892,0.58693,-0.067038,0.79988,1.0078,-0.031696,0.96219,0.12056,0.2541,0.46675,-0.081715,-1.1835,-0.70107,0.010919,0.1389,0.089161,0.036584,-0.0552
-0.010816,-0.021528,0.022226,-0.052065,0.18688,-0.034857,0.1512,0.58001,-0.025577,0.81442,1.0953,0.064471,0.81037,0.093964,0.29218,0.38752,-0.087461,-1.0883,-0.31167,0.06338,0.15267,0.025324,0.023731,-0.058885
-0.012111,-0.024302,0.025131,-0.052259,0.14954,-0.038297,0.07314,0.52476,0.016397,0.78681,1.1592,0.16807,0.68468,0.047943,0.31501,0.29352,-0.093049,-0.94105,-0.25217,0.062084,0.16182,-0.019835,0.016081,-0.062484
-0.014508,-0.023339,0.024398,-0.05108,0.11082,-0.051731,0.014287,0.44174,0.045384,0.71484,1.1581,0.25885,0.60536,0.00066586,0.32863,0.19866,-0.090654,-0.78776,-0.40199,0.025171,0.16057,-0.0375,0.014195,-0.064115
-0.015952,-0.020576,0.021117,-0.049812,0.079811,-0.052905,0.012325,0.35178,0.058007,0.6149,1.0635,0.32221,0.56819,-0.03437,0.3382,0.11536,-0.079352,-0.67731,-0.578,-0.017611,0.14377,-0.035902,0.013416,-0.063268
-0.015355,-0.019104,0.017163,-0.049321,0.060607,-0.044649,0.065123,0.26435,0.061627,0.50688,0.89674,0.35606,0.55341,-0.052464,0.34407,0.049619,-0.067959,-0.64067,-0.64787,-0.046947,0.11177,-0.031908,0.0077235,-0.061013
-0.013019,-0.020943,0.013727,-0.049699,0.050202,-0.049081,0.13354,0.17794,0.066648,0.39796,0.73034,0.36942,0.54107,-0.059593,0.34221,0.0015571,-0.068639,-0.6776,-0.56483,-0.06242,0.072066,-0.037808,-0.0049303,-0.058861
-0.0099271,-0.02546,0.010882,-0.050497,0.040904,-0.085806,0.17122,0.089289,0.076739,0.27984,0.64726,0.37446,0.52285,-0.070573,0.32912,-0.031116,-0.086413,-0.75778,-0.32409,-0.073467,0.03566,-0.053175,-0.020127,-0.057357
-0.0067961,-0.029795,0.0083602,-0.051142,0.025803,-0.15393,0.15655,0.0020829,0.08504,0.14108,0.68665,0.37881,0.50372,-0.10132,0.30698,-0.051443,-0.11339,-0.83349,0.082702,-0.084449,0.010817,-0.067362,-0.029694,-0.055636
-0.0038048,-0.031094,0.006537,-0.051187,0.0039832,-0.23268,0.10252,-0.071864,0.079482,-0.017709,0.81559,0.3831,0.49395,-0.15669,0.28456,-0.064843,-0.13261,-0.85346,0.6511,-0.088682,-0.0012242,-0.069657,-0.027865,-0.052243
-0.0010862,-0.028808,0.0064557,-0.050415,-0.017641,-0.29805,0.040697,-0.11812,0.052896,-0.17965,0.94572,0.38384,0.49861,-0.22126,0.27269,-0.080695,-0.12852,-0.7704,1.3051,-0.075542,-0.0055358,-0.058359,-0.016136,-0.046425
0.00079118,-0.025158,0.0087145,-0.048925,-0.027318,-0.33883,-0.0039897,-0.12636,0.0097879,-0.32151,0.98153,0.37799,0.51303,-0.26208,0.27806,-0.10955,-0.096076,-0.54529,1.8772,-0.041561,-0.0087897,-0.041728,-0.0028197,-0.038804
0.0010527,-0.023331,0.01232,-0.047136,-0.015124,-0.35825,-0.026568,-0.093906,-0.035447,-0.42811,0.86765,0.36528,0.52792,-0.24573,0.29993,-0.15623,-0.042423,-0.15829,2.1779,0.0061927,-0.014425,-0.030839,0.0026501,-0.031021
-0.00051487,-0.024847,0.014824,-0.045506,0.020194,-0.36152,-0.036089,-0.0259,-0.067286,-0.49916,0.608,0.34751,0.5396,-0.16107,0.33153,-0.21454,0.018913,0.37048,2.1145,0.056929,-0.021189,-0.030864,-0.0036001,-0.024781
-0.0031175,-0.028327,0.013957,-0.044016,0.068567,-0.34369,-0.040322,0.065907,-0.078207,-0.54437,0.25212,0.32614,0.55562,-0.03183,0.36359,-0.26987,0.075987,0.96361,1.7573,0.10493,-0.02552,-0.037831,-0.017331,-0.020997
-0.0054059,-0.030681,0.0094754,-0.041888,0.11257,-0.29069,-0.03684,0.16491,-0.071995,-0.57316,-0.13585,0.29986,0.58935,0.09184,0.38659,-0.3094,0.12319,1.4964,1.2932,0.15114,-0.025293,-0.042806,-0.029618,-0.019441
-0.0064393,-0.02973,0.0035764,-0.037984,0.13631,-0.19365,-0.017482,0.25277,-0.059842,-0.58793,-0.50423,0.26314,0.64613,0.15999,0.39109,-0.3321,0.16111,1.8462,0.90245,0.19711,-0.02182,-0.039367,-0.033387,-0.018869
-0.0062123,-0.025994,-0.00064879,-0.031726,0.13371,-0.063903,0.020091,0.31425,-0.052714,-0.58424,-0.82467,0.2063,0.71222,0.15115,0.36894,-0.3496,0.19337,1.9602,0.66233,0.23952,-0.018845,-0.028192,-0.027933,-0.017519
-0.0052849,-0.022114,-0.0015554,-0.023776,0.11042,0.065337,0.065585,0.34198,-0.055096,-0.55475,-1.0878,0.11802,0.75741,0.083763,0.31709,-0.37587,0.22339,1.895,0.54471,0.27198,-0.019691,-0.015663,-0.018281,-0.013906
-0.0040479,-0.020418,-0.00015055,-0.015806,0.077755,0.1526,0.10008,0.33812,-0.063384,-0.49275,-1.2933,-0.0092223,0.75199,0.0036182,0.24231,-0.4139,0.25204,1.7872,0.48349,0.29218,-0.024957,-0.0084159,-0.010623,-0.0076832
-0.0025162,-0.020803,0.00084336,-0.009511,0.043253,0.16737,0.10697,0.31188,-0.069057,-0.39417,-1.4418,-0.1725,0.6867,-0.043909,0.16151,-0.45069,0.27639,1.7601,0.43182,0.30545,-0.032349,-0.0085133,-0.0079418,-7.371e-005
-0.00084797,-0.020855,-0.00072151,-0.005669,0.005341,0.10207,0.080957,0.27456,-0.064312,-0.26055,-1.5339,-0.35464,0.58045,-0.03829,0.094816,-0.46573,0.28963,1.8279,0.35941,0.31917,-0.038496,-0.012629,-0.0091255,0.0066697
0.00018735,-0.018182,-0.0047013,-0.003956,-0.043333,-0.02828,0.029278,0.23554,-0.046983,-0.10303,-1.5722,-0.5274,0.46934,0.0095697,0.054462,-0.44629,0.28305,1.8717,0.21819,0.33264,-0.041249,-0.015072,-0.011434,0.010653
-0.00037222,-0.012863,-0.0089345,-0.0033929,-0.10647,-0.19412,-0.033784,0.20105,-0.022079,0.055685,-1.564,-0.6617,0.38502,0.069966,0.03766,-0.39714,0.25012,1.7168,-0.058222,0.33286,-0.040827,-0.0118,-0.013454,0.011683
-0.0025557,-0.0077294,-0.011223,-0.002808,-0.17657,-0.36017,-0.094228,0.17493,0.00095018,0.18579,-1.5211,-0.73959,0.33898,0.11512,0.029663,-0.33671,0.1911,1.2621,-0.49841,0.30219,-0.039206,-0.0025803,-0.015887,0.01149
-0.0048229,-0.0060028,-0.011288,-0.00095827,-0.23627,-0.49244,-0.14341,0.15938,0.013711,0.26074,-1.4565,-0.75993,0.32371,0.13371,0.015421,-0.28305,0.11491,0.56875,-1.0317,0.23264,-0.038398,0.0094961,-0.020022,0.01258
-0.0049027,-0.0082491,-0.01102,0.0033802,-0.26842,-0.56596,-0.17997,0.1548,0.01368,0.26816,-1.3789,-0.7338,0.32713,0.13198,-0.0090866,-0.24137,0.036533,-0.15957,-1.4959,0.13491,-0.03896,0.019991,-0.025858,0.016568
-0.0016805,-0.011394,-0.012785,0.010893,-0.26748,-0.57433,-0.20946,0.1597,0.0051974,0.21421,-1.2887,-0.67367,0.34537,0.12447,-0.03472,-0.2027,-0.029111,-0.69297,-1.7295,0.034151,-0.039854,0.024939,-0.031761,0.023247
0.0035151,-0.01092,-0.017232,0.02093,-0.2434,-0.53653,-0.24201,0.17179,-0.0039231,0.11924,-1.1773,-0.58564,0.38164,0.12344,-0.047563,-0.15384,-0.073123,-0.90353,-1.6834,-0.044469,-0.039718,0.021751,-0.035744,0.030936
0.0075843,-0.0046039,-0.022481,0.031246,-0.21521,-0.49287,-0.28777,0.19019,-0.0074138,0.0078177,-1.0321,-0.47172,0.4326,0.13388,-0.040453,-0.089306,-0.095311,-0.82141,-1.4565,-0.089963,-0.038511,0.0095947,-0.036913,0.037641
0.0079397,0.0053485,-0.025462,0.038946,-0.19936,-0.48752,-0.3509,0.21655,-0.0033413,-0.1005,-0.84341,-0.33892,0.47663,0.15469,-0.018244,-0.015856,-0.10288,-0.59516,-1.226,-0.1103,-0.038052,-0.010063,-0.03579,0.042124
0.0045493,0.013738,-0.024409,0.042274,-0.20158,-0.54542,-0.42528,0.25359,0.0071468,-0.19534,-0.61205,-0.20501,0.47792,0.18166,0.0065387,0.053153,-0.1069,-0.40177,-1.1273,-0.12647,-0.040772,-0.032702,-0.033497,0.044407
2.5585e-005,0.016373,-0.020465,0.041944,-0.21714,-0.65809,-0.49549,0.30109,0.023324,-0.27384,-0.35264,-0.092555,0.40694,0.20893,0.022651,0.10745,-0.11858,-0.37149,-1.18,-0.16085,-0.047473,-0.050691,-0.030767,0.045754
-0.0022619,0.01341,-0.01699,0.04084,-0.23741,-0.789,-0.54449,0.35237,0.046942,-0.33537,-0.091974,-0.013917,0.26267,0.22901,0.02577,0.14557,-0.14596,-0.55808,-1.3045,-0.22577,-0.055998,-0.055145,-0.027615,0.048226
-0.00045163,0.0092561,-0.016947,0.042117,-0.25631,-0.8958,-0.56399,0.3942,0.080681,-0.37614,0.13876,0.039573,0.079149,0.23433,0.01745,0.17317,-0.1908,-0.94121,-1.3948,-0.316,-0.062174,-0.039917,-0.023727,0.053737
0.0048778,0.0090872,-0.02046,0.047044,-0.27231,-0.95504,-0.5606,0.41151,0.12433,-0.38752,0.3154,0.092711,-0.089882,0.22133,0.0009472,0.19704,-0.24651,-1.4371,-1.3745,-0.40705,-0.062601,-0.006053,-0.019119,0.06276
0.011506,0.014822,-0.024599,0.054216,-0.28647,-0.97329,-0.5523,0.39508,0.17231,-0.36075,0.43092,0.16696,-0.19803,0.1947,-0.020327,0.22079,-0.299,-1.9153,-1.1975,-0.46217,-0.057094,0.036322,-0.014609,0.073439
0.017133,0.023798,-0.025742,0.060718,-0.29992,-0.9784,-0.5564,0.34799,0.21511,-0.29662,0.49734,0.26121,-0.22762,0.16738,-0.040279,0.24475,-0.33183,-2.2357,-0.82284,-0.44841,-0.048741,0.071168,-0.011837,0.082116
0.020484,0.031087,-0.02259,0.064312,-0.31297,-0.99848,-0.57721,0.28645,0.24377,-0.2143,0.53562,0.34894,-0.19401,0.15482,-0.047955,0.2684,-0.33388,-2.3046,-0.2155,-0.35609,-0.041433,0.084239,-0.012631,0.085384
0.021486,0.033398,-0.017204,0.064944,-0.32529,-1.0436,-0.603,0.23351,0.25417,-0.15068,0.55796,0.39522,-0.13417,0.16649,-0.030952,0.29144,-0.30463,-2.116,0.6107,-0.20973,-0.036964,0.071309,-0.017818,0.082417
0.020836,0.03136,-0.013109,0.064486,-0.33546,-1.1015,-0.61567,0.20778,0.24791,-0.14622,0.55481,0.38074,-0.089205,0.20006,0.015772,0.31212,-0.25333,-1.7445,1.5504,-0.059532,-0.03409,0.041488,-0.026109,0.075694
0.019439,0.028546,-0.012183,0.065108,-0.34025,-1.1484,-0.60651,0.21339,0.2298,-0.22269,0.499,0.31444,-0.089847,0.24147,0.082315,0.32518,-0.19265,-1.2871,2.4195,0.044775,-0.03018,0.012698,-0.034123,0.069405
0.017951,0.028356,-0.01321,0.067744,-0.33556,-1.1655,-0.58564,0.23725,0.20427,-0.36636,0.36769,0.22614,-0.14858,0.27027,0.14479,0.32259,-0.13223,-0.80451,3.0339,0.081637,-0.023819,0.0015676,-0.038094,0.066697
0.016536,0.031515,-0.013433,0.071848,-0.31983,-1.1517,-0.5769,0.25616,0.17373,-0.52973,0.16756,0.1466,-0.25804,0.26637,0.17591,0.2978,-0.077254,-0.3121,3.3019,0.066616,-0.016046,0.014109,-0.036361,0.067877
0.014957,0.036099,-0.011495,0.076322,-0.29745,-1.1242,-0.60104,0.24979,0.13955,-0.65355,-0.057799,0.091091,-0.39532,0.21555,0.15859,0.2508,-0.03219,0.17749,3.2631,0.035495,-0.0093459,0.043246,-0.030744,0.070773
0.013016,0.03964,-0.0088074,0.080445,-0.27831,-1.1093,-0.65982,0.21208,0.1042,-0.69693,-0.24794,0.057326,-0.5319,0.11331,0.093587,0.18988,-0.0041708,0.61174,3.0509,0.015199,-0.0055673,0.074462,-0.025392,0.072594
0.011046,0.041168,-0.0079571,0.083837,-0.27202,-1.1284,-0.73315,0.15406,0.072015,-0.65658,-0.36166,0.035514,-0.6464,-0.032355,-0.0028983,0.12835,-0.00038525,0.91344,2.8148,0.0066643,-0.0046703,0.095107,-0.0237,0.071627
0.0099283,0.041418,-0.0098145,0.085766,-0.28052,-1.1861,-0.79112,0.097031,0.047857,-0.56314,-0.40344,0.019391,-0.73333,-0.19991,-0.10814,0.078066,-0.019961,1.0526,2.6568,-0.0067118,-0.0051432,0.10076,-0.025679,0.067694
0.010441,0.041374,-0.012352,0.085011,-0.29516,-1.2662,-0.8113,0.060694,0.034642,-0.45863,-0.41958,0.0090518,-0.80178,-0.35772,-0.20145,0.043828,-0.047709,1.1086,2.6114,-0.034417,-0.0053177,0.094995,-0.027971,0.061587
0.012421,0.040969,-0.012481,0.080886,-0.30147,-1.3378,-0.78886,0.053346,0.031776,-0.37195,-0.46564,0.0057189,-0.86429,-0.47341,-0.26809,0.022075,-0.057726,1.2499,2.6519,-0.062296,-0.0042244,0.084323,-0.026533,0.054415
0.014518,0.039379,-0.0091226,0.074576,-0.28864,-1.3689,-0.73425,0.068992,0.035422,-0.30876,-0.56792,0.0058755,-0.92438,-0.52678,-0.29969,0.0042691,-0.02747,1.6259,2.7014,-0.060942,-0.0014508,0.073256,-0.019791,0.047381
