2.8361e-010,1.3795e-009,3.9937e-010,2.2399e-009,-7.1384e-011,5.3056e-010,1.91e-010,2.1782e-009,5.8458e-010,-1.063e-009,2.0431e-009,1.3254e-009,-7.3507e-010,-1.0245e-009,8.3153e-010,-2.8805e-009,1.7557e-010,1.364e-009,-6.0773e-010,2.3171e-009,-5.0355e-010,3.1834e-010,1.0129e-009,2.6431e-010
8.0648e-009,3.7911e-008,1.1364e-008,6.1538e-008,-1.9186e-009,1.4777e-008,4.8073e-009,6.0238e-008,1.6964e-008,-2.845e-008,5.874e-008,3.6183e-008,-1.9981e-008,-2.834e-008,2.2774e-008,-7.9783e-008,4.9017e-009,3.7666e-008,-1.6852e-008,6.391e-008,-1.3772e-008,8.6463e-009,2.8059e-008,7.5316e-009
1.1124e-007,5.0662e-007,1.5697e-007,8.2158e-007,-2.4805e-008,2.0025e-007,5.8006e-008,8.0998e-007,2.3948e-007,-3.6813e-007,8.2466e-007,4.7896e-007,-2.6366e-007,-3.8115e-007,3.0312e-007,-1.0746e-006,6.6598e-008,5.0542e-007,-2.2703e-007,8.5697e-007,-1.8292e-007,1.1375e-007,3.7802e-007,1.0429e-007
9.9133e-007,4.386e-006,1.4022e-006,7.1008e-006,-2.0516e-007,1.7594e-006,4.451e-007,7.0552e-006,2.1914e-006,-3.0641e-006,7.5363e-006,4.0927e-006,-2.2497e-006,-3.3196e-006,2.6125e-006,-9.3764e-006,5.8668e-007,4.3905e-006,-1.9793e-006,7.4426e-006,-1.5712e-006,9.6457e-007,3.2994e-006,9.3538e-007
6.4142e-006,2.765e-005,9.1042e-006,4.4651e-005,-1.2167e-006,1.1268e-005,2.4252e-006,4.4741e-005,1.4613e-005,-1.8404e-005,5.0423e-005,2.5348e-005,-1.3947e-005,-2.104e-005,1.6391e-005,-5.9578e-005,3.7669e-006,2.775e-005,-1.2546e-005,4.7054e-005,-9.8045e-006,5.914e-006,2.0966e-005,6.1106e-006
3.2096e-005,0.00013525,4.5774e-005,0.00021763,-5.49e-006,5.6064e-005,9.8888e-006,0.00022008,7.5677e-005,-8.4762e-005,0.00026337,0.00012107,-6.69e-005,-0.00010335,7.9783e-005,-0.00029371,1.8786e-005,0.00013597,-6.1568e-005,0.00023074,-4.7324e-005,2.7856e-005,0.00010332,3.1002e-005
0.00012917,0.00053399,0.00018537,0.00085512,-1.9469e-005,0.00022555,3.0781e-005,0.00087349,0.00031675,-0.00031016,0.0011182,0.00046294,-0.00025816,-0.00040901,0.00031352,-0.0011687,7.5733e-005,0.00053721,-0.00024317,0.00091293,-0.00018361,0.00010439,0.00041068,0.0001272
0.00042907,0.0017475,0.00062081,0.002781,-5.5043e-005,0.00075379,7.2061e-005,0.002872,0.0011007,-0.00092024,0.0039672,0.0014513,-0.00082228,-0.0013377,0.001022,-0.0038538,0.00025354,0.0017574,-0.00079299,0.0029926,-0.00058719,0.00031733,0.0013514,0.00043398
0.0011978,0.0048282,0.0017515,0.0076235,-0.00012329,0.0021334,0.00011521,0.0079683,0.0032372,-0.0022326,0.012,0.0037834,-0.0021995,-0.0036767,0.0028172,-0.010729,0.00071869,0.0048495,-0.0021719,0.0082791,-0.0015736,0.00078687,0.0037479,0.0012567
0.0028441,0.011411,0.0042169,0.017842,-0.00020882,0.0051857,6.2929e-005,0.018898,0.00817,-0.004406,0.031408,0.0082551,-0.0049968,-0.0085793,0.0066625,-0.025545,0.0017498,0.011437,-0.0050515,0.019587,-0.0035697,0.0015724,0.0088688,0.0031378
0.0057881,0.023277,0.0087431,0.035955,-0.00021751,0.010938,-0.00031922,0.03865,0.017876,-0.0068684,0.071949,0.015042,-0.0097001,-0.017064,0.013666,-0.052484,0.0036989,0.023262,-0.010037,0.039988,-0.0068842,0.0024049,0.018046,0.0068436
0.010129,0.041202,0.0157,0.062699,8.5764e-005,0.020174,-0.001382,0.06854,0.034161,-0.0076646,0.14549,0.022536,-0.0161,-0.028825,0.024523,-0.093565,0.0068458,0.041049,-0.017045,0.070862,-0.011259,0.0022831,0.031687,0.013184
0.015219,0.063423,0.024491,0.094745,0.001097,0.032708,-0.0033778,0.10562,0.057302,-0.0034936,0.26133,0.026569,-0.022694,-0.040698,0.038775,-0.14506,0.011165,0.06304,-0.024587,0.10933,-0.015418,-0.00078653,0.04797,0.022664
0.019469,0.084791,0.033204,0.12377,0.003284,0.046803,-0.006034,0.14132,0.084631,0.0086121,0.41851,0.02144,-0.026623,-0.045921,0.05439,-0.19538,0.016134,0.084284,-0.029594,0.1469,-0.017074,-0.0093853,0.06217,0.035115
0.020791,0.097936,0.039076,0.13874,0.0069673,0.059318,-0.0081443,0.16349,0.11022,0.027888,0.5981,0.0036192,-0.024644,-0.035732,0.068201,-0.22756,0.020759,0.097883,-0.028486,0.17158,-0.013791,-0.025203,0.067795,0.049521
0.017718,0.096778,0.039891,0.13161,0.012055,0.066959,-0.0076329,0.16237,0.12658,0.046545,0.7601,-0.023276,-0.014979,-0.0038556,0.077253,-0.22716,0.023925,0.0983,-0.019445,0.17377,-0.0044857,-0.046808,0.059822,0.064164
0.010655,0.080721,0.035592,0.10319,0.017905,0.068218,-0.0024451,0.13751,0.12813,0.049915,0.84917,-0.046234,0.001053,0.047882,0.080312,-0.19204,0.024933,0.084945,-0.0046399,0.15293,0.0094307,-0.068051,0.038471,0.076984
0.0022517,0.056434,0.028849,0.064677,0.023469,0.064754,0.0079685,0.10028,0.11422,0.02236,0.80982,-0.047445,0.019009,0.10673,0.078433,-0.1366,0.023907,0.063207,0.0095657,0.11995,0.024482,-0.079006,0.010676,0.08589
-0.0037327,0.034959,0.023736,0.032035,0.027702,0.060971,0.02152,0.068409,0.089562,-0.042751,0.60685,-0.015648,0.033362,0.15257,0.074072,-0.085427,0.021788,0.041427,0.015476,0.091802,0.037311,-0.070264,-0.012837,0.089009
-0.0046628,0.025138,0.023148,0.016157,0.030036,0.061529,0.033812,0.054908,0.061012,-0.13529,0.24366,0.042383,0.040455,0.16762,0.069419,-0.058445,0.019877,0.025466,0.008739,0.081026,0.047163,-0.038953,-0.023768,0.085087
-0.00088525,0.027717,0.02681,0.015776,0.030596,0.068136,0.040201,0.059162,0.0332,-0.22979,-0.22923,0.099918,0.040222,0.14701,0.065296,-0.057807,0.019225,0.015037,-0.0083799,0.087434,0.056375,0.0074243,-0.021602,0.074268
0.0042498,0.034811,0.031534,0.019093,0.03,0.077827,0.038485,0.067641,0.0063148,-0.29758,-0.72078,0.12281,0.035382,0.10275,0.061442,-0.067061,0.020211,0.0050688,-0.027959,0.098897,0.067875,0.052915,-0.013729,0.058897
0.0064385,0.035699,0.033636,0.013367,0.028862,0.084236,0.03035,0.064572,-0.021907,-0.32291,-1.1221,0.09052,0.028936,0.057101,0.057662,-0.06427,0.022481,-0.0086977,-0.041433,0.10115,0.081342,0.080951,-0.0096954,0.04343
0.0032117,0.024845,0.03157,-0.0050279,0.027351,0.081312,0.020372,0.044357,-0.051852,-0.31165,-1.3406,0.011151,0.022258,0.029087,0.054518,-0.039138,0.025151,-0.024662,-0.045189,0.088781,0.091474,0.083633,-0.013855,0.032758
-0.0044781,0.0059264,0.026677,-0.028321,0.025128,0.0671,0.013203,0.015524,-0.079506,-0.2855,-1.333,-0.081419,0.01541,0.023294,0.052796,-0.00017476,0.027059,-0.035638,-0.042542,0.068397,0.090585,0.066107,-0.022339,0.029481
-0.012927,-0.011284,0.02167,-0.044559,0.021707,0.044988,0.010966,-0.0070819,-0.098334,-0.26516,-1.1235,-0.1476,0.0089899,0.029043,0.052376,0.033961,0.026988,-0.034884,-0.040685,0.051434,0.074162,0.042542,-0.026942,0.031974
-0.01803,-0.01856,0.018448,-0.047927,0.016926,0.021612,0.012698,-0.014996,-0.10399,-0.25491,-0.79382,-0.16495,0.0051617,0.030134,0.051802,0.051218,0.023874,-0.023136,-0.045154,0.043454,0.045019,0.026344,-0.022632,0.035048
-0.01768,-0.015162,0.017191,-0.04326,0.011161,0.0030187,0.015989,-0.012685,-0.097394,-0.24035,-0.44904,-0.13732,0.0063357,0.017333,0.049246,0.056375,0.017088,-0.010471,-0.056142,0.03953,0.012316,0.021708,-0.012224,0.033207
-0.012769,-0.0075978,0.017157,-0.04122,0.0051004,-0.0081567,0.019234,-0.012596,-0.083213,-0.20111,-0.17599,-0.085018,0.012569,-0.005885,0.044111,0.066143,0.0067384,-0.010771,-0.069133,0.029583,-0.014174,0.022654,-0.0042073,0.024334
-0.0064624,-0.0040637,0.017885,-0.048889,-0.00069078,-0.012867,0.022654,-0.023722,-0.065508,-0.12903,-0.016686,-0.02656,0.020486,-0.027841,0.037818,0.094149,-0.0061383,-0.032468,-0.078659,0.0082751,-0.030086,0.019764,-0.0056759,0.011014
-0.0023559,-0.0085769,0.019396,-0.064212,-0.0060222,-0.013793,0.027514,-0.044178,-0.045156,-0.03791,0.031057,0.031821,0.025387,-0.038563,0.032942,0.13936,-0.019677,-0.072397,-0.081696,-0.0198,-0.037912,0.0087549,-0.016505,-0.0015321
-0.0025671,-0.019284,0.021405,-0.078774,-0.010971,-0.013524,0.034531,-0.064007,-0.02195,0.042054,-0.0069764,0.091343,0.025062,-0.036683,0.031269,0.18766,-0.031626,-0.11707,-0.078154,-0.044113,-0.043004,-0.0060687,-0.029656,-0.0092399
-0.0066514,-0.031299,0.022821,-0.085696,-0.015589,-0.014129,0.042935,-0.074819,0.00098424,0.081086,-0.10253,0.14819,0.021735,-0.028642,0.032287,0.224,-0.040014,-0.14996,-0.068846,-0.057148,-0.047969,-0.01578,-0.03705,-0.011698
-0.011903,-0.040748,0.022412,-0.085272,-0.01978,-0.017588,0.050875,-0.07699,0.015923,0.066224,-0.23204,0.18815,0.019946,-0.022519,0.033365,0.24366,-0.04377,-0.15938,-0.053475,-0.059933,-0.050583,-0.014188,-0.035743,-0.011549
-0.01503,-0.046613,0.020008,-0.083646,-0.023479,-0.025452,0.056586,-0.07813,0.01529,0.0072044,-0.37158,0.19529,0.022001,-0.022717,0.031585,0.25304,-0.043018,-0.14188,-0.030788,-0.059621,-0.046925,-0.0021441,-0.029306,-0.011638
-0.014391,-0.049774,0.016771,-0.086476,-0.026882,-0.03722,0.059311,-0.085076,-0.00105,-0.070406,-0.49317,0.16705,0.025212,-0.029561,0.025936,0.26102,-0.03895,-0.10089,-0.00075863,-0.062343,-0.036496,0.014365,-0.023776,-0.012482
-0.011315,-0.051223,0.01403,-0.093748,-0.030328,-0.048981,0.059396,-0.097467,-0.023091,-0.13909,-0.57233,0.12029,0.023828,-0.042364,0.01816,0.2698,-0.033337,-0.043688,0.03343,-0.068463,-0.024263,0.029799,-0.022239,-0.012125
-0.0093521,-0.051404,0.011859,-0.10026,-0.033838,-0.054558,0.05772,-0.10883,-0.036541,-0.18152,-0.60199,0.080781,0.0142,-0.061255,0.011497,0.27366,-0.027919,0.020238,0.065737,-0.074178,-0.017459,0.042949,-0.022807,-0.0082598
-0.011687,-0.050777,0.0090248,-0.10076,-0.036745,-0.049435,0.055017,-0.11357,-0.033363,-0.19458,-0.59799,0.06422,-0.0014741,-0.084831,0.0082499,0.26563,-0.023823,0.079389,0.090074,-0.076796,-0.019875,0.056012,-0.021307,-0.00063231
-0.018523,-0.050293,0.0044913,-0.094642,-0.03798,-0.034771,0.05145,-0.11272,-0.018079,-0.18447,-0.5866,0.065469,-0.016344,-0.10564,0.0083059,0.24498,-0.021191,0.12177,0.10351,-0.077776,-0.028718,0.070573,-0.015677,0.0083264
-0.026566,-0.050972,-0.0011573,-0.086252,-0.036962,-0.017873,0.046564,-0.11279,-0.0037805,-0.15717,-0.58151,0.065848,-0.024033,-0.10878,0.010164,0.21867,-0.019208,0.13922,0.10739,-0.080598,-0.036817,0.084853,-0.0078937,0.015134
-0.031195,-0.053072,-0.0060442,-0.080878,-0.034343,-0.0080265,0.039615,-0.11894,-0.00070759,-0.11151,-0.5694,0.051844,-0.02304,-0.077482,0.013745,0.1963,-0.016669,0.13265,0.10568,-0.086228,-0.038259,0.094817,-0.0019176,0.017775
-0.029728,-0.055912,-0.0089071,-0.080505,-0.031785,-0.0105,0.03018,-0.12926,-0.0071553,-0.040437,-0.5179,0.02822,-0.016612,-0.0039015,0.022082,0.18342,-0.012861,0.1136,0.10218,-0.091329,-0.032767,0.097667,4.0792e-005,0.017059
-0.023256,-0.05853,-0.010571,-0.082872,-0.030696,-0.023395,0.018762,-0.13598,-0.010886,0.059061,-0.40137,0.013637,-0.0086924,0.10165,0.039325,0.17859,-0.0081,0.099627,0.099146,-0.091253,-0.025474,0.094042,-0.00072351,0.015728
-0.01567,-0.060373,-0.013261,-0.084093,-0.030938,-0.039756,0.0068496,-0.13255,-0.00024655,0.17451,-0.22426,0.022944,-0.00024156,0.21071,0.065684,0.1752,-0.0032775,0.10544,0.098206,-0.084688,-0.022741,0.086867,-0.0010934,0.016061
-0.010786,-0.06125,-0.018248,-0.082041,-0.030776,-0.053016,-0.0038345,-0.12018,0.02439,0.27562,-0.02341,0.05223,0.010477,0.28819,0.093492,0.16513,0.001394,0.13554,0.1022,-0.075118,-0.02764,0.078333,0.00068392,0.017919
-0.0098803,-0.060786,-0.024209,-0.077545,-0.028377,-0.061294,-0.012444,-0.10728,0.048855,0.32721,0.15273,0.080105,0.024253,0.30991,0.10879,0.1417,0.0072332,0.18318,0.11522,-0.067559,-0.038381,0.068256,0.0035395,0.01886
-0.011375,-0.058308,-0.028106,-0.072849,-0.023728,-0.067348,-0.019532,-0.10237,0.055085,0.31203,0.27179,0.084108,0.038031,0.27527,0.098685,0.1015,0.016281,0.23567,0.14,-0.063976,-0.05017,0.055403,0.0051337,0.016258
-0.012568,-0.053532,-0.027918,-0.06921,-0.019194,-0.074936,-0.026368,-0.10658,0.035029,0.24763,0.33225,0.058208,0.04607,0.2063,0.059573,0.045971,0.028948,0.28148,0.17435,-0.062101,-0.058408,0.040231,0.004597,0.0096728
-0.011764,-0.047364,-0.024604,-0.065917,-0.017906,-0.085131,-0.033556,-0.11292,-0.0024771,0.182,0.35724,0.016976,0.044298,0.133,-0.00030253,-0.017619,0.042016,0.31376,0.21006,-0.058938,-0.060826,0.02598,0.0035306,0.0014701
-0.0091808,-0.04176,-0.02139,-0.061338,-0.02106,-0.095642,-0.040232,-0.11276,-0.037282,0.16629,0.3758,-0.016185,0.03361,0.074629,-0.066173,-0.077685,0.049227,0.32931,0.23614,-0.055364,-0.0577,0.016794,0.0042631,-0.004898
-0.0062279,-0.038502,-0.021042,-0.05475,-0.026444,-0.10316,-0.044622,-0.10358,-0.051659,0.22163,0.40678,-0.026359,0.018742,0.029696,-0.12593,-0.12318,0.04482,0.32586,0.24465,-0.056924,-0.050929,0.014443,0.0072683,-0.0075374
-0.0040632,-0.037925,-0.023728,-0.047172,-0.029746,-0.10618,-0.045471,-0.090901,-0.041914,0.3244,0.45464,-0.016224,0.0036597,-0.018834,-0.17606,-0.14932,0.027716,0.30194,0.23532,-0.069401,-0.043068,0.01667,0.010524,-0.007466
-0.0026627,-0.038781,-0.027393,-0.040486,-0.027919,-0.10576,-0.042967,-0.082735,-0.019606,0.42308,0.51501,-0.0011591,-0.012113,-0.087784,-0.22038,-0.15967,0.0030046,0.25988,0.21553,-0.09284,-0.036714,0.018646,0.011547,-0.0075522
-0.0010175,-0.039353,-0.030021,-0.035677,-0.021882,-0.1039,-0.038386,-0.082066,-0.0021917,0.47566,0.58123,0.0039412,-0.032555,-0.17947,-0.2635,-0.16236,-0.020735,0.20845,0.19578,-0.11956,-0.033966,0.01634,0.010015,-0.0099852
0.001855,-0.038721,-0.031415,-0.031723,-0.016089,-0.10144,-0.033034,-0.084322,-0.00050068,0.47907,0.64578,-0.0050246,-0.060299,-0.27886,-0.30505,-0.1629,-0.036522,0.16065,0.18384,-0.13851,-0.035889,0.0090879,0.0082082,-0.014454
0.0059206,-0.037031,-0.03283,-0.02609,-0.014967,-0.097375,-0.027695,-0.082018,-0.012115,0.46649,0.69772,-0.021091,-0.092346,-0.36283,-0.33897,-0.1597,-0.042753,0.12652,0.1812,-0.14299,-0.042461,-0.00049246,0.0087521,-0.018542
0.0099072,-0.034679,-0.035157,-0.016531,-0.019011,-0.089998,-0.023055,-0.071892,-0.024756,0.47326,0.72102,-0.034351,-0.12049,-0.41338,-0.35743,-0.14599,-0.043111,0.10586,0.18334,-0.13563,-0.053388,-0.0088693,0.011905,-0.01992
0.012064,-0.031444,-0.037769,-0.0028986,-0.023881,-0.078444,-0.020296,-0.057792,-0.026294,0.4992,0.6976,-0.040807,-0.13636,-0.42545,-0.35577,-0.11663,-0.0431,0.087168,0.18282,-0.12674,-0.06933,-0.01428,0.015166,-0.018454
0.011449,-0.026577,-0.039325,0.01239,-0.023526,-0.063223,-0.020803,-0.046882,-0.013628,0.5003,0.61451,-0.04506,-0.13701,-0.40568,-0.33472,-0.073778,-0.04613,0.054725,0.17263,-0.12712,-0.092264,-0.017814,0.015588,-0.016575
0.0088564,-0.019792,-0.039584,0.025669,-0.014988,-0.045617,-0.024995,-0.043079,0.0058158,0.42045,0.47135,-0.055723,-0.12654,-0.36569,-0.29962,-0.026693,-0.051968,-0.00091211,0.1482,-0.14076,-0.12407,-0.022324,0.012447,-0.017823
0.0065716,-0.012081,-0.040146,0.034343,-0.0010021,-0.02706,-0.031506,-0.043907,0.020334,0.24084,0.28455,-0.077959,-0.11286,-0.31591,-0.25789,0.013844,-0.05808,-0.076939,0.108,-0.16265,-0.16388,-0.030084,0.0075894,-0.024902
0.0069188,-0.005343,-0.043136,0.038655,0.011819,-0.0093521,-0.037798,-0.043247,0.022688,0.0072893,0.086271,-0.10891,-0.10258,-0.26305,-0.21682,0.041564,-0.062178,-0.16115,0.053224,-0.18288,-0.20629,-0.04084,0.0032438,-0.038769
0.010509,-0.00097069,-0.049006,0.041595,0.017803,0.0048815,-0.04187,-0.036801,0.014759,-0.18894,-0.082198,-0.13894,-0.097934,-0.21036,-0.18197,0.056556,-0.063742,-0.2407,-0.012742,-0.19339,-0.24229,-0.051548,-0.0002483,-0.059185
0.01554,0.0013824,-0.05568,0.046882,0.016195,0.012799,-0.043495,-0.02502,0.0050801,-0.26594,-0.18184,-0.15724,-0.097216,-0.15851,-0.15616,0.062499,-0.063593,-0.30931,-0.085064,-0.1925,-0.26301,-0.058042,-0.004362,-0.086019
0.01887,0.0036237,-0.060034,0.056362,0.011181,0.013312,-0.04381,-0.011356,0.0017448,-0.2024,-0.18942,-0.15789,-0.097392,-0.10626,-0.13889,0.062815,-0.062311,-0.36726,-0.158,-0.18422,-0.2642,-0.057609,-0.010171,-0.12018
0.018218,0.007601,-0.060443,0.068724,0.0081415,0.0087598,-0.043771,0.0015878,0.0063525,-0.049212,-0.10823,-0.14271,-0.09631,-0.051513,-0.1267,0.059385,-0.059124,-0.41561,-0.22507,-0.17384,-0.24838,-0.050821,-0.01666,-0.16352
0.013895,0.013375,-0.058064,0.080568,0.0093451,0.0041359,-0.04314,0.013879,0.013344,0.10459,0.02968,-0.11978,-0.09343,0.0065832,-0.11457,0.054258,-0.052285,-0.45127,-0.27888,-0.16371,-0.22331,-0.041376,-0.021782,-0.21766
0.0087239,0.018988,-0.0557,0.088992,0.01259,0.0036443,-0.041096,0.026675,0.014601,0.18438,0.17359,-0.099025,-0.089511,0.065927,-0.097998,0.05165,-0.040668,-0.46853,-0.31166,-0.15231,-0.19767,-0.033981,-0.025421,-0.28226
0.0061729,0.022123,-0.055325,0.093607,0.013646,0.0072169,-0.03775,0.0396,0.0052914,0.16463,0.27373,-0.08768,-0.086015,0.1215,-0.074971,0.057311,-0.025318,-0.46587,-0.31726,-0.13675,-0.17693,-0.031647,-0.030948,-0.35329
0.0081034,0.022328,-0.056518,0.096324,0.010166,0.010305,-0.034781,0.050257,-0.013414,0.067946,0.30183,-0.087893,-0.084388,0.16745,-0.047059,0.075039,-0.0095971,-0.45131,-0.29441,-0.11609,-0.16188,-0.034187,-0.043055,-0.4226
0.01374,0.021773,-0.057071,0.099198,0.003671,0.0076679,-0.034272,0.056375,-0.036111,-0.06117,0.26185,-0.097083,-0.085057,0.19979,-0.019149,0.10292,0.0024708,-0.43981,-0.24909,-0.092609,-0.15043,-0.038828,-0.063315,-0.47969
0.02044,0.023623,-0.055032,0.10238,-0.00191,-0.001852,-0.036764,0.058206,-0.057161,-0.18327,0.18514,-0.11019,-0.086627,0.21777,0.0024988,0.13255,0.0086896,-0.44339,-0.19351,-0.070173,-0.14082,-0.042403,-0.087752,-0.51582
0.02547,0.029197,-0.050264,0.10413,-0.0036083,-0.01378,-0.040537,0.058587,-0.073509,-0.27499,0.11338,-0.12216,-0.086253,0.22372,0.013578,0.15239,0.010245,-0.46152,-0.14127,-0.051439,-0.13402,-0.043528,-0.10942,-0.52834
0.027409,0.036398,-0.044322,0.10286,-0.001658,-0.021221,-0.043043,0.060643,-0.084717,-0.32566,0.079374,-0.12949,-0.081415,0.22181,0.01505,0.15349,0.010961,-0.4801,-0.10102,-0.036287,-0.13331,-0.04331,-0.12446,-0.52237
0.026401,0.041025,-0.039095,0.099241,0.0012371,-0.020147,-0.043251,0.06547,-0.0913,-0.33159,0.096157,-0.13044,-0.071897,0.21677,0.014128,0.13384,0.014535,-0.48065,-0.072852,-0.022728,-0.14161,-0.044266,-0.13645,-0.50764
0.023478,0.040179,-0.035599,0.096256,0.0027304,-0.012238,-0.042661,0.071862,-0.09357,-0.2967,0.15817,-0.12446,-0.060171,0.21227,0.021117,0.098323,0.021692,-0.45267,-0.049989,-0.0092155,-0.15835,-0.04834,-0.15515,-0.4919
0.019807,0.034954,-0.03383,0.096847,0.0030829,-0.002998,-0.043898,0.077934,-0.091933,-0.23674,0.25056,-0.11187,-0.049762,0.20925,0.042913,0.054138,0.029529,-0.39998,-0.024572,0.0037825,-0.17787,-0.055446,-0.19045,-0.4754
0.016407,0.029995,-0.033343,0.10125,0.0048221,0.0030312,-0.048111,0.082757,-0.087772,-0.17928,0.35893,-0.094184,-0.043185,0.20497,0.077128,0.0048917,0.033751,-0.33652,0.006429,0.014313,-0.19057,-0.063404,-0.24675,-0.45069
0.014238,0.030055,-0.033677,0.10645,0.01019,0.0058121,-0.053562,0.086539,-0.083441,-0.15498,0.47398,-0.074785,-0.041561,0.19419,0.11178,-0.052173,0.032134,-0.27622,0.039174,0.020986,-0.18633,-0.06918,-0.32223,-0.40821
0.014184,0.036266,-0.034234,0.10838,0.018743,0.0093278,-0.056745,0.089699,-0.081096,-0.18344,0.59061,-0.058923,-0.046204,0.17292,0.13232,-0.12347,0.026403,-0.22509,0.065806,0.024591,-0.15844,-0.070512,-0.4125,-0.34383
0.016647,0.045204,-0.034052,0.10516,0.027314,0.017824,-0.055074,0.092196,-0.081427,-0.26125,0.70473,-0.052134,-0.060122,0.14222,0.13222,-0.21283,0.020927,-0.18086,0.079835,0.02778,-0.10642,-0.066989,-0.51361,-0.26305
0.020999,0.051452,-0.032111,0.098604,0.032457,0.032094,-0.048833,0.093782,-0.083481,-0.35842,0.8112,-0.057442,-0.087178,0.10904,0.11921,-0.31673,0.019286,-0.13833,0.080276,0.033057,-0.036607,-0.060169,-0.61997,-0.17914
0.025456,0.051535,-0.028126,0.092619,0.033281,0.048754,-0.040803,0.094611,-0.085493,-0.42574,0.90401,-0.073068,-0.12907,0.082147,0.11148,-0.42511,0.021601,-0.094308,0.071961,0.040884,0.039457,-0.052956,-0.71879,-0.10701
0.027758,0.04608,-0.023062,0.090008,0.032223,0.062845,-0.034066,0.09525,-0.085649,-0.4124,0.97757,-0.092578,-0.18291,0.065725,0.12511,-0.52703,0.024839,-0.048363,0.062188,0.049557,0.10821,-0.048582,-0.78769,-0.057282
0.026437,0.038788,-0.018665,0.090248,0.033,0.071419,-0.029859,0.096062,-0.082059,-0.28903,1.0269,-0.10785,-0.24203,0.055372,0.1616,-0.61619,0.025717,-0.00067205,0.056158,0.056925,0.1578,-0.049439,-0.80169,-0.033513
0.021886,0.033475,-0.016177,0.090164,0.037407,0.075218,-0.027117,0.096809,-0.072543,-0.066627,1.0464,-0.11312,-0.29949,0.040379,0.20541,-0.6916,0.023574,0.049226,0.054248,0.062365,0.18137,-0.055986,-0.74761,-0.033022
0.016332,0.031669,-0.015279,0.0868,0.043625,0.07725,-0.023768,0.097069,-0.055423,0.20102,1.0299,-0.10741,-0.35105,0.011206,0.23434,-0.75328,0.020745,0.10103,0.052785,0.067233,0.17874,-0.066249,-0.63591,-0.049195
0.0125,0.032332,-0.014254,0.079924,0.047491,0.07963,-0.018551,0.097003,-0.031527,0.43791,0.97467,-0.094025,-0.39496,-0.033252,0.23537,-0.7984,0.020233,0.1519,0.047572,0.073413,0.1559,-0.076612,-0.49882,-0.073575
0.011773,0.033275,-0.011343,0.072028,0.04572,0.081496,-0.011989,0.097436,-0.0058121,0.58193,0.88858,-0.077997,-0.42934,-0.084419,0.2137,-0.82272,0.022859,0.19718,0.03748,0.08126,0.1223,-0.083895,-0.37304,-0.097328
0.013233,0.032731,-0.0062485,0.065941,0.038453,0.079828,-0.006029,0.0989,0.013501,0.6154,0.79422,-0.063635,-0.45096,-0.13005,0.18734,-0.82658,0.026444,0.23351,0.025332,0.088798,0.087291,-0.087486,-0.27784,-0.11254
0.014414,0.030028,-0.00052813,0.062305,0.029071,0.072442,-0.0028086,0.10058,0.01869,0.5695,0.72016,-0.053513,-0.45756,-0.16299,0.17184,-0.81893,0.027696,0.26078,0.015357,0.092912,0.057383,-0.08971,-0.20484,-0.11341
0.013244,0.025428,0.0034454,0.059162,0.021557,0.06046,-0.0033918,0.10046,0.0070393,0.49869,0.67906,-0.04854,-0.45193,-0.18562,0.16743,-0.81317,0.025084,0.28027,0.0092269,0.091587,0.03597,-0.093678,-0.12814,-0.09676
0.0096233,0.019757,0.0041429,0.053942,0.01769,0.047875,-0.0071405,0.096776,-0.017188,0.44359,0.64611,-0.048089,-0.44295,-0.20659,0.15959,-0.81604,0.020178,0.29097,0.0040207,0.085399,0.025102,-0.10006,-0.027337,-0.061372
0.0053958,0.01417,0.0018649,0.04589,0.016367,0.038505,-0.011979,0.089583,-0.044983,0.40965,0.55938,-0.049962,-0.44119,-0.23247,0.13228,-0.81881,0.016296,0.28845,-0.0059826,0.077103,0.027632,-0.1056,0.094267,-0.0067784
0.002825,0.0098583,-0.0016292,0.036694,0.015357,0.033025,-0.015428,0.080824,-0.067509,0.37585,0.35178,-0.050974,-0.45169,-0.26139,0.082621,-0.79958,0.015687,0.26903,-0.024856,0.069737,0.047524,-0.10491,0.21047,0.066969
0.0029221,0.0075646,-0.0044346,0.028807,0.01364,0.028832,-0.015942,0.072694,-0.080169,0.32337,-0.0019484,-0.048636,-0.47002,-0.28382,0.024725,-0.73693,0.017677,0.23571,-0.051418,0.06483,0.087646,-0.094513,0.29042,0.15764
0.0049196,0.0071138,-0.0056658,0.023168,0.012134,0.022851,-0.013829,0.065852,-0.083217,0.2582,-0.45922,-0.043121,-0.48551,-0.28956,-0.020366,-0.62405,0.019324,0.19976,-0.079419,0.062068,0.14661,-0.075724,0.31893,0.25817
0.0070617,0.0073961,-0.0056438,0.018499,0.01233,0.014637,-0.011151,0.059219,-0.079333,0.20876,-0.9306,-0.037941,-0.48914,-0.27477,-0.039951,-0.47157,0.017904,0.17495,-0.10149,0.060467,0.21751,-0.054157,0.30325,0.35593
0.0078162,0.006883,-0.0051622,0.012781,0.014331,0.0068335,-0.010549,0.051611,-0.070913,0.20129,-1.3368,-0.038531,-0.47966,-0.24349,-0.037989,-0.29649,0.012987,0.16826,-0.11381,0.059699,0.29046,-0.036162,0.26367,0.43657
0.0065465,0.0043399,-0.0046155,0.0053212,0.016344,0.0025809,-0.013691,0.043531,-0.059532,0.23476,-1.6563,-0.049575,-0.4624,-0.2032,-0.030819,-0.10777,0.0063751,0.17454,-0.11802,0.060219,0.35778,-0.025098,0.21946,0.49256
0.0034444,-0.00065955,-0.0037373,-0.0026433,0.016122,0.0023526,-0.020351,0.03715,-0.047403,0.27599,-1.9215,-0.072657,-0.44223,-0.1597,-0.035058,0.097648,0.00013869,0.17978,-0.11909,0.062101,0.41845,-0.020005,0.18349,0.53166
-0.00081161,-0.0075265,-0.0020382,-0.0093726,0.01299,0.0032255,-0.028693,0.034245,-0.038528,0.27855,-2.1617,-0.10518,-0.41706,-0.11611,-0.057552,0.32417,-0.0052965,0.17022,-0.1213,0.063974,0.47796,-0.017103,0.16783,0.57808
-0.0052659,-0.014715,0.00059742,-0.014545,0.008456,0.0012785,-0.036452,0.033996,-0.03758,0.21054,-2.3436,-0.14062,-0.37826,-0.076458,-0.093713,0.5623,-0.011217,0.14034,-0.12555,0.063564,0.54302,-0.012579,0.19006,0.66189
-0.0088369,-0.02014,0.003729,-0.019635,0.004748,-0.005064,-0.042067,0.032887,-0.047039,0.072329,-2.3677,-0.16996,-0.31843,-0.048921,-0.13306,0.78432,-0.018842,0.094295,-0.13026,0.059722,0.61432,-0.0048082,0.26881,0.8001
-0.010686,-0.022121,0.0066642,-0.026271,0.0025235,-0.0137,-0.044999,0.027135,-0.065066,-0.10443,-2.1365,-0.18459,-0.23993,-0.044021,-0.16618,0.95701,-0.027454,0.041198,-0.13457,0.05405,0.68245,0.0047495,0.40874,0.98086
-0.010732,-0.020554,0.0088636,-0.034183,-0.00018527,-0.020577,-0.045241,0.015602,-0.08606,-0.27099,-1.6458,-0.18013,-0.15676,-0.067925,-0.18845,1.0622,-0.034264,-0.010922,-0.14102,0.050144,0.73043,0.011983,0.588,1.163
-0.009846,-0.017463,0.010093,-0.04089,-0.0067063,-0.022854,-0.042691,0.00060765,-0.1034,-0.37849,-1.0216,-0.15925,-0.087,-0.11599,-0.20014,1.1086,-0.03623,-0.058359,-0.15516,0.050605,0.74174,0.01174,0.76214,1.294
-0.009347,-0.016082,0.010369,-0.043728,-0.019,-0.020885,-0.037083,-0.014113,-0.11202,-0.39166,-0.46289,-0.13049,-0.040892,-0.17218,-0.20475,1.1241,-0.032266,-0.10155,-0.1824,0.054384,0.70897,0.00043746,0.88553,1.3359
-0.010079,-0.018752,0.0099605,-0.042517,-0.035598,-0.017773,-0.028578,-0.026392,-0.10909,-0.2996,-0.12607,-0.10257,-0.013461,-0.21546,-0.20697,1.1365,-0.024004,-0.14351,-0.2246,0.05718,0.63783,-0.021321,0.93559,1.2818
-0.011805,-0.025099,0.0095337,-0.040395,-0.051899,-0.017436,-0.018447,-0.036815,-0.09324,-0.12355,-0.037116,-0.07771,0.012734,-0.22895,-0.21032,1.1567,-0.014599,-0.18846,-0.27888,0.055054,0.54433,-0.047938,0.92169,1.1518
-0.013485,-0.032122,0.01012,-0.041737,-0.062743,-0.022994,-0.0091285,-0.047123,-0.064229,0.08364,-0.096596,-0.049631,0.056593,-0.2064,-0.21475,1.1765,-0.006706,-0.23994,-0.33896,0.048186,0.44763,-0.07118,0.87207,0.97397
-0.014203,-0.036308,0.012629,-0.048667,-0.065425,-0.036275,-0.0033169,-0.057525,-0.023802,0.25334,-0.16678,-0.0091443,0.12711,-0.15307,-0.21584,1.1805,-0.001215,-0.29754,-0.39695,0.041244,0.3629,-0.084839,0.81001,0.76674
-0.013923,-0.036157,0.017067,-0.059031,-0.061006,-0.057534,-0.0024745,-0.065695,0.023376,0.33131,-0.16419,0.046602,0.21937,-0.08192,-0.20723,1.159,0.0025701,-0.35342,-0.44398,0.039683,0.29773,-0.088517,0.73867,0.53764
-0.013388,-0.033027,0.022117,-0.06772,-0.053119,-0.084243,-0.0056588,-0.0686,0.070618,0.30748,-0.083771,0.10918,0.31967,-0.0078022,-0.18522,1.1138,0.005833,-0.3919,-0.46981,0.045105,0.2525,-0.087407,0.64597,0.2961
-0.013275,-0.029701,0.025651,-0.070505,-0.045356,-0.1094,-0.0095549,-0.065529,0.11209,0.22472,0.051617,0.16348,0.4152,0.057971,-0.15224,1.0528,0.0092012,-0.39487,-0.46407,0.053891,0.22269,-0.087768,0.52363,0.065533
-0.01347,-0.028032,0.026017,-0.067344,-0.039247,-0.12168,-0.0099752,-0.059451,0.14554,0.15557,0.25332,0.19874,0.5014,0.11118,-0.1159,0.98234,0.012319,-0.35182,-0.4205,0.060368,0.20149,-0.091369,0.38252,-0.11982
-0.013222,-0.027756,0.023247,-0.062419,-0.034135,-0.10962,-0.0041446,-0.055264,0.17235,0.1586,0.57058,0.21673,0.58312,0.15481,-0.084329,0.90244,0.014063,-0.26871,-0.34261,0.061589,0.18202,-0.09318,0.25026,-0.23301
-0.012068,-0.027333,0.019217,-0.060789,-0.028644,-0.06887,0.007589,-0.056353,0.19462,0.24228,1.0277,0.22967,0.67084,0.19488,-0.061771,0.80797,0.013246,-0.16909,-0.24646,0.059287,0.15964,-0.084114,0.15283,-0.27137
-0.010603,-0.025797,0.01652,-0.064434,-0.02232,-0.0079306,0.021828,-0.062384,0.21206,0.36142,1.5572,0.24927,0.7754,0.234,-0.047982,0.69281,0.0096359,-0.085113,-0.15654,0.057298,0.13408,-0.056685,0.095999,-0.25657
-0.010198,-0.023796,0.016782,-0.070991,-0.016206,0.052899,0.034126,-0.07011,0.2214,0.44784,2.0032,0.27645,0.90398,0.26677,-0.041096,0.55385,0.0048157,-0.042355,-0.095548,0.057176,0.10995,-0.0094485,0.062199,-0.21681
-0.011739,-0.022931,0.019657,-0.076158,-0.012138,0.090882,0.041734,-0.07625,0.2191,0.45209,2.2073,0.30056,1.0576,0.28198,-0.040061,0.39416,0.0020577,-0.047202,-0.073463,0.056503,0.094181,0.052468,0.024832,-0.16729
-0.014527,-0.024153,0.023202,-0.077541,-0.011508,0.093538,0.045256,-0.079767,0.20476,0.36681,2.1137,0.30865,1.229,0.27124,-0.043612,0.22553,0.0047366,-0.084409,-0.082419,0.051748,0.091272,0.12018,-0.032779,-0.10626
-0.016532,-0.026765,0.025354,-0.076517,-0.014337,0.066131,0.048077,-0.08171,0.1821,0.21929,1.8064,0.29632,1.402,0.23857,-0.04706,0.069039,0.013975,-0.12636,-0.10095,0.042941,0.099367,0.18448,-0.10904,-0.028576
-0.016018,-0.028925,0.025346,-0.076615,-0.019104,0.028183,0.053946,-0.08316,0.15677,0.045974,1.448,0.27093,1.5523,0.2029,-0.04146,-0.049477,0.027326,-0.14826,-0.10525,0.035358,0.11083,0.23783,-0.19061,0.058329
-0.013188,-0.029139,0.024037,-0.080094,-0.023281,0.00098119,0.064427,-0.083526,0.13317,-0.12676,1.1695,0.24512,1.6544,0.18972,-0.018,-0.10951,0.039945,-0.14005,-0.081021,0.036057,0.11773,0.27477,-0.26489,0.13358
-0.010256,-0.02741,0.023005,-0.085894,-0.024297,-0.0051715,0.077988,-0.080903,0.1129,-0.28276,0.99894,0.2271,1.69,0.21632,0.024863,-0.10719,0.04777,-0.10846,-0.029707,0.047965,0.1185,0.29203,-0.32652,0.17839
-0.009619,-0.025123,0.023257,-0.090667,-0.020556,0.004924,0.091229,-0.074044,0.095814,-0.40491,0.87593,0.21636,1.6561,0.28012,0.077699,-0.060018,0.050288,-0.069542,0.033854,0.066789,0.11987,0.28918,-0.37451,0.19213
-0.011605,-0.023868,0.024622,-0.091677,-0.012073,0.017943,0.10121,-0.063954,0.082066,-0.47107,0.7283,0.20726,1.5666,0.35811,0.12402,-0.00017491,0.050538,-0.037843,0.09034,0.083712,0.13145,0.26895,-0.40643,0.19162
-0.01391,-0.024255,0.026194,-0.088883,-0.00039329,0.023237,0.10708,-0.053522,0.072974,-0.46553,0.53907,0.1962,1.4448,0.41822,0.14975,0.040588,0.052296,-0.019237,0.12633,0.091828,0.15595,0.23628,-0.41719,0.19295
-0.013489,-0.025657,0.027272,-0.084619,0.012166,0.019726,0.10994,-0.045523,0.070173,-0.39627,0.35246,0.1852,1.3117,0.43541,0.15126,0.045106,0.056906,-0.010757,0.14066,0.091044,0.18304,0.19603,-0.40217,0.19344
-0.0094781,-0.026956,0.027867,-0.08163,0.023491,0.014078,0.11123,-0.040804,0.074208,-0.29948,0.22545,0.17941,1.1774,0.40293,0.13613,0.014988,0.062519,-0.0052545,0.14375,0.087556,0.19277,0.15096,-0.35834,0.17164
-0.0045088,-0.027543,0.028419,-0.081388,0.032272,0.013239,0.11114,-0.038128,0.083957,-0.22289,0.17523,0.18161,1.0406,0.33279,0.11669,-0.036583,0.066209,0.0036333,0.15074,0.088585,0.16774,0.10173,-0.27947,0.10589
-0.0029657,-0.027699,0.029152,-0.083811,0.038053,0.018414,0.10836,-0.035477,0.097106,-0.19847,0.16711,0.18919,0.8975,0.24666,0.10206,-0.096557,0.066725,0.019216,0.17274,0.096757,0.10563,0.049137,-0.15044,-0.0061987
-0.0073494,-0.028096,0.029796,-0.087888,0.041025,0.025158,0.10131,-0.031372,0.11089,-0.22482,0.14584,0.19555,0.75163,0.16392,0.094789,-0.15909,0.065216,0.041968,0.21147,0.10832,0.02252,-0.0035882,0.050414,-0.14553
-0.015776,-0.028956,0.029915,-0.092185,0.041947,0.028265,0.090067,-0.025108,0.12246,-0.27156,0.077091,0.19385,0.61707,0.094255,0.093211,-0.22401,0.063377,0.070324,0.26004,0.11604,-0.055918,-0.05036,0.33751,-0.28691
-0.022942,-0.029745,0.029418,-0.094965,0.042162,0.026259,0.077137,-0.016262,0.12908,-0.30108,-0.035579,0.17951,0.51112,0.03795,0.095804,-0.2905,0.061103,0.10102,0.30853,0.11416,-0.1092,-0.084517,0.70076,-0.41547
-0.024044,-0.029722,0.028649,-0.094579,0.043293,0.021557,0.066399,-0.0046231,0.12857,-0.29083,-0.16519,0.15018,0.44292,-0.0083491,0.10272,-0.3531,0.056153,0.12972,0.35018,0.10175,-0.13217,-0.10205,1.0979,-0.52778
-0.018532,-0.028867,0.027978,-0.090502,0.046394,0.016988,0.060591,0.0090119,0.11999,-0.24258,-0.28738,0.10516,0.407,-0.045732,0.11347,-0.40384,0.046296,0.15267,0.3838,0.082681,-0.13401,-0.10337,1.4636,-0.61886
-0.010578,-0.028193,0.027353,-0.084316,0.05099,0.012626,0.059184,0.022082,0.10384,-0.17651,-0.39488,0.046107,0.3874,-0.071348,0.12408,-0.43795,0.031963,0.16878,0.41119,0.062835,-0.12867,-0.092484,1.7307,-0.67124
-0.0058331,-0.028951,0.026341,-0.079342,0.054915,0.0060565,0.058388,0.03085,0.081596,-0.11799,-0.49408,-0.020974,0.36837,-0.08144,0.12755,-0.45721,0.016899,0.1801,0.4321,0.046643,-0.12491,-0.074401,1.8519,-0.66028
-0.0071575,-0.031311,0.024613,-0.078523,0.055383,-0.0045515,0.053571,0.032421,0.055092,-0.085665,-0.59445,-0.085437,0.34269,-0.076166,0.11821,-0.46799,0.0060678,0.18987,0.44088,0.03496,-0.12305,-0.052824,1.8119,-0.57287
-0.012823,-0.033744,0.022344,-0.081909,0.050732,-0.017923,0.042346,0.026669,0.026636,-0.08468,-0.70216,-0.13523,0.31122,-0.062529,0.096329,-0.47605,0.0023546,0.20004,0.42754,0.025069,-0.11858,-0.029454,1.6268,-0.4222
-0.018476,-0.033926,0.020084,-0.08588,0.041571,-0.030331,0.025824,0.016347,-0.00025782,-0.10481,-0.81909,-0.1625,0.27604,-0.053383,0.068826,-0.48334,0.0044884,0.21089,0.38306,0.01258,-0.10786,-0.004865,1.3364,-0.24444
-0.020919,-0.030583,0.018221,-0.085242,0.030432,-0.038792,0.0069956,0.0051518,-0.020735,-0.12308,-0.94048,-0.16761,0.23538,-0.062791,0.045295,-0.4891,0.0075511,0.22353,0.30574,-0.0058276,-0.090851,0.020078,0.99199,-0.07994
-0.020356,-0.024734,0.016643,-0.076975,0.020184,-0.0437,-0.01212,-0.0045628,-0.030137,-0.11175,-1.0493,-0.15799,0.18611,-0.099311,0.032383,-0.49337,0.0056234,0.24216,0.20465,-0.030255,-0.070265,0.043325,0.64309,0.045233
-0.01936,-0.019114,0.015022,-0.062817,0.01244,-0.04835,-0.031532,-0.012475,-0.026683,-0.050774,-1.1149,-0.14221,0.13109,-0.15945,0.030867,-0.4981,-0.0050929,0.2724,0.097766,-0.057276,-0.049659,0.061751,0.32582,0.12362
-0.019838,-0.016108,0.013467,-0.048422,0.0070824,-0.055762,-0.05113,-0.019044,-0.013251,0.06005,-1.1043,-0.12353,0.083081,-0.22417,0.037015,-0.5044,-0.024357,0.3152,0.0052533,-0.081761,-0.032701,0.072167,0.05654,0.15747
-0.020978,-0.015923,0.012751,-0.039428,0.0030482,-0.065628,-0.067327,-0.023913,0.0035875,0.19704,-1.0038,-0.097911,0.059031,-0.26181,0.046264,-0.50854,-0.048026,0.36161,-0.058666,-0.099705,-0.02316,0.072803,-0.16551,0.14889
-0.020064,-0.016557,0.013647,-0.03734,-0.00046403,-0.074024,-0.072477,-0.025831,0.017002,0.32148,-0.83596,-0.058342,0.067951,-0.239,0.055878,-0.5017,-0.070021,0.39435,-0.09075,-0.11006,-0.023843,0.064513,-0.34772,0.098993
-0.015296,-0.015598,0.015814,-0.038504,-0.0033692,-0.076047,-0.059026,-0.02425,0.023423,0.39779,-0.65498,-0.0022487,0.10208,-0.137,0.064876,-0.47501,-0.08499,0.39793,-0.097861,-0.11414,-0.034286,0.050878,-0.49275,0.014492
-0.0079129,-0.012274,0.017401,-0.037103,-0.0049894,-0.069172,-0.025898,-0.02075,0.023521,0.41016,-0.52003,0.063555,0.13942,0.034276,0.07211,-0.42665,-0.090238,0.37068,-0.090915,-0.11321,-0.049321,0.036765,-0.59504,-0.088303
-0.0015886,-0.0080439,0.016102,-0.029801,-0.0047969,-0.054814,0.018355,-0.01838,0.019967,0.36658,-0.46474,0.12434,0.15632,0.23373,0.074664,-0.36505,-0.085974,0.32925,-0.077768,-0.1065,-0.060798,0.025921,-0.64759,-0.1884
0.00042085,-0.0053222,0.01111,-0.018268,-0.0028824,-0.037311,0.059208,-0.019022,0.013819,0.28795,-0.4845,0.1646,0.1406,0.40218,0.068045,-0.30486,-0.074057,0.30037,-0.059844,-0.091741,-0.062036,0.019127,-0.65252,-0.27011
-0.0020754,-0.0055607,0.0043142,-0.0075557,0.00018646,-0.021451,0.084673,-0.02111,0.0024353,0.19139,-0.54922,0.17606,0.095424,0.48641,0.048226,-0.25837,-0.056495,0.30494,-0.034477,-0.068211,-0.051772,0.01429,-0.62464,-0.32835
-0.0060268,-0.0082413,-0.00060617,-0.0018309,0.0038741,-0.010365,0.092339,-0.020137,-0.019289,0.08165,-0.62829,0.16122,0.032292,0.46196,0.014544,-0.2285,-0.034965,0.3454,-0.00056458,-0.039452,-0.034443,0.0085014,-0.58338,-0.36476
-0.0075471,-0.011391,-0.00080139,-0.0011311,0.0080469,-0.0047814,0.089459,-0.011996,-0.05494,-0.042721,-0.7059,0.13062,-0.03951,0.34293,-0.027965,-0.20835,-0.011545,0.40531,0.037411,-0.012922,-0.016752,0.00040936,-0.53965,-0.3801
-0.0048783,-0.012939,0.0034435,-0.0017794,0.012878,-0.0035322,0.086181,0.0034587,-0.10246,-0.17466,-0.77624,0.096106,-0.11782,0.17419,-0.068342,-0.18715,0.010463,0.46055,0.070404,0.0039048,-0.0036305,-0.0090792,-0.48995,-0.37244
0.00045615,-0.011794,0.0087815,0.00018775,0.018365,-0.0046903,0.087561,0.021694,-0.15275,-0.28973,-0.82791,0.064914,-0.20369,0.011172,-0.092678,-0.15761,0.026899,0.49284,0.089794,0.0080346,0.0030471,-0.01824,-0.42414,-0.34403
0.0050762,-0.0080759,0.011384,0.0057413,0.023844,-0.0067565,0.090683,0.03627,-0.19252,-0.35301,-0.83667,0.037957,-0.29397,-0.10221,-0.089835,-0.11951,0.034437,0.49608,0.091822,0.0021336,0.0025349,-0.026495,-0.34014,-0.30903
0.0064367,-0.0027149,0.0098962,0.012485,0.027917,-0.0094796,0.088711,0.042787,-0.21001,-0.33786,-0.77663,0.012602,-0.37831,-0.14788,-0.05724,-0.077647,0.032244,0.47266,0.077694,-0.0089878,-0.0073684,-0.034627,-0.25149,-0.29107
0.0046247,0.003097,0.0061717,0.017176,0.028997,-0.013925,0.077872,0.04084,-0.20054,-0.24271,-0.64096,-0.01271,-0.44395,-0.13593,-0.0031083,-0.037213,0.022051,0.42625,0.04994,-0.023929,-0.030643,-0.042729,-0.17948,-0.30853
0.0020045,0.0083344,0.0031364,0.018649,0.026213,-0.021658,0.061312,0.03287,-0.16836,-0.093434,-0.45359,-0.0354,-0.48398,-0.095832,0.056934,-0.00073481,0.0064978,0.35895,0.00935,-0.047646,-0.070705,-0.047959,-0.13676,-0.35828
0.001212,0.012443,0.0018465,0.018604,0.020109,-0.033531,0.046794,0.021618,-0.12359,0.06872,-0.26071,-0.049257,-0.50172,-0.061431,0.10719,0.031319,-0.012638,0.27546,-0.043852,-0.089084,-0.12767,-0.045049,-0.1179,-0.41331
0.0031738,0.015481,0.00062368,0.019881,0.012487,-0.04903,0.040538,0.0088668,-0.076393,0.20349,-0.10863,-0.048189,-0.50727,-0.055877,0.13871,0.057861,-0.034529,0.1885,-0.10566,-0.15502,-0.19779,-0.030249,-0.1069,-0.43916
0.0066205,0.017952,-0.0028424,0.024042,0.0053081,-0.066692,0.042412,-0.0036202,-0.032309,0.28197,-0.025055,-0.030882,-0.50953,-0.082739,0.15148,0.075741,-0.057627,0.11741,-0.16574,-0.24449,-0.27529,-0.0058369,-0.095281,-0.41829
0.0093034,0.020339,-0.0085283,0.030424,-0.00063185,-0.084887,0.046237,-0.012621,0.0081677,0.28945,-0.01436,-0.0032854,-0.51026,-0.12717,0.15144,0.081308,-0.078184,0.077556,-0.21077,-0.34739,-0.35486,0.019142,-0.094332,-0.36296
0.0098354,0.022693,-0.013364,0.037179,-0.0061043,-0.10156,0.044541,-0.013796,0.046263,0.22576,-0.063777,0.023181,-0.50444,-0.16618,0.14536,0.0737,-0.091091,0.068056,-0.23192,-0.44768,-0.43239,0.033614,-0.12949,-0.30598
0.0086966,0.024682,-0.01376,0.042996,-0.012354,-0.11251,0.033668,-0.0042694,0.081256,0.10684,-0.14963,0.03729,-0.48565,-0.18198,0.13741,0.056935,-0.093065,0.068846,-0.23035,-0.52884,-0.50412,0.031694,-0.22093,-0.27654
0.0076713,0.026164,-0.0090973,0.047791,-0.019263,-0.11006,0.015227,0.014695,0.10985,-0.03582,-0.23887,0.034492,-0.45131,-0.17001,0.12925,0.038903,-0.08562,0.052282,-0.21548,-0.57894,-0.56565,0.016703,-0.3661,-0.28061
0.0082431,0.027721,-0.0027654,0.05192,-0.024501,-0.084972,-0.0068089,0.03764,0.12891,-0.1634,-0.2916,0.020195,-0.40421,-0.13734,0.12218,0.027984,-0.074957,0.0021149,-0.19704,-0.59385,-0.61226,-0.001425,-0.53753,-0.30117
0.010294,0.030533,0.00045995,0.055061,-0.024846,-0.032528,-0.030478,0.057957,0.13872,-0.24478,-0.27219,0.0076586,-0.3503,-0.093936,0.1188,0.029695,-0.068274,-0.074655,-0.17782,-0.57826,-0.64063,-0.013415,-0.69552,-0.31615
0.012193,0.035476,-0.0015792,0.056201,-0.018984,0.040793,-0.057699,0.071648,0.14331,-0.26919,-0.16666,0.011809,-0.29565,-0.044942,0.12239,0.045192,-0.069168,-0.15291,-0.15339,-0.5437,-0.65022,-0.016805,-0.80412,-0.31714
0.012204,0.04212,-0.0066405,0.054931,-0.0094084,0.11609,-0.091939,0.078737,0.14736,-0.24687,0.0064537,0.042638,-0.2448,0.0094607,0.13454,0.071662,-0.075725,-0.20766,-0.1185,-0.5037,-0.64364,-0.016333,-0.83923,-0.31207
0.01001,0.048541,-0.010066,0.052697,-0.0014163,0.16975,-0.13359,0.081487,0.15233,-0.19785,0.20289,0.10122,-0.20072,0.067264,0.153,0.10358,-0.082645,-0.23025,-0.073892,-0.46736,-0.62606,-0.018949,-0.7873,-0.31033
0.007049,0.052293,-0.0086386,0.05241,0.00042428,0.18657,-0.17698,0.081488,0.15504,-0.14003,0.37435,0.17874,-0.16535,0.11851,0.17167,0.13431,-0.085403,-0.22953,-0.026684,-0.43508,-0.60444,-0.028076,-0.64216,-0.30504
0.0053571,0.051949,-0.0028807,0.056244,-0.004451,0.16919,-0.2118,0.078482,0.14987,-0.08773,0.48883,0.25733,-0.13969,0.14733,0.18338,0.1582,-0.082984,-0.21829,0.015895,-0.39942,-0.5861,-0.041642,-0.40733,-0.27008
0.0059308,0.048115,0.0039506,0.063359,-0.012438,0.13602,-0.22824,0.071703,0.13261,-0.059829,0.53506,0.31262,-0.1238,0.14202,0.18384,0.17304,-0.077336,-0.19884,0.053255,-0.35079,-0.57611,-0.054444,-0.10374,-0.17665
0.0080219,0.043165,0.0088603,0.069806,-0.018952,0.10838,-0.22234,0.061861,0.103,-0.08445,0.51144,0.31977,-0.11697,0.10507,0.17433,0.1812,-0.070694,-0.16193,0.092018,-0.28407,-0.57355,-0.061772,0.22408,-0.016209
0.0099508,0.039863,0.01124,0.071158,-0.022213,0.096422,-0.198,0.051329,0.064719,-0.18812,0.41489,0.26395,-0.11778,0.053616,0.16067,0.18769,-0.063467,-0.099746,0.13966,-0.2012,-0.56947,-0.06112,0.51128,0.18969
0.010669,0.039819,0.012499,0.06598,-0.024309,0.09472,-0.16478,0.042194,0.023651,-0.37287,0.24417,0.15132,-0.1237,0.0087934,0.1489,0.19569,-0.054372,-0.019952,0.19701,-0.1084,-0.54976,-0.05172,0.68803,0.4015
0.01066,0.042725,0.014068,0.057158,-0.028706,0.09046,-0.13351,0.034232,-0.013823,-0.60042,0.016998,0.012755,-0.13052,-0.017984,0.14026,0.20269,-0.042215,0.054407,0.25625,-0.011265,-0.50354,-0.034019,0.70292,0.58571
0.011376,0.046703,0.015968,0.049759,-0.036631,0.076611,-0.11292,0.025093,-0.041651,-0.80214,-0.21647,-0.10624,-0.13307,-0.030772,0.12973,0.20101,-0.027419,0.10053,0.30567,0.087826,-0.43234,-0.010512,0.54506,0.73075
0.013743,0.049373,0.017131,0.047056,-0.045639,0.058469,-0.10853,0.012732,-0.05467,-0.91424,-0.3821,-0.16704,-0.1278,-0.042582,0.1096,0.18315,-0.012088,0.11348,0.33636,0.18823,-0.35314,0.013363,0.25443,0.84243
0.017045,0.048964,0.016787,0.048077,-0.051522,0.048337,-0.12341,-0.0022285,-0.049782,-0.91583,-0.41482,-0.15856,-0.11578,-0.062769,0.075995,0.14791,0.0011185,0.10956,0.34489,0.28791,-0.29109,0.030738,-0.087581,0.92555
0.019195,0.044955,0.015277,0.04879,-0.051612,0.053859,-0.15885,-0.016626,-0.027755,-0.84215,-0.29806,-0.10244,-0.10319,-0.089416,0.033209,0.102,0.01017,0.11214,0.331,0.38215,-0.26536,0.037541,-0.38772,0.97107
0.018186,0.03813,0.013576,0.045838,-0.046475,0.070887,-0.21417,-0.027415,0.0054224,-0.76235,-0.082909,-0.037566,-0.097688,-0.11293,-0.0079352,0.055515,0.014218,0.13263,0.29428,0.46529,-0.27741,0.036248,-0.57968,0.96262
0.013596,0.030198,0.012258,0.039489,-0.038842,0.087065,-0.28618,-0.034519,0.039047,-0.73766,0.129,0.0064474,-0.10255,-0.12692,-0.037132,0.015075,0.013592,0.1634,0.2345,0.53308,-0.3098,0.035084,-0.65243,0.89731
0.0070282,0.023171,0.011117,0.033258,-0.03128,0.092286,-0.36957,-0.041245,0.060688,-0.78861,0.23246,0.027787,-0.1134,-0.13596,-0.051784,-0.019433,0.0096473,0.1874,0.15556,0.58339,-0.33669,0.042018,-0.65006,0.80036
0.0012071,0.018713,0.0097827,0.030639,-0.024949,0.08626,-0.45852,-0.051785,0.060884,-0.89114,0.17031,0.049334,-0.12078,-0.15266,-0.058568,-0.05184,0.0045124,0.19407,0.068168,0.61526,-0.33859,0.057847,-0.64015,0.71654
-0.0015508,0.0176,0.0085009,0.032,-0.020234,0.076838,-0.54808,-0.067813,0.037615,-0.9985,-0.038931,0.09691,-0.11716,-0.18595,-0.067715,-0.083657,0.0005889,0.18629,-0.012981,0.62877,-0.31143,0.074289,-0.66907,0.68181
-0.00051302,0.019489,0.008135,0.03435,-0.017873,0.071656,-0.63352,-0.086901,-0.0018213,-1.0687,-0.31189,0.17674,-0.10245,-0.23049,-0.084109,-0.11106,-0.00014006,0.17366,-0.076742,0.62681,-0.26531,0.079277,-0.73393,0.6972
0.003269,0.023045,0.0093528,0.034016,-0.018862,0.071428,-0.7072,-0.10391,-0.042965,-1.0783,-0.54271,0.27033,-0.083236,-0.2667,-0.102,-0.12801,0.0033971,0.16107,-0.12162,0.61678,-0.21553,0.065588,-0.79115,0.72786
0.0076607,0.026445,0.011861,0.029684,-0.023095,0.070774,-0.7557,-0.1142,-0.069974,-1.0201,-0.65298,0.34977,-0.066425,-0.27298,-0.10769,-0.13261,0.011378,0.14512,-0.15491,0.60876,-0.17354,0.035965,-0.79484,0.72965
0.010513,0.028063,0.01448,0.023151,-0.028427,0.06476,-0.76122,-0.11625,-0.072492,-0.89421,-0.62303,0.39898,-0.053331,-0.24163,-0.088639,-0.13088,0.023432,0.12146,-0.18527,0.60963,-0.14332,0.00082052,-0.73489,0.68284
0.010525,0.027116,0.015979,0.017431,-0.031684,0.054154,-0.70904,-0.11219,-0.050082,-0.707,-0.49052,0.42154,-0.039937,-0.18678,-0.042902,-0.13403,0.038793,0.093817,-0.21533,0.617,-0.12315,-0.02921,-0.64333,0.60584
0.0075849,0.023958,0.015882,0.014192,-0.031096,0.044433,-0.59807,-0.10614,-0.011734,-0.47724,-0.32152,0.42925,-0.022953,-0.13767,0.017394,-0.15171,0.056045,0.073522,-0.24108,0.61882,-0.10884,-0.049604,-0.56218,0.53811
0.0026408,0.019878,0.014588,0.012831,-0.027872,0.040117,-0.44671,-0.10192,0.029284,-0.24085,-0.17381,0.42388,-0.0053962,-0.12093,0.070877,-0.18659,0.072802,0.068616,-0.2589,0.60037,-0.094796,-0.06255,-0.49741,0.50625
-0.0026871,0.016417,0.012893,0.011683,-0.025175,0.040471,-0.28783,-0.1013,0.062135,-0.042871,-0.073862,0.39136,0.0043137,-0.14327,0.097124,-0.23416,0.085982,0.073064,-0.27351,0.55429,-0.073355,-0.072548,-0.39651,0.50078
-0.0065763,0.014511,0.011456,0.0098827,-0.025242,0.040685,-0.15358,-0.10361,0.082664,0.082494,-0.017734,0.31564,-0.00057011,-0.18611,0.086526,-0.28633,0.092844,0.067707,-0.29868,0.48643,-0.035573,-0.081804,-0.17147,0.48153
-0.0075468,0.013949,0.010628,0.0080615,-0.027333,0.0369,-0.059396,-0.10623,0.092932,0.13069,0.010734,0.20002,-0.018478,-0.21576,0.044772,-0.33478,0.09223,0.033672,-0.34862,0.41285,0.024393,-0.08944,0.24428,0.40731
-0.0051003,0.013524,0.010558,0.0074527,-0.028604,0.02974,0.0014544,-0.10577,0.097112,0.12938,0.021252,0.075406,-0.039921,-0.20314,-0.010067,-0.37173,0.08517,-0.032902,-0.42632,0.35035,0.10304,-0.094231,0.8417,0.26716
-0.00023275,0.011851,0.011247,0.0084746,-0.027203,0.022877,0.048099,-0.099617,0.097244,0.12077,0.012759,-0.014241,-0.055112,-0.14097,-0.056318,-0.38953,0.074407,-0.11741,-0.51838,0.3073,0.18448,-0.09716,1.5215,0.091003
0.0046507,0.0083938,0.012423,0.010166,-0.024609,0.018338,0.094214,-0.087517,0.092013,0.13484,-0.014761,-0.038808,-0.06234,-0.04795,-0.079146,-0.38262,0.063175,-0.19698,-0.60119,0.28066,0.2448,-0.10071,2.1304,-0.066616
0.0067447,0.0039784,0.013429,0.010872,-0.024773,0.013452,0.13571,-0.072448,0.079039,0.17238,-0.044165,0.00025166,-0.069862,0.041994,-0.077481,-0.35184,0.053985,-0.255,-0.65351,0.26033,0.26335,-0.10562,2.529,-0.15784
0.0044391,0.00038156,0.013375,0.0094918,-0.030633,0.0024821,0.15343,-0.059932,0.05828,0.20969,-0.036782,0.074791,-0.089808,0.098397,-0.063587,-0.30746,0.04799,-0.2881,-0.66569,0.23693,0.23475,-0.10865,2.6508,-0.1678
-0.0015145,-0.00078729,0.011601,0.0062881,-0.041144,-0.018619,0.12839,-0.05571,0.033502,0.22069,0.052654,0.15184,-0.12933,0.10896,-0.055216,-0.26626,0.045002,-0.30224,-0.63902,0.20764,0.17379,-0.10419,2.5226,-0.12148
-0.0082543,0.00084394,0.0082083,0.0027704,-0.051675,-0.048743,0.057428,-0.06285,0.010632,0.19968,0.24899,0.21375,-0.18604,0.081658,-0.064953,-0.24271,0.043914,-0.30428,-0.57802,0.177,0.10926,-0.088495,2.2369,-0.069434
-0.012523,0.0041564,0.0043012,0.00081909,-0.057602,-0.082234,-0.042369,-0.080032,-0.0055339,0.16695,0.53498,0.26151,-0.25059,0.034484,-0.093564,-0.24013,0.043209,-0.29838,-0.48445,0.15293,0.069993,-0.062726,1.8991,-0.062227
-0.012715,0.0073041,0.0016626,0.0015841,-0.05795,-0.11236,-0.14257,-0.10213,-0.013698,0.15274,0.85025,0.30122,-0.3132,-0.018245,-0.13152,-0.24892,0.041433,-0.28942,-0.35952,0.14093,0.071927,-0.031691,1.5824,-0.12772
-0.0097562,0.0089617,0.0018602,0.0047477,-0.055911,-0.13423,-0.21738,-0.12281,-0.016023,0.17116,1.1138,0.32775,-0.36799,-0.071792,-0.16658,-0.25427,0.037543,-0.2874,-0.21177,0.13988,0.11457,0.00058842,1.3144,-0.26227
-0.0061892,0.0091586,0.0051787,0.00859,-0.055865,-0.14518,-0.25248,-0.13759,-0.016313,0.20445,1.2582,0.31995,-0.41222,-0.12448,-0.19064,-0.24762,0.031121,-0.30517,-0.061207,0.14187,0.18813,0.034148,1.0922,-0.43778
-0.0042392,0.0090864,0.010112,0.010942,-0.059612,-0.14391,-0.24507,-0.1457,-0.018043,0.21137,1.2565,0.25193,-0.4423,-0.16505,-0.20019,-0.23311,0.022491,-0.34872,0.067572,0.13611,0.28458,0.071555,0.90504,-0.61799
-0.0044079,0.010015,0.014012,0.010567,-0.065052,-0.13086,-0.19887,-0.14991,-0.023277,0.15619,1.1283,0.11235,-0.45202,-0.16702,-0.19157,-0.22383,0.012771,-0.4071,0.16074,0.11479,0.40292,0.11242,0.74336,-0.77327
-0.0055614,0.012167,0.014738,0.0080811,-0.068201,-0.11009,-0.12014,-0.1546,-0.032237,0.038502,0.92443,-0.081682,-0.4363,-0.09925,-0.15801,-0.23097,0.0038343,-0.45167,0.22719,0.077357,0.54404,0.14903,0.59127,-0.88751
-0.0061722,0.014498,0.012174,0.0056649,-0.06651,-0.090145,-0.015612,-0.16295,-0.042952,-0.099069,0.69989,-0.28531,-0.39857,0.050958,-0.094452,-0.25447,-0.0020358,-0.44754,0.29558,0.030653,0.69998,0.16815,0.41896,-0.95764
-0.0055041,0.015661,0.0083261,0.0056215,-0.060573,-0.081195,0.11077,-0.17465,-0.051204,-0.19366,0.4917,-0.44156,-0.35575,0.25827,-0.0079474,-0.28261,-0.0029751,-0.37144,0.39535,-0.01533,0.84773,0.15931,0.19043,-0.99115
-0.003835,0.015391,0.0056825,0.0087458,-0.053025,-0.088822,0.26381,-0.18516,-0.051685,-0.20172,0.31153,-0.50437,-0.33565,0.46055,0.07605,-0.30047,0.0013251,-0.22546,0.53367,-0.053193,0.95475,0.12388,-0.11475,-1.004
-0.001845,0.015011,0.0050982,0.013717,-0.045929,-0.10907,0.46041,-0.18716,-0.04072,-0.1276,0.15242,-0.4584,-0.36635,0.5851,0.12058,-0.30078,0.0088638,-0.039086,0.6849,-0.081521,0.99324,0.077793,-0.48382,-1.0165
6.9501e-006,0.016376,0.005098,0.017995,-0.038988,-0.1293,0.72182,-0.17397,-0.019201,-0.019659,0.00089739,-0.32707,-0.46307,0.58597,0.096347,-0.28889,0.015774,0.14093,0.80125,-0.10377,0.9525,0.044641,-0.87395,-1.0444
0.0015476,0.019995,0.003395,0.01954,-0.02989,-0.13533,1.0534,-0.14333,0.0065817,0.064505,-0.15462,-0.1657,-0.61996,0.46838,0.001211,-0.27862,0.018185,0.26759,0.83838,-0.12394,0.84004,0.042955,-1.234,-1.0883
0.0025886,0.024035,-0.00061491,0.01808,-0.016207,-0.12014,1.4231,-0.099359,0.02754,0.098531,-0.32171,-0.041634,-0.81162,0.28414,-0.1347,-0.28226,0.01467,0.31048,0.77931,-0.14265,0.67166,0.075964,-1.5258,-1.1312
0.0028393,0.025399,-0.0047286,0.015048,0.0028008,-0.087721,1.759,-0.051064,0.036513,0.10353,-0.50367,-0.0085069,-1.0035,0.10115,-0.26339,-0.3024,0.0076658,0.2667,0.64187,-0.15677,0.46065,0.13022,-1.729,-1.1511
0.0022428,0.022247,-0.0054771,0.012399,0.025742,-0.049277,1.974,-0.0080383,0.03196,0.12833,-0.69696,-0.084252,-1.166,-0.032029,-0.34402,-0.33095,0.002595,0.16256,0.46706,-0.16273,0.21625,0.18341,-1.8323,-1.1395
0.0013323,0.015853,-0.0012012,0.011296,0.050073,-0.014839,2.008,0.02433,0.018001,0.20961,-0.88816,-0.24295,-1.2848,-0.1037,-0.36222,-0.3554,0.0047541,0.044597,0.29861,-0.16042,-0.047761,0.21571,-1.8286,-1.1135
0.0010849,0.010037,0.0060771,0.011582,0.073589,0.013299,1.857,0.047067,0.0010123,0.34262,-1.057,-0.42637,-1.3633,-0.13054,-0.33183,-0.36725,0.015717,-0.038517,0.16702,-0.15431,-0.30443,0.21805,-1.7254,-1.1054
0.0022536,0.0084391,0.011873,0.012203,0.095381,0.040515,1.5683,0.065902,-0.01449,0.48383,-1.1879,-0.57204,-1.4168,-0.1344,-0.28057,-0.36606,0.031647,-0.057312,0.08476,-0.15081,-0.51645,0.1936,-1.5594,-1.1376
0.0047188,0.011813,0.012722,0.01206,0.11569,0.073669,1.2021,0.086862,-0.027677,0.58126,-1.2819,-0.64451,-1.461,-0.125,-0.23162,-0.35671,0.044934,-0.016405,0.049794,-0.154,-0.65206,0.15369,-1.3941,-1.201
0.0074417,0.017597,0.0089775,0.010672,0.13483,0.1138,0.79303,0.11217,-0.040211,0.60785,-1.3556,-0.65173,-1.5028,-0.10071,-0.1936,-0.34276,0.048423,0.046535,0.050823,-0.16336,-0.70307,0.11169,-1.2894,-1.2575
0.0090988,0.022023,0.004419,0.0083722,0.15206,0.15335,0.34303,0.13903,-0.053855,0.574,-1.4203,-0.63575,-1.5374,-0.062254,-0.16281,-0.32197,0.039639,0.080256,0.071352,-0.17485,-0.69017,0.07791,-1.2635,-1.2656
0.0089271,0.022922,0.0029993,0.0060956,0.16519,0.17986,-0.14704,0.16182,-0.069286,0.51352,-1.4577,-0.64301,-1.5518,-0.022893,-0.13238,-0.28822,0.022283,0.049238,0.094456,-0.18411,-0.64993,0.05674,-1.2793,-1.2101
0.0071643,0.02092,0.0056029,0.0048684,0.17162,0.18325,-0.63691,0.17588,-0.086742,0.45778,-1.4127,-0.69386,-1.5333,-0.0030265,-0.09969,-0.23879,0.004042,-0.044029,0.11015,-0.1888,-0.61228,0.046219,-1.2731,-1.1135
0.0047842,0.018286,0.0096785,0.0051676,0.17003,0.16136,-1.0389,0.18018,-0.10685,0.41797,-1.2203,-0.77186,-1.4763,-0.013667,-0.067968,-0.18128,-0.0077582,-0.15889,0.12222,-0.18834,-0.5847,0.039615,-1.2064,-1.0195
0.0027395,0.01671,0.011927,0.0064798,0.16151,0.1202,-1.2588,0.17729,-0.12976,0.38535,-0.85304,-0.83853,-1.3847,-0.045067,-0.043478,-0.13388,-0.0098029,-0.24041,0.14808,-0.18216,-0.55329,0.02882,-1.0977,-0.96574
0.0012855,0.016015,0.011409,0.007512,0.14898,0.069557,-1.2596,0.17108,-0.15289,0.34356,-0.35482,-0.86031,-1.2713,-0.073193,-0.032143,-0.11719,-0.0036096,-0.25251,0.20836,-0.16897,-0.49756,0.008647,-1.008,-0.96372
-6.2443e-005,0.01476,0.010117,0.007164,0.13515,0.01785,-1.0949,0.16432,-0.17003,0.2808,0.16558,-0.82679,-1.1531,-0.080004,-0.03733,-0.14188,0.0064862,-0.19823,0.31199,-0.14799,-0.4063,-0.019695,-0.99186,-1.0003
-0.0018484,0.0119,0.010567,0.0056159,0.12073,-0.029714,-0.88126,0.158,-0.17422,0.19381,0.5818,-0.74882,-1.0476,-0.069624,-0.05817,-0.20024,0.016318,-0.11305,0.44747,-0.12101,-0.28339,-0.047996,-1.0555,-1.0524
-0.0038253,0.0079158,0.012848,0.0044634,0.10466,-0.069462,-0.7249,0.15262,-0.16362,0.085408,0.80632,-0.64287,-0.96929,-0.065104,-0.087971,-0.26767,0.023713,-0.037403,0.588,-0.092629,-0.14234,-0.06448,-1.1575,-1.1007
-0.0047923,0.0044414,0.014148,0.0054455,0.086389,-0.09696,-0.6575,0.14959,-0.14539,-0.038444,0.82003,-0.51818,-0.92567,-0.087884,-0.11437,-0.31445,0.02832,0.010447,0.70706,-0.067932,0.0029551,-0.060469,-1.2496,-1.1335
-0.0035208,0.0028833,0.01138,0.008666,0.068164,-0.10746,-0.63038,0.15133,-0.13326,-0.16874,0.66256,-0.37731,-0.91553,-0.13819,-0.1233,-0.32076,0.030245,0.040897,0.79234,-0.049193,0.14305,-0.037179,-1.3181,-1.1428
-0.00014625,0.0033235,0.0045107,0.012018,0.055011,-0.099353,-0.56902,0.15966,-0.13898,-0.29279,0.40098,-0.2261,-0.9295,-0.194,-0.10604,-0.28604,0.029075,0.076153,0.84726,-0.034564,0.27107,-0.0082305,-1.3896,-1.1213
0.003306,0.0046113,-0.0026218,0.012718,0.051858,-0.077397,-0.44061,0.17432,-0.16376,-0.39657,0.10492,-0.080023,-0.95374,-0.22913,-0.065066,-0.22686,0.024148,0.1261,0.87927,-0.019968,0.3784,0.0053783,-1.4942,-1.0648
0.004117,0.0054136,-0.0050362,0.0098829,0.059922,-0.051849,-0.27879,0.19336,-0.1968,-0.47002,-0.16031,0.041175,-0.97488,-0.23352,-0.013451,-0.16513,0.015636,0.17758,0.88559,-0.0026487,0.45325,-0.012983,-1.6181,-0.97355
0.0011231,0.005223,-0.00069408,0.0058024,0.075328,-0.033031,-0.14839,0.21497,-0.22286,-0.51162,-0.33435,0.12586,-0.98307,-0.21715,0.032795,-0.11469,0.0050932,0.20465,0.84895,0.016518,0.48408,-0.063142,-1.6885,-0.84986
-0.0039055,0.0045235,0.0075717,0.0044219,0.091188,-0.024923,-0.085239,0.23898,-0.23315,-0.52893,-0.3743,0.17728,-0.9715,-0.1949,0.064774,-0.074973,-0.0054371,0.18873,0.74791,0.033575,0.46536,-0.12365,-1.607,-0.69144
-0.0072778,0.0041598,0.014047,0.0080317,0.10156,-0.022832,-0.065826,0.26598,-0.23074,-0.53626,-0.27984,0.20735,-0.93395,-0.16815,0.085755,-0.034795,-0.015248,0.13039,0.57427,0.044028,0.40195,-0.16064,-1.3112,-0.48977
-0.0062827,0.0046054,0.0145,0.015018,0.10435,-0.017224,-0.032383,0.29493,-0.22643,-0.55247,-0.11025,0.22311,-0.86377,-0.12186,0.10741,0.017842,-0.02606,0.043667,0.34387,0.0452,0.30961,-0.14685,-0.82219,-0.23806
-0.0015721,0.0057522,0.0093641,0.020808,0.10125,-0.0010291,0.052307,0.32146,-0.22891,-0.59881,0.030095,0.21861,-0.75627,-0.041098,0.1399,0.087653,-0.040938,-0.05928,0.092025,0.037017,0.21134,-0.079279,-0.24468,0.056683
0.003215,0.0072542,0.0031975,0.021372,0.095497,0.024974,0.1717,0.33931,-0.23774,-0.69195,0.038319,0.18017,-0.61351,0.068067,0.1832,0.17075,-0.061381,-0.17744,-0.14366,0.021539,0.13071,0.017065,0.28285,0.3697
0.0044789,0.008964,0.00094584,0.016313,0.089269,0.052448,0.2734,0.34404,-0.24453,-0.82924,-0.13438,0.10017,-0.4473,0.17359,0.22567,0.25906,-0.084789,-0.31544,-0.3405,0.0023118,0.084327,0.10335,0.65785,0.66966
0.0017443,0.011005,0.0041057,0.0089724,0.082647,0.070715,0.31957,0.33651,-0.24044,-0.97293,-0.45791,-0.013443,-0.27724,0.23471,0.25064,0.34533,-0.10472,-0.46907,-0.49558,-0.016049,0.07683,0.15043,0.86173,0.93769
-0.0019917,0.013413,0.0098414,0.003661,0.074137,0.072598,0.32161,0.32293,-0.22285,-1.0488,-0.84082,-0.14007,-0.12441,0.22803,0.2462,0.42455,-0.11423,-0.61573,-0.61595,-0.028511,0.10088,0.15562,0.95779,1.1782
-0.0030201,0.015708,0.013573,0.0026107,0.062005,0.056826,0.32726,0.31158,-0.19567,-0.97157,-1.1763,-0.25784,-0.0039354,0.16099,0.21173,0.49232,-0.11006,-0.71891,-0.70342,-0.030932,0.1425,0.14109,1.0419,1.4111
-0.0002947,0.016835,0.012733,0.0051476,0.045531,0.026314,0.3735,0.30821,-0.16418,-0.69061,-1.3878,-0.35229,0.079563,0.063155,0.15783,0.54428,-0.094176,-0.74403,-0.74752,-0.021492,0.18824,0.1356,1.1772,1.6515
0.0036721,0.015689,0.0085929,0.0092694,0.025723,-0.014906,0.45114,0.31341,-0.13,-0.22934,-1.4523,-0.41516,0.13236,-0.035152,0.10079,0.57961,-0.071629,-0.67479,-0.73292,-0.0012069,0.2296,0.15326,1.3546,1.8939
0.0052009,0.011949,0.0048435,0.01362,0.0052661,-0.062949,0.51542,0.32299,-0.091002,0.31118,-1.3963,-0.43732,0.16889,-0.11727,0.055364,0.60633,-0.046635,-0.52112,-0.65517,0.026846,0.26257,0.18472,1.5036,2.116
0.0028926,0.0066015,0.004383,0.017922,-0.012438,-0.11303,0.5337,0.33099,-0.045882,0.79354,-1.2729,-0.40638,0.20748,-0.1772,0.029833,0.64263,-0.020399,-0.31649,-0.53098,0.058841,0.28451,0.20575,1.545,2.2963
-0.0010553,0.0016314,0.0071071,0.021919,-0.024936,-0.15857,0.52544,0.33297,0.0018842,1.1081,-1.1325,-0.31424,0.26519,-0.20645,0.024988,0.70983,0.0075067,-0.10764,-0.39301,0.090916,0.29284,0.19537,1.4498,2.4315
-0.002841,-0.0011114,0.010425,0.024524,-0.032208,-0.19293,0.55548,0.32783,0.045151,1.2205,-0.99626,-0.16856,0.35209,-0.18768,0.036434,0.81962,0.035892,0.059676,-0.27216,0.11907,0.28722,0.14968,1.2636,2.5359
-0.00048223,-0.0010986,0.011758,0.024507,-0.036812,-0.21339,0.68344,0.31739,0.079056,1.1744,-0.84626,0.003915,0.46647,-0.10456,0.058251,0.96399,0.060372,0.15535,-0.18066,0.13913,0.27269,0.08238,1.0814,2.6245
0.0044525,0.00058562,0.010651,0.022075,-0.042271,-0.22362,0.91204,0.30434,0.10664,1.0524,-0.63773,0.1682,0.59382,0.039883,0.085875,1.1167,0.075343,0.17503,-0.10937,0.14768,0.25944,0.014407,0.98989,2.6939
0.008284,0.0021832,0.0087359,0.019463,-0.050592,-0.23111,1.179,0.28999,0.13865,0.92535,-0.33057,0.29923,0.71184,0.21429,0.11689,1.2467,0.077858,0.13917,-0.04143,0.14377,0.25787,-0.03787,1.0161,2.719
0.0083845,0.0027074,0.007855,0.019461,-0.060747,-0.24015,1.3995,0.27349,0.18666,0.8242,0.07945,0.39315,0.80051,0.37021,0.14982,1.335,0.06977,0.078957,0.028648,0.12989,0.27276,-0.067577,1.115,2.6671
0.0051626,0.0026498,0.0082975,0.022962,-0.069268,-0.24523,1.5216,0.25311,0.25425,0.74648,0.55268,0.46309,0.85279,0.4674,0.18221,1.3824,0.056136,0.016301,0.085914,0.11106,0.30137,-0.074564,1.2008,2.5181
0.001244,0.003308,0.0087397,0.027847,-0.0725,-0.2312,1.5494,0.22848,0.33281,0.68201,1.0278,0.52389,0.88012,0.4949,0.20991,1.4035,0.041479,-0.047801,0.10357,0.092314,0.33688,-0.060478,1.1978,2.275
-0.0011148,0.0053627,0.0076977,0.030479,-0.068687,-0.18156,1.5173,0.20177,0.40529,0.63185,1.4566,0.57924,0.90913,0.4725,0.2284,1.4117,0.027529,-0.12628,0.06291,0.076394,0.3734,-0.027327,1.078,1.9593
-0.001827,0.0080778,0.0048909,0.028666,-0.058437,-0.090185,1.4441,0.17647,0.45519,0.6063,1.8216,0.62094,0.97013,0.43314,0.23528,1.4076,0.014378,-0.22487,-0.030607,0.063424,0.40734,0.019795,0.86434,1.5987
-0.002417,0.0099327,0.0012516,0.023512,-0.043685,0.031678,1.3122,0.15414,0.4747,0.60935,2.1222,0.63807,1.0828,0.40008,0.23196,1.3801,0.003377,-0.3251,-0.14762,0.052408,0.43408,0.069871,0.60386,1.2191
-0.0039062,0.010092,-0.0021173,0.018494,-0.026638,0.15827,1.0897,0.13196,0.46678,0.6286,2.3443,0.6252,1.2458,0.37497,0.22284,1.3184,-0.001792,-0.38886,-0.25154,0.042878,0.44442,0.1073,0.333,0.84425
-0.0054008,0.0092476,-0.0046956,0.016586,-0.0097773,0.26049,0.77396,0.10326,0.44112,0.64162,2.446,0.58158,1.4358,0.34282,0.21224,1.2236,0.0023885,-0.38455,-0.31944,0.034895,0.42639,0.11781,0.059215,0.4992
-0.0048407,0.0089424,-0.0062504,0.017966,0.0035844,0.3186,0.41452,0.061734,0.40768,0.63217,2.3792,0.504,1.6162,0.28771,0.20134,1.1109,0.01531,-0.31452,-0.35217,0.027507,0.37293,0.095394,-0.23113,0.2066
-0.0011765,0.0099907,-0.0061788,0.020231,0.0097982,0.32943,0.093207,0.0067751,0.37246,0.59986,2.1347,0.38376,1.7508,0.20707,0.18735,1.0002,0.030833,-0.21933,-0.36679,0.017612,0.2897,0.045585,-0.5468,-0.022079
0.0041803,0.011583,-0.0037175,0.02078,0.0070322,0.30561,-0.12221,-0.053758,0.33729,0.55381,1.7718,0.21422,1.8161,0.11563,0.16552,0.90424,0.040479,-0.15206,-0.37845,0.001119,0.19576,-0.016733,-0.86746,-0.19301
0.0081321,0.012043,0.00085467,0.019125,-0.0024748,0.26888,-0.21254,-0.10581,0.30228,0.49748,1.403,0.0041962,1.8056,0.03777,0.13273,0.82266,0.039041,-0.14116,-0.3859,-0.023859,0.11472,-0.073667,-1.1397,-0.32555
0.0083124,0.010576,0.0054137,0.0171,-0.01266,0.24136,-0.20588,-0.13579,0.26777,0.42097,1.1381,-0.21601,1.7289,-0.0069617,0.090109,0.74603,0.028079,-0.17169,-0.37185,-0.054416,0.06204,-0.1114,-1.2996,-0.43864
0.0050347,0.0082669,0.0070296,0.016907,-0.017299,0.23773,-0.14942,-0.13796,0.23439,0.31012,1.0246,-0.40444,1.6059,-0.017051,0.043177,0.66432,0.014397,-0.20036,-0.31696,-0.083553,0.037575,-0.1249,-1.31,-0.53941
0.001064,0.0072446,0.0044788,0.018863,-0.014756,0.26021,-0.083099,-0.11832,0.2018,0.16521,1.0284,-0.52856,1.4618,-0.013261,-0.000253,0.57224,0.0049431,-0.19119,-0.21615,-0.10429,0.028477,-0.1187,-1.1904,-0.62433
-0.00058066,0.0086902,-3.2536e-005,0.020919,-0.0098576,0.29763,-0.033711,-0.092339,0.16822,0.012024,1.066,-0.5818,1.3208,-0.02933,-0.032897,0.46859,0.0024913,-0.14203,-0.084593,-0.1142,0.019603,-0.10388,-1.0176,-0.69139
0.0010864,0.011561,-0.0020025,0.020382,-0.010839,0.32998,-0.022389,-0.077703,0.13181,-0.10633,1.0658,-0.5824,1.2006,-0.091398,-0.049997,0.35288,0.0054512,-0.080668,0.049961,-0.11661,0.0032368,-0.092831,-0.89127,-0.75043
0.0045,0.013306,0.0017812,0.016291,-0.023445,0.33741,-0.066026,-0.085979,0.093208,-0.1523,1.0103,-0.55539,1.1057,-0.19685,-0.049858,0.2245,0.011234,-0.037008,0.16179,-0.11738,-0.018653,-0.094339,-0.88222,-0.81946
0.0070519,0.01199,0.01012,0.01032,-0.046855,0.30984,-0.16544,-0.11788,0.056757,-0.11449,0.93272,-0.51244,1.0255,-0.30763,-0.033434,0.085089,0.019459,-0.017872,0.23807,-0.11986,-0.039814,-0.11081,-0.99483,-0.90795
0.0071865,0.0078897,0.017671,0.0054092,-0.074567,0.25151,-0.29457,-0.16445,0.02884,-0.011535,0.87483,-0.44599,0.93952,-0.36713,-0.0040494,-0.059273,0.03182,-0.0066991,0.28027,-0.12247,-0.05707,-0.13847,-1.1665,-1.0017
0.0053208,0.003162,0.018772,0.0033359,-0.099126,0.17771,-0.40931,-0.21305,0.013975,0.12192,0.84217,-0.34152,0.82845,-0.33434,0.032105,-0.2,0.048927,0.014094,0.29832,-0.12091,-0.073323,-0.16967,-1.3033,-1.0648
0.00304,-6.2185e-006,0.011833,0.0034005,-0.11644,0.10574,-0.47543,-0.25411,0.011358,0.25506,0.79438,-0.19699,0.68531,-0.21359,0.065244,-0.33123,0.06753,0.041519,0.3038,-0.11329,-0.094437,-0.19561,-1.3249,-1.0609
0.0015588,-0.00098836,0.0007212,0.0033656,-0.1264,0.046472,-0.49226,-0.28455,0.014614,0.37307,0.67775,-0.032822,0.52034,-0.057118,0.082769,-0.45335,0.081243,0.05285,0.30624,-0.10347,-0.12355,-0.20868,-1.1899,-0.9782
0.00090627,-0.00070145,-0.0079902,0.0016931,-0.13019,0.0017108,-0.48878,-0.30641,0.015227,0.47613,0.47378,0.11506,0.35729,0.065441,0.073114,-0.57083,0.084573,0.028348,0.3123,-0.099538,-0.1581,-0.20409,-0.89099,-0.83933
0.0003818,-0.00032266,-0.0096468,-0.0010829,-0.12778,-0.03213,-0.49403,-0.3223,0.0073316,0.57006,0.22386,0.21277,0.22466,0.11152,0.032061,-0.68572,0.076865,-0.025807,0.32549,-0.10823,-0.19179,-0.1811,-0.43955,-0.68755
-0.00046673,-0.00024769,-0.0043976,-0.0031529,-0.11813,-0.058277,-0.50959,-0.33144,-0.009483,0.65691,0.0080824,0.24303,0.14656,0.092011,-0.032128,-0.79222,0.062722,-0.07636,0.34574,-0.12978,-0.21943,-0.14375,0.13653,-0.56118
-0.001464,-0.00029398,0.0035643,-0.0035689,-0.10156,-0.076744,-0.51128,-0.32919,-0.031127,0.73067,-0.10816,0.20822,0.1359,0.058861,-0.099513,-0.87719,0.048543,-0.085374,0.36996,-0.15725,-0.24029,-0.099988,0.77528,-0.47512
-0.0023209,-0.00063419,0.0092979,-0.0035441,-0.081447,-0.085906,-0.47887,-0.3103,-0.052671,0.77833,-0.12103,0.12366,0.18983,0.062569,-0.14702,-0.92621,0.038129,-0.036842,0.39432,-0.181,-0.25741,-0.058873,1.3672,-0.42143
-0.0032584,-0.0021322,0.010157,-0.0055347,-0.063016,-0.085925,-0.42417,-0.2735,-0.071884,0.78406,-0.093425,0.0094736,0.28779,0.11221,-0.16068,-0.93068,0.030947,0.054579,0.41669,-0.19479,-0.27411,-0.026799,1.777,-0.3835
-0.0048366,-0.0055192,0.0066085,-0.010911,-0.050284,-0.080401,-0.38853,-0.224,-0.09038,0.73476,-0.11449,-0.11338,0.39468,0.16935,-0.14341,-0.89162,0.024112,0.1578,0.43706,-0.19916,-0.29083,-0.0048013,1.9033,-0.34901
-0.0070634,-0.010281,0.00099576,-0.018435,-0.04388,-0.074831,-0.41037,-0.17172,-0.11211,0.62553,-0.2429,-0.22409,0.4714,0.18003,-0.11198,-0.81923,0.015878,0.24783,0.45516,-0.19985,-0.3051,0.010876,1.7415,-0.31157
-0.0088303,-0.014596,-0.0041841,-0.025,-0.041539,-0.073621,-0.49297,-0.12641,-0.1406,0.46326,-0.47427,-0.3045,0.49029,0.11821,-0.084649,-0.72995,0.0073555,0.31735,0.46762,-0.2032,-0.3142,0.024984,1.3966,-0.26487
-0.0085526,-0.016606,-0.0072564,-0.027923,-0.040395,-0.078298,-0.60286,-0.092795,-0.17656,0.26627,-0.75299,-0.3445,0.44722,0.0054097,-0.068618,-0.64249,0.0010443,0.3711,0.46779,-0.21207,-0.31816,0.038752,1.0271,-0.20042
-0.0056358,-0.015931,-0.0075648,-0.026705,-0.038684,-0.0881,-0.70011,-0.069257,-0.21679,0.059743,-1.0145,-0.34672,0.36214,-0.10755,-0.056979,-0.57299,-0.0022307,0.41313,0.44881,-0.22513,-0.32052,0.048276,0.75415,-0.11448
-0.0013629,-0.01402,-0.0055016,-0.022847,-0.03566,-0.10187,-0.77166,-0.051118,-0.2545,-0.13096,-1.2227,-0.32553,0.26655,-0.1789,-0.037476,-0.52992,-0.0049051,0.4416,0.40759,-0.23903,-0.32633,0.047542,0.60145,-0.017453
0.0018376,-0.013056,-0.0025681,-0.018282,-0.030766,-0.11963,-0.83675,-0.035812,-0.28129,-0.28578,-1.377,-0.29969,0.18633,-0.20106,-0.0054618,-0.5107,-0.011101,0.45513,0.34682,-0.2513,-0.33887,0.034134,0.50922,0.066738
0.0022798,-0.014411,-0.0010164,-0.01414,-0.023922,-0.143,-0.92108,-0.025851,-0.29043,-0.39261,-1.4881,-0.2833,0.13163,-0.19403,0.030096,-0.50318,-0.023099,0.46168,0.27394,-0.26161,-0.35738,0.012934,0.40337,0.11468
0.00043317,-0.017838,-0.002743,-0.010833,-0.017131,-0.17471,-1.0249,-0.027111,-0.2802,-0.44746,-1.5506,-0.28081,0.099328,-0.17815,0.052698,-0.49248,-0.038917,0.47826,0.19882,-0.27094,-0.37732,-0.0059927,0.25792,0.12073
-0.0014356,-0.021825,-0.0079907,-0.0088402,-0.015356,-0.2173,-1.1146,-0.043749,-0.25519,-0.45345,-1.5356,-0.28838,0.082924,-0.15466,0.051327,-0.46944,-0.053187,0.51921,0.13152,-0.27984,-0.39302,-0.014677,0.09927,0.10146
-0.0011392,-0.024584,-0.014982,-0.0088078,-0.024408,-0.27038,-1.1434,-0.07378,-0.22399,-0.41936,-1.4085,-0.2987,0.07936,-0.11176,0.029528,-0.435,-0.060735,0.58318,0.080449,-0.28732,-0.40105,-0.014419,-0.042692,0.081325
0.0015977,-0.024977,-0.021024,-0.010634,-0.046107,-0.32682,-1.0821,-0.10869,-0.19421,-0.35745,-1.1549,-0.30504,0.086825,-0.047421,0.0033121,-0.39745,-0.059963,0.65062,0.049982,-0.2911,-0.4022,-0.016758,-0.18256,0.070813
0.0048285,-0.023019,-0.0243,-0.012676,-0.074126,-0.37037,-0.93328,-0.13727,-0.16809,-0.28118,-0.79698,-0.30233,0.097956,0.016267,-0.010093,-0.36508,-0.053431,0.69457,0.037864,-0.2891,-0.40089,-0.036319,-0.37585,0.056275
0.0057905,-0.019883,-0.024848,-0.012445,-0.094613,-0.3789,-0.72281,-0.15094,-0.14234,-0.20341,-0.39076,-0.28624,0.098147,0.043572,-0.0037574,-0.34044,-0.045509,0.69586,0.034667,-0.28101,-0.40241,-0.079876,-0.66491,0.011731
0.0029076,-0.017378,-0.023964,-0.008614,-0.092712,-0.33507,-0.48157,-0.14735,-0.11237,-0.13571,-0.01266,-0.25271,0.073683,0.011633,0.015179,-0.32076,-0.039463,0.65099,0.02737,-0.26926,-0.40955,-0.13927,-1.0257,-0.076229
-0.0030462,-0.017001,-0.022822,-0.0024789,-0.061535,-0.23998,-0.23564,-0.13083,-0.077734,-0.087274,0.25892,-0.19922,0.023659,-0.071236,0.030861,-0.30348,-0.036464,0.56837,0.006271,-0.25826,-0.42084,-0.1935,-1.368,-0.19144
-0.0093369,-0.01899,-0.021722,0.0028321,-0.0074633,-0.11992,-0.0085817,-0.11001,-0.043973,-0.062377,0.36545,-0.12703,-0.035842,-0.17184,0.028214,-0.29137,-0.036841,0.45945,-0.028955,-0.25236,-0.43118,-0.21891,-1.5945,-0.29433
-0.012863,-0.022071,-0.020576,0.0050128,0.05251,-0.017842,0.17504,-0.093736,-0.019177,-0.05694,0.29333,-0.043154,-0.08093,-0.2565,0.00023568,-0.29149,-0.041622,0.33391,-0.068615,-0.25344,-0.4345,-0.20139,-1.6698,-0.3475
-0.011919,-0.024264,-0.019727,0.0046418,0.10033,0.028832,0.29547,-0.086352,-0.0080885,-0.057967,0.09258,0.039822,-0.095844,-0.31179,-0.050082,-0.3083,-0.052248,0.20257,-0.098805,-0.25971,-0.42697,-0.14347,-1.6418,-0.34094
-0.0071033,-0.024207,-0.019862,0.00449,0.12724,0.01066,0.35026,-0.084261,-0.00879,-0.049027,-0.12866,0.10688,-0.082255,-0.34538,-0.11228,-0.33619,-0.068447,0.082354,-0.10977,-0.26666,-0.40931,-0.063133,-1.5996,-0.29748
-0.00086761,-0.021975,-0.020982,0.0065431,0.1379,-0.047306,0.36011,-0.076376,-0.014789,-0.020466,-0.24315,0.1465,-0.05437,-0.37017,-0.17263,-0.35867,-0.086479,-0.004739,-0.10094,-0.26962,-0.38707,0.014179,-1.6044,-0.25498
0.0039749,-0.018691,-0.021768,0.0096732,0.14559,-0.10121,0.35935,-0.049985,-0.020489,0.022364,-0.16294,0.15686,-0.025353,-0.38816,-0.21794,-0.35621,-0.099992,-0.041537,-0.07948,-0.26601,-0.36853,0.066159,-1.6512,-0.24007
0.0058771,-0.015347,-0.020539,0.010528,0.16223,-0.11595,0.37633,0.00012366,-0.025137,0.060331,0.11662,0.14791,0.001561,-0.38751,-0.23831,-0.31812,-0.10348,-0.028369,-0.054799,-0.25597,-0.36083,0.082315,-1.6883,-0.25327
0.0052952,-0.011982,-0.0172,0.0070879,0.19038,-0.085092,0.41912,0.065333,-0.031917,0.072458,0.5164,0.13654,0.029082,-0.35204,-0.22922,-0.24976,-0.095877,0.011395,-0.034339,-0.24129,-0.36597,0.067386,-1.6715,-0.27456
0.0040861,-0.0080022,-0.014153,0.0014406,0.22278,-0.029488,0.47624,0.12562,-0.04343,0.051047,0.91688,0.13655,0.053965,-0.27269,-0.19313,-0.16967,-0.081446,0.039056,-0.024249,-0.224,-0.37907,0.037966,-1.6043,-0.28192
0.0040219,-0.0032654,-0.014751,-0.0012645,0.24881,0.022012,0.52859,0.16108,-0.058037,0.0085913,1.2163,0.15006,0.06034,-0.15277,-0.14016,-0.098486,-0.067242,0.018887,-0.032869,-0.2058,-0.39065,0.013449,-1.5307,-0.26691
0.0055119,0.0012481,-0.020254,0.0028392,0.26236,0.053621,0.55986,0.16535,-0.07048,-0.029567,1.3677,0.16754,0.026595,-0.0076722,-0.086439,-0.047719,-0.059066,-0.062951,-0.071484,-0.18835,-0.39193,0.0053555,-1.4897,-0.2369
0.0074657,0.0039827,-0.028056,0.012612,0.26511,0.069903,0.55802,0.15089,-0.07606,-0.041909,1.379,0.17692,-0.058868,0.13675,-0.049371,-0.016151,-0.058758,-0.19009,-0.14887,-0.17351,-0.37985,0.01061,-1.4736,-0.206
0.0083568,0.0041893,-0.033147,0.022468,0.26353,0.086693,0.51191,0.14129,-0.074316,-0.024169,1.2902,0.17484,-0.18615,0.247,-0.040115,0.0048781,-0.064363,-0.32372,-0.26251,-0.16275,-0.35832,0.012696,-1.4231,-0.18439
0.0076022,0.0028952,-0.031906,0.027003,0.26288,0.11584,0.413,0.15558,-0.068746,0.010659,1.1501,0.1704,-0.326,0.29079,-0.056656,0.023078,-0.072409,-0.42271,-0.39404,-0.15632,-0.33459,-0.0096277,-1.2644,-0.17335
0.0061087,0.0025099,-0.025085,0.025568,0.26328,0.15637,0.26583,0.19583,-0.062923,0.045084,1.0066,0.17809,-0.44322,0.25362,-0.082069,0.041208,-0.080247,-0.46434,-0.51441,-0.15298,-0.31385,-0.070316,-0.95785,-0.16584
0.0055062,0.0052611,-0.017363,0.022574,0.26027,0.19678,0.099057,0.24699,-0.056725,0.071781,0.90494,0.206,-0.51082,0.15408,-0.091013,0.060006,-0.086889,-0.45334,-0.59723,-0.15085,-0.29617,-0.1663,-0.5243,-0.14839
0.0066907,0.011609,-0.013769,0.023232,0.24859,0.22329,-0.035996,0.28828,-0.046275,0.098295,0.87965,0.24957,-0.51659,0.043148,-0.062593,0.083614,-0.092246,-0.41369,-0.63197,-0.14842,-0.27796,-0.27424,-0.035308,-0.10316
0.0089394,0.019787,-0.015946,0.028714,0.22582,0.2264,-0.085172,0.30701,-0.027798,0.139,0.9399,0.29598,-0.46239,-0.019236,0.0074389,0.12056,-0.095836,-0.36962,-0.62839,-0.14486,-0.256,-0.35573,0.42157,-0.01324
0.010432,0.026765,-0.021229,0.035238,0.19382,0.20217,-0.021261,0.30508,-0.0019985,0.20242,1.0581,0.33458,-0.36142,0.0011616,0.10321,0.17765,-0.096126,-0.32969,-0.60967,-0.13925,-0.23058,-0.37058,0.77781,0.12711
0.0098237,0.029992,-0.025037,0.037831,0.1579,0.15108,0.13424,0.29529,0.024944,0.2854,1.1767,0.36355,-0.23649,0.091408,0.19705,0.25147,-0.09101,-0.28583,-0.59894,-0.12975,-0.20529,-0.29475,1.0024,0.30258
0.0075356,0.028818,-0.024403,0.035096,0.12521,0.078027,0.31321,0.29228,0.044799,0.37831,1.2345,0.38715,-0.11645,0.20088,0.2646,0.32565,-0.079102,-0.22747,-0.60714,-0.11389,-0.18451,-0.13516,1.1023,0.47722
0.005577,0.024761,-0.019848,0.030425,0.10299,-0.0060334,0.42982,0.30555,0.052504,0.47467,1.1967,0.40748,-0.027192,0.27636,0.29667,0.37797,-0.061043,-0.15852,-0.62872,-0.090212,-0.17096,0.067863,1.112,0.61
0.0059397,0.020457,-0.014461,0.028654,0.096717,-0.084061,0.42318,0.33825,0.04914,0.57476,1.07,0.41958,0.020093,0.29672,0.29983,0.39358,-0.04,-0.10198,-0.64658,-0.059922,-0.16484,0.25555,1.0795,0.67769
0.0088619,0.017966,-0.011317,0.031492,0.10789,-0.13718,0.29121,0.38946,0.040551,0.67876,0.89449,0.41544,0.035001,0.28136,0.28689,0.37439,-0.020804,-0.086336,-0.64332,-0.02698,-0.1643,0.37752,1.0505,0.689
0.012438,0.017515,-0.011347,0.036068,0.13269,-0.15182,0.095221,0.45562,0.032953,0.7763,0.72097,0.39329,0.041039,0.26827,0.26548,0.3377,-0.0078674,-0.12249,-0.61266,0.0039031,-0.166,0.41506,1.0493,0.67784
0.013952,0.017578,-0.013049,0.037726,0.16266,-0.12488,-0.070154,0.52925,0.029026,0.84449,0.58868,0.36329,0.058364,0.2818,0.23449,0.30469,-0.0028153,-0.18873,-0.56433,0.030138,-0.16606,0.38563,1.0647,0.67976
0.011889,0.016277,-0.013904,0.034142,0.18794,-0.062891,-0.12741,0.59742,0.027258,0.85949,0.51424,0.34322,0.088292,0.31631,0.19004,0.28741,-0.0032718,-0.23684,-0.5186,0.052857,-0.16171,0.32554,1.05,0.7088
0.0070732,0.013062,-0.012297,0.026914,0.20157,0.024184,-0.058668,0.64385,0.024483,0.81426,0.49189,0.34682,0.11193,0.3453,0.13422,0.28299,-0.0038746,-0.21747,-0.49331,0.075874,-0.15335,0.2637,0.94574,0.75183
0.0021051,0.0092963,-0.0086249,0.019598,0.20234,0.12957,0.085195,0.6556,0.019125,0.72734,0.49991,0.37344,0.10472,0.34314,0.077159,0.27793,0.00069795,-0.10979,-0.49254,0.10244,-0.14511,0.2059,0.72031,0.78332
-0.00039358,0.0072076,-0.0049606,0.0146,0.19446,0.25159,0.21484,0.63047,0.012347,0.63318,0.50961,0.40689,0.055774,0.29909,0.029835,0.25764,0.012383,0.063289,-0.50622,0.13196,-0.14218,0.14024,0.40663,0.78724
0.00058388,0.0080169,-0.0035768,0.011913,0.18445,0.3898,0.25319,0.5792,0.0063941,0.55905,0.496,0.4244,-0.022922,0.21545,-0.0057008,0.21381,0.02829,0.24377,-0.52205,0.15894,-0.14599,0.057066,0.10812,0.76846
0.0039818,0.010834,-0.0053406,0.010289,0.1773,0.53881,0.17443,0.51951,0.0018999,0.50537,0.44766,0.40975,-0.10417,0.099401,-0.038629,0.14597,0.042312,0.36591,-0.53958,0.17537,-0.1511,-0.034786,-0.040534,0.74583
0.0075545,0.013337,-0.0090981,0.0089392,0.17407,0.68468,0.0076243,0.46502,-0.0032019,0.44498,0.37082,0.36281,-0.16287,-0.037907,-0.080683,0.059018,0.048893,0.38668,-0.57314,0.17528,-0.14719,-0.10944,0.055597,0.73444
0.0093141,0.013716,-0.012502,0.0078556,0.17179,0.80622,-0.19373,0.41696,-0.012039,0.34261,0.28325,0.30047,-0.18865,-0.17348,-0.13352,-0.039134,0.046449,0.30313,-0.63863,0.15893,-0.12576,-0.14165,0.38773,0.73201
0.0085787,0.012237,-0.013677,0.006894,0.16513,0.87979,-0.39153,0.36479,-0.025859,0.18093,0.20078,0.24875,-0.18443,-0.2687,-0.1837,-0.13796,0.038125,0.14867,-0.73473,0.13376,-0.086751,-0.12579,0.8291,0.72031
0.0060702,0.011042,-0.012437,0.0052756,0.14849,0.88541,-0.58332,0.29569,-0.042475,-0.025197,0.1265,0.22999,-0.15473,-0.28191,-0.21064,-0.22444,0.029445,-0.027356,-0.83576,0.11107,-0.039493,-0.080674,1.1871,0.68002
0.0032032,0.012314,-0.010087,0.0024004,0.11792,0.81311,-0.79101,0.20546,-0.057574,-0.23532,0.051694,0.25107,-0.096134,-0.19357,-0.20162,-0.28552,0.024679,-0.18408,-0.90511,0.10012,0.0031854,-0.036907,1.2971,0.60759
0.0011662,0.016337,-0.0080473,-0.001023,0.07266,0.66913,-1.0309,0.10303,-0.067773,-0.40547,-0.031826,0.29924,0.00021207,-0.025053,-0.1616,-0.31309,0.024602,-0.30379,-0.91979,0.1034,0.033465,-0.017271,1.1019,0.52088
0.00038608,0.021107,-0.0065603,-0.0031647,0.016233,0.47967,-1.2908,0.0055711,-0.072766,-0.51082,-0.11849,0.34866,0.13608,0.16617,-0.11003,-0.30813,0.027072,-0.39021,-0.88614,0.11604,0.053197,-0.024863,0.67085,0.44872
0.00056745,0.023764,-0.0047087,-0.0027549,-0.043651,0.28721,-1.5306,-0.07035,-0.074782,-0.55596,-0.18691,0.37497,0.29581,0.31409,-0.068127,-0.28079,0.029551,-0.45446,-0.83332,0.12982,0.071348,-0.046202,0.14736,0.41034
0.0010638,0.022645,-0.0017077,-0.00057696,-0.096943,0.13654,-1.7027,-0.11414,-0.076106,-0.56905,-0.21178,0.36909,0.44898,0.37595,-0.046969,-0.24542,0.031174,-0.50046,-0.7909,0.13882,0.096555,-0.06452,-0.33402,0.39903
0.0012173,0.018196,0.0018275,0.00095915,-0.13467,0.054653,-1.7752,-0.11959,-0.077,-0.5851,-0.18094,0.34084,0.56554,0.34787,-0.044764,-0.2138,0.032653,-0.52061,-0.7698,0.14245,0.13061,-0.071989,-0.70743,0.38258
0.00053445,0.012075,0.0040243,-5.2088e-005,-0.15228,0.036726,-1.7393,-0.080603,-0.07573,-0.62811,-0.10523,0.30995,0.63173,0.25862,-0.052745,-0.19079,0.034439,-0.50418,-0.76202,0.14406,0.16743,-0.072609,-0.9803,0.32256
-0.0011597,0.0052756,0.0033659,-0.003235,-0.15107,0.049416,-1.6046,0.0087198,-0.070344,-0.70043,-0.014866,0.29104,0.65475,0.1513,-0.062621,-0.17469,0.035319,-0.45033,-0.75588,0.14687,0.19768,-0.075978,-1.1945,0.20054
-0.003483,-0.0030626,0.00032306,-0.0062967,-0.13673,0.051613,-1.391,0.14682,-0.060381,-0.78372,0.053771,0.28375,0.65378,0.066292,-0.069525,-0.16094,0.033224,-0.37434,-0.74988,0.15108,0.21516,-0.088586,-1.3821,0.033153
-0.0053865,-0.01509,-0.002657,-0.0071871,-0.11657,0.018769,-1.1271,0.31573,-0.047198,-0.85018,0.072336,0.27476,0.64625,0.030649,-0.070657,-0.14596,0.027775,-0.30116,-0.75077,0.15484,0.22057,-0.10923,-1.545,-0.13551
-0.005551,-0.032299,-0.0030255,-0.0059551,-0.097202,-0.046925,-0.85123,0.47966,-0.033071,-0.87827,0.029618,0.2484,0.64022,0.05112,-0.064169,-0.12871,0.022069,-0.25075,-0.75866,0.15757,0.22079,-0.1304,-1.6612,-0.25903
-0.0033,-0.053637,-0.00030608,-0.0045851,-0.083866,-0.12693,-0.60684,0.59626,-0.020156,-0.86407,-0.065275,0.19639,0.63586,0.10891,-0.051236,-0.11007,0.02152,-0.22608,-0.75564,0.16233,0.22467,-0.14284,-1.6985,-0.31356
0.00062028,-0.075104,0.0034174,-0.0051092,-0.080239,-0.20627,-0.42514,0.63565,-0.0099737,-0.82184,-0.18481,0.11986,0.63062,0.1613,-0.039004,-0.091862,0.030144,-0.21208,-0.71231,0.1743,0.23845,-0.13975,-1.6251,-0.30545
0.0042552,-0.091215,0.0052401,-0.0078473,-0.087409,-0.28421,-0.307,0.59528,-0.0032728,-0.77366,-0.29088,0.024674,0.62111,0.15667,-0.039512,-0.076631,0.047228,-0.18512,-0.60955,0.19656,0.26314,-0.11899,-1.4191,-0.25961
0.005801,-0.097527,0.0039312,-0.011293,-0.10221,-0.36701,-0.21962,0.49975,8.528e-005,-0.73527,-0.34936,-0.083105,0.60057,0.060916,-0.062829,-0.067728,0.067369,-0.12604,-0.45781,0.22658,0.29486,-0.083974,-1.0837,-0.20151
0.0051145,-0.092821,0.00099448,-0.013514,-0.11733,-0.45207,-0.11638,0.38441,0.0010169,-0.70727,-0.34756,-0.19688,0.55705,-0.11928,-0.10865,-0.068213,0.084182,-0.029095,-0.29646,0.25667,0.32724,-0.043739,-0.66386,-0.14859
0.0039497,-0.07977,-0.00063905,-0.013687,-0.12519,-0.52179,0.030634,0.27296,0.00047886,-0.67727,-0.30419,-0.30635,0.47695,-0.3331,-0.16333,-0.078288,0.09474,0.095759,-0.17125,0.27811,0.3542,-0.011256,-0.24502,-0.11494
0.0044495,-0.063738,0.00085433,-0.012524,-0.12414,-0.55542,0.20832,0.16443,-0.0016821,-0.63051,-0.26256,-0.39731,0.35306,-0.50712,-0.20568,-0.092867,0.10102,0.22556,-0.10583,0.28608,0.37192,0.00097422,0.074914,-0.1192
0.0070784,-0.050272,0.0046096,-0.011494,-0.12209,-0.54833,0.36818,0.039057,-0.0072479,-0.56146,-0.267,-0.45721,0.19142,-0.57933,-0.21809,-0.10171,0.10709,0.33021,-0.088049,0.28187,0.37947,-0.012965,0.23127,-0.18251
0.0099422,-0.042521,0.0077498,-0.011657,-0.13322,-0.51887,0.45759,-0.12091,-0.018612,-0.47873,-0.3361,-0.48245,0.011772,-0.52487,-0.1953,-0.093169,0.11438,0.38131,-0.080649,0.27111,0.37837,-0.048215,0.22759,-0.31468
0.010351,-0.039912,0.007699,-0.013028,-0.16839,-0.49377,0.45519,-0.31071,-0.03659,-0.40027,-0.4503,-0.48029,-0.15874,-0.36108,-0.14558,-0.059963,0.11924,0.36344,-0.048065,0.25947,0.37183,-0.090507,0.13833,-0.50001
0.0073695,-0.038857,0.0042129,-0.014843,-0.22605,-0.48358,0.38614,-0.4991,-0.058645,-0.34182,-0.56277,-0.46318,-0.295,-0.13504,-0.085028,-0.0037839,0.11495,0.28391,0.019786,0.24886,0.36379,-0.12335,0.079558,-0.69723
0.0029478,-0.035181,-0.00044485,-0.016372,-0.29098,-0.47038,0.30832,-0.64507,-0.079113,-0.30584,-0.62606,-0.44055,-0.38223,0.094048,-0.03005,0.064246,0.097007,0.17395,0.10293,0.23649,0.35793,-0.13684,0.16561,-0.85661
0.00036893,-0.026862,-0.003203,-0.017582,-0.34288,-0.42023,0.28167,-0.72362,-0.091637,-0.27853,-0.61675,-0.4158,-0.4206,0.26859,0.0077296,0.12788,0.067311,0.077736,0.16809,0.21743,0.35682,-0.13241,0.46979,-0.94312
0.001241,-0.015345,-0.0023676,-0.019056,-0.36868,-0.31116,0.34221,-0.74134,-0.092551,-0.23849,-0.54409,-0.39068,-0.42499,0.34386,0.023357,0.17287,0.033797,0.032911,0.19442,0.18875,0.36127,-0.12028,0.99772,-0.94959
0.0038364,-0.0045319,0.0013241,-0.021166,-0.36928,-0.1541,0.49361,-0.73022,-0.083299,-0.1724,-0.44163,-0.37145,-0.41957,0.30104,0.019055,0.19331,0.0055925,0.053865,0.19002,0.15252,0.37028,-0.11184,1.6778,-0.89295
0.0045155,0.0018861,0.0054106,-0.023292,-0.35608,0.010041,0.71347,-0.72524,-0.07037,-0.086213,-0.35155,-0.36853,-0.42833,0.15901,0.0041037,0.19386,-0.012621,0.12786,0.18804,0.11568,0.38141,-0.11189,2.3772,-0.79964
0.0011115,0.0028412,0.0074881,-0.02398,-0.34064,0.13406,0.9625,-0.74307,-0.062365,-0.0016922,-0.31143,-0.38814,-0.46549,-0.026678,-0.0073869,0.18648,-0.022644,0.22575,0.22499,0.086584,0.39133,-0.11525,2.9502,-0.69264
-0.0048522,0.00032877,0.0067158,-0.022213,-0.3265,0.19073,1.191,-0.7769,-0.065283,0.061221,-0.34613,-0.4229,-0.53027,-0.18644,-0.0022648,0.18331,-0.029749,0.31887,0.31611,0.070648,0.39631,-0.10914,3.3057,-0.58695
-0.0093427,-0.0023367,0.0040634,-0.018755,-0.30917,0.1837,1.3472,-0.80772,-0.078547,0.10184,-0.46198,-0.45121,-0.60899,-0.27288,0.023888,0.18971,-0.037382,0.39061,0.44477,0.067867,0.39302,-0.079707,3.4578,-0.4913
-0.0094779,-0.0029895,0.0013478,-0.01614,-0.28337,0.13874,1.394,-0.81958,-0.094666,0.13876,-0.64266,-0.44807,-0.68195,-0.28671,0.06176,0.20175,-0.044143,0.43698,0.57284,0.073638,0.37965,-0.02024,3.517,-0.40903
-0.0062734,-0.0018811,-2.4423e-005,-0.016955,-0.25014,0.085021,1.3272,-0.80605,-0.10364,0.18917,-0.85129,-0.40055,-0.72992,-0.27028,0.090603,0.20986,-0.045533,0.46024,0.66536,0.082013,0.35725,0.062083,3.6185,-0.33585
-0.0037654,-0.00091716,0.00037729,-0.021709,-0.21767,0.04002,1.1807,-0.76629,-0.099705,0.24473,-1.0424,-0.31675,-0.7366,-0.26956,0.088036,0.20662,-0.038648,0.46404,0.71294,0.088957,0.33027,0.14468,3.8272,-0.2584
-0.0051866,-0.0016903,0.0023778,-0.028237,-0.19536,0.0053102,1.0059,-0.69956,-0.085485,0.26938,-1.1802,-0.22233,-0.68864,-0.29251,0.042438,0.19345,-0.02541,0.4545,0.73777,0.093599,0.30527,0.19679,4.0887,-0.15908
-0.0097735,-0.0039884,0.0058483,-0.033354,-0.18691,-0.028035,0.83798,-0.60651,-0.06964,0.22784,-1.2516,-0.14755,-0.57789,-0.29789,-0.039314,0.18129,-0.011342,0.44319,0.78011,0.097209,0.28823,0.19512,4.2633,-0.026691
-0.013322,-0.0059101,0.010764,-0.035416,-0.18846,-0.070445,0.67473,-0.4961,-0.059287,0.12442,-1.2649,-0.11352,-0.4078,-0.22685,-0.13366,0.18402,-0.001098,0.44421,0.8746,0.10111,0.28183,0.14079,4.2215,0.13423
-0.012082,-0.0053849,0.016506,-0.035566,-0.19318,-0.12653,0.48858,-0.38845,-0.053254,0.016425,-1.2363,-0.1244,-0.1997,-0.054956,-0.21134,0.20886,0.0049776,0.46346,1.0308,0.10498,0.28465,0.065204,3.9325,0.30331
-0.0063563,-0.0018795,0.021226,-0.036583,-0.19796,-0.19187,0.26286,-0.30736,-0.042462,-0.016901,-1.1775,-0.16721,0.0083697,0.17653,-0.25177,0.2503,0.0099907,0.48843,1.2282,0.1064,0.29282,0.016447,3.4819,0.45386
-0.00039715,0.0029527,0.022351,-0.040425,-0.20608,-0.25429,0.019151,-0.26648,-0.017977,0.068423,-1.0941,-0.21749,0.17377,0.37686,-0.25276,0.29244,0.01622,0.49062,1.4271,0.1014,0.3025,0.030415,3.0119,0.56499
0.0012964,0.0061285,0.018327,-0.046637,-0.22352,-0.29876,-0.19115,-0.26106,0.019698,0.2426,-0.99437,-0.24822,0.26702,0.46072,-0.22952,0.3185,0.021637,0.44401,1.5873,0.086042,0.31121,0.10475,2.6309,0.62737
-0.0021517,0.0051619,0.010311,-0.052866,-0.25209,-0.31388,-0.32555,-0.27302,0.058383,0.41607,-0.89557,-0.2401,0.28434,0.4031,-0.20303,0.32095,0.020767,0.34754,1.6851,0.058198,0.31703,0.1958,2.3569,0.64073
-0.0074534,-0.00027902,0.002103,-0.056779,-0.28538,-0.29717,-0.38467,-0.28511,0.081828,0.49857,-0.81826,-0.18992,0.24715,0.25541,-0.18489,0.30507,0.0093128,0.23209,1.7194,0.019207,0.31707,0.24437,2.1259,0.60844
-0.010244,-0.0079785,-0.0021586,-0.057618,-0.31136,-0.25637,-0.40972,-0.29202,0.08149,0.45859,-0.77236,-0.11219,0.18974,0.11242,-0.16893,0.28382,-0.011574,0.14243,1.7062,-0.025882,0.30744,0.21462,1.8491,0.53618
-0.00886,-0.014437,-0.0010179,-0.056278,-0.32001,-0.20555,-0.44467,-0.29933,0.062889,0.33829,-0.74928,-0.031368,0.14331,0.053814,-0.13644,0.26832,-0.03521,0.10534,1.6661,-0.069964,0.28548,0.11839,1.4735,0.43579
-0.0055157,-0.017126,0.0030528,-0.054318,-0.31026,-0.15782,-0.49683,-0.31316,0.041263,0.21551,-0.72943,0.032906,0.12509,0.099459,-0.072125,0.261,-0.053473,0.10969,1.6124,-0.10675,0.25274,0.0074389,1.0086,0.32813
-0.0041865,-0.016251,0.0054621,-0.053038,-0.29092,-0.11826,-0.53048,-0.33146,0.030147,0.14696,-0.69909,0.078511,0.13543,0.20454,0.02,0.25598,-0.061427,0.1161,1.5478,-0.13302,0.21582,-0.060324,0.51386,0.23864
-0.0073212,-0.014644,0.0031037,-0.053219,-0.27504,-0.081217,-0.49715,-0.34547,0.032175,0.13726,-0.6598,0.12253,0.16088,0.29301,0.11328,0.24503,-0.058823,0.089883,1.469,-0.14863,0.18402,-0.055255,0.063678,0.18597
-0.014123,-0.015673,-0.0031684,-0.055138,-0.27192,-0.034567,-0.37317,-0.34936,0.039115,0.15238,-0.62126,0.18956,0.1806,0.30466,0.17119,0.2239,-0.048064,0.030014,1.3753,-0.15456,0.165,0.012708,-0.28632,0.17187
-0.021382,-0.02061,-0.0093064,-0.058307,-0.28241,0.030596,-0.17166,-0.34818,0.040164,0.15714,-0.58562,0.29416,0.17497,0.22695,0.16854,0.19469,-0.031438,-0.030678,1.2739,-0.15102,0.16164,0.10937,-0.51869,0.18102
-0.025718,-0.027545,-0.011459,-0.06117,-0.30045,0.1104,0.076761,-0.35612,0.030987,0.14074,-0.54186,0.42996,0.13494,0.096602,0.10705,0.16389,-0.01046,-0.054369,1.1766,-0.13755,0.17182,0.20164,-0.65661,0.19195
-0.02543,-0.032833,-0.0091196,-0.061538,-0.31858,0.18605,0.35036,-0.38629,0.016292,0.11203,-0.47902,0.57342,0.067902,-0.024905,0.015396,0.13861,0.012588,-0.031304,1.0925,-0.11516,0.19089,0.27248,-0.75268,0.19095
-0.021015,-0.033977,-0.0054176,-0.058051,-0.333,0.23267,0.64196,-0.44074,0.0048784,0.077141,-0.40666,0.69918,-0.0053463,-0.084389,-0.065616,0.12368,0.033389,0.011344,1.0211,-0.088039,0.21426,0.31887,-0.86836,0.17836
-0.014574,-0.031574,-0.0044185,-0.051658,-0.34451,0.2347,0.94114,-0.50845,0.002334,0.02678,-0.36029,0.7945,-0.062647,-0.060025,-0.10278,0.12033,0.04671,0.031803,0.95142,-0.062716,0.23865,0.34181,-1.0499,0.1632
-0.0086964,-0.02869,-0.0078344,-0.045622,-0.35521,0.19706,1.2164,-0.57192,0.0076806,-0.053412,-0.38059,0.8609,-0.094259,0.035067,-0.083936,0.12614,0.049387,0.0073904,0.8671,-0.044705,0.2617,0.34132,-1.3098,0.15176
-0.0053004,-0.028239,-0.013845,-0.043509,-0.36421,0.14279,1.4214,-0.61618,0.016018,-0.1614,-0.47995,0.9021,-0.10743,0.16606,-0.019592,0.13635,0.042484,-0.048877,0.75511,-0.035444,0.28141,0.31971,-1.6208,0.14031
-0.00476,-0.030665,-0.018779,-0.046488,-0.36575,0.097852,1.5242,-0.63375,0.023912,-0.26984,-0.62375,0.90991,-0.11705,0.29546,0.065467,0.14688,0.030485,-0.10092,0.61371,-0.032324,0.2962,0.28573,-1.9278,0.11774
-0.005832,-0.033885,-0.020029,-0.052134,-0.35152,0.07425,1.5324,-0.62394,0.032406,-0.34077,-0.74471,0.86314,-0.12914,0.39656,0.14445,0.15823,0.018085,-0.11847,0.45599,-0.031902,0.30509,0.25171,-2.1705,0.07528
-0.0066536,-0.035367,-0.017828,-0.055882,-0.31575,0.064903,1.488,-0.58969,0.045212,-0.35179,-0.78175,0.74438,-0.13129,0.45599,0.19887,0.17714,0.0072711,-0.097453,0.30667,-0.033424,0.30732,0.22479,-2.309,0.014243
-0.0062863,-0.03436,-0.014734,-0.054181,-0.25975,0.053343,1.4331,-0.53541,0.064071,-0.31095,-0.71567,0.56287,-0.099158,0.46869,0.22336,0.21335,-0.003039,-0.057996,0.19189,-0.039439,0.3011,0.20096,-2.3397,-0.054899
-0.005553,-0.032278,-0.013566,-0.046944,-0.19289,0.028656,1.3754,-0.46679,0.085604,-0.24818,-0.57698,0.36341,-0.015306,0.43274,0.22415,0.27213,-0.014917,-0.026328,0.12595,-0.053043,0.28294,0.16862,-2.2951,-0.12136
-0.0062544,-0.031012,-0.015488,-0.037484,-0.12926,-0.0080746,1.2831,-0.39136,0.10256,-0.19225,-0.42355,0.20989,0.1141,0.34923,0.21231,0.3475,-0.029049,-0.018611,0.10186,-0.074393,0.24888,0.11916,-2.2287,-0.18323
-0.0092779,-0.030877,-0.019483,-0.030085,-0.081998,-0.050416,1.1141,-0.31882,0.10859,-0.15338,-0.30772,0.15162,0.2582,0.22631,0.19524,0.422,-0.044006,-0.037952,0.092509,-0.099721,0.19775,0.055124,-2.1909,-0.24908
-0.013314,-0.030202,-0.023284,-0.02711,-0.058571,-0.097446,0.85279,-0.26095,0.10279,-0.12414,-0.25627,0.19532,0.37724,0.081792,0.17132,0.47423,-0.057221,-0.080941,0.062723,-0.12353,0.13407,-0.010941,-2.2091,-0.33046
-0.015539,-0.027022,-0.024939,-0.027729,-0.059014,-0.15574,0.52488,-0.23092,0.090446,-0.093804,-0.27158,0.30273,0.44379,-0.06039,0.13151,0.48968,-0.066221,-0.14225,-0.014235,-0.14171,0.067911,-0.065312,-2.2799,-0.43081
-0.013843,-0.021359,-0.024002,-0.02895,-0.076979,-0.22905,0.18059,-0.24021,0.079401,-0.060774,-0.34333,0.41447,0.45446,-0.17889,0.068066,0.46733,-0.068961,-0.21177,-0.1456,-0.15273,0.010734,-0.10158,-2.3738,-0.53931
-0.0086447,-0.015848,-0.021704,-0.027916,-0.10207,-0.30634,-0.13531,-0.29237,0.07464,-0.032327,-0.45447,0.48244,0.42574,-0.26285,-0.015082,0.41825,-0.06363,-0.2702,-0.31832,-0.15633,-0.030673,-0.12241,-2.4442,-0.63421
-0.0026421,-0.013879,-0.020109,-0.023688,-0.12268,-0.36274,-0.40014,-0.37667,0.075095,-0.014501,-0.57566,0.48923,0.3797,-0.3131,-0.098344,0.35843,-0.049125,-0.29286,-0.50567,-0.15178,-0.058031,-0.13499,-2.435,-0.69286
0.0012975,-0.01665,-0.020766,-0.017392,-0.12972,-0.37668,-0.60709,-0.46791,0.074719,-0.0038273,-0.65851,0.44631,0.33124,-0.33607,-0.15399,0.30149,-0.026496,-0.26322,-0.67452,-0.13797,-0.080243,-0.14563,-2.2852,-0.70141
0.0022154,-0.021733,-0.023722,-0.010989,-0.12079,-0.35013,-0.75037,-0.53641,0.066964,0.01067,-0.64353,0.37917,0.28479,-0.33612,-0.16252,0.25485,-3.7226e-005,-0.18648,-0.79041,-0.11532,-0.10752,-0.158,-1.9409,-0.65829
0.0013678,-0.024684,-0.027559,-0.0058149,-0.10232,-0.31377,-0.82313,-0.56444,0.049578,0.037691,-0.48676,0.31382,0.23898,-0.31312,-0.12748,0.21922,0.02368,-0.090852,-0.8241,-0.087355,-0.14484,-0.17512,-1.3766,-0.57119
0.00072452,-0.022564,-0.030451,-0.0019421,-0.086453,-0.31055,-0.83361,-0.55736,0.026707,0.07604,-0.18994,0.27171,0.19226,-0.26698,-0.07689,0.18917,0.03893,-0.013601,-0.76351,-0.0599,-0.18909,-0.20091,-0.6181,-0.45199
0.0012211,-0.016408,-0.031457,0.0014519,-0.082989,-0.36895,-0.82223,-0.53942,0.0071682,0.1166,0.18984,0.26912,0.14426,-0.2042,-0.047746,0.15444,0.043989,0.018586,-0.62703,-0.037917,-0.23136,-0.23845,0.2528,-0.31408
0.0023449,-0.010352,-0.03104,0.0053116,-0.091507,-0.48556,-0.8549,-0.53529,1.5893e-005,0.15193,0.56371,0.314,0.093794,-0.1393,-0.061993,0.10384,0.041774,0.0014125,-0.46593,-0.022616,-0.26248,-0.28506,1.1239,-0.17219
0.003213,-0.0080162,-0.030439,0.010174,-0.10066,-0.62745,-0.98485,-0.55125,0.0098848,0.18443,0.85582,0.39966,0.038025,-0.088256,-0.1108,0.032091,0.037347,-0.049279,-0.34606,-0.011122,-0.27789,-0.32824,1.8996,-0.04111
0.0038807,-0.0093129,-0.030499,0.016053,-0.096433,-0.74873,-1.2052,-0.5714,0.034541,0.22515,1.04,0.50213,-0.024889,-0.059288,-0.15945,-0.05395,0.034341,-0.10903,-0.31423,0.0010759,-0.279,-0.34644,2.5404,0.06909
0.0054906,-0.010587,-0.031057,0.022512,-0.07318,-0.80731,-1.4305,-0.57259,0.065877,0.28338,1.1439,0.58784,-0.092429,-0.049208,-0.17085,-0.13548,0.03322,-0.15617,-0.37074,0.016851,-0.27099,-0.31657,3.069,0.15895
0.0090569,-0.0080274,-0.031349,0.028721,-0.03804,-0.77394,-1.5315,-0.5451,0.093775,0.35529,1.2207,0.6296,-0.15812,-0.049087,-0.13093,-0.19054,0.032432,-0.17768,-0.47024,0.035661,-0.25901,-0.22613,3.537,0.24055
0.014022,-0.0012428,-0.030886,0.033674,-0.0045764,-0.63691,-1.4122,-0.50106,0.11069,0.42065,1.3119,0.62062,-0.21634,-0.054304,-0.057092,-0.20642,0.030833,-0.171,-0.55427,0.054106,-0.24551,-0.084,3.9767,0.33029
0.018031,0.0063315,-0.02982,0.036695,0.018746,-0.40853,-1.0809,-0.46297,0.11441,0.4515,1.4269,0.5764,-0.2666,-0.069603,0.016546,-0.18659,0.028823,-0.14433,-0.59307,0.068025,-0.22987,0.076792,4.3701,0.43722
0.018379,0.010563,-0.028492,0.038061,0.034929,-0.13129,-0.66557,-0.44276,0.10774,0.4281,1.5511,0.52329,-0.31142,-0.10409,0.065248,-0.14674,0.0273,-0.11487,-0.60466,0.074714,-0.21011,0.20853,4.6522,0.55575
0.014117,0.010332,-0.026874,0.039129,0.054235,0.12728,-0.35549,-0.43001,0.095828,0.35216,1.6649,0.48232,-0.34819,-0.16047,0.090096,-0.10343,0.025991,-0.10148,-0.63485,0.074321,-0.18547,0.26812,4.7403,0.66866
0.0071228,0.0083344,-0.024728,0.041583,0.083906,0.29801,-0.30117,-0.3996,0.083379,0.24889,1.7564,0.45897,-0.36283,-0.22859,0.11224,-0.064715,0.02342,-0.11242,-0.71277,0.070126,-0.15812,0.23725,4.5663,0.75814
0.0011127,0.00832,-0.022381,0.04616,0.12154,0.34242,-0.53423,-0.33179,0.073353,0.15522,1.8163,0.44356,-0.3342,-0.28972,0.15077,-0.029762,0.018947,-0.13604,-0.81752,0.06766,-0.13317,0.13196,4.0971,0.81599
-0.00078394,0.011543,-0.021005,0.051857,0.15743,0.27233,-0.95678,-0.22763,0.067054,0.10025,1.8261,0.41845,-0.2498,-0.32843,0.20348,0.0038922,0.014839,-0.14435,-0.88397,0.072783,-0.11644,-0.0045928,3.3425,0.84573
0.001899,0.015879,-0.021691,0.05645,0.18188,0.1403,-1.4032,-0.10797,0.064294,0.089314,1.7549,0.36515,-0.12169,-0.34241,0.24654,0.033463,0.015742,-0.11155,-0.84516,0.089235,-0.11125,-0.12294,2.3602,0.85672
0.0068385,0.018338,-0.023968,0.05807,0.18946,0.0065107,-1.7314,0.00084195,0.062951,0.10181,1.5748,0.26824,0.012071,-0.34245,0.25273,0.050935,0.025198,-0.035995,-0.6794,0.11672,-0.11582,-0.18957,1.2612,0.85707
0.010794,0.018314,-0.025441,0.056649,0.17647,-0.093409,-1.8873,0.081196,0.058929,0.10547,1.284,0.11805,0.10553,-0.34341,0.21277,0.049062,0.041758,0.0516,-0.4263,0.1506,-0.12317,-0.19817,0.20739,0.85153
0.011939,0.018206,-0.023392,0.05396,0.13682,-0.15679,-1.9108,0.12816,0.048018,0.078487,0.91964,-0.084525,0.13167,-0.35418,0.14242,0.026642,0.058245,0.10276,-0.16054,0.18347,-0.12435,-0.16492,-0.61121,0.84473
0.010816,0.020755,-0.017225,0.05213,0.063919,-0.19686,-1.8927,0.14387,0.029365,0.024526,0.54894,-0.32206,0.098459,-0.37371,0.071021,-0.012192,0.065443,0.08042,0.054924,0.20786,-0.11322,-0.11349,-1.0218,0.84456
0.0093319,0.02582,-0.0094739,0.051843,-0.040488,-0.2199,-1.9157,0.13151,0.0077835,-0.030925,0.23867,-0.55887,0.041626,-0.39387,0.022243,-0.06321,0.057889,-0.017815,0.2011,0.21885,-0.090184,-0.061171,-0.92766,0.86082
0.0088787,0.02996,-0.0041609,0.051785,-0.15879,-0.21822,-2.0111,0.095566,-0.0080541,-0.061233,0.020441,-0.74867,-0.00022494,-0.40433,0.0025873,-0.12565,0.0375,-0.15881,0.30054,0.21553,-0.062165,-0.014067,-0.35718,0.89902
0.0093005,0.029457,-0.0037238,0.049851,-0.26124,-0.18276,-2.1454,0.046657,-0.01138,-0.061144,-0.12751,-0.85108,-0.0091859,-0.39558,0.0045678,-0.20005,0.012262,-0.29523,0.38892,0.20114,-0.038586,0.028928,0.51879,0.95406
0.0094767,0.023991,-0.0071894,0.045067,-0.32165,-0.11923,-2.2343,0.0029316,-0.0027984,-0.053122,-0.26829,-0.8494,0.0062497,-0.36034,0.018498,-0.28303,-0.0090576,-0.39267,0.48745,0.18184,-0.025836,0.069732,1.4205,1.0097
0.0087437,0.017366,-0.011219,0.038545,-0.33376,-0.048886,-2.1774,-0.016794,0.0095961,-0.071276,-0.46775,-0.75925,0.024159,-0.29648,0.040886,-0.36548,-0.022209,-0.44406,0.59593,0.16434,-0.023632,0.10816,2.0426,1.0451
0.007645,0.014449,-0.013068,0.032668,-0.31433,0.0088465,-1.9032,-0.0046393,0.016502,-0.13476,-0.75,-0.62244,0.027249,-0.21183,0.072843,-0.43749,-0.028979,-0.46388,0.70524,0.15283,-0.025339,0.14286,2.1628,1.0458
0.007277,0.016988,-0.012787,0.029271,-0.28902,0.056426,-1.4118,0.029429,0.015307,-0.23201,-1.074,-0.48819,0.011585,-0.12667,0.11226,-0.49609,-0.034201,-0.47004,0.81224,0.14689,-0.021706,0.17238,1.7295,1.0108
0.0079637,0.022101,-0.012783,0.028425,-0.27203,0.12134,-0.78863,0.062448,0.012625,-0.32915,-1.3467,-0.39135,-0.016982,-0.068881,0.14889,-0.54776,-0.040916,-0.46761,0.92265,0.14175,-0.0055646,0.19366,0.88187,0.95205
0.0087019,0.024793,-0.015269,0.028726,-0.25617,0.23744,-0.17685,0.073199,0.018538,-0.39627,-1.4661,-0.33902,-0.050683,-0.06183,0.16787,-0.60197,-0.047508,-0.44422,1.0423,0.13162,0.024841,0.19938,-0.11242,0.88532
0.0080464,0.022257,-0.019974,0.028584,-0.22117,0.41819,0.28749,0.056844,0.036881,-0.43063,-1.3682,-0.31247,-0.083849,-0.1119,0.15867,-0.66045,-0.048821,-0.37776,1.1679,0.11422,0.064967,0.17854,-0.97191,0.81804
0.0056107,0.016164,-0.024098,0.027258,-0.15235,0.64205,0.53958,0.028546,0.059932,-0.45811,-1.0523,-0.28264,-0.11329,-0.20406,0.12191,-0.71173,-0.04013,-0.25078,1.2865,0.093385,0.10547,0.12228,-1.5086,0.74296
0.0026511,0.01106,-0.024452,0.024929,-0.053976,0.85993,0.6076,0.012604,0.072699,-0.51237,-0.57662,-0.22959,-0.14071,-0.30891,0.068755,-0.73704,-0.020872,-0.064067,1.3804,0.077167,0.13575,0.032244,-1.6755,0.64137
0.0010477,0.010378,-0.019944,0.022146,0.053042,1.0177,0.57565,0.024213,0.064018,-0.60813,-0.033855,-0.15399,-0.17836,-0.39661,0.014164,-0.72351,0.0044825,0.15684,1.4316,0.072406,0.14883,-0.074293,-1.5437,0.4938
0.0016082,0.013588,-0.012449,0.01941,0.1452,1.0782,0.51599,0.056984,0.03572,-0.72866,0.47561,-0.073843,-0.25006,-0.4489,-0.030273,-0.67417,0.028828,0.36707,1.421,0.079532,0.14582,-0.1672,-1.2359,0.29064
0.0033741,0.016827,-0.0055057,0.017131,0.20952,1.0314,0.44394,0.086009,0.0024221,-0.83503,0.86595,-0.0096946,-0.37956,-0.46284,-0.059364,-0.60623,0.046275,0.5202,1.3297,0.091764,0.13704,-0.21441,-0.86183,0.036511
0.0046645,0.016309,-0.0018992,0.015541,0.24618,0.89302,0.33064,0.085125,-0.017978,-0.88823,1.0852,0.030388,-0.56901,-0.44612,-0.072899,-0.53884,0.054895,0.59109,1.1484,0.099576,0.13768,-0.19652,-0.48312,-0.25208
0.0048158,0.011556,-0.0018784,0.014311,0.26179,0.6963,0.15966,0.046059,-0.015756,-0.86836,1.132,0.054927,-0.78434,-0.40855,-0.072461,-0.48024,0.056722,0.59008,0.89226,0.097107,0.15911,-0.11824,-0.11174,-0.5511
0.004776,0.0058003,-0.0031669,0.012317,0.26196,0.48271,-0.026336,-0.014966,0.0056638,-0.78044,1.0613,0.079503,-0.96392,-0.3555,-0.058757,-0.42427,0.055221,0.55658,0.60836,0.085513,0.20102,-0.0098047,0.26844,-0.83157
0.0058123,0.0033639,-0.0027248,0.0082715,0.24995,0.2904,-0.13592,-0.068388,0.034046,-0.64697,0.96468,0.11171,-1.05,-0.28655,-0.029951,-0.35821,0.052087,0.53323,0.363,0.070801,0.25023,0.08447,0.67235,-1.0614
0.0076007,0.0062362,0.0009227,0.0020582,0.22994,0.14205,-0.09351,-0.091746,0.057611,-0.49502,0.92786,0.14316,-1.0224,-0.19948,0.019015,-0.27463,0.04573,0.53702,0.21055,0.058248,0.28811,0.12671,1.0899,-1.2116
0.0078299,0.012515,0.00641,-0.0044581,0.20913,0.037932,0.09498,-0.083837,0.071889,-0.34538,0.98505,0.15535,-0.9089,-0.096701,0.094987,-0.17764,0.032729,0.5489,0.16288,0.048294,0.30204,0.10461,1.4791,-1.267
0.0041181,0.01777,0.010352,-0.0083633,0.19495,-0.038172,0.33438,-0.062645,0.079767,-0.20783,1.1017,0.13496,-0.765,0.0093499,0.20163,-0.079602,0.011359,0.53058,0.18162,0.037196,0.29293,0.036868,1.7806,-1.2372
-0.0033417,0.018144,0.0099034,-0.0080373,0.19032,-0.10013,0.50211,-0.050513,0.08609,-0.082937,1.1986,0.086047,-0.63817,0.095335,0.33193,0.0073592,-0.015506,0.45691,0.20098,0.021446,0.27339,-0.039719,1.9474,-1.1549
-0.011055,0.012883,0.0052593,-0.0049392,0.19235,-0.13963,0.53143,-0.059687,0.091885,0.031364,1.2018,0.029184,-0.54427,0.13168,0.46286,0.077276,-0.040793,0.33912,0.16703,0.0016883,0.25853,-0.09389,1.9674,-1.0589
-0.014554,0.0046348,2.0345e-005,-0.002946,0.19598,-0.1228,0.44842,-0.089067,0.09272,0.13263,1.0815,-0.01223,-0.47046,0.091396,0.55799,0.1296,-0.057188,0.22109,0.067066,-0.017334,0.25677,-0.11729,1.8643,-0.96893
-0.012046,-0.0024554,-0.0012641,-0.0054291,0.19833,-0.010981,0.33447,-0.13188,0.082059,0.21122,0.85661,-0.028052,-0.3964,-0.039885,0.57956,0.16448,-0.061918,0.15123,-0.069533,-0.030455,0.26757,-0.12286,1.6752,-0.8718
-0.0061625,-0.0053953,0.0032707,-0.012468,0.19882,0.20553,0.25043,-0.1846,0.056759,0.25546,0.56842,-0.027904,-0.31231,-0.25555,0.50489,0.18003,-0.058517,0.15119,-0.19679,-0.035857,0.28617,-0.12657,1.4257,-0.7307
-0.0020448,-0.003981,0.010948,-0.020708,0.19525,0.48563,0.1904,-0.24798,0.020518,0.26187,0.25143,-0.034328,-0.21979,-0.52345,0.33777,0.17443,-0.05397,0.20332,-0.28411,-0.035684,0.30979,-0.12905,1.1246,-0.51602
-0.0032063,-0.00051748,0.016316,-0.026078,0.18142,0.74691,0.10359,-0.32013,-0.017396,0.24261,-0.073791,-0.069531,-0.11996,-0.78734,0.1081,0.15043,-0.053469,0.26423,-0.33297,-0.033513,0.33896,-0.11403,0.77991,-0.23591
-0.0087152,0.0019809,0.015426,-0.026967,0.15094,0.90437,-0.040151,-0.38935,-0.04759,0.22213,-0.38712,-0.14695,-0.0052552,-0.97663,-0.13942,0.11678,-0.05719,0.29211,-0.37026,-0.031514,0.37334,-0.065529,0.41623,0.056611
-0.014129,0.0018105,0.0091859,-0.025095,0.10484,0.91453,-0.2052,-0.43493,-0.066638,0.22246,-0.65648,-0.27301,0.13465,-1.0253,-0.3605,0.084501,-0.061681,0.26826,-0.42703,-0.029893,0.40713,0.011807,0.070365,0.28816
-0.015318,-0.00048297,0.002835,-0.023501,0.055187,0.79569,-0.30937,-0.43654,-0.079484,0.24616,-0.84613,-0.45376,0.299,-0.89618,-0.52247,0.060808,-0.064282,0.20007,-0.51943,-0.028488,0.42957,0.088418,-0.23656,0.40547
-0.011806,-0.0027384,0.0017708,-0.023749,0.019264,0.61216,-0.29095,-0.38578,-0.095992,0.26938,-0.94159,-0.69492,0.46969,-0.60005,-0.60888,0.046483,-0.066083,0.10881,-0.64333,-0.028083,0.43099,0.12738,-0.5261,0.40369
-0.006795,-0.0028276,0.0071102,-0.024983,0.0078575,0.43516,-0.16253,-0.29192,-0.12348,0.25214,-0.96587,-0.9893,0.62089,-0.19885,-0.61956,0.03886,-0.070388,0.015082,-0.78266,-0.029557,0.40934,0.11002,-0.85941,0.32262
-0.0041383,-0.00016385,0.014717,-0.025485,0.017712,0.30826,-0.0013008,-0.17842,-0.16024,0.16132,-0.96424,-1.2986,0.73616,0.21389,-0.56936,0.037247,-0.07807,-0.066756,-0.92276,-0.031694,0.37136,0.04862,-1.2976,0.21523
-0.0051391,0.0038804,0.018553,-0.024904,0.035627,0.23837,0.11794,-0.072768,-0.19473,-0.0068348,-0.96194,-1.5467,0.81593,0.54849,-0.48495,0.044982,-0.084501,-0.12563,-1.0592,-0.030362,0.32766,-0.023954,-1.8503,0.11305
-0.0079502,0.0068247,0.015594,-0.024866,0.051262,0.21199,0.19076,0.0052936,-0.21153,-0.21843,-0.92744,-1.64,0.86789,0.75375,-0.39716,0.065632,-0.081625,-0.15118,-1.1978,-0.020816,0.28634,-0.078166,-2.4518,0.0142
-0.0097188,0.0065932,0.0082943,-0.027421,0.067467,0.21787,0.29426,0.051932,-0.20019,-0.41316,-0.77829,-1.5099,0.89031,0.83256,-0.32914,0.096863,-0.064004,-0.13926,-1.3471,-0.0017665,0.25049,-0.10551,-2.9842,-0.099518
-0.0091579,0.0027501,0.0026423,-0.032968,0.098649,0.25645,0.53059,0.080591,-0.16111,-0.52892,-0.43786,-1.1566,0.86738,0.83056,-0.28615,0.12839,-0.033769,-0.1022,-1.5088,0.022389,0.22075,-0.11709,-3.3379,-0.23368
-0.0071888,-0.0032528,0.0034486,-0.039687,0.15807,0.33127,0.94494,0.11502,-0.10471,-0.52605,0.090918,-0.6614,0.78403,0.80551,-0.25542,0.14708,2.9832e-006,-0.071744,-1.6711,0.043723,0.19914,-0.12737,-3.4701,-0.36643
-0.0054683,-0.0089457,0.010611,-0.044976,0.24464,0.43446,1.4783,0.17543,-0.044773,-0.3989,0.69074,-0.15441,0.64726,0.7955,-0.21854,0.14567,0.027221,-0.08535,-1.81,0.056235,0.18972,-0.13902,-3.4266,-0.46086
-0.004665,-0.01232,0.019207,-0.04749,0.34013,0.54211,1.9871,0.26347,0.0090865,-0.17148,1.1704,0.24883,0.49153,0.80343,-0.16829,0.1277,0.043199,-0.16112,-1.8995,0.060344,0.19535,-0.14167,-3.3146,-0.49405
-0.0042774,-0.013017,0.023218,-0.048011,0.41921,0.62447,2.3163,0.35518,0.054531,0.11541,1.3644,0.50329,0.359,0.8035,-0.11655,0.10425,0.050372,-0.28028,-1.9247,0.062461,0.21397,-0.12365,-3.2426,-0.47803
-0.0038767,-0.012437,0.019973,-0.048575,0.46423,0.66165,2.3775,0.40859,0.093641,0.41457,1.2288,0.64691,0.26941,0.76248,-0.085751,0.084875,0.05428,-0.39438,-1.8899,0.069507,0.23835,-0.084662,-3.2633,-0.45487
-0.0040632,-0.012624,0.012001,-0.050789,0.47418,0.65108,2.1893,0.38459,0.12695,0.67563,0.86554,0.76173,0.20655,0.66123,-0.090216,0.070409,0.057628,-0.45607,-1.8142,0.082587,0.2598,-0.037948,-3.3505,-0.46952
-0.005847,-0.014657,0.005032,-0.054703,0.46224,0.60144,1.857,0.26909,0.14968,0.8472,0.45574,0.91132,0.13516,0.50538,-0.12342,0.053396,0.057607,-0.45175,-1.7173,0.095089,0.27256,-0.00087155,-3.4231,-0.54193
-0.0090915,-0.01771,0.0037766,-0.058913,0.4454,0.51956,1.5089,0.082429,0.15376,0.88773,0.14867,1.0978,0.034888,0.32242,-0.16264,0.025461,0.048547,-0.41016,-1.6052,0.097214,0.27534,0.017056,-3.401,-0.65911
-0.011947,-0.019587,0.0086451,-0.061551,0.43418,0.40212,1.2255,-0.13067,0.13449,0.7861,-0.016686,1.2662,-0.078271,0.1505,-0.18735,-0.01498,0.027332,-0.3797,-1.4689,0.083622,0.26979,0.018715,-3.261,-0.79043
-0.012327,-0.018447,0.015777,-0.06142,0.42898,0.2382,1.0048,-0.32323,0.096644,0.57826,-0.10718,1.3491,-0.16207,0.025846,-0.19526,-0.061198,-0.0031955,-0.39274,-1.2976,0.058061,0.25819,0.014156,-3.0558,-0.91082
-0.010207,-0.014474,0.020199,-0.058719,0.42377,0.020155,0.78112,-0.46498,0.054388,0.34163,-0.22251,1.3146,-0.18123,-0.026826,-0.20142,-0.10374,-0.03568,-0.44614,-1.0979,0.030882,0.24304,0.011901,-2.8829,-1.012
-0.0082774,-0.010178,0.019606,-0.055105,0.4132,-0.24525,0.48714,-0.54667,0.023891,0.16175,-0.41595,1.1838,-0.13544,-0.00027553,-0.22165,-0.13797,-0.063247,-0.51218,-0.90161,0.011051,0.22846,0.014867,-2.821,-1.0951
-0.0097615,-0.0089184,0.01588,-0.053026,0.39771,-0.5322,0.11285,-0.57119,0.013211,0.08901,-0.66587,1.008,-0.059468,0.093056,-0.25538,-0.16723,-0.083863,-0.56717,-0.75534,-0.001039,0.2206,0.023241,-2.8758,-1.1542
-0.015066,-0.012646,0.013265,-0.054457,0.38322,-0.80062,-0.27977,-0.54263,0.017092,0.11457,-0.90652,0.82796,0.0021395,0.22375,-0.28418,-0.1991,-0.10056,-0.61038,-0.69635,-0.013848,0.22544,0.039444,-2.9761,-1.1703
-0.020501,-0.020498,0.014751,-0.059639,0.37576,-1.0099,-0.59967,-0.46384,0.021046,0.18307,-1.0808,0.64984,0.022801,0.35414,-0.2875,-0.23858,-0.11741,-0.65699,-0.73068,-0.037322,0.24457,0.068616,-3.0234,-1.1214
-0.020793,-0.029366,0.019594,-0.06668,0.37471,-1.137,-0.79474,-0.34317,0.012067,0.23225,-1.17,0.45304,0.0025388,0.45115,-0.26147,-0.28372,-0.13463,-0.71476,-0.82689,-0.073462,0.2724,0.11294,-2.9606,-1.0024
-0.013628,-0.036021,0.023936,-0.072574,0.36928,-1.1917,-0.89133,-0.20158,-0.012149,0.22969,-1.1877,0.22038,-0.044073,0.49752,-0.22352,-0.32706,-0.14685,-0.76929,-0.92898,-0.11254,0.29732,0.16479,-2.8056,-0.83671
-0.0022395,-0.039117,0.023939,-0.075127,0.34186,-1.2156,-0.97191,-0.070985,-0.042558,0.18168,-1.1571,-0.038079,-0.10413,0.49537,-0.19813,-0.36121,-0.14614,-0.79362,-0.97997,-0.13853,0.30644,0.20572,-2.6233,-0.6685
0.0065474,-0.039508,0.018846,-0.074415,0.27715,-1.2624,-1.1063,0.017684,-0.066822,0.11317,-1.0987,-0.28769,-0.17072,0.46094,-0.1951,-0.38352,-0.12782,-0.77222,-0.94365,-0.14014,0.2912,0.21436,-2.457,-0.53957
0.0074391,-0.038795,0.011474,-0.072555,0.17212,-1.3636,-1.2901,0.049596,-0.079134,0.04005,-1.0359,-0.49536,-0.23541,0.41513,-0.19869,-0.39644,-0.094594,-0.71414,-0.81449,-0.11897,0.25058,0.17943,-2.277,-0.46778
0.0006725,-0.037666,0.0058908,-0.071873,0.040178,-1.5035,-1.4397,0.033931,-0.083777,-0.043026,-1.0004,-0.65651,-0.28302,0.37633,-0.1766,-0.40391,-0.055912,-0.64052,-0.61361,-0.088744,0.19079,0.11011,-1.9945,-0.44172
-0.0085138,-0.035754,0.0043232,-0.072964,-0.093691,-1.6229,-1.4483,-0.0011421,-0.090132,-0.15221,-1.0212,-0.80017,-0.29972,0.35804,-0.10248,-0.40753,-0.022515,-0.55769,-0.37499,-0.066059,0.12234,0.036979,-1.5362,-0.43381
-0.014332,-0.033093,0.0058742,-0.074227,-0.20427,-1.6552,-1.2615,-0.024139,-0.10414,-0.29368,-1.0973,-0.96738,-0.2891,0.36773,0.024148,-0.40612,-0.00016936,-0.44456,-0.12983,-0.059957,0.056489,0.0014261,-0.92483,-0.42072
-0.014815,-0.031409,0.0078946,-0.073275,-0.27677,-1.5709,-0.916,-0.017728,-0.12369,-0.45091,-1.1781,-1.1789,-0.27851,0.40269,0.17394,-0.39868,0.012944,-0.27155,0.1039,-0.067851,0.0025377,0.037241,-0.29585,-0.39568
-0.012422,-0.033337,0.0085172,-0.068973,-0.31062,-1.3972,-0.5163,0.012297,-0.14106,-0.58951,-1.1748,-1.4162,-0.30374,0.44402,0.30122,-0.38756,0.023274,-0.037878,0.32306,-0.079992,-0.033551,0.15204,0.17023,-0.36571
-0.010845,-0.039763,0.007985,-0.062414,-0.3153,-1.1985,-0.17032,0.042174,-0.14935,-0.67521,-1.0073,-1.6289,-0.37997,0.45632,0.36567,-0.37806,0.035798,0.20747,0.53289,-0.087876,-0.049419,0.31792,0.35804,-0.33903
-0.011384,-0.04781,0.0077082,-0.056063,-0.30273,-1.0299,0.066767,0.046506,-0.14682,-0.69222,-0.66002,-1.7638,-0.48262,0.40049,0.34963,-0.37434,0.049666,0.38646,0.73719,-0.089664,-0.046057,0.47821,0.28957,-0.31508
-0.012239,-0.052019,0.0081866,-0.051887,-0.28236,-0.9049,0.20456,0.015108,-0.13636,-0.65073,-0.20736,-1.7955,-0.55646,0.25728,0.26334,-0.37499,0.059074,0.44423,0.93064,-0.089185,-0.027567,0.57023,0.10475,-0.28565
-0.010936,-0.048518,0.007979,-0.050006,-0.26107,-0.79938,0.28498,-0.041337,-0.12196,-0.57964,0.21529,-1.7372,-0.54945,0.048192,0.1377,-0.37259,0.058418,0.39237,1.097,-0.090978,-0.001029,0.555,-0.034349,-0.24506
-0.0070684,-0.038798,0.004844,-0.04889,-0.24559,-0.6883,0.33706,-0.10078,-0.10619,-0.5091,0.48413,-1.6261,-0.44704,-0.16379,0.010207,-0.35835,0.04722,0.30567,1.2138,-0.096622,0.024169,0.43838,-0.043357,-0.19868
-0.0026021,-0.029394,-0.0019485,-0.046732,-0.24299,-0.57836,0.35442,-0.14672,-0.09017,-0.45284,0.55722,-1.4939,-0.28221,-0.30019,-0.089314,-0.32828,0.0306,0.27076,1.2603,-0.10532,0.038485,0.27043,0.051768,-0.16022
0.00024045,-0.02706,-0.010326,-0.042791,-0.25767,-0.50742,0.30864,-0.17862,-0.074555,-0.40073,0.49357,-1.3461,-0.1155,-0.30832,-0.14747,-0.28544,0.015096,0.32544,1.227,-0.11691,0.035786,0.12059,0.16399,-0.13839
0.0010356,-0.033203,-0.016489,-0.037661,-0.28716,-0.51076,0.18261,-0.20677,-0.059476,-0.32731,0.40545,-1.1649,-0.0017723,-0.19278,-0.16818,-0.2361,0.0038074,0.43589,1.121,-0.13322,0.016424,0.041162,0.22674,-0.1243
0.001019,-0.042438,-0.017614,-0.032441,-0.32073,-0.5843,-0.0046969,-0.23632,-0.043729,-0.21202,0.37745,-0.93372,0.033331,-0.015171,-0.16588,-0.18267,-0.0047947,0.52858,0.96728,-0.15566,-0.012954,0.039679,0.2399,-0.092153
0.0011768,-0.046805,-0.013994,-0.027665,-0.34246,-0.67621,-0.2012,-0.25457,-0.025369,-0.058564,0.41221,-0.66372,-0.0039882,0.1403,-0.15455,-0.1189,-0.013663,0.54895,0.80344,-0.18149,-0.04391,0.077024,0.25137,-0.015744
0.00090227,-0.042256,-0.0088961,-0.022934,-0.33683,-0.713,-0.34873,-0.2339,-0.0043742,0.10095,0.44274,-0.39829,-0.087629,0.21467,-0.13822,-0.031444,-0.023041,0.49936,0.66793,-0.20313,-0.072494,0.092971,0.30281,0.11051
-0.00118,-0.031898,-0.0062809,-0.017463,-0.29342,-0.63771,-0.4132,-0.14892,0.015077,0.2219,0.39883,-0.1906,-0.1848,0.20442,-0.10874,0.093431,-0.029557,0.42837,0.58612,-0.21228,-0.10237,0.043808,0.39294,0.26252
-0.005102,-0.023251,-0.0081523,-0.010981,-0.2085,-0.43242,-0.39669,0.0057447,0.026169,0.27345,0.27168,-0.070947,-0.2637,0.15462,-0.053023,0.26205,-0.02932,0.38584,0.55979,-0.206,-0.14155,-0.071055,0.48662,0.39751
-0.0085471,-0.021952,-0.013437,-0.0041477,-0.08443,-0.11586,-0.32591,0.21146,0.025036,0.25672,0.12446,-0.03001,-0.2986,0.12142,0.03423,0.46872,-0.021765,0.38449,0.56671,-0.18915,-0.19463,-0.20969,0.55103,0.47766
-0.0082994,-0.027305,-0.018989,0.0018648,0.07132,0.27205,-0.2289,0.43786,0.016042,0.20162,0.042525,-0.030964,-0.27712,0.13118,0.14112,0.6956,-0.010383,0.39876,0.5723,-0.17088,-0.25688,-0.3141,0.57869,0.48914
-0.0029953,-0.03326,-0.021801,0.0062794,0.2464,0.68238,-0.11881,0.66072,0.011443,0.14531,0.067341,-0.03914,-0.20704,0.16488,0.24021,0.9161,0.00029523,0.39654,0.5477,-0.15757,-0.31568,-0.34484,0.57704,0.44433
0.0053675,-0.033634,-0.020846,0.0093467,0.42424,1.063,0.0044396,0.87089,0.024418,0.10963,0.1685,-0.044259,-0.11506,0.17656,0.30185,1.1007,0.00828,0.37193,0.48352,-0.14847,-0.35886,-0.30157,0.54281,0.36872
0.012628,-0.026955,-0.01748,0.012211,0.58672,1.368,0.13895,1.0695,0.060374,0.094298,0.27253,-0.05872,-0.033524,0.12946,0.3107,1.2249,0.014654,0.34974,0.39023,-0.13792,-0.38342,-0.21841,0.45475,0.28561
0.015392,-0.017107,-0.014363,0.016125,0.71923,1.5764,0.26626,1.2564,0.11328,0.088207,0.31903,-0.097464,0.016978,0.02242,0.27357,1.2773,0.020707,0.36067,0.28616,-0.1222,-0.39726,-0.14002,0.29744,0.20955
0.013261,-0.009771,-0.013734,0.02162,0.81591,1.7119,0.35003,1.425,0.16958,0.085499,0.29663,-0.15988,0.035664,-0.1114,0.21281,1.2655,0.024899,0.41176,0.18373,-0.10479,-0.41244,-0.09598,0.092433,0.14928
0.0087079,-0.0080379,-0.016121,0.028235,0.88157,1.8397,0.34975,1.5676,0.21604,0.090425,0.23508,-0.22947,0.033412,-0.22911,0.15004,1.2143,0.023122,0.47834,0.085791,-0.094882,-0.43577,-0.089463,-0.099189,0.11109
0.0050178,-0.010637,-0.020182,0.034926,0.92812,2.0317,0.24123,1.685,0.24509,0.10797,0.17012,-0.28876,0.016044,-0.30574,0.092795,1.1558,0.012403,0.52234,-0.0061489,-0.099843,-0.46459,-0.10354,-0.21456,0.095429
0.0041674,-0.013591,-0.023683,0.040785,0.96699,2.3128,0.032665,1.7902,0.25473,0.13214,0.11634,-0.33353,-0.024956,-0.34559,0.033625,1.115,-0.0052982,0.51907,-0.082773,-0.11795,-0.49109,-0.11701,-0.23875,0.089212
0.00613,-0.013361,-0.024895,0.045532,1.0019,2.6259,-0.23085,1.9008,0.24521,0.14638,0.06733,-0.37319,-0.10485,-0.37251,-0.039256,1.0994,-0.022854,0.46992,-0.13039,-0.13785,-0.51046,-0.11798,-0.22221,0.064322
0.0095995,-0.0089435,-0.023535,0.049475,1.0269,2.8443,-0.47543,2.0242,0.21735,0.13765,0.013068,-0.41861,-0.22749,-0.40984,-0.12975,1.098,-0.031761,0.39399,-0.14819,-0.14565,-0.52527,-0.10911,-0.24591,-0.010181
0.013049,-0.0018225,-0.020694,0.053087,1.0312,2.8333,-0.6169,2.151,0.174,0.11118,-0.048223,-0.47007,-0.37318,-0.46509,-0.23002,1.0893,-0.027,0.31004,-0.16387,-0.13415,-0.5422,-0.10489,-0.35959,-0.14646
0.015253,0.0055189,-0.017963,0.056571,1.0068,2.5215,-0.58608,2.2587,0.12237,0.090153,-0.11359,-0.51584,-0.50459,-0.52724,-0.32626,1.0526,-0.0093438,0.2255,-0.22849,-0.10701,-0.56415,-0.12432,-0.54323,-0.32163
0.015367,0.011124,-0.016456,0.05973,0.95443,1.9378,-0.35486,2.3266,0.072985,0.098712,-0.18359,-0.54126,-0.58662,-0.57415,-0.40662,0.97655,0.016037,0.13958,-0.3865,-0.074965,-0.58523,-0.18132,-0.7243,-0.48073
0.013166,0.014289,-0.016351,0.062198,0.88315,1.1893,0.047408,2.3487,0.035013,0.14186,-0.26054,-0.5388,-0.60454,-0.58317,-0.46367,0.86077,0.042872,0.053188,-0.64021,-0.04782,-0.59297,-0.27475,-0.83599,-0.56067
0.0095277,0.015505,-0.017057,0.063868,0.80592,0.39911,0.53834,2.3368,0.011181,0.19959,-0.33737,-0.51091,-0.5665,-0.54024,-0.4911,0.71453,0.066334,-0.025672,-0.93632,-0.028991,-0.57616,-0.38235,-0.86724,-0.52178
0.0064956,0.015981,-0.017644,0.065198,0.73538,-0.34925,1.0121,2.3115,-0.0030483,0.23995,-0.39305,-0.46522,-0.49073,-0.44645,-0.48154,0.5535,0.083616,-0.085557,-1.1867,-0.015988,-0.53191,-0.46468,-0.86386,-0.36813
0.0062433,0.017042,-0.01718,0.067111,0.68223,-1.0244,1.3825,2.289,-0.015112,0.23981,-0.40665,-0.40835,-0.38993,-0.32087,-0.43103,0.3955,0.093279,-0.11951,-1.3094,-0.0048646,-0.46672,-0.48109,-0.88327,-0.14404
0.0093568,0.0195,-0.014982,0.070399,0.65529,-1.6164,1.617,2.2711,-0.029232,0.19669,-0.38119,-0.34387,-0.26612,-0.19595,-0.34724,0.25415,0.094682,-0.12927,-1.261,0.0063332,-0.39166,-0.41118,-0.94474,0.090121
0.0139,0.023227,-0.010962,0.074898,0.65962,-2.097,1.7395,2.2458,-0.043472,0.12438,-0.35274,-0.2742,-0.11724,-0.10296,-0.25176,0.13177,0.088036,-0.12288,-1.0445,0.01773,-0.31622,-0.26832,-1.0179,0.28747
0.01648,0.027197,-0.0060129,0.079095,0.6921,-2.4092,1.7989,2.1956,-0.052064,0.038544,-0.36921,-0.20284,0.053338,-0.052728,-0.17072,0.016411,0.074675,-0.10897,-0.69703,0.029719,-0.24539,-0.094881,-1.0549,0.4319
0.014862,0.030138,-0.0020194,0.08074,0.73824,-2.4967,1.8266,2.1086,-0.050677,-0.054578,-0.45024,-0.13376,0.23497,-0.025442,-0.11862,-0.11227,0.057122,-0.093037,-0.27761,0.043573,-0.18109,0.059464,-1.0332,0.53424
0.010025,0.031426,-0.0010898,0.078319,0.77511,-2.3481,1.8118,1.9851,-0.040036,-0.15844,-0.56072,-0.069038,0.4162,0.018691,-0.088751,-0.26941,0.038883,-0.077257,0.13986,0.059656,-0.12539,0.16255,-0.9708,0.61264
0.0056893,0.031539,-0.0041897,0.072393,0.78122,-2.0162,1.7142,1.8369,-0.024997,-0.27704,-0.62353,-0.0078728,0.59127,0.11012,-0.059345,-0.45194,0.02411,-0.062115,0.47552,0.075763,-0.082023,0.21157,-0.90455,0.67214
0.0054041,0.031592,-0.010058,0.065546,0.74773,-1.5956,1.5048,1.682,-0.010112,-0.40435,-0.56739,0.05174,0.75826,0.24179,-0.011605,-0.63636,0.016852,-0.047414,0.66545,0.088364,-0.055136,0.2254,-0.85857,0.69805
0.0095558,0.032262,-0.015406,0.060632,0.68309,-1.1725,1.2048,1.5383,0.0043802,-0.51985,-0.37718,0.11062,0.90981,0.3657,0.055177,-0.79058,0.019595,-0.032638,0.68893,0.096113,-0.046679,0.22515,-0.83311,0.66701
0.014925,0.033049,-0.01666,0.058503,0.60713,-0.78677,0.89162,1.4183,0.022718,-0.59333,-0.11082,0.16812,1.0258,0.42109,0.12352,-0.89306,0.031487,-0.017815,0.57836,0.1018,-0.054841,0.21767,-0.82065,0.56702
0.017277,0.032628,-0.012294,0.05714,0.53868,-0.43159,0.66514,1.3249,0.049733,-0.59742,0.12945,0.22411,1.0776,0.37546,0.17168,-0.94579,0.04764,-0.0046713,0.39728,0.10996,-0.074673,0.19341,-0.8279,0.41098
0.014784,0.030094,-0.0041184,0.05319,0.48525,-0.086577,0.59262,1.2472,0.086096,-0.52322,0.25264,0.28009,1.0424,0.24702,0.18879,-0.97185,0.060897,0.0038712,0.20143,0.1221,-0.10018,0.13779,-0.87983,0.23354
0.0093329,0.025976,0.0036457,0.044921,0.4416,0.24704,0.66768,1.1596,0.1265,-0.39092,0.22719,0.33691,0.91804,0.090437,0.17902,-0.99862,0.065817,0.0070652,0.017099,0.13466,-0.12627,0.046484,-1.0026,0.073335
0.0047067,0.022036,0.0071206,0.034182,0.39688,0.53954,0.81009,1.0286,0.16222,-0.24732,0.095402,0.39017,0.72622,-0.04273,0.15368,-1.0383,0.062453,0.010343,-0.14351,0.14277,-0.14949,-0.066964,-1.2026,-0.046496
0.0034073,0.019983,0.0054638,0.02552,0.34474,0.75749,0.90877,0.82963,0.18603,-0.1472,-0.049902,0.42845,0.50214,-0.13708,0.12103,-1.0793,0.056854,0.025305,-0.24847,0.1469,-0.16774,-0.17619,-1.4573,-0.12579
0.0049309,0.020282,0.0014301,0.02289,0.28948,0.89555,0.88403,0.56442,0.19572,-0.12583,-0.11048,0.43787,0.27833,-0.21379,0.083272,-1.0947,0.057104,0.063041,-0.23636,0.15523,-0.17978,-0.25569,-1.7185,-0.17868
0.0067801,0.022086,-0.00072571,0.026496,0.24524,0.98538,0.73266,0.26908,0.19392,-0.17891,-0.026209,0.41111,0.07441,-0.30012,0.0415,-1.0619,0.067144,0.12379,-0.053499,0.17784,-0.18515,-0.29367,-1.9183,-0.21664
0.0069348,0.024199,0.0015966,0.032404,0.22961,1.0733,0.52879,0.0026231,0.18499,-0.26463,0.20165,0.3542,-0.10214,-0.39509,0.0010117,-0.97932,0.082808,0.19046,0.28732,0.21628,-0.18417,-0.2955,-1.9779,-0.23687
0.0053877,0.026018,0.0076291,0.035364,0.25496,1.1859,0.37992,-0.1793,0.17197,-0.32938,0.51463,0.28541,-0.24758,-0.4604,-0.029271,-0.86925,0.093343,0.23225,0.6823,0.25783,-0.17744,-0.27577,-1.8283,-0.22456
0.0035541,0.027591,0.014226,0.03265,0.32156,1.3116,0.36371,-0.25044,0.15593,-0.34091,0.82445,0.22728,-0.3544,-0.44453,-0.042177,-0.76428,0.08771,0.21769,0.98055,0.28062,-0.16453,-0.24488,-1.4448,-0.16686
0.0025162,0.029003,0.018501,0.025889,0.41552,1.4111,0.48308,-0.22365,0.13735,-0.30631,1.0507,0.19811,-0.41105,-0.32147,-0.03619,-0.68884,0.061246,0.12975,1.0725,0.26716,-0.14321,-0.20033,-0.87645,-0.067306
0.0020096,0.029964,0.01975,0.019442,0.51326,1.4458,0.66556,-0.13913,0.11745,-0.26211,1.1517,0.20876,-0.40899,-0.11554,-0.014293,-0.64886,0.01786,-0.026265,0.95601,0.21585,-0.11026,-0.12985,-0.23968,0.050383
0.0010305,0.030057,0.019228,0.01673,0.59103,1.4007,0.80593,-0.040801,0.097616,-0.24475,1.1358,0.26385,-0.35205,0.10501,0.019403,-0.63587,-0.033559,-0.22573,0.7288,0.1414,-0.064427,-0.02439,0.3334,0.15265
-0.00082337,0.029215,0.018444,0.017456,0.63426,1.2904,0.82533,0.043115,0.077685,-0.26373,1.0482,0.36199,-0.26132,0.26113,0.060152,-0.63924,-0.085278,-0.43557,0.51294,0.063945,-0.0093652,0.10888,0.76192,0.21369
-0.0028133,0.027669,0.017891,0.017894,0.64057,1.1502,0.71104,0.10461,0.055341,-0.29692,0.94228,0.49212,-0.17058,0.30217,0.099727,-0.65425,-0.13437,-0.6255,0.37402,-0.0038252,0.045807,0.24454,1.0498,0.22854
-0.0038434,0.025375,0.017292,0.013945,0.61492,1.0268,0.51508,0.14756,0.028043,-0.30942,0.85165,0.62995,-0.11262,0.22939,0.12545,-0.6791,-0.18135,-0.77406,0.29615,-0.061324,0.089892,0.3507,1.2599,0.21315
-0.003615,0.021694,0.016682,0.0045337,0.56146,0.96975,0.31644,0.17703,-0.00382,-0.27968,0.77806,0.74243,-0.10286,0.092207,0.12565,-0.70614,-0.22576,-0.86817,0.22632,-0.11376,0.11506,0.40666,1.4519,0.19179
-0.0028671,0.016027,0.016806,-0.007242,0.48051,1.0201,0.17397,0.1953,-0.035507,-0.21272,0.69952,0.80242,-0.13066,-0.039158,0.098909,-0.71895,-0.26333,-0.89876,0.14545,-0.16183,0.12045,0.41307,1.6362,0.18019
-0.0024965,0.0089778,0.018286,-0.016045,0.37372,1.1895,0.099546,0.20468,-0.059986,-0.13193,0.59133,0.80525,-0.16551,-0.10965,0.058334,-0.70164,-0.28724,-0.85673,0.10645,-0.19728,0.11109,0.38721,1.778,0.17452
