-2.9518e-010,1.1094e-009,8.2381e-010,6.3088e-010,-4.1094e-010,7.2349e-010,4.4953e-010,2.4116e-010,4.6496e-010,1.1325e-009,8.4311e-010,8.8941e-010,-5.1127e-010,3.7236e-010,2.9904e-010,4.611e-010,2.6431e-010,7.6208e-010,8.9327e-010,6.2702e-010,-4.3795e-010,3.029e-010,5.1512e-010,3.3763e-010
-8.1493e-009,3.0517e-008,2.263e-008,1.7167e-008,-1.1306e-008,1.9954e-008,1.2503e-008,7.2237e-009,1.2783e-008,3.1311e-008,2.3491e-008,2.4643e-008,-1.4028e-008,1.0112e-008,8.2675e-009,1.2873e-008,7.412e-009,2.1144e-008,2.4395e-008,1.7068e-008,-1.1936e-008,8.4088e-009,1.4185e-008,9.3569e-009
-1.0967e-007,4.0811e-007,3.0196e-007,2.2721e-007,-1.5111e-007,2.6754e-007,1.6904e-007,1.0462e-007,1.7082e-007,4.2062e-007,3.1825e-007,3.3192e-007,-1.8711e-007,1.3333e-007,1.1094e-007,1.747e-007,1.0123e-007,2.8532e-007,3.2375e-007,2.261e-007,-1.5826e-007,1.1348e-007,1.8984e-007,1.2621e-007
-9.5869e-007,3.5351e-006,2.6071e-006,1.9488e-006,-1.3069e-006,2.3237e-006,1.4798e-006,9.7682e-007,1.4781e-006,3.6576e-006,2.7929e-006,2.8954e-006,-1.6164e-006,1.1373e-006,9.6279e-007,1.5352e-006,8.9729e-007,2.4947e-006,2.7817e-006,1.9423e-006,-1.3599e-006,9.9174e-007,1.6451e-006,1.1042e-006
-6.1201e-006,2.2293e-005,1.6368e-005,1.2176e-005,-8.217e-006,1.4696e-005,9.4266e-006,6.6128e-006,9.3079e-006,2.3136e-005,1.7846e-005,1.8384e-005,-1.0162e-005,7.056e-006,6.074e-006,9.8166e-006,5.8015e-006,1.5885e-005,1.7392e-005,1.2165e-005,-8.5127e-006,6.3088e-006,1.0376e-005,7.044e-006
-3.0403e-005,0.00010904,7.9603e-005,5.9057e-005,-3.9994e-005,7.214e-005,4.6552e-005,3.4607e-005,4.5443e-005,0.00011341,8.8456e-005,9.0519e-005,-4.9534e-005,3.394e-005,2.9683e-005,4.8659e-005,2.9156e-005,7.8483e-005,8.43e-005,5.9195e-005,-4.1359e-005,3.1124e-005,5.0747e-005,3.4926e-005
-0.00012228,0.00043035,0.00031189,0.00023136,-0.00015664,0.00028601,0.00018535,0.00014574,0.0001789,0.00044806,0.00035382,0.00035951,-0.00019467,0.00013173,0.0001169,0.00019446,0.00011847,0.00031293,0.00032954,0.00023289,-0.00016223,0.00012387,0.00020022,0.00014007
-0.00040884,0.0014071,0.0010107,0.00075193,-0.00050636,0.00094099,0.00061086,0.00050747,0.00058293,0.0014646,0.0011728,0.0011825,-0.00063314,0.00042402,0.00038099,0.00064322,0.00039967,0.0010339,0.0010667,0.00076081,-0.0005274,0.00040835,0.00065439,0.00046677
-0.0011576,0.0038819,0.0027587,0.002066,-0.0013742,0.0026192,0.001697,0.0014897,0.0016008,0.0040336,0.0032814,0.0032808,-0.001735,0.0011543,0.0010466,0.0017935,0.0011401,0.0028824,0.0029124,0.0021031,-0.0014474,0.0011359,0.0018048,0.0013175
-0.0028122,0.0091536,0.0064244,0.0048649,-0.0031646,0.0062568,0.0040245,0.0037389,0.0037511,0.0094782,0.0078531,0.0077771,-0.0040555,0.0026966,0.0024546,0.0042698,0.0027856,0.0068685,0.0067944,0.0049852,-0.003396,0.0027009,0.004256,0.0031934
-0.0059143,0.018607,0.012875,0.0099133,-0.0062184,0.012966,0.0082174,0.0081069,0.007559,0.019164,0.016223,0.015889,-0.0081492,0.0054681,0.0049551,0.0087548,0.0058786,0.014108,0.013664,0.010229,-0.0068707,0.0055388,0.0086586,0.0067142
-0.010829,0.032768,0.022318,0.017599,-0.010423,0.023504,0.014518,0.015298,0.013151,0.033498,0.029098,0.028125,-0.014131,0.0097109,0.008643,0.015541,0.010766,0.025098,0.023816,0.018282,-0.012046,0.0098503,0.015283,0.012331
-0.017307,0.050056,0.033526,0.027331,-0.014781,0.03752,0.022223,0.025251,0.019745,0.050693,0.04545,0.043215,-0.021136,0.015217,0.013009,0.023932,0.017124,0.038718,0.036045,0.028557,-0.01833,0.015227,0.023462,0.019873
-0.024133,0.066139,0.043559,0.037203,-0.017348,0.053049,0.029405,0.036556,0.025442,0.066257,0.061828,0.057563,-0.02712,0.021191,0.016738,0.031927,0.023572,0.051632,0.047289,0.039029,-0.024157,0.020443,0.031302,0.028165
-0.029253,0.07496,0.04863,0.04438,-0.015935,0.066844,0.033391,0.046453,0.027763,0.074309,0.073064,0.066134,-0.02947,0.026426,0.017954,0.036726,0.027801,0.059013,0.053449,0.046633,-0.027389,0.023741,0.036136,0.035116
-0.030594,0.071684,0.046028,0.046342,-0.0095186,0.075688,0.032093,0.051739,0.024975,0.07072,0.074646,0.064975,-0.026452,0.029822,0.014974,0.03615,0.027527,0.056839,0.051436,0.048666,-0.02638,0.023692,0.035798,0.038471
-0.027315,0.056142,0.036022,0.042352,0.0004529,0.078041,0.025494,0.050336,0.017505,0.056361,0.065664,0.054081,-0.018705,0.030928,0.0072886,0.030286,0.021955,0.04475,0.041395,0.044549,-0.021151,0.020228,0.030088,0.036999
-0.020656,0.034187,0.022206,0.03413,0.010056,0.074863,0.016132,0.042585,0.0082548,0.037751,0.050153,0.03838,-0.0095163,0.030125,-0.0038855,0.022042,0.012819,0.027348,0.027433,0.036665,-0.013738,0.015063,0.021329,0.031378
-0.013579,0.015142,0.0096458,0.025016,0.01477,0.068837,0.0078535,0.031326,0.0011156,0.023703,0.035263,0.025346,-0.0031493,0.028241,-0.015953,0.015786,0.0039479,0.012311,0.015846,0.029283,-0.007199,0.010963,0.013272,0.024056
-0.0091189,0.0062925,0.0019114,0.018009,0.012376,0.062434,0.0034795,0.020578,-0.0016293,0.019719,0.026968,0.020293,-0.002001,0.025858,-0.026097,0.014585,-0.00083871,0.0058828,0.011594,0.025902,-0.0037451,0.010113,0.0088366,0.017975
-0.0084593,0.0081349,-0.00082312,0.01406,0.0048776,0.056258,0.0030917,0.013656,-0.0011119,0.024269,0.026307,0.022673,-0.0046382,0.02289,-0.032511,0.017971,-0.00028791,0.0087426,0.015336,0.026812,-0.0033405,0.012663,0.0082595,0.01492
-0.010165,0.014222,-0.0011272,0.011934,-0.002297,0.048961,0.0044188,0.011863,-0.0011929,0.030163,0.029161,0.026543,-0.0065343,0.018863,-0.034868,0.022125,0.0031943,0.015577,0.023206,0.028877,-0.0039285,0.016594,0.009165,0.014613
-0.01131,0.016138,-0.0017392,0.0097483,-0.0036479,0.038754,0.0050669,0.014326,-0.0054606,0.030193,0.029878,0.02524,-0.003346,0.01375,-0.03381,0.022662,0.0050266,0.019162,0.029563,0.027964,-0.0031446,0.019079,0.0086231,0.015152
-0.0097304,0.0098945,-0.0033312,0.0068627,0.0027033,0.025187,0.0046586,0.018661,-0.014198,0.022454,0.025768,0.016693,0.0056522,0.0086424,-0.030086,0.018029,0.0016476,0.016025,0.030722,0.022237,-0.00012036,0.018358,0.005546,0.014431
-0.0056536,-0.0014225,-0.0044999,0.0044832,0.013705,0.0097442,0.0049288,0.021942,-0.02394,0.010994,0.018685,0.0049736,0.016801,0.0055357,-0.024199,0.010804,-0.0069438,0.0091468,0.026941,0.013623,0.0040745,0.014714,0.0013755,0.011473
-0.0013463,-0.010872,-0.0037885,0.004457,0.023515,-0.0051386,0.0077057,0.02173,-0.030175,0.0016027,0.012549,-0.0032869,0.02475,0.0061571,-0.016833,0.0057231,-0.017271,0.0053756,0.021433,0.0061594,0.0075446,0.0099358,-0.0015257,0.0068566
0.00089542,-0.013801,-0.0016786,0.007354,0.027527,-0.01768,0.012742,0.017196,-0.030955,-0.0031319,0.0093603,-0.004527,0.026484,0.010649,-0.0093774,0.0059948,-0.024942,0.0096556,0.017475,0.0025934,0.0090646,0.0059076,-0.0022614,0.0021668
0.00067765,-0.011446,-0.00057183,0.011567,0.025307,-0.027639,0.017549,0.0099443,-0.028257,-0.0050553,0.0075268,-0.001078,0.023369,0.01717,-0.0036794,0.010927,-0.027565,0.020976,0.016007,0.0021679,0.0086454,0.0035587,-0.0022771,-0.00093823
-0.00030202,-0.0089518,-0.0027103,0.01426,0.020325,-0.035895,0.019463,0.0036508,-0.025903,-0.0074033,0.0039536,0.0011474,0.019547,0.022832,-0.00091691,0.016784,-0.025801,0.033474,0.015398,0.0015052,0.0069908,0.0028535,-0.0038396,-0.001442
0.00012585,-0.010018,-0.0079493,0.013376,0.016933,-0.043238,0.017965,0.002049,-0.026051,-0.011043,-0.0023819,-0.0021548,0.018251,0.025348,-0.00061237,0.019991,-0.022123,0.041586,0.013205,-0.0022527,0.004801,0.0034517,-0.007582,0.0007525
0.0027386,-0.013413,-0.01349,0.0090741,0.017085,-0.049426,0.015015,0.0062008,-0.027543,-0.013852,-0.00904,-0.010255,0.019355,0.0242,-0.00089109,0.019815,-0.018785,0.044613,0.0083034,-0.0088935,0.0027942,0.0051849,-0.011582,0.004874
0.0064993,-0.014613,-0.015935,0.0035026,0.019291,-0.053151,0.013109,0.013156,-0.02756,-0.013552,-0.012319,-0.018484,0.020239,0.020616,2.513e-005,0.018276,-0.016756,0.046742,0.0017989,-0.01544,0.0021916,0.0079352,-0.013017,0.0095457
0.0097851,-0.010757,-0.01396,-0.00075457,0.020355,-0.052855,0.012961,0.017546,-0.0248,-0.010702,-0.010838,-0.022414,0.018924,0.016575,0.0024092,0.017686,-0.016063,0.052768,-0.0037433,-0.018932,0.0046162,0.011255,-0.010878,0.01325
0.011892,-0.0038958,-0.0093081,-0.0023288,0.018252,-0.047778,0.013023,0.015411,-0.020951,-0.0086104,-0.0069518,-0.021186,0.016368,0.013689,0.0050699,0.018308,-0.016536,0.063539,-0.0060441,-0.019041,0.010905,0.014295,-0.0070789,0.014914
0.013317,0.0006968,-0.0053109,-0.0017123,0.013797,-0.038648,0.011205,0.0074088,-0.019004,-0.010239,-0.0046458,-0.017374,0.015698,0.012589,0.0068064,0.018308,-0.017924,0.075024,-0.0046422,-0.018091,0.019725,0.016176,-0.0047729,0.014342
0.014724,-0.00049461,-0.0042326,-0.00069299,0.0099518,-0.027652,0.0070302,-0.0013161,-0.020134,-0.015283,-0.0060486,-0.014255,0.019136,0.01289,0.0077786,0.015789,-0.019499,0.081364,-0.0013043,-0.018558,0.027541,0.016428,-0.0054353,0.012177
0.015875,-0.0058311,-0.0057142,-0.001132,0.009523,-0.017612,0.002148,-0.0048551,-0.022297,-0.020352,-0.0099466,-0.013399,0.025601,0.013502,0.0093542,0.010748,-0.020055,0.078789,0.00092271,-0.020518,0.030554,0.015129,-0.0075766,0.0093806
0.015828,-0.0099779,-0.0075114,-0.0038436,0.013082,-0.01065,-0.0011907,-0.0010878,-0.021977,-0.022013,-0.013532,-0.014485,0.031295,0.013151,0.012566,0.0050943,-0.018745,0.067162,-0.00048151,-0.021579,0.027399,0.012751,-0.0084004,0.0066311
0.014271,-0.0087757,-0.0076777,-0.0081113,0.018536,-0.0070228,-0.0021505,0.0065239,-0.017462,-0.019779,-0.015357,-0.016647,0.032786,0.011053,0.016793,0.00093316,-0.016011,0.048742,-0.0058968,-0.019424,0.020462,0.010004,-0.0068211,0.0040771
0.012599,-0.002901,-0.0061612,-0.012038,0.022487,-0.0049801,-0.0019522,0.011401,-0.010605,-0.016327,-0.016449,-0.019353,0.029794,0.0074876,0.0201,-0.0010168,-0.013456,0.026369,-0.013229,-0.014525,0.014546,0.0077294,-0.004842,0.0015843
0.013414,0.0029756,-0.0044777,-0.013581,0.022356,-0.0020318,-0.0026775,0.008713,-0.0054968,-0.014996,-0.018661,-0.022033,0.025192,0.0038359,0.02097,-0.0014652,-0.012537,0.0030578,-0.019239,-0.010299,0.01371,0.0066641,-0.0058275,-0.00084715
0.018576,0.0044755,-0.0039824,-0.011756,0.01797,0.0030566,-0.0054364,-0.0010598,-0.0052668,-0.016986,-0.022308,-0.023521,0.022358,0.0018097,0.019758,-0.0013995,-0.013303,-0.017442,-0.021755,-0.01035,0.018543,0.0069707,-0.011234,-0.0029009
0.027331,0.0011384,-0.0045076,-0.0073298,0.011727,0.0090521,-0.009474,-0.012503,-0.009729,-0.020687,-0.025757,-0.022662,0.022312,0.0022303,0.018415,-0.0012348,-0.014516,-0.031086,-0.021183,-0.015201,0.025916,0.0078859,-0.018943,-0.0041281
0.036206,-0.0037039,-0.0046513,-0.0025054,0.0072525,0.012995,-0.012778,-0.019121,-0.015615,-0.023383,-0.02741,-0.01977,0.023135,0.0042159,0.018755,-0.0010959,-0.015082,-0.03579,-0.020109,-0.021542,0.031372,0.0080307,-0.024887,-0.0042914
0.041044,-0.0061734,-0.0033247,0.00027635,0.0072338,0.012532,-0.013492,-0.017682,-0.018877,-0.023559,-0.027827,-0.017105,0.02198,0.0054843,0.020951,-0.0015465,-0.015233,-0.033648,-0.021217,-0.024744,0.032392,0.006435,-0.026575,-0.0035764
0.039801,-0.0049124,-0.00095527,-0.00029725,0.011656,0.0080144,-0.011049,-0.0099845,-0.017133,-0.021833,-0.029535,-0.017243,0.017683,0.0036942,0.023678,-0.0035368,-0.016098,-0.030411,-0.025092,-0.022483,0.030078,0.0035133,-0.025264,-0.002538
0.034015,-0.0014085,0.0008499,-0.0036909,0.017615,0.0024986,-0.0064435,-0.0011127,-0.010677,-0.020017,-0.034519,-0.020524,0.011661,-0.0020602,0.02567,-0.0073596,-0.018033,-0.031706,-0.029676,-0.016365,0.027991,0.0009895,-0.024736,-0.001823
0.027732,0.0020392,0.00082053,-0.0078511,0.021057,-0.00050175,-0.0017231,0.0041429,-0.0018813,-0.019448,-0.041922,-0.024191,0.0064907,-0.010657,0.027047,-0.011766,-0.019617,-0.038824,-0.031827,-0.010294,0.029023,0.00056419,-0.027732,-0.0018021
0.024626,0.0042981,-0.0007799,-0.010374,0.019477,0.00024597,0.00098275,0.0040181,0.0061799,-0.020096,-0.048356,-0.024495,0.0036881,-0.019695,0.029006,-0.014459,-0.018671,-0.047783,-0.02979,-0.0072088,0.0328,0.0023529,-0.033251,-0.0023043
0.025537,0.0055611,-0.0023921,-0.0098731,0.013713,0.0027575,0.00059191,1.6102e-005,0.011033,-0.021035,-0.05067,-0.020106,0.0027665,-0.027035,0.032185,-0.013821,-0.014523,-0.052678,-0.024687,-0.0070621,0.035836,0.0045482,-0.037147,-0.0026855
0.028359,0.0061414,-0.0025186,-0.0068237,0.0073864,0.0035337,-0.0021134,-0.0049516,0.01169,-0.021574,-0.048547,-0.013596,0.0022944,-0.032008,0.035487,-0.010378,-0.0091801,-0.050491,-0.019906,-0.007545,0.03447,0.0047915,-0.035533,-0.0023216
0.030255,0.0056562,-0.00087959,-0.0033521,0.0042673,0.0005608,-0.004638,-0.0087629,0.0090115,-0.021897,-0.044536,-0.0094081,0.0017007,-0.035362,0.036776,-0.0065939,-0.0059552,-0.04323,-0.018834,-0.006589,0.028257,0.002151,-0.028012,-0.001233
0.030198,0.0035771,0.0015939,-0.0019585,0.0054934,-0.0048348,-0.0042247,-0.011034,0.0053367,-0.022679,-0.041628,-0.010061,0.0019056,-0.038051,0.034998,-0.0050635,-0.006622,-0.035805,-0.02258,-0.0042941,0.020823,-0.0020823,-0.017999,-0.00024641
0.029529,0.00038085,0.0036695,-0.0038227,0.0088173,-0.0088478,7.938e-005,-0.01254,0.0032751,-0.024116,-0.04076,-0.014064,0.0040872,-0.039878,0.031565,-0.0065932,-0.0097891,-0.031839,-0.029243,-0.002751,0.017196,-0.0055605,-0.0099859,-0.00034677
0.030101,-0.0022061,0.0046098,-0.0078257,0.010448,-0.0082072,0.0063137,-0.014042,0.0041364,-0.025378,-0.040497,-0.017426,0.0078366,-0.039293,0.029372,-0.0096872,-0.012118,-0.031163,-0.035185,-0.0041681,0.019632,-0.0069676,-0.006203,-0.0016562
0.031883,-0.0024034,0.0042287,-0.011151,0.0079665,-0.0030317,0.010667,-0.015658,0.0070839,-0.025072,-0.038917,-0.01724,0.01071,-0.0347,0.030063,-0.011758,-0.011236,-0.03081,-0.037387,-0.0090082,0.025479,-0.0070986,-0.0054242,-0.0030554
0.032519,2.0957e-005,0.0025296,-0.011241,0.0020011,0.0027827,0.010226,-0.01713,0.0098488,-0.022376,-0.035717,-0.013976,0.0099417,-0.026313,0.032148,-0.01104,-0.0075266,-0.028047,-0.035271,-0.015536,0.029027,-0.0079631,-0.004592,-0.0030536
0.029497,0.0032902,-0.0003744,-0.007708,-0.0044974,0.0041621,0.005291,-0.018375,0.010629,-0.017894,-0.032617,-0.010548,0.0049662,-0.016858,0.032007,-0.0078004,-0.0031704,-0.022542,-0.030793,-0.020878,0.02595,-0.010848,-0.0014999,-0.0012912
0.022929,0.004825,-0.0039075,-0.0026605,-0.0085439,-0.0013527,-0.00079511,-0.0196,0.0096281,-0.013423,-0.03186,-0.0093456,-0.0015748,-0.010136,0.027138,-0.0041339,0.00041449,-0.01614,-0.026841,-0.022667,0.016697,-0.015249,0.0038149,0.00077755
0.016106,0.0031238,-0.0068434,0.00091417,-0.0090774,-0.011481,-0.0043241,-0.020846,0.0088432,-0.010793,-0.0343,-0.010208,-0.0055072,-0.0082625,0.018724,-0.0026209,0.004004,-0.011099,-0.02519,-0.020231,0.0060434,-0.019663,0.0097989,0.00088939
0.01296,-0.001246,-0.0078604,0.0014149,-0.0073283,-0.020508,-0.0041798,-0.021619,0.010243,-0.010665,-0.038704,-0.011087,-0.0043082,-0.0097814,0.011027,-0.0047582,0.009438,-0.00873,-0.025512,-0.014842,-0.00068122,-0.023324,0.015073,-0.002092
0.014577,-0.0062636,-0.0065878,-0.00033503,-0.0057915,-0.023232,-0.0024859,-0.021222,0.014021,-0.012252,-0.042685,-0.010396,0.0007908,-0.0105,0.0080167,-0.01005,0.017202,-0.0093728,-0.026032,-0.0090591,-0.0015127,-0.027052,0.019353,-0.0071132
0.018081,-0.010013,-0.0041557,-0.0020974,-0.0068335,-0.018655,-0.0023527,-0.01966,0.018538,-0.01408,-0.044442,-0.0085226,0.0055941,-0.0067777,0.010158,-0.016205,0.02533,-0.013065,-0.025163,-0.0054073,0.0011683,-0.032291,0.023006,-0.01183
0.019119,-0.01186,-0.002513,-0.0023238,-0.01167,-0.010651,-0.0047779,-0.018164,0.021895,-0.015092,-0.04405,-0.0070812,0.0060941,0.0012556,0.014099,-0.02034,0.030855,-0.019786,-0.022688,-0.0048703,0.0029972,-0.039304,0.026121,-0.014672
0.015749,-0.012455,-0.0028841,-0.0015019,-0.019796,-0.0051078,-0.0075982,-0.018579,0.023465,-0.015179,-0.043489,-0.0069036,0.0015148,0.0093651,0.015364,-0.020598,0.032399,-0.029005,-0.019622,-0.0060001,0.0010213,-0.046374,0.028314,-0.016115
0.010025,-0.012851,-0.0046421,-0.0016309,-0.028868,-0.0057786,-0.0075579,-0.021851,0.023847,-0.014883,-0.04535,-0.006991,-0.0051614,0.012363,0.011632,-0.017334,0.031366,-0.039294,-0.017044,-0.0055044,-0.0046382,-0.050914,0.029482,-0.017963
0.0057396,-0.013628,-0.0056521,-0.0043538,-0.035412,-0.011992,-0.0036341,-0.026895,0.023494,-0.014744,-0.05087,-0.0055214,-0.0096018,0.0083094,0.0040607,-0.013056,0.030608,-0.048805,-0.015038,-0.00043497,-0.011747,-0.051548,0.030549,-0.021407
0.0045136,-0.014674,-0.003928,-0.0093586,-0.036623,-0.019754,0.0015514,-0.031009,0.021794,-0.014926,-0.058356,-0.001833,-0.00956,0.00018541,-0.003943,-0.011001,0.031909,-0.056462,-0.012705,0.0092556,-0.018133,-0.049272,0.033187,-0.025771
0.0041722,-0.015549,0.00069798,-0.01435,-0.032493,-0.025063,0.0037562,-0.031741,0.017925,-0.015312,-0.063179,0.0026829,-0.0066275,-0.0065108,-0.009052,-0.013114,0.034685,-0.062924,-0.0092013,0.019832,-0.022998,-0.046679,0.038532,-0.029086
0.0011297,-0.016013,0.0062499,-0.016594,-0.026496,-0.026651,0.00088419,-0.028782,0.012734,-0.015706,-0.059786,0.0056912,-0.0049105,-0.0082567,-0.0096389,-0.018806,0.036948,-0.070418,-0.0048735,0.025775,-0.026531,-0.045947,0.046008,-0.029809
-0.0055283,-0.016297,0.0099187,-0.014888,-0.023581,-0.026181,-0.0049859,-0.024259,0.0094486,-0.015837,-0.044921,0.0059096,-0.0076769,-0.0061792,-0.0060149,-0.025446,0.037375,-0.081422,-0.001471,0.023638,-0.028744,-0.047351,0.053418,-0.028015
-0.012442,-0.017035,0.010014,-0.010548,-0.026401,-0.026208,-0.0093264,-0.021104,0.011827,-0.015218,-0.020162,0.0040348,-0.014661,-0.0046144,0.00019049,-0.030287,0.036405,-0.097013,-0.0011604,0.014858,-0.029011,-0.049405,0.058382,-0.025078
-0.014718,-0.018906,0.0070966,-0.0067542,-0.032765,-0.027951,-0.0091699,-0.020769,0.020946,-0.013199,0.0080184,0.0017867,-0.022238,-0.0069827,0.0067349,-0.032343,0.035522,-0.11593,-0.0050052,0.0050671,-0.026831,-0.050291,0.059986,-0.022417
-0.010582,-0.022145,0.0035038,-0.0066245,-0.036913,-0.0307,-0.0056995,-0.0222,0.0335,-0.0093709,0.030968,0.0001451,-0.026424,-0.012788,0.011284,-0.032791,0.035703,-0.13487,-0.012018,0.00011657,-0.022969,-0.049238,0.059349,-0.020623
-0.0034683,-0.026161,0.0016674,-0.011193,-0.034179,-0.032981,-0.0029776,-0.022909,0.043505,-0.0040403,0.041841,-0.0014217,-0.026294,-0.018378,0.011912,-0.033673,0.036723,-0.14991,-0.019552,0.0018498,-0.019637,-0.046764,0.058726,-0.019632
0.00059084,-0.02958,0.0024722,-0.018582,-0.025374,-0.034077,-0.0040242,-0.021255,0.046262,0.0016159,0.038626,-0.004041,-0.024979,-0.020517,0.0076995,-0.036114,0.03782,-0.15821,-0.024871,0.0070233,-0.019294,-0.043865,0.059894,-0.019438
-0.00204,-0.030896,0.0047941,-0.025004,-0.016905,-0.034489,-0.0079886,-0.017999,0.041361,0.0058755,0.024726,-0.0078759,-0.027217,-0.019288,-0.00076943,-0.039559,0.038722,-0.159,-0.026853,0.010204,-0.022928,-0.041054,0.063024,-0.02042
-0.0097518,-0.029457,0.0064894,-0.027083,-0.01601,-0.035195,-0.011083,-0.015825,0.032275,0.0071263,0.0071203,-0.011583,-0.035266,-0.017678,-0.011366,-0.042494,0.039704,-0.15335,-0.026569,0.0081449,-0.029232,-0.038076,0.066635,-0.022993
-0.01745,-0.026159,0.0060713,-0.024052,-0.024832,-0.036683,-0.01029,-0.017199,0.023236,0.0045848,-0.006754,-0.013378,-0.046481,-0.018513,-0.021064,-0.043831,0.040635,-0.14295,-0.026231,0.0020136,-0.035396,-0.034372,0.068392,-0.027044
-0.021084,-0.023269,0.0038159,-0.018295,-0.038338,-0.038723,-0.0062165,-0.022366,0.01636,-0.0011616,-0.012047,-0.012674,-0.054728,-0.021859,-0.027196,-0.043668,0.040276,-0.12867,-0.027282,-0.0041398,-0.038958,-0.029717,0.066111,-0.031765
-0.020756,-0.023316,0.0014488,-0.01379,-0.048063,-0.040872,-0.0024321,-0.029107,0.011446,-0.0080731,-0.008343,-0.010683,-0.054775,-0.025355,-0.028821,-0.042879,0.036995,-0.11041,-0.029194,-0.0070199,-0.03936,-0.024462,0.058515,-0.035982
-0.019897,-0.027658,0.00064797,-0.013496,-0.04866,-0.042913,-0.0021163,-0.034428,0.0079894,-0.01334,0.00044447,-0.0093884,-0.046356,-0.026961,-0.027366,-0.042105,0.030514,-0.088136,-0.030021,-0.0065987,-0.038093,-0.0193,0.045631,-0.038652
-0.021714,-0.035626,0.0015853,-0.017519,-0.041826,-0.044678,-0.0053711,-0.036713,0.0068163,-0.014797,0.008291,-0.0098207,-0.034678,-0.027227,-0.025833,-0.041132,0.022891,-0.063468,-0.028218,-0.0056085,-0.037431,-0.014903,0.028789,-0.039252
-0.026355,-0.044837,0.0027756,-0.023289,-0.034386,-0.045601,-0.0096393,-0.036561,0.0094063,-0.012359,0.010474,-0.011183,-0.026873,-0.028761,-0.026745,-0.03918,0.017385,-0.040082,-0.024056,-0.0069046,-0.038739,-0.011736,0.010174,-0.038034
-0.031073,-0.052548,0.0024292,-0.027454,-0.032378,-0.044802,-0.012479,-0.035775,0.015672,-0.0083032,0.0062586,-0.011547,-0.027061,-0.033358,-0.030134,-0.035738,0.01586,-0.022142,-0.019297,-0.011214,-0.041566,-0.01004,-0.0079936,-0.036056
-0.032734,-0.057207,0.00014199,-0.028034,-0.036306,-0.041975,-0.013764,-0.035572,0.022796,-0.0058432,-0.00097202,-0.0094435,-0.033729,-0.039666,-0.033277,-0.031164,0.017029,-0.011721,-0.015507,-0.017,-0.044077,-0.0097975,-0.024232,-0.034759
-0.030236,-0.059205,-0.0026493,-0.025404,-0.041472,-0.038246,-0.015311,-0.035696,0.026773,-0.0067847,-0.006349,-0.0050084,-0.041206,-0.043845,-0.032746,-0.026539,0.017382,-0.0072992,-0.012772,-0.022049,-0.044369,-0.010579,-0.038014,-0.035036
-0.025069,-0.060293,-0.0039679,-0.021735,-0.042692,-0.035863,-0.018715,-0.035116,0.025522,-0.010152,-0.0069827,0.00010343,-0.043864,-0.042874,-0.02735,-0.022926,0.014211,-0.0048113,-0.010123,-0.024997,-0.041698,-0.011471,-0.049273,-0.036363
-0.020201,-0.062054,-0.0032274,-0.01962,-0.038946,-0.036518,-0.023844,-0.033463,0.020674,-0.013082,-0.0036048,0.0037617,-0.039766,-0.037542,-0.019464,-0.020618,0.0080814,-0.00060169,-0.0071415,-0.025576,-0.036808,-0.01134,-0.0577,-0.036881
-0.018546,-0.064559,-0.0019642,-0.020829,-0.033877,-0.03959,-0.0294,-0.031722,0.016277,-0.013358,0.00078294,0.0044853,-0.0313,-0.032238,-0.013365,-0.01899,0.0024313,0.0060188,-0.004823,-0.0239,-0.031293,-0.0094836,-0.062555,-0.034725
-0.021856,-0.066252,-0.0025593,-0.025679,-0.032086,-0.042065,-0.034546,-0.031487,0.015492,-0.011332,0.0038603,0.0020099,-0.022906,-0.031483,-0.011812,-0.017078,0.00056147,0.012683,-0.0045341,-0.020049,-0.026592,-0.0063149,-0.063277,-0.02966
-0.030007,-0.065231,-0.0060142,-0.032978,-0.034917,-0.040655,-0.039592,-0.033516,0.018222,-0.0094468,0.0058241,-0.0027533,-0.018035,-0.036164,-0.01384,-0.014491,0.0027459,0.01632,-0.0060383,-0.014568,-0.023359,-0.0035434,-0.06037,-0.023535
-0.040611,-0.060939,-0.010837,-0.040393,-0.039574,-0.034623,-0.044978,-0.036948,0.021638,-0.0098224,0.0085267,-0.0081156,-0.017537,-0.042828,-0.0158,-0.011971,0.0061188,0.015889,-0.0068567,-0.0091781,-0.021504,-0.003493,-0.055712,-0.018957
-0.04949,-0.054833,-0.014193,-0.045323,-0.042016,-0.026881,-0.049921,-0.039913,0.022868,-0.012283,0.012918,-0.012215,-0.020071,-0.046672,-0.014724,-0.011054,0.0074285,0.013202,-0.004094,-0.0064277,-0.020666,-0.0077463,-0.051847,-0.017274
-0.052574,-0.049372,-0.014403,-0.046181,-0.040595,-0.022158,-0.052536,-0.040906,0.021262,-0.014788,0.017418,-0.013776,-0.023531,-0.045579,-0.01087,-0.012888,0.0060515,0.011288,0.0026982,-0.0080423,-0.020584,-0.015861,-0.0507,-0.017677
-0.048577,-0.046058,-0.012568,-0.043461,-0.037029,-0.023485,-0.051569,-0.039714,0.018364,-0.015793,0.018976,-0.0128,-0.026163,-0.041554,-0.0070741,-0.01697,0.0044094,0.011836,0.010427,-0.013199,-0.021095,-0.025078,-0.052638,-0.018217
-0.040488,-0.044228,-0.011755,-0.039615,-0.034191,-0.029746,-0.047964,-0.037198,0.016031,-0.016032,0.016016,-0.010716,-0.026837,-0.038437,-0.0056065,-0.020881,0.0053801,0.013894,0.014559,-0.018455,-0.02192,-0.031455,-0.056518,-0.017661
-0.03408,-0.041717,-0.014374,-0.037408,-0.033206,-0.036335,-0.044405,-0.034368,0.014749,-0.01777,0.010533,-0.0096725,-0.024907,-0.038123,-0.0057307,-0.021567,0.0091636,0.014845,0.012887,-0.019815,-0.022595,-0.031947,-0.060568,-0.016327
-0.033858,-0.036912,-0.020049,-0.037775,-0.032681,-0.038397,-0.042989,-0.031729,0.013651,-0.022193,0.0071695,-0.011236,-0.0202,-0.038888,-0.0044824,-0.017553,0.012633,0.012736,0.0076933,-0.015517,-0.02268,-0.026167,-0.063385,-0.015198
-0.039358,-0.030365,-0.025944,-0.038987,-0.030483,-0.034131,-0.043235,-0.029395,0.011862,-0.027635,0.0097218,-0.015314,-0.01324,-0.037252,7.3192e-006,-0.010443,0.011914,0.0080092,0.0042946,-0.0073369,-0.021999,-0.016583,-0.064392,-0.014449
-0.045022,-0.024419,-0.029286,-0.038167,-0.02597,-0.025703,-0.042506,-0.027532,0.0095361,-0.030629,0.017919,-0.020111,-0.0053439,-0.031495,0.0059546,-0.004258,0.0059174,0.0032279,0.0069982,0.0006601,-0.020556,-0.0068593,-0.063683,-0.013095
-0.044297,-0.021095,-0.029788,-0.034064,-0.020465,-0.017394,-0.038677,-0.026442,0.0075451,-0.02896,0.027293,-0.023229,0.0017006,-0.023415,0.0088362,-0.0026975,-0.0024098,0.0010298,0.015745,0.0048876,-0.018192,0.00059718,-0.061661,-0.010164
-0.034967,-0.020212,-0.02972,-0.028626,-0.015757,-0.012721,-0.032608,-0.026125,0.0063462,-0.023816,0.032438,-0.023216,0.0062749,-0.016757,0.0051623,-0.0062978,-0.0082991,0.0019695,0.026086,0.0043067,-0.014416,0.0060981,-0.058898,-0.0060784
-0.021363,-0.019565,-0.031491,-0.025667,-0.01242,-0.012749,-0.027924,-0.025912,0.0054002,-0.018886,0.031085,-0.020501,0.0075596,-0.013876,-0.0043253,-0.011889,-0.0089264,0.0040157,0.0324,0.00033314,-0.0088202,0.011966,-0.056259,-0.002671
-0.011356,-0.01707,-0.035043,-0.027555,-0.0096655,-0.016404,-0.027972,-0.024812,0.0038061,-0.017162,0.025667,-0.017087,0.0058809,-0.013792,-0.015026,-0.015114,-0.0054718,0.0041854,0.031744,-0.0049235,-0.0018754,0.020104,-0.054959,-0.0017396
-0.010355,-0.012841,-0.037636,-0.03286,-0.0066528,-0.021853,-0.032541,-0.022393,0.0014003,-0.018398,0.021155,-0.015167,0.0026701,-0.01331,-0.022121,-0.014113,-0.0018415,0.0010506,0.025477,-0.010266,0.004653,0.029784,-0.056235,-0.0036388
-0.017153,-0.0091664,-0.036444,-0.037241,-0.0036476,-0.027466,-0.037432,-0.01936,-0.0009789,-0.019547,0.021017,-0.015611,-1.26e-005,-0.0099775,-0.024204,-0.01121,-0.001415,-0.0039516,0.017745,-0.015508,0.0083088,0.037609,-0.060681,-0.0073132
-0.025039,-0.0084119,-0.031649,-0.037006,-0.0017185,-0.031804,-0.03768,-0.017154,-0.0024435,-0.017733,0.024648,-0.017379,-0.00039089,-0.0040985,-0.023751,-0.010922,-0.004747,-0.0075891,0.012301,-0.020389,0.007393,0.039925,-0.067656,-0.01158
-0.027223,-0.010855,-0.027009,-0.032233,-0.0013058,-0.033352,-0.031894,-0.016803,-0.0032366,-0.012978,0.028183,-0.018331,0.0019622,0.0018436,-0.024319,-0.015847,-0.0099732,-0.0074867,0.010133,-0.023827,0.0022449,0.035829,-0.075283,-0.016129
-0.022024,-0.014504,-0.027055,-0.026625,-0.0012468,-0.030958,-0.023892,-0.018023,-0.0048071,-0.0082261,0.027784,-0.016912,0.0055922,0.005507,-0.027309,-0.024032,-0.01503,-0.0041293,0.0093714,-0.024548,-0.0047016,0.028183,-0.08118,-0.021141
-0.013589,-0.016939,-0.033172,-0.024207,0.00059616,-0.024955,-0.019917,-0.01934,-0.0085324,-0.0067286,0.02254,-0.013458,0.0078473,0.0064324,-0.031248,-0.030332,-0.019295,-0.00044176,0.0071224,-0.022528,-0.010281,0.021527,-0.083599,-0.026122
-0.0078661,-0.017293,-0.042046,-0.02581,0.0055664,-0.017836,-0.023566,-0.019096,-0.01426,-0.0091786,0.014795,-0.010074,0.0066813,0.0057296,-0.033893,-0.030739,-0.02321,0.00074412,0.0016349,-0.01966,-0.012473,0.018444,-0.082237,-0.029568
-0.0075304,-0.016576,-0.047975,-0.02842,0.012911,-0.013374,-0.032811,-0.016498,-0.020127,-0.013145,0.0080061,-0.0090905,0.0023637,0.0043512,-0.034799,-0.025897,-0.026709,-0.00088178,-0.0066728,-0.018671,-0.011472,0.017425,-0.078154,-0.030172
-0.01022,-0.016332,-0.047264,-0.02785,0.020144,-0.014406,-0.041765,-0.011988,-0.023937,-0.015214,0.0041283,-0.011271,-0.0024681,0.0018683,-0.035781,-0.020639,-0.028486,-0.0029326,-0.015691,-0.021065,-0.0092255,0.014236,-0.0728,-0.02843
-0.011229,-0.017196,-0.041057,-0.022251,0.024757,-0.020846,-0.045626,-0.0068918,-0.024919,-0.013891,0.0025802,-0.015191,-0.0048729,-0.0030333,-0.038942,-0.019892,-0.027132,-0.0025006,-0.02294,-0.025926,-0.0078603,0.0058431,-0.066884,-0.026736
-0.0078764,-0.018706,-0.034345,-0.013454,0.025839,-0.029606,-0.04434,-0.0027997,-0.024248,-0.010755,0.0012681,-0.018315,-0.0043243,-0.010956,-0.044337,-0.024566,-0.023,0.0013517,-0.026809,-0.030743,-0.0081571,-0.0064169,-0.060013,-0.027425
-0.0015882,-0.020174,-0.032073,-0.005272,0.024342,-0.036627,-0.041718,-0.0010147,-0.023899,-0.0089785,-0.0014385,-0.018895,-0.003632,-0.020815,-0.049564,-0.031048,-0.018693,0.0070043,-0.027151,-0.033514,-0.0091062,-0.017299,-0.051465,-0.030418
0.0038135,-0.021415,-0.035527,-0.00057681,0.021991,-0.039465,-0.041116,-0.0020805,-0.024883,-0.010633,-0.0053555,-0.017205,-0.0067872,-0.030526,-0.051612,-0.03465,-0.01733,0.011922,-0.025157,-0.034254,-0.0087196,-0.021681,-0.041468,-0.032834
0.0056177,-0.022552,-0.0417,0.00024792,0.019936,-0.038425,-0.041986,-0.0053597,-0.026508,-0.015149,-0.0086065,-0.015199,-0.015132,-0.038637,-0.049239,-0.033794,-0.01999,0.014753,-0.022706,-0.034584,-0.0054262,-0.018937,-0.031788,-0.03122
0.0042097,-0.023356,-0.045794,-0.0014444,0.018276,-0.035549,-0.040643,-0.0089664,-0.027326,-0.020158,-0.0089761,-0.014986,-0.02512,-0.045193,-0.04377,-0.031149,-0.024696,0.015896,-0.021418,-0.035981,0.00088983,-0.013881,-0.024871,-0.024582
0.0020669,-0.023067,-0.044653,-0.0043279,0.016679,-0.03255,-0.034319,-0.010486,-0.026833,-0.02377,-0.0055487,-0.017364,-0.03006,-0.050848,-0.037799,-0.030756,-0.028016,0.016228,-0.021819,-0.038409,0.0087802,-0.013213,-0.022024,-0.015473
0.0012192,-0.020962,-0.038558,-0.007945,0.01538,-0.029549,-0.024352,-0.0084052,-0.02628,-0.026127,0.00039664,-0.02143,-0.024968,-0.055137,-0.033107,-0.033848,-0.027945,0.015618,-0.023066,-0.040547,0.016008,-0.020233,-0.02209,-0.0080965
0.0017543,-0.017055,-0.030429,-0.012035,0.015506,-0.025474,-0.015324,-0.0033711,-0.027739,-0.028871,0.0058448,-0.02538,-0.010763,-0.055809,-0.029568,-0.037189,-0.025582,0.01289,-0.02348,-0.041173,0.020714,-0.032206,-0.021881,-0.0050685
0.0024825,-0.012186,-0.023512,-0.015516,0.018318,-0.019367,-0.011036,0.0018664,-0.03219,-0.033164,0.0077234,-0.02773,0.0058616,-0.050259,-0.025757,-0.035524,-0.024227,0.007352,-0.021629,-0.040213,0.022346,-0.042673,-0.018246,-0.0056405
0.0026085,-0.0074941,-0.01945,-0.016587,0.023874,-0.011212,-0.011304,0.0041039,-0.038345,-0.038243,0.0048691,-0.028088,0.017139,-0.037967,-0.020465,-0.026049,-0.026796,0.00027011,-0.017269,-0.038543,0.021839,-0.046819,-0.010258,-0.006805
0.0025307,-0.003867,-0.017945,-0.014066,0.030284,-0.0016989,-0.01259,0.0018826,-0.043297,-0.041927,-0.0010375,-0.027087,0.019903,-0.021645,-0.013778,-0.01109,-0.033746,-0.0053446,-0.011544,-0.036972,0.020906,-0.045293,0.00023139,-0.0061055
0.0031657,-0.001737,-0.017763,-0.0085868,0.034413,0.0084041,-0.011625,-0.003462,-0.044464,-0.042567,-0.0064049,-0.025709,0.017643,-0.0057995,-0.0069529,0.0032474,-0.042979,-0.006733,-0.0063728,-0.035589,0.020796,-0.043213,0.010191,-0.0035838
0.0048298,-0.0010904,-0.01792,-0.0023195,0.03388,0.018352,-0.0083612,-0.0088017,-0.041236,-0.040539,-0.008109,-0.024528,0.017265,0.0061639,-0.0014297,0.011312,-0.051342,-0.0035587,-0.0034373,-0.03403,0.02137,-0.045338,0.017912,-0.0012669
0.0069572,-0.0013812,-0.018093,0.0026656,0.028971,0.026936,-0.0054661,-0.011518,-0.035087,-0.037827,-0.0057074,-0.02334,0.023256,0.013728,0.0021459,0.011579,-0.056253,0.0016341,-0.0033815,-0.032148,0.021285,-0.051797,0.024403,-0.00089175
0.0087672,-0.0014487,-0.018232,0.0058307,0.022857,0.0323,-0.005132,-0.011251,-0.028313,-0.036092,-0.0018165,-0.021328,0.034031,0.018358,0.0041926,0.0070144,-0.056413,0.0052155,-0.0055896,-0.030239,0.019327,-0.058203,0.032486,-0.0020615
0.0099351,0.00014632,-0.018114,0.0080572,0.019576,0.032786,-0.0065174,-0.0096885,-0.022585,-0.035068,-0.00028615,-0.017678,0.043295,0.020943,0.0057541,0.0022379,-0.051805,0.005225,-0.0086324,-0.028634,0.015892,-0.059831,0.044273,-0.0024735
0.010544,0.0042581,-0.01741,0.010219,0.021112,0.028399,-0.006404,-0.0086852,-0.018368,-0.032867,-0.0035351,-0.012293,0.045099,0.020256,0.0078255,7.5721e-005,-0.043673,0.0029636,-0.011164,-0.027271,0.013259,-0.055714,0.058941,7.9956e-005
0.01062,0.010328,-0.016115,0.01201,0.025901,0.021621,-0.0024567,-0.0084029,-0.015319,-0.027886,-0.011099,-0.0061924,0.038402,0.014154,0.010926,0.00022121,-0.034563,0.0021306,-0.012785,-0.025837,0.014113,-0.048686,0.072562,0.0057585
0.010045,0.016393,-0.014678,0.012284,0.030172,0.016657,0.0040239,-0.0071353,-0.01299,-0.02054,-0.02044,-0.0012547,0.027669,0.0025399,0.015012,0.00066022,-0.027714,0.006076,-0.014291,-0.024283,0.01931,-0.041504,0.080132,0.012425
0.0090014,0.020162,-0.013514,0.010511,0.031131,0.017406,0.0085218,-0.0029398,-0.011235,-0.013102,-0.029192,0.00069669,0.01943,-0.010788,0.019463,0.00018728,-0.0254,0.015203,-0.017019,-0.022971,0.02675,-0.033228,0.07835,0.01721
0.0082462,0.020475,-0.012369,0.0077439,0.029273,0.025366,0.0067335,0.0044108,-0.01019,-0.0077533,-0.036877,-0.001027,0.017755,-0.019469,0.022971,-0.00032888,-0.027133,0.026461,-0.021689,-0.022133,0.032476,-0.019961,0.067244,0.018485
0.0085894,0.018081,-0.01036,0.0059446,0.027702,0.038646,-0.0017865,0.01291,-0.010069,-0.0046001,-0.044704,-0.005453,0.022053,-0.018501,0.023563,0.0010754,-0.029483,0.035275,-0.027649,-0.021223,0.033324,0.00032034,0.049731,0.016643
0.0099775,0.015143,-0.0068681,0.0062277,0.029033,0.052523,-0.012741,0.019683,-0.01096,-0.001485,-0.053765,-0.010437,0.028409,-0.0078245,0.019314,0.005294,-0.028369,0.038378,-0.033233,-0.019079,0.029044,0.023524,0.029772,0.013226
0.011292,0.013833,-0.0024833,0.0078026,0.032741,0.061254,-0.019708,0.023024,-0.012741,0.0042199,-0.063317,-0.013933,0.03292,0.0072254,0.0098354,0.010871,-0.022409,0.035471,-0.036968,-0.015035,0.022227,0.04051,0.010651,0.009373
0.011369,0.015024,0.0010824,0.0087845,0.035544,0.060495,-0.018289,0.023384,-0.015125,0.013444,-0.070667,-0.015177,0.034324,0.019089,-0.0023784,0.014855,-0.014512,0.028712,-0.0386,-0.01,0.01621,0.043422,-0.0055511,0.0050681
0.010325,0.017937,0.0023044,0.008197,0.03456,0.049355,-0.0088125,0.022635,-0.0179,0.02474,-0.072758,-0.014939,0.034161,0.022591,-0.012234,0.015159,-0.0099141,0.020892,-0.039017,-0.0062467,0.012813,0.032186,-0.017372,-0.00015171
0.0096716,0.020911,0.0013513,0.0072182,0.030275,0.031004,0.0041735,0.022431,-0.021166,0.035541,-0.068172,-0.014697,0.034788,0.017832,-0.014574,0.012411,-0.011888,0.013995,-0.039261,-0.0057556,0.011692,0.015496,-0.023299,-0.0058011
0.010778,0.022653,0.0003647,0.0083237,0.026384,0.011148,0.014998,0.023122,-0.025245,0.044069,-0.05804,-0.015435,0.03706,0.0095023,-0.0075929,0.0096608,-0.018647,0.0090919,-0.039669,-0.0083879,0.011523,0.0053012,-0.021861,-0.0098494
0.013079,0.023068,0.0020208,0.012948,0.026508,-0.0050227,0.020295,0.023924,-0.030115,0.05023,-0.045383,-0.017015,0.039518,0.003347,0.0055494,0.010094,-0.024324,0.0070401,-0.039961,-0.01159,0.011589,0.0093805,-0.012438,-0.0097609
0.014054,0.023069,0.0073338,0.019756,0.030768,-0.015539,0.020561,0.023864,-0.034752,0.054937,-0.033562,-0.018487,0.039551,0.0024366,0.018647,0.014588,-0.023537,0.0087411,-0.039957,-0.012157,0.012227,0.028058,0.0039771,-0.0044763
0.011463,0.023594,0.01442,0.025178,0.035454,-0.022012,0.019114,0.02253,-0.037185,0.058772,-0.024894,-0.018878,0.035489,0.0058729,0.026718,0.021112,-0.015866,0.014445,-0.039883,-0.0087458,0.014011,0.057103,0.02477,0.0043925
0.005922,0.024684,0.019349,0.025903,0.036146,-0.027376,0.019461,0.020145,-0.035666,0.061265,-0.019988,-0.017715,0.027953,0.010584,0.029195,0.026378,-0.006351,0.022889,-0.039764,-0.0030157,0.016826,0.093311,0.046392,0.013382
0.0011612,0.025454,0.018705,0.021334,0.031459,-0.032907,0.022933,0.017271,-0.030303,0.06134,-0.017711,-0.01501,0.019541,0.014472,0.029293,0.028294,-0.0014127,0.031461,-0.03867,0.0017,0.019955,0.13715,0.065159,0.019528
0.0011719,0.025042,0.012166,0.014039,0.024119,-0.037113,0.028048,0.014644,-0.023719,0.058358,-0.015596,-0.011072,0.013236,0.01823,0.030203,0.027217,-0.003485,0.037627,-0.035033,0.0031717,0.022964,0.18999,0.077752,0.022346
0.0065468,0.023677,0.0032149,0.0079578,0.0186,-0.037441,0.031775,0.013194,-0.019702,0.052874,-0.010782,-0.006583,0.010794,0.024388,0.031729,0.025193,-0.0089304,0.040547,-0.028158,0.00214,0.02619,0.24866,0.081596,0.023783
0.013471,0.022807,-0.0027588,0.0058275,0.017624,-0.033147,0.031694,0.013869,-0.020509,0.046599,-0.0015191,-0.0027958,0.012133,0.034587,0.030618,0.0241,-0.011122,0.041445,-0.019496,0.0016019,0.030085,0.30282,0.075619,0.026226
0.016693,0.024005,-0.0018628,0.0077439,0.020495,-0.026563,0.027569,0.017029,-0.024905,0.041666,0.01142,-0.0012437,0.015807,0.047593,0.024264,0.024365,-0.0061914,0.042393,-0.012028,0.0040811,0.034098,0.33808,0.061293,0.030358
0.014075,0.027575,0.0056673,0.011641,0.024261,-0.021526,0.021405,0.021756,-0.028833,0.039625,0.02456,-0.0027326,0.019923,0.05984,0.014041,0.025162,0.0034178,0.044588,-0.0078488,0.0092852,0.036545,0.34331,0.043073,0.034723
0.0085992,0.03213,0.015548,0.015003,0.026143,-0.020384,0.016112,0.025853,-0.028479,0.040593,0.033452,-0.006285,0.022874,0.068029,0.0046843,0.02556,0.010718,0.047632,-0.0060684,0.014278,0.035933,0.31667,0.027184,0.037269
0.0058422,0.035638,0.022299,0.016463,0.025099,-0.022333,0.013793,0.026942,-0.023311,0.042939,0.035463,-0.0091591,0.023791,0.07152,-0.00011545,0.025358,0.0098962,0.050335,-0.0032536,0.016065,0.032582,0.2665,0.018794,0.037304
0.0090986,0.037029,0.022873,0.016323,0.021761,-0.024509,0.014744,0.024179,-0.016452,0.04384,0.031567,-0.0083591,0.022805,0.072559,-0.0017944,0.024839,0.0012263,0.052129,0.0036594,0.014279,0.028749,0.20673,0.019161,0.036016
0.016589,0.036918,0.018436,0.015997,0.017578,-0.02469,0.017713,0.019309,-0.011958,0.040689,0.025581,-0.002703,0.021036,0.074355,-0.0064333,0.023911,-0.0089656,0.053648,0.014501,0.011562,0.026808,0.15041,0.024894,0.035136
0.02322,0.036796,0.013083,0.016933,0.014154,-0.023078,0.021024,0.015968,-0.011363,0.032754,0.021255,0.006185,0.019996,0.078756,-0.019476,0.021765,-0.013312,0.055964,0.025727,0.011282,0.027082,0.10534,0.030248,0.03513
0.02509,0.037466,0.010595,0.019709,0.012895,-0.021702,0.023665,0.017323,-0.012528,0.021992,0.019618,0.014848,0.02047,0.085258,-0.040072,0.017687,-0.0092176,0.059305,0.033176,0.014684,0.027436,0.073572,0.031097,0.034715
0.022497,0.038225,0.011795,0.023686,0.014455,-0.022388,0.025524,0.023594,-0.011749,0.012197,0.018805,0.020247,0.021598,0.091633,-0.06031,0.012364,-0.00066653,0.062613,0.03522,0.019944,0.025218,0.053514,0.027742,0.032243
0.018871,0.037564,0.014436,0.027329,0.01804,-0.025489,0.026744,0.031443,-0.0071012,0.006781,0.016498,0.021589,0.021114,0.095198,-0.070597,0.0082443,0.0054066,0.064442,0.033568,0.023836,0.0198,0.042407,0.02442,0.027644
0.017114,0.034722,0.015466,0.029011,0.021346,-0.030615,0.026949,0.036066,1.3383e-005,0.0066566,0.012664,0.020458,0.016863,0.093749,-0.066925,0.0081298,0.0050037,0.064332,0.031352,0.024375,0.013345,0.03749,0.025925,0.023021
0.017095,0.030665,0.013689,0.027973,0.021739,-0.038392,0.025279,0.034648,0.0063313,0.0098197,0.010019,0.019386,0.0085426,0.086052,-0.053881,0.012811,0.00020781,0.063332,0.030627,0.022146,0.009023,0.036039,0.034018,0.021231
0.016526,0.027567,0.010709,0.024911,0.01806,-0.051121,0.021445,0.028532,0.0095684,0.012999,0.011692,0.020092,-0.0018613,0.072251,-0.040839,0.019772,-0.0030053,0.063122,0.031547,0.019439,0.0083087,0.035238,0.046415,0.023604
0.013906,0.027257,0.0095721,0.02178,0.011613,-0.071245,0.016893,0.022246,0.0099447,0.014074,0.018189,0.02263,-0.011476,0.054137,-0.034686,0.024412,-0.00027996,0.064543,0.033376,0.018257,0.0097808,0.032592,0.058985,0.028819
0.010315,0.029919,0.012306,0.020764,0.0053528,-0.098689,0.014735,0.020018,0.0092842,0.013318,0.026477,0.025748,-0.018686,0.034812,-0.035362,0.023161,0.0071081,0.066898,0.035624,0.018964,0.010436,0.026682,0.069114,0.03393
0.0083411,0.034045,0.018306,0.022908,0.0018518,-0.12939,0.01797,0.022587,0.0090461,0.012575,0.032054,0.027959,-0.024145,0.017503,-0.037702,0.016055,0.013217,0.068641,0.037907,0.020478,0.008263,0.017532,0.077356,0.036631
0.0094698,0.03752,0.024659,0.02732,0.001646,-0.15638,0.027087,0.02693,0.0094222,0.013229,0.032287,0.028509,-0.029703,0.0041284,-0.037292,0.0066449,0.012535,0.068821,0.039098,0.02146,0.0038604,0.0061179,0.086084,0.036831
0.012676,0.038883,0.028035,0.031569,0.0031972,-0.17268,0.03905,0.029067,0.010108,0.014818,0.028196,0.027772,-0.036205,-0.0053648,-0.034669,-0.00068942,0.00482,0.067961,0.037521,0.021415,-8.7659e-005,-0.0067123,0.096494,0.036323
0.015502,0.0379,0.026761,0.033172,0.0042849,-0.17404,0.048818,0.027499,0.011376,0.015409,0.02339,0.026966,-0.042218,-0.012488,-0.034237,-0.0037234,-0.0044634,0.067582,0.032823,0.021001,-0.00084948,-0.021098,0.10661,0.03704
0.016279,0.035368,0.021804,0.031184,0.0035886,-0.15997,0.052506,0.024291,0.013906,0.013288,0.021298,0.027391,-0.044985,-0.019017,-0.039453,-0.0032764,-0.0084601,0.06879,0.027943,0.021588,0.0024315,-0.038104,0.11191,0.039474
0.015194,0.032619,0.0162,0.026745,0.0013157,-0.13334,0.049813,0.02296,0.017543,0.0084469,0.023036,0.029613,-0.042855,-0.026005,-0.049148,-0.0016529,-0.0043424,0.071164,0.028806,0.024417,0.0081282,-0.058709,0.10801,0.042405
0.013331,0.03109,0.013364,0.022151,-0.0013286,-0.099509,0.043869,0.025106,0.020737,0.0027054,0.027342,0.033099,-0.037009,-0.033423,-0.058234,-0.00043871,0.0046896,0.072905,0.041113,0.029732,0.01295,-0.082507,0.093198,0.043819
0.011079,0.031923,0.015207,0.019131,-0.0032028,-0.065276,0.03873,0.028833,0.021792,-0.0015155,0.032034,0.036596,-0.030849,-0.04028,-0.061683,0.00032983,0.012369,0.072165,0.066346,0.036282,0.01355,-0.10703,0.06903,0.04204
0.0078416,0.035396,0.021021,0.017669,-0.0040244,-0.037291,0.036654,0.030363,0.020849,-0.002708,0.035403,0.039003,-0.027494,-0.044957,-0.05785,0.0013217,0.014626,0.06846,0.10012,0.041604,0.0081278,-0.12821,0.039016,0.036333
0.0034087,0.040431,0.027799,0.016295,-0.004471,-0.019423,0.037195,0.027463,0.020267,-0.00099812,0.036407,0.040058,-0.027512,-0.045768,-0.048549,0.00278,0.012663,0.06306,0.1342,0.043264,-0.0026444,-0.14193,0.0063662,0.026964
-0.0006845,0.04478,0.031973,0.013615,-0.0056138,-0.010307,0.03846,0.02166,0.022411,0.0022993,0.033862,0.040295,-0.028744,-0.041772,-0.036736,0.0044317,0.011337,0.058079,0.16069,0.040449,-0.015832,-0.14576,-0.027841,0.015126
-0.0017092,0.046231,0.031635,0.0097948,-0.0080456,-0.0032643,0.039019,0.017248,0.026797,0.005785,0.025629,0.040356,-0.028247,-0.033497,-0.024596,0.0062694,0.014468,0.05502,0.17528,0.034748,-0.027605,-0.14024,-0.06546,0.0028049
0.0018324,0.044256,0.027789,0.0067158,-0.011241,0.010242,0.038706,0.017815,0.029712,0.0088313,0.0086138,0.040306,-0.024575,-0.022926,-0.013526,0.0089636,0.021267,0.053908,0.17782,0.029279,-0.035088,-0.12864,-0.11072,-0.007653
0.008152,0.040843,0.023598,0.0065509,-0.013642,0.035353,0.037883,0.023171,0.027273,0.011551,-0.020127,0.039575,-0.018551,-0.012484,-0.0049959,0.013207,0.026984,0.053556,0.17068,0.02661,-0.037571,-0.11548,-0.16799,-0.014434
0.012841,0.039605,0.022028,0.0098717,-0.013583,0.070593,0.03622,0.029308,0.019319,0.014007,-0.061412,0.037511,-0.012197,-0.0036231,-0.00043989,0.018704,0.027111,0.0526,0.15684,0.027066,-0.036308,-0.10418,-0.23802,-0.017192
0.012235,0.043526,0.023682,0.014902,-0.010526,0.10948,0.032406,0.031523,0.010164,0.015506,-0.11173,0.034082,-0.0070534,0.0038405,6.5725e-005,0.024047,0.021306,0.050476,0.13901,0.028848,-0.03322,-0.095403,-0.31416,-0.017272
0.0067294,0.052907,0.026601,0.01869,-0.0057003,0.14594,0.025195,0.028193,0.0050639,0.014872,-0.16219,0.030131,-0.0034173,0.011021,-0.0013334,0.027757,0.013607,0.047714,0.11953,0.02986,-0.029649,-0.087046,-0.3818,-0.016799
0.00089116,0.064976,0.028234,0.019367,-0.0014825,0.17899,0.014828,0.022105,0.0055381,0.011727,-0.20034,0.026997,-0.00089387,0.018462,-0.0013912,0.029417,0.0088708,0.045547,0.10041,0.029534,-0.026094,-0.076049,-0.42326,-0.017099
-0.00010806,0.075422,0.027818,0.017621,0.00022417,0.21263,0.0035125,0.018184,0.0081419,0.0076793,-0.21562,0.025696,0.00063421,0.02524,0.0016902,0.02973,0.0087613,0.045182,0.082912,0.02898,-0.022777,-0.060907,-0.42705,-0.01758
0.0051112,0.080679,0.02699,0.016073,-0.00052153,0.25079,-0.005623,0.019478,0.0081065,0.0060149,-0.20598,0.026134,0.0007755,0.029619,0.006581,0.029568,0.01085,0.047102,0.06723,0.029406,-0.020089,-0.043163,-0.39593,-0.016094
0.012749,0.079483,0.02805,0.017004,-0.001573,0.29191,-0.010322,0.0247,0.0043384,0.0096104,-0.181,0.026932,-0.00059321,0.030739,0.0097453,0.02924,0.011365,0.050659,0.052766,0.030476,-0.018326,-0.026905,-0.3473,-0.010761
0.016762,0.073004,0.031536,0.020352,-0.00023912,0.32818,-0.010334,0.029374,0.00069279,0.018534,-0.15748,0.026203,-0.002411,0.029717,0.0083528,0.028812,0.0087898,0.054202,0.038803,0.030377,-0.017122,-0.016647,-0.30375,-0.0019931
0.013654,0.063915,0.035483,0.023728,0.0045246,0.35074,-0.0069319,0.029646,0.0020122,0.029494,-0.14879,0.022964,-0.0025339,0.028952,0.0027726,0.028956,0.0049309,0.055848,0.02501,0.02761,-0.015509,-0.015038,-0.2794,0.0069798
0.0050519,0.055198,0.037127,0.024449,0.010983,0.35679,-0.0011895,0.025556,0.0087871,0.037943,-0.15532,0.018181,0.00085265,0.030091,-0.0033556,0.03092,0.0027201,0.054596,0.011397,0.022733,-0.012857,-0.021781,-0.27153,0.011891
-0.0039393,0.049153,0.035435,0.021801,0.015614,0.35247,0.0075178,0.021046,0.015969,0.041299,-0.16391,0.014364,0.0075037,0.032499,-0.0054165,0.035187,0.0031912,0.051008,-0.0019292,0.018241,-0.0097911,-0.034137,-0.26406,0.010507
-0.0088779,0.046724,0.032015,0.017596,0.015678,0.34901,0.021287,0.020695,0.017507,0.040511,-0.15795,0.013754,0.014626,0.033726,-0.00068713,0.040122,0.0046927,0.046733,-0.014644,0.016535,-0.0079569,-0.04841,-0.2401,0.0046364
-0.0089205,0.047269,0.029531,0.014609,0.011444,0.35496,0.041528,0.025915,0.012374,0.038598,-0.13058,0.016482,0.018414,0.031623,0.010131,0.042456,0.0049617,0.043066,-0.025716,0.017847,-0.0085781,-0.061451,-0.19379,-0.00080566
-0.0063503,0.048981,0.029189,0.014374,0.0062521,0.37087,0.066333,0.03374,0.0060122,0.037578,-0.090366,0.020405,0.016754,0.026151,0.023427,0.039842,0.0037393,0.039721,-0.03327,0.020055,-0.011107,-0.071473,-0.13247,-0.0013543
-0.0037885,0.049886,0.029763,0.016201,0.0041656,0.39034,0.089588,0.039094,0.005454,0.036754,-0.054131,0.022934,0.011086,0.019256,0.034671,0.0334,0.003134,0.035071,-0.0355,0.020594,-0.013412,-0.078011,-0.068496,0.0034813
-0.0020442,0.048822,0.02903,0.018022,0.0069696,0.40621,0.10309,0.038566,0.012563,0.033986,-0.033126,0.023218,0.0057825,0.013047,0.040742,0.027591,0.0053594,0.02784,-0.032379,0.018709,-0.013514,-0.081253,-0.0088761,0.0096835
-0.00040636,0.045662,0.026094,0.01809,0.012852,0.41608,0.10074,0.032614,0.021948,0.028554,-0.024173,0.022601,0.0052462,0.0081602,0.041434,0.026961,0.010237,0.018769,-0.026791,0.016076,-0.011306,-0.081296,0.048281,0.011886
0.00155,0.040719,0.022216,0.016028,0.017831,0.42244,0.082189,0.024684,0.025696,0.022509,-0.013367,0.022871,0.010779,0.0038373,0.0394,0.032312,0.015097,0.01056,-0.023715,0.015305,-0.0085188,-0.077919,0.10799,0.0078029
0.0029846,0.034107,0.019341,0.012713,0.018779,0.42784,0.053314,0.018323,0.020519,0.01893,0.011271,0.024082,0.019615,-0.00059609,0.03841,0.039775,0.017215,0.0058904,-0.027414,0.017704,-0.006909,-0.071138,0.1696,0.00023111
0.0027771,0.025891,0.017926,0.0095613,0.015619,0.42997,0.023243,0.01487,0.010571,0.018727,0.049477,0.024229,0.026906,-0.0045722,0.040817,0.043872,0.016292,0.005195,-0.038371,0.022213,-0.0064354,-0.062086,0.2236,-0.005197
0.0012427,0.016888,0.016463,0.0080015,0.011064,0.42182,-0.00019611,0.013393,0.0034051,0.019387,0.089557,0.021242,0.029193,-0.0067022,0.045898,0.042037,0.014488,0.006267,-0.052341,0.026239,-0.0053569,-0.053267,0.25723,-0.0047213
0.00041817,0.0090571,0.01335,0.0091933,0.0083268,0.3971,-0.013595,0.012457,0.0030924,0.017263,0.11893,0.015322,0.026692,-0.0062789,0.050402,0.036657,0.014044,0.0061236,-0.062598,0.027588,-0.0022865,-0.047494,0.26406,0.00034839
0.0022692,0.0045905,0.0092739,0.013569,0.008866,0.35616,-0.01804,0.011825,0.007034,0.011408,0.13457,0.0092051,0.022752,-0.0042068,0.051088,0.032863,0.015022,0.0034593,-0.064128,0.02593,0.00185,-0.046034,0.24952,0.0047065
0.0065161,0.0042204,0.0074047,0.020171,0.011889,0.30686,-0.016797,0.012603,0.0091421,0.0050884,0.14433,0.0058687,0.021039,-0.002322,0.047313,0.034152,0.015491,-0.00053694,-0.056866,0.022819,0.0041434,-0.047495,0.22811,0.0035101
0.010425,0.0062887,0.010697,0.026525,0.015617,0.25914,-0.012766,0.015948,0.0058869,0.0031382,0.15882,0.0058283,0.022784,-0.0017254,0.041515,0.039763,0.013954,-0.0036333,-0.045597,0.020454,0.002361,-0.048676,0.21504,-0.0035605
0.011085,0.0077279,0.018523,0.029723,0.018756,0.21792,-0.0074192,0.021664,-0.00071079,0.0073851,0.18202,0.0066615,0.026231,-0.0017553,0.037095,0.045996,0.011425,-0.0047438,-0.036547,0.020189,-0.0024772,-0.046983,0.21875,-0.012025
0.0081605,0.0063794,0.025963,0.028277,0.020782,0.18039,-0.0013523,0.027932,-0.0056225,0.014472,0.20897,0.0053288,0.028527,-0.00060755,0.035533,0.04994,0.010885,-0.0047296,-0.033101,0.021777,-0.0062908,-0.042396,0.23898,-0.016201
0.0044573,0.0027262,0.026952,0.023222,0.021181,0.14004,0.0047141,0.032267,-0.0058394,0.018313,0.23185,0.0011174,0.028291,0.0029317,0.035343,0.051975,0.014411,-0.0051933,-0.033757,0.023731,-0.0051623,-0.037123,0.26979,-0.013526
0.0035845,-0.00048349,0.018984,0.017289,0.018996,0.093654,0.0096519,0.03288,-0.0027787,0.015091,0.24816,-0.0036345,0.02665,0.0081534,0.033832,0.054786,0.020635,-0.0066723,-0.033683,0.024462,0.0011137,-0.033121,0.30358,-0.006032
0.0067446,-0.00042555,0.005341,0.012671,0.013644,0.045019,0.012507,0.029468,-0.00010638,0.0063431,0.26292,-0.0057613,0.025973,0.012615,0.030005,0.060074,0.025082,-0.0081427,-0.028529,0.023401,0.0084987,-0.029768,0.33299,0.0019548
0.011539,0.0036495,-0.007214,0.0093877,0.0062922,0.0021822,0.013199,0.023178,0.00021818,-0.0024697,0.28314,-0.0042909,0.027584,0.013697,0.025801,0.06633,0.023403,-0.008303,-0.017555,0.021344,0.012008,-0.024019,0.35105,0.0075948
0.013883,0.010014,-0.013448,0.005811,4.2079e-005,-0.029069,0.012564,0.016005,-0.00059318,-0.0063414,0.30962,-0.0013023,0.030545,0.010356,0.024359,0.069943,0.014928,-0.0072678,-0.003867,0.019783,0.010116,-0.013136,0.35168,0.011476
0.01136,0.015913,-0.013178,0.00092725,-0.0019342,-0.049657,0.011675,0.010068,-0.00039697,-0.0040769,0.33376,0.00022979,0.032572,0.0039103,0.026842,0.068571,0.0035709,-0.0068957,0.0080782,0.019739,0.0063004,0.0024321,0.33209,0.016256
0.005168,0.019451,-0.010501,-0.0039021,0.00093686,-0.06591,0.011048,0.00694,0.00081537,0.001902,0.34226,-0.00053781,0.032133,-0.0025752,0.030868,0.06348,-0.0047508,-0.0093358,0.015503,0.021011,0.0061252,0.018772,0.29535,0.023489
-0.00082927,0.020381,-0.0097898,-0.0055662,0.0056465,-0.084097,0.010403,0.0071205,0.00066622,0.0083115,0.32638,-0.0014505,0.029736,-0.0059059,0.032204,0.058462,-0.0062156,-0.015088,0.018588,0.02244,0.012276,0.031272,0.25055,0.031616
-0.0029806,0.019476,-0.012161,-0.001903,0.0076406,-0.10577,0.0091619,0.009802,-0.0026393,0.01336,0.28843,0.0004571,0.027258,-0.0045085,0.028395,0.056285,-0.0015525,-0.022317,0.019429,0.022941,0.021933,0.038047,0.20917,0.036895
-0.00031876,0.017381,-0.015305,0.0058953,0.0045127,-0.12759,0.0072206,0.01316,-0.0074093,0.0169,0.24111,0.0058938,0.026014,0.00058575,0.021107,0.056033,0.0049224,-0.028032,0.01998,0.022381,0.028923,0.041026,0.17975,0.03648
0.00505,0.014113,-0.016251,0.013467,-0.001794,-0.14499,0.0053014,0.015174,-0.0090905,0.019167,0.20043,0.012445,0.025443,0.006181,0.015024,0.053958,0.0087212,-0.030175,0.020796,0.021561,0.02887,0.043874,0.16434,0.031019
0.009537,0.0094518,-0.014103,0.016175,-0.0064365,-0.15586,0.004532,0.014617,-0.0043128,0.02003,0.17748,0.016794,0.023641,0.0087758,0.014159,0.047096,0.0082573,-0.028989,0.021283,0.021429,0.022837,0.048738,0.15904,0.024532
0.010279,0.0036375,-0.010308,0.012502,-0.00582,-0.16124,0.0055122,0.011658,0.005424,0.019509,0.17416,0.017799,0.019193,0.0068603,0.018677,0.03628,0.0053086,-0.026711,0.020763,0.022302,0.016308,0.054693,0.15774,0.021598
0.0065873,-0.0024478,-0.0067386,0.0052589,-0.00096281,-0.16328,0.007617,0.0077037,0.014166,0.018522,0.18467,0.017335,0.012585,0.0020186,0.024815,0.025681,0.0029149,-0.025918,0.019196,0.023734,0.014426,0.058888,0.15577,0.023995
6.5941e-005,-0.0077488,-0.0038651,-0.00034054,0.002984,-0.16315,0.0091856,0.0045736,0.015994,0.01859,0.2004,0.01808,0.0059091,-0.002271,0.0278,0.01929,0.0027741,-0.027809,0.017106,0.024931,0.01772,0.058944,0.15097,0.029438
-0.006375,-0.011648,-0.00083301,-0.00028665,0.00090241,-0.16093,0.008592,0.0034923,0.0097243,0.020614,0.21444,0.020548,0.0011787,-0.0034887,0.025284,0.017597,0.0042605,-0.031584,0.015083,0.025149,0.021952,0.054302,0.14217,0.033365
-0.010006,-0.014115,0.0030097,0.0055703,-0.0078773,-0.15707,0.0054591,0.0044936,-0.00026967,0.024075,0.22307,0.022449,-0.0012239,-0.0022862,0.018678,0.017471,0.0054655,-0.035243,0.013475,0.023795,0.02204,0.045751,0.12741,0.032424
-0.0095629,-0.015315,0.0070522,0.013602,-0.01874,-0.15314,0.0010826,0.0065674,-0.0076583,0.027576,0.22442,0.021088,-0.0026225,-0.001962,0.011688,0.015186,0.0049309,-0.037108,0.012421,0.020449,0.016456,0.034294,0.10423,0.026941
-0.0057263,-0.015178,0.010041,0.018985,-0.025353,-0.15082,-0.0023241,0.0084335,-0.0089122,0.0301,0.21645,0.016363,-0.0046722,-0.0053678,0.0075168,0.0096898,0.0025285,-0.036964,0.011977,0.015171,0.0083113,0.020883,0.071824,0.020502
-0.00057752,-0.013457,0.011601,0.018874,-0.024656,-0.15013,-0.003067,0.009421,-0.005286,0.03155,0.19661,0.01129,-0.0078016,-0.011864,0.0068751,0.003137,-0.0008737,-0.036101,0.012135,0.0089165,0.0024218,0.0071323,0.033224,0.017021
0.0036311,-0.010271,0.012847,0.01403,-0.019026,-0.14901,-0.0010772,0.0098317,-0.00092201,0.032012,0.16362,0.0094229,-0.010828,-0.017124,0.0079211,-0.0015054,-0.0041807,-0.036362,0.012782,0.0034897,0.0011686,-0.0043558,-0.005092,0.017679
0.0055852,-0.0065824,0.015265,0.0079742,-0.013898,-0.14501,0.0020904,0.010504,0.0006847,0.030776,0.11969,0.011677,-0.012035,-0.016119,0.0077562,-0.0032452,-0.0064889,-0.038934,0.013719,0.00072995,0.0027966,-0.011168,-0.036172,0.02022
0.0052204,-0.0039932,0.019005,0.0044616,-0.01309,-0.13767,0.0043529,0.011897,-0.0012311,0.026516,0.071021,0.015632,-0.010738,-0.0066985,0.004295,-0.0035687,-0.0071564,-0.043625,0.014716,0.0014084,0.0034156,-0.01308,-0.056226,0.021097
0.0032138,-0.0038045,0.022471,0.0051228,-0.01596,-0.12923,0.0045288,0.013451,-0.0052003,0.018758,0.025422,0.017929,-0.0080051,0.0092447,-0.0024972,-0.0044643,-0.0059724,-0.048948,0.015484,0.0047401,0.00064032,-0.012857,-0.066249,0.018613
0.00026797,-0.0060029,0.023837,0.0088505,-0.018675,-0.12299,0.003141,0.013821,-0.0092634,0.0091406,-0.011563,0.017366,-0.0058831,0.027671,-0.010425,-0.0062844,-0.0034734,-0.05285,0.015615,0.0089505,-0.0044809,-0.014574,-0.070627,0.014325
-0.0031814,-0.0090136,0.02305,0.013129,-0.01805,-0.12089,0.0020618,0.011892,-0.012053,0.00092386,-0.039041,0.015751,-0.0057823,0.04514,-0.015975,-0.0077672,-0.00088814,-0.053749,0.014695,0.012394,-0.0088429,-0.020515,-0.073971,0.011501
-0.006762,-0.010583,0.022261,0.016068,-0.014299,-0.12237,0.0032456,0.0078007,-0.012708,-0.003158,-0.059806,0.015864,-0.0073277,0.059774,-0.016097,-0.0081202,0.00063508,-0.051438,0.012657,0.014289,-0.010486,-0.029352,-0.078481,0.011998
-0.0099274,-0.0093172,0.024,0.017497,-0.010379,-0.12526,0.0074025,0.0030996,-0.010599,-0.002911,-0.076823,0.018681,-0.0086511,0.07004,-0.010223,-0.0087693,0.0010024,-0.04735,0.010097,0.014653,-0.010552,-0.037399,-0.083401,0.01439
-0.012087,-0.0058547,0.028669,0.01841,-0.008982,-0.12762,0.013513,-0.00014885,-0.0058102,-0.00076557,-0.090294,0.022494,-0.0079554,0.073464,-0.0013767,-0.012664,0.0013369,-0.043849,0.0081633,0.013836,-0.012185,-0.04197,-0.086432,0.015087
-0.012976,-0.0027944,0.033677,0.019551,-0.010289,-0.12864,0.019487,-0.00068465,6.7789e-005,0.00013422,-0.097968,0.024568,-0.0051511,0.067376,0.0047552,-0.021607,0.002942,-0.04277,0.0079152,0.012336,-0.017422,-0.043795,-0.085825,0.01158
-0.012785,-0.0032516,0.035172,0.020585,-0.012484,-0.1283,0.023459,0.0012234,0.0041314,-0.0018328,-0.098352,0.023543,-0.002245,0.051398,0.002782,-0.03424,0.0059373,-0.044168,0.009553,0.010926,-0.024974,-0.046211,-0.081814,0.0049329
-0.011855,-0.0088454,0.031047,0.020619,-0.014061,-0.12659,0.024755,0.0041448,0.0039153,-0.0059798,-0.093616,0.020386,-0.002042,0.029132,-0.0090174,-0.046763,0.0089576,-0.046302,0.012111,0.010557,-0.030938,-0.051811,-0.076738,-0.00076944
-0.010265,-0.01841,0.022734,0.019403,-0.015242,-0.12346,0.023927,0.0065583,-0.00046209,-0.010298,-0.089062,0.017338,-0.0059983,0.0068791,-0.027301,-0.055746,0.010376,-0.047032,0.01391,0.011676,-0.031827,-0.059644,-0.074032,-0.0017113
-0.0078571,-0.028399,0.014319,0.017843,-0.017027,-0.11944,0.022051,0.0077199,-0.0057601,-0.013038,-0.089244,0.016168,-0.012799,-0.010026,-0.045481,-0.060357,0.0099383,-0.045512,0.013488,0.013503,-0.027285,-0.065615,-0.076706,0.0023998
-0.0047363,-0.03492,0.0097213,0.017184,-0.019157,-0.11583,0.020009,0.007729,-0.0075695,-0.013556,-0.094167,0.017307,-0.018852,-0.020318,-0.057562,-0.062116,0.0091325,-0.04271,0.01039,0.014241,-0.020208,-0.065844,-0.08606,0.0079543
-0.0016906,-0.036157,0.010169,0.017666,-0.019548,-0.11394,0.018316,0.0069949,-0.0034591,-0.01212,-0.099221,0.020184,-0.02059,-0.026799,-0.061165,-0.062903,0.0097374,-0.04031,0.00531,0.012512,-0.014367,-0.060056,-0.10114,0.010377
4.2928e-005,-0.033561,0.013815,0.018088,-0.016163,-0.11388,0.017306,0.0058059,0.0051803,-0.0093691,-0.099193,0.023897,-0.017083,-0.033428,-0.057599,-0.063563,0.011856,-0.039099,-0.00038019,0.0089488,-0.011696,-0.052036,-0.11904,0.0079708
-0.00037983,-0.030866,0.017516,0.016883,-0.0094992,-0.11419,0.017164,0.004416,0.014099,-0.0061104,-0.092813,0.02749,-0.011045,-0.042158,-0.049459,-0.064446,0.013373,-0.038435,-0.0052516,0.0063437,-0.011405,-0.046735,-0.13562,0.0034056
-0.0026713,-0.031571,0.019132,0.013759,-0.0028727,-0.11285,0.01759,0.0033401,0.019143,-0.0033516,-0.083732,0.030018,-0.0072543,-0.051936,-0.038318,-0.066725,0.011538,-0.037263,-0.0081319,0.0077987,-0.011286,-0.046442,-0.14649,0.0015142
-0.0054778,-0.036673,0.018501,0.010302,0.00018018,-0.10879,0.017567,0.0032347,0.018841,-0.0020601,-0.077075,0.030975,-0.0092547,-0.060054,-0.024726,-0.072354,0.0053262,-0.035531,-0.0080969,0.014166,-0.0097241,-0.049206,-0.14792,0.0051134
-0.007259,-0.044311,0.016621,0.0088087,-0.00095906,-0.1025,0.015814,0.0042561,0.014817,-0.0025219,-0.074849,0.030963,-0.016619,-0.064064,-0.010184,-0.082037,-0.003511,-0.034437,-0.0045592,0.022943,-0.0067136,-0.050743,-0.138,0.012309
-0.0072864,-0.051487,0.014142,0.010292,-0.0034579,-0.095387,0.011804,0.005583,0.010159,-0.0039066,-0.074495,0.031603,-0.024909,-0.062645,0.0015194,-0.093069,-0.011623,-0.035206,0.0021982,0.02977,-0.0034514,-0.048168,-0.11791,0.017649
-0.0059836,-0.056388,0.010726,0.013429,-0.0037615,-0.088366,0.0064296,0.005879,0.007351,-0.0047177,-0.071783,0.034154,-0.028606,-0.055411,0.0057983,-0.099573,-0.016359,-0.037621,0.010291,0.031533,-0.0013208,-0.042394,-0.092474,0.01643
-0.0044069,-0.059378,0.0058504,0.015469,-0.00095543,-0.081295,0.0014709,0.0045501,0.0072369,-0.0039801,-0.065147,0.037824,-0.025006,-0.042741,0.00092388,-0.095635,-0.017219,-0.039827,0.016093,0.028623,-0.0011875,-0.037217,-0.06899,0.0088216
-0.0033509,-0.062013,8.7545e-005,0.014434,0.0025514,-0.073534,-0.0019094,0.0026046,0.0092383,-0.0021202,-0.057246,0.039678,-0.016166,-0.026105,-0.0093799,-0.07907,-0.015449,-0.039541,0.015334,0.02449,-0.003128,-0.035866,-0.054273,0.00041649
-0.0027867,-0.065166,-0.0046113,0.010792,0.003646,-0.065042,-0.004302,0.0020106,0.012108,-0.00057387,-0.05234,0.036934,-0.0073762,-0.0082328,-0.017272,-0.052704,-0.012486,-0.035433,0.0051567,0.022783,-0.0062302,-0.037948,-0.051256,-0.0015504
-0.0020008,-0.068138,-0.006163,0.0071884,0.0017172,-0.056826,-0.0075808,0.0038368,0.014534,-0.00032734,-0.052095,0.029925,-0.0033064,0.0077883,-0.01568,-0.022073,-0.0087958,-0.02746,-0.014051,0.024358,-0.0085268,-0.039439,-0.057384,0.006345
-0.00024481,-0.069561,-0.004127,0.0063906,-0.00082642,-0.050257,-0.01301,0.006884,0.015514,-0.00075882,-0.053875,0.022755,-0.0048026,0.020193,-0.0031138,0.0086014,-0.003984,-0.016268,-0.038343,0.026597,-0.0076893,-0.035806,-0.066075,0.020738
0.0026112,-0.069168,-0.00035563,0.0090831,-0.0011884,-0.045764,-0.019593,0.0083674,0.014681,-5.4673e-005,-0.053083,0.020389,-0.0087518,0.029616,0.015416,0.038893,0.0022074,-0.002813,-0.061745,0.025594,-0.0026989,-0.02575,-0.070398,0.033408
0.0058476,-0.068582,0.0022073,0.013313,0.00084757,-0.041951,-0.024362,0.0063577,0.012521,0.0029712,-0.047259,0.024335,-0.010893,0.038439,0.032074,0.071228,0.0090699,0.011213,-0.078754,0.019452,0.0046035,-0.012514,-0.06647,0.036835
0.0081837,-0.070227,0.0016447,0.016073,0.0027915,-0.035744,-0.024626,0.0018081,0.010154,0.0073112,-0.038103,0.03088,-0.0091264,0.048825,0.041469,0.10746,0.015014,0.022927,-0.086372,0.0099832,0.0098818,-0.0016938,-0.054449,0.029285
0.0083876,-0.075202,-0.0016688,0.015759,0.0023708,-0.023418,-0.020339,-0.0019319,0.0086205,0.010109,-0.029697,0.033832,-0.0046809,0.061074,0.043483,0.14574,0.018473,0.0291,-0.084762,0.0014542,0.0091495,0.0027044,-0.037002,0.015645
0.0058995,-0.081971,-0.0056413,0.013483,0.00044608,-0.0018049,-0.014378,-0.0019865,0.0081274,0.0089083,-0.024789,0.029611,-0.00050842,0.073636,0.041965,0.18013,0.018906,0.02828,-0.07656,-0.0025228,0.0022057,0.00090872,-0.016953,0.0035967
0.0011938,-0.087013,-0.0082243,0.012107,0.00067767,0.030958,-0.010293,0.0013338,0.0079189,0.0039191,-0.022605,0.020172,0.0013357,0.084543,0.041003,0.2031,0.01714,0.022425,-0.065491,-0.0014034,-0.0064725,-0.0031447,0.0039931,-0.0017141
-0.0043009,-0.086921,-0.0087528,0.013801,0.0059164,0.075343,-0.009358,0.0046756,0.0069638,-0.0018021,-0.019962,0.011178,0.00092984,0.092829,0.042071,0.20945,0.014752,0.016092,-0.054914,0.0024071,-0.010806,-0.0048253,0.024919,-0.00041441
-0.0087628,-0.080302,-0.007838,0.018184,0.01475,0.13071,-0.0095387,0.0048129,0.0048877,-0.0046225,-0.014245,0.0071955,-0.00051175,0.098674,0.043967,0.19912,0.012893,0.013282,-0.046699,0.0058099,-0.0080331,-0.001867,0.044655,0.0036025
-0.010841,-0.068217,-0.0062133,0.02265,0.021819,0.19527,-0.0074157,0.0020196,0.0023057,-0.0031648,-0.0053593,0.0083412,-0.0025168,0.10236,0.044832,0.17744,0.011462,0.01445,-0.040766,0.0073081,-0.0012585,0.0046643,0.061204,0.0065368
-0.010379,-0.053211,-0.0038125,0.024543,0.022054,0.2652,-0.0015123,0.0002899,0.00023618,0.00076517,0.0048969,0.011153,-0.0059872,0.10323,0.04404,0.1528,0.0093627,0.016424,-0.035598,0.0074916,0.0028854,0.01176,0.072074,0.0073887
-0.0084864,-0.037951,5.8296e-005,0.023245,0.015137,0.33321,0.005877,0.0037779,-0.00086358,0.0039499,0.01491,0.012309,-0.011848,0.099742,0.042408,0.13279,0.0057613,0.015523,-0.029625,0.0076611,-0.00028023,0.01676,0.07509,0.0075437
-0.0067627,-0.024417,0.0057417,0.020354,0.0060171,0.38777,0.010129,0.012479,-0.0015186,0.0045875,0.024453,0.011337,-0.019145,0.090693,0.04106,0.12074,0.0012608,0.011196,-0.02264,0.0081613,-0.0095582,0.018823,0.069163,0.0082846
-0.0061278,-0.013734,0.012457,0.017955,0.00081312,0.41511,0.008038,0.02126,-0.0026986,0.0036305,0.033927,0.009924,-0.024808,0.076437,0.040397,0.11447,-0.0022202,0.0069073,-0.016113,0.0080184,-0.018964,0.01887,0.05472,0.0089581
-0.0061933,-0.0062242,0.01847,0.016748,0.0017362,0.40434,0.00083916,0.023589,-0.0048228,0.003551,0.042812,0.0091471,-0.025774,0.059118,0.040192,0.10803,-0.0030167,0.0073615,-0.011964,0.0060716,-0.022841,0.018551,0.03384,0.0075133
-0.0058457,-0.0013876,0.02207,0.015844,0.0056179,0.35367,-0.0061268,0.01703,-0.0072501,0.0058612,0.0493,0.0079293,-0.021735,0.0416,0.040488,0.095767,-0.0014101,0.014441,-0.010761,0.0023762,-0.020455,0.019134,0.010066,0.0026796
-0.0047069,0.0019572,0.0226,0.014326,0.0073309,0.27348,-0.0071201,0.0057236,-0.0087217,0.0097497,0.051704,0.0044062,-0.015834,0.025944,0.042075,0.076147,0.00028964,0.025363,-0.010938,-0.0014843,-0.016116,0.020902,-0.012128,-0.0044341
-0.0041587,0.0050796,0.020843,0.012862,0.0048221,0.183,-0.00032691,-0.0025247,-0.0083051,0.012938,0.050165,-0.0014177,-0.012331,0.012558,0.045846,0.0529,-0.00032187,0.034645,-0.0098739,-0.003425,-0.014973,0.023199,-0.028113,-0.010798
-0.0066975,0.0084738,0.018552,0.013527,0.00097542,0.10152,0.010598,-0.0022381,-0.0059692,0.013666,0.046693,-0.0068067,-0.013116,0.00060986,0.051558,0.03242,-0.0034126,0.038216,-0.0059299,-0.0022802,-0.018434,0.025057,-0.03383,-0.013456
-0.013766,0.011423,0.017469,0.017712,0.00051558,0.039373,0.019078,0.0056235,-0.0023877,0.011823,0.043219,-0.0084056,-0.016188,-0.010656,0.057342,0.019191,-0.0065045,0.036281,0.00035116,0.0015253,-0.023199,0.026192,-0.026276,-0.011267
-0.023796,0.012554,0.018408,0.024034,0.0048918,-0.0051953,0.020368,0.014756,0.0016126,0.0084138,0.039512,-0.0053344,-0.017585,-0.020726,0.060751,0.012502,-0.0066897,0.032699,0.0069272,0.0063672,-0.024437,0.027755,-0.0037785,-0.0051271
-0.032425,0.011153,0.020882,0.028463,0.010099,-0.041485,0.014876,0.018629,0.0052807,0.0044057,0.033202,-0.00015662,-0.015027,-0.027701,0.06068,0.0068834,-0.0035732,0.031572,0.012067,0.0103,-0.019979,0.032011,0.03372,0.0030498
-0.035229,0.0082854,0.023502,0.027121,0.0097546,-0.078021,0.0075574,0.015211,0.0077234,0.00044998,0.022202,0.0033147,-0.0099755,-0.029453,0.058504,-0.0040829,-4.0895e-005,0.033927,0.015548,0.011727,-0.011878,0.040756,0.084217,0.011421
-0.031001,0.0067508,0.024899,0.019722,0.00086149,-0.11692,0.0040168,0.0076492,0.0077949,-0.0023995,0.0073831,0.0032953,-0.0062445,-0.025353,0.057197,-0.023442,0.0001882,0.037084,0.018235,0.0097166,-0.0043409,0.053488,0.14315,0.018615
-0.022856,0.0097407,0.024576,0.010713,-0.012928,-0.1545,0.0064404,0.0009848,0.0046169,-0.0023467,-0.0071495,0.001311,-0.0065304,-0.017301,0.058874,-0.049158,-0.0038908,0.037064,0.020734,0.0042698,-0.00026949,0.067022,0.20308,0.02373
-0.016007,0.018988,0.023113,0.0066906,-0.023625,-0.18628,0.012466,-0.00178,-0.0015223,0.0019788,-0.016781,0.00041957,-0.010122,-0.009167,0.062707,-0.076021,-0.0093514,0.031964,0.022656,-0.0033773,0.00051683,0.077299,0.25406,0.026512
-0.013857,0.033564,0.021596,0.011684,-0.024974,-0.2111,0.017595,-0.0010533,-0.0087871,0.0096009,-0.019903,0.0022451,-0.013838,-0.0047817,0.065063,-0.099521,-0.011833,0.023643,0.023253,-0.010815,0.00021848,0.082158,0.28513,0.027658
-0.015549,0.050022,0.020764,0.023853,-0.017177,-0.23101,0.01895,0.00095283,-0.014542,0.016668,-0.019141,0.0056541,-0.015175,-0.0057515,0.062059,-0.11897,-0.0095364,0.016492,0.022616,-0.015312,0.00061472,0.082704,0.28738,0.028567
-0.016989,0.063773,0.020611,0.036388,-0.0064571,-0.24792,0.017325,0.0025906,-0.016829,0.018551,-0.019166,0.0081013,-0.014583,-0.010612,0.05272,-0.13819,-0.0048908,0.014356,0.021985,-0.015227,0.0016158,0.081956,0.25791,0.030209
-0.014429,0.070956,0.020732,0.042225,-9.3463e-005,-0.26091,0.016044,0.003621,-0.015438,0.01326,-0.022971,0.0080826,-0.014737,-0.015933,0.040272,-0.16396,-0.0022155,0.017923,0.022735,-0.011035,0.0018779,0.081986,0.20272,0.031961
-0.0075913,0.069963,0.021027,0.039125,-0.0012162,-0.26699,0.017803,0.0043282,-0.011781,0.0032412,-0.029846,0.0063011,-0.017544,-0.018551,0.030439,-0.20337,-0.0035553,0.024406,0.025111,-0.005099,0.00052873,0.082251,0.13615,0.031739
0.00026678,0.062025,0.022023,0.031183,-0.0073867,-0.26419,0.022172,0.0045131,-0.0078222,-0.0061923,-0.036706,0.0046676,-0.021812,-0.017297,0.027866,-0.26129,-0.0067081,0.029508,0.028235,-0.00025149,-0.0017914,0.080694,0.075654,0.027778
0.0053099,0.050705,0.024477,0.02551,-0.013454,-0.25389,0.025756,0.0037156,-0.0050197,-0.010621,-0.041373,0.0043977,-0.023878,-0.013092,0.033232,-0.33791,-0.0073505,0.030143,0.031578,0.0018361,-0.0034729,0.076427,0.034258,0.020671
0.0064736,0.040443,0.028643,0.026689,-0.01576,-0.23997,0.024842,0.0022396,-0.0039584,-0.0093452,-0.044706,0.0051002,-0.02074,-0.0076204,0.043112,-0.42697,-0.0032095,0.026065,0.03641,0.0013747,-0.0033887,0.071175,0.014717,0.013658
0.006274,0.034657,0.033891,0.033368,-0.014272,-0.22588,0.018369,0.0014197,-0.0045025,-0.0051154,-0.04965,0.0055031,-0.0129,-0.0018472,0.052555,-0.51522,0.0037071,0.019612,0.045419,-5.1201e-005,-0.0018188,0.067903,0.0094163,0.010539
0.0083385,0.034138,0.038978,0.039596,-0.011555,-0.21253,0.0088972,0.0023965,-0.0059037,-0.0013943,-0.058182,0.0048127,-0.0043404,0.0044649,0.058357,-0.58441,0.0088523,0.014023,0.060347,-0.00066435,-4.3493e-005,0.067997,0.0060588,0.012798
0.0138,0.036587,0.042602,0.039608,-0.010166,-0.19882,0.00081964,0.0045405,-0.0067417,0.00025767,-0.069115,0.0032985,0.00037675,0.012086,0.060608,-0.61576,0.0090715,0.011527,0.079528,0.00048988,0.00090397,0.069942,-0.0047044,0.018436
0.019769,0.037806,0.043655,0.032019,-0.010812,-0.18416,-0.0027948,0.0054238,-0.0051932,0.00066577,-0.078918,0.0017324,-0.00058984,0.021269,0.061643,-0.59612,0.0050147,0.012209,0.097681,0.0031534,0.0011074,0.070967,-0.024804,0.023548
0.021406,0.034222,0.041098,0.020129,-0.012353,-0.17019,-0.0022989,0.0028519,-3.2981e-005,0.0015856,-0.084824,0.0005277,-0.0053707,0.031209,0.063574,-0.52344,3.1172e-005,0.014072,0.10855,0.0060703,0.0015012,0.069971,-0.049871,0.02526
0.015978,0.025444,0.033948,0.0085308,-0.01303,-0.15982,-0.00092968,-0.0027521,0.0081213,0.0040678,-0.087365,-0.0004228,-0.010278,0.040277,0.066544,-0.40956,-0.003014,0.014183,0.10853,0.0075939,0.0028365,0.068595,-0.074095,0.023495
0.0054519,0.015167,0.021869,-0.00067293,-0.011685,-0.15447,-0.0020946,-0.0080273,0.016502,0.0080241,-0.089921,-0.0011623,-0.012675,0.046674,0.068945,-0.27855,-0.003817,0.010392,0.098602,0.0064823,0.0049557,0.069149,-0.094602,0.020271
-0.0047045,0.0094595,0.0060467,-0.0087665,-0.0082329,-0.15198,-0.0066234,-0.0090801,0.021548,0.012859,-0.095649,-0.0012196,-0.012335,0.049075,0.069038,-0.16025,-0.0038826,0.0027892,0.08312,0.0025947,0.007078,0.071472,-0.11235,0.017565
-0.0095999,0.013132,-0.010637,-0.018103,-0.0035025,-0.14768,-0.012149,-0.0046519,0.021235,0.018087,-0.10462,-5.5863e-005,-0.010498,0.047075,0.066332,-0.080026,-0.004155,-0.0060174,0.066791,-0.0029119,0.008735,0.072144,-0.12985,0.015839
-0.008412,0.026401,-0.02485,-0.029227,0.0012173,-0.13803,-0.015109,0.002815,0.016599,0.023284,-0.11377,0.0019108,-0.0080049,0.04147,0.06158,-0.048446,-0.0036837,-0.012207,0.052192,-0.0081317,0.010316,0.067272,-0.14829,0.014391
-0.0043627,0.04418,-0.034911,-0.040323,0.0046944,-0.12418,-0.01376,0.0092345,0.011148,0.027685,-0.11983,0.0029069,-0.0044859,0.034259,0.055723,-0.056249,-0.0006804,-0.013035,0.039503,-0.011434,0.012579,0.056385,-0.16638,0.012717
-0.0014134,0.058714,-0.042047,-0.049282,0.0062583,-0.11221,-0.0097515,0.012191,0.0084833,0.030176,-0.12248,0.00086913,0.00077707,0.028099,0.048999,-0.078994,0.0051958,-0.0086071,0.028009,-0.012266,0.01558,0.043612,-0.18119,0.011275
-0.00087007,0.063913,-0.049406,-0.055958,0.0061,-0.10936,-0.006876,0.012483,0.0099584,0.029847,-0.12494,-0.0046452,0.007514,0.025171,0.041088,-0.090592,0.011701,-0.0017796,0.017623,-0.011195,0.018154,0.034731,-0.1897,0.010908
-0.0010151,0.058492,-0.059269,-0.062096,0.0051102,-0.11872,-0.0079529,0.01259,0.014074,0.026652,-0.13127,-0.011467,0.014192,0.025995,0.031974,-0.078337,0.015272,0.0037927,0.0091327,-0.0093112,0.018577,0.032609,-0.18978,0.011744
0.00015907,0.045902,-0.070647,-0.068966,0.0042567,-0.13637,-0.012397,0.013687,0.017841,0.021586,-0.14275,-0.01601,0.019033,0.029085,0.022479,-0.049348,0.013698,0.006005,0.003357,-0.0075812,0.015878,0.035095,-0.1807,0.012895
0.0021119,0.031455,-0.079483,-0.075252,0.003901,-0.15349,-0.016601,0.014194,0.018842,0.016306,-0.15632,-0.015964,0.021139,0.0319,0.01386,-0.023255,0.0079384,0.005234,0.0003577,-0.0065946,0.01058,0.037125,-0.16334,0.01332
0.0018563,0.018985,-0.081523,-0.077606,0.0035778,-0.16208,-0.016924,0.011282,0.016462,0.012462,-0.16651,-0.012191,0.020547,0.032543,0.0068658,-0.015963,0.0015816,0.0032851,-0.0005781,-0.0065598,0.0042368,0.034934,-0.14021,0.012906
-0.0030177,0.0093951,-0.075562,-0.073597,0.002395,-0.16013,-0.012822,0.0038803,0.011724,0.011025,-0.16924,-0.0079681,0.017404,0.030935,0.001175,-0.026703,-0.0016302,0.0014827,-0.00047485,-0.0072195,-0.001702,0.028557,-0.11502,0.012544
-0.011513,0.001645,-0.06428,-0.064261,-0.00029019,-0.15224,-0.0073614,-0.0057568,0.0062757,0.011765,-0.16447,-0.0061197,0.011541,0.028506,-0.00426,-0.038514,-0.00028233,-0.0003374,-0.00042473,-0.007739,-0.0065249,0.020739,-0.091748,0.012997
-0.01963,-0.0052501,-0.052019,-0.053692,-0.0044374,-0.14529,-0.0046222,-0.013529,0.0014514,0.013092,-0.15572,-0.0066124,0.003216,0.02673,-0.010336,-0.031667,0.0040075,-0.0031632,-0.0016692,-0.0070197,-0.0098998,0.013916,-0.073815,0.013601
-0.023791,-0.011058,-0.041556,-0.045917,-0.009364,-0.14295,-0.0061787,-0.016731,-0.0021245,0.012644,-0.14712,-0.0069029,-0.0056993,0.025838,-0.017154,0.0010175,0.0080028,-0.0073192,-0.0054266,-0.0045883,-0.011141,0.0084797,-0.064046,0.012185
-0.023922,-0.01474,-0.032764,-0.041883,-0.0141,-0.14335,-0.0097758,-0.016114,-0.0044683,0.0086411,-0.14041,-0.0047245,-0.011658,0.024862,-0.024021,0.049511,0.0091835,-0.011698,-0.012099,-0.0013853,-0.009142,0.0038461,-0.065074,0.0065408
-0.023098,-0.015672,-0.024131,-0.039281,-0.017773,-0.14164,-0.011366,-0.014901,-0.0059944,0.0012611,-0.13447,-0.00063171,-0.011145,0.022887,-0.029838,0.096065,0.0073143,-0.01444,-0.020438,0.00055604,-0.0032446,0.00071945,-0.079137,-0.0036098
-0.024115,-0.01441,-0.015349,-0.03519,-0.01988,-0.13484,-0.0086796,-0.015691,-0.0072327,-0.0071343,-0.12733,0.0021902,-0.0030162,0.020181,-0.033421,0.13048,0.0043026,-0.014361,-0.027754,-0.00031637,0.0057929,0.0016932,-0.10663,-0.01577
-0.026484,-0.012397,-0.0081749,-0.028918,-0.020454,-0.12434,-0.0031535,-0.018115,-0.0085241,-0.013446,-0.11895,0.00073068,0.010452,0.017999,-0.033659,0.15828,0.0026664,-0.011772,-0.031488,-0.0035063,0.015793,0.0090918,-0.1443,-0.025795
-0.026917,-0.010996,-0.0046283,-0.022406,-0.020065,-0.11405,0.0014287,-0.01939,-0.0097737,-0.016022,-0.11209,-0.0050424,0.024715,0.017128,-0.029824,0.19516,0.0037836,-0.0080508,-0.031054,-0.0065662,0.02431,0.021978,-0.1848,-0.030274
-0.02278,-0.010696,-0.00434,-0.018029,-0.019573,-0.10618,0.0022431,-0.017207,-0.010445,-0.015769,-0.11053,-0.011954,0.03536,0.01652,-0.022217,0.25288,0.0070721,-0.0045379,-0.028331,-0.0071428,0.029993,0.035414,-0.2188,-0.028462
-0.015019,-0.011003,-0.0039128,-0.016141,-0.019669,-0.098895,-0.0002981,-0.012195,-0.0098999,-0.015162,-0.11595,-0.016081,0.03994,0.013377,-0.012735,0.32794,0.010544,-0.0018429,-0.026208,-0.0052388,0.03304,0.043168,-0.23865,-0.02238
-0.007654,-0.011012,0.00070123,-0.01478,-0.020509,-0.08835,-0.0031909,-0.0076424,-0.0079244,-0.01599,-0.12612,-0.015598,0.038205,0.0048632,-0.0046133,0.40205,0.012295,-6.723e-005,-0.026329,-0.0034067,0.034468,0.041859,-0.24128,-0.015179
-0.0044565,-0.010184,0.010736,-0.011689,-0.021762,-0.073072,-0.0036212,-0.0066779,-0.0050743,-0.01791,-0.13592,-0.011634,0.031247,-0.0098025,-0.001031,0.45309,0.01192,0.00056434,-0.027944,-0.0043657,0.035009,0.033093,-0.22849,-0.0091511
-0.0060496,-0.0088519,0.023205,-0.00657,-0.023043,-0.056356,-0.0013558,-0.0095267,-0.0025095,-0.019159,-0.14052,-0.0068496,0.020737,-0.028495,-0.0033432,0.46796,0.010887,-0.00049058,-0.028755,-0.0081216,0.034658,0.021809,-0.20487,-0.0049013
-0.010011,-0.0081194,0.032976,-0.0013632,-0.024305,-0.043967,0.0011787,-0.013371,-0.0013491,-0.018655,-0.1383,-0.0034537,0.0088889,-0.047345,-0.010265,0.44825,0.011532,-0.0035827,-0.026918,-0.011446,0.0331,0.012347,-0.17496,-0.0020193
-0.013401,-0.0092035,0.036634,0.0015653,-0.02571,-0.038894,0.00092168,-0.014919,-0.0019803,-0.017376,-0.13126,-0.0024216,-0.0013414,-0.063173,-0.018763,0.40612,0.015257,-0.0082214,-0.022422,-0.010521,0.030314,0.0055831,-0.14165,-0.00031417
-0.014995,-0.012601,0.034835,0.0015105,-0.027085,-0.037905,-0.003525,-0.013281,-0.0038617,-0.017595,-0.12288,-0.004013,-0.0066829,-0.075453,-0.025983,0.3554,0.021179,-0.013042,-0.016817,-0.0045132,0.026546,-0.00066182,-0.10606,-0.00033655
-0.01528,-0.017621,0.031266,-0.00010361,-0.027574,-0.033233,-0.011046,-0.010564,-0.0059854,-0.020699,-0.11546,-0.0083383,-0.0048312,-0.086262,-0.030568,0.30496,0.026274,-0.016537,-0.011791,0.0032544,0.021698,-0.0087155,-0.068277,-0.0027766
-0.014851,-0.022609,0.029304,-0.0010499,-0.02606,-0.018269,-0.018921,-0.0097571,-0.0075806,-0.025735,-0.10907,-0.015058,0.0041561,-0.09808,-0.032299,0.25819,0.027115,-0.017956,-0.0079402,0.0077462,0.014961,-0.018463,-0.028059,-0.0074564
-0.013302,-0.02572,0.029422,-1.0582e-005,-0.022183,0.0074548,-0.024532,-0.012003,-0.0083898,-0.030096,-0.10274,-0.022704,0.017459,-0.11102,-0.030633,0.21708,0.022154,-0.017625,-0.0046719,0.0062229,0.0054712,-0.027292,0.014379,-0.012983
-0.0097847,-0.025786,0.02943,0.0027353,-0.017021,0.038026,-0.026656,-0.015744,-0.0082964,-0.031661,-0.096204,-0.028841,0.030612,-0.12175,-0.023958,0.18638,0.012992,-0.016512,-0.0010813,0.00035337,-0.0063685,-0.032337,0.057461,-0.017451
-0.004371,-0.022811,0.026958,0.0058214,-0.01266,0.065592,-0.025769,-0.018347,-0.0068425,-0.030312,-0.090367,-0.031418,0.039593,-0.12527,-0.01075,0.17465,0.0036986,-0.015535,0.0030517,-0.0052533,-0.018191,-0.032812,0.097558,-0.019615
0.0014241,-0.017917,0.021688,0.0076911,-0.010821,0.085578,-0.023509,-0.018497,-0.0034121,-0.027489,-0.085779,-0.03026,0.042586,-0.11843,0.0082313,0.19191,-0.0014758,-0.015182,0.0068694,-0.0066288,-0.026616,-0.030406,0.12954,-0.019584
0.0055769,-0.012833,0.015414,0.0072155,-0.0117,0.098516,-0.021731,-0.017134,0.0018647,-0.024446,-0.080863,-0.027189,0.040287,-0.10242,0.028985,0.24537,-0.00055457,-0.015587,0.0088253,-0.0030967,-0.029413,-0.027644,0.14909,-0.018587
0.006982,-0.0090466,0.010279,0.004066,-0.01408,0.1076,-0.0216,-0.016246,0.0074703,-0.021112,-0.071898,-0.02447,0.034642,-0.082233,0.046106,0.33458,0.0051337,-0.016688,0.0075943,0.0028295,-0.027111,-0.025889,0.1556,-0.018112
0.0060434,-0.0068897,0.0071477,-0.00093644,-0.016603,0.11474,-0.023007,-0.016887,0.01121,-0.016658,-0.055285,-0.022859,0.027071,-0.063377,0.056384,0.44727,0.011974,-0.018162,0.0030283,0.0075971,-0.022538,-0.024728,0.15361,-0.019073
0.00409,-0.0049551,0.0055665,-0.005769,-0.018974,0.11876,-0.024606,-0.018347,0.01209,-0.011027,-0.030388,-0.020981,0.017667,-0.048524,0.06114,0.55833,0.016388,-0.019263,-0.0033963,0.0087347,-0.018542,-0.022973,0.1511,-0.021422
0.0023787,-0.00041301,0.0049139,-0.0080166,-0.021841,0.1171,-0.024552,-0.019136,0.011643,-0.0056932,-0.00060508,-0.016646,0.0060787,-0.036735,0.065018,0.63535,0.016885,-0.019001,-0.0090763,0.0056043,-0.015874,-0.020013,0.15538,-0.024204
0.0015448,0.0095775,0.005165,-0.0064596,-0.025442,0.10906,-0.021668,-0.018646,0.013025,-0.0027784,0.028158,-0.0090169,-0.0067026,-0.025527,0.071983,0.65138,0.014522,-0.016794,-0.011644,-0.00092562,-0.013204,-0.016153,0.16932,-0.025888
0.0016302,0.025967,0.0063885,-0.0022872,-0.0284,0.0975,-0.016374,-0.017795,0.018155,-0.0033836,0.050275,0.00016486,-0.017446,-0.013622,0.081995,0.59968,0.011684,-0.013134,-0.010408,-0.0089216,-0.009268,-0.011801,0.19037,-0.024958
0.0022796,0.04668,0.0077689,0.0013847,-0.028152,0.087333,-0.010677,-0.01801,0.025422,-0.0067745,0.062303,0.0073517,-0.021965,-0.0018579,0.091416,0.50024,0.010241,-0.0095743,-0.0068248,-0.015694,-0.0050064,-0.0066546,0.21284,-0.020741
0.0028774,0.067234,0.0076522,0.0017249,-0.023011,0.08208,-0.0070198,-0.019587,0.03042,-0.011133,0.063094,0.0094223,-0.018057,0.0081998,0.096846,0.39057,0.01044,-0.0078596,-0.0035626,-0.018582,-0.0033904,-9.3256e-006,0.23105,-0.014178
0.0028103,0.082923,0.0049818,-0.0015449,-0.014198,0.081438,-0.0066202,-0.021105,0.029539,-0.015041,0.053,0.0057518,-0.0079007,0.016112,0.098759,0.30403,0.011171,-0.0088095,-0.0028161,-0.016482,-0.0067711,0.00795,0.24103,-0.0078614
0.0019738,0.091107,0.00072535,-0.0058638,-0.0058148,0.081856,-0.0085252,-0.020551,0.023306,-0.018271,0.033551,-0.0013508,0.002282,0.022792,0.10128,0.24965,0.011099,-0.011866,-0.00509,-0.011123,-0.014171,0.015219,0.23972,-0.0049084
0.0011171,0.092093,-0.0024835,-0.0079806,-0.0023209,0.079606,-0.010265,-0.017156,0.016244,-0.021292,0.0079074,-0.0081017,0.00555,0.028948,0.10804,0.20842,0.0096637,-0.015637,-0.0092138,-0.0064839,-0.021345,0.018646,0.22372,-0.0070912
0.001432,0.088163,-0.0025946,-0.0067805,-0.0052313,0.073809,-0.0098565,-0.012184,0.013125,-0.024211,-0.01892,-0.011528,-0.0016153,0.033657,0.1179,0.14925,0.0072276,-0.018894,-0.013305,-0.0060489,-0.024033,0.015983,0.19003,-0.013513
0.003427,0.081794,-0.00027901,-0.0042946,-0.011747,0.066981,-0.0076442,-0.0079665,0.014957,-0.026269,-0.04113,-0.011007,-0.017349,0.034889,0.1249,0.052813,0.004501,-0.021144,-0.015781,-0.0098052,-0.021697,0.007729,0.13922,-0.021044
0.0060536,0.074475,0.001301,-0.0039449,-0.016657,0.062739,-0.0063082,-0.0061172,0.018432,-0.026331,-0.054235,-0.0081331,-0.036037,0.031742,0.12297,-0.074876,0.0019264,-0.022445,-0.015795,-0.013789,-0.018236,-0.0028245,0.078576,-0.026468
0.0071686,0.066778,-0.00078841,-0.0075512,-0.016222,0.062628,-0.0087035,-0.0066324,0.019336,-0.023812,-0.056821,-0.0052479,-0.052192,0.026114,0.1112,-0.20837,-0.00040908,-0.022896,-0.013145,-0.013159,-0.018684,-0.011416,0.021595,-0.02876
0.0053058,0.059137,-0.0064582,-0.013746,-0.011032,0.06469,-0.015163,-0.0085444,0.016686,-0.019201,-0.050763,-0.0038708,-0.063519,0.021884,0.094815,-0.32164,-0.0023472,-0.02249,-0.0081276,-0.006551,-0.024637,-0.015072,-0.017686,-0.029636
0.0013207,0.052396,-0.012458,-0.019162,-0.0055135,0.064907,-0.022673,-0.011177,0.01369,-0.013818,-0.039906,-0.0041226,-0.071019,0.022029,0.080619,-0.40369,-0.0032563,-0.02149,-0.0015371,0.0021426,-0.032495,-0.013182,-0.032342,-0.031828
-0.0017574,0.047618,-0.015194,-0.021254,-0.0044542,0.060336,-0.026963,-0.014542,0.014741,-0.0091193,-0.028227,-0.0052526,-0.076535,0.026213,0.071043,-0.45962,-0.0021895,-0.020807,0.0053033,0.0065566,-0.036264,-0.0070013,-0.026708,-0.03651
-0.0009039,0.045366,-0.013927,-0.020226,-0.0092772,0.051428,-0.025921,-0.018534,0.021289,-0.0060263,-0.018426,-0.0064872,-0.080262,0.031031,0.062319,-0.49954,0.001385,-0.021767,0.010755,0.0031688,-0.032552,0.0015033,-0.013286,-0.042105
0.0043662,0.044976,-0.01131,-0.018465,-0.016954,0.041731,-0.021344,-0.022061,0.030343,-0.0045836,-0.011127,-0.007387,-0.080522,0.03268,0.048557,-0.52757,0.0068833,-0.025251,0.013321,-0.0053933,-0.023423,0.01042,-0.0041418,-0.045508
0.011326,0.044206,-0.010739,-0.018165,-0.022285,0.03527,-0.017222,-0.023383,0.036717,-0.0040004,-0.004551,-0.007662,-0.075889,0.029648,0.02781,-0.5407,0.012668,-0.030825,0.012103,-0.012138,-0.01466,0.018068,-0.0031452,-0.044621
0.015948,0.039621,-0.013113,-0.019415,-0.021657,0.033652,-0.015837,-0.021569,0.0368,-0.0030507,0.005107,-0.0070409,-0.067569,0.023214,0.0042826,-0.53664,0.017033,-0.03667,0.0070158,-0.011294,-0.011097,0.023167,-0.0050203,-0.039948
0.015857,0.027867,-0.016139,-0.020394,-0.015407,0.035093,-0.015062,-0.017605,0.03064,-0.00075595,0.022056,-0.0056063,-0.059586,0.015769,-0.015466,-0.52084,0.019383,-0.040467,-0.0012529,-0.0030121,-0.013076,0.025353,-0.0017709,-0.033921
0.011871,0.0075721,-0.016861,-0.019306,-0.0072452,0.035972,-0.0093979,-0.013871,0.0211,0.0029169,0.048223,-0.0042331,-0.056248,0.0089461,-0.028623,-0.50479,0.020571,-0.040724,-0.011403,0.0068038,-0.01685,0.025588,0.0091002,-0.028717
0.006961,-0.019207,-0.014883,-0.016187,-0.0015103,0.033558,0.0059369,-0.012287,0.011427,0.006784,0.081054,-0.004358,-0.058728,0.0033252,-0.038522,-0.49692,0.021926,-0.037608,-0.021713,0.011312,-0.018098,0.025786,0.021637,-0.024653
0.0037173,-0.047321,-0.013051,-0.012988,-0.00045406,0.027734,0.031211,-0.012813,0.0035049,0.0089267,0.11386,-0.0068887,-0.06365,-0.00051911,-0.050889,-0.49517,0.0238,-0.032663,-0.030381,0.0079879,-0.015188,0.027617,0.026266,-0.020531
0.0025785,-0.071015,-0.014779,-0.011991,-0.0033707,0.020451,0.061759,-0.013685,-0.0022719,0.0077665,0.13929,-0.011096,-0.065282,-0.0014523,-0.067526,-0.48843,0.025003,-0.02755,-0.036137,-7.0305e-005,-0.0095558,0.031414,0.018199,-0.01542
0.0021311,-0.087152,-0.020497,-0.014055,-0.0077521,0.013613,0.091061,-0.013127,-0.0062387,0.0030714,0.15387,-0.014666,-0.060183,0.0011011,-0.083604,-0.46598,0.023854,-0.022647,-0.038982,-0.0075486,-0.0034988,0.036118,0.0021175,-0.01004
0.00083418,-0.096728,-0.026655,-0.01809,-0.011247,0.0072923,0.11451,-0.010893,-0.0089678,-0.0038321,0.1602,-0.015178,-0.050929,0.0053245,-0.09139,-0.4265,0.019953,-0.016539,-0.040524,-0.011685,0.0020451,0.040252,-0.010932,-0.0063793
-0.0015657,-0.10338,-0.028423,-0.021962,-0.01296,-0.00028076,0.13072,-0.008251,-0.011277,-0.010844,0.16486,-0.011913,-0.045729,0.0067809,-0.087037,-0.37891,0.014916,-0.0069268,-0.043319,-0.014126,0.0076736,0.042955,-0.011853,-0.0059111
-0.0040407,-0.11004,-0.023841,-0.02388,-0.013442,-0.011214,0.13984,-0.0065595,-0.014118,-0.016342,0.17354,-0.0064326,-0.053468,0.00092584,-0.074093,-0.33453,0.01108,0.0075487,-0.049252,-0.018492,0.013933,0.044105,-0.00016245,-0.0080552
-0.0053489,-0.11667,-0.015755,-0.02322,-0.013761,-0.026451,0.14105,-0.0059082,-0.017979,-0.020009,0.18727,-0.0013943,-0.077333,-0.013314,-0.060467,-0.29696,0.0091963,0.025806,-0.057915,-0.026221,0.019999,0.043584,0.016197,-0.010301
-0.0049917,-0.12093,-0.009786,-0.020474,-0.014512,-0.045399,0.13225,-0.0051515,-0.022299,-0.022682,0.20266,0.0014119,-0.1118,-0.032181,-0.051773,-0.25748,0.0073667,0.044222,-0.066374,-0.034663,0.02414,0.040673,0.027241,-0.009951
-0.0033377,-0.12105,-0.0099686,-0.01672,-0.015437,-0.0664,0.11235,-0.0032618,-0.02573,-0.025432,0.21548,0.0021313,-0.14572,-0.049673,-0.047389,-0.19867,0.0025773,0.058005,-0.070993,-0.039146,0.0254,0.034438,0.027981,-0.0060947
-0.0011505,-0.11803,-0.015672,-0.0131,-0.015755,-0.086952,0.08399,-0.0006374,-0.027239,-0.028669,0.22415,0.0022058,-0.16975,-0.062252,-0.042963,-0.10362,-0.0062614,0.062998,-0.070259,-0.037083,0.024646,0.024878,0.020725,-0.0002943
0.00083334,-0.11479,-0.022216,-0.010441,-0.014798,-0.10338,0.053682,0.00096548,-0.027031,-0.03191,0.23008,0.0027039,-0.18251,-0.071591,-0.036972,0.034793,-0.016588,0.056742,-0.066372,-0.030388,0.023789,0.013656,0.011749,0.0044961
0.0020185,-0.11315,-0.02455,-0.008958,-0.012482,-0.11098,0.028665,-0.00010582,-0.026285,-0.03421,0.23522,0.0031035,-0.19089,-0.08279,-0.034969,0.20866,-0.023713,0.038499,-0.06392,-0.024081,0.023971,0.0034468,0.0059926,0.0059228
0.0020198,-0.11142,-0.020961,-0.0080887,-0.0092994,-0.10586,0.012834,-0.0038863,-0.025877,-0.034654,0.23949,0.0015167,-0.20383,-0.099574,-0.047096,0.39595,-0.024621,0.0089841,-0.066306,-0.022316,0.024581,-0.0037882,0.0042403,0.0037003
0.00091843,-0.10509,-0.014054,-0.006696,-0.0059418,-0.087755,0.0050255,-0.0086776,-0.025409,-0.032432,0.2409,-0.0038703,-0.22478,-0.12076,-0.080311,0.56731,-0.020762,-0.029406,-0.072767,-0.025287,0.024102,-0.0081595,0.0042049,-0.00039591
-0.00050679,-0.09011,-0.0085152,-0.0037354,-0.0029048,-0.06165,0.00092696,-0.012497,-0.023626,-0.026665,0.23795,-0.013257,-0.24871,-0.14116,-0.13154,0.69695,-0.017185,-0.072083,-0.0787,-0.029525,0.021888,-0.011539,0.0033872,-0.003868
-0.00099177,-0.065966,-0.0076326,0.00095056,-0.00039441,-0.036043,-0.003225,-0.014762,-0.019865,-0.016605,0.23153,-0.024681,-0.26599,-0.15579,-0.18735,0.77317,-0.0185,-0.11263,-0.079349,-0.031126,0.019007,-0.015732,0.00075219,-0.0051364
0.00052471,-0.035618,-0.011167,0.006301,0.0014511,-0.018366,-0.0082819,-0.016616,-0.014997,-0.0024919,0.22405,-0.034846,-0.26973,-0.16357,-0.23068,0.80257,-0.025056,-0.14483,-0.073828,-0.028995,0.017306,-0.020721,-0.0036983,-0.0043636
0.004254,-0.0026463,-0.015861,0.010517,0.0023273,-0.010838,-0.012749,-0.019595,-0.010736,0.013576,0.21614,-0.040849,-0.26036,-0.16699,-0.24992,0.80475,-0.03263,-0.1655,-0.065895,-0.025344,0.017658,-0.024659,-0.010025,-0.0030197
0.0095072,0.031586,-0.017885,0.012099,0.0018388,-0.009999,-0.015152,-0.023944,-0.0079166,0.027827,0.20411,-0.041811,-0.2441,-0.16875,-0.24415,0.80014,-0.035875,-0.17618,-0.060594,-0.023255,0.019217,-0.025711,-0.018427,-0.002654
0.01522,0.067841,-0.015337,0.010716,-0.00012296,-0.010304,-0.015737,-0.028279,-0.0055876,0.036461,0.18089,-0.039411,-0.22711,-0.16874,-0.22189,0.7994,-0.032539,-0.18192,-0.059605,-0.023676,0.020424,-0.024103,-0.028304,-0.0038322
0.020485,0.10595,-0.0092305,0.0073176,-0.0030915,-0.008791,-0.016137,-0.030924,-0.0021006,0.037748,0.14052,-0.036871,-0.21087,-0.16445,-0.19509,0.80216,-0.024889,-0.18771,-0.05943,-0.024584,0.020689,-0.022346,-0.037749,-0.0059754
0.024633,0.14186,-0.0026221,0.0034384,-0.0062473,-0.0070517,-0.017728,-0.031574,0.0027004,0.032907,0.083402,-0.036934,-0.19264,-0.15381,-0.17304,0.80578,-0.017353,-0.19493,-0.054182,-0.022997,0.020969,-0.023149,-0.044507,-0.0081113
0.027057,0.1682,0.0013026,0.00027621,-0.0091136,-0.0092259,-0.020483,-0.031561,0.0064587,0.024931,0.01843,-0.040137,-0.16992,-0.13754,-0.15966,0.81573,-0.012716,-0.20038,-0.04069,-0.017893,0.02258,-0.026745,-0.047616,-0.0098586
0.027344,0.17874,0.00096909,-0.0018387,-0.012121,-0.018202,-0.023305,-0.032449,0.0058461,0.016323,-0.039762,-0.044611,-0.14442,-0.1183,-0.1545,0.84759,-0.010303,-0.19852,-0.021591,-0.011361,0.025428,-0.030056,-0.04796,-0.011808
0.025823,0.17336,-0.0029167,-0.0033657,-0.016349,-0.033428,-0.025254,-0.034399,-0.00043811,0.0077342,-0.077244,-0.047562,-0.1216,-0.097741,-0.15542,0.91717,-0.0075569,-0.18528,-0.0038153,-0.0069768,0.027539,-0.028715,-0.046967,-0.014953
0.023903,0.1592,-0.0079914,-0.0051559,-0.022409,-0.051846,-0.026346,-0.036003,-0.0099959,-0.0013556,-0.08732,-0.047277,-0.10608,-0.074757,-0.16021,1.0261,-0.0032247,-0.16072,0.0062424,-0.0068785,0.026521,-0.020394,-0.044689,-0.019611
0.023393,0.14651,-0.011718,-0.0081161,-0.029341,-0.070472,-0.027269,-0.035747,-0.018215,-0.01074,-0.073454,-0.044132,-0.097417,-0.046949,-0.1664,1.1543,0.0010332,-0.12899,0.0069423,-0.010105,0.021709,-0.0067104,-0.039372,-0.024733
0.02501,0.14197,-0.012878,-0.012993,-0.034711,-0.087942,-0.028506,-0.033564,-0.021855,-0.018404,-0.046895,-0.039968,-0.090412,-0.014127,-0.17033,1.267,0.0021622,-0.095857,0.0018799,-0.013487,0.014954,0.0078822,-0.029223,-0.028261
0.027382,0.14471,-0.012206,-0.020043,-0.036182,-0.10388,-0.029789,-0.030883,-0.021587,-0.021535,-0.02042,-0.03657,-0.079868,0.019725,-0.16742,1.3305,-0.001126,-0.065962,-0.0032569,-0.014142,0.0092434,0.019178,-0.014845,-0.028356
0.027839,0.14799,-0.011799,-0.028506,-0.033453,-0.11741,-0.030314,-0.029178,-0.021105,-0.018848,-0.001978,-0.034559,-0.065428,0.048275,-0.15416,1.3278,-0.0066372,-0.041387,-0.0046261,-0.011423,0.0063606,0.025644,0.00012108,-0.024577
0.024744,0.14491,-0.013722,-0.036333,-0.028764,-0.12684,-0.029399,-0.028617,-0.023527,-0.012112,0.0078499,-0.033346,-0.051525,0.067146,-0.13091,1.2632,-0.01016,-0.022202,-0.0020607,-0.0069091,0.0057368,0.028374,0.011067,-0.018118
0.019419,0.13349,-0.018768,-0.040789,-0.025196,-0.13092,-0.027022,-0.028236,-0.028337,-0.0054029,0.013265,-0.03184,-0.041741,0.07689,-0.10302,1.1547,-0.0088678,-0.0079257,0.0019439,-0.0028552,0.0055017,0.029114,0.015566,-0.010998
0.015681,0.11714,-0.026127,-0.040033,-0.023993,-0.13028,-0.024018,-0.027356,-0.031686,-0.0025719,0.017848,-0.029181,-0.032359,0.081982,-0.079027,1.0217,-0.0036101,0.0015089,0.0045844,-0.00067257,0.0046378,0.028528,0.014889,-0.0049218
0.01697,0.10056,-0.03396,-0.034714,-0.023306,-0.1271,-0.021954,-0.026603,-0.029905,-0.0049352,0.020765,-0.025187,-0.011496,0.086809,-0.066369,0.87657,0.0019171,0.005978,0.0044552,-0.00057788,0.004081,0.026268,0.012601,-0.00070419
0.023369,0.084923,-0.040254,-0.028145,-0.019786,-0.12324,-0.02275,-0.027322,-0.023093,-0.010866,0.017623,-0.020585,0.0339,0.092337,-0.06734,0.72267,0.0042558,0.0060632,0.0017818,-0.0022548,0.0056683,0.022348,0.011541,0.001525
0.031175,0.066481,-0.043453,-0.024391,-0.011869,-0.1188,-0.027969,-0.029953,-0.015526,-0.017308,0.0051421,-0.016944,0.10788,0.096302,-0.077883,0.5587,0.0027052,0.0035101,-0.0022485,-0.005487,0.0099932,0.018009,0.011823,0.0018698
0.035599,0.039723,-0.042837,-0.025347,-0.0018691,-0.11256,-0.037922,-0.033131,-0.012378,-0.021782,-0.014596,-0.015973,0.20051,0.096325,-0.090142,0.38165,-0.00083317,0.00061218,-0.0061218,-0.010049,0.015371,0.014986,0.011395,0.00057505
0.03445,0.0023471,-0.038891,-0.029051,0.0052788,-0.10392,-0.051109,-0.034605,-0.015491,-0.023397,-0.034275,-0.018232,0.29313,0.092674,-0.097163,0.18597,-0.0041845,-0.0010595,-0.0082675,-0.015153,0.01907,0.013975,0.0083527,-0.0017133
0.029744,-0.041962,-0.033481,-0.030847,0.0058256,-0.094302,-0.064631,-0.033177,-0.021804,-0.022544,-0.046092,-0.02216,0.37071,0.088023,-0.096753,-0.040511,-0.00694,-0.0015134,-0.007278,-0.019349,0.019715,0.014078,0.0027982,-0.0038917
0.025977,-0.085061,-0.029298,-0.02678,0.00042289,-0.08636,-0.075567,-0.0298,-0.025773,-0.020024,-0.047281,-0.024644,0.43171,0.084688,-0.092133,-0.31807,-0.010248,-0.002033,-0.0023544,-0.021295,0.018556,0.01397,-0.0032623,-0.0049177
0.026564,-0.11887,-0.028354,-0.016651,-0.0061012,-0.081988,-0.082516,-0.026785,-0.023678,-0.016482,-0.041804,-0.023192,0.48712,0.082266,-0.089163,-0.66829,-0.014764,-0.0039375,0.0062587,-0.020799,0.018276,0.013587,-0.0075896,-0.0045584
0.031359,-0.13948,-0.030379,-0.0042099,-0.0083511,-0.080984,-0.086173,-0.025926,-0.016224,-0.012366,-0.036873,-0.018129,0.54889,0.077964,-0.092082,-1.0985,-0.019026,-0.0073758,0.017348,-0.019057,0.020346,0.014368,-0.009296,-0.003624
0.037053,-0.1481,-0.032551,0.005703,-0.0044374,-0.081559,-0.088514,-0.027367,-0.0074849,-0.0080702,-0.037322,-0.012693,0.61696,0.069096,-0.10048,-1.5842,-0.020117,-0.011045,0.02945,-0.017663,0.023334,0.017493,-0.0090461,-0.0033843
0.039891,-0.14884,-0.031214,0.010733,0.0027557,-0.081804,-0.091266,-0.030174,-0.0014654,-0.0039912,-0.042515,-0.010564,0.67568,0.055147,-0.10921,-2.0624,-0.016171,-0.012952,0.041732,-0.017192,0.023754,0.021751,-0.0079921,-0.0046761
0.038458,-0.14552,-0.024518,0.012394,0.007971,-0.08052,-0.09492,-0.033808,0.00059178,-0.0006079,-0.047998,-0.012781,0.70328,0.037564,-0.11119,-2.4427,-0.0084331,-0.011581,0.054308,-0.016717,0.0188,0.023409,-0.0066409,-0.0074585
0.034506,-0.13986,-0.013876,0.014309,0.0075533,-0.076943,-0.098941,-0.038809,0.00012834,0.0013227,-0.050015,-0.016835,0.68759,0.017961,-0.10118,-2.6377,-0.00081277,-0.006617,0.067706,-0.014801,0.0086933,0.018806,-0.004711,-0.010996
0.031451,-0.13168,-0.0029045,0.019009,0.0018761,-0.070427,-0.10277,-0.045896,-0.00085989,0.0007321,-0.048763,-0.018876,0.63645,-0.0029538,-0.07865,-2.5973,0.002881,0.0011248,0.081862,-0.011115,-0.0031853,0.0077561,-0.0019835,-0.014193
0.031783,-0.11999,0.0053269,0.026033,-0.005361,-0.06104,-0.10654,-0.05441,-0.0016239,-0.0031885,-0.047785,-0.017098,0.57544,-0.024493,-0.048222,-2.3319,0.0017654,0.010302,0.095399,-0.0070767,-0.012333,-0.0052373,0.0007929,-0.015701
0.03526,-0.10344,0.010402,0.03265,-0.0099961,-0.050457,-0.11074,-0.061803,-0.0025744,-0.0099477,-0.050426,-0.013216,0.53532,-0.044343,-0.017797,-1.9115,-0.0015912,0.01956,0.10573,-0.0047738,-0.015614,-0.01345,0.0018974,-0.014125
0.039086,-0.080227,0.014255,0.036224,-0.010059,-0.041547,-0.11523,-0.064963,-0.0039274,-0.017199,-0.056666,-0.010734,0.53763,-0.058481,0.0047766,-1.4428,-0.0033577,0.027617,0.11002,-0.0050784,-0.012471,-0.012517,-0.00036882,-0.00884
0.039931,-0.048243,0.018881,0.036051,-0.0064568,-0.036242,-0.11849,-0.062346,-0.0048959,-0.021653,-0.06302,-0.011728,0.58672,-0.063414,0.015035,-1.0333,-0.001516,0.033134,0.1064,-0.0067301,-0.0044714,-0.0036434,-0.0065407,-0.0011601
0.036369,-0.0064864,0.024289,0.033358,-0.0016684,-0.033507,-0.11801,-0.055072,-0.0043828,-0.021253,-0.065433,-0.015186,0.66996,-0.05881,0.013906,-0.75683,0.0026389,0.034862,0.094984,-0.0073894,0.0058815,0.007166,-0.015725,0.0054229
0.030014,0.043204,0.028595,0.029904,0.0022172,-0.029844,-0.11158,-0.046013,-0.0023548,-0.016983,-0.062667,-0.018307,0.76317,-0.047655,0.0074927,-0.63234,0.0056266,0.032269,0.077993,-0.0058488,0.015958,0.013377,-0.026465,0.0069131
0.02446,0.09577,0.030055,0.026648,0.0047295,-0.022603,-0.098707,-0.037769,-0.00031264,-0.012539,-0.057493,-0.019265,0.83739,-0.033169,0.0044781,-0.62271,0.0044484,0.026204,0.059018,-0.0034323,0.02323,0.012418,-0.037913,0.0016524
0.022719,0.1448,0.028953,0.023528,0.0069394,-0.013215,-0.081118,-0.031303,-0.00021668,-0.011689,-0.054872,-0.01863,0.86584,-0.015037,0.01203,-0.65696,-0.0013602,0.01884,0.041774,-0.0032188,0.025557,0.0068804,-0.050175,-0.0079873
0.025017,0.18548,0.027415,0.02023,0.0104,-0.0069251,-0.062033,-0.026262,-0.0027856,-0.015301,-0.05858,-0.018211,0.83134,0.011212,0.032008,-0.66906,-0.0096938,0.012583,0.028897,-0.0076003,0.022059,0.0015845,-0.063419,-0.016898
0.028641,0.21607,0.027298,0.017019,0.015847,-0.0085232,-0.044755,-0.022266,-0.0067035,-0.020563,-0.068685,-0.018784,0.73292,0.050256,0.059521,-0.63552,-0.017514,0.0085895,0.021266,-0.016164,0.014117,-0.00092447,-0.07665,-0.020834
0.029947,0.23669,0.02817,0.01485,0.02238,-0.017576,-0.031414,-0.019625,-0.0094479,-0.023243,-0.081464,-0.019242,0.58751,0.10117,0.084944,-0.58853,-0.022649,0.0060866,0.018091,-0.025664,0.0053603,-0.0025636,-0.087537,-0.019388
0.026967,0.24636,0.027402,0.01467,0.027656,-0.027604,-0.022425,-0.018784,-0.0090659,-0.021175,-0.091602,-0.018101,0.4233,0.15469,0.098628,-0.59182,-0.02452,0.003207,0.017603,-0.032129,-5.0198e-005,-0.0076858,-0.093838,-0.015769
0.020606,0.2413,0.022393,0.016475,0.029157,-0.030404,-0.016687,-0.019296,-0.0054948,-0.015991,-0.095133,-0.015639,0.26636,0.1965,0.095837,-0.69137,-0.023757,-0.0011929,0.018023,-0.033455,1.3349e-005,-0.018617,-0.095386,-0.013645
0.013644,0.21654,0.013007,0.018894,0.025926,-0.022112,-0.012205,-0.019676,-0.00046469,-0.011579,-0.091357,-0.014106,0.12842,0.21489,0.079046,-0.87508,-0.021528,-0.0062537,0.018299,-0.030561,0.0041705,-0.032751,-0.09479,-0.014018
0.0085768,0.16996,0.0020909,0.019706,0.019627,-0.0059553,-0.006864,-0.018468,0.0038504,-0.01059,-0.082771,-0.015429,0.0041628,0.20749,0.056262,-1.0736,-0.019148,-0.0096339,0.018127,-0.026441,0.008585,-0.043928,-0.095897,-0.014963
0.0061383,0.10574,-0.0063619,0.017056,0.013901,0.010483,0.00078485,-0.015479,0.0063576,-0.012097,-0.073301,-0.018598,-0.11918,0.18226,0.036485,-1.2046,-0.017837,-0.009641,0.017156,-0.024097,0.0099528,-0.0471,-0.10102,-0.014254
0.0054824,0.034012,-0.0098779,0.010621,0.01217,0.020999,0.010941,-0.011901,0.0076275,-0.012529,-0.066019,-0.019705,-0.24722,0.15218,0.02528,-1.2285,-0.018207,-0.0072686,0.013937,-0.024924,0.008027,-0.042358,-0.10917,-0.012075
0.0054564,-0.03323,-0.0089445,0.0018923,0.015364,0.024713,0.022498,-0.0091807,0.0091826,-0.0090791,-0.061701,-0.015225,-0.37004,0.12738,0.023203,-1.17,-0.019695,-0.0062144,0.0057612,-0.028456,0.0054696,-0.034832,-0.11678,-0.011013
0.0055523,-0.087478,-0.0063332,-0.0066765,0.021355,0.025386,0.033678,-0.0078097,0.01211,-0.0025836,-0.059012,-0.0058111,-0.46723,0.11023,0.027614,-1.091,-0.020697,-0.010406,-0.0098453,-0.033178,0.005103,-0.030538,-0.12046,-0.013333
0.0057529,-0.12664,-0.0050648,-0.013117,0.026654,0.027318,0.043079,-0.0071632,0.016058,0.0027581,-0.055997,0.003076,-0.52248,0.09609,0.035962,-1.0373,-0.019754,-0.020662,-0.032579,-0.037488,0.0070434,-0.031661,-0.11934,-0.018303
0.0057569,-0.15408,-0.0065748,-0.016974,0.029039,0.031614,0.050408,-0.0063459,0.019322,0.0027009,-0.051745,0.004885,-0.53629,0.078099,0.047752,-1.0052,-0.016965,-0.03313,-0.05778,-0.040206,0.0084412,-0.035178,-0.11535,-0.022382
0.0046743,-0.17505,-0.010199,-0.019207,0.028953,0.035761,0.056371,-0.0049708,0.019906,-0.0034756,-0.046983,-0.002763,-0.5261,0.051949,0.063947,-0.95608,-0.014172,-0.041074,-0.077722,-0.040662,0.0061975,-0.035712,-0.11136,-0.02229
0.0016627,-0.19317,-0.014061,-0.021136,0.028628,0.036493,0.061856,-0.0030611,0.016824,-0.012195,-0.043254,-0.015724,-0.5135,0.017169,0.084914,-0.86045,-0.013443,-0.039087,-0.085585,-0.038705,0.00017148,-0.029971,-0.109,-0.018088
-0.0031219,-0.20891,-0.016572,-0.023304,0.029877,0.033433,0.067133,-0.00041015,0.01086,-0.018288,-0.041464,-0.026115,-0.50826,-0.024806,0.10924,-0.73162,-0.015104,-0.026792,-0.079464,-0.034764,-0.0062354,-0.018992,-0.10803,-0.0133
-0.0083085,-0.22,-0.017524,-0.025155,0.032662,0.030755,0.07172,0.0036088,0.0043705,-0.018905,-0.041094,-0.028147,-0.50203,-0.072832,0.13451,-0.61678,-0.017265,-0.0092781,-0.063257,-0.029839,-0.0088678,-0.0066929,-0.10719,-0.011835
-0.012194,-0.22291,-0.018002,-0.025706,0.035662,0.035701,0.074847,0.0093673,0.00022597,-0.015422,-0.040716,-0.022293,-0.47653,-0.12586,0.15909,-0.55597,-0.017486,0.0061211,-0.043608,-0.025231,-0.0065229,0.0035531,-0.10538,-0.014524
-0.014,-0.21408,-0.019185,-0.024579,0.03806,0.054867,0.075915,0.016146,0.0003568,-0.011906,-0.039293,-0.014468,-0.41997,-0.18067,0.18275,-0.54815,-0.015075,0.014419,-0.025368,-0.022104,-0.0021239,0.011117,-0.102,-0.018424
-0.01437,-0.19108,-0.020902,-0.022467,0.040549,0.09044,0.074505,0.022177,0.0046075,-0.011669,-0.037018,-0.011028,-0.33886,-0.23057,0.20551,-0.55572,-0.011746,0.015667,-0.0092497,-0.021035,-0.00018439,0.017407,-0.096643,-0.019471
-0.014626,-0.15375,-0.021282,-0.020668,0.044373,0.13857,0.070168,0.025724,0.010611,-0.014878,-0.03496,-0.013799,-0.25657,-0.26736,0.2261,-0.54186,-0.00989,0.014058,0.0067411,-0.021738,-0.0028406,0.023299,-0.089076,-0.016034
-0.015473,-0.10515,-0.018087,-0.02013,0.049219,0.19095,0.062581,0.026258,0.014999,-0.019012,-0.033858,-0.019124,-0.20048,-0.2859,0.242,-0.50398,-0.010101,0.014452,0.023959,-0.023056,-0.0080902,0.027237,-0.080083,-0.010239
-0.016376,-0.051733,-0.010903,-0.020836,0.052207,0.23885,0.05222,0.024641,0.015447,-0.021372,-0.033232,-0.021415,-0.18789,-0.28767,0.25156,-0.47105,-0.010421,0.019114,0.041218,-0.023357,-0.011826,0.025697,-0.071946,-0.006132
-0.0162,-0.0019648,-0.002244,-0.022013,0.049387,0.27723,0.040893,0.022234,0.012261,-0.021222,-0.031659,-0.018004,-0.2203,-0.27995,0.25597,-0.4677,-0.0081338,0.026871,0.055875,-0.02131,-0.011715,0.015559,-0.067425,-0.0065337
-0.014517,0.036444,0.0037492,-0.022854,0.038923,0.30632,0.03126,0.019862,0.0082322,-0.019842,-0.028053,-0.011184,-0.28767,-0.27114,0.25867,-0.48042,-0.0024662,0.034796,0.066328,-0.016719,-0.0092746,-0.0035673,-0.067416,-0.011256
-0.012246,0.059628,0.0042827,-0.023002,0.023294,0.32957,0.025352,0.017584,0.006609,-0.018893,-0.022855,-0.0059949,-0.3764,-0.26568,0.26198,-0.45979,0.0043907,0.040599,0.073113,-0.010785,-0.0082685,-0.028757,-0.069334,-0.017749
-0.010893,0.069392,0.0001156,-0.022402,0.0083658,0.34946,0.023166,0.015261,0.0085603,-0.018915,-0.018032,-0.0058782,-0.47383,-0.26253,0.26371,-0.35851,0.0089141,0.043798,0.07759,-0.0054343,-0.010989,-0.055177,-0.068238,-0.023088
-0.011063,0.07256,-0.0050334,-0.020884,-0.00029803,0.3648,0.022697,0.013139,0.012163,-0.019272,-0.01572,-0.0099953,-0.56792,-0.25792,0.25732,-0.17113,0.009055,0.04513,0.079902,-0.0020789,-0.015972,-0.078374,-0.060442,-0.025484
-0.011741,0.077831,-0.007487,-0.018169,-0.0010926,0.3718,0.021647,0.011804,0.013894,-0.019238,-0.016484,-0.01426,-0.64612,-0.24944,0.23644,0.060978,0.0056995,0.045265,0.078612,-0.00077302,-0.019286,-0.095943,-0.046847,-0.024609
-0.011202,0.0916,-0.0064169,-0.014506,0.0029565,0.36869,0.019553,0.01167,0.011536,-0.01884,-0.018584,-0.014891,-0.69822,-0.23797,0.20049,0.28362,0.0016092,0.044201,0.07244,-0.00049215,-0.018186,-0.10779,-0.03301,-0.021253
-0.0087628,0.115,-0.0040288,-0.011277,0.0070167,0.36005,0.018514,0.012701,0.0060574,-0.018599,-0.018972,-0.011309,-0.72186,-0.22611,0.15697,0.47145,-0.00102,0.041752,0.06218,-0.00026265,-0.013758,-0.11518,-0.025537,-0.017058
-0.0056682,0.14383,-0.0031562,-0.010605,0.0083585,0.35684,0.021753,0.014721,0.00081223,-0.018641,-0.015403,-0.0061205,-0.72519,-0.2155,0.11787,0.63949,-0.0021324,0.038351,0.050654,-5.9896e-005,-0.010155,-0.11953,-0.027529,-0.014231
-0.0041542,0.17125,-0.0046662,-0.013824,0.008091,0.37098,0.030965,0.01795,-0.0012956,-0.018322,-0.008077,-0.0026027,-0.7223,-0.20559,0.09266,0.81546,-0.0032735,0.03518,0.04069,-0.00059893,-0.011124,-0.12168,-0.036641,-0.014676
-0.0055619,0.19106,-0.007072,-0.019939,0.0094492,0.40783,0.044442,0.023078,-0.00014986,-0.01686,0.00047793,-0.0021295,-0.72352,-0.19512,0.082668,1.0005,-0.005698,0.03345,0.033173,-0.0022391,-0.016916,-0.12191,-0.047071,-0.018614
-0.009345,0.19946,-0.008462,-0.025651,0.014385,0.4619,0.057413,0.030647,0.0018477,-0.014324,0.0072522,-0.0036007,-0.72858,-0.18433,0.080966,1.1554,-0.0089788,0.033566,0.027043,-0.004147,-0.024177,-0.12039,-0.053519,-0.023793
-0.013884,0.19437,-0.0086123,-0.027416,0.021569,0.51918,0.064448,0.040209,0.0023558,-0.011861,0.010885,-0.0049213,-0.729,-0.17533,0.077473,1.2264,-0.011287,0.034999,0.020982,-0.0046695,-0.028726,-0.11743,-0.053805,-0.026472
-0.018145,0.17418,-0.0091343,-0.02419,0.027456,0.56455,0.062393,0.050032,0.0014802,-0.010839,0.012414,-0.0048586,-0.7181,-0.17023,0.065358,1.1858,-0.010897,0.036917,0.014826,-0.00271,-0.028647,-0.11335,-0.048462,-0.02402
-0.022396,0.13795,-0.01161,-0.018561,0.029294,0.58889,0.052024,0.057688,0.0016102,-0.011645,0.014109,-0.003667,-0.70017,-0.16887,0.044168,1.0537,-0.00748,0.038874,0.00922,0.0011178,-0.025194,-0.10826,-0.0385,-0.017282
-0.027333,0.087683,-0.015699,-0.015099,0.027324,0.59126,0.037464,0.061242,0.0047913,-0.013273,0.017432,-0.0023247,-0.6903,-0.16882,0.018005,0.88229,-0.0022079,0.040888,0.0041265,0.0046833,-0.021089,-0.10209,-0.02398,-0.010545
-0.032759,0.030445,-0.019185,-0.017062,0.024425,0.57558,0.023699,0.060291,0.010177,-0.014072,0.021839,-0.0014989,-0.70417,-0.16797,-0.0090649,0.72007,0.0031227,0.042948,-0.0019208,0.0058615,-0.01812,-0.094835,-0.0048028,-0.0086666
-0.037434,-0.022596,-0.019964,-0.024065,0.023789,0.54572,0.013608,0.056309,0.014174,-0.012997,0.025339,-0.0012893,-0.74591,-0.16731,-0.036406,0.58699,0.006986,0.044638,-0.010736,0.0042105,-0.01615,-0.086653,0.017384,-0.01337
-0.040326,-0.060905,-0.018072,-0.032514,0.026795,0.50331,0.0061799,0.052084,0.013402,-0.010294,0.026256,-0.0017052,-0.80387,-0.17099,-0.066572,0.47809,0.0084363,0.045419,-0.022574,0.0014469,-0.014064,-0.077532,0.038509,-0.021674
-0.041804,-0.080177,-0.01583,-0.038271,0.032705,0.44957,-0.0028745,0.050487,0.0078606,-0.0071634,0.024664,-0.002991,-0.85743,-0.18301,-0.10218,0.38519,0.0070565,0.045412,-0.035415,0.00027485,-0.011294,-0.066684,0.053727,-0.027934
-0.043266,-0.084517,-0.015971,-0.039265,0.039932,0.38859,-0.018207,0.053071,0.0013269,-0.004821,0.022372,-0.0052068,-0.8892,-0.20308,-0.14287,0.31211,0.0030906,0.045859,-0.046338,0.0023688,-0.0083046,-0.052507,0.060117,-0.02801
-0.045469,-0.083275,-0.019459,-0.036183,0.047366,0.32801,-0.041168,0.059179,-0.0015778,-0.0038047,0.021595,-0.0075142,-0.89329,-0.22516,-0.18471,0.27018,-0.0022339,0.048537,-0.053756,0.006967,-0.0057668,-0.033625,0.057997,-0.022256
-0.047377,-0.084826,-0.02489,-0.031258,0.054658,0.27628,-0.067776,0.066181,0.00085011,-0.0039481,0.023495,-0.0082002,-0.87487,-0.24009,-0.22233,0.26333,-0.0068461,0.054299,-0.058413,0.011155,-0.0035569,-0.010559,0.049769,-0.014941
-0.04699,-0.092041,-0.029841,-0.026668,0.061688,0.23869,-0.090007,0.070954,0.0061,-0.0047798,0.027718,-0.0058644,-0.8434,-0.2405,-0.25165,0.28246,-0.0089169,0.061828,-0.062239,0.011767,-0.00081466,0.013355,0.037585,-0.010672
-0.043507,-0.10251,-0.032833,-0.023742,0.068178,0.21559,-0.10003,0.071819,0.0097474,-0.0058405,0.033102,-0.00090702,-0.80605,-0.22428,-0.27146,0.31751,-0.0083231,0.067843,-0.066265,0.0076589,0.0029877,0.032972,0.022179,-0.010872
-0.038577,-0.11246,-0.034265,-0.022956,0.073955,0.20405,-0.094871,0.069601,0.0092827,-0.0067141,0.038786,0.0041562,-0.76471,-0.19449,-0.28327,0.37546,-0.007087,0.069,-0.069606,0.00069533,0.0071776,0.044014,0.0038535,-0.01315
-0.035151,-0.12038,-0.035751,-0.024017,0.079304,0.20076,-0.078394,0.066863,0.0060938,-0.0069886,0.04475,0.0061879,-0.71564,-0.15626,-0.29031,0.48417,-0.0079199,0.064294,-0.070363,-0.0054205,0.010243,0.045574,-0.015761,-0.013819
-0.034826,-0.1273,-0.03868,-0.025872,0.084725,0.20337,-0.059381,0.065718,0.003948,-0.0064002,0.051449,0.0037202,-0.649,-0.1132,-0.29645,0.67374,-0.01174,0.056047,-0.067496,-0.0077803,0.011134,0.040471,-0.033409,-0.011146
-0.036243,-0.13423,-0.04321,-0.027119,0.090077,0.20932,-0.046983,0.065936,0.0054406,-0.0050844,0.058971,-0.001857,-0.54821,-0.06555,-0.30526,0.94767,-0.016392,0.048542,-0.062031,-0.0064393,0.010196,0.033112,-0.04604,-0.0065361
-0.036225,-0.13987,-0.048246,-0.027043,0.093998,0.21423,-0.046598,0.064975,0.0095744,-0.0036093,0.066485,-0.007282,-0.39245,-0.010581,-0.31873,1.2663,-0.018148,0.045203,-0.056849,-0.0043832,0.0088085,0.026562,-0.053043,-0.0029105
-0.032649,-0.14121,-0.052125,-0.026459,0.094341,0.21217,-0.058397,0.060087,0.012482,-0.0026489,0.072432,-0.0097908,-0.1643,0.05511,-0.3358,1.5573,-0.01512,0.046559,-0.055606,-0.0052281,0.0081273,0.021189,-0.056476,-0.0020371
-0.026367,-0.13649,-0.053476,-0.027269,0.089487,0.19833,-0.078551,0.050867,0.010509,-0.0025596,0.075318,-0.0089024,0.13992,0.13256,-0.35172,1.7475,-0.0096421,0.050539,-0.061576,-0.01045,0.0082212,0.015751,-0.058772,-0.0032631
-0.020428,-0.1277,-0.051892,-0.030743,0.079602,0.17195,-0.10155,0.040131,0.0029816,-0.0032771,0.074602,-0.006281,0.50339,0.21764,-0.35916,1.7984,-0.0071383,0.054603,-0.076607,-0.018379,0.0083699,0.0095748,-0.060023,-0.0045586
-0.017466,-0.12025,-0.048227,-0.036041,0.066993,0.13683,-0.1221,0.032325,-0.0074414,-0.0046198,0.071119,-0.0041079,0.89043,0.30022,-0.35091,1.722,-0.011964,0.057593,-0.10003,-0.025709,0.0080332,0.0035864,-0.05759,-0.0046398
-0.017764,-0.11977,-0.044298,-0.040555,0.055375,0.099155,-0.13628,0.030549,-0.016772,-0.0066319,0.066768,-0.003599,1.2564,0.36675,-0.32286,1.5694,-0.023608,0.059628,-0.12795,-0.030144,0.0073723,-0.00074714,-0.048681,-0.0041349
-0.019604,-0.12855,-0.041892,-0.041975,0.048479,0.064464,-0.14251,0.034383,-0.022175,-0.0095451,0.063564,-0.0048329,1.5603,0.40631,-0.27543,1.3972,-0.036628,0.060426,-0.15393,-0.031889,0.0068369,-0.0033259,-0.033625,-0.0048216
-0.021144,-0.14397,-0.041526,-0.040162,0.048582,0.035929,-0.14229,0.040088,-0.023127,-0.013376,0.062523,-0.0075566,1.7748,0.41685,-0.21288,1.2302,-0.044579,0.058082,-0.17162,-0.032843,0.0064328,-0.0060321,-0.016729,-0.0077434
-0.021772,-0.15984,-0.041866,-0.037,0.055527,0.014615,-0.13985,0.043043,-0.020868,-0.017637,0.063037,-0.011714,1.8905,0.40698,-0.14133,1.0415,-0.044723,0.049911,-0.17796,-0.034438,0.0055929,-0.011184,-0.0037293,-0.011914
-0.021776,-0.16945,-0.040556,-0.03439,0.066668,0.00039482,-0.14001,0.040757,-0.017125,-0.021546,0.063241,-0.016998,1.9142,0.39123,-0.067129,0.76598,-0.03966,0.034868,-0.17454,-0.036183,0.0038149,-0.01917,0.0020767,-0.014735
-0.021216,-0.16863,-0.036077,-0.032449,0.077941,-0.0078135,-0.14508,0.034382,-0.013237,-0.024572,0.061213,-0.022053,1.8643,0.38172,0.0038413,0.34396,-0.034751,0.015348,-0.16573,-0.036179,0.0013387,-0.027551,0.0017766,-0.013811
-0.019658,-0.15757,-0.029234,-0.029786,0.085642,-0.01247,-0.15303,0.027627,-0.01006,-0.026705,0.056223,-0.024534,1.7618,0.38289,0.066555,-0.22766,-0.033789,-0.0035442,-0.15499,-0.032994,-0.00088421,-0.032684,-0.00057174,-0.0087808
-0.017221,-0.14059,-0.022894,-0.025534,0.087912,-0.017351,-0.15862,0.023799,-0.0082747,-0.028093,0.049154,-0.022442,1.6213,0.39344,0.11754,-0.86959,-0.036562,-0.017004,-0.14252,-0.027129,-0.0018788,-0.032557,-0.0011996,-0.0017524
-0.015581,-0.12418,-0.019972,-0.020936,0.085005,-0.026255,-0.15716,0.023085,-0.0085357,-0.028437,0.041853,-0.015771,1.4446,0.41301,0.15563,-1.442,-0.039922,-0.023556,-0.12632,-0.020844,-0.001291,-0.028383,0.00113,0.0039973
-0.01724,-0.11395,-0.021204,-0.018619,0.078315,-0.041119,-0.14792,0.022204,-0.011259,-0.026921,0.036059,-0.0069734,1.2222,0.44606,0.18138,-1.8078,-0.040853,-0.025705,-0.10542,-0.01664,0.00053281,-0.023545,0.0054511,0.0061382
-0.023095,-0.11206,-0.024581,-0.020044,0.069168,-0.060948,-0.1344,0.016883,-0.016201,-0.023012,0.032759,0.0003502,0.94502,0.49788,0.19489,-1.9021,-0.038706,-0.027685,-0.082133,-0.015764,0.0028743,-0.020847,0.0106,0.0046617
-0.030425,-0.11655,-0.026925,-0.023584,0.058476,-0.082398,-0.12123,0.0053939,-0.022166,-0.017488,0.032206,0.0036688,0.62133,0.56574,0.19377,-1.7632,-0.035074,-0.032127,-0.061042,-0.017797,0.0048986,-0.020486,0.016774,0.0015092
-0.033662,-0.123,-0.02627,-0.02528,0.047321,-0.10152,-0.11048,-0.0096142,-0.027218,-0.012587,0.034132,0.0030024,0.28722,0.63456,0.17385,-1.5059,-0.032093,-0.038288,-0.045725,-0.021278,0.0056886,-0.020478,0.025382,-0.0011765
-0.028074,-0.12738,-0.023012,-0.021867,0.037443,-0.11547,-0.10043,-0.022559,-0.029529,-0.010797,0.037667,0.00060527,0.0012333,0.68348,0.13355,-1.2518,-0.031006,-0.043217,-0.036223,-0.024534,0.004375,-0.018978,0.03769,-0.002697
-0.013726,-0.12822,-0.019005,-0.013511,0.030657,-0.12326,-0.087779,-0.028619,-0.028573,-0.013044,0.041149,-0.00084754,-0.17885,0.6999,0.078556,-1.0625,-0.031969,-0.044786,-0.029436,-0.026126,0.00061827,-0.016265,0.053595,-0.0039712
0.0036835,-0.12663,-0.015649,-0.0038779,0.027503,-0.12558,-0.071028,-0.026823,-0.025834,-0.017733,0.042492,-0.00021611,-0.22527,0.68926,0.02216,-0.91865,-0.034616,-0.044034,-0.021879,-0.025043,-0.0048375,-0.014502,0.071316,-0.0061811
0.016276,-0.12471,-0.012874,0.0025275,0.026573,-0.12397,-0.051655,-0.020179,-0.024171,-0.021576,0.040311,0.0013803,-0.15776,0.67083,-0.020869,-0.75441,-0.03838,-0.044839,-0.012372,-0.02104,-0.010159,-0.015478,0.087822,-0.0092092
0.019328,-0.12375,-0.0098566,0.0035102,0.025558,-0.11983,-0.032169,-0.012966,-0.025878,-0.021718,0.035029,0.0015323,-0.036544,0.66148,-0.043136,-0.52247,-0.042296,-0.051154,-0.0027509,-0.015071,-0.013236,-0.018472,0.09959,-0.01135
0.014345,-0.12367,-0.0065188,0.00037984,0.02333,-0.11359,-0.01309,-0.0075983,-0.030698,-0.017632,0.028809,-0.001504,0.066315,0.66023,-0.049308,-0.24256,-0.044936,-0.064044,0.0033753,-0.0092145,-0.012844,-0.02036,0.10369,-0.010569
0.0074125,-0.12397,-0.0040748,-0.0034562,0.021045,-0.10456,0.0078352,-0.0036018,-0.03553,-0.01141,0.023996,-0.0072462,0.10079,0.64687,-0.052225,-0.00026196,-0.044983,-0.08085,0.0025474,-0.0056729,-0.0093158,-0.018069,0.099367,-0.0061584
0.0041845,-0.12481,-0.0039584,-0.0050612,0.020947,-0.091788,0.032994,0.00074632,-0.036462,-0.0062746,0.021212,-0.012981,0.058374,0.59692,-0.062869,0.10384,-0.042127,-0.097047,-0.0070168,-0.0053233,-0.0042824,-0.011313,0.08954,0.0006622
0.0056098,-0.12729,-0.0062524,-0.0036859,0.023783,-0.075807,0.061173,0.0059381,-0.031781,-0.0044236,0.018821,-0.015434,-0.031891,0.50144,-0.081884,0.021383,-0.037333,-0.10924,-0.024594,-0.0070245,0.00024085,-0.0031313,0.080737,0.0075741
0.0077774,-0.13234,-0.0093469,-0.00070717,0.027307,-0.059718,0.086425,0.010311,-0.023529,-0.0056833,0.014447,-0.013016,-0.12436,0.37644,-0.099295,-0.20401,-0.032081,-0.11699,-0.046898,-0.0084788,0.0027533,0.0023928,0.08023,0.012532
0.0057362,-0.1395,-0.011301,0.0016473,0.027564,-0.048419,0.10117,0.011481,-0.016212,-0.0078495,0.0073976,-0.0069821,-0.17899,0.25467,-0.10242,-0.45057,-0.027225,-0.12226,-0.06906,-0.0081122,0.0027726,0.0033701,0.09113,0.014516
-0.0021103,-0.14648,-0.011556,0.0016356,0.022043,-0.04575,0.10133,0.0086807,-0.013627,-0.0083876,-0.00012525,-0.00057089,-0.17143,0.16635,-0.085435,-0.57802,-0.022651,-0.12715,-0.086648,-0.0063885,0.00098661,0.0015741,0.10858,0.013372
-0.012679,-0.15052,-0.011199,-0.001293,0.011897,-0.051432,0.089362,0.0036896,-0.016404,-0.0062785,-0.0042715,0.0032888,-0.089141,0.12333,-0.053082,-0.49683,-0.018088,-0.13168,-0.097741,-0.0053369,-0.00085983,0.00089228,0.12073,0.0093961
-0.020777,-0.15045,-0.01149,-0.0064051,0.0011825,-0.060418,0.072614,-0.00058937,-0.022136,-0.0027211,-0.0024367,0.0039026,0.077375,0.11646,-0.016325,-0.20689,-0.014214,-0.13347,-0.10352,-0.0066587,-0.00054392,0.0041036,0.11531,0.003322
-0.023119,-0.14794,-0.012256,-0.011967,-0.006278,-0.065855,0.058535,-0.0026453,-0.027573,-0.00022445,0.0044545,0.0028619,0.33623,0.12542,0.015551,0.21321,-0.012705,-0.12945,-0.10675,-0.010121,0.0034138,0.010689,0.088413,-0.0034385
-0.020424,-0.14665,-0.011982,-0.015874,-0.0096414,-0.063953,0.050511,-0.0036089,-0.030677,-0.0007926,0.012151,0.0023159,0.68406,0.13106,0.039446,0.65325,-0.014839,-0.1185,-0.10933,-0.013702,0.010374,0.017404,0.048899,-0.0089974
-0.016189,-0.14944,-0.0096321,-0.016621,-0.011103,-0.057227,0.047363,-0.0060294,-0.030883,-0.0045765,0.015721,0.0030788,1.0916,0.12146,0.056289,1.0227,-0.019784,-0.10328,-0.11113,-0.015317,0.017244,0.020946,0.014499,-0.011938
-0.013631,-0.15585,-0.006278,-0.014246,-0.013437,-0.053568,0.04614,-0.011269,-0.028052,-0.0099694,0.012754,0.0042276,1.4996,0.090372,0.065271,1.2795,-0.024298,-0.089538,-0.11122,-0.014491,0.020065,0.020395,0.0012528,-0.012331
-0.013538,-0.16189,-0.0046198,-0.01049,-0.017384,-0.061758,0.045323,-0.017932,-0.021935,-0.014918,0.0048615,0.0043638,1.8346,0.033754,0.060732,1.4299,-0.024593,-0.083142,-0.11005,-0.012479,0.016884,0.017508,0.01357,-0.011739
-0.014492,-0.16274,-0.0066341,-0.0077443,-0.021165,-0.086706,0.045751,-0.02285,-0.013058,-0.018248,-0.003478,0.0031601,2.0388,-0.04988,0.035404,1.5124,-0.019191,-0.086329,-0.11013,-0.01088,0.0097247,0.014926,0.042115,-0.011854
-0.014701,-0.15651,-0.011575,-0.0073417,-0.022359,-0.12746,0.048969,-0.023817,-0.0038383,-0.019943,-0.0078056,0.0016606,2.0956,-0.15516,-0.012419,1.5781,-0.010495,-0.095793,-0.11397,-0.010166,0.0036251,0.01401,0.070897,-0.012691
-0.013479,-0.14604,-0.016343,-0.0085612,-0.020254,-0.17852,0.054861,-0.021671,0.0020088,-0.020438,-0.0063608,0.001142,2.0288,-0.26688,-0.074218,1.6717,-0.0034471,-0.10416,-0.1208,-0.0094483,0.0029714,0.014087,0.087871,-0.011816
-0.01128,-0.13717,-0.017943,-0.0093499,-0.016559,-0.23244,0.060699,-0.0198,0.0020739,-0.019933,-0.0009169,0.0017885,1.8771,-0.36299,-0.13393,1.8095,-0.001917,-0.10424,-0.12522,-0.0074852,0.0078888,0.013455,0.091056,-0.0054037
-0.0087961,-0.1346,-0.015761,-0.0083286,-0.013897,-0.28183,0.0623,-0.021398,-0.0023144,-0.018502,0.004558,0.0025629,1.6622,-0.42309,-0.17661,1.9617,-0.0055009,-0.093425,-0.11962,-0.0038037,0.013904,0.011018,0.086442,0.0094725
-0.0063852,-0.13848,-0.011653,-0.0063298,-0.013522,-0.32036,0.056404,-0.026711,-0.0064628,-0.01672,0.0064134,0.0023876,1.3801,-0.43659,-0.19663,2.053,-0.0094549,-0.075203,-0.098985,0.0010468,0.015545,0.0071162,0.080831,0.03279
-0.0043572,-0.14453,-0.0080446,-0.0059137,-0.014312,-0.34413,0.04267,-0.032571,-0.0057586,-0.015777,0.0033971,0.0013879,1.0234,-0.40528,-0.19908,1.9962,-0.008177,-0.056932,-0.064536,0.0060609,0.011035,0.0030477,0.076335,0.061002
-0.0034072,-0.14729,-0.0060223,-0.0090635,-0.013934,-0.35355,0.024106,-0.034686,0.00059386,-0.01661,-0.0029144,0.00086175,0.61648,-0.33939,-0.19367,1.7478,0.00032819,-0.045254,-0.02347,0.01038,0.0039633,-8.742e-005,0.070738,0.088175
-0.0043183,-0.14408,-0.0051107,-0.015045,-0.011188,-0.35415,0.005603,-0.030952,0.0089019,-0.018811,-0.0094575,0.0019213,0.22989,-0.25133,-0.18664,1.3534,0.01265,-0.042227,0.014967,0.01339,0.00026075,-0.0022036,0.062265,0.10817
-0.0070438,-0.13646,-0.00452,-0.02048,-0.0074312,-0.35415,-0.0087513,-0.02321,0.014071,-0.020597,-0.013772,0.0041355,-0.04516,-0.15161,-0.1771,0.9455,0.022472,-0.044448,0.044071,0.014509,0.0029675,-0.0041774,0.053641,0.11687
-0.010265,-0.12836,-0.004249,-0.021796,-0.0057259,-0.35916,-0.018162,-0.016069,0.013719,-0.020168,-0.015384,0.0056235,-0.14647,-0.048858,-0.1601,0.68839,0.025419,-0.045356,0.061817,0.013229,0.0094337,-0.007147,0.051568,0.11365
-0.012233,-0.12285,-0.0048454,-0.01806,-0.0083455,-0.36741,-0.025955,-0.013655,0.0097113,-0.017308,-0.015629,0.0047189,-0.077767,0.048296,-0.13274,0.69649,0.02222,-0.039073,0.06975,0.0095467,0.013547,-0.011721,0.062231,0.10155
-0.01231,-0.12004,-0.0062623,-0.011774,-0.01478,-0.36983,-0.038128,-0.016775,0.0060151,-0.013684,-0.016223,0.0017626,0.096647,0.13054,-0.0975,0.97545,0.017647,-0.023559,0.070405,0.0043708,0.01108,-0.01751,0.086803,0.085894
-0.011688,-0.11766,-0.0072823,-0.0069491,-0.022059,-0.35591,-0.060415,-0.022675,0.0051352,-0.011447,-0.017823,-0.00071912,0.29543,0.18953,-0.060163,1.4193,0.016334,-0.0016384,0.065662,-0.00061183,0.0033635,-0.023123,0.1206,0.072022
-0.012339,-0.11317,-0.0063628,-0.0060718,-0.027132,-0.32148,-0.095468,-0.027487,0.0064845,-0.011439,-0.019661,0.00012306,0.46838,0.22092,-0.025079,1.8636,0.019234,0.020382,0.056943,-0.0036612,-0.0040404,-0.02666,0.15611,0.062865
-0.01503,-0.10555,-0.0031989,-0.0084537,-0.029153,-0.27246,-0.14142,-0.029317,0.0078797,-0.012601,-0.020409,0.0049728,0.61382,0.22627,0.0072536,2.1633,0.023616,0.035715,0.046212,-0.0038266,-0.0064584,-0.026612,0.18703,0.057889
-0.018241,-0.095556,0.00058787,-0.011118,-0.029588,-0.22158,-0.19204,-0.029435,0.0082793,-0.013019,-0.019462,0.011367,0.75626,0.21276,0.037834,2.2532,0.026149,0.040372,0.036151,-0.0013753,-0.0043169,-0.022811,0.20984,0.053971
-0.01916,-0.084741,0.0025211,-0.011291,-0.030226,-0.18052,-0.238,-0.030655,0.0088611,-0.011416,-0.017571,0.015248,0.90696,0.19031,0.064402,2.1634,0.02595,0.035281,0.029033,0.0023782,-0.0025767,-0.016834,0.22253,0.04769
