7.968e-010,9.9359e-010,7.6593e-010,1.2791e-009,-5.1127e-010,7.8523e-010,6.6561e-010,1.1634e-009,1.6399e-010,9.743e-010,1.2135e-009,1.0167e-009,2.4502e-010,1.0476e-009,3.0676e-010,3.7236e-010,5.1512e-010,9.6658e-010,1.036e-009,1.0553e-009,3.8393e-010,8.3153e-010,7.9294e-010,8.3925e-010
2.1941e-008,2.7572e-008,2.127e-008,3.5108e-008,-1.387e-008,2.156e-008,1.8501e-008,3.2453e-008,4.8326e-009,2.7078e-008,3.3743e-008,2.7981e-008,6.466e-009,2.8953e-008,8.5193e-009,1.0583e-008,1.4173e-008,2.6753e-008,2.8629e-008,2.9305e-008,1.0455e-008,2.2847e-008,2.2093e-008,2.3249e-008
2.9365e-007,3.7223e-007,2.8717e-007,4.6874e-007,-1.824e-007,2.8785e-007,2.5005e-007,4.4004e-007,6.8996e-008,3.6569e-007,4.5612e-007,3.7429e-007,8.2802e-008,3.8871e-007,1.1507e-007,1.4615e-007,1.8925e-007,3.5987e-007,3.847e-007,3.9538e-007,1.3833e-007,3.0539e-007,2.9936e-007,3.1339e-007
2.5446e-006,3.2571e-006,2.5113e-006,4.057e-006,-1.5485e-006,2.4898e-006,2.1894e-006,3.8638e-006,6.3599e-007,3.1971e-006,3.993e-006,3.2423e-006,6.8556e-007,3.3772e-006,1.0068e-006,1.3063e-006,1.6334e-006,3.1342e-006,3.3489e-006,3.4523e-006,1.1847e-006,2.6461e-006,2.628e-006,2.7387e-006
1.6045e-005,2.0764e-005,1.5988e-005,2.5593e-005,-9.5319e-006,1.5682e-005,1.3958e-005,2.4691e-005,4.2554e-006,2.0334e-005,2.5442e-005,2.0444e-005,4.1251e-006,2.1339e-005,6.4136e-006,8.4929e-006,1.024e-005,1.9861e-005,2.1228e-005,2.1924e-005,7.3803e-006,1.6705e-005,1.6802e-005,1.7439e-005
7.8428e-005,0.00010275,7.8948e-005,0.00012544,-4.5293e-005,7.6638e-005,6.9037e-005,0.00012235,2.2027e-005,0.00010023,0.00012569,9.9968e-005,1.9221e-005,0.00010446,3.1682e-005,4.2781e-005,4.9667e-005,9.7549e-005,0.0001044,0.00010786,3.5628e-005,8.1878e-005,8.3359e-005,8.621e-005
0.00030912,0.00041056,0.00031454,0.00049721,-0.00017264,0.00030227,0.0002756,0.000489,9.1787e-005,0.00039821,0.00050071,0.00039436,7.2141e-005,0.00041206,0.0001262,0.00017363,0.00019377,0.00038622,0.00041433,0.00042748,0.00013861,0.00032412,0.00033386,0.0003442
0.0010087,0.0013602,0.0010381,0.0016378,-0.00054129,0.00098795,0.00091193,0.0016185,0.00031627,0.0013091,0.0016514,0.0012887,0.00022392,0.0013446,0.00041609,0.00058282,0.00062407,0.0012653,0.0013626,0.0014009,0.00044604,0.0010641,0.0011086,0.0011396
0.0027756,0.003806,0.0028912,0.0045718,-0.0014193,0.0027254,0.0025482,0.0045189,0.0009182,0.0036258,0.0045919,0.0035533,0.00058536,0.0036958,0.0011559,0.0016473,0.0016888,0.0034922,0.0037819,0.0038649,0.0012086,0.0029511,0.0031092,0.0031874
0.0065252,0.0091122,0.0068832,0.010973,-0.0031447,0.006428,0.0060937,0.010781,0.0022761,0.0085679,0.010903,0.0083759,0.0013048,0.0086666,0.002739,0.0039697,0.0038865,0.0082225,0.0089744,0.009086,0.002791,0.0070047,0.0074649,0.0076299
0.013225,0.018834,0.014133,0.022892,-0.0059152,0.013076,0.01259,0.022176,0.004861,0.017414,0.022295,0.01703,0.0024997,0.017485,0.0055803,0.0082228,0.0076634,0.016648,0.018367,0.018345,0.0055318,0.014356,0.015487,0.015773
0.023246,0.033788,0.025168,0.041856,-0.0094327,0.023061,0.022617,0.039538,0.0089885,0.030574,0.039462,0.030032,0.0041317,0.030502,0.0098152,0.014706,0.012992,0.029111,0.032588,0.03193,0.0094322,0.025542,0.027937,0.028319
0.035542,0.052736,0.038962,0.067497,-0.012622,0.035342,0.03546,0.061239,0.014401,0.046385,0.060567,0.046041,0.0058902,0.046085,0.01491,0.02273,0.018926,0.043975,0.050223,0.047895,0.013786,0.039533,0.043969,0.044275
0.047298,0.07153,0.052405,0.096454,-0.0138,0.047022,0.048592,0.082329,0.019883,0.060549,0.080474,0.061302,0.007209,0.060211,0.019492,0.03028,0.023551,0.057155,0.067121,0.061577,0.01705,0.053162,0.060433,0.060255
0.054693,0.083903,0.061027,0.12262,-0.011491,0.054119,0.058171,0.095659,0.023288,0.067277,0.092082,0.070557,0.0075064,0.0677,0.021744,0.034544,0.024708,0.0633,0.077349,0.067016,0.017272,0.061793,0.072429,0.071124
0.0548,0.084302,0.061177,0.13926,-0.0055808,0.053601,0.060756,0.09538,0.022239,0.062328,0.08996,0.069576,0.0065818,0.065056,0.020433,0.033464,0.02132,0.058747,0.076062,0.060285,0.013108,0.061496,0.075463,0.072335
0.047552,0.071517,0.052616,0.14215,0.0020854,0.045649,0.055448,0.08109,0.015383,0.046397,0.074411,0.058032,0.0048979,0.053267,0.015991,0.027541,0.01444,0.044688,0.062914,0.042924,0.004918,0.051731,0.068263,0.062883
0.036181,0.050498,0.039537,0.13202,0.0084049,0.034289,0.044899,0.059507,0.0035394,0.026164,0.052684,0.040533,0.0034219,0.038154,0.010735,0.020414,0.0070122,0.027956,0.043433,0.022508,-0.0048962,0.036562,0.054278,0.04675
0.025372,0.030302,0.028654,0.11428,0.010875,0.02532,0.034129,0.041415,-0.010136,0.011246,0.035293,0.024424,0.0029505,0.027135,0.0076849,0.01715,0.0021342,0.017821,0.026542,0.0087848,-0.012849,0.022908,0.040303,0.03115
0.018209,0.018832,0.025139,0.096117,0.0093307,0.022508,0.027586,0.035058,-0.02137,0.0082548,0.029152,0.015331,0.0032948,0.024198,0.0085256,0.020858,0.00098154,0.020186,0.01915,0.0072744,-0.016267,0.016333,0.032608,0.02214
0.014249,0.017904,0.029184,0.082627,0.006107,0.024911,0.026461,0.040525,-0.026907,0.016031,0.032531,0.01357,0.0030132,0.026945,0.012281,0.029935,0.0021223,0.033226,0.02152,0.015079,-0.014918,0.017206,0.033091,0.020578
0.010414,0.022539,0.035993,0.074624,0.0043228,0.027764,0.02824,0.049733,-0.026316,0.02607,0.036297,0.014301,0.00015243,0.028511,0.015973,0.03836,0.0029517,0.04823,0.027179,0.022819,-0.011123,0.020349,0.038321,0.021719
0.0040386,0.025241,0.039412,0.069462,0.0056061,0.026563,0.028858,0.052542,-0.022256,0.028474,0.031126,0.011528,-0.0062783,0.023226,0.016993,0.0394,0.0020694,0.055614,0.027888,0.021868,-0.0081747,0.018996,0.04226,0.019115
-0.0045433,0.021882,0.036438,0.06391,0.0091251,0.020989,0.025765,0.044444,-0.018906,0.019249,0.015075,0.0028324,-0.015113,0.011419,0.015255,0.030284,0.0004142,0.051693,0.01999,0.011226,-0.0081414,0.010357,0.04055,0.0099216
-0.01214,0.014335,0.028996,0.056705,0.012657,0.015076,0.019606,0.029665,-0.019529,0.0032553,-0.0048567,-0.0089513,-0.023151,-0.00082438,0.013142,0.01435,4.1323e-005,0.040793,0.0070785,-0.0018727,-0.010658,-0.0016165,0.033028,-0.0027474
-0.015448,0.0078573,0.021716,0.048911,0.014605,0.01323,0.01342,0.017194,-0.024695,-0.0096256,-0.018622,-0.018344,-0.026754,-0.0068532,0.013085,-0.0011402,0.0017142,0.030994,-0.0031892,-0.0083512,-0.013455,-0.0088099,0.022744,-0.012483
-0.013909,0.0058879,0.01788,0.042214,0.01512,0.015617,0.010235,0.013283,-0.032242,-0.012092,-0.021378,-0.021745,-0.023919,-0.0050457,0.014947,-0.0099162,0.0037528,0.027182,-0.0054049,-0.0051563,-0.014002,-0.0051708,0.012785,-0.015066
-0.010157,0.007119,0.017075,0.036918,0.015493,0.01736,0.010982,0.016837,-0.038785,-0.0047231,-0.016952,-0.020037,-0.015383,0.00013516,0.015744,-0.01067,0.0034329,0.027416,-0.00056737,0.0024249,-0.010948,0.0082695,0.0039046,-0.012063
-0.0077342,0.0073144,0.01633,0.03148,0.016652,0.012641,0.014117,0.021364,-0.041616,0.005056,-0.013745,-0.017333,-0.0040161,0.0024576,0.01225,-0.0071797,-0.0003159,0.025555,0.0052265,0.0059807,-0.004559,0.023691,-0.0051001,-0.0094062
-0.0082648,0.00375,0.013246,0.023859,0.018307,0.00019383,0.016898,0.021177,-0.039849,0.0091206,-0.017109,-0.017341,0.006934,-0.00046118,0.0042177,-0.0048204,-0.0055641,0.017479,0.0061075,0.0017386,0.0036091,0.031991,-0.015112,-0.012213
-0.010591,-0.0021978,0.0080685,0.013373,0.019397,-0.014867,0.017193,0.015987,-0.03444,0.0046448,-0.025154,-0.020595,0.015413,-0.0053768,-0.0048136,-0.0064252,-0.008824,0.005086,0.0010536,-0.0064275,0.011207,0.029173,-0.025031,-0.020388
-0.012514,-0.0067064,0.0030146,0.0013798,0.019137,-0.024764,0.014557,0.0099631,-0.027524,-0.0047025,-0.031402,-0.024677,0.020979,-0.0069307,-0.010113,-0.010668,-0.0080199,-0.0054941,-0.0059667,-0.01142,0.015655,0.01866,-0.032422,-0.028822
-0.013359,-0.0074902,-0.00014181,-0.0097839,0.017533,-0.025156,0.010085,0.0067943,-0.02158,-0.012693,-0.031281,-0.026752,0.024137,-0.0029713,-0.0095803,-0.013789,-0.0042463,-0.0095957,-0.01,-0.010265,0.015125,0.0080121,-0.035713,-0.031852
-0.014904,-0.0059969,-0.0017155,-0.018649,0.015051,-0.018297,0.0053939,0.0059037,-0.018601,-0.015766,-0.026285,-0.025931,0.025456,0.0033311,-0.0054191,-0.012743,-0.00076803,-0.0082293,-0.0094694,-0.0071172,0.0098364,0.0030581,-0.035667,-0.027981
-0.019776,-0.0056957,-0.0035541,-0.025701,0.012085,-0.010656,0.0015906,0.0034521,-0.01925,-0.015184,-0.022284,-0.023542,0.02521,0.0064056,-0.0021534,-0.0070218,-0.00033556,-0.0069481,-0.0071701,-0.0089325,0.0025767,0.004152,-0.034686,-0.020827
-0.028763,-0.0083642,-0.0070926,-0.032831,0.0089183,-0.0074255,-0.0010994,-0.0031906,-0.022289,-0.014907,-0.02411,-0.021482,0.023639,0.0033208,-0.0027613,0.0020191,-0.0033243,-0.010573,-0.0074002,-0.018081,-0.002639,0.0070158,-0.034723,-0.015852
-0.039496,-0.012257,-0.012045,-0.041662,0.0060964,-0.0088607,-0.0029586,-0.012252,-0.024899,-0.017696,-0.031601,-0.020411,0.021345,-0.0037883,-0.0063244,0.013054,-0.0081295,-0.018759,-0.01204,-0.029208,-0.0033656,0.0066967,-0.035909,-0.016055
-0.047748,-0.014054,-0.016903,-0.052131,0.0045045,-0.011263,-0.0041738,-0.018968,-0.024145,-0.023031,-0.040285,-0.019404,0.019364,-0.0099618,-0.0091479,0.025698,-0.012962,-0.026464,-0.018991,-0.033642,-0.0007669,0.0010678,-0.037118,-0.020326
-0.05034,-0.012622,-0.02053,-0.062532,0.0047573,-0.010982,-0.0046056,-0.020237,-0.018896,-0.028235,-0.045358,-0.017126,0.018785,-0.011961,-0.008209,0.039491,-0.017076,-0.028738,-0.024086,-0.027362,0.0012314,-0.0085138,-0.037638,-0.025253
-0.047273,-0.010755,-0.023137,-0.071022,0.0064058,-0.0074274,-0.0040898,-0.017857,-0.010825,-0.031144,-0.045023,-0.013295,0.020158,-0.010798,-0.0038565,0.052211,-0.020493,-0.025338,-0.024602,-0.015027,-0.00060993,-0.018972,-0.038056,-0.028046
-0.041471,-0.012973,-0.02571,-0.077408,0.0078896,-0.0027356,-0.0028793,-0.017107,-0.0035247,-0.031622,-0.040681,-0.0090786,0.023028,-0.01011,0.00048734,0.059691,-0.023081,-0.020968,-0.021448,-0.0061997,-0.0057359,-0.0276,-0.03942,-0.027834
-0.036587,-0.021249,-0.02861,-0.08372,0.0075604,0.00068928,-0.00173,-0.021968,-0.00016647,-0.030804,-0.034828,-0.006152,0.025881,-0.01226,0.0012412,0.057984,-0.024395,-0.021093,-0.018411,-0.0071371,-0.01005,-0.032959,-0.041697,-0.024833
-0.034783,-0.032613,-0.030935,-0.092971,0.0050063,0.0018685,-0.0015534,-0.03154,-0.0012901,-0.029415,-0.02921,-0.0053423,0.026689,-0.016002,-0.0022934,0.046319,-0.024436,-0.027207,-0.019308,-0.015614,-0.009577,-0.034734,-0.04335,-0.019236
-0.036065,-0.040941,-0.031451,-0.10703,0.0014376,0.00083257,-0.0030276,-0.041015,-0.004378,-0.027163,-0.024589,-0.006027,0.02396,-0.017817,-0.0071931,0.028276,-0.024152,-0.035737,-0.025266,-0.023357,-0.0042737,-0.033475,-0.042691,-0.01148
-0.039109,-0.041581,-0.030239,-0.12536,-0.0013678,-0.0025688,-0.006535,-0.046128,-0.0055825,-0.023729,-0.021366,-0.0067442,0.017877,-0.015433,-0.0090022,0.0098794,-0.024625,-0.041314,-0.033999,-0.023663,0.0016236,-0.030563,-0.03968,-0.0033909
-0.042362,-0.034951,-0.029309,-0.14571,-0.0027121,-0.0086333,-0.01233,-0.046739,-0.0024203,-0.019921,-0.01967,-0.006414,0.010717,-0.010088,-0.0050451,-0.0039799,-0.025593,-0.041258,-0.041312,-0.017148,0.0031538,-0.02792,-0.036244,0.0017903
-0.044477,-0.026155,-0.031277,-0.16611,-0.003688,-0.016454,-0.020506,-0.046174,0.004461,-0.017409,-0.01884,-0.0051119,0.0059231,-0.0054578,0.0034799,-0.011994,-0.025067,-0.037373,-0.043648,-0.01058,-0.0011506,-0.027079,-0.034569,0.0014176
-0.044294,-0.021003,-0.037042,-0.18618,-0.0061679,-0.023198,-0.030571,-0.047153,0.011675,-0.017142,-0.017497,-0.0038112,0.0060007,-0.0043703,0.012171,-0.015946,-0.020966,-0.033797,-0.040071,-0.010208,-0.008233,-0.028193,-0.034925,-0.0040972
-0.041133,-0.021781,-0.044525,-0.20602,-0.010895,-0.025585,-0.041028,-0.04847,0.015347,-0.018184,-0.014828,-0.0034489,0.010485,-0.0064034,0.016451,-0.018119,-0.013467,-0.033219,-0.032667,-0.015976,-0.013442,-0.02997,-0.035179,-0.011014
-0.035509,-0.026115,-0.04982,-0.22354,-0.016476,-0.022658,-0.049594,-0.04587,0.013651,-0.018449,-0.012014,-0.0042295,0.015634,-0.0085164,0.014842,-0.01914,-0.005608,-0.034902,-0.025313,-0.02188,-0.014456,-0.030822,-0.032619,-0.014961
-0.029445,-0.029584,-0.050003,-0.23265,-0.020372,-0.017089,-0.054234,-0.036488,0.0079327,-0.016803,-0.011917,-0.0057538,0.016589,-0.008028,0.01005,-0.018124,-0.0011262,-0.036021,-0.021582,-0.021824,-0.012487,-0.030218,-0.026453,-0.014361
-0.02556,-0.029577,-0.045303,-0.22509,-0.021142,-0.013335,-0.05436,-0.022675,0.0017989,-0.014421,-0.016664,-0.0076794,0.01088,-0.0051845,0.0069307,-0.014575,-0.0013063,-0.034705,-0.02291,-0.015272,-0.0099613,-0.028975,-0.018662,-0.011386
-0.025312,-0.027111,-0.038795,-0.1953,-0.019911,-0.014017,-0.051206,-0.011324,-0.0010342,-0.013892,-0.025117,-0.010056,0.000756,-0.0030224,0.0087188,-0.0098455,-0.0038976,-0.031842,-0.027971,-0.0074358,-0.0074343,-0.028242,-0.012426,-0.0095462
-0.027819,-0.025309,-0.033873,-0.14543,-0.019597,-0.017785,-0.04695,-0.0087933,0.0013263,-0.016723,-0.03289,-0.012851,-0.0077385,-0.0046779,0.014437,-0.0065156,-0.005344,-0.03007,-0.033617,-0.0041317,-0.0031653,-0.028293,-0.0095931,-0.010309
-0.030423,-0.026243,-0.031716,-0.08622,-0.022485,-0.020694,-0.043183,-0.01558,0.0082571,-0.021578,-0.035466,-0.015162,-0.0087606,-0.010499,0.019647,-0.0062444,-0.0042603,-0.031082,-0.036844,-0.0064407,0.0041484,-0.028372,-0.0094804,-0.012025
-0.030607,-0.029144,-0.030863,-0.032479,-0.028231,-0.01983,-0.039938,-0.02534,0.017202,-0.024964,-0.031956,-0.015188,-0.001024,-0.017448,0.020088,-0.0082707,-0.0026773,-0.03385,-0.036581,-0.010231,0.012502,-0.027634,-0.0098648,-0.011985
-0.027684,-0.031498,-0.02908,0.004173,-0.034049,-0.015855,-0.036091,-0.02935,0.024923,-0.023904,-0.026052,-0.011442,0.010821,-0.021314,0.015271,-0.010131,-0.0036831,-0.035431,-0.034099,-0.010674,0.017056,-0.026013,-0.0089618,-0.0092695
-0.022865,-0.031741,-0.025665,0.020552,-0.036851,-0.012221,-0.030791,-0.022965,0.02884,-0.018319,-0.02309,-0.0043659,0.019095,-0.019939,0.0089846,-0.0099935,-0.0077765,-0.033611,-0.031725,-0.007086,0.014153,-0.024003,-0.0064511,-0.0054389
-0.017869,-0.030863,-0.02203,0.02173,-0.03549,-0.011959,-0.0247,-0.0090329,0.028095,-0.011134,-0.025618,0.0032605,0.018331,-0.014838,0.0061608,-0.0083948,-0.011758,-0.029006,-0.030861,-0.0033506,0.0052678,-0.021657,-0.0028661,-0.0026066
-0.013502,-0.03141,-0.02015,0.016004,-0.031352,-0.015084,-0.019856,0.0042405,0.02401,-0.0060882,-0.031277,0.0078796,0.0089653,-0.0099669,0.0086944,-0.0076952,-0.01159,-0.024726,-0.030886,-0.0037822,-0.0032441,-0.018145,0.0015623,-0.0012055
-0.0094238,-0.034946,-0.020455,0.0089384,-0.027127,-0.018916,-0.018138,0.0090573,0.01952,-0.0050846,-0.03476,0.0076761,-0.0032696,-0.0086583,0.013775,-0.0097668,-0.0065905,-0.02389,-0.029901,-0.0087173,-0.0050284,-0.012622,0.0071022,0.00011792
-0.0050271,-0.040465,-0.021245,0.00071691,-0.024993,-0.020791,-0.019487,0.0029548,0.017544,-0.0071041,-0.032044,0.0039079,-0.011689,-0.011192,0.016217,-0.014109,-0.00068118,-0.02707,-0.02666,-0.014165,0.0008364,-0.0056157,0.013566,0.002571
-0.00028074,-0.045196,-0.020223,-0.011764,-0.025542,-0.020504,-0.021474,-0.01042,0.01917,-0.0092879,-0.023289,-0.00023035,-0.013286,-0.01485,0.01282,-0.018179,0.00092764,-0.031777,-0.02197,-0.015621,0.0088656,0.00072014,0.019525,0.0055877
0.0043439,-0.046911,-0.01676,-0.030235,-0.027814,-0.020246,-0.020899,-0.02449,0.023013,-0.0090916,-0.012276,-0.0022724,-0.010176,-0.016277,0.0050425,-0.01962,-0.0032563,-0.034304,-0.018233,-0.01213,0.011868,0.0040983,0.022971,0.0073803
0.0086213,-0.045486,-0.01279,-0.051759,-0.030016,-0.022238,-0.016461,-0.033922,0.026485,-0.0058513,-0.0033384,-0.0022661,-0.0071442,-0.014182,-0.0022546,-0.018336,-0.0091304,-0.032343,-0.017506,-0.0067548,0.0073441,0.004098,0.02305,0.0069769
0.012984,-0.042406,-0.011497,-0.069425,-0.030446,-0.026417,-0.010399,-0.036906,0.028074,-0.00086944,0.0014135,-0.0020865,-0.007708,-0.010279,-0.004834,-0.016526,-0.010322,-0.026364,-0.019775,-0.0033941,-0.00012436,0.0026376,0.021045,0.0053368
0.017998,-0.038978,-0.014881,-0.076444,-0.028432,-0.030355,-0.0074133,-0.034825,0.028678,0.003654,0.0025733,-0.0030872,-0.011957,-0.0078883,-0.002349,-0.016753,-0.0038652,-0.018944,-0.022977,-0.0033572,-0.0027286,0.0022385,0.019295,0.0041924
0.023397,-0.035227,-0.022209,-0.070398,-0.024997,-0.031482,-0.01119,-0.030667,0.030677,0.0058987,0.0018944,-0.0045282,-0.01749,-0.0094186,0.0018522,-0.019824,0.0069712,-0.012909,-0.024689,-0.0049125,0.0037871,0.0036128,0.018855,0.0038966
0.027718,-0.030521,-0.030496,-0.054414,-0.022669,-0.029473,-0.02101,-0.027738,0.035451,0.005206,0.00051563,-0.0043919,-0.02197,-0.014666,0.003964,-0.024289,0.01537,-0.0098095,-0.023921,-0.0057442,0.016344,0.0049378,0.018275,0.0027945
0.029094,-0.02509,-0.0364,-0.034524,-0.02404,-0.026568,-0.031401,-0.02902,0.041607,0.002228,-0.0015614,-0.0017341,-0.024743,-0.021069,0.0029551,-0.027815,0.016712,-0.0095675,-0.021472,-0.0054314,0.026963,0.0036579,0.015018,-0.00096334
0.026613,-0.020613,-0.037982,-0.015573,-0.029694,-0.025504,-0.035694,-0.036517,0.04568,-0.0014146,-0.0046825,0.0019013,-0.02638,-0.025566,0.00097547,-0.029063,0.012176,-0.011045,-0.018767,-0.0054303,0.02915,-0.00081339,0.0083768,-0.0069853
0.021116,-0.018998,-0.035208,0.00097832,-0.03711,-0.027012,-0.031133,-0.050294,0.044852,-0.0038719,-0.0084675,0.0035677,-0.027196,-0.02664,0.00084781,-0.028544,0.0071264,-0.012807,-0.016457,-0.0069047,0.022703,-0.0061026,0.00096451,-0.012282
0.01478,-0.020371,-0.029373,0.015875,-0.041794,-0.029209,-0.021471,-0.067951,0.03932,-0.0040602,-0.01149,0.0015671,-0.026684,-0.025181,0.0031834,-0.027993,0.0061231,-0.013684,-0.014141,-0.0089758,0.013117,-0.0086714,-0.0030771,-0.013644
0.0098657,-0.02226,-0.022363,0.02915,-0.040208,-0.029408,-0.014594,-0.085561,0.032231,-0.0024353,-0.011982,-0.0028487,-0.024477,-0.023707,0.005791,-0.029055,0.0093137,-0.013185,-0.011264,-0.0093649,0.0066944,-0.0068576,-0.0018195,-0.010544
0.0076612,-0.021048,-0.016316,0.03863,-0.032368,-0.026632,-0.016667,-0.10001,0.027271,-0.00083586,-0.0090493,-0.0063472,-0.021594,-0.024562,0.0057166,-0.032306,0.013292,-0.011781,-0.0080977,-0.0067772,0.0059301,-0.0024323,0.002207,-0.0056627
0.0083093,-0.014746,-0.0134,0.041515,-0.022036,-0.022461,-0.027322,-0.1111,0.026098,-0.0011515,-0.0035235,-0.0061528,-0.020253,-0.02828,0.0018005,-0.037042,0.015077,-0.010719,-0.0057078,-0.0025238,0.0088752,0.00070636,0.0036092,-0.0024822
0.011341,-0.0048384,-0.015152,0.037506,-0.014248,-0.019532,-0.039841,-0.12162,0.027716,-0.0036313,0.0021849,-0.0021108,-0.022085,-0.033141,-0.0046148,-0.041647,0.0151,-0.011188,-0.0049912,0.00035744,0.012157,-0.00049313,-0.0015795,-0.002325
0.016156,0.0044067,-0.021422,0.030179,-0.012044,-0.019227,-0.046273,-0.13499,0.029948,-0.0063289,0.0053056,0.0034338,-0.026433,-0.036177,-0.011193,-0.044261,0.01641,-0.013238,-0.0058308,-0.00028906,0.014196,-0.0061523,-0.012628,-0.0037486
0.021952,0.0087639,-0.029802,0.024773,-0.014769,-0.020785,-0.043455,-0.15236,0.031276,-0.0065147,0.0043375,0.0074747,-0.030628,-0.035034,-0.016556,-0.043633,0.021191,-0.015436,-0.0072256,-0.003877,0.015673,-0.013816,-0.024726,-0.0047273
0.027416,0.0068673,-0.036463,0.024085,-0.018921,-0.022525,-0.035138,-0.1716,0.031357,-0.0031357,5.0195e-005,0.0081367,-0.032314,-0.029563,-0.020763,-0.039946,0.028152,-0.015803,-0.0081564,-0.0076881,0.01751,-0.020529,-0.032878,-0.0051369
0.030885,0.00088973,-0.038275,0.026239,-0.02059,-0.023711,-0.028748,-0.18895,0.030194,0.0018487,-0.0048832,0.0052162,-0.031758,-0.022099,-0.024178,-0.035069,0.033308,-0.013415,-0.0082001,-0.0093009,0.019109,-0.02461,-0.035594,-0.0067711
0.031244,-0.0053366,-0.034786,0.026646,-0.017645,-0.025015,-0.029579,-0.20157,0.027435,0.004725,-0.0074766,-0.00024961,-0.031858,-0.016169,-0.026351,-0.031712,0.033308,-0.0092482,-0.0073231,-0.0085495,0.018893,-0.025858,-0.03528,-0.010807
0.028899,-0.0091728,-0.028413,0.022504,-0.010509,-0.027151,-0.037106,-0.20872,0.022876,0.0030452,-0.0062227,-0.0064409,-0.035596,-0.014389,-0.02636,-0.031766,0.028205,-0.0053935,-0.0053425,-0.0073227,0.016422,-0.024647,-0.035331,-0.015509
0.025786,-0.010752,-0.022441,0.015655,-0.0014924,-0.029308,-0.045966,-0.21038,0.017587,-0.0022296,-0.0018973,-0.010982,-0.043156,-0.016945,-0.02427,-0.034945,0.02131,-0.003265,-0.0019802,-0.0075977,0.013454,-0.021323,-0.036839,-0.01694
0.024091,-0.012184,-0.0184,0.011006,0.0065416,-0.029342,-0.050323,-0.20509,0.013996,-0.007505,0.003099,-0.011572,-0.051382,-0.021751,-0.021955,-0.038906,0.016495,-0.0024702,0.0023394,-0.0096162,0.012482,-0.0165,-0.03784,-0.012375
0.024615,-0.015246,-0.015089,0.011903,0.011465,-0.025838,-0.04791,-0.1896,0.01417,-0.0096639,0.006305,-0.0073764,-0.056216,-0.026151,-0.022028,-0.040907,0.015426,-0.0014619,0.0059413,-0.011739,0.014086,-0.011519,-0.035489,-0.0031127
0.026169,-0.019535,-0.010216,0.01684,0.012684,-0.020041,-0.040863,-0.16145,0.017621,-0.0087152,0.006555,-0.00027343,-0.055979,-0.028846,-0.025657,-0.039733,0.016888,0.000597,0.0066778,-0.011872,0.01599,-0.0080152,-0.028903,0.0063571
0.026603,-0.022568,-0.0031636,0.02066,0.011222,-0.015523,-0.033408,-0.12223,0.020941,-0.0075578,0.0043205,0.0056172,-0.052506,-0.030507,-0.031346,-0.036395,0.018348,0.0025648,0.0037949,-0.0090938,0.015121,-0.0066511,-0.020072,0.012446
0.024591,-0.021672,0.0038463,0.019166,0.009044,-0.015542,-0.028708,-0.078552,0.020253,-0.0091139,0.0010586,0.0065223,-0.049119,-0.032722,-0.036021,-0.033127,0.018156,0.0020129,-0.00080799,-0.0042496,0.010869,-0.0063523,-0.012255,0.016069
0.020647,-0.016146,0.0075196,0.012824,0.007958,-0.020329,-0.02728,-0.038986,0.014742,-0.013508,-0.0017677,0.0019795,-0.047376,-0.036365,-0.037607,-0.031673,0.016646,-0.002553,-0.0035139,0.00065291,0.006228,-0.0051251,-0.0075145,0.022198
0.016613,-0.0080631,0.006637,0.0061899,0.008765,-0.026761,-0.027597,-0.0091021,0.0080961,-0.017849,-0.0033183,-0.0044736,-0.045685,-0.040928,-0.036831,-0.032295,0.015575,-0.0098646,-0.0018084,0.0035756,0.0053755,-0.0019517,-0.0055374,0.035428
0.014189,-0.0011698,0.0034689,0.0037685,0.011228,-0.03074,-0.027738,0.011483,0.0061454,-0.018713,-0.0034573,-0.0079111,-0.041172,-0.045304,-0.036652,-0.034123,0.016597,-0.016192,0.003326,0.0033958,0.0097489,0.0020538,-0.0044029,0.055345
0.013821,0.001343,0.0018446,0.0062429,0.014788,-0.030228,-0.02658,0.027582,0.012225,-0.014973,-0.0025338,-0.0060282,-0.033029,-0.049035,-0.039828,-0.036225,0.019938,-0.017759,0.0077762,0.00037733,0.016366,0.004508,-0.002253,0.075797
0.014704,-0.0012768,0.0035362,0.010351,0.019282,-0.026423,-0.023917,0.043717,0.024033,-0.0085106,-0.0011552,-0.0011502,-0.024135,-0.052599,-0.046669,-0.038297,0.024059,-0.013472,0.0074958,-0.003888,0.02022,0.0039472,0.0016582,0.088779
0.015608,-0.0069802,0.0064391,0.012073,0.024934,-0.02231,-0.019994,0.060235,0.034785,-0.0024258,1.8883e-005,0.0016118,-0.019253,-0.056451,-0.054765,-0.040443,0.026473,-0.0058704,0.0019853,-0.0071473,0.018715,0.0012499,0.0070498,0.089801
0.015734,-0.012259,0.006455,0.0098918,0.031593,-0.020048,-0.015249,0.073472,0.037997,0.0014044,0.00057913,-0.0014223,-0.021221,-0.059933,-0.060714,-0.042483,0.02526,0.00043266,-0.005002,-0.0076906,0.014018,-0.0011151,0.01319,0.08055
0.015051,-0.014319,0.0014458,0.005334,0.038041,-0.019417,-0.010495,0.079631,0.032213,0.0032328,0.00069812,-0.0095106,-0.028444,-0.061432,-0.062355,-0.043616,0.020408,0.0016429,-0.0083546,-0.0055151,0.011015,-0.0013007,0.019145,0.067173
0.014147,-0.012705,-0.0064158,0.00097653,0.042251,-0.018392,-0.0070712,0.078773,0.021961,0.0043154,0.0011461,-0.018227,-0.035821,-0.059821,-0.059833,-0.042832,0.014089,-0.0030027,-0.0058075,-0.0025036,0.012616,0.00037716,0.023665,0.056014
0.013834,-0.0093763,-0.012102,-0.0016495,0.042667,-0.015109,-0.006387,0.075314,0.014249,0.005164,0.0027267,-0.023126,-0.038319,-0.055798,-0.055015,-0.039725,0.0095056,-0.011066,7.6507e-005,-0.0011369,0.016751,0.0019771,0.025299,0.050138
0.014663,-0.0072599,-0.011646,-0.0023651,0.039569,-0.0095214,-0.008915,0.074517,0.013405,0.00497,0.0054103,-0.023054,-0.034274,-0.051651,-0.050023,-0.034968,0.0088901,-0.01864,0.0039104,-0.0024665,0.017905,0.0018787,0.023139,0.048614
0.016497,-0.0083184,-0.0050042,-0.0012892,0.035272,-0.0034824,-0.01341,0.07803,0.018189,0.0026645,0.0079497,-0.020401,-0.025964,-0.049475,-0.046079,-0.030013,0.011972,-0.02268,0.0018946,-0.004987,0.01191,0.00016506,0.017691,0.048053
0.018424,-0.012448,0.0044613,0.0017321,0.032776,0.00066415,-0.017237,0.082392,0.02312,-0.0015603,0.0085757,-0.018532,-0.017424,-0.04942,-0.043303,-0.026231,0.016073,-0.022527,-0.0049865,-0.0055945,-0.00032931,-0.0018034,0.010998,0.044574
0.019225,-0.017858,0.012978,0.006302,0.033752,0.0018563,-0.017901,0.081913,0.022641,-0.0058434,0.0064391,-0.019099,-0.011568,-0.049602,-0.04122,-0.024131,0.017866,-0.019892,-0.011615,-0.0021045,-0.013511,-0.0029697,0.0056257,0.035038
0.018202,-0.022509,0.018894,0.010363,0.037478,0.0011371,-0.014769,0.073637,0.014874,-0.0078454,0.0025778,-0.0216,-0.0088244,-0.047811,-0.039373,-0.023217,0.015581,-0.017553,-0.012677,0.0047032,-0.0223,-0.0035878,0.0031361,0.017697
0.015707,-0.0255,0.022696,0.010629,0.041621,0.00098725,-0.0095993,0.060231,0.0024464,-0.0065299,-0.00066781,-0.025056,-0.0078593,-0.043444,-0.037565,-0.022502,0.010057,-0.017586,-0.006651,0.011372,-0.025392,-0.0047092,0.0031578,-0.0071858
0.012875,-0.027429,0.025185,0.0048916,0.044251,0.0037021,-0.0052671,0.048314,-0.0096692,-0.0029955,-0.0015647,-0.029545,-0.00724,-0.037991,-0.035766,-0.021214,0.0038857,-0.020153,0.0033075,0.014343,-0.025782,-0.0068884,0.00366,-0.036918
0.010704,-0.029545,0.026059,-0.0056343,0.045305,0.0099625,-0.0035499,0.043483,-0.017355,0.00034061,-0.00062424,-0.035797,-0.0064467,-0.033717,-0.033897,-0.019153,-0.0006459,-0.023505,0.012058,0.012774,-0.02743,-0.009623,0.0021503,-0.067007
0.0092985,-0.032385,0.024346,-0.016294,0.046222,0.018502,-0.0037387,0.046065,-0.019404,0.0015056,-0.00033035,-0.043358,-0.0056123,-0.031809,-0.031739,-0.01657,-0.0031827,-0.025223,0.016283,0.0092274,-0.031702,-0.012133,-0.0030025,-0.093116
0.0079742,-0.034958,0.019867,-0.021809,0.048151,0.026923,-0.0032903,0.051077,-0.017516,0.0002367,-0.0029157,-0.04956,-0.0046304,-0.031554,-0.028988,-0.013873,-0.0052196,-0.023926,0.016277,0.0076194,-0.036776,-0.014555,-0.011743,-0.11328
0.006147,-0.03524,0.013877,-0.019893,0.05056,0.032967,-8.591e-005,0.052357,-0.014765,-0.0021907,-0.0080391,-0.050798,-0.0027359,-0.031086,-0.025449,-0.011496,-0.0084662,-0.020276,0.014582,0.010052,-0.040016,-0.018139,-0.022203,-0.12855
0.0041721,-0.031748,0.0080787,-0.012724,0.051717,0.035442,0.0055618,0.047436,-0.013707,-0.0042674,-0.012583,-0.045261,0.00094063,-0.028877,-0.021261,-0.0099688,-0.013127,-0.016525,0.013146,0.015064,-0.040537,-0.024119,-0.031264,-0.14147
0.0033328,-0.025089,0.0031523,-0.0050776,0.050638,0.034454,0.010904,0.039192,-0.0151,-0.0054895,-0.013051,-0.034628,0.0063664,-0.024737,-0.017011,-0.0098267,-0.017648,-0.014863,0.011765,0.018609,-0.039485,-0.032382,-0.035787,-0.15351
0.0049142,-0.018095,-0.0015254,-0.00067313,0.048516,0.031102,0.012862,0.033164,-0.017694,-0.0065119,-0.0086383,-0.023088,0.012175,-0.019755,-0.013598,-0.011176,-0.020168,-0.015814,0.0090806,0.016916,-0.03827,-0.041326,-0.034226,-0.16395
0.0090876,-0.014077,-0.0066548,0.00027993,0.048003,0.026916,0.01052,0.033088,-0.019148,-0.0082118,-0.00222,-0.014431,0.016399,-0.015473,-0.011796,-0.013223,-0.020311,-0.017936,0.0048769,0.0090266,-0.037046,-0.049074,-0.027832,-0.1711
0.014476,-0.014281,-0.011741,0.00047661,0.050807,0.023229,0.0059008,0.038428,-0.017692,-0.010586,0.0018247,-0.0096746,0.017938,-0.012935,-0.011749,-0.014367,-0.019609,-0.018971,0.0011536,-0.0026986,-0.035127,-0.054818,-0.020455,-0.17453
0.018711,-0.016558,-0.015336,0.0026454,0.055821,0.020615,0.0023346,0.045577,-0.013573,-0.012466,0.0012061,-0.0070823,0.017589,-0.012063,-0.012798,-0.013113,-0.0201,-0.01739,0.00070796,-0.014163,-0.03261,-0.058956,-0.016588,-0.17578
0.019588,-0.016624,-0.016633,0.0070168,0.059683,0.018653,0.001829,0.051057,-0.0091962,-0.012279,-0.0024152,-0.0042754,0.017668,-0.011523,-0.013873,-0.0092185,-0.02244,-0.01307,0.0044191,-0.021842,-0.031086,-0.06204,-0.018641,-0.17652
0.016091,-0.011242,-0.016567,0.011255,0.059412,0.016253,0.0036679,0.053637,-0.0075429,-0.0092077,-0.0050358,-0.00046392,0.020351,-0.0092957,-0.01421,-0.0041145,-0.025372,-0.0068144,0.0098531,-0.024316,-0.03242,-0.063847,-0.025315,-0.17574
0.008826,-0.00094656,-0.016935,0.012732,0.054783,0.01247,0.0053702,0.053813,-0.0098586,-0.003888,-0.0040208,0.0030158,0.025916,-0.0039364,-0.013799,-7.8796e-005,-0.027057,0.00037722,0.012755,-0.022436,-0.036777,-0.063717,-0.032415,-0.16927
-0.00022302,0.010013,-0.018184,0.01103,0.048286,0.0072448,0.0050572,0.051907,-0.014503,0.0017767,-0.00057362,0.0040497,0.032284,0.0040301,-0.013094,0.0012533,-0.026909,0.0073745,0.010391,-0.018533,-0.042012,-0.061818,-0.0357,-0.15287
-0.0084297,0.01665,-0.018262,0.0084493,0.042762,0.001483,0.0031152,0.047154,-0.018138,0.0054586,0.0013466,0.001676,0.036331,0.011762,-0.01222,-0.00014604,-0.026074,0.012472,0.0039021,-0.015349,-0.045148,-0.05977,-0.033734,-0.12701
-0.013502,0.016879,-0.014165,0.008127,0.038923,-0.0036154,0.0017971,0.038788,-0.018431,0.0054155,-0.0012628,-0.0029489,0.036087,0.015591,-0.010513,-0.0030041,-0.026119,0.013538,-0.0024875,-0.015089,-0.044564,-0.059596,-0.028616,-0.09903
-0.014414,0.012883,-0.0051062,0.011404,0.034998,-0.0074131,0.0032802,0.027755,-0.015963,0.0012683,-0.007504,-0.0071931,0.032216,0.013684,-0.0070304,-0.0059305,-0.02737,0.0093633,-0.004876,-0.018643,-0.040901,-0.06176,-0.024101,-0.080073
-0.011892,0.0091334,0.0057563,0.016692,0.028712,-0.010122,0.0079408,0.016915,-0.013609,-0.005702,-0.013171,-0.0086776,0.027652,0.0078128,-0.0017482,-0.0083396,-0.028687,0.0012318,-0.0029042,-0.025154,-0.036055,-0.064249,-0.022727,-0.07819
-0.0080891,0.008758,0.013173,0.020721,0.019679,-0.012285,0.014166,0.009199,-0.013937,-0.012933,-0.014409,-0.0069064,0.025626,0.0024999,0.0037408,-0.010338,-0.028956,-0.0070747,-4.969e-005,-0.032272,-0.031439,-0.063893,-0.024233,-0.092376
-0.0054762,0.011357,0.014001,0.021032,0.010009,-0.013987,0.019526,0.0053682,-0.01702,-0.017696,-0.011128,-0.0037065,0.027483,0.0018859,0.006984,-0.011886,-0.028673,-0.011531,-0.00069188,-0.037265,-0.027146,-0.058946,-0.026396,-0.11235
-0.0054961,0.014032,0.010014,0.017567,0.0027114,-0.01458,0.022122,0.0036133,-0.020639,-0.018584,-0.0070693,-0.0021107,0.031843,0.0068015,0.0065189,-0.012247,-0.029849,-0.010812,-0.0063372,-0.038518,-0.022538,-0.050598,-0.027281,-0.12494
-0.0078322,0.014554,0.0064639,0.012187,-0.00059979,-0.013275,0.021186,0.0014668,-0.022523,-0.016488,-0.0065142,-0.0043203,0.035703,0.014493,0.0032359,-0.010383,-0.034122,-0.0073423,-0.014096,-0.036475,-0.017422,-0.04198,-0.026813,-0.12318
-0.010806,0.013693,0.0073919,0.0068721,-0.00068732,-0.010087,0.017039,-0.001788,-0.022417,-0.014225,-0.010662,-0.010111,0.036597,0.02112,-0.00014124,-0.0059339,-0.040815,-0.0053393,-0.018672,-0.033294,-0.012662,-0.03559,-0.026426,-0.11152
-0.012655,0.014553,0.011821,0.0024577,0.00025031,-0.0062286,0.010973,-0.0045578,-0.022079,-0.014762,-0.016863,-0.016889,0.034217,0.024666,-0.0012197,0.00016484,-0.046883,-0.0074806,-0.016306,-0.031389,-0.009854,-0.031559,-0.027434,-0.10324
-0.012788,0.019482,0.014427,-0.0010218,0.00037341,-0.00343,0.0051925,-0.0047699,-0.023473,-0.019155,-0.021154,-0.021474,0.030293,0.025697,9.3659e-005,0.0060447,-0.048957,-0.013079,-0.007624,-0.031901,-0.010457,-0.028321,-0.029873,-0.111
-0.012132,0.027402,0.010282,-0.0030821,-0.00073126,-0.002614,0.0023345,-0.0022671,-0.027073,-0.025695,-0.021593,-0.022316,0.026956,0.025664,0.0016376,0.0099151,-0.045805,-0.019177,0.0027564,-0.034188,-0.014957,-0.0248,-0.032872,-0.13731
-0.012313,0.034088,-0.00049831,-0.0023346,-0.0023217,-0.003064,0.0042851,0.00063455,-0.03182,-0.031014,-0.019441,-0.02043,0.024981,0.024838,0.0011018,0.010909,-0.039163,-0.023216,0.0094583,-0.036624,-0.022392,-0.021748,-0.03595,-0.17177
-0.014304,0.035333,-0.012318,0.0023865,-0.0034255,-0.0029284,0.010875,0.0010403,-0.036408,-0.032422,-0.017508,-0.018325,0.023345,0.022119,-0.0016764,0.0092653,-0.032368,-0.024706,0.0099085,-0.037975,-0.030453,-0.020749,-0.039718,-0.19783
-0.017569,0.030372,-0.018261,0.010385,-0.0033856,-0.0007604,0.019602,-0.0019408,-0.040296,-0.029772,-0.017549,-0.01785,0.020394,0.016837,-0.0043291,0.0060102,-0.028026,-0.024662,0.0056177,-0.038182,-0.036406,-0.021938,-0.045281,-0.2044
-0.020351,0.022664,-0.015234,0.018842,-0.0017642,0.0032615,0.026928,-0.0063458,-0.043446,-0.025496,-0.019115,-0.018801,0.015517,0.010446,-0.0038901,0.002573,-0.026573,-0.023961,0.00044629,-0.037947,-0.038664,-0.022992,-0.053122,-0.19384
-0.020876,0.017341,-0.005876,0.024609,0.0017683,0.0076528,0.030363,-0.0089989,-0.045379,-0.02282,-0.020526,-0.019439,0.0098616,0.0061423,0.00063855,0.00046743,-0.026564,-0.022576,-0.0025477,-0.037562,-0.038079,-0.020834,-0.062795,-0.18007
-0.018543,0.017375,0.0039408,0.026642,0.0069609,0.011292,0.029835,-0.0081011,-0.04493,-0.023469,-0.020633,-0.018402,0.0055102,0.0065722,0.0072994,0.00086108,-0.026145,-0.020299,-0.0031188,-0.036141,-0.037628,-0.014788,-0.073726,-0.17815
-0.014194,0.021503,0.0094545,0.026786,0.012265,0.014804,0.027408,-0.0044823,-0.041214,-0.02644,-0.019616,-0.016272,0.0039244,0.011764,0.012556,0.0040014,-0.024415,-0.017704,-0.0032432,-0.032176,-0.040218,-0.0081284,-0.086055,-0.19298
-0.0093404,0.025416,0.0096389,0.028044,0.014947,0.020044,0.025745,-0.00061364,-0.034855,-0.02866,-0.018401,-0.015348,0.0050052,0.019205,0.013789,0.0088826,-0.021837,-0.015908,-0.0047047,-0.025158,-0.046096,-0.0061085,-0.10027,-0.2158
-0.0050885,0.025148,0.0066329,0.031782,0.012638,0.027862,0.026545,0.0014866,-0.028053,-0.027029,-0.017662,-0.017717,0.0074573,0.025872,0.010879,0.013598,-0.019686,-0.015292,-0.0071561,-0.016896,-0.052224,-0.01171,-0.11576,-0.23077
-0.0016804,0.020003,0.0033559,0.036451,0.0054957,0.036248,0.029885,0.0015606,-0.023191,-0.020559,-0.017488,-0.023184,0.0099321,0.030243,0.0058585,0.016303,-0.019081,-0.014712,-0.008492,-0.011139,-0.054562,-0.022652,-0.1297,-0.22638
0.0010631,0.012935,0.001647,0.039006,-0.0029213,0.041045,0.034517,0.00075334,-0.021151,-0.011236,-0.017786,-0.028849,0.011869,0.032617,0.001293,0.016158,-0.020194,-0.01233,-0.0072356,-0.011358,-0.051491,-0.03242,-0.13769,-0.20301
0.003014,0.0083247,0.0019593,0.037802,-0.0073048,0.03919,0.038596,0.00030714,-0.020823,-0.0030269,-0.018627,-0.030846,0.013484,0.033905,-0.0011265,0.013607,-0.022061,-0.0073743,-0.0046807,-0.018247,-0.045281,-0.034755,-0.13583,-0.1716
0.0035908,0.0089713,0.0039143,0.034341,-0.0040101,0.031805,0.040463,0.00067155,-0.020194,0.00042508,-0.019957,-0.027053,0.015262,0.034537,-0.00089543,0.0099788,-0.023183,-0.0010195,-0.0045369,-0.028996,-0.040047,-0.028041,-0.12289,-0.14538
0.0024233,0.014445,0.0066575,0.032266,0.0062654,0.024074,0.039351,0.0016802,-0.017952,-0.0019301,-0.02103,-0.018705,0.017634,0.034637,0.0017813,0.0068579,-0.022637,0.0045406,-0.010005,-0.039186,-0.037978,-0.016104,-0.10098,-0.13137
0.00011322,0.021733,0.0089037,0.034457,0.018742,0.021434,0.035884,0.0032948,-0.014171,-0.0077825,-0.020343,-0.0095596,0.020949,0.034959,0.0064074,0.0055767,-0.020948,0.007883,-0.020718,-0.04597,-0.03737,-0.0049583,-0.07482,-0.12765
-0.0018583,0.02736,0.0093081,0.040681,0.027725,0.025058,0.031975,0.0059706,-0.0096731,-0.012774,-0.016427,-0.0031484,0.025314,0.037025,0.012145,0.0068041,-0.019808,0.0092215,-0.032462,-0.049986,-0.034373,0.0015913,-0.050175,-0.12679
-0.0022163,0.029331,0.0073653,0.047758,0.0303,0.030636,0.029871,0.010253,-0.0049652,-0.013137,-0.0089049,-0.00016248,0.030081,0.041784,0.017632,0.010169,-0.020589,0.0096465,-0.040308,-0.054365,-0.026763,0.0038975,-0.032443,-0.12141
-0.0010093,0.027696,0.0040443,0.052043,0.027797,0.031909,0.030742,0.016069,5.6181e-005,-0.0079596,0.0010618,0.0019331,0.033502,0.047962,0.021181,0.014253,-0.02279,0.0097666,-0.042634,-0.061532,-0.016091,0.0047722,-0.025198,-0.10712
0.00041448,0.023844,0.0012494,0.052131,0.02411,0.026163,0.03381,0.022477,0.0053769,0.00043158,0.011283,0.0066419,0.033404,0.052077,0.021425,0.01738,-0.024023,0.0092602,-0.042421,-0.070478,-0.0061848,0.0061654,-0.028715,-0.081219
0.00070407,0.01949,0.00032554,0.049696,0.022427,0.016904,0.036816,0.028158,0.01006,0.0081806,0.019573,0.015242,0.028835,0.050809,0.017947,0.018981,-0.021979,0.0076687,-0.044433,-0.07687,0.00035544,0.0073777,-0.039168,-0.03972
-0.00011553,0.016133,0.00099965,0.047966,0.022927,0.011118,0.037585,0.03223,0.012471,0.012415,0.024582,0.025241,0.021374,0.044075,0.011461,0.02036,-0.016809,0.0053388,-0.050642,-0.076066,0.0041489,0.0061873,-0.04971,0.023682
-0.00058561,0.01499,0.0019042,0.049253,0.022928,0.013222,0.035523,0.034717,0.011566,0.012771,0.026042,0.031857,0.014655,0.036053,0.003544,0.023788,-0.011559,0.0033402,-0.058017,-0.066634,0.007686,0.0014631,-0.05369,0.11489
0.00076442,0.016826,0.0022357,0.053423,0.019007,0.020915,0.031874,0.036372,0.0080634,0.011006,0.024527,0.031472,0.011987,0.032842,-0.0038065,0.030248,-0.0097805,0.0024278,-0.060816,-0.0515,0.012335,-0.0053882,-0.048335,0.23456
0.0038616,0.021448,0.002812,0.058231,0.0093561,0.026736,0.028645,0.038092,0.0042104,0.0092944,0.021018,0.024288,0.013908,0.038263,-0.0086087,0.037776,-0.012162,0.0022358,-0.055434,-0.035844,0.016999,-0.011467,-0.036147,0.37462
0.0069658,0.027276,0.0053017,0.060951,-0.0050915,0.024246,0.027184,0.040433,0.0021518,0.0086982,0.016489,0.013947,0.017808,0.051013,-0.0094353,0.042291,-0.015372,0.0016527,-0.043473,-0.023522,0.01978,-0.014813,-0.02258,0.51862
0.0081902,0.031681,0.010292,0.059983,-0.021164,0.013653,0.027518,0.043517,0.0022722,0.0089077,0.01163,0.0043975,0.020142,0.065421,-0.0060721,0.04075,-0.01458,4.5136e-005,-0.030295,-0.014971,0.020663,-0.015905,-0.011573,0.64597
0.0072688,0.03223,0.016187,0.055521,-0.034996,0.0019681,0.028788,0.047265,0.0030295,0.009089,0.0067979,-0.0033543,0.019391,0.075191,7.0886e-005,0.0341,-0.0077071,-0.0018963,-0.020458,-0.0080823,0.022074,-0.016887,-0.0025811,0.73766
0.0058922,0.028152,0.020213,0.049221,-0.043737,-0.002543,0.030105,0.051657,0.0024362,0.0088326,0.0022005,-0.011728,0.017165,0.077247,0.0063446,0.02719,0.0024249,-0.0025067,-0.014205,-0.00094336,0.026504,-0.019359,0.0081756,0.78108
0.0062513,0.021027,0.020764,0.043367,-0.046741,0.0029595,0.031022,0.056746,-0.00021384,0.008384,-0.0018677,-0.023757,0.016523,0.072953,0.010151,0.025279,0.010226,-0.00030898,-0.0080872,0.006182,0.033717,-0.022831,0.023119,0.77247
0.0090639,0.014173,0.018929,0.03998,-0.045757,0.013639,0.03139,0.062364,-0.0039793,0.0082162,-0.0049856,-0.03934,0.019056,0.066246,0.010426,0.029871,0.012076,0.00511,0.00111,0.011367,0.040706,-0.025265,0.039432,0.71734
0.01283,0.01102,0.017728,0.040081,-0.043963,0.020881,0.031021,0.067765,-0.0074966,0.0085699,-0.0068538,-0.053938,0.023404,0.060554,0.008226,0.037432,0.0094653,0.013164,0.012968,0.013369,0.044769,-0.025147,0.049724,0.62912
0.014993,0.013338,0.019626,0.043271,-0.044125,0.018958,0.029667,0.071626,-0.010429,0.0093743,-0.0075805,-0.061131,0.026468,0.056938,0.0058989,0.042208,0.0076873,0.022919,0.023714,0.013457,0.046603,-0.023131,0.047338,0.52611
0.014053,0.020205,0.024405,0.047895,-0.046827,0.0089915,0.027291,0.072683,-0.013581,0.010395,-0.0076365,-0.057213,0.026097,0.05447,0.0054314,0.040777,0.011195,0.033479,0.029764,0.014878,0.049949,-0.02161,0.032175,0.42662
0.010891,0.028323,0.029166,0.051877,-0.050012,-0.0026318,0.024299,0.070769,-0.017553,0.0113,-0.0073862,-0.044126,0.022758,0.051915,0.0072461,0.034523,0.019763,0.043725,0.031092,0.020265,0.057706,-0.022461,0.012051,0.3436
0.0081494,0.033643,0.03045,0.053835,-0.050467,-0.0095535,0.021409,0.067435,-0.021401,0.011682,-0.006576,-0.028286,0.018787,0.048977,0.010298,0.028139,0.028776,0.051904,0.031265,0.029225,0.068228,-0.02486,-0.0019393,0.28119
0.0080538,0.033615,0.026849,0.05374,-0.046421,-0.0098709,0.019259,0.065425,-0.022882,0.011328,-0.0043346,-0.016146,0.016128,0.046178,0.013202,0.025716,0.033235,0.055855,0.034187,0.03827,0.07582,-0.025159,-0.002597,0.23558
0.010384,0.028762,0.020092,0.052605,-0.039294,-0.0064228,0.018037,0.06707,-0.020278,0.010721,0.00012886,-0.010009,0.014797,0.043864,0.015344,0.027839,0.031824,0.054153,0.040644,0.043312,0.07556,-0.019161,0.0092386,0.20007
0.012343,0.022437,0.01381,0.051495,-0.032973,-0.0034594,0.017364,0.072708,-0.014172,0.01115,0.0066008,-0.0073213,0.013463,0.041611,0.017109,0.031848,0.02756,0.047456,0.047771,0.042778,0.068224,-0.0051701,0.026569,0.17071
0.0107,0.018653,0.010933,0.050693,-0.030956,-0.0030364,0.016469,0.080395,-0.0074465,0.013892,0.013543,-0.0037234,0.011394,0.038694,0.019275,0.0345,0.024806,0.038917,0.0518,0.038821,0.060521,0.014545,0.042067,0.14863
0.004657,0.019381,0.011727,0.049683,-0.033698,-0.0041082,0.01461,0.087142,-0.0033883,0.018804,0.018853,0.002946,0.0097089,0.035124,0.022242,0.034458,0.025583,0.032967,0.051393,0.035638,0.059907,0.035009,0.052756,0.13754
-0.0029549,0.023287,0.013971,0.047803,-0.038497,-0.0044937,0.011608,0.090609,-0.0034886,0.023617,0.021302,0.011142,0.010547,0.032069,0.025747,0.032721,0.028431,0.032934,0.048533,0.036275,0.068291,0.051573,0.060006,0.13901
-0.0074679,0.026948,0.015083,0.044865,-0.042107,-0.0033917,0.0081451,0.089871,-0.0067374,0.025056,0.021545,0.017682,0.014827,0.031051,0.029132,0.031228,0.030465,0.038935,0.046332,0.040492,0.080204,0.062473,0.065768,0.14976
-0.0059962,0.027607,0.014386,0.041203,-0.043668,-0.0020229,0.0054661,0.084928,-0.01078,0.021374,0.021766,0.021243,0.020751,0.032524,0.031865,0.031262,0.030326,0.047554,0.046009,0.045353,0.087201,0.069137,0.069211,0.16339
4.7763e-005,0.025208,0.013565,0.037311,-0.045174,-0.0020588,0.0044686,0.075958,-0.013719,0.014329,0.024009,0.023872,0.024633,0.035153,0.033918,0.032882,0.029201,0.053778,0.045926,0.0479,0.084783,0.074327,0.067036,0.17441
0.0058179,0.022061,0.014939,0.033585,-0.049012,-0.0036304,0.0048472,0.063435,-0.015065,0.0086168,0.028444,0.029004,0.023589,0.036587,0.03579,0.035302,0.029188,0.054117,0.043484,0.04755,0.075876,0.079818,0.056875,0.18074
0.0067664,0.020513,0.019116,0.030383,-0.054991,-0.0049581,0.005148,0.049002,-0.01539,0.0086739,0.033039,0.037764,0.017832,0.035155,0.038101,0.037416,0.030896,0.048889,0.037982,0.046238,0.067925,0.085414,0.040193,0.18272
0.0021825,0.02078,0.024162,0.028089,-0.059838,-0.0039423,0.0039147,0.03575,-0.015479,0.015151,0.035072,0.047104,0.010572,0.031,0.04092,0.038098,0.032773,0.042009,0.031717,0.046346,0.066261,0.08972,0.021747,0.18042
-0.0044458,0.020852,0.027032,0.02682,-0.059755,-0.00012566,0.0010197,0.026889,-0.015864,0.023997,0.033372,0.051796,0.0055324,0.025687,0.043327,0.036533,0.032755,0.038298,0.028271,0.048381,0.069534,0.091617,0.0061697,0.17261
-0.0084858,0.018508,0.025968,0.025997,-0.053642,0.0048791,-0.0020817,0.023434,-0.016877,0.029205,0.029399,0.048827,0.0041054,0.020746,0.043781,0.032807,0.030466,0.040142,0.029551,0.050513,0.071115,0.091037,-0.0049505,0.15879
-0.0079144,0.013555,0.021746,0.024407,-0.043948,0.0088845,-0.0035243,0.022966,-0.018644,0.027259,0.026162,0.040374,0.004454,0.016594,0.041337,0.028288,0.027695,0.045918,0.034144,0.050323,0.065047,0.088617,-0.012696,0.14165
-0.0045929,0.0082641,0.016827,0.021063,-0.034505,0.011075,-0.0025944,0.020976,-0.020748,0.019774,0.025805,0.032569,0.0032121,0.012843,0.036826,0.025065,0.026637,0.051366,0.038357,0.047146,0.051276,0.084966,-0.017765,0.12651
-0.0022345,0.0056291,0.013404,0.016205,-0.027601,0.012534,-0.00020628,0.01418,-0.02204,0.012159,0.027902,0.030836,-0.0016386,0.0094538,0.03276,0.024502,0.02768,0.052816,0.038966,0.042861,0.03569,0.080476,-0.018124,0.11719
-0.0031208,0.0070401,0.012126,0.01139,-0.023066,0.014882,0.0021433,0.0033483,-0.021205,0.0093616,0.029954,0.035651,-0.008974,0.0073095,0.0316,0.026009,0.028985,0.049759,0.035414,0.040401,0.025164,0.075755,-0.010108,0.11193
-0.0064372,0.011363,0.012355,0.0083051,-0.019823,0.018402,0.0038704,-0.0066309,-0.017932,0.012114,0.029621,0.042297,-0.015157,0.0074207,0.033603,0.027304,0.02833,0.044825,0.029835,0.041253,0.022061,0.07191,0.0077681,0.10366
-0.0093709,0.016063,0.013216,0.0072056,-0.017775,0.021492,0.0057427,-0.0095831,-0.01355,0.016631,0.026687,0.044785,-0.016623,0.0095467,0.036211,0.026193,0.025427,0.041454,0.025203,0.044127,0.022822,0.069947,0.032056,0.085444
-0.0096998,0.019182,0.01417,0.0064454,-0.017755,0.02203,0.0088368,-0.0017764,-0.010227,0.017838,0.023025,0.040601,-0.012569,0.011831,0.035864,0.022371,0.022438,0.041364,0.023247,0.046018,0.021505,0.06959,0.055858,0.056703
-0.0076477,0.020432,0.014729,0.0036693,-0.019674,0.019389,0.013068,0.015939,-0.0091613,0.013412,0.020694,0.032368,-0.0058376,0.012128,0.030924,0.017574,0.022133,0.04385,0.023697,0.044843,0.014863,0.06871,0.073945,0.024708
-0.0057412,0.020683,0.014074,-0.0022647,-0.021281,0.015279,0.016758,0.038665,-0.009416,0.0054087,0.020023,0.025322,-0.0012277,0.0099343,0.023212,0.013863,0.025358,0.04708,0.025062,0.04145,0.0045637,0.064331,0.087381,-0.00040193
-0.007029,0.020648,0.011415,-0.010297,-0.019491,0.012643,0.017691,0.059871,-0.0086919,-0.0015733,0.019504,0.023103,-0.0022766,0.0070398,0.016713,0.011664,0.030098,0.049758,0.02595,0.039171,-0.0049993,0.054852,0.10362,-0.013145
-0.012961,0.020119,0.0068851,-0.017964,-0.013427,0.013596,0.014765,0.073977,-0.0055311,-0.0039825,0.017557,0.025465,-0.0087088,0.0060928,0.014468,0.0095142,0.03289,0.051536,0.025753,0.041056,-0.010977,0.041815,0.13168,-0.016549
-0.022152,0.018309,0.0019313,-0.023261,-0.0060943,0.018068,0.0088678,0.077883,-0.0009312,-0.0017215,0.014382,0.029464,-0.016495,0.0082555,0.016325,0.005875,0.031266,0.052126,0.024376,0.046913,-0.014561,0.029611,0.17587,-0.019291
-0.030686,0.014765,-0.0014422,-0.026019,-0.0025231,0.024063,0.002355,0.071263,0.0022633,0.0023136,0.012064,0.032425,-0.020672,0.012059,0.019399,0.0013404,0.025154,0.050544,0.021636,0.052646,-0.019718,0.023018,0.23238,-0.028804
-0.033974,0.0099483,-0.0020181,-0.027781,-0.0055686,0.029065,-0.0024203,0.056174,0.0017713,0.0048337,0.012709,0.033757,-0.01894,0.014555,0.02068,-0.00094876,0.016342,0.045666,0.017111,0.052756,-0.02949,0.024288,0.29071,-0.046201
-0.029342,0.0051135,-4.4831e-005,-0.030516,-0.013127,0.031368,-0.0045017,0.036455,-0.0020894,0.0046076,0.016347,0.034277,-0.013313,0.013786,0.019454,0.0027447,0.0069224,0.037715,0.010585,0.044344,-0.043098,0.032033,0.33819,-0.066841
-0.017848,0.0018019,0.0033317,-0.03527,-0.01956,0.030562,-0.0048219,0.016959,-0.0066122,0.0029065,0.020546,0.034379,-0.0084672,0.010411,0.017542,0.014049,-0.0017118,0.029012,0.0025595,0.029631,-0.056126,0.042801,0.36504,-0.085319
-0.0038825,0.0013344,0.0072001,-0.041626,-0.020352,0.02724,-0.0055405,0.002423,-0.0089355,0.0019265,0.022165,0.033363,-0.0080709,0.0070789,0.01742,0.031312,-0.0086224,0.022859,-0.0057542,0.014927,-0.063473,0.054037,0.3675,-0.10019
0.0075388,0.004377,0.01141,-0.048006,-0.015952,0.022481,-0.0085527,-0.0039492,-0.0082363,0.0027795,0.019758,0.030661,-0.01198,0.0061456,0.019987,0.050777,-0.012581,0.021229,-0.012981,0.0066248,-0.062706,0.065925,0.34849,-0.11466
0.014021,0.010503,0.016104,-0.052359,-0.011326,0.017462,-0.013972,-0.0015867,-0.0059932,0.004752,0.014612,0.027343,-0.016481,0.0077722,0.023755,0.06881,-0.012042,0.023249,-0.018121,0.0070392,-0.055402,0.080624,0.31578,-0.13346
0.017064,0.017979,0.020979,-0.052889,-0.011556,0.013158,-0.019613,0.0074359,-0.0043474,0.0062248,0.0097163,0.025774,-0.017245,0.0099897,0.025911,0.083173,-0.006195,0.025896,-0.020671,0.013102,-0.045783,0.099656,0.27848,-0.15918
0.020276,0.024232,0.025193,-0.048721,-0.017407,0.010038,-0.022125,0.019679,-0.0043,0.0062005,0.0076556,0.027229,-0.012554,0.010538,0.024221,0.092662,0.0038221,0.026386,-0.020455,0.018798,-0.037885,0.1219,0.24328,-0.19119
0.025978,0.027086,0.028001,-0.040412,-0.02479,0.0078685,-0.019348,0.032138,-0.0053791,0.0050397,0.0091083,0.029817,-0.0043312,0.00876,0.018381,0.096203,0.014818,0.024219,-0.017613,0.019475,-0.033328,0.14406,0.2125,-0.22693
0.033147,0.026042,0.029334,-0.030015,-0.028486,0.0058606,-0.01227,0.043289,-0.0067553,0.003929,0.012828,0.029278,0.0034993,0.0059348,0.010054,0.092965,0.022989,0.021186,-0.012883,0.014854,-0.031049,0.16327,0.18517,-0.26328
0.038445,0.022519,0.029661,-0.020511,-0.026667,0.003183,-0.0048202,0.052669,-0.00836,0.0038127,0.016714,0.022614,0.0077626,0.003973,0.0017909,0.083616,0.026033,0.019484,-0.0076943,0.0087132,-0.028787,0.17936,0.16009,-0.29601
0.039346,0.018688,0.029335,-0.014789,-0.02219,-0.00045976,-0.0012177,0.05962,-0.010748,0.0048521,0.018994,0.011445,0.0077745,0.0038186,-0.0043539,0.071283,0.024449,0.019725,-0.0036446,0.0058653,-0.024909,0.1947,0.13831,-0.31795
0.036464,0.015804,0.028212,-0.014701,-0.019692,-0.0046017,-0.0026997,0.062637,-0.013933,0.0067456,0.018925,0.0016577,0.0051689,0.0049719,-0.0076641,0.060645,0.021127,0.020553,-0.0015532,0.0090182,-0.01914,0.21153,0.12287,-0.31881
0.032981,0.013491,0.025997,-0.020591,-0.021404,-0.0083425,-0.0063481,0.060217,-0.016592,0.0093042,0.016965,-0.00093953,0.002452,0.0063077,-0.0086494,0.055314,0.019496,0.020042,-0.00095587,0.017896,-0.011882,0.22925,0.11614,-0.28843
0.031785,0.010643,0.022886,-0.031279,-0.025544,-0.011048,-0.0072604,0.052562,-0.01671,0.012527,0.014539,0.0045724,0.0015404,0.0071586,-0.0082297,0.055401,0.021426,0.017455,-0.00061501,0.030742,-0.0031003,0.244,0.11734,-0.22267
0.033033,0.0069821,0.019728,-0.044308,-0.028496,-0.01296,-0.0025044,0.042394,-0.013244,0.016127,0.013351,0.01326,0.0030374,0.0076023,-0.0069284,0.057321,0.026158,0.013788,0.00039254,0.046186,0.0078665,0.25105,0.12256,-0.12796
0.034362,0.0036695,0.01748,-0.056478,-0.028387,-0.015211,0.0063915,0.033724,-0.0072882,0.019181,0.014339,0.018246,0.0062347,0.0078992,-0.004721,0.05618,0.030819,0.010767,0.0021247,0.063344,0.021203,0.24777,0.12694,-0.021206
0.033408,0.00224,0.016478,-0.064815,-0.02652,-0.019062,0.014552,0.029242,-0.0015912,0.020464,0.016868,0.016148,0.0095408,0.0079123,-0.0015729,0.049066,0.032108,0.0093455,0.0043459,0.080163,0.035215,0.23475,0.12684,0.075861
0.030125,0.0029317,0.016307,-0.06783,-0.02547,-0.024752,0.017552,0.028364,0.0012343,0.019295,0.018948,0.0093554,0.011181,0.0072061,0.0019593,0.036931,0.028143,0.009042,0.0075122,0.092215,0.046224,0.21433,0.12029,0.14489
0.026681,0.0042181,0.016365,-0.066331,-0.026006,-0.030812,0.01469,0.027609,0.00034751,0.016077,0.018633,0.0033992,0.010067,0.0056237,0.004772,0.023884,0.019466,0.0085469,0.012825,0.094148,0.050374,0.18826,0.10582,0.17738
0.025161,0.0042433,0.016491,-0.063002,-0.026109,-0.034639,0.009055,0.023093,-0.0031011,0.01203,0.015597,0.0020944,0.0064769,0.0035634,0.0059958,0.014618,0.0087401,0.0069155,0.020898,0.083404,0.046285,0.157,0.081975,0.17626
0.025468,0.0028664,0.016934,-0.060764,-0.023135,-0.034278,0.0045898,0.013224,-0.007135,0.0083765,0.011504,0.004804,0.002037,0.0015517,0.0058512,0.011742,-0.000598,0.0042819,0.030218,0.063103,0.036437,0.12121,0.048536,0.15259
0.025475,0.0021786,0.017713,-0.060994,-0.016929,-0.030245,0.0028925,-0.0003724,-0.010385,0.0057923,0.0087675,0.0078295,-0.0011777,-0.00040957,0.005735,0.014596,-0.0060179,0.0016215,0.037246,0.041044,0.026008,0.083676,0.0085811,0.11978
0.023168,0.0046664,0.018125,-0.062976,-0.010682,-0.02587,0.0024696,-0.014164,-0.012692,0.004512,0.0087742,0.0080436,-0.0018803,-0.0028945,0.0073149,0.019901,-0.0070227,-5.5317e-005,0.03866,0.024937,0.019797,0.049414,-0.031055,0.088582
0.018446,0.010528,0.017124,-0.064984,-0.0084663,-0.025463,0.00078898,-0.025074,-0.0147,0.0047099,0.011182,0.0052545,-0.0002604,-0.0062934,0.011267,0.02352,-0.0051389,-0.00031743,0.034153,0.01754,0.01945,0.023338,-0.062117,0.064791
0.012786,0.016722,0.01441,-0.066009,-0.011658,-0.031323,-0.0029808,-0.032141,-0.017043,0.0064552,0.014779,0.001603,0.0023605,-0.0099739,0.016649,0.022202,-0.0027545,0.00068164,0.027238,0.015736,0.022952,0.0072343,-0.078876,0.049688
0.0073475,0.018973,0.011167,-0.066545,-0.017563,-0.04171,-0.0070366,-0.036538,-0.019809,0.0091385,0.018805,-0.00068599,0.004539,-0.012323,0.021422,0.014522,-0.0014976,0.0026039,0.023011,0.014232,0.026529,-0.0012906,-0.080898,0.041785
0.0018088,0.015272,0.0095588,-0.067753,-0.021563,-0.05148,-0.0085074,-0.040228,-0.022451,0.011135,0.023236,-0.00074644,0.0055453,-0.011835,0.023723,0.000884,-0.0012488,0.0052177,0.024473,0.010466,0.027356,-0.0069001,-0.072669,0.038495
-0.004674,0.0078841,0.011087,-0.069794,-0.02086,-0.055194,-0.0060142,-0.044399,-0.023996,0.010545,0.027796,0.0012378,0.0054903,-0.0083656,0.022931,-0.017086,-0.00055201,0.0083148,0.03036,0.0063688,0.025097,-0.013105,-0.060545,0.037096
-0.011516,0.0019898,0.015118,-0.07098,-0.016544,-0.050688,-0.00098942,-0.04879,-0.023434,0.0068112,0.031008,0.0049496,0.0049101,-0.0034556,0.019764,-0.037291,0.0018439,0.011478,0.036265,0.0056948,0.02149,-0.019996,-0.049334,0.035272
-0.016236,0.0018802,0.018914,-0.068677,-0.012337,-0.040639,0.0033069,-0.05242,-0.020278,0.0018077,0.030689,0.0099952,0.004314,0.00056634,0.015495,-0.057804,0.0055773,0.014117,0.038034,0.0097473,0.018739,-0.024769,-0.04073,0.031615
-0.016454,0.007703,0.019373,-0.061338,-0.011284,-0.031,0.0042105,-0.055183,-0.015095,-0.00099878,0.025803,0.015174,0.0039517,0.0019405,0.011043,-0.077339,0.0086943,0.015878,0.034632,0.015654,0.018053,-0.024395,-0.034086,0.026042
-0.012536,0.01532,0.015228,-0.049833,-0.013322,-0.0273,0.0015358,-0.059025,-0.0094896,0.00090071,0.017931,0.018378,0.0036782,0.00023122,0.0067149,-0.095594,0.0092188,0.017021,0.028326,0.01872,0.019241,-0.018261,-0.028283,0.019709
-0.0079868,0.019326,0.0079605,-0.03669,-0.015627,-0.031206,-0.0025654,-0.067511,-0.0052425,0.0068084,0.010734,0.017953,0.0028179,-0.0039165,0.0026595,-0.11343,0.0069564,0.018276,0.022447,0.016525,0.021303,-0.0088326,-0.023098,0.014173
-0.0068115,0.016836,0.00069004,-0.02346,-0.015214,-0.039572,-0.0056022,-0.083772,-0.0030562,0.01304,0.0075479,0.014487,0.000281,-0.0095434,-0.00056991,-0.13261,0.0038594,0.020154,0.01888,0.010943,0.023374,-5.1988e-005,-0.019316,0.010238
-0.010224,0.0092176,-0.0040935,-0.0081245,-0.011517,-0.046577,-0.0069044,-0.10833,-0.0020127,0.015765,0.0090733,0.010983,-0.0047523,-0.01591,-0.0020777,-0.15487,0.0024884,0.022288,0.017279,0.0063541,0.025293,0.0051964,-0.017993,0.0073199
-0.01598,0.00066663,-0.0061014,0.015222,-0.0068864,-0.047563,-0.0080759,-0.13868,-0.00043489,0.014147,0.013144,0.010736,-0.01182,-0.022492,-0.0013841,-0.1803,0.0038511,0.023447,0.016188,0.005845,0.027421,0.0067803,-0.01968,0.0038734
-0.021046,-0.00506,-0.0068773,0.053555,-0.0047276,-0.041995,-0.011284,-0.17103,0.0024416,0.010983,0.016699,0.014551,-0.018731,-0.028713,0.00081432,-0.20576,0.0065374,0.022346,0.014698,0.0088591,0.029889,0.0071602,-0.024086,-0.0013804
-0.024871,-0.0072491,-0.0078973,0.11024,-0.0068022,-0.033482,-0.016842,-0.20256,0.0055364,0.010193,0.018132,0.01992,-0.022439,-0.033839,0.002748,-0.22468,0.0079282,0.018635,0.013126,0.012169,0.03194,0.0096249,-0.030125,-0.0083625
-0.029831,-0.0083719,-0.0088851,0.18131,-0.011758,-0.026825,-0.022322,-0.23192,0.0067764,0.013418,0.017977,0.023139,-0.020939,-0.037145,0.0027317,-0.22909,0.0063803,0.01329,0.012433,0.012977,0.032057,0.016051,-0.03612,-0.015541
-0.038272,-0.011888,-0.0079317,0.25535,-0.015981,-0.024274,-0.024195,-0.25728,0.0050987,0.018768,0.017593,0.022547,-0.014753,-0.038167,0.00057822,-0.21357,0.0024535,0.0081104,0.013204,0.011205,0.028956,0.025455,-0.040101,-0.020966
-0.049249,-0.019472,-0.0034139,0.31752,-0.016119,-0.023914,-0.020741,-0.27403,0.0017291,0.022714,0.017411,0.019965,-0.0067203,-0.036853,-0.0019591,-0.17882,-0.0017676,0.0046943,0.015134,0.0091044,0.022648,0.034127,-0.040285,-0.023723
-0.058478,-0.02969,0.0039857,0.35579,-0.011415,-0.021529,-0.013672,-0.27517,-0.00060212,0.023163,0.016522,0.019006,-0.00016688,-0.033638,-0.0023114,-0.13249,-0.004422,0.0035848,0.017242,0.0089283,0.014593,0.037351,-0.035675,-0.024742
-0.061837,-0.038944,0.011135,0.36572,-0.0041244,-0.01443,-0.0069511,-0.25504,6.1997e-005,0.020874,0.013889,0.021798,0.0030104,-0.02948,0.0008979,-0.08596,-0.0050349,0.0040801,0.018392,0.011,0.0067195,0.031885,-0.026486,-0.026339
-0.059037,-0.043868,0.014637,0.35081,0.0022223,-0.0039925,-0.003778,-0.21406,0.003188,0.018206,0.0097524,0.0271,0.0028518,-0.025738,0.0065347,-0.048874,-0.0042735,0.0047462,0.01768,0.013838,0.00022175,0.017891,-0.014053,-0.030735
-0.053777,-0.043385,0.013689,0.31859,0.0052984,0.0053715,-0.0043884,-0.1603,0.0062153,0.016803,0.0057195,0.031407,0.00037246,-0.023661,0.011532,-0.024686,-0.0029645,0.0043055,0.014711,0.015832,-0.0047751,-0.00086186,-0.00021304,-0.038563
-0.050205,-0.03906,0.011103,0.27547,0.005296,0.0099551,-0.006502,-0.10618,0.006846,0.016525,0.0034348,0.031945,-0.0035312,-0.023601,0.013099,-0.010335,-0.0015983,0.0024098,0.0099101,0.016643,-0.0085216,-0.018788,0.013482,-0.048402
-0.049192,-0.033725,0.01132,0.22432,0.0042198,0.0098832,-0.007755,-0.062158,0.0051353,0.016295,0.0031831,0.028883,-0.0081347,-0.024545,0.010865,7.6989e-005,-0.00069062,-0.00014803,0.0046932,0.017056,-0.010919,-0.031263,0.026234,-0.057729
-0.04808,-0.029588,0.016779,0.1665,0.0040061,0.008794,-0.0076883,-0.03213,0.0035356,0.015518,0.0037474,0.024976,-0.012205,-0.024594,0.0071859,0.010522,-0.0011933,-0.0019436,0.0010597,0.017758,-0.011738,-0.036724,0.037928,-0.064651
-0.043945,-0.027177,0.02557,0.10592,0.0051485,0.010398,-0.0075211,-0.013567,0.0048707,0.014466,0.0035441,0.02319,-0.013954,-0.022319,0.0052777,0.020797,-0.0040309,-0.001863,0.00049144,0.018525,-0.011557,-0.03683,0.04867,-0.06925
-0.03687,-0.025617,0.032501,0.050744,0.0068216,0.015133,-0.008279,-0.001858,0.0099877,0.013529,0.0019142,0.024487,-0.012295,-0.018,0.0066794,0.028138,-0.0089458,0.00015121,0.0028672,0.018667,-0.012154,-0.034809,0.058317,-0.073564
-0.029849,-0.023648,0.03291,0.010311,0.0080478,0.020025,-0.0094424,0.0049624,0.017025,0.012588,-0.00044994,0.027496,-0.0082779,-0.013604,0.010176,0.030801,-0.013923,0.0030742,0.0064482,0.018142,-0.015505,-0.033276,0.066296,-0.080229
-0.025602,-0.020462,0.02624,-0.010886,0.0086535,0.021817,-0.0095504,0.0048537,0.022785,0.011438,-0.0020086,0.030029,-0.0048624,-0.011352,0.013038,0.030294,-0.016199,0.005472,0.0092371,0.018005,-0.022041,-0.033006,0.071775,-0.090714
-0.023797,-0.015912,0.016464,-0.017046,0.0092426,0.020336,-0.0080085,-0.0054246,0.024968,0.010678,-0.001191,0.030889,-0.0045833,-0.012006,0.01342,0.030393,-0.014343,0.0063323,0.010666,0.019611,-0.029841,-0.03321,0.074051,-0.10438
-0.021633,-0.010329,0.0090365,-0.018845,0.010489,0.018892,-0.006044,-0.02594,0.023489,0.011713,0.0029302,0.030452,-0.0070486,-0.014376,0.011774,0.03406,-0.009609,0.0054882,0.012011,0.023318,-0.035691,-0.032742,0.072913,-0.11896
-0.017062,-0.0043526,0.0069207,-0.026241,0.012563,0.021323,-0.0056841,-0.051338,0.020026,0.015414,0.010128,0.029804,-0.0088753,-0.016443,0.010127,0.041127,-0.0051302,0.0035116,0.014974,0.027987,-0.0372,-0.031184,0.06881,-0.13199
-0.011104,0.0012069,0.008921,-0.041746,0.015096,0.028422,-0.0077554,-0.072572,0.016498,0.020659,0.018719,0.029487,-0.006602,-0.016991,0.010109,0.048705,-0.0034158,0.0013514,0.019681,0.031841,-0.034166,-0.029156,0.062748,-0.14211
-0.0067852,0.0056861,0.011418,-0.059498,0.01744,0.037015,-0.010948,-0.081317,0.013879,0.024444,0.0259,0.029086,-0.00010612,-0.016224,0.011666,0.053774,-0.0042618,-3.5638e-005,0.024133,0.03389,-0.028136,-0.027852,0.055932,-0.14943
-0.005859,0.0090603,0.011651,-0.070703,0.018854,0.042464,-0.012868,-0.073908,0.012217,0.023934,0.029062,0.027971,0.0068113,-0.014898,0.013621,0.055577,-0.0049829,-5.6707e-005,0.025879,0.034621,-0.020911,-0.028245,0.049325,-0.15488
-0.0068463,0.012135,0.0095582,-0.070789,0.018654,0.042317,-0.01199,-0.052265,0.011477,0.018861,0.027559,0.026371,0.0095634,-0.013081,0.015284,0.055888,-0.002848,0.0011448,0.024467,0.035329,-0.013542,-0.030387,0.04331,-0.15931
-0.0064489,0.01597,0.0068456,-0.062496,0.016576,0.037944,-0.0086106,-0.021748,0.012087,0.012125,0.023521,0.02561,0.0069402,-0.0099581,0.017347,0.057214,0.002408,0.002602,0.022232,0.036781,-0.0065689,-0.033147,0.03762,-0.16308
-0.0028278,0.020746,0.0046523,-0.052905,0.013238,0.032964,-0.0041072,0.012066,0.014487,0.0079052,0.020643,0.027103,0.00239,-0.0049521,0.021065,0.060681,0.0082423,0.0030756,0.022422,0.038463,-0.00072146,-0.034609,0.031581,-0.16632
0.0026454,0.025028,0.0023705,-0.047586,0.010167,0.0301,0.00042897,0.045436,0.018201,0.0087103,0.021491,0.030896,0.0010301,0.0010696,0.026552,0.065354,0.011434,0.0020813,0.026216,0.039072,0.0031391,-0.033176,0.024542,-0.16945
0.0068515,0.026345,-0.0012464,-0.046956,0.0090428,0.029288,0.0047003,0.076598,0.021584,0.013712,0.025404,0.035121,0.0049857,0.0059305,0.031938,0.069211,0.010746,0.00054605,0.031447,0.037725,0.0049538,-0.028872,0.01629,-0.17346
0.0079642,0.02294,-0.0060189,-0.047373,0.01056,0.02848,0.0085837,0.10483,0.02287,0.019594,0.028929,0.037085,0.011319,0.0077301,0.03432,0.070666,0.0077203,0.00027902,0.034436,0.03471,0.0060438,-0.023921,0.0072722,-0.17961
0.0069679,0.015398,-0.0096741,-0.045114,0.013894,0.026091,0.01151,0.12964,0.021724,0.023099,0.028653,0.035304,0.014506,0.0064609,0.031718,0.069279,0.0049473,0.0024524,0.033407,0.031079,0.0081872,-0.021854,-0.0015239,-0.18889
0.0063015,0.0066963,-0.009511,-0.039384,0.017285,0.022725,0.012862,0.15044,0.019783,0.023232,0.024127,0.030766,0.011271,0.0040928,0.024384,0.065388,0.0035127,0.0063774,0.030343,0.027501,0.011676,-0.025437,-0.0090164,-0.20151
0.0072147,0.00040768,-0.0049189,-0.032122,0.019258,0.020656,0.012988,0.16654,0.01939,0.021559,0.018331,0.026223,0.0034203,0.002963,0.014501,0.059444,0.0020967,0.0098112,0.029414,0.023452,0.014288,-0.034804,-0.014653,-0.21656
0.0085486,-0.0016127,0.0017241,-0.025642,0.019436,0.021681,0.013423,0.17699,0.021455,0.020665,0.015182,0.023969,-0.0038096,0.0039016,0.0047689,0.051966,-0.0013628,0.010674,0.033213,0.017537,0.012631,-0.047266,-0.018896,-0.23196
0.0080186,-0.00020519,0.0067878,-0.020786,0.018424,0.025368,0.015609,0.18077,0.024383,0.022126,0.016214,0.024049,-0.0063083,0.005771,-0.0028473,0.04413,-0.0070174,0.0086721,0.040117,0.0086992,0.0050643,-0.059044,-0.023242,-0.24491
0.0045743,0.0022372,0.0082602,-0.017103,0.017169,0.029243,0.019197,0.17749,0.025192,0.025495,0.01936,0.02455,-0.0044089,0.0067738,-0.0074591,0.038045,-0.012129,0.0053764,0.045224,-0.0026884,-0.0063631,-0.067572,-0.029647,-0.25278
-0.00048204,0.0039872,0.0071053,-0.014267,0.016527,0.030714,0.021857,0.16856,0.021966,0.028856,0.020901,0.023716,-0.0020908,0.0062695,-0.0089308,0.035897,-0.012984,0.0027705,0.044193,-0.01479,-0.016977,-0.072581,-0.039559,-0.25437
-0.0045513,0.0053009,0.0058427,-0.012899,0.017171,0.029033,0.021243,0.15745,0.01556,0.03035,0.018849,0.021812,-0.0030093,0.005413,-0.007598,0.038277,-0.0081689,0.0017451,0.036782,-0.025388,-0.022885,-0.075272,-0.053011,-0.25064
-0.0058119,0.0076999,0.0057382,-0.013921,0.019384,0.025622,0.017513,0.14841,0.0090677,0.029515,0.0147,0.020821,-0.0070934,0.0060449,-0.0043245,0.043169,-0.00021693,0.0018764,0.027132,-0.033224,-0.023843,-0.076637,-0.068245,-0.24434
-0.0043926,0.011976,0.0053924,-0.017268,0.022559,0.022564,0.013849,0.14398,0.0055511,0.027541,0.012025,0.022195,-0.01074,0.0088677,-0.00058899,0.046938,0.0060699,0.00237,0.020587,-0.038532,-0.023066,-0.076585,-0.082156,-0.23849
-0.0017857,0.016887,0.0022436,-0.021382,0.025032,0.020629,0.014069,0.14317,0.0058931,0.026381,0.013225,0.024941,-0.010216,0.012588,0.0018219,0.04702,0.00728,0.0028686,0.019705,-0.04245,-0.02421,-0.074566,-0.091462,-0.2345
0.00066734,0.019887,-0.0043323,-0.024036,0.024986,0.018619,0.019225,0.14206,0.0083452,0.027426,0.017415,0.026159,-0.0050109,0.014847,0.0015389,0.044288,0.0038011,0.0031993,0.02262,-0.045897,-0.028268,-0.070786,-0.094176,-0.23148
0.0026888,0.019317,-0.011361,-0.023788,0.02213,0.014692,0.026286,0.13674,0.0098411,0.030688,0.021337,0.023783,0.0018566,0.014164,-0.0016168,0.042881,-0.0011033,0.0025915,0.02485,-0.048939,-0.03307,-0.066576,-0.090705,-0.22701
0.0046303,0.016049,-0.013961,-0.020877,0.018589,0.0085478,0.030371,0.12647,0.0079454,0.034971,0.022341,0.018978,0.0065985,0.011228,-0.0062573,0.047158,-0.0044773,-0.00031959,0.022881,-0.051136,-0.0356,-0.063472,-0.08391,-0.21914
0.0063305,0.012981,-0.0092118,-0.01699,0.017715,0.0024579,0.028774,0.11443,0.0022269,0.038771,0.020583,0.015758,0.0077496,0.0083984,-0.0097339,0.057925,-0.0059549,-0.0062396,0.016597,-0.052389,-0.034802,-0.061995,-0.07792,-0.20786
0.0065744,0.012736,0.0011121,-0.014224,0.021383,-2.6118e-005,0.023303,0.10518,-0.0054989,0.041127,0.018438,0.017943,0.0068166,0.007837,-0.009198,0.070958,-0.0070734,-0.013853,0.0088276,-0.053354,-0.03231,-0.061441,-0.076218,-0.19502
0.0038579,0.015563,0.011477,-0.013973,0.028084,0.0030864,0.018843,0.10071,-0.012031,0.041868,0.0178,0.026125,0.0062477,0.0098325,-0.0031514,0.079215,-0.0086989,-0.020005,0.0027264,-0.054931,-0.030666,-0.060891,-0.08004,-0.18283
-0.0021325,0.019265,0.016526,-0.016303,0.033796,0.010148,0.019369,0.098359,-0.014428,0.041265,0.018026,0.037352,0.0069796,0.012663,0.0072785,0.077278,-0.0095966,-0.021773,-0.00065954,-0.057306,-0.030924,-0.060308,-0.087996,-0.17207
-0.0097068,0.021123,0.01478,-0.020007,0.035162,0.016493,0.02481,0.092542,-0.011763,0.03958,0.016601,0.047748,0.0079308,0.013996,0.018361,0.064751,-0.0078508,-0.018826,-0.0026527,-0.059564,-0.031908,-0.060513,-0.097069,-0.16158
-0.01596,0.020028,0.0091632,-0.023233,0.032288,0.017594,0.031373,0.079154,-0.0059287,0.036943,0.011914,0.055628,0.0076161,0.012597,0.025564,0.046229,-0.0036262,-0.013973,-0.0050819,-0.060411,-0.03164,-0.062083,-0.1043,-0.14929
-0.018734,0.016947,0.0042592,-0.024413,0.028645,0.012414,0.034845,0.059114,-0.00060394,0.033575,0.0054071,0.062376,0.005916,0.0090357,0.026282,0.028062,-8.76e-005,-0.011241,-0.0081789,-0.059475,-0.029365,-0.06445,-0.10817,-0.13401
-0.018202,0.013547,0.0028714,-0.023094,0.028154,0.0043075,0.033906,0.038092,0.0013096,0.030024,0.0008365,0.070575,0.004083,0.0050891,0.021596,0.014466,-0.0010396,-0.013025,-0.010236,-0.057938,-0.02619,-0.066311,-0.10906,-0.11664
-0.016674,0.010516,0.0046335,-0.020205,0.032025,-0.0013154,0.030665,0.022456,-2.2412e-005,0.027089,0.0011196,0.081385,0.0031024,0.0025383,0.015536,0.0057355,-0.0072864,-0.018589,-0.0093378,-0.057774,-0.023838,-0.06704,-0.10874,-0.099583
-0.016638,0.007243,0.0072526,-0.017533,0.03803,-0.00073959,0.028237,0.014633,-0.0014042,0.025415,0.0056107,0.093579,0.0023405,0.002281,0.012183,-0.00055085,-0.015278,-0.024951,-0.00552,-0.060075,-0.022859,-0.067587,-0.10927,-0.085
-0.018618,0.0030443,0.0087179,-0.016646,0.042591,0.0057643,0.027773,0.011542,0.00068949,0.024989,0.010362,0.1048,7.3758e-005,0.004098,0.012752,-0.0067601,-0.019608,-0.029117,-0.0012476,-0.063913,-0.022084,-0.069766,-0.11188,-0.072993
-0.020702,-0.0015245,0.0084771,-0.017932,0.043625,0.014688,0.027685,0.0072781,0.0068753,0.024892,0.01123,0.11346,-0.0045863,0.0068678,0.014947,-0.013207,-0.017328,-0.029785,0.00038731,-0.066845,-0.019815,-0.074511,-0.1164,-0.061195
-0.02023,-0.004752,0.0070549,-0.020435,0.041726,0.022133,0.025652,-0.0022254,0.01406,0.023598,0.0071035,0.11937,-0.010444,0.0089853,0.01502,-0.018321,-0.010322,-0.02749,-0.0017746,-0.066807,-0.015556,-0.080828,-0.12149,-0.046071
-0.016254,-0.005248,0.0050978,-0.022633,0.039017,0.026286,0.02138,-0.016302,0.01812,0.019842,0.00042914,0.12289,-0.015085,0.008971,0.010823,-0.02045,-0.003821,-0.0237,-0.0059494,-0.06385,-0.010654,-0.086611,-0.12562,-0.025043
-0.010627,-0.0033023,0.0029612,-0.023555,0.037098,0.027748,0.01736,-0.030496,0.017866,0.013701,-0.0052797,0.12371,-0.017091,0.0062251,0.0034501,-0.01954,-0.0024647,-0.019955,-0.0089209,-0.060233,-0.0072869,-0.090575,-0.12808,0.0019722
-0.0067372,-0.00067874,0.00094992,-0.023347,0.035982,0.02797,0.016722,-0.040231,0.016605,0.0071105,-0.0085929,0.1209,-0.017361,0.0015213,-0.0036252,-0.017282,-0.007182,-0.017511,-0.0087764,-0.058693,-0.0068027,-0.093384,-0.1293,0.032506
-0.006942,0.0010002,-0.00047276,-0.022802,0.03468,0.027594,0.020099,-0.044059,0.01956,0.0030941,-0.011143,0.11382,-0.018149,-0.0033135,-0.0069831,-0.015742,-0.015024,-0.017102,-0.0064471,-0.060257,-0.008909,-0.096766,-0.13022,0.062836
-0.010876,0.0016448,-0.00095101,-0.022294,0.03251,0.026191,0.024561,-0.044086,0.029176,0.0038241,-0.015689,0.10295,-0.020737,-0.0065782,-0.005336,-0.015778,-0.021526,-0.018517,-0.004718,-0.063367,-0.012275,-0.10148,-0.13125,0.089656
-0.015972,0.0024374,-0.0006367,-0.021153,0.029793,0.02333,0.025909,-0.043733,0.042522,0.0087141,-0.023145,0.089484,-0.024056,-0.0079565,5.7822e-005,-0.016577,-0.023531,-0.020366,-0.0056637,-0.065005,-0.015744,-0.10621,-0.13188,0.11115
-0.019566,0.0042067,-9.8878e-005,-0.018177,0.027444,0.019669,0.022477,-0.045043,0.053236,0.014188,-0.031264,0.07443,-0.025665,-0.008797,0.006534,-0.016572,-0.020709,-0.020737,-0.0088582,-0.062894,-0.018872,-0.1086,-0.13124,0.12708
-0.020718,0.0061802,0.00030682,-0.012966,0.026068,0.016882,0.016947,-0.047655,0.0564,0.015753,-0.036101,0.058236,-0.024184,-0.011079,0.011625,-0.014906,-0.015272,-0.018641,-0.011934,-0.056997,-0.021398,-0.10748,-0.12909,0.13818
-0.020314,0.0065106,0.00092184,-0.0068365,0.025467,0.016453,0.014273,-0.049824,0.05209,0.011126,-0.034981,0.041446,-0.020876,-0.015865,0.014091,-0.012202,-0.010436,-0.015042,-0.012895,-0.049179,-0.02248,-0.10409,-0.12625,0.14554
-0.019704,0.0041446,0.0024352,-0.0023159,0.024848,0.018429,0.017376,-0.050187,0.044634,0.0019736,-0.028468,0.025497,-0.018864,-0.022503,0.014039,-0.010085,-0.0085167,-0.012276,-0.012021,-0.041275,-0.020871,-0.10097,-0.12393,0.15034
-0.019294,0.00015641,0.0048468,-0.0014225,0.023372,0.021231,0.024442,-0.048717,0.038619,-0.0073253,-0.019834,0.012468,-0.020658,-0.029142,0.012462,-0.0098226,-0.0096363,-0.012082,-0.011651,-0.032997,-0.016134,-0.099573,-0.12267,0.15379
-0.018321,-0.0028835,0.006732,-0.0041648,0.020516,0.022711,0.030327,-0.046396,0.035457,-0.01308,-0.01257,0.0037395,-0.026098,-0.033965,0.010641,-0.011117,-0.011822,-0.013953,-0.014048,-0.021061,-0.0096979,-0.09904,-0.12172,0.15711
-0.015792,-0.0030395,0.0057478,-0.0086433,0.01616,0.021622,0.030833,-0.044258,0.033417,-0.015085,-0.0080356,-0.0011954,-0.032418,-0.035998,0.0096761,-0.012007,-0.012621,-0.015524,-0.019262,-0.00011441,-0.0043858,-0.097308,-0.11956,0.16123
-0.011549,-0.00070609,0.00029759,-0.012734,0.010626,0.01842,0.026024,-0.042698,0.030466,-0.016392,-0.0050643,-0.0045701,-0.036249,-0.034999,0.010168,-0.010127,-0.011174,-0.014833,-0.024844,0.034966,-0.0024493,-0.093547,-0.11519,0.1665
-0.0064663,0.0016723,-0.0088668,-0.015829,0.0047904,0.014831,0.019741,-0.041427,0.026699,-0.020193,-0.0016671,-0.0089084,-0.035908,-0.030915,0.012046,-0.0045985,-0.009046,-0.012393,-0.027709,0.086375,-0.0037625,-0.0894,-0.10905,0.17278
-0.0017199,0.0015782,-0.018535,-0.019014,5.4887e-005,0.012581,0.016027,-0.039833,0.02396,-0.026524,0.0027514,-0.01565,-0.032247,-0.02377,0.014619,0.0028328,-0.0089265,-0.010985,-0.026599,0.15135,-0.0059614,-0.087622,-0.10297,0.17983
0.0020879,-0.001652,-0.024816,-0.023594,-0.0021129,0.012248,0.015896,-0.037378,0.023372,-0.031775,0.0066216,-0.025009,-0.027631,-0.014225,0.016878,0.0084902,-0.012203,-0.013183,-0.023149,0.22175,-0.006587,-0.089319,-0.099018,0.18767
0.0051145,-0.0064933,-0.025673,-0.029511,-0.0010099,0.013078,0.017186,-0.033887,0.023706,-0.031598,0.0075505,-0.036924,-0.0241,-0.0041039,0.017903,0.0091474,-0.017597,-0.018849,-0.020651,0.28587,-0.0053039,-0.092454,-0.09818,0.19638
0.007634,-0.010512,-0.022355,-0.035334,0.0026146,0.013853,0.017147,-0.02975,0.02246,-0.024806,0.0045918,-0.051916,-0.022209,0.0039772,0.017103,0.0045375,-0.022175,-0.025004,-0.021458,0.33215,-0.0040606,-0.093264,-0.099635,0.20551
0.0092555,-0.011994,-0.018554,-0.039818,0.0066063,0.014081,0.014988,-0.025967,0.0186,-0.014903,-0.00059957,-0.070922,-0.021266,0.0079769,0.014196,-0.0019758,-0.023799,-0.028285,-0.025079,0.35333,-0.0049781,-0.089446,-0.10116,0.21369
0.0088936,-0.010688,-0.017826,-0.04335,0.0083508,0.014507,0.012098,-0.023873,0.013972,-0.0077827,-0.0048445,-0.094364,-0.020424,0.0078342,0.0091417,-0.0053746,-0.022652,-0.027714,-0.028482,0.34879,-0.007995,-0.082228,-0.10039,0.21901
0.0057335,-0.0075055,-0.021142,-0.047654,0.0061512,0.016472,0.010239,-0.024428,0.011721,-0.0073512,-0.0059249,-0.12149,-0.019422,0.0056859,0.00234,-0.0024073,-0.020432,-0.025194,-0.028451,0.3236,-0.010611,-0.075371,-0.09623,0.21997
0.00044081,-0.00387,-0.026368,-0.053916,0.00024159,0.02059,0.0098269,-0.02736,0.0131,-0.012538,-0.0043849,-0.15063,-0.018342,0.0045196,-0.0050009,0.0060303,-0.018208,-0.023377,-0.02414,0.28476,-0.010076,-0.071964,-0.08962,0.21595
-0.0045816,-0.0012655,-0.029964,-0.061243,-0.0071697,0.025855,0.0099304,-0.030774,0.015908,-0.018079,-0.0030899,-0.17989,-0.016854,0.0061764,-0.010855,0.015439,-0.015262,-0.023066,-0.017776,0.23734,-0.0059936,-0.071942,-0.082957,0.20677
-0.0064556,-0.00091306,-0.029584,-0.067151,-0.012872,0.030011,0.0095823,-0.031795,0.016341,-0.018413,-0.0048706,-0.20754,-0.013995,0.010224,-0.013198,0.020907,-0.010191,-0.022722,-0.012886,0.18334,-0.00083964,-0.072527,-0.078546,0.19192
-0.0038494,-0.0032543,-0.025607,-0.069793,-0.014151,0.031047,0.0087653,-0.028185,0.012689,-0.011688,-0.010164,-0.23162,-0.0090091,0.01457,-0.011359,0.020607,-0.0030738,-0.020442,-0.011508,0.12407,0.0021423,-0.071063,-0.076994,0.17072
0.0018658,-0.007441,-0.020629,-0.069819,-0.010129,0.028661,0.0081014,-0.020039,0.0072941,-0.00093125,-0.016532,-0.24953,-0.0025101,0.017282,-0.006813,0.016969,0.0036745,-0.016258,-0.012726,0.063396,0.0017643,-0.067483,-0.076806,0.14389
0.0074473,-0.011517,-0.017472,-0.069976,-0.0023353,0.024557,0.007845,-0.010268,0.0047165,0.0082264,-0.020371,-0.25853,0.003302,0.018097,-0.0025068,0.014699,0.0068836,-0.012351,-0.013815,0.0086507,-0.00013015,-0.064137,-0.075549,0.11512
0.01011,-0.013604,-0.017295,-0.072664,0.0057765,0.0213,0.0074558,-0.0031596,0.0076064,0.011377,-0.019429,-0.25702,0.005988,0.018426,-0.0009448,0.017239,0.0053118,-0.010943,-0.01294,-0.032512,-0.00038147,-0.063266,-0.071743,0.090713
0.0094948,-0.01333,-0.01911,-0.077676,0.010368,0.02065,0.0062055,-0.0016831,0.014095,0.0079771,-0.014245,-0.24588,0.0048752,0.019933,-0.0024809,0.024419,0.00090042,-0.012046,-0.010951,-0.056977,0.0026637,-0.064591,-0.065908,0.076428
0.0076082,-0.012216,-0.020821,-0.082253,0.0092705,0.022615,0.0040411,-0.0053755,0.019121,0.0012362,-0.0076184,-0.22853,0.0019615,0.022988,-0.005256,0.032942,-0.0026572,-0.013374,-0.010565,-0.068582,0.0077036,-0.065301,-0.059908,0.073634
0.006785,-0.012453,-0.020813,-0.083551,0.0035145,0.025808,0.0016976,-0.010499,0.018432,-0.0042677,-0.0026945,-0.2094,0.00063859,0.026308,-0.0068795,0.039015,-0.0028139,-0.012457,-0.013621,-0.075562,0.011555,-0.062373,-0.055169,0.078075
0.007526,-0.01504,-0.01888,-0.081352,-0.0028535,0.028627,-2.1847e-005,-0.012612,0.011593,-0.0054687,-0.0011501,-0.19198,0.002982,0.028027,-0.0064159,0.040902,6.9353e-006,-0.0088044,-0.018973,-0.084709,0.011692,-0.055103,-0.051378,0.082809
0.0082232,-0.018922,-0.01592,-0.078561,-0.005043,0.030247,-0.00093331,-0.0097834,0.0014696,-0.0024145,-0.0026233,-0.17733,0.007776,0.027188,-0.0049583,0.039537,0.0031719,-0.0040117,-0.023058,-0.096922,0.008113,-0.045669,-0.046798,0.083384
0.0070624,-0.021876,-0.012815,-0.078905,-0.00075764,0.030751,-0.0013597,-0.0039964,-0.0088081,0.0021691,-0.0055052,-0.16432,0.011111,0.024359,-0.0043574,0.037157,0.0043578,6.7777e-005,-0.022751,-0.10769,0.003185,-0.037402,-0.039901,0.081017
0.0042779,-0.022238,-0.0095081,-0.083716,0.0078671,0.030565,-0.0014396,0.00041976,-0.018118,0.0048953,-0.0082695,-0.15086,0.0093762,0.020922,-0.0053586,0.03543,0.0035307,0.0030215,-0.017994,-0.11182,-0.00014954,-0.032374,-0.030818,0.081042
0.0024726,-0.019865,-0.0051079,-0.090522,0.015387,0.02989,-0.00078865,0.00021898,-0.026704,0.0040158,-0.010334,-0.13551,0.0023545,0.017768,-0.0069051,0.034602,0.0027367,0.0057186,-0.011868,-0.10813,-0.00031322,-0.030226,-0.02132,0.087909
0.0044609,-0.015709,0.0009936,-0.094722,0.016801,0.028689,0.00093365,-0.0041117,-0.033783,0.00055056,-0.01199,-0.1186,-0.0061935,0.014625,-0.0072162,0.03396,0.0040959,0.0086828,-0.0080951,-0.10013,0.0020912,-0.028907,-0.013381,0.10103
0.010496,-0.010795,0.0079249,-0.093066,0.01124,0.027177,0.003078,-0.0085591,-0.036504,-0.0025294,-0.013719,-0.10237,-0.01118,0.010633,-0.0055458,0.032798,0.0078955,0.010975,-0.0082161,-0.092745,0.0048702,-0.026437,-0.0076277,0.11497
0.017502,-0.0058402,0.013243,-0.086231,0.0026549,0.026195,0.003811,-0.008504,-0.031905,-0.0025615,-0.015606,-0.090475,-0.010086,0.0055832,-0.0029048,0.030968,0.012377,0.010939,-0.010807,-0.088429,0.0056489,-0.022241,-0.0030392,0.12371
0.021212,-0.0016869,0.014345,-0.078468,-0.0031514,0.026906,0.0012305,-0.002101,-0.020115,0.00074473,-0.017357,-0.086687,-0.0049535,0.00065759,-0.001089,0.028779,0.015178,0.008096,-0.013098,-0.086226,0.0032386,-0.017226,0.0019006,0.12521
0.019465,0.00036771,0.010454,-0.074672,-0.0027565,0.029851,-0.0049233,0.0084385,-0.0053632,0.0050944,-0.018799,-0.093238,-0.000772,-0.0020998,-0.001027,0.026683,0.015023,0.0041657,-0.013258,-0.084023,-0.0017275,-0.012834,0.0077403,0.12255
0.013841,-0.00081437,0.0035019,-0.077142,0.0028026,0.034129,-0.012437,0.018493,0.0067727,0.0075204,-0.020273,-0.10921,-0.0015147,-0.0011607,-0.0021001,0.025122,0.012343,0.0020324,-0.011365,-0.081143,-0.0072034,-0.0099429,0.013689,0.12109
0.0082753,-0.005053,-0.0031089,-0.084415,0.0095916,0.037548,-0.017624,0.024152,0.013632,0.0068927,-0.022413,-0.12997,-0.0070136,0.0034228,-0.0030487,0.02444,0.0086482,0.0034832,-0.0086185,-0.07863,-0.010971,-0.0083755,0.018668,0.12429
0.0059717,-0.010412,-0.0070984,-0.092837,0.014264,0.037915,-0.017661,0.024372,0.01725,0.0048549,-0.025413,-0.14829,-0.013123,0.010133,-0.0034518,0.024635,0.0054956,0.0077397,-0.0060293,-0.077344,-0.011969,-0.0071781,0.022683,0.13152
0.0072371,-0.014201,-0.0091309,-0.099443,0.016278,0.034613,-0.012589,0.020813,0.021829,0.0042981,-0.028452,-0.15699,-0.014916,0.017044,-0.0041892,0.025034,0.0038262,0.012043,-0.0039255,-0.076331,-0.010809,-0.0053281,0.027047,0.13899
0.009818,-0.014722,-0.012156,-0.10388,0.017212,0.029212,-0.005443,0.016062,0.029226,0.0066661,-0.029977,-0.15168,-0.010324,0.022808,-0.0063748,0.024361,0.0037994,0.013715,-0.0023934,-0.073425,-0.0091074,-0.0023223,0.03311,0.14271
0.011024,-0.012266,-0.018661,-0.10805,0.018422,0.024493,-0.00028323,0.012209,0.036809,0.010486,-0.028789,-0.13217,-0.0015211,0.026802,-0.0098583,0.021468,0.0048283,0.011959,-0.0017285,-0.067416,-0.0081726,0.0017172,0.040749,0.14077
0.0096124,-0.0086028,-0.028217,-0.11408,0.01968,0.022528,0.0004809,0.011012,0.039835,0.012458,-0.025073,-0.10159,0.0066605,0.028726,-0.012908,0.016324,0.0057728,0.0080889,-0.0021917,-0.059368,-0.0081214,0.006443,0.048337,0.13387
0.0060646,-0.0055657,-0.037603,-0.12221,0.020013,0.023264,-0.0024172,0.015014,0.036158,0.010145,-0.020406,-0.064137,0.0098456,0.028467,-0.013563,0.010373,0.0055418,0.0043128,-0.0034389,-0.051615,-0.0080597,0.011893,0.054466,0.12429
0.0016141,-0.0040405,-0.043537,-0.13032,0.019423,0.024768,-0.0058146,0.027715,0.028815,0.0039251,-0.016562,-0.022963,0.0065639,0.026579,-0.011472,0.0057734,0.0040442,0.0022283,-0.0045321,-0.045517,-0.0070009,0.018849,0.059851,0.11437
-0.0026714,-0.0040049,-0.045531,-0.13531,0.019301,0.02497,-0.0064264,0.051637,0.023988,-0.0033843,-0.014097,0.02051,-0.0012425,0.024633,-0.0084854,0.0039765,0.0027188,0.0021422,-0.0047979,-0.040359,-0.0046281,0.028555,0.067283,0.10553
-0.005946,-0.0051725,-0.046169,-0.13521,0.020882,0.023516,-0.0030397,0.085275,0.02609,-0.0087019,-0.011962,0.065742,-0.0095308,0.024494,-0.0072907,0.0047661,0.0037601,0.0034289,-0.0047083,-0.034512,-0.0013616,0.041764,0.079255,0.097781
-0.0071811,-0.0073627,-0.048443,-0.1304,0.02344,0.022157,0.0028975,0.12157,0.034236,-0.010686,-0.008605,0.11169,-0.014322,0.02668,-0.0091792,0.00655,0.0081952,0.0053264,-0.0057018,-0.027508,0.0020245,0.057633,0.095178,0.090047
-0.0052122,-0.010292,-0.052648,-0.1231,0.024374,0.02321,0.0084955,0.15005,0.042966,-0.010056,-0.0036668,0.15599,-0.013674,0.029283,-0.012846,0.0076327,0.014356,0.0074133,-0.0088214,-0.020716,0.0047147,0.073362,0.11086,0.080965
0.00048808,-0.01326,-0.055849,-0.11538,0.0215,0.027248,0.011357,0.16203,0.046353,-0.008438,0.001177,0.19512,-0.0086614,0.028946,-0.01533,0.0073807,0.018462,0.009478,-0.013314,-0.015858,0.0059976,0.085208,0.1211,0.070037
0.0090246,-0.015316,-0.054524,-0.10719,0.015465,0.032015,0.010789,0.15573,0.04202,-0.0071868,0.0030387,0.22536,-0.0028305,0.023589,-0.014396,0.0063433,0.017372,0.011094,-0.01662,-0.012981,0.0055755,0.090564,0.12337,0.058353
0.01822,-0.015883,-0.047933,-0.096154,0.0098807,0.033747,0.0076544,0.13747,0.032106,-0.0072183,-0.00025702,0.24392,-0.00018037,0.014667,-0.010424,0.0053486,0.011366,0.011469,-0.016095,-0.01011,0.0041028,0.089744,0.11961,0.048138
0.025822,-0.015224,-0.038994,-0.079521,0.0087772,0.030122,0.0033563,0.11773,0.021,-0.0095315,-0.00858,0.2497,-0.0025965,0.0066761,-0.006191,0.0044816,0.0043723,0.009873,-0.011238,-0.0050723,0.0033506,0.085997,0.11454,0.041151
0.030891,-0.014229,-0.031789,-0.05711,0.013482,0.022435,-0.00096248,0.10444,0.012017,-0.015254,-0.019372,0.24376,-0.0083956,0.0039178,-0.0046761,0.0029042,0.0010891,0.0063831,-0.0045407,0.0023251,0.0053292,0.083403,0.11204,0.037092
0.034247,-0.013671,-0.028056,-0.032738,0.02156,0.014953,-0.0044474,0.098258,0.0055967,-0.024674,-0.029013,0.22913,-0.013263,0.0071122,-0.006676,-0.00030385,0.0033428,0.0022723,-2.9657e-006,0.009983,0.010648,0.084026,0.11275,0.033473
0.037581,-0.013601,-0.0259,-0.012523,0.02864,0.011686,-0.0061645,0.09318,-1.1514e-005,-0.036085,-0.034694,0.21033,-0.013251,0.012863,-0.010231,-0.005016,0.0088934,-0.00050965,-0.00023904,0.015376,0.017467,0.086495,0.11458,0.027294
0.041944,-0.013421,-0.02187,-0.00084461,0.031481,0.01316,-0.0051833,0.081815,-0.0064805,-0.045852,-0.035625,0.19198,-0.0077485,0.016585,-0.012369,-0.0096542,0.0137,-0.00059982,-0.0044238,0.017742,0.022266,0.087258,0.11547,0.017281
0.046774,-0.012476,-0.014342,0.0029578,0.029784,0.016027,-0.0013845,0.061271,-0.013475,-0.050175,-0.033011,0.17706,-4.0808e-005,0.016415,-0.011687,-0.011966,0.015429,0.0016649,-0.0088666,0.018484,0.022173,0.083622,0.1155,0.0048116
0.05019,-0.010574,-0.0050935,0.0042319,0.025549,0.015986,0.0037646,0.035083,-0.018528,-0.047362,-0.029075,0.16517,0.0051532,0.014635,-0.0095303,-0.010512,0.01491,0.0042645,-0.0099536,0.019548,0.017073,0.076182,0.11645,-0.0072214
0.050316,-0.007996,0.0022354,0.008908,0.020943,0.011503,0.007589,0.010053,-0.018798,-0.038794,-0.025816,0.1522,0.0052969,0.015337,-0.0087372,-0.0058283,0.014409,0.0048231,-0.0071582,0.021545,0.009767,0.06865,0.11933,-0.016558
0.046693,-0.0051415,0.0052235,0.018857,0.016626,0.00505,0.0079521,-0.0090198,-0.013384,-0.027789,-0.024155,0.13263,0.001858,0.020398,-0.011063,-0.00039694,0.014836,0.002338,-0.0035713,0.023484,0.0040516,0.065203,0.12241,-0.022881
0.040783,-0.0023059,0.0045016,0.030632,0.011807,0.00077312,0.0051309,-0.022344,-0.0043821,-0.01736,-0.023732,0.1038,-0.0011398,0.02739,-0.01559,0.0026519,0.014898,-0.0020278,-0.0033564,0.024188,0.0022994,0.067506,0.1218,-0.027387
0.035206,0.00020736,0.0029431,0.03873,0.0056483,0.00080099,0.0020483,-0.033834,0.0042055,-0.0087532,-0.023293,0.069438,-0.00051266,0.031323,-0.019568,0.0013389,0.012986,-0.0057407,-0.0081464,0.023713,0.0043179,0.073713,0.11425,-0.031354
0.032192,0.0019305,0.003249,0.04055,-0.0013404,0.0035496,0.0022474,-0.047345,0.0090078,-0.0017467,-0.021412,0.039237,0.003702,0.028697,-0.020902,-0.0039817,0.0095771,-0.0066757,-0.015426,0.023231,0.0079873,0.080072,0.099888,-0.035251
0.032261,0.0024256,0.0061283,0.038685,-0.0070707,0.005438,0.0069917,-0.063991,0.0093431,0.003979,-0.017282,0.023249,0.0088085,0.020288,-0.020023,-0.010844,0.0073619,-0.0045229,-0.020365,0.023568,0.010779,0.083582,0.082421,-0.03908
0.03406,0.0017514,0.010342,0.038595,-0.0089592,0.0042149,0.013895,-0.082473,0.0072397,0.0079502,-0.011248,0.024562,0.012147,0.010311,-0.019418,-0.016229,0.0087809,-0.00081807,-0.019658,0.024084,0.010959,0.083502,0.066436,-0.043304
0.035471,0.00063545,0.014064,0.043806,-0.0055549,0.00074416,0.018428,-0.1012,0.0054741,0.0093142,-0.0048096,0.036007,0.013238,0.0028646,-0.021261,-0.018517,0.013457,0.0022968,-0.014188,0.023177,0.0079899,0.080738,0.053901,-0.049112
0.035186,-4.9981e-005,0.016118,0.052926,0.0023353,-0.0022404,0.0173,-0.11965,0.0052906,0.0079424,3.0371e-005,0.044445,0.013441,-0.0010799,-0.025335,-0.018545,0.018206,0.0035446,-0.0082882,0.019968,0.0024102,0.076081,0.042636,-0.057587
0.033495,-0.00014549,0.016273,0.060944,0.011731,-0.0029825,0.011027,-0.13779,0.0056605,0.004925,0.0017921,0.040131,0.013778,-0.0036316,-0.029086,-0.019035,0.019686,0.0031321,-0.0062547,0.015412,-0.0044504,0.069118,0.028045,-0.068595
0.031657,-0.00047842,0.014885,0.063424,0.018802,-0.0023811,0.0035711,-0.15477,0.0045637,0.0018604,0.00034534,0.0238,0.013411,-0.0073031,-0.029702,-0.022797,0.017118,0.0021919,-0.0089999,0.011667,-0.010868,0.058799,0.0068497,-0.080566
0.030372,-0.0020337,0.012587,0.059813,0.020769,-0.0030541,-0.00075389,-0.1689,0.001036,-0.00037739,-0.0030537,0.0053245,0.010518,-0.012476,-0.026309,-0.030994,0.012512,0.0016458,-0.013548,0.010278,-0.015289,0.045037,-0.020062,-0.091518
0.028788,-0.0046273,0.010197,0.053289,0.017307,-0.0068561,-0.00064122,-0.17915,-0.0038511,-0.0021687,-0.0065969,-0.0052265,0.0047448,-0.017332,-0.020443,-0.042713,0.0084195,0.0014676,-0.015627,0.010915,-0.016906,0.029771,-0.047867,-0.10046
0.02505,-0.0064301,0.0085049,0.047865,0.010571,-0.013195,0.0013214,-0.18697,-0.0078715,-0.0044839,-0.0090537,-0.0065475,-0.001426,-0.019968,-0.014627,-0.055945,0.0056156,0.00092432,-0.013127,0.011779,-0.015936,0.01644,-0.070957,-0.10791
0.018074,-0.0051439,0.0077847,0.045611,0.003792,-0.019559,0.00099655,-0.19628,-0.0095049,-0.0077387,-0.010354,-0.0072182,-0.0041906,-0.020358,-0.010514,-0.068981,0.0029198,-0.00049216,-0.0076706,0.011169,-0.013488,0.0081896,-0.086621,-0.11514
0.0089902,-0.0001143,0.0075257,0.046139,-0.00065054,-0.023631,-0.0036288,-0.2116,-0.0090944,-0.011342,-0.0112,-0.017957,-0.0017567,-0.020164,-0.0081832,-0.080983,-0.00097137,-0.0023559,-0.0032028,0.0086874,-0.011142,0.0061153,-0.096465,-0.1228
0.00085009,0.0064482,0.0068964,0.048014,-0.0023785,-0.025097,-0.010526,-0.23541,-0.0083484,-0.014357,-0.012109,-0.041878,0.0036428,-0.02079,-0.0068502,-0.091464,-0.0057675,-0.0035746,-0.0028617,0.0051035,-0.01044,0.0087868,-0.10458,-0.13025
-0.0033893,0.010489,0.0056764,0.050182,-0.002685,-0.02571,-0.015184,-0.2665,-0.0087518,-0.016494,-0.012757,-0.071332,0.0072972,-0.021787,-0.0060109,-0.099519,-0.0097559,-0.0034956,-0.0065706,0.0012955,-0.012271,0.013298,-0.11399,-0.13606
-0.0030314,0.0088931,0.0046214,0.052208,-0.0031853,-0.027694,-0.014487,-0.29989,-0.010369,-0.01829,-0.012237,-0.093915,0.0061045,-0.02131,-0.0058736,-0.10386,-0.011546,-0.0028261,-0.011068,-0.0025333,-0.016273,0.017047,-0.12417,-0.1392
-0.00020839,0.0019287,0.0046063,0.053733,-0.0046286,-0.031867,-0.0096482,-0.32805,-0.012056,-0.020163,-0.0099777,-0.10209,0.0015635,-0.018134,-0.0068691,-0.10378,-0.011514,-0.0033313,-0.012228,-0.0067133,-0.020681,0.01904,-0.13162,-0.13988
0.0015632,-0.0066866,0.0052475,0.054304,-0.0067216,-0.036963,-0.0055929,-0.34311,-0.012766,-0.021389,-0.0064429,-0.098059,-0.001269,-0.013154,-0.0089147,-0.10005,-0.011517,-0.0063113,-0.0079617,-0.011469,-0.023134,0.019967,-0.13284,-0.13934
-0.00039206,-0.012293,0.0045851,0.053786,-0.0087769,-0.040685,-0.0070653,-0.33948,-0.012661,-0.020302,-0.0028878,-0.090319,0.0017923,-0.0088593,-0.011182,-0.094843,-0.013259,-0.011094,0.00028812,-0.016625,-0.022256,0.021163,-0.12743,-0.13883
-0.0066043,-0.012492,0.00058579,0.052522,-0.010305,-0.04162,-0.014606,-0.31624,-0.012997,-0.015937,-0.00033458,-0.085807,0.010122,-0.0072556,-0.012521,-0.090389,-0.016837,-0.015029,0.008367,-0.021897,-0.018893,0.023309,-0.11894,-0.13873
-0.015763,-0.0085813,-0.0066908,0.050626,-0.010972,-0.040455,-0.023806,-0.27771,-0.014887,-0.0096831,0.0012758,-0.084993,0.018448,-0.0082366,-0.012128,-0.087694,-0.020658,-0.015302,0.011893,-0.027233,-0.015734,0.025822,-0.11291,-0.1384
-0.025901,-0.0042085,-0.014439,0.047143,-0.010218,-0.03941,-0.028586,-0.23145,-0.018137,-0.005152,0.0028623,-0.083672,0.021081,-0.0098941,-0.0099978,-0.086227,-0.022579,-0.011222,0.0087596,-0.032659,-0.015254,0.02731,-0.11374,-0.13692
-0.035255,-0.0024338,-0.018951,0.040464,-0.0072774,-0.040243,-0.025852,-0.18454,-0.021258,-0.005874,0.0049785,-0.078711,0.01649,-0.010345,-0.0069476,-0.084847,-0.021244,-0.0050041,0.00013019,-0.037822,-0.017544,0.026659,-0.12226,-0.13415
-0.042304,-0.0035858,-0.018526,0.030152,-0.0018062,-0.042453,-0.017735,-0.14072,-0.022751,-0.012549,0.0066924,-0.07172,0.0082604,-0.0092536,-0.0042261,-0.082979,-0.016785,-0.00022801,-0.01051,-0.04198,-0.019993,0.023875,-0.13524,-0.13108
-0.045556,-0.0054831,-0.014796,0.018481,0.005512,-0.043376,-0.0096683,-0.10027,-0.022525,-0.022272,0.0057975,-0.067238,0.0018373,-0.0076698,-0.0028457,-0.080967,-0.010701,0.00084952,-0.019485,-0.044727,-0.019328,0.020066,-0.14675,-0.12918
-0.043842,-0.005589,-0.011193,0.0095963,0.013158,-0.040332,-0.0060381,-0.062616,-0.022091,-0.030604,0.00050985,-0.06769,0.00019886,-0.0065896,-0.0029173,-0.079388,-0.0052209,-0.0011749,-0.02483,-0.046783,-0.014378,0.016709,-0.15042,-0.12882
-0.037227,-0.0031746,-0.0099523,0.0063638,0.01973,-0.033166,-0.0070807,-0.028762,-0.023125,-0.034862,-0.008616,-0.070359,0.0022372,-0.0058952,-0.0034554,-0.07817,-0.0024451,-0.0038256,-0.026858,-0.049828,-0.0071685,0.014833,-0.14206,-0.12808
-0.027709,0.00022157,-0.010459,0.0075709,0.024737,-0.024924,-0.0094057,-0.0013518,-0.025537,-0.035864,-0.018307,-0.069447,0.0047707,-0.0048241,-0.0030139,-0.076454,-0.0035293,-0.0053522,-0.027225,-0.05522,-0.0013895,0.014649,-0.12163,-0.12297
-0.018733,0.0021696,-0.010369,0.0084646,0.02842,-0.019818,-0.0093657,0.017727,-0.026907,-0.036693,-0.024424,-0.061213,0.0057555,-0.0033649,-0.00093476,-0.073368,-0.0081582,-0.0065471,-0.027324,-0.06263,0.00039811,0.015667,-0.093813,-0.10977
-0.01337,0.0012193,-0.0082469,0.0047417,0.030835,-0.019981,-0.0062008,0.029487,-0.024205,-0.039696,-0.024882,-0.047282,0.0055893,-0.0028693,0.001689,-0.068899,-0.014597,-0.009997,-0.027283,-0.069938,-0.0015742,0.01694,-0.066373,-0.088057
-0.012246,-0.0022344,-0.0050812,-0.0033104,0.031279,-0.023689,-0.0023823,0.03724,-0.016747,-0.044409,-0.021353,-0.033054,0.0057178,-0.0049416,0.0023055,-0.0639,-0.020407,-0.017333,-0.026306,-0.07463,-0.0049662,0.01727,-0.046375,-0.062295
-0.012892,-0.0065003,-0.0032373,-0.010354,0.028835,-0.026654,-0.0012056,0.043497,-0.0078348,-0.048132,-0.018186,-0.022908,0.0064799,-0.0095799,-0.0014259,-0.059121,-0.023578,-0.026989,-0.023996,-0.075586,-0.0073935,0.015516,-0.036379,-0.040291
-0.011432,-0.0097704,-0.0040215,-0.0098899,0.023557,-0.025418,-0.0039875,0.047346,-0.0031686,-0.048448,-0.01914,-0.016834,0.0065594,-0.014573,-0.0096659,-0.054122,-0.023529,-0.034689,-0.021377,-0.07382,-0.0078752,0.011164,-0.033163,-0.028933
-0.0057176,-0.010906,-0.0063287,0.000784,0.017041,-0.020093,-0.0092561,0.045297,-0.0066979,-0.045367,-0.024421,-0.011486,0.004434,-0.017069,-0.019697,-0.047165,-0.021391,-0.036508,-0.02049,-0.071715,-0.0066299,0.0049214,-0.030307,-0.029921
0.0025166,-0.0095157,-0.0077108,0.018761,0.011603,-0.014205,-0.014302,0.035615,-0.01708,-0.041287,-0.030463,-0.0042727,0.0001041,-0.016027,-0.027273,-0.036281,-0.019302,-0.031994,-0.022725,-0.071541,-0.0039745,-0.0013096,-0.023042,-0.038581
0.0085473,-0.0057971,-0.0067775,0.038088,0.0086574,-0.011843,-0.017411,0.02273,-0.027922,-0.039042,-0.032772,0.0038439,-0.0047211,-0.013187,-0.02926,-0.020646,-0.018973,-0.024674,-0.027334,-0.074357,0.00017911,-0.0053887,-0.011755,-0.046861
0.0083607,-0.0006293,-0.0045389,0.054001,0.0076685,-0.01448,-0.01883,0.017635,-0.032106,-0.039833,-0.029628,0.0096063,-0.0080474,-0.011504,-0.02572,-0.0010225,-0.020428,-0.01946,-0.031652,-0.079762,0.0056832,-0.0063494,-0.0013709,-0.048517
0.0022751,0.0042237,-0.0033608,0.064995,0.0065938,-0.019997,-0.019983,0.032925,-0.026969,-0.042685,-0.023605,0.011326,-0.0090907,-0.012467,-0.019939,0.021079,-0.021874,-0.019119,-0.033115,-0.086217,0.011293,-0.0051345,0.0029293,-0.042804
-0.0048235,0.0064315,-0.0045434,0.071483,0.0034049,-0.024526,-0.022081,0.075261,-0.016168,-0.045509,-0.019635,0.011197,-0.0084569,-0.014852,-0.016323,0.044684,-0.020996,-0.022629,-0.031494,-0.091591,0.014876,-0.0038955,0.00014523,-0.034103
-0.0073238,0.0042354,-0.0069087,0.073241,-0.0025636,-0.02545,-0.025451,0.14032,-0.0067072,-0.046575,-0.02118,0.013491,-0.0071465,-0.016092,-0.017623,0.069735,-0.016832,-0.026543,-0.029336,-0.093892,0.014884,-0.0043065,-0.0056193,-0.028019
-0.0038077,-0.0022144,-0.0078528,0.06879,-0.010395,-0.023114,-0.029816,0.21388,-0.0036689,-0.045202,-0.027637,0.020325,-0.0056613,-0.014901,-0.023337,0.096065,-0.010748,-0.027931,-0.030051,-0.092224,0.011869,-0.0063288,-0.0084631,-0.02715
0.001336,-0.010493,-0.0059651,0.05743,-0.01842,-0.020075,-0.034735,0.27851,-0.0069969,-0.041547,-0.035017,0.029237,-0.004104,-0.012607,-0.03025,0.12185,-0.0056248,-0.026385,-0.035126,-0.08755,0.0085488,-0.0085724,-0.0054007,-0.029717
0.0014187,-0.017151,-0.0027452,0.041658,-0.025257,-0.018729,-0.039515,0.32157,-0.012664,-0.036165,-0.039167,0.035188,-0.0028667,-0.011973,-0.034598,0.14316,-0.0038347,-0.023721,-0.042734,-0.082541,0.008089,-0.0099428,0.0014397,-0.031739
-0.0066235,-0.019914,-0.001677,0.027082,-0.030305,-0.019345,-0.042949,0.33946,-0.01664,-0.029927,-0.038789,0.035209,-0.0028224,-0.014681,-0.034387,0.15551,-0.0055846,-0.0221,-0.048936,-0.08022,0.011804,-0.010977,0.0068445,-0.030523
-0.019011,-0.019216,-0.0053265,0.019347,-0.033639,-0.020001,-0.043657,0.33583,-0.0179,-0.024097,-0.035902,0.031341,-0.0045784,-0.019834,-0.030418,0.15657,-0.0088968,-0.022391,-0.050518,-0.082084,0.018044,-0.013496,0.0069166,-0.026399
-0.027639,-0.017802,-0.012996,0.020509,-0.035714,-0.018335,-0.041189,0.31604,-0.018116,-0.020023,-0.033679,0.029016,-0.0075297,-0.024724,-0.025525,0.148,-0.011071,-0.02399,-0.047245,-0.087032,0.023201,-0.018834,0.0021478,-0.021478
-0.026426,-0.018622,-0.02104,0.027832,-0.0372,-0.01362,-0.036867,0.2826,-0.019036,-0.018371,-0.033695,0.032303,-0.0098249,-0.027022,-0.022612,0.13491,-0.01036,-0.025758,-0.041815,-0.091997,0.024153,-0.026356,-0.0032434,-0.017029
-0.016205,-0.02261,-0.025604,0.035871,-0.038821,-0.007531,-0.033227,0.23527,-0.02055,-0.018535,-0.034845,0.040299,-0.0095227,-0.026427,-0.022779,0.12292,-0.0066866,-0.026924,-0.037693,-0.093905,0.020417,-0.033757,-0.0049162,-0.012203
-0.0040423,-0.028049,-0.025433,0.039963,-0.040952,-0.0030208,-0.032188,0.17513,-0.021285,-0.018927,-0.034594,0.047814,-0.0060392,-0.024581,-0.02474,0.11503,-0.0012558,-0.027228,-0.036548,-0.091582,0.014441,-0.038865,-0.0018447,-0.0053259
0.0023899,-0.031977,-0.022455,0.038468,-0.043089,-0.0021752,-0.033491,0.10865,-0.020726,-0.018103,-0.031293,0.049649,-0.00065623,-0.023615,-0.025914,0.11047,0.0042909,-0.026604,-0.03725,-0.08627,0.0098833,-0.041214,0.0031384,0.0036819
0.00064055,-0.032471,-0.019919,0.032659,-0.043763,-0.0046305,-0.034974,0.047221,-0.020254,-0.01581,-0.025633,0.044731,0.0043538,-0.024673,-0.024421,0.1062,0.0085652,-0.025103,-0.037053,-0.080493,0.0091232,-0.041918,0.0058791,0.012377
-0.0051634,-0.030062,-0.019934,0.025179,-0.041364,-0.0077497,-0.034573,0.0017628,-0.021768,-0.013089,-0.020169,0.036788,0.007291,-0.027399,-0.020515,0.099706,0.010858,-0.023205,-0.033931,-0.076248,0.011811,-0.042228,0.0042554,0.017445
-0.0081885,-0.027216,-0.022464,0.018634,-0.035574,-0.0084687,-0.032247,-0.023835,-0.025237,-0.011372,-0.017389,0.031305,0.0080987,-0.030394,-0.016306,0.090573,0.011384,-0.021909,-0.028243,-0.073904,0.015366,-0.042422,-0.00032255,0.017322
-0.0044735,-0.02638,-0.026165,0.014941,-0.028298,-0.0055029,-0.029982,-0.035033,-0.027891,-0.011419,-0.017847,0.031524,0.0082157,-0.032103,-0.013915,0.079785,0.011206,-0.022063,-0.022479,-0.072494,0.016898,-0.04213,-0.0042138,0.013108
0.0043303,-0.028115,-0.029766,0.014935,-0.023062,-0.00031384,-0.029867,-0.042584,-0.026254,-0.012903,-0.019701,0.036629,0.009406,-0.031589,-0.013601,0.067567,0.011595,-0.023359,-0.019345,-0.070944,0.015101,-0.041414,-0.0043534,0.0067877
0.012838,-0.030705,-0.032546,0.01786,-0.022909,0.0038545,-0.032071,-0.05502,-0.019375,-0.014781,-0.019955,0.043126,0.012439,-0.029027,-0.013524,0.052107,0.013054,-0.024129,-0.019685,-0.069074,0.010895,-0.04103,-0.00030508,-0.0014105
0.016355,-0.031507,-0.033847,0.021229,-0.028167,0.0041097,-0.034677,-0.073394,-0.010222,-0.015911,-0.016468,0.047796,0.016526,-0.025777,-0.011479,0.030725,0.01478,-0.022612,-0.021836,-0.067512,0.0066775,-0.041357,0.0058157,-0.013729
0.014087,-0.028955,-0.03272,0.021885,-0.035907,-0.00041674,-0.035486,-0.092086,-0.0037,-0.01549,-0.009306,0.049603,0.019857,-0.023872,-0.0070814,0.0027367,0.015203,-0.018826,-0.022856,-0.066684,0.0049322,-0.041306,0.011151,-0.032742
0.008978,-0.023744,-0.028558,0.018087,-0.041792,-0.0085275,-0.034019,-0.10445,-0.0028351,-0.013318,-0.00051603,0.049231,0.020853,-0.024928,-0.0023512,-0.028534,0.013314,-0.015209,-0.020674,-0.065945,0.0070929,-0.038838,0.014054,-0.058306
0.0049674,-0.018329,-0.022224,0.01108,-0.043161,-0.018313,-0.031807,-0.10833,-0.0064105,-0.010076,0.0074388,0.047129,0.019198,-0.028997,6.5067e-006,-0.056752,0.0096425,-0.014969,-0.015526,-0.063833,0.013098,-0.032978,0.014781,-0.086369
0.0042671,-0.015195,-0.0163,0.004567,-0.041001,-0.028542,-0.030789,-0.10706,-0.01011,-0.0073753,0.01334,0.042217,0.015929,-0.034265,-0.00088129,-0.076266,0.0059677,-0.019208,-0.0097188,-0.059396,0.021558,-0.025238,0.014719,-0.11053
0.0065478,-0.01516,-0.013754,0.0021091,-0.039042,-0.038916,-0.031513,-0.1058,-0.010149,-0.0070957,0.017706,0.032642,0.012555,-0.038055,-0.0030875,-0.085755,0.0040007,-0.02537,-0.0060173,-0.053411,0.030333,-0.018595,0.014994,-0.12473
0.0099666,-0.016963,-0.015827,0.0044638,-0.040468,-0.049253,-0.032928,-0.10689,-0.0062746,-0.010052,0.021859,0.018009,0.010001,-0.038588,-0.0034547,-0.088932,0.0042343,-0.028728,-0.0059077,-0.048166,0.037321,-0.014666,0.015576,-0.12489
0.012633,-0.018324,-0.020887,0.0090988,-0.044826,-0.058746,-0.033905,-0.10859,-0.0016744,-0.014968,0.026512,0.00097482,0.0082674,-0.036171,-0.00032849,-0.091757,0.0059271,-0.026026,-0.008855,-0.045702,0.04127,-0.011962,0.015344,-0.10926
0.013364,-0.01765,-0.025287,0.01233,-0.047872,-0.066233,-0.034808,-0.10757,-5.4807e-005,-0.018955,0.031179,-0.013533,0.0069733,-0.032792,0.0050181,-0.098512,0.0080541,-0.018306,-0.012811,-0.045943,0.042225,-0.0073495,0.012858,-0.078796
0.011692,-0.015141,-0.025698,0.012221,-0.044864,-0.071226,-0.037391,-0.10267,-0.0024597,-0.019579,0.034822,-0.021235,0.0060628,-0.030418,0.0095118,-0.10986,0.010186,-0.010427,-0.015428,-0.046526,0.041316,0.00041801,0.0072471,-0.038209
0.0077571,-0.012554,-0.021238,0.0097956,-0.034808,-0.074509,-0.042942,-0.096094,-0.0063884,-0.016943,0.036934,-0.021384,0.0058158,-0.02945,0.010851,-0.12406,0.012507,-0.0074979,-0.015237,-0.044747,0.039965,0.0087331,-0.0011984,0.0034612
0.0024366,-0.011904,-0.013958,0.0076972,-0.022085,-0.077491,-0.050432,-0.091159,-0.0077212,-0.013864,0.037886,-0.017265,0.0061335,-0.028634,0.0091914,-0.13971,0.01517,-0.011062,-0.012281,-0.040025,0.039067,0.013151,-0.010904,0.03516
-0.0026326,-0.014044,-0.0074661,0.0077343,-0.01376,-0.080795,-0.056545,-0.089058,-0.0037448,-0.013731,0.038265,-0.013778,0.0059754,-0.026436,0.0065926,-0.15736,0.017791,-0.018056,-0.0080183,-0.034533,0.03873,0.01183,-0.019389,0.048914
-0.0055672,-0.018105,-0.0046482,0.0094915,-0.014465,-0.08346,-0.057798,-0.087634,0.0050384,-0.017827,0.038125,-0.013975,0.003799,-0.022572,0.0049871,-0.17867,0.019622,-0.023297,-0.0045314,-0.031196,0.038662,0.0080224,-0.024134,0.044489
-0.0052057,-0.022109,-0.0059078,0.010967,-0.022898,-0.083666,-0.053076,-0.083284,0.015437,-0.024579,0.037212,-0.017279,-0.0011795,-0.018303,0.0046097,-0.20428,0.020126,-0.023404,-0.0033305,-0.030764,0.038729,0.007751,-0.023678,0.02947
-0.0018597,-0.024276,-0.008926,0.010281,-0.032745,-0.080427,-0.044546,-0.074108,0.023746,-0.031421,0.036031,-0.020747,-0.0080649,-0.015279,0.0041362,-0.2325,0.019284,-0.01907,-0.0044191,-0.0308,0.039048,0.014448,-0.018425,0.013883
0.0027652,-0.024099,-0.010106,0.0068099,-0.037269,-0.074692,-0.036257,-0.061452,0.027874,-0.03746,0.036391,-0.022173,-0.014695,-0.014043,0.0020928,-0.25963,0.01736,-0.014064,-0.0063014,-0.027776,0.039568,0.025538,-0.010551,0.0031506
0.0064584,-0.022461,-0.0069282,0.001056,-0.033869,-0.068715,-0.031601,-0.04866,0.028063,-0.044231,0.040331,-0.022379,-0.019133,-0.013568,-0.0018696,-0.28108,0.014504,-0.011978,-0.007067,-0.020512,0.039674,0.034401,-0.0029236,-0.0050464
0.0076083,-0.020727,0.00020932,-0.0059976,-0.025211,-0.064164,-0.031492,-0.038328,0.025993,-0.053722,0.048052,-0.024858,-0.02093,-0.012245,-0.0067704,-0.29216,0.010774,-0.013431,-0.0058096,-0.011692,0.038402,0.036094,0.0023826,-0.017508
0.0058989,-0.019545,0.0079781,-0.01299,-0.016509,-0.060663,-0.034335,-0.030552,0.023185,-0.06565,0.056865,-0.033282,-0.021046,-0.0094673,-0.010942,-0.28845,0.0066455,-0.015888,-0.0032509,-0.0058211,0.035232,0.031601,0.0050016,-0.038667
0.0023634,-0.018343,0.012227,-0.017627,-0.011582,-0.056151,-0.037446,-0.023511,0.019956,-0.076856,0.062642,-0.049113,-0.020676,-0.0064187,-0.012736,-0.26687,0.003421,-0.016101,-0.0010417,-0.0053183,0.030678,0.026704,0.0060905,-0.065848
-0.001118,-0.015988,0.010941,-0.016458,-0.010803,-0.048824,-0.038757,-0.015597,0.015647,-0.083715,0.062993,-0.071148,-0.020279,-0.0053518,-0.010934,-0.22782,0.0028025,-0.013024,-0.000342,-0.0083141,0.025971,0.026625,0.0073155,-0.09031
-0.0027105,-0.012111,0.0058884,-0.005951,-0.011966,-0.038906,-0.037788,-0.0070483,0.0098637,-0.085376,0.059526,-0.096788,-0.019818,-0.0078962,-0.0051292,-0.177,0.0056237,-0.0088038,-0.00091339,-0.010205,0.022006,0.031495,0.0098478,-0.10285
-0.0016688,-0.0079085,0.0015411,0.015384,-0.012624,-0.028627,-0.035525,0.00025526,0.0036616,-0.084681,0.057087,-0.12324,-0.019818,-0.013767,0.0036781,-0.12464,0.010696,-0.0070212,-0.0014662,-0.0075752,0.018579,0.03673,0.014006,-0.099325
0.00098286,-0.0055278,0.0018475,0.045238,-0.011741,-0.020419,-0.033483,0.0044608,-0.00037261,-0.085745,0.060385,-0.14715,-0.021801,-0.020952,0.012712,-0.081457,0.014989,-0.0096635,-0.00086903,-0.00095129,0.014787,0.037631,0.019507,-0.082202
0.0028053,-0.0063709,0.0072913,0.077607,-0.00975,-0.015023,-0.032504,0.0052773,0.00060945,-0.090411,0.070669,-0.16313,-0.027199,-0.027256,0.01813,-0.053758,0.015466,-0.015301,0.00088682,0.0059714,0.010277,0.03368,0.02583,-0.057952
0.0015154,-0.0097008,0.014568,0.10505,-0.0077459,-0.011273,-0.031989,0.0041343,0.0079394,-0.096874,0.084995,-0.16336,-0.035507,-0.031933,0.016986,-0.041183,0.01136,-0.019973,0.0027532,0.0097116,0.0060316,0.028539,0.032362,-0.033101
-0.0031023,-0.0129,0.019171,0.12192,-0.0068783,-0.0077136,-0.030122,0.0030692,0.020459,-0.10166,0.098395,-0.13996,-0.043586,-0.036042,0.0093118,-0.038858,0.0050137,-0.020097,0.0035507,0.0098764,0.0037389,0.026109,0.038489,-0.011812
-0.0084999,-0.01339,0.018809,0.1267,-0.008168,-0.0044086,-0.025071,0.0034786,0.035093,-0.10287,0.10696,-0.089633,-0.047298,-0.0412,-0.001477,-0.041895,0.00026473,-0.015127,0.0028975,0.0091785,0.0042169,0.02666,0.043935,0.0044054
-0.010799,-0.010691,0.014922,0.12225,-0.012188,-0.0031294,-0.016457,0.0057285,0.048533,-0.10149,0.10949,-0.017649,-0.044528,-0.047788,-0.010697,-0.048196,-0.00053627,-0.0079293,0.0014023,0.010977,0.0065164,0.026762,0.049237,0.016115
-0.0075306,-0.0068361,0.011209,0.11375,-0.018361,-0.0056622,-0.005986,0.0096497,0.05874,-0.099695,0.10703,0.062024,-0.037111,-0.054152,-0.015784,-0.057099,0.001542,-0.0026458,6.302e-005,0.016707,0.0087414,0.022982,0.055753,0.025624
0.00046794,-0.0047016,0.010543,0.10576,-0.024548,-0.011852,0.0033191,0.015185,0.065288,-0.098095,0.10138,0.13158,-0.029831,-0.057569,-0.018323,-0.065347,0.0028977,-0.0017449,-0.0005859,0.025181,0.0098637,0.01571,0.064745,0.036648
0.0096254,-0.0056322,0.012844,0.1001,-0.027831,-0.019299,0.0088068,0.022528,0.068588,-0.094924,0.094007,0.1769,-0.027111,-0.056249,-0.022808,-0.064518,0.00050594,-0.0044711,-0.00091105,0.033823,0.010647,0.0094519,0.075963,0.053218
0.016278,-0.0084203,0.015457,0.095697,-0.026398,-0.025111,0.0095967,0.031757,0.068973,-0.088037,0.086018,0.19349,-0.030009,-0.050795,-0.032811,-0.043111,-0.0053467,-0.0077546,-0.0018869,0.040455,0.012572,0.0091772,0.086962,0.078029
0.019174,-0.010465,0.015472,0.09042,-0.021125,-0.028163,0.0068083,0.042437,0.066505,-0.077688,0.078365,0.18744,-0.035908,-0.043948,-0.047511,0.0073616,-0.011075,-0.0087355,-0.004273,0.044327,0.015716,0.015933,0.094154,0.11149
0.019807,-0.010005,0.012019,0.083255,-0.015292,-0.02984,0.0027039,0.053609,0.061417,-0.067218,0.07164,0.17085,-0.040939,-0.038804,-0.061486,0.086287,-0.012578,-0.0068988,-0.0078427,0.046125,0.017729,0.025543,0.095224,0.15239
0.020534,-0.0074275,0.0068503,0.075184,-0.012366,-0.032578,-0.00047133,0.064166,0.054413,-0.060844,0.065578,0.15472,-0.042926,-0.036875,-0.068157,0.1822,-0.0083986,-0.0042265,-0.01126,0.047357,0.015187,0.031549,0.091238,0.19927
0.022345,-0.0046373,0.0030218,0.068087,-0.013497,-0.037491,-0.0012981,0.073345,0.046259,-0.060509,0.059046,0.14317,-0.042474,-0.037402,-0.064264,0.27668,-0.0006468,-0.0033683,-0.012808,0.04947,0.0062916,0.029973,0.086749,0.25077
0.024285,-0.0032832,0.0028072,0.062799,-0.016783,-0.043186,0.00045473,0.081145,0.037066,-0.064581,0.050879,0.13213,-0.041643,-0.038347,-0.051958,0.35161,0.0069097,-0.005365,-0.01156,0.052931,-0.0074412,0.022081,0.087667,0.30409
0.024828,-0.0035558,0.006294,0.058259,-0.018913,-0.046791,0.0037711,0.088561,0.026184,-0.069337,0.040965,0.11257,-0.041768,-0.0382,-0.037054,0.3953,0.011683,-0.0087546,-0.008185,0.056709,-0.022003,0.013127,0.09835,0.35333
0.023669,-0.0045034,0.01146,0.052691,-0.017778,-0.046306,0.0067148,0.097516,0.013139,-0.071675,0.030506,0.076201,-0.042375,-0.037205,-0.025106,0.40473,0.013577,-0.010757,-0.0047493,0.05878,-0.033497,0.0083463,0.11975,0.39021
0.02212,-0.0052345,0.015535,0.045733,-0.013925,-0.042247,0.0073383,0.11022,-0.0011369,-0.070688,0.021144,0.020606,-0.041827,-0.03709,-0.018455,0.38358,0.013983,-0.0095747,-0.0035313,0.057728,-0.040302,0.0093919,0.1493,0.40788
0.021778,-0.005634,0.016704,0.039413,-0.0098283,-0.037218,0.0049151,0.12785,-0.014095,-0.067146,0.013786,-0.048388,-0.038737,-0.039548,-0.016186,0.33865,0.013838,-0.0059687,-0.005582,0.054351,-0.043203,0.013697,0.18181,0.40515
0.02283,-0.0059651,0.015065,0.036776,-0.0078306,-0.033878,0.00061513,0.14915,-0.022973,-0.061861,0.0083888,-0.11819,-0.032783,-0.044657,-0.016297,0.27748,0.012791,-0.0028167,-0.0099712,0.051683,-0.04386,0.0167,0.21055,0.38739
0.023751,-0.0060535,0.012238,0.039273,-0.0085692,-0.033132,-0.0031695,0.16988,-0.026913,-0.054654,0.0049295,-0.17413,-0.024503,-0.05048,-0.01772,0.20818,0.010095,-0.0029349,-0.01423,0.052865,-0.043355,0.014901,0.22837,0.36291
0.022764,-0.0051946,0.0099777,0.045314,-0.010997,-0.034082,-0.0045993,0.18413,-0.028054,-0.044642,0.0044491,-0.20553,-0.01475,-0.054189,-0.020555,0.13978,0.0060679,-0.0068016,-0.015753,0.058308,-0.042086,0.0076402,0.22949,0.33753
0.019671,-0.0030235,0.008865,0.051425,-0.013621,-0.035622,-0.0038987,0.18719,-0.030434,-0.031278,0.0087287,-0.21028,-0.0045529,-0.053892,-0.024846,0.081223,0.0024086,-0.011966,-0.013359,0.064673,-0.04069,-0.0030318,0.21197,0.31207
0.016281,-0.00035684,0.0081191,0.054984,-0.015646,-0.037987,-0.0032576,0.17818,-0.037275,-0.015071,0.018474,-0.19556,0.0046682,-0.049806,-0.029558,0.038298,0.00094821,-0.014719,-0.0080858,0.067011,-0.040571,-0.013648,0.17931,0.28424
0.014952,0.0011457,0.0066206,0.055933,-0.017071,-0.042664,-0.0050986,0.1608,-0.048567,0.0025247,0.031583,-0.17387,0.011242,-0.04396,-0.032861,0.010708,0.0019948,-0.012871,-0.0026937,0.062642,-0.043101,-0.020765,0.13953,0.2525
0.016574,0.00046455,0.0041607,0.055779,-0.017975,-0.050657,-0.010131,0.14125,-0.060779,0.019804,0.043388,-0.15668,0.014117,-0.038766,-0.03339,-0.0077552,0.0038739,-0.0075565,-1.3631e-005,0.053582,-0.048054,-0.022128,0.10156,0.21751
0.019848,-0.0015368,0.0017264,0.054808,-0.017961,-0.060752,-0.016802,0.12478,-0.068971,0.035557,0.049164,-0.14949,0.013879,-0.035607,-0.0312,-0.025043,0.0041586,-0.0025591,-0.0010127,0.045233,-0.052835,-0.017499,0.071107,0.18021
0.022407,-0.0025395,0.00054849,0.050201,-0.016447,-0.069618,-0.022516,0.11317,-0.069827,0.0495,0.047015,-0.1513,0.01282,-0.034391,-0.027631,-0.045322,0.0015858,-0.0015168,-0.0038314,0.042214,-0.053535,-0.0089127,0.048893,0.13986
0.022615,-0.00082542,0.00083813,0.037026,-0.013415,-0.073895,-0.025484,0.10475,-0.063504,0.062276,0.03867,-0.15851,0.013637,-0.034103,-0.024347,-0.066383,-0.0029004,-0.0050909,-0.0046716,0.04479,-0.047366,0.00013874,0.032417,0.095874
0.020373,0.0027639,0.0014466,0.011472,-0.0096733,-0.072586,-0.025762,0.096463,-0.053213,0.07509,0.027446,-0.16971,0.017565,-0.033691,-0.022437,-0.082199,-0.0067856,-0.010332,-0.00024907,0.048938,-0.034734,0.0066001,0.019417,0.052958
0.016457,0.0049127,0.0007811,-0.026309,-0.0061237,-0.067669,-0.024932,0.086197,-0.043139,0.089163,0.015155,-0.18748,0.02341,-0.032582,-0.022096,-0.088554,-0.0078093,-0.012812,0.0097596,0.049929,-0.019362,0.0097596,0.0099585,0.023735
0.011443,0.0022881,-0.0019009,-0.072035,-0.0026996,-0.06239,-0.025072,0.0737,-0.036403,0.10531,0.0006953,-0.21596,0.02828,-0.030687,-0.022806,-0.086915,-0.0056638,-0.009876,0.022168,0.046243,-0.0062211,0.011648,0.005579,0.024018
0.0055204,-0.0054476,-0.0060122,-0.11979,0.001756,-0.058752,-0.027915,0.059889,-0.034307,0.12389,-0.018423,-0.25596,0.029509,-0.028209,-0.02369,-0.083262,-0.0023907,-0.0024921,0.032298,0.040391,0.0013914,0.015334,0.0068441,0.062139
-0.00072519,-0.014629,-0.010303,-0.16515,0.0081732,-0.0563,-0.034487,0.04553,-0.036765,0.14508,-0.043,-0.30168,0.0264,-0.025505,-0.023896,-0.08312,-0.001171,0.005614,0.037215,0.036134,0.0036723,0.022288,0.012026,0.13038
-0.0057538,-0.019694,-0.013899,-0.20654,0.015549,-0.053048,-0.044904,0.030479,-0.042898,0.16906,-0.070181,-0.34145,0.020663,-0.022983,-0.023035,-0.087349,-0.0042463,0.010623,0.037674,0.034908,0.0038059,0.030984,0.01825,0.20616
-0.0077949,-0.016993,-0.016684,-0.24416,0.0207,-0.047438,-0.058129,0.013944,-0.051076,0.19574,-0.09425,-0.36197,0.015417,-0.020851,-0.021512,-0.092379,-0.011324,0.010876,0.03718,0.034862,0.0054856,0.037985,0.023792,0.26283
-0.0064159,-0.0074125,-0.018836,-0.2774,0.020304,-0.039507,-0.071946,-0.0046231,-0.05879,0.224,-0.10961,-0.35316,0.013487,-0.018793,-0.020384,-0.094302,-0.019604,0.0071905,0.038958,0.033255,0.010162,0.040647,0.029007,0.28221
-0.0032993,0.0042161,-0.020186,-0.30267,0.013922,-0.030453,-0.083536,-0.024665,-0.063242,0.25118,-0.11387,-0.31088,0.01595,-0.015931,-0.020558,-0.092696,-0.025516,0.0015403,0.043368,0.029628,0.015919,0.039135,0.034863,0.25987
-0.0011045,0.01243,-0.020168,-0.31339,0.0053478,-0.02139,-0.090569,-0.044284,-0.062799,0.27311,-0.10923,-0.23646,0.021619,-0.011339,-0.021788,-0.090596,-0.02702,-0.0043648,0.047926,0.026391,0.018764,0.036057,0.040603,0.20143
-0.0011832,0.014597,-0.018341,-0.3022,0.00067639,-0.012659,-0.092105,-0.060898,-0.058236,0.28505,-0.10161,-0.13481,0.027723,-0.0048738,-0.022371,-0.090927,-0.024811,-0.0094692,0.049738,0.026132,0.015412,0.034117,0.043085,0.11585
-0.0022859,0.011993,-0.014852,-0.26497,0.0041744,-0.0042255,-0.088697,-0.072609,-0.052435,0.28319,-0.098148,-0.013285,0.031469,0.0023671,-0.020128,-0.093171,-0.021559,-0.012948,0.048053,0.028346,0.0056043,0.033903,0.038729,0.012329
-0.0017038,0.0080008,-0.010344,-0.20415,0.015173,0.0035549,-0.081739,-0.079588,-0.048532,0.26616,-0.10427,0.11738,0.031666,0.0085461,-0.014169,-0.093717,-0.019811,-0.014019,0.044678,0.029111,-0.00766,0.033643,0.026457,-0.097994
0.0019938,0.0051802,-0.0055444,-0.12967,0.028602,0.0098135,-0.07269,-0.084426,-0.048056,0.23588,-0.12139,0.24163,0.029355,0.012359,-0.0060101,-0.089564,-0.020235,-0.01252,0.041993,0.024413,-0.020035,0.031019,0.0089911,-0.20081
0.0071694,0.0036096,-0.0010623,-0.055975,0.038862,0.013893,-0.062761,-0.090932,-0.050719,0.19731,-0.14632,0.34012,0.026923,0.014103,0.0011256,-0.081696,-0.021495,-0.0096237,0.040468,0.014191,-0.028432,0.025344,-0.0085949,-0.28225
0.010154,0.0015882,0.0024521,0.00328,0.043902,0.016139,-0.053075,-0.10196,-0.055837,0.15683,-0.17299,0.39536,0.026233,0.015531,0.0045827,-0.07466,-0.021682,-0.0076002,0.037942,0.0031422,-0.032488,0.018283,-0.021782,-0.33554
0.0084189,-0.0022215,0.0042177,0.040272,0.046227,0.017877,-0.04482,-0.11778,-0.063536,0.11988,-0.19548,0.40039,0.027206,0.018431,0.0043825,-0.07258,-0.019999,-0.0083775,0.031298,-0.0027726,-0.034025,0.012634,-0.028616,-0.36405
0.0030836,-0.0071687,0.0036997,0.054776,0.050164,0.020528,-0.039007,-0.1363,-0.074074,0.089049,-0.21073,0.36494,0.028027,0.023015,0.0032957,-0.075357,-0.017381,-0.011987,0.019104,-0.0012181,-0.035161,0.010254,-0.029602,-0.37654
-0.0016206,-0.010841,0.001186,0.052077,0.057846,0.024579,-0.035911,-0.15501,-0.085794,0.06406,-0.21895,0.31357,0.026857,0.027544,0.0046043,-0.078743,-0.015724,-0.016359,0.0030553,0.0045485,-0.036553,0.010774,-0.026203,-0.37807
-0.0016657,-0.010877,-0.0021617,0.038891,0.067246,0.029232,-0.034704,-0.17296,-0.094164,0.043893,-0.22149,0.27462,0.023602,0.029636,0.0093158,-0.078291,-0.016466,-0.01884,-0.012869,0.0083609,-0.037042,0.011986,-0.019593,-0.36526
0.0034367,-0.006865,-0.0050774,0.020209,0.073705,0.032824,-0.033808,-0.1913,-0.093766,0.029545,-0.21795,0.26567,0.020155,0.028239,0.015211,-0.07345,-0.019603,-0.01823,-0.02475,0.0060823,-0.034847,0.011484,-0.010554,-0.33077
0.010094,-0.00080763,-0.0071539,-0.0013355,0.07343,0.033575,-0.03196,-0.21178,-0.082184,0.024955,-0.20524,0.28456,0.01886,0.024544,0.018616,-0.067845,-0.02369,-0.015592,-0.030767,-0.0014599,-0.029385,0.0082752,-0.00011315,-0.27333
0.013309,0.0041894,-0.0090229,-0.024152,0.066098,0.030222,-0.029297,-0.23466,-0.06243,0.034738,-0.17965,0.312,0.020508,0.021001,0.017438,-0.065467,-0.026648,-0.013184,-0.031604,-0.0098077,-0.022344,0.003239,0.010135,-0.20369
0.010331,0.0060402,-0.011524,-0.046263,0.054712,0.022472,-0.027528,-0.25761,-0.041392,0.060054,-0.14077,0.32364,0.023628,0.019276,0.012886,-0.06647,-0.026813,-0.012529,-0.029376,-0.014897,-0.017118,-0.001763,0.018495,-0.14027
0.0023893,0.005037,-0.014726,-0.064996,0.04321,0.011385,-0.028772,-0.27637,-0.025242,0.095924,-0.093958,0.30356,0.025711,0.018983,0.0084914,-0.066759,-0.023739,-0.013379,-0.026309,-0.016076,-0.016818,-0.0053366,0.024013,-0.097761
-0.0066189,0.0034624,-0.01785,-0.077674,0.033846,-0.00056442,-0.033775,-0.28681,-0.015585,0.1326,-0.049044,0.251,0.025299,0.018354,0.0073626,-0.061927,-0.018466,-0.014334,-0.024255,-0.015766,-0.022106,-0.0074309,0.02684,-0.078291
-0.013125,0.003784,-0.020159,-0.082376,0.026258,-0.010236,-0.041005,-0.28706,-0.0095079,0.16046,-0.015895,0.17809,0.023116,0.016206,0.01001,-0.051796,-0.013121,-0.014328,-0.025042,-0.016627,-0.03044,-0.0090638,0.027707,-0.072459
-0.016131,0.0068297,-0.021756,-0.078315,0.018584,-0.015443,-0.047635,-0.27846,-0.003133,0.17476,0.00019548,0.10251,0.021325,0.013344,0.014372,-0.041148,-0.0098841,-0.013464,-0.030669,-0.019152,-0.037445,-0.011296,0.026923,-0.068534
-0.01721,0.011342,-0.023287,-0.066097,0.009545,-0.016537,-0.051834,-0.26502,0.0047556,0.17686,-1.9563e-005,0.040776,0.021685,0.012012,0.017671,-0.035725,-0.0097038,-0.01251,-0.042533,-0.021739,-0.03961,-0.014425,0.023873,-0.061363
-0.018696,0.0152,-0.02484,-0.0481,-0.00015978,-0.016542,-0.05443,-0.25153,0.01217,0.17113,-0.012218,0.004435,0.024295,0.01385,0.018355,-0.037121,-0.011559,-0.011762,-0.059956,-0.022697,-0.036401,-0.018027,0.017648,-0.053742
-0.021754,0.017205,-0.025359,-0.028533,-0.0081781,-0.019199,-0.05829,-0.24138,0.016482,0.16069,-0.032719,-0.0016477,0.027957,0.01823,0.016658,-0.041255,-0.012989,-0.010552,-0.079383,-0.021967,-0.030208,-0.021612,0.0084832,-0.050517
-0.025762,0.017861,-0.023513,-0.012332,-0.012329,-0.026116,-0.065708,-0.23512,0.01725,0.14552,-0.061087,0.019363,0.0316,0.022546,0.013769,-0.041859,-0.011839,-0.0079239,-0.095381,-0.02095,-0.024183,-0.025048,-0.0013058,-0.052069
-0.029156,0.018443,-0.019358,-0.002895,-0.012585,-0.035297,-0.076013,-0.23061,0.016587,0.12388,-0.099354,0.056226,0.035264,0.024293,0.010695,-0.035822,-0.008071,-0.0037497,-0.10324,-0.020923,-0.019735,-0.028314,-0.0081076,-0.053363
-0.030792,0.019277,-0.015042,-3.9096e-005,-0.011636,-0.042521,-0.085556,-0.2247,0.016954,0.095218,-0.14892,0.093013,0.039684,0.023127,0.0078387,-0.025692,-0.00414,0.00086806,-0.10146,-0.021844,-0.015723,-0.030947,-0.0093817,-0.048729
-0.030656,0.018961,-0.013489,-1.1995e-005,-0.01337,-0.04465,-0.090153,-0.21506,0.01874,0.061496,-0.20788,0.11599,0.045022,0.021076,0.0053403,-0.017308,-0.0033168,0.0043302,-0.092296,-0.022701,-0.0099428,-0.032009,-0.0058524,-0.03709
-0.029485,0.015536,-0.015965,0.0019872,-0.02012,-0.042125,-0.087868,-0.20116,0.019952,0.026126,-0.27062,0.12027,0.050165,0.020732,0.0034979,-0.014903,-0.0070186,0.0057334,-0.079966,-0.022846,-0.0015589,-0.030877,-0.0014707,-0.022512
-0.027833,0.0087344,-0.020684,0.0084431,-0.030642,-0.03846,-0.079786,-0.18352,0.018109,-0.0079563,-0.32974,0.11126,0.053461,0.023042,0.0026617,-0.017902,-0.013256,0.0054611,-0.067858,-0.022785,0.0076506,-0.028141,-0.00073683,-0.0099085
-0.025545,0.0011766,-0.023882,0.017909,-0.040467,-0.037184,-0.068422,-0.16249,0.012425,-0.039087,-0.37828,0.099475,0.054251,0.026651,0.0027108,-0.021857,-0.01767,0.0047233,-0.056935,-0.023584,0.014308,-0.025584,-0.0053333,-0.00033551
-0.02217,-0.0029802,-0.022652,0.026396,-0.044625,-0.038922,-0.055588,-0.13763,0.0043784,-0.066159,-0.41113,0.092285,0.05366,0.029373,0.0027742,-0.022229,-0.016628,0.0045272,-0.046245,-0.025608,0.01591,-0.024977,-0.012879,0.0096859
-0.017915,-0.0012094,-0.017219,0.030541,-0.040909,-0.041138,-0.041781,-0.10854,-0.0034929,-0.087756,-0.42544,0.088964,0.053722,0.030375,0.0016829,-0.017658,-0.010057,0.0049577,-0.034741,-0.027991,0.012825,-0.026662,-0.018958,0.024511
-0.014131,0.0050016,-0.010824,0.029927,-0.031348,-0.040527,-0.027343,-0.07651,-0.0091347,-0.1025,-0.42093,0.082236,0.055523,0.031019,-0.0010935,-0.010321,-0.0016949,0.0052885,-0.022712,-0.029444,0.0083,-0.029248,-0.020729,0.045057
-0.012625,0.010826,-0.0073849,0.026877,-0.020859,-0.035745,-0.013672,-0.045147,-0.011551,-0.11043,-0.40048,0.064228,0.058094,0.033452,-0.0048742,-0.0036614,0.0036131,0.0047691,-0.011754,-0.029553,0.0064726,-0.030817,-0.019026,0.067732
-0.014142,0.011626,-0.0088835,0.024298,-0.014138,-0.02813,-0.0027885,-0.01917,-0.010481,-0.11392,-0.37026,0.031606,0.059204,0.038187,-0.0082298,0.00026806,0.0035129,0.0034835,-0.0036671,-0.029173,0.0097361,-0.030593,-0.017226,0.087172
-0.01733,0.0065601,-0.014425,0.023664,-0.013092,-0.020172,0.0045536,-0.0018572,-0.0062028,-0.11707,-0.3383,-0.013705,0.057441,0.042957,-0.010241,0.0018618,-0.0002036,0.0026634,0.00061006,-0.029432,0.01719,-0.029564,-0.018086,0.099936
-0.019296,-0.00076416,-0.021352,0.024643,-0.016493,-0.013568,0.010126,0.0069232,3.284e-005,-0.12383,-0.31168,-0.067442,0.053708,0.044137,-0.011443,0.0030756,-0.0032104,0.0041642,0.0012603,-0.030269,0.02519,-0.029497,-0.021502,0.10592
-0.017617,-0.0052401,-0.027179,0.026136,-0.02162,-0.0086766,0.017074,0.010441,0.0056645,-0.13636,-0.29376,-0.12597,0.05064,0.039768,-0.013452,0.0056955,-0.0021836,0.0092934,-0.00077116,-0.030014,0.029694,-0.031301,-0.025087,0.10681
-0.012266,-0.0043685,-0.030798,0.027327,-0.026207,-0.0054543,0.026904,0.012681,0.0076427,-0.15427,-0.28344,-0.18654,0.050339,0.031585,-0.017388,0.010108,0.0026164,0.017641,-0.0041662,-0.026642,0.028936,-0.034248,-0.026788,0.10366
-0.0057668,-0.00010381,-0.032324,0.027791,-0.029138,-0.0043742,0.037322,0.015678,0.0043337,-0.1748,-0.27688,-0.24494,0.05237,0.024152,-0.022494,0.015232,0.0077162,0.026751,-0.0073904,-0.019784,0.024574,-0.036716,-0.026907,0.096237
-0.0012484,0.0030184,-0.032231,0.027003,-0.029878,-0.0060683,0.043358,0.018752,-0.0029818,-0.19323,-0.27007,-0.29284,0.053885,0.021532,-0.026352,0.019442,0.0092867,0.033114,-0.0088625,-0.011704,0.02042,-0.037692,-0.027662,0.084383
7.7145e-005,0.0017483,-0.030783,0.024283,-0.027895,-0.010043,0.041378,0.02014,-0.010509,-0.20356,-0.26012,-0.31685,0.051879,0.02415,-0.02673,0.021778,0.0060832,0.034113,-0.0073805,-0.0061755,0.019536,-0.037635,-0.030831,0.069814
-0.00014324,-0.0033264,-0.028163,0.019548,-0.023147,-0.014065,0.032716,0.019377,-0.014141,-0.20002,-0.24446,-0.30052,0.045705,0.028448,-0.023467,0.022628,0.00022633,0.029744,-0.002583,-0.0058552,0.02187,-0.037971,-0.035803,0.056128
0.0010338,-0.0085462,-0.024846,0.014127,-0.017172,-0.015308,0.023476,0.018147,-0.01175,-0.17955,-0.21932,-0.22955,0.037661,0.029681,-0.018642,0.023361,-0.0045214,0.022829,0.0050519,-0.010148,0.024349,-0.039751,-0.039907,0.046847
