-4.2638e-010,3.492e-010,4.804e-010,5.3828e-010,7.0806e-010,1.1441e-009,8.5468e-010,1.0322e-009,6.7719e-010,1.2483e-009,1.1094e-009,1.1518e-009,6.1545e-010,2.3827e-009,1.5145e-009,9.5501e-010,7.8909e-010,8.296e-011,2.3345e-010,8.5082e-010,5.3828e-010,4.2194e-009,1.3987e-009,9.087e-010
-1.186e-008,9.6112e-009,1.3399e-008,1.4867e-008,1.9767e-008,3.1557e-008,2.3641e-008,2.8361e-008,1.8555e-008,3.4695e-008,3.0567e-008,3.1921e-008,1.6884e-008,6.5646e-008,4.1747e-008,2.6244e-008,2.1666e-008,2.1381e-009,6.3429e-009,2.3542e-008,1.4952e-008,1.1727e-007,3.8521e-008,2.5223e-008
-1.6037e-007,1.2858e-007,1.8176e-007,1.9966e-007,2.6788e-007,4.2304e-007,3.1794e-007,3.7861e-007,2.4719e-007,4.6887e-007,4.0907e-007,4.3e-007,2.2493e-007,8.7918e-007,5.5915e-007,3.5071e-007,2.8919e-007,2.6693e-008,8.387e-008,3.1679e-007,2.0183e-007,1.5845e-006,5.1533e-007,3.4035e-007
-1.4045e-006,1.114e-006,1.5975e-006,1.7371e-006,2.3473e-006,3.6718e-006,2.7699e-006,3.2716e-006,2.133e-006,4.1043e-006,3.5421e-006,3.7508e-006,1.9382e-006,7.6255e-006,4.8482e-006,3.0368e-006,2.4997e-006,2.1502e-007,7.1914e-007,2.7621e-006,1.7637e-006,1.3866e-005,4.4613e-006,2.9745e-006
-8.9517e-006,7.0258e-006,1.0223e-005,1.1003e-005,1.4942e-005,2.3189e-005,1.7571e-005,2.0565e-005,1.34e-005,2.6155e-005,2.23e-005,2.3811e-005,1.2137e-005,4.8142e-005,3.0585e-005,1.9153e-005,1.5727e-005,1.2559e-006,4.4952e-006,1.754e-005,1.1214e-005,8.833e-005,2.809e-005,1.8923e-005
-4.4229e-005,3.4365e-005,5.0744e-005,5.4064e-005,7.3593e-005,0.00011352,8.6483e-005,0.00010019,6.529e-005,0.00012926,0.00010875,0.00011721,5.8827e-005,0.0002357,0.00014958,9.3759e-005,7.6728e-005,5.6633e-006,2.183e-005,8.6442e-005,5.5259e-005,0.00043638,0.00013704,9.3353e-005
-0.00017617,0.00013562,0.00020317,0.00021433,0.00029158,0.0004481,0.00034361,0.00039348,0.00025665,0.00051529,0.0004272,0.00046534,0.00022943,0.00093085,0.00058993,0.00037059,0.00030191,2.0488e-005,8.5693e-005,0.00034396,0.00021953,0.0017391,0.00053876,0.0003715
-0.00058062,0.00044343,0.00067356,0.00070379,0.00095366,0.001464,0.0011318,0.001279,0.00083561,0.0017012,0.0013878,0.0015299,0.00073878,0.0030446,0.0019265,0.0012146,0.00098366,6.0901e-005,0.00027929,0.0011349,0.00072181,0.0057405,0.0017523,0.0012244
-0.0016123,0.0012238,0.0018829,0.0019496,0.0026205,0.0040326,0.0031493,0.0035051,0.002295,0.0047364,0.0037963,0.0042427,0.0019989,0.0084002,0.0053065,0.003363,0.0027024,0.00015074,0.00077014,0.0031635,0.0020007,0.015985,0.0048015,0.0034037
-0.0038191,0.002889,0.004495,0.0046149,0.0061224,0.009485,0.0075024,0.0082031,0.0053854,0.011264,0.0088557,0.010053,0.0045975,0.019802,0.01249,0.0079696,0.0063404,0.00031127,0.0018213,0.0075496,0.0047352,0.038035,0.011224,0.0080841
-0.0077804,0.0058881,0.0092424,0.0094153,0.012251,0.019217,0.015447,0.016542,0.010889,0.023073,0.017764,0.020533,0.0090518,0.040226,0.025343,0.01631,0.01281,0.00052721,0.0037308,0.015571,0.0096544,0.078005,0.022566,0.016548
-0.013692,0.010427,0.016451,0.016645,0.02106,0.033711,0.027663,0.028902,0.019059,0.040906,0.030787,0.036337,0.015292,0.070773,0.044576,0.028986,0.022397,0.00068574,0.006667,0.027923,0.01705,0.1386,0.039195,0.029343
-0.02083,0.016106,0.025399,0.025554,0.031065,0.051309,0.043246,0.043865,0.028909,0.062837,0.046164,0.055823,0.022103,0.108,0.068116,0.044837,0.033926,0.00050231,0.010451,0.043689,0.026146,0.21368,0.058833,0.04516
-0.027292,0.021749,0.033961,0.034054,0.039042,0.067667,0.05908,0.05782,0.037868,0.083383,0.059759,0.07432,0.02704,0.14261,0.090332,0.0603,0.044421,-0.00053007,0.014442,0.059682,0.034813,0.28525,0.075992,0.060233
-0.030502,0.025718,0.039119,0.039287,0.041178,0.076949,0.070448,0.06602,0.042418,0.094767,0.066394,0.085249,0.0273,0.16173,0.10349,0.070158,0.049953,-0.0031179,0.017727,0.07107,0.040166,0.32737,0.083531,0.069273
-0.028522,0.02675,0.038423,0.039147,0.035414,0.074818,0.073127,0.065073,0.039805,0.090716,0.062789,0.083357,0.021373,0.15528,0.10161,0.06996,0.047754,-0.0080338,0.019615,0.073555,0.040114,0.31855,0.076413,0.06814
-0.021479,0.024843,0.031661,0.033945,0.023573,0.061618,0.066008,0.055464,0.029967,0.070963,0.050382,0.068494,0.010454,0.12318,0.084712,0.058978,0.03847,-0.015881,0.02019,0.066132,0.035014,0.25646,0.05561,0.056937
-0.011937,0.021468,0.02141,0.026864,0.011257,0.043182,0.052386,0.042021,0.016233,0.043049,0.035593,0.047063,-0.0017248,0.077866,0.060148,0.041567,0.02671,-0.026824,0.02043,0.052446,0.028075,0.16408,0.029015,0.041112
-0.003569,0.01873,0.011702,0.022356,0.0047388,0.027879,0.038527,0.031326,0.0038523,0.019007,0.026383,0.029134,-0.011019,0.038618,0.038983,0.02525,0.018831,-0.040386,0.021627,0.039238,0.023709,0.079426,0.0076012,0.028929
0.0011924,0.017933,0.0054986,0.023223,0.0065771,0.021395,0.030011,0.027463,-0.0029805,0.0081646,0.026938,0.022331,-0.015656,0.020017,0.029013,0.016205,0.018976,-0.055406,0.024384,0.032364,0.024608,0.032769,-0.0012802,0.02631
0.0027527,0.018684,0.0028889,0.028454,0.013376,0.023055,0.028321,0.029287,-0.0035889,0.01099,0.034443,0.026612,-0.017425,0.02253,0.029405,0.015199,0.026173,-0.070175,0.027982,0.033039,0.029692,0.02708,0.0013578,0.032624
0.0037553,0.01939,0.0015127,0.033696,0.017958,0.026788,0.030271,0.03158,-0.00083244,0.018992,0.040914,0.034211,-0.020006,0.032838,0.031422,0.017277,0.034937,-0.082713,0.030755,0.037223,0.034751,0.037633,0.0073949,0.040985
0.0066126,0.018847,-0.0011424,0.034276,0.014717,0.026164,0.030808,0.029341,0.0013769,0.021305,0.039165,0.035325,-0.025612,0.034382,0.025266,0.015835,0.039195,-0.091121,0.031361,0.038836,0.035576,0.032526,0.0082788,0.043339
0.011215,0.017523,-0.0055934,0.028537,0.0039417,0.019409,0.027008,0.021731,0.0010673,0.013057,0.028338,0.025448,-0.032835,0.020145,0.0078508,0.008011,0.036512,-0.093962,0.029943,0.034411,0.031187,-0.0016834,0.0018108,0.036597
0.01488,0.017226,-0.010203,0.018892,-0.0085606,0.010207,0.020036,0.01233,-0.0007122,-0.0012246,0.014446,0.0085435,-0.03775,-0.0025546,-0.014745,-0.0030688,0.029238,-0.090581,0.028105,0.025503,0.024446,-0.050328,-0.0066573,0.024825
0.014705,0.019244,-0.012919,0.0098546,-0.016324,0.0038261,0.013637,0.0056157,-0.0014544,-0.011876,0.0054339,-0.0064894,-0.037454,-0.019033,-0.032201,-0.011203,0.021843,-0.08124,0.027587,0.016961,0.019477,-0.084877,-0.0095744,0.01558
0.010309,0.022564,-0.013086,0.0047957,-0.017447,0.0022846,0.010669,0.0029191,0.00015976,-0.012326,0.0049189,-0.013041,-0.03282,-0.019877,-0.038107,-0.012708,0.017012,-0.066968,0.028696,0.012679,0.018108,-0.088309,-0.0042279,0.013459
0.004536,0.023972,-0.011651,0.0040738,-0.015786,0.0029702,0.010812,0.0014688,0.0029116,-0.0042528,0.0098219,-0.011617,-0.027846,-0.0085509,-0.034572,-0.0097479,0.013991,-0.049144,0.029951,0.012479,0.01843,-0.069243,0.0048968,0.016408
0.001455,0.020335,-0.0098739,0.0057224,-0.017273,0.0017248,0.011293,-0.0027655,0.0040414,0.0044153,0.013604,-0.0084156,-0.026098,0.0020481,-0.029686,-0.0083666,0.010331,-0.029019,0.029371,0.0127,0.01677,-0.052966,0.010436,0.017989
0.0033593,0.011308,-0.0081255,0.0075969,-0.024736,-0.0028538,0.0096501,-0.011189,0.0015047,0.0064408,0.011953,-0.0093691,-0.027555,0.00048502,-0.030377,-0.012948,0.0049286,-0.007392,0.026357,0.0097121,0.011266,-0.058439,0.0089289,0.013534
0.009247,0.00013674,-0.0060085,0.0088492,-0.035619,-0.0081085,0.0058098,-0.021173,-0.0045348,0.00088782,0.0059217,-0.015181,-0.028813,-0.014462,-0.036898,-0.022111,-0.0007856,0.015511,0.022454,0.003061,0.0037956,-0.08248,0.0036346,0.0046323
0.015856,-0.0083466,-0.0034119,0.009643,-0.044209,-0.01013,0.0016494,-0.028187,-0.012037,-0.0071236,0.00015157,-0.021575,-0.026389,-0.034195,-0.043342,-0.029743,-0.0045399,0.039996,0.020155,-0.0045024,-0.0015003,-0.10468,0.00088345,-0.0021493
0.020107,-0.011015,-0.0010735,0.0099014,-0.046174,-0.0077544,-0.0012094,-0.029392,-0.018588,-0.011548,-0.0017119,-0.023986,-0.019905,-0.048459,-0.043268,-0.030199,-0.0058399,0.066618,0.020647,-0.0099008,-0.0018099,-0.10716,0.0036909,-0.0012602
0.020825,-0.0084096,0.00013732,0.0087197,-0.04159,-0.0038148,-0.0030323,-0.025581,-0.022628,-0.010417,-0.00013995,-0.021966,-0.012183,-0.053525,-0.035409,-0.022944,-0.0066605,0.095413,0.022458,-0.012646,0.0018561,-0.090264,0.0089308,0.0064282
0.018653,-0.0038827,0.00045358,0.0051806,-0.034426,-0.002507,-0.0054752,-0.020188,-0.023702,-0.0065505,0.0011073,-0.019286,-0.0063772,-0.053557,-0.024853,-0.012649,-0.0094189,0.12466,0.022334,-0.015041,0.0054453,-0.070491,0.010782,0.013671
0.014851,-0.00086187,0.001476,-0.00027792,-0.029409,-0.0055206,-0.0096641,-0.016638,-0.022172,-0.0041696,-0.0014574,-0.020032,-0.0031606,-0.055055,-0.019112,-0.0050395,-0.014285,0.14989,0.017857,-0.019577,0.0051397,-0.064214,0.0069636,0.012481
0.010487,-0.00060757,0.0048789,-0.005473,-0.028955,-0.010628,-0.01492,-0.016338,-0.019129,-0.0051358,-0.0081188,-0.024706,-0.00071723,-0.060297,-0.022539,-0.002588,-0.018658,0.16439,0.0097346,-0.02611,0.00017072,-0.073387,0.0015225,0.00063634
0.0066089,-0.0021281,0.010581,-0.0077362,-0.032185,-0.013965,-0.019373,-0.018531,-0.016493,-0.008166,-0.015987,-0.029994,0.0027507,-0.065773,-0.033387,-0.0037557,-0.019565,0.16186,0.0017731,-0.031583,-0.0071992,-0.085963,0.0012828,-0.016369
0.0046381,-0.0038296,0.016125,-0.0059641,-0.036138,-0.01374,-0.021709,-0.021474,-0.016544,-0.01105,-0.021496,-0.032137,0.0068475,-0.066334,-0.045366,-0.0057989,-0.016826,0.14018,-0.0017246,-0.032645,-0.014182,-0.088927,0.0092795,-0.029463
0.0059095,-0.0050702,0.018086,-0.0017995,-0.037884,-0.011916,-0.022244,-0.023695,-0.020541,-0.013141,-0.022992,-0.030459,0.0094839,-0.06045,-0.052111,-0.0078073,-0.013889,0.10385,0.00069852,-0.028806,-0.019877,-0.080334,0.021498,-0.032705
0.010444,-0.0062467,0.014616,0.0011211,-0.036085,-0.0124,-0.022392,-0.024577,-0.027372,-0.015655,-0.02145,-0.02779,0.0094207,-0.051509,-0.051181,-0.010954,-0.01524,0.062856,0.0062066,-0.0232,-0.025357,-0.069239,0.030141,-0.027159
0.016245,-0.0077086,0.0071273,-0.00053692,-0.031363,-0.017478,-0.023319,-0.024357,-0.033698,-0.019887,-0.019262,-0.027616,0.0079986,-0.044397,-0.045036,-0.016165,-0.022459,0.028276,0.0094821,-0.020177,-0.031635,-0.065091,0.030442,-0.019212
0.020234,-0.008923,-0.00031119,-0.0074956,-0.025621,-0.025681,-0.025249,-0.023883,-0.036063,-0.025508,-0.018491,-0.030824,0.0080662,-0.041163,-0.038765,-0.022079,-0.032386,0.0071344,0.0066456,-0.021769,-0.037825,-0.068176,0.024681,-0.015222
0.020374,-0.0088747,-0.0035923,-0.017102,-0.020875,-0.032867,-0.027898,-0.024193,-0.033527,-0.030765,-0.019936,-0.03497,0.01112,-0.040051,-0.036441,-0.025647,-0.039233,-0.00012254,-0.0017008,-0.02609,-0.041473,-0.070462,0.019757,-0.017051
0.017202,-0.0072697,-0.0013577,-0.024655,-0.018248,-0.035495,-0.031175,-0.025887,-0.028526,-0.034223,-0.02327,-0.036511,0.015615,-0.038448,-0.038529,-0.024784,-0.039078,0.001715,-0.010853,-0.029032,-0.040765,-0.065067,0.020728,-0.021725
0.013343,-0.0051996,0.0040937,-0.026052,-0.017609,-0.033285,-0.035109,-0.028542,-0.02502,-0.036108,-0.027657,-0.033832,0.018244,-0.036277,-0.04182,-0.020352,-0.033069,0.0063667,-0.015739,-0.027825,-0.036384,-0.054048,0.026441,-0.024787
0.011401,-0.004425,0.0084807,-0.020173,-0.018018,-0.029197,-0.039102,-0.030743,-0.025335,-0.037822,-0.032199,-0.028506,0.016993,-0.036169,-0.041698,-0.015517,-0.026661,0.0093645,-0.015098,-0.023451,-0.031197,-0.046538,0.031184,-0.024119
0.012056,-0.0058212,0.0086039,-0.0095841,-0.01857,-0.026965,-0.041684,-0.030965,-0.028389,-0.040154,-0.036128,-0.023971,0.013002,-0.040299,-0.035201,-0.013149,-0.025496,0.0090943,-0.012568,-0.019918,-0.028078,-0.049404,0.03053,-0.021248
0.01395,-0.0084236,0.0045819,0.00086047,-0.01889,-0.028322,-0.041552,-0.028729,-0.030761,-0.042143,-0.038926,-0.022897,0.0094902,-0.04735,-0.022994,-0.013744,-0.031296,0.005906,-0.013541,-0.021025,-0.027946,-0.060049,0.025622,-0.019629
0.015201,-0.010042,-0.00035497,0.0067302,-0.018815,-0.032009,-0.039112,-0.025041,-0.029593,-0.041871,-0.040469,-0.025318,0.0088573,-0.052994,-0.0090905,-0.015574,-0.040954,0.00089215,-0.020273,-0.027303,-0.029675,-0.068502,0.021785,-0.021813
0.015025,-0.008992,-0.0023249,0.0064397,-0.017637,-0.035047,-0.036802,-0.021631,-0.024824,-0.038529,-0.041025,-0.028746,0.010722,-0.05365,0.0015019,-0.016542,-0.049229,-0.0045377,-0.029507,-0.035561,-0.031652,-0.066595,0.022865,-0.02774
0.014091,-0.005452,0.00033129,0.0019388,-0.01391,-0.034993,-0.037374,-0.019608,-0.019037,-0.033686,-0.041022,-0.029981,0.012594,-0.049813,0.0057375,-0.015844,-0.052571,-0.0084487,-0.034939,-0.041338,-0.033228,-0.05522,0.026801,-0.035039
0.013582,-0.0012921,0.005886,-0.0027584,-0.0064528,-0.031464,-0.041358,-0.018747,-0.015339,-0.030394,-0.040731,-0.027304,0.01236,-0.045554,0.0042321,-0.014126,-0.051031,-0.0083476,-0.032672,-0.042236,-0.034724,-0.042997,0.026816,-0.040602
0.014058,0.001407,0.010597,-0.0042767,0.0041039,-0.026104,-0.046136,-0.018055,-0.01516,-0.030787,-0.040118,-0.021599,0.01022,-0.04453,0.00060824,-0.012449,-0.047266,-0.0016646,-0.024923,-0.039496,-0.03631,-0.038175,0.017308,-0.042198
0.015074,0.0017994,0.011534,-0.0020598,0.014766,-0.021393,-0.047809,-0.016996,-0.017569,-0.034346,-0.03893,-0.01572,0.0084462,-0.046378,-0.0010325,-0.011265,-0.044035,0.013643,-0.01855,-0.03669,-0.037219,-0.041712,-0.00087905,-0.039399
0.015649,0.00052946,0.0087018,0.0014288,0.021619,-0.019265,-0.044537,-0.016097,-0.020278,-0.038412,-0.036867,-0.012501,0.0093627,-0.047027,0.0012658,-0.010209,-0.042401,0.038798,-0.019414,-0.036689,-0.036246,-0.04766,-0.020632,-0.033733
0.014994,-0.0011238,0.0048674,0.0026182,0.022442,-0.020296,-0.03839,-0.016276,-0.021322,-0.040466,-0.033766,-0.012741,0.013398,-0.042693,0.0064049,-0.0085586,-0.041671,0.074056,-0.027402,-0.039343,-0.033041,-0.049619,-0.034077,-0.028124
0.012956,-0.002173,0.0032801,-0.00049589,0.018329,-0.023596,-0.033879,-0.017562,-0.020224,-0.040084,-0.029796,-0.014587,0.018779,-0.033716,0.011534,-0.0058355,-0.040503,0.11816,-0.036496,-0.041654,-0.028864,-0.04663,-0.03854,-0.025645
0.010084,-0.0021381,0.0050891,-0.006834,0.01277,-0.027295,-0.03426,-0.018564,-0.018038,-0.038818,-0.025691,-0.014865,0.022953,-0.024525,0.014379,-0.0022011,-0.038008,0.16737,-0.039858,-0.040199,-0.026061,-0.043307,-0.037867,-0.027939
0.0073779,-0.00080723,0.0084658,-0.012964,0.0088758,-0.029403,-0.038756,-0.017391,-0.016349,-0.038265,-0.022743,-0.011481,0.024444,-0.019726,0.014717,0.001452,-0.034223,0.2148,-0.035506,-0.033844,-0.026708,-0.04498,-0.038262,-0.03416
0.0057898,0.0016879,0.010104,-0.01553,0.0072124,-0.028771,-0.043135,-0.013312,-0.015891,-0.038253,-0.022301,-0.0051414,0.023698,-0.019957,0.013977,0.0038385,-0.030008,0.2512,-0.027718,-0.024694,-0.031463,-0.053035,-0.042671,-0.041332
0.0055876,0.0043814,0.0079313,-0.013587,0.0061668,-0.02573,-0.043161,-0.0076349,-0.015716,-0.036923,-0.024887,0.00094741,0.022373,-0.021343,0.013518,0.0040612,-0.026577,0.26736,-0.023167,-0.016667,-0.039228,-0.064549,-0.04867,-0.046138
0.0059628,0.0054284,0.0029133,-0.0091775,0.0043646,-0.021947,-0.037941,-0.0029155,-0.013648,-0.032646,-0.029547,0.003269,0.021806,-0.018972,0.01317,0.0023919,-0.024844,0.2573,-0.025406,-0.012908,-0.047512,-0.075583,-0.051427,-0.046924
0.0053638,0.0032484,-0.0015011,-0.0058252,0.0026392,-0.019403,-0.030391,-0.0010606,-0.0079224,-0.025968,-0.034086,0.00048804,0.021952,-0.011213,0.011229,0.00028131,-0.024812,0.22088,-0.032406,-0.014002,-0.053211,-0.084216,-0.048807,-0.044439
0.002564,-0.0017753,-0.0019812,-0.0061178,0.0034978,-0.019066,-0.02463,-0.0019319,0.0011406,-0.01967,-0.036193,-0.0055672,0.021645,-0.0010785,0.00579,-0.00070215,-0.025481,0.16436,-0.038858,-0.018103,-0.0537,-0.090485,-0.044109,-0.040806
-0.0022469,-0.0068105,0.0019741,-0.010113,0.0085135,-0.020202,-0.022713,-0.0036368,0.010822,-0.016784,-0.034741,-0.011104,0.019873,0.0063467,-0.0036867,-0.00023373,-0.025539,0.098604,-0.04074,-0.022516,-0.048077,-0.094127,-0.044208,-0.037767
-0.0073091,-0.0083954,0.007376,-0.015562,0.016199,-0.020965,-0.023421,-0.0042354,0.017536,-0.0182,-0.030354,-0.012833,0.016924,0.0079936,-0.015683,0.00042758,-0.024398,0.035561,-0.038104,-0.025356,-0.037921,-0.093244,-0.054671,-0.035798
-0.01039,-0.0054365,0.0098452,-0.019617,0.022589,-0.019907,-0.023831,-0.0033412,0.019173,-0.021946,-0.024938,-0.0099643,0.014394,0.0049594,-0.027136,-0.0003762,-0.022675,-0.015746,-0.034129,-0.026178,-0.026795,-0.085675,-0.075514,-0.034703
-0.010395,-0.0006842,0.0070171,-0.020757,0.024248,-0.017291,-0.021979,-0.0022055,0.01647,-0.024703,-0.020588,-0.0044786,0.014047,0.0012004,-0.034736,-0.0030318,-0.021542,-0.051838,-0.031897,-0.025602,-0.018425,-0.071701,-0.1004,-0.034723
-0.0082472,0.0010686,0.00058474,-0.019663,0.021113,-0.015069,-0.018275,-0.002266,0.012419,-0.024213,-0.018607,0.0003429,0.016499,0.00017797,-0.036348,-0.0061722,-0.021481,-0.074829,-0.031986,-0.024644,-0.014648,-0.055128,-0.11968,-0.036665
-0.006321,-0.0031017,-0.0048348,-0.018599,0.016603,-0.015398,-0.014748,-0.0035762,0.01025,-0.020615,-0.019074,0.0019997,0.020809,0.0022907,-0.032038,-0.0079334,-0.021672,-0.089974,-0.032684,-0.024258,-0.014623,-0.04136,-0.12531,-0.040684
-0.0068603,-0.01157,-0.0053452,-0.01978,0.014823,-0.018775,-0.01314,-0.0046609,0.011517,-0.015807,-0.02102,0.00011226,0.025196,0.0049594,-0.024241,-0.0076729,-0.020736,-0.1022,-0.032104,-0.024994,-0.015865,-0.034008,-0.11512,-0.045019
-0.010542,-0.019222,-0.0010751,-0.023796,0.017215,-0.023315,-0.013623,-0.0039906,0.015484,-0.011684,-0.02301,-0.0037037,0.028169,0.0049789,-0.016774,-0.0063138,-0.018211,-0.11374,-0.029957,-0.026532,-0.016213,-0.032934,-0.093826,-0.046403
-0.01616,-0.021495,0.003666,-0.029073,0.021492,-0.025879,-0.015003,-0.0016564,0.019895,-0.0088794,-0.023871,-0.0071464,0.029182,0.0010904,-0.012882,-0.0049117,-0.015267,-0.12413,-0.027523,-0.027391,-0.015188,-0.035209,-0.070469,-0.042373
-0.021515,-0.017886,0.0037227,-0.032745,0.023727,-0.024343,-0.015882,0.00047434,0.022385,-0.0068792,-0.023267,-0.0087495,0.028489,-0.0052155,-0.01332,-0.003042,-0.013777,-0.13195,-0.026188,-0.025513,-0.013851,-0.037839,-0.053292,-0.033647
-0.024761,-0.01192,-0.002696,-0.032478,0.021771,-0.019275,-0.015571,0.00044605,0.021766,-0.0050508,-0.021749,-0.008648,0.026656,-0.011119,-0.015847,0.0010039,-0.014467,-0.13683,-0.026142,-0.019843,-0.013578,-0.039786,-0.04538,-0.024237
-0.025318,-0.0077995,-0.012417,-0.028157,0.017102,-0.013681,-0.014147,-0.0017731,0.018722,-0.003483,-0.020161,-0.0082094,0.024228,-0.014816,-0.016768,0.008046,-0.015927,-0.13989,-0.026416,-0.011845,-0.014836,-0.041797,-0.043881,-0.018749
-0.023902,-0.0069512,-0.0197,-0.022316,0.013578,-0.01095,-0.011962,-0.0039696,0.015629,-0.0029555,-0.018809,-0.0088861,0.021665,-0.01683,-0.013608,0.015964,-0.015599,-0.14263,-0.026007,-0.0052993,-0.016803,-0.044688,-0.043371,-0.018935
-0.021881,-0.007578,-0.02065,-0.018916,0.014187,-0.012562,-0.0093355,-0.0035977,0.015322,-0.0042451,-0.017126,-0.011067,0.01928,-0.019247,-0.0069012,0.020185,-0.012002,-0.14542,-0.024824,-0.003912,-0.017895,-0.047947,-0.040684,-0.022465
-0.020515,-0.0072851,-0.015994,-0.021081,0.018601,-0.017257,-0.0067103,-0.00029961,0.01914,-0.0074138,-0.014257,-0.013648,0.017082,-0.02359,0.00033118,0.01694,-0.0061753,-0.14689,-0.023513,-0.0082983,-0.016791,-0.049947,-0.037237,-0.025056
-0.020511,-0.0059109,-0.010062,-0.029142,0.023572,-0.022161,-0.0048757,0.003393,0.025435,-0.011545,-0.01013,-0.014628,0.014768,-0.029205,0.0049599,0.0067214,-0.0009777,-0.14489,-0.022457,-0.015004,-0.013364,-0.049444,-0.036954,-0.024104
-0.021941,-0.0057158,-0.0070942,-0.04022,0.025746,-0.02479,-0.0046912,0.0040968,0.030008,-0.015012,-0.0059568,-0.012414,0.012136,-0.033578,0.0059476,-0.0052575,0.0012055,-0.13803,-0.021101,-0.018834,-0.0090049,-0.046855,-0.041784,-0.020608
-0.02435,-0.008907,-0.0081707,-0.049626,0.024372,-0.02436,-0.006307,0.00070286,0.028795,-0.016173,-0.0034677,-0.0070917,0.0096486,-0.034314,0.0045566,-0.012476,0.00030673,-0.12676,-0.018461,-0.016881,-0.0059708,-0.044076,-0.049021,-0.017749
-0.026881,-0.015165,-0.011169,-0.053316,0.021528,-0.021647,-0.0085598,-0.0043021,0.021148,-0.014279,-0.003377,-0.00073331,0.0084598,-0.031032,0.0026131,-0.011863,-0.0015912,-0.11323,-0.014369,-0.010883,-0.0058906,-0.042881,-0.053087,-0.017524
-0.028479,-0.021692,-0.013311,-0.050006,0.019805,-0.017946,-0.0093151,-0.0067701,0.010966,-0.010182,-0.0044848,0.0036403,0.0095569,-0.025541,0.00064395,-0.0059725,-0.0021613,-0.10015,-0.010174,-0.0057323,-0.008289,-0.043253,-0.050289,-0.018632
-0.028302,-0.025604,-0.013682,-0.041796,0.019776,-0.014261,-0.0068255,-0.004553,0.0042806,-0.0062335,-0.0044639,0.0039344,0.012597,-0.020245,-0.002302,-0.00068231,-0.00072184,-0.089646,-0.0079992,-0.0053041,-0.010354,-0.043138,-0.04222,-0.017575
-0.026241,-0.026168,-0.013583,-0.032945,0.019737,-0.011246,-0.0012175,0.00041709,0.0048971,-0.0050793,-0.0019024,0.00039481,0.015585,-0.016327,-0.0070782,-0.00033427,0.0014611,-0.082441,-0.0090675,-0.009236,-0.0085299,-0.040047,-0.034594,-0.011988
-0.023169,-0.024766,-0.014823,-0.027464,0.017919,-0.0095038,0.0051266,0.0036727,0.011634,-0.0079033,0.0021453,-0.0045911,0.016002,-0.013316,-0.012823,-0.0044993,0.0025202,-0.077881,-0.012575,-0.013486,-0.0010876,-0.033324,-0.032422,-0.0031507
-0.020532,-0.023015,-0.017913,-0.02686,0.014836,-0.0095327,0.0088541,0.0021287,0.019559,-0.013395,0.0046645,-0.0083008,0.012664,-0.010205,-0.01709,-0.0091071,0.0016886,-0.074416,-0.016189,-0.014098,0.010219,-0.025189,-0.035808,0.0046461
-0.019388,-0.02129,-0.021804,-0.029402,0.013153,-0.011177,0.007884,-0.0031763,0.02412,-0.01847,0.0030987,-0.0097148,0.0067583,-0.006751,-0.017791,-0.010757,-4.2946e-005,-0.070368,-0.017771,-0.010714,0.020868,-0.019495,-0.040141,0.0074198
-0.019549,-0.019154,-0.02505,-0.031482,0.014971,-0.013207,0.0030054,-0.0080794,0.024493,-0.020452,-0.0022672,-0.010066,0.0010727,-0.0035337,-0.015153,-0.010126,-0.00068279,-0.064668,-0.016809,-0.0066775,0.026314,-0.019031,-0.040492,0.0046341
-0.019626,-0.016865,-0.027009,-0.030303,0.01919,-0.013724,-0.0024911,-0.0091392,0.023279,-0.019067,-0.0081003,-0.011339,-0.0020546,-0.00081605,-0.011724,-0.011243,0.0013464,-0.057262,-0.014394,-0.0057772,0.024795,-0.023489,-0.036269,-0.00054367
-0.018137,-0.015899,-0.027965,-0.026066,0.021857,-0.011411,-0.005087,-0.0067413,0.023212,-0.016572,-0.01036,-0.014001,-0.0024015,0.0023657,-0.010251,-0.017303,0.0062342,-0.048953,-0.011912,-0.0087281,0.018187,-0.029785,-0.031898,-0.0040342
-0.014857,-0.017634,-0.028443,-0.021931,0.019602,-0.0067275,-0.0036355,-0.0045665,0.024282,-0.015808,-0.0073135,-0.016085,-0.0018274,0.0075722,-0.01131,-0.02701,0.012812,-0.040743,-0.0098205,-0.012584,0.010455,-0.034481,-0.032838,-0.004181
-0.011235,-0.021617,-0.028751,-0.021557,0.013083,-0.0020266,-0.00027905,-0.0059557,0.024048,-0.017781,-0.00070595,-0.014732,-0.0026639,0.015124,-0.012921,-0.035077,0.019317,-0.033126,-0.0075836,-0.013486,0.0050957,-0.036267,-0.040407,-0.0027191
-0.0093297,-0.025454,-0.029272,-0.025949,0.0070636,-0.0002561,0.0011792,-0.010631,0.020561,-0.020866,0.0058296,-0.0090599,-0.0059043,0.022838,-0.012608,-0.036622,0.02421,-0.025839,-0.0046615,-0.010115,0.0034069,-0.0365,-0.049999,-0.0026877
-0.010043,-0.026751,-0.030943,-0.032192,0.0066678,-0.003037,-0.0016679,-0.014844,0.014794,-0.022313,0.0096036,-0.0017934,-0.010569,0.026839,-0.010035,-0.031507,0.02656,-0.018214,-0.0014103,-0.0047594,0.0044353,-0.037523,-0.054434,-0.0053921
-0.012197,-0.025302,-0.034949,-0.035352,0.012973,-0.0094501,-0.0077329,-0.014786,0.010078,-0.020678,0.010455,0.0021568,-0.014552,0.024069,-0.0076886,-0.024573,0.026072,-0.0097698,0.0010675,-0.0012198,0.0060965,-0.040425,-0.049737,-0.0092814
-0.013388,-0.02336,-0.041537,-0.03232,0.021794,-0.01643,-0.013082,-0.010058,0.0091876,-0.016954,0.0099504,-0.00060348,-0.016125,0.014466,-0.0088084,-0.021491,0.02307,-0.00047797,0.0019658,-0.0016016,0.0064419,-0.044254,-0.038537,-0.011661
-0.011974,-0.02365,-0.048968,-0.024549,0.02679,-0.020552,-0.013963,-0.0040588,0.011988,-0.013406,0.0093454,-0.0089025,-0.015013,0.00094064,-0.014329,-0.023967,0.018544,0.0095277,0.0016419,-0.0048599,0.0045033,-0.047183,-0.028205,-0.011408
-0.0084796,-0.026997,-0.053927,-0.01726,0.024318,-0.020022,-0.0098165,-0.00103,0.01584,-0.011322,0.0084783,-0.017339,-0.012456,-0.012782,-0.021593,-0.028652,0.013984,0.020493,0.0014058,-0.0081561,0.00070315,-0.048289,-0.025163,-0.0099813
-0.0051233,-0.03169,-0.053564,-0.015485,0.016074,-0.015612,-0.0037591,-0.0024921,0.018155,-0.0098849,0.0065414,-0.020081,-0.010424,-0.024589,-0.02611,-0.030622,0.010727,0.033289,0.0023804,-0.0095325,-0.0031557,-0.048186,-0.02992,-0.0098043
-0.0039172,-0.034993,-0.047807,-0.020016,0.0075696,-0.0099932,-7.6583e-005,-0.0062155,0.018493,-0.0072977,0.0036487,-0.01526,-0.010547,-0.03469,-0.024956,-0.028095,0.0091361,0.04906,0.0044689,-0.009388,-0.0045753,-0.047988,-0.036718,-0.011715
-0.0050824,-0.035265,-0.040024,-0.026635,0.0039222,-0.0060129,-0.00079207,-0.0084664,0.01829,-0.0029914,0.0013187,-0.0064438,-0.013313,-0.044265,-0.018971,-0.024002,0.0083888,0.068451,0.0063653,-0.0095486,-0.0017902,-0.047854,-0.037933,-0.01402
-0.0071982,-0.032868,-0.035125,-0.029411,0.0063447,-0.0050507,-0.0042116,-0.0073911,0.018799,0.0013624,0.0012176,6.1456e-005,-0.017889,-0.053529,-0.011998,-0.023064,0.0073613,0.090893,0.0065911,-0.011032,0.0047555,-0.046721,-0.029669,-0.01404
-0.0087738,-0.02942,-0.036242,-0.025444,0.01183,-0.0064589,-0.0066184,-0.0045527,0.019501,0.0031849,0.0034154,-9.5156e-005,-0.022633,-0.061009,-0.0079074,-0.027276,0.006003,0.11438,0.0046632,-0.012775,0.012113,-0.043539,-0.014302,-0.010609
-0.0095555,-0.026484,-0.042385,-0.017167,0.015831,-0.00833,-0.0055353,-0.0034123,0.018584,0.0014731,0.0060041,-0.0063479,-0.026044,-0.064603,-0.0079069,-0.034034,0.0058573,0.13582,0.0014582,-0.012604,0.016373,-0.038701,0.0016499,-0.0051776
-0.010239,-0.024923,-0.048961,-0.010287,0.015605,-0.0089657,-0.0016631,-0.0062463,0.014915,-0.0019706,0.0066114,-0.014188,-0.027653,-0.063386,-0.010169,-0.038523,0.00891,0.15188,-0.0014328,-0.0095119,0.015238,-0.034059,0.012323,-0.00061585
-0.011005,-0.025089,-0.050911,-0.0091263,0.011757,-0.0079717,0.0020653,-0.012238,0.0095123,-0.0038267,0.0044586,-0.018948,-0.028311,-0.058626,-0.011749,-0.037971,0.015546,0.15995,-0.0027843,-0.004989,0.0096986,-0.031353,0.016183,0.0010525
-0.010631,-0.027107,-0.046186,-0.013276,0.0071922,-0.0061921,0.0032,-0.018305,0.0050081,-0.0019411,0.0010503,-0.019111,-0.029641,-0.053236,-0.010986,-0.033816,0.023525,0.1589,-0.0024745,-0.0019852,0.0034168,-0.030503,0.016075,-7.2679e-005
-0.0074411,-0.030652,-0.036971,-0.018309,0.0046139,-0.0046099,0.0016618,-0.021767,0.0035118,0.0030203,-0.0011311,-0.016597,-0.032931,-0.05019,-0.008498,-0.03004,0.029228,0.1493,-0.0014838,-0.0023405,0.00020543,-0.029465,0.016138,-0.0024108
-0.0013653,-0.03459,-0.027854,-0.019739,0.0045465,-0.0032328,-0.00074362,-0.022419,0.0047141,0.0083627,-0.00070385,-0.014353,-0.038102,-0.051081,-0.0062834,-0.029523,0.03035,0.13292,-0.0012714,-0.0050933,0.0015802,-0.025905,0.018319,-0.0046063
0.0050595,-0.037198,-0.022549,-0.016672,0.0051768,-0.0010855,-0.0023177,-0.02227,0.0058606,0.011746,0.0016048,-0.01378,-0.043446,-0.055654,-0.005996,-0.031833,0.027681,0.11174,-0.0029279,-0.0073551,0.0062239,-0.019226,0.0212,-0.0066319
0.0082063,-0.037166,-0.02177,-0.012047,0.0038675,0.0025244,-0.0027765,-0.023401,0.0036991,0.01296,0.0037669,-0.014251,-0.046428,-0.062293,-0.0078599,-0.034144,0.024266,0.087113,-0.0065197,-0.0070276,0.011514,-0.011199,0.021757,-0.0093742
0.0064515,-0.034557,-0.023623,-0.0095281,-0.00088554,0.0066034,-0.0027056,-0.026065,-0.0030317,0.013624,0.0041538,-0.014668,-0.045242,-0.068867,-0.01087,-0.034017,0.022605,0.059744,-0.010944,-0.0048107,0.015583,-0.0047339,0.018339,-0.01325
0.0020449,-0.030784,-0.025644,-0.010072,-0.0083721,0.0084963,-0.0021421,-0.028708,-0.012393,0.015356,0.0025557,-0.015078,-0.040203,-0.073383,-0.01378,-0.031352,0.022453,0.030483,-0.014429,-0.0035242,0.0182,-0.0019145,0.01235,-0.017234
-0.00032183,-0.027544,-0.026476,-0.011327,-0.016036,0.0058038,-0.00018124,-0.029686,-0.020238,0.018215,-0.00019502,-0.01661,-0.03397,-0.074386,-0.01592,-0.028072,0.021301,0.0012783,-0.015514,-0.0052908,0.020099,-0.0028258,0.0073384,-0.019263
0.0026062,-0.025672,-0.025963,-0.010232,-0.020937,-0.0011868,0.0037785,-0.028797,-0.022814,0.020778,-0.0033374,-0.019956,-0.030185,-0.071335,-0.017356,-0.026279,0.017127,-0.02477,-0.013948,-0.0092217,0.021775,-0.0057867,0.0063614,-0.017729
0.0096618,-0.02493,-0.024269,-0.0061911,-0.021388,-0.0088225,0.008588,-0.027162,-0.01928,0.021545,-0.0068333,-0.024186,-0.031233,-0.065045,-0.018566,-0.026715,0.010864,-0.044649,-0.010871,-0.01188,0.023009,-0.0084294,0.0098014,-0.012839
0.016035,-0.024775,-0.021381,-0.001761,-0.017849,-0.012241,0.011613,-0.025742,-0.01242,0.020235,-0.011038,-0.02726,-0.036655,-0.057812,-0.020101,-0.028598,0.0062017,-0.057218,-0.0080353,-0.010244,0.023358,-0.0087347,0.015306,-0.0067041
0.017393,-0.025128,-0.017563,-0.00020667,-0.01261,-0.0089902,0.010878,-0.024193,-0.0069515,0.017841,-0.015932,-0.027776,-0.043459,-0.052685,-0.022373,-0.030494,0.0067357,-0.064113,-0.0065405,-0.0045359,0.02286,-0.0056319,0.019705,-0.0020273
0.013749,-0.02624,-0.013927,-0.0023044,-0.008468,-0.0011631,0.0070828,-0.021292,-0.0064843,0.015647,-0.020806,-0.026194,-0.04823,-0.051864,-0.025413,-0.031283,0.012837,-0.068911,-0.0060857,0.0016986,0.022166,0.00072125,0.02122,-0.00037515
0.0095,-0.027788,-0.012065,-0.0054572,-0.0072077,0.0059256,0.0033135,-0.016466,-0.011171,0.014302,-0.024683,-0.024343,-0.049472,-0.055107,-0.028578,-0.030561,0.020947,-0.075006,-0.0053773,0.0044574,0.022052,0.00893,0.020264,-0.001295
0.0094808,-0.028303,-0.012788,-0.0060047,-0.0088266,0.0076565,0.0024512,-0.010784,-0.017692,0.013755,-0.026965,-0.023715,-0.0484,-0.059483,-0.030539,-0.02854,0.026005,-0.083791,-0.0033911,0.002668,0.022902,0.016881,0.018486,-0.0028429
0.01455,-0.025886,-0.015246,-0.0025977,-0.011968,0.0034739,0.0046446,-0.0063836,-0.021557,0.013808,-0.027644,-0.024197,-0.047602,-0.061057,-0.029938,-0.025677,0.025178,-0.094436,-0.00036699,-0.00081886,0.024627,0.022884,0.01718,-0.0030165
0.020805,-0.019864,-0.017464,0.002491,-0.015152,-0.0029945,0.0072585,-0.0049468,-0.020059,0.01446,-0.026952,-0.024349,-0.048762,-0.057597,-0.026448,-0.022286,0.020024,-0.10521,0.0024139,-0.0014928,0.026904,0.026845,0.016451,-0.0010268
0.023189,-0.011945,-0.017925,0.0053409,-0.017821,-0.006965,0.0073123,-0.0067348,-0.013881,0.015735,-0.024914,-0.022824,-0.05127,-0.050281,-0.021381,-0.018326,0.015407,-0.11499,0.0038994,0.0032015,0.029386,0.030457,0.015661,0.002356
0.020209,-0.0055327,-0.016657,0.0038463,-0.020442,-0.0059537,0.0040345,-0.010913,-0.0064688,0.01746,-0.021267,-0.019555,-0.052747,-0.042882,-0.017046,-0.013605,0.01591,-0.12378,0.0043498,0.011887,0.031726,0.03598,0.014459,0.0053854
0.015387,-0.003424,-0.014813,-0.00044101,-0.02376,-0.00085762,-0.00079191,-0.016457,-0.0018776,0.019507,-0.015762,-0.015779,-0.050853,-0.038857,-0.015134,-0.0083684,0.022354,-0.13197,0.0050829,0.020425,0.033528,0.044463,0.013314,0.0063213
0.014079,-0.0056209,-0.013245,-0.0036635,-0.028004,0.0057425,-0.0046717,-0.022449,-0.0025651,0.022214,-0.0085005,-0.013042,-0.044889,-0.03858,-0.015466,-0.0037624,0.030984,-0.13964,0.0070141,0.025062,0.034324,0.054966,0.013071,0.0042886
0.018586,-0.0091528,-0.011611,-0.0028972,-0.032736,0.011987,-0.0063196,-0.02761,-0.0082945,0.026125,-4.9106e-005,-0.012101,-0.036117,-0.038999,-0.016328,-0.0014747,0.035967,-0.14659,0.0094186,0.024849,0.033537,0.065522,0.013993,-0.0002397
0.026013,-0.010207,-0.0088901,0.0015685,-0.037301,0.017524,-0.005858,-0.030094,-0.016436,0.030881,0.0086541,-0.012456,-0.026889,-0.036079,-0.016245,-0.0025065,0.033365,-0.15282,0.010285,0.021508,0.030484,0.074942,0.015238,-0.0054585
0.030783,-0.0069107,-0.0046522,0.0066874,-0.041234,0.022348,-0.0036559,-0.028469,-0.023332,0.034392,0.016438,-0.012664,-0.019466,-0.028065,-0.015579,-0.0059836,0.023673,-0.15866,0.0081273,0.017309,0.02469,0.08363,0.015332,-0.0088908
0.029384,-0.00051948,0.00030968,0.0091348,-0.04417,0.025452,0.00035093,-0.023276,-0.026109,0.033701,0.022063,-0.01122,-0.015244,-0.016921,-0.016277,-0.009242,0.011134,-0.16387,0.00361,0.013185,0.0166,0.092556,0.013388,-0.0086473
0.023058,0.0058673,0.0045955,0.0075678,-0.04549,0.025095,0.0058648,-0.017457,-0.024197,0.027478,0.02451,-0.0076075,-0.014467,-0.0068881,-0.019752,-0.0095041,0.00058614,-0.16689,-0.00063318,0.0087813,0.0081341,0.10145,0.010179,-0.0046938
0.01622,0.0098407,0.0072986,0.0030559,-0.044344,0.020582,0.011074,-0.014616,-0.019708,0.018051,0.023375,-0.0030158,-0.016211,-0.0014787,-0.024775,-0.0059831,-0.0055225,-0.16541,-0.0019293,0.004068,0.0021815,0.10822,0.0081433,0.00087499
0.012441,0.011277,0.0084233,-0.0021051,-0.040273,0.013646,0.013058,-0.016235,-0.016239,0.010661,0.019147,-5.4717e-005,-0.018624,-0.0013277,-0.027529,-0.00061741,-0.0077613,-0.15821,0.00047017,0.00055072,0.00083638,0.11046,0.010122,0.0051373
0.011816,0.011804,0.0083767,-0.005843,-0.033913,0.0077229,0.010068,-0.020299,-0.016573,0.0099274,0.013061,-0.0011834,-0.019658,-0.0043317,-0.024222,0.0033862,-0.0080208,-0.14677,0.0051169,0.00054051,0.0035813,0.10781,0.017449,0.0065481
0.011846,0.012905,0.0073809,-0.0070536,-0.027023,0.005454,0.0036352,-0.022789,-0.020709,0.016297,0.0065444,-0.0066104,-0.018189,-0.0074613,-0.014287,0.0041522,-0.0074826,-0.13478,0.009843,0.0049781,0.0072386,0.1028,0.028597,0.0063061
0.010464,0.014545,0.005602,-0.0057057,-0.021633,0.0066078,-0.0018882,-0.020919,-0.025698,0.025662,0.0005797,-0.013351,-0.014838,-0.0084987,-0.0014201,0.0027136,-0.0061465,-0.12561,0.013424,0.011899,0.0082775,0.099118,0.039427,0.0074865
0.0080122,0.015495,0.0037045,-0.0027709,-0.018997,0.0084008,-0.0025018,-0.015293,-0.027617,0.032677,-0.0045606,-0.016752,-0.011666,-0.0065437,0.0086661,0.0021323,-0.0039395,-0.11993,0.015881,0.01723,0.0058052,0.098693,0.045203,0.012342
0.006448,0.014874,0.0028135,2.824e-005,-0.019145,0.0080258,0.0021834,-0.0091232,-0.024386,0.03492,-0.0090738,-0.013894,-0.010692,-0.0015717,0.012231,0.0047892,-0.0017947,-0.11564,0.017431,0.017531,0.002506,0.10006,0.043365,0.019954
0.0069976,0.013307,0.0035166,0.0010179,-0.021255,0.005128,0.0086021,-0.0053371,-0.017354,0.034253,-0.013155,-0.0062741,-0.012283,0.0059454,0.010171,0.010109,-0.0013116,-0.11027,0.017464,0.012471,0.0023153,0.099671,0.035298,0.026423
0.008828,0.01257,0.0048818,-0.00020232,-0.024255,0.0019593,0.012245,-0.004269,-0.010397,0.034406,-0.016739,0.00077967,-0.014731,0.014942,0.0072883,0.014732,-0.0033274,-0.10342,0.014797,0.0049771,0.0066242,0.095001,0.025683,0.027707
0.0099439,0.014033,0.0048489,-0.0020845,-0.027048,0.0010597,0.011385,-0.0038967,-0.0070672,0.037268,-0.019642,0.002011,-0.015412,0.023782,0.0086989,0.015139,-0.0070179,-0.096875,0.009007,-0.0010637,0.012472,0.08691,0.019518,0.02284
0.0091184,0.017308,0.0020606,-0.001961,-0.028409,0.0026285,0.0082569,-0.0020765,-0.0078939,0.041414,-0.0219,-0.0035367,-0.012607,0.031154,0.016093,0.010604,-0.010625,-0.092175,0.0014298,-0.0035946,0.014674,0.079204,0.018705,0.014779
0.0068132,0.020341,-0.0024906,0.0019253,-0.0271,0.0040913,0.0067895,0.0015247,-0.0098706,0.043946,-0.023898,-0.011627,-0.0065509,0.037609,0.026569,0.0040551,-0.013135,-0.088188,-0.0053154,-0.0034251,0.010318,0.075895,0.020785,0.0081206
0.0044113,0.020931,-0.0057939,0.0088408,-0.022524,0.0023759,0.0090886,0.005528,-0.0086333,0.043464,-0.026123,-0.016232,0.00095018,0.04641,0.034801,7.2526e-005,-0.015123,-0.081285,-0.0090246,-0.0028521,0.0017025,0.078479,0.021031,0.0056824
0.0029282,0.018473,-0.0051484,0.015974,-0.015434,-0.0031214,0.013778,0.0085547,-0.0017861,0.041063,-0.028723,-0.014389,0.0077773,0.062484,0.036874,0.0016679,-0.017775,-0.068354,-0.0093862,-0.0032831,-0.0050369,0.085388,0.016502,0.0068287
0.0026471,0.014497,-0.00049909,0.020655,-0.0078364,-0.0096336,0.017417,0.01064,0.009106,0.038528,-0.031255,-0.0082735,0.012545,0.089599,0.033034,0.008368,-0.020987,-0.050108,-0.0079274,-0.0040081,-0.0047037,0.093763,0.0088178,0.0087558
0.0037194,0.011539,0.0053747,0.022443,-0.0018525,-0.013149,0.017465,0.012964,0.019426,0.035899,-0.032809,-0.0027363,0.014899,0.12745,0.027479,0.016957,-0.022572,-0.031633,-0.0064359,-0.0031092,0.0027518,0.10171,0.0031849,0.0092395
0.0065184,0.011196,0.009051,0.023155,0.0016824,-0.011786,0.014129,0.01633,0.024723,0.03117,-0.032467,-0.00070797,0.015362,0.17064,0.02542,0.023999,-0.019683,-0.019382,-0.005209,0.000454,0.012128,0.10906,0.0041881,0.0082509
0.010961,0.012927,0.0091322,0.024831,0.0036477,-0.0074524,0.0097533,0.020059,0.023857,0.022576,-0.02983,-0.00076016,0.015223,0.21037,0.029491,0.027998,-0.011472,-0.016842,-0.0026906,0.0055604,0.017047,0.11626,0.011733,0.0072328
0.015581,0.014587,0.0071584,0.027612,0.0056474,-0.004258,0.0066031,0.022443,0.01969,0.011107,-0.025347,0.0010406,0.016397,0.23794,0.037964,0.029683,-0.00064654,-0.022225,0.0030739,0.009648,0.014772,0.12275,0.020576,0.0072017
0.01787,0.014289,0.0061889,0.02955,0.0084273,-0.0049963,0.0050861,0.022322,0.016783,0.00051638,-0.020171,0.0069913,0.020724,0.24811,0.045968,0.030658,0.0076966,-0.029879,0.012284,0.010822,0.0078596,0.12671,0.024,0.0077973
0.016164,0.012054,0.0084308,0.028526,0.011129,-0.0086843,0.0037969,0.020272,0.017893,-0.0054235,-0.015453,0.015414,0.028599,0.24063,0.048826,0.031873,0.0093872,-0.034166,0.022333,0.0094834,0.0015278,0.12628,0.018752,0.0081225
0.011467,0.0098274,0.013812,0.024382,0.012085,-0.011212,0.0011097,0.018314,0.021961,-0.0058813,-0.011387,0.02228,0.037849,0.2195,0.045198,0.033126,0.0042015,-0.032829,0.028866,0.0080209,-0.0007443,0.12133,0.007359,0.0081866
0.0071165,0.00985,0.020327,0.019263,0.010449,-0.0084876,-0.0031224,0.018421,0.025113,-0.0033721,-0.0067558,0.025007,0.044243,0.19082,0.037881,0.033628,-0.0037861,-0.027579,0.028299,0.0087789,0.00042476,0.11375,-0.0038101,0.0091674
0.006148,0.012766,0.025537,0.015923,0.0071677,0.00054791,-0.0071274,0.021104,0.02383,-0.0013299,0.00031123,0.024639,0.04401,0.16034,0.031794,0.032811,-0.008933,-0.021957,0.02001,0.012006,0.0017706,0.10612,-0.0089978,0.012114
0.008537,0.017125,0.028007,0.015646,0.0043801,0.01334,-0.0083461,0.025149,0.017824,-0.0012803,0.010579,0.024439,0.036827,0.13206,0.030679,0.030714,-0.0078945,-0.018459,0.0067057,0.015513,0.0009809,0.099791,-0.0065979,0.016539
0.010969,0.020656,0.027853,0.017624,0.0037411,0.025687,-0.0052925,0.028539,0.010412,-0.002235,0.022291,0.026564,0.026727,0.10814,0.034831,0.027871,-0.0017713,-0.017096,-0.0071337,0.016353,-0.0010293,0.094229,0.0004836,0.020576
0.0095571,0.022101,0.026326,0.020098,0.0051658,0.03438,0.0011994,0.029677,0.0061663,-0.0025209,0.031634,0.030242,0.019649,0.089579,0.041323,0.025042,0.0050366,-0.016121,-0.017488,0.013197,-0.001255,0.088127,0.0072908,0.022704
0.003172,0.021954,0.024848,0.021912,0.0070772,0.038516,0.0082647,0.028062,0.0076326,-0.0018084,0.035252,0.033082,0.019141,0.076903,0.046328,0.022962,0.0082993,-0.01398,-0.022291,0.0075231,0.0020092,0.081237,0.0099693,0.023259
-0.00558,0.021546,0.02411,0.02303,0.0078921,0.038974,0.012706,0.024219,0.013547,-0.0011449,0.032953,0.033838,0.02367,0.070061,0.047718,0.022074,0.0069586,-0.010872,-0.021591,0.0027225,0.0068311,0.075101,0.0076234,0.02402
-0.012544,0.021518,0.023779,0.023827,0.0073996,0.037139,0.012955,0.019276,0.01981,-0.0011674,0.02813,0.033622,0.027977,0.067712,0.046154,0.022299,0.0033183,-0.0087656,-0.01678,0.001841,0.0087365,0.071889,0.0022562,0.026145
-0.015309,0.021224,0.023067,0.024246,0.0068624,0.034145,0.0099056,0.014602,0.022438,-0.00076569,0.025163,0.03442,0.027495,0.066826,0.044152,0.02312,0.00050943,-0.0099538,-0.0096481,0.0056356,0.0044553,0.07234,-0.0026231,0.02859
-0.014676,0.019606,0.021755,0.023843,0.0078483,0.030958,0.0060036,0.011554,0.020322,0.0019898,0.025872,0.036691,0.022112,0.063496,0.044077,0.024065,-0.00031812,-0.015192,-0.0017198,0.012262,-0.0049756,0.074704,-0.0037731,0.028857
-0.013243,0.01655,0.020779,0.02259,0.01087,0.028659,0.0033515,0.011113,0.015792,0.0073992,0.028246,0.038741,0.015959,0.054876,0.046572,0.025175,-0.00047912,-0.022724,0.0060306,0.01862,-0.014577,0.075797,0.00038144,0.025598
-0.012735,0.013296,0.021655,0.021394,0.014943,0.028277,0.0023806,0.013423,0.012603,0.012823,0.028773,0.038515,0.013484,0.041035,0.050401,0.026853,-0.0016189,-0.028944,0.013137,0.022261,-0.019041,0.073368,0.0091935,0.02054
-0.012712,0.011454,0.025007,0.021581,0.018321,0.030257,0.0021547,0.017544,0.012874,0.014319,0.026268,0.035828,0.015391,0.025234,0.053503,0.029083,-0.0032901,-0.030383,0.019354,0.022633,-0.01654,0.067767,0.020265,0.017595
-0.011652,0.011604,0.02949,0.023731,0.019714,0.034129,0.0018917,0.021752,0.015356,0.010127,0.023449,0.032588,0.01817,0.012217,0.054292,0.03083,-0.0029068,-0.025786,0.02434,0.021097,-0.0096168,0.061509,0.030705,0.019637
-0.0090722,0.012858,0.032323,0.026974,0.019112,0.038777,0.0021549,0.024349,0.016405,0.0027895,0.024477,0.030769,0.017577,0.0055754,0.052309,0.030547,0.001681,-0.016886,0.027631,0.019988,-0.0026991,0.05717,0.038459,0.025839
-0.0064125,0.013743,0.031352,0.029438,0.017734,0.043071,0.004484,0.024505,0.012971,-0.0023314,0.030603,0.030352,0.012799,0.0059731,0.048034,0.027636,0.0095902,-0.0072472,0.02903,0.02132,0.0013364,0.055476,0.042927,0.032174
-0.0058146,0.013494,0.027004,0.029464,0.017238,0.046338,0.0097635,0.022601,0.0052238,-0.0012001,0.038124,0.029504,0.0074156,0.011242,0.042351,0.023512,0.017174,0.00014284,0.029052,0.02568,0.0026509,0.055107,0.04455,0.034819
-0.0081008,0.012517,0.022347,0.026573,0.018699,0.048414,0.016907,0.019916,-0.0032944,0.0055808,0.040972,0.026859,0.006308,0.017941,0.036178,0.020932,0.021261,0.0049096,0.028841,0.031747,0.0031873,0.054101,0.043877,0.033468
-0.011993,0.01175,0.020935,0.021542,0.021897,0.049414,0.023216,0.017954,-0.0081662,0.013194,0.035893,0.023443,0.011362,0.023047,0.030367,0.021835,0.022299,0.0094578,0.029386,0.036795,0.0043814,0.051383,0.041028,0.03151
-0.015324,0.01176,0.02412,0.015797,0.025318,0.04954,0.026242,0.017805,-0.007221,0.016445,0.025587,0.022037,0.019809,0.024784,0.025563,0.0255,0.024072,0.017032,0.030667,0.038203,0.0061148,0.047173,0.03602,0.032889
-0.017016,0.012506,0.030088,0.010737,0.026973,0.049056,0.025562,0.0198,-0.0018256,0.013736,0.016808,0.024392,0.026499,0.022576,0.021937,0.028888,0.029888,0.028959,0.031583,0.035262,0.007547,0.042251,0.029583,0.038488
-0.017923,0.013781,0.035422,0.0073706,0.025659,0.048334,0.023003,0.023454,0.0044911,0.0078777,0.014977,0.029046,0.027907,0.016757,0.019083,0.02907,0.038749,0.043077,0.030854,0.029975,0.0085028,0.037099,0.023456,0.045335
-0.019775,0.015555,0.0378,0.0061434,0.021898,0.047851,0.021179,0.027657,0.0086691,0.003301,0.020009,0.0321,0.024376,0.0084679,0.016453,0.025665,0.045357,0.054641,0.028055,0.025907,0.00976,0.031714,0.019616,0.049239
-0.023318,0.017669,0.037469,0.0067995,0.017755,0.048034,0.021666,0.031068,0.009743,0.0023452,0.026974,0.03049,0.019069,-0.00045514,0.014117,0.021104,0.044359,0.059308,0.02376,0.025568,0.011998,0.026007,0.018939,0.048392
-0.027406,0.019369,0.036349,0.0084046,0.015435,0.049023,0.024199,0.032657,0.0084231,0.0038638,0.030758,0.02482,0.015102,-0.0079847,0.013075,0.018486,0.035165,0.056206,0.018687,0.028234,0.014681,0.020109,0.020515,0.044625
-0.029851,0.01957,0.035841,0.0097653,0.015539,0.050431,0.027296,0.032155,0.0055904,0.0050414,0.030357,0.019082,0.013534,-0.012783,0.014543,0.019031,0.022986,0.048887,0.012845,0.030162,0.016188,0.014212,0.022434,0.041312
-0.029243,0.017991,0.03552,0.010127,0.016401,0.051328,0.029507,0.030086,0.0014735,0.0043657,0.028967,0.017385,0.013568,-0.014871,0.01866,0.02138,0.015104,0.043248,0.0057314,0.02738,0.015153,0.0082236,0.023511,0.04002
-0.02613,0.01601,0.033933,0.0095921,0.015334,0.050648,0.030252,0.027288,-0.0037624,0.0028647,0.03015,0.020518,0.014046,-0.01547,0.023861,0.023157,0.015616,0.043667,-0.0025617,0.019055,0.01173,0.0017654,0.02441,0.039102
-0.022654,0.015963,0.030523,0.008808,0.01108,0.047928,0.02983,0.024271,-0.0089815,0.0026304,0.033968,0.025294,0.014467,-0.015982,0.027771,0.023117,0.023023,0.049975,-0.010615,0.0086851,0.0076292,-0.0053481,0.027014,0.035532
-0.021003,0.019022,0.026591,0.0081642,0.0054521,0.043859,0.028912,0.021023,-0.012101,0.0043367,0.036846,0.027177,0.014799,-0.016778,0.029066,0.021883,0.032226,0.057527,-0.016371,0.0019111,0.004981,-0.012593,0.032467,0.028237
-0.021908,0.023499,0.024161,0.0073451,0.0024258,0.040011,0.028072,0.017525,-0.011518,0.0063428,0.035195,0.02389,0.014833,-0.01668,0.028653,0.020885,0.038591,0.060491,-0.01879,0.0024428,0.0050731,-0.018727,0.039633,0.019796
-0.024221,0.025506,0.023808,0.0058004,0.0049507,0.037639,0.027568,0.014497,-0.0076874,0.0062865,0.029178,0.017028,0.01417,-0.013539,0.028936,0.020863,0.040442,0.056047,-0.018793,0.0091965,0.0079184,-0.022394,0.04554,0.014837
-0.025743,0.02192,0.023679,0.003719,0.011944,0.036423,0.027323,0.013446,-0.0032007,0.0035435,0.022928,0.010573,0.012914,-0.0055125,0.0317,0.021432,0.038444,0.046395,-0.01836,0.016931,0.012665,-0.022876,0.047597,0.016419
-0.024702,0.013346,0.020887,0.0023898,0.018302,0.034351,0.026974,0.015625,-0.0010281,3.1087e-005,0.020956,0.0077765,0.012109,0.0078657,0.036462,0.021851,0.033475,0.037002,-0.018465,0.019989,0.018203,-0.020381,0.045727,0.023498
-0.020958,0.0043871,0.014167,0.0033082,0.018502,0.029217,0.026003,0.020641,-0.0022697,-0.0015572,0.024096,0.0090512,0.013149,0.025605,0.040839,0.021846,0.025577,0.032476,-0.017836,0.016338,0.02345,-0.015638,0.042455,0.031592
-0.016198,0.00063683,0.0053425,0.0066897,0.011204,0.020689,0.023988,0.026163,-0.0052903,-0.00044875,0.028741,0.012375,0.016536,0.046183,0.042658,0.02155,0.014859,0.033346,-0.013908,0.0088832,0.027381,-0.0092177,0.040758,0.036027
-0.0129,0.0046218,-0.0018371,0.010878,0.00095731,0.011146,0.020923,0.029385,-0.0069742,0.0012529,0.029976,0.015496,0.021214,0.068661,0.041953,0.020869,0.0029136,0.03626,-0.0052077,0.0031184,0.02909,-0.001215,0.041552,0.035028
-0.012641,0.013902,-0.0045041,0.013472,-0.0047814,0.0042572,0.017372,0.029264,-0.0051086,0.0004727,0.025693,0.017817,0.025346,0.092956,0.041128,0.019345,-0.0072183,0.037227,0.0069927,0.003004,0.028024,0.0084038,0.043123,0.030234
-0.014854,0.022841,-0.0027023,0.013332,-0.0012455,0.0022834,0.014321,0.027444,-5.4122e-005,-0.0036899,0.018059,0.020375,0.027959,0.11886,0.043184,0.016949,-0.012831,0.035009,0.019301,0.0082238,0.024181,0.019123,0.043075,0.02457
-0.017072,0.026594,0.00097784,0.011623,0.0098673,0.0043533,0.012701,0.026787,0.0054936,-0.0085512,0.011351,0.024123,0.029985,0.14456,0.049499,0.014907,-0.013438,0.031805,0.028511,0.014775,0.018165,0.029572,0.040995,0.019636
-0.016657,0.024219,0.003553,0.010794,0.021531,0.0072981,0.012847,0.02859,0.0083729,-0.0097484,0.0084401,0.028243,0.033582,0.16588,0.058816,0.01528,-0.010946,0.030922,0.033515,0.018174,0.01116,0.037952,0.039223,0.014916
-0.012793,0.018661,0.0035765,0.012304,0.026556,0.008358,0.01422,0.03111,0.0070456,-0.0050564,0.0090685,0.030153,0.040111,0.17737,0.067955,0.019229,-0.0079812,0.033786,0.035297,0.016642,0.004903,0.042895,0.040776,0.0093082
-0.0070957,0.013995,0.0014551,0.015215,0.022706,0.0073262,0.01566,0.030973,0.0024722,0.0031758,0.011001,0.027407,0.048427,0.17471,0.073464,0.025447,-0.0059473,0.039021,0.03539,0.011888,0.001454,0.043999,0.046274,0.0032533
-0.0022564,0.012343,-0.0015043,0.01699,0.013896,0.0061784,0.016059,0.026393,-0.0027174,0.0092587,0.012378,0.019994,0.055018,0.15713,0.073104,0.030468,-0.0045597,0.044165,0.034513,0.0072763,0.0025301,0.041696,0.052833,-0.00069858
0.00016836,0.012845,-0.0040178,0.01588,0.0068997,0.0066085,0.015006,0.019193,-0.0060487,0.0082626,0.012907,0.011109,0.056098,0.12843,0.066552,0.031011,-0.0030405,0.048104,0.032614,0.0051789,0.0085613,0.036813,0.056244,0.00038548
0.0008918,0.013118,-0.0050409,0.012725,0.0063726,0.0079303,0.012869,0.013558,-0.0066942,-0.0003033,0.013178,0.0055427,0.050175,0.095752,0.055312,0.026519,-0.0015466,0.051829,0.029898,0.0056449,0.018158,0.03046,0.054608,0.0072254
0.0019544,0.011613,-0.0037467,0.01048,0.011913,0.0074902,0.010257,0.01249,-0.0056395,-0.012204,0.013454,0.006679,0.039121,0.06696,0.042087,0.019702,-0.0012601,0.056981,0.027424,0.0070811,0.028593,0.024324,0.050044,0.017146
0.0046156,0.0087691,7.0614e-005,0.011795,0.018926,0.003296,0.0073571,0.015199,-0.0045677,-0.021723,0.013507,0.014188,0.026923,0.047655,0.029779,0.014544,-0.0030087,0.063934,0.026454,0.0079106,0.037123,0.020684,0.046818,0.025501
0.0080711,0.0062047,0.005404,0.01671,0.022156,-0.0036565,0.0038907,0.017921,-0.0044532,-0.025714,0.013537,0.024097,0.01704,0.039423,0.020402,0.013393,-0.0058597,0.071474,0.0272,0.0076834,0.042188,0.021449,0.04758,0.02877
0.01019,0.005005,0.010184,0.022488,0.019155,-0.009697,-0.00017693,0.017444,-0.0049819,-0.025286,0.014708,0.031243,0.010369,0.04001,0.014372,0.015422,-0.0072928,0.078388,0.028327,0.0069932,0.043673,0.026618,0.051213,0.026988
0.0095404,0.0048557,0.012523,0.025784,0.011444,-0.011316,-0.0038585,0.01403,-0.0051291,-0.024137,0.018243,0.032425,0.0052818,0.045326,0.010635,0.017493,-0.0050971,0.085169,0.027911,0.0067101,0.042297,0.033543,0.054178,0.023622
0.006783,0.004776,0.012122,0.025357,0.0029864,-0.0080238,-0.0052693,0.010968,-0.0042381,-0.025311,0.023781,0.028135,-0.00049706,0.052046,0.007645,0.016459,0.0005847,0.093853,0.02507,0.0073643,0.038954,0.038076,0.053829,0.022911
0.0041506,0.0045472,0.010464,0.023021,-0.002654,-0.0026978,-0.002882,0.011226,-0.002626,-0.029134,0.028828,0.021823,-0.0078041,0.059,0.004557,0.011101,0.0069702,0.10581,0.020865,0.0089792,0.034551,0.037066,0.050442,0.026614
0.0036026,0.0052317,0.0095125,0.021989,-0.0044494,0.00080794,0.0030283,0.014458,-0.0013085,-0.033656,0.030293,0.017373,-0.015402,0.066263,0.0017767,0.0025755,0.010562,0.11953,0.01761,0.011103,0.030047,0.030235,0.046241,0.032594
0.0054227,0.0081039,0.010142,0.023976,-0.0039861,0.00061466,0.010115,0.017279,-0.0012608,-0.036664,0.02699,0.016612,-0.021101,0.072701,0.00040387,-0.0064497,0.0097854,0.13065,0.017144,0.012855,0.026055,0.01989,0.042878,0.036332
0.0084799,0.01298,0.011767,0.027587,-0.0036904,-0.0021668,0.015349,0.016539,-0.0029078,-0.03731,0.020825,0.018463,-0.023487,0.074397,0.001013,-0.013137,0.0061559,0.13464,0.019387,0.013192,0.022141,0.0088444,0.040174,0.03432
0.011665,0.01768,0.013358,0.029483,-0.0047344,-0.0049566,0.01705,0.012446,-0.0061041,-0.036187,0.015514,0.020111,-0.022792,0.066117,0.0028009,-0.015621,0.003027,0.13022,0.022262,0.011563,0.016804,-0.0014122,0.03719,0.026825
0.014911,0.0194,0.014597,0.027436,-0.0063143,-0.0061428,0.015906,0.0085191,-0.010306,-0.034303,0.013901,0.019162,-0.020407,0.045397,0.0039103,-0.0137,0.0029752,0.12057,0.022984,0.0085625,0.0087956,-0.01069,0.033979,0.017863
0.018772,0.01695,0.015937,0.0226,-0.006785,-0.0062617,0.014138,0.0083788,-0.014594,-0.032205,0.016228,0.015312,-0.01779,0.015989,0.0027686,-0.0089214,0.0059573,0.11141,0.019822,0.0058444,-0.0010712,-0.018634,0.031675,0.012242
0.023131,0.011914,0.017677,0.018844,-0.0055043,-0.0071153,0.013605,0.012371,-0.017644,-0.029925,0.020684,0.01047,-0.015821,-0.012877,-0.0006374,-0.0039125,0.0096117,0.10736,0.013174,0.0050373,-0.0095617,-0.023726,0.030699,0.011806
0.026566,0.0076355,0.019276,0.019503,-0.0036146,-0.0098504,0.014474,0.017106,-0.018081,-0.027436,0.025375,0.0074062,-0.014906,-0.031821,-0.0046561,-0.0010536,0.011271,0.10934,0.0053329,0.0064707,-0.013098,-0.024073,0.029247,0.013807
0.027239,0.0068316,0.019789,0.024315,-0.003009,-0.013724,0.015464,0.018268,-0.015354,-0.024874,0.029642,0.0079076,-0.015304,-0.037491,-0.0071769,-0.0011558,0.0099738,0.11492,-0.00085391,0.0089335,-0.010861,-0.019238,0.024147,0.012877
0.024532,0.0097899,0.018985,0.029285,-0.0044844,-0.016497,0.015198,0.014125,-0.010571,-0.022278,0.033598,0.01166,-0.017037,-0.034606,-0.007163,-0.0030559,0.0069869,0.12083,-0.0035736,0.010831,-0.0060512,-0.011105,0.013574,0.0052956
0.019791,0.014483,0.017857,0.029815,-0.0069074,-0.016046,0.01338,0.006759,-0.0064039,-0.019298,0.036719,0.016512,-0.019451,-0.03202,-0.0052702,-0.0045229,0.0046718,0.12556,-0.0029389,0.011681,-0.0037408,-0.002696,-0.00107,-0.0076776
0.015326,0.018249,0.01791,0.024531,-0.0082651,-0.01198,0.010858,0.00026471,-0.0056484,-0.015394,0.037357,0.019875,-0.021068,-0.035899,-0.0031517,-0.0038716,0.004751,0.13008,-0.00074446,0.012427,-0.0068915,0.0040588,-0.016132,-0.020155
0.012573,0.019516,0.019883,0.01659,-0.0076334,-0.0061739,0.0087583,-0.0022544,-0.0091673,-0.010478,0.033981,0.020278,-0.020209,-0.045536,-0.0021816,-0.0010629,0.0072313,0.13653,0.00064136,0.01414,-0.013998,0.0094238,-0.028624,-0.025605
0.011162,0.018339,0.023133,0.01132,-0.0061691,-0.0018808,0.007596,-0.00045813,-0.014734,-0.0053742,0.027013,0.018077,-0.016125,-0.054916,-0.0026922,0.0025244,0.010537,0.14612,-0.00046019,0.016419,-0.020465,0.014754,-0.038154,-0.021522
0.0098046,0.015821,0.026216,0.012119,-0.0061422,-0.0018758,0.0070884,0.0036425,-0.017962,-0.0014933,0.019258,0.014924,-0.0097839,-0.058187,-0.004178,0.0053511,0.012543,0.15791,-0.0042559,0.017276,-0.022438,0.020267,-0.046036,-0.011203
0.0080433,0.013319,0.028045,0.017926,-0.0089034,-0.0066772,0.0066681,0.0073753,-0.015066,0.00019594,0.014166,0.012471,-0.0036228,-0.05416,-0.006004,0.0068656,0.011788,0.16896,-0.0094332,0.014898,-0.01965,0.023924,-0.052758,-0.0012528
0.0070362,0.01209,0.028566,0.024184,-0.013705,-0.013967,0.0061343,0.0089154,-0.0057042,0.00011366,0.013266,0.011267,-0.0002218,-0.046408,-0.0078584,0.0076163,0.0082521,0.17566,-0.013769,0.0097289,-0.014973,0.022619,-0.056638,0.0031459
0.0084552,0.013227,0.028479,0.026366,-0.018454,-0.019797,0.0058526,0.0078828,0.0062223,4.5766e-005,0.015094,0.010609,-0.00064072,-0.039718,-0.009678,0.0084279,0.0034084,0.17527,-0.015166,0.0046968,-0.011544,0.01472,-0.055173,0.001506
0.012532,0.017329,0.028422,0.023211,-0.021594,-0.021049,0.0063435,0.0051539,0.014637,0.0019488,0.016654,0.009349,-0.0034809,-0.036575,-0.011395,0.0095895,-0.00047454,0.16729,-0.012766,0.003034,-0.010365,0.0017344,-0.047631,-0.0025391
0.01725,0.023877,0.02837,0.017299,-0.023263,-0.0176,0.0076039,0.0022218,0.014989,0.0063808,0.016119,0.0069621,-0.0054702,-0.03658,-0.01296,0.010855,-0.0014853,0.1539,-0.0075972,0.005461,-0.010381,-0.012378,-0.036143,-0.0047751
0.019675,0.030981,0.027708,0.012835,-0.024614,-0.012527,0.008767,0.00032914,0.0070982,0.011843,0.014307,0.0040154,-0.0034815,-0.038427,-0.014651,0.012122,0.00084256,0.13936,-0.0022216,0.009319,-0.010378,-0.02367,-0.024121,-0.0037028
0.01831,0.036075,0.025863,0.012552,-0.026112,-0.0099633,0.0085274,-0.00027083,-0.0048313,0.01575,0.013597,0.0017238,0.0031975,-0.041755,-0.017263,0.0139,0.0051209,0.12825,0.00068148,0.010621,-0.010407,-0.030456,-0.013622,-0.000929
0.014292,0.03733,0.022981,0.016025,-0.026666,-0.012022,0.0062021,-0.00036052,-0.014945,0.016409,0.015326,0.0010082,0.012046,-0.046912,-0.021785,0.016922,0.0087287,0.1234,-6.4961e-007,0.0073704,-0.011348,-0.03368,-0.0042462,0.0011985
0.010284,0.034742,0.020099,0.020346,-0.024699,-0.017183,0.0026824,-0.00089818,-0.019273,0.014414,0.018153,0.0018241,0.018875,-0.053243,-0.028664,0.021195,0.0092542,0.12434,-0.0031093,0.0013032,-0.013369,-0.035449,0.005446,0.0021198
0.0081389,0.030033,0.018536,0.022364,-0.020216,-0.021516,0.00038149,-0.0019255,-0.017668,0.012178,0.018956,0.0032145,0.020875,-0.058214,-0.037183,0.025467,0.0059874,0.12751,-0.0061785,-0.0034383,-0.015205,-0.037235,0.015646,0.0033114
0.0076216,0.025479,0.018755,0.020768,-0.015738,-0.021833,0.0018715,-0.0023687,-0.013107,0.01191,0.015501,0.0039079,0.018775,-0.0588,-0.045512,0.027775,0.00052215,0.12798,-0.0074048,-0.0035495,-0.015129,-0.039235,0.024586,0.0062605
0.0073705,0.022644,0.019543,0.016698,-0.014812,-0.018151,0.007934,-0.001093,-0.0092221,0.013743,0.0085119,0.0029607,0.01612,-0.054081,-0.051547,0.026738,-0.0040527,0.12184,-0.0069779,0.0010014,-0.012626,-0.041028,0.030176,0.010464
0.0069438,0.021917,0.01841,0.012731,-0.019043,-0.013388,0.016442,0.0018028,-0.0079909,0.015681,0.0013361,0.00013723,0.016075,-0.046564,-0.05407,0.022574,-0.0050345,0.10791,-0.006578,0.007241,-0.0090094,-0.042421,0.032292,0.013639
0.0075981,0.022887,0.013346,0.011117,-0.026196,-0.01064,0.023157,0.0048925,-0.0090308,0.01539,-0.0024649,-0.0039243,0.0185,-0.040733,-0.053414,0.01705,-0.0019233,0.087894,-0.0075021,0.011694,-0.0063065,-0.043413,0.033244,0.014006
0.010768,0.024897,0.00482,0.012464,-0.031237,-0.010554,0.024236,0.0067689,-0.010539,0.012227,-0.0015372,-0.0077045,0.02009,-0.039827,-0.051091,0.012479,0.0031107,0.065355,-0.0092384,0.012894,-0.0054827,-0.043421,0.035699,0.012308
0.015791,0.027221,-0.0037513,0.015638,-0.029825,-0.011137,0.018878,0.0074417,-0.010801,0.0077513,0.0027063,-0.0091747,0.01761,-0.0435,-0.048574,0.010469,0.0066017,0.04412,-0.0099406,0.011933,-0.0056917,-0.040916,0.039895,0.011405
0.019549,0.028981,-0.0079182,0.018783,-0.021587,-0.0099804,0.010164,0.0082156,-0.0091339,0.0044269,0.0075681,-0.006772,0.011267,-0.048297,-0.046174,0.011182,0.0061819,0.027016,-0.0083618,0.010918,-0.0051688,-0.034362,0.042917,0.013658
0.018982,0.029307,-0.0053924,0.020631,-0.010606,-0.0066017,0.0032664,0.010104,-0.0058928,0.0038342,0.011125,-0.00061318,0.0048574,-0.050452,-0.042958,0.013391,0.0022747,0.015191,-0.0052225,0.010951,-0.0028227,-0.023896,0.041063,0.018527
0.014338,0.027854,0.0019959,0.02118,-0.0026921,-0.0026697,0.0020782,0.012525,-0.0019733,0.0059222,0.013206,0.0070432,0.0023485,-0.048638,-0.037845,0.015204,-0.0022657,0.0080783,-0.0024279,0.011423,0.00095205,-0.012123,0.033422,0.022706
0.0098069,0.025179,0.0093942,0.021335,-0.0015097,-0.00013279,0.0066029,0.013807,0.0016237,0.0096344,0.014816,0.012873,0.0040804,-0.04451,-0.030926,0.015135,-0.0043802,0.0039228,-0.00076722,0.011045,0.0048118,-0.002911,0.023407,0.022814
0.010321,0.022408,0.012418,0.021941,-0.0064015,0.00063618,0.013061,0.013049,0.0040023,0.013939,0.016859,0.014672,0.0063611,-0.040905,-0.023767,0.013004,-0.0031668,0.00067259,0.0014739,0.0094388,0.0076029,0.0011173,0.016584,0.01829
0.017041,0.020322,0.010248,0.023089,-0.013304,0.00077311,0.016705,0.011271,0.0045784,0.018186,0.019389,0.013037,0.0050272,-0.039481,-0.018324,0.010101,-0.00045477,-0.0031386,0.0071924,0.0076921,0.0089486,0.00034902,0.016415,0.011991
0.025701,0.018734,0.0057819,0.024233,-0.017799,0.0012318,0.015275,0.010472,0.0034322,0.021717,0.021859,0.011055,-0.00038839,-0.039781,-0.015406,0.0083384,0.00087192,-0.0079108,0.017332,0.0073024,0.0088919,-0.0023799,0.021544,0.0079909
0.029693,0.01691,0.002811,0.024909,-0.017942,0.0015351,0.010463,0.011499,0.0015563,0.023573,0.023828,0.012042,-0.0059849,-0.040189,-0.014084,0.008784,-0.00066139,-0.013027,0.028951,0.0085418,0.0072408,-0.0041954,0.027005,0.0084416
0.0255,0.014723,0.0027805,0.025278,-0.014996,0.00045812,0.0063243,0.013035,0.00056295,0.022962,0.025326,0.017064,-0.0071191,-0.039581,-0.012603,0.010653,-0.0039983,-0.017212,0.036739,0.009888,0.0035053,-0.0042942,0.028299,0.012023
0.015782,0.013309,0.0039682,0.02596,-0.011886,-0.0021216,0.00596,0.012934,0.0017742,0.020127,0.026537,0.024202,-0.0029425,-0.038082,-0.0099477,0.011689,-0.006673,-0.018931,0.037057,0.0092477,-0.0024026,-0.0039167,0.024743,0.015109
0.0073471,0.014255,0.0036569,0.027325,-0.010781,-0.0043923,0.0091703,0.010567,0.0052652,0.016613,0.027264,0.030067,0.0024864,-0.036442,-0.0066538,0.009864,-0.007057,-0.016873,0.030969,0.0059952,-0.0094207,-0.0044239,0.019301,0.01458
0.0057177,0.017828,0.0011531,0.028933,-0.011579,-0.0039697,0.012891,0.0077165,0.0096946,0.014389,0.026817,0.03227,0.0036273,-0.034923,-0.0041821,0.0051349,-0.0056703,-0.010687,0.023415,0.0019495,-0.015401,-0.0055409,0.015444,0.010087
0.0109,0.021958,-0.0012196,0.029653,-0.012225,-0.00022853,0.013912,0.0069787,0.013229,0.014454,0.024533,0.030904,-0.0017227,-0.032955,-0.0035047,-0.00022794,-0.0044734,-0.0017889,0.01914,0.00022276,-0.018141,-0.0055823,0.014202,0.0041438
0.017803,0.023363,-0.00014215,0.028388,-0.010441,0.0048086,0.011524,0.0092681,0.014914,0.01619,0.020463,0.028089,-0.010575,-0.029928,-0.004197,-0.003184,-0.0049662,0.0065479,0.01901,0.0027575,-0.016649,-0.0033747,0.014075,0.00020731
0.020653,0.020307,0.0054429,0.02486,-0.0055598,0.0080988,0.0079573,0.01298,0.015317,0.018071,0.015609,0.026269,-0.017374,-0.02626,-0.004807,-0.0021864,-0.0069214,0.010495,0.019986,0.0086233,-0.01171,0.0002369,0.013421,0.00029227
0.017492,0.014644,0.012802,0.019925,0.00083555,0.0082608,0.0063748,0.01566,0.01584,0.019079,0.011467,0.026653,-0.018549,-0.023557,-0.0041186,0.0016761,-0.0088122,0.007908,0.018562,0.014575,-0.0053914,0.0030426,0.012541,0.0038515
0.011172,0.011015,0.017139,0.015266,0.0058902,0.0067261,0.0082438,0.01642,0.017228,0.019471,0.0092059,0.028798,-0.014964,-0.023556,-0.0021982,0.0056197,-0.0093143,-0.00014307,0.014302,0.017443,4.9029e-005,0.0037591,0.013243,0.008511
0.006479,0.013351,0.015297,0.012629,0.0073816,0.0062138,0.012247,0.01662,0.018655,0.020242,0.0091062,0.031222,-0.010473,-0.026716,-0.00035883,0.0073864,-0.0083597,-0.010032,0.010174,0.016389,0.0031081,0.0035895,0.016497,0.011841
0.0061973,0.021393,0.0083961,0.012909,0.0051895,0.0079643,0.015501,0.01818,0.018302,0.021913,0.010561,0.032384,-0.0083446,-0.031728,-0.00011814,0.0068372,-0.0068594,-0.018153,0.0095902,0.013239,0.0034249,0.0052608,0.020823,0.012749
0.0093145,0.030307,0.0011757,0.015503,0.0012653,0.010359,0.015912,0.021346,0.015036,0.023909,0.012548,0.031458,-0.008922,-0.036359,-0.0020472,0.0056073,-0.0056064,-0.023275,0.013155,0.010836,0.0017178,0.010286,0.023258,0.011671
0.012387,0.034049,-0.0014742,0.018341,-0.0018733,0.010251,0.0137,0.024265,0.0097418,0.025132,0.014174,0.028677,-0.010295,-0.038869,-0.0054418,0.0052851,-0.0045932,-0.026614,0.018227,0.010932,-0.00052413,0.017121,0.021995,0.0098069
0.01242,0.029901,0.001986,0.018853,-0.0029538,0.0058353,0.010955,0.024748,0.005022,0.025084,0.014976,0.025192,-0.010807,-0.038869,-0.0090028,0.0059025,-0.0033922,-0.029651,0.021475,0.013289,-0.0016045,0.02216,0.018007,0.0082588
0.0087888,0.020439,0.0089594,0.015522,-0.0026246,-0.0015086,0.0097454,0.022358,0.003332,0.02433,0.014946,0.022421,-0.010736,-0.037141,-0.011842,0.0061434,-0.0020808,-0.031949,0.021802,0.016406,-0.00048235,0.022734,0.013989,0.0076159
0.0030073,0.011311,0.015072,0.0090364,-0.0024809,-0.0080003,0.01044,0.018705,0.0049889,0.023848,0.014356,0.021105,-0.01166,-0.034975,-0.013922,0.0049585,-0.0016164,-0.031199,0.020875,0.018927,0.0024209,0.019289,0.011683,0.0079052
-0.0029025,0.0067416,0.017548,0.0020609,-0.0033591,-0.010198,0.011603,0.015745,0.0077174,0.023976,0.013551,0.0207,-0.014425,-0.033718,-0.015643,0.0028899,-0.0031098,-0.025458,0.021046,0.020489,0.0051894,0.014692,0.01029,0.0086025
-0.0078047,0.006605,0.016814,-0.0024449,-0.0044994,-0.0074185,0.011501,0.013958,0.0082483,0.02411,0.012749,0.019686,-0.017956,-0.034651,-0.017152,0.001713,-0.0065388,-0.015382,0.022932,0.0215,0.0055411,0.011415,0.0075626,0.0087241
-0.011609,0.0074013,0.015302,-0.0032031,-0.0044031,-0.0019659,0.0099099,0.012293,0.0048368,0.023492,0.01193,0.016744,-0.020176,-0.038656,-0.018161,0.0027021,-0.010098,-0.0042633,0.024966,0.022369,0.002512,0.0093695,0.0024896,0.0072738
-0.014497,0.0059555,0.01483,-0.0013196,-0.0025969,0.0028073,0.0086226,0.0097976,-0.0012613,0.022246,0.01086,0.011864,-0.020099,-0.045424,-0.01848,0.0052265,-0.011009,0.0040911,0.025108,0.023016,-0.0026381,0.0063777,-0.0031475,0.0040379
-0.016241,0.002324,0.015025,0.00086229,-0.00056957,0.0049246,0.010068,0.0070806,-0.0066114,0.021517,0.0092665,0.0064225,-0.018941,-0.052846,-0.018641,0.007107,-0.0074714,0.007633,0.022839,0.023072,-0.0071938,0.0006658,-0.0059513,0.0001475
-0.016275,-0.00067606,0.014016,0.001734,-0.0008329,0.0048468,0.015024,0.0059379,-0.0082116,0.022448,0.0070598,0.0021377,-0.019041,-0.057631,-0.019808,0.0064903,-0.0003729,0.0066265,0.01958,0.022465,-0.0089281,-0.0071494,-0.0037728,-0.0022784
-0.014308,-0.00062253,0.010484,0.0014964,-0.0048048,0.0046122,0.021333,0.007444,-0.0059064,0.024973,0.0044044,-0.00012316,-0.021508,-0.057318,-0.022859,0.0035538,0.0066963,0.0024715,0.017409,0.021786,-0.0076367,-0.01442,0.0024391,-0.0014318
-0.010735,0.0018706,0.0050463,0.0015322,-0.011386,0.0059911,0.024909,0.010482,-0.0026426,0.027645,0.0015915,-0.00066656,-0.024827,-0.052357,-0.027387,0.0005082,0.0094877,-0.0036825,0.0175,0.021978,-0.0049994,-0.018661,0.009534,0.0028028
-0.0064127,0.0036185,-0.00022464,0.0029089,-0.017556,0.00912,0.022562,0.012306,-0.0022376,0.028761,-0.0011658,-0.00033076,-0.025864,-0.046334,-0.031628,-0.00010772,0.0059148,-0.011248,0.019649,0.023525,-0.0029785,-0.019418,0.014927,0.0084795
-0.0020657,0.0019447,-0.003502,0.0055508,-0.020538,0.012457,0.014534,0.010742,-0.0063242,0.027759,-0.0038013,0.00026211,-0.022503,-0.043662,-0.033572,0.0026166,-0.002457,-0.019573,0.02291,0.025787,-0.0022221,-0.01816,0.018631,0.012633
0.001987,-0.0026853,-0.0044551,0.0087103,-0.019726,0.013852,0.004689,0.0060084,-0.012885,0.025576,-0.0062761,0.00079994,-0.015639,-0.046262,-0.032461,0.0073186,-0.01152,-0.027443,0.026385,0.027196,-0.001815,-0.016563,0.022717,0.013075
0.0054835,-0.0070925,-0.0039673,0.011914,-0.016846,0.011885,-0.0019635,0.00051601,-0.01759,0.023678,-0.0084375,0.00090857,-0.0087463,-0.051977,-0.029427,0.011408,-0.017551,-0.033407,0.029383,0.026357,-0.00042244,-0.014967,0.028832,0.0097503
0.007671,-0.0084895,-0.0028053,0.01515,-0.014358,0.0067033,-0.0026084,-0.0030944,-0.01694,0.022718,-0.010036,0.00012682,-0.0053622,-0.056243,-0.026714,0.01284,-0.019616,-0.036557,0.031104,0.023278,0.0023255,-0.012417,0.036198,0.0047569
0.0073288,-0.0072359,-0.0006949,0.018129,-0.01355,2.7883e-005,0.0017181,-0.0038573,-0.010798,0.022112,-0.010864,-0.0014595,-0.0066003,-0.055811,-0.026124,0.011271,-0.019527,-0.036939,0.0306,0.019617,0.0054084,-0.0080983,0.04202,0.0010514
0.0036268,-0.0065275,0.0032169,0.01969,-0.013804,-0.0055578,0.0073017,-0.0027507,-0.0024334,0.020819,-0.010817,-0.0026766,-0.010692,-0.051427,-0.02801,0.0079473,-0.019605,-0.035219,0.027343,0.017486,0.0071595,-0.0026614,0.043923,0.00064413
-0.002826,-0.0092451,0.0089503,0.018423,-0.013438,-0.0077157,0.010631,-0.0014215,0.003798,0.018434,-0.0097971,-0.0018397,-0.014698,-0.047102,-0.031577,0.0047033,-0.020452,-0.032013,0.021952,0.017683,0.0064056,0.0018762,0.042196,0.0033917
-0.0097856,-0.014926,0.014793,0.014164,-0.011251,-0.005427,0.010624,-0.00083042,0.0052411,0.015498,-0.0076823,0.0016033,-0.016715,-0.046562,-0.035976,0.0029345,-0.020815,-0.027529,0.016306,0.018898,0.0030904,0.0036465,0.039777,0.0071317
-0.014458,-0.019742,0.018042,0.0088367,-0.0075701,0.00043653,0.0086248,-0.0010576,0.0021887,0.012801,-0.0045779,0.0058216,-0.016733,-0.049963,-0.040902,0.0031309,-0.019446,-0.021788,0.012716,0.018771,-0.0018864,0.0025402,0.039929,0.0091086
-0.015177,-0.019573,0.017059,0.0054434,-0.0041128,0.0074278,0.0066205,-0.0020767,-0.002978,0.010509,-0.0012135,0.0073131,-0.015814,-0.053763,-0.045988,0.004943,-0.016889,-0.015156,0.012624,0.015994,-0.0072146,0.00043662,0.043545,0.0077992
-0.012414,-0.013452,0.012982,0.0057696,-0.0028591,0.012733,0.0054679,-0.004246,-0.0076768,0.0080626,0.0010387,0.0035052,-0.014792,-0.053829,-0.049724,0.0074164,-0.01521,-0.0086867,0.015748,0.011554,-0.011609,-0.00028788,0.048347,0.0038992
-0.0083597,-0.0043621,0.0094095,0.0087932,-0.0047093,0.0147,0.00461,-0.0077191,-0.010483,0.0049037,0.00086415,-0.0047861,-0.013857,-0.048989,-0.049377,0.0091948,-0.015904,-0.0039759,0.020286,0.0078419,-0.014033,0.0011846,0.050623,-0.00025969
-0.0054615,0.0031585,0.0098768,0.011384,-0.0087552,0.013721,0.0031798,-0.011421,-0.011261,0.0012514,-0.0019528,-0.01336,-0.013088,-0.041852,-0.042589,0.0088419,-0.0181,-0.0025398,0.024062,0.0064014,-0.013932,0.0032429,0.048074,-0.0024622
-0.0050136,0.0064157,0.014887,0.010886,-0.012639,0.011738,0.0011747,-0.013055,-0.010539,-0.0018724,-0.0060695,-0.01748,-0.012913,-0.036261,-0.029554,0.0055013,-0.019011,-0.0050419,0.025842,0.0064625,-0.011572,0.0030116,0.041428,-0.002192
-0.0066798,0.0060688,0.020997,0.0073919,-0.013866,0.010614,-0.00047681,-0.010722,-0.0090241,-0.0033716,-0.0093072,-0.015417,-0.013697,-0.033744,-0.013764,-0.000278,-0.016357,-0.010783,0.0259,0.0057899,-0.0081983,-0.0013249,0.033594,-0.00080591
-0.0090121,0.0047802,0.023104,0.0036643,-0.011341,0.010566,-0.00092873,-0.0049433,-0.0075568,-0.0028605,-0.010121,-0.0097385,-0.014908,-0.032202,-0.00026066,-0.0062242,-0.010572,-0.017786,0.025507,0.0031004,-0.0055865,-0.0089927,0.027135,-0.00023128
-0.010423,0.0045577,0.018453,0.0026837,-0.0061159,0.009984,-0.000432,0.00099237,-0.0071266,-0.00085848,-0.0086364,-0.0051995,-0.015073,-0.027979,0.0074953,-0.0091982,-0.004783,-0.023533,0.025821,-0.00035117,-0.0050222,-0.017233,0.022236,-0.0013703
-0.010036,0.0052464,0.0091469,0.0049314,-0.00074988,0.0068771,-0.00030816,0.003156,-0.0084772,0.0016269,-0.0064079,-0.0049639,-0.012983,-0.019412,0.0096763,-0.0071126,-0.0025591,-0.02606,0.02713,-0.0017423,-0.0063788,-0.023528,0.016858,-0.0036006
-0.0081166,0.005272,0.00082425,0.0078328,0.0023936,0.00076694,-0.0018544,6.1932e-005,-0.011461,0.0036617,-0.005229,-0.0082676,-0.0091427,-0.0087015,0.0094244,-0.00073012,-0.0053497,-0.024868,0.029055,0.00056316,-0.0081832,-0.02748,0.0088598,-0.0056976
-0.0059363,0.0035803,-0.0017459,0.0079373,0.002717,-0.0066296,-0.0051651,-0.0060032,-0.014801,0.0047095,-0.0060929,-0.01135,-0.0058818,-0.00044288,0.01011,0.0062186,-0.011635,-0.02115,0.031395,0.0051315,-0.0088723,-0.030728,-0.0018115,-0.0071803
-0.0050296,0.00078322,0.0014242,0.0039996,0.0016252,-0.012562,-0.0089587,-0.010756,-0.01668,0.0047139,-0.0090651,-0.01069,-0.0056711,0.0019149,0.012859,0.0091874,-0.018254,-0.017177,0.034586,0.0084144,-0.008329,-0.035125,-0.012775,-0.0087431
-0.0060886,-0.0014748,0.0055434,-0.0017264,0.001221,-0.015225,-0.011611,-0.011362,-0.015837,0.0040919,-0.013753,-0.0057582,-0.0089973,-0.0013075,0.016287,0.0059978,-0.022658,-0.015168,0.039072,0.0078125,-0.0082753,-0.041024,-0.020973,-0.011385
-0.0082378,-0.0021053,0.0051241,-0.0051794,0.0025328,-0.014799,-0.012507,-0.0085271,-0.012338,0.0036048,-0.019516,0.00085217,-0.013736,-0.0064372,0.018291,-0.0013634,-0.024396,-0.016278,0.044005,0.0040078,-0.010888,-0.047287,-0.024973,-0.015125
-0.0094893,-0.0014636,-0.0012957,-0.0038045,0.0047727,-0.01275,-0.012508,-0.0053718,-0.0074825,0.003944,-0.025147,0.0056917,-0.01669,-0.0094511,0.018019,-0.0080071,-0.024939,-0.020233,0.046631,0.00032467,-0.016627,-0.052842,-0.025864,-0.018601
-0.0083473,-0.00073924,-0.0098852,0.0012989,0.0062416,-0.010239,-0.013113,-0.0042472,-0.00302,0.0051196,-0.028732,0.0069846,-0.015973,-0.0090294,0.016251,-0.0097637,-0.026267,-0.025776,0.043439,-0.00033783,-0.023246,-0.058013,-0.026162,-0.020017
-0.0053247,-0.00062909,-0.014783,0.0062076,0.0060124,-0.0073128,-0.015081,-0.0045474,-0.00026224,0.0061523,-0.028496,0.0054163,-0.012165,-0.0072367,0.014168,-0.0063686,-0.029306,-0.031552,0.03264,0.0018366,-0.027189,-0.064117,-0.02789,-0.018653
-0.0028019,-0.00074281,-0.012988,0.007269,0.0048154,-0.003592,-0.01781,-0.0036355,0.00046044,0.0055637,-0.02434,0.0029643,-0.007356,-0.0074563,0.011996,-0.0015572,-0.033229,-0.036838,0.016164,0.0037699,-0.02645,-0.071691,-0.031545,-0.015644
-0.0029477,-0.00032066,-0.0066512,0.003852,0.0043137,0.00045272,-0.020055,4.581e-005,-0.00010507,0.0025187,-0.018652,0.0012127,-0.0031854,-0.011416,0.0089278,9.6974e-005,-0.036013,-0.041699,-0.00066832,0.0022817,-0.022426,-0.079238,-0.036608,-0.013318
-0.0053917,0.00060884,-0.0010074,-0.0014757,0.005501,0.0032093,-0.021257,0.0047897,-0.00046729,-0.0022606,-0.015205,0.00066438,0.00025308,-0.017719,0.0042986,-0.0030158,-0.035868,-0.04654,-0.011978,-0.00314,-0.018912,-0.083949,-0.042715,-0.013592
-0.0070169,0.0010005,-1.5931e-005,-0.0052908,0.0077902,0.0031711,-0.022085,0.0066799,0.0008376,-0.0067268,-0.016614,0.0012303,0.003752,-0.022924,-0.0013043,-0.0083064,-0.032663,-0.051489,-0.014864,-0.010067,-0.018909,-0.083888,-0.050093,-0.016624
-0.0045615,-0.00013545,-0.0035438,-0.0060056,0.0096587,0.00056528,-0.023555,0.0030898,0.004226,-0.0089168,-0.022351,0.0028625,0.0074769,-0.024102,-0.0061537,-0.011325,-0.028334,-0.05609,-0.01111,-0.015425,-0.022018,-0.079551,-0.058785,-0.020703
0.0020319,-0.0024526,-0.0081904,-0.0046458,0.010161,-0.002387,-0.02559,-0.004612,0.0084288,-0.0085035,-0.029086,0.0053988,0.010249,-0.020778,-0.0086073,-0.0096073,-0.025826,-0.059614,-0.0057665,-0.018097,-0.024839,-0.07321,-0.067516,-0.023389
0.0087351,-0.0042417,-0.010535,-0.0033749,0.0097719,-0.003129,-0.02663,-0.011793,0.010975,-0.0071938,-0.033177,0.0078748,0.010382,-0.014808,-0.0082931,-0.0047125,-0.027129,-0.061749,-0.0036002,-0.019454,-0.024132,-0.06663,-0.07355,-0.023064
0.010325,-0.0039266,-0.0097425,-0.0034655,0.0097366,-0.0010162,-0.025031,-0.014211,0.0098472,-0.0075536,-0.03322,0.0084158,0.0072843,-0.0085846,-0.0062703,-0.00081895,-0.031759,-0.063144,-0.0059488,-0.021533,-0.01988,-0.059438,-0.07405,-0.019858
0.0048522,-0.0017462,-0.0075017,-0.0046446,0.01064,0.0018976,-0.021102,-0.01136,0.0052414,-0.011113,-0.030555,0.0053453,0.0022965,-0.0032627,-0.0042211,-0.0012115,-0.036931,-0.065264,-0.010199,-0.024761,-0.015446,-0.049897,-0.068111,-0.01545
-0.0042958,8.4054e-005,-0.005856,-0.0060831,0.011723,0.002398,-0.017674,-0.0065717,-9.3741e-005,-0.017179,-0.027513,-0.0012242,-0.0020068,0.0015206,-0.0034984,-0.0057033,-0.039447,-0.069486,-0.012116,-0.027417,-0.014652,-0.037532,-0.057955,-0.011992
-0.010869,-0.00091146,-0.0052065,-0.0075733,0.011694,-0.0011956,-0.018227,-0.0039481,-0.0025514,-0.023177,-0.025195,-0.0088459,-0.0034645,0.0063996,-0.0046871,-0.011022,-0.037933,-0.075997,-0.0091565,-0.027281,-0.018421,-0.025067,-0.048238,-0.010899
-0.010855,-0.0053222,-0.0042218,-0.0094587,0.010225,-0.0073893,-0.023892,-0.0050501,-0.00029809,-0.02619,-0.022856,-0.014051,-0.0015723,0.010901,-0.0076381,-0.013565,-0.033649,-0.083332,-0.0023062,-0.023826,-0.023985,-0.01757,-0.043746,-0.01219
-0.0057627,-0.011221,-0.0014622,-0.011531,0.0085469,-0.012294,-0.032014,-0.0082551,0.0052334,-0.024538,-0.019274,-0.014686,0.0025678,0.013402,-0.011583,-0.012055,-0.029255,-0.089043,0.0047926,-0.018884,-0.027291,-0.019129,-0.04686,-0.014645
-0.0011425,-0.015651,0.0029443,-0.012479,0.0084388,-0.012257,-0.037815,-0.010999,0.010291,-0.018487,-0.014578,-0.011441,0.0073304,0.012612,-0.015214,-0.0079955,-0.026615,-0.091177,0.0085248,-0.015187,-0.026354,-0.029725,-0.056378,-0.016596
-0.0016048,-0.01692,0.0070836,-0.010925,0.010479,-0.0063812,-0.037966,-0.01241,0.011505,-0.0099207,-0.01062,-0.0073333,0.011645,0.0092504,-0.016974,-0.0039347,-0.025526,-0.089515,0.0076569,-0.014141,-0.022638,-0.044947,-0.068428,-0.016919
-0.0067926,-0.015725,0.0086209,-0.0071814,0.013252,0.0028285,-0.033088,-0.01373,0.0081995,-0.0014566,-0.0094757,-0.0055647,0.01524,0.0062813,-0.015733,-0.0013019,-0.024362,-0.085634,0.0037004,-0.01484,-0.019473,-0.058869,-0.07882,-0.015727
-0.011884,-0.014302,0.0065891,-0.0036917,0.014347,0.01102,-0.027055,-0.016357,0.0025559,0.0044599,-0.011518,-0.0074403,0.01812,0.0072105,-0.011549,0.00032266,-0.021839,-0.081682,-0.00066202,-0.015094,-0.019178,-0.067758,-0.085243,-0.014381
-0.012099,-0.014537,0.0022145,-0.003251,0.012332,0.014565,-0.023769,-0.019767,-0.0022949,0.0062682,-0.014959,-0.011832,0.020046,0.013616,-0.0059434,0.0021979,-0.018169,-0.078854,-0.00357,-0.01344,-0.021471,-0.071728,-0.08787,-0.014651
-0.0070852,-0.016719,-0.001792,-0.0064725,0.0079801,0.012449,-0.02419,-0.021605,-0.0045142,0.0037769,-0.017377,-0.016355,0.020677,0.023819,-0.0014296,0.0049046,-0.014597,-0.076789,-0.004824,-0.010303,-0.024313,-0.073329,-0.088183,-0.017393
-0.0012589,-0.019735,-0.0029603,-0.011053,0.0037148,0.0064661,-0.025986,-0.019905,-0.0043774,-0.0017106,-0.017848,-0.019138,0.020208,0.033789,-0.00049891,0.007787,-0.011988,-0.074386,-0.0052295,-0.0074188,-0.026026,-0.074682,-0.087179,-0.021597
0.00012279,-0.022151,-0.0006517,-0.013832,0.0017739,-0.00015426,-0.025751,-0.015159,-0.0033551,-0.0078671,-0.017701,-0.019845,0.019706,0.039689,-0.0045351,0.0096995,-0.0099961,-0.0713,-0.0054452,-0.0062154,-0.02652,-0.075724,-0.084505,-0.024697
-0.0044448,-0.023105,0.0035088,-0.013815,0.0026634,-0.0046265,-0.021678,-0.010056,-0.002615,-0.012418,-0.019125,-0.019408,0.020523,0.040226,-0.013068,0.010142,-0.0076695,-0.068729,-0.0055728,-0.0067229,-0.026643,-0.074855,-0.07912,-0.02424
-0.011519,-0.022507,0.0066552,-0.013194,0.0050849,-0.0058771,-0.014596,-0.0070543,-0.0023248,-0.014331,-0.022826,-0.01896,0.023085,0.037181,-0.023656,0.0096391,-0.0047882,-0.068698,-0.0057689,-0.0079026,-0.026605,-0.070989,-0.070734,-0.019755
-0.015829,-0.020826,0.0065382,-0.015219,0.0072394,-0.004637,-0.0070032,-0.0061853,-0.0021001,-0.014341,-0.026877,-0.018951,0.026144,0.033813,-0.032608,0.0091309,-0.0024538,-0.072317,-0.006972,-0.008904,-0.0253,-0.064919,-0.060648,-0.013261
-0.014777,-0.01886,0.0030217,-0.020917,0.0083364,-0.002581,-0.0013033,-0.00526,-0.0017931,-0.014344,-0.027935,-0.019033,0.027367,0.032434,-0.036517,0.0091292,-0.0022025,-0.078472,-0.010641,-0.009942,-0.021312,-0.058764,-0.051255,-0.0077701
-0.010356,-0.01745,-0.0018072,-0.027881,0.0091103,-0.0012061,0.0013634,-0.0022826,-0.0016639,-0.015994,-0.023962,-0.018602,0.025019,0.033007,-0.03399,0.0095265,-0.0044235,-0.084129,-0.017406,-0.01197,-0.014648,-0.054179,-0.044712,-0.0049748
-0.0069801,-0.016964,-0.0050273,-0.032349,0.011016,-0.0011059,0.0013014,0.0023686,-0.0018409,-0.019487,-0.016246,-0.017454,0.019435,0.033784,-0.026492,0.010089,-0.0076116,-0.086117,-0.025817,-0.015541,-0.0074319,-0.051075,-0.041868,-0.0041906
-0.0074414,-0.016781,-0.0048161,-0.032537,0.014778,-0.0019025,-0.00015094,0.0061916,-0.001872,-0.023391,-0.0089649,-0.016053,0.013039,0.033368,-0.01752,0.010877,-0.0092577,-0.083033,-0.032616,-0.020015,-0.0027732,-0.047992,-0.042106,-0.0035149
-0.0107,-0.01544,-0.0015496,-0.029964,0.01938,-0.0026751,-0.0012033,0.0069851,-0.0011243,-0.025659,-0.0064496,-0.015309,0.0087979,0.032403,-0.010427,0.011961,-0.0076936,-0.075771,-0.03476,-0.023852,-0.0026602,-0.043653,-0.043876,-0.0020079
-0.013338,-0.011731,0.0026884,-0.027564,0.022311,-0.0025293,-0.00033917,0.0049829,0.00019067,-0.025064,-0.010137,-0.016048,0.0082993,0.03336,-0.0063804,0.012735,-0.0033637,-0.066336,-0.03175,-0.02571,-0.0065545,-0.038211,-0.045306,-0.0006312
-0.013083,-0.0059774,0.0057302,-0.026668,0.021045,-0.0010246,0.0028333,0.0025314,0.00050077,-0.022023,-0.017501,-0.01846,0.010929,0.038517,-0.0039568,0.011822,0.0014797,-0.056048,-0.026239,-0.025307,-0.011703,-0.033092,-0.044664,-0.00095786
-0.010992,-0.00023359,0.0067751,-0.026026,0.014978,0.0016393,0.0070444,0.0016477,-0.002223,-0.018238,-0.02381,-0.021788,0.014706,0.04784,-0.00066441,0.0080779,0.0043519,-0.044744,-0.022117,-0.023383,-0.014827,-0.02968,-0.040945,-0.0030718
-0.010305,0.0031568,0.0065609,-0.023833,0.006514,0.0046664,0.0097886,0.0019652,-0.0085753,-0.015414,-0.025424,-0.024506,0.017981,0.058691,0.0048549,0.0020109,0.0041533,-0.03168,-0.021418,-0.020969,-0.013974,-0.028074,-0.034643,-0.0050476
-0.013143,0.0035665,0.0062333,-0.02051,0.0002996,0.0069252,0.008808,0.001185,-0.016531,-0.014004,-0.022181,-0.025077,0.020565,0.067697,0.011678,-0.0039095,0.001748,-0.017271,-0.022616,-0.018741,-0.0094634,-0.026971,-0.02811,-0.0047848
-0.018259,0.0027619,0.0059625,-0.019094,0.00061012,0.0074245,0.0037618,-0.0023939,-0.022436,-0.01293,-0.017119,-0.022999,0.023419,0.073174,0.017295,-0.0068139,-0.00069174,-0.0039713,-0.021924,-0.016913,-0.0035722,-0.02468,-0.024627,-0.0023734
-0.022026,0.0033362,0.0045547,-0.022493,0.008347,0.0058861,-0.0032237,-0.0078119,-0.023795,-0.010557,-0.013829,-0.019436,0.02728,0.075922,0.019417,-0.0058964,-0.00096521,0.0047261,-0.016698,-0.015455,0.00074255,-0.020419,-0.026219,-0.00039115
-0.021808,0.0060991,0.00047149,-0.030198,0.019826,0.0031033,-0.008741,-0.011955,-0.021573,-0.006212,-0.013629,-0.016736,0.031499,0.07771,0.017414,-0.0036159,0.0020537,0.0065526,-0.008126,-0.014109,0.0014638,-0.014884,-0.031725,-0.0015597
-0.018593,0.0088658,-0.0065418,-0.037834,0.028708,0.00071774,-0.010279,-0.012189,-0.019699,-0.0010392,-0.014796,-0.016894,0.034204,0.078952,0.01244,-0.0041823,0.007967,0.0021832,-0.00074394,-0.012208,-0.0012974,-0.0097207,-0.037029,-0.0059797
-0.016362,0.0080546,-0.014634,-0.040308,0.030184,0.00032917,-0.0077911,-0.0086121,-0.021738,0.0025907,-0.014374,-0.019938,0.033732,0.077896,0.0064921,-0.010156,0.015103,-0.0049869,0.0010176,-0.0087956,-0.0052566,-0.00634,-0.03789,-0.010762
-0.0186,0.0019353,-0.020722,-0.035893,0.024469,0.0023948,-0.0035031,-0.003826,-0.02746,0.0027494,-0.010855,-0.023573,0.030143,0.072198,0.0013739,-0.019881,0.021253,-0.010832,-0.0035192,-0.003421,-0.0072822,-0.0049181,-0.033408,-0.012547
-0.024992,-0.0073689,-0.022611,-0.027574,0.01673,0.0057328,-0.00019887,-0.00057244,-0.032513,-0.00061638,-0.0054088,-0.024602,0.025445,0.061434,-0.0017464,-0.028155,0.024592,-0.012713,-0.010556,0.0028724,-0.0054197,-0.0042887,-0.027076,-0.010496
-0.031286,-0.015143,-0.020748,-0.020524,0.013132,0.0081868,0.0005894,0.00044057,-0.031888,-0.005663,-0.00076351,-0.021239,0.022224,0.048122,-0.0022553,-0.029966,0.02444,-0.010388,-0.01472,0.0074829,-0.00022473,-0.0028238,-0.024123,-0.0068881
-0.03259,-0.017757,-0.01805,-0.018025,0.015959,0.0081448,-0.00084429,0.00055153,-0.024335,-0.010044,0.0010608,-0.014542,0.021725,0.036162,-4.6902e-006,-0.024435,0.021542,-0.0053316,-0.013206,0.0077015,0.0056922,0.00029827,-0.027084,-0.0048507
-0.027331,-0.015634,-0.01768,-0.019368,0.021845,0.005792,-0.0032158,0.0012544,-0.013764,-0.012548,7.3292e-005,-0.0077735,0.023003,0.028056,0.0045356,-0.015668,0.017675,0.00062193,-0.0077376,0.0028848,0.009657,0.0043763,-0.033425,-0.0056078
-0.018529,-0.012874,-0.02043,-0.021207,0.024756,0.0030129,-0.0055092,0.0024707,-0.006173,-0.013675,-0.0022505,-0.0041252,0.023861,0.023424,0.010161,-0.0096783,0.014669,0.0061615,-0.0028066,-0.0044544,0.01085,0.0076257,-0.037523,-0.0078952
-0.011396,-0.013798,-0.023931,-0.020757,0.021329,0.0019077,-0.0075268,0.0027078,-0.0047145,-0.01481,-0.0045013,-0.0045162,0.022725,0.020065,0.015268,-0.009857,0.013326,0.010574,-0.0018524,-0.0098988,0.010523,0.0085146,-0.035475,-0.0098326
-0.0094101,-0.0194,-0.024597,-0.017864,0.013938,0.0031331,-0.009477,0.00080104,-0.0072744,-0.016829,-0.0062071,-0.0071532,0.019792,0.016445,0.01863,-0.014701,0.012916,0.013482,-0.0046428,-0.010127,0.010409,0.0069789,-0.028545,-0.011016
-0.012166,-0.026754,-0.020827,-0.014505,0.0087347,0.0055325,-0.011294,-0.0026546,-0.008697,-0.019307,-0.007412,-0.0090778,0.016493,0.013163,0.020079,-0.01956,0.011732,0.014817,-0.0078921,-0.005435,0.010922,0.0045045,-0.022122,-0.012572
-0.016473,-0.031774,-0.014689,-0.012678,0.010275,0.0074028,-0.012519,-0.0056922,-0.0055358,-0.020843,-0.0078168,-0.0084007,0.013922,0.012095,0.020485,-0.020673,0.0085177,0.015034,-0.0082752,0.0002977,0.010913,0.0029565,-0.021044,-0.015289
-0.019247,-0.03275,-0.010443,-0.012823,0.017489,0.0081976,-0.012838,-0.0067956,0.0010335,-0.020131,-0.0066837,-0.0054962,0.011811,0.014199,0.021027,-0.017934,0.0038504,0.015094,-0.0050984,0.0023499,0.0091441,0.0030962,-0.025406,-0.018085
-0.019431,-0.031512,-0.011026,-0.013935,0.024589,0.0089864,-0.012642,-0.0063192,0.0066597,-0.016943,-0.0036643,-0.0023886,0.0089746,0.018256,0.022365,-0.014171,0.00028632,0.0159,-0.00050053,-0.0014431,0.0058343,0.0040415,-0.030562,-0.01874
-0.017602,-0.031323,-0.015556,-0.014765,0.026097,0.011172,-0.012862,-0.0060573,0.0080417,-0.012411,0.0004504,-0.0010074,0.0046604,0.021792,0.024435,-0.012036,0.0008317,0.017559,0.0026061,-0.0092163,0.0025353,0.0041471,-0.031223,-0.016293
-0.014374,-0.033561,-0.02011,-0.014799,0.02142,0.014735,-0.0141,-0.0073314,0.0058997,-0.0084958,0.0040157,-0.0017427,-0.0006187,0.023252,0.026898,-0.011612,0.0066112,0.01916,0.0028034,-0.016559,0.00042387,0.0025533,-0.025965,-0.012541
-0.0097304,-0.036252,-0.021098,-0.01432,0.014884,0.017848,-0.01576,-0.0094298,0.0040778,-0.006961,0.0056836,-0.0033194,-0.005492,0.023236,0.029603,-0.010861,0.01551,0.019456,0.00077459,-0.019668,-0.0011135,5.4669e-005,-0.018224,-0.010776
-0.0039477,-0.035755,-0.018218,-0.013897,0.011392,0.018427,-0.016056,-0.0099715,0.0058955,-0.0083689,0.0053292,-0.0038966,-0.008766,0.023628,0.032403,-0.0081311,0.023102,0.017961,-0.0018634,-0.017728,-0.0038757,-0.0014889,-0.013135,-0.012669
0.0013603,-0.03003,-0.0144,-0.013948,0.011903,0.01622,-0.013095,-0.0070217,0.01127,-0.011666,0.0039575,-0.0024337,-0.0099537,0.025495,0.034485,-0.0040237,0.025498,0.015512,-0.0040834,-0.012948,-0.0085946,-0.00073656,-0.013212,-0.016336
0.0039087,-0.020621,-0.012996,-0.014545,0.012999,0.013366,-0.0063696,-0.0011416,0.017089,-0.014655,0.0028597,0.00066995,-0.008971,0.027836,0.034173,-0.00081329,0.022108,0.013808,-0.0059273,-0.0086037,-0.01332,0.0018501,-0.016654,-0.017743
0.0029808,-0.011692,-0.014906,-0.015281,0.0108,0.012726,0.0024794,0.0045173,0.020111,-0.015166,0.0028954,0.0039742,-0.0057542,0.028347,0.029942,-0.00020823,0.016185,0.014288,-0.0078282,-0.0067942,-0.014391,0.0040762,-0.019473,-0.014468
0.00089857,-0.0070471,-0.018186,-0.0152,0.0052982,0.01536,0.010348,0.0063687,0.019522,-0.012281,0.0043338,0.0059797,-0.00058374,0.025403,0.022105,-0.0018517,0.012613,0.017284,-0.0097782,-0.0074656,-0.0094974,0.0034234,-0.019208,-0.0083755
0.001598,-0.0075902,-0.020154,-0.013221,0.00079385,0.019377,0.014503,0.0031775,0.017003,-0.0068335,0.0069184,0.0059468,0.0051752,0.019372,0.013567,-0.0040047,0.014513,0.021976,-0.011252,-0.0090226,-0.00014603,-0.0012016,-0.016862,-0.0044657
0.0069824,-0.011119,-0.019794,-0.0091581,0.0019004,0.021196,0.014338,-0.0027688,0.014739,-0.00086093,0.0097567,0.0040908,0.0090511,0.012105,0.0084343,-0.0054906,0.021162,0.026952,-0.011808,-0.0097452,0.0089177,-0.0086003,-0.015576,-0.0066119
0.014397,-0.014288,-0.018259,-0.0045993,0.0088647,0.01821,0.011744,-0.0071281,0.013505,0.0036493,0.011321,0.0012161,0.0087871,0.0052371,0.0091318,-0.0067338,0.028713,0.030806,-0.011589,-0.0089288,0.013134,-0.015914,-0.017613,-0.013906
0.018107,-0.014979,-0.017355,-0.0024864,0.016693,0.01079,0.0096857,-0.0065696,0.012477,0.0058938,0.010206,-0.0018231,0.0041354,-0.0010097,0.014357,-0.0088385,0.033075,0.032521,-0.011174,-0.0071271,0.011551,-0.020405,-0.022489,-0.021035
0.014083,-0.013307,-0.01774,-0.0051302,0.019056,0.0021961,0.0099862,-0.0011581,0.010512,0.0065472,0.0065422,-0.004476,-0.0025891,-0.0075029,0.019852,-0.011838,0.032777,0.03175,-0.011078,-0.0055305,0.0072644,-0.021262,-0.027742,-0.022595
0.0040044,-0.010862,-0.018539,-0.012036,0.013562,-0.003436,0.011959,0.0056707,0.007423,0.0070655,0.0027465,-0.0065526,-0.0080319,-0.014866,0.021663,-0.014142,0.029766,0.029059,-0.011513,-0.004986,0.0044954,-0.020214,-0.031241,-0.017656
-0.0054023,-0.0091415,-0.018464,-0.019599,0.0037849,-0.0035787,0.013003,0.0094209,0.0041805,0.008521,0.0022732,-0.0080958,-0.010325,-0.022619,0.019199,-0.013915,0.027721,0.025808,-0.012628,-0.005316,0.004933,-0.020374,-0.03272,-0.010576
-0.007537,-0.0085401,-0.017125,-0.023408,-0.0036437,0.0012747,0.010699,0.0073862,0.0021428,0.010807,0.0067138,-0.009252,-0.010462,-0.029701,0.015409,-0.011002,0.029287,0.02343,-0.01475,-0.0054129,0.006612,-0.023981,-0.033243,-0.0072991
-0.001336,-0.0084703,-0.015264,-0.021517,-0.0043047,0.0080189,0.004756,8.7874e-005,0.0021486,0.012769,0.013623,-0.01024,-0.011257,-0.035797,0.013888,-0.0074199,0.03426,0.022499,-0.01814,-0.0041023,0.0062249,-0.030659,-0.033476,-0.010305
0.0078191,-0.0082018,-0.013882,-0.015875,0.00075574,0.012789,-0.0027768,-0.0094388,0.0040642,0.013137,0.01748,-0.011371,-0.014772,-0.042061,0.015521,-0.00582,0.039898,0.022504,-0.022369,-0.0011773,0.0025896,-0.037627,-0.032717,-0.01652
0.012582,-0.0075227,-0.013281,-0.010521,0.0061973,0.013106,-0.0091021,-0.017722,0.0068459,0.011523,0.013675,-0.012975,-0.020453,-0.05032,0.017749,-0.0073479,0.042891,0.022761,-0.026046,0.0022292,-0.0020316,-0.04187,-0.029677,-0.019898
0.0097159,-0.0067276,-0.012907,-0.0080712,0.0066829,0.0090749,-0.012664,-0.022793,0.0089757,0.0087035,0.0024217,-0.015154,-0.025611,-0.061395,0.017055,-0.010863,0.041478,0.023694,-0.027487,0.0043438,-0.0039951,-0.042583,-0.024071,-0.016409
0.0026321,-0.0061575,-0.012014,-0.0076509,0.00074098,0.002996,-0.013846,-0.024887,0.0091685,0.0060031,-0.010906,-0.017535,-0.027781,-0.074007,0.012287,-0.014088,0.036294,0.027063,-0.026011,0.0040522,-0.0017612,-0.041827,-0.017221,-0.0072611
-0.0015988,-0.0058792,-0.010348,-0.0061734,-0.0086088,-0.0022614,-0.013974,-0.025775,0.0071155,0.0043412,-0.019604,-0.019365,-0.026843,-0.085318,0.0056856,-0.015458,0.029657,0.034528,-0.022798,0.001733,0.0024789,-0.042794,-0.010917,0.0021665
0.0019549,-0.0058171,-0.0082262,-0.0017372,-0.016512,-0.0050558,-0.013749,-0.027365,0.0037581,0.0037717,-0.020492,-0.020107,-0.025056,-0.092667,0.00071345,-0.01501,0.024009,0.045613,-0.020385,-0.0011211,0.0045741,-0.047147,-0.0057183,0.0066368
0.01233,-0.0061011,-0.006028,0.0040921,-0.019874,-0.0058135,-0.012702,-0.03041,0.00069581,0.0038468,-0.015701,-0.020138,-0.025033,-0.095082,-0.001116,-0.013803,0.020613,0.057029,-0.020906,-0.0031839,0.0020097,-0.053767,-0.00057617,0.0050129
0.023717,-0.0071638,-0.0037242,0.0073189,-0.019192,-0.0064642,-0.010092,-0.033988,-0.00096604,0.0043501,-0.01009,-0.020809,-0.027459,-0.093462,-0.0013566,-0.012763,0.01912,0.064298,-0.024362,-0.0043197,-0.0038595,-0.059883,0.0056435,0.00076958
0.029929,-0.0094105,-0.00094624,0.0049593,-0.017548,-0.0089324,-0.0061935,-0.03603,-0.0013604,0.0056055,-0.0069684,-0.023454,-0.030535,-0.089585,-0.0026941,-0.012146,0.018012,0.064653,-0.028366,-0.0054167,-0.0088638,-0.063421,0.012224,-0.0011491
0.028447,-0.012749,0.0024621,-0.0022736,-0.017854,-0.013727,-0.0025262,-0.034671,-0.0014512,0.0080235,-0.0060748,-0.02794,-0.031573,-0.084976,-0.0059663,-0.011836,0.0155,0.05892,-0.029833,-0.0072412,-0.0094,-0.064379,0.016427,0.0015289
0.021193,-0.016401,0.00596,-0.010474,-0.02061,-0.019574,-0.00064668,-0.029689,-0.0018301,0.011351,-0.0052534,-0.032081,-0.029288,-0.080479,-0.0091333,-0.01183,0.010459,0.050886,-0.027426,-0.0095018,-0.0052565,-0.064158,0.015636,0.0065506
0.012294,-0.019136,0.0084056,-0.015718,-0.02381,-0.024342,-0.0006524,-0.023008,-0.0019541,0.014442,-0.0035334,-0.032777,-0.024795,-0.076428,-0.0092293,-0.012235,0.0030808,0.044634,-0.022846,-0.011097,0.00038646,-0.063789,0.0099829,0.008929
0.0052376,-0.019726,0.0087472,-0.017015,-0.024895,-0.026627,-0.00092406,-0.017658,-0.00069103,0.015902,-0.0022115,-0.028305,-0.020528,-0.072771,-0.0053735,-0.01286,-0.004961,0.041879,-0.019718,-0.011289,0.0035939,-0.062917,0.002851,0.0048824
0.0015251,-0.017369,0.0067854,-0.016511,-0.023056,-0.026811,0.00050254,-0.015694,0.0023174,0.015131,-0.0029765,-0.019977,-0.018106,-0.068836,0.00014435,-0.013037,-0.011038,0.041192,-0.02076,-0.010541,0.0026464,-0.060423,-0.0015144,-0.0051348
0.001026,-0.011989,0.0033737,-0.01705,-0.020017,-0.026716,0.0041255,-0.016607,0.0059103,0.012877,-0.0054362,-0.011656,-0.017075,-0.063221,0.0038149,-0.012038,-0.01274,0.039488,-0.025452,-0.010069,-0.001034,-0.055843,-0.0013366,-0.016555
0.0028851,-0.0043917,-0.00015638,-0.019545,-0.018689,-0.027977,0.0083985,-0.017674,0.0081766,0.01083,-0.0070501,-0.0072788,-0.015583,-0.054456,0.0040455,-0.0097477,-0.0092695,0.034497,-0.03024,-0.010537,-0.0045143,-0.050099,0.0013922,-0.023786
0.0059774,0.0038549,-0.002915,-0.022527,-0.020801,-0.030431,0.010948,-0.016283,0.0080988,0.010595,-0.0057801,-0.0082485,-0.0123,-0.042376,0.0024626,-0.0069237,-0.0022297,0.026405,-0.031337,-0.01133,-0.0059218,-0.044917,0.0028347,-0.023952
0.0089356,0.010942,-0.0049743,-0.024024,-0.025427,-0.031983,0.010506,-0.01241,0.0065015,0.012828,-0.0026849,-0.012663,-0.0077729,-0.029078,0.0021224,-0.0047507,0.0049349,0.017612,-0.027973,-0.011328,-0.0057216,-0.041647,0.00073993,-0.01864
0.010359,0.015574,-0.0070633,-0.0237,-0.029586,-0.030285,0.0078457,-0.0090135,0.0053813,0.017045,-0.0015173,-0.016918,-0.0039819,-0.018315,0.0043542,-0.004046,0.0088053,0.010996,-0.023323,-0.010464,-0.0057591,-0.040573,-0.0036553,-0.012571
0.00946,0.017439,-0.0097394,-0.02315,-0.030426,-0.024899,0.0049678,-0.0096844,0.0062689,0.021998,-0.0053947,-0.018353,-0.0025038,-0.013288,0.007266,-0.004794,0.0080762,0.00805,-0.022146,-0.010326,-0.0071417,-0.041051,-0.0068352,-0.010322
0.0066925,0.01698,-0.012821,-0.02419,-0.027268,-0.017963,0.0033734,-0.01536,0.0091284,0.026156,-0.013678,-0.016924,-0.0030121,-0.014371,0.0073319,-0.0063464,0.0043325,0.008182,-0.026933,-0.012844,-0.0090021,-0.041988,-0.0060956,-0.013419
0.0037115,0.014671,-0.015611,-0.026998,-0.021897,-0.012587,0.0029808,-0.023025,0.012631,0.028082,-0.022151,-0.014815,-0.0035387,-0.018666,0.002516,-0.0080391,0.00077855,0.0094546,-0.035757,-0.018087,-0.0093008,-0.042149,-0.0017284,-0.019714
0.0024654,0.010576,-0.01765,-0.029981,-0.016918,-0.010304,0.0025229,-0.027749,0.015245,0.026878,-0.026467,-0.01452,-0.0023258,-0.022006,-0.0060239,-0.0096873,-0.00021588,0.0099685,-0.043711,-0.023423,-0.0068973,-0.040371,0.0034838,-0.025243
0.0039495,0.004722,-0.019181,-0.031393,-0.013538,-0.0099465,0.00086775,-0.026464,0.015985,0.022804,-0.025717,-0.016927,0.00037588,-0.021971,-0.015142,-0.011634,0.0011897,0.0087902,-0.0468,-0.025235,-0.0028976,-0.036067,0.0067617,-0.027104
0.0074618,-0.0020395,-0.020831,-0.03091,-0.010645,-0.0090719,-0.0020172,-0.020203,0.014383,0.017688,-0.02293,-0.020771,0.0022077,-0.019487,-0.022436,-0.014436,0.0027767,0.0059276,-0.045012,-0.021964,9.8721e-005,-0.029918,0.0074605,-0.02532
0.010927,-0.0077617,-0.022896,-0.029533,-0.0060016,-0.006615,-0.0052294,-0.012856,0.010313,0.014381,-0.022214,-0.023672,0.00047394,-0.017677,-0.027723,-0.018454,0.002467,0.0017321,-0.041986,-0.015752,0.00028625,-0.023988,0.0070607,-0.022461
0.01218,-0.010373,-0.025104,-0.028078,0.0014116,-0.0041257,-0.0078726,-0.007688,0.0043505,0.015061,-0.025283,-0.023896,-0.0056601,-0.01892,-0.031951,-0.023522,0.00027843,-0.0035293,-0.041641,-0.011008,-0.001585,-0.020587,0.0073083,-0.021504
0.010432,-0.0093219,-0.027232,-0.026111,0.00995,-0.004218,-0.0097906,-0.0049482,-0.0016707,0.019333,-0.030411,-0.021553,-0.014327,-0.022635,-0.034998,-0.028737,-0.0017239,-0.0095655,-0.044779,-0.011001,-0.0026726,-0.020265,0.0084002,-0.023592
0.006942,-0.0063922,-0.029845,-0.022665,0.016165,-0.0076056,-0.011476,-0.0027312,-0.0050164,0.023819,-0.034437,-0.018458,-0.022087,-0.025697,-0.035014,-0.032522,-0.0014231,-0.015697,-0.048575,-0.015421,-0.00046246,-0.020481,0.008876,-0.02738
0.0042963,-0.0046416,-0.034064,-0.017982,0.017453,-0.011654,-0.013419,2.6411e-005,-0.0037576,0.024119,-0.035676,-0.016816,-0.026056,-0.025062,-0.030246,-0.033171,0.0012287,-0.02078,-0.049224,-0.020995,0.0049137,-0.016464,0.0071749,-0.03034
0.0046418,-0.0060634,-0.04016,-0.014156,0.01432,-0.012105,-0.015657,0.001753,0.0013793,0.018082,-0.035072,-0.017725,-0.025399,-0.020293,-0.02149,-0.029877,0.0038755,-0.023641,-0.045279,-0.024446,0.010508,-0.0042799,0.0032891,-0.030832
0.0080558,-0.009904,-0.046211,-0.013556,0.01022,-0.0066521,-0.017957,-0.00021802,0.0069891,0.0078263,-0.03483,-0.020547,-0.021284,-0.013822,-0.012381,-0.023631,0.0035087,-0.02371,-0.03878,-0.025042,0.012742,0.015867,-0.0010586,-0.029215
0.012322,-0.013245,-0.048509,-0.016388,0.0089361,0.0028024,-0.020357,-0.0061964,0.0094186,-0.0014647,-0.036141,-0.023534,-0.01568,-0.0088252,-0.0068315,-0.017136,-0.0012134,-0.021339,-0.033409,-0.024556,0.010143,0.038706,-0.0038527,-0.027167
0.014468,-0.013552,-0.044006,-0.019949,0.011585,0.011294,-0.023388,-0.012514,0.0078485,-0.0053921,-0.03822,-0.025124,-0.010155,-0.0066651,-0.0059006,-0.013395,-0.0089927,-0.017589,-0.031533,-0.024987,0.0044436,0.056498,-0.0044785,-0.025995
0.01304,-0.011059,-0.033043,-0.020677,0.015814,0.014432,-0.027694,-0.014008,0.0051762,-0.0038142,-0.039359,-0.024868,-0.0054838,-0.0061164,-0.0071177,-0.013763,-0.016922,-0.013761,-0.03265,-0.026447,-0.00074143,0.063627,-0.0041025,-0.025579
0.0093543,-0.0088019,-0.019889,-0.017261,0.01787,0.01144,-0.033365,-0.0087816,0.0055631,-0.00092272,-0.038692,-0.023342,-0.0020193,-0.0049094,-0.0069047,-0.016958,-0.02249,-0.011029,-0.03428,-0.027255,-0.0024652,0.059934,-0.0044203,-0.024912
0.0066083,-0.010107,-0.010165,-0.011843,0.015761,0.0051459,-0.039623,-0.00073278,0.01062,-0.0016464,-0.036873,-0.021279,-9.0109e-005,-0.0020901,-0.0037033,-0.019974,-0.024911,-0.010309,-0.03418,-0.026003,-0.00026448,0.050305,-0.0059763,-0.023569
0.007406,-0.015615,-0.0069495,-0.0081186,0.010816,-0.00078879,-0.045163,0.0030589,0.0177,-0.0073317,-0.035121,-0.018826,7.1147e-005,0.00094527,0.0011549,-0.020312,-0.024967,-0.012056,-0.031937,-0.023434,0.0038939,0.040877,-0.0076572,-0.022497
0.01165,-0.022459,-0.0087367,-0.0081388,0.0064535,-0.0048213,-0.048849,-0.0017495,0.02202,-0.014423,-0.033823,-0.015626,-0.0012839,0.0016376,0.0053713,-0.017771,-0.023942,-0.015779,-0.028864,-0.022194,0.0071595,0.034834,-0.0078542,-0.023186
0.016567,-0.026387,-0.011023,-0.010839,0.0054183,-0.0081477,-0.050254,-0.012744,0.020795,-0.017349,-0.032238,-0.011552,-0.003333,-0.001395,0.0081419,-0.014358,-0.022774,-0.019567,-0.02666,-0.024537,0.0075526,0.03098,-0.0062094,-0.026005
0.018918,-0.02507,-0.010206,-0.013491,0.0079566,-0.012744,-0.049692,-0.022452,0.015703,-0.013177,-0.029569,-0.0072677,-0.005228,-0.006933,0.010633,-0.012485,-0.021959,-0.020303,-0.026086,-0.030049,0.0048406,0.025879,-0.0042713,-0.029462
0.017548,-0.019795,-0.0064738,-0.014393,0.012227,-0.018867,-0.047865,-0.024505,0.011454,-0.0040709,-0.026146,-0.0039709,-0.0068461,-0.011941,0.014292,-0.013048,-0.021749,-0.01502,-0.026634,-0.03546,0.00027437,0.01741,-0.0043661,-0.031358
0.014099,-0.014209,-0.0032347,-0.014068,0.016121,-0.024379,-0.045423,-0.018902,0.011826,0.0044335,-0.023337,-0.0025057,-0.0089006,-0.013977,0.019121,-0.01495,-0.022015,-0.0028579,-0.027173,-0.036839,-0.0043851,0.0066283,-0.0076381,-0.030856
0.011302,-0.011344,-0.0037627,-0.014048,0.01861,-0.026479,-0.042724,-0.011781,0.016673,0.007707,-0.022186,-0.0027571,-0.012054,-0.013215,0.023825,-0.016259,-0.021889,0.013759,-0.026921,-0.032473,-0.0078904,-0.003489,-0.013012,-0.029407
0.010465,-0.01151,-0.0081466,-0.014876,0.019646,-0.024206,-0.039865,-0.010032,0.022349,0.0052086,-0.022193,-0.003964,-0.015738,-0.012344,0.027519,-0.015779,-0.01994,0.029892,-0.02597,-0.024209,-0.010039,-0.010946,-0.018007,-0.029447
0.010458,-0.012685,-0.013237,-0.015577,0.019317,-0.01943,-0.03691,-0.0156,0.024858,0.00015567,-0.021593,-0.0056445,-0.017953,-0.014315,0.030866,-0.013713,-0.01526,0.040626,-0.025093,-0.016281,-0.011461,-0.016413,-0.020664,-0.031957
0.0090944,-0.012716,-0.015426,-0.015053,0.017557,-0.015426,-0.034131,-0.024332,0.022877,-0.0035426,-0.018952,-0.0081256,-0.016616,-0.019743,0.035273,-0.011164,-0.0086838,0.043702,-0.025093,-0.012551,-0.012828,-0.0221,-0.020885,-0.035234
0.0054761,-0.011176,-0.013561,-0.013648,0.014706,-0.014269,-0.032055,-0.029925,0.01838,-0.0041679,-0.014569,-0.011996,-0.011489,-0.026145,0.040972,-0.0093068,-0.0028188,0.040342,-0.026218,-0.014134,-0.014056,-0.028994,-0.020101,-0.036184
0.00096346,-0.0093036,-0.0093769,-0.013012,0.011985,-0.015294,-0.031197,-0.029089,0.014858,-0.0026216,-0.010328,-0.016918,-0.0048395,-0.029682,0.046147,-0.009006,-0.00044193,0.033688,-0.028029,-0.018931,-0.014169,-0.035301,-0.019793,-0.033062
-0.0021834,-0.0083993,-0.0054114,-0.014384,0.010947,-0.015911,-0.031618,-0.023459,0.014915,-0.00065915,-0.0081886,-0.021045,0.00010611,-0.028044,0.048211,-0.010835,-0.0024167,0.026227,-0.02973,-0.02321,-0.012075,-0.037855,-0.02034,-0.027116
-0.0030545,-0.0084081,-0.0026797,-0.017172,0.012243,-0.014069,-0.032647,-0.017203,0.018882,0.00092829,-0.0087066,-0.021902,0.0017719,-0.022158,0.046095,-0.01489,-0.006931,0.018319,-0.030644,-0.024013,-0.0077037,-0.035386,-0.02117,-0.021576
-0.0028708,-0.0080861,-0.00038666,-0.019432,0.015021,-0.01026,-0.03313,-0.013157,0.024882,0.0024597,-0.010795,-0.018275,0.0014998,-0.015405,0.041322,-0.020266,-0.01081,0.0088843,-0.030494,-0.020827,-0.0025494,-0.030517,-0.021728,-0.018918
-0.0034512,-0.0064753,0.0023439,-0.019759,0.017756,-0.0073578,-0.032163,-0.011113,0.029874,0.0041128,-0.01268,-0.011518,0.0021102,-0.011097,0.03683,-0.024899,-0.011857,-0.0026413,-0.029317,-0.015551,0.0010101,-0.028305,-0.022068,-0.018927
-0.0049863,-0.0041515,0.0048053,-0.018587,0.019715,-0.0083507,-0.029811,-0.0092862,0.031131,0.0049897,-0.013071,-0.0049814,0.0049858,-0.010295,0.034649,-0.026515,-0.010331,-0.01499,-0.02718,-0.011011,0.0012682,-0.032291,-0.022455,-0.019302
-0.0055685,-0.0029602,0.0050101,-0.017567,0.021482,-0.013812,-0.027172,-0.0068706,0.027716,0.0036982,-0.011741,-0.0017991,0.008527,-0.011612,0.034534,-0.024315,-0.0084971,-0.025533,-0.023975,-0.0091681,-0.00153,-0.041455,-0.022691,-0.018038
-0.0031613,-0.0044293,0.001708,-0.017816,0.023903,-0.021233,-0.025589,-0.0049665,0.021271,-0.00012565,-0.0094219,-0.0027338,0.0096631,-0.01285,0.034616,-0.019936,-0.0087844,-0.031955,-0.019501,-0.010212,-0.0052501,-0.050838,-0.022203,-0.015185
0.001916,-0.0083016,-0.0039796,-0.018959,0.0266,-0.026841,-0.025512,-0.0051801,0.015323,-0.005035,-0.0073876,-0.0058731,0.0070889,-0.012914,0.033256,-0.016524,-0.012051,-0.033562,-0.013816,-0.012958,-0.0073745,-0.05528,-0.020969,-0.012348
0.0066232,-0.012543,-0.0090955,-0.019951,0.027775,-0.028432,-0.025946,-0.0076322,0.013042,-0.0087078,-0.0069267,-0.0084056,0.0030047,-0.012406,0.030369,-0.0164,-0.017073,-0.031258,-0.0075463,-0.01596,-0.006906,-0.052936,-0.020084,-0.010669
0.0075561,-0.014875,-0.011208,-0.020599,0.025685,-0.026818,-0.025054,-0.01051,0.014796,-0.0098289,-0.008715,-0.0089151,0.0014154,-0.012711,0.027198,-0.019288,-0.021364,-0.02662,-0.0018058,-0.018338,-0.0051979,-0.04549,-0.02091,-0.0095885
0.0038794,-0.014554,-0.010439,-0.021919,0.020323,-0.024665,-0.021572,-0.011578,0.017541,-0.00916,-0.012273,-0.0082291,0.0043893,-0.014618,0.024974,-0.0227,-0.022599,-0.021178,0.0024191,-0.019767,-0.0049219,-0.035261,-0.023313,-0.0077991
-0.0019749,-0.012917,-0.0092509,-0.024755,0.013528,-0.023775,-0.015908,-0.010124,0.016972,-0.0087865,-0.015966,-0.0082156,0.0098298,-0.017739,0.023757,-0.024183,-0.019825,-0.016358,0.0050967,-0.01994,-0.0077804,-0.022312,-0.024923,-0.0053438
-0.0065197,-0.012225,-0.010125,-0.028174,0.0074414,-0.023349,-0.010004,-0.007533,0.011006,-0.01023,-0.017794,-0.0097904,0.013045,-0.021002,0.02237,-0.023388,-0.013948,-0.013483,0.0075236,-0.018353,-0.012679,-0.0046117,-0.022724,-0.0043825
-0.008229,-0.013792,-0.013199,-0.029601,0.0029834,-0.020906,-0.0060098,-0.0060723,0.0017581,-0.013105,-0.016567,-0.012006,0.010853,-0.023533,0.01939,-0.02209,-0.007334,-0.013142,0.011729,-0.014841,-0.015968,0.018845,-0.015987,-0.0073364
-0.0085773,-0.016945,-0.015964,-0.026966,-1.6686e-005,-0.015047,-0.0048737,-0.0070586,-0.0058064,-0.015426,-0.012553,-0.012943,0.0045358,-0.025083,0.014365,-0.022171,-0.0027091,-0.014281,0.01908,-0.010405,-0.013919,0.045052,-0.0077196,-0.013921
-0.010311,-0.019703,-0.015359,-0.020935,-0.0013597,-0.007404,-0.0059823,-0.0099291,-0.0075846,-0.015198,-0.0070756,-0.011408,-0.0010763,-0.02583,0.0083532,-0.023436,-0.0018096,-0.014276,0.029008,-0.0073206,-0.0057578,0.067269,-0.0027518,-0.020147
-0.014737,-0.020584,-0.010503,-0.014907,0.00032409,-0.0017352,-0.0080257,-0.012796,-0.0033982,-0.011925,-0.0014443,-0.0078085,-0.0015838,-0.025992,0.0033872,-0.0233,-0.0044815,-0.010708,0.038931,-0.0079371,0.0051453,0.078728,-0.0036655,-0.02091
-0.020507,-0.019928,-0.0037884,-0.01244,0.0063246,-0.00078877,-0.010139,-0.013873,0.0030727,-0.0069445,0.003796,-0.0035795,0.0033873,-0.025684,0.001222,-0.018789,-0.0088064,-0.0037482,0.045631,-0.012823,0.013143,0.076766,-0.0082189,-0.014396
-0.024755,-0.019512,0.00063179,-0.014264,0.015557,-0.003776,-0.012229,-0.012686,0.0072947,-0.0024982,0.0086765,2.9106e-005,0.0099843,-0.024998,0.0022307,-0.0093301,-0.012285,0.003071,0.047238,-0.019742,0.014074,0.064085,-0.010977,-0.0043981
-0.025344,-0.020743,-0.00017802,-0.017604,0.023859,-0.0069034,-0.014353,-0.010289,0.0072377,-0.00036379,0.013037,0.0025451,0.013277,-0.024035,0.00529,0.0019426,-0.01338,0.0050134,0.04436,-0.024633,0.0081208,0.046423,-0.0080861,0.0019941
-0.022299,-0.023132,-0.0058182,-0.01853,0.026401,-0.0066263,-0.016026,-0.0084526,0.004425,-0.00095036,0.016096,0.0039087,0.010959,-0.022824,0.008759,0.0096213,-0.01237,-6.6288e-005,0.03953,-0.024251,-0.00044132,0.028921,-0.00098696,-0.00010638
-0.017574,-0.024584,-0.012916,-0.01535,0.021658,-0.0027224,-0.016387,-0.0083464,0.0021448,-0.0033027,0.016861,0.0039342,0.0046495,-0.021372,0.011739,0.0094623,-0.010913,-0.0094053,0.035405,-0.01866,-0.0063492,0.014173,0.0045041,-0.0091866
-0.013704,-0.023383,-0.017661,-0.010126,0.013392,0.0015925,-0.015119,-0.0096166,0.0026387,-0.005838,0.014967,0.0024469,-0.0018865,-0.019968,0.014505,0.0014747,-0.01068,-0.016754,0.033111,-0.011576,-0.0068143,0.0028764,0.0032015,-0.018217
-0.012379,-0.020017,-0.018526,-0.0070373,0.0083833,0.0025447,-0.013061,-0.010617,0.0056477,-0.007287,0.011104,-6.3281e-005,-0.0057527,-0.019456,0.017736,-0.0096839,-0.012175,-0.016731,0.031883,-0.0080394,-0.002743,-0.004466,-0.0047271,-0.020185
-0.013619,-0.016956,-0.017128,-0.0090452,0.011294,-0.0010126,-0.011665,-0.0098191,0.0092337,-0.0072951,0.0066578,-0.0022516,-0.0066702,-0.020986,0.021373,-0.017569,-0.014643,-0.0087033,0.03013,-0.010947,0.0028058,-0.0069973,-0.013609,-0.013779
-0.015756,-0.01641,-0.016646,-0.015637,0.02082,-0.0069205,-0.01165,-0.0073845,0.011772,-0.0064049,0.0029746,-0.0027596,-0.006381,-0.025219,0.024333,-0.018203,-0.016963,0.0029338,0.027068,-0.018985,0.0071649,-0.0046185,-0.016939,-0.0043758
-0.016285,-0.01817,-0.01913,-0.023349,0.030425,-0.011846,-0.012152,-0.0054411,0.013215,-0.0055257,0.00087592,-0.001422,-0.0066461,-0.031594,0.025502,-0.012612,-0.018537,0.012222,0.023788,-0.027532,0.009396,0.00077575,-0.012792,0.00056806
-0.01342,-0.019728,-0.02385,-0.028352,0.03318,-0.013942,-0.011354,-0.006442,0.014647,-0.0053099,0.00056218,0.00044719,-0.007699,-0.038414,0.025016,-0.0056775,-0.019317,0.015904,0.023075,-0.031866,0.0097896,0.0057743,-0.0052984,-0.0021575
-0.0075769,-0.018777,-0.027918,-0.028873,0.026826,-0.013606,-0.008164,-0.010759,0.01681,-0.0058808,0.001571,0.001153,-0.0083221,-0.043794,0.024415,-0.002154,-0.019155,0.015092,0.02794,-0.030297,0.0087286,0.0077235,-0.0010082,-0.0088883
-0.0015581,-0.015749,-0.028645,-0.025693,0.015085,-0.012117,-0.0034272,-0.015722,0.019099,-0.007065,0.0026519,0.00010592,-0.0072261,-0.046706,0.025271,-0.0030201,-0.017538,0.013349,0.039461,-0.024947,0.0063883,0.0068498,-0.0035295,-0.012375
0.0011793,-0.013838,-0.025725,-0.020835,0.0045033,-0.010097,0.00052292,-0.01738,0.019979,-0.0088613,0.0019656,-0.001778,-0.0044101,-0.047239,0.027492,-0.0050174,-0.014344,0.013165,0.055136,-0.019845,0.0033823,0.0061066,-0.011064,-0.0081258
-0.00080016,-0.016283,-0.021532,-0.015925,-0.00032105,-0.0075721,0.0017079,-0.013818,0.018401,-0.011669,-0.0019698,-0.0031563,-0.0013529,-0.045965,0.029005,-0.003538,-0.010978,0.013802,0.06904,-0.017983,0.0011463,0.0086132,-0.018642,0.0016265
-0.0054508,-0.023372,-0.019329,-0.011545,0.0006844,-0.0052848,0.00019739,-0.0071314,0.014905,-0.015989,-0.0089786,-0.0036817,5.3624e-005,-0.043179,0.027359,0.0037697,-0.010346,0.011955,0.074337,-0.019627,0.0011103,0.014886,-0.0226,0.0096022
-0.0085162,-0.031956,-0.020849,-0.0077007,0.0041939,-0.0052876,-0.0018326,-0.0020311,0.011441,-0.021772,-0.01675,-0.0042958,-0.0011186,-0.038813,0.021934,0.015702,-0.014976,0.0042631,0.067008,-0.02294,0.0032552,0.022408,-0.02314,0.0092505
-0.0067761,-0.037914,-0.02514,-0.0045126,0.0066688,-0.0095159,-0.0017922,-0.0019731,0.010006,-0.027985,-0.022016,-0.0061131,-0.0042779,-0.032983,0.014771,0.029267,-0.024498,-0.010404,0.048334,-0.026064,0.0056969,0.027957,-0.023007,-0.00023193
-0.00062855,-0.039222,-0.029506,-0.0023702,0.0066767,-0.01745,0.0012559,-0.0061425,0.011198,-0.032862,-0.022788,-0.0090482,-0.0079448,-0.026356,0.0091538,0.042518,-0.034912,-0.030278,0.024105,-0.028718,0.0061569,0.030508,-0.024048,-0.013543
0.0062246,-0.036925,-0.031626,-0.0015786,0.0048445,-0.025397,0.0058829,-0.010056,0.013797,-0.034847,-0.01986,-0.011544,-0.010912,-0.019706,0.0070674,0.055736,-0.04087,-0.051541,0.00090645,-0.031967,0.0042154,0.03193,-0.025195,-0.023418
0.0097473,-0.033485,-0.031086,-0.0020597,0.0023588,-0.028706,0.009549,-0.0093964,0.015664,-0.033593,-0.016202,-0.01166,-0.012887,-0.013003,0.0077091,0.070061,-0.039566,-0.069817,-0.01769,-0.036463,0.0021407,0.034827,-0.023652,-0.025621
0.0086494,-0.030483,-0.029232,-0.0034381,-5.1932e-005,-0.025392,0.010776,-0.0037452,0.015263,-0.030269,-0.014653,-0.0085526,-0.014138,-0.005107,0.0083536,0.085142,-0.03295,-0.081546,-0.032049,-0.040908,0.0031725,0.039617,-0.017876,-0.020979
0.0050524,-0.027857,-0.027746,-0.0052696,-0.0018198,-0.017971,0.010359,0.0031088,0.012653,-0.026862,-0.015803,-0.0031995,-0.014652,0.0052937,0.0068401,0.098179,-0.026113,-0.084999,-0.04408,-0.042349,0.0085262,0.043668,-0.0093027,-0.013572
0.0024459,-0.024918,-0.027339,-0.0070157,-0.001886,-0.011655,0.010512,0.0065594,0.0092194,-0.024919,-0.017798,0.0020631,-0.013742,0.018136,0.0035419,0.10534,-0.022929,-0.080796,-0.054111,-0.038396,0.015808,0.04326,-0.0012724,-0.0072666
0.0029319,-0.02152,-0.027524,-0.007811,0.00089919,-0.010235,0.012673,0.0052504,0.0063811,-0.024653,-0.018088,0.0047641,-0.010594,0.031342,0.0011219,0.10433,-0.022684,-0.071657,-0.060134,-0.029549,0.020496,0.036509,0.0036698,-0.0035165
0.006053,-0.018004,-0.027312,-0.0065462,0.0062937,-0.013178,0.015987,0.0022054,0.0043439,-0.025069,-0.015531,0.0035563,-0.005273,0.042005,0.0022952,0.096148,-0.020797,-0.061246,-0.060046,-0.019443,0.019483,0.024655,0.0055144,-0.0016054
0.0097869,-0.014297,-0.025943,-0.002628,0.011713,-0.016416,0.017995,0.002034,0.0020121,-0.025005,-0.011164,-0.001098,0.0007315,0.048647,0.0075508,0.08472,-0.013223,-0.052579,-0.054474,-0.012377,0.01376,0.010899,0.0061755,-0.00024812
0.012378,-0.0097115,-0.023106,0.0030025,0.013366,-0.0161,0.017078,0.0066852,-0.0017808,-0.024234,-0.0072375,-0.0071659,0.0049789,0.052626,0.0148,0.074944,-0.00074362,-0.046958,-0.047212,-0.0099782,0.0079145,-0.0016717,0.0074324,0.0012557
0.013292,-0.0040307,-0.018868,0.0076382,0.0090727,-0.011975,0.014377,0.013457,-0.0067846,-0.023722,-0.0055296,-0.01219,0.0052845,0.057274,0.021204,0.070172,0.010807,-0.044141,-0.042732,-0.0099084,0.0067027,-0.011114,0.009478,0.0030684
0.012811,0.0013136,-0.013799,0.0080861,0.00036616,-0.0074446,0.013196,0.016986,-0.011058,-0.02481,-0.0062939,-0.014769,0.00084952,0.065297,0.025474,0.070134,0.014948,-0.043476,-0.043067,-0.0079832,0.011399,-0.016226,0.01122,0.0053779
0.011157,0.0036917,-0.0091571,0.002941,-0.0082618,-0.0063584,0.016088,0.013541,-0.012411,-0.028005,-0.008451,-0.015396,-0.0073592,0.076581,0.028528,0.069927,0.010053,-0.044871,-0.046883,-0.0020342,0.018822,-0.016074,0.011681,0.0084402
0.0082972,0.001475,-0.0065686,-0.0058139,-0.012678,-0.0094622,0.022206,0.0040768,-0.010449,-0.032376,-0.010585,-0.015932,-0.017111,0.088292,0.031935,0.060808,0.001224,-0.048674,-0.05129,0.005921,0.023789,-0.010712,0.010956,0.011946
0.0045471,-0.0039674,-0.0069356,-0.013461,-0.01224,-0.013683,0.027515,-0.0063813,-0.007312,-0.036082,-0.011858,-0.018018,-0.025957,0.097207,0.035679,0.033542,-0.0032951,-0.054676,-0.054462,0.011273,0.023029,-0.0025669,0.0099171,0.014553
0.0011139,-0.0086511,-0.0093684,-0.015469,-0.010044,-0.014865,0.028018,-0.012407,-0.0062271,-0.037587,-0.012262,-0.02167,-0.032318,0.10222,0.037522,-0.016185,0.001531,-0.061491,-0.056703,0.010838,0.017472,0.0033809,0.0092232,0.014443
-0.00031454,-0.0088231,-0.011372,-0.010765,-0.010153,-0.011532,0.023291,-0.011933,-0.0089637,-0.036613,-0.012234,-0.025251,-0.036129,0.10483,0.034776,-0.082939,0.013545,-0.067288,-0.05945,0.0056485,0.011196,0.0018134,0.00881,0.010705
0.0011969,-0.0039353,-0.010617,-0.0027795,-0.01435,-0.0063981,0.017081,-0.0072726,-0.014419,-0.034164,-0.012099,-0.026869,-0.038706,0.10718,0.026989,-0.15112,0.025021,-0.071447,-0.063633,-2.1734e-005,0.0080135,-0.0094555,0.0083733,0.0044223
0.0048673,0.0029073,-0.0070152,0.0028556,-0.021145,-0.0043026,0.014269,-0.0029124,-0.019629,-0.031762,-0.011827,-0.025939,-0.041776,0.10945,0.017048,-0.20104,0.02857,-0.075521,-0.069073,-0.0024348,0.00853,-0.027446,0.0082078,-0.0016614
0.0085427,0.0074656,-0.0031613,0.0024867,-0.027543,-0.0083068,0.016807,-0.0020824,-0.022297,-0.030564,-0.011203,-0.023519,-0.046117,0.10901,0.0094723,-0.21919,0.022564,-0.082258,-0.075185,-0.0014217,0.010049,-0.045287,0.0093515,-0.0048129
0.010273,0.0076416,-0.0024052,-0.0026768,-0.0316,-0.017132,0.022222,-0.0048032,-0.022526,-0.030946,-0.01018,-0.021173,-0.050663,0.10222,0.0071695,-0.20634,0.011857,-0.093251,-0.081913,1.1406e-005,0.0092696,-0.056031,0.012723,-0.0040807
0.0098927,0.0047106,-0.0059813,-0.007342,-0.033518,-0.025921,0.025969,-0.0086299,-0.022241,-0.032555,-0.0090458,-0.019544,-0.052847,0.087473,0.0093301,-0.17781,0.003553,-0.1072,-0.089762,-0.0011837,0.0054018,-0.056228,0.018056,-0.00075797
0.0092397,0.0016844,-0.011682,-0.0061437,-0.034737,-0.029591,0.025383,-0.011072,-0.023,-0.034564,-0.0082624,-0.018101,-0.050177,0.066893,0.012164,-0.15463,0.0015117,-0.12043,-0.09885,-0.0054163,0.0010141,-0.046868,0.023782,0.0027978
0.010694,0.00057128,-0.015378,0.0021544,-0.036364,-0.026165,0.021631,-0.011517,-0.024388,-0.035934,-0.0081423,-0.016354,-0.042099,0.045323,0.011794,-0.15124,0.0040047,-0.12915,-0.10792,-0.010649,-0.00010685,-0.031616,0.028159,0.0049693
0.015148,0.0010785,-0.014214,0.013529,-0.038436,-0.017776,0.018072,-0.01122,-0.024569,-0.035768,-0.0086591,-0.015234,-0.030727,0.02738,0.0068947,-0.16749,0.0059979,-0.13162,-0.11432,-0.014795,0.0037418,-0.014353,0.030725,0.0058205
0.021041,0.0016684,-0.0087657,0.02149,-0.04027,-0.0089451,0.016854,-0.011748,-0.022391,-0.033779,-0.0094997,-0.016957,-0.019745,0.014978,-0.00089187,-0.19037,0.0037132,-0.12838,-0.11513,-0.017519,0.010509,0.002059,0.032693,0.0065019
0.025281,0.0015604,-0.0023755,0.021597,-0.041099,-0.0036646,0.017061,-0.013452,-0.01896,-0.030623,-0.010219,-0.023068,-0.012107,0.0071091,-0.0087396,-0.20393,-0.0023987,-0.12076,-0.10873,-0.019593,0.015756,0.01559,0.035835,0.0077973
0.025394,0.0015253,0.0016498,0.014305,-0.040319,-0.0032746,0.015987,-0.015296,-0.017095,-0.027712,-0.010319,-0.032279,-0.0082207,0.0016501,-0.014826,-0.20058,-0.0083656,-0.10943,-0.095712,-0.020856,0.015961,0.024752,0.040763,0.009193
0.021276,0.0027601,0.0024541,0.0042124,-0.037548,-0.0063019,0.012068,-0.015966,-0.019136,-0.026409,-0.0092856,-0.040305,-0.0060527,-0.0026299,-0.019136,-0.18647,-0.0099649,-0.094367,-0.078498,-0.019447,0.011137,0.029238,0.046136,0.0093099
0.015276,0.0051886,0.0016836,-0.0034029,-0.032946,-0.010016,0.0065039,-0.015118,-0.025023,-0.027101,-0.0067544,-0.042409,-0.0031484,-0.0055039,-0.022596,-0.17742,-0.0056574,-0.075881,-0.059956,-0.013573,0.004745,0.030999,0.049589,0.0072792
0.01068,0.0071197,0.0014759,-0.0060155,-0.027681,-0.012465,0.0021229,-0.013678,-0.032274,-0.028837,-0.0028359,-0.036896,0.00099575,-0.0062142,-0.025791,-0.18845,0.0028493,-0.055491,-0.042077,-0.0041211,0.0010975,0.034292,0.049622,0.0037956
0.0097909,0.006753,0.0025,-0.0048947,-0.023769,-0.0136,0.00072557,-0.013082,-0.037717,-0.029924,0.0016706,-0.026727,0.0041024,-0.0046046,-0.028624,-0.22364,0.012147,-0.035677,-0.025694,0.004852,0.0022787,0.044092,0.046837,0.00086951
0.012883,0.0040645,0.0038414,-0.0034036,-0.022924,-0.014786,0.0014837,-0.014204,-0.039449,-0.029088,0.0055088,-0.017759,0.002513,-0.0013229,-0.031081,-0.27319,0.019042,-0.01888,-0.011232,0.0087905,0.0069019,0.06396,0.04337,0.00042955
0.018457,0.0011245,0.0045204,-0.0041476,-0.025184,-0.017173,0.0017803,-0.016775,-0.037571,-0.026311,0.0076003,-0.014828,-0.0062337,0.0027742,-0.033983,-0.31926,0.021533,-0.0067256,0.00044035,0.00626,0.011468,0.095065,0.040933,0.0028925
0.024211,0.00039974,0.0048195,-0.0071019,-0.02867,-0.020319,-0.00042696,-0.019559,-0.033545,-0.022695,0.0075924,-0.018637,-0.021519,0.0069757,-0.038647,-0.34647,0.018952,8.4294e-005,0.0081405,0.00010908,0.013104,0.13677,0.039104,0.0068178
0.027976,0.0025777,0.0059552,-0.0098581,-0.031017,-0.022333,-0.0048623,-0.021071,-0.029057,-0.019485,0.0058386,-0.025661,-0.039656,0.010245,-0.045545,-0.34938,0.012053,0.0016381,0.011457,-0.0050309,0.011489,0.18738,0.035397,0.0098745
0.028275,0.0059556,0.0084724,-0.0095419,-0.031386,-0.021608,-0.0091736,-0.020473,-0.025351,-0.017162,0.0028819,-0.030888,-0.05556,0.010601,-0.053261,-0.33145,0.0032309,-0.0010971,0.011643,-0.0066272,0.0085734,0.2433,0.027215,0.010358
0.024667,0.0079693,0.011132,-0.0049272,-0.031172,-0.018685,-0.010757,-0.018228,-0.023162,-0.015474,-0.00096394,-0.031174,-0.064895,0.0055945,-0.05892,-0.29632,-0.0039361,-0.0061715,0.011134,-0.0059266,0.0065134,0.29725,0.014173,0.0081703
0.018006,0.007424,0.011575,0.0026364,-0.032584,-0.016463,-0.0086343,-0.016024,-0.022794,-0.014341,-0.0054816,-0.026862,-0.065581,-0.0058226,-0.059938,-0.23893,-0.0063864,-0.011159,0.011821,-0.0060316,0.0056887,0.33771,-0.0010935,0.0046638
0.010365,0.0053755,0.0082239,0.0099255,-0.036237,-0.018208,-0.0041027,-0.015688,-0.024024,-0.014588,-0.010116,-0.020904,-0.058248,-0.021404,-0.055699,-0.14539,-0.0037469,-0.014346,0.013595,-0.0084407,0.004512,0.35209,-0.014376,0.0015404
0.0043183,0.0039433,0.0016301,0.013587,-0.040002,-0.024821,8.7393e-005,-0.017572,-0.026021,-0.017447,-0.013947,-0.016542,-0.045763,-0.035727,-0.047839,-0.0044454,0.00089518,-0.015738,0.014659,-0.011483,0.0011035,0.33275,-0.022531,-0.00040018
0.0017261,0.0042891,-0.0059832,0.011856,-0.040375,-0.033707,0.0013532,-0.019725,-0.027644,-0.022972,-0.016366,-0.015299,-0.032114,-0.042999,-0.039123,0.17663,0.0028208,-0.016828,0.013483,-0.012078,-0.0047759,0.28201,-0.0253,-0.0018358
0.0028145,0.0056921,-0.012464,0.0053849,-0.035389,-0.040383,-0.0012556,-0.018993,-0.028105,-0.028893,-0.017828,-0.016473,-0.020973,-0.040869,-0.032109,0.36467,-0.00086102,-0.019155,0.01059,-0.0089693,-0.011384,0.21208,-0.024984,-0.0044044
0.0062639,0.0064823,-0.017055,-0.0030996,-0.026621,-0.041667,-0.0065249,-0.013692,-0.02747,-0.031455,-0.019702,-0.018062,-0.014431,-0.032281,-0.028711,0.51109,-0.0087873,-0.022859,0.0083673,-0.0042189,-0.016601,0.13941,-0.02436,-0.0093639
0.010261,0.0057576,-0.02015,-0.010044,-0.018508,-0.037845,-0.011798,-0.0056951,-0.026507,-0.028125,-0.023058,-0.018201,-0.012498,-0.02364,-0.03065,0.57638,-0.016083,-0.026602,0.008926,-0.0015237,-0.019938,0.077132,-0.024529,-0.016312
0.013603,0.0041158,-0.021959,-0.012622,-0.015365,-0.032061,-0.014629,0.00025919,-0.02597,-0.020052,-0.02741,-0.016108,-0.013704,-0.020509,-0.039743,0.55285,-0.017889,-0.028907,0.011966,-0.0029464,-0.022885,0.030604,-0.0243,-0.022962
0.015917,0.0027207,-0.021622,-0.009962,-0.018413,-0.027603,-0.0144,5.373e-005,-0.025976,-0.011933,-0.030765,-0.012139,-0.016521,-0.024092,-0.057232,0.46847,-0.012958,-0.029533,0.01476,-0.0070791,-0.027091,-0.0016298,-0.021403,-0.026349
0.017004,0.0017624,-0.017795,-0.0034958,-0.025027,-0.025528,-0.012752,-0.0062315,-0.02602,-0.008907,-0.031195,-0.0072734,-0.020641,-0.031093,-0.082444,0.36808,-0.0045523,-0.02941,0.014449,-0.010254,-0.032027,-0.023375,-0.014437,-0.024749
0.016255,2.3987e-005,-0.010231,0.0037618,-0.030617,-0.024618,-0.012331,-0.013914,-0.025565,-0.012808,-0.028627,-0.0026047,-0.027108,-0.036577,-0.11198,0.28554,0.0019487,-0.02907,0.01062,-0.0096687,-0.034594,-0.036996,-0.0040408,-0.018907
0.01304,-0.0038502,-0.0008399,0.0087731,-0.031598,-0.023398,-0.014604,-0.017215,-0.024597,-0.020824,-0.025184,0.00087899,-0.036982,-0.03711,-0.14036,0.22752,0.0027609,-0.027178,0.0058018,-0.0057098,-0.031474,-0.042981,0.0074816,-0.011566
0.0078239,-0.0095756,0.006889,0.010095,-0.027342,-0.021985,-0.0184,-0.013891,-0.023587,-0.027703,-0.023647,0.0023969,-0.049381,-0.031698,-0.162,0.18013,-0.0019897,-0.020819,0.0033233,-0.0015833,-0.022422,-0.04209,0.017607,-0.0056039
0.0026951,-0.014812,0.009893,0.0085577,-0.020091,-0.021867,-0.020497,-0.0070121,-0.022948,-0.029629,-0.02533,0.0016171,-0.060528,-0.020639,-0.17346,0.12992,-0.0087047,-0.0076167,0.0043911,-0.00064916,-0.011439,-0.037141,0.024887,-0.0023016
0.0002816,-0.0168,0.0075774,0.006425,-0.013292,-0.023882,-0.018091,-0.0022771,-0.022529,-0.02663,-0.029189,-0.0010369,-0.065076,-0.0044059,-0.17477,0.07951,-0.012769,0.012185,0.0069306,-0.0036723,-0.0044289,-0.032333,0.029115,-0.001143
0.001562,-0.014757,0.0024073,0.0055075,-0.0096418,-0.026603,-0.011383,-0.0032209,-0.021645,-0.02181,-0.032833,-0.0044146,-0.059363,0.015828,-0.16908,0.044566,-0.011181,0.035668,0.0071553,-0.0081677,-0.0049968,-0.030723,0.030419,-0.001152
0.0045074,-0.010824,-0.0014837,0.0056559,-0.0098943,-0.027055,-0.0041522,-0.0085073,-0.019633,-0.018502,-0.0344,-0.0072153,-0.044446,0.03684,-0.16091,0.037165,-0.0038941,0.059343,0.0024554,-0.010346,-0.011891,-0.03238,0.028287,-0.0023381
