-4.4181e-010,2.5023e-009,7.6208e-010,5.4214e-010,-5.2091e-011,4.7596e-009,6.6561e-010,5.4599e-010,-6.2702e-010,2.4888e-010,3.6464e-010,5.3442e-010,-3.1313e-009,1.9853e-009,9.1256e-010,1.4258e-009,-5.3056e-010,4.9583e-010,-2.7589e-010,2.6046e-010,-1.7171e-010,1.0862e-009,1.6534e-009,9.3957e-010
-1.2159e-008,6.9082e-008,2.1082e-008,1.4815e-008,-1.2311e-009,1.32e-007,1.8578e-008,1.518e-008,-1.7188e-008,6.7154e-009,9.9798e-009,1.4698e-008,-8.6671e-008,5.4702e-008,2.531e-008,3.8523e-008,-1.4576e-008,1.3655e-008,-7.4888e-009,7.2398e-009,-4.8453e-009,2.963e-008,4.5678e-008,2.5775e-008
-1.6254e-007,9.2706e-007,2.8371e-007,1.9649e-007,-1.3683e-008,1.78e-006,2.5211e-007,2.0518e-007,-2.2898e-007,8.7805e-008,1.3265e-007,1.9658e-007,-1.1665e-006,7.3234e-007,3.4108e-007,5.0465e-007,-1.9461e-007,1.8268e-007,-9.8613e-008,9.7823e-008,-6.647e-008,3.9245e-007,6.1345e-007,3.4322e-007
-1.4061e-006,8.0564e-006,2.4747e-006,1.6846e-006,-9.3499e-008,1.5546e-005,2.216e-006,1.7963e-006,-1.9749e-006,7.4073e-007,1.1408e-006,1.7034e-006,-1.0172e-005,6.3459e-006,2.9752e-006,4.2679e-006,-1.6822e-006,1.5815e-006,-8.3912e-007,8.5598e-007,-5.9048e-007,3.3619e-006,5.3358e-006,2.9551e-006
-8.8471e-006,5.0954e-005,1.5726e-005,1.0492e-005,-4.2385e-007,9.8853e-005,1.4182e-005,1.145e-005,-1.2394e-005,4.5278e-006,7.1325e-006,1.0747e-005,-6.459e-005,3.9996e-005,1.888e-005,2.6172e-005,-1.0581e-005,9.9573e-006,-5.1849e-006,5.4516e-006,-3.8164e-006,2.0931e-005,3.3787e-005,1.8486e-005
-4.3138e-005,0.00024986,7.7586e-005,5.0571e-005,-1.2106e-006,0.00048754,7.0413e-005,5.6628e-005,-6.0288e-005,2.1345e-005,3.454e-005,5.261e-005,-0.00031828,0.00019532,9.2862e-005,0.00012386,-5.1605e-005,4.857e-005,-2.4782e-005,2.6925e-005,-1.9113e-005,0.00010088,0.00016595,8.95e-005
-0.00016955,0.00098798,0.00030914,0.00019616,-1.0999e-006,0.00194,0.00028216,0.00022607,-0.00023645,8.0612e-005,0.00013474,0.00020782,-0.0012662,0.00076856,0.00036823,0.00046997,-0.000203,0.00019091,-9.529e-005,0.00010728,-7.7125e-005,0.00039139,0.00065774,0.00034872
-0.0005516,0.0032338,0.0010216,0.00062868,9.6188e-006,0.0063945,0.00093714,0.00074821,-0.00076764,0.00024993,0.0004347,0.00068023,-0.0041769,0.0025013,0.0012087,0.0014648,-0.00066139,0.00062081,-0.00030259,0.00035406,-0.00025733,0.0012545,0.0021602,0.0011224
-0.001513,0.0089216,0.0028523,0.0016953,6.7369e-005,0.017783,0.0026279,0.0020919,-0.0021014,0.00064606,0.0011812,0.0018788,-0.01164,0.0068553,0.0033454,0.0038077,-0.0018181,0.0017009,-0.00080809,0.00098616,-0.00072273,0.003381,0.0059887,0.0030378
-0.003545,0.021006,0.0068176,0.0038961,0.00026892,0.042264,0.006304,0.0050074,-0.0049139,0.0014041,0.0027377,0.0044355,-0.027776,0.016019,0.0079092,0.0083175,-0.004272,0.0039768,-0.0018383,0.002349,-0.00173,0.0077551,0.014199,0.0069994
-0.0071599,0.042551,0.014077,0.0076987,0.00080811,0.086582,0.013053,0.01036,-0.0099051,0.0025684,0.0054588,0.0090259,-0.057285,0.032169,0.016115,0.015255,-0.0086577,0.0080028,-0.0035932,0.0048304,-0.0035595,0.01525,0.029053,0.013837
-0.012539,0.074462,0.025256,0.013153,0.0019742,0.15364,0.023457,0.01864,-0.017311,0.0039166,0.0094081,0.015907,-0.10276,0.055743,0.028449,0.023169,-0.015215,0.013931,-0.0060677,0.0086287,-0.0063288,0.025786,0.051581,0.023559
-0.019106,0.11258,0.039483,0.019484,0.00405,0.23648,0.036664,0.029267,-0.026313,0.0048298,0.014031,0.024303,-0.16087,0.08334,0.043601,0.027906,-0.023237,0.021009,-0.0088731,0.013439,-0.0097579,0.037429,0.07964,0.03454
-0.025365,0.14633,0.053781,0.025037,0.0070814,0.31472,0.049778,0.040129,-0.034798,0.0043862,0.018048,0.032073,-0.22002,0.10695,0.057911,0.022991,-0.030796,0.027383,-0.01123,0.018275,-0.013093,0.046258,0.1068,0.043377
-0.029371,0.16155,0.063666,0.027887,0.010596,0.3589,0.05837,0.047946,-0.039956,0.0017707,0.019842,0.0362,-0.26248,0.1163,0.066206,0.0022699,-0.035207,0.030625,-0.01225,0.021688,-0.015417,0.047774,0.12375,0.046114
-0.029805,0.14775,0.06521,0.026932,0.013491,0.34405,0.058443,0.049681,-0.039669,-0.0031662,0.018309,0.034235,-0.27231,0.10434,0.064192,-0.035789,-0.034329,0.028975,-0.011395,0.022454,-0.016342,0.039614,0.12267,0.040616
-0.027025,0.1063,0.057649,0.022773,0.014328,0.26624,0.049007,0.044387,-0.033906,-0.0096153,0.013711,0.026034,-0.24534,0.072813,0.051208,-0.084645,-0.02805,0.022651,-0.0087755,0.020384,-0.016614,0.023915,0.10252,0.028634
-0.023144,0.052868,0.044582,0.017537,0.012068,0.15024,0.033456,0.034218,-0.024995,-0.016133,0.0078542,0.014532,-0.19407,0.033168,0.03129,-0.1301,-0.018903,0.014179,-0.0049761,0.016683,-0.017957,0.0071804,0.071477,0.01568
-0.020705,0.010239,0.032335,0.013555,0.0069117,0.03909,0.018241,0.023616,-0.016335,-0.02148,0.003276,0.0046232,-0.14228,0.00058307,0.011303,-0.15553,-0.011051,0.0072331,-0.00048188,0.01343,-0.021859,-0.0031135,0.043479,0.0080301
-0.020659,-0.0054556,0.026068,0.011798,0.00057762,-0.030483,0.0091452,0.016895,-0.010348,-0.02537,0.0018647,0.00047736,-0.11086,-0.01604,-0.0029481,-0.14939,-0.0080005,0.0045485,0.0047478,0.0124,-0.02796,-0.0032817,0.030153,0.008567
-0.021229,0.004588,0.026399,0.01137,-0.0044125,-0.050406,0.0075699,0.015785,-0.0072728,-0.028478,0.0038853,0.0029905,-0.10414,-0.020656,-0.0098417,-0.11034,-0.010467,0.0063137,0.011021,0.013974,-0.033454,0.0040035,0.033399,0.014618
-0.0189,0.023268,0.029344,0.010547,-0.0062431,-0.043776,0.0096995,0.018678,-0.005684,-0.031653,0.0081364,0.0092525,-0.10736,-0.027314,-0.011867,-0.046776,-0.015904,0.010205,0.018044,0.016925,-0.034478,0.011713,0.044499,0.019863
-0.01116,0.031078,0.029858,0.008481,-0.0051166,-0.044482,0.0094591,0.022055,-0.0041197,-0.035031,0.013052,0.014583,-0.0975,-0.0492,-0.012509,0.028157,-0.020101,0.013007,0.024261,0.019257,-0.028866,0.013832,0.051001,0.019191
0.00097642,0.021312,0.026044,0.0060548,-0.0032658,-0.069697,0.0031885,0.022888,-0.0021896,-0.037915,0.017743,0.015755,-0.059944,-0.08777,-0.012933,0.10212,-0.01981,0.012602,0.027313,0.019496,-0.018185,0.009921,0.046319,0.012716
0.012836,0.0044168,0.020292,0.0051226,-0.0034043,-0.10766,-0.0075678,0.020217,-0.00022971,-0.039543,0.022055,0.013044,0.0018562,-0.13093,-0.011477,0.16597,-0.014617,0.0090095,0.025621,0.017547,-0.0070489,0.0050636,0.034336,0.0055678
0.018853,-0.0021647,0.016366,0.0068563,-0.0066445,-0.13054,-0.01735,0.014978,0.0018087,-0.039991,0.025732,0.009636,0.070244,-0.16195,-0.0063696,0.21311,-0.0068941,0.0039885,0.019936,0.014613,0.00011286,0.0051794,0.02516,0.0035137
0.016429,0.010314,0.015283,0.01069,-0.011539,-0.12056,-0.021111,0.0087297,0.0047131,-0.040142,0.027745,0.0089207,0.1265,-0.17187,0.001042,0.23857,-9.6686e-006,-0.00020866,0.013378,0.01232,0.0023499,0.011604,0.025614,0.0080331
0.0080126,0.034421,0.014107,0.01471,-0.015138,-0.086445,-0.018146,0.0025795,0.0090054,-0.040544,0.026791,0.011825,0.16211,-0.16503,0.0058731,0.24035,0.003864,-0.0020413,0.0095777,0.011723,0.0026679,0.01954,0.032686,0.015042
-0.00030786,0.053462,0.0089607,0.016989,-0.015287,-0.056098,-0.012655,-0.0029802,0.013702,-0.040134,0.022746,0.016206,0.1802,-0.15373,0.0029228,0.22181,0.0049038,-0.0012633,0.010165,0.012794,0.0051521,0.021709,0.035655,0.01836
-0.0028306,0.055896,-0.00070515,0.016664,-0.012271,-0.052944,-0.010645,-0.007649,0.016534,-0.036167,0.017648,0.01867,0.18831,-0.14696,-0.0090303,0.19219,0.00513,0.0011772,0.0136,0.014606,0.011225,0.0142,0.025104,0.014947
0.0019698,0.044043,-0.010971,0.01407,-0.0084238,-0.077181,-0.015701,-0.011043,0.015936,-0.025803,0.014834,0.01728,0.19089,-0.1433,-0.025562,0.16332,0.0067695,0.0037118,0.016404,0.015978,0.018393,-0.00029896,0.0010461,0.0074062
0.010615,0.029812,-0.016866,0.010224,-0.0061121,-0.10779,-0.026705,-0.012839,0.013082,-0.0082992,0.016491,0.013017,0.18805,-0.13346,-0.039135,0.14427,0.010683,0.0049111,0.015861,0.01611,0.022573,-0.014397,-0.026727,0.0016417
0.017293,0.022533,-0.017186,0.0063315,-0.0059233,-0.12201,-0.038913,-0.013027,0.01174,0.013927,0.021572,0.0088969,0.18021,-0.10952,-0.043924,0.13774,0.015863,0.0040926,0.012023,0.014876,0.021752,-0.02131,-0.046176,0.0017475
0.018015,0.020753,-0.015956,0.0035136,-0.0065824,-0.11415,-0.04729,-0.01194,0.015472,0.036359,0.026124,0.0075616,0.17201,-0.072357,-0.039225,0.14068,0.020186,0.001462,0.0074147,0.012657,0.017555,-0.019247,-0.051877,0.0065679
0.013218,0.015205,-0.018843,0.0024718,-0.0064554,-0.097734,-0.049595,-0.010126,0.024329,0.05484,0.026175,0.0093087,0.17071,-0.031215,-0.029051,0.1481,0.021771,-0.0022608,0.0047776,0.0099211,0.013432,-0.011559,-0.048032,0.010869
0.0070323,-0.00088533,-0.027705,0.0029974,-0.0050445,-0.091016,-0.047195,-0.0083148,0.034005,0.067552,0.020944,0.012122,0.17998,0.0035772,-0.01861,0.15684,0.02001,-0.0063868,0.0048566,0.006832,0.011432,-0.0030435,-0.043802,0.010014
0.0039467,-0.024544,-0.038404,0.0038242,-0.0030947,-0.10043,-0.043373,-0.0074233,0.038606,0.075058,0.013617,0.013555,0.19545,0.027988,-0.010664,0.16682,0.015756,-0.010484,0.0060814,0.0031526,0.010766,0.0041261,-0.045594,0.0040022
0.005504,-0.045546,-0.044044,0.0033617,-0.0014775,-0.11654,-0.040606,-0.0082798,0.035087,0.078589,0.0088396,0.012822,0.20702,0.045965,-0.0044795,0.17944,0.010798,-0.014158,0.0062721,-0.0014709,0.009325,0.011349,-0.052806,-0.0026477
0.0095148,-0.055655,-0.040803,0.00099609,-0.00025718,-0.12452,-0.038895,-0.010981,0.025781,0.078285,0.0089719,0.011303,0.20656,0.065017,0.0021976,0.19496,0.0071094,-0.01681,0.0047174,-0.0069871,0.0063246,0.020873,-0.059818,-0.005003
0.012232,-0.055531,-0.031156,-0.002218,0.0010121,-0.11797,-0.036289,-0.014446,0.016853,0.073054,0.01226,0.011114,0.19477,0.090141,0.010114,0.21052,0.0061805,-0.017852,0.0027504,-0.01254,0.00324,0.032145,-0.061647,-0.0021515
0.011573,-0.053185,-0.021737,-0.0043661,0.0022303,-0.10347,-0.031057,-0.016894,0.013827,0.06219,0.014492,0.013024,0.18123,0.12086,0.017002,0.22008,0.008449,-0.017352,0.0024116,-0.016595,0.002182,0.040737,-0.058164,0.0019015
0.0086951,-0.056179,-0.017946,-0.0044455,0.0023849,-0.092908,-0.023617,-0.017159,0.017734,0.047158,0.01265,0.015588,0.17744,0.15253,0.018788,0.21631,0.012862,-0.016391,0.0045471,-0.017711,0.0035533,0.041023,-0.053878,0.001575
0.0066906,-0.065278,-0.020089,-0.0034018,0.00060843,-0.09201,-0.016548,-0.015705,0.024867,0.031694,0.0073842,0.016272,0.18817,0.17954,0.012507,0.194,0.016966,-0.016513,0.0081257,-0.015534,0.0054839,0.030401,-0.054258,-0.0056678
0.00767,-0.075022,-0.024159,-0.0032482,-0.0023185,-0.09602,-0.012583,-0.014147,0.030083,0.019778,0.002275,0.013618,0.20767,0.19733,-0.0014297,0.15295,0.018001,-0.018486,0.011326,-0.011239,0.0055825,0.01144,-0.061983,-0.017345
0.010916,-0.079709,-0.026003,-0.0049933,-0.0038309,-0.095705,-0.012273,-0.013471,0.030695,0.013029,0.00068834,0.0085962,0.22324,0.20274,-0.019387,0.098233,0.014827,-0.021439,0.013264,-0.0068921,0.0031412,-0.0098738,-0.075703,-0.028097
0.013775,-0.078543,-0.024877,-0.0074848,-0.0014812,-0.087167,-0.013408,-0.012695,0.027839,0.0097731,0.0030644,0.0040033,0.2231,0.19389,-0.036896,0.037168,0.0093969,-0.023261,0.014676,-0.0040444,-0.00042728,-0.02828,-0.091423,-0.033889
0.014373,-0.075312,-0.023389,-0.0085307,0.0046025,-0.075915,-0.012767,-0.0096515,0.024611,0.0067161,0.0068586,0.0023951,0.20296,0.17125,-0.051283,-0.024693,0.0062316,-0.022061,0.01696,-0.0026536,-0.0032127,-0.042304,-0.10486,-0.034703
0.013474,-0.073727,-0.024423,-0.0073244,0.011146,-0.071652,-0.0087559,-0.003487,0.023089,0.0019624,0.0088867,0.0042116,0.16742,0.13895,-0.062402,-0.084646,0.0095586,-0.017502,0.020535,-0.001291,-0.0046787,-0.053886,-0.11319,-0.033765
0.01359,-0.073519,-0.028202,-0.005651,0.014049,-0.078946,-0.0026761,0.0035922,0.02295,-0.0031625,0.0078149,0.0075234,0.1262,0.1047,-0.071034,-0.13921,0.019855,-0.010921,0.024159,0.0014581,-0.0058707,-0.065298,-0.11569,-0.034418
0.016176,-0.071117,-0.032109,-0.0063742,0.011876,-0.092488,0.0023797,0.0075271,0.022559,-0.0051092,0.0047227,0.0095002,0.088306,0.077117,-0.076615,-0.17867,0.032594,-0.0042909,0.025813,0.0056269,-0.0079223,-0.076283,-0.11352,-0.037528
0.019727,-0.063963,-0.033092,-0.010469,0.0074179,-0.10113,0.0039554,0.0059697,0.021023,-0.0011925,0.001618,0.0084203,0.058016,0.061762,-0.076613,-0.18551,0.040717,0.00091113,0.024324,0.009819,-0.010608,-0.083922,-0.10898,-0.04141
0.020855,-0.054034,-0.030205,-0.015588,0.0056643,-0.09695,0.0019211,0.00092292,0.019097,0.0077637,-0.0004556,0.0047582,0.034358,0.058698,-0.068391,-0.1404,0.039466,0.004024,0.020204,0.012574,-0.012514,-0.085121,-0.10433,-0.043778
0.017498,-0.047117,-0.02511,-0.017857,0.0097113,-0.081493,-0.0017407,-0.0024382,0.018241,0.017422,-0.00204,0.00065618,0.013828,0.063219,-0.052155,-0.033319,0.030046,0.0048065,0.015058,0.013853,-0.012534,-0.079394,-0.10052,-0.043569
0.011211,-0.048405,-0.020483,-0.015426,0.018088,-0.064055,-0.0044751,-0.00017474,0.018983,0.022571,-0.0043619,-0.0017442,-0.0060229,0.068927,-0.032522,0.12725,0.019196,0.003213,0.010282,0.015125,-0.010914,-0.069577,-0.096765,-0.041004
0.0062111,-0.058292,-0.018011,-0.010344,0.025841,-0.054097,-0.0045392,0.0066888,0.020224,0.020287,-0.0080045,-0.001872,-0.024569,0.070677,-0.017372,0.31366,0.014707,-0.00014516,0.0063479,0.017853,-0.0086247,-0.060089,-0.091363,-0.036327
0.0058845,-0.071862,-0.017624,-0.0067785,0.028446,-0.054372,-0.0013577,0.012755,0.020055,0.011301,-0.012348,-0.0010723,-0.038938,0.065587,-0.014735,0.48759,0.020056,-0.0034121,0.0031938,0.021746,-0.0058097,-0.054335,-0.083444,-0.029032
0.0099275,-0.082314,-0.018114,-0.0071073,0.025189,-0.06023,0.0048056,0.012907,0.017231,-0.0010069,-0.016019,-0.0015026,-0.046869,0.052443,-0.029696,0.61302,0.032023,-0.0038787,0.0010511,0.024547,-0.0012399,-0.053186,-0.074134,-0.018773
0.014713,-0.085382,-0.018197,-0.0096153,0.019276,-0.064845,0.013055,0.0069024,0.012051,-0.012587,-0.017728,-0.0044638,-0.049209,0.031149,-0.062777,0.66665,0.042944,0.00031863,0.00063007,0.023765,0.0063144,-0.055176,-0.066058,-0.0070965
0.016502,-0.081394,-0.017138,-0.010085,0.014861,-0.06529,0.021775,-0.00031577,0.0060896,-0.019987,-0.016803,-0.0095175,-0.04987,0.0031462,-0.10996,0.6416,0.045892,0.008318,0.0024054,0.018893,0.016101,-0.057668,-0.06139,0.0021664
0.014553,-0.073815,-0.014925,-0.0058889,0.013695,-0.06428,0.028871,-0.0029251,0.001176,-0.020564,-0.013325,-0.015086,-0.053116,-0.027925,-0.16377,0.54449,0.039081,0.016256,0.0058113,0.012137,0.025061,-0.05793,-0.060019,0.0049886
0.011413,-0.065978,-0.01231,0.001248,0.014097,-0.066636,0.03278,0.00070655,-0.0016028,-0.012693,-0.0081169,-0.0199,-0.060423,-0.056783,-0.21502,0.38861,0.026535,0.019372,0.0093267,0.0068663,0.029913,-0.053791,-0.059384,0.00042864
0.010374,-0.058863,-0.010705,0.0064383,0.012728,-0.074138,0.0337,0.0066551,-0.0023555,0.0032303,-0.0026993,-0.023863,-0.069651,-0.078615,-0.25511,0.18741,0.01488,0.01527,0.011505,0.0050407,0.029884,-0.044126,-0.05615,-0.0078183
0.012551,-0.051532,-0.011562,0.0057171,0.0073923,-0.083502,0.033723,0.0088433,-0.0022064,0.023696,0.0010254,-0.027502,-0.077326,-0.091325,-0.27837,-0.04807,0.0088023,0.0058757,0.011982,0.0057393,0.027452,-0.029272,-0.048405,-0.013446
0.016154,-0.043446,-0.015229,-0.00068398,-0.0013134,-0.089107,0.0353,0.0041025,-0.002665,0.042562,0.0015297,-0.030702,-0.082032,-0.096066,-0.28324,-0.30545,0.0084149,-0.0036279,0.011494,0.0059683,0.026291,-0.010983,-0.036741,-0.011963
0.018271,-0.036275,-0.020126,-0.0087348,-0.010463,-0.087873,0.039048,-0.0054143,-0.0048284,0.053746,-0.001458,-0.032297,-0.085816,-0.095598,-0.27139,-0.5623,0.010118,-0.0083365,0.010933,0.0030122,0.028343,0.008398,-0.023622,-0.0040366
0.017323,-0.033328,-0.023286,-0.014106,-0.016724,-0.08189,0.042934,-0.014206,-0.0087621,0.054564,-0.0066494,-0.031244,-0.092209,-0.091908,-0.24535,-0.77825,0.0098558,-0.0070536,0.010466,-0.0035841,0.032696,0.027137,-0.011734,0.0051127
0.014004,-0.036893,-0.022317,-0.015461,-0.018374,-0.076528,0.043834,-0.01776,-0.013396,0.047081,-0.011904,-0.028303,-0.1025,-0.085127,-0.2067,-0.89734,0.0061046,-0.0030092,0.0096173,-0.011826,0.037112,0.044708,-0.0025476,0.0099257
0.010234,-0.045795,-0.017418,-0.014688,-0.016266,-0.075696,0.040344,-0.015611,-0.017084,0.036263,-0.015577,-0.026244,-0.11357,-0.074463,-0.15651,-0.86637,0.00048921,-0.0013059,0.0081434,-0.018732,0.040374,0.06123,0.0041401,0.0089365
0.0074409,-0.05552,-0.01162,-0.014271,-0.013293,-0.078217,0.034308,-0.011005,-0.018595,0.026454,-0.017535,-0.027877,-0.11944,-0.060038,-0.097671,-0.66534,-0.003995,-0.0050685,0.0066642,-0.022137,0.043066,0.076295,0.0096926,0.0057626
0.0057875,-0.061202,-0.0086549,-0.014594,-0.012633,-0.078117,0.029565,-0.0080734,-0.017965,0.019119,-0.019072,-0.033443,-0.11553,-0.043803,-0.036637,-0.33287,-0.0053884,-0.013236,0.006259,-0.021614,0.046216,0.088362,0.015591,0.0058527
0.0047565,-0.061247,-0.0099199,-0.013775,-0.015725,-0.0682,0.028931,-0.0091166,-0.016579,0.013471,-0.021851,-0.039929,-0.10221,-0.028697,0.017729,0.033916,-0.0038985,-0.021562,0.0073629,-0.018308,0.049545,0.095376,0.022412,0.011738
0.0041331,-0.058642,-0.013091,-0.0099439,-0.021253,-0.043747,0.032119,-0.013866,-0.016308,0.0088013,-0.026741,-0.043263,-0.084853,-0.0168,0.058143,0.31419,-0.0011997,-0.025803,0.0091157,-0.014286,0.05136,0.096035,0.029306,0.020771
0.0042846,-0.058772,-0.013793,-0.003527,-0.026004,-0.0036471,0.036415,-0.020572,-0.018184,0.0059086,-0.033371,-0.041649,-0.070022,-0.0080172,0.082912,0.41823,0.0011705,-0.024477,0.0099354,-0.011879,0.05025,0.090524,0.03434,0.027192
0.0056032,-0.065399,-0.0092151,0.002744,-0.027161,0.05098,0.039335,-0.02736,-0.021565,0.0062273,-0.040477,-0.037055,-0.060808,-0.00025033,0.096731,0.32977,0.0029548,-0.019199,0.0088799,-0.012975,0.046764,0.080142,0.035644,0.026737
0.0079235,-0.077938,-0.00068808,0.0060325,-0.024377,0.11828,0.040711,-0.03271,-0.024537,0.0097918,-0.046484,-0.033432,-0.054832,0.0091859,0.10745,0.10695,0.0051684,-0.012793,0.0065205,-0.018099,0.043217,0.066443,0.032707,0.019932
0.010643,-0.092096,0.0071172,0.0056596,-0.019909,0.19515,0.042364,-0.035226,-0.025376,0.01438,-0.049884,-0.033263,-0.046467,0.021918,0.12116,-0.15982,0.0091857,-0.0071682,0.0044401,-0.025685,0.041694,0.050921,0.026854,0.011517
0.013359,-0.10313,0.0099282,0.0034011,-0.016638,0.27507,0.045896,-0.033718,-0.023946,0.016897,-0.049504,-0.03556,-0.031468,0.037595,0.13911,-0.4036,0.015621,-0.0026872,0.0037345,-0.03243,0.042169,0.035515,0.020398,0.0067285
0.016193,-0.10892,0.0074464,0.0017923,-0.015652,0.34679,0.050859,-0.028054,-0.021776,0.01571,-0.045041,-0.037073,-0.010423,0.054041,0.15851,-0.61063,0.023606,0.00096617,0.0038354,-0.035107,0.042533,0.023003,0.015062,0.0076473
0.019319,-0.11042,0.0036134,0.0021755,-0.015545,0.39636,0.055005,-0.020088,-0.020592,0.011727,-0.037743,-0.035474,0.011516,0.068235,0.17578,-0.80557,0.030799,0.003832,0.0027279,-0.032904,0.040495,0.016188,0.010985,0.012359
0.022194,-0.10936,0.0031962,0.0041499,-0.014067,0.41235,0.056238,-0.013456,-0.020536,0.0073672,-0.030523,-0.03152,0.028204,0.077502,0.18959,-1.0091,0.03419,0.0057594,-0.001564,-0.02843,0.035535,0.015964,0.0072216,0.017051
0.023466,-0.10562,0.0075928,0.0065297,-0.01055,0.39144,0.054332,-0.01191,-0.019779,0.0046983,-0.026775,-0.02826,0.036472,0.080262,0.20143,-1.2053,0.031488,0.0071258,-0.0094325,-0.026261,0.029154,0.019868,0.0032729,0.018877
0.02192,-0.096883,0.013546,0.0085775,-0.0068374,0.34064,0.050812,-0.017189,-0.016127,0.004647,-0.028271,-0.028124,0.0376,0.076036,0.21392,-1.3445,0.022449,0.0088384,-0.019324,-0.029804,0.023321,0.022909,0.00016562,0.017324
0.017695,-0.080969,0.01593,0.010339,-0.0058912,0.27444,0.047222,-0.02801,-0.0092831,0.0076946,-0.033578,-0.030653,0.035552,0.064965,0.22846,-1.3767,0.009337,0.011068,-0.028821,-0.038797,0.018703,0.020744,-4.8682e-005,0.013599
0.012581,-0.05883,0.012167,0.012002,-0.009409,0.20812,0.043495,-0.040942,-0.0016,0.01464,-0.03852,-0.032901,0.033773,0.047513,0.24408,-1.2842,-0.003928,0.011903,-0.036281,-0.049379,0.014357,0.013029,0.0039649,0.0092089
0.0089225,-0.035225,0.0043871,0.01313,-0.016624,0.15113,0.038071,-0.052438,0.0036291,0.025944,-0.03876,-0.032042,0.033116,0.024804,0.25774,-1.0896,-0.013585,0.0077659,-0.041737,-0.056671,0.0090315,0.0041121,0.011393,0.0050908
0.0079151,-0.016175,-0.0024548,0.012572,-0.02518,0.10425,0.029768,-0.06052,0.0049274,0.04002,-0.032804,-0.027787,0.032182,-0.00073321,0.26552,-0.8379,-0.017762,-0.0040219,-0.046443,-0.05784,0.0026906,6.3338e-005,0.019474,0.0015727
0.0087227,-0.0050591,-0.0046845,0.0091579,-0.033014,0.061933,0.019671,-0.065102,0.0038452,0.052545,-0.02315,-0.022565,0.029299,-0.025345,0.26423,-0.57201,-0.017094,-0.022461,-0.051496,-0.053453,-0.0032935,0.0040432,0.025229,-0.001413
0.0091654,-0.0005185,-0.0025816,0.0026527,-0.039488,0.018235,0.011138,-0.067176,0.0033367,0.058313,-0.014599,-0.019493,0.024191,-0.045128,0.25282,-0.32228,-0.013937,-0.042617,-0.056702,-0.046495,-0.0074667,0.013607,0.02734,-0.0043164
0.0074629,0.0021077,0.00049608,-0.005715,-0.045057,-0.027745,0.0075327,-0.067874,0.0047431,0.054629,-0.010934,-0.020022,0.017998,-0.05788,0.23322,-0.10976,-0.010825,-0.058695,-0.060548,-0.04024,-0.0098026,0.022174,0.026775,-0.0079405
0.0036463,0.0070335,0.001353,-0.013539,-0.050248,-0.070424,0.0093969,-0.068124,0.0063249,0.043361,-0.012478,-0.023139,0.011904,-0.06427,0.20998,0.049783,-0.009212,-0.068179,-0.061215,-0.036656,-0.011858,0.023614,0.025824,-0.012998
-0.00046179,0.014995,-0.00054495,-0.018315,-0.055137,-0.10122,0.013543,-0.068729,0.0049378,0.029571,-0.016279,-0.026466,0.0058652,-0.067317,0.18839,0.15041,-0.0091678,-0.073542,-0.057821,-0.036091,-0.015347,0.016451,0.026366,-0.019417
-0.0026716,0.02322,-0.0033526,-0.018822,-0.059605,-0.11446,0.0151,-0.070255,-0.00059507,0.017715,-0.018571,-0.028031,-0.0012438,-0.070464,0.17196,0.20345,-0.0099701,-0.079932,-0.050979,-0.037781,-0.020457,0.0045723,0.028584,-0.026107
-0.0021571,0.028137,-0.0051675,-0.016001,-0.063688,-0.1115,0.011073,-0.072495,-0.0076638,0.0086613,-0.017419,-0.027254,-0.010124,-0.075603,0.16083,0.23447,-0.011006,-0.090817,-0.042471,-0.040372,-0.025528,-0.0058452,0.030849,-0.031624
-0.00019325,0.028412,-0.005901,-0.012636,-0.067359,-0.10032,0.0025675,-0.074069,-0.011556,2.4041e-005,-0.013589,-0.024675,-0.019643,-0.082288,0.15272,0.26634,-0.012385,-0.10537,-0.034421,-0.042244,-0.028446,-0.010618,0.030771,-0.035244
0.00065654,0.02589,-0.0069787,-0.011792,-0.069979,-0.090864,-0.0061345,-0.072862,-0.0093337,-0.010843,-0.0093685,-0.021126,-0.02705,-0.088357,0.14554,0.30125,-0.014982,-0.11974,-0.028537,-0.041918,-0.028471,-0.0098785,0.026758,-0.037404
-0.0016587,0.023916,-0.0094321,-0.014962,-0.07026,-0.089535,-0.010855,-0.067305,-0.0024555,-0.024185,-0.0067263,-0.01729,-0.029956,-0.091213,0.13996,0.31914,-0.019936,-0.13083,-0.02562,-0.0387,-0.026813,-0.0071381,0.01922,-0.039022
-0.0071581,0.024618,-0.012435,-0.021186,-0.067103,-0.096449,-0.01041,-0.057647,0.0042556,-0.03787,-0.0064595,-0.0139,-0.02846,-0.088958,0.13936,0.29608,-0.027802,-0.13878,-0.025335,-0.033159,-0.025446,-0.0063794,0.010632,-0.040351
-0.013689,0.027392,-0.013764,-0.027843,-0.0607,-0.10677,-0.0068654,-0.046145,0.0064332,-0.049582,-0.0086898,-0.011993,-0.02544,-0.081057,0.14679,0.22744,-0.03776,-0.14613,-0.026295,-0.026891,-0.025361,-0.0095988,0.0043196,-0.040602
-0.01833,0.029662,-0.011743,-0.03249,-0.052788,-0.11463,-0.0032885,-0.03595,0.0034746,-0.05865,-0.013738,-0.012526,-0.02454,-0.068644,0.16095,0.13517,-0.047398,-0.15446,-0.026688,-0.021622,-0.025954,-0.016335,0.0025952,-0.038868
-0.019421,0.029095,-0.0069029,-0.034323,-0.045643,-0.11657,-0.0012277,-0.029473,-0.0013889,-0.065732,-0.022199,-0.015445,-0.027541,-0.054482,0.17418,0.053104,-0.053539,-0.162,-0.025434,-0.018348,-0.026072,-0.024859,0.0054273,-0.035481
-0.017754,0.02542,-0.001865,-0.034237,-0.040567,-0.11248,-8.5185e-005,-0.027367,-0.0040617,-0.071116,-0.034055,-0.01911,-0.033487,-0.042338,0.17461,0.0036123,-0.053939,-0.16455,-0.023262,-0.01723,-0.025527,-0.033583,0.010552,-0.032367
-0.015997,0.020521,0.00045878,-0.033666,-0.03719,-0.10411,0.001398,-0.028674,-0.0028715,-0.073835,-0.047749,-0.021008,-0.040379,-0.035729,0.15209,-0.014226,-0.04892,-0.1589,-0.022732,-0.018136,-0.025422,-0.041621,0.014971,-0.031765
-0.016632,0.016984,-0.0010852,-0.033342,-0.034172,-0.092933,0.0032694,-0.031734,0.00049347,-0.072628,-0.060278,-0.019546,-0.047751,-0.036482,0.10445,-0.016786,-0.041648,-0.14559,-0.026738,-0.021054,-0.026901,-0.048513,0.016794,-0.034316
-0.019933,0.016457,-0.0051573,-0.032964,-0.030631,-0.079513,0.0039672,-0.035033,0.0027702,-0.067557,-0.068513,-0.015555,-0.057477,-0.043922,0.040448,-0.018235,-0.036505,-0.12857,-0.036245,-0.025781,-0.029745,-0.053853,0.016154,-0.038314
-0.023625,0.019004,-0.0089949,-0.031805,-0.026881,-0.064641,0.001673,-0.037473,0.0017472,-0.060237,-0.07091,-0.011997,-0.07181,-0.055247,-0.023398,-0.019973,-0.036377,-0.11194,-0.048907,-0.03124,-0.032509,-0.057309,0.014694,-0.04096
-0.024648,0.023606,-0.01043,-0.029539,-0.02378,-0.051052,-0.0039966,-0.038243,-0.0024323,-0.052243,-0.068402,-0.011761,-0.090397,-0.066853,-0.070672,-0.014988,-0.04068,-0.09673,-0.059944,-0.035393,-0.034245,-0.058842,0.014167,-0.040687
-0.021732,0.028956,-0.0093568,-0.026608,-0.021353,-0.04363,-0.01158,-0.036748,-0.0078612,-0.043441,-0.063821,-0.015258,-0.10924,-0.075795,-0.09335,3.4129e-005,-0.045642,-0.080188,-0.065027,-0.036295,-0.035911,-0.058719,0.015242,-0.03847
-0.016672,0.033802,-0.0076297,-0.024066,-0.01817,-0.047186,-0.01893,-0.03286,-0.012261,-0.03225,-0.060148,-0.019931,-0.12297,-0.080519,-0.095327,0.018177,-0.046749,-0.058247,-0.063219,-0.033573,-0.03957,-0.057258,0.017278,-0.036921
-0.013154,0.036916,-0.0075537,-0.023211,-0.012334,-0.063055,-0.024736,-0.027221,-0.013884,-0.017865,-0.058715,-0.022274,-0.12876,-0.080689,-0.08887,0.027442,-0.041679,-0.029158,-0.057704,-0.028954,-0.045759,-0.054676,0.01902,-0.037905
-0.013982,0.037331,-0.010153,-0.025205,-0.0033461,-0.087255,-0.028962,-0.021165,-0.0117,-0.0022565,-0.058543,-0.020675,-0.1286,-0.076589,-0.086419,0.021524,-0.031607,0.0043768,-0.053522,-0.025135,-0.051698,-0.051288,0.01957,-0.040818
-0.01896,0.035102,-0.014501,-0.030602,0.0068781,-0.11229,-0.031925,-0.016141,-0.0055673,0.01029,-0.05728,-0.016568,-0.12795,-0.068814,-0.093363,0.0052063,-0.020058,0.036093,-0.05387,-0.023782,-0.052732,-0.047774,0.018955,-0.04311
-0.025141,0.031881,-0.018533,-0.038783,0.014954,-0.13186,-0.033125,-0.012958,0.0032666,0.016016,-0.053017,-0.012923,-0.13169,-0.058485,-0.10651,-0.010446,-0.010344,0.059593,-0.057728,-0.024344,-0.046323,-0.045005,0.018009,-0.042578
-0.029181,0.030365,-0.020616,-0.047707,0.018356,-0.14494,-0.0312,-0.011404,0.011949,0.014526,-0.045587,-0.011571,-0.14069,-0.04754,-0.11853,-0.017755,-0.0036191,0.072239,-0.060663,-0.024717,-0.035021,-0.043363,0.017747,-0.03937
-0.029795,0.032558,-0.020656,-0.05454,0.017251,-0.15577,-0.025202,-0.01046,0.01702,0.0091012,-0.036387,-0.011886,-0.1515,-0.038417,-0.12428,-0.017596,0.0011194,0.077122,-0.058162,-0.023127,-0.025193,-0.042197,0.018606,-0.03585
-0.028374,0.038163,-0.019992,-0.057124,0.01436,-0.16924,-0.015944,-0.0089343,0.016505,0.0042031,-0.027053,-0.011936,-0.15913,-0.033014,-0.12387,-0.015967,0.0054571,0.081712,-0.048883,-0.019534,-0.022096,-0.040183,0.020005,-0.034451
-0.027423,0.044716,-0.020266,-0.055369,0.013031,-0.18538,-0.0058972,-0.0060877,0.011598,0.0022746,-0.018307,-0.010731,-0.16057,-0.031637,-0.12095,-0.016521,0.010024,0.093824,-0.035361,-0.015367,-0.025517,-0.036515,0.020534,-0.035441
-0.028313,0.049744,-0.022161,-0.051349,0.015153,-0.19759,0.0025365,-0.0019785,0.0063034,0.0023889,-0.010058,-0.0092529,-0.15654,-0.032896,-0.11867,-0.016902,0.01429,0.11742,-0.021841,-0.012001,-0.030056,-0.031923,0.01881,-0.036658
-0.030185,0.053328,-0.024864,-0.047792,0.020455,-0.19636,0.0088735,0.0025738,0.0048997,0.0015654,-0.0024929,-0.0092661,-0.15036,-0.034819,-0.11748,-0.012195,0.017589,0.15121,-0.011258,-0.0095236,-0.029961,-0.028399,0.014608,-0.035457
-0.030759,0.058745,-0.026548,-0.046045,0.0274,-0.17558,0.014644,0.0063905,0.0089424,-0.0025867,0.0032256,-0.011255,-0.14554,-0.036337,-0.11607,-0.0013704,0.020128,0.19114,-0.0038164,-0.0069661,-0.02419,-0.027646,0.009508,-0.031154
-0.028221,0.07025,-0.025593,-0.045202,0.034585,-0.13645,0.021429,0.0086317,0.016068,-0.0099933,0.0057411,-0.013634,-0.14371,-0.037913,-0.1137,0.010155,0.022923,0.23472,0.0019404,-0.0036275,-0.017087,-0.029515,0.0063716,-0.02578
-0.022677,0.089442,-0.021795,-0.043139,0.041471,-0.086228,0.028603,0.0095032,0.021507,-0.018164,0.0052943,-0.014032,-0.14439,-0.040817,-0.11081,0.014539,0.026799,0.28312,0.0069408,-3.4952e-005,-0.01418,-0.031854,0.0076812,-0.02243
-0.016201,0.11306,-0.016779,-0.038537,0.048115,-0.033778,0.033047,0.010429,0.021206,-0.023814,0.0047605,-0.011346,-0.14589,-0.045801,-0.1072,0.0082849,0.031524,0.33853,0.010449,0.0025442,-0.0171,-0.031965,0.013757,-0.022648
-0.011545,0.13409,-0.013186,-0.032111,0.054516,0.014073,0.031396,0.013272,0.014383,-0.024842,0.0085128,-0.006591,-0.14646,-0.05244,-0.1004,-0.004641,0.035892,0.39827,0.010993,0.0035765,-0.02232,-0.028388,0.022246,-0.025098
-0.010451,0.14563,-0.012964,-0.02606,0.060223,0.053062,0.022955,0.018873,0.0039076,-0.021583,0.019533,-0.0018624,-0.1447,-0.059682,-0.086459,-0.016077,0.038564,0.45087,0.0083762,0.0041281,-0.024633,-0.021487,0.029512,-0.026651
-0.012624,0.14466,-0.015869,-0.022371,0.064453,0.080343,0.01069,0.025983,-0.0055281,-0.016745,0.036908,0.0013825,-0.13947,-0.066962,-0.063245,-0.020097,0.038784,0.47883,0.0047922,0.006018,-0.021824,-0.012562,0.033036,-0.024899
-0.01593,0.1331,-0.019399,-0.021508,0.06647,0.094586,-0.00061627,0.031703,-0.010177,-0.014083,0.055813,0.0030714,-0.12988,-0.07473,-0.033049,-0.016911,0.036437,0.46777,0.0038641,0.009876,-0.016126,-0.0026317,0.032993,-0.019932
-0.017677,0.11555,-0.02043,-0.022396,0.066009,0.098046,-0.007484,0.033476,-0.0092466,-0.016347,0.070228,0.0038459,-0.11555,-0.083896,-0.0018635,-0.011508,0.031771,0.41609,0.0082247,0.014013,-0.011393,0.0077508,0.03168,-0.013933
-0.01619,0.095837,-0.017444,-0.023337,0.063574,0.097884,-0.0096039,0.031239,-0.0050569,-0.023623,0.076508,0.0040447,-0.097125,-0.094756,0.024394,-0.0093701,0.025404,0.33787,0.017528,0.015485,-0.0091455,0.017548,0.031269,-0.0091567
-0.011683,0.075117,-0.011624,-0.022857,0.06043,0.10354,-0.009291,0.027844,-0.0013386,-0.033124,0.075278,0.0035692,-0.076173,-0.10641,0.043472,-0.013746,0.018632,0.25597,0.028472,0.012716,-0.0074835,0.024394,0.031799,-0.0061738
-0.0059013,0.052811,-0.0059265,-0.020039,0.058106,0.12045,-0.0094884,0.027085,-0.00074164,-0.040784,0.070439,0.002601,-0.054493,-0.11714,0.0572,-0.026412,0.013354,0.18949,0.036866,0.007365,-0.0037258,0.025154,0.031151,-0.0038956
-0.00083989,0.029118,-0.0029357,-0.014662,0.057531,0.14474,-0.012132,0.030682,-0.0031271,-0.043644,0.066194,0.0020006,-0.033232,-0.12526,0.068761,-0.049655,0.011114,0.14426,0.040211,0.0035144,0.0021669,0.017789,0.027009,-0.0011675
0.0024728,0.0065256,-0.0033007,-0.0074799,0.058385,0.16425,-0.017759,0.036718,-0.0057907,-0.041386,0.064356,0.0025738,-0.012601,-0.1298,0.079635,-0.085858,0.011775,0.11263,0.038919,0.0045184,0.007037,0.0030901,0.01907,0.0016937
0.0041962,-0.011249,-0.0058994,-0.00027922,0.05932,0.16629,-0.025871,0.041023,-0.0055222,-0.035976,0.063801,0.0038983,0.0075089,-0.13037,0.08897,-0.13393,0.013124,0.082253,0.035399,0.010065,0.0074583,-0.01525,0.0095681,0.0029029
0.0048647,-0.021951,-0.0092487,0.0048749,0.059047,0.1469,-0.03526,0.040581,-0.001084,-0.029923,0.062202,0.0042613,0.026496,-0.12681,0.095546,-0.18593,0.01218,0.046699,0.03192,0.016072,0.0031948,-0.032388,0.0016581,0.0007706
0.0044261,-0.026618,-0.012645,0.0070288,0.05743,0.11397,-0.044167,0.036184,0.0057202,-0.02473,0.058489,0.0022666,0.042537,-0.11893,0.10007,-0.2284,0.0074225,0.0099643,0.029054,0.017722,-0.0022848,-0.044632,-0.0029688,-0.0045764
0.0021691,-0.028757,-0.016044,0.0071415,0.055555,0.081477,-0.050763,0.032051,0.011262,-0.020657,0.053924,-0.0012945,0.053102,-0.10675,0.10548,-0.24915,0.00010333,-0.017854,0.025833,0.013238,-0.0047693,-0.050747,-0.0052366,-0.010864
-0.0022876,-0.031463,-0.019123,0.0072298,0.054575,0.059369,-0.054015,0.032602,0.012762,-0.017525,0.050948,-0.0034416,0.056152,-0.091106,0.11495,-0.2456,-0.0065762,-0.029612,0.021202,0.0053047,-0.00289,-0.051643,-0.0076824,-0.015071
-0.0078997,-0.034984,-0.020777,0.0083591,0.054336,0.047359,-0.054304,0.038969,0.010408,-0.01536,0.050849,-0.0013829,0.051127,-0.073935,0.12945,-0.22819,-0.0097946,-0.027434,0.015231,-0.0010071,0.0010094,-0.049125,-0.012142,-0.015448
-0.012257,-0.036844,-0.019724,0.0094264,0.053089,0.037341,-0.053089,0.048056,0.007285,-0.014142,0.052424,0.004762,0.039187,-0.057802,0.14667,-0.21571,-0.009,-0.021596,0.0089854,-0.0020181,0.0033269,-0.044794,-0.018018,-0.012542
-0.013108,-0.034353,-0.01561,0.0082258,0.048738,0.021728,-0.051778,0.054779,0.0071108,-0.013214,0.052893,0.011695,0.022885,-0.044626,0.16224,-0.22496,-0.0059136,-0.023358,0.0034816,0.0021184,0.0024512,-0.039727,-0.022565,-0.0084627
-0.010237,-0.02726,-0.0094517,0.0040301,0.040643,0.00013051,-0.050774,0.055534,0.011505,-0.011465,0.050207,0.015782,0.005725,-0.034404,0.17196,-0.26129,-0.0029981,-0.037626,-0.00091343,0.008065,-0.00022553,-0.034734,-0.023029,-0.0050653
-0.0059952,-0.018246,-0.0029931,-0.00089715,0.030428,-0.021072,-0.049495,0.050201,0.018846,-0.0085689,0.044532,0.016514,-0.0082626,-0.025031,0.1739,-0.31592,-0.0019996,-0.060819,-0.0038462,0.012162,-0.0021707,-0.030618,-0.018999,-0.0025754
-0.0037772,-0.010942,0.0023507,-0.0027205,0.021098,-0.03485,-0.047224,0.041501,0.025527,-0.0061307,0.03753,0.017127,-0.015283,-0.013701,0.16899,-0.37142,-0.0036624,-0.08485,-0.0039711,0.013033,-0.0023256,-0.028071,-0.013054,0.00021493
-0.0055272,-0.0072479,0.0059307,0.00059445,0.015227,-0.03901,-0.043937,0.032809,0.028548,-0.0073011,0.030387,0.021478,-0.012917,0.00082015,0.16035,-0.41122,-0.0081629,-0.10342,0.00077191,0.012039,-0.0018755,-0.027344,-0.00904,0.0044439
-0.010298,-0.0061962,0.0074842,0.0070937,0.013724,-0.036071,-0.040496,0.026395,0.027415,-0.014677,0.022877,0.029982,-0.0010066,0.016782,0.15147,-0.42724,-0.015066,-0.11563,0.011074,0.011678,-0.0026333,-0.028007,-0.0091801,0.0097957
-0.015086,-0.0051339,0.0066984,0.012103,0.015972,-0.028521,-0.038383,0.023129,0.02399,-0.028039,0.01453,0.038652,0.018542,0.030219,0.14444,-0.42141,-0.022551,-0.12455,0.023977,0.013498,-0.0048705,-0.029048,-0.012289,0.01459
-0.017211,-0.0020215,0.0034937,0.011998,0.020809,-0.014926,-0.039524,0.023092,0.020604,-0.043846,0.006518,0.042516,0.043001,0.037619,0.13887,-0.40129,-0.027147,-0.13276,0.032863,0.017165,-0.0068246,-0.029252,-0.014597,0.017342
-0.016203,0.0030949,-0.0011744,0.0071072,0.027238,0.0089164,-0.046293,0.025977,0.018086,-0.056977,0.0017696,0.040385,0.06992,0.038522,0.13252,-0.37358,-0.025277,-0.13894,0.030648,0.021048,-0.0063073,-0.027687,-0.012638,0.018315
-0.013698,0.0084849,-0.005059,0.0011926,0.034351,0.044985,-0.061147,0.030897,0.015266,-0.063369,0.0026737,0.036319,0.096904,0.03592,0.12321,-0.34006,-0.016116,-0.13858,0.014255,0.023556,-0.0027427,-0.024105,-0.0059192,0.019446
-0.011663,0.012431,-0.0056616,-0.0017962,0.041041,0.08944,-0.085466,0.03621,0.010235,-0.061695,0.0085113,0.036044,0.1204,0.034021,0.11074,-0.29825,-0.0033244,-0.12813,-0.01292,0.024074,0.0023807,-0.019101,0.0027964,0.022506
-0.010686,0.014698,-0.0020253,-0.00060646,0.046336,0.13421,-0.11805,0.040031,0.002217,-0.053334,0.015443,0.041349,0.13535,0.035179,0.097445,-0.24586,0.0065512,-0.10913,-0.042502,0.023001,0.0070124,-0.013942,0.0098027,0.027201
-0.009792,0.016625,0.0042584,0.0031566,0.050256,0.17229,-0.15454,0.041302,-0.0074346,-0.041427,0.019405,0.047682,0.1373,0.038554,0.086675,-0.18557,0.008476,-0.088543,-0.065533,0.021146,0.01041,-0.010047,0.013419,0.031209
-0.0077073,0.019892,0.009932,0.0070949,0.054222,0.20146,-0.18881,0.040517,-0.015841,-0.030072,0.019164,0.047445,0.12593,0.041571,0.080298,-0.12623,0.0028075,-0.074748,-0.076693,0.019138,0.013466,-0.008369,0.015142,0.032386
-0.0041809,0.025033,0.01235,0.009889,0.06017,0.22299,-0.21561,0.039427,-0.020286,-0.02379,0.016436,0.036338,0.10661,0.042796,0.077113,-0.078775,-0.0047838,-0.072083,-0.075819,0.017263,0.017178,-0.0090581,0.018105,0.031104
-0.00015334,0.030902,0.011364,0.011381,0.068796,0.23709,-0.23301,0.039845,-0.01981,-0.0266,0.013053,0.017234,0.087336,0.043603,0.073342,-0.048649,-0.0076923,-0.078074,-0.066486,0.015625,0.020897,-0.011672,0.024269,0.030329
0.0031777,0.035494,0.0092857,0.011576,0.078424,0.24042,-0.2426,0.042394,-0.015728,-0.040349,0.0083638,-0.0017919,0.071911,0.047187,0.064696,-0.029915,-0.0036712,-0.085499,-0.053347,0.014288,0.022287,-0.015735,0.032826,0.033113
0.0052892,0.037488,0.008989,0.010309,0.085685,0.22934,-0.24781,0.046032,-0.010875,-0.063188,-5.9764e-005,-0.013544,0.054778,0.055893,0.048354,-0.0067196,0.0033297,-0.087522,-0.040104,0.013202,0.019323,-0.021079,0.041171,0.039764
0.0063641,0.037335,0.011755,0.0080891,0.087701,0.20615,-0.25166,0.048579,-0.0081243,-0.08969,-0.012972,-0.016725,0.02275,0.069278,0.023581,0.036209,0.0063772,-0.081922,-0.028823,0.012091,0.012554,-0.027561,0.047532,0.047444
0.006628,0.037086,0.016503,0.0067548,0.084111,0.18225,-0.25552,0.047885,-0.0090702,-0.1132,-0.027115,-0.01591,-0.035866,0.08437,-0.0089214,0.099709,0.0012085,-0.071391,-0.020158,0.010577,0.0054169,-0.034365,0.052805,0.052613
0.005947,0.03908,0.020799,0.0085314,0.07736,0.17357,-0.25936,0.043038,-0.013613,-0.12923,-0.037096,-0.016978,-0.12077,0.097486,-0.047776,0.16387,-0.010298,-0.060267,-0.013804,0.0085702,0.0020375,-0.03973,0.059808,0.053971
0.0042318,0.044454,0.022607,0.013946,0.071096,0.19075,-0.26225,0.035018,-0.020543,-0.13763,-0.040275,-0.0222,-0.21622,0.10574,-0.090922,0.19767,-0.021581,-0.050822,-0.0089524,0.0065508,0.0042068,-0.041748,0.07036,0.053087
0.0021186,0.052503,0.021482,0.020745,0.067993,0.23131,-0.26238,0.026509,-0.028564,-0.142,-0.039874,-0.028975,-0.29849,0.10724,-0.13518,0.18177,-0.026445,-0.042099,-0.0048245,0.0054002,0.010002,-0.039909,0.082683,0.052254
0.00092764,0.061211,0.018601,0.0253,0.068611,0.28023,-0.25713,0.020924,-0.036904,-0.14676,-0.042712,-0.032698,-0.34991,0.10061,-0.17649,0.12948,-0.023591,-0.031801,-0.0011823,0.0057949,0.015195,-0.036044,0.091583,0.051872
0.0016311,0.06844,0.01602,0.025517,0.071874,0.31865,-0.24405,0.021043,-0.04507,-0.15391,-0.053042,-0.030819,-0.36969,0.085218,-0.21139,0.087775,-0.017204,-0.019074,0.0015569,0.0076234,0.016324,-0.033414,0.091702,0.050009
0.0037652,0.072906,0.015734,0.022552,0.076363,0.33411,-0.22308,0.027878,-0.05218,-0.1616,-0.068043,-0.024647,-0.37359,0.062021,-0.23892,0.11218,-0.013554,-0.0056485,0.0028399,0.0098936,0.013105,-0.034106,0.081485,0.044521
0.00555,0.07446,0.018842,0.019683,0.081174,0.32506,-0.19823,0.040228,-0.056782,-0.16533,-0.079439,-0.017822,-0.38307,0.03391,-0.26152,0.2289,-0.016544,0.005427,0.002823,0.011218,0.0085227,-0.036594,0.064635,0.035565
0.0054091,0.073802,0.024864,0.019379,0.085732,0.29755,-0.17665,0.055091,-0.057633,-0.16083,-0.080234,-0.01325,-0.41175,0.0042865,-0.28369,0.41018,-0.025515,0.012021,0.0027978,0.010573,0.0067909,-0.035765,0.047721,0.026074
0.0035971,0.072053,0.031545,0.021392,0.089107,0.25848,-0.16493,0.068717,-0.054871,-0.14687,-0.070764,-0.011198,-0.45871,-0.025321,-0.3092,0.58292,-0.036395,0.014122,0.004654,0.0079431,0.010738,-0.026021,0.035746,0.019828
0.0022744,0.070423,0.035618,0.023531,0.089814,0.21139,-0.16494,0.077951,-0.050342,-0.12657,-0.058727,-0.0097969,-0.51199,-0.056374,-0.33859,0.6683,-0.044704,0.013247,0.0096035,0.0045747,0.020263,-0.0055072,0.029211,0.018932
0.0036859,0.069869,0.034616,0.024089,0.086565,0.15769,-0.17234,0.081412,-0.046459,-0.10634,-0.053098,-0.0070966,-0.55774,-0.091582,-0.36837,0.62794,-0.048014,0.01098,0.017087,0.0026627,0.032521,0.021806,0.024924,0.022813
0.0079639,0.070628,0.028736,0.023327,0.0794,0.10042,-0.17907,0.080014,-0.044395,-0.093091,-0.057184,-0.0027966,-0.58729,-0.13138,-0.39244,0.4864,-0.046495,0.0080854,0.024764,0.0043372,0.043435,0.048089,0.019607,0.029193
0.012674,0.071857,0.021242,0.022655,0.070166,0.046072,-0.17831,0.076429,-0.043269,-0.090739,-0.066608,0.0015661,-0.59771,-0.17166,-0.40456,0.31555,-0.041871,0.0047757,0.029696,0.010199,0.049632,0.066435,0.013032,0.035787
0.014776,0.071816,0.01666,0.022703,0.061798,0.0021847,-0.16818,0.073557,-0.041294,-0.098074,-0.073634,0.003795,-0.58806,-0.20509,-0.40071,0.19138,-0.035958,0.0014519,0.029938,0.018258,0.049932,0.074904,0.0080326,0.041268
0.013402,0.068802,0.017786,0.022641,0.056877,-0.026989,-0.15184,0.072761,-0.037992,-0.10923,-0.073793,0.0025224,-0.55688,-0.22529,-0.38046,0.1505,-0.029766,-0.0010778,0.025475,0.024393,0.045799,0.076794,0.0076386,0.045171
0.010854,0.062384,0.02373,0.021586,0.056466,-0.042783,-0.13432,0.073035,-0.035338,-0.11676,-0.06914,-0.0019437,-0.50429,-0.2306,-0.34736,0.17131,-0.023474,-0.0021902,0.018053,0.024644,0.040458,0.077242,0.012053,0.047385
0.010675,0.054028,0.030588,0.020431,0.059878,-0.050353,-0.11858,0.071804,-0.036412,-0.11562,-0.065709,-0.0077243,-0.43642,-0.22448,-0.30837,0.18884,-0.017048,-0.0021981,0.010281,0.01813,0.037002,0.079134,0.018107,0.047949
0.014346,0.046462,0.034247,0.021726,0.065188,-0.054569,-0.10366,0.066849,-0.042423,-0.10541,-0.067744,-0.012217,-0.36667,-0.21246,-0.27252,0.13288,-0.011031,-0.0024105,0.0047719,0.00833,0.036456,0.081618,0.021493,0.047134
0.019634,0.041995,0.033118,0.027251,0.069826,-0.057179,-0.085925,0.057893,-0.050715,-0.089547,-0.073774,-0.013295,-0.31029,-0.19819,-0.24856,-0.031129,-0.0068685,-0.0043091,0.0036818,0.0013042,0.037109,0.081958,0.019782,0.0454
0.022353,0.040912,0.028746,0.035608,0.070896,-0.057346,-0.062184,0.046616,-0.05589,-0.072353,-0.077622,-0.010388,-0.27501,-0.18164,-0.24214,-0.27882,-0.0062976,-0.0084554,0.0083952,0.0016796,0.035745,0.078546,0.01389,0.043091
0.020194,0.041191,0.024143,0.042536,0.065545,-0.054522,-0.032095,0.035189,-0.053606,-0.056422,-0.073144,-0.0048684,-0.25436,-0.16015,-0.25319,-0.53263,-0.010028,-0.013951,0.019005,0.0092698,0.030011,0.072271,0.0072265,0.040186
0.015197,0.039883,0.021484,0.044162,0.051829,-0.050673,0.0016134,0.024716,-0.044145,-0.042309,-0.058595,0.00067635,-0.22929,-0.13084,-0.27497,-0.69441,-0.016744,-0.018794,0.033753,0.018996,0.020099,0.065403,0.0035063,0.036475
0.012405,0.035244,0.021,0.040352,0.029955,-0.049782,0.035005,0.014971,-0.032683,-0.030137,-0.037322,0.0040979,-0.17812,-0.092048,-0.29547,-0.68904,-0.023536,-0.020827,0.049082,0.024352,0.0083762,0.059617,0.0047714,0.03197
0.015534,0.028014,0.02157,0.034952,0.002992,-0.055121,0.065171,0.0054913,-0.025687,-0.020947,-0.014856,0.0052105,-0.088751,-0.043192,-0.30121,-0.49628,-0.027743,-0.018741,0.060786,0.021867,-0.0026458,0.055311,0.010497,0.027036
0.023337,0.020851,0.022042,0.03251,-0.023902,-0.066693,0.091154,-0.0032485,-0.026105,-0.016072,0.0046489,0.0059356,0.033946,0.015847,-0.282,-0.15341,-0.028732,-0.012737,0.06587,0.013263,-0.012047,0.052621,0.017852,0.021968
0.02998,0.016339,0.02201,0.03441,-0.045754,-0.080979,0.11325,-0.0099044,-0.031155,-0.015166,0.019793,0.0087173,0.16953,0.084405,-0.23474,0.27105,-0.027952,-0.0046603,0.064021,0.0038479,-0.020265,0.052635,0.022858,0.016402
0.029475,0.015147,0.021636,0.037947,-0.060249,-0.09317,0.13178,-0.013611,-0.034612,-0.01526,0.030755,0.014324,0.29073,0.15957,-0.16476,0.71363,-0.027117,0.0024943,0.057709,-0.0013454,-0.02719,0.057105,0.022124,0.0092812
0.020687,0.015778,0.021094,0.039111,-0.068706,-0.10013,0.14662,-0.015267,-0.031859,-0.012459,0.037572,0.020869,0.37459,0.23507,-0.08397,1.1377,-0.026304,0.0057468,0.050839,-0.00063339,-0.030736,0.066682,0.014559,-0.00035786
0.0087329,0.015974,0.020353,0.036376,-0.074767,-0.10203,0.15785,-0.017336,-0.023641,-0.0051684,0.03988,0.025015,0.41106,0.30208,-0.006805,1.5292,-0.023991,0.0035572,0.046777,0.0040608,-0.027752,0.079379,0.0021688,-0.012319
0.0013923,0.01447,0.019449,0.031936,-0.081745,-0.10161,0.1664,-0.02207,-0.015421,0.0041678,0.038102,0.024514,0.40625,0.35225,0.054323,1.8753,-0.019087,-0.0033237,0.046864,0.0093563,-0.016909,0.090967,-0.010812,-0.024828
0.0032146,0.011585,0.018765,0.029345,-0.090589,-0.10202,0.1738,-0.029526,-0.012871,0.01084,0.034283,0.019997,0.37987,0.38097,0.09199,2.1494,-0.012774,-0.012316,0.050072,0.012859,-0.00099471,0.09729,-0.020146,-0.035205
0.011957,0.0082939,0.018921,0.029936,-0.099892,-0.10466,0.1811,-0.037073,-0.017193,0.011962,0.031104,0.014521,0.35786,0.38882,0.10415,2.316,-0.0079341,-0.020637,0.053834,0.014121,0.013787,0.096763,-0.023849,-0.041181
0.020215,0.0048462,0.020296,0.031436,-0.10764,-0.10868,0.18816,-0.0409,-0.024141,0.0093208,0.029796,0.011269,0.36241,0.38008,0.092543,2.3525,-0.0064042,-0.02693,0.055587,0.013995,0.021437,0.091114,-0.022954,-0.04194
0.020982,0.0003548,0.022647,0.03005,-0.113,-0.11211,0.194,-0.038498,-0.027425,0.0083074,0.029113,0.011337,0.40286,0.35978,0.060967,2.2676,-0.0068544,-0.031647,0.054255,0.013499,0.020011,0.083871,-0.020351,-0.038251
0.012734,-0.0062528,0.025194,0.024046,-0.11645,-0.11364,0.198,-0.03032,-0.023549,0.013711,0.026723,0.013407,0.47179,0.33152,0.014791,2.0989,-0.0058326,-0.035971,0.050862,0.01324,0.012625,0.077886,-0.018665,-0.031831
0.00010782,-0.014875,0.027094,0.015538,-0.11845,-0.11367,0.20042,-0.019509,-0.014103,0.026029,0.021886,0.015407,0.54922,0.29754,-0.038336,1.8897,-0.0013907,-0.040388,0.047778,0.013445,0.0048316,0.073821,-0.018768,-0.024494
-0.010091,-0.023831,0.027915,0.0089106,-0.11808,-0.11377,0.20167,-0.0099496,-0.0039291,0.04152,0.016754,0.016526,0.61393,0.2603,-0.088451,1.6634,0.0042545,-0.044254,0.046962,0.014136,0.00055445,0.070571,-0.019815,-0.017583
-0.014048,-0.030879,0.027772,0.0073103,-0.11349,-0.11531,0.2011,-0.0040547,0.0028731,0.055867,0.014818,0.017783,0.65545,0.22371,-0.12549,1.4144,0.0061043,-0.046694,0.048413,0.015175,-0.00022321,0.066941,-0.020434,-0.011739
-0.013035,-0.034792,0.027082,0.010235,-0.104,-0.11842,0.19695,-0.0017262,0.0056713,0.068033,0.017805,0.020695,0.6791,0.19255,-0.14324,1.1277,0.0010722,-0.047843,0.050094,0.016399,-0.00043388,0.06293,-0.019975,-0.006868
-0.011147,-0.036162,0.026192,0.014127,-0.092079,-0.12228,0.18782,-0.0010584,0.0068552,0.080784,0.024048,0.025407,0.70012,0.17064,-0.14237,0.81266,-0.0082902,-0.04915,0.049563,0.017928,-0.0028429,0.059493,-0.018921,-0.0023178
-0.0112,-0.036821,0.025149,0.015253,-0.082856,-0.1264,0.17428,-0.00010109,0.0092305,0.097442,0.029981,0.030115,0.73126,0.15937,-0.12964,0.52573,-0.014894,-0.052426,0.046068,0.020296,-0.0077086,0.057181,-0.018432,0.0026331
-0.012618,-0.038475,0.023724,0.012424,-0.08093,-0.13152,0.15885,0.0016811,0.01373,0.11794,0.033406,0.032454,0.77301,0.15807,-0.11333,0.36029,-0.012601,-0.058483,0.041371,0.023926,-0.013008,0.05511,-0.01957,0.0080652
-0.012917,-0.041762,0.021605,0.0075513,-0.086705,-0.13924,0.14405,0.0032846,0.019045,0.13795,0.035352,0.031671,0.8141,0.16563,-0.098027,0.40018,-0.0014172,-0.066555,0.038568,0.028223,-0.016614,0.051451,-0.022787,0.012993
-0.010858,-0.046353,0.018628,0.003992,-0.095365,-0.15065,0.1304,0.0032914,0.022876,0.15204,0.038655,0.029596,0.84137,0.18154,-0.082589,0.66272,0.012289,-0.074861,0.039823,0.031263,-0.018192,0.04506,-0.027814,0.015786
-0.0079977,-0.051678,0.014934,0.0042259,-0.099845,-0.1653,0.1164,0.0011355,0.023475,0.15827,0.044625,0.029467,0.85068,0.2054,-0.06269,1.0694,0.020932,-0.081682,0.044845,0.030879,-0.019138,0.036705,-0.033801,0.015365
-0.0072129,-0.057309,0.011037,0.0084845,-0.095851,-0.18139,0.10048,-0.0026105,0.020547,0.15999,0.051078,0.033595,0.8501,0.23518,-0.035648,1.4721,0.021764,-0.08606,0.051205,0.026589,-0.020903,0.028534,-0.039578,0.012266
-0.009909,-0.06255,0.007756,0.014841,-0.085058,-0.19691,0.082943,-0.0070291,0.015388,0.16328,0.053805,0.041904,0.85312,0.26608,-0.0035074,1.7273,0.018641,-0.087812,0.056111,0.020673,-0.023482,0.022105,-0.04405,0.00848
-0.014771,-0.065852,0.0060118,0.020236,-0.073793,-0.2104,0.06573,-0.01173,0.010442,0.17197,0.05028,0.052525,0.86818,0.29114,0.027864,1.7767,0.018125,-0.087303,0.058136,0.017011,-0.025464,0.016753,-0.046759,0.0059532
-0.019193,-0.065082,0.0064798,0.021732,-0.068104,-0.22081,0.050242,-0.016782,0.0082879,0.18435,0.042232,0.063582,0.89251,0.30323,0.05254,1.6786,0.023535,-0.085449,0.05765,0.018216,-0.025387,0.0099337,-0.048358,0.0049775
-0.021785,-0.058946,0.0092062,0.017644,-0.069087,-0.22706,0.035769,-0.021841,0.010259,0.19432,0.03471,0.074271,0.91405,0.2969,0.067901,1.5648,0.032135,-0.083884,0.055859,0.023319,-0.022981,-0.0005242,-0.050515,0.0040397
-0.023395,-0.048545,0.013368,0.0084139,-0.072259,-0.22828,0.020518,-0.025688,0.015444,0.19589,0.032398,0.084233,0.91877,0.26937,0.075077,1.5489,0.037656,-0.084712,0.053426,0.028153,-0.019259,-0.014157,-0.055,0.0014547
-0.025783,-0.037544,0.017389,-0.0031714,-0.07144,-0.22515,0.0044988,-0.027115,0.021009,0.18752,0.036336,0.092263,0.89773,0.22106,0.076606,1.6471,0.035605,-0.08955,0.049848,0.028423,-0.015668,-0.027589,-0.062306,-0.0026826
-0.029442,-0.030388,0.0195,-0.012855,-0.063928,-0.22081,-0.0088774,-0.026499,0.023972,0.17306,0.04365,0.096259,0.85077,0.15618,0.073707,1.772,0.026661,-0.09837,0.044042,0.023033,-0.013309,-0.036578,-0.070782,-0.0061922
-0.032842,-0.029706,0.018555,-0.016837,-0.052698,-0.21993,-0.01482,-0.026285,0.02325,0.15893,0.050172,0.094926,0.7866,0.083014,0.065661,1.8034,0.015561,-0.10921,0.035558,0.014948,-0.012738,-0.038745,-0.077189,-0.0066167
-0.033759,-0.034885,0.014714,-0.013791,-0.043922,-0.22599,-0.01167,-0.029344,0.020334,0.15,0.053497,0.089561,0.72035,0.012573,0.051879,1.6844,0.0070012,-0.1193,0.025322,0.0088494,-0.014024,-0.034883,-0.07864,-0.0034838
-0.031295,-0.042879,0.0095509,-0.0056204,-0.041989,-0.23877,-0.0038804,-0.036406,0.018006,0.14726,0.054065,0.083727,0.66846,-0.044954,0.034824,1.4676,0.0024432,-0.12678,0.015216,0.0076001,-0.016543,-0.028118,-0.074734,0.0012089
-0.026627,-0.05045,0.0054203,0.0036305,-0.046195,-0.25406,-0.00023062,-0.045109,0.018173,0.14855,0.053956,0.080563,0.64105,-0.084053,0.021026,1.2749,0.00034078,-0.13166,0.0067941,0.010397,-0.018682,-0.022008,-0.0682,0.0048158
-0.021941,-0.055856,0.0043025,0.010026,-0.051733,-0.26612,-0.0080785,-0.052003,0.020623,0.15124,0.055005,0.080106,0.63484,-0.1052,0.01877,1.2042,-0.0011113,-0.13508,0.00023242,0.013931,-0.018257,-0.019182,-0.063295,0.0063797
-0.018733,-0.058726,0.0066833,0.011632,-0.053886,-0.27072,-0.028016,-0.055919,0.023594,0.15448,0.057958,0.079299,0.63238,-0.11232,0.033674,1.256,-0.0017723,-0.13761,-0.0056096,0.01527,-0.013933,-0.021071,-0.062855,0.0071406
-0.017039,-0.058671,0.011096,0.0089929,-0.051745,-0.26637,-0.053142,-0.059401,0.025437,0.15946,0.062937,0.07493,0.6109,-0.10838,0.065365,1.3402,2.4516e-006,-0.13847,-0.01206,0.013895,-0.0066948,-0.028012,-0.066178,0.0087351
-0.015991,-0.05438,0.014718,0.0042659,-0.048352,-0.25334,-0.073391,-0.066422,0.025838,0.16784,0.070138,0.066787,0.55713,-0.092906,0.10781,1.351,0.0050179,-0.13638,-0.019437,0.011409,0.00018283,-0.038885,-0.069455,0.011005
-0.014764,-0.044339,0.014899,-4.6308e-005,-0.047407,-0.23207,-0.081426,-0.078182,0.025688,0.17979,0.079696,0.058074,0.47781,-0.063496,0.153,1.2472,0.011606,-0.13136,-0.026803,0.009596,0.0032014,-0.050549,-0.068557,0.011808
-0.01294,-0.028586,0.010842,-0.0020012,-0.049585,-0.20326,-0.075925,-0.090987,0.02597,0.19344,0.090811,0.052732,0.39692,-0.019799,0.19488,1.0717,0.016508,-0.12538,-0.032843,0.0088695,0.0013378,-0.058203,-0.062071,0.0092156
-0.010238,-0.0097707,0.0043437,-0.00065405,-0.051726,-0.16944,-0.060746,-0.098546,0.026789,0.20593,0.10119,0.052268,0.3404,0.033917,0.23,0.89989,0.01752,-0.121,-0.037043,0.0084501,-0.0029752,-0.057278,-0.052215,0.0039661
-0.0063775,0.0076556,-0.0010944,0.0036977,-0.049512,-0.13581,-0.041642,-0.096925,0.02736,0.21521,0.10766,0.054967,0.31902,0.09003,0.25484,0.76979,0.01542,-0.11918,-0.040105,0.0078169,-0.0057192,-0.045906,-0.04297,-0.00040385
-0.0015033,0.019613,-0.0024079,0.0094383,-0.041196,-0.10835,-0.023217,-0.087708,0.026842,0.22112,0.10779,0.057835,0.3221,0.1416,0.26296,0.65506,0.013267,-0.11829,-0.04322,0.0077533,-0.0046417,-0.026121,-0.037096,-0.00023326
0.0033383,0.024278,0.0010835,0.014078,-0.029076,-0.090117,-0.0075188,-0.076408,0.025267,0.22491,0.10126,0.059059,0.32582,0.18569,0.24605,0.49961,0.013622,-0.1155,-0.04682,0.009786,-0.0012213,-0.0027816,-0.034496,0.0050627
0.0065201,0.022406,0.0073459,0.015412,-0.017332,-0.079167,0.0059595,-0.067585,0.023743,0.22773,0.090082,0.05858,0.30876,0.22325,0.19925,0.27503,0.016115,-0.10904,-0.049913,0.014464,0.00058928,0.018962,-0.033134,0.012237
0.0070264,0.016231,0.013129,0.012904,-0.0080072,-0.070788,0.019475,-0.061167,0.02372,0.22945,0.077492,0.05667,0.26286,0.25598,0.12664,0.0053131,0.017552,-0.099466,-0.050645,0.020161,-0.0021204,0.035702,-0.031385,0.016776
0.005485,0.0080826,0.016036,0.0083111,0.0013835,-0.062502,0.035607,-0.05337,0.025785,0.22877,0.066212,0.052404,0.19384,0.28297,0.041311,-0.26028,0.014594,-0.088775,-0.047729,0.023758,-0.0084733,0.046063,-0.029529,0.016636
0.0038838,-0.0003097,0.015528,0.0048411,0.016217,-0.057089,0.055406,-0.041248,0.028904,0.22448,0.057228,0.043809,0.11426,0.29994,-0.040978,-0.49548,0.0068064,-0.078689,-0.04161,0.022905,-0.014297,0.049721,-0.02906,0.01384
0.0039847,-0.0077831,0.012333,0.0052097,0.039868,-0.060006,0.077076,-0.026591,0.030849,0.2165,0.049629,0.02942,0.036595,0.30168,-0.10975,-0.71884,-0.0024438,-0.069785,-0.034412,0.018046,-0.015527,0.046607,-0.030627,0.01247
0.0058057,-0.013542,0.0071966,0.009827,0.069195,-0.072837,0.09641,-0.015527,0.029687,0.20586,0.041497,0.009492,-0.029641,0.2858,-0.16237,-0.97169,-0.0080714,-0.062125,-0.028658,0.012388,-0.011631,0.03717,-0.032743,0.014831
0.0076378,-0.017204,0.00039012,0.016403,0.094318,-0.088804,0.10909,-0.014149,0.025316,0.19342,0.031256,-0.014418,-0.078034,0.255,-0.19904,-1.2782,-0.0067923,-0.05627,-0.025748,0.0095939,-0.0061001,0.023163,-0.032673,0.019256
0.0076699,-0.018989,-0.0076396,0.021306,0.1038,-0.095271,0.11327,-0.023929,0.019739,0.17888,0.018754,-0.040903,-0.10573,0.21618,-0.2155,-1.6264,0.00052057,-0.053273,-0.02536,0.010957,-0.0035959,0.0077285,-0.028829,0.021568
0.0056979,-0.019723,-0.015399,0.021804,0.092156,-0.081925,0.11043,-0.040687,0.015642,0.161,0.005473,-0.069481,-0.11425,0.17692,-0.20165,-1.9824,0.0093121,-0.053477,-0.026119,0.014353,-0.0062238,-0.0057556,-0.022487,0.0189
0.003239,-0.020584,-0.020501,0.017724,0.064445,-0.04764,0.10402,-0.057615,0.014278,0.13903,-0.0061588,-0.099763,-0.10844,0.1419,-0.14921,-2.3175,0.01424,-0.055333,-0.026847,0.015926,-0.012119,-0.015339,-0.017122,0.012393
0.0018955,-0.02274,-0.021049,0.011469,0.034154,0.0004959,0.097498,-0.069554,0.014416,0.11396,-0.013884,-0.12996,-0.092934,0.11166,-0.062542,-2.6158,0.012469,-0.055597,-0.027377,0.013182,-0.017421,-0.021387,-0.015714,0.0063009
0.0015949,-0.026998,-0.017137,0.0064574,0.01551,0.055678,0.093572,-0.075129,0.013413,0.088134,-0.016398,-0.15656,-0.068955,0.084542,0.037891,-2.86,0.005238,-0.051051,-0.028474,0.0069504,-0.019715,-0.026031,-0.018199,0.0043335
0.00055783,-0.033437,-0.011084,0.0050732,0.015466,0.11996,0.095007,-0.075606,0.0096512,0.063545,-0.013436,-0.17598,-0.035035,0.060053,0.12447,-3.0162,-0.0031455,-0.040547,-0.03123,0.0006134,-0.019805,-0.031622,-0.021193,0.0066101
-0.0028034,-0.041151,-0.0060279,0.0074356,0.030989,0.20458,0.10518,-0.072236,0.0042722,0.04023,-0.0054969,-0.18685,0.0089173,0.040971,0.1786,-3.0396,-0.0080979,-0.025855,-0.036578,-0.0026839,-0.020325,-0.039241,-0.020281,0.0099968
-0.0078352,-0.048423,-0.003911,0.011663,0.053131,0.32022,0.12688,-0.064708,0.00052434,0.016459,0.006075,-0.19088,0.058714,0.03237,0.20185,-2.9012,-0.0075541,-0.010614,-0.045061,-0.0023788,-0.022654,-0.048003,-0.013094,0.011403
-0.011559,-0.05359,-0.0043604,0.015237,0.074157,0.46431,0.15976,-0.051862,0.0010775,-0.009342,0.018431,-0.19099,0.10785,0.038046,0.2131,-2.6103,-0.0030651,0.0019857,-0.056524,-0.00041262,-0.025122,-0.055324,-0.00083499,0.010826
-0.010919,-0.056195,-0.0052314,0.016425,0.092008,0.61564,0.19882,-0.033534,0.005545,-0.036691,0.026689,-0.18837,0.15253,0.056933,0.23368,-2.2149,0.0014512,0.011326,-0.069583,0.0010114,-0.024253,-0.057959,0.012729,0.011219
-0.005488,-0.05747,-0.004255,0.014924,0.10925,0.74194,0.23609,-0.011505,0.01051,-0.063091,0.024687,-0.18094,0.19376,0.082301,0.27168,-1.7848,0.0025232,0.019829,-0.081353,0.0016092,-0.017937,-0.053515,0.023846,0.015366
0.0018197,-0.05947,-0.00050364,0.011639,0.12867,0.81619,0.26496,0.011386,0.012289,-0.086167,0.0073653,-0.16509,0.23287,0.10475,0.3167,-1.3938,-0.00033931,0.031306,-0.088214,0.0030665,-0.007628,-0.04188,0.030877,0.022806
0.0067853,-0.063316,0.0052734,0.0081078,0.15022,0.83098,0.28407,0.032997,0.010218,-0.10601,-0.026378,-0.13951,0.26438,0.11731,0.34768,-1.1113,-0.0041965,0.04815,-0.087655,0.0070155,0.0024358,-0.025693,0.034574,0.029824
0.0070163,-0.067994,0.011414,0.0059917,0.17205,0.80118,0.29765,0.052707,0.0075846,-0.12543,-0.072323,-0.10788,0.27422,0.11926,0.34691,-0.99026,-0.004793,0.069298,-0.080024,0.013023,0.0082891,-0.0091781,0.036761,0.032589
0.0035599,-0.070905,0.016444,0.0066119,0.19367,0.75355,0.31133,0.070506,0.009252,-0.14738,-0.12222,-0.07786,0.24797,0.1159,0.30982,-1.0425,0.00018224,0.090542,-0.068701,0.018627,0.0088554,0.0041967,0.038832,0.030597
-0.00024166,-0.069895,0.019747,0.010304,0.21704,0.71088,0.32649,0.085393,0.017847,-0.1715,-0.16695,-0.056464,0.18351,0.11438,0.24515,-1.2125,0.0091551,0.10708,-0.058213,0.021389,0.005949,0.013592,0.041294,0.027328
-0.0015299,-0.065044,0.021571,0.01583,0.24342,0.68141,0.33739,0.094925,0.031648,-0.1925,-0.19952,-0.045368,0.097127,0.11853,0.16759,-1.3813,0.017665,0.11643,-0.051591,0.020895,0.0019909,0.020541,0.044441,0.02758
3.533e-005,-0.058626,0.022596,0.020557,0.26862,0.65895,0.33387,0.096715,0.045864,-0.20202,-0.21616,-0.039688,0.015641,0.12641,0.08973,-1.4185,0.021629,0.11959,-0.048927,0.018757,-0.0021904,0.026643,0.049136,0.033766
0.0025061,-0.053188,0.023418,0.021846,0.28186,0.63125,0.30855,0.090697,0.056101,-0.19312,-0.21582,-0.031303,-0.040827,0.13199,0.018254,-1.2589,0.020278,0.11956,-0.048118,0.016711,-0.0074219,0.031293,0.056661,0.044118
0.0036408,-0.049449,0.024216,0.018974,0.27121,0.58848,0.26365,0.079971,0.061104,-0.16448,-0.19939,-0.014066,-0.072252,0.12922,-0.044885,-0.94491,0.016388,0.11886,-0.046819,0.014888,-0.014346,0.031732,0.067533,0.053938
0.0028155,-0.045906,0.024728,0.014053,0.23217,0.52612,0.21224,0.069213,0.062761,-0.12165,-0.16966,0.013006,-0.097503,0.11498,-0.099682,-0.59645,0.013722,0.11789,-0.043798,0.012129,-0.021832,0.025628,0.0803,0.058575
0.0013579,-0.040482,0.024564,0.010825,0.17268,0.44292,0.17224,0.061779,0.063786,-0.074678,-0.13151,0.046502,-0.13949,0.089289,-0.14667,-0.32504,0.013933,0.11557,-0.038712,0.0079854,-0.027437,0.013896,0.091547,0.055865
0.0013027,-0.032691,0.023638,0.01196,0.10965,0.33894,0.15605,0.057915,0.065354,-0.033507,-0.091039,0.081771,-0.20856,0.053878,-0.18726,-0.1601,0.015556,0.11109,-0.031115,0.00415,-0.029539,0.0010088,0.097489,0.046646
0.0037712,-0.024308,0.022379,0.016947,0.058909,0.21722,0.16215,0.055486,0.066552,-0.0039026,-0.053436,0.11533,-0.29665,0.011511,-0.22388,-0.047528,0.015686,0.10518,-0.020208,0.0034994,-0.028894,-0.0077106,0.096198,0.033609
0.0081991,-0.017941,0.021443,0.022417,0.02607,0.08713,0.17441,0.052385,0.065688,0.014116,-0.020771,0.14488,-0.38505,-0.03304,-0.25855,0.081488,0.012634,0.099622,-0.0058704,0.0073428,-0.027902,-0.0095457,0.088914,0.019671
0.012772,-0.014774,0.021179,0.024768,0.0052518,-0.035792,0.1701,0.048298,0.061961,0.024761,0.0083034,0.16813,-0.45753,-0.07214,-0.29056,0.23572,0.0072182,0.095791,0.01016,0.013547,-0.02812,-0.005719,0.079445,0.0068626
0.015571,-0.013487,0.021353,0.022938,-0.013956,-0.13588,0.13258,0.044284,0.05609,0.032984,0.036598,0.18274,-0.50785,-0.096877,-0.31589,0.35156,0.0018675,0.093515,0.024544,0.017661,-0.028449,0.00024543,0.072016,-0.0039693
0.015661,-0.011208,0.021465,0.019018,-0.037527,-0.20565,0.061469,0.040853,0.04963,0.041036,0.065682,0.18802,-0.5375,-0.10114,-0.32974,0.35368,-0.0013007,0.091312,0.034313,0.016407,-0.025907,0.0053324,0.068988,-0.012866
0.01355,-0.0055791,0.021316,0.016219,-0.063395,-0.24944,-0.02592,0.036775,0.043818,0.047063,0.094567,0.18642,-0.54881,-0.085398,-0.33074,0.23207,-0.0017152,0.087624,0.039019,0.010506,-0.018472,0.0085347,0.069854,-0.020177
0.010778,0.0038961,0.021193,0.016029,-0.085326,-0.27892,-0.10282,0.030136,0.038868,0.046637,0.12064,0.18263,-0.5411,-0.056907,-0.32281,0.064093,-0.00021571,0.081929,0.041072,0.0041783,-0.0074083,0.010218,0.071975,-0.026023
0.0088245,0.016167,0.021406,0.01703,-0.09979,-0.3039,-0.14663,0.020855,0.034009,0.036423,0.14172,0.18041,-0.5129,-0.025997,-0.31257,-0.039611,0.0018096,0.074874,0.043812,0.0016293,0.0031984,0.010644,0.072373,-0.03007
0.0079978,0.029934,0.021714,0.016359,-0.10931,-0.32615,-0.15009,0.012171,0.028047,0.017739,0.15745,0.17967,-0.46631,-0.001131,-0.30375,-0.018307,0.0030994,0.0676,0.048937,0.0035934,0.0094898,0.0093983,0.069368,-0.031783
0.0072379,0.044444,0.021364,0.012444,-0.11972,-0.34094,-0.12386,0.0092838,0.020051,-0.0023867,0.16895,0.17659,-0.40818,0.013641,-0.29406,0.097994,0.0027894,0.060996,0.055508,0.00705,0.010862,0.0061339,0.063214,-0.030938
0.0052164,0.059037,0.019872,0.0065991,-0.13443,-0.34422,-0.089484,0.015847,0.0099637,-0.013639,0.1776,0.16681,-0.34752,0.017654,-0.27805,0.22176,0.00065721,0.05547,0.061301,0.0082986,0.010279,0.0015379,0.055605,-0.027893
0.0019547,0.072284,0.017754,0.0020621,-0.15136,-0.33831,-0.067456,0.031122,-0.001048,-0.0070877,0.18398,0.14908,-0.29276,0.010982,-0.25438,0.282,-0.0025024,0.051136,0.065115,0.0064884,0.011533,-0.0026383,0.048575,-0.023316
-0.00060904,0.082121,0.016367,0.0013354,-0.16499,-0.33093,-0.067291,0.050197,-0.010707,0.020522,0.18795,0.12639,-0.25211,-0.0069723,-0.23073,0.27422,-0.0048236,0.047958,0.067835,0.0043033,0.015804,-0.004515,0.043463,-0.017662
-2.3108e-007,0.087353,0.016784,0.0041679,-0.17143,-0.32894,-0.084788,0.067158,-0.016393,0.065233,0.18916,0.10427,-0.23488,-0.036579,-0.22062,0.24827,-0.004172,0.045669,0.07134,0.0052057,0.020575,-0.0030848,0.040448,-0.011033
0.0044158,0.089171,0.018652,0.0079383,-0.17166,-0.33252,-0.10674,0.078675,-0.016405,0.11767,0.18723,0.088147,-0.24924,-0.076183,-0.23312,0.25246,0.00039541,0.043742,0.076374,0.0099062,0.021884,0.0014145,0.038756,-0.0037172
0.010295,0.09083,0.020084,0.010075,-0.17048,-0.33526,-0.11937,0.085317,-0.011152,0.16682,0.18136,0.081589,-0.29538,-0.12158,-0.26324,0.28698,0.0075445,0.041839,0.081422,0.01546,0.017985,0.007641,0.037307,0.0031799
0.013837,0.095236,0.018801,0.010319,-0.17234,-0.32969,-0.11559,0.090005,-0.0035368,0.20372,0.17019,0.085674,-0.3596,-0.16736,-0.29155,0.30456,0.014002,0.040561,0.083633,0.017899,0.011163,0.013424,0.035339,0.0079295
0.012945,0.10238,0.013701,0.010755,-0.17797,-0.31333,-0.097406,0.095379,0.0018932,0.22331,0.15279,0.098233,-0.41732,-0.20885,-0.29474,0.25135,0.016384,0.041744,0.081014,0.01596,0.0060146,0.016275,0.032612,0.0093961
0.0092289,0.10915,0.005706,0.013544,-0.18436,-0.29013,-0.073209,0.10228,0.00071156,0.22448,0.13037,0.11295,-0.44576,-0.24256,-0.25975,0.109,0.013391,0.047619,0.074085,0.012399,0.0055816,0.01455,0.029157,0.0082725
0.0068589,0.11199,-0.002676,0.018453,-0.18773,-0.26656,-0.051733,0.11005,-0.0095517,0.20909,0.1073,0.12012,-0.43794,-0.26524,-0.19124,-0.095322,0.0068202,0.05912,0.065753,0.011609,0.0086867,0.0090193,0.024945,0.006961
0.0090906,0.11006,-0.0087538,0.022585,-0.18655,-0.24632,-0.03657,0.11756,-0.028368,0.18103,0.0897,0.11072,-0.40643,-0.27277,-0.10718,-0.31155,0.00057772,0.074653,0.059564,0.015675,0.010887,0.0036108,0.019863,0.0078292
0.015516,0.106,-0.011137,0.022757,-0.182,-0.22798,-0.024518,0.1236,-0.052299,0.14558,0.082267,0.082347,-0.37304,-0.26124,-0.0263,-0.4967,-0.0017403,0.090592,0.057587,0.022375,0.0083301,0.0041371,0.014028,0.011204
0.022479,0.1033,-0.010426,0.018511,-0.17574,-0.20723,-0.0089824,0.12651,-0.075986,0.10856,0.085215,0.042443,-0.35272,-0.22979,0.042989,-0.62903,0.00085504,0.10345,0.059288,0.026877,0.0012192,0.015371,0.0080045,0.014979
0.026236,0.10282,-0.0087269,0.012979,-0.16746,-0.18101,0.01378,0.12425,-0.093684,0.074868,0.094101,0.0048131,-0.34509,-0.18335,0.1047,-0.70426,0.0060906,0.11212,0.062031,0.025565,-0.0061913,0.038529,0.0025249,0.016375
0.025967,0.10183,-0.0082579,0.010621,-0.15474,-0.15,0.040165,0.11557,-0.10103,0.046856,0.10284,-0.019453,-0.33978,-0.13203,0.16802,-0.72774,0.0098576,0.11818,0.062823,0.018721,-0.0091263,0.071134,-0.0021675,0.014405
0.024052,0.096587,-0.00992,0.01365,-0.13568,-0.11764,0.060308,0.10172,-0.096702,0.023675,0.10775,-0.030097,-0.32936,-0.086906,0.23713,-0.71326,0.0087952,0.12409,0.060203,0.0099912,-0.0062824,0.10912,-0.0067019,0.010828
0.023628,0.086216,-0.012802,0.020214,-0.11203,-0.087218,0.064578,0.087073,-0.083072,0.0026193,0.10942,-0.038051,-0.31773,-0.054508,0.30585,-0.68466,0.0023767,0.13046,0.054986,0.003469,-0.00076368,0.14889,-0.012145,0.008686
0.025829,0.074086,-0.015051,0.025887,-0.089549,-0.059907,0.05085,0.077665,-0.065216,-0.018213,0.11122,-0.057195,-0.31684,-0.034039,0.36059,-0.67033,-0.0067783,0.13518,0.049318,0.0010375,0.0028003,0.18721,-0.018918,0.009727
0.029125,0.06555,-0.015479,0.027151,-0.07481,-0.035151,0.026794,0.078579,-0.048249,-0.037898,0.11572,-0.093965,-0.3361,-0.019468,0.38889,-0.68911,-0.014459,0.1351,0.044703,0.0019639,0.002242,0.21931,-0.025955,0.012995
0.031024,0.064101,-0.014587,0.023879,-0.0705,-0.012535,0.0050068,0.091901,-0.034644,-0.053192,0.12224,-0.14313,-0.37482,-0.0049975,0.38735,-0.73909,-0.017238,0.12912,0.040621,0.0044713,-0.00071406,0.23787,-0.030955,0.015798
0.030291,0.069475,-0.014019,0.018895,-0.073215,0.0070118,-0.0055211,0.11639,-0.023622,-0.06148,0.12724,-0.19274,-0.42387,0.010168,0.3636,-0.80193,-0.014251,0.11982,0.035035,0.0073948,-0.0027304,0.23545,-0.03177,0.016099
0.027714,0.079184,-0.014859,0.015325,-0.075729,0.021793,-0.0051414,0.14838,-0.013211,-0.063824,0.12673,-0.23321,-0.4733,0.02127,0.33165,-0.86092,-0.0074856,0.11218,0.02652,0.01041,-0.0024247,0.20925,-0.027986,0.0142
0.025046,0.091679,-0.016344,0.014252,-0.072161,0.030868,-0.0022869,0.1827,-0.0032083,-0.065271,0.11847,-0.2626,-0.5181,0.02194,0.30413,-0.91674,-0.00058315,0.11005,0.016224,0.013069,-0.001636,0.16459,-0.021478,0.012279
0.02344,0.108,-0.016336,0.014535,-0.062077,0.03486,-0.0065812,0.21337,0.0039075,-0.071645,0.10191,-0.28393,-0.55765,0.0095663,0.287,-0.98535,0.0031273,0.11338,0.0077513,0.014134,-0.0031893,0.11351,-0.015412,0.012322
0.022865,0.13044,-0.013284,0.014446,-0.050456,0.03532,-0.021871,0.23449,0.005321,-0.085134,0.076551,-0.2984,-0.59159,-0.01186,0.27963,-1.0792,0.0023823,0.11832,0.0047148,0.012268,-0.0075155,0.068722,-0.012302,0.014318
0.022782,0.15963,-0.0078449,0.013252,-0.043868,0.033488,-0.044213,0.24224,0.0014121,-0.10242,0.040681,-0.30142,-0.61784,-0.033336,0.27884,-1.1895,-0.0013549,0.12022,0.0078247,0.0075539,-0.011652,0.037241,-0.012499,0.016304
0.023089,0.1926,-0.0025398,0.011335,-0.04604,0.029818,-0.065512,0.23676,-0.0032158,-0.11725,-0.00796,-0.28552,-0.63473,-0.045429,0.28278,-1.2884,-0.004749,0.11695,0.013954,0.0022079,-0.011738,0.018188,-0.014181,0.016205
0.024223,0.22332,0.00036817,0.0092352,-0.056082,0.024573,-0.079298,0.22219,-0.0029238,-0.12573,-0.069991,-0.24743,-0.64401,-0.042403,0.29084,-1.3498,-0.0046172,0.11001,0.018131,-0.00060762,-0.0065773,0.0059209,-0.014865,0.013864
0.026292,0.24478,0.00074746,0.007033,-0.070159,0.018502,-0.084183,0.20406,0.0039506,-0.13,-0.14269,-0.19278,-0.6506,-0.023301,0.30003,-1.3725,3.8919e-005,0.10285,0.017,0.00078899,0.0012562,-0.0048049,-0.013338,0.011463
0.028244,0.25123,0.00038387,0.0048013,-0.084724,0.012628,-0.083072,0.18558,0.012878,-0.13702,-0.22047,-0.13448,-0.65913,0.0097018,0.30186,-1.3847,0.0073791,0.098119,0.011085,0.0049554,0.0078241,-0.015936,-0.010613,0.011823
0.028164,0.23945,0.00088881,0.003349,-0.09857,0.0074032,-0.07946,0.16593,0.016192,-0.15329,-0.29717,-0.086312,-0.67185,0.052924,0.28396,-1.4262,0.014015,0.095992,0.0041769,0.0081096,0.011284,-0.026959,-0.0091856,0.015886
0.024751,0.20941,0.0018998,0.003966,-0.11235,0.0025269,-0.07385,0.14222,0.0090868,-0.17975,-0.36828,-0.056943,-0.69072,0.10049,0.23681,-1.5219,0.017352,0.0947,0.00045168,0.0070318,0.012975,-0.03729,-0.011157,0.021485
0.018778,0.16462,0.0015438,0.0070403,-0.1265,-0.0019543,-0.062788,0.11346,-0.0066987,-0.21106,-0.43108,-0.048391,-0.72142,0.14219,0.16122,-1.6681,0.017191,0.092152,0.0015795,0.0018449,0.015213,-0.047176,-0.016607,0.024636
0.013069,0.11168,-0.0011464,0.010971,-0.13967,-0.0043132,-0.041178,0.082817,-0.024742,-0.23967,-0.48294,-0.058617,-0.77305,0.16347,0.070574,-1.8361,0.015373,0.087196,0.0058628,-0.0037381,0.018304,-0.056484,-0.023482,0.022538
0.010666,0.058608,-0.0043157,0.012887,-0.14926,-0.001397,-0.0066608,0.055866,-0.039461,-0.26116,-0.51987,-0.085015,-0.851,0.1506,-0.014657,-1.9856,0.013928,0.079747,0.0097391,-0.005185,0.020018,-0.063516,-0.029099,0.015907
0.012495,0.012152,-0.0041101,0.010969,-0.15363,0.0090721,0.036415,0.036202,-0.05004,-0.27633,-0.53722,-0.12585,-0.94798,0.099017,-0.077007,-2.0762,0.013462,0.070249,0.010305,-0.00087318,0.018085,-0.065984,-0.032111,0.0086279
0.016466,-0.024532,0.0020552,0.0063048,-0.15388,0.025997,0.076207,0.022608,-0.059188,-0.28864,-0.53261,-0.17915,-1.0425,0.01861,-0.1099,-2.0728,0.013141,0.059299,0.0070402,0.0062931,0.013001,-0.063548,-0.03334,0.0047976
0.01892,-0.052315,0.01259,0.0022908,-0.15312,0.044795,0.097234,0.010662,-0.06824,-0.30009,-0.50862,-0.24064,-1.1094,-0.070014,-0.11849,-1.9519,0.012078,0.047682,0.0017522,0.010897,0.007998,-0.059107,-0.034812,0.0054804
0.017299,-0.074423,0.022019,0.0017738,-0.15329,0.06032,0.087728,-0.0023872,-0.073593,-0.30947,-0.47246,-0.30213,-1.1358,-0.1475,-0.11398,-1.7136,0.01061,0.036379,-0.0029479,0.0092167,0.0060066,-0.05688,-0.037818,0.0078989
0.011858,-0.093807,0.024647,0.0043951,-0.1522,0.070481,0.046595,-0.013981,-0.068123,-0.31465,-0.43237,-0.35155,-1.1307,-0.2078,-0.10643,-1.3941,0.010276,0.026144,-0.0054267,0.0022742,0.0067209,-0.05863,-0.041676,0.0078399
0.0050397,-0.11128,0.018781,0.0066812,-0.14381,0.077324,-0.014579,-0.017666,-0.046431,-0.31594,-0.39322,-0.37446,-1.1191,-0.26068,-0.10109,-1.0668,0.012638,0.01691,-0.0058856,-0.0048059,0.0069403,-0.061608,-0.044236,0.003338
-0.00075688,-0.12542,0.0080556,0.0050134,-0.12251,0.084519,-0.076538,-0.0088689,-0.0092986,-0.31671,-0.35483,-0.35759,-1.1249,-0.32208,-0.099405,-0.82233,0.018107,0.0077537,-0.005841,-0.0066768,0.0040724,-0.060502,-0.043654,-0.003475
-0.0049424,-0.13409,-0.0012157,-0.0010852,-0.088308,0.09363,-0.12191,0.0099285,0.036323,-0.3202,-0.31433,-0.29365,-1.1551,-0.39987,-0.10155,-0.73388,0.025662,-0.0022891,-0.0067286,-0.001801,-0.00069744,-0.051941,-0.03983,-0.0080066
-0.0085457,-0.13635,-0.0044956,-0.0083349,-0.048283,0.1027,-0.14352,0.029563,0.081392,-0.32521,-0.27034,-0.1859,-1.1972,-0.48701,-0.10687,-0.82461,0.033382,-0.01318,-0.0086975,0.0065528,-0.0029782,-0.037595,-0.034283,-0.0070557
-0.012559,-0.13353,-0.0017935,-0.012407,-0.012572,0.10844,-0.14623,0.040441,0.11928,-0.32546,-0.22525,-0.049566,-1.2303,-0.56793,-0.112,-1.0544,0.039169,-0.02365,-0.010458,0.013,0.00072839,-0.023103,-0.028694,-0.0016891
-0.016643,-0.12887,0.003104,-0.011613,0.012185,0.10979,-0.14157,0.03966,0.14751,-0.31352,-0.18325,0.091921,-1.2393,-0.63313,-0.10954,-1.3318,0.041378,-0.032162,-0.010229,0.014076,0.0092415,-0.013811,-0.023517,0.0033269
-0.01946,-0.12577,0.0058182,-0.0083301,0.026363,0.10931,-0.1394,0.032936,0.16641,-0.28654,-0.14603,0.21511,-1.2221,-0.68921,-0.090576,-1.5464,0.039448,-0.038222,-0.0070009,0.010352,0.017047,-0.011036,-0.017928,0.0031963
-0.020111,-0.12596,0.0042058,-0.0069089,0.034961,0.11086,-0.14252,0.029657,0.1771,-0.24871,-0.11024,0.30525,-1.1855,-0.75552,-0.050551,-1.6073,0.034445,-0.042766,-0.0011896,0.0051769,0.018804,-0.011825,-0.01101,-0.0030423
-0.019046,-0.12879,-0.0010748,-0.0099468,0.041807,0.11593,-0.14739,0.035389,0.1806,-0.20856,-0.069761,0.36071,-1.1389,-0.8494,0.0058926,-1.4745,0.028927,-0.047199,0.005702,0.0015199,0.01403,-0.011932,-0.0029504,-0.011582
-0.017484,-0.13209,-0.0079196,-0.016169,0.046008,0.12188,-0.14897,0.048224,0.17827,-0.17349,-0.021443,0.39063,-1.0906,-0.9718,0.06541,-1.1721,0.025748,-0.05206,0.011983,-0.00017253,0.0076395,-0.0091132,0.0049444,-0.016637
-0.016067,-0.13399,-0.014334,-0.021677,0.043851,0.12399,-0.14494,0.06159,0.17202,-0.14632,0.030535,0.40763,-1.0486,-1.1044,0.11228,-0.77651,0.026333,-0.056703,0.01652,-0.0014233,0.0056938,-0.0040839,0.011391,-0.014752
-0.014291,-0.13419,-0.01897,-0.02331,0.033874,0.11926,-0.13605,0.070181,0.16356,-0.12612,0.075836,0.42045,-1.0222,-1.2201,0.13642,-0.38567,0.02977,-0.060363,0.018945,-0.0034142,0.010126,0.0010116,0.01626,-0.0072509
-0.011322,-0.13385,-0.0209,-0.021111,0.019708,0.10876,-0.12332,0.073275,0.15319,-0.11137,0.10443,0.43082,-1.0182,-1.2982,0.13783,-0.080587,0.033551,-0.063451,0.019472,-0.0054236,0.017144,0.0047065,0.020552,0.0010286
-0.0072636,-0.13428,-0.019614,-0.017843,0.0077965,0.096706,-0.10577,0.072902,0.13961,-0.10179,0.11334,0.43566,-1.0351,-1.3325,0.12521,0.10193,0.035372,-0.067607,0.018675,-0.0055894,0.020723,0.007011,0.025237,0.0055273
-0.0033924,-0.13572,-0.015575,-0.016256,0.0024994,0.087416,-0.081102,0.069724,0.12123,-0.096779,0.10829,0.43182,-1.06,-1.3278,0.11077,0.17453,0.034447,-0.074232,0.017355,-0.0031543,0.018023,0.0087217,0.030158,0.0051788
-0.0010803,-0.13723,-0.010589,-0.01673,0.0037376,0.082948,-0.048667,0.061463,0.097945,-0.092627,0.098806,0.41929,-1.0731,-1.2905,0.1049,0.18308,0.031372,-0.082838,0.016363,0.00016881,0.011946,0.010434,0.034156,0.0026
-0.00057574,-0.13763,-0.0071477,-0.017406,0.0094172,0.082937,-0.011438,0.045525,0.071884,-0.082337,0.09132,0.40059,-1.0568,-1.2215,0.11315,0.1798,0.02704,-0.090866,0.016249,0.0012195,0.0086601,0.012295,0.036365,0.001444
-0.00098865,-0.1363,-0.0069187,-0.016442,0.019485,0.085819,0.02498,0.022708,0.046446,-0.059452,0.085964,0.37754,-1.0028,-1.1188,0.13548,0.19866,0.021919,-0.09533,0.016916,-0.0020399,0.012364,0.014397,0.037404,0.0033261
-0.001447,-0.13332,-0.009593,-0.014053,0.036413,0.08955,0.055565,-0.0022967,0.024267,-0.023317,0.079521,0.34841,-0.91307,-0.9844,0.16739,0.24199,0.016296,-0.094943,0.017621,-0.0087564,0.021818,0.016994,0.039167,0.0067617
-0.0020538,-0.12886,-0.013152,-0.012295,0.060638,0.091129,0.078445,-0.024433,0.0056335,0.018922,0.07109,0.30822,-0.79579,-0.82914,0.2026,0.28107,0.010848,-0.090967,0.017456,-0.015819,0.031424,0.020134,0.043246,0.0086252
-0.0034981,-0.12275,-0.015383,-0.012853,0.085397,0.086166,0.094804,-0.042327,-0.011555,0.056012,0.064566,0.25188,-0.66014,-0.66943,0.2368,0.26963,0.0065196,-0.086154,0.016032,-0.020265,0.035698,0.023163,0.049368,0.0066491
-0.0057322,-0.11468,-0.015387,-0.015089,0.097194,0.070133,0.10657,-0.058839,-0.030191,0.079719,0.0652,0.17768,-0.5145,-0.51833,0.27041,0.16579,0.0036115,-0.082737,0.01379,-0.021321,0.033329,0.02483,0.055294,0.0010369
-0.0072817,-0.10478,-0.013934,-0.01638,0.083542,0.041207,0.11411,-0.077776,-0.05172,0.089993,0.073351,0.087968,-0.36698,-0.37909,0.30763,-0.045389,0.0011387,-0.081034,0.011632,-0.020461,0.027687,0.024143,0.058345,-0.0056625
-0.0061776,-0.093845,-0.012611,-0.014514,0.042586,0.0024622,0.11584,-0.10026,-0.074727,0.09404,0.081635,-0.013275,-0.22528,-0.24669,0.35121,-0.33796,-0.0025341,-0.079597,0.010068,-0.019786,0.023776,0.021342,0.057238,-0.009979
-0.0017762,-0.082733,-0.012663,-0.0098237,-0.013386,-0.038922,0.10978,-0.12428,-0.095496,0.099971,0.078874,-0.12366,-0.094614,-0.11614,0.3968,-0.64628,-0.0080363,-0.076561,0.0085627,-0.020394,0.024306,0.018142,0.052684,-0.009314
0.0043132,-0.071658,-0.014397,-0.0049249,-0.063933,-0.075468,0.095765,-0.14746,-0.11047,0.11015,0.058028,-0.24306,0.024713,0.0096396,0.43225,-0.88185,-0.013809,-0.071144,0.0057154,-0.022059,0.027937,0.01694,0.046343,-0.0033634
0.0092015,-0.060014,-0.017277,-0.0022748,-0.091447,-0.10342,0.076743,-0.16969,-0.1191,0.11973,0.021446,-0.37047,0.13745,0.11875,0.44382,-0.96113,-0.016733,-0.064223,0.00033074,-0.024068,0.030741,0.019389,0.039141,0.0053507
0.010817,-0.047089,-0.020295,-0.0019024,-0.08879,-0.12372,0.05822,-0.1929,-0.12493,0.12167,-0.020929,-0.49889,0.25033,0.19648,0.42488,-0.83743,-0.014393,-0.057647,-0.0072696,-0.026036,0.029449,0.025147,0.030462,0.012295
0.0093382,-0.033058,-0.022296,-0.0015486,-0.058804,-0.13935,0.046141,-0.21828,-0.13357,0.11392,-0.058516,-0.61186,0.3676,0.23351,0.37979,-0.52765,-0.0072547,-0.052738,-0.014725,-0.027888,0.023931,0.031536,0.018852,0.013132
0.0068657,-0.019345,-0.022363,0.0009062,-0.0084345,-0.15145,0.044229,-0.24404,-0.14853,0.10263,-0.085976,-0.68436,0.488,0.23021,0.31935,-0.12141,0.0010988,-0.049086,-0.018583,-0.029353,0.017121,0.034481,0.0036516,0.0063919
0.005829,-0.0080026,-0.020359,0.0051002,0.055574,-0.15805,0.052285,-0.26602,-0.16765,0.098064,-0.10347,-0.68912,0.60446,0.19522,0.25187,0.24021,0.0061034,-0.04466,-0.016383,-0.029878,0.012612,0.030458,-0.013786,-0.0051789
0.0075181,-0.00055831,-0.017267,0.0082569,0.12537,-0.15624,0.066625,-0.28055,-0.18285,0.10653,-0.11258,-0.6073,0.70643,0.14097,0.17798,0.41881,0.0052845,-0.037427,-0.0085485,-0.029252,0.011865,0.018506,-0.030263,-0.015924
0.011677,0.0028238,-0.014781,0.0076668,0.18802,-0.1457,0.082618,-0.2869,-0.18387,0.12515,-0.11313,-0.44045,0.7837,0.080184,0.094239,0.34605,1.3241e-005,-0.027384,0.0014511,-0.028186,0.013189,0.0010126,-0.042261,-0.020754
0.016988,0.0034006,-0.014056,0.0032774,0.22572,-0.13016,0.097807,-0.28713,-0.16381,0.14425,-0.10452,-0.21762,0.83105,0.024631,0.0017434,0.066092,-0.00541,-0.017203,0.0090758,-0.027945,0.013294,-0.017467,-0.047848,-0.018422
0.021733,0.0032536,-0.014517,-0.0020178,0.22343,-0.11546,0.11348,-0.28373,-0.1232,0.15547,-0.0893,0.0095216,0.85208,-0.015144,-0.088585,-0.28047,-0.0067669,-0.010552,0.011598,-0.029139,0.010135,-0.032775,-0.047715,-0.012084
0.024239,0.0044615,-0.013936,-0.0046544,0.17948,-0.10602,0.13355,-0.27731,-0.070267,0.15862,-0.073636,0.18649,0.86002,-0.031358,-0.15992,-0.53098,-0.0028775,-0.0090478,0.0097509,-0.030845,0.0047211,-0.043285,-0.044647,-0.0066767
0.0233,0.0083377,-0.010127,-0.0031916,0.10985,-0.10284,0.16161,-0.26627,-0.017428,0.16114,-0.062187,0.28323,0.87356,-0.021791,-0.19996,-0.58998,0.0036766,-0.01037,0.0068531,-0.031102,0.00033191,-0.049973,-0.041739,-0.0052123
0.018782,0.014865,-0.0031098,0.00075885,0.040831,-0.10415,0.19821,-0.24882,0.023809,0.17055,-0.051437,0.31176,0.90882,0.0083641,-0.20905,-0.47275,0.0086351,-0.0094644,0.0061824,-0.028475,-0.00023085,-0.054472,-0.040482,-0.0069544
0.012121,0.022517,0.0041985,0.0040599,-0.0062826,-0.10746,0.24014,-0.22572,0.04699,0.1866,-0.028706,0.31898,0.97159,0.048024,-0.19886,-0.27002,0.0093983,-0.0022982,0.0088199,-0.023225,0.0029796,-0.056984,-0.039984,-0.00879
0.0060253,0.028752,0.0077007,0.0044988,-0.027152,-0.11112,0.28182,-0.2018,0.052239,0.19997,0.02002,0.35476,1.0544,0.085358,-0.18258,-0.057992,0.007025,0.010796,0.01369,-0.01697,0.0070912,-0.056076,-0.037857,-0.0083803
0.003135,0.031207,0.0051928,0.0020909,-0.034188,-0.11428,0.3177,-0.18482,0.044959,0.19883,0.09856,0.43572,1.1397,0.11404,-0.16484,0.17794,0.0052378,0.025167,0.019415,-0.011255,0.008797,-0.050582,-0.032154,-0.0062804
0.0042545,0.02909,-0.00166,-0.001517,-0.044722,-0.11649,0.3442,-0.18204,0.032717,0.17757,0.19495,0.53164,1.2071,0.13696,-0.13991,0.54318,0.0071443,0.03551,0.025921,-0.0065248,0.0069393,-0.041703,-0.022964,-0.0052935
0.0074526,0.023869,-0.0082265,-0.0045816,-0.067457,-0.11777,0.36066,-0.19603,0.021968,0.14088,0.28734,0.58677,1.2391,0.16494,-0.099424,1.1501,0.012349,0.040198,0.034089,-0.002493,0.0030006,-0.033113,-0.012421,-0.0077741
0.0089522,0.018666,-0.01017,-0.0062773,-0.097833,-0.11909,0.36897,-0.22254,0.016122,0.10024,0.35738,0.56158,1.2263,0.21102,-0.043252,2.0086,0.016984,0.042535,0.043848,0.00071718,-0.00081939,-0.028717,-0.0030197,-0.01323
0.0055033,0.016573,-0.0065233,-0.0066529,-0.12479,-0.12198,0.37223,-0.25185,0.015605,0.066681,0.40052,0.463,1.1695,0.28305,0.015886,2.9769,0.016853,0.047772,0.052813,0.0021469,-0.0040047,-0.029984,0.0045039,-0.018117
-0.0032952,0.018822,-0.00010118,-0.0061561,-0.14169,-0.12716,0.37268,-0.27345,0.019321,0.045523,0.42546,0.34005,1.0809,0.37848,0.058026,3.818,0.011169,0.058472,0.057188,0.00096784,-0.0082117,-0.035188,0.011979,-0.017794
-0.014451,0.023891,0.0050037,-0.0055074,-0.15147,-0.13342,0.37029,-0.2811,0.026045,0.036332,0.44427,0.24893,0.98312,0.48397,0.067754,4.3361,0.0036432,0.072296,0.054459,-0.0021537,-0.015266,-0.041079,0.022367,-0.0090315
-0.023363,0.028102,0.0066674,-0.0058732,-0.16227,-0.13828,0.36317,-0.27511,0.034581,0.036386,0.46242,0.21585,0.90268,0.57994,0.043468,4.4967,-0.00019587,0.084182,0.045557,-0.0049646,-0.024492,-0.045367,0.036939,0.0086224
-0.02675,0.027486,0.005992,-0.0086035,-0.17878,-0.14046,0.35011,-0.26061,0.042839,0.043829,0.47705,0.22632,0.8607,0.64797,-0.0021926,4.4445,0.0026144,0.090883,0.034522,-0.0053027,-0.032,-0.047796,0.053224,0.033053
-0.024593,0.020044,0.0056779,-0.014187,-0.19797,-0.14183,0.33313,-0.24347,0.047308,0.058255,0.48365,0.24584,0.86461,0.6775,-0.050036,4.3995,0.010037,0.093707,0.025875,-0.0031347,-0.032949,-0.049207,0.065656,0.060561
-0.019718,0.007174,0.0071622,-0.021189,-0.21291,-0.14645,0.31729,-0.22746,0.044311,0.079562,0.48352,0.25163,0.90658,0.66864,-0.083797,4.506,0.0166,0.096905,0.02189,-0.00088967,-0.025223,-0.049886,0.068948,0.086652
-0.015484,-0.0067208,0.009159,-0.026473,-0.22032,-0.15713,0.30701,-0.21451,0.032729,0.10724,0.4847,0.24778,0.96997,0.63026,-0.095144,4.7456,0.017639,0.10325,0.021953,-0.001448,-0.011572,-0.049036,0.06202,0.10649
-0.013532,-0.016562,0.0088352,-0.027097,-0.22422,-0.17226,0.30155,-0.20698,0.016061,0.14098,0.49554,0.25365,1.0394,0.57476,-0.082948,4.9764,0.012705,0.11102,0.024225,-0.0054062,0.0016081,-0.045884,0.049552,0.11572
-0.013287,-0.019659,0.0044251,-0.022684,-0.23219,-0.18627,0.2944,-0.20853,0.0014945,0.18135,0.51738,0.27922,1.1076,0.51283,-0.050382,5.0571,0.0054805,0.11532,0.027843,-0.010137,0.0081117,-0.041208,0.03969,0.11208
-0.013317,-0.017468,-0.0031185,-0.016207,-0.2483,-0.1936,0.27864,-0.22178,-0.0041342,0.22898,0.54331,0.31089,1.175,0.45119,-0.0037756,4.9481,0.00059656,0.11287,0.033646,-0.011704,0.0056084,-0.037602,0.039224,0.09714
-0.013044,-0.014599,-0.010799,-0.012233,-0.2694,-0.19299,0.25473,-0.24444,0.0011977,0.28229,0.56404,0.32023,1.2435,0.39348,0.046758,4.7056,0.00021721,0.10572,0.042914,-0.0080986,-0.0033869,-0.037992,0.04957,0.076597
-0.013269,-0.01551,-0.015766,-0.013754,-0.28814,-0.18822,0.23388,-0.26792,0.013351,0.33583,0.57552,0.28691,1.3093,0.34243,0.088332,4.3868,0.0030937,0.10052,0.055436,-0.00097368,-0.013714,-0.043547,0.066422,0.057984
-0.015215,-0.021305,-0.01701,-0.02011,-0.29921,-0.18468,0.23278,-0.28109,0.025049,0.38118,0.58161,0.2157,1.361,0.30044,0.11041,3.9669,0.0063774,0.10359,0.068794,0.0057049,-0.021111,-0.05272,0.083171,0.046747
-0.019222,-0.029157,-0.015313,-0.02769,-0.30248,-0.18498,0.26261,-0.27721,0.030914,0.4102,0.58986,0.13364,1.3824,0.2676,0.1117,3.357,0.0081462,0.116,0.079593,0.0088652,-0.024537,-0.062189,0.095243,0.04321
-0.02433,-0.034866,-0.012028,-0.032752,-0.30042,-0.18744,0.32064,-0.25899,0.030474,0.41836,0.60424,0.071193,1.3597,0.23942,0.10302,2.5121,0.0083492,0.13271,0.085732,0.0084989,-0.025869,-0.068929,0.10181,0.042804
-0.028998,-0.036383,-0.0081689,-0.033952,-0.29295,-0.18861,0.39134,-0.23714,0.026951,0.40561,0.62082,0.042886,1.287,0.20726,0.10227,1.528,0.0076965,0.14632,0.087919,0.0068944,-0.027579,-0.071745,0.1036,0.039632
-0.032135,-0.035233,-0.0045706,-0.032577,-0.2757,-0.18689,0.45628,-0.22289,0.023404,0.37453,0.62921,0.041735,1.167,0.16276,0.1241,0.62487,0.0060565,0.15209,0.089207,0.005846,-0.030328,-0.071212,0.099153,0.030784
-0.033528,-0.034631,-0.0024248,-0.030664,-0.24385,-0.18376,0.50434,-0.22002,0.01995,0.32798,0.61821,0.048885,1.0078,0.10372,0.17165,0.019162,0.0022584,0.15003,0.092771,0.0046903,-0.032245,-0.068313,0.083408,0.018104
-0.033521,-0.036087,-0.0030407,-0.029064,-0.19839,-0.1817,0.53404,-0.22244,0.014313,0.2686,0.58121,0.048619,0.81928,0.036809,0.23614,-0.21415,-0.0044114,0.14308,0.099397,0.0011717,-0.03029,-0.063205,0.050861,0.0059939
-0.032498,-0.037723,-0.0066882,-0.027263,-0.14864,-0.18118,0.54678,-0.21917,0.0046406,0.20032,0.51848,0.037027,0.61162,-0.025545,0.30368,-0.17601,-0.012647,0.13358,0.10636,-0.0057197,-0.022579,-0.055391,0.0014479,-0.0030014
-0.030687,-0.036027,-0.01171,-0.024808,-0.10793,-0.17992,0.53819,-0.2027,-0.008481,0.1296,0.43594,0.020077,0.39766,-0.072494,0.36315,-0.052763,-0.01941,0.12154,0.10851,-0.013883,-0.0099729,-0.045257,-0.055727,-0.011305
-0.028261,-0.029569,-0.015172,-0.022535,-0.084917,-0.17502,0.49643,-0.17387,-0.022578,0.064277,0.34226,0.0056618,0.19431,-0.10098,0.40905,0.013327,-0.022229,0.1059,0.10101,-0.01933,0.004152,-0.035523,-0.10478,-0.025559
-0.025367,-0.021263,-0.014938,-0.022121,-0.077233,-0.16562,0.41011,-0.13999,-0.035346,0.010097,0.24651,-0.0026627,0.019066,-0.11631,0.43913,-0.016868,-0.021513,0.08676,0.082068,-0.019591,0.015664,-0.030921,-0.13111,-0.052437
-0.021998,-0.01692,-0.011506,-0.024366,-0.072347,-0.15352,0.27944,-0.10825,-0.045776,-0.032186,0.15719,-0.0062345,-0.11779,-0.12682,0.45094,-0.12441,-0.020492,0.066038,0.054123,-0.016103,0.021658,-0.035732,-0.13,-0.094117
-0.017989,-0.021033,-0.0079235,-0.028039,-0.055646,-0.14119,0.1211,-0.080661,-0.053379,-0.066467,0.082379,-0.0079524,-0.21964,-0.13698,0.44143,-0.31578,-0.022456,0.045927,0.02274,-0.01317,0.021405,-0.050805,-0.10962,-0.14677
-0.013412,-0.033233,-0.0076369,-0.030637,-0.02019,-0.12973,-0.037887,-0.054393,-0.056893,-0.097661,0.029685,-0.0095224,-0.30198,-0.14439,0.40952,-0.651,-0.027586,0.026836,-0.0060282,-0.014274,0.016028,-0.072471,-0.085853,-0.20307
-0.0090621,-0.048371,-0.011975,-0.030438,0.028704,-0.11875,-0.17281,-0.026655,-0.054498,-0.12778,0.0045762,-0.011749,-0.38233,-0.14298,0.35838,-1.1866,-0.032404,0.0070935,-0.028239,-0.019095,0.0076194,-0.094556,-0.072445,-0.25661
-0.0063512,-0.060153,-0.019304,-0.027936,0.077278,-0.10815,-0.27132,0.0011035,-0.045674,-0.15496,0.0070761,-0.01657,-0.46843,-0.1294,0.29493,-1.8936,-0.03269,-0.015342,-0.043185,-0.024004,-0.0013418,-0.11218,-0.073022,-0.30464
-0.0063406,-0.065368,-0.026475,-0.025306,0.11275,-0.099241,-0.33422,0.023676,-0.032744,-0.17606,0.02859,-0.027919,-0.55328,-0.10726,0.22748,-2.6373,-0.027528,-0.041022,-0.052745,-0.025559,-0.0081997,-0.12441,-0.080425,-0.34713
-0.0085803,-0.065448,-0.031239,-0.024434,0.13149,-0.093513,-0.36844,0.036699,-0.020169,-0.19014,0.051935,-0.050168,-0.61985,-0.085135,0.16369,-3.2496,-0.020825,-0.068914,-0.059721,-0.02373,-0.010572,-0.13365,-0.083127,-0.38335
-0.010934,-0.064491,-0.033581,-0.025338,0.14021,-0.089788,-0.37932,0.040751,-0.011963,-0.19981,0.056473,-0.085755,-0.65049,-0.069639,0.1098,-3.6323,-0.018688,-0.097965,-0.066359,-0.021871,-0.0073947,-0.14248,-0.073649,-0.40939
-0.010889,-0.06576,-0.035008,-0.02634,0.14962,-0.082976,-0.36879,0.040846,-0.0095409,-0.20926,0.026811,-0.13441,-0.63409,-0.059123,0.069862,-3.8021,-0.024642,-0.12829,-0.073653,-0.023524,6.2753e-005,-0.15078,-0.052988,-0.41939
-0.0074608,-0.069551,-0.036644,-0.025679,0.16579,-0.06644,-0.33967,0.041652,-0.011856,-0.22124,-0.039766,-0.1945,-0.56766,-0.043566,0.044156,-3.8352,-0.036656,-0.16029,-0.081363,-0.029067,0.0084195,-0.15572,-0.02862,-0.41003
-0.0020574,-0.073724,-0.037981,-0.023037,0.18572,-0.036718,-0.30067,0.042919,-0.017304,-0.23564,-0.13206,-0.26448,-0.4545,-0.011573,0.028411,-3.7624,-0.04852,-0.19248,-0.088331,-0.035251,0.014061,-0.15469,-0.0085186,-0.38476
0.0025917,-0.075765,-0.037402,-0.019721,0.20014,0.0032687,-0.26619,0.039543,-0.025155,-0.25038,-0.23103,-0.34245,-0.30231,0.04059,0.016627,-3.5103,-0.054475,-0.2204,-0.093009,-0.037936,0.015534,-0.1483,0.0039142,-0.35422
0.0046124,-0.07432,-0.033929,-0.017523,0.20089,0.045515,-0.24994,0.02645,-0.035098,-0.26335,-0.31916,-0.42399,-0.12171,0.10514,0.007087,-2.9482,-0.053328,-0.23862,-0.094272,-0.035495,0.014493,-0.14062,0.010683,-0.33192
0.0044118,-0.069143,-0.028512,-0.017325,0.1872,0.081949,-0.25739,0.0040269,-0.045762,-0.27329,-0.3871,-0.50104,0.076275,0.16745,0.0067251,-2.0076,-0.048825,-0.24455,-0.092384,-0.02992,0.014223,-0.13599,0.016174,-0.32759
0.0041447,-0.06018,-0.023633,-0.018509,0.16663,0.10917,-0.28318,-0.020752,-0.054293,-0.27954,-0.43407,-0.56383,0.28426,0.21564,0.028343,-0.77807,-0.046212,-0.24085,-0.089428,-0.024932,0.016885,-0.13517,0.023434,-0.34193
0.0057783,-0.047159,-0.021498,-0.019436,0.15058,0.12922,-0.31566,-0.038555,-0.057867,-0.28193,-0.46347,-0.60502,0.50192,0.24748,0.080569,0.50279,-0.047983,-0.2339,-0.088524,-0.022963,0.021801,-0.13406,0.032712,-0.36559
0.0095179,-0.030198,-0.022347,-0.018504,0.14762,0.14613,-0.34491,-0.043743,-0.055786,-0.28166,-0.47847,-0.62248,0.73619,0.2696,0.15767,1.5631,-0.052191,-0.22913,-0.092031,-0.023573,0.026267,-0.12654,0.042693,-0.38257
0.013882,-0.010702,-0.024291,-0.015067,0.15909,0.16177,-0.36812,-0.037315,-0.049992,-0.28188,-0.48106,-0.61852,0.99736,0.29069,0.23824,2.2309,-0.054437,-0.22729,-0.099978,-0.024357,0.028016,-0.10923,0.052473,-0.37661
0.01711,0.0084873,-0.024807,-0.0097816,0.17904,0.1744,-0.38874,-0.024818,-0.043356,-0.28612,-0.47405,-0.59687,1.2919,0.31521,0.29535,2.4947,-0.051655,-0.22466,-0.11012,-0.02323,0.027016,-0.084632,0.06206,-0.33816
0.018427,0.023919,-0.022645,-0.004316,0.19835,0.18096,-0.41136,-0.011509,-0.037321,-0.29454,-0.46246,-0.56133,1.6133,0.34254,0.31171,2.4611,-0.044586,-0.21731,-0.11972,-0.020149,0.025007,-0.059846,0.071027,-0.26932
0.018067,0.032658,-0.018664,-0.00062863,0.21063,0.18056,-0.43714,0.0010536,-0.031075,-0.30084,-0.45149,-0.51781,1.9351,0.37064,0.28853,2.2613,-0.037142,-0.2054,-0.12753,-0.017059,0.023444,-0.04197,0.077057,-0.1845
0.016338,0.032972,-0.015028,-0.0001318,0.2163,0.17587,-0.46338,0.014754,-0.022887,-0.29376,-0.44222,-0.47706,2.2103,0.39936,0.2423,1.9886,-0.033394,-0.19369,-0.13408,-0.016342,0.022056,-0.033529,0.076348,-0.10554
0.013022,0.024545,-0.013513,-0.0030794,0.22247,0.17148,-0.48635,0.032142,-0.012148,-0.26352,-0.42894,-0.45301,2.3849,0.42993,0.19296,1.6996,-0.034641,-0.18757,-0.13981,-0.018996,0.019467,-0.031315,0.066076,-0.052613
0.0079043,0.0085728,-0.014276,-0.0084326,0.23816,0.17092,-0.5038,0.054048,-0.00016207,-0.20921,-0.40143,-0.45473,2.4237,0.46213,0.15264,1.4495,-0.038647,-0.18808,-0.14293,-0.023774,0.01509,-0.02933,0.046874,-0.0349
0.0018762,-0.01219,-0.015934,-0.014268,0.26794,0.17484,-0.51449,0.079291,0.010869,-0.14105,-0.3514,-0.47693,2.3338,0.49302,0.12192,1.2987,-0.041346,-0.19027,-0.1395,-0.027832,0.010111,-0.023408,0.022912,-0.045919
-0.0028028,-0.033913,-0.016716,-0.018554,0.30815,0.18167,-0.51596,0.10578,0.019444,-0.075231,-0.27858,-0.49732,2.1666,0.51868,0.092978,1.2708,-0.039488,-0.18654,-0.12625,-0.028477,0.0062917,-0.014027,-0.00086607,-0.066807
-0.0038221,-0.053006,-0.015667,-0.019943,0.34855,0.18965,-0.50394,0.13118,0.025407,-0.02472,-0.19193,-0.48549,1.9902,0.53623,0.054244,1.2995,-0.032339,-0.17232,-0.10413,-0.024913,0.0037667,-0.0053804,-0.022161,-0.076158
-0.0007743,-0.067715,-0.012991,-0.018228,0.37845,0.19855,-0.47528,0.15243,0.029282,0.007343,-0.10503,-0.41918,1.8452,0.54293,-0.0071762,1.2271,-0.021499,-0.14937,-0.079111,-0.018804,0.00033256,-0.0017055,-0.042404,-0.060946
0.0041502,-0.078748,-0.0095095,-0.014286,0.3928,0.20975,-0.43198,0.1654,0.031353,0.027486,-0.029253,-0.29699,1.7181,0.53332,-0.10358,0.88047,-0.0093713,-0.12423,-0.059035,-0.013178,-0.006586,-0.003822,-0.064501,-0.021946
0.0077209,-0.088262,-0.0059378,-0.0096281,0.39409,0.22487,-0.38191,0.16629,0.03161,0.046188,0.030427,-0.13873,1.5555,0.49936,-0.2413,0.18217,0.0023936,-0.10311,-0.04876,-0.010383,-0.016916,-0.008451,-0.089223,0.029683
0.0083399,-0.097932,-0.0027092,-0.0058384,0.38943,0.24411,-0.33423,0.1548,0.030593,0.071552,0.074792,0.025967,1.3125,0.43703,-0.4119,-0.77759,0.013403,-0.087648,-0.047598,-0.010574,-0.026915,-0.010601,-0.11349,0.082197
0.0073852,-0.10778,-0.00036543,-0.0041431,0.38578,0.26523,-0.29297,0.13647,0.030003,0.10638,0.10664,0.17165,0.99772,0.35515,-0.58637,-1.762,0.023875,-0.074592,-0.051149,-0.011874,-0.031588,-0.007001,-0.13203,0.13264
0.0077796,-0.11677,0.00017439,-0.0051269,0.38745,0.28397,-0.25474,0.12149,0.032088,0.1489,0.12758,0.28392,0.67576,0.2777,-0.72088,-2.4922,0.033613,-0.059192,-0.055717,-0.012038,-0.028674,0.0019992,-0.14096,0.18903
0.010928,-0.12441,-0.0019265,-0.0085213,0.39706,0.29574,-0.21338,0.11938,0.037936,0.19483,0.1377,0.35706,0.42129,0.23335,-0.77529,-2.7744,0.041561,-0.03905,-0.061211,-0.010255,-0.020638,0.013181,-0.14001,0.2636
0.014888,-0.13161,-0.006452,-0.013136,0.41784,0.29787,-0.16788,0.13303,0.046004,0.23866,0.13733,0.38914,0.26006,0.23738,-0.73526,-2.5793,0.04636,-0.015393,-0.06998,-0.0076695,-0.012713,0.022906,-0.13199,0.36159
0.015694,-0.13964,-0.01162,-0.017216,0.45387,0.29109,-0.12633,0.15644,0.052257,0.27426,0.12855,0.38165,0.1464,0.27909,-0.62257,-2.0392,0.047419,0.0086297,-0.082992,-0.006292,-0.0086344,0.029258,-0.12028,0.47362
0.010831,-0.14804,-0.014821,-0.019355,0.50696,0.27931,-0.10166,0.17845,0.052173,0.29592,0.11481,0.34428,-0.001289,0.32611,-0.4847,-1.3723,0.045535,0.03051,-0.097327,-0.0072894,-0.0078302,0.032596,-0.10708,0.57726
0.0017643,-0.15367,-0.014346,-0.019525,0.57215,0.26745,-0.10248,0.1898,0.043434,0.29998,0.099397,0.29784,-0.23257,0.34424,-0.36902,-0.78153,0.042458,0.049513,-0.10762,-0.010019,-0.0064855,0.034679,-0.093556,0.64733
-0.0068263,-0.15217,-0.010825,-0.019337,0.63572,0.2588,-0.12718,0.18836,0.027446,0.28611,0.084227,0.26851,-0.51832,0.31877,-0.29893,-0.37682,0.039737,0.065981,-0.11018,-0.012442,-0.0013562,0.037474,-0.080934,0.66834
-0.01051,-0.14105,-0.0071438,-0.020938,0.67854,0.25335,-0.16619,0.17868,0.0085498,0.25708,0.070114,0.27496,-0.76285,0.26181,-0.26807,-0.15192,0.037845,0.080235,-0.10598,-0.012456,0.0072396,0.042445,-0.070691,0.64158
-0.0082853,-0.12176,-0.0067549,-0.025144,0.6836,0.24848,-0.21001,0.16669,-0.008686,0.2173,0.057549,0.3178,-0.86617,0.20101,-0.25472,-0.017564,0.036351,0.092476,-0.099602,-0.0091723,0.015969,0.050324,-0.0632,0.58294
-0.0028883,-0.099046,-0.011495,-0.030307,0.64399,0.2411,-0.25501,0.15439,-0.022281,0.17128,0.046654,0.38059,-0.78966,0.15946,-0.24349,0.13187,0.034864,0.10367,-0.095208,-0.0033452,0.02196,0.060953,-0.056368,0.51373
0.0017535,-0.078075,-0.020378,-0.033169,0.56613,0.22973,-0.3019,0.13857,-0.033879,0.12311,0.035992,0.44241,-0.57801,0.14222,-0.23676,0.3523,0.033644,0.11615,-0.093029,0.0031472,0.025851,0.07317,-0.046124,0.45021
0.0035384,-0.061481,-0.030063,-0.031351,0.46632,0.21493,-0.34905,0.1142,-0.047368,0.076699,0.021726,0.49219,-0.32659,0.13806,-0.24834,0.61471,0.03315,0.13291,-0.089363,0.008401,0.031407,0.08511,-0.028874,0.39772
0.0032563,-0.048446,-0.036628,-0.025492,0.36253,0.19798,-0.38824,0.07898,-0.066174,0.035831,-0.0010652,0.53321,-0.12328,0.13228,-0.28729,0.81573,0.032997,0.1561,-0.079705,0.011546,0.041824,0.095098,-0.0040363,0.35181
0.0032449,-0.035913,-0.037583,-0.019124,0.2669,0.17939,-0.40798,0.03526,-0.09106,0.0034662,-0.034837,0.57517,-0.0077479,0.11899,-0.34686,0.82863,0.03167,0.1858,-0.06217,0.013166,0.056021,0.10265,0.025458,0.30504
0.0051755,-0.020399,-0.033091,-0.016108,0.18336,0.15844,-0.40215,-0.011706,-0.11966,-0.019308,-0.076114,0.62179,0.029665,0.10374,-0.4072,0.57075,0.027773,0.22022,-0.038661,0.014749,0.068475,0.10872,0.054952,0.25557
0.0088659,0.0012177,-0.025767,-0.017629,0.11075,0.13412,-0.37636,-0.056927,-0.14754,-0.033603,-0.11517,0.66568,0.020029,0.097156,-0.44743,0.053549,0.021922,0.25689,-0.013573,0.017392,0.073126,0.11482,0.080417,0.21267
0.012791,0.032105,-0.019143,-0.021227,0.047482,0.10639,-0.34644,-0.097423,-0.16976,-0.041713,-0.13998,0.69491,-0.012391,0.1068,-0.45506,-0.61221,0.01735,0.29371,0.0082796,0.020607,0.068216,0.12179,0.099411,0.19514
0.015513,0.075806,-0.015566,-0.022682,-0.0066453,0.076375,-0.32986,-0.13172,-0.18215,-0.04523,-0.14219,0.70501,-0.058287,0.13417,-0.42556,-1.2616,0.018141,0.32911,0.023009,0.022244,0.057887,0.12913,0.11031,0.22203
0.016749,0.13515,-0.014836,-0.019225,-0.05266,0.045674,-0.33613,-0.15841,-0.18224,-0.043542,-0.12129,0.7042,-0.11315,0.17719,-0.35603,-1.7478,0.026182,0.36155,0.02823,0.019829,0.04913,0.13568,0.11123,0.29956
0.017366,0.20971,-0.014558,-0.011515,-0.09503,0.015566,-0.36207,-0.17558,-0.17016,-0.033775,-0.084168,0.70599,-0.16589,0.23328,-0.24345,-2.0007,0.039374,0.38942,0.023686,0.012456,0.046688,0.14077,0.10021,0.41216
0.018501,0.29327,-0.012051,-0.0029505,-0.1406,-0.012701,-0.39381,-0.18124,-0.14923,-0.012302,-0.040886,0.71408,-0.20067,0.29906,-0.092228,-2.0407,0.052797,0.41182,0.012088,0.0017397,0.050224,0.14485,0.076786,0.52493
0.02057,0.37352,-0.006402,0.00293,-0.19349,-0.036992,-0.41351,-0.17421,-0.12562,0.023027,-5.6829e-005,0.71294,-0.21152,0.36745,0.075959,-1.9457,0.06195,0.42961,-0.00087463,-0.0090536,0.055787,0.14888,0.043638,0.59834
0.022919,0.4351,0.0009311,0.0048417,-0.25044,-0.054213,-0.40752,-0.15473,-0.10667,0.070972,0.033129,0.67387,-0.21661,0.42678,0.22243,-1.7983,0.065371,0.44537,-0.0084554,-0.017086,0.05974,0.1531,0.0065712,0.60761
0.024355,0.46522,0.0073223,0.0042283,-0.30137,-0.06213,-0.37294,-0.12543,-0.098217,0.12597,0.05589,0.57434,-0.25796,0.46482,0.30767,-1.6488,0.064615,0.4617,-0.0062894,-0.021621,0.061349,0.15649,-0.027399,0.55424
0.024204,0.45927,0.010814,0.0037159,-0.33564,-0.062102,-0.32001,-0.092499,-0.10245,0.17834,0.06616,0.41634,-0.38268,0.4755,0.31445,-1.5114,0.062072,0.47887,0.0047615,-0.024002,0.061997,0.15733,-0.052731,0.46168
0.023095,0.42317,0.011004,0.0048863,-0.34872,-0.060131,-0.2683,-0.065877,-0.11718,0.21573,0.062501,0.22746,-0.61486,0.46268,0.26032,-1.3813,0.058962,0.49368,0.018611,-0.026122,0.062457,0.15435,-0.06712,0.35809
0.022738,0.37079,0.008547,0.0070518,-0.34334,-0.064333,-0.23765,-0.056511,-0.13694,0.22592,0.04544,0.040884,-0.9355,0.43726,0.18846,-1.2494,0.055229,0.50086,0.027127,-0.028752,0.061354,0.14739,-0.071568,0.25901
0.024679,0.31711,0.0042444,0.0078971,-0.32404,-0.079827,-0.23784,-0.070745,-0.15482,0.20073,0.017952,-0.13307,-1.2853,0.40955,0.14194,-1.0972,0.050825,0.49562,0.024379,-0.031109,0.056376,0.13697,-0.069186,0.16249
0.028859,0.27104,-0.001113,0.0055119,-0.29036,-0.10477,-0.26369,-0.10532,-0.16432,0.13977,-0.016594,-0.32087,-1.5927,0.38294,0.13963,-0.88454,0.046495,0.47532,0.00902,-0.031826,0.046792,0.12348,-0.063792,0.059205
0.033141,0.23222,-0.0061953,0.00028506,-0.2355,-0.13102,-0.29877,-0.14759,-0.16015,0.051997,-0.057543,-0.56989,-1.8133,0.35335,0.17062,-0.55306,0.043034,0.43896,-0.01648,-0.030356,0.034591,0.10709,-0.058915,-0.052167
0.034394,0.19395,-0.0089884,-0.0049178,-0.15299,-0.14928,-0.32534,-0.18238,-0.13849,-0.046325,-0.10752,-0.90893,-1.954,0.31391,0.20866,-0.060332,0.040046,0.38572,-0.048428,-0.0276,0.023076,0.088556,-0.057156,-0.15838
0.030508,0.15016,-0.0078182,-0.0067025,-0.046875,-0.15504,-0.33316,-0.20125,-0.097075,-0.13674,-0.16842,-1.3116,-2.0655,0.26053,0.23356,0.57075,0.036014,0.31516,-0.083679,-0.025317,0.014346,0.070107,-0.059618,-0.23954
0.021848,0.10127,-0.0028202,-0.0039028,0.06283,-0.15052,-0.3213,-0.20734,-0.035895,-0.20438,-0.23547,-1.6926,-2.2028,0.19422,0.24292,1.2279,0.030004,0.22971,-0.1192,-0.02488,0.0080125,0.054962,-0.065584,-0.28443
0.011021,0.054496,0.0037295,0.0011093,0.14527,-0.14151,-0.29301,-0.21174,0.041488,-0.24168,-0.29539,-1.9453,-2.3815,0.11977,0.24754,1.7438,0.023224,0.13741,-0.15057,-0.026308,0.0020793,0.045434,-0.072913,-0.29967
0.0011279,0.018507,0.0088951,0.0039128,0.17332,-0.13229,-0.24977,-0.22419,0.12673,-0.24882,-0.33238,-2.0015,-2.5618,0.043316,0.2579,1.9814,0.018472,0.051396,-0.17179,-0.028218,-0.0051841,0.041028,-0.079256,-0.30467
-0.0060956,-0.0029767,0.011174,0.001402,0.13967,-0.12294,-0.19063,-0.24561,0.20696,-0.23209,-0.33929,-1.873,-2.675,-0.029199,0.27439,1.9173,0.017618,-0.014739,-0.17761,-0.028609,-0.01415,0.038398,-0.083386,-0.31698
-0.010784,-0.013443,0.011209,-0.0056685,0.063974,-0.11128,-0.11735,-0.268,0.26754,-0.20179,-0.32547,-1.6466,-2.6734,-0.092773,0.28817,1.6603,0.019611,-0.05288,-0.16685,-0.025924,-0.024117,0.033604,-0.085606,-0.34056
-0.013893,-0.019926,0.010454,-0.013173,-0.015081,-0.096766,-0.04017,-0.28095,0.29697,-0.17014,-0.31392,-1.4333,-2.5655,-0.14431,0.28915,1.3827,0.021298,-0.063287,-0.14374,-0.019793,-0.034128,0.025038,-0.086929,-0.36632
-0.015783,-0.026893,0.0092443,-0.016837,-0.06022,-0.08242,0.022917,-0.27882,0.29207,-0.14859,-0.32836,-1.3066,-2.4078,-0.18395,0.27209,1.2079,0.020573,-0.052563,-0.11598,-0.011168,-0.043274,0.014581,-0.087874,-0.38285
-0.015898,-0.033094,0.0064528,-0.015504,-0.057035,-0.07308,0.054863,-0.26338,0.26041,-0.14389,-0.37896,-1.2698,-2.2597,-0.21509,0.23611,1.1356,0.01872,-0.02907,-0.09069,-0.0019009,-0.050438,0.0059597,-0.088124,-0.38679
-0.013782,-0.033933,0.0011945,-0.011732,-0.022851,-0.071877,0.051219,-0.24108,0.21813,-0.15449,-0.45719,-1.2723,-2.1373,-0.24222,0.18052,1.0566,0.01934,0.00015571,-0.071316,0.0060064,-0.054296,0.0016259,-0.087333,-0.38415
-0.010278,-0.026903,-0.0052561,-0.0093702,0.0038091,-0.078578,0.026066,-0.21872,0.18326,-0.17011,-0.54298,-1.2578,-2.0019,-0.26724,0.10361,0.84423,0.024558,0.029185,-0.05761,0.011226,-0.054106,0.00083795,-0.086037,-0.38303
-0.0074306,-0.014978,-0.0096865,-0.010386,-0.012651,-0.091239,0.0068572,-0.20077,0.16768,-0.17646,-0.618,-1.2067,-1.7937,-0.28726,0.0068055,0.44772,0.032181,0.051721,-0.047764,0.013703,-0.050743,0.00051564,-0.085332,-0.38587
-0.006939,-0.0049392,-0.0095676,-0.013689,-0.082658,-0.10913,0.020362,-0.18901,0.17192,-0.16327,-0.6747,-1.1433,-1.4799,-0.29562,-0.10003,-0.07775,0.036843,0.061551,-0.040385,0.01472,-0.046795,-0.0019931,-0.085262,-0.38857
-0.0085912,-0.0022284,-0.0056942,-0.016717,-0.18592,-0.13359,0.078199,-0.18272,0.18589,-0.13096,-0.7155,-1.1066,-1.0819,-0.28551,-0.199,-0.61537,0.034438,0.055514,-0.034618,0.016253,-0.045178,-0.0067201,-0.083579,-0.38589
-0.010388,-0.0069489,-0.002046,-0.018026,-0.28595,-0.16567,0.17082,-0.17879,0.1955,-0.091049,-0.74516,-1.1124,-0.66138,-0.25351,-0.2717,-1.0569,0.025866,0.036058,-0.029053,0.019851,-0.047078,-0.01129,-0.076671,-0.37669
-0.010515,-0.014342,-0.0025313,-0.018414,-0.35388,-0.20264,0.27312,-0.17265,0.19146,-0.059502,-0.7642,-1.1351,-0.27929,-0.20093,-0.30844,-1.3418,0.016632,0.010095,-0.021345,0.025686,-0.050895,-0.013132,-0.062643,-0.36346
-0.0094055,-0.019032,-0.0073403,-0.019683,-0.38472,-0.23719,0.35736,-0.16105,0.17497,-0.04702,-0.76865,-1.1225,0.036639,-0.13294,-0.31145,-1.4503,0.012602,-0.015717,-0.0095592,0.032447,-0.053259,-0.011574,-0.044115,-0.34756
-0.0097415,-0.019253,-0.012304,-0.022456,-0.39548,-0.26049,0.40517,-0.14473,0.15672,-0.05265,-0.75498,-1.029,0.29555,-0.057049,-0.28975,-1.3793,0.015652,-0.039388,0.005848,0.038197,-0.051551,-0.0080622,-0.027828,-0.32627
-0.01405,-0.017687,-0.012126,-0.025245,-0.40866,-0.2671,0.41248,-0.12791,0.14992,-0.064945,-0.72474,-0.84221,0.52153,0.017773,-0.25102,-1.1378,0.022738,-0.063768,0.02161,0.041588,-0.046002,-0.0046276,-0.020388,-0.2955
-0.021923,-0.018726,-0.0049049,-0.025669,-0.43491,-0.25779,0.38674,-0.11365,0.16216,-0.069756,-0.68499,-0.58808,0.7303,0.082022,-0.19794,-0.76443,0.028706,-0.092469,0.033738,0.042549,-0.039624,-0.0023073,-0.022866,-0.25567
-0.029549,-0.024788,0.0058996,-0.02262,-0.46796,-0.23817,0.34047,-0.098424,0.19124,-0.059383,-0.64491,-0.31347,0.92433,0.12788,-0.13141,-0.3367,0.030037,-0.12558,0.040652,0.041997,-0.035941,-0.00097747,-0.028587,-0.21421
-0.032348,-0.034604,0.013788,-0.017369,-0.4935,-0.21445,0.28551,-0.071584,0.22747,-0.037172,-0.61188,-0.062257,1.1053,0.15308,-0.055815,0.054148,0.026527,-0.15931,0.04455,0.040924,-0.036335,-0.00043048,-0.026602,-0.18147
-0.028634,-0.044324,0.014021,-0.012633,-0.50292,-0.19,0.23006,-0.02202,0.25999,-0.015027,-0.58963,0.14136,1.2856,0.1642,0.020456,0.35017,0.020212,-0.18967,0.049445,0.039586,-0.039187,-0.0012381,-0.0091777,-0.16313
-0.02108,-0.050105,0.0070744,-0.010558,-0.49987,-0.16515,0.17798,0.052209,0.28259,-0.0059856,-0.57833,0.29596,1.4835,0.17588,0.090421,0.55469,0.013141,-0.21639,0.057125,0.03732,-0.041458,-0.0043156,0.021742,-0.15635
-0.014586,-0.05018,-0.0018939,-0.011377,-0.49545,-0.14,0.12925,0.13921,0.29572,-0.016899,-0.57535,0.41535,1.704,0.20394,0.15407,0.71118,0.0059068,-0.24303,0.06422,0.032881,-0.041229,-0.0096687,0.053968,-0.15307
-0.0123,-0.045373,-0.0069912,-0.013685,-0.49802,-0.11702,0.081431,0.2185,0.3042,-0.045575,-0.57615,0.51704,1.9242,0.25465,0.2171,0.84834,-0.0024049,-0.27334,0.062884,0.02498,-0.038962,-0.015849,0.071404,-0.14719
-0.013296,-0.038279,-0.0057992,-0.015781,-0.50696,-0.1011,0.032462,0.27343,0.31291,-0.0834,-0.57593,0.61228,2.0985,0.31652,0.28256,0.94102,-0.013428,-0.30766,0.044805,0.012768,-0.036528,-0.020983,0.063422,-0.13852
-0.013935,-0.03187,-0.00070704,-0.016774,-0.51473,-0.096576,-0.016268,0.30159,0.32296,-0.12094,-0.5716,0.70094,2.1812,0.36145,0.3429,0.9251,-0.02859,-0.3431,0.0057721,-0.003762,-0.035186,-0.024542,0.031146,-0.12989
-0.011623,-0.028223,0.0033458,-0.016762,-0.51326,-0.10366,-0.058826,0.31554,0.32971,-0.15259,-0.56305,0.77272,2.1468,0.35726,0.38135,0.7557,-0.048291,-0.37711,-0.052113,-0.023565,-0.034557,-0.028048,-0.013444,-0.12097
-0.0074873,-0.027791,0.0026812,-0.016381,-0.49789,-0.11726,-0.087269,0.33302,0.3236,-0.17767,-0.55181,0.81516,1.9942,0.28587,0.38335,0.45793,-0.07126,-0.41024,-0.12144,-0.044764,-0.033487,-0.033804,-0.054655,-0.10575
-0.0054559,-0.029513,-0.0027349,-0.01636,-0.46655,-0.12924,-0.096647,0.36441,0.29415,-0.19824,-0.53795,0.82542,1.7342,0.15595,0.34941,0.12454,-0.094423,-0.44449,-0.19237,-0.065363,-0.031664,-0.042681,-0.08135,-0.077356
-0.0085814,-0.031726,-0.0098917,-0.017331,-0.41754,-0.13295,-0.088685,0.40661,0.23619,-0.21582,-0.5178,0.81963,1.3785,0.00099498,0.29809,-0.13846,-0.11372,-0.47793,-0.25543,-0.08401,-0.030139,-0.053026,-0.090966,-0.035901
-0.015998,-0.033334,-0.015404,-0.01959,-0.35075,-0.12668,-0.070858,0.44769,0.15526,-0.22979,-0.48513,0.83216,0.94377,-0.13779,0.25562,-0.27377,-0.12575,-0.50119,-0.30329,-0.10014,-0.030184,-0.061843,-0.087551,0.0085646
-0.023381,-0.03439,-0.017891,-0.022726,-0.27157,-0.11402,-0.051201,0.47774,0.067873,-0.23792,-0.43514,0.90123,0.46353,-0.23366,0.23984,-0.29492,-0.12936,-0.50058,-0.33171,-0.1133,-0.031807,-0.067245,-0.07664,0.042087
-0.026549,-0.035667,-0.018321,-0.025467,-0.19199,-0.10083,-0.033052,0.49735,-0.0056591,-0.23807,-0.36818,1.0466,-0.0088309,-0.28751,0.25073,-0.25891,-0.12614,-0.46733,-0.34015,-0.12248,-0.033639,-0.069962,-0.061501,0.057481
-0.024935,-0.037671,-0.018492,-0.026223,-0.12474,-0.090921,-0.014169,0.51732,-0.052409,-0.22946,-0.28968,1.2524,-0.41753,-0.32343,0.27377,-0.22025,-0.11942,-0.40602,-0.33177,-0.12628,-0.034395,-0.072472,-0.043186,0.060195
-0.021781,-0.040118,-0.019323,-0.024185,-0.073865,-0.083549,0.0090557,0.55036,-0.074339,-0.21276,-0.20698,1.4676,-0.73173,-0.37004,0.29173,-0.20561,-0.11246,-0.33436,-0.31227,-0.12419,-0.03429,-0.076551,-0.023073,0.063564
-0.020934,-0.042422,-0.020422,-0.020097,-0.030477,-0.073982,0.036092,0.60138,-0.0855,-0.18962,-0.12596,1.6279,-0.95879,-0.44063,0.29461,-0.22142,-0.1069,-0.27273,-0.28758,-0.11774,-0.034783,-0.081537,-0.0045249,0.077027
-0.023247,-0.044678,-0.020984,-0.015914,0.020443,-0.056877,0.060388,0.66318,-0.099927,-0.1623,-0.050533,1.6877,-1.1299,-0.52557,0.28115,-0.27572,-0.10248,-0.2304,-0.26157,-0.11003,-0.036786,-0.084973,0.0084173,0.097481
-0.025881,-0.048009,-0.020812,-0.013456,0.086313,-0.03012,0.072874,0.7198,-0.1194,-0.13344,0.015529,1.6427,-1.2691,-0.60133,0.25374,-0.38752,-0.09794,-0.19938,-0.23482,-0.10361,-0.039252,-0.08504,0.014247,0.11162
-0.02505,-0.053769,-0.020361,-0.013117,0.15789,0.0033079,0.068065,0.75445,-0.13151,-0.10555,0.067805,1.5321,-1.374,-0.64826,0.21387,-0.57645,-0.092305,-0.16169,-0.20536,-0.098365,-0.03973,-0.082455,0.016002,0.10746
-0.019566,-0.062231,-0.019899,-0.013723,0.21374,0.036699,0.047979,0.75685,-0.12059,-0.080185,0.10357,1.4193,-1.423,-0.66374,0.16256,-0.84705,-0.085795,-0.10521,-0.17049,-0.091583,-0.036462,-0.079979,0.019792,0.085264
-0.011931,-0.072015,-0.018836,-0.013614,0.23585,0.06353,0.021087,0.7266,-0.082792,-0.057341,0.12563,1.3634,-1.4036,-0.66167,0.1037,-1.1836,-0.079689,-0.035576,-0.12864,-0.080424,-0.029952,-0.079928,0.030547,0.058318
-0.0060626,-0.080827,-0.016088,-0.011959,0.22386,0.081526,-0.0026915,0.67217,-0.032532,-0.035915,0.14321,1.3964,-1.3309,-0.66013,0.045154,-1.5557,-0.075367,0.025876,-0.080462,-0.064833,-0.022435,-0.082081,0.048154,0.043176
-0.0038762,-0.086867,-0.011218,-0.0091811,0.19641,0.094176,-0.017423,0.60707,0.0059099,-0.015059,0.16775,1.5124,-1.2415,-0.66733,-0.0048096,-1.9196,-0.073194,0.056925,-0.028935,-0.048154,-0.015807,-0.084028,0.067069,0.047723
-0.0038313,-0.089693,-0.0052402,-0.0062114,0.17828,0.10851,-0.023833,0.54489,0.015252,0.004603,0.20596,1.6698,-1.1671,-0.67647,-0.042506,-2.2111,-0.072004,0.050331,0.020945,-0.034706,-0.010072,-0.083643,0.07991,0.067017
-0.0026478,-0.089959,-0.00017399,-0.0033757,0.18391,0.13055,-0.028178,0.49486,-0.003109,0.021004,0.25602,1.8042,-1.1133,-0.67207,-0.070351,-2.3409,-0.069599,0.018205,0.063047,-0.026385,-0.0037724,-0.08126,0.082493,0.089657
0.0015172,-0.088548,0.0023951,-2.2352e-005,0.20972,0.16176,-0.038465,0.45954,-0.031719,0.032018,0.31028,1.8509,-1.0624,-0.64189,-0.093625,-2.2182,-0.064051,-0.017898,0.091781,-0.021335,0.0041644,-0.079329,0.076733,0.10845
0.0073409,-0.086013,0.0025445,0.0047201,0.23982,0.19935,-0.060241,0.43598,-0.050994,0.037105,0.36213,1.7713,-0.99438,-0.58525,-0.11639,-1.8033,-0.055061,-0.042254,0.10447,-0.015909,0.013021,-0.079824,0.069366,0.12617
0.011537,-0.082721,0.0019007,0.010717,0.25894,0.24015,-0.094239,0.41955,-0.052529,0.037793,0.4108,1.5703,-0.9067,-0.51297,-0.14116,-1.1585,-0.044516,-0.053257,0.10328,-0.0081941,0.020604,-0.081941,0.067494,0.15247
0.011815,-0.079315,0.0021708,0.016296,0.26164,0.28442,-0.13728,0.40747,-0.041647,0.036399,0.45977,1.2932,-0.81386,-0.44057,-0.1723,-0.44604,-0.03576,-0.059609,0.09508,5.0775e-005,0.024843,-0.082487,0.074061,0.1956
0.0089151,-0.076902,0.0035152,0.019062,0.25172,0.33574,-0.18597,0.39879,-0.029154,0.033757,0.51055,0.99907,-0.73085,-0.38088,-0.21818,0.14472,-0.03181,-0.07003,0.08836,0.0046928,0.02522,-0.078771,0.086231,0.25661
0.0059412,-0.076778,0.0042046,0.017617,0.23497,0.39606,-0.24056,0.39104,-0.021136,0.027747,0.55807,0.72684,-0.65808,-0.34042,-0.28737,0.50519,-0.033459,-0.086429,0.088612,0.0026114,0.02299,-0.071322,0.09738,0.33005
0.0055917,-0.079886,0.0019927,0.012854,0.21361,0.46026,-0.30546,0.37742,-0.015668,0.014187,0.59238,0.47643,-0.58272,-0.32046,-0.38027,0.6705,-0.038497,-0.10537,0.095196,-0.0056808,0.020388,-0.063767,0.10094,0.40903
0.0077427,-0.086302,-0.0038476,0.0076609,0.18878,0.51547,-0.385,0.34919,-0.0076291,-0.0099666,0.60568,0.21975,-0.49411,-0.31951,-0.48345,0.78337,-0.042785,-0.12394,0.10223,-0.016197,0.019627,-0.059828,0.093333,0.489
0.0095002,-0.094874,-0.011568,0.0050141,0.16883,0.54729,-0.47724,0.3027,0.0046976,-0.043233,0.59829,-0.067987,-0.39682,-0.3346,-0.57346,0.97909,-0.042751,-0.14253,0.10327,-0.024054,0.022209,-0.06012,0.074526,0.5666
0.0077107,-0.10326,-0.017999,0.0057535,0.17504,0.54863,-0.57173,0.24504,0.018009,-0.079023,0.57804,-0.38184,-0.30775,-0.36039,-0.62956,1.2809,-0.037673,-0.16177,0.096581,-0.026325,0.028544,-0.06168,0.0466,0.63503
0.0018025,-0.10865,-0.020831,0.0078211,0.23638,0.52399,-0.65482,0.19137,0.028181,-0.10908,0.55353,-0.68702,-0.23968,-0.38813,-0.64675,1.5922,-0.030051,-0.17776,0.08691,-0.023149,0.037797,-0.060643,0.012293,0.68117
-0.0054465,-0.10906,-0.020224,0.0077747,0.3736,0.48512,-0.71959,0.1543,0.035084,-0.12878,0.52716,-0.94412,-0.18669,-0.40656,-0.63931,1.7915,-0.023573,-0.18215,0.082245,-0.016734,0.048168,-0.05564,-0.025302,0.68856
-0.0098584,-0.10453,-0.018391,0.0036178,0.58154,0.44163,-0.77166,0.13356,0.04266,-0.13985,0.4942,-1.1381,-0.12549,-0.40565,-0.63197,1.8485,-0.020142,-0.16855,0.087915,-0.0094922,0.057745,-0.048895,-0.062125,0.64581
-0.0089128,-0.097218,-0.017592,-0.0032522,0.82263,0.3945,-0.82364,0.11587,0.054098,-0.14786,0.4487,-1.2872,-0.032084,-0.38141,-0.64511,1.8549,-0.018324,-0.13956,0.10257,-0.0028325,0.065519,-0.044171,-0.09283,0.55571
-0.003482,-0.0899,-0.018349,-0.0087319,1.038,0.33855,-0.88067,0.08639,0.067089,-0.1564,0.39114,-1.4261,0.10006,-0.33853,-0.6844,1.9431,-0.01455,-0.1074,0.11926,0.0028033,0.071706,-0.043488,-0.11146,0.43865
0.0029682,-0.083924,-0.01941,-0.0090986,1.1714,0.27152,-0.92887,0.042586,0.073999,-0.16363,0.33094,-1.5782,0.25469,-0.28845,-0.74116,2.1622,-0.0060786,-0.086466,0.13101,0.007311,0.076948,-0.04546,-0.11278,0.32697
0.0068574,-0.078274,-0.019251,-0.0041868,1.1936,0.20169,-0.93888,-0.0019935,0.066977,-0.16505,0.28156,-1.7386,0.402,-0.24316,-0.80104,2.4249,0.0067718,-0.084167,0.13658,0.010719,0.081006,-0.046511,-0.093574,0.25168
0.0066494,-0.070761,-0.017532,0.0020232,1.1126,0.1468,-0.88508,-0.028144,0.043416,-0.16045,0.25211,-1.8795,0.51227,-0.20829,-0.85338,2.5731,0.020954,-0.097889,0.142,0.013702,0.082189,-0.043744,-0.053919,0.22781
0.0032683,-0.060557,-0.015113,0.0042149,0.96605,0.12464,-0.76645,-0.027082,0.0072063,-0.15778,0.24214,-1.9691,0.56274,-0.18009,-0.89481,2.4999,0.033066,-0.12082,0.15639,0.018052,0.078202,-0.037069,0.0015763,0.24639
-0.0011068,-0.049952,-0.012828,-3.8815e-005,0.80015,0.14325,-0.61106,-0.0082562,-0.034445,-0.16873,0.24365,-1.9912,0.53693,-0.14867,-0.92661,2.2165,0.041485,-0.15115,0.1846,0.026107,0.06779,-0.029105,0.063199,0.2783
-0.004653,-0.043574,-0.010465,-0.0080273,0.64801,0.19816,-0.45775,0.0081043,-0.07504,-0.198,0.24808,-1.9534,0.42509,-0.10551,-0.95022,1.8028,0.046462,-0.19632,0.22211,0.039037,0.051796,-0.023245,0.11797,0.28898
-0.0067789,-0.045322,-0.0071004,-0.013681,0.51882,0.27771,-0.32797,0.0074783,-0.1102,-0.23553,0.25261,-1.8841,0.23269,-0.04999,-0.96489,1.2984,0.048529,-0.2682,0.25594,0.055288,0.032762,-0.021514,0.15452,0.25638
-0.0079717,-0.055287,-0.0024329,-0.012222,0.40253,0.36996,-0.21006,-0.0074116,-0.13659,-0.25955,0.26078,-1.8247,-0.0081104,0.009867,-0.96814,0.64908,0.047218,-0.37297,0.27161,0.070759,0.013539,-0.023695,0.16867,0.18182
-0.0090771,-0.06924,0.0023461,-0.0040718,0.28537,0.4647,-0.07011,-0.01961,-0.15122,-0.25016,0.27724,-1.8158,-0.23818,0.063001,-0.95659,-0.22184,0.041487,-0.50369,0.26162,0.081094,-0.0038709,-0.028012,0.16547,0.086849
-0.010647,-0.081353,0.005206,0.005188,0.16526,0.55015,0.11839,-0.012601,-0.153,-0.20345,0.30122,-1.8799,-0.39174,0.10302,-0.9258,-1.2707,0.031192,-0.64124,0.22986,0.084524,-0.018455,-0.03257,0.15495,-0.0017867
-0.012709,-0.088184,0.0049889,0.0088822,0.057409,0.61025,0.34892,0.015903,-0.14504,-0.13508,0.3239,-2.005,-0.42938,0.13223,-0.87046,-2.2564,0.017704,-0.7629,0.18901,0.082962,-0.029677,-0.036448,0.14439,-0.069303
-0.014937,-0.090748,0.0025988,0.0041889,-0.013138,0.62824,0.58095,0.052419,-0.13458,-0.07035,0.33194,-2.1413,-0.36148,0.15918,-0.78727,-2.8277,0.0026979,-0.85267,0.1529,0.080299,-0.037181,-0.039769,0.13312,-0.12051
-0.016926,-0.092909,0.00047684,-0.0058524,-0.026657,0.59556,0.76477,0.079239,-0.12935,-0.028319,0.3149,-2.2223,-0.24282,0.192,-0.67993,-2.7359,-0.013598,-0.90688,0.12923,0.07924,-0.041087,-0.042926,0.11472,-0.17308
-0.018256,-0.097324,0.00070929,-0.014691,0.017705,0.51847,0.8737,0.08907,-0.13302,-0.011601,0.2716,-2.2032,-0.1387,0.23285,-0.56217,-2.0196,-0.032509,-0.93224,0.11725,0.079234,-0.042324,-0.045677,0.084549,-0.2419
-0.018318,-0.10237,0.0033802,-0.016984,0.097767,0.41589,0.92066,0.090607,-0.14364,-0.0084337,0.21146,-2.0918,-0.084473,0.27759,-0.45418,-1.0085,-0.054733,-0.93805,0.11099,0.077116,-0.042263,-0.0469,0.0457,-0.32633
-0.016249,-0.10279,0.0066088,-0.012062,0.17573,0.30898,0.94791,0.10057,-0.15627,-0.0035945,0.15013,-1.9445,-0.065895,0.31985,-0.37294,-0.12761,-0.077822,-0.92775,0.10471,0.069716,-0.041666,-0.045254,0.0076119,-0.40957
-0.011465,-0.093878,0.0082378,-0.0037984,0.21402,0.21074,0.99871,0.12877,-0.16709,0.011009,0.10199,-1.8236,-0.032719,0.3557,-0.32285,0.36127,-0.096212,-0.89517,0.096342,0.056189,-0.039924,-0.04029,-0.021341,-0.4702
-0.0046718,-0.075688,0.0076822,0.0025726,0.19315,0.12347,1.0906,0.16836,-0.17508,0.033335,0.074233,-1.7454,0.065366,0.38493,-0.2946,0.48983,-0.10457,-0.82868,0.087058,0.038423,-0.035532,-0.033127,-0.040083,-0.49699
0.0016001,-0.053901,0.0063148,0.00407,0.12373,0.045026,1.2076,0.19907,-0.18001,0.056025,0.065397,-1.6615,0.24522,0.4088,-0.27401,0.49396,-0.10199,-0.72115,0.07842,0.019727,-0.027676,-0.026069,-0.0538,-0.49638
0.0040154,-0.036314,0.0060855,0.0014763,0.045485,-0.023279,1.3142,0.20109,-0.17968,0.073642,0.068775,-1.4931,0.47934,0.4275,-0.25425,0.58371,-0.093228,-0.57949,0.070294,0.0032656,-0.017645,-0.021288,-0.066764,-0.48832
0.00089613,-0.027745,0.0076653,-0.0019019,0.010279,-0.075055,1.3797,0.16879,-0.17011,0.086663,0.077859,-1.1947,0.71074,0.44082,-0.24112,0.76063,-0.08554,-0.42617,0.061353,-0.0087111,-0.008677,-0.019464,-0.076429,-0.49431
-0.005709,-0.027292,0.0098152,-0.0029025,0.054524,-0.1049,1.3957,0.11362,-0.14923,0.10039,0.090208,-0.79746,0.88105,0.45176,-0.24675,0.82639,-0.083347,-0.28976,0.051449,-0.015065,-0.0040423,-0.019342,-0.075069,-0.52638
-0.010595,-0.029828,0.010529,-0.00058855,0.17555,-0.11579,1.3754,0.054039,-0.1206,0.12086,0.10764,-0.39495,0.95488,0.46901,-0.27693,0.56802,-0.0852,-0.18953,0.043387,-0.016084,-0.0047521,-0.018543,-0.057717,-0.58361
-0.0089929,-0.030189,0.0088486,0.0035097,0.32774,-0.1201,1.3373,0.00056325,-0.092882,0.15078,0.13347,-0.081332,0.93052,0.50404,-0.32302,-0.03856,-0.085559,-0.12441,0.042151,-0.013898,-0.0087357,-0.015034,-0.028526,-0.65685
-0.00068057,-0.026556,0.005665,0.0068194,0.44394,-0.13251,1.2862,-0.052046,-0.074657,0.18743,0.16927,0.1101,0.83589,0.56249,-0.36521,-0.77586,-0.079888,-0.075054,0.05185,-0.012125,-0.012277,-0.0082324,0.0012584,-0.73702
0.009062,-0.020706,0.0028141,0.0076111,0.47044,-0.16079,1.2081,-0.11925,-0.068563,0.22262,0.21353,0.22199,0.71534,0.63559,-0.38394,-1.324,-0.068752,-0.018115,0.072621,-0.014231,-0.012704,0.00096135,0.022543,-0.82076
0.013159,-0.015601,0.0014173,0.0060454,0.39288,-0.20248,1.0836,-0.21236,-0.069975,0.24478,0.26209,0.33428,0.61282,0.6995,-0.36989,-1.4757,-0.05755,0.057044,0.099878,-0.02148,-0.010297,0.011055,0.036348,-0.90971
0.0085404,-0.012775,0.0010661,0.0038054,0.23669,-0.25,0.9083,-0.327,-0.071553,0.24305,0.30922,0.50715,0.55628,0.72569,-0.32503,-1.2562,-0.052258,0.14139,0.1265,-0.03227,-0.007993,0.02099,0.052571,-1.0036
-0.00087053,-0.011565,0.00054416,0.0027328,0.044272,-0.29883,0.70481,-0.4434,-0.069719,0.21259,0.34807,0.74942,0.54804,0.69707,-0.2561,-0.86509,-0.05484,0.21373,0.1463,-0.043716,-0.0091373,0.030523,0.080038,-1.0919
-0.0069525,-0.010224,-0.00075695,0.00351,-0.15141,-0.35124,0.51306,-0.53806,-0.067298,0.15867,0.37101,1.0296,0.56488,0.61835,-0.16809,-0.50394,-0.062012,0.2567,0.15634,-0.054238,-0.014971,0.039838,0.11681,-1.149
-0.0040259,-0.0074358,-0.0021894,0.0053196,-0.33715,-0.41225,0.36655,-0.59699,-0.070051,0.096872,0.3711,1.3102,0.56894,0.5124,-0.064017,-0.2394,-0.068029,0.26955,0.1567,-0.064665,-0.023606,0.048945,0.15019,-1.14
0.0062585,-0.0028726,-0.0025614,0.0066555,-0.5101,-0.48186,0.27201,-0.62075,-0.080539,0.048148,0.34512,1.5744,0.5253,0.40435,0.049968,-0.0002524,-0.068801,0.26931,0.14879,-0.076578,-0.031123,0.057579,0.16757,-1.0352
0.01617,0.0032246,-0.0013956,0.0065976,-0.66247,-0.55112,0.20853,-0.6186,-0.095228,0.030637,0.29629,1.8264,0.41786,0.30584,0.16077,0.31389,-0.063918,0.28058,0.13383,-0.089286,-0.033991,0.065701,0.16898,-0.8297
0.018396,0.010473,0.00057574,0.0055235,-0.77721,-0.60574,0.14637,-0.59811,-0.10771,0.052375,0.23421,2.0771,0.25644,0.21162,0.25108,0.72255,-0.055358,0.32194,0.11301,-0.098552,-0.031285,0.073997,0.17003,-0.55505
0.012156,0.01813,0.0021347,0.0047054,-0.83852,-0.63459,0.069539,-0.55891,-0.11508,0.1085,0.17114,2.3294,0.072537,0.11097,0.30748,1.145,-0.04473,0.39726,0.088515,-0.09885,-0.025368,0.083593,0.19078,-0.27329
0.0035812,0.024653,0.0027192,0.0051604,-0.8454,-0.63613,-0.015652,-0.49461,-0.12157,0.18391,0.1166,2.5741,-0.092979,0.0035548,0.32772,1.471,-0.031871,0.49635,0.063767,-0.087722,-0.020594,0.094918,0.23783,-0.053243
0.00010093,0.028007,0.0028357,0.00675,-0.81404,-0.61828,-0.091334,-0.39958,-0.13584,0.25943,0.073576,2.793,-0.20449,-0.094709,0.32133,1.6451,-0.015945,0.60254,0.042245,-0.068414,-0.020676,0.10662,0.29306,0.059974
0.0040067,0.026987,0.0034136,0.0083115,-0.76623,-0.59225,-0.14734,-0.27432,-0.16429,0.31843,0.038631,2.9613,-0.24399,-0.16128,0.30328,1.6915,0.0024452,0.70174,0.025508,-0.048115,-0.026128,0.11564,0.31797,0.063147
0.010916,0.022555,0.0048321,0.0087127,-0.71526,-0.56612,-0.19208,-0.12571,-0.20593,0.35122,0.0052753,3.053,-0.21799,-0.18418,0.28582,1.674,0.020566,0.78782,0.012343,-0.032822,-0.033295,0.11887,0.27247,-0.011315
