-2.9904e-010,1.1441e-009,1.0901e-009,7.2349e-010,-7.9294e-010,-7.3912e-009,-1.0862e-009,2.4888e-010,6.9648e-010,1.2251e-009,6.4632e-010,1.2984e-009,3.2219e-010,-3.9937e-010,6.1159e-010,7.968e-010,-2.7589e-010,5.1898e-010,7.1577e-010,3.9937e-010,2.1801e-010,4.3409e-010,3.8779e-010,8.4311e-010
-8.3948e-009,3.1414e-008,2.9925e-008,1.9811e-008,-2.1943e-008,-2.0373e-007,-3.0189e-008,6.9199e-009,1.9092e-008,3.3646e-008,1.7933e-008,3.5502e-008,8.6796e-009,-1.0642e-008,1.6831e-008,2.2177e-008,-7.5583e-009,1.3863e-008,1.9552e-008,1.1171e-008,6.1209e-009,1.198e-008,1.0917e-008,2.3395e-008
-1.1454e-007,4.1923e-007,3.9936e-007,2.6354e-007,-2.9546e-007,-2.7291e-006,-4.0784e-007,9.3642e-008,2.5425e-007,4.4917e-007,2.42e-007,4.7188e-007,1.137e-007,-1.3768e-007,2.2515e-007,3.0005e-007,-1.0072e-007,1.7971e-007,2.5964e-007,1.5228e-007,8.3564e-008,1.6095e-007,1.4956e-007,3.1572e-007
-1.0118e-006,3.6223e-006,3.4513e-006,2.2689e-006,-2.5795e-006,-2.3671e-005,-3.5675e-006,8.2185e-007,2.1917e-006,3.8831e-006,2.1159e-006,4.0624e-006,9.6519e-007,-1.1521e-006,1.9505e-006,2.6292e-006,-8.6953e-007,1.5062e-006,2.2333e-006,1.348e-006,7.3919e-007,1.4025e-006,1.3285e-006,2.7609e-006
-6.5049e-006,2.2775e-005,2.1708e-005,1.4206e-005,-1.6413e-005,-0.00014939,-2.2706e-005,5.2592e-006,1.3748e-005,2.4432e-005,1.3473e-005,2.5461e-005,5.9681e-006,-7.011e-006,1.23e-005,1.6771e-005,-5.465e-006,9.171e-006,1.3984e-005,8.711e-006,4.7629e-006,8.9118e-006,8.5988e-006,1.7583e-005
-3.2423e-005,0.00011101,0.00010587,6.8925e-005,-8.1117e-005,-0.00073085,-0.000112,2.6154e-005,6.6872e-005,0.00011919,6.6561e-005,0.00012378,2.8648e-005,-3.3068e-005,6.0162e-005,8.297e-005,-2.6631e-005,4.3217e-005,6.7916e-005,4.379e-005,2.3824e-005,4.4001e-005,4.3204e-005,8.6888e-005
-0.00013034,0.00043624,0.00041642,0.00026949,-0.00032395,-0.0028828,-0.00044525,0.00010518,0.00026245,0.00046901,0.0002654,0.00048566,0.00011108,-0.00012581,0.00023744,0.00033119,-0.00010462,0.00016391,0.00026612,0.00017817,9.6262e-005,0.00017563,0.00017527,0.00034658
-0.0004339,0.0014189,0.0013562,0.00087178,-0.0010737,-0.009412,-0.0014641,0.00035135,0.00085365,0.0015282,0.00087685,0.001579,0.00035746,-0.00039672,0.00077662,0.0010953,-0.00034,0.00051354,0.00086381,0.00060255,0.00032276,0.00058206,0.0005894,0.0011458
-0.0012187,0.0038899,0.0037245,0.0023761,-0.003009,-0.025902,-0.0040532,0.00099373,0.0023451,0.0041998,0.0024449,0.0043339,0.00097309,-0.001057,0.0021449,0.0030576,-0.0009304,0.0013533,0.0023656,0.0017258,0.00091534,0.0016319,0.0016735,0.0031986
-0.0029267,0.0091007,0.0087375,0.0055258,-0.0072259,-0.060847,-0.0095617,0.0024123,0.0055157,0.0098614,0.0058271,0.010174,0.0022731,-0.0024136,0.0050696,0.0072997,-0.0021694,0.0030372,0.0055367,0.0042428,0.0022263,0.0039223,0.0040641,0.0076394
-0.0060666,0.018319,0.017662,0.011057,-0.015007,-0.12303,-0.019361,0.0050757,0.011213,0.019957,0.011974,0.020615,0.004606,-0.0047728,0.010353,0.015041,-0.0043419,0.0058533,0.01117,0.0090369,0.0046913,0.008159,0.0085168,0.015754
-0.010926,0.031862,0.030928,0.019127,-0.027114,-0.2151,-0.033742,0.0093183,0.019829,0.034995,0.02132,0.036253,0.0081669,-0.0082351,0.018386,0.026908,-0.0074812,0.0097371,0.019523,0.016781,0.0086287,0.014781,0.015489,0.02822
-0.01717,0.047898,0.047017,0.028632,-0.042739,-0.32543,-0.050493,0.014985,0.030599,0.053266,0.032944,0.055477,0.012768,-0.012461,0.028504,0.041914,-0.011077,0.014027,0.029605,0.027265,0.013927,0.023403,0.024514,0.044045
-0.023619,0.061962,0.061992,0.036984,-0.058749,-0.42444,-0.064207,0.021138,0.041201,0.070247,0.044084,0.073833,0.017737,-0.016578,0.038635,0.056868,-0.01397,0.017564,0.038857,0.038801,0.019803,0.032429,0.033766,0.059923
-0.028537,0.06823,0.070588,0.04091,-0.070139,-0.47238,-0.067631,0.026122,0.048201,0.079743,0.050747,0.085158,0.022103,-0.019399,0.045764,0.067062,-0.014696,0.019342,0.043819,0.048311,0.024894,0.039296,0.040394,0.070918
-0.030526,0.062635,0.068901,0.038252,-0.072084,-0.43922,-0.055255,0.028186,0.048504,0.076893,0.049646,0.084623,0.025046,-0.019931,0.047318,0.068516,-0.012265,0.019469,0.04187,0.052506,0.027814,0.041556,0.041837,0.072729
-0.029553,0.046179,0.057182,0.029764,-0.062795,-0.32628,-0.027378,0.026448,0.04117,0.061502,0.040547,0.072191,0.02631,-0.017942,0.042767,0.0607,-0.0069533,0.019735,0.033136,0.049797,0.027942,0.038318,0.037547,0.06449
-0.027268,0.025752,0.040481,0.019369,-0.045259,-0.17221,0.0085354,0.021628,0.02841,0.039174,0.027282,0.053835,0.026265,-0.01421,0.034255,0.047699,-0.00044782,0.023052,0.021118,0.041729,0.025918,0.031017,0.029817,0.050036
-0.026091,0.010845,0.025956,0.012133,-0.026165,-0.033532,0.041244,0.015904,0.014869,0.018744,0.016118,0.038824,0.025551,-0.010238,0.025491,0.036332,0.004998,0.031739,0.011105,0.03263,0.023382,0.0227,0.022707,0.036182
-0.027457,0.0075899,0.018302,0.010954,-0.012183,0.051204,0.062411,0.011755,0.0053528,0.0072122,0.012056,0.034129,0.024636,-0.0074806,0.019437,0.031912,0.0079442,0.04573,0.0070942,0.027206,0.021999,0.016111,0.019438,0.028675
-0.03052,0.014286,0.016727,0.014389,-0.0059828,0.087581,0.071846,0.010442,0.0023771,0.0056892,0.015566,0.039699,0.023708,-0.0064801,0.016473,0.034551,0.0086731,0.062179,0.0093922,0.027518,0.022423,0.012002,0.020149,0.028592
-0.032494,0.022272,0.016075,0.017596,-0.0049772,0.11932,0.076994,0.011186,0.0051018,0.0094548,0.02238,0.048331,0.022917,-0.0063934,0.014578,0.039003,0.0088587,0.077164,0.014892,0.031601,0.023976,0.0091445,0.021973,0.031991
-0.030638,0.022139,0.011391,0.016033,-0.0038642,0.19199,0.086765,0.01171,0.010335,0.012056,0.026757,0.050664,0.022551,-0.005285,0.011474,0.038564,0.010228,0.088468,0.020052,0.034978,0.025281,0.0061146,0.021631,0.033202
-0.024428,0.010822,0.0021455,0.0091249,0.0010031,0.31461,0.10483,0.0098751,0.014825,0.010092,0.025745,0.041812,0.022749,-0.0011739,0.0069319,0.030139,0.013325,0.097278,0.024224,0.034096,0.025336,0.0032393,0.018442,0.029158
-0.016116,-0.0060894,-0.0075219,0.00086597,0.0089197,0.4508,0.12814,0.0052095,0.017208,0.0048751,0.020981,0.024651,0.022972,0.0066745,0.0030974,0.016466,0.017386,0.10725,0.030459,0.029009,0.024135,0.002719,0.015064,0.02132
-0.0091012,-0.018858,-0.012712,-0.0032894,0.015866,0.54712,0.15186,-0.0007788,0.018365,5.7219e-005,0.016585,0.0073518,0.021948,0.017066,0.0024462,0.0037271,0.021268,0.12142,0.042876,0.023161,0.022379,0.00654,0.015145,0.013851
-0.0053525,-0.021329,-0.012277,-0.00075812,0.018163,0.57404,0.17557,-0.0057227,0.020099,-0.0021784,0.015038,-0.0027685,0.018481,0.027523,0.0051846,-0.0033733,0.024432,0.13942,0.062684,0.020441,0.020633,0.013983,0.019882,0.0099084
-0.0040326,-0.015568,-0.0098781,0.0061909,0.015549,0.54523,0.20439,-0.008004,0.023243,-0.0028005,0.014609,-0.0041982,0.012593,0.03616,0.0086328,-0.0048859,0.027009,0.15716,0.086289,0.021996,0.018726,0.021197,0.026611,0.009313
-0.0025115,-0.0096777,-0.010676,0.012378,0.011288,0.50085,0.24337,-0.0075521,0.026603,-0.0042975,0.010407,-0.0014039,0.0058541,0.04366,0.0093836,-0.0046904,0.029066,0.16948,0.10728,0.02541,0.01591,0.023624,0.030769,0.0093317
0.0011228,-0.010854,-0.016709,0.013811,0.009607,0.47297,0.28998,-0.0052832,0.027522,-0.0077682,-0.0020618,-0.00063788,0.00031267,0.053715,0.0063668,-0.0065701,0.030023,0.17338,0.12076,0.026846,0.011546,0.019428,0.029565,0.007399
0.0062875,-0.019647,-0.025087,0.010473,0.012829,0.46503,0.33221,-0.0018644,0.023754,-0.011792,-0.023869,-0.0051178,-0.0032138,0.071116,0.0019273,-0.010989,0.029002,0.1695,0.12642,0.024263,0.0056459,0.010992,0.024152,0.0031175
0.010465,-0.030083,-0.030517,0.0056805,0.020327,0.46092,0.35458,0.0029246,0.015359,-0.014156,-0.05228,-0.013298,-0.0059427,0.098361,-0.00020853,-0.015289,0.025784,0.16071,0.12781,0.019038,-0.0011571,0.0030987,0.018476,-0.0020499
0.011572,-0.035116,-0.029802,0.0029298,0.029528,0.45022,0.34794,0.0096004,0.0052174,-0.01464,-0.082614,-0.020982,-0.010108,0.13306,0.0017586,-0.01668,0.021308,0.14934,0.12859,0.014758,-0.0080139,-0.00071975,0.015901,-0.0066288
0.0099309,-0.03242,-0.024385,0.0031454,0.037672,0.44243,0.31503,0.017822,-0.0024613,-0.016044,-0.11036,-0.024902,-0.016829,0.16815,0.0062254,-0.014964,0.017071,0.13545,0.12897,0.014279,-0.014136,-0.00060334,0.016533,-0.010472
0.0079852,-0.025646,-0.018895,0.0044958,0.043012,0.45669,0.26813,0.026,-0.0048186,-0.022271,-0.13226,-0.024707,-0.024665,0.19502,0.0098802,-0.012529,0.01395,0.11736,0.12524,0.017421,-0.018751,0.00038182,0.017384,-0.014396
0.0080668,-0.020557,-0.017207,0.0044928,0.04514,0.49878,0.22123,0.032273,-0.0023649,-0.034984,-0.14655,-0.022225,-0.030221,0.20748,0.010818,-0.011988,0.011622,0.093605,0.11241,0.021009,-0.02108,-0.0007132,0.015005,-0.018804
0.010381,-0.019913,-0.019483,0.0022029,0.04485,0.54941,0.18313,0.03599,0.0012721,-0.051648,-0.15334,-0.019392,-0.030439,0.204,0.010011,-0.013969,0.0091789,0.064274,0.087534,0.021066,-0.020708,-0.004173,0.0083155,-0.022954
0.013163,-0.021672,-0.022507,-0.0013007,0.043792,0.57543,0.15584,0.038169,0.0018657,-0.066658,-0.15488,-0.016999,-0.024867,0.18705,0.0098458,-0.017025,0.0062309,0.03071,0.051141,0.015421,-0.018226,-0.0077365,-0.00054663,-0.025653
0.014776,-0.021717,-0.022666,-0.0042328,0.043816,0.55313,0.13723,0.040343,-0.0024643,-0.074783,-0.15489,-0.015116,-0.016168,0.16063,0.011445,-0.019314,0.00329,-0.005797,0.0063543,0.0048496,-0.015381,-0.0090353,-0.0077774,-0.026563
0.015556,-0.018143,-0.018821,-0.0056015,0.045952,0.48207,0.12414,0.04287,-0.010192,-0.074357,-0.15626,-0.014173,-0.008565,0.1282,0.013605,-0.020106,0.0009522,-0.044768,-0.042804,-0.0078683,-0.01423,-0.0079342,-0.010504,-0.026623
0.017435,-0.013037,-0.012835,-0.0055687,0.049527,0.37919,0.11297,0.044481,-0.01803,-0.067963,-0.15866,-0.015163,-0.0054221,0.0923,0.014325,-0.019778,-0.0012343,-0.085994,-0.092249,-0.020042,-0.015684,-0.0065864,-0.0085514,-0.027057
0.021672,-0.01036,-0.0077431,-0.0047433,0.052239,0.26178,0.098954,0.043634,-0.023793,-0.06034,-0.15808,-0.018644,-0.0076087,0.055487,0.01311,-0.018847,-0.0048807,-0.12843,-0.13769,-0.030665,-0.018679,-0.0072417,-0.0043195,-0.027956
0.02703,-0.012237,-0.005466,-0.0035131,0.051485,0.137,0.076632,0.040306,-0.02794,-0.055281,-0.1492,-0.023699,-0.013518,0.020831,0.011501,-0.017533,-0.011483,-0.16987,-0.17474,-0.04045,-0.020918,-0.0099671,-0.0010572,-0.027998
0.030428,-0.017235,-0.0058908,-0.0021437,0.04621,0.0057609,0.042664,0.036265,-0.032482,-0.053759,-0.12911,-0.028199,-0.020357,-0.0086707,0.011304,-0.01636,-0.020852,-0.20798,-0.20012,-0.050562,-0.020819,-0.012485,-0.00078373,-0.025797
0.02962,-0.02201,-0.0076094,-0.0012095,0.037883,-0.12672,-0.0011656,0.033336,-0.038479,-0.054287,-0.09946,-0.030423,-0.025687,-0.031346,0.012533,-0.016734,-0.03077,-0.24161,-0.21336,-0.06126,-0.019085,-0.012308,-0.0031796,-0.021696
0.025381,-0.02443,-0.0092047,-0.0014453,0.029649,-0.24747,-0.04799,0.03131,-0.044663,-0.054696,-0.065385,-0.030563,-0.028404,-0.047409,0.013354,-0.020225,-0.038347,-0.27097,-0.21714,-0.07152,-0.018421,-0.0091649,-0.0060467,-0.018232
0.021045,-0.025085,-0.0099375,-0.002913,0.024065,-0.34363,-0.08972,0.027752,-0.048647,-0.053659,-0.032167,-0.030635,-0.028965,-0.058198,0.012152,-0.026842,-0.041942,-0.29626,-0.21568,-0.079732,-0.021474,-0.0054195,-0.0068814,-0.018508
0.019817,-0.025932,-0.0096692,-0.0044622,0.0211,-0.41273,-0.12196,0.020175,-0.049536,-0.050982,-0.0023872,-0.032708,-0.028993,-0.064809,0.0094551,-0.034127,-0.042035,-0.31584,-0.2119,-0.08466,-0.02865,-0.0040546,-0.0044123,-0.023649
0.022385,-0.027753,-0.0086217,-0.0044205,0.018099,-0.4636,-0.14594,0.0086645,-0.049241,-0.046965,0.024359,-0.036957,-0.030408,-0.067494,0.0075844,-0.038531,-0.040424,-0.32595,-0.20581,-0.085823,-0.037676,-0.0060621,0.00089003,-0.031489
0.026943,-0.02915,-0.0073883,-0.0021476,0.011956,-0.50616,-0.16601,-0.0036415,-0.050944,-0.041832,0.049382,-0.041291,-0.034275,-0.066404,0.0082233,-0.038251,-0.038619,-0.32245,-0.19528,-0.083214,-0.045257,-0.0096152,0.0074364,-0.037799
0.031256,-0.028073,-0.0069393,0.0010657,0.0018832,-0.54017,-0.18495,-0.012897,-0.055989,-0.035806,0.072605,-0.042936,-0.039859,-0.062743,0.01032,-0.034958,-0.036845,-0.30352,-0.17842,-0.076969,-0.049356,-0.011723,0.013522,-0.039285
0.034487,-0.024249,-0.0081658,0.0028667,-0.0095462,-0.55464,-0.20156,-0.017681,-0.062227,-0.029449,0.092135,-0.040725,-0.044653,-0.0588,0.010486,-0.032502,-0.034275,-0.27121,-0.15556,-0.06754,-0.05015,-0.010773,0.017886,-0.035981
0.037068,-0.019912,-0.011079,0.0018774,-0.018159,-0.53856,-0.21235,-0.020056,-0.065651,-0.023634,0.10595,-0.03626,-0.045765,-0.056289,0.0056668,-0.033508,-0.029922,-0.23063,-0.12912,-0.056175,-0.049071,-0.0076239,0.019741,-0.03111
0.039179,-0.017964,-0.014417,-0.00098704,-0.021439,-0.4927,-0.21573,-0.02353,-0.064039,-0.019059,0.11404,-0.033031,-0.041999,-0.05439,-0.0042486,-0.036897,-0.023255,-0.18745,-0.10185,-0.044937,-0.047097,-0.0043582,0.018827,-0.0285
0.039849,-0.019265,-0.016248,-0.0032648,-0.020529,-0.43077,-0.21454,-0.029752,-0.059214,-0.015936,0.11891,-0.034215,-0.035082,-0.049649,-0.016079,-0.038737,-0.014249,-0.14562,-0.075317,-0.035787,-0.044071,-0.0020662,0.015869,-0.029657
0.03784,-0.021663,-0.015258,-0.003193,-0.019109,-0.36934,-0.21449,-0.036928,-0.055627,-0.014357,0.12401,-0.0408,-0.028811,-0.038641,-0.025419,-0.035783,-0.0033064,-0.10667,-0.049873,-0.029229,-0.039533,0.00011347,0.012874,-0.032826
0.0333,-0.021709,-0.011656,-0.0014407,-0.020012,-0.31614,-0.21965,-0.041302,-0.056333,-0.014928,0.13139,-0.051335,-0.026401,-0.021653,-0.029357,-0.028557,0.0085591,-0.070749,-0.025837,-0.023738,-0.033968,0.0037457,0.012355,-0.034622
0.028171,-0.01745,-0.0069298,-0.00073542,-0.022539,-0.2677,-0.22902,-0.040291,-0.060055,-0.018645,0.14081,-0.063281,-0.027979,-0.0041667,-0.027872,-0.021177,0.019546,-0.03806,-0.0043516,-0.016803,-0.028965,0.00891,0.015419,-0.032764
0.024698,-0.0097848,-0.0026969,-0.0036542,-0.023015,-0.21725,-0.23708,-0.034496,-0.062163,-0.025615,0.15112,-0.074687,-0.030339,0.0058258,-0.02332,-0.018023,0.027484,-0.0093666,0.01301,-0.0070663,-0.025997,0.013351,0.020221,-0.027685
0.023506,-0.0013714,0.00026529,-0.010436,-0.018267,-0.16439,-0.23793,-0.026989,-0.058856,-0.033627,0.16229,-0.084796,-0.029356,0.0032522,-0.018801,-0.020117,0.030933,0.014453,0.025429,0.0040994,-0.025091,0.01407,0.022635,-0.021925
0.023275,0.005566,0.0020632,-0.018597,-0.0089608,-0.11723,-0.22981,-0.020797,-0.050763,-0.038327,0.17576,-0.093202,-0.023257,-0.0099272,-0.016657,-0.024266,0.030229,0.033093,0.033502,0.013079,-0.024781,0.010146,0.0193,-0.018061
0.022335,0.010364,0.0030548,-0.024579,0.00039005,-0.085949,-0.2162,-0.016912,-0.042663,-0.035621,0.19221,-0.098599,-0.014089,-0.025482,-0.01779,-0.02564,0.027504,0.046885,0.038706,0.016501,-0.02348,0.0042313,0.010768,-0.016913
0.02043,0.013237,0.0034362,-0.026029,0.0050338,-0.075179,-0.20326,-0.014427,-0.039541,-0.024754,0.20871,-0.098595,-0.0061761,-0.034487,-0.021753,-0.021581,0.025499,0.056245,0.042325,0.013903,-0.020946,0.0011202,0.0017344,-0.017329
0.018696,0.014065,0.0035001,-0.022982,0.0041716,-0.082368,-0.1955,-0.012325,-0.04253,-0.0094144,0.21854,-0.091023,-0.0028524,-0.033713,-0.027251,-0.013603,0.025959,0.061246,0.044974,0.008381,-0.018435,0.0042385,-0.002395,-0.017443
0.017948,0.012342,0.0040497,-0.017307,0.0018756,-0.10246,-0.19345,-0.011009,-0.048254,0.0044823,0.215,-0.075597,-0.0041409,-0.027872,-0.032738,-0.0060804,0.028731,0.061878,0.047077,0.0045055,-0.017373,0.012781,-3.85e-006,-0.016252
0.017312,0.0084004,0.0061156,-0.011256,0.003586,-0.13259,-0.19448,-0.012112,-0.051838,0.012756,0.19668,-0.05416,-0.0071205,-0.025799,-0.036942,-0.0028458,0.032106,0.058756,0.049468,0.0050328,-0.017817,0.021838,0.0051026,-0.014257
0.014974,0.0042906,0.0099268,-0.006429,0.011006,-0.17149,-0.19579,-0.016755,-0.050623,0.015454,0.16987,-0.029089,-0.0083894,-0.033401,-0.039181,-0.0044114,0.034037,0.053412,0.053114,0.0090605,-0.018197,0.025524,0.0065191,-0.012786
0.010456,0.0028019,0.014166,-0.0037638,0.019925,-0.21503,-0.19668,-0.023958,-0.045351,0.015844,0.14538,-0.0014543,-0.0064177,-0.048872,-0.039379,-0.0079061,0.033408,0.04769,0.057999,0.013139,-0.016682,0.020741,0.00016927,-0.012686
0.0058972,0.0051625,0.016583,-0.0039383,0.023227,-0.25378,-0.19842,-0.030757,-0.038302,0.017005,0.13195,0.028866,-0.002025,-0.063959,-0.037854,-0.0095924,0.0306,0.042746,0.062403,0.01436,-0.013038,0.0088544,-0.012882,-0.013504
0.0046031,0.0096623,0.015767,-0.0072406,0.016884,-0.27662,-0.2021,-0.034137,-0.030735,0.019215,0.13107,0.060828,0.0029165,-0.070321,-0.035129,-0.0078498,0.027114,0.03864,0.063682,0.012715,-0.0092764,-0.0057141,-0.027963,-0.013879
0.0078981,0.012872,0.012498,-0.012808,0.003893,-0.27774,-0.20677,-0.033254,-0.022236,0.020394,0.13709,0.090056,0.007021,-0.065922,-0.032033,-0.004266,0.024499,0.034965,0.060213,0.010698,-0.008293,-0.018567,-0.040968,-0.012801
0.013352,0.012626,0.0092195,-0.018232,-0.0074,-0.26027,-0.20961,-0.030104,-0.012317,0.01885,0.14188,0.1099,0.0098583,-0.056491,-0.02997,-0.002096,0.023199,0.031819,0.052848,0.010588,-0.011356,-0.02767,-0.051293,-0.010625
0.016421,0.010054,0.0078621,-0.020545,-0.0094947,-0.23308,-0.20799,-0.02804,-0.0022251,0.015465,0.13991,0.11592,0.01142,-0.051027,-0.030859,-0.0034679,0.022088,0.03002,0.044437,0.012003,-0.016496,-0.033556,-0.061154,-0.0089044
0.014315,0.0087067,0.0079799,-0.018259,-0.0014568,-0.20363,-0.20157,-0.029303,0.0052294,0.013171,0.13011,0.11022,0.01162,-0.05511,-0.036238,-0.0076394,0.019118,0.030235,0.037682,0.012041,-0.019383,-0.037856,-0.072449,-0.0091113
0.0086052,0.011626,0.0070682,-0.012779,0.010539,-0.17335,-0.19255,-0.033524,0.0079083,0.014332,0.11412,0.10106,0.010485,-0.067223,-0.04586,-0.011635,0.01281,0.031914,0.033191,0.0079572,-0.016387,-0.041761,-0.08434,-0.011299
0.0040751,0.01917,0.0029745,-0.0076381,0.018239,-0.13945,-0.18419,-0.038274,0.0066,0.018603,0.093697,0.096941,0.0086062,-0.080629,-0.056895,-0.012616,0.0036154,0.033278,0.029414,-3.2558e-005,-0.0075288,-0.045514,-0.093687,-0.013883
0.0047586,0.029582,-0.0037125,-0.005887,0.017669,-0.10053,-0.17892,-0.041103,0.0050279,0.02326,0.069873,0.099666,0.0069211,-0.088784,-0.064901,-0.010017,-0.005972,0.032564,0.024404,-0.0083893,0.0031806,-0.048837,-0.097596,-0.014774
0.010694,0.041385,-0.0095159,-0.0077499,0.011642,-0.060443,-0.17781,-0.041362,0.0072516,0.025579,0.04377,0.10259,0.0057564,-0.089757,-0.066427,-0.0058496,-0.012842,0.029443,0.017743,-0.012787,0.010572,-0.051438,-0.095577,-0.012991
0.018201,0.054764,-0.010422,-0.010618,0.0066187,-0.026725,-0.18122,-0.040469,0.014401,0.02501,0.017361,0.096204,0.0041717,-0.086472,-0.06148,-0.0031454,-0.015398,0.025224,0.010927,-0.011493,0.012154,-0.053114,-0.08964,-0.0095076
0.023194,0.070159,-0.0048036,-0.011361,0.0069769,-0.005366,-0.18919,-0.040645,0.023424,0.023295,-0.0071632,0.076781,0.00070984,-0.083286,-0.053775,-0.0038785,-0.014843,0.021591,0.0061146,-0.0068278,0.0097453,-0.053667,-0.082748,-0.0066768
0.024395,0.085434,0.0054436,-0.0088701,0.011641,0.0033752,-0.20064,-0.043244,0.029074,0.022631,-0.028721,0.050537,-0.0047601,-0.082207,-0.048225,-0.0078347,-0.014504,0.01906,0.0045315,-0.0035612,0.0074955,-0.053138,-0.077321,-0.0066398
0.023701,0.09496,0.016279,-0.0046567,0.015692,0.0048427,-0.21234,-0.047942,0.02783,0.023673,-0.047747,0.029429,-0.009899,-0.081797,-0.047464,-0.012958,-0.017492,0.016628,0.0058518,-0.0055018,0.0080309,-0.05226,-0.074842,-0.0098036
0.023816,0.092535,0.024106,-0.0012774,0.015143,0.0063155,-0.21955,-0.05314,0.020778,0.025093,-0.065146,0.021838,-0.011039,-0.079169,-0.05018,-0.016666,-0.02429,0.012993,0.0086846,-0.012876,0.010218,-0.052475,-0.076193,-0.01443
0.025643,0.076365,0.027567,-0.0002982,0.010513,0.013131,-0.21889,-0.057008,0.0131,0.024946,-0.080937,0.025968,-0.0061273,-0.072941,-0.052573,-0.017254,-0.032129,0.0082113,0.011331,-0.022311,0.010573,-0.055078,-0.08174,-0.017693
0.02772,0.051731,0.027533,-0.0016239,0.0062717,0.027201,-0.21138,-0.058319,0.010369,0.022552,-0.094079,0.031495,0.003039,-0.064601,-0.051636,-0.014739,-0.036749,0.0042605,0.012145,-0.029233,0.0069857,-0.059968,-0.090869,-0.017614
0.027718,0.028406,0.025872,-0.0043758,0.0069731,0.047881,-0.20246,-0.056657,0.014406,0.019253,-0.10363,0.027931,0.011614,-0.057393,-0.047409,-0.010848,-0.035416,0.003891,0.009709,-0.030852,0.0012096,-0.065185,-0.10165,-0.01458
0.024198,0.014252,0.024211,-0.007985,0.013659,0.073337,-0.19797,-0.052185,0.021935,0.017402,-0.10994,0.012562,0.015244,-0.053914,-0.042444,-0.0081409,-0.028972,0.0086516,0.0033604,-0.027747,-0.0022774,-0.067957,-0.11136,-0.011225
0.01713,0.010031,0.02343,-0.012281,0.023468,0.10102,-0.19911,-0.045432,0.027136,0.018438,-0.11471,-0.0085244,0.01341,-0.054399,-0.039199,-0.0085652,-0.021392,0.017608,-0.0060132,-0.023224,-7.4072e-005,-0.066634,-0.11779,-0.010495
0.0073963,0.0097502,0.023699,-0.016753,0.03237,0.1275,-0.20079,-0.037229,0.026073,0.021631,-0.11987,-0.026713,0.0095448,-0.056793,-0.037864,-0.012175,-0.017183,0.027682,-0.015842,-0.021135,0.0071593,-0.061927,-0.12039,-0.013232
-0.0035589,0.0062389,0.024583,-0.020174,0.038342,0.14876,-0.19528,-0.028607,0.019489,0.024629,-0.12656,-0.038742,0.0077944,-0.058264,-0.036477,-0.016934,-0.018543,0.035272,-0.023143,-0.023597,0.015222,-0.056289,-0.1203,-0.017277
-0.01349,-0.0028678,0.025073,-0.021325,0.042356,0.16163,-0.17851,-0.020396,0.011905,0.02539,-0.13491,-0.049627,0.0093761,-0.056917,-0.033028,-0.019969,-0.024279,0.03798,-0.026634,-0.029896,0.01984,-0.051942,-0.11928,-0.019143
-0.019473,-0.013858,0.023835,-0.020207,0.046797,0.16529,-0.15341,-0.012713,0.0079811,0.023821,-0.1445,-0.068669,0.011897,-0.052675,-0.027487,-0.019519,-0.030975,0.035409,-0.027964,-0.037039,0.019889,-0.049289,-0.11816,-0.017094
-0.019334,-0.021168,0.019788,-0.018442,0.053124,0.16157,-0.12769,-0.0048946,0.0091704,0.02155,-0.15461,-0.10229,0.012147,-0.047076,-0.02196,-0.016135,-0.035297,0.028823,-0.030641,-0.041549,0.017637,-0.047169,-0.11611,-0.01299
-0.01374,-0.022903,0.012642,-0.018256,0.060817,0.15333,-0.10778,0.0037535,0.013106,0.019908,-0.16417,-0.1494,0.0095695,-0.042355,-0.018973,-0.012088,-0.03576,0.0202,-0.037121,-0.041457,0.016164,-0.0446,-0.11099,-0.011023
-0.006802,-0.022428,0.0028973,-0.020823,0.068089,0.14196,-0.094112,0.012854,0.015738,0.018013,-0.17179,-0.20203,0.0070216,-0.040303,-0.019449,-0.0094549,-0.033119,0.011364,-0.04631,-0.037353,0.016621,-0.04222,-0.10101,-0.014124
-0.0038111,-0.024704,-0.0087355,-0.025362,0.07324,0.1259,-0.081246,0.020577,0.014219,0.01306,-0.17644,-0.24952,0.0081088,-0.041359,-0.022078,-0.0085262,-0.029618,0.0035132,-0.053745,-0.031904,0.017793,-0.041938,-0.086453,-0.021071
-0.0073591,-0.031109,-0.021846,-0.029733,0.075317,0.10172,-0.062058,0.024714,0.0084565,0.0029929,-0.17816,-0.28252,0.013719,-0.044252,-0.024413,-0.0079596,-0.027766,-0.0029174,-0.054671,-0.028148,0.017938,-0.045085,-0.070444,-0.026989
-0.015145,-0.037922,-0.036167,-0.031978,0.073915,0.066839,-0.032232,0.024609,0.00074301,-0.010707,-0.17783,-0.29477,0.021071,-0.046498,-0.024622,-0.0064761,-0.02908,-0.0081999,-0.047737,-0.027678,0.016732,-0.050912,-0.057749,-0.027045
-0.021771,-0.039989,-0.050897,-0.031555,0.068945,0.022097,0.0080941,0.022244,-0.00572,-0.022951,-0.17609,-0.28354,0.026106,-0.04569,-0.022459,-0.0044121,-0.03308,-0.013087,-0.036366,-0.029881,0.01527,-0.056965,-0.052102,-0.020338
-0.023354,-0.036031,-0.064332,-0.029468,0.061016,-0.028077,0.055439,0.021153,-0.0082788,-0.02831,-0.17214,-0.25024,0.026853,-0.040964,-0.018867,-0.0035341,-0.037084,-0.018395,-0.026587,-0.032589,0.014328,-0.060985,-0.053566,-0.010706
-0.020999,-0.030398,-0.07445,-0.027476,0.051993,-0.07793,0.1047,0.023688,-0.0057433,-0.025143,-0.16415,-0.20102,0.024621,-0.033664,-0.014775,-0.0052141,-0.037426,-0.024556,-0.022957,-0.033582,0.012984,-0.062423,-0.057879,-0.0037912
-0.020004,-0.02946,-0.080077,-0.027185,0.044576,-0.12326,0.14992,0.028881,0.0012778,-0.017016,-0.15109,-0.14568,0.022118,-0.02657,-0.010209,-0.0087517,-0.031914,-0.031444,-0.025727,-0.031868,0.0093932,-0.06204,-0.058549,-0.0028643
-0.025419,-0.035933,-0.081563,-0.029561,0.040558,-0.16255,0.18465,0.032918,0.010664,-0.010076,-0.13446,-0.093937,0.020624,-0.022099,-0.0044709,-0.011602,-0.021962,-0.038657,-0.031318,-0.028052,0.0032546,-0.059979,-0.050574,-0.0067471
-0.037869,-0.046384,-0.080285,-0.034797,0.038905,-0.19569,0.2033,0.032105,0.019783,-0.0085167,-0.11827,-0.050926,0.019062,-0.020783,0.0027854,-0.011469,-0.012372,-0.045981,-0.035468,-0.023804,-0.002497,-0.054358,-0.03339,-0.011278
-0.053156,-0.054121,-0.077468,-0.042214,0.035638,-0.22172,0.20357,0.025883,0.026881,-0.011937,-0.10676,-0.015555,0.015806,-0.021268,0.010491,-0.0083597,-0.0082724,-0.053575,-0.036396,-0.020925,-0.002929,-0.042066,-0.011052,-0.012786
-0.06564,-0.05475,-0.073548,-0.050152,0.026319,-0.23797,0.1882,0.017315,0.031948,-0.01658,-0.10164,0.016543,0.01121,-0.02185,0.016133,-0.0046281,-0.01124,-0.061612,-0.035572,-0.02052,0.0051461,-0.021378,0.010468,-0.010672
-0.072148,-0.049421,-0.068684,-0.056254,0.0096473,-0.24159,0.16397,0.010593,0.036233,-0.019018,-0.10106,0.047612,0.0081091,-0.022227,0.017109,-0.0029266,-0.017852,-0.069712,-0.035882,-0.022529,0.019914,0.005814,0.026998,-0.0072652
-0.073185,-0.043202,-0.063773,-0.058366,-0.010743,-0.23223,0.13841,0.0077443,0.040646,-0.018909,-0.10108,0.074487,0.0095471,-0.023884,0.012705,-0.003959,-0.022228,-0.076824,-0.03905,-0.025716,0.034858,0.034215,0.038383,-0.0054883
-0.071083,-0.040491,-0.060677,-0.055719,-0.02819,-0.21359,0.11628,0.0073073,0.044458,-0.018702,-0.09834,0.090349,0.015753,-0.028714,0.0052072,-0.0060961,-0.020688,-0.081878,-0.044483,-0.028148,0.042925,0.057762,0.047788,-0.0064241
-0.067523,-0.041745,-0.061141,-0.049525,-0.037517,-0.19243,0.098473,0.0059329,0.045699,-0.021009,-0.091928,0.090101,0.023324,-0.037099,-0.0010302,-0.0070801,-0.014618,-0.084723,-0.050205,-0.028104,0.041488,0.072663,0.058743,-0.0086098
-0.062792,-0.044075,-0.065281,-0.042404,-0.038739,-0.17546,0.083702,0.0012836,0.043148,-0.026251,-0.083007,0.074772,0.027631,-0.047206,-0.0023015,-0.0060741,-0.0090333,-0.08645,-0.054697,-0.025065,0.03412,0.078658,0.072111,-0.0093589
-0.056919,-0.044528,-0.071141,-0.036929,-0.036882,-0.16616,0.071001,-0.0062986,0.038136,-0.032449,-0.072894,0.051356,0.026508,-0.056213,0.0018163,-0.0041307,-0.0081048,-0.088592,-0.057934,-0.020199,0.027631,0.078032,0.085192,-0.0069408
-0.050819,-0.042721,-0.075909,-0.034286,-0.037991,-0.16346,0.060785,-0.014522,0.034229,-0.036908,-0.061262,0.028465,0.021966,-0.062378,0.0080393,-0.0028532,-0.01159,-0.091763,-0.060923,-0.015864,0.026726,0.073747,0.093594,-0.0020197
-0.045911,-0.040611,-0.077863,-0.033929,-0.044512,-0.16272,0.0539,-0.021245,0.034647,-0.038025,-0.046001,0.011603,0.018356,-0.066084,0.011737,-0.0027916,-0.015263,-0.094959,-0.06446,-0.014228,0.030618,0.068272,0.09451,0.0026273
-0.042637,-0.040131,-0.077424,-0.034308,-0.053794,-0.15859,0.050021,-0.025962,0.039496,-0.035891,-0.024946,0.0016755,0.01855,-0.068963,0.010367,-0.0031789,-0.014796,-0.096303,-0.068349,-0.015811,0.034229,0.063332,0.08891,0.0039578
-0.039714,-0.041195,-0.076457,-0.03397,-0.060769,-0.14794,0.047199,-0.029588,0.045356,-0.031647,0.0017231,-0.0029098,0.021518,-0.072016,0.0052792,-0.0030446,-0.0095832,-0.094735,-0.071646,-0.01901,0.032748,0.059675,0.080974,0.00092871
-0.035155,-0.041834,-0.076455,-0.032225,-0.062365,-0.13137,0.043106,-0.033157,0.047859,-0.026474,0.030225,-0.0032947,0.023464,-0.074558,0.00044415,-0.002309,-0.0032139,-0.091196,-0.073407,-0.021113,0.025561,0.056348,0.075117,-0.0043583
-0.028229,-0.04004,-0.077147,-0.029136,-0.059905,-0.11239,0.036903,-0.036811,0.045231,-0.020935,0.054254,0.00070499,0.021518,-0.074993,-0.00076555,-0.0016677,-0.00040668,-0.088137,-0.073096,-0.020211,0.01635,0.050331,0.072868,-0.0076477
-0.020398,-0.035468,-0.076565,-0.025176,-0.057667,-0.094997,0.030068,-0.039846,0.039784,-0.014806,0.068135,0.0090325,0.016671,-0.07257,0.0019008,-0.0015589,-0.0031998,-0.087654,-0.070404,-0.016633,0.0096189,0.037846,0.071914,-0.0053341
-0.014265,-0.029625,-0.072458,-0.020978,-0.059108,-0.081175,0.025466,-0.041483,0.036043,-0.0073443,0.070247,0.019551,0.01327,-0.068346,0.0056703,-0.0015436,-0.0095552,-0.089779,-0.06502,-0.012682,0.0069702,0.017237,0.06785,0.0026738
-0.011493,-0.024688,-0.06392,-0.017273,-0.06402,-0.070142,0.025287,-0.041492,0.03709,0.0020534,0.064444,0.028241,0.015376,-0.064338,0.007123,-0.00086963,-0.015236,-0.092437,-0.05696,-0.010754,0.0064342,-0.0086971,0.057017,0.012192
-0.01163,-0.022155,-0.052118,-0.01476,-0.068813,-0.059786,0.029392,-0.040196,0.04218,0.013001,0.058229,0.031566,0.023052,-0.06163,0.0047704,0.00046646,-0.017091,-0.093184,-0.047267,-0.011237,0.0051527,-0.033238,0.03822,0.017027
-0.012762,-0.022279,-0.039727,-0.013778,-0.06934,-0.049079,0.035239,-0.038062,0.047525,0.023741,0.058538,0.028905,0.031752,-0.059222,-8.6523e-005,0.0014875,-0.015019,-0.091288,-0.038164,-0.012002,0.0026524,-0.049258,0.012466,0.012973
-0.013161,-0.024322,-0.029479,-0.013995,-0.063865,-0.039604,0.039435,-0.035323,0.049373,0.031879,0.067687,0.022859,0.035465,-0.054747,-0.0045424,0.0012365,-0.011316,-0.088436,-0.031992,-0.010079,0.0015505,-0.053163,-0.018171,0.00075292
-0.012314,-0.027073,-0.022738,-0.014462,-0.054081,-0.035081,0.039829,-0.031916,0.0467,0.03606,0.082108,0.017149,0.031235,-0.046491,-0.0061211,-4.4455e-005,-0.0083688,-0.087456,-0.029417,-0.0042931,0.0050977,-0.046228,-0.050949,-0.014309
-0.010594,-0.029273,-0.01892,-0.014103,-0.043878,-0.039318,0.036736,-0.027735,0.041426,0.037324,0.094778,0.013982,0.02154,-0.035011,-0.0041641,-0.00093471,-0.0068162,-0.090099,-0.028412,0.0033354,0.013958,-0.032632,-0.081792,-0.025724
-0.0083435,-0.029969,-0.016086,-0.012313,-0.0371,-0.053957,0.032471,-0.023016,0.036336,0.038801,0.099906,0.013028,0.012647,-0.022995,0.00011723,-0.00020091,-0.0055336,-0.095572,-0.025186,0.0087834,0.02525,-0.016295,-0.10497,-0.029908
-0.0055522,-0.028892,-0.012362,-0.0092112,-0.035724,-0.077218,0.029571,-0.018615,0.032733,0.043615,0.096901,0.012567,0.010131,-0.013563,0.0046259,0.0018287,-0.0031085,-0.10084,-0.016668,0.0090379,0.034657,0.00076068,-0.11464,-0.028026
-0.0024016,-0.026616,-0.0072559,-0.0054475,-0.039232,-0.10412,0.028902,-0.015888,0.029697,0.052554,0.09098,0.011402,0.014837,-0.0083837,0.0076394,0.0033456,0.00072026,-0.10235,-0.0026441,0.0045838,0.039569,0.017769,-0.10797,-0.024511
0.00022355,-0.02418,-0.0019248,-0.0017954,-0.045182,-0.12802,0.028966,-0.016088,0.025224,0.063448,0.08979,0.0096895,0.022273,-0.0069828,0.0086891,0.0026416,0.0048766,-0.097844,0.014229,-0.00067323,0.040391,0.033807,-0.087602,-0.023643
0.0011592,-0.022282,0.0018565,0.0011602,-0.050607,-0.14302,0.026888,-0.019599,0.017995,0.072916,0.097976,0.0082015,0.025857,-0.0074748,0.0087153,-0.0003051,0.0079546,-0.087314,0.030605,-0.0020943,0.039127,0.04743,-0.061025,-0.026751
8.5154e-005,-0.020769,0.003272,0.0031508,-0.053613,-0.14638,0.020458,-0.025597,0.0083811,0.079114,0.11322,0.0071748,0.021585,-0.0078661,0.0094469,-0.0037981,0.0093387,-0.07266,0.044989,0.0023911,0.036934,0.057546,-0.036732,-0.031797
-0.0018651,-0.019003,0.0032919,0.0042484,-0.05437,-0.13958,0.0098633,-0.032417,-0.0017413,0.083201,0.12667,0.0062254,0.010647,-0.0069182,0.012259,-0.0060033,0.0094788,-0.056622,0.05846,0.010826,0.03325,0.064153,-0.019569,-0.035168
-0.002857,-0.016872,0.0039689,0.0048091,-0.054816,-0.12726,-0.0020928,-0.038326,-0.0098847,0.088251,0.12803,0.0054492,-0.001858,-0.004288,0.017117,-0.0065922,0.0093127,-0.041612,0.073047,0.018645,0.027254,0.067883,-0.0086985,-0.034138
-0.0019061,-0.015411,0.0066788,0.0052564,-0.057142,-0.11419,-0.011467,-0.042044,-0.013945,0.096419,0.11227,0.0062825,-0.010913,-0.00035122,0.022347,-0.0068076,0.0095735,-0.028948,0.089258,0.02187,0.019905,0.068869,0.00043836,-0.028377
0.00027938,-0.016193,0.010757,0.0057352,-0.062038,-0.10247,-0.015374,-0.042819,-0.013033,0.10672,0.083419,0.010695,-0.015002,0.003902,0.025609,-0.0078763,0.010573,-0.018711,0.10506,0.019755,0.014098,0.066431,0.011837,-0.019875
0.0020545,-0.019869,0.013766,0.0059174,-0.067983,-0.090954,-0.01341,-0.040423,-0.0079869,0.11536,0.052617,0.01903,-0.016358,0.0070442,0.025544,-0.0094042,0.012329,-0.010197,0.11719,0.015011,0.012324,0.060179,0.025727,-0.011673
0.0024665,-0.025165,0.013335,0.0052675,-0.072173,-0.077612,-0.0074279,-0.03544,-0.0012281,0.1186,0.031346,0.02858,-0.018196,0.0078237,0.022909,-0.0095073,0.014557,-0.0026743,0.12366,0.011554,0.013977,0.051432,0.038757,-0.0062516
0.0020914,-0.029412,0.0091309,0.0036712,-0.072437,-0.062527,-1.1496e-005,-0.029545,0.0043422,0.11597,0.02447,0.03477,-0.021645,0.0060839,0.020136,-0.0067378,0.016402,0.0039863,0.12524,0.011514,0.015145,0.043177,0.047022,-0.0043431
0.0022051,-0.030253,0.003323,0.0018429,-0.06873,-0.048758,0.0070709,-0.025,0.0070059,0.11118,0.027842,0.034523,-0.025097,0.0032079,0.019476,-0.001952,0.016439,0.0092065,0.1246,0.013744,0.011592,0.038149,0.049188,-0.0046605
0.0031688,-0.027133,-0.00099113,0.00095257,-0.063127,-0.040023,0.013351,-0.023219,0.0073027,0.10964,0.032051,0.029047,-0.026267,0.0014039,0.02113,0.0018979,0.013365,0.012106,0.12396,0.014941,0.0025554,0.03654,0.047275,-0.0046748
0.0037968,-0.021438,-0.0022391,0.0016153,-0.058379,-0.037263,0.019055,-0.023461,0.007513,0.11429,0.029328,0.023371,-0.024738,0.0021585,0.023021,0.0021633,0.0070672,0.01201,0.12333,0.01246,-0.0081263,0.035507,0.044861,-0.002147
0.0025084,-0.015428,-0.001731,0.0031564,-0.056116,-0.037418,0.024299,-0.023057,0.0097757,0.12274,0.018488,0.02264,-0.022425,0.0051554,0.022523,-0.001016,-0.00091759,0.0085566,0.12063,0.0065745,-0.014814,0.031168,0.04456,0.0033857
-0.00082122,-0.011046,-0.0026733,0.0040234,-0.055957,-0.035757,0.028922,-0.019411,0.014318,0.12832,0.0045322,0.02812,-0.021627,0.0087367,0.018789,-0.0045573,-0.0081754,0.0012878,0.11363,0.00037359,-0.014548,0.021591,0.046833,0.010152
-0.004253,-0.0093505,-0.0074353,0.0031972,-0.056046,-0.029658,0.03293,-0.012239,0.019255,0.12452,-0.0061941,0.036262,-0.022742,0.011583,0.013679,-0.0049671,-0.012891,-0.010827,0.10186,-0.0026251,-0.009375,0.0083629,0.050607,0.015172
-0.0052364,-0.010379,-0.015187,0.0013571,-0.054495,-0.020253,0.036882,-0.0039973,0.022046,0.10968,-0.011079,0.041572,-0.024002,0.014021,0.010455,-0.0013811,-0.014783,-0.029251,0.087055,-0.0012004,-0.0045802,-0.0044845,0.054629,0.016193
-0.0028902,-0.012927,-0.021929,0.00055208,-0.050655,-0.010384,0.041681,0.0020376,0.02127,0.088102,-0.012639,0.040777,-0.023488,0.017595,0.011357,0.0036352,-0.014797,-0.054862,0.071853,0.0026883,-0.0044523,-0.013268,0.058203,0.013143
0.0010411,-0.014363,-0.02312,0.0024422,-0.045362,-0.0010444,0.048037,0.0043937,0.017312,0.066654,-0.015635,0.034795,-0.021325,0.023246,0.016045,0.0062649,-0.014089,-0.086536,0.058231,0.0055044,-0.0092372,-0.016962,0.060997,0.0080425
0.0035522,-0.011264,-0.016965,0.0066597,-0.04011,0.009987,0.056214,0.0043662,0.011778,0.049213,-0.022799,0.027103,-0.019797,0.029879,0.022008,0.0046441,-0.013428,-0.12042,0.046889,0.0048669,-0.015611,-0.017392,0.062599,0.0035128
0.0029111,-0.0012071,-0.0057703,0.010962,-0.035944,0.02574,0.066232,0.0044818,0.0065812,0.033408,-0.032791,0.02026,-0.021216,0.034875,0.026231,0.00028023,-0.013386,-0.15069,0.03785,0.0012683,-0.019794,-0.017389,0.062532,0.001216
0.000146,0.015313,0.0057084,0.013272,-0.032951,0.046167,0.078076,0.0060023,0.0035028,0.012481,-0.041678,0.013797,-0.025626,0.03622,0.026605,-0.0034152,-0.01459,-0.17173,0.031248,-0.002404,-0.020373,-0.018409,0.060726,0.001455
-0.0017368,0.034601,0.013479,0.013797,-0.030665,0.066665,0.091437,0.007906,0.0040369,-0.018887,-0.046156,0.005257,-0.0306,0.034252,0.022241,-0.0040101,-0.01719,-0.18057,0.027272,-0.0029733,-0.018646,-0.019275,0.05794,0.0039123
-9.9212e-006,0.05184,0.016368,0.015073,-0.028839,0.080638,0.10526,0.0083157,0.0088036,-0.059152,-0.045621,-0.0066454,-0.033333,0.031361,0.013218,-0.0018181,-0.019916,-0.17802,0.025341,0.00094857,-0.016849,-0.01681,0.055719,0.0083638
0.0059521,0.064164,0.015321,0.019614,-0.027728,0.083896,0.11791,0.0069103,0.016619,-0.099121,-0.041708,-0.019708,-0.033042,0.029895,0.00063233,0.00074354,-0.020051,-0.16782,0.023698,0.0082904,-0.016257,-0.0079237,0.055864,0.01443
0.014506,0.072228,0.010955,0.027204,-0.027622,0.07701,0.12815,0.0058095,0.024382,-0.12668,-0.036345,-0.029023,-0.03145,0.030326,-0.013014,0.0013293,-0.015066,-0.15397,0.020347,0.0165,-0.016704,0.0080383,0.05958,0.020796
0.02289,0.078869,0.0020637,0.034533,-0.028226,0.063847,0.13631,0.0078256,0.028726,-0.13379,-0.030406,-0.030534,-0.030968,0.03135,-0.024043,-0.00058439,-0.004872,-0.13813,0.01482,0.023349,-0.01733,0.028026,0.066539,0.025255
0.028528,0.085968,-0.013136,0.037858,-0.028778,0.048116,0.14418,0.013549,0.028651,-0.12108,-0.023953,-0.024573,-0.032316,0.031659,-0.029113,-0.0035921,0.0074752,-0.11866,0.0090346,0.028343,-0.017387,0.045947,0.074329,0.026169
0.029758,0.092223,-0.033951,0.036452,-0.028999,0.031314,0.15355,0.020059,0.026786,-0.097057,-0.017301,-0.016228,-0.033746,0.031459,-0.027306,-0.005557,0.017691,-0.092208,0.0060521,0.032849,-0.01639,0.055223,0.079066,0.02419
0.026177,0.093759,-0.055412,0.033531,-0.029892,0.013598,0.16436,0.022795,0.027613,-0.072924,-0.011443,-0.011793,-0.03254,0.032228,-0.021042,-0.0049182,0.023433,-0.056903,0.0074132,0.0388,-0.014028,0.05211,0.07749,0.022276
0.018905,0.08708,-0.070096,0.033437,-0.033258,-0.0039556,0.17462,0.019276,0.033658,-0.056584,-0.0073848,-0.013838,-0.027422,0.035148,-0.0147,-0.0012903,0.025974,-0.014895,0.011338,0.04684,-0.010447,0.037917,0.069575,0.023409
0.010524,0.071946,-0.072819,0.037434,-0.03993,-0.018476,0.18214,0.011482,0.042901,-0.049549,-0.0052604,-0.019061,-0.019844,0.040038,-0.011704,0.0045797,0.028818,0.027699,0.013571,0.05525,-0.0067527,0.018576,0.059514,0.027805
0.0040991,0.051984,-0.064576,0.042069,-0.048236,-0.026863,0.18681,0.0045911,0.049992,-0.048025,-0.0043483,-0.02114,-0.01306,0.045939,-0.012302,0.011074,0.034456,0.063759,0.010449,0.060677,-0.0048322,0.0015025,0.053502,0.032325
0.0014214,0.032706,-0.052221,0.041987,-0.054389,-0.028187,0.19095,0.0028421,0.050505,-0.04676,-0.0040732,-0.016613,-0.00977,0.052564,-0.013792,0.016111,0.042102,0.089174,0.0017885,0.060374,-0.0060776,-0.0084664,0.055246,0.032996
0.0017035,0.018522,-0.043728,0.034969,-0.054983,-0.024466,0.1972,0.005987,0.044552,-0.04289,-0.0049276,-0.0088286,-0.010204,0.060792,-0.012967,0.017961,0.048305,0.10512,-0.0086767,0.05433,-0.0098837,-0.011438,0.062553,0.028587
0.002094,0.010727,-0.042663,0.024597,-0.049698,-0.019025,0.20586,0.0095528,0.036483,-0.037558,-0.0082504,-0.0062409,-0.012096,0.07139,-0.008701,0.016419,0.049695,0.117,-0.015561,0.045547,-0.013479,-0.01151,0.068179,0.021952
1.9957e-005,0.007466,-0.046334,0.017836,-0.041854,-0.014015,0.21424,0.0089499,0.030949,-0.034801,-0.014924,-0.01615,-0.012467,0.083195,-0.0026084,0.013507,0.045448,0.1308,-0.014975,0.038055,-0.013704,-0.013208,0.064867,0.017721
-0.0043876,0.0053156,-0.048969,0.019406,-0.036081,-0.0093695,0.21904,0.003932,0.028921,-0.038815,-0.024144,-0.039169,-0.0097334,0.092794,0.002575,0.012703,0.037597,0.14957,-0.0063923,0.034161,-0.0094861,-0.017916,0.050875,0.018303
-0.0079398,0.0013192,-0.046883,0.027871,-0.03491,-0.0039208,0.21958,-0.00070855,0.027227,-0.051444,-0.03342,-0.06922,-0.0045216,0.096456,0.0053564,0.016642,0.02938,0.17237,0.0075832,0.033111,-0.0028712,-0.022951,0.031532,0.021806
-0.0066926,-0.0055657,-0.040947,0.036929,-0.037049,0.002696,0.21869,0.00080979,0.02184,-0.07138,-0.039883,-0.098809,0.0012457,0.092834,0.0066175,0.024809,0.023209,0.19603,0.022814,0.032177,0.0024629,-0.023901,0.015502,0.0238
0.00077388,-0.014172,-0.034296,0.040712,-0.038711,0.0093278,0.2203,0.009801,0.01175,-0.095337,-0.041905,-0.12429,0.0059796,0.084115,0.0087206,0.033253,0.01969,0.21815,0.03543,0.02915,0.0040366,-0.018345,0.0087203,0.021396
0.011738,-0.021951,-0.027748,0.038315,-0.036786,0.014373,0.22572,0.021179,-1.2266e-005,-0.12018,-0.039776,-0.14581,0.0093173,0.07458,0.013456,0.037094,0.01791,0.23877,0.043204,0.024107,0.0023577,-0.008011,0.010804,0.01604
0.020781,-0.026453,-0.017546,0.033693,-0.03117,0.017407,0.23238,0.02714,-0.0088436,-0.14439,-0.035019,-0.16181,0.011697,0.067792,0.020475,0.03416,0.016396,0.25976,0.046375,0.019089,0.00021003,0.0023229,0.016442,0.012577
0.023279,-0.026683,0.0021668,0.031465,-0.024479,0.019711,0.23636,0.023611,-0.01202,-0.1679,-0.028902,-0.16385,0.013313,0.064703,0.027328,0.026849,0.014119,0.28284,0.047601,0.016223,0.00020363,0.0083087,0.020155,0.015422
0.018409,-0.023597,0.034195,0.032798,-0.019658,0.023289,0.2365,0.013957,-0.010136,-0.19063,-0.021277,-0.13784,0.013588,0.063983,0.031047,0.020457,0.011171,0.30793,0.050574,0.016035,0.0027529,0.0090944,0.020336,0.025063
0.0095546,-0.019484,0.07499,0.035065,-0.017632,0.029502,0.23609,0.0066172,-0.0056623,-0.21137,-0.010577,-0.072838,0.011599,0.063915,0.030205,0.019171,0.0088497,0.33351,0.057473,0.017309,0.0060672,0.0075586,0.019546,0.03766
0.0020176,-0.016626,0.11599,0.035096,-0.01682,0.038653,0.24016,0.0085476,-0.00038374,-0.22806,0.0050421,0.028657,0.0069114,0.06397,0.026123,0.022982,0.008918,0.35815,0.066705,0.018351,0.007876,0.0076081,0.021432,0.047825
-0.00029596,-0.016147,0.14831,0.032448,-0.014571,0.050632,0.25054,0.019913,0.0058181,-0.23924,0.026249,0.14701,9.7937e-006,0.064806,0.022356,0.028045,0.012235,0.38201,0.072954,0.018344,0.0072595,0.010845,0.027237,0.052173
0.0029296,-0.017737,0.167,0.02947,-0.0091164,0.065534,0.2632,0.034346,0.013885,-0.24488,0.051806,0.2521,-0.0078874,0.067009,0.022551,0.030021,0.017691,0.40665,0.070207,0.017632,0.0051579,0.015391,0.034787,0.050948
0.0085248,-0.020315,0.17205,0.028392,-0.00055882,0.083266,0.2706,0.044226,0.02338,-0.24558,0.079042,0.31685,-0.015267,0.069961,0.027928,0.027416,0.022526,0.43354,0.055976,0.016899,0.0034243,0.017807,0.04046,0.04688
0.011977,-0.023,0.16661,0.02864,0.009448,0.10249,0.26736,0.046336,0.03131,-0.24041,0.10501,0.32957,-0.020651,0.071973,0.036143,0.022185,0.024219,0.46282,0.033502,0.016244,0.0033856,0.016385,0.042214,0.04264
0.010279,-0.025645,0.15513,0.0272,0.018657,0.12029,0.25448,0.043309,0.033237,-0.22596,0.12729,0.29818,-0.022904,0.071486,0.042607,0.01746,0.022667,0.49358,0.010005,0.015133,0.0050056,0.012952,0.041088,0.039034
0.0038543,-0.028575,0.14291,0.021688,0.025063,0.13334,0.2383,0.040297,0.026126,-0.19817,0.14377,0.2447,-0.021726,0.068211,0.043616,0.014786,0.020809,0.52533,-0.0077603,0.013285,0.0070801,0.011589,0.040091,0.035143
-0.00361,-0.031863,0.13615,0.013038,0.027415,0.13998,0.2252,0.040285,0.010903,-0.15613,0.15206,0.19398,-0.018097,0.063203,0.03901,0.01331,0.022855,0.55886,-0.017061,0.011594,0.0081453,0.015356,0.041528,0.029878
-0.0074499,-0.034766,0.14063,0.0051597,0.025584,0.14121,0.21651,0.042146,-0.007264,-0.10476,0.14978,0.16294,-0.014081,0.057886,0.032225,0.011308,0.031197,0.595,-0.01913,0.012027,0.0074404,0.023759,0.045,0.02346
-0.0051087,-0.035833,0.15834,0.0018625,0.020721,0.13962,0.20826,0.042562,-0.021406,-0.053408,0.13622,0.15527,-0.011693,0.053035,0.027579,0.0082192,0.044329,0.63218,-0.016104,0.016338,0.0053672,0.033046,0.047706,0.017638
0.0020669,-0.033633,0.18469,0.0039186,0.014844,0.13693,0.19566,0.039451,-0.026378,-0.010757,0.11434,0.16351,-0.011495,0.048646,0.026948,0.0051934,0.057454,0.66513,-0.0083504,0.02454,0.003238,0.038966,0.046827,0.014592
0.0097312,-0.027639,0.20915,0.0088318,0.0097464,0.13245,0.17831,0.033654,-0.021159,0.020272,0.09084,0.17618,-0.012125,0.044802,0.028568,0.0038133,0.065485,0.68691,0.005074,0.034465,0.0024786,0.039684,0.042117,0.015446
0.013623,-0.01868,0.22042,0.013249,0.0058711,0.12395,0.16112,0.027742,-0.0083766,0.043632,0.073351,0.18571,-0.01137,0.042605,0.028876,0.0044341,0.066301,0.69317,0.023458,0.04294,0.0037247,0.036594,0.036556,0.019447
0.012511,-0.0087097,0.21294,0.015609,0.0021388,0.11035,0.15008,0.023572,0.0082242,0.066412,0.066121,0.19245,-0.0080535,0.044089,0.02567,0.0058025,0.06199,0.68553,0.042429,0.047758,0.0063197,0.032697,0.034397,0.024318
0.0086892,-3.562e-005,0.19028,0.016725,-0.002879,0.094131,0.14675,0.021028,0.02601,0.093329,0.067621,0.20283,-0.0031255,0.05086,0.019892,0.0062472,0.057284,0.67062,0.055614,0.048873,0.0085409,0.030149,0.037993,0.027451
0.0057315,0.0055945,0.16272,0.018221,-0.0092765,0.081273,0.14652,0.018891,0.043611,0.12379,0.072254,0.22331,0.001107,0.062423,0.014678,0.0052411,0.056401,0.65469,0.058951,0.04788,0.0085098,0.028997,0.045886,0.027202
0.005571,0.0076304,0.14086,0.020664,-0.015077,0.078583,0.14258,0.01661,0.059404,0.15335,0.074952,0.25468,0.0030124,0.07567,0.012797,0.0038835,0.060445,0.6375,0.053668,0.046296,0.0053335,0.027825,0.053769,0.023569
0.0074602,0.0068626,0.1298,0.023262,-0.017259,0.090322,0.13195,0.015135,0.070448,0.17755,0.074672,0.29096,0.0031225,0.086299,0.014788,0.003928,0.066903,0.61048,0.044874,0.04415,-0.00019298,0.025375,0.057624,0.018022
0.0094771,0.0050445,0.12797,0.025162,-0.013892,0.11633,0.11846,0.016071,0.073491,0.19451,0.073607,0.3234,0.0036655,0.091346,0.019134,0.0062741,0.071259,0.56157,0.036894,0.040049,-0.0058447,0.021652,0.056468,0.012688
0.010777,0.004148,0.13033,0.026775,-0.0057535,0.15262,0.10954,0.020048,0.067388,0.20441,0.072851,0.34619,0.0065092,0.090949,0.023826,0.010201,0.069523,0.48401,0.029708,0.032503,-0.009185,0.017726,0.052395,0.0093436
0.012206,0.0055479,0.13275,0.029595,0.0038732,0.19357,0.10995,0.025808,0.05447,0.20727,0.068767,0.35897,0.011398,0.087883,0.027587,0.013884,0.060196,0.3831,0.019832,0.021226,-0.0090924,0.014704,0.047917,0.0086902
0.014749,0.0095084,0.13371,0.034557,0.011098,0.23413,0.11768,0.03073,0.039182,0.20191,0.053893,0.36414,0.016171,0.085172,0.02978,0.015681,0.044838,0.27567,0.0045304,0.0073643,-0.0066043,0.012915,0.043064,0.010164
0.017648,0.01524,0.1329,0.040471,0.013621,0.27072,0.12569,0.032318,0.024854,0.18732,0.022086,0.36129,0.018808,0.083739,0.029647,0.015189,0.027187,0.18225,-0.015184,-0.0073042,-0.004388,0.011941,0.035069,0.012284
0.018426,0.021484,0.12881,0.044139,0.011718,0.30088,0.12762,0.029531,0.011458,0.16509,-0.026373,0.3438,0.019382,0.08203,0.026256,0.013393,0.01137,0.11707,-0.03603,-0.021271,-0.0050371,0.011293,0.021161,0.013361
0.01498,0.027243,0.11866,0.042326,0.0074993,0.32249,0.12236,0.023119,-0.0036095,0.14012,-0.084015,0.30099,0.019971,0.077819,0.019625,0.011963,1.8447e-005,0.082374,-0.056909,-0.033585,-0.0092896,0.011,0.0020777,0.012277
0.0076512,0.032177,0.10081,0.034123,0.0032248,0.33359,0.11349,0.014953,-0.022491,0.1184,-0.14025,0.22456,0.022495,0.070462,0.011922,0.012214,-0.0068021,0.070408,-0.08128,-0.04364,-0.015451,0.011561,-0.016989,0.0090529
-0.00093605,0.036455,0.077333,0.02181,-4.0067e-005,0.33311,0.1049,0.00695,-0.044492,0.10357,-0.18674,0.11456,0.026483,0.061554,0.0070611,0.014396,-0.011204,0.070323,-0.11408,-0.051045,-0.020498,0.013309,-0.029242,0.0049398
-0.008185,0.040273,0.053753,0.009505,-0.0026386,0.32229,0.09693,0.00026613,-0.066573,0.095138,-0.22012,-0.020262,0.02906,0.053512,0.0083208,0.017664,-0.015725,0.074656,-0.15531,-0.055827,-0.022083,0.015759,-0.030803,0.0019022
-0.013679,0.043454,0.035591,0.00058114,-0.0055895,0.30537,0.086878,-0.0048884,-0.086077,0.089785,-0.24114,-0.16826,0.027505,0.047589,0.015617,0.020711,-0.021249,0.081289,-0.19659,-0.058568,-0.019963,0.017586,-0.023284,0.0016227
-0.018997,0.045401,0.024475,-0.0041765,-0.0096624,0.28846,0.072768,-0.0088963,-0.1029,0.084753,-0.25221,-0.32265,0.022209,0.043279,0.024864,0.022605,-0.026123,0.091135,-0.22482,-0.060027,-0.015871,0.017425,-0.012352,0.0045114
-0.025441,0.04536,0.017354,-0.0064137,-0.01486,0.27656,0.056416,-0.01215,-0.11895,0.080395,-0.25576,-0.48432,0.017179,0.039566,0.030452,0.023252,-0.027289,0.10479,-0.23115,-0.060377,-0.0121,0.015007,-0.0035826,0.0093845
-0.032095,0.04272,0.009632,-0.0083793,-0.020375,0.27051,0.042408,-0.014566,-0.13538,0.080032,-0.25384,-0.65539,0.017163,0.036592,0.029222,0.023153,-0.02273,0.12095,-0.21753,-0.058761,-0.0099837,0.011737,0.0010159,0.014181
-0.03629,0.037224,-0.00053711,-0.011017,-0.024775,0.26625,0.033835,-0.015464,-0.15057,0.087554,-0.24771,-0.82607,0.023568,0.035878,0.022846,0.022739,-0.013258,0.13686,-0.19502,-0.053702,-0.0093131,0.0099944,0.0032411,0.01737
-0.036084,0.029102,-0.010664,-0.013437,-0.026347,0.25766,0.028877,-0.013921,-0.16064,0.10481,-0.23724,-0.96405,0.032726,0.038785,0.016544,0.021963,-0.0020441,0.14906,-0.17492,-0.044167,-0.0087741,0.011394,0.006014,0.019035
-0.032268,0.019203,-0.016399,-0.013961,-0.023695,0.24119,0.021575,-0.0095158,-0.16263,0.13046,-0.22109,-1.0172,0.038355,0.044758,0.015031,0.020609,0.0079379,0.15343,-0.16001,-0.03045,-0.0068215,0.01519,0.010346,0.020722
-0.027892,0.0090368,-0.015666,-0.011688,-0.016571,0.21915,0.0063276,-0.0030239,-0.15735,0.16023,-0.19893,-0.93403,0.036444,0.051247,0.018857,0.018982,0.016406,0.14543,-0.14382,-0.014183,-0.0024493,0.018231,0.014425,0.023996
-0.025735,0.00052653,-0.010614,-0.0072792,-0.0064105,0.19898,-0.017773,0.003529,-0.15004,0.18778,-0.17427,-0.69429,0.028519,0.055586,0.024065,0.018117,0.025936,0.12186,-0.11811,0.002549,0.0042432,0.016844,0.015224,0.028819
-0.0261,-0.0046258,-0.005785,-0.0024531,0.0041291,0.18935,-0.046386,0.0077611,-0.1481,0.20547,-0.15504,-0.33161,0.020444,0.057143,0.025388,0.018982,0.039433,0.083822,-0.081943,0.01831,0.011715,0.0094452,0.010954,0.033173
-0.026883,-0.0057394,-0.0044152,0.0012237,0.01272,0.19598,-0.07343,0.0084048,-0.15773,0.20581,-0.14981,0.069296,0.017659,0.057712,0.020346,0.021248,0.057035,0.038512,-0.043791,0.032856,0.017252,-0.0021222,0.0023528,0.034429
-0.025651,-0.0036325,-0.0062985,0.0032544,0.019078,0.21994,-0.095489,0.0063623,-0.18097,0.18425,-0.16178,0.40542,0.020816,0.059736,0.011007,0.022902,0.075256,-0.0029774,-0.014844,0.046824,0.018253,-0.013702,-0.0079771,0.031523
-0.021717,-0.00035644,-0.0088003,0.0041883,0.025405,0.25885,-0.11351,0.0044278,-0.21423,0.14248,-0.18529,0.60298,0.025426,0.064001,0.0021789,0.021433,0.089289,-0.031436,0.00045864,0.060855,0.014137,-0.021623,-0.01734,0.026087
-0.01645,0.001805,-0.0095751,0.0048414,0.034889,0.30878,-0.13078,0.0056219,-0.24839,0.089963,-0.20871,0.65203,0.025696,0.068899,-0.0022868,0.015853,0.096538,-0.045355,0.0079735,0.074848,0.0074489,-0.025027,-0.024446,0.021461
-0.0119,0.0015471,-0.0082883,0.0055419,0.049126,0.36504,-0.1492,0.011166,-0.27069,0.041534,-0.22211,0.60564,0.019273,0.071874,-0.0020517,0.0077899,0.098285,-0.052266,0.01821,0.087824,0.0027609,-0.025969,-0.02984,0.020205
-0.0092056,-0.00078382,-0.0061136,0.0061054,0.066382,0.42178,-0.16717,0.019538,-0.26852,0.011368,-0.22374,0.54323,0.0090782,0.071676,0.00010115,0.00051692,0.098058,-0.064117,0.036612,0.098445,0.00358,-0.027382,-0.035426,0.02215
-0.0080955,-0.0035265,-0.0041328,0.0065316,0.082199,0.47184,-0.18047,0.02737,-0.23446,0.006493,-0.21968,0.52125,0.001005,0.069408,0.00089266,-0.0034054,0.09829,-0.089668,0.058587,0.10568,0.0094869,-0.030682,-0.043684,0.024708
-0.0075479,-0.0048626,-0.0025569,0.0076316,0.09205,0.50795,-0.18521,0.031607,-0.17056,0.023811,-0.21659,0.54312,-0.00039665,0.067486,-0.00097495,-0.0038331,0.098324,-0.12918,0.07368,0.10907,0.016078,-0.034875,-0.05691,0.025286
-0.0066694,-0.004024,-0.0013884,0.010689,0.094215,0.52462,-0.18035,0.031418,-0.089327,0.052422,-0.21401,0.56647,0.005136,0.067522,-0.0043836,-0.0025892,0.095424,-0.17483,0.074994,0.10853,0.018222,-0.037633,-0.076325,0.023747
-0.0050075,-0.0016955,-0.0014059,0.016114,0.090844,0.51979,-0.16814,0.028524,-0.0097103,0.07951,-0.20346,0.5395,0.013907,0.068913,-0.0073269,-0.001379,0.087585,-0.21605,0.065273,0.10399,0.014214,-0.037212,-0.10095,0.022673
-0.0023449,0.00067829,-0.0040488,0.022236,0.086522,0.49515,-0.1524,0.025812,0.050408,0.095936,-0.17637,0.43884,0.021113,0.069271,-0.0087113,-0.00015288,0.075399,-0.24552,0.054333,0.095602,0.0072962,-0.033699,-0.12673,0.025039
0.0014293,0.0021491,-0.010115,0.02569,0.085447,0.45566,-0.13629,0.025368,0.081729,0.098583,-0.13447,0.28325,0.023888,0.066245,-0.0088337,0.00248,0.061414,-0.26215,0.050436,0.084242,0.0030453,-0.028838,-0.14708,0.031241
0.0060401,0.0030886,-0.0186,0.023716,0.089128,0.40827,-0.12102,0.027385,0.086775,0.089381,-0.093106,0.11724,0.02256,0.05928,-0.0084164,0.0072843,0.04794,-0.26973,0.053491,0.071857,0.0046699,-0.024839,-0.15542,0.038169
0.01048,0.0049009,-0.027006,0.016764,0.095997,0.36032,-0.10631,0.030589,0.076957,0.073157,-0.072908,-0.019244,0.019737,0.050004,-0.0074589,0.012999,0.035615,-0.27356,0.055962,0.060862,0.010215,-0.023064,-0.14904,0.0413
0.01322,0.0088424,-0.03303,0.0090276,0.10292,0.31738,-0.09207,0.033615,0.065282,0.056279,-0.084755,-0.11167,0.018211,0.04108,-0.0051592,0.017102,0.023954,-0.27724,0.050272,0.052811,0.014159,-0.023356,-0.13175,0.038164
0.013124,0.014914,-0.036144,0.0058192,0.10738,0.28136,-0.079995,0.036117,0.059337,0.046145,-0.11987,-0.16991,0.019172,0.034425,-0.00092338,0.018118,0.012959,-0.28153,0.035885,0.047406,0.012103,-0.024284,-0.11274,0.030247
0.010441,0.021745,-0.037644,0.0094791,0.10882,0.24996,-0.073806,0.038742,0.058877,0.050079,-0.15374,-0.21102,0.021697,0.030067,0.0047084,0.017175,0.0038575,-0.28502,0.020006,0.042888,0.0045186,-0.024168,-0.1012,0.021744
0.0069274,0.027552,-0.039134,0.017172,0.10835,0.21807,-0.077623,0.042104,0.059047,0.072725,-0.16202,-0.24244,0.023675,0.026359,0.010323,0.017103,-0.0018909,-0.28597,0.011734,0.037684,-0.0036984,-0.022315,-0.09996,0.016325
0.0047613,0.031346,-0.040899,0.022785,0.10716,0.18014,-0.093097,0.045759,0.056157,0.11296,-0.13664,-0.25805,0.023371,0.021312,0.014929,0.019752,-0.0042379,-0.28433,0.014985,0.031956,-0.0074846,-0.019654,-0.10278,0.01469
0.0050016,0.033374,-0.041706,0.021742,0.10503,0.13243,-0.11704,0.048131,0.05127,0.16257,-0.089788,-0.2471,0.02054,0.014113,0.018935,0.024055,-0.0050111,-0.28276,0.025951,0.027571,-0.0059559,-0.018151,-0.098051,0.014829
0.006831,0.034494,-0.040166,0.014799,0.10032,0.074227,-0.14158,0.047593,0.048933,0.20826,-0.043407,-0.20606,0.016336,0.0057926,0.02363,0.026797,-0.006522,-0.28579,0.036513,0.026392,-0.0030736,-0.019254,-0.076908,0.014387
0.0082867,0.035172,-0.036271,0.0075001,0.091496,0.0086418,-0.15753,0.043866,0.052545,0.23624,-0.013177,-0.14372,0.012217,-0.001385,0.029424,0.025523,-0.0095242,-0.29705,0.040179,0.028351,-0.0040826,-0.022544,-0.039915,0.012736
0.0079023,0.035101,-0.031538,0.0055694,0.079103,-0.057098,-0.15966,0.038516,0.060595,0.23714,-0.00011032,-0.077261,0.0088465,-0.0054251,0.034559,0.020949,-0.012468,-0.31647,0.035753,0.031075,-0.010845,-0.025832,0.0028406,0.010957
0.0058785,0.033863,-0.027616,0.01015,0.066304,-0.1126,-0.15022,0.033957,0.067053,0.20894,0.0048072,-0.024549,0.0058798,-0.0060063,0.035876,0.016563,-0.012862,-0.33968,0.026595,0.031523,-0.020075,-0.026767,0.038458,0.010127
0.0038091,0.031955,-0.024789,0.016951,0.05725,-0.14771,-0.13802,0.031601,0.065524,0.15714,0.0090509,0.0016307,0.0026599,-0.0048126,0.031419,0.015684,-0.0096303,-0.36043,0.017046,0.028294,-0.025896,-0.024626,0.059638,0.0099155
0.0032662,0.031036,-0.02201,0.019961,0.054354,-0.15763,-0.13278,0.030673,0.053662,0.092759,0.011537,-0.0045791,-0.0010185,-0.004509,0.022712,0.018608,-0.0044129,-0.37454,0.0093299,0.022612,-0.024401,-0.020638,0.068462,0.0090269
0.0045031,0.03286,-0.018437,0.016395,0.056629,-0.14643,-0.13842,0.028841,0.034369,0.028978,0.0061073,-0.042093,-0.0048135,-0.007011,0.014448,0.022446,-0.00067929,-0.38194,0.0029828,0.01717,-0.016373,-0.016553,0.073142,0.0069245
0.0063085,0.037608,-0.014765,0.0086204,0.060456,-0.12555,-0.15019,0.024344,0.013223,-0.022774,-0.0092006,-0.10284,-0.0083088,-0.012235,0.011366,0.023836,-0.0013819,-0.38523,-0.0035316,0.013848,-0.0061664,-0.012853,0.080999,0.0048777
0.0069545,0.043145,-0.012721,0.0016982,0.062141,-0.10704,-0.15813,0.017885,-0.0053633,-0.056283,-0.027286,-0.17251,-0.011315,-0.018214,0.014716,0.022028,-0.0070221,-0.38625,-0.010918,0.012284,0.0018421,-0.0083975,0.093519,0.0050059
0.0053138,0.046144,-0.013002,-0.0010001,0.06024,-0.095913,-0.15426,0.012582,-0.020152,-0.072159,-0.036972,-0.23413,-0.013589,-0.022472,0.021362,0.019514,-0.015493,-0.38412,-0.018388,0.010517,0.0059834,-0.001927,0.10686,0.0081074
0.0013292,0.044523,-0.013859,-0.0001813,0.055977,-0.087355,-0.13818,0.011802,-0.032181,-0.07647,-0.033212,-0.27444,-0.014421,-0.023684,0.026453,0.019609,-0.02352,-0.37691,-0.024381,0.0071085,0.0071861,0.0060447,0.11624,0.01246
-0.0042194,0.039289,-0.012178,0.00074297,0.051865,-0.071062,-0.11655,0.016604,-0.042451,-0.076993,-0.022532,-0.28965,-0.012881,-0.022448,0.027481,0.023232,-0.028406,-0.36548,-0.02773,0.0028582,0.0068574,0.012885,0.11988,0.014999
-0.010179,0.034165,-0.0064151,-0.00085875,0.049973,-0.039192,-0.097431,0.024937,-0.050575,-0.07946,-0.018232,-0.28642,-0.0088003,-0.020747,0.026205,0.027859,-0.028925,-0.35518,-0.028317,0.00054206,0.005221,0.015593,0.11931,0.013993
-0.015373,0.033001,0.0014755,-0.0045111,0.051159,0.0082354,-0.084245,0.033293,-0.055392,-0.086271,-0.029691,-0.27696,-0.003569,-0.02051,0.026802,0.029666,-0.025252,-0.3529,-0.026913,0.0027603,0.0016136,0.013242,0.1171,0.010768
-0.018893,0.036857,0.0074446,-0.0073341,0.055346,0.064299,-0.074692,0.039388,-0.056562,-0.097989,-0.055537,-0.27127,0.00028599,-0.022203,0.031926,0.026927,-0.018544,-0.36124,-0.024585,0.0095959,-0.0040424,0.0079953,0.11475,0.0087453
-0.0204,0.043014,0.0092702,-0.0068037,0.062012,0.12082,-0.065039,0.043557,-0.055306,-0.11526,-0.086268,-0.27197,0.00072699,-0.024293,0.040206,0.021585,-0.010644,-0.37499,-0.022085,0.018027,-0.010482,0.0037842,0.11289,0.010457
-0.020225,0.046771,0.0093667,-0.0029479,0.070263,0.17361,-0.055385,0.047743,-0.05349,-0.13839,-0.11267,-0.27473,-0.0021626,-0.023977,0.04731,0.017595,-0.0038008,-0.38373,-0.019422,0.023696,-0.015894,0.0036267,0.11274,0.015116
-0.018946,0.044679,0.013359,0.0018617,0.078673,0.22354,-0.050564,0.05315,-0.051968,-0.16442,-0.13129,-0.27348,-0.0059056,-0.018978,0.049511,0.017568,-1.5853e-005,-0.37914,-0.01568,0.023782,-0.019263,0.0076489,0.11677,0.018948
-0.016628,0.036757,0.025052,0.0051155,0.085463,0.27357,-0.055521,0.058801,-0.04989,-0.18484,-0.14229,-0.26623,-0.0070579,-0.0094801,0.046545,0.020691,-0.00011549,-0.36083,-0.0092357,0.018867,-0.020752,0.013212,0.1277,0.018158
-0.012496,0.026131,0.042115,0.0063291,0.089175,0.32505,-0.06935,0.062361,-0.04569,-0.18767,-0.14349,-0.25721,-0.0034053,0.0011486,0.041456,0.023644,-0.0032112,-0.33586,0.0014224,0.012398,-0.020882,0.016913,0.14706,0.01209
-0.0056894,0.016638,0.056731,0.0073556,0.089405,0.37595,-0.083826,0.062449,-0.038775,-0.16396,-0.12868,-0.25365,0.0044904,0.0078115,0.037914,0.023469,-0.0071989,-0.31231,0.016474,0.0081628,-0.019723,0.016896,0.17481,0.0039429
0.0032623,0.010476,0.06132,0.010696,0.087088,0.42145,-0.088424,0.060289,-0.030128,-0.11456,-0.093531,-0.25921,0.013348,0.0067972,0.03757,0.019765,-0.010162,-0.293,0.033895,0.0075637,-0.017149,0.013838,0.2097,-0.0016173
0.011627,0.0076749,0.054748,0.01724,0.084183,0.45565,-0.077946,0.05916,-0.021101,-0.051202,-0.043774,-0.26865,0.018848,-0.0015089,0.039523,0.014511,-0.011705,-0.27519,0.049837,0.0086212,-0.013764,0.010019,0.24892,-0.0020055
0.015519,0.0073147,0.043559,0.025175,0.082997,0.47365,-0.056346,0.062092,-0.011595,0.0098536,0.0034263,-0.26797,0.018123,-0.012531,0.041782,0.010121,-0.013186,-0.25637,0.060439,0.0073905,-0.011052,0.0073395,0.28651,0.0014455
0.012497,0.008863,0.036847,0.030853,0.085393,0.47395,-0.033413,0.069808,0.00036134,0.057587,0.028487,-0.24107,0.011697,-0.020411,0.042948,0.007761,-0.016646,-0.24036,0.064098,0.00086093,-0.010162,0.0058223,0.31246,0.0048374
0.0038218,0.012141,0.038903,0.030991,0.092051,0.4607,-0.017086,0.080551,0.016831,0.09197,0.022691,-0.17985,0.0035676,-0.021823,0.042653,0.0072254,-0.02328,-0.23735,0.06256,-0.010613,-0.010474,0.0037811,0.31513,0.0051041
-0.0056673,0.016147,0.04582,0.024806,0.10212,0.44426,-0.0078218,0.091709,0.037435,0.12146,-0.0050891,-0.0913,-0.0010586,-0.017705,0.040912,0.0078782,-0.032593,-0.25695,0.059871,-0.023055,-0.0097532,-0.00046045,0.28709,0.0026538
-0.010365,0.018461,0.0489,0.014765,0.11364,0.43827,0.00046767,0.10165,0.05849,0.15449,-0.034126,0.003705,0.0007376,-0.011671,0.037535,0.0092687,-0.042771,-0.30004,0.059773,-0.031113,-0.0062123,-0.0066163,0.23034,0.001079
-0.0075542,0.016576,0.041858,0.0054647,0.12482,0.4544,0.01408,0.11028,0.074859,0.19201,-0.045705,0.080337,0.0072598,-0.0067116,0.0323,0.010846,-0.051841,-0.35646,0.063409,-0.031455,-0.00066807,-0.011817,0.15646,0.0041602
0.00074813,0.010343,0.025681,0.001185,0.13525,0.4977,0.033508,0.11824,0.083044,0.227,-0.034333,0.12266,0.013098,-0.0031615,0.025479,0.011553,-0.058754,-0.4108,0.069037,-0.025006,0.003512,-0.011923,0.0806,0.012592
0.0090888,0.0030568,0.0072832,0.0034553,0.14619,0.56614,0.052958,0.12602,0.082826,0.25067,-0.0082583,0.13084,0.013048,0.00049977,0.017951,0.010278,-0.063792,-0.45205,0.073913,-0.016404,0.0030309,-0.0039251,0.013631,0.023095
0.012093,-0.0005833,-0.0064769,0.010127,0.15928,0.654,0.065705,0.13386,0.076165,0.25995,0.019631,0.11776,0.0062042,0.0052007,0.010754,0.0069933,-0.068288,-0.47968,0.076784,-0.010944,-0.002351,0.012204,-0.041423,0.030636
0.0077849,0.001572,-0.014089,0.0167,0.17468,0.75537,0.070493,0.14231,0.064692,0.2599,0.042088,0.098141,-0.0031674,0.0098044,0.0045881,0.003272,-0.073912,-0.50219,0.078908,-0.011167,-0.0092519,0.033373,-0.086476,0.031978
-0.0013548,0.0067454,-0.019765,0.019236,0.19018,0.86409,0.073244,0.15233,0.048398,0.25959,0.060802,0.078685,-0.008924,0.012027,-0.00024701,0.0013068,-0.081757,-0.52964,0.082699,-0.015588,-0.013215,0.054831,-0.12255,0.027778
-0.010062,0.0090744,-0.029214,0.016963,0.202,0.9701,0.082312,0.16432,0.026748,0.265,0.081323,0.056869,-0.0078643,0.010687,-0.0036732,0.0021118,-0.091451,-0.56605,0.089102,-0.020421,-0.012214,0.072109,-0.14701,0.021687
-0.013491,0.0045788,-0.044916,0.012618,0.20698,1.0568,0.10107,0.17687,0.00085656,0.27464,0.10523,0.02817,-0.0019795,0.0069823,-0.0058155,0.0046438,-0.10082,-0.6067,0.095997,-0.022792,-0.0080838,0.082331,-0.15645,0.017403
-0.010027,-0.0050088,-0.064784,0.010146,0.20421,1.1036,0.12404,0.1866,-0.025809,0.28064,0.12655,-0.0056493,0.0037522,0.0035908,-0.007151,0.006792,-0.1067,-0.64136,0.099282,-0.022809,-0.0047659,0.084543,-0.1518,0.016119
-0.0021383,-0.013202,-0.084678,0.01144,0.19518,1.0942,0.14016,0.18977,-0.049217,0.2737,0.1351,-0.03499,0.0059448,0.0026069,-0.0084145,0.0073436,-0.10686,-0.66073,0.0961,-0.022892,-0.005045,0.07941,-0.13997,0.016289
0.0052064,-0.013996,-0.10195,0.014792,0.18234,1.0244,0.14078,0.1847,-0.067418,0.24814,0.12334,-0.048772,0.0055975,0.0043154,-0.010095,0.0070192,-0.102,-0.66185,0.087641,-0.025127,-0.008601,0.068708,-0.12958,0.01555
0.0076648,-0.0069433,-0.11687,0.016469,0.16741,0.90434,0.12624,0.17292,-0.081356,0.20444,0.091425,-0.04249,0.0066955,0.0077561,-0.011978,0.0075921,-0.096018,-0.64932,0.078964,-0.029096,-0.012729,0.054772,-0.12439,0.012928
0.0043319,0.0023919,-0.1312,0.014166,0.15045,0.75309,0.10557,0.15817,-0.092931,0.14881,0.047094,-0.02065,0.012095,0.012117,-0.013299,0.0099842,-0.093904,-0.6322,0.075491,-0.032117,-0.014664,0.039893,-0.12055,0.0094776
-0.0016201,0.0069857,-0.1458,0.0093132,0.13024,0.58851,0.08956,0.1437,-0.10223,0.091023,0.001696,0.0079768,0.020539,0.017258,-0.013427,0.013197,-0.098213,-0.61853,0.07875,-0.031633,-0.013338,0.025859,-0.11077,0.0070441
-0.0050425,0.0039745,-0.15942,0.00604,0.10557,0.4204,0.082648,0.13014,-0.10681,0.041275,-0.034353,0.03711,0.027436,0.022807,-0.012317,0.015074,-0.10689,-0.61106,0.084839,-0.027569,-0.0094246,0.01388,-0.09187,0.0064834
-0.0023431,-0.0033832,-0.16953,0.007551,0.076638,0.25041,0.080168,0.11541,-0.1039,0.0063898,-0.054185,0.065324,0.028534,0.027018,-0.010194,0.014152,-0.11434,-0.60652,0.087104,-0.022525,-0.0042552,0.0048973,-0.069002,0.0069998
0.0059994,-0.0087715,-0.17384,0.013104,0.045759,0.077725,0.072895,0.096763,-0.093338,-0.013538,-0.05512,0.092622,0.023195,0.02707,-0.0069157,0.010938,-0.11539,-0.59877,0.08104,-0.019622,0.0010146,-0.00020578,-0.052742,0.0071007
0.015777,-0.0079978,-0.17141,0.01841,0.01684,-0.094533,0.05506,0.073522,-0.078203,-0.025771,-0.038531,0.11569,0.01459,0.021145,-0.0019459,0.0075661,-0.10911,-0.58345,0.067536,-0.019918,0.0054489,-0.0009524,-0.051274,0.0061491
0.022009,-0.0019231,-0.16251,0.01922,-0.0064299,-0.25732,0.029199,0.048224,-0.062284,-0.041053,-0.0094998,0.1273,0.0069791,0.010625,0.0047434,0.0062229,-0.099643,-0.56082,0.051965,-0.021647,0.0081528,0.0019366,-0.064316,0.0049761
0.022317,0.00491,-0.14823,0.014947,-0.022811,-0.39956,0.004047,0.025428,-0.046892,-0.066531,0.0243,0.1207,0.0026259,0.00022451,0.011771,0.0076221,-0.093098,-0.53478,0.040099,-0.021837,0.0086065,0.0061003,-0.083722,0.0049297
0.018243,0.0082821,-0.13019,0.0090734,-0.034661,-0.51467,-0.012506,0.0089178,-0.030291,-0.10025,0.055005,0.095056,0.00080546,-0.0046246,0.016687,0.0106,-0.092993,-0.50911,0.034337,-0.01881,0.0073499,0.0081763,-0.09995,0.0062576
0.013692,0.0073957,-0.11053,0.0060597,-0.046789,-0.60475,-0.01942,-0.00066411,-0.010522,-0.132,0.077448,0.057008,-0.00074378,-0.0013918,0.017678,0.012963,-0.097614,-0.48383,0.033087,-0.013424,0.0060687,0.0053864,-0.10876,0.0074382
0.011937,0.0047796,-0.091711,0.0076109,-0.063321,-0.67913,-0.022701,-0.0060681,0.011086,-0.15072,0.090739,0.017572,-0.0036245,0.0077464,0.015252,0.012907,-0.10134,-0.45472,0.033182,-0.0082052,0.0064938,-0.0029702,-0.11283,0.0062959
0.013523,0.0036048,-0.075847,0.011579,-0.084656,-0.74827,-0.030128,-0.01148,0.029285,-0.15299,0.097416,-0.012149,-0.0077932,0.017458,0.012257,0.010088,-0.098907,-0.41618,0.03269,-0.0053981,0.0087688,-0.015202,-0.11759,0.0021225
0.016479,0.0049877,-0.064128,0.014185,-0.10699,-0.81752,-0.045348,-0.019918,0.038103,-0.14556,0.10087,-0.022848,-0.012244,0.023028,0.011958,0.0057505,-0.08936,-0.36511,0.031706,-0.0056653,0.010773,-0.028277,-0.1253,-0.0029877
0.018207,0.0074477,-0.056613,0.013217,-0.12513,-0.88542,-0.066282,-0.03192,0.035292,-0.13967,0.10313,-0.0063282,-0.016224,0.023437,0.015679,0.0018721,-0.076956,-0.30272,0.031007,-0.008267,0.0093336,-0.039416,-0.13252,-0.0048259
0.017298,0.0085949,-0.052616,0.0093016,-0.13679,-0.94725,-0.088603,-0.046298,0.024368,-0.14213,0.10457,0.04474,-0.019631,0.021449,0.02185,-0.00010993,-0.068352,-0.23342,0.030507,-0.01212,0.0026585,-0.047135,-0.13259,0.00062405
0.014007,0.0072639,-0.051285,0.0045435,-0.14481,-1.0008,-0.11054,-0.061936,0.012863,-0.15076,0.10537,0.13412,-0.022404,0.020847,0.027131,-0.00016861,-0.068199,-0.16214,0.029271,-0.016542,-0.0078745,-0.051239,-0.1207,0.014947
0.0095357,0.0042001,-0.051936,0.00038622,-0.15534,-1.0489,-0.13447,-0.07885,0.0084474,-0.1581,0.10709,0.25731,-0.023931,0.023181,0.028533,0.00044966,-0.076123,-0.09256,0.026866,-0.021152,-0.018123,-0.052109,-0.097358,0.036633
0.0052384,0.00093415,-0.054007,-0.0030727,-0.17288,-1.0973,-0.164,-0.097584,0.015701,-0.15935,0.11274,0.39847,-0.023433,0.026605,0.024948,0.00025983,-0.087014,-0.026963,0.024317,-0.025373,-0.023634,-0.049946,-0.067763,0.062146
0.0024189,-0.0018197,-0.056807,-0.0059949,-0.19574,-1.1485,-0.19969,-0.11771,0.034834,-0.15714,0.12503,0.53168,-0.021051,0.027571,0.017267,-0.0013354,-0.094232,0.033245,0.023368,-0.028322,-0.022368,-0.044493,-0.038299,0.087631
0.0024217,-0.0045859,-0.059345,-0.007623,-0.21557,-1.1985,-0.23747,-0.13718,0.061916,-0.15904,0.1441,0.6266,-0.018387,0.023904,0.0075123,-0.0037358,-0.093542,0.08783,0.024678,-0.029291,-0.015666,-0.035351,-0.013116,0.11011
0.0062767,-0.0080158,-0.060418,-0.0066379,-0.22186,-1.2379,-0.27146,-0.15344,0.089848,-0.17082,0.16641,0.65616,-0.017574,0.016762,-0.0021564,-0.0058776,-0.0853,0.13855,0.026836,-0.028325,-0.0068858,-0.022655,0.0067978,0.12788
0.013814,-0.011535,-0.058987,-0.0027687,-0.20869,-1.2581,-0.29859,-0.16553,0.11028,-0.1924,0.186,0.60448,-0.019506,0.0099253,-0.010049,-0.0073032,-0.073768,0.18889,0.027373,-0.026327,0.0010593,-0.0077206,0.022187,0.14072
0.023067,-0.013367,-0.054673,0.0022305,-0.17942,-1.2569,-0.32093,-0.17514,0.11691,-0.22012,0.19786,0.47341,-0.022856,0.0068868,-0.015216,-0.0085162,-0.064261,0.24166,0.024925,-0.02463,0.0072353,0.0068623,0.033697,0.15004
0.030858,-0.012166,-0.048059,0.0056115,-0.14589,-1.2399,-0.34387,-0.18559,0.10912,-0.25255,0.20127,0.28582,-0.025007,0.0079258,-0.017548,-0.010216,-0.060037,0.29604,0.020516,-0.024419,0.012231,0.017996,0.041405,0.15874
0.034479,-0.0087173,-0.040504,0.0059339,-0.1223,-1.2169,-0.37164,-0.19919,0.093466,-0.29323,0.20094,0.082253,-0.024244,0.0094468,-0.017645,-0.012126,-0.060734,0.34688,0.016737,-0.026403,0.016441,0.02349,0.045749,0.16977
0.033297,-0.0058371,-0.033429,0.0044049,-0.1171,-1.1953,-0.4038,-0.21528,0.080899,-0.34692,0.2043,-0.090756,-0.021271,0.0063003,-0.016394,-0.012655,-0.063085,0.38804,0.015699,-0.030691,0.018875,0.023302,0.048469,0.18359
0.028956,-0.0062057,-0.02744,0.0037879,-0.12799,-1.176,-0.43521,-0.23045,0.080513,-0.41247,0.21652,-0.19814,-0.018618,-0.0044589,-0.014433,-0.009997,-0.06327,0.41755,0.017802,-0.036691,0.017654,0.019702,0.05229,0.19616
0.023964,-0.0099106,-0.021887,0.0057355,-0.14308,-1.154,-0.45921,-0.24078,0.09388,-0.4794,0.23656,-0.23086,-0.018425,-0.021173,-0.011909,-0.0039117,-0.059357,0.44046,0.022553,-0.043028,0.011708,0.016059,0.059488,0.19981
0.01975,-0.013967,-0.015281,0.0090191,-0.1478,-1.1225,-0.47152,-0.24426,0.11418,-0.53244,0.25774,-0.20833,-0.020588,-0.038483,-0.0087575,0.0033786,-0.052344,0.46639,0.030551,-0.047775,0.0020144,0.014956,0.070607,0.1876
0.0158,-0.014429,-0.0063881,0.010401,-0.13347,-1.0772,-0.47242,-0.24162,0.1311,-0.56143,0.27287,-0.16565,-0.022928,-0.050978,-0.0052882,0.0081686,-0.045188,0.50342,0.044455,-0.049176,-0.0087915,0.016807,0.08437,0.15873
0.010608,-0.0094147,0.004655,0.0074792,-0.10211,-1.0177,-0.4661,-0.23506,0.13797,-0.56869,0.2802,-0.13274,-0.02319,-0.056815,-0.0026127,0.0075859,-0.040545,0.55324,0.067608,-0.046581,-0.018081,0.01983,0.098581,0.1206
0.0036849,-0.0005605,0.016033,0.0010066,-0.064736,-0.94574,-0.45792,-0.22636,0.13592,-0.56745,0.28514,-0.11881,-0.021,-0.058505,-0.0025591,0.001519,-0.038858,0.61097,0.10113,-0.040933,-0.024659,0.021318,0.11094,0.08481
-0.0031085,0.008198,0.025082,-0.0054153,-0.034347,-0.86266,-0.45127,-0.21581,0.13214,-0.57195,0.29591,-0.11218,-0.01805,-0.060396,-0.0070604,-0.007318,-0.038239,0.66925,0.14184,-0.034355,-0.028831,0.019373,0.11912,0.059008
-0.0062233,0.013365,0.029867,-0.0080601,-0.018515,-0.76885,-0.44595,-0.2029,0.13393,-0.58683,0.31639,-0.094718,-0.016504,-0.065085,-0.01722,-0.015191,-0.036205,0.72226,0.1828,-0.029036,-0.031378,0.014109,0.12069,0.040834
-0.0028806,0.013894,0.030501,-0.0059593,-0.016223,-0.66648,-0.43895,-0.18765,0.14346,-0.60397,0.34219,-0.059189,-0.017251,-0.07174,-0.032396,-0.019627,-0.031883,0.76628,0.21621,-0.026208,-0.032611,0.0076534,0.11374,0.019328
0.0064396,0.011129,0.029215,-0.0015817,-0.020396,-0.56294,-0.42718,-0.17146,0.15705,-0.6092,0.36364,-0.01637,-0.019579,-0.077449,-0.049812,-0.02057,-0.026828,0.79715,0.2366,-0.025896,-0.032308,0.0028958,0.09839,-0.016336
0.017521,0.007236,0.028942,0.0011658,-0.023568,-0.47121,-0.41023,-0.15644,0.16909,-0.5933,0.37337,0.013378,-0.022282,-0.079988,-0.065225,-0.019853,-0.023761,0.80848,0.24224,-0.027492,-0.03021,0.0016003,0.077633,-0.067293
0.024677,0.0037162,0.031242,-7.3094e-005,-0.022459,-0.40506,-0.39097,-0.14409,0.17684,-0.55846,0.37219,0.016793,-0.024843,-0.07946,-0.074734,-0.019682,-0.024254,0.79335,0.23443,-0.030445,-0.026269,0.0030385,0.056301,-0.12244
0.02442,0.0010804,0.03504,-0.0044867,-0.018799,-0.37102,-0.37333,-0.13445,0.18201,-0.51541,0.36842,-0.00093099,-0.02747,-0.07766,-0.076866,-0.021282,-0.027307,0.74884,0.21574,-0.034376,-0.020388,0.0042563,0.038396,-0.16536
0.017942,-0.00058502,0.037246,-0.0089668,-0.016753,-0.36277,-0.35865,-0.12644,0.18811,-0.47447,0.3712,-0.019354,-0.030157,-0.076327,-0.073447,-0.024447,-0.029959,0.67947,0.1889,-0.038551,-0.012238,0.0021537,0.02495,-0.18568
0.010473,-0.0010835,0.035002,-0.01059,-0.019426,-0.36287,-0.34392,-0.11916,0.19614,-0.43859,0.38339,-0.01813,-0.032084,-0.076161,-0.068298,-0.027938,-0.029382,0.59663,0.15677,-0.041468,-0.0017656,-0.0039073,0.014402,-0.18602
0.0077438,-7.0218e-005,0.028005,-0.0086905,-0.026883,-0.35177,-0.32343,-0.11267,0.20247,-0.40407,0.39958,0.0076085,-0.032202,-0.077235,-0.064486,-0.030249,-0.024771,0.51403,0.12276,-0.041391,0.0098629,-0.011061,0.0051629,-0.17984
0.012022,0.0028312,0.019143,-0.0050333,-0.03652,-0.31872,-0.29331,-0.10768,0.20106,-0.36747,0.41038,0.043833,-0.030492,-0.079686,-0.06221,-0.030301,-0.017648,0.44266,0.090628,-0.037776,0.019927,-0.014666,-0.0021789,-0.18222
0.020604,0.0082112,0.012839,-0.0021594,-0.045108,-0.26685,-0.25523,-0.10444,0.18809,-0.33134,0.40919,0.068515,-0.028479,-0.083504,-0.059108,-0.02782,-0.0106,0.38831,0.063208,-0.032414,0.025191,-0.011787,-0.0054134,-0.20115
0.027912,0.017179,0.012218,-0.0013729,-0.051099,-0.20882,-0.21611,-0.10206,0.16529,-0.30308,0.39633,0.067971,-0.028197,-0.087635,-0.052717,-0.023319,-0.0055705,0.35249,0.041036,-0.028906,0.023897,-0.0037091,-0.0036796,-0.23517
0.029654,0.031138,0.017096,-0.0019478,-0.05589,-0.15646,-0.18366,-0.098988,0.13924,-0.28764,0.37814,0.045962,-0.030281,-0.089902,-0.042955,-0.017785,-0.002915,0.33485,0.021885,-0.030283,0.017272,0.0047152,0.00010134,-0.27773
0.025906,0.050778,0.024201,-0.0020545,-0.063274,-0.11221,-0.16096,-0.094352,0.11702,-0.28154,0.3624,0.01927,-0.03284,-0.088475,-0.032476,-0.012254,-0.001635,0.33475,0.0018106,-0.03639,0.0092323,0.0085141,0.00010764,-0.32356
0.020847,0.074889,0.029352,-0.00050478,-0.07719,-0.068865,-0.14443,-0.088821,0.10152,-0.27433,0.35373,0.0043984,-0.032264,-0.083749,-0.024672,-0.0075627,-0.00037271,0.35065,-0.022833,-0.043381,0.0041871,0.0060972,-0.0084486,-0.37193
0.019436,0.10002,0.029932,0.0021787,-0.098891,-0.017103,-0.12694,-0.084242,0.089961,-0.25725,0.35146,0.0064132,-0.025597,-0.078431,-0.021184,-0.0043244,0.0015624,0.37828,-0.053515,-0.046253,0.0042861,2.2322e-005,-0.025623,-0.42488
0.023633,0.12135,0.025987,0.0042276,-0.12534,0.045793,-0.10382,-0.08225,0.076517,-0.23131,0.35076,0.017987,-0.012873,-0.075125,-0.021,-0.0029718,0.0036987,0.40953,-0.088702,-0.042779,0.0079779,-0.0053949,-0.046606,-0.48244
0.031027,0.13435,0.019509,0.0041627,-0.15018,0.11278,-0.076903,-0.083063,0.057099,-0.20752,0.34588,0.027696,0.0022646,-0.073319,-0.021681,-0.0035801,0.0046865,0.43349,-0.12438,-0.035571,0.010995,-0.0074599,-0.065402,-0.53865
0.036764,0.13627,0.01283,0.002043,-0.16712,0.17121,-0.053574,-0.085442,0.032564,-0.19843,0.33355,0.029573,0.014237,-0.068817,-0.021393,-0.0055188,0.0032725,0.44003,-0.1556,-0.030209,0.0092681,-0.0067287,-0.079146,-0.58151
0.037156,0.12699,0.0074747,-0.0006403,-0.17361,0.20998,-0.041339,-0.087679,0.0079742,-0.20832,0.31504,0.026298,0.018596,-0.056748,-0.020003,-0.0073626,-0.0005344,0.42388,-0.17847,-0.030628,0.0018554,-0.005899,-0.089411,-0.59706
0.032225,0.10913,0.0039913,-0.0022821,-0.1724,0.22406,-0.042138,-0.088611,-0.01147,-0.23025,0.2958,0.024988,0.014679,-0.03598,-0.018665,-0.007496,-0.0049233,0.3866,-0.19169,-0.035515,-0.0081981,-0.0072639,-0.099565,-0.57582
0.02542,0.087395,0.0023199,-0.0024849,-0.16967,0.21423,-0.050755,-0.087788,-0.024533,-0.25208,0.28285,0.030773,0.006161,-0.011126,-0.018621,-0.0052446,-0.0070036,0.33444,-0.19686,-0.038961,-0.015819,-0.010885,-0.11078,-0.518
0.020952,0.067042,0.0020337,-0.0022183,-0.17109,0.18434,-0.058564,-0.084954,-0.034701,-0.26551,0.28095,0.044072,-0.0010653,0.0098121,-0.020322,-0.0016651,-0.0045729,0.2731,-0.19741,-0.035033,-0.017362,-0.014658,-0.12036,-0.43435
0.020834,0.051749,0.0024178,-0.0027519,-0.17837,0.13955,-0.059759,-0.079732,-0.046846,-0.27008,0.28989,0.062831,-0.0025538,0.020433,-0.023312,0.00088778,0.0022706,0.20321,-0.19664,-0.022573,-0.013042,-0.015815,-0.12382,-0.34175
0.023663,0.041875,0.002842,-0.00444,-0.1887,0.086227,-0.055234,-0.072136,-0.062549,-0.26967,0.30439,0.086185,0.0017668,0.019582,-0.026551,0.00036273,0.01103,0.12037,-0.19608,-0.0062329,-0.006506,-0.012597,-0.11889,-0.25567
0.025786,0.034506,0.0034891,-0.0065266,-0.19723,0.031649,-0.051088,-0.063485,-0.078097,-0.26605,0.31672,0.11547,0.0075234,0.010947,-0.028768,-0.0034077,0.018502,0.020178,-0.19519,0.0070438,-0.0019533,-0.0051332,-0.10779,-0.18373
0.023822,0.025675,0.005664,-0.0081036,-0.20076,-0.018037,-0.053042,-0.056577,-0.087036,-0.25634,0.32048,0.15228,0.0089924,-0.00059017,-0.02881,-0.0085309,0.022991,-0.0954,-0.19226,0.013066,-0.0011337,0.0046827,-0.095997,-0.12386
0.01686,0.013381,0.010855,-0.0091852,-0.1998,-0.060304,-0.061483,-0.054517,-0.08523,-0.23677,0.31292,0.19688,0.0033401,-0.012487,-0.026134,-0.012533,0.025205,-0.2156,-0.18589,0.012902,-0.0025393,0.014061,-0.088405,-0.068062
0.007022,-0.00090695,0.018929,-0.010735,-0.1978,-0.096305,-0.071421,-0.058854,-0.074133,-0.2084,0.29487,0.24948,-0.007071,-0.025205,-0.021302,-0.01425,0.027065,-0.32472,-0.17596,0.011245,-0.0031646,0.020576,-0.086225,-0.0089249
-0.001798,-0.013547,0.027182,-0.013544,-0.19833,-0.12756,-0.077384,-0.068563,-0.059614,-0.1787,0.26886,0.31293,-0.016134,-0.040072,-0.016004,-0.014466,0.029535,-0.40973,-0.16388,0.012506,-0.0010683,0.023341,-0.086961,0.055229
-0.0061965,-0.021757,0.031701,-0.017066,-0.20236,-0.15196,-0.078737,-0.080806,-0.047637,-0.15711,0.23745,0.39226,-0.018244,-0.056781,-0.01231,-0.014804,0.031501,-0.46631,-0.15213,0.017912,0.0034449,0.023487,-0.087317,0.11945
-0.0051885,-0.025769,0.030461,-0.0195,-0.20774,-0.16336,-0.080348,-0.092902,-0.040719,-0.14887,0.20307,0.48829,-0.01223,-0.07281,-0.011468,-0.015969,0.030791,-0.4999,-0.14336,0.025383,0.0086888,0.023429,-0.086388,0.17552
-0.00068199,-0.028276,0.025509,-0.019208,-0.21105,-0.15574,-0.087665,-0.10379,-0.037961,-0.15297,0.16895,0.58876,-0.0020916,-0.085001,-0.013092,-0.01704,0.026369,-0.52174,-0.13936,0.031384,0.013269,0.025183,-0.086429,0.21678
0.00376,-0.031842,0.021924,-0.016284,-0.21006,-0.12869,-0.10055,-0.1137,-0.037823,-0.16585,0.13948,0.66455,0.0058973,-0.091635,-0.01541,-0.016417,0.019561,-0.54342,-0.14028,0.032902,0.016852,0.028787,-0.090695,0.24121
0.0050766,-0.036748,0.023954,-0.01275,-0.20479,-0.088589,-0.11159,-0.12241,-0.040394,-0.18675,0.11901,0.67718,0.007496,-0.093306,-0.016432,-0.013481,0.012941,-0.57259,-0.14467,0.028536,0.019504,0.032111,-0.10037,0.25113
0.0024012,-0.041187,0.03153,-0.011071,-0.19625,-0.043542,-0.11071,-0.12787,-0.046906,-0.21901,0.1096,0.59624,0.0030976,-0.092226,-0.015205,-0.0093944,0.0077082,-0.61084,-0.15047,0.018913,0.02063,0.032349,-0.11338,0.25036
-0.0027675,-0.043342,0.040299,-0.012195,-0.18397,0.0041792,-0.0921,-0.12677,-0.05741,-0.26553,0.1096,0.41788,-0.0030389,-0.090833,-0.012268,-0.0063838,0.0019467,-0.65343,-0.1563,0.0067221,0.018844,0.028184,-0.12617,0.2416
-0.0078984,-0.04311,0.045247,-0.014841,-0.16481,0.061501,-0.057776,-0.11674,-0.069425,-0.32286,0.11421,0.17322,-0.0060658,-0.090711,-0.0090601,-0.0061699,-0.0083802,-0.69081,-0.16163,-0.0040992,0.013065,0.020958,-0.13675,0.22605
-0.011215,-0.041804,0.044707,-0.016695,-0.13429,0.13998,-0.014979,-0.098455,-0.07924,-0.37969,0.1178,-0.080228,-0.0038103,-0.092235,-0.0068279,-0.0088626,-0.026149,-0.71238,-0.16599,-0.010447,0.0037969,0.013897,-0.14629,0.20526
-0.012665,-0.040394,0.041214,-0.016507,-0.089881,0.24614,0.029705,-0.075443,-0.084692,-0.42211,0.11638,-0.28171,0.0021941,-0.094827,-0.0058295,-0.013049,-0.050108,-0.71177,-0.16792,-0.012489,-0.006648,0.0099665,-0.15759,0.1831
-0.013524,-0.038366,0.038658,-0.015223,-0.03383,0.37381,0.074528,-0.051619,-0.086639,-0.44169,0.10844,-0.39392,0.0082841,-0.09756,-0.0053041,-0.016778,-0.074845,-0.69081,-0.16543,-0.014275,-0.01528,0.010006,-0.17181,0.16522
-0.015101,-0.034573,0.038624,-0.015109,0.026881,0.50425,0.12228,-0.028412,-0.087584,-0.43979,0.094247,-0.41866,0.01135,-0.09985,-0.004083,-0.018589,-0.094026,-0.65893,-0.15809,-0.021153,-0.01997,0.012493,-0.1865,0.15594
-0.01761,-0.029187,0.0394,-0.017615,0.083478,0.61355,0.17681,-0.0039985,-0.08864,-0.42497,0.074738,-0.39159,0.010591,-0.10181,-0.0013516,-0.018009,-0.10449,-0.62754,-0.14904,-0.035392,-0.020226,0.014986,-0.19679,0.15485
-0.019999,-0.024485,0.038325,-0.021871,0.1293,0.68206,0.23977,0.024619,-0.087681,-0.40592,0.051098,-0.35794,0.0073658,-0.1039,0.0028888,-0.0155,-0.10796,-0.60286,-0.14454,-0.053593,-0.016826,0.016002,-0.19917,0.15645
-0.020769,-0.023304,0.03483,-0.025196,0.16204,0.70006,0.30934,0.058459,-0.080518,-0.38597,0.025274,-0.34425,0.0037279,-0.10601,0.0078217,-0.012162,-0.10901,-0.58256,-0.15067,-0.068568,-0.010942,0.015892,-0.19444,0.15375
-0.01914,-0.026386,0.031013,-0.025227,0.1833,0.66825,0.38085,0.095144,-0.064318,-0.36312,0.00044496,-0.34517,0.0010763,-0.10686,0.01217,-0.0093725,-0.11105,-0.55869,-0.16939,-0.074606,-0.0036345,0.016151,-0.18748,0.14321
-0.015734,-0.031243,0.029242,-0.021857,0.1964,0.59542,0.44767,0.13056,-0.04044,-0.33474,-0.019477,-0.33448,-0.00017458,-0.10453,0.014688,-0.0083611,-0.11366,-0.52444,-0.19709,-0.071842,0.0040647,0.017852,-0.18373,0.12677
-0.012314,-0.03392,0.029418,-0.017322,0.20452,0.49612,0.50246,0.16217,-0.014245,-0.30229,-0.031297,-0.29104,-0.00013704,-0.097917,0.014583,-0.0097104,-0.11336,-0.47897,-0.22697,-0.065974,0.010973,0.020462,-0.18529,0.10896
-0.010777,-0.032268,0.028899,-0.014451,0.21017,0.38845,0.53892,0.191,0.0081533,-0.27185,-0.034025,-0.21852,0.00092599,-0.087943,0.011739,-0.013009,-0.10703,-0.42636,-0.25306,-0.063546,0.016031,0.021927,-0.18978,0.091521
-0.012089,-0.02778,0.025307,-0.014636,0.21541,0.28975,0.5542,0.22039,0.023694,-0.25029,-0.029407,-0.14251,0.002429,-0.077277,0.0067178,-0.016925,-0.094778,-0.37012,-0.27276,-0.066915,0.018932,0.019905,-0.19268,0.070508
-0.015864,-0.024224,0.019362,-0.017206,0.22183,0.20986,0.55038,0.25253,0.033766,-0.24008,-0.021162,-0.088835,0.0031722,-0.068653,0.00059047,-0.019745,-0.079935,-0.30812,-0.28592,-0.073134,0.020455,0.013249,-0.19073,0.039028
-0.020803,-0.024307,0.014711,-0.020469,0.22958,0.14534,0.53342,0.28581,0.042221,-0.23659,-0.01328,-0.063372,0.0017071,-0.063185,-0.0053147,-0.020107,-0.066384,-0.23257,-0.29211,-0.077327,0.021941,0.0027209,-0.18341,-0.0064005
-0.02555,-0.027416,0.014588,-0.023202,0.23667,0.080145,0.50986,0.31535,0.05179,-0.2296,-0.0080831,-0.052813,-0.0025111,-0.060145,-0.0097231,-0.017544,-0.055575,-0.1351,-0.28917,-0.077135,0.024156,-0.0094498,-0.17116,-0.061506
-0.029266,-0.030506,0.018416,-0.02518,0.23937,-0.005014,0.48338,0.33609,0.061848,-0.20777,-0.0048713,-0.0465,-0.0080831,-0.058229,-0.0118,-0.012633,-0.045675,-0.01315,-0.27468,-0.074182,0.026382,-0.020782,-0.15264,-0.11618
-0.031624,-0.031164,0.021748,-0.026499,0.23429,-0.11958,0.45384,0.34578,0.069031,-0.16361,-5.5233e-005,-0.059506,-0.011937,-0.05688,-0.01152,-0.0068031,-0.033194,0.12673,-0.24904,-0.071618,0.026562,-0.029704,-0.12414,-0.16134
-0.032507,-0.029853,0.019897,-0.026724,0.22071,-0.25524,0.41938,0.34537,0.069667,-0.096884,0.010708,-0.13473,-0.011173,-0.056275,-0.0097611,-0.0019135,-0.015488,0.27068,-0.21715,-0.070536,0.02257,-0.035982,-0.082668,-0.19462
-0.031891,-0.029164,0.012091,-0.024978,0.20152,-0.38959,0.37966,0.33705,0.061706,-0.015233,0.029062,-0.31905,-0.0052829,-0.056118,-0.0078781,0.00035772,0.007764,0.40349,-0.18643,-0.068852,0.013876,-0.040327,-0.030168,-0.21958
-0.029968,-0.030878,0.0023684,-0.020936,0.18184,-0.49951,0.33769,0.32224,0.044926,0.068154,0.051333,-0.62988,0.0031045,-0.054832,-0.0068423,-0.00075536,0.034755,0.51579,-0.16238,-0.063586,0.0024808,-0.043608,0.025293,-0.23892
-0.027124,-0.033758,-0.0036821,-0.015631,0.16618,-0.57441,0.29896,0.30142,0.020226,0.13922,0.069138,-1.0352,0.0098088,-0.050481,-0.0064998,-0.00454,0.06272,0.60922,-0.14461,-0.054046,-0.0076318,-0.046262,0.073328,-0.24814
-0.023557,-0.034324,-0.0034562,-0.011054,0.15592,-0.61991,0.26913,0.27572,-0.010434,0.1883,0.073668,-1.4584,0.011975,-0.042858,-0.0055776,-0.0088868,0.089091,0.69642,-0.12645,-0.04265,-0.012473,-0.048199,0.10757,-0.23634
-0.01896,-0.029975,0.00080057,-0.008752,0.14891,-0.64994,0.25187,0.24799,-0.043197,0.21368,0.061113,-1.8013,0.009982,-0.034568,-0.0025958,-0.011292,0.11222,0.79456,-0.09863,-0.032519,-0.010455,-0.049108,0.12932,-0.19459
-0.012914,-0.02158,0.0042312,-0.0086875,0.14131,-0.6745,0.24821,0.22193,-0.072015,0.22141,0.0352,-1.972,0.0068179,-0.029484,0.0028937,-0.010386,0.13167,0.91451,-0.055112,-0.024297,-0.003721,-0.04886,0.14528,-0.12562
-0.0059245,-0.013112,0.0034466,-0.0094321,0.1303,-0.69287,0.2565,0.19999,-0.090333,0.22177,0.0047619,-1.9091,0.0054748,-0.029432,0.0096768,-0.0069512,0.14812,1.0517,0.0023837,-0.015465,0.0027219,-0.047756,0.16114,-0.046625
3.7096e-006,-0.0086047,-0.001219,-0.0095147,0.1158,-0.69685,0.27236,0.1821,-0.094237,0.22437,-0.021851,-1.5993,0.006609,-0.03204,0.015399,-0.0034764,0.16256,1.1857,0.063932,-0.0030964,0.0038738,-0.046506,0.17653,0.017815
0.0023053,-0.0090861,-0.0069228,-0.0086236,0.10029,-0.67976,0.28869,0.16657,-0.084812,0.23458,-0.041084,-1.0876,0.0084453,-0.032168,0.017921,-0.0023199,0.1752,1.2902,0.11565,0.012435,-0.0020652,-0.045908,0.18555,0.047965
-4.7714e-005,-0.012064,-0.011344,-0.0075438,0.087031,-0.6428,0.29686,0.1522,-0.067762,0.25257,-0.054063,-0.47017,0.0088641,-0.026216,0.016555,-0.0037817,0.18465,1.3488,0.14651,0.026379,-0.012402,-0.046269,0.18214,0.037842
-0.0051095,-0.013859,-0.014465,-0.0069754,0.078262,-0.59353,0.28993,0.13976,-0.050665,0.27444,-0.062965,0.13401,0.0076417,-0.015775,0.012349,-0.0057409,0.18845,1.3656,0.1539,0.032546,-0.021642,-0.046829,0.16539,-0.0046505
-0.008837,-0.012667,-0.017681,-0.0065122,0.074361,-0.53902,0.26627,0.13165,-0.039977,0.29449,-0.067761,0.62629,0.0067339,-0.0072075,0.0073208,-0.0053756,0.18463,1.3636,0.14451,0.027972,-0.025069,-0.045633,0.14042,-0.065012
-0.0079333,-0.009819,-0.021585,-0.0049025,0.074066,-0.4804,0.23128,0.1305,-0.039514,0.30795,-0.06632,0.96112,0.0083499,-0.0070545,0.0032962,-0.0016718,0.17339,1.3716,0.13003,0.015433,-0.021595,-0.040192,0.11447,-0.13075
-0.0023548,-0.008361,-0.02498,-0.0014302,0.075361,-0.41382,0.19534,0.13791,-0.05017,0.31389,-0.057056,1.1478,0.01263,-0.016892,0.0011418,0.0034483,0.15761,1.4089,0.12057,0.0017609,-0.013781,-0.028766,0.092343,-0.19565
0.0047007,-0.010373,-0.026117,0.0029323,0.076604,-0.33632,0.169,0.15418,-0.069486,0.31692,-0.040555,1.222,0.017109,-0.031897,0.00071514,0.0065155,0.14207,1.4785,0.12051,-0.0063846,-0.0052301,-0.011478,0.074965,-0.25867
0.0092792,-0.015316,-0.024783,0.0058392,0.077719,-0.25073,0.15865,0.1783,-0.090768,0.32619,-0.017868,1.2107,0.018526,-0.044373,0.0012647,0.00535,0.13201,1.5713,0.12929,-0.0056074,0.0022938,0.0095483,0.061563,-0.3203
0.009419,-0.020676,-0.022924,0.0052706,0.080995,-0.16497,0.16511,0.2079,-0.1034,0.35072,0.012809,1.1212,0.015433,-0.049294,0.0018166,0.00087675,0.13193,1.677,0.14589,0.0045337,0.0095928,0.031211,0.052366,-0.37979
0.0059531,-0.02415,-0.023045,0.0012101,0.090681,-0.086385,0.18538,0.23922,-0.096334,0.39363,0.056861,0.95856,0.0094105,-0.047353,0.0013497,-0.0037374,0.14471,1.7912,0.17241,0.024103,0.018187,0.050847,0.048759,-0.43462
0.0011904,-0.025424,-0.025869,-0.0041674,0.11083,-0.015913,0.2151,0.2679,-0.064303,0.44911,0.11907,0.74941,0.0039247,-0.043248,-0.0010804,-0.0058896,0.17094,1.9149,0.21313,0.054415,0.027828,0.067027,0.050944,-0.48098
-0.0028193,-0.026068,-0.029548,-0.0080113,0.14224,0.052908,0.24971,0.29057,-0.013171,0.50518,0.19715,0.54568,0.0018713,-0.041055,-0.0060413,-0.0057751,0.20834,2.0477,0.26954,0.096699,0.035814,0.079294,0.055925,-0.51443
-0.0048622,-0.027839,-0.031173,-0.0087854,0.18049,0.12966,0.28427,0.30609,0.040055,0.55065,0.27894,0.39898,0.0037333,-0.040807,-0.01326,-0.0060646,0.25205,2.1803,0.3357,0.149,0.038859,0.087401,0.05837,-0.53083
-0.0041181,-0.031013,-0.029183,-0.0071558,0.2172,0.22088,0.31351,0.31521,0.074057,0.58151,0.34683,0.32877,0.0075619,-0.038964,-0.021307,-0.0094112,0.29604,2.2927,0.39849,0.20458,0.03589,0.090966,0.053848,-0.52814
-4.4424e-005,-0.034176,-0.024481,-0.0051816,0.24403,0.32633,0.33332,0.31874,0.073714,0.6018,0.38749,0.31401,0.010444,-0.031835,-0.027794,-0.01612,0.33523,2.3588,0.44361,0.25387,0.029296,0.089893,0.041551,-0.50831
0.0067523,-0.035469,-0.019461,-0.0046139,0.25703,0.43923,0.34249,0.31597,0.038176,0.61884,0.39967,0.31672,0.010197,-0.018494,-0.030236,-0.024027,0.36673,2.353,0.46303,0.28888,0.023441,0.084984,0.024092,-0.47743
0.013683,-0.033937,-0.016107,-0.0057287,0.25795,0.54908,0.34268,0.30492,-0.018434,0.63688,0.39396,0.31541,0.0062889,-0.00067177,-0.027299,-0.030461,0.38939,2.2587,0.45823,0.30659,0.021558,0.077904,0.0049563,-0.44305
0.016992,-0.029839,-0.014919,-0.0075334,0.25163,0.64471,0.33604,0.28433,-0.074257,0.65475,0.3843,0.31682,-0.00014115,0.019728,-0.019793,-0.034268,0.40222,2.0728,0.43678,0.30893,0.02343,0.070276,-0.013755,-0.40986
0.014347,-0.024005,-0.015334,-0.0089993,0.24164,0.71651,0.32272,0.25557,-0.11079,0.66879,0.37746,0.3356,-0.0068061,0.04246,-0.010637,-0.03605,0.40324,1.8076,0.40506,0.29965,0.025633,0.062618,-0.031349,-0.37723
0.007206,-0.017317,-0.016705,-0.01018,0.22785,0.75842,0.30109,0.22259,-0.12174,0.6781,0.36795,0.36365,-0.011101,0.06795,-0.0034729,-0.036691,0.39013,1.4872,0.36325,0.2813,0.024108,0.054083,-0.047177,-0.34072
0.00047663,-0.010954,-0.01867,-0.012252,0.20772,0.76996,0.27093,0.18967,-0.11492,0.6867,0.34183,0.36197,-0.011237,0.094497,-0.00050575,-0.035896,0.36246,1.1417,0.3067,0.25461,0.017122,0.04329,-0.060257,-0.29659
-0.00088468,-0.006776,-0.020754,-0.01644,0.17995,0.75741,0.23621,0.159,-0.10655,0.70052,0.2861,0.28603,-0.0074341,0.11701,-0.0010046,-0.032366,0.32357,0.79908,0.23249,0.22043,0.0064476,0.029592,-0.070918,-0.24566
0.0041632,-0.0067018,-0.022112,-0.022695,0.14686,0.73228,0.20398,0.12995,-0.11133,0.72203,0.19718,0.12297,-0.0023617,0.12955,-0.0018073,-0.025439,0.28027,0.48021,0.14545,0.18181,-0.0040902,0.013797,-0.082595,-0.19326
0.011647,-0.011071,-0.022048,-0.029252,0.11331,0.7066,0.179,0.10061,-0.13416,0.74784,0.083719,-0.094366,-3.5765e-005,0.13016,0.00016619,-0.016563,0.2403,0.19704,0.058566,0.14413,-0.011609,-0.0021245,-0.10084,-0.14523
0.015565,-0.017489,-0.020852,-0.033529,0.083034,0.68693,0.15889,0.070034,-0.16822,0.77239,-0.03674,-0.31016,-0.0033414,0.12369,0.0051655,-0.0090478,0.20884,-0.045559,-0.012799,0.11282,-0.016438,-0.01599,-0.12896,-0.10314
0.012662,-0.021791,-0.019803,-0.033813,0.055891,0.67088,0.13473,0.039236,-0.20045,0.79544,-0.14423,-0.48453,-0.011731,0.11929,0.01,-0.0060955,0.18644,-0.24771,-0.058632,0.090762,-0.021774,-0.026248,-0.16345,-0.062563
0.0050146,-0.020933,-0.020036,-0.030514,0.028284,0.64854,0.0976,0.010387,-0.22047,0.8272,-0.22282,-0.61304,-0.021045,0.12375,0.010467,-0.0086273,0.16956,-0.41334,-0.078305,0.077311,-0.030709,-0.032245,-0.19343,-0.015527
-0.0017849,-0.015505,-0.021296,-0.025995,-0.0035658,0.60837,0.045805,-0.01485,-0.22673,0.88585,-0.26546,-0.71068,-0.02608,0.13576,0.0050937,-0.014569,0.15337,-0.54901,-0.078661,0.069857,-0.042748,-0.034074,-0.20552,0.04447
-0.0032784,-0.0095052,-0.021968,-0.023019,-0.04044,0.5437,-0.013528,-0.036303,-0.22609,0.98751,-0.27635,-0.77922,-0.024324,0.14629,-0.0029827,-0.020115,0.13501,-0.66116,-0.068348,0.066416,-0.05266,-0.032433,-0.19081,0.1188
0.00030457,-0.007239,-0.020564,-0.022928,-0.079557,0.45586,-0.069975,-0.054899,-0.22752,1.1348,-0.26999,-0.79338,-0.017995,0.14515,-0.0078883,-0.02204,0.11541,-0.75239,-0.052792,0.067229,-0.05303,-0.028721,-0.14903,0.20401
0.0044785,-0.0098261,-0.017268,-0.024929,-0.11665,0.35263,-0.11742,-0.071499,-0.23568,1.3116,-0.26642,-0.72311,-0.012606,0.12896,-0.0053686,-0.019511,0.098237,-0.82046,-0.032929,0.074045,-0.038925,-0.025039,-0.087255,0.29573
0.0043112,-0.014214,-0.01395,-0.027021,-0.14855,0.24389,-0.15695,-0.086029,-0.24926,1.4873,-0.28362,-0.5734,-0.012985,0.10399,0.0039328,-0.014353,0.086801,-0.86306,-0.0076324,0.087583,-0.011242,-0.023648,-0.015326,0.39279
-0.001732,-0.015493,-0.01257,-0.027821,-0.1741,0.13769,-0.19287,-0.097548,-0.26483,1.6291,-0.33048,-0.40309,-0.019834,0.081447,0.01502,-0.0097708,0.080684,-0.88599,0.022641,0.10517,0.023908,-0.025868,0.058162,0.49742
-0.010924,-0.010622,-0.013537,-0.027715,-0.19325,0.038901,-0.22614,-0.10498,-0.28192,1.7134,-0.40384,-0.30001,-0.02948,0.069186,0.022377,-0.0084373,0.074776,-0.90743,0.053703,0.12062,0.059171,-0.031107,0.12717,0.61022
-0.018597,-0.00068589,-0.015645,-0.028287,-0.20599,-0.05,-0.25156,-0.10785,-0.30412,1.7321,-0.49028,-0.32696,-0.036852,0.066423,0.023746,-0.011061,0.061843,-0.95132,0.078287,0.12681,0.08996,-0.036914,0.18781,0.72386
-0.021314,0.0097472,-0.017545,-0.030443,-0.2124,-0.1278,-0.26124,-0.10661,-0.33482,1.6912,-0.57095,-0.47851,-0.039044,0.065746,0.020721,-0.016207,0.037373,-1.0318,0.088877,0.1196,0.11538,-0.040301,0.23822,0.82212
-0.018447,0.015427,-0.01909,-0.032925,-0.21361,-0.19414,-0.25071,-0.10265,-0.37124,1.6055,-0.62648,-0.68015,-0.036617,0.060239,0.016108,-0.021362,0.0033786,-1.14,0.080956,0.10007,0.136,-0.039518,0.27888,0.88818
-0.011633,0.013327,-0.021049,-0.032821,-0.21214,-0.24954,-0.222,-0.098179,-0.40218,1.4942,-0.64134,-0.82788,-0.032005,0.049357,0.0109,-0.024511,-0.031923,-1.2453,0.054873,0.073658,0.15144,-0.034964,0.31186,0.91784
-0.0034376,0.0040285,-0.023488,-0.02801,-0.21042,-0.29493,-0.1816,-0.09599,-0.41203,1.3768,-0.60792,-0.83856,-0.027013,0.038575,0.0038607,-0.025178,-0.058918,-1.3141,0.015535,0.046573,0.16039,-0.028602,0.33823,0.92672
0.0035104,-0.0087961,-0.024682,-0.019572,-0.20846,-0.33061,-0.13605,-0.098739,-0.38836,1.2699,-0.53016,-0.68102,-0.021838,0.033482,-0.006034,-0.024265,-0.072753,-1.3323,-0.029635,0.022295,0.16308,-0.02248,0.35555,0.9425
0.0068702,-0.020212,-0.022116,-0.011806,-0.20274,-0.35571,-0.089715,-0.10781,-0.32834,1.182,-0.42401,-0.37932,-0.016171,0.033872,-0.016992,-0.022961,-0.076331,-1.3146,-0.07323,0.00059381,0.16288,-0.017689,0.35842,0.98523
0.0052648,-0.026267,-0.015005,-0.0093128,-0.18774,-0.36901,-0.04607,-0.12234,-0.24011,1.1105,-0.31221,0.00065228,-0.010722,0.033153,-0.024561,-0.02174,-0.077759,-1.2921,-0.10972,-0.020601,0.1647,-0.014522,0.34265,1.0508
-0.00059044,-0.02579,-0.00602,-0.013289,-0.15918,-0.37111,-0.0095975,-0.1393,-0.1391,1.043,-0.21478,0.36939,-0.0072316,0.023559,-0.02482,-0.020333,-0.084076,-1.2868,-0.13603,-0.042498,0.17092,-0.013315,0.31004,1.1136
-0.0073965,-0.020952,-0.00018218,-0.020268,-0.11662,-0.36583,0.015068,-0.15492,-0.041911,0.96614,-0.14074,0.63618,-0.0069104,0.0026336,-0.01778,-0.018588,-0.096062,-1.2941,-0.15096,-0.064218,0.17874,-0.01472,0.2693,1.1494
-0.010612,-0.016095,-0.0012916,-0.024726,-0.063592,-0.35945,0.026633,-0.16661,0.039219,0.87422,-0.087299,0.73931,-0.0090994,-0.024361,-0.0077408,-0.017171,-0.10807,-1.2861,-0.15392,-0.083691,0.18204,-0.018865,0.23161,1.1612
-0.007304,-0.015182,-0.008641,-0.023573,-0.0056786,-0.35764,0.029336,-0.17407,0.09957,0.77436,-0.046833,0.67636,-0.01179,-0.047764,8.6626e-007,-0.017238,-0.11281,-1.2332,-0.14396,-0.099387,0.17645,-0.024291,0.20422,1.1848
0.0015267,-0.019322,-0.016908,-0.018615,0.051526,-0.36223,0.030406,-0.17884,0.14192,0.68159,-0.01582,0.51363,-0.01358,-0.059563,0.0032678,-0.01935,-0.10714,-1.126,-0.12003,-0.11122,0.16321,-0.028178,0.18699,1.2648
0.011244,-0.026107,-0.019707,-0.014677,0.10338,-0.37053,0.033994,-0.18301,0.1735,0.60826,0.0021973,0.35836,-0.014962,-0.05756,0.0042762,-0.022911,-0.0944,-0.98153,-0.083032,-0.12017,0.148,-0.0283,0.17433,1.418
0.016608,-0.031455,-0.014209,-0.014974,0.14664,-0.37785,0.037055,-0.18825,0.20114,0.55496,0.0021119,0.30342,-0.017456,-0.045304,0.0069154,-0.026961,-0.081701,-0.83108,-0.038425,-0.1275,0.13569,-0.025258,0.16028,1.6124
0.015354,-0.03267,-0.0032174,-0.018006,0.18054,-0.38156,0.03169,-0.19557,0.22688,0.50954,-0.013896,0.37926,-0.021441,-0.029038,0.012544,-0.031646,-0.074903,-0.70113,0.0030065,-0.13423,0.12589,-0.022747,0.1425,1.7811
0.0095797,-0.030371,0.0069734,-0.018942,0.20828,-0.38361,0.012679,-0.2053,0.24706,0.45456,-0.032517,0.54636,-0.025108,-0.01458,0.018173,-0.038696,-0.075198,-0.60142,0.028297,-0.14112,0.11345,-0.02507,0.12261,1.8615
0.0039458,-0.027772,0.011203,-0.01432,0.23638,-0.38935,-0.016388,-0.21656,0.25554,0.37763,-0.034777,0.73186,-0.025944,-0.0058921,0.018709,-0.050041,-0.079655,-0.52604,0.028838,-0.14839,0.093327,-0.033702,0.10425,1.8311
0.002246,-0.027997,0.0089032,-0.0056481,0.27063,-0.40359,-0.04431,-0.22659,0.24899,0.27742,-0.007383,0.8793,-0.023462,-0.0049749,0.011259,-0.065751,-0.084638,-0.46275,0.0064424,-0.15538,0.065038,-0.045954,0.091599,1.7136
0.005035,-0.031759,0.0038526,0.0015487,0.3102,-0.42685,-0.060333,-0.23119,0.22993,0.16216,0.048281,0.97313,-0.020363,-0.011847,-0.0022788,-0.083501,-0.08898,-0.40143,-0.025834,-0.16058,0.032556,-0.057225,0.089835,1.5545
0.0099114,-0.037236,0.00077358,0.0025035,0.34514,-0.45471,-0.062277,-0.22694,0.20477,0.043118,0.11589,1.0244,-0.020577,-0.024317,-0.016463,-0.10047,-0.094492,-0.33717,-0.049942,-0.16261,-3.0124e-005,-0.065056,0.10603,1.3873
0.013819,-0.041982,0.0017181,-0.0025445,0.36086,-0.48064,-0.05772,-0.21385,0.17842,-0.071262,0.17249,1.0386,-0.025693,-0.038355,-0.026141,-0.1159,-0.10375,-0.26876,-0.052879,-0.16136,-0.032594,-0.071324,0.14798,1.2169
0.0153,-0.044939,0.0049883,-0.0084988,0.34775,-0.50016,-0.057452,-0.19638,0.15043,-0.17647,0.19952,0.99802,-0.033007,-0.049678,-0.029618,-0.13134,-0.11713,-0.19647,-0.034039,-0.15835,-0.068907,-0.080411,0.21991,1.0279
0.01506,-0.046837,0.0070256,-0.0098077,0.30855,-0.51307,-0.06715,-0.18138,0.11619,-0.26922,0.18948,0.87576,-0.037151,-0.055803,-0.028937,-0.14737,-0.13129,-0.12102,-0.0048318,-0.15546,-0.11289,-0.094871,0.31727,0.80587
0.014828,-0.048901,0.0054201,-0.0051873,0.25694,-0.52231,-0.084317,-0.17421,0.072605,-0.34514,0.14532,0.66467,-0.034078,-0.056957,-0.02766,-0.15937,-0.14015,-0.043256,0.019149,-0.15325,-0.16517,-0.11256,0.4241,0.5506
0.015773,-0.051341,0.00070922,0.0014212,0.20768,-0.53068,-0.10216,-0.17566,0.022905,-0.40055,0.07443,0.39414,-0.024091,-0.055014,-0.028322,-0.15703,-0.13761,0.035963,0.028094,-0.15042,-0.22296,-0.12793,0.51594,0.27379
0.017726,-0.053074,-0.0040547,0.0043116,0.16622,-0.53818,-0.11572,-0.18187,-0.02382,-0.437,-0.01771,0.1183,-0.011531,-0.051421,-0.031354,-0.12973,-0.12063,0.11547,0.023684,-0.14495,-0.28254,-0.13614,0.56762,-0.011792
0.019554,-0.052767,-0.005288,0.00077872,0.12653,-0.54195,-0.12437,-0.1872,-0.058433,-0.46375,-0.12995,-0.11441,-0.0016307,-0.046004,-0.035563,-0.07523,-0.090839,0.19222,0.017523,-0.1359,-0.3405,-0.13605,0.56192,-0.29716
0.020082,-0.050097,-0.0009421,-0.006785,0.078738,-0.53897,-0.12912,-0.18792,-0.077866,-0.49387,-0.26335,-0.28604,0.002751,-0.037718,-0.039199,-0.005096,-0.054064,0.25955,0.024134,-0.12407,-0.39217,-0.12924,0.49454,-0.57115
0.018874,-0.046066,0.0084721,-0.012949,0.019884,-0.52953,-0.12894,-0.18427,-0.086245,-0.53541,-0.41681,-0.41046,0.0021675,-0.026489,-0.040782,0.058759,-0.017964,0.30744,0.053168,-0.11066,-0.42903,-0.11632,0.37283,-0.81226
0.016444,-0.042245,0.020215,-0.013508,-0.041659,-0.51903,-0.12074,-0.17991,-0.090162,-0.58403,-0.58405,-0.51328,-0.00069595,-0.014301,-0.039641,0.095484,0.011151,0.3267,0.10492,-0.095401,-0.43971,-0.094883,0.21062,-0.99079
0.013908,-0.039753,0.030658,-0.00846,-0.091335,-0.51689,-0.10358,-0.1793,-0.092456,-0.62371,-0.7539,-0.60821,-0.00297,-0.0044549,-0.036315,0.097589,0.030868,0.31551,0.1707,-0.076162,-0.41568,-0.061743,0.023732,-1.0837
0.012264,-0.03882,0.036979,-0.0015855,-0.11807,-0.53248,-0.082649,-0.18484,-0.090015,-0.63566,-0.91325,-0.68742,-0.0027155,0.00030995,-0.032566,0.075379,0.043553,0.28436,0.23712,-0.050791,-0.3584,-0.017874,-0.17081,-1.0922
0.01167,-0.039091,0.038417,0.0026581,-0.12004,-0.56995,-0.068201,-0.19549,-0.077351,-0.60924,-1.0503,-0.7307,0.00087113,-0.00078593,-0.030583,0.05011,0.055196,0.25507,0.29219,-0.019676,-0.28169,0.028814,-0.35352,-1.0467
0.011266,-0.04011,0.036474,0.0022584,-0.10249,-0.62472,-0.06942,-0.2076,-0.052491,-0.54697,-1.1564,-0.72383,0.0073636,-0.0065772,-0.031499,0.040623,0.072596,0.25294,0.33054,0.013483,-0.20658,0.066348,-0.50386,-0.99515
0.0098108,-0.041487,0.033881,-0.0015457,-0.07096,-0.68399,-0.087966,-0.21743,-0.019978,-0.46058,-1.2253,-0.67113,0.014867,-0.014875,-0.034305,0.052907,0.099986,0.29528,0.35526,0.043775,-0.15108,0.085697,-0.60648,-0.98164
0.0068058,-0.042705,0.032935,-0.0059859,-0.026719,-0.73208,-0.11671,-0.22359,0.011337,-0.36244,-1.2528,-0.59301,0.020368,-0.023194,-0.03635,0.079397,0.13661,0.38214,0.37496,0.068424,-0.12185,0.086535,-0.65898,-1.029
0.0031076,-0.042984,0.034259,-0.0092058,0.031462,-0.75786,-0.14485,-0.22781,0.033467,-0.25928,-1.2369,-0.5117,0.021305,-0.028919,-0.035501,0.10705,0.17666,0.49421,0.39699,0.088388,-0.11301,0.077123,-0.67413,-1.1331
0.00029341,-0.041525,0.036806,-0.011314,0.10102,-0.75995,-0.16538,-0.23368,0.043237,-0.15265,-1.1805,-0.43695,0.017636,-0.029601,-0.032411,0.12696,0.2118,0.59938,0.42087,0.10652,-0.11208,0.068441,-0.67267,-1.2685
-0.00087784,-0.037986,0.038977,-0.013454,0.17016,-0.74602,-0.17959,-0.24448,0.042871,-0.044246,-1.0938,-0.36239,0.012526,-0.023976,-0.030835,0.13826,0.23506,0.66514,0.43662,0.12363,-0.10811,0.067196,-0.67057,-1.3984
-0.0015155,-0.032749,0.039891,-0.016145,0.21797,-0.72658,-0.19565,-0.26199,0.038545,0.058955,-0.99445,-0.27402,0.010465,-0.013149,-0.035247,0.14507,0.24364,0.67122,0.43008,0.13601,-0.096462,0.07286,-0.66952,-1.488
-0.0039685,-0.026731,0.039785,-0.018627,0.2214,-0.70786,-0.22311,-0.28703,0.039274,0.14453,-0.90306,-0.16187,0.013861,-0.00053659,-0.047308,0.15104,0.23907,0.61651,0.392,0.13698,-0.078292,0.08025,-0.65721,-1.5179
-0.0098135,-0.020928,0.039343,-0.019742,0.16613,-0.68894,-0.26696,-0.3207,0.056393,0.19974,-0.8347,-0.025019,0.020851,0.010083,-0.064028,0.15692,0.22489,0.51726,0.32447,0.12168,-0.057071,0.084794,-0.61668,-1.495
-0.018182,-0.016148,0.038721,-0.019275,0.055975,-0.66492,-0.32451,-0.36458,0.10133,0.21863,-0.79189,0.13216,0.026395,0.017172,-0.079379,0.16254,0.20389,0.39761,0.2396,0.091561,-0.035771,0.08602,-0.53739,-1.4515
-0.026043,-0.013071,0.037238,-0.01828,-0.085559,-0.63303,-0.3862,-0.41917,0.17992,0.20622,-0.76379,0.30471,0.025996,0.022383,-0.088389,0.16962,0.17691,0.27779,0.15157,0.054555,-0.016458,0.086909,-0.42148,-1.4276
-0.030361,-0.012343,0.03401,-0.018064,-0.22464,-0.59648,-0.43966,-0.48177,0.28552,0.17641,-0.73393,0.48485,0.019089,0.028699,-0.090518,0.18172,0.1437,0.16611,0.068499,0.020552,-0.00099743,0.090303,-0.28313,-1.4431
-0.030319,-0.014261,0.028902,-0.018938,-0.33397,-0.56323,-0.47526,-0.5459,0.39648,0.14425,-0.69206,0.65435,0.0093859,0.037167,-0.089588,0.20105,0.10458,0.058539,-0.0096256,-0.0046044,0.0092666,0.095764,-0.14333,-1.4759
-0.027712,-0.018147,0.02287,-0.020055,-0.40719,-0.5413,-0.49074,-0.60348,0.48263,0.11682,-0.64193,0.78242,0.002131,0.045141,-0.09032,0.22563,0.061569,-0.055279,-0.085738,-0.021865,0.015159,0.09951,-0.023323,-1.4663
-0.025253,-0.022093,0.017356,-0.020426,-0.46053,-0.53459,-0.49224,-0.64836,0.51918,0.089167,-0.59838,0.83853,0.00068738,0.047861,-0.094442,0.25008,0.018198,-0.18421,-0.15884,-0.036414,0.020687,0.097364,0.06188,-1.3493
-0.024402,-0.023703,0.013253,-0.019978,-0.51903,-0.5419,-0.49086,-0.67885,0.49975,0.04913,-0.57544,0.81511,0.0050608,0.042232,-0.099581,0.26906,-0.021375,-0.33086,-0.22222,-0.052105,0.031365,0.088227,0.10822,-1.0964
-0.024629,-0.021585,0.010282,-0.019511,-0.59709,-0.55867,-0.49619,-0.69723,0.43983,-0.011218,-0.57419,0.74266,0.012872,0.029616,-0.10166,0.27962,-0.053516,-0.49153,-0.26854,-0.067738,0.050279,0.07522,0.12339,-0.74029
-0.024599,-0.016441,0.0072592,-0.019705,-0.68787,-0.57942,-0.51107,-0.70696,0.36769,-0.085182,-0.58027,0.68135,0.021225,0.015197,-0.098456,0.28002,-0.076251,-0.65917,-0.29727,-0.078392,0.074901,0.063553,0.12215,-0.36364
-0.023961,-0.010679,0.0029514,-0.020369,-0.77017,-0.59926,-0.53086,-0.70985,0.30871,-0.15043,-0.57314,0.69091,0.027806,0.0044269,-0.091207,0.26658,-0.090224,-0.82623,-0.31722,-0.080589,0.09765,0.056734,0.11782,-0.057914
-0.023968,-0.0066992,-0.0031349,-0.020833,-0.82666,-0.61446,-0.54784,-0.70542,0.27364,-0.17946,-0.53952,0.7986,0.031047,-0.00049709,-0.083248,0.23332,-0.098894,-0.98579,-0.34152,-0.076602,0.11028,0.054033,0.11568,0.12242
-0.026282,-0.0052261,-0.010573,-0.020972,-0.8582,-0.62266,-0.55716,-0.69273,0.25738,-0.15506,-0.48057,0.98722,0.030328,-0.0013076,-0.077342,0.17609,-0.10729,-1.132,-0.37876,-0.073803,0.10897,0.051093,0.11292,0.18268
-0.031101,-0.0050991,-0.018458,-0.021553,-0.88227,-0.62257,-0.55989,-0.67284,0.24732,-0.080391,-0.40809,1.209,0.026585,-0.0012985,-0.074168,0.097922,-0.11946,-1.2606,-0.42727,-0.079232,0.096285,0.043094,0.10468,0.17565
-0.036375,-0.0045913,-0.026105,-0.023304,-0.91755,-0.61278,-0.56114,-0.64938,0.23374,0.023287,-0.33475,1.412,0.022428,-0.0022855,-0.072872,0.0097213,-0.13604,-1.3699,-0.47674,-0.093758,0.078949,0.027997,0.090177,0.16451
-0.038984,-0.0029247,-0.033486,-0.025679,-0.96832,-0.5902,-0.56512,-0.6264,0.21499,0.12879,-0.26773,1.5579,0.02074,-0.0035958,-0.072519,-0.075826,-0.15374,-1.4592,-0.51549,-0.11082,0.063438,0.0075599,0.073109,0.18609
-0.037048,-0.00057892,-0.041106,-0.026893,-1.0216,-0.54967,-0.57114,-0.60491,0.19515,0.21636,-0.21021,1.6237,0.022407,-0.0037052,-0.072824,-0.15251,-0.16743,-1.5259,-0.53742,-0.12104,0.052865,-0.014203,0.056093,0.23692
-0.031521,0.0016829,-0.049331,-0.025565,-1.0581,-0.48623,-0.57354,-0.58101,0.17809,0.27945,-0.16732,1.5939,0.025312,-0.0026667,-0.073805,-0.22355,-0.17357,-1.5617,-0.54412,-0.11918,0.046876,-0.033508,0.03533,0.28767
-0.025705,0.0038008,-0.057561,-0.022447,-1.0671,-0.39915,-0.565,-0.54775,0.16314,0.32066,-0.14894,1.4572,0.026094,-0.0028442,-0.075198,-0.29593,-0.17252,-1.5535,-0.54181,-0.10799,0.043666,-0.048272,0.0017374,0.31259
-0.022941,0.0062158,-0.063925,-0.020286,-1.0515,-0.29487,-0.54032,-0.49978,0.14556,0.34265,-0.16577,1.2145,0.023481,-0.0071434,-0.076452,-0.37082,-0.16809,-1.4912,-0.53686,-0.096013,0.041949,-0.057974,-0.051236,0.31151
-0.024204,0.0086971,-0.065929,-0.021515,-1.0226,-0.18596,-0.49784,-0.4376,0.12089,0.3412,-0.222,0.88974,0.020043,-0.016301,-0.077101,-0.43852,-0.16468,-1.3788,-0.53345,-0.091317,0.041468,-0.06279,-0.11963,0.30973
-0.027463,0.0096585,-0.061927,-0.025786,-0.98975,-0.086143,-0.43824,-0.36768,0.089557,0.30528,-0.31088,0.53466,0.020309,-0.027701,-0.076823,-0.48289,-0.16428,-1.24,-0.53405,-0.096078,0.042305,-0.06316,-0.18819,0.33826
-0.02938,0.0070783,-0.052529,-0.029822,-0.95502,-0.0043616,-0.36251,-0.29806,0.058524,0.22396,-0.41662,0.21788,0.026628,-0.036862,-0.075077,-0.4916,-0.16576,-1.1119,-0.54046,-0.10605,0.044072,-0.060004,-0.23825,0.41105
-0.028068,0.0004531,-0.04089,-0.03004,-0.91664,0.057892,-0.27164,-0.23278,0.038903,0.09579,-0.5206,0.0034099,0.036631,-0.040444,-0.071003,-0.46376,-0.16668,-1.027,-0.55285,-0.11458,0.045759,-0.054916,-0.25845,0.51635
-0.024737,-0.0080921,-0.031483,-0.025706,-0.87493,0.10471,-0.16825,-0.16994,0.040958,-0.065032,-0.60779,-0.074389,0.044977,-0.038331,-0.064072,-0.40947,-0.16593,-0.99445,-0.56717,-0.11727,0.046208,-0.04976,-0.25009,0.62666
-0.02279,-0.014879,-0.028015,-0.019656,-0.83401,0.14136,-0.058586,-0.1054,0.069142,-0.23027,-0.67059,-0.029463,0.048103,-0.033171,-0.054971,-0.34279,-0.16473,-0.99234,-0.57376,-0.11371,0.044809,-0.045979,-0.22382,0.71719
-0.024959,-0.017289,-0.031734,-0.015795,-0.79756,0.17114,0.047388,-0.03896,0.11955,-0.36764,-0.7095,0.07265,0.047703,-0.027861,-0.04554,-0.27512,-0.16491,-0.98063,-0.5604,-0.10566,0.042078,-0.044333,-0.19111,0.77806
-0.030707,-0.015712,-0.041043,-0.015607,-0.76347,0.1954,0.13849,0.022687,0.1809,-0.4546,-0.73098,0.13418,0.04956,-0.023042,-0.037376,-0.21369,-0.16629,-0.92743,-0.51937,-0.094434,0.039801,-0.045297,-0.1573,0.81293
-0.036117,-0.013123,-0.052453,-0.016912,-0.72365,0.21556,0.2059,0.069741,0.23887,-0.48763,-0.74261,0.065586,0.058446,-0.016558,-0.030166,-0.16399,-0.16585,-0.8334,-0.45443,-0.08056,0.040366,-0.049489,-0.12087,0.82871
-0.036577,-0.012615,-0.062114,-0.016065,-0.66983,0.23416,0.24555,0.097253,0.28192,-0.4806,-0.74765,-0.1699,0.073417,-0.0051837,-0.02146,-0.13129,-0.1599,-0.73747,-0.38181,-0.065394,0.045199,-0.05737,-0.07767,0.82715
-0.0303,-0.015041,-0.067169,-0.011539,-0.60005,0.25375,0.25827,0.11066,0.30619,-0.45294,-0.74277,-0.53509,0.087607,0.012751,-0.0084828,-0.11873,-0.14773,-0.69716,-0.32308,-0.052345,0.053041,-0.068343,-0.025979,0.80442
-0.019908,-0.01865,-0.066517,-0.005513,-0.51992,0.27534,0.2486,0.1238,0.31659,-0.41644,-0.72216,-0.93997,0.092882,0.03571,0.0093113,-0.12456,-0.13328,-0.75355,-0.29307,-0.045375,0.059507,-0.080242,0.031291,0.75661
-0.010706,-0.020818,-0.061004,-0.0019969,-0.43746,0.29889,0.22403,0.15042,0.32293,-0.37159,-0.68587,-1.2953,0.085709,0.059292,0.029051,-0.14304,-0.1232,-0.90169,-0.29073,-0.045772,0.058925,-0.090098,0.087444,0.68448
-0.0068623,-0.020181,-0.053081,-0.0032214,-0.35656,0.32601,0.19479,0.19565,0.33279,-0.31646,-0.64517,-1.5619,0.069752,0.078111,0.045698,-0.16929,-0.12223,-1.0862,-0.29925,-0.050498,0.047784,-0.095835,0.13429,0.59363
-0.0083895,-0.017457,-0.045937,-0.0076123,-0.27497,0.36203,0.17323,0.25405,0.34581,-0.25991,-0.61816,-1.7592,0.053432,0.087907,0.054772,-0.20322,-0.12976,-1.2272,-0.29618,-0.054393,0.02743,-0.097492,0.16449,0.49182
-0.011272,-0.014595,-0.042222,-0.011113,-0.18787,0.41428,0.17101,0.31513,0.35369,-0.22567,-0.61663,-1.9297,0.044546,0.086713,0.054506,-0.24753,-0.14037,-1.2617,-0.26687,-0.054665,0.0037574,-0.096841,0.17361,0.38719
-0.010628,-0.013311,-0.042786,-0.010539,-0.093039,0.48698,0.19484,0.37143,0.34655,-0.24068,-0.6339,-2.0919,0.045868,0.074784,0.046075,-0.30033,-0.1478,-1.1777,-0.21256,-0.053453,-0.016247,-0.095656,0.16181,0.28826
-0.0044575,-0.014205,-0.046089,-0.0059522,0.0073642,0.57683,0.24329,0.42242,0.32105,-0.31515,-0.64486,-2.2245,0.054433,0.053825,0.032271,-0.35009,-0.14918,-1.019,-0.14821,-0.055661,-0.028633,-0.094198,0.13391,0.20315
0.0049197,-0.016774,-0.048738,-0.00016902,0.10898,0.67348,0.30751,0.47159,0.28375,-0.43053,-0.62041,-2.2906,0.064316,0.026333,0.016093,-0.37957,-0.1462,-0.86061,-0.092487,-0.06372,-0.034165,-0.091243,0.097102,0.13609
0.012729,-0.019791,-0.047082,0.0037843,0.20779,0.76518,0.37585,0.52046,0.24665,-0.54665,-0.54625,-2.2747,0.070531,-0.0045618,0.00031628,-0.37783,-0.14297,-0.77043,-0.057442,-0.074186,-0.036423,-0.085565,0.057471,0.083527
0.015308,-0.02163,-0.039091,0.0048432,0.29971,0.84506,0.4393,0.56547,0.21843,-0.62422,-0.43118,-2.1937,0.071491,-0.034967,-0.012193,-0.3501,-0.14272,-0.77901,-0.044334,-0.07974,-0.038248,-0.077451,0.018087,0.034327
0.012512,-0.020674,-0.025509,0.004005,0.37853,0.91329,0.494,0.60109,0.19855,-0.64668,-0.29835,-2.0705,0.068913,-0.060407,-0.018501,-0.31555,-0.14639,-0.8724,-0.04648,-0.075203,-0.039754,-0.068825,-0.019211,-0.023938
0.007276,-0.016166,-0.0095809,0.0027868,0.43625,0.97421,0.53961,0.62638,0.17899,-0.62618,-0.167,-1.9029,0.06581,-0.07673,-0.016621,-0.29251,-0.15365,-1.0068,-0.05488,-0.06225,-0.03946,-0.061859,-0.050136,-0.09669
0.0030509,-0.0091449,0.0045169,0.0018063,0.46819,1.0314,0.576,0.64873,0.15187,-0.59168,-0.040231,-1.6626,0.064147,-0.081585,-0.0070055,-0.28217,-0.16456,-1.1335,-0.061807,-0.048393,-0.037047,-0.057196,-0.066793,-0.17899
0.0014796,-0.0024638,0.01361,0.00072718,0.47898,1.0849,0.60163,0.68056,0.11601,-0.57019,0.091269,-1.3318,0.063671,-0.075714,0.0068145,-0.26467,-0.17965,-1.2194,-0.061259,-0.040854,-0.034687,-0.053205,-0.06196,-0.26039
0.0020671,0.00078246,0.016751,-0.00076889,0.48326,1.1316,0.61485,0.73083,0.077025,-0.57526,0.23394,-0.9424,0.062521,-0.063111,0.019408,-0.21182,-0.19814,-1.2565,-0.048778,-0.040645,-0.03539,-0.046852,-0.036375,-0.33417
0.0036007,-0.00035481,0.015289,-0.0022568,0.49828,1.1666,0.61589,0.79819,0.041269,-0.60801,0.37924,-0.57319,0.059016,-0.049557,0.026141,-0.10722,-0.21626,-1.257,-0.023138,-0.042039,-0.039954,-0.035662,-0.0025411,-0.40282
0.0056022,-0.003471,0.012173,-0.002874,0.53299,1.1851,0.60658,0.87137,0.0093768,-0.66506,0.50591,-0.30158,0.053198,-0.039996,0.025845,0.041434,-0.22806,-1.2392,0.010924,-0.037896,-0.045652,-0.01953,0.019764,-0.47506
0.0084501,-0.0042524,0.011114,-0.0022243,0.58228,1.1831,0.58722,0.93673,-0.024967,-0.7435,0.59454,-0.15011,0.046822,-0.036136,0.021622,0.20653,-0.22873,-1.2115,0.042465,-0.026172,-0.048253,-0.0012322,0.014252,-0.55695
0.012404,0.00014126,0.015712,-0.0008245,0.6309,1.1612,0.55375,0.98674,-0.070309,-0.83872,0.64104,-0.079179,0.04173,-0.035838,0.018969,0.35662,-0.2181,-1.1653,0.058999,-0.011987,-0.045637,0.014804,-0.022769,-0.64552
0.016833,0.0084451,0.028206,0.00041051,0.6638,1.1283,0.49873,1.0224,-0.131,-0.93911,0.65719,-0.035692,0.037956,-0.034939,0.022127,0.4715,-0.20137,-1.0811,0.054134,-0.0036005,-0.039614,0.024877,-0.082069,-0.73167
0.020511,0.015846,0.047896,0.0010854,0.67439,1.1033,0.41656,1.0478,-0.20389,-1.0254,0.65888,-0.012659,0.033359,-0.030488,0.030979,0.54631,-0.18605,-0.94668,0.032756,-0.00589,-0.034241,0.028083,-0.1496,-0.81153
0.02256,0.017585,0.070296,0.0016265,0.66546,1.1101,0.30922,1.0625,-0.27961,-1.0776,0.65393,-0.060654,0.025379,-0.023214,0.040769,0.58511,-0.17755,-0.77316,0.0091696,-0.016882,-0.032424,0.02668,-0.21508,-0.89747
0.022956,0.012754,0.088361,0.0025783,0.6443,1.1665,0.18753,1.0585,-0.34621,-1.0859,0.641,-0.23673,0.013537,-0.017284,0.045148,0.59229,-0.17648,-0.5948,-0.001331,-0.030064,-0.034269,0.024411,-0.2727,-1.0189
0.022116,0.0051024,0.095834,0.0035915,0.61824,1.2731,0.066577,1.0258,-0.39253,-1.057,0.61944,-0.53865,0.00041107,-0.017342,0.04064,0.56974,-0.17962,-0.44949,0.0082612,-0.040198,-0.038735,0.023969,-0.31323,-1.2083
0.020131,0.00017181,0.09069,0.003242,0.59436,1.4101,-0.041477,0.96265,-0.41079,-1.0102,0.59891,-0.89027,-0.010078,-0.024922,0.029354,0.52019,-0.18314,-0.35303,0.033334,-0.047534,-0.046463,0.025536,-0.31647,-1.4797
0.016551,0.0011858,0.076017,0.00012518,0.58126,1.5445,-0.13179,0.88064,-0.39931,-0.96816,0.59764,-1.1949,-0.015913,-0.03704,0.017787,0.45157,-0.18521,-0.28777,0.062753,-0.056912,-0.060138,0.027497,-0.25535,-1.812
0.010986,0.0070615,0.057474,-0.0055854,0.58746,1.6458,-0.20536,0.80103,-0.36479,-0.94561,0.62954,-1.4042,-0.019121,-0.048163,0.012454,0.37689,-0.18569,-0.2167,0.088369,-0.072725,-0.081138,0.028598,-0.11381,-2.1497
0.003905,0.013905,0.039336,-0.011552,0.61535,1.7007,-0.26346,0.74264,-0.32146,-0.94596,0.69175,-1.5294,-0.024952,-0.054082,0.015486,0.3098,-0.18392,-0.11342,0.11137,-0.094248,-0.10543,0.02955,0.092727,-2.4229
-0.0031741,0.018329,0.022413,-0.014443,0.65527,1.7179,-0.3031,0.71111,-0.28492,-0.96421,0.76466,-1.5813,-0.038583,-0.054632,0.023493,0.25988,-0.17715,0.016162,0.1403,-0.11538,-0.12324,0.032582,0.31246,-2.5754
-0.0083449,0.019632,0.0054111,-0.012172,0.68734,1.7224,-0.31751,0.69708,-0.26334,-0.99307,0.82539,-1.502,-0.061778,-0.053119,0.030424,0.23109,-0.1618,0.13912,0.18234,-0.12897,-0.12414,0.039278,0.47801,-2.585
-0.010402,0.019324,-0.011889,-0.0055073,0.69226,1.7409,-0.30178,0.68451,-0.25241,-1.0271,0.86291,-1.177,-0.09179,-0.053095,0.032151,0.22324,-0.13664,0.22449,0.23497,-0.1319,-0.10394,0.048702,0.54353,-2.4645
-0.0096216,0.018986,-0.026855,0.0022947,0.66447,1.7875,-0.25916,0.66225,-0.23942,-1.0627,0.8817,-0.54008,-0.12297,-0.055296,0.029227,0.23346,-0.10512,0.2728,0.28519,-0.12643,-0.067866,0.057571,0.51326,-2.2478
-0.0076923,0.018703,-0.035429,0.0076819,0.61702,1.8552,-0.20244,0.6299,-0.21437,-1.0969,0.89148,0.31272,-0.1497,-0.057331,0.025907,0.25581,-0.074186,0.32104,0.31733,-0.11684,-0.027109,0.062446,0.43895,-1.9719
-0.0067004,0.017298,-0.035503,0.0092107,0.5736,1.9189,-0.1482,0.59438,-0.17934,-1.125,0.8939,1.1191,-0.16873,-0.056272,0.026522,0.28043,-0.050276,0.41816,0.32326,-0.10478,0.0084076,0.062054,0.38476,-1.6673
-0.0076103,0.013705,-0.02919,0.0083568,0.55338,1.9463,-0.10677,0.56128,-0.14724,-1.1421,0.87962,1.5912,-0.18,-0.051779,0.032214,0.29475,-0.035445,0.58962,0.30691,-0.087855,0.035252,0.057807,0.3839,-1.359
-0.0091773,0.0079381,-0.021945,0.0081424,0.56036,1.9143,-0.074805,0.52897,-0.13033,-1.1441,0.83919,1.6059,-0.18626,-0.046979,0.040483,0.28758,-0.026943,0.81809,0.27964,-0.063132,0.055995,0.052238,0.41852,-1.0692
-0.0082909,0.00094992,-0.019226,0.010655,0.58437,1.8207,-0.036823,0.4903,-0.12822,-1.1296,0.7771,1.2921,-0.19168,-0.046277,0.047474,0.25349,-0.020478,1.0537,0.25065,-0.032371,0.074578,0.046933,0.43736,-0.81406
-0.0020074,-0.0060469,-0.023239,0.015351,0.61111,1.6861,0.024147,0.43981,-0.1266,-1.1005,0.71442,0.93233,-0.20009,-0.051916,0.050847,0.19412,-0.014408,1.2437,0.22054,-0.0035975,0.092306,0.041722,0.39584,-0.59582
0.0098117,-0.011887,-0.03203,0.01941,0.63094,1.5429,0.11334,0.3801,-0.10902,-1.0614,0.6753,0.75293,-0.21297,-0.062106,0.050916,0.11555,-0.011364,1.3587,0.18336,0.013223,0.10775,0.035492,0.2861,-0.40084
0.023287,-0.015305,-0.041152,0.019868,0.63974,1.4172,0.21798,0.322,-0.07203,-1.0188,0.66776,0.76899,-0.22817,-0.072166,0.049515,0.024299,-0.016015,1.3981,0.13496,0.013342,0.11946,0.027385,0.13458,-0.21037
0.032192,-0.01506,-0.046433,0.015928,0.63364,1.3145,0.31331,0.2784,-0.030369,-0.98037,0.67527,0.80955,-0.24039,-0.077684,0.047983,-0.074557,-0.030868,1.3772,0.080292,0.0011542,0.12777,0.017145,-0.02633,-0.018738
0.031873,-0.010776,-0.046037,0.0097267,0.60588,1.2188,0.37719,0.25647,-0.0070178,-0.95452,0.66736,0.69555,-0.24399,-0.077143,0.046117,-0.17592,-0.05348,1.3107,0.033079,-0.012776,0.13356,0.0045757,-0.18426,0.15597
0.022704,-0.003862,-0.04089,0.0048933,0.5509,1.1065,0.40334,0.25342,-0.016013,-0.9497,0.62131,0.41609,-0.23648,-0.072181,0.042776,-0.27235,-0.077165,1.2064,0.0076355,-0.019415,0.13549,-0.010814,-0.34562,0.27974
0.010246,0.0026784,-0.033677,0.0039073,0.47224,0.96578,0.40356,0.25844,-0.052224,-0.97285,0.53814,0.15298,-0.22049,-0.065691,0.037237,-0.35428,-0.094522,1.0707,0.0089574,-0.017448,0.12918,-0.029308,-0.50935,0.32489
0.0016201,0.0058631,-0.027187,0.0062211,0.38546,0.80742,0.39802,0.25892,-0.096146,-1.026,0.4406,0.1342,-0.20237,-0.059602,0.029936,-0.41377,-0.10115,0.91626,0.02873,-0.013007,0.10977,-0.050192,-0.64209,0.29008
0.00072457,0.0046466,-0.02289,0.0087156,0.31128,0.65878,0.40121,0.24717,-0.12888,-1.1026,0.35547,0.43976,-0.18834,-0.054052,0.022041,-0.44918,-0.097201,0.76277,0.050507,-0.013542,0.075898,-0.071856,-0.6822,0.20407
0.0060103,0.0004504,-0.020401,0.0083208,0.26311,0.54597,0.41416,0.22347,-0.1444,-1.1868,0.29463,0.92002,-0.18081,-0.048162,0.014479,-0.46674,-0.086233,0.63099,0.060463,-0.021271,0.031426,-0.093036,-0.57476,0.11279
0.012516,-0.0042169,-0.018081,0.0047984,0.23898,0.47758,0.4279,0.19414,-0.14974,-1.2585,0.24888,1.2904,-0.17771,-0.041263,0.0074314,-0.47705,-0.072746,0.53518,0.056019,-0.031679,-0.016647,-0.11404,-0.31203,0.06238
0.016256,-0.007786,-0.014391,0.0012784,0.22399,0.44195,0.43374,0.16625,-0.15522,-1.303,0.19814,1.3248,-0.17502,-0.033381,0.00063678,-0.48895,-0.060097,0.48116,0.046278,-0.037843,-0.062144,-0.13651,0.053279,0.089644
0.017096,-0.010416,-0.009071,0.0018014,0.20113,0.41866,0.43103,0.14292,-0.16479,-1.3188,0.12903,0.99769,-0.17044,-0.02486,-0.0060649,-0.50473,-0.049608,0.4702,0.044284,-0.036344,-0.10225,-0.16161,0.43338,0.22004
0.01777,-0.012915,-0.0032919,0.0077054,0.16145,0.39352,0.42633,0.12252,-0.17509,-1.3177,0.046179,0.47768,-0.16501,-0.015893,-0.012677,-0.51992,-0.040557,0.50421,0.057133,-0.029453,-0.13691,-0.18813,0.75007,0.46474
0.020286,-0.015082,0.001286,0.015982,0.10708,0.36522,0.42576,0.10236,-0.18222,-1.3148,-0.030094,-0.0062667,-0.16161,-0.0065851,-0.019554,-0.52715,-0.030452,0.58698,0.081259,-0.021999,-0.16617,-0.21227,0.9659,0.81194
0.023381,-0.015337,0.0037127,0.021302,0.046895,0.34013,0.42847,0.083411,-0.18808,-1.3155,-0.076697,-0.31249,-0.16171,0.0026855,-0.027778,-0.52102,-0.015596,0.72028,0.10601,-0.016093,-0.18821,-0.22948,1.0828,1.2196
0.023563,-0.012161,0.0042213,0.020211,-0.0096409,0.32248,0.42732,0.071571,-0.19923,-1.3088,-0.081076,-0.44399,-0.16341,0.011297,-0.038656,-0.50083,0.0075932,0.89765,0.12213,-0.0086598,-0.1994,-0.23701,1.1171,1.6218
0.018706,-0.0058801,0.0037524,0.013907,-0.05611,0.30963,0.41584,0.073444,-0.21972,-1.2734,-0.0461,-0.49554,-0.16255,0.018958,-0.052432,-0.47,0.0405,1.1008,0.12844,0.0061158,-0.19623,-0.23495,1.0776,1.9529
0.010601,0.0011389,0.00321,0.0070561,-0.089727,0.29591,0.39449,0.089386,-0.24537,-1.1917,0.014721,-0.55508,-0.15614,0.026088,-0.067181,-0.43334,0.080577,1.3023,0.13212,0.031801,-0.17725,-0.22529,0.9645,2.1773
0.0037837,0.006243,0.0032325,0.0036594,-0.11128,0.2796,0.37031,0.10961,-0.26592,-1.0617,0.085872,-0.64334,-0.14489,0.033201,-0.079004,-0.39445,0.12159,1.4747,0.1434,0.066771,-0.14385,-0.20978,0.78564,2.3021
0.0015638,0.0085243,0.004482,0.0037216,-0.12535,0.26553,0.35045,0.11762,-0.27344,-0.89947,0.15534,-0.72579,-0.1325,0.039535,-0.083772,-0.35467,0.15646,1.6024,0.16951,0.1058,-0.099723,-0.18852,0.56803,2.3649
0.0029696,0.009115,0.0077216,0.0037707,-0.13913,0.26077,0.33601,0.09978,-0.26933,-0.72828,0.21471,-0.76607,-0.12211,0.042309,-0.079421,-0.31392,0.1814,1.6882,0.21153,0.14444,-0.04959,-0.16033,0.35018,2.4015
0.0035842,0.0095135,0.013184,0.00063724,-0.1581,0.26799,0.3223,0.054961,-0.26314,-0.56477,0.25694,-0.76409,-0.11306,0.037842,-0.067227,-0.2722,0.1983,1.7499,0.26456,0.18188,0.0022774,-0.12439,0.16005,2.4205
