7.5243e-011,5.3828e-010,4.8811e-010,7.042e-010,3.7236e-010,3.7621e-010,1.3312e-010,9.5501e-010,-2.9904e-010,5.1127e-010,7.0806e-010,6.1159e-010,1.0177e-008,-1.7576e-009,-1.6727e-009,5.8362e-009,-3.6464e-010,5.8477e-009,-1.0901e-009,4.8811e-010,-6.7333e-010,1.1094e-009,1.1788e-009,2.1029e-010
1.8824e-009,1.4751e-008,1.3581e-008,1.9772e-008,1.0475e-008,1.028e-008,4.0452e-009,2.634e-008,-8.3833e-009,1.3858e-008,1.9458e-008,1.6927e-008,2.8655e-007,-4.7515e-008,-4.5687e-008,1.5874e-007,-9.9876e-009,1.6204e-007,-3.0635e-008,1.3434e-008,-1.8425e-008,3.0721e-008,3.2455e-008,5.981e-009
2.2725e-008,1.9653e-007,1.835e-007,2.6985e-007,1.4324e-007,1.3641e-007,5.9396e-008,3.5311e-007,-1.1426e-007,1.8256e-007,2.5991e-007,2.278e-007,3.9289e-006,-6.2217e-007,-6.0552e-007,2.0946e-006,-1.3288e-007,2.1835e-006,-4.1922e-007,1.7929e-007,-2.4501e-007,4.1362e-007,4.3421e-007,8.2532e-008
1.7648e-007,1.696e-006,1.6037e-006,2.3848e-006,1.2685e-006,1.1711e-006,5.6203e-007,3.0651e-006,-1.0087e-006,1.5574e-006,2.2483e-006,1.986e-006,3.4958e-005,-5.2522e-006,-5.186e-006,1.7857e-005,-1.1436e-006,1.9065e-005,-3.7216e-006,1.5452e-006,-2.1095e-006,3.6067e-006,3.7604e-006,7.3628e-007
9.9291e-007,1.0654e-005,1.0186e-005,1.5336e-005,8.1743e-006,7.3109e-006,3.8555e-006,1.9363e-005,-6.4824e-006,9.6709e-006,1.4155e-005,1.261e-005,0.00022692,-3.2085e-005,-3.2238e-005,0.00011048,-7.1518e-006,0.00012124,-2.4094e-005,9.6653e-006,-1.3216e-005,2.2892e-005,2.3692e-005,4.7739e-006
4.3289e-006,5.1903e-005,5.0074e-005,7.6448e-005,4.0837e-005,3.5369e-005,2.0447e-005,9.484e-005,-3.2311e-005,4.6578e-005,6.9117e-005,6.2139e-005,0.0011454,-0.00015085,-0.00015484,0.00052819,-3.4605e-005,0.00059843,-0.00012122,4.6734e-005,-6.4203e-005,0.00011267,0.00011568,2.3976e-005
1.5325e-005,0.00020396,0.00019809,0.0003072,0.00016448,0.00013797,8.7272e-005,0.00037463,-0.00012993,0.00018099,0.00027226,0.00024729,0.0046784,-0.00056629,-0.00059694,0.0020277,-0.00013461,0.0023852,-0.00049311,0.00018167,-0.00025157,0.00044724,0.00045523,9.7071e-005
4.5787e-005,0.00066363,0.00064696,0.0010216,0.00054825,0.00044583,0.00030807,0.0012253,-0.00043284,0.00058264,0.00088835,0.00081635,0.015885,-0.0017358,-0.0018933,0.0064083,-0.00043158,0.0078858,-0.0016656,0.00058295,-0.0008165,0.0014698,0.0014823,0.00032548
0.00011974,0.0018204,0.0017751,0.0028625,0.00154,0.0012166,0.00091697,0.0033793,-0.0012167,0.0015825,0.0024458,0.0022783,0.045702,-0.0043958,-0.0050179,0.016947,-0.0011587,0.022039,-0.0047603,0.0015729,-0.0022361,0.0040727,0.0040665,0.00092135
0.00028387,0.0042621,0.004139,0.006844,0.0036909,0.0028445,0.0023342,0.0079604,-0.002924,0.0036726,0.0057559,0.0054491,0.11297,-0.0092085,-0.011209,0.037862,-0.0026282,0.052788,-0.011666,0.0036172,-0.0052364,0.0096356,0.0095172,0.002233
0.00062808,0.008582,0.0082549,0.014079,0.0076091,0.0057616,0.0051346,0.016152,-0.0060618,0.0073439,0.011682,0.011279,0.24233,-0.01573,-0.021131,0.071673,-0.0050445,0.10947,-0.024748,0.0071624,-0.010582,0.019627,0.019158,0.004681
0.001317,0.014909,0.014107,0.025041,0.01355,0.010204,0.0098341,0.028366,-0.010903,0.012711,0.02056,0.020336,0.45426,-0.020843,-0.033339,0.11435,-0.008121,0.19799,-0.045729,0.012316,-0.018568,0.034578,0.03331,0.0085503
0.0026129,0.022296,0.020575,0.038557,0.020846,0.015938,0.016489,0.04316,-0.017065,0.019056,0.031447,0.032063,0.74736,-0.01773,-0.042862,0.1507,-0.010646,0.31409,-0.073845,0.018551,-0.028386,0.052726,0.050034,0.013673
0.0048449,0.028412,0.025284,0.051298,0.027561,0.02216,0.024298,0.056707,-0.02324,0.024658,0.041763,0.04425,1.0811,0.0028335,-0.041579,0.15494,-0.010365,0.43903,-0.10426,0.024787,-0.03785,0.069329,0.064615,0.019193
0.0082765,0.03005,0.025423,0.058652,0.0309,0.027779,0.031565,0.063733,-0.027475,0.027292,0.047955,0.053353,1.3739,0.047823,-0.02181,0.10042,-0.0045823,0.54354,-0.12837,0.030029,-0.044008,0.077836,0.070868,0.023655
0.012896,0.024596,0.019491,0.057181,0.028529,0.031985,0.036292,0.060096,-0.028085,0.025423,0.047274,0.055908,1.5274,0.1155,0.017667,-0.023623,0.0084989,0.60124,-0.13695,0.034276,-0.044643,0.073162,0.064337,0.025561
0.01825,0.011824,0.0089684,0.047369,0.02021,0.034723,0.037211,0.045733,-0.024784,0.019455,0.039763,0.050484,1.4736,0.1917,0.06697,-0.19861,0.028319,0.60497,-0.12529,0.038867,-0.039855,0.055488,0.045719,0.02415
0.023493,-0.0052267,-0.0015591,0.034373,0.0085586,0.036615,0.034595,0.02576,-0.019158,0.012016,0.028898,0.038914,1.2165,0.25368,0.10668,-0.3787,0.051446,0.57324,-0.096972,0.045598,-0.032453,0.031686,0.021785,0.019933
0.0277,-0.021214,-0.0066024,0.025352,-0.0019882,0.038299,0.030141,0.0082276,-0.013878,0.0067013,0.019921,0.025724,0.83958,0.28177,0.11717,-0.51196,0.072711,0.5389,-0.063128,0.054923,-0.026499,0.012375,0.0022314,0.014506
0.030286,-0.031064,-0.0032468,0.024608,-0.0076608,0.039696,0.025856,-0.00052774,-0.010942,0.0058311,0.016574,0.015809,0.46519,0.27243,0.091027,-0.56872,0.087579,0.52539,-0.036601,0.064644,-0.024727,0.0057211,-0.0061019,0.009683
0.031258,-0.032567,0.0065657,0.030216,-0.0076894,0.039925,0.022786,0.00017431,-0.010207,0.0088123,0.018509,0.011794,0.18824,0.24273,0.039528,-0.55658,0.094331,0.5284,-0.024621,0.070569,-0.026716,0.012081,-0.0036308,0.0065018
0.031136,-0.02718,0.01699,0.035335,-0.0047279,0.038027,0.020633,0.005231,-0.009433,0.012486,0.02149,0.012889,0.029033,0.22095,-0.012817,-0.50955,0.094474,0.51893,-0.025398,0.069098,-0.029317,0.023726,0.0025464,0.0048427
0.030609,-0.018388,0.022148,0.033765,-0.0029824,0.033876,0.018599,0.0077449,-0.0059845,0.013372,0.020516,0.015983,-0.062226,0.22801,-0.043126,-0.4593,0.091024,0.46672,-0.031263,0.059864,-0.029122,0.030283,0.0040845,0.0039699
0.030149,-0.0088755,0.020144,0.025287,-0.005422,0.028415,0.016598,0.0040967,0.0010789,0.010125,0.013562,0.018013,-0.15542,0.26277,-0.043713,-0.41135,0.085864,0.36502,-0.035675,0.046114,-0.025007,0.025974,-0.0024398,0.0035188
0.029749,0.0012248,0.014135,0.015969,-0.012098,0.022906,0.015559,-0.0038793,0.010163,0.0042744,0.0030451,0.017728,-0.28563,0.30241,-0.024151,-0.34503,0.078183,0.23533,-0.037996,0.032273,-0.018706,0.013124,-0.013519,0.0040076
0.02884,0.013506,0.009657,0.01278,-0.020573,0.017898,0.016429,-0.011139,0.018186,-0.0012118,-0.0061319,0.015692,-0.43471,0.31806,-0.00098957,-0.23525,0.06527,0.1083,-0.04194,0.020671,-0.013025,-0.00062856,-0.022319,0.0062768
0.026451,0.028561,0.010412,0.017162,-0.027759,0.012902,0.018791,-0.013859,0.022607,-0.0041541,-0.010277,0.012995,-0.55752,0.2941,0.015499,-0.075675,0.045208,-0.001352,-0.049413,0.010282,-0.009377,-0.0087753,-0.024634,0.010225
0.021723,0.043821,0.015873,0.023452,-0.03165,0.0071376,0.020561,-0.012154,0.022862,-0.0042952,-0.0093674,0.010147,-0.62365,0.2369,0.026255,0.11588,0.019475,-0.10258,-0.055823,-0.0014362,-0.0068312,-0.010569,-0.022095,0.014014
0.01468,0.054225,0.022346,0.023836,-0.031955,0.00064066,0.019297,-0.0090842,0.02029,-0.0026971,-0.006458,0.0071151,-0.63754,0.16765,0.037076,0.31118,-0.0066434,-0.21193,-0.051721,-0.015332,-0.0034203,-0.010287,-0.020194,0.014762
0.0068066,0.05567,0.026219,0.015421,-0.029767,-0.0053471,0.014115,-0.0074534,0.016999,-0.00044866,-0.0048449,0.0040642,-0.62418,0.10634,0.048654,0.48855,-0.026512,-0.32978,-0.029777,-0.029005,0.0016221,-0.012492,-0.023255,0.010539
0.00074269,0.048563,0.026533,0.0028869,-0.026896,-0.0091305,0.0065575,-0.0076484,0.014757,0.0018546,-0.0054923,0.0016448,-0.60087,0.059823,0.053572,0.63742,-0.035995,-0.43278,0.008911,-0.038311,0.0068217,-0.018008,-0.03089,0.0021926
-0.0011055,0.038251,0.024988,-0.0057685,-0.025162,-0.0098289,-0.00041081,-0.0082478,0.014615,0.0035599,-0.0066977,0.00041269,-0.56488,0.021688,0.043335,0.7508,-0.035973,-0.49063,0.05474,-0.040505,0.0095662,-0.02419,-0.038739,-0.0066606
0.0016579,0.031478,0.023895,-0.0064691,-0.02561,-0.0080959,-0.0045217,-0.0081457,0.017029,0.0034176,-0.0059076,0.00017231,-0.50734,-0.018817,0.018136,0.81906,-0.031508,-0.49196,0.095901,-0.036196,0.0083068,-0.028681,-0.042371,-0.011836
0.0066141,0.031492,0.024198,-0.0025636,-0.027809,-0.0057595,-0.0057502,-0.0076401,0.021892,0.00018261,-0.0019334,0.00025889,-0.43563,-0.067811,-0.010938,0.83544,-0.028029,-0.45511,0.1258,-0.028529,0.0038626,-0.0325,-0.040719,-0.011463
0.0096268,0.035849,0.025198,-0.0014166,-0.029887,-0.0047684,-0.0060907,-0.0074854,0.028311,-0.0058941,0.0041756,0.00060122,-0.37812,-0.12455,-0.030219,0.80817,-0.027313,-0.41351,0.14579,-0.02058,-0.0012474,-0.039133,-0.036337,-0.0072843
0.0073893,0.038773,0.025794,-0.007373,-0.029743,-0.0062641,-0.0078127,-0.0073852,0.034578,-0.012251,0.0099942,0.0022189,-0.36367,-0.18502,-0.034755,0.76354,-0.026413,-0.38904,0.16184,-0.013364,-0.0046936,-0.050424,-0.032805,-0.0031998
-0.00031213,0.035967,0.025705,-0.017665,-0.026872,-0.010297,-0.011618,-0.0059958,0.038833,-0.015202,0.013376,0.0061798,-0.39434,-0.24552,-0.031764,0.73181,-0.020454,-0.37718,0.17874,-0.0059384,-0.005691,-0.063447,-0.031865,-0.0021519
-0.010374,0.027644,0.025418,-0.024947,-0.023225,-0.01611,-0.016134,-0.0026159,0.040173,-0.012641,0.013636,0.011826,-0.4384,-0.30215,-0.032703,0.72563,-0.0071074,-0.35652,0.19695,0.0029198,-0.0047751,-0.071839,-0.0326,-0.0038448
-0.018496,0.017386,0.025131,-0.023971,-0.022011,-0.022613,-0.019065,0.0014041,0.039341,-0.0061213,0.011629,0.016316,-0.45246,-0.34807,-0.041322,0.73061,0.01094,-0.3125,0.21382,0.013193,-0.0025528,-0.070952,-0.032838,-0.0051976
-0.022116,0.0084096,0.024055,-0.01622,-0.025014,-0.028778,-0.01906,0.0033957,0.038244,-0.00024526,0.0089304,0.016564,-0.41517,-0.37344,-0.049219,0.71792,0.027545,-0.25314,0.22726,0.023451,0.0011155,-0.062398,-0.03117,-0.0031658
-0.02193,0.0010397,0.021034,-0.0084675,-0.030681,-0.033941,-0.016788,0.0017873,0.038542,0.00053717,0.0068056,0.012148,-0.3439,-0.37079,-0.043637,0.66845,0.037374,-0.20306,0.23791,0.031841,0.0066805,-0.053723,-0.02787,0.0024217
-0.020867,-0.0064255,0.015978,-0.0068333,-0.034876,-0.037981,-0.014448,-0.00225,0.040419,-0.0046454,0.0056057,0.0063148,-0.28043,-0.34208,-0.020787,0.58642,0.039309,-0.1826,0.24829,0.037186,0.013813,-0.053046,-0.024303,0.0084042
-0.021466,-0.014923,0.010592,-0.011821,-0.034023,-0.041333,-0.014149,-0.0057672,0.042602,-0.012288,0.0048604,0.0036327,-0.25894,-0.30087,0.007455,0.49011,0.036337,-0.19125,0.25994,0.039401,0.020973,-0.062911,-0.021681,0.010635
-0.023873,-0.023182,0.0073692,-0.018562,-0.028039,-0.044713,-0.016516,-0.006806,0.043539,-0.017148,0.0038503,0.0060389,-0.28325,-0.26599,0.020084,0.38862,0.032399,-0.20935,0.27136,0.039185,0.026252,-0.078403,-0.020256,0.0072383
-0.026092,-0.029116,0.007543,-0.021609,-0.020436,-0.048689,-0.020562,-0.0062507,0.04266,-0.01621,0.0021357,0.010906,-0.3309,-0.25011,0.0018257,0.26737,0.029189,-0.21464,0.27804,0.037412,0.028756,-0.091136,-0.01939,0.00014142
-0.026143,-0.032273,0.0098322,-0.019688,-0.01535,-0.053325,-0.024805,-0.0068937,0.040588,-0.010641,-0.00036451,0.01317,-0.37702,-0.2517,-0.045674,0.098338,0.025649,-0.19781,0.27442,0.034594,0.029189,-0.095796,-0.018193,-0.0063218
-0.02416,-0.034403,0.011323,-0.01631,-0.014133,-0.058169,-0.028523,-0.01059,0.038302,-0.0040104,-0.003682,0.0098371,-0.41481,-0.25659,-0.10494,-0.13066,0.020124,-0.16454,0.25624,0.030637,0.029094,-0.093861,-0.016212,-0.0085769
-0.022579,-0.037393,0.0099042,-0.016089,-0.014563,-0.062548,-0.032059,-0.016246,0.036269,0.0016566,-0.008033,0.002764,-0.4548,-0.24833,-0.15425,-0.39126,0.012734,-0.12523,0.22251,0.024951,0.02953,-0.091524,-0.013778,-0.0062339
-0.0243,-0.04086,0.0061732,-0.020463,-0.013359,-0.065955,-0.035985,-0.020533,0.034422,0.008359,-0.013624,-0.0029824,-0.50582,-0.21934,-0.18002,-0.61721,0.0055203,-0.084275,0.17642,0.016949,0.03048,-0.093785,-0.011892,-0.0019863
-0.030411,-0.042213,0.0030751,-0.026629,-0.0095325,-0.068285,-0.040016,-0.020642,0.03274,0.020596,-0.020216,-0.0038599,-0.55726,-0.17456,-0.18088,-0.73756,0.00032311,-0.039196,0.12492,0.0067164,0.031425,-0.099846,-0.011673,0.00072809
-0.039358,-0.039329,0.0034776,-0.030374,-0.0053351,-0.069857,-0.042747,-0.016545,0.03138,0.040774,-0.02697,-0.0013653,-0.58024,-0.12559,-0.16277,-0.71953,-0.0033014,0.011289,0.076938,-0.0045874,0.032277,-0.10373,-0.013566,0.00031691
-0.048098,-0.033121,0.0076889,-0.029923,-0.0039227,-0.071279,-0.042577,-0.010894,0.029891,0.065401,-0.032847,-0.00098267,-0.54747,-0.08074,-0.13147,-0.59073,-0.007837,0.060032,0.040172,-0.014982,0.033525,-0.099459,-0.016763,-0.0021017
-0.054131,-0.027192,0.012935,-0.027272,-0.0060774,-0.073225,-0.039078,-0.0068865,0.026397,0.085677,-0.037174,-0.0073511,-0.45483,-0.039727,-0.089555,-0.42353,-0.015282,0.093317,0.018072,-0.022566,0.035476,-0.086207,-0.019309,-0.0039944
-0.056778,-0.024773,0.015113,-0.026001,-0.0092495,-0.07611,-0.033665,-0.0060866,0.018256,0.09262,-0.039805,-0.019965,-0.32655,0.0032256,-0.039037,-0.29178,-0.024771,0.10075,0.0084219,-0.026552,0.037586,-0.068993,-0.019023,-0.0035748
-0.056948,-0.025906,0.011331,-0.027837,-0.0098849,-0.079788,-0.02889,-0.0078912,0.0043545,0.083109,-0.040755,-0.033334,-0.19999,0.051275,0.014755,-0.23067,-0.032828,0.084184,0.0046378,-0.027785,0.038891,-0.05449,-0.01477,-0.0010187
-0.055973,-0.027616,0.0014192,-0.031252,-0.0067266,-0.083565,-0.026771,-0.01061,-0.012773,0.062258,-0.039876,-0.041504,-0.10305,0.099806,0.063059,-0.22798,-0.036343,0.05756,-0.00087851,-0.028379,0.039247,-0.045766,-0.0072705,0.0020922
-0.054665,-0.026817,-0.01226,-0.033315,-0.0018021,-0.086805,-0.027331,-0.012844,-0.027421,0.040253,-0.037061,-0.042884,-0.041588,0.13928,0.097671,-0.24897,-0.035674,0.037504,-0.013162,-0.030663,0.039928,-0.040466,0.0011975,0.0043416
-0.053182,-0.023053,-0.026066,-0.032901,0.0018862,-0.089873,-0.028503,-0.014013,-0.034227,0.025978,-0.032772,-0.041086,-0.004755,0.16371,0.11496,-0.27026,-0.03494,0.03249,-0.032698,-0.035982,0.042555,-0.033666,0.0081308,0.0055157
-0.051392,-0.018535,-0.036482,-0.032028,0.0036074,-0.094544,-0.027605,-0.014043,-0.032235,0.022,-0.02813,-0.041151,0.018937,0.17701,0.11595,-0.29281,-0.038903,0.038953,-0.055722,-0.043955,0.047094,-0.022511,0.012338,0.0062081
-0.049077,-0.015737,-0.041309,-0.033921,0.0057037,-0.10306,-0.023403,-0.013017,-0.025988,0.024198,-0.024162,-0.044747,0.029162,0.19068,0.10288,-0.32587,-0.048917,0.046721,-0.076264,-0.0525,0.050995,-0.0085493,0.014612,0.0065856
-0.045871,-0.015114,-0.040617,-0.0395,0.010955,-0.11611,-0.017213,-0.011252,-0.022319,0.025664,-0.020813,-0.048728,0.014563,0.21378,0.076279,-0.36297,-0.061325,0.048677,-0.088806,-0.058616,0.050802,0.0038815,0.016966,0.0058111
-0.041325,-0.015082,-0.037049,-0.045685,0.019037,-0.13122,-0.012036,-0.0094522,-0.025219,0.021572,-0.01682,-0.048251,-0.035216,0.24327,0.036294,-0.37849,-0.069734,0.046786,-0.090464,-0.05961,0.045173,0.011278,0.020903,0.0029837
-0.035424,-0.013915,-0.034756,-0.047382,0.025763,-0.1434,-0.01027,-0.0083859,-0.032975,0.011574,-0.010784,-0.041484,-0.11685,0.26298,-0.012707,-0.3512,-0.069365,0.049988,-0.082064,-0.054337,0.036569,0.013309,0.025977,-0.001221
-0.02915,-0.011425,-0.036933,-0.041688,0.026291,-0.14825,-0.011771,-0.0082072,-0.039956,-0.0013367,-0.0026003,-0.031611,-0.2102,0.25343,-0.059012,-0.29098,-0.060072,0.065863,-0.067796,-0.043885,0.029742,0.012247,0.029913,-0.0040861
-0.024304,-0.0087944,-0.043389,-0.030688,0.019587,-0.14525,-0.0139,-0.0082028,-0.041392,-0.013746,0.0061033,-0.024379,-0.28711,0.20531,-0.086205,-0.23707,-0.045925,0.092643,-0.053588,-0.031273,0.028066,0.010671,0.030405,-0.0025984
-0.022341,-0.0070609,-0.050264,-0.020301,0.0099781,-0.13863,-0.013591,-0.0074573,-0.037039,-0.02393,0.012961,-0.023458,-0.32573,0.12671,-0.081009,-0.2228,-0.032088,0.11787,-0.044803,-0.020129,0.030933,0.0098626,0.027321,0.0037595
-0.023037,-0.0061077,-0.05269,-0.016027,0.0040606,-0.1345,-0.0097439,-0.0058782,-0.030769,-0.031833,0.016463,-0.027624,-0.32026,0.038415,-0.041044,-0.23744,-0.021702,0.12517,-0.044214,-0.012924,0.034655,0.010114,0.02344,0.011803
-0.024279,-0.0052184,-0.048635,-0.019094,0.0055338,-0.13637,-0.0039378,-0.0044419,-0.026867,-0.037716,0.016822,-0.032073,-0.27977,-0.038934,0.023273,-0.22518,-0.014963,0.10458,-0.051173,-0.0098325,0.03605,0.012079,0.022819,0.016652
-0.023429,-0.0044189,-0.040755,-0.026042,0.01248,-0.14257,0.00099801,-0.0042298,-0.026565,-0.041212,0.015512,-0.032527,-0.21804,-0.096261,0.094196,-0.12962,-0.010478,0.059007,-0.062323,-0.0089954,0.035324,0.017329,0.027822,0.015685
-0.019269,-0.0049162,-0.034447,-0.031733,0.019438,-0.14786,0.0031565,-0.0051809,-0.027752,-0.041714,0.014038,-0.028613,-0.14267,-0.13816,0.15559,0.051819,-0.0071592,0.0016969,-0.073427,-0.0080555,0.035497,0.027271,0.03717,0.010981
-0.012882,-0.0079584,-0.033586,-0.033004,0.022246,-0.14763,0.0025583,-0.0059624,-0.027654,-0.039427,0.012941,-0.023821,-0.052427,-0.17526,0.19937,0.25412,-0.0049568,-0.053497,-0.081315,-0.0058263,0.03894,0.041307,0.046739,0.0077418
-0.0066793,-0.013225,-0.037556,-0.030089,0.02121,-0.14121,0.00041135,-0.0052707,-0.025655,-0.035727,0.011677,-0.022297,0.055181,-0.21354,0.22591,0.38883,-0.0042174,-0.10191,-0.084953,-0.0028222,0.04444,0.055988,0.052588,0.0096808
-0.0024233,-0.018489,-0.042195,-0.025287,0.01993,-0.1315,-0.0022175,-0.0032757,-0.023692,-0.032307,0.0092788,-0.025293,0.17263,-0.2487,0.23984,0.41096,-0.0048017,-0.15045,-0.085231,-0.00035634,0.047711,0.066129,0.053675,0.015378
1.3616e-005,-0.021093,-0.043701,-0.020683,0.021297,-0.1215,-0.0047913,-0.0016027,-0.024232,-0.029925,0.0053309,-0.030166,0.27781,-0.26902,0.2452,0.3506,-0.006139,-0.21105,-0.083817,0.00080829,0.044991,0.067233,0.051889,0.019056
0.0021132,-0.01997,-0.041891,-0.016999,0.024668,-0.11116,-0.0065516,-0.0017156,-0.027989,-0.028055,0.00070983,-0.032654,0.34176,-0.26366,0.24346,0.28052,-0.00817,-0.29048,-0.081982,0.00091572,0.03637,0.057594,0.049406,0.015358
0.004998,-0.016389,-0.039855,-0.014045,0.026804,-0.097373,-0.0059409,-0.003363,-0.03348,-0.025773,-0.0024159,-0.030529,0.34459,-0.23042,0.23458,0.2485,-0.011992,-0.3847,-0.080171,0.00043566,0.025782,0.038795,0.045941,0.0039883
0.0081796,-0.012807,-0.040511,-0.011644,0.025285,-0.07711,-0.001484,-0.0048634,-0.038477,-0.0229,-0.0016181,-0.025626,0.28808,-0.17808,0.21911,0.23528,-0.019144,-0.48136,-0.078467,-0.00092909,0.017695,0.014584,0.038677,-0.0099103
0.0099477,-0.010968,-0.043446,-0.0098773,0.020865,-0.050882,0.0062808,-0.0051187,-0.041759,-0.020184,0.0040265,-0.022577,0.19534,-0.12257,0.19878,0.17743,-0.029839,-0.56774,-0.077373,-0.004127,0.013519,-0.01087,0.025256,-0.019968
0.0090539,-0.010994,-0.045114,-0.0086843,0.01653,-0.023328,0.01381,-0.0052475,-0.043572,-0.018391,0.012552,-0.025135,0.09789,-0.079701,0.17552,0.037064,-0.041752,-0.63731,-0.078057,-0.0094424,0.010889,-0.034245,0.0071722,-0.023539
0.0061458,-0.012077,-0.042191,-0.0076323,0.014609,-0.00037284,0.016119,-0.0078419,-0.044725,-0.017439,0.019456,-0.032966,0.019572,-0.058274,0.15004,-0.14196,-0.050873,-0.69048,-0.08166,-0.015412,0.0062655,-0.053448,-0.0098173,-0.023052
0.0035751,-0.013838,-0.034929,-0.0063365,0.015105,0.014836,0.01024,-0.014204,-0.045483,-0.016688,0.020141,-0.041494,-0.031348,-0.056905,0.12153,-0.24267,-0.054161,-0.73057,-0.088099,-0.01949,-0.0015956,-0.067432,-0.019198,-0.022904
0.0036229,-0.016862,-0.027438,-0.0050279,0.016898,0.024013,-0.002142,-0.022221,-0.04535,-0.016153,0.013041,-0.045108,-0.058739,-0.066092,0.088589,-0.14861,-0.05198,-0.75959,-0.095369,-0.020263,-0.010306,-0.07596,-0.018501,-0.025149
0.0066284,-0.021914,-0.024614,-0.0044741,0.020067,0.032424,-0.015302,-0.027286,-0.043801,-0.017197,0.0010305,-0.041366,-0.070302,-0.074557,0.050117,0.16916,-0.048085,-0.77739,-0.10014,-0.019125,-0.015644,-0.079464,-0.011324,-0.028065
0.010697,-0.028694,-0.028371,-0.0051837,0.026297,0.045446,-0.023157,-0.025909,-0.041063,-0.021552,-0.010335,-0.032908,-0.073823,-0.076562,0.0051704,0.61502,-0.046863,-0.7839,-0.099517,-0.019406,-0.014828,-0.078764,-0.0046411,-0.028581
0.013363,-0.035449,-0.03625,-0.0067006,0.036486,0.065667,-0.023181,-0.018898,-0.038102,-0.029263,-0.016669,-0.025524,-0.080622,-0.075765,-0.047955,1.0114,-0.049962,-0.78113,-0.092844,-0.023259,-0.008586,-0.0745,-0.003447,-0.02578
0.013809,-0.039896,-0.043307,-0.0077856,0.048128,0.092373,-0.017503,-0.011103,-0.035792,-0.037521,-0.017746,-0.0238,-0.10919,-0.082887,-0.11167,1.1973,-0.055105,-0.77258,-0.082253,-0.029133,-0.00056433,-0.066551,-0.0071342,-0.021923
0.013661,-0.040678,-0.045602,-0.0073728,0.055896,0.12315,-0.010571,-0.0076863,-0.034046,-0.04192,-0.017221,-0.027739,-0.17966,-0.10844,-0.18677,1.1225,-0.058116,-0.76093,-0.071413,-0.03259,0.0051866,-0.05401,-0.01055,-0.02017
0.015509,-0.038174,-0.042602,-0.005392,0.055798,0.15588,-0.0055973,-0.010057,-0.03179,-0.039543,-0.019305,-0.033024,-0.29849,-0.15541,-0.26875,0.87849,-0.056427,-0.74679,-0.063292,-0.030289,0.0065882,-0.035954,-0.0087114,-0.021539
0.020386,-0.034084,-0.036983,-0.0027204,0.049304,0.18965,-0.0027474,-0.014935,-0.027922,-0.031458,-0.025233,-0.03465,-0.44507,-0.21719,-0.34606,0.64577,-0.051087,-0.72988,-0.058459,-0.023654,0.0041874,-0.012478,-0.0010791,-0.024218
0.026503,-0.030304,-0.032313,-0.00042355,0.043096,0.2243,-0.00016791,-0.017262,-0.022508,-0.022403,-0.032469,-0.030927,-0.57531,-0.28182,-0.40328,0.5863,-0.045685,-0.71125,-0.055105,-0.018522,8.4596e-005,0.014959,0.0081802,-0.025739
0.030514,-0.028019,-0.030484,0.00093349,0.04393,0.25941,0.0036163,-0.01434,-0.017128,-0.017658,-0.037132,-0.024592,-0.64573,-0.33916,-0.42863,0.74836,-0.043324,-0.69351,-0.050691,-0.020502,-0.0036133,0.044355,0.013933,-0.025591
0.030337,-0.027522,-0.030654,0.0013721,0.052841,0.29368,0.0083395,-0.0076636,-0.013911,-0.019446,-0.037377,-0.02023,-0.64323,-0.38511,-0.42104,1.0439,-0.044387,-0.67802,-0.044021,-0.029929,-0.0056,0.074567,0.014386,-0.02548
0.027049,-0.02852,-0.030287,0.0011501,0.064031,0.32479,0.012703,-0.0011437,-0.013908,-0.025644,-0.034748,-0.020318,-0.59702,-0.41988,-0.39095,1.3125,-0.046884,-0.6616,-0.036437,-0.041156,-0.0052643,0.10602,0.012247,-0.027009
0.024114,-0.030383,-0.027367,0.00045712,0.069704,0.34984,0.016039,0.0024381,-0.01616,-0.031746,-0.032536,-0.023333,-0.56045,-0.44267,-0.35343,1.4264,-0.048709,-0.63664,-0.031523,-0.047244,-0.0023976,0.13995,0.012002,-0.029296
0.024545,-0.032161,-0.022123,-0.00065662,0.066681,0.36608,0.018991,0.0035792,-0.018331,-0.034427,-0.03286,-0.025426,-0.57348,-0.44787,-0.31859,1.3588,-0.049513,-0.59615,-0.033629,-0.046125,0.0026472,0.17671,0.015962,-0.029171
0.028453,-0.032705,-0.016963,-0.0022796,0.058904,0.37196,0.02246,0.0051032,-0.018454,-0.033845,-0.035152,-0.023997,-0.63349,-0.42682,-0.28684,1.1718,-0.050566,-0.54037,-0.045923,-0.042707,0.0085601,0.21446,0.022568,-0.024024
0.033054,-0.0312,-0.014665,-0.0046348,0.053653,0.36796,0.025971,0.0091773,-0.016296,-0.032949,-0.037215,-0.019843,-0.69661,-0.37395,-0.25291,0.9409,-0.053054,-0.47941,-0.068726,-0.044782,0.013248,0.24953,0.028121,-0.014618
0.035001,-0.027855,-0.01623,-0.0078538,0.054951,0.35665,0.027375,0.015008,-0.013146,-0.034551,-0.037596,-0.016024,-0.70827,-0.29238,-0.21438,0.6874,-0.056731,-0.42862,-0.098817,-0.056188,0.014969,0.27822,0.03004,-0.0050278
0.032945,-0.024028,-0.020082,-0.011457,0.060095,0.34146,0.024557,0.019188,-0.010255,-0.038715,-0.036937,-0.014684,-0.63885,-0.194,-0.17629,0.37506,-0.060176,-0.39947,-0.13027,-0.073134,0.013729,0.29905,0.028659,0.00045956
0.028252,-0.021354,-0.02323,-0.014049,0.06224,0.32484,0.017772,0.018345,-0.0074684,-0.042617,-0.037131,-0.014993,-0.49817,-0.09362,-0.1471,-0.034561,-0.062102,-0.39228,-0.15682,-0.086855,0.011629,0.31407,0.026279,0.00074906
0.023581,-0.020373,-0.023404,-0.013947,0.056545,0.30718,0.010352,0.011873,-0.0034579,-0.042901,-0.03926,-0.014186,-0.3206,-0.0017261,-0.12955,-0.52816,-0.062132,-0.39639,-0.17457,-0.090189,0.011466,0.32843,0.024789,-0.0014532
0.020826,-0.019761,-0.020415,-0.010653,0.044363,0.28763,0.0067289,0.0025113,0.0025982,-0.038508,-0.042385,-0.010642,-0.13674,0.078141,-0.11524,-1.0427,-0.060259,-0.39745,-0.18347,-0.082495,0.014387,0.34837,0.024193,-0.0023529
0.020117,-0.016895,-0.015735,-0.0059235,0.032021,0.26624,0.0091206,-0.0056236,0.0095014,-0.03162,-0.044322,-0.0059153,0.04491,0.14547,-0.088781,-1.5184,-0.055934,-0.38642,-0.18615,-0.06911,0.018433,0.37793,0.023156,-0.00056787
0.020344,-0.0093051,-0.01089,-0.0030585,0.025524,0.24554,0.015647,-0.0099018,0.014296,-0.026046,-0.043637,-0.0035954,0.23415,0.19613,-0.038597,-1.9443,-0.048269,-0.36362,-0.18507,-0.05652,0.019371,0.41577,0.020647,0.0017658
0.02038,0.0041522,-0.0062317,-0.0044997,0.025907,0.22999,0.021646,-0.010655,0.014316,-0.024434,-0.040984,-0.0059358,0.44126,0.21988,0.034821,-2.3456,-0.037515,-0.33531,-0.18021,-0.047784,0.013533,0.45363,0.016904,0.0011445
0.019938,0.023175,-0.0011512,-0.0096779,0.028994,0.22321,0.023309,-0.010245,0.009328,-0.02653,-0.038618,-0.011413,0.66287,0.20593,0.11999,-2.7236,-0.026206,-0.30605,-0.16953,-0.041849,0.00068714,0.47824,0.012861,-0.0040357
0.019656,0.046604,0.0046095,-0.015184,0.029343,0.22515,0.020709,-0.010733,0.0019124,-0.029713,-0.038576,-0.015643,0.88272,0.15337,0.20347,-3.0106,-0.018201,-0.27271,-0.15182,-0.03645,-0.015219,0.47667,0.0088468,-0.01209
0.020645,0.07273,0.0099527,-0.017353,0.024736,0.23174,0.01772,-0.012215,-0.0042668,-0.031186,-0.041159,-0.015051,1.0832,0.078337,0.27893,-3.0934,-0.015889,-0.22494,-0.12952,-0.031256,-0.028165,0.443,0.0040118,-0.019572
0.023852,0.098884,0.01286,-0.015029,0.017494,0.23726,0.018897,-0.013104,-0.0068359,-0.030029,-0.044887,-0.010075,1.2559,0.010698,0.34896,-2.8922,-0.017959,-0.1516,-0.1086,-0.028343,-0.033652,0.38204,-0.0028409,-0.024051
0.029439,0.12101,0.012083,-0.010036,0.01195,0.23802,0.025928,-0.01184,-0.0058327,-0.027589,-0.047737,-0.0049775,1.4025,-0.019375,0.41921,-2.4266,-0.020132,-0.048961,-0.095216,-0.029975,-0.031349,0.30733,-0.011746,-0.025568
0.036386,0.13435,0.0086606,-0.0050804,0.010665,0.23432,0.036436,-0.0083657,-0.0029264,-0.026089,-0.048446,-0.0042465,1.5298,0.0030089,0.49073,-1.8119,-0.018677,0.074637,-0.091706,-0.036167,-0.025044,0.23403,-0.020841,-0.025766
0.042676,0.13544,0.0057667,-0.0012969,0.012695,0.22936,0.045851,-0.0041396,0.00023431,-0.02669,-0.046919,-0.0086295,1.6453,0.069945,0.55666,-1.1932,-0.013825,0.20082,-0.095196,-0.044326,-0.020062,0.17149,-0.027242,-0.02591
0.046212,0.12435,0.0065773,0.0021403,0.015051,0.22613,0.050582,-0.00093044,0.0029792,-0.028604,-0.043768,-0.014289,1.7573,0.15616,0.60514,-0.67605,-0.0099512,0.30926,-0.10005,-0.051078,-0.019972,0.12022,-0.028995,-0.025808
0.04606,0.10526,0.011569,0.0061799,0.015597,0.2248,0.049996,0.00035915,0.0052901,-0.029951,-0.039708,-0.015953,1.8728,0.2335,0.6252,-0.30445,-0.012158,0.38781,-0.10204,-0.054529,-0.024665,0.074883,-0.026578,-0.024456
0.043109,0.084644,0.017466,0.010003,0.014572,0.22258,0.04603,-0.00011356,0.0069632,-0.029604,-0.035357,-0.011481,1.9896,0.28467,0.61139,-0.081685,-0.022,0.4393,-0.10077,-0.055126,-0.030838,0.029959,-0.022678,-0.021509
0.039542,0.067979,0.019116,0.011274,0.013575,0.21575,0.041273,-0.001763,0.0074067,-0.028348,-0.031325,-0.003965,2.0847,0.3079,0.565,0.011341,-0.035875,0.48079,-0.098614,-0.054758,-0.034343,-0.016563,-0.020303,-0.01804
0.03738,0.057122,0.013326,0.0084268,0.013357,0.20206,0.037174,-0.0041749,0.0063273,-0.028237,-0.028164,0.00053757,2.1114,0.31099,0.49236,0.025877,-0.0473,0.53445,-0.09758,-0.055072,-0.032861,-0.063628,-0.020691,-0.015879
0.037147,0.050165,0.0017378,0.0026627,0.012772,0.18172,0.033503,-0.0071334,0.0044606,-0.030603,-0.026076,-0.0021352,2.0153,0.30077,0.40193,0.058081,-0.051146,0.61446,-0.09699,-0.056303,-0.027298,-0.10963,-0.022685,-0.016179
0.037635,0.043653,-0.0098247,-0.0025286,0.0098342,0.15663,0.029034,-0.010344,0.0033771,-0.034562,-0.024733,-0.010742,1.7636,0.27637,0.30133,0.22035,-0.046639,0.71748,-0.094038,-0.057209,-0.021146,-0.15353,-0.024103,-0.018422
0.036852,0.035321,-0.015455,-0.0041138,0.0036363,0.12897,0.02272,-0.013446,0.004368,-0.037558,-0.023493,-0.019366,1.3707,0.23081,0.19535,0.56879,-0.037271,0.8232,-0.086398,-0.055948,-0.018209,-0.19365,-0.023902,-0.020684
0.033444,0.025245,-0.013609,-0.0020652,-0.0049218,0.10033,0.014616,-0.016432,0.0074103,-0.037614,-0.021819,-0.021787,0.89969,0.15854,0.085961,1.0452,-0.02822,0.90551,-0.074412,-0.051336,-0.020127,-0.22624,-0.023241,-0.020941
0.027634,0.014804,-0.0082384,0.00069243,-0.014256,0.071551,0.0061266,-0.019889,0.011198,-0.03517,-0.019443,-0.016021,0.4363,0.06236,-0.02571,1.4994,-0.023322,0.94748,-0.060988,-0.043818,-0.025359,-0.2468,-0.024483,-0.018509
0.021194,0.0049049,-0.0055913,0.00096272,-0.023745,0.042823,-0.00057675,-0.024537,0.014233,-0.032532,-0.016153,-0.0054812,0.049242,-0.045595,-0.13644,1.7899,-0.023352,0.95026,-0.049445,-0.035586,-0.030397,-0.25361,-0.028966,-0.014597
0.016544,-0.0045293,-0.009358,-0.0018469,-0.034071,0.013586,-0.0037281,-0.030271,0.016017,-0.031274,-0.011666,0.0039355,-0.23848,-0.1492,-0.23954,1.8839,-0.02619,0.92997,-0.041214,-0.029531,-0.032408,-0.25017,-0.035484,-0.011574
0.015453,-0.013231,-0.018134,-0.0053206,-0.045872,-0.017449,-0.0031281,-0.035675,0.017375,-0.030187,-0.0060468,0.0083424,-0.45177,-0.23529,-0.32607,1.8655,-0.02837,0.90524,-0.035225,-0.027452,-0.031272,-0.24353,-0.040841,-0.011405
0.017934,-0.018995,-0.02698,-0.0064823,-0.058166,-0.051543,-0.00053594,-0.03875,0.019759,-0.026231,-0.00038755,0.0083512,-0.63963,-0.29736,-0.38748,1.845,-0.02711,0.88517,-0.029374,-0.028623,-0.029334,-0.23932,-0.042078,-0.014309
0.021957,-0.018009,-0.031247,-0.0047665,-0.068275,-0.088498,0.0010591,-0.03846,0.024174,-0.018085,0.0032168,0.0078014,-0.84069,-0.33427,-0.41728,1.8547,-0.021797,0.86625,-0.022906,-0.029912,-0.029028,-0.23773,-0.038637,-0.018593
0.024304,-0.0075674,-0.029294,-0.0026103,-0.073465,-0.12563,-0.0011193,-0.035778,0.030468,-0.0089103,0.0029913,0.010067,-1.0584,-0.34675,-0.41118,1.8274,-0.014197,0.83985,-0.017919,-0.027727,-0.030454,-0.23433,-0.032798,-0.02178
0.022347,0.010936,-0.022348,-0.0029815,-0.07286,-0.15838,-0.0083772,-0.033144,0.037261,-0.0050201,-0.00065677,0.015118,-1.2595,-0.33529,-0.36792,1.6719,-0.0071809,0.80301,-0.018737,-0.020639,-0.031157,-0.2249,-0.028128,-0.022203
0.015781,0.031562,-0.012688,-0.0061668,-0.06798,-0.18274,-0.020164,-0.032656,0.042411,-0.010726,-0.0044997,0.019675,-1.3981,-0.30095,-0.2931,1.3633,-0.0027614,0.76303,-0.029248,-0.010722,-0.028495,-0.20971,-0.02713,-0.019923
0.0070835,0.046826,-0.0023555,-0.0090355,-0.061612,-0.19797,-0.034568,-0.03447,0.043797,-0.023594,-0.0042142,0.020148,-1.4496,-0.24746,-0.20407,0.95406,-0.00080732,0.73212,-0.049735,-0.0024122,-0.022527,-0.19329,-0.029722,-0.016426
0.00013547,0.052028,0.0068106,-0.0077579,-0.056102,-0.20759,-0.049198,-0.036795,0.040281,-0.034795,0.0024192,0.015755,-1.4346,-0.18169,-0.13005,0.50097,0.00050171,0.71674,-0.075343,0.00050899,-0.016731,-0.17989,-0.033485,-0.01354
-0.0023062,0.047584,0.01299,-0.0015942,-0.052386,-0.21735,-0.061961,-0.037469,0.032515,-0.03513,0.013368,0.0092355,-1.4124,-0.11157,-0.10272,-0.0045864,0.0027293,0.71057,-0.097537,-0.0023884,-0.015607,-0.16922,-0.035396,-0.012516
-0.00057198,0.037769,0.015241,0.0058568,-0.050146,-0.23151,-0.071527,-0.035738,0.023024,-0.022161,0.023298,0.0046805,-1.4451,-0.042814,-0.13998,-0.61763,0.0052577,0.69686,-0.10801,-0.0078962,-0.021014,-0.15654,-0.033875,-0.013765
0.0020635,0.027254,0.01482,0.0093328,-0.048639,-0.24995,-0.077423,-0.032746,0.01516,-0.0024203,0.027208,0.0044247,-1.5529,0.02271,-0.23356,-1.3429,0.0050605,0.65742,-0.10276,-0.011595,-0.03033,-0.13714,-0.029859,-0.017024
0.0017431,0.018387,0.01508,0.0062345,-0.047476,-0.26816,-0.079772,-0.03046,0.011285,0.013426,0.023975,0.0075691,-1.6933,0.085986,-0.3508,-2.0679,-0.0013746,0.58079,-0.083967,-0.011179,-0.038123,-0.11097,-0.026215,-0.021415
-0.0030084,0.011036,0.019079,-0.0012558,-0.047018,-0.28028,-0.078787,-0.030058,0.011323,0.018552,0.016928,0.011147,-1.7802,0.14821,-0.45183,-2.6174,-0.015244,0.46384,-0.058659,-0.0081457,-0.040055,-0.083274,-0.025829,-0.025368
-0.0099913,0.0043277,0.026611,-0.0080874,-0.048211,-0.28276,-0.074458,-0.031137,0.012849,0.014536,0.010971,0.012673,-1.7335,0.20878,-0.51072,-2.9034,-0.033861,0.30815,-0.035471,-0.0066099,-0.035898,-0.060693,-0.029587,-0.026915
-0.014879,-0.0018124,0.033588,-0.010429,-0.051878,-0.27622,-0.066843,-0.03221,0.012891,0.0090177,0.0086827,0.011838,-1.5244,0.26506,-0.52588,-3.0293,-0.05169,0.11768,-0.021153,-0.010198,-0.029293,-0.046606,-0.03562,-0.024641
-0.014574,-0.006697,0.034963,-0.0082648,-0.05773,-0.26452,-0.05683,-0.031885,0.010238,0.0089094,0.0086551,0.010164,-1.1877,0.3136,-0.51314,-3.2277,-0.063458,-0.098092,-0.018064,-0.01935,-0.024656,-0.039557,-0.040388,-0.018772
-0.0097792,-0.0099995,0.029032,-0.0044976,-0.063846,-0.25203,-0.046587,-0.029704,0.0065058,0.015156,0.0073889,0.0093331,-0.79477,0.35138,-0.48866,-3.6584,-0.067247,-0.31821,-0.022918,-0.030872,-0.02389,-0.03567,-0.0409,-0.01131
-0.004626,-0.012457,0.01935,-0.0019221,-0.067318,-0.24124,-0.03891,-0.026156,0.0050305,0.023064,0.0029962,0.0098954,-0.4143,0.37665,-0.45629,-4.2404,-0.065347,-0.50939,-0.027091,-0.039828,-0.025514,-0.032185,-0.036499,-0.0048154
-0.0035189,-0.015309,0.012321,-0.0011326,-0.065967,-0.23205,-0.035618,-0.022155,0.0083141,0.027075,-0.0025961,0.011382,-0.088157,0.3898,-0.40835,-4.6876,-0.06229,-0.63557,-0.019313,-0.042287,-0.026553,-0.028767,-0.028996,-0.00071847
-0.0076926,-0.019092,0.012357,-0.0010515,-0.059936,-0.22271,-0.036206,-0.018495,0.015882,0.025298,-0.0049326,0.013291,0.16359,0.39423,-0.33662,-4.7465,-0.061488,-0.67456,0.0090276,-0.037172,-0.025234,-0.025913,-0.02124,0.0013105
-0.014312,-0.023094,0.018668,-0.00092869,-0.051726,-0.21144,-0.038052,-0.015536,0.024169,0.020121,-0.00076487,0.015682,0.32412,0.3966,-0.24193,-4.4402,-0.062966,-0.63168,0.057898,-0.02637,-0.022149,-0.022834,-0.015379,0.0023267
-0.018879,-0.026057,0.026293,-0.0013352,-0.044371,-0.19764,-0.038263,-0.013044,0.028574,0.015271,0.0089364,0.018718,0.37161,0.40468,-0.13404,-4.0921,-0.063719,-0.54019,0.11594,-0.013463,-0.019214,-0.017483,-0.012086,0.0024809
-0.018926,-0.027409,0.030272,-0.003077,-0.039097,-0.18223,-0.035768,-0.010159,0.026312,0.012635,0.019275,0.021798,0.29184,0.42268,-0.023773,-4.0809,-0.060253,-0.44694,0.16438,-0.0020126,-0.017779,-0.0088263,-0.010979,0.0005876
-0.015909,-0.027766,0.029285,-0.0054368,-0.034434,-0.16699,-0.031952,-0.005717,0.018193,0.011656,0.024812,0.023434,0.099212,0.4466,0.083507,-4.5193,-0.051279,-0.39104,0.18659,0.0057695,-0.017702,0.0011434,-0.011419,-0.0044246
-0.013788,-0.028194,0.025893,-0.006038,-0.027651,-0.15365,-0.029341,0.00094199,0.0082254,0.011116,0.02326,0.022303,-0.15585,0.46345,0.18664,-5.1325,-0.038629,-0.38762,0.17791,0.0095623,-0.017977,0.0081,-0.012819,-0.011477
-0.015633,-0.028975,0.02372,-0.0029299,-0.017384,-0.14304,-0.029503,0.0090997,0.0012906,0.010983,0.016564,0.018612,-0.40368,0.45658,0.28217,-5.4555,-0.026008,-0.42512,0.14867,0.010641,-0.017887,0.0085511,-0.014451,-0.016906
-0.021131,-0.029156,0.02438,0.0030317,-0.0052441,-0.13498,-0.031866,0.016549,0.0002488,0.012457,0.0087867,0.014418,-0.58573,0.41485,0.36082,-5.1926,-0.016772,-0.4759,0.11795,0.010947,-0.017426,0.0026861,-0.015401,-0.01657
-0.026942,-0.027434,0.026697,0.0081235,0.0049929,-0.1287,-0.034266,0.02075,0.0041907,0.016493,0.0028782,0.012368,-0.67656,0.34014,0.41196,-4.4408,-0.012382,-0.51226,0.10198,0.011933,-0.016764,-0.0056965,-0.015073,-0.0090858
-0.029342,-0.023627,0.028351,0.0085942,0.0099577,-0.12325,-0.034477,0.020662,0.0089986,0.022592,-0.00090414,0.013707,-0.68355,0.24794,0.43236,-3.5952,-0.012341,-0.51838,0.1052,0.013766,-0.015684,-0.01208,-0.013782,0.0025708
-0.02687,-0.019298,0.027966,0.0040852,0.0089402,-0.11756,-0.031363,0.017827,0.010076,0.02901,-0.0039451,0.017164,-0.62901,0.16012,0.43042,-3.0259,-0.015192,-0.4928,0.11992,0.0153,-0.01382,-0.014321,-0.012621,0.012762
-0.021075,-0.016771,0.025794,-0.0015688,0.0040981,-0.11036,-0.024958,0.015549,0.0056028,0.033964,-0.0070027,0.019695,-0.53138,0.094369,0.42078,-2.8049,-0.019601,-0.44259,0.1341,0.014857,-0.01146,-0.013388,-0.012512,0.017152
-0.015266,-0.017237,0.022867,-0.0031896,-0.0013084,-0.10042,-0.015942,0.016545,-0.0020283,0.036491,-0.0089761,0.018655,-0.39872,0.056754,0.41348,-2.7051,-0.024785,-0.37508,0.1408,0.011345,-0.0098466,-0.011628,-0.013328,0.015851
-0.012548,-0.019632,0.01995,0.0015377,-0.005027,-0.08742,-0.0054182,0.020817,-0.007907,0.036298,-0.0076688,0.013818,-0.23496,0.041454,0.40695,-2.4432,-0.030231,-0.29288,0.14248,0.0050787,-0.010384,-0.010655,-0.014057,0.013088
-0.014416,-0.021459,0.017392,0.010155,-0.0066295,-0.072639,0.0047811,0.025548,-0.0084178,0.033218,-0.0015668,0.0077593,-0.049408,0.036694,0.39087,-1.9347,-0.035148,-0.19462,0.14761,-0.0021248,-0.013362,-0.010888,-0.013943,0.013567
-0.020268,-0.021027,0.015604,0.017516,-0.0067776,-0.05854,0.012018,0.02721,-0.0041942,0.027256,0.0090519,0.0042532,0.13866,0.032111,0.35612,-1.3424,-0.038167,-0.079191,0.16325,-0.0076188,-0.017466,-0.012702,-0.013447,0.018394
-0.027582,-0.019171,0.015167,0.020014,-0.0060742,-0.046974,0.01381,0.024248,0.00033731,0.019328,0.022404,0.005739,0.30191,0.022867,0.30287,-0.90037,-0.037607,0.049856,0.18915,-0.0090379,-0.020646,-0.017398,-0.013945,0.023968
-0.032748,-0.018735,0.016144,0.018272,-0.0047559,-0.037338,0.0095724,0.018119,0.00060994,0.011677,0.036234,0.011578,0.41015,0.0091917,0.24052,-0.6963,-0.03222,0.18272,0.21723,-0.0053539,-0.021583,-0.026552,-0.01639,0.024845
-0.032673,-0.021989,0.017453,0.016064,-0.003334,-0.026542,0.0017035,0.011887,-0.0042843,0.007,0.048536,0.018318,0.43722,-0.0062297,0.18059,-0.60893,-0.022031,0.30507,0.2356,0.0025872,-0.020458,-0.040186,-0.020245,0.018263
-0.026721,-0.02812,0.017352,0.016695,-0.0031194,-0.011435,-0.0053657,0.0076706,-0.01092,0.006594,0.057696,0.021868,0.37044,-0.01968,0.12977,-0.43845,-0.008702,0.40204,0.23406,0.012291,-0.018469,-0.055684,-0.023776,0.0066281
-0.017643,-0.033159,0.01492,0.020158,-0.0056058,0.0079811,-0.0079429,0.0052363,-0.014502,0.0090842,0.062572,0.020182,0.2214,-0.025644,0.088721,-0.087843,0.0049071,0.46305,0.20807,0.020531,-0.016799,-0.068789,-0.025406,-0.0041003
-0.010245,-0.03277,0.011136,0.023441,-0.010961,0.027414,-0.0056892,0.0029549,-0.012744,0.011136,0.062955,0.014638,0.031117,-0.016169,0.05618,0.3753,0.015878,0.4859,0.16041,0.024608,-0.01607,-0.076115,-0.024804,-0.008757
-0.008172,-0.025785,0.0082546,0.023366,-0.017109,0.040744,-0.0018709,0.00016709,-0.007283,0.0099334,0.060059,0.0090963,-0.13895,0.016493,0.03277,0.81799,0.022527,0.47867,0.10074,0.023528,-0.016543,-0.077176,-0.022738,-0.0064372
-0.011129,-0.015512,0.0078164,0.019258,-0.020699,0.044602,-0.00082073,-0.0014002,-0.0016929,0.0055227,0.056226,0.0072388,-0.23169,0.073625,0.020394,1.1883,0.025238,0.45822,0.043169,0.018679,-0.018361,-0.074403,-0.020043,-0.0003484
-0.014972,-0.0075071,0.0091388,0.013294,-0.019587,0.041489,-0.0045288,0.0012423,0.0017285,0.00098518,0.053622,0.010042,-0.2238,0.14409,0.018226,1.5609,0.026417,0.44506,0.0016199,0.013616,-0.021195,-0.071341,-0.016908,0.0054863
-0.014923,-0.0054464,0.0098302,0.008712,-0.01481,0.038786,-0.011075,0.0094375,0.0033832,0.00012067,0.05282,0.015252,-0.1413,0.20432,0.020119,2.0414,0.029486,0.45638,-0.015912,0.012728,-0.023632,-0.070559,-0.013197,0.0095165
-0.0093949,-0.0084331,0.0079638,0.0077105,-0.010063,0.044308,-0.016092,0.020819,0.0050327,0.0044036,0.052536,0.019255,-0.048383,0.22691,0.016801,2.6274,0.037214,0.50036,-0.011147,0.019042,-0.023402,-0.072721,-0.0092662,0.013047
-0.0012373,-0.01198,0.0038777,0.010558,-0.0087361,0.061827,-0.015955,0.030314,0.0074117,0.011657,0.050888,0.019911,-0.012829,0.19446,0.0014022,3.1654,0.050102,0.5749,0.0058688,0.032198,-0.018928,-0.077013,-0.0061399,0.017721
0.0046055,-0.01187,-0.00010216,0.015923,-0.010823,0.089848,-0.010091,0.033844,0.0092675,0.017508,0.04713,0.018116,-0.067332,0.11117,-0.026181,3.4515,0.065868,0.67148,0.023498,0.048089,-0.011166,-0.082143,-0.0046352,0.022909
0.0049878,-0.0076504,-0.0017127,0.021608,-0.012436,0.12402,-0.00082206,0.031747,0.008628,0.018438,0.042299,0.016907,-0.19013,0.004646,-0.059235,3.3916,0.080707,0.7815,0.036209,0.06095,-0.0038656,-0.087051,-0.0042995,0.025765
0.0007813,-0.0028432,-0.00060721,0.02528,-0.0085766,0.16061,0.0087013,0.028775,0.0048585,0.014023,0.038201,0.018869,-0.31721,-0.084087,-0.087796,3.088,0.091832,0.90095,0.04721,0.066992,-0.0013747,-0.091149,-0.0034394,0.023989
-0.004174,-0.0017448,0.0016508,0.025415,0.0029527,0.19807,0.016526,0.030217,-0.00056756,0.0067592,0.035719,0.023983,-0.37941,-0.11858,-0.10289,2.7802,0.099594,1.0302,0.063607,0.06715,-0.0053091,-0.094396,-0.00051001,0.018506
-0.0062116,-0.0056314,0.0032333,0.022379,0.019669,0.23563,0.022401,0.037195,-0.0052711,-9.5954e-005,0.034092,0.029574,-0.34269,-0.084258,-0.099523,2.6923,0.10738,1.1695,0.088115,0.066667,-0.012825,-0.09738,0.0043419,0.013294
-0.004448,-0.011632,0.0036237,0.018733,0.03606,0.271,0.026931,0.045242,-0.0079297,-0.0047628,0.031825,0.032314,-0.2277,0.0035905,-0.078503,2.9035,0.11907,1.3138,0.11481,0.071464,-0.018281,-0.10117,0.0091678,0.012295
-0.0010337,-0.015154,0.0037173,0.017818,0.04733,0.29931,0.030637,0.047747,-0.0091719,-0.0075368,0.028262,0.030602,-0.097082,0.1062,-0.047285,3.3264,0.13602,1.4509,0.1332,0.083858,-0.017362,-0.10668,0.011867,0.016173
0.00079691,-0.013665,0.004641,0.021172,0.052203,0.31454,0.033852,0.041658,-0.010676,-0.0096101,0.024252,0.025565,-0.017455,0.17998,-0.0187,3.7879,0.15591,1.5638,0.13735,0.10097,-0.010497,-0.11375,0.012159,0.02184
-0.00073628,-0.0085784,0.0066456,0.026875,0.052808,0.31207,0.0372,0.030665,-0.013419,-0.011432,0.02128,0.020078,-0.018329,0.19855,-0.0060125,4.1392,0.17452,1.6374,0.13205,0.11716,-0.0027595,-0.12084,0.011958,0.025055
-0.0045788,-0.0038201,0.0090749,0.030678,0.052235,0.29021,0.041684,0.022954,-0.016695,-0.012107,0.020008,0.01675,-0.07181,0.1659,-0.015516,4.3224,0.18888,1.6633,0.13023,0.12864,-0.00015036,-0.12574,0.013624,0.023706
-0.0074816,-0.0026058,0.011161,0.029391,0.052173,0.25009,0.047937,0.025147,-0.018723,-0.010242,0.019756,0.016419,-0.10531,0.11273,-0.041394,4.371,0.19922,1.6426,0.14383,0.13634,-0.00513,-0.12737,0.017627,0.019029
-0.0062824,-0.0053021,0.012651,0.023692,0.052472,0.1944,0.055278,0.037301,-0.018162,-0.0053346,0.019386,0.01811,-0.040012,0.077493,-0.067707,4.3693,0.2083,1.5846,0.17586,0.14482,-0.014878,-0.12703,0.021805,0.014128
-0.000396,-0.0099824,0.013704,0.017678,0.05248,0.12676,0.061683,0.052994,-0.015094,0.0015763,0.018567,0.020252,0.1671,0.083878,-0.077586,4.4031,0.21895,1.5042,0.22004,0.15793,-0.023577,-0.12796,0.023009,0.011508
0.0072691,-0.01474,0.01442,0.01538,0.052383,0.051847,0.064967,0.064282,-0.010641,0.00859,0.018012,0.022033,0.50178,0.12886,-0.063601,4.5233,0.23198,1.4187,0.26737,0.17508,-0.026798,-0.13299,0.019686,0.011724
0.01193,-0.019432,0.014684,0.017351,0.053155,-0.024473,0.064299,0.067365,-0.0057283,0.014299,0.018384,0.02382,0.90234,0.1879,-0.031628,4.7284,0.24575,1.3441,0.31266,0.19111,-0.02452,-0.14198,0.013092,0.013753
0.010227,-0.02538,0.014482,0.02048,0.055328,-0.096055,0.060741,0.064456,-0.0003325,0.018583,0.01912,0.026406,1.2921,0.23177,0.004525,4.9714,0.25741,1.2898,0.35568,0.20003,-0.020537,-0.15135,0.0061525,0.016088
0.0027754,-0.033602,0.014191,0.021148,0.058044,-0.15828,0.056354,0.060825,0.0059571,0.02209,0.018581,0.029843,1.6124,0.24231,0.032973,5.1904,0.26457,1.2518,0.39695,0.19946,-0.019017,-0.15646,0.0011588,0.01736
-0.0062246,-0.043375,0.014412,0.018667,0.05944,-0.20941,0.052685,0.059999,0.01262,0.024882,0.015592,0.032938,1.8367,0.21688,0.050047,5.3496,0.26639,1.2085,0.43391,0.19242,-0.021139,-0.15541,-0.0015231,0.016374
-0.012247,-0.052393,0.015473,0.015698,0.05796,-0.25044,0.049878,0.06129,0.017612,0.02562,0.010874,0.033951,1.9628,0.16205,0.058876,5.4617,0.26379,1.1248,0.4615,0.185,-0.024451,-0.15104,-0.0027323,0.012293
-0.013947,-0.058247,0.01717,0.015341,0.053291,-0.28358,0.046966,0.061316,0.018467,0.022369,0.0067893,0.031938,1.9957,0.084852,0.063388,5.568,0.2592,0.96864,0.47619,0.18193,-0.025238,-0.14919,-0.002873,0.0053769
-0.013899,-0.059918,0.018986,0.017837,0.046077,-0.3108,0.042845,0.057573,0.014459,0.014702,0.0054373,0.027607,1.9407,-0.010057,0.064608,5.687,0.25567,0.73116,0.47834,0.18356,-0.021702,-0.15438,-0.0013139,-0.0023649
-0.015909,-0.05825,0.020496,0.020171,0.036941,-0.33331,0.03705,0.05061,0.0079315,0.0053705,0.0068565,0.022934,1.8104,-0.11654,0.0629,5.7688,0.25584,0.4407,0.46996,0.18622,-0.015324,-0.16605,0.0024217,-0.0076765
-0.021355,-0.055313,0.021499,0.019002,0.025984,-0.35189,0.029883,0.043128,0.0032911,-0.00027578,0.009074,0.019809,1.6356,-0.22251,0.063036,5.7014,0.26076,0.15677,0.45024,0.18537,-0.0094437,-0.17878,0.0069773,-0.0079104
-0.027884,-0.053284,0.021882,0.014111,0.013339,-0.36714,0.022078,0.037274,0.0040693,0.0026258,0.0099759,0.018838,1.4604,-0.31078,0.075432,5.3748,0.26948,-0.054811,0.41447,0.17893,-0.0065196,-0.18604,0.0090697,-0.0030344
-0.031571,-0.053453,0.021571,0.0089871,9.031e-005,-0.37915,0.014346,0.032913,0.010219,0.014775,0.0091649,0.019206,1.3213,-0.36547,0.1103,4.7613,0.27979,-0.15187,0.35878,0.16839,-0.0064903,-0.18476,0.0056392,0.003907
-0.030412,-0.055655,0.020778,0.0078733,-0.011632,-0.38711,0.007018,0.028365,0.017906,0.031311,0.0080139,0.01964,1.2224,-0.37878,0.16854,3.9526,0.28972,-0.13175,0.28727,0.15743,-0.0074989,-0.17696,-0.0033985,0.008532
-0.025837,-0.058273,0.020203,0.011931,-0.019805,-0.38959,-0.00014804,0.022583,0.022168,0.044258,0.0079814,0.019591,1.1332,-0.35318,0.23736,3.1236,0.29892,-0.023842,0.21447,0.14949,-0.008036,-0.16755,-0.014372,0.0079701
-0.021013,-0.058938,0.02072,0.018074,-0.024008,-0.38564,-0.007771,0.016459,0.02052,0.047517,0.0090116,0.019699,1.0144,-0.29874,0.29527,2.4461,0.30861,0.13296,0.15948,0.14631,-0.008377,-0.16042,-0.022111,0.0027707
-0.017771,-0.055809,0.022616,0.021581,-0.025904,-0.37588,-0.016188,0.011973,0.01476,0.040911,0.0096712,0.021194,0.85301,-0.22892,0.32371,2.0125,0.32027,0.3092,0.13522,0.14807,-0.010016,-0.15608,-0.023622,-0.0035145
-0.015219,-0.048761,0.0251,0.020115,-0.028117,-0.36262,-0.024691,0.010068,0.0096021,0.030199,0.0087642,0.024743,0.67887,-0.15778,0.3167,1.8162,0.3338,0.48666,0.14075,0.15417,-0.013783,-0.1525,-0.020179,-0.0067611
-0.011247,-0.039629,0.026725,0.015494,-0.032383,-0.34877,-0.031435,0.0094249,0.0092042,0.022947,0.0065801,0.029579,0.54496,-0.098438,0.28196,1.786,0.34669,0.64588,0.16252,0.16355,-0.018586,-0.14775,-0.016067,-0.0050066
-0.0052776,-0.031104,0.026524,0.011684,-0.03844,-0.33625,-0.034427,0.0073746,0.014225,0.023427,0.0043775,0.033565,0.48778,-0.061014,0.23323,1.8357,0.35468,0.75584,0.18347,0.17413,-0.022053,-0.14185,-0.015064,0.00032401
0.00054542,-0.025021,0.024869,0.011025,-0.044514,-0.32514,-0.033007,0.0021909,0.021534,0.030435,0.0027308,0.034233,0.49941,-0.049719,0.18066,1.889,0.35374,0.77989,0.19324,0.18246,-0.022539,-0.13642,-0.017695,0.0054083
0.0029233,-0.021356,0.023269,0.012301,-0.048877,-0.31405,-0.028527,-0.0053139,0.026609,0.039396,0.0007496,0.030247,0.53393,-0.061018,0.1262,1.8763,0.34201,0.69678,0.19269,0.18474,-0.02061,-0.13267,-0.021489,0.0064997
0.00030426,-0.01878,0.023244,0.01238,-0.051141,-0.30139,-0.023418,-0.012324,0.026645,0.046486,-0.00268,0.022408,0.5415,-0.08496,0.066254,1.7337,0.32085,0.51983,0.1911,0.1791,-0.018589,-0.1301,-0.023756,0.0022981
-0.0054963,-0.01625,0.025254,0.0096649,-0.052324,-0.28658,-0.019307,-0.016217,0.02205,0.051003,-0.0067812,0.013497,0.50156,-0.10921,-0.0018242,1.4259,0.29413,0.29653,0.19941,0.1675,-0.018535,-0.12702,-0.024141,-0.0052128
-0.010368,-0.01417,0.028545,0.0058624,-0.053845,-0.27033,-0.015868,-0.016526,0.015448,0.054214,-0.0083361,0.0068877,0.42964,-0.12297,-0.075173,0.98266,0.26621,0.084784,0.22439,0.15515,-0.020407,-0.12222,-0.024585,-0.01193
-0.010797,-0.014003,0.031865,0.0043573,-0.05639,-0.25387,-0.011529,-0.015058,0.0093149,0.056408,-0.0038467,0.0046465,0.35718,-0.11856,-0.1454,0.50951,0.23971,-0.07844,0.26592,0.1473,-0.022053,-0.11587,-0.026842,-0.014081
-0.0063281,-0.016609,0.034267,0.0068377,-0.059464,-0.23792,-0.0054259,-0.014202,0.0043468,0.055507,0.0071934,0.0063275,0.30503,-0.091059,-0.20179,0.14775,0.21442,-0.1935,0.31684,0.1453,-0.021019,-0.10872,-0.030066,-0.010484
0.00016232,-0.020821,0.03532,0.011513,-0.061722,-0.22238,0.0012938,-0.014971,-0.00022044,0.048865,0.020983,0.0093379,0.27352,-0.038589,-0.23468,0.0022362,0.18821,-0.28736,0.36452,0.14519,-0.016618,-0.10044,-0.030943,-0.0032278
0.0045318,-0.023696,0.034698,0.014626,-0.061655,-0.20703,0.0062178,-0.016388,-0.0049233,0.036478,0.031638,0.010717,0.25341,0.035745,-0.2374,0.088854,0.15947,-0.38464,0.39417,0.1402,-0.010465,-0.089086,-0.026438,0.0036864
0.0043424,-0.022468,0.031775,0.013748,-0.058292,-0.19252,0.007899,-0.016601,-0.0087989,0.022279,0.035368,0.0090993,0.2432,0.12204,-0.20781,0.34061,0.12923,-0.48324,0.39456,0.12575,-0.0050195,-0.072752,-0.016719,0.0069209
0.00074898,-0.016746,0.025737,0.0097552,-0.051787,-0.18025,0.0074278,-0.014592,-0.0098441,0.01187,0.033118,0.0053953,0.25414,0.20507,-0.15021,0.66318,0.10134,-0.55356,0.36384,0.10295,-0.0014427,-0.052006,-0.0055394,0.0059135
-0.002083,-0.0091224,0.016259,0.0057928,-0.043716,-0.17109,0.0076551,-0.01101,-0.0068544,0.0084482,0.029468,0.0017189,0.29803,0.26967,-0.076668,0.99197,0.080343,-0.56161,0.31149,0.077887,0.0013485,-0.030766,0.0024227,0.003065
0.00010593,-0.0035274,0.0042136,0.0044384,-0.036671,-0.16381,0.010588,-0.0074838,-0.00093852,0.010432,0.028794,-0.00048907,0.36922,0.30694,-0.0051641,1.3084,0.068537,-0.49736,0.25321,0.057209,0.0055213,-0.014144,0.005111,0.001825
0.0082431,-0.0024479,-0.0081645,0.0057699,-0.032997,-0.1551,0.015402,-0.0051492,0.0048099,0.012889,0.03199,-0.0014874,0.43789,0.31643,0.046669,1.6143,0.064383,-0.38613,0.20069,0.043545,0.012024,-0.0046645,0.0045548,0.0040674
0.018554,-0.0050713,-0.017938,0.0078831,-0.033271,-0.14171,0.019153,-0.0037642,0.0074158,0.011525,0.036337,-0.0025756,0.46186,0.30283,0.06919,1.9004,0.063253,-0.27533,0.1534,0.034339,0.019174,6.1145e-005,0.0050544,0.0087842
0.024694,-0.0077853,-0.022716,0.0089795,-0.035722,-0.12318,0.019711,-0.0021948,0.0062254,0.0059257,0.038269,-0.0045134,0.40935,0.27048,0.064487,2.1408,0.059751,-0.20764,0.099091,0.024541,0.023533,0.0060218,0.0096356,0.013162
0.022243,-0.0066746,-0.021893,0.00886,-0.037338,-0.10267,0.018131,0.00020803,0.0033284,-0.00043616,0.036429,-0.0066565,0.27679,0.2208,0.042963,2.3149,0.049889,-0.20096,0.023323,0.010421,0.022549,0.018641,0.017683,0.015144
0.012264,-0.00016123,-0.017144,0.0085765,-0.036008,-0.084795,0.01794,0.002673,0.0017515,-0.0029784,0.032485,-0.0076909,0.090539,0.15492,0.015189,2.4274,0.031969,-0.24714,-0.078826,-0.0086921,0.016882,0.038931,0.025573,0.01525
0.00095414,0.010098,-0.011781,0.0089514,-0.032057,-0.071953,0.021764,0.0034883,0.0028633,0.0010173,0.029325,-0.0071721,-0.10692,0.078154,-0.014465,2.5018,0.0063359,-0.32559,-0.19795,-0.031495,0.010421,0.062826,0.029608,0.015977
-0.0046641,0.020533,-0.0091244,0.00965,-0.027902,-0.062348,0.028503,0.0015842,0.0051648,0.011524,0.028392,-0.0062024,-0.27659,0.0011947,-0.047396,2.5527,-0.025169,-0.41798,-0.31578,-0.056518,0.0077927,0.083977,0.028774,0.019298
-0.0017699,0.028017,-0.01073,0.0096742,-0.026147,-0.051502,0.034016,-0.0021852,0.0055414,0.026978,0.028414,-0.0064414,-0.3977,-0.064131,-0.084666,2.5636,-0.059525,-0.5142,-0.4159,-0.08235,0.011157,0.097704,0.025211,0.024568
0.0064226,0.0315,-0.015526,0.0085571,-0.027642,-0.036142,0.034913,-0.0053266,0.0020061,0.045694,0.026436,-0.008385,-0.47229,-0.11116,-0.12151,2.4939,-0.092845,-0.60987,-0.49128,-0.10632,0.018728,0.10334,0.022263,0.028888
0.013362,0.031964,-0.020461,0.0068853,-0.030937,-0.017189,0.031859,-0.0054963,-0.0043317,0.06591,0.020267,-0.010646,-0.51949,-0.1412,-0.14798,2.3122,-0.12115,-0.70255,-0.5437,-0.12396,0.026129,0.10381,0.021874,0.029682
0.014055,0.031161,-0.022326,0.0056269,-0.033302,0.00073341,0.029028,-0.0023497,-0.0097519,0.084855,0.010426,-0.010987,-0.56209,-0.16056,-0.15529,2.0261,-0.1416,-0.79098,-0.57821,-0.13103,0.029559,0.10332,0.023322,0.027136
0.0082521,0.030308,-0.019602,0.005076,-0.032396,0.012859,0.030014,0.0021524,-0.010561,0.098665,0.00020543,-0.0081191,-0.60983,-0.17489,-0.1419,1.6797,-0.1537,-0.87583,-0.59913,-0.12719,0.028411,0.1048,0.024021,0.024156
-0.00020558,0.029592,-0.013165,0.0045925,-0.027534,0.018038,0.034176,0.0052944,-0.0058301,0.10419,-0.0061872,-0.0026016,-0.64747,-0.186,-0.11353,1.3175,-0.15942,-0.95784,-0.61108,-0.11761,0.025463,0.10863,0.021554,0.023822
-0.0067801,0.028494,-0.0054913,0.0033826,-0.020038,0.019731,0.037125,0.0057032,0.0018859,0.10144,-0.0061074,0.0038016,-0.63763,-0.19311,-0.077517,0.94177,-0.16219,-1.0331,-0.62162,-0.11029,0.024584,0.11282,0.015452,0.026672
-0.0093117,0.026413,0.00096214,0.001407,-0.012647,0.023631,0.035069,0.0041879,0.0083674,0.094095,7.1954e-005,0.0094503,-0.54272,-0.19563,-0.037006,0.50167,-0.16471,-1.0899,-0.63981,-0.11037,0.027732,0.11455,0.0077009,0.030282
-0.0085909,0.023166,0.005015,-0.00060504,-0.0081523,0.033828,0.028801,0.0026608,0.010638,0.086735,0.0093827,0.013547,-0.35659,-0.19375,0.0088829,-0.071889,-0.16713,-1.1109,-0.66932,-0.11604,0.033441,0.11208,0.0018796,0.031502
-0.0066584,0.019253,0.0069247,-0.0020351,-0.0077179,0.050309,0.023294,0.0022338,0.0087835,0.080804,0.018091,0.015927,-0.124,-0.18618,0.059082,-0.80913,-0.16671,-1.0807,-0.70226,-0.11977,0.037871,0.10605,0.0014203,0.029242
-0.0048035,0.01581,0.0076291,-0.0031256,-0.0098363,0.069312,0.02309,0.0023204,0.0054782,0.072834,0.02361,0.016668,0.071175,-0.16908,0.10507,-1.6672,-0.15982,-0.99199,-0.72141,-0.11429,0.037596,0.099217,0.007815,0.025326
-0.0029531,0.01408,0.0078758,-0.00469,-0.010916,0.086042,0.027876,0.0015686,0.0037924,0.057109,0.025357,0.016218,0.14872,-0.13941,0.1326,-2.5484,-0.14505,-0.84881,-0.71196,-0.098309,0.032071,0.094737,0.019658,0.02277
-0.00050831,0.014392,0.0078983,-0.0069934,-0.0076043,0.097781,0.032547,-0.00035895,0.0050571,0.030924,0.024379,0.015724,0.080438,-0.10111,0.13123,-3.3575,-0.12515,-0.66581,-0.67429,-0.077378,0.024011,0.094068,0.033236,0.023175
0.0026378,0.015176,0.0076259,-0.008962,0.00058398,0.10538,0.03175,-0.002013,0.0082869,-0.0020446,0.02235,0.016696,-0.089529,-0.068259,0.10431,-4.0518,-0.10571,-0.46721,-0.62625,-0.059155,0.017487,0.096221,0.044638,0.025524
0.0060375,0.013004,0.0069481,-0.0086522,0.010448,0.11223,0.024607,-0.0012871,0.011339,-0.03344,0.020641,0.01982,-0.26929,-0.06038,0.070382,-4.6437,-0.091341,-0.28512,-0.59132,-0.04744,0.015244,0.098942,0.052209,0.027286
0.0094842,0.0042079,0.0057176,-0.0047263,0.017113,0.12156,0.015213,0.0025608,0.012707,-0.055872,0.019737,0.023974,-0.37439,-0.09186,0.052919,-5.1588,-0.08228,-0.15352,-0.58126,-0.04009,0.017232,0.10081,0.057575,0.026697
0.013564,-0.012623,0.0036989,0.0023105,0.017576,0.13383,0.008675,0.0079695,0.012527,-0.067831,0.019029,0.026666,-0.37654,-0.16302,0.064928,-5.5897,-0.074751,-0.095381,-0.58752,-0.03236,0.021285,0.10235,0.064197,0.024204
0.019114,-0.035003,0.00084593,0.010219,0.013022,0.14636,0.0066936,0.012213,0.012154,-0.073794,0.017108,0.025888,-0.31352,-0.25966,0.099905,-5.8864,-0.065141,-0.10801,-0.58893,-0.022339,0.025087,0.1051,0.074372,0.02203
0.025994,-0.057267,-0.00216,0.016475,0.0079372,0.15529,0.0068712,0.013597,0.01274,-0.079689,0.012662,0.021877,-0.25524,-0.36111,0.13614,-5.9858,-0.054518,-0.15817,-0.5693,-0.01351,0.027645,0.10964,0.087064,0.02238
0.0325,-0.073498,-0.0037574,0.019936,0.0066911,0.15866,0.0060379,0.012649,0.014008,-0.087845,0.0055818,0.017143,-0.25189,-0.44997,0.15132,-5.8505,-0.049139,-0.19575,-0.5299,-0.012241,0.029114,0.11445,0.098515,0.025806
0.036322,-0.080691,-0.0022668,0.021439,0.010345,0.15791,0.003912,0.011245,0.01421,-0.095751,-0.0026804,0.014595,-0.30068,-0.51642,0.13667,-5.4804,-0.055906,-0.18116,-0.48639,-0.022534,0.029497,0.11699,0.10527,0.03089
0.036408,-0.079859,0.0027999,0.022899,0.016238,0.15674,0.0032825,0.010653,0.011381,-0.099276,-0.010165,0.015343,-0.35192,-0.5557,0.10064,-4.8968,-0.076262,-0.10878,-0.45343,-0.0426,0.02781,0.11588,0.10701,0.035311
0.033989,-0.074363,0.010054,0.025646,0.020477,0.15807,0.0066152,0.010541,0.0050404,-0.097038,-0.016238,0.017977,-0.34651,-0.56389,0.06039,-4.1283,-0.10382,-0.0084712,-0.43089,-0.065934,0.022796,0.11242,0.10664,0.037432
0.031607,-0.067008,0.017052,0.02932,0.021067,0.16176,0.012713,0.0099045,-0.0029845,-0.091911,-0.022481,0.019846,-0.25628,-0.53814,0.028397,-3.2235,-0.12807,0.07687,-0.40386,-0.085667,0.014598,0.10969,0.10746,0.037335
0.030846,-0.058455,0.022161,0.032179,0.019074,0.16496,0.017066,0.0088188,-0.009366,-0.088572,-0.031401,0.01912,-0.10058,-0.48169,0.0039142,-2.2818,-0.14136,0.12113,-0.35624,-0.09849,0.0056002,0.11023,0.11001,0.036717
0.030866,-0.048252,0.025895,0.032506,0.017163,0.16475,0.015833,0.0089857,-0.011307,-0.089543,-0.043735,0.015988,0.067916,-0.4082,-0.025269,-1.4628,-0.14366,0.12916,-0.28579,-0.10537,-0.00071812,0.11415,0.11161,0.037692
0.029229,-0.037277,0.030398,0.029978,0.017134,0.16093,0.0096664,0.012231,-0.0083755,-0.093249,-0.056713,0.012211,0.19428,-0.33855,-0.073191,-0.93998,-0.14145,0.12588,-0.20807,-0.10927,-0.0022551,0.11926,0.10902,0.0412
0.024387,-0.028932,0.037376,0.025893,0.018702,0.1564,0.0035868,0.018313,-0.0027878,-0.095513,-0.065143,0.0096919,0.24841,-0.28983,-0.14533,-0.80454,-0.1421,0.13142,-0.14634,-0.11228,4.0535e-005,0.12308,0.10189,0.046006
0.017523,-0.027438,0.046202,0.02219,0.020327,0.1549,0.0027871,0.024317,0.0021048,-0.092955,-0.064723,0.009276,0.23521,-0.26408,-0.23384,-0.97979,-0.14837,0.14417,-0.11678,-0.11453,0.0028833,0.12477,0.093635,0.049101
0.011956,-0.034336,0.053883,0.020177,0.020898,0.15788,0.0081476,0.026567,0.0039935,-0.085464,-0.054941,0.010554,0.18888,-0.24613,-0.32025,-1.2161,-0.15714,0.14443,-0.12082,-0.11513,0.003293,0.12579,0.088706,0.047571
0.010552,-0.046268,0.056978,0.020044,0.020496,0.16322,0.015551,0.02354,0.0028659,-0.076022,-0.039286,0.012497,0.15864,-0.21389,-0.383,-1.1973,-0.16265,0.11259,-0.14904,-0.11375,0.00096727,0.12886,0.088701,0.04084
0.013451,-0.0563,0.053968,0.021367,0.019635,0.16671,0.019581,0.01718,0.0005461,-0.068354,-0.022843,0.014247,0.19226,-0.15411,-0.4056,-0.71321,-0.16122,0.044069,-0.19105,-0.11121,-0.0016164,0.13629,0.090664,0.031566
0.018117,-0.058096,0.046258,0.023802,0.018128,0.16515,0.018171,0.011335,-0.00089136,-0.064295,-0.0094624,0.015511,0.31895,-0.071781,-0.38257,0.20273,-0.15385,-0.050849,-0.24141,-0.10904,-0.0014143,0.1487,0.089177,0.024124
0.021521,-0.049683,0.037136,0.027056,0.015063,0.15844,0.013994,0.0087125,-0.00045834,-0.062583,-0.00052989,0.016465,0.53444,0.013861,-0.32188,1.2649,-0.14556,-0.1587,-0.29742,-0.10853,0.0025616,0.16461,0.080401,0.021402
0.022414,-0.033903,0.029562,0.0302,0.010092,0.14938,0.011525,0.0091332,0.0016012,-0.059578,0.0044763,0.017422,0.79567,0.083236,-0.2436,2.0736,-0.14251,-0.27258,-0.35312,-0.11041,0.0083899,0.18085,0.064706,0.022305
0.021753,-0.015521,0.024417,0.031348,0.0046028,0.14141,0.012666,0.010571,0.0046268,-0.051206,0.0069596,0.018529,1.0331,0.12916,-0.17441,2.3212,-0.14907,-0.39125,-0.39733,-0.11503,0.012778,0.19366,0.045958,0.022233
0.021236,0.0022752,0.020365,0.02859,0.0012013,0.13632,0.015059,0.011716,0.0082797,-0.034929,0.0087771,0.019652,1.1805,0.15943,-0.1385,1.9446,-0.16598,-0.51139,-0.41934,-0.12258,0.013649,0.20024,0.028546,0.016586
0.021572,0.019137,0.015291,0.021744,0.0015878,0.13364,0.014516,0.013277,0.012442,-0.010785,0.012108,0.020507,1.2073,0.18925,-0.14769,1.1373,-0.1901,-0.62396,-0.41747,-0.13294,0.011665,0.20018,0.014882,0.0047021
0.022043,0.036132,0.008241,0.013277,0.0047395,0.13155,0.0091695,0.016584,0.016542,0.01885,0.018683,0.020961,1.1328,0.2309,-0.19563,0.23299,-0.2155,-0.71971,-0.40235,-0.14529,0.0095453,0.1958,0.005213,-0.0090266
0.021479,0.053625,0.000426,0.0071461,0.0073281,0.12827,0.0014348,0.021014,0.019281,0.050513,0.028346,0.021268,1.0107,0.28848,-0.26063,-0.45639,-0.23571,-0.79812,-0.3904,-0.15789,0.0098082,0.19087,-0.00083975,-0.018039
0.019436,0.070722,-0.0054504,0.006128,0.0063055,0.12276,-0.0039984,0.023245,0.019413,0.081352,0.038255,0.021982,0.89341,0.35878,-0.31723,-0.75354,-0.24659,-0.86924,-0.39199,-0.16845,0.012797,0.18814,-0.0031154,-0.018305
0.016496,0.086621,-0.0070928,0.0097755,0.0014315,0.1148,-0.0042159,0.019702,0.017049,0.11058,0.044074,0.023501,0.80391,0.43425,-0.35055,-0.64436,-0.2484,-0.94482,-0.40338,-0.17493,0.016543,0.18765,-0.0014551,-0.011091
0.013663,0.1022,-0.0043109,0.014827,-0.004594,0.10497,-0.00046578,0.010136,0.014218,0.14,0.042868,0.025583,0.73733,0.50409,-0.36423,-0.24409,-0.24572,-1.0262,-0.40941,-0.17638,0.018512,0.18692,0.0027552,-0.0016592
0.01164,0.12009,0.00081654,0.017794,-0.0085576,0.094725,0.0031738,-0.0012425,0.013785,0.17325,0.035547,0.027319,0.6891,0.5543,-0.37555,0.25736,-0.24469,-1.1003,-0.39488,-0.1736,0.017761,0.18329,0.006037,0.0048292
0.010582,0.14292,0.0054336,0.017556,-0.0094697,0.086267,0.0034564,-0.0086645,0.01729,0.21366,0.026671,0.027715,0.68191,0.57026,-0.40028,0.65074,-0.24925,-1.1484,-0.35602,-0.16912,0.015724,0.17626,0.0044307,0.0066887
0.01022,0.17132,0.0077994,0.01582,-0.0090864,0.08155,0.0005796,-0.0093559,0.023406,0.26184,0.021429,0.026422,0.76106,0.54317,-0.43808,0.76525,-0.25863,-1.1598,-0.30283,-0.16622,0.014966,0.16782,-0.0037615,0.005773
0.0099758,0.2032,0.0080165,0.015258,-0.0098417,0.080897,-0.0024455,-0.005582,0.028486,0.31417,0.022051,0.023978,0.95443,0.47673,-0.47042,0.52316,-0.26804,-1.1385,-0.25074,-0.16718,0.016984,0.16053,-0.016513,0.0047447
0.0090077,0.23487,0.007135,0.017104,-0.012316,0.082248,-0.002776,-0.0022343,0.029049,0.36373,0.026448,0.021324,1.2272,0.38823,-0.47443,-0.035551,-0.27172,-1.0983,-0.20813,-0.17134,0.02086,0.15503,-0.029401,0.0044457
0.0065113,0.26292,0.0056972,0.020226,-0.014756,0.081991,-0.00018166,-0.0022652,0.024372,0.40329,0.030047,0.019058,1.4729,0.30211,-0.44335,-0.78532,-0.26634,-1.0508,-0.16992,-0.1746,0.0239,0.1494,-0.038746,0.0037985
0.0023963,0.28563,0.0032481,0.022272,-0.015081,0.077082,0.0031134,-0.0043108,0.01707,0.42878,0.029199,0.017133,1.5585,0.23936,-0.39712,-1.595,-0.2523,-0.99706,-0.12235,-0.17105,0.023694,0.14102,-0.043868,0.0019577
-0.002143,0.30301,-0.00073882,0.021704,-0.013352,0.066997,0.0046566,-0.0046287,0.011109,0.44091,0.023433,0.015208,1.3968,0.20914,-0.37274,-2.4036,-0.23255,-0.93225,-0.055507,-0.15635,0.019945,0.12929,-0.046565,0.00018096
-0.0048811,0.31601,-0.005599,0.018999,-0.012186,0.054044,0.0037847,-0.0012277,0.0087615,0.44366,0.015119,0.013177,0.99633,0.20662,-0.39925,-3.2328,-0.21038,-0.85611,0.02644,-0.13059,0.014667,0.11667,-0.048552,0.0012695
-0.0038328,0.32549,-0.0093645,0.016174,-0.014599,0.041789,0.0017814,0.0039578,0.0089657,0.44066,0.0073648,0.011217,0.45319,0.21686,-0.47553,-4.1216,-0.18807,-0.78095,0.10555,-0.098765,0.010724,0.10704,-0.049558,0.0069801
0.0011711,0.33151,-0.010122,0.015189,-0.021216,0.032786,0.00052646,0.0068871,0.0083598,0.43212,0.002091,0.0092897,-0.10624,0.22192,-0.56779,-5.0292,-0.16694,-0.72796,0.16121,-0.067972,0.0099251,0.10264,-0.048019,0.015954
0.0078034,0.33301,-0.0076146,0.016502,-0.029385,0.027244,0.0011793,0.0052714,0.0040644,0.41434,-0.00045228,0.0067436,-0.58692,0.20848,-0.62944,-5.7835,-0.14812,-0.71427,0.18363,-0.043615,0.012067,0.10231,-0.043614,0.0243
0.012224,0.32799,-0.0035254,0.018796,-0.03496,0.023433,0.0038296,0.00066389,-0.0041304,0.3825,-0.0010408,0.0026822,-0.94708,0.17395,-0.62835,-6.1247,-0.13274,-0.74125,0.17929,-0.027141,0.015421,0.10265,-0.038918,0.028448
0.011374,0.31424,-0.00012506,0.019969,-0.035157,0.019226,0.007747,-0.0030776,-0.013853,0.33453,-0.00074726,-0.0030169,-1.1743,0.12856,-0.56205,-5.8321,-0.12147,-0.79374,0.1646,-0.016873,0.018077,0.10097,-0.038185,0.02774
0.0051655,0.29055,0.0014958,0.018604,-0.030144,0.013483,0.011517,-0.0032484,-0.022133,0.27355,-0.00063345,-0.0089833,-1.2489,0.090898,-0.45252,-4.8647,-0.11416,-0.85073,0.15332,-0.010705,0.019132,0.097731,-0.044101,0.024542
-0.0030444,0.2579,0.0020385,0.014901,-0.022421,0.0063682,0.013152,-0.00037185,-0.027352,0.20712,-0.001512,-0.012851,-1.1356,0.07703,-0.32864,-3.4286,-0.11032,-0.89819,0.14842,-0.0079962,0.019037,0.096052,-0.055392,0.022008
-0.0083231,0.21972,0.0030245,0.010478,-0.014998,-0.0012969,0.010864,0.0027389,-0.029555,0.14386,-0.0033925,-0.012857,-0.8161,0.088917,-0.21239,-1.9188,-0.10986,-0.93317,0.14429,-0.0089558,0.019116,0.09886,-0.06752,0.021652
-0.0073518,0.18091,0.0052446,0.0072427,-0.010041,-0.0088103,0.0044532,0.0036107,-0.029298,0.089761,-0.0049975,-0.0093407,-0.33283,0.11073,-0.11693,-0.75161,-0.1132,-0.95685,0.13628,-0.012377,0.020659,0.10598,-0.075859,0.02279
-0.00074557,0.14616,0.0080354,0.0061674,-0.0086335,-0.015856,-0.0039161,0.0018619,-0.026602,0.046232,-0.0041884,-0.0048241,0.19926,0.11801,-0.051532,-0.17129,-0.12014,-0.9643,0.128,-0.014295,0.024098,0.11371,-0.078556,0.023928
0.0072672,0.11841,0.0099212,0.0068252,-0.010973,-0.022254,-0.010842,-0.0011543,-0.021247,0.011042,0.00052515,-0.0024737,0.63336,0.094982,-0.022585,-0.1444,-0.12876,-0.94218,0.12973,-0.0094707,0.028607,0.11734,-0.076736,0.024484
0.011684,0.098518,0.0099526,0.0079444,-0.0162,-0.027685,-0.014243,-0.0038816,-0.01401,-0.019143,0.0084759,-0.0040317,0.86209,0.04749,-0.02693,-0.41156,-0.13565,-0.87804,0.14968,0.0049813,0.032361,0.11448,-0.072286,0.0252
0.0099828,0.085631,0.0085893,0.0084636,-0.022052,-0.031791,-0.015132,-0.0055924,-0.0072365,-0.046438,0.016829,-0.0087332,0.86988,0.0005631,-0.045658,-0.66913,-0.13801,-0.77393,0.18629,0.026589,0.033462,0.10675,-0.065624,0.027086
0.0033545,0.077892,0.0074519,0.0081964,-0.025345,-0.034543,-0.016711,-0.0063171,-0.0036682,-0.071007,0.022416,-0.01391,0.72905,-0.018612,-0.048888,-0.76044,-0.13588,-0.65189,0.22845,0.047784,0.03116,0.098511,-0.055569,0.030056
-0.0048628,0.072881,0.0081716,0.0075722,-0.023667,-0.036429,-0.021413,-0.006382,-0.0042918,-0.091856,0.023993,-0.016708,0.54248,0.00037087,-0.012275,-0.7445,-0.13251,-0.54507,0.26299,0.059713,0.026646,0.093886,-0.041237,0.032553
-0.011989,0.068096,0.011191,0.0067456,-0.017272,-0.03813,-0.028678,-0.0063376,-0.0071889,-0.10808,0.022879,-0.015672,0.37476,0.045112,0.066733,-0.7996,-0.13216,-0.48001,0.2828,0.05732,0.022751,0.094361,-0.023884,0.032494
-0.017619,0.061739,0.015363,0.0049836,-0.009426,-0.039847,-0.03569,-0.0070768,-0.0087259,-0.11956,0.021344,-0.011252,0.21995,0.091385,0.16704,-1.0475,-0.13702,-0.46218,0.28948,0.042452,0.022511,0.098388,-0.0068163,0.028771
-0.022897,0.053692,0.01863,0.0010735,-0.0044666,-0.040861,-0.040331,-0.009398,-0.00633,-0.12702,0.020238,-0.0051868,0.025402,0.12116,0.25902,-1.4447,-0.14577,-0.47472,0.2899,0.023007,0.02736,0.10268,0.0066027,0.022228
-0.028543,0.046013,0.019315,-0.005414,-0.0047787,-0.039801,-0.043234,-0.012975,-0.00054766,-0.1318,0.018173,0.00059329,-0.25105,0.13277,0.32452,-1.827,-0.15491,-0.49002,0.29082,0.0085358,0.036115,0.10392,0.015056,0.015336
-0.033725,0.042409,0.017075,-0.013094,-0.0090079,-0.035587,-0.046736,-0.015833,0.0053982,-0.13574,0.013076,0.0047862,-0.59596,0.13642,0.36555,-2.0575,-0.1617,-0.48576,0.2955,0.0047404,0.045451,0.099734,0.019743,0.0107
-0.036844,0.046711,0.012818,-0.019093,-0.01297,-0.028379,-0.051842,-0.015407,0.0081449,-0.14099,0.0045654,0.0069394,-0.94095,0.14176,0.39605,-2.1456,-0.16616,-0.45536,0.30302,0.0099624,0.051605,0.089062,0.023072,0.0092615
-0.037245,0.061014,0.0077263,-0.020809,-0.01262,-0.019753,-0.056543,-0.010792,0.0065973,-0.14932,-0.0052919,0.0072145,-1.2069,0.14977,0.42573,-2.2328,-0.17054,-0.40791,0.30859,0.015821,0.052247,0.072144,0.026923,0.009492
-0.035965,0.084264,0.0023585,-0.017849,-0.0068746,-0.011858,-0.05756,-0.0042119,0.0022474,-0.16121,-0.013669,0.0060669,-1.3572,0.1551,0.45102,-2.4674,-0.17698,-0.35961,0.30453,0.012044,0.047427,0.050522,0.031904,0.0083511
-0.034663,0.11187,-0.0032415,-0.012504,0.0017169,-0.0061021,-0.053848,5.635e-006,-0.0025164,-0.17538,-0.01948,0.004069,-1.4194,0.15412,0.46028,-2.8793,-0.1851,-0.32281,0.28302,-0.006915,0.039182,0.026794,0.037814,0.0036114
-0.03385,0.13665,-0.0085508,-0.0081935,0.0087554,-0.0023583,-0.048161,-0.0014083,-0.0062685,-0.18954,-0.024173,0.0018444,-1.4608,0.14899,0.44703,-3.3561,-0.19136,-0.29932,0.24096,-0.037369,0.030239,0.0039627,0.044372,-0.0040818
-0.032289,0.15097,-0.011877,-0.0070301,0.010831,0.00070264,-0.044767,-0.0078663,-0.0089326,-0.20183,-0.029984,-4.5849e-005,-1.5354,0.14398,0.41853,-3.7224,-0.19054,-0.28131,0.18434,-0.067271,0.022706,-0.015411,0.051357,-0.011155
-0.028277,0.1496,-0.011095,-0.0084727,0.0074779,0.0044208,-0.045429,-0.014983,-0.010837,-0.21187,-0.037382,-0.0013119,-1.6417,0.13884,0.39231,-3.8395,-0.17844,-0.25829,0.12793,-0.082706,0.017451,-0.029766,0.05826,-0.013436
-0.021586,0.13195,-0.0055233,-0.010153,0.0011596,0.00903,-0.047748,-0.017675,-0.011934,-0.22027,-0.044272,-0.0021032,-1.7234,0.12719,0.38432,-3.6506,-0.1546,-0.22438,0.088689,-0.076401,0.014282,-0.03858,0.064265,-0.0093143
-0.014178,0.10229,0.0027423,-0.010099,-0.0044363,0.013471,-0.047649,-0.013863,-0.012195,-0.22713,-0.047807,-0.002978,-1.7112,0.10218,0.3989,-3.1663,-0.12345,-0.17969,0.076138,-0.052663,0.012554,-0.04212,0.068963,-0.0012751
-0.0089574,0.067574,0.0096434,-0.0084093,-0.0065743,0.016226,-0.043534,-0.0058211,-0.012501,-0.23093,-0.047105,-0.0046637,-1.5785,0.064123,0.42796,-2.4441,-0.092834,-0.12457,0.086298,-0.025045,0.01168,-0.04125,0.073064,0.0055607
-0.0076947,0.033796,0.011835,-0.0069789,-0.0048611,0.016501,-0.037817,0.001786,-0.014545,-0.22926,-0.04426,-0.0077419,-1.3685,0.022942,0.45801,-1.597,-0.070291,-0.052708,0.10352,-0.0079092,0.011336,-0.037429,0.078004,0.0069592
-0.0098809,0.0032866,0.0090565,-0.0076099,-0.0012024,0.014895,-0.034193,0.0053744,-0.019285,-0.22089,-0.042654,-0.012377,-1.1721,-0.0063138,0.47836,-0.8054,-0.058681,0.048394,0.10951,-0.0075567,0.011425,-0.032626,0.084282,0.0025288
-0.013285,-0.025345,0.0040625,-0.010214,0.0015231,0.013167,-0.033444,0.0045564,-0.025354,-0.20723,-0.04408,-0.018133,-1.0706,-0.010489,0.48469,-0.27761,-0.054293,0.18667,0.093903,-0.019034,0.011946,-0.028882,0.089919,-0.0041524
-0.015512,-0.05468,0.00011201,-0.01267,0.0013177,0.013377,-0.032251,0.0014778,-0.029297,-0.19161,-0.04724,-0.023917,-1.0836,0.01742,0.47781,-0.14994,-0.049223,0.35198,0.060439,-0.030562,0.012823,-0.027592,0.090919,-0.0083292
-0.015313,-0.085452,-0.0016703,-0.01247,-0.0015624,0.016927,-0.026496,-0.0015641,-0.027949,-0.17669,-0.048847,-0.028217,-1.1614,0.077864,0.46116,-0.39255,-0.036944,0.51316,0.025423,-0.031894,0.013681,-0.028879,0.084054,-0.0076381
-0.012964,-0.11543,-0.0026785,-0.008828,-0.0045467,0.023921,-0.015921,-0.0038616,-0.021103,-0.16244,-0.046243,-0.029704,-1.2271,0.16543,0.43957,-0.80869,-0.017115,0.63237,0.0099258,-0.02032,0.013742,-0.03151,0.07002,-0.0037489
-0.0098568,-0.14101,-0.0048159,-0.0035262,-0.0041745,0.033051,-0.0053807,-0.0059781,-0.012062,-0.14659,-0.039263,-0.027996,-1.2377,0.26859,0.41879,-1.148,0.0042816,0.68894,0.029945,-0.00038226,0.012128,-0.033477,0.054067,-0.00089627
-0.0076488,-0.16001,-0.0083139,0.00022294,0.0017393,0.042133,-0.001077,-0.0080812,-0.005451,-0.12752,-0.029966,-0.02409,-1.2155,0.36999,0.4038,-1.2557,0.019934,0.69448,0.089321,0.021401,0.0085835,-0.033016,0.042926,-0.0024971
-0.007264,-0.1733,-0.011639,0.00013254,0.012561,0.049256,-0.0050442,-0.0089182,-0.0040631,-0.10672,-0.020811,-0.019995,-1.2264,0.44995,0.39627,-1.1431,0.027487,0.68578,0.17835,0.041906,0.0041138,-0.029571,0.040038,-0.0084705
-0.0081195,-0.1839,-0.013437,-0.0033549,0.025031,0.054106,-0.013029,-0.0066752,-0.0073324,-0.088481,-0.013075,-0.017689,-1.3201,0.49294,0.39385,-0.93129,0.031876,0.69904,0.27813,0.062618,0.00073443,-0.0242,0.042881,-0.015291
-0.008228,-0.19437,-0.014269,-0.007274,0.035168,0.058559,-0.01788,-0.00096972,-0.012504,-0.076692,-0.0067357,-0.018048,-1.4808,0.49277,0.3933,-0.72571,0.0415,0.7449,0.36809,0.086402,0.00014114,-0.019151,0.044825,-0.018686
-0.0055562,-0.20476,-0.016127,-0.0083644,0.040629,0.065798,-0.015493,0.0060573,-0.017171,-0.07148,-0.0014905,-0.020483,-1.6248,0.45267,0.39523,-0.53637,0.061087,0.80326,0.43332,0.11314,0.0022124,-0.016715,0.040261,-0.016856
1.9064e-005,-0.21275,-0.020167,-0.0057258,0.041868,0.078198,-0.0080406,0.010867,-0.020838,-0.068853,0.0024314,-0.023477,-1.6499,0.38066,0.40551,-0.30403,0.087019,0.84114,0.46858,0.13809,0.004798,-0.017895,0.028913,-0.011725
0.0057584,-0.21575,-0.0251,-0.0017941,0.041354,0.095388,-0.0016861,0.011107,-0.02433,-0.063775,0.0045572,-0.025555,-1.4999,0.28503,0.43036,0.0056239,0.10901,0.83797,0.47797,0.15409,0.0053726,-0.021642,0.015781,-0.0072935
0.0073502,-0.21316,-0.028093,-0.0006897,0.041515,0.11408,-0.00097435,0.0074489,-0.028051,-0.054095,0.0051345,-0.026012,-1.2024,0.17343,0.46811,0.33634,0.11695,0.79774,0.47069,0.15583,0.003367,-0.025225,0.0067774,-0.0064714
0.0019177,-0.20661,-0.027427,-0.005059,0.043033,0.13003,-0.0048909,0.0030231,-0.031046,-0.041974,0.0055321,-0.025025,-0.85672,0.054454,0.50536,0.56517,0.10757,0.73953,0.45485,0.14287,0.00102,-0.025625,0.0037549,-0.0089327
-0.0094914,-0.19832,-0.024303,-0.013862,0.044701,0.14062,-0.0078815,0.00092772,-0.031872,-0.031714,0.0073804,-0.023301,-0.58222,-0.062645,0.52263,0.58981,0.085977,0.67622,0.43243,0.11947,0.0016392,-0.021241,0.003123,-0.011667
-0.022101,-0.18905,-0.021951,-0.022931,0.044825,0.14618,-0.0046473,0.001923,-0.030292,-0.026094,0.011104,-0.021582,-0.45896,-0.1718,0.50678,0.40036,0.061135,0.60069,0.3983,0.091834,0.0065473,-0.012851,-0.00085502,-0.011661
-0.030415,-0.17761,-0.022879,-0.027906,0.042911,0.14894,0.0055713,0.0041941,-0.027921,-0.024456,0.015276,-0.020265,-0.49155,-0.27405,0.4606,0.08087,0.039373,0.49115,0.3445,0.064622,0.013475,-0.0032434,-0.010984,-0.0084395
-0.031846,-0.16254,-0.026848,-0.027244,0.040243,0.15084,0.018671,0.0051857,-0.026982,-0.023997,0.017603,-0.019229,-0.61247,-0.37626,0.40107,-0.24484,0.021085,0.33122,0.26789,0.039269,0.018115,0.0042795,-0.024643,-0.0043984
-0.028178,-0.14432,-0.031336,-0.022956,0.038895,0.15222,0.029108,0.0037905,-0.028241,-0.022702,0.016831,-0.017964,-0.72024,-0.4837,0.34712,-0.46817,0.0030326,0.12851,0.17665,0.01483,0.0177,0.0075934,-0.035936,-0.0027343
-0.02384,-0.12594,-0.033758,-0.01871,0.039973,0.15251,0.033834,0.0010781,-0.030125,-0.021038,0.013924,-0.016015,-0.73195,-0.59249,0.30638,-0.51605,-0.016148,-0.082838,0.090338,-0.0094094,0.013432,0.0066411,-0.040524,-0.0047382
-0.022494,-0.1112,-0.033245,-0.017041,0.042545,0.15195,0.033647,-0.00082701,-0.030024,-0.020988,0.011432,-0.013527,-0.62342,-0.6891,0.27187,-0.3493,-0.032225,-0.25757,0.032364,-0.031549,0.0094762,0.003094,-0.038994,-0.0086475
-0.024633,-0.10207,-0.03058,-0.017966,0.044155,0.15242,0.031528,-0.00055518,-0.026735,-0.023655,0.011544,-0.011388,-0.43607,-0.75818,0.23056,0.029995,-0.036834,-0.36209,0.018244,-0.046757,0.0093353,-0.0008404,-0.035993,-0.010939
-0.027892,-0.097554,-0.02693,-0.019827,0.042591,0.15618,0.030029,0.0015537,-0.021874,-0.02795,0.014513,-0.010697,-0.24742,-0.79216,0.17607,0.55833,-0.023144,-0.39002,0.046893,-0.049477,0.012864,-0.0036347,-0.036063,-0.0090361
-0.029447,-0.09494,-0.023052,-0.021264,0.037606,0.16361,0.029982,0.0039783,-0.018851,-0.031609,0.01875,-0.011864,-0.12381,-0.79386,0.11446,1.1079,0.0087538,-0.3622,0.10077,-0.036896,0.016619,-0.0050011,-0.039853,-0.0034016
-0.028344,-0.092261,-0.019617,-0.0224,0.031306,0.1723,0.030992,0.0053978,-0.020127,-0.033387,0.022329,-0.014094,-0.084753,-0.77037,0.058484,1.5255,0.050996,-0.31351,0.15534,-0.011367,0.017114,-0.0056497,-0.043865,0.00251
-0.02593,-0.08943,-0.017714,-0.024245,0.026929,0.17859,0.032502,0.0057277,-0.024989,-0.03419,0.024373,-0.015805,-0.10015,-0.72497,0.015943,1.6932,0.092194,-0.27574,0.19211,0.019941,0.013916,-0.0065816,-0.043759,0.00443
-0.024307,-0.087124,-0.018277,-0.02706,0.026852,0.18054,0.034147,0.0060384,-0.029797,-0.036052,0.025105,-0.015657,-0.11849,-0.65593,-0.017837,1.5631,0.12342,-0.26629,0.20711,0.048136,0.0097575,-0.0083804,-0.038269,0.00015995
-0.024369,-0.084795,-0.02065,-0.029375,0.031169,0.1796,0.035387,0.0075155,-0.030656,-0.040108,0.024787,-0.013357,-0.10312,-0.56396,-0.057419,1.1375,0.14167,-0.28689,0.20995,0.066605,0.0077721,-0.010792,-0.030391,-0.0087341
-0.025107,-0.080252,-0.022006,-0.0288,0.03772,0.17914,0.035334,0.010324,-0.026457,-0.045579,0.022947,-0.0096526,-0.050886,-0.46066,-0.11728,0.42761,0.14913,-0.32977,0.21488,0.073587,0.0086428,-0.012685,-0.02494,-0.017601
-0.024642,-0.071628,-0.018979,-0.024102,0.043434,0.18122,0.033246,0.013243,-0.019833,-0.050673,0.018887,-0.0057081,0.016612,-0.36813,-0.20243,-0.55183,0.15005,-0.38513,0.23074,0.07207,0.010353,-0.012401,-0.02463,-0.021468
-0.021979,-0.059909,-0.010688,-0.016777,0.046112,0.18434,0.029178,0.014328,-0.015124,-0.054353,0.012938,-0.0025155,0.077611,-0.30757,-0.30596,-1.7303,0.14829,-0.44464,0.25683,0.067514,0.010618,-0.008503,-0.027969,-0.018204
-0.017986,-0.049247,-0.00046717,-0.010495,0.045546,0.18464,0.023924,0.012114,-0.014898,-0.057175,0.0069219,-0.00067447,0.12922,-0.28474,-0.41331,-2.9216,0.1469,-0.50054,0.28654,0.064944,0.0094893,-0.00069381,-0.030624,-0.0099613
-0.014809,-0.044245,0.0058067,-0.0085505,0.043359,0.1795,0.018284,0.0065438,-0.017829,-0.060491,0.0029956,-0.00035106,0.18698,-0.28395,-0.50886,-3.8353,0.14858,-0.54418,0.31472,0.066895,0.0095367,0.0095959,-0.029019,-0.0018212
-0.014232,-0.046373,0.0039436,-0.011228,0.041691,0.17035,0.01256,-0.00091224,-0.0198,-0.064948,0.0017762,-0.0011798,0.26768,-0.27581,-0.58019,-4.1874,0.15517,-0.56808,0.34214,0.072811,0.013388,0.019539,-0.0231,0.0015446
-0.016252,-0.052755,-0.0051248,-0.015358,0.041594,0.16189,0.0069802,-0.007885,-0.017454,-0.06978,0.0016114,-0.0022993,0.37002,-0.23376,-0.61964,-3.8489,0.16609,-0.57157,0.37324,0.079869,0.020906,0.026284,-0.016078,-0.0011821
-0.018936,-0.058471,-0.015754,-0.016667,0.042235,0.15844,0.0025362,-0.012058,-0.011257,-0.073428,-9.152e-005,-0.0028663,0.4682,-0.1485,-0.62538,-2.9243,0.17764,-0.56486,0.40983,0.084807,0.028608,0.028638,-0.01156,-0.0075608
-0.019657,-0.06033,-0.021685,-0.013146,0.041513,0.16052,0.00093465,-0.012055,-0.0053463,-0.074766,-0.004563,-0.0028563,0.52297,-0.032053,-0.60335,-1.6975,0.18479,-0.56541,0.44655,0.086092,0.031888,0.027826,-0.010647,-0.013727
-0.016825,-0.058806,-0.020472,-0.0066928,0.037713,0.16471,0.0032077,-0.0080576,-0.0041152,-0.073818,-0.010509,-0.0033082,0.50359,0.089775,-0.56841,-0.48082,0.185,-0.58609,0.47309,0.085307,0.028191,0.026537,-0.01141,-0.017455
-0.010934,-0.056712,-0.014643,-0.0016249,0.030961,0.16667,0.0081575,-0.0019437,-0.008352,-0.071593,-0.015189,-0.0054177,0.40786,0.19081,-0.54095,0.52923,0.18103,-0.62181,0.48168,0.086684,0.018661,0.026816,-0.010936,-0.019376
-0.0042788,-0.056199,-0.0089049,-0.0012943,0.023337,0.16458,0.012456,0.0033672,-0.014308,-0.069508,-0.01673,-0.0090658,0.26969,0.25645,-0.5384,1.3044,0.18003,-0.64501,0.47402,0.094597,0.0071967,0.028483,-0.0078871,-0.02149
0.00040955,-0.056947,-0.006121,-0.0056157,0.017597,0.15988,0.012883,0.0053851,-0.016598,-0.068971,-0.015556,-0.012298,0.15005,0.28845,-0.56491,1.938,0.18908,-0.61537,0.46137,0.11043,-0.0020461,0.02953,-0.0032945,-0.024564
0.0014242,-0.056889,-0.0055172,-0.011468,0.015553,0.15517,0.0090103,0.0036294,-0.012499,-0.071181,-0.01367,-0.012664,0.11414,0.30109,-0.60604,2.5604,0.21023,-0.49931,0.4573,0.13108,-0.0067992,0.02826,0.00089139,-0.026996
-0.0012083,-0.054239,-0.0042346,-0.015403,0.017366,0.15158,0.0039208,8.8805e-005,-0.0040334,-0.076807,-0.012522,-0.0095036,0.20288,0.31097,-0.63304,3.2772,0.23901,-0.28772,0.46831,0.15049,-0.0072778,0.025246,0.0038456,-0.026254
-0.0059902,-0.048608,-0.00031605,-0.016205,0.022065,0.14817,0.0020616,-0.0021333,0.003794,-0.085498,-0.011349,-0.0049944,0.40951,0.3258,-0.61557,4.1455,0.26751,-0.00089428,0.48965,0.16338,-0.0053604,0.023125,0.0064817,-0.021486
-0.010734,-0.040342,0.0056574,-0.015177,0.028498,0.14355,0.0059046,-0.0012003,0.0068589,-0.095627,-0.0074135,-0.0026387,0.67339,0.33826,-0.53646,5.1575,0.28968,0.32198,0.50931,0.1685,-0.0032213,0.024196,0.010141,-0.014715
-0.013323,-0.029308,0.011318,-0.014254,0.035714,0.13785,0.014133,0.0019693,0.0045785,-0.10479,0.0020366,-0.0042531,0.89864,0.32837,-0.40061,6.2183,0.30467,0.64118,0.51696,0.169,-0.0021968,0.02801,0.014753,-0.0094399
-0.012278,-0.014882,0.014398,-0.013958,0.04262,0.13293,0.022754,0.0045178,-0.00053623,-0.11097,0.017526,-0.0081831,0.99453,0.27311,-0.23356,7.1394,0.31594,0.93098,0.51064,0.16975,-0.0022867,0.03139,0.018314,-0.0079276
-0.0072971,0.002576,0.013932,-0.01317,0.047664,0.13057,0.028075,0.0042184,-0.00545,-0.11365,0.036388,-0.010569,0.9201,0.15803,-0.07036,7.6938,0.32697,1.1819,0.49619,0.1737,-0.0024368,0.031096,0.018232,-0.0096929
0.00027378,0.020362,0.010214,-0.010838,0.04925,0.1306,0.029101,0.0015602,-0.008731,-0.11405,0.053838,-0.0086965,0.70764,-0.015021,0.059629,7.7318,0.33742,1.3917,0.4805,0.17987,-0.0014937,0.026705,0.013443,-0.012402
0.0075132,0.033978,0.004325,-0.0078128,0.046761,0.1307,0.027671,-0.00058723,-0.010626,-0.1144,0.065619,-0.0034114,0.44787,-0.22699,0.1446,7.2891,0.34272,1.553,0.46421,0.1842,0.000709,0.020904,0.0055499,-0.014108
0.011051,0.039702,-0.002038,-0.0068275,0.041204,0.12808,0.026627,0.00048262,-0.011697,-0.11677,0.070706,0.0016616,0.24233,-0.4465,0.19321,6.594,0.33722,1.6492,0.44014,0.18231,0.0029723,0.016801,-0.0018475,-0.014646
0.0090119,0.037212,-0.0067879,-0.010361,0.034762,0.12165,0.027657,0.0048228,-0.011833,-0.12228,0.072178,0.0033702,0.1513,-0.63769,0.22738,5.9429,0.31826,1.6615,0.39903,0.17219,0.0035049,0.014901,-0.0051465,-0.015106
0.002565,0.030019,-0.0083979,-0.018139,0.029467,0.11262,0.030379,0.0096509,-0.010677,-0.13113,0.07522,0.0016718,0.16925,-0.76879,0.26958,5.5196,0.28813,1.585,0.33841,0.15539,0.001305,0.012737,-0.0027527,-0.016278
-0.0043365,0.023191,-0.0072572,-0.026554,0.026002,0.10333,0.033007,0.011643,-0.0087395,-0.14308,0.083138,-0.00082306,0.24136,-0.82016,0.33183,5.2923,0.25284,1.4394,0.26798,0.13631,-0.0030597,0.0075709,0.0040393,-0.017787
-0.0072909,0.02019,-0.0059483,-0.030788,0.023505,0.095258,0.033841,0.0096457,-0.0076857,-0.15807,0.094125,-0.001828,0.30592,-0.79006,0.41244,5.0719,0.2192,1.2671,0.20683,0.12017,-0.0080123,-0.00058316,0.011724,-0.018611
-0.0044195,0.021441,-0.0074608,-0.028152,0.020314,0.088023,0.032485,0.0054261,-0.0091605,-0.17621,0.10161,-0.001762,0.33139,-0.69528,0.50073,4.6867,0.19202,1.1162,0.17337,0.11041,-0.012321,-0.0086709,0.01646,-0.0182
0.0022851,0.025752,-0.012452,-0.020075,0.015006,0.079936,0.030029,0.0019385,-0.01309,-0.19731,0.098521,-0.0029811,0.32395,-0.56425,0.58487,4.1305,0.17256,1.0172,0.17387,0.10653,-0.015894,-0.013351,0.016173,-0.016923
0.0084609,0.033175,-0.018171,-0.01113,0.0071331,0.069407,0.028185,0.00078753,-0.017095,-0.22016,0.082705,-0.0065389,0.30531,-0.42458,0.65671,3.5632,0.15823,0.96829,0.19714,0.10354,-0.019232,-0.014045,0.011672,-0.015537
0.010724,0.046456,-0.020565,-0.0058096,-0.0024573,0.055987,0.027952,0.0011658,-0.017774,-0.24211,0.05911,-0.0098877,0.28132,-0.29179,0.71132,3.1654,0.14329,0.93914,0.21895,0.093757,-0.022201,-0.013367,0.0059506,-0.014417
0.009247,0.069294,-0.018023,-0.005475,-0.011651,0.040429,0.028728,0.001025,-0.013028,-0.25956,0.036865,-0.0083162,0.22642,-0.16665,0.74356,2.9717,0.12109,0.89196,0.21438,0.070558,-0.023562,-0.014733,0.0019076,-0.013421
0.0074593,0.10231,-0.013206,-0.0077213,-0.017645,0.024129,0.028529,-0.00084466,-0.003695,-0.26933,0.023261,0.00068732,0.095211,-0.042951,0.74616,2.8258,0.087633,0.80657,0.17056,0.032277,-0.021927,-0.019662,-1.9063e-005,-0.012355
0.0090597,0.13981,-0.010862,-0.008513,-0.018276,0.0086703,0.025263,-0.0038642,0.0067048,-0.27037,0.019308,0.014125,-0.14745,0.080257,0.71167,2.497,0.044639,0.69361,0.092313,-0.016306,-0.017285,-0.027218,-0.0024006,-0.011363
0.014803,0.17031,-0.013394,-0.0053498,-0.013649,-0.0043328,0.018217,-0.0066385,0.013925,-0.26465,0.020223,0.024704,-0.49895,0.19186,0.63744,1.8652,-0.00045484,0.58704,-0.0024876,-0.066055,-0.011515,-0.035532,-0.0087918,-0.010762
0.021732,0.18093,-0.018359,0.00092261,-0.0067942,-0.013497,0.0086374,-0.0087112,0.015357,-0.25636,0.02007,0.026077,-0.91287,0.27278,0.5305,1.0254,-0.038561,0.52129,-0.09404,-0.10805,-0.0071912,-0.043319,-0.020445,-0.010601
0.025487,0.16349,-0.020539,0.0068852,-0.002327,-0.018371,-0.0010275,-0.011217,0.011377,-0.24975,0.01646,0.017792,-1.3179,0.30763,0.40924,0.22903,-0.064755,0.50868,-0.17059,-0.1377,-0.0057131,-0.049812,-0.034434,-0.01056
0.023769,0.11839,-0.016825,0.0091535,-0.0035389,-0.020218,-0.0086307,-0.01568,0.0049632,-0.24673,0.011553,0.0056233,-1.6483,0.29454,0.29985,-0.29177,-0.081329,0.5326,-0.23095,-0.15594,-0.0064595,-0.053778,-0.045067,-0.010317
0.018069,0.054567,-0.0092985,0.006793,-0.010035,-0.022019,-0.013365,-0.022116,-0.00014086,-0.24579,0.0090822,-0.0031191,-1.8659,0.24603,0.22764,-0.48568,-0.095283,0.56012,-0.2791,-0.167,-0.0076975,-0.053496,-0.047863,-0.0098516
0.012364,-0.014413,-0.0034697,0.0018158,-0.018008,-0.027257,-0.01558,-0.028376,-0.0017182,-0.24313,0.010518,-0.0053547,-1.9626,0.18162,0.20605,-0.51398,-0.11205,0.56417,-0.31607,-0.17475,-0.0082435,-0.048376,-0.042999,-0.0092082
0.0099825,-0.075616,-0.0032526,-0.0024564,-0.023214,-0.038069,-0.015721,-0.031585,-0.00053117,-0.23522,0.013784,-0.0042465,-1.9513,0.11896,0.22897,-0.63635,-0.13069,0.5391,-0.33557,-0.18033,-0.0082193,-0.040674,-0.035278,-0.0079825
0.011309,-0.12107,-0.0073884,-0.0038176,-0.024299,-0.054089,-0.013508,-0.030503,9.8537e-005,-0.22133,0.015161,-0.0059524,-1.859,0.069917,0.2726,-1.0375,-0.14479,0.50013,-0.32631,-0.18228,-0.008299,-0.035053,-0.030369,-0.0053115
0.014035,-0.14957,-0.010661,-0.0025753,-0.02363,-0.072852,-0.0081904,-0.026655,-0.0033594,-0.20419,0.01202,-0.014047,-1.7285,0.041917,0.30802,-1.715,-0.14812,0.46953,-0.27892,-0.17859,-0.0084826,-0.035668,-0.030323,-0.00072988
0.015405,-0.16559,-0.0086802,-0.00097249,-0.02487,-0.091485,0.00031895,-0.02314,-0.011682,-0.18834,0.0036793,-0.026327,-1.6174,0.039665,0.31771,-2.4974,-0.13991,0.46195,-0.19274,-0.16873,-0.0078813,-0.042944,-0.032154,0.0048175
0.014337,-0.17604,-0.0017424,-0.0012173,-0.029451,-0.1084,0.01052,-0.022092,-0.021491,-0.17709,-0.0099132,-0.036494,-1.5791,0.063442,0.30451,-3.168,-0.12499,0.47927,-0.078551,-0.15411,-0.0057972,-0.052931,-0.030759,0.0090253
0.011693,-0.18634,0.0056456,-0.0037323,-0.035112,-0.12384,0.01962,-0.023045,-0.026917,-0.17004,-0.029397,-0.039146,-1.6271,0.10508,0.28559,-3.6001,-0.10895,0.51634,0.044081,-0.13682,-0.0028405,-0.060023,-0.023689,0.0097614
0.0088918,-0.1979,0.0088332,-0.0070004,-0.037836,-0.13896,0.025046,-0.023616,-0.023637,-0.16267,-0.054966,-0.033969,-1.7137,0.14681,0.27526,-3.8142,-0.093175,0.5695,0.1534,-0.11803,-0.00067219,-0.06095,-0.013577,0.0069924
0.0064928,-0.20837,0.0067848,-0.0090576,-0.03544,-0.15441,0.026114,-0.021836,-0.012432,-0.14871,-0.083654,-0.025937,-1.7526,0.16674,0.27023,-3.9285,-0.074527,0.63888,0.23368,-0.097282,-0.00042158,-0.056876,-0.0060361,0.0032789
0.0041632,-0.21441,0.0023369,-0.0093216,-0.02957,-0.16927,0.024465,-0.017989,0.0007804,-0.12376,-0.10802,-0.021538,-1.6828,0.14905,0.24991,-4.0571,-0.049944,0.7228,0.2814,-0.073261,-0.0013652,-0.052082,-0.0048263,0.002005
0.0018325,-0.2147,-0.00076011,-0.0091562,-0.024276,-0.18108,0.022765,-0.01435,0.0089841,-0.088211,-0.11878,-0.024066,-1.5249,0.092485,0.19197,-4.2381,-0.021258,0.81087,0.30604,-0.04546,-0.0013765,-0.050505,-0.0085119,0.004536
0.00051359,-0.211,-0.00098905,-0.010653,-0.02246,-0.18683,0.022511,-0.013139,0.0093429,-0.047484,-0.11037,-0.031453,-1.3773,0.011315,0.090556,-4.4429,0.0045614,0.88443,0.32357,-0.015354,0.0010568,-0.052944,-0.011503,0.0087303
0.0016029,-0.20622,0.00026728,-0.014668,-0.023399,-0.18444,0.022673,-0.01459,0.0054478,-0.0093007,-0.085396,-0.038041,-1.3389,-0.072064,-0.037719,-4.6437,0.020188,0.92667,0.34541,0.01373,0.0050929,-0.056929,-0.0085252,0.010359
0.0051432,-0.20167,0.00059686,-0.019864,-0.023574,-0.17386,0.020419,-0.016797,0.0044192,0.020363,-0.053989,-0.038758,-1.4184,-0.138,-0.16458,-4.867,0.023517,0.93483,0.36955,0.038095,0.007811,-0.058958,0.0012851,0.006533
0.0088789,-0.19604,-0.0011149,-0.023683,-0.020059,-0.15718,0.01355,-0.017358,0.01095,0.040187,-0.028035,-0.032565,-1.5083,-0.17761,-0.26798,-5.1779,0.019108,0.92399,0.38095,0.05554,0.0064316,-0.057173,0.013892,-0.0016602
0.0094546,-0.18729,-0.0038987,-0.02448,-0.01335,-0.13737,0.0027683,-0.015259,0.023133,0.053508,-0.014459,-0.022866,-1.4569,-0.1942,-0.34266,-5.6054,0.014435,0.91695,0.36232,0.066405,0.00061633,-0.052558,0.023441,-0.0096657
0.0050747,-0.1755,-0.0057374,-0.022987,-0.0070278,-0.11627,-0.0081743,-0.011428,0.033638,0.065603,-0.012388,-0.014928,-1.188,-0.19863,-0.39652,-6.0778,0.014322,0.92683,0.30826,0.073069,-0.0071214,-0.048154,0.026081,-0.012851
-0.0027312,-0.16371,-0.0052173,-0.021791,-0.0044836,-0.093524,-0.014763,-0.0076994,0.035409,0.08027,-0.015953,-0.012409,-0.76805,-0.20227,-0.4388,-6.4349,0.01815,0.94529,0.23175,0.078198,-0.013233,-0.047141,0.021667,-0.010012
-0.010079,-0.15559,-0.0024619,-0.023225,-0.005699,-0.06761,-0.014739,-0.0053161,0.027228,0.098077,-0.020008,-0.015401,-0.36297,-0.21159,-0.47177,-6.5213,0.021503,0.94634,0.15667,0.08286,-0.015655,-0.051107,0.012819,-0.0041047
-0.01382,-0.152,0.0010789,-0.027491,-0.0070385,-0.038633,-0.0095056,-0.0042212,0.014603,0.1172,-0.024025,-0.020985,-0.11821,-0.22688,-0.49251,-6.2919,0.020103,0.90308,0.10114,0.085785,-0.015003,-0.059349,0.0029252,0.00029626
-0.013985,-0.14982,0.0035299,-0.032588,-0.004327,-0.010662,-0.0028807,-0.0034566,0.0053752,0.13569,-0.031365,-0.025474,-0.060129,-0.24493,-0.50107,-5.8466,0.012481,0.80486,0.06418,0.084273,-0.013616,-0.069359,-0.0052073,0.00051614
-0.01327,-0.14441,0.0034867,-0.036035,0.0035121,0.0089641,0.001661,-0.0019863,0.0038031,0.15293,-0.045098,-0.026672,-0.09799,-0.26348,-0.50569,-5.3629,-0.00033312,0.6621,0.026621,0.076096,-0.013355,-0.078131,-0.0097726,-0.0026394
-0.014036,-0.13357,0.00050641,-0.036753,0.013484,0.013665,0.0030541,0.00079607,0.0079073,0.16923,-0.06425,-0.024833,-0.11682,-0.28351,-0.51937,-4.9776,-0.016851,0.49688,-0.033784,0.061045,-0.013994,-0.083652,-0.010236,-0.0062447
-0.015814,-0.11956,-0.0048409,-0.035479,0.021003,0.0022361,0.0026162,0.0049605,0.011932,0.18413,-0.083633,-0.022032,-0.075242,-0.3072,-0.55068,-4.7028,-0.036461,0.32878,-0.12484,0.04107,-0.013475,-0.085794,-0.0077647,-0.0079967
-0.015907,-0.10711,-0.011231,-0.033509,0.02351,-0.019739,0.0023587,0.0099649,0.011481,0.19563,-0.09721,-0.020516,-0.025496,-0.33217,-0.59663,-4.4363,-0.058952,0.16747,-0.23371,0.019028,-0.0098073,-0.086022,-0.0050792,-0.0078969
-0.012531,-0.099473,-0.017037,-0.031212,0.022058,-0.043213,0.0032377,0.014509,0.0069372,0.20132,-0.10208,-0.021056,-0.048016,-0.34699,-0.64362,-4.0466,-0.083306,0.015743,-0.33661,-0.0030435,-0.0030941,-0.086013,-0.0049316,-0.0077453
-0.0072542,-0.096027,-0.020884,-0.027902,0.0197,-0.061355,0.0046453,0.016741,0.0025784,0.20065,-0.09995,-0.022332,-0.16848,-0.33312,-0.67534,-3.4636,-0.10762,-0.1241,-0.41653,-0.025054,0.0039804,-0.08614,-0.0078239,-0.0093096
-0.0040112,-0.093298,-0.022139,-0.023211,0.018523,-0.073095,0.0052585,0.01517,0.0025313,0.19619,-0.09545,-0.021863,-0.33309,-0.27478,-0.68133,-2.7094,-0.13066,-0.24901,-0.47499,-0.048874,0.0077362,-0.085122,-0.010903,-0.012884
-0.0054043,-0.088173,-0.021084,-0.01844,0.018147,-0.081854,0.004414,0.0098484,0.0072241,0.19258,-0.093032,-0.017996,-0.45704,-0.17075,-0.66008,-1.8622,-0.15337,-0.3604,-0.52957,-0.07732,0.0060756,-0.08132,-0.0095214,-0.017235
-0.0099271,-0.080148,-0.018558,-0.016268,0.016847,-0.090937,0.0030294,0.0027822,0.013256,0.19386,-0.095146,-0.011507,-0.49389,-0.039138,-0.6154,-0.99647,-0.17843,-0.46832,-0.60067,-0.11247,7.7291e-005,-0.074713,-0.00072656,-0.020654
-0.013033,-0.070863,-0.015266,-0.018684,0.013877,-0.099857,0.0034797,-0.0031042,0.016511,0.20089,-0.1025,-0.0053822,-0.46218,0.090747,-0.55039,-0.15454,-0.20742,-0.58684,-0.698,-0.15389,-0.0067276,-0.067733,0.014061,-0.022157
-0.011261,-0.061934,-0.011309,-0.024934,0.010552,-0.10473,0.0083675,-0.0058297,0.015613,0.21074,-0.11514,-0.0027371,-0.4138,0.195,-0.46457,0.63597,-0.23794,-0.72212,-0.8157,-0.19764,-0.010905,-0.063902,0.029563,-0.022037
-0.0055475,-0.05354,-0.0064969,-0.031476,0.0090958,-0.10204,0.0187,-0.0055656,0.012705,0.21816,-0.13251,-0.0045274,-0.38445,0.26821,-0.35677,1.3322,-0.26356,-0.86381,-0.93718,-0.23708,-0.011433,-0.065038,0.040153,-0.021531
-0.00054626,-0.045008,-0.001292,-0.034344,0.010521,-0.092031,0.032531,-0.0041736,0.011091,0.21823,-0.15206,-0.0090577,-0.37473,0.32257,-0.23112,1.8775,-0.27735,-0.98894,-1.0439,-0.26562,-0.0098682,-0.069283,0.043591,-0.021858
-0.00055042,-0.036321,0.0025902,-0.032081,0.013614,-0.078636,0.045205,-0.0035337,0.012048,0.20909,-0.16824,-0.013753,-0.37054,0.37375,-0.10033,2.2445,-0.27644,-1.0771,-1.1225,-0.28009,-0.0083203,-0.071745,0.04206,-0.023221
-0.0058082,-0.028552,0.0028767,-0.026784,0.015962,-0.066302,0.051515,-0.0041864,0.013787,0.19351,-0.17377,-0.017492,-0.3695,0.42596,0.017357,2.4808,-0.26397,-1.1248,-1.1684,-0.2824,-0.0072487,-0.067565,0.039947,-0.024478
-0.012522,-0.022595,-0.001465,-0.022299,0.016024,-0.056807,0.048625,-0.0054055,0.013409,0.17852,-0.16383,-0.021235,-0.37966,0.46967,0.10616,2.7042,-0.24673,-1.1475,-1.1868,-0.278,-0.0052904,-0.055255,0.04044,-0.023856
-0.016291,-0.01763,-0.0088902,-0.021042,0.014414,-0.048911,0.037732,-0.0063693,0.0099014,0.17257,-0.14016,-0.026345,-0.3943,0.49406,0.15989,3.0309,-0.23063,-1.1693,-1.1916,-0.27222,-0.0013385,-0.037919,0.043597,-0.020358
-0.015688,-0.011289,-0.015994,-0.022127,0.013423,-0.040655,0.023197,-0.0070817,0.0052543,0.18126,-0.1118,-0.032416,-0.37752,0.50173,0.18308,3.4815,-0.21792,-1.2087,-1.2022,-0.26732,0.0032854,-0.021621,0.046793,-0.014843
-0.012832,-0.001778,-0.020133,-0.022373,0.015323,-0.031724,0.0097406,-0.0081148,0.0026073,0.20412,-0.090388,-0.036982,-0.28489,0.51003,0.18554,3.9417,-0.20814,-1.2742,-1.2359,-0.26265,0.0050557,-0.012227,0.046425,-0.0098454
-0.010857,0.0099831,-0.021746,-0.01928,0.020834,-0.023626,-0.000161,-0.0096014,0.0031982,0.23484,-0.082761,-0.037652,-0.10278,0.53547,0.17528,4.221,-0.2014,-1.3673,-1.3006,-0.25735,0.0010997,-0.01286,0.039302,-0.0081442
-0.010923,0.020498,-0.02402,-0.013381,0.02875,-0.017938,-0.0069192,-0.01073,0.0050507,0.2655,-0.086034,-0.034687,0.13435,0.57439,0.15517,4.1743,-0.20015,-1.4888,-1.3924,-0.25276,-0.0078453,-0.02328,0.023375,-0.011106
-0.011474,0.026428,-0.029796,-0.0079428,0.036712,-0.01483,-0.012473,-0.010438,0.0047191,0.29181,-0.089391,-0.03138,0.37073,0.59914,0.12508,3.7986,-0.20738,-1.6376,-1.4973,-0.25195,-0.017349,-0.040951,-0.0015384,-0.017987
-0.010124,0.027682,-0.038373,-0.006319,0.042384,-0.013508,-0.0184,-0.0086585,0.00053339,0.3155,-0.081761,-0.031592,0.57676,0.5762,0.085908,3.2307,-0.22293,-1.804,-1.598,-0.25659,-0.02252,-0.062611,-0.032787,-0.026529
-0.0061748,0.028005,-0.045329,-0.0092321,0.044316,-0.013903,-0.024951,-0.0067932,-0.0056419,0.34175,-0.059787,-0.036486,0.77074,0.49291,0.040926,2.6469,-0.24165,-1.9659,-1.6769,-0.26425,-0.021851,-0.08536,-0.064705,-0.034195
-0.0014537,0.032237,-0.045904,-0.014242,0.04221,-0.017445,-0.031263,-0.0067865,-0.009775,0.37407,-0.030009,-0.043348,0.99197,0.36995,-0.0067202,2.1498,-0.25569,-2.0951,-1.7158,-0.26881,-0.018252,-0.10704,-0.090424,-0.039115
0.0011611,0.042404,-0.039151,-0.017702,0.036759,-0.025685,-0.036043,-0.009548,-0.0089559,0.41102,-0.0037906,-0.047578,1.2504,0.24795,-0.056864,1.731,-0.25943,-2.17,-1.6951,-0.26409,-0.016409,-0.12624,-0.10526,-0.040441
0.00018756,0.055922,-0.029184,-0.017414,0.029324,-0.037875,-0.038106,-0.014137,-0.0036823,0.44778,0.010572,-0.04618,1.5026,0.15875,-0.111,1.3381,-0.25311,-2.1854,-1.5984,-0.24773,-0.018871,-0.14233,-0.1094,-0.038407
-0.0030602,0.067472,-0.022297,-0.013826,0.021559,-0.049915,-0.03681,-0.018431,0.0028525,0.48093,0.012153,-0.039841,1.6793,0.10556,-0.16647,0.97627,-0.24208,-2.1518,-1.422,-0.22237,-0.024255,-0.15552,-0.10748,-0.034345
-0.0052244,0.072949,-0.022359,-0.0090783,0.015027,-0.055992,-0.032594,-0.020665,0.007761,0.51174,0.0053468,-0.032083,1.7404,0.067644,-0.21118,0.74846,-0.23264,-2.0844,-1.1842,-0.19331,-0.028833,-0.16681,-0.10523,-0.030427
-0.0032935,0.072163,-0.028246,-0.0050876,0.010861,-0.051704,-0.027329,-0.020526,0.011007,0.54441,-0.0055961,-0.026478,1.7071,0.023588,-0.22554,0.78363,-0.22778,-1.9932,-0.92231,-0.1651,-0.029708,-0.17749,-0.1058,-0.028794
0.0030529,0.068237,-0.035179,-0.0024058,0.0095961,-0.036053,-0.023804,-0.018985,0.015149,0.58068,-0.019972,-0.024345,1.6409,-0.029317,-0.19304,1.1078,-0.22597,-1.881,-0.6771,-0.13952,-0.026734,-0.18812,-0.10866,-0.030304
0.010867,0.064606,-0.038506,-0.00052676,0.011256,-0.010697,-0.024187,-0.017198,0.022443,0.61575,-0.039303,-0.024562,1.5899,-0.076875,-0.11358,1.5698,-0.22296,-1.7485,-0.47202,-0.11598,-0.021935,-0.19745,-0.11157,-0.03386
0.015722,0.062476,-0.036759,0.001108,0.015547,0.022587,-0.028409,-0.015481,0.031869,0.6397,-0.063559,-0.025151,1.5519,-0.10766,-0.0091087,1.9046,-0.21445,-1.5997,-0.30218,-0.093043,-0.017524,-0.20209,-0.11322,-0.0371
0.014817,0.060846,-0.031907,0.0025618,0.021867,0.063582,-0.033848,-0.013157,0.038876,0.64377,-0.089349,-0.024991,1.4873,-0.13017,0.084664,1.9072,-0.19749,-1.4414,-0.14269,-0.069196,-0.014521,-0.19762,-0.11384,-0.038109
0.0091819,0.058571,-0.027229,0.0036662,0.02906,0.11254,-0.036889,-0.0092396,0.038381,0.62628,-0.11202,-0.024381,1.3679,-0.16971,0.13706,1.5989,-0.17032,-1.2783,0.028716,-0.042629,-0.012807,-0.18107,-0.11348,-0.036781
0.0032011,0.0561,-0.024847,0.0044925,0.035278,0.16701,-0.035415,-0.0033648,0.028699,0.59325,-0.12933,-0.024477,1.2146,-0.24665,0.13959,1.2549,-0.13237,-1.1094,0.21074,-0.011224,-0.011889,-0.15333,-0.11021,-0.034627
0.00153,0.055124,-0.024633,0.0053454,0.038499,0.21946,-0.030396,0.0036875,0.013108,0.55345,-0.143,-0.026425,1.0872,-0.35566,0.10923,1.2564,-0.085072,-0.93207,0.37501,0.025946,-0.011276,-0.11957,-0.10071,-0.033198
0.0056375,0.056676,-0.024792,0.0063069,0.037746,0.25829,-0.025376,0.01015,-0.0023587,0.51232,-0.15649,-0.030863,1.0354,-0.46501,0.074938,1.855,-0.033159,-0.74917,0.48289,0.066144,-0.010277,-0.086919,-0.082998,-0.032546
0.012701,0.059803,-0.023253,0.0069337,0.034112,0.27259,-0.024167,0.013979,-0.013121,0.46968,-0.17151,-0.037786,1.0523,-0.53713,0.056898,3.0074,0.015401,-0.57222,0.51034,0.10176,-0.0079875,-0.060746,-0.05905,-0.031147
0.017837,0.062334,-0.018941,0.0065205,0.030382,0.25767,-0.028378,0.01378,-0.018808,0.42233,-0.18631,-0.046534,1.0741,-0.55333,0.053519,4.3894,0.051775,-0.41656,0.46312,0.12233,-0.0039793,-0.042163,-0.034524,-0.027347
0.017941,0.063083,-0.012393,0.0046898,0.029048,0.21782,-0.036448,0.0095171,-0.022412,0.36831,-0.19698,-0.055868,1.0244,-0.52267,0.045573,5.5787,0.07011,-0.291,0.37253,0.11951,0.0008898,-0.028755,-0.015601,-0.021087
0.014043,0.063343,-0.0056261,0.0017384,0.030143,0.16424,-0.044776,0.0026343,-0.02689,0.30882,-0.19994,-0.064257,0.86819,-0.47025,0.013736,6.2797,0.070699,-0.19069,0.27655,0.092063,0.0046711,-0.017729,-0.005354,-0.014392
0.010295,0.066167,-0.0012391,-0.0015351,0.030997,0.10962,-0.050107,-0.0045678,-0.032346,0.2468,-0.1933,-0.070312,0.63434,-0.41767,-0.044259,6.4436,0.060384,-0.099854,0.20066,0.047422,0.0058239,-0.0086684,-0.0024205,-0.010189
0.010531,0.073934,-0.0010009,-0.004292,0.02858,0.062766,-0.051466,-0.010079,-0.036136,0.18475,-0.17642,-0.073066,0.39197,-0.37248,-0.10988,6.2231,0.049539,-0.0033155,0.15063,-0.001602,0.004787,-0.0034229,-0.0026836,-0.010323
0.015255,0.086187,-0.0045812,-0.0060028,0.022601,0.026519,-0.050379,-0.013205,-0.035389,0.12441,-0.14932,-0.071936,0.20522,-0.33245,-0.1558,5.8211,0.046884,0.1012,0.11887,-0.043204,0.0038851,-0.0033209,-0.0022995,-0.014185
0.021447,0.09943,-0.0093475,-0.006525,0.016376,-0.00059138,-0.049339,-0.014788,-0.029381,0.068238,-0.11304,-0.066633,0.10167,-0.29541,-0.16398,5.3583,0.054778,0.19921,0.096157,-0.071995,0.0052044,-0.0064211,0.00027494,-0.018936
0.025102,0.1089,-0.011715,-0.0060363,0.014237,-0.021158,-0.049823,-0.016366,-0.019728,0.020199,-0.07058,-0.057381,0.074124,-0.26234,-0.13667,4.8492,0.067855,0.26752,0.078997,-0.090034,0.008215,-0.0075783,0.0042811,-0.021196
0.024251,0.11099,-0.0094432,-0.0049683,0.017544,-0.036832,-0.051421,-0.018827,-0.0087083,-0.016021,-0.02697,-0.045325,0.10622,-0.2311,-0.093283,4.2758,0.076296,0.28946,0.068973,-0.10297,0.0096092,-0.0016254,0.0079643,-0.019169
0.020068,0.10477,-0.0033398,-0.0039286,0.023033,-0.048406,-0.052672,-0.021572,0.0022683,-0.040153,0.012656,-0.032485,0.19457,-0.19071,-0.05709,3.672,0.072248,0.2676,0.067683,-0.11421,0.0060153,0.012817,0.0098351,-0.01382
0.015479,0.092115,0.003042,-0.0035153,0.025331,-0.056883,-0.052757,-0.022967,0.012659,-0.056465,0.045563,-0.020816,0.34619,-0.12642,-0.041983,3.1365,0.055535,0.22558,0.073132,-0.12135,-0.0026159,0.032018,0.0092005,-0.0082931
0.012759,0.076567,0.0057201,-0.0040515,0.021558,-0.063725,-0.052476,-0.021841,0.02182,-0.071054,0.072306,-0.010904,0.55279,-0.034427,-0.047364,2.7694,0.034669,0.19773,0.080241,-0.11764,-0.012218,0.049417,0.0062045,-0.0058699
0.012154,0.061812,0.0030284,-0.0054328,0.013833,-0.069835,-0.053673,-0.018834,0.028718,-0.087292,0.094907,-0.0015031,0.76557,0.067377,-0.062036,2.5961,0.022093,0.21278,0.083807,-0.097517,-0.017585,0.059793,0.0018092,-0.0078206
0.012367,0.050199,-0.0032741,-0.0072772,0.0073083,-0.074522,-0.057653,-0.016272,0.032988,-0.10359,0.11367,0.0093792,0.89844,0.14559,-0.071911,2.5492,0.026656,0.28161,0.080962,-0.061944,-0.016745,0.062278,-0.0023022,-0.012682
0.012055,0.041896,-0.0093708,-0.0093364,0.0055963,-0.075917,-0.064038,-0.016383,0.036129,-0.11582,0.12548,0.022549,0.86898,0.17317,-0.065771,2.5199,0.048478,0.39545,0.071928,-0.01925,-0.012791,0.060278,-0.004224,-0.017482
0.010868,0.035017,-0.012121,-0.011853,0.0078262,-0.072819,-0.070958,-0.019158,0.041045,-0.12222,0.12524,0.03656,0.65646,0.15027,-0.037048,2.426,0.079729,0.5337,0.059699,0.019632,-0.011314,0.058744,-0.0027217,-0.01991
0.009317,0.026699,-0.011027,-0.015482,0.0099394,-0.066285,-0.076217,-0.021814,0.049689,-0.12639,0.10959,0.048575,0.33622,0.10637,0.016747,2.236,0.11049,0.67461,0.049186,0.048349,-0.015576,0.061008,0.0020592,-0.019667
0.0080052,0.014483,-0.0080936,-0.020669,0.0087524,-0.059311,-0.07827,-0.020669,0.060794,-0.13519,0.079916,0.05646,0.057173,0.080487,0.094669,1.9407,0.13526,0.8023,0.045282,0.06934,-0.023686,0.067291,0.0087024,-0.017974
0.0071619,-0.0028582,-0.0060382,-0.02685,0.0048174,-0.054695,-0.076306,-0.014192,0.070069,-0.15346,0.042232,0.060192,-0.03494,0.094814,0.1928,1.5167,0.15541,0.90861,0.049605,0.091647,-0.030216,0.075431,0.01543,-0.015878
0.0068263,-0.025427,-0.0065119,-0.032157,0.0014917,-0.053011,-0.069862,-0.0046815,0.073222,-0.17999,0.0041587,0.061328,0.11526,0.14201,0.30573,0.93609,0.17641,0.99268,0.057578,0.12356,-0.030705,0.082763,0.021069,-0.013133
0.0071744,-0.052725,-0.0095618,-0.034132,0.0013566,-0.052603,-0.058868,0.0030822,0.069426,-0.20832,-0.028616,0.061172,0.43369,0.19462,0.42922,0.22758,0.2023,1.0609,0.058757,0.16528,-0.025028,0.087554,0.025293,-0.0088363
0.0083678,-0.08369,-0.014208,-0.031228,0.0035525,-0.051614,-0.044362,0.005317,0.06211,-0.23157,-0.053843,0.059599,0.75729,0.22688,0.56191,-0.46667,0.23171,1.1261,0.041665,0.20695,-0.016969,0.089211,0.028116,-0.0031649
0.010004,-0.11606,-0.019147,-0.024111,0.004529,-0.0501,-0.029012,0.0020216,0.056211,-0.24723,-0.071683,0.05575,0.93136,0.23084,0.70334,-0.9072,0.25812,1.2028,0.00076336,0.2338,-0.010901,0.08766,0.029334,0.0016749
0.010909,-0.14589,-0.022953,-0.015636,0.0013902,-0.050177,-0.016422,-0.0033104,0.054191,-0.25796,-0.082753,0.049824,0.89909,0.21615,0.84824,-0.86593,0.27389,1.2992,-0.0592,0.23502,-0.0088522,0.082887,0.028646,0.0026342
0.0098578,-0.1683,-0.024137,-0.0092172,-0.0053522,-0.054015,-0.0092419,-0.0067605,0.054322,-0.26816,-0.087157,0.043934,0.72288,0.19807,0.98168,-0.2718,0.27519,1.4113,-0.12483,0.2106,-0.010275,0.075141,0.026424,-0.0016027
0.0068246,-0.1794,-0.021662,-0.0066067,-0.012133,-0.061543,-0.0074549,-0.007125,0.052662,-0.27924,-0.084899,0.040859,0.52768,0.1864,1.081,0.70527,0.26461,1.5233,-0.18071,0.17166,-0.013835,0.065409,0.02429,-0.0089754
0.0036319,-0.17796,-0.015855,-0.0067739,-0.015407,-0.07002,-0.0083716,-0.0064574,0.04679,-0.28759,-0.076482,0.04177,0.41458,0.18408,1.1259,1.7034,0.24997,1.6168,-0.21656,0.13418,-0.018794,0.055282,0.024691,-0.015121
0.0031,-0.16542,-0.008763,-0.0068577,-0.014671,-0.075896,-0.0085332,-0.0077885,0.037877,-0.28685,-0.062573,0.045276,0.41224,0.19329,1.112,2.3389,0.24018,1.6796,-0.23012,0.11054,-0.024578,0.045963,0.029443,-0.016589
0.007071,-0.14438,-0.0031825,-0.0045107,-0.012827,-0.077335,-0.0060826,-0.012304,0.029378,-0.27273,-0.04308,0.049056,0.49691,0.22007,1.0558,2.4004,0.2405,1.7089,-0.22475,0.104,-0.029603,0.037169,0.038208,-0.013568
0.014814,-0.11725,-0.00079903,0.00024941,-0.013688,-0.075249,-0.0017451,-0.018493,0.023879,-0.24661,-0.017138,0.052754,0.6502,0.27111,0.98679,1.9474,0.25026,1.7069,-0.2043,0.10939,-0.031426,0.02716,0.048121,-0.0097036
0.02324,-0.086393,-0.00094077,0.0051973,-0.018828,-0.072152,0.0022193,-0.023709,0.021207,-0.21522,0.01528,0.059229,0.89233,0.34471,0.92849,1.25,0.26407,1.6741,-0.1696,0.11855,-0.028681,0.014345,0.055001,-0.0090633
0.028961,-0.055253,-0.0011913,0.0078758,-0.026382,-0.070058,0.0039942,-0.026351,0.019418,-0.18658,0.051397,0.072472,1.2544,0.42386,0.88276,0.61218,0.27579,1.6083,-0.11883,0.12638,-0.022864,-0.00063295,0.055473,-0.01279
0.030684,-0.028627,0.00044638,0.0076709,-0.032664,-0.069284,0.0033592,-0.026643,0.017361,-0.16514,0.08567,0.09354,1.7155,0.47777,0.82904,0.20156,0.28251,1.5095,-0.051166,0.13339,-0.017725,-0.014251,0.048636,-0.018311
0.030002,-0.010696,0.0036172,0.0062455,-0.035147,-0.068941,0.0012091,-0.025657,0.016058,-0.14979,0.1128,0.118,2.1683,0.47299,0.74133,-0.004895,0.28582,1.3866,0.029423,0.14358,-0.016307,-0.021985,0.03632,-0.02171
0.029923,-0.0021881,0.0056756,0.0060577,-0.034401,-0.068324,-0.0017855,-0.024004,0.017533,-0.13614,0.13173,0.13752,2.4583,0.38874,0.61049,-0.13647,0.28961,1.2564,0.11342,0.15975,-0.018343,-0.021723,0.021968,-0.021099
0.032282,0.00056829,0.0038736,0.0082951,-0.033545,-0.067805,-0.0058981,-0.021639,0.02245,-0.12124,0.14705,0.14479,2.4743,0.22893,0.45479,-0.29085,0.29621,1.1383,0.18893,0.18014,-0.02068,-0.016112,0.0090078,-0.018025
0.036124,0.0031644,-0.0020786,0.011945,-0.035731,-0.068577,-0.011752,-0.018746,0.029079,-0.10684,0.16576,0.13838,2.2223,0.024333,0.30965,-0.46088,0.30361,1.0469,0.24715,0.19864,-0.020514,-0.011657,-0.0003918,-0.015777
0.038398,0.0088466,-0.0093049,0.014674,-0.041623,-0.071769,-0.019149,-0.016457,0.034707,-0.098511,0.19129,0.12394,1.8248,-0.17767,0.20368,-0.57858,0.30616,0.98992,0.28701,0.20855,-0.018285,-0.014831,-0.0058317,-0.016271
0.036438,0.016098,-0.013682,0.014714,-0.048754,-0.077796,-0.026692,-0.016382,0.037968,-0.10124,0.2196,0.11099,1.4479,-0.33223,0.13953,-0.6211,0.29819,0.96997,0.31593,0.20685,-0.017266,-0.027872,-0.008543,-0.018421
0.030281,0.020334,-0.012958,0.012251,-0.053218,-0.08632,-0.032775,-0.019349,0.039549,-0.11503,0.24099,0.10762,1.2133,-0.41607,0.094465,-0.6673,0.27791,0.98559,0.34601,0.19617,-0.020111,-0.047374,-0.010764,-0.019408
0.023001,0.01835,-0.0085529,0.0092874,-0.052492,-0.096472,-0.037025,-0.02464,0.040448,-0.13431,0.24712,0.11632,1.1572,-0.43574,0.039657,-0.84257,0.24891,1.027,0.38754,0.18279,-0.025699,-0.066625,-0.014735,-0.017571
0.018728,0.011581,-0.0045215,0.0081393,-0.047356,-0.10693,-0.040685,-0.030517,0.03962,-0.15172,0.23773,0.13288,1.2477,-0.41982,-0.03801,-1.1985,0.2181,1.0704,0.44334,0.17229,-0.029442,-0.079744,-0.021595,-0.014128
0.019805,0.0052491,-0.0044274,0.0096753,-0.041531,-0.11596,-0.045289,-0.035516,0.033819,-0.16341,0.2218,0.14838,1.4302,-0.39984,-0.12909,-1.643,0.19169,1.0804,0.50722,0.16567,-0.026921,-0.084445,-0.030772,-0.012095
0.025154,0.0041259,-0.0085734,0.012532,-0.039237,-0.12171,-0.050742,-0.039223,0.020386,-0.17162,0.21149,0.15336,1.6563,-0.39265,-0.21384,-1.9958,0.17188,1.0237,0.56723,0.15896,-0.017589,-0.081721,-0.04033,-0.013429
0.031018,0.0086368,-0.01373,0.013888,-0.042366,-0.12305,-0.054733,-0.041872,0.00066833,-0.18253,0.21315,0.1423,1.8859,-0.39575,-0.28101,-2.132,0.1564,0.88873,0.61129,0.14629,-0.0053125,-0.073538,-0.048072,-0.017131
0.03347,0.01467,-0.015529,0.011357,-0.049253,-0.12025,-0.054417,-0.043363,-0.019399,-0.20143,0.22228,0.11688,2.0809,-0.3971,-0.3359,-2.0905,0.14068,0.695,0.63169,0.12434,0.0045362,-0.061104,-0.052568,-0.020099
0.030851,0.017127,-0.011637,0.0047941,-0.055932,-0.11503,-0.049142,-0.042858,-0.032736,-0.22877,0.22634,0.085774,2.2075,-0.38962,-0.39115,-2.0517,0.12062,0.48161,0.62617,0.094616,0.0087699,-0.045303,-0.05342,-0.019903
0.024477,0.014055,-0.0033374,-0.0032464,-0.058969,-0.10972,-0.041725,-0.039517,-0.036098,-0.2601,0.2135,0.060264,2.2456,-0.37801,-0.45067,-2.2053,0.094231,0.28104,0.59643,0.062097,0.0079142,-0.028359,-0.05087,-0.016822
0.017331,0.0079356,0.0055232,-0.0088898,-0.057796,-0.10628,-0.036736,-0.033681,-0.032438,-0.2891,0.18089,0.047705,2.1899,-0.37319,-0.50312,-2.6192,0.061399,0.098163,0.54647,0.031459,0.0048368,-0.014397,-0.045486,-0.01325
0.011938,0.0033416,0.011259,-0.0094235,-0.054835,-0.10571,-0.036927,-0.027298,-0.028556,-0.31141,0.13637,0.046913,2.0393,-0.38103,-0.53163,-3.2165,0.023185,-0.086983,0.48273,0.0040575,0.0021621,-0.0076404,-0.03832,-0.01118
0.0090496,0.003269,0.012616,-0.005238,-0.053335,-0.1081,-0.040872,-0.02296,-0.029947,-0.32663,0.092956,0.049219,1.7898,-0.3963,-0.52981,-3.8605,-0.018265,-0.29295,0.41521,-0.021943,0.00066768,-0.0094875,-0.031115,-0.010358
0.0079011,0.007259,0.011031,0.00026526,-0.054645,-0.11274,-0.044125,-0.0222,-0.037122,-0.33803,0.060212,0.044719,1.4456,-0.4071,-0.50719,-4.4566,-0.059257,-0.50922,0.35733,-0.04858,-0.00048351,-0.017194,-0.025851,-0.0089693
0.0074709,0.012538,0.0089939,0.0029466,-0.057105,-0.11819,-0.043097,-0.024413,-0.046257,-0.3506,0.038813,0.028965,1.039,-0.40501,-0.47737,-4.9739,-0.094875,-0.69281,0.32305,-0.074902,-0.0024453,-0.025668,-0.023622,-0.006114
0.0074546,0.01675,0.0080534,0.00083676,-0.057483,-0.12227,-0.038194,-0.027326,-0.053197,-0.36847,0.021666,0.0047547,0.62998,-0.39109,-0.43974,-5.3837,-0.12095,-0.79592,0.32213,-0.096332,-0.0056126,-0.0311,-0.023792,-0.0033717
0.008124,0.019768,0.0080979,-0.0045528,-0.053792,-0.12278,-0.033171,-0.028677,-0.057078,-0.39251,1.516e-005,-0.022029,0.27396,-0.37291,-0.37397,-5.5949,-0.13653,-0.80358,0.35638,-0.10715,-0.0094437,-0.033435,-0.024361,-0.0035967
0.0093875,0.023253,0.008247,-0.0096389,-0.047126,-0.11888,-0.031121,-0.02778,-0.060447,-0.41916,-0.030168,-0.048242,-0.019471,-0.35614,-0.25552,-5.4719,-0.14452,-0.74909,0.41881,-0.10418,-0.012989,-0.035729,-0.023436,-0.0078695
0.010153,0.028732,0.0082093,-0.011804,-0.040965,-0.11212,-0.030877,-0.025725,-0.066044,-0.4417,-0.065705,-0.075434,-0.29464,-0.33939,-0.080686,-4.9328,-0.14912,-0.69165,0.49611,-0.088814,-0.015544,-0.041204,-0.020617,-0.013619
0.0088041,0.036094,0.008616,-0.011489,-0.03853,-0.10602,-0.027578,-0.024152,-0.073374,-0.45386,-0.098541,-0.1065,-0.60655,-0.31638,0.12107,-4.0435,-0.15174,-0.67209,0.57257,-0.065991,-0.016966,-0.050698,-0.01718,-0.016092
0.0044879,0.04373,0.0099637,-0.011499,-0.040425,-0.10403,-0.01738,-0.023677,-0.07828,-0.4539,-0.12051,-0.14094,-0.95916,-0.28259,0.30039,-3.0162,-0.14884,-0.68252,0.634,-0.041078,-0.01755,-0.062413,-0.015053,-0.012222
-0.001971,0.049929,0.011362,-0.014126,-0.044474,-0.10731,-0.0021805,-0.023328,-0.076026,-0.44568,-0.12726,-0.1738,-1.2828,-0.23912,0.4179,-2.1031,-0.13379,-0.67438,0.6708,-0.01698,-0.017621,-0.073526,-0.015515,-0.003531
-0.0085032,0.054161,0.010708,-0.018792,-0.047657,-0.11407,0.010345,-0.021465,-0.065364,-0.43554,-0.11965,-0.19918,-1.4783,-0.19049,0.46713,-1.4634,-0.10151,-0.59745,0.67988,0.0065423,-0.017176,-0.081748,-0.018556,0.0047134
-0.013339,0.057174,0.0065867,-0.022481,-0.048299,-0.12124,0.012129,-0.017405,-0.050178,-0.42681,-0.10302,-0.21451,-1.4939,-0.13956,0.47259,-1.1009,-0.052071,-0.43637,0.66511,0.031301,-0.015839,-0.085651,-0.02307,0.0075543
-0.016343,0.060012,0.00029245,-0.022657,-0.046712,-0.12691,0.0012924,-0.012377,-0.037274,-0.41651,-0.085745,-0.22119,-1.3672,-0.08543,0.46642,-0.90271,0.0096007,-0.21585,0.63548,0.058474,-0.013169,-0.084371,-0.027525,0.0041812
-0.0189,0.062988,-0.0042179,-0.019914,-0.044178,-0.13152,-0.01579,-0.0089322,-0.031978,-0.39728,-0.077445,-0.22185,-1.1935,-0.026788,0.46367,-0.72826,0.077175,0.025443,0.60137,0.087538,-0.0091009,-0.077907,-0.030699,-0.0017193
-0.022406,0.065545,-0.0030081,-0.017722,-0.041636,-0.13679,-0.028979,-0.0091413,-0.034841,-0.36331,-0.086441,-0.21805,-1.0469,0.033287,0.45553,-0.47549,0.14615,0.26444,0.57055,0.11683,-0.0042177,-0.068044,-0.032264,-0.0052648
-0.026729,0.067049,0.0044871,-0.019353,-0.039381,-0.14361,-0.031875,-0.012894,-0.041766,-0.31561,-0.11615,-0.2117,-0.92807,0.086873,0.42263,-0.092988,0.21397,0.49845,0.54615,0.14471,0.0002952,-0.05849,-0.03293,-0.0043048
-0.030078,0.067717,0.014432,-0.024788,-0.03764,-0.15091,-0.026168,-0.017615,-0.047115,-0.2624,-0.16193,-0.20819,-0.78349,0.127,0.35402,0.43313,0.27743,0.72285,0.52732,0.16996,0.0029506,-0.053113,-0.033866,-0.00058324
-0.030498,0.068777,0.02116,-0.030492,-0.036877,-0.15644,-0.019458,-0.019739,-0.047228,-0.21436,-0.21083,-0.21657,-0.57698,0.15492,0.25571,1.0771,0.33057,0.90689,0.51114,0.19102,0.00243,-0.053209,-0.035579,0.0025852
-0.027682,0.071679,0.021511,-0.032325,-0.037164,-0.15877,-0.018703,-0.017029,-0.04183,-0.17862,-0.24606,-0.24455,-0.34275,0.18174,0.14435,1.7545,0.36568,0.99617,0.49348,0.2052,-0.0018238,-0.05624,-0.037189,0.0037014
-0.023493,0.076974,0.017349,-0.028897,-0.037353,-0.15845,-0.024951,-0.010167,-0.032819,-0.1558,-0.25443,-0.29181,-0.16795,0.22121,0.035087,2.3237,0.37711,0.94549,0.46845,0.20914,-0.0090315,-0.0576,-0.037003,0.0043551
-0.020673,0.0838,0.014033,-0.022385,-0.03536,-0.1574,-0.033433,-0.0024862,-0.021996,-0.14131,-0.23272,-0.34787,-0.12045,0.27842,-0.065073,2.6375,0.36473,0.75682,0.42863,0.20064,-0.016908,-0.054206,-0.034195,0.0073866
-0.020796,0.090394,0.015934,-0.016245,-0.02987,-0.15727,-0.038234,0.0020848,-0.0098171,-0.12863,-0.18871,-0.39699,-0.19116,0.34337,-0.15503,2.6195,0.33398,0.48922,0.36813,0.18043,-0.022344,-0.046876,-0.030086,0.013854
-0.02313,0.095236,0.022659,-0.012197,-0.022043,-0.15836,-0.03707,0.0015402,0.0040269,-0.11197,-0.13588,-0.42622,-0.30716,0.39566,-0.23387,2.3049,0.29259,0.22956,0.2879,0.15221,-0.022905,-0.039369,-0.027532,0.021667
-0.025262,0.097942,0.029083,-0.0093248,-0.015352,-0.15993,-0.032253,-0.0028639,0.019086,-0.087526,-0.085437,-0.43017,-0.40404,0.41838,-0.29856,1.8041,0.24656,0.044544,0.19876,0.12085,-0.018343,-0.034976,-0.028635,0.027043
-0.024923,0.099293,0.029285,-0.005916,-0.01319,-0.16133,-0.027733,-0.0073767,0.033255,-0.054796,-0.041018,-0.40959,-0.48725,0.41174,-0.3463,1.2208,0.19872,-0.050536,0.11814,0.090348,-0.010975,-0.033712,-0.032782,0.027317
-0.021555,0.10048,0.021289,-0.0019255,-0.016032,-0.16268,-0.025412,-0.0081601,0.043392,-0.018077,0.00033523,-0.36705,-0.62047,0.39613,-0.37751,0.59986,0.15022,-0.086212,0.06112,0.063285,-0.0044143,-0.032494,-0.036926,0.022653
-0.016549,0.10226,0.0088689,0.00058237,-0.020703,-0.16451,-0.024007,-0.0037538,0.047023,0.013912,0.042505,-0.30496,-0.84764,0.40148,-0.39578,-0.039243,0.10298,-0.10619,0.032003,0.041942,-0.0014145,-0.027953,-0.037985,0.015421
-0.012157,0.10458,-0.0010444,-0.00047877,-0.022639,-0.16682,-0.020905,0.0040577,0.04394,0.0328,0.084968,-0.22766,-1.1211,0.4492,-0.40537,-0.61534,0.060349,-0.13703,0.023068,0.029249,-0.002336,-0.019283,-0.035225,0.0082149
-0.01002,0.10693,-0.0034213,-0.0047197,-0.019415,-0.16873,-0.014824,0.011566,0.036591,0.038118,0.1225,-0.14422,-1.3085,0.53874,-0.4095,-0.93981,0.025501,-0.18212,0.021865,0.027872,-0.0052742,-0.0087806,-0.030545,0.0023938
-0.01031,0.10873,0.0011829,-0.009004,-0.012591,-0.16908,-0.0067829,0.015712,0.028994,0.041319,0.15016,-0.067231,-1.2821,0.64771,-0.41154,-0.78795,-0.00048694,-0.23699,0.021014,0.037792,-0.0075753,9.8345e-005,-0.026646,-0.0018545
-0.011918,0.1097,0.0071116,-0.0099112,-0.0062849,-0.16749,0.0011255,0.016084,0.02477,0.060273,0.16886,-0.0071332,-1.0196,0.74547,-0.41746,-0.062267,-0.018554,-0.30434,0.022412,0.054824,-0.0074856,0.0053433,-0.024964,-0.004574
-0.013349,0.10977,0.0078495,-0.0067421,-0.0037313,-0.16494,0.0076644,0.014911,0.025395,0.10561,0.18623,0.033512,-0.63158,0.81105,-0.4363,1.0742,-0.029604,-0.39126,0.03282,0.072103,-0.0048635,0.0075805,-0.025145,-0.0055309
-0.013641,0.10919,0.00075148,-0.0022215,-0.004791,-0.16329,0.013277,0.015121,0.029716,0.16894,0.2109,0.060542,-0.29073,0.8441,-0.47702,2.2193,-0.032802,-0.49256,0.055517,0.083934,-0.00085981,0.0092195,-0.02604,-0.0046555
-0.012702,0.10859,-0.011309,-0.00013676,-0.0065045,-0.16398,0.019304,0.017959,0.035003,0.224,0.24453,0.082704,-0.1207,0.86234,-0.54342,2.9279,-0.026511,-0.5806,0.085935,0.088917,0.0028208,0.012504,-0.02681,-0.0027348
-0.010957,0.10907,-0.022457,-0.002006,-0.0060414,-0.16693,0.02657,0.021978,0.038832,0.24227,0.27812,0.10463,-0.13085,0.88818,-0.63018,2.9618,-0.011401,-0.61688,0.11505,0.089665,0.0045819,0.017968,-0.027031,-0.001333
-0.0086837,0.11193,-0.028336,-0.0057973,-0.0033181,-0.17036,0.034636,0.024106,0.04037,0.2119,0.29623,0.12393,-0.23994,0.93319,-0.72271,2.4215,0.0073934,-0.57929,0.13695,0.08946,0.003519,0.024225,-0.026118,-0.0017771
-0.0056602,0.11792,-0.029065,-0.0078238,-0.00095377,-0.1716,0.042218,0.021879,0.040114,0.14482,0.28658,0.13439,-0.35578,0.98943,-0.80161,1.6594,0.021943,-0.48183,0.15334,0.089044,-1.4976e-005,0.029011,-0.023216,-0.0041043
-0.0014852,0.12666,-0.02855,-0.006015,-0.0017104,-0.16846,0.048183,0.015094,0.038402,0.066202,0.24818,0.13174,-0.43868,1.032,-0.85009,1.0368,0.026455,-0.36822,0.17122,0.086494,-0.0042502,0.030689,-0.018035,-0.006996
0.0036903,0.13655,-0.031074,-0.0015625,-0.0058441,-0.16022,0.052187,0.0056904,0.034207,-0.0045793,0.1921,0.11703,-0.50344,1.0312,-0.86161,0.69736,0.021505,-0.28337,0.19646,0.080093,-0.0068284,0.029241,-0.011785,-0.0088041
0.0087112,0.14529,-0.038032,0.0024445,-0.010816,-0.14768,0.054477,-0.003859,0.025536,-0.065567,0.13485,0.095013,-0.57574,0.96662,-0.84359,0.51693,0.013698,-0.2457,0.22941,0.071112,-0.0064906,0.026112,-0.0069629,-0.0087741
0.011805,0.15071,-0.047174,0.0039439,-0.013588,-0.1323,0.055186,-0.012238,0.011214,-0.12771,0.089332,0.069971,-0.65548,0.83817,-0.81467,0.24998,0.010712,-0.24176,0.26615,0.06356,-0.0043893,0.023022,-0.0057471,-0.0074587
0.011672,0.15131,-0.054472,0.0035815,-0.013337,-0.11502,0.053857,-0.019743,-0.0076088,-0.20036,0.060063,0.043078,-0.72195,0.66569,-0.79618,-0.25344,0.015772,-0.24428,0.30302,0.061046,-0.0035755,0.020652,-0.0082365,-0.0061126
0.0084973,0.14646,-0.056799,0.0036918,-0.012064,-0.095849,0.049705,-0.027309,-0.027841,-0.28073,0.044921,0.013716,-0.768,0.47889,-0.80234,-0.93275,0.026135,-0.23522,0.33945,0.063815,-0.0065714,0.0183,-0.012176,-0.0057017
0.0040429,0.13648,-0.053485,0.0057472,-0.012577,-0.074672,0.042408,-0.035087,-0.046601,-0.3561,0.040774,-0.01704,-0.82175,0.30117,-0.83501,-1.5856,0.036425,-0.21407,0.37642,0.06894,-0.012862,0.014911,-0.014658,-0.0063012
0.00067811,0.1228,-0.04612,0.0088168,-0.015818,-0.052866,0.032746,-0.041836,-0.063287,-0.41456,0.047538,-0.044483,-0.93,0.13689,-0.88541,-2.0522,0.043411,-0.18844,0.41276,0.073474,-0.018697,0.010658,-0.014501,-0.0071599
-1.8345e-005,0.1081,-0.037322,0.010467,-0.020098,-0.034078,0.022486,-0.04565,-0.079665,-0.45319,0.067384,-0.062018,-1.1183,-0.029965,-0.94076,-2.3579,0.047882,-0.16043,0.44376,0.077368,-0.019868,0.0075749,-0.013262,-0.0072126
0.0018959,0.095803,-0.029466,0.0091624,-0.022935,-0.023037,0.01356,-0.045416,-0.097895,-0.47663,0.10038,-0.065185,-1.3656,-0.22358,-0.99043,-2.6969,0.052465,-0.12372,0.46373,0.083131,-0.015383,0.0083828,-0.01388,-0.0057029
0.0049719,0.088874,-0.023873,0.005858,-0.023633,-0.022771,0.007212,-0.041812,-0.11822,-0.48971,0.14099,-0.054418,-1.6155,-0.4573,-1.0281,-3.2676,0.058218,-0.072481,0.47039,0.092471,-0.0087611,0.014193,-0.017993,-0.00268
0.007432,0.088303,-0.020464,0.0033255,-0.023959,-0.032303,0.0038846,-0.037003,-0.13831,-0.49286,0.17905,-0.034149,-1.8128,-0.72011,-1.0503,-4.0903,0.063617,-0.0096957,0.46733,0.10339,-0.0054594,0.022972,-0.024262,0.00085918
0.008211,0.092281,-0.017897,0.0038458,-0.026096,-0.046912,0.0040224,-0.03321,-0.15458,-0.48447,0.20505,-0.0092332,-1.9297,-0.97777,-1.0539,-4.9471,0.066799,0.056551,0.46279,0.11102,-0.0082918,0.030287,-0.029248,0.0034023
0.0072703,0.096877,-0.014296,0.0073177,-0.02987,-0.061013,0.0091178,-0.031196,-0.16421,-0.46588,0.21587,0.017866,-1.965,-1.1884,-1.0358,-5.4915,0.068528,0.12687,0.46675,0.11206,-0.014774,0.032091,-0.030192,0.0038589
0.0051675,0.098044,-0.0084163,0.011377,-0.032202,-0.071377,0.021857,-0.029844,-0.16615,-0.44202,0.21659,0.046484,-1.9209,-1.3216,-0.99505,-5.4468,0.072819,0.22068,0.4886,0.10886,-0.018914,0.027598,-0.027264,0.0024142
