1.0611e-010,6.8876e-010,1.1402e-009,5.4985e-010,9.6465e-012,8.2767e-010,1.2135e-009,5.0741e-010,-1.4856e-010,1.9004e-009,1.4103e-009,5.73e-010,8.6626e-010,1.4373e-009,5.6143e-010,1.0823e-009,2.6431e-010,7.5436e-010,9.4729e-010,6.1931e-010,7.5822e-010,9.5501e-010,4.4953e-010,1.1171e-009
2.6081e-009,1.8825e-008,3.1485e-008,1.5391e-008,-3.8262e-011,2.2818e-008,3.3708e-008,1.379e-008,-4.2711e-009,5.2464e-008,3.9057e-008,1.5792e-008,2.3872e-008,3.9661e-008,1.5534e-008,2.9824e-008,7.0455e-009,2.0394e-008,2.6277e-008,1.7152e-008,2.1091e-008,2.6051e-008,1.2407e-008,3.0927e-008
3.021e-008,2.4991e-007,4.2263e-007,2.095e-007,-4.6729e-009,3.0572e-007,4.5525e-007,1.8221e-007,-5.9423e-008,7.0385e-007,5.2565e-007,2.116e-007,3.2008e-007,5.3211e-007,2.0852e-007,3.9906e-007,9.1486e-008,2.679e-007,3.5431e-007,2.3124e-007,2.8502e-007,3.4553e-007,1.662e-007,4.1631e-007
2.1653e-007,2.1468e-006,3.6741e-006,1.8473e-006,-7.7384e-008,2.6521e-006,3.9829e-006,1.5597e-006,-5.3318e-007,6.1134e-006,4.5801e-006,1.8364e-006,2.782e-006,4.6248e-006,1.8091e-006,3.4535e-006,7.7167e-007,2.2782e-006,3.0939e-006,2.0218e-006,2.493e-006,2.9691e-006,1.4394e-006,3.6304e-006
1.0499e-006,1.341e-005,2.3249e-005,1.186e-005,-7.2633e-007,1.6742e-005,2.5371e-005,9.7212e-006,-3.4692e-006,3.8639e-005,2.9038e-005,1.1602e-005,1.7619e-005,2.9268e-005,1.1399e-005,2.1721e-005,4.7567e-006,1.4098e-005,1.9664e-005,1.2885e-005,1.5863e-005,1.858e-005,9.0561e-006,2.3051e-005
3.438e-006,6.4882e-005,0.00011409,5.9068e-005,-4.7485e-006,8.1947e-005,0.00012537,4.7011e-005,-1.7449e-005,0.00018933,0.00014272,5.6839e-005,8.663e-005,0.0001437,5.5565e-005,0.00010575,2.2856e-005,6.7647e-005,9.6919e-005,6.3782e-005,7.8239e-005,9.0218e-005,4.4093e-005,0.00011355
6.2607e-006,0.00025291,0.00045165,0.00023737,-2.36e-005,0.00032348,0.00049997,0.0001835,-7.0617e-005,0.00074815,0.00056565,0.0002246,0.00034404,0.00056939,0.00021792,0.00041437,8.916e-005,0.00026185,0.00038536,0.00025509,0.00031118,0.00035363,0.00017277,0.00045144
-5.3547e-006,0.00081528,0.001481,0.00079026,-9.3648e-005,0.0010575,0.0016521,0.00059373,-0.00023635,0.0024478,0.0018561,0.00073483,0.0011333,0.0018698,0.00070586,0.0013411,0.00029033,0.00083975,0.0012691,0.0008464,0.001025,0.001149,0.00055927,0.0014875
-9.0991e-005,0.0022134,0.0040972,0.0022202,-0.00030614,0.0029162,0.004608,0.0016222,-0.00066732,0.0067537,0.0051358,0.0020269,0.0031549,0.0051833,0.0019226,0.0036487,0.000805,0.0022734,0.0035261,0.0023739,0.0028487,0.0031522,0.0015231,0.0041381
-0.00040457,0.0051252,0.0096884,0.0053319,-0.0008425,0.0068731,0.01099,0.0037928,-0.0016132,0.015916,0.01214,0.0047729,0.0075213,0.012289,0.0044594,0.0084456,0.0019282,0.0052653,0.0083728,0.0057034,0.0067704,0.0073966,0.0035346,0.0098477
-0.0012251,0.010208,0.019754,0.011043,-0.0019827,0.01397,0.022614,0.0076587,-0.0033785,0.032307,0.024728,0.0096738,0.0155,0.025145,0.0088807,0.016754,0.0040318,0.010532,0.01714,0.01185,0.013891,0.014975,0.007052,0.02023
-0.0028838,0.017576,0.034918,0.019828,-0.0040364,0.024625,0.040365,0.013439,-0.0061881,0.056749,0.043633,0.016953,0.027783,0.044643,0.015257,0.028572,0.0074124,0.018308,0.030407,0.021431,0.024764,0.026293,0.012166,0.036074
-0.0055144,0.026202,0.05362,0.03093,-0.0071712,0.037744,0.062631,0.020567,-0.0099953,0.086334,0.066823,0.025717,0.043472,0.06893,0.022651,0.04184,0.012035,0.027756,0.046833,0.033884,0.038503,0.040091,0.018205,0.055978
-0.0086956,0.033763,0.071435,0.041852,-0.011192,0.050276,0.084368,0.027486,-0.014349,0.1133,0.088659,0.033684,0.059445,0.092453,0.029035,0.052253,0.017288,0.036751,0.062525,0.046956,0.052291,0.052954,0.023667,0.075524
-0.011286,0.03741,0.082132,0.04885,-0.015421,0.057969,0.098128,0.032076,-0.01846,0.12692,0.10126,0.037871,0.07099,0.10714,0.032113,0.054874,0.021971,0.042491,0.071953,0.057153,0.06202,0.060106,0.026762,0.088197
-0.01182,0.035351,0.080713,0.048666,-0.018838,0.057419,0.097494,0.032697,-0.021489,0.11866,0.098312,0.036273,0.073951,0.10614,0.030923,0.047294,0.024673,0.042937,0.070702,0.061339,0.064206,0.057699,0.026459,0.088398
-0.0095199,0.0283,0.066923,0.04073,-0.02048,0.04836,0.081336,0.029287,-0.022898,0.088356,0.079412,0.029619,0.067387,0.088246,0.027275,0.032435,0.0245,0.038283,0.058729,0.058703,0.058224,0.045497,0.023331,0.075209
-0.0052978,0.019495,0.046586,0.028233,-0.019916,0.034465,0.05578,0.023634,-0.022629,0.046584,0.051686,0.02167,0.054791,0.05987,0.025722,0.018326,0.021736,0.031281,0.041677,0.051581,0.047169,0.028009,0.019391,0.054186
-0.0017796,0.01283,0.028951,0.016797,-0.01746,0.021613,0.031571,0.018388,-0.020963,0.010345,0.026523,0.017198,0.042416,0.03212,0.031499,0.013845,0.017906,0.025815,0.028454,0.044087,0.036315,0.012681,0.016804,0.035072
-0.0018327,0.010193,0.021107,0.011133,-0.013988,0.014433,0.017707,0.015379,-0.018206,-0.0065828,0.012831,0.018616,0.035354,0.014198,0.047401,0.022713,0.014972,0.024407,0.025889,0.039231,0.029879,0.0057822,0.016388,0.026101
-0.0063598,0.010117,0.023234,0.01192,-0.010474,0.013535,0.015613,0.014518,-0.014478,-0.0022207,0.011443,0.023802,0.034051,0.0076603,0.071725,0.040276,0.014083,0.026463,0.033985,0.036726,0.028403,0.0086251,0.01719,0.028557
-0.013091,0.0090173,0.028484,0.015408,-0.0075885,0.015555,0.018436,0.014206,-0.0098071,0.012678,0.015046,0.027274,0.034118,0.0061598,0.0989,0.056232,0.014775,0.028787,0.045548,0.033506,0.028845,0.016921,0.017607,0.035827
-0.017691,0.0042001,0.027981,0.016328,-0.0055956,0.016016,0.016392,0.01291,-0.00447,0.022604,0.01399,0.024331,0.02988,0.0012311,0.12252,0.06185,0.015344,0.028209,0.050966,0.026783,0.027335,0.023869,0.01707,0.038162
-0.016698,-0.0038866,0.01734,0.012017,-0.0044882,0.012739,0.004221,0.010527,0.00072194,0.018369,0.0035594,0.014981,0.019033,-0.010389,0.13861,0.056152,0.014245,0.024308,0.044855,0.017048,0.022315,0.024731,0.016678,0.029907
-0.010147,-0.012167,-0.00027967,0.0044279,-0.0041206,0.007158,-0.015085,0.0083126,0.0045129,0.0027542,-0.012907,0.0042651,0.0046386,-0.024022,0.14677,0.045972,0.011401,0.019844,0.029536,0.0082208,0.015451,0.019535,0.018092,0.013735
-0.0017255,-0.017761,-0.016825,-0.0016523,-0.0042115,0.0027108,-0.033093,0.0074704,0.0057533,-0.013462,-0.027279,-0.0015826,-0.0072191,-0.03131,0.14878,0.039822,0.0083355,0.018288,0.012737,0.0045567,0.0097045,0.012183,0.021717,-0.0014701
0.0037495,-0.02046,-0.025326,-0.0027223,-0.0043573,0.0018385,-0.042717,0.0077349,0.0041329,-0.021281,-0.033235,-4.9453e-005,-0.012213,-0.02792,0.1463,0.04087,0.0069804,0.020442,0.0015005,0.0069564,0.0064996,0.0071486,0.025997,-0.00745
0.0035709,-0.022476,-0.024395,0.00049042,-0.0042565,0.0040778,-0.0433,0.007305,0.00056137,-0.020588,-0.030735,0.0058218,-0.011092,-0.018026,0.13991,0.04505,0.008172,0.023248,-0.0027439,0.012009,0.0046466,0.0065894,0.028686,-0.0027642
-0.0013619,-0.025696,-0.018065,0.0037785,-0.0040491,0.0065679,-0.040119,0.0042805,-0.0032292,-0.018813,-0.025098,0.010169,-0.0089452,-0.011595,0.13028,0.045608,0.011125,0.022185,-0.0042198,0.014726,0.0018644,0.0098006,0.028963,0.0064062
-0.0077142,-0.029202,-0.011911,0.0032186,-0.0043334,0.0063126,-0.039344,-0.0015564,-0.0057486,-0.023061,-0.022138,0.0091223,-0.01124,-0.016608,0.11961,0.03957,0.014256,0.015401,-0.0084978,0.012604,-0.0027318,0.014694,0.028374,0.011187
-0.012317,-0.029687,-0.0091397,-0.0013653,-0.0055502,0.0023596,-0.043064,-0.0080796,-0.0067419,-0.033276,-0.023769,0.0035534,-0.019976,-0.03259,0.11111,0.030112,0.016552,0.0058703,-0.017852,0.0074564,-0.0076646,0.01946,0.029498,0.0065461
-0.01407,-0.024581,-0.0096281,-0.0062853,-0.007083,-0.003599,-0.048361,-0.011873,-0.0072371,-0.042607,-0.027493,-0.0022974,-0.03282,-0.050554,0.10575,0.02289,0.01825,-0.00066691,-0.030108,0.0035379,-0.010572,0.023023,0.033405,-0.0056135
-0.013948,-0.014898,-0.011742,-0.0073089,-0.0070248,-0.0084383,-0.050608,-0.010334,-0.0084522,-0.044245,-0.029499,-0.0046363,-0.045344,-0.059086,0.098778,0.020152,0.020318,-0.00045336,-0.041387,0.0037298,-0.010659,0.024497,0.038168,-0.018732
-0.013593,-0.0048989,-0.014479,-0.003465,-0.0032839,-0.0096946,-0.047642,-0.0034516,-0.010411,-0.038013,-0.028229,-0.0028717,-0.054024,-0.051531,0.079532,0.018301,0.023298,0.0049952,-0.049772,0.0071622,-0.0097504,0.022804,0.03993,-0.026858
-0.013914,0.0013812,-0.017908,0.0020248,0.0044843,-0.0072005,-0.041264,0.0059091,-0.011571,-0.030539,-0.025434,0.00071591,-0.057551,-0.029066,0.036571,0.011115,0.026592,0.010082,-0.056503,0.010181,-0.010884,0.017222,0.035845,-0.028544
-0.014676,0.0035613,-0.022093,0.0044819,0.013746,-0.0032636,-0.035211,0.013468,-0.010003,-0.029053,-0.024347,0.0033832,-0.056056,0.0016613,-0.034282,-0.0045477,0.028794,0.0098147,-0.063912,0.0096099,-0.015664,0.0083579,0.026587,-0.026717
-0.015028,0.0050472,-0.026223,0.0017184,0.020152,-0.0012392,-0.031831,0.015927,-0.0052518,-0.034832,-0.026969,0.0038476,-0.049866,0.033341,-0.12418,-0.02587,0.028756,0.0037998,-0.072363,0.0054218,-0.022672,-0.0015985,0.01634,-0.025357
-0.014206,0.0096613,-0.029051,-0.0042663,0.020468,-0.0033296,-0.030465,0.012866,0.00081817,-0.042392,-0.032755,0.0022744,-0.039485,0.061247,-0.21248,-0.046463,0.026503,-0.0039322,-0.079138,0.0006455,-0.028313,-0.0099107,0.010108,-0.026181
-0.011858,0.017892,-0.030045,-0.0092034,0.0152,-0.00906,-0.028699,0.0068572,0.00513,-0.044865,-0.03938,-0.00087074,-0.02675,0.083258,-0.27533,-0.061519,0.023236,-0.0088394,-0.080233,-0.0012483,-0.029411,-0.014953,0.010255,-0.027903
-0.007975,0.026253,-0.029832,-0.01022,0.0085864,-0.015602,-0.025038,0.0016516,0.0056994,-0.040243,-0.044495,-0.0053646,-0.015407,0.098108,-0.29708,-0.070981,0.020454,-0.0096886,-0.07337,0.00074617,-0.025502,-0.01717,0.014805,-0.028149
-0.0028022,0.03033,-0.029476,-0.0079776,0.0056265,-0.019862,-0.020392,-0.00035664,0.0032331,-0.032675,-0.046922,-0.010576,-0.0096949,0.10429,-0.27781,-0.078189,0.01886,-0.0088488,-0.059653,0.004281,-0.019123,-0.018543,0.018821,-0.025942
0.0031176,0.02867,-0.029535,-0.005603,0.0083862,-0.020794,-0.017079,0.00049749,0.00063953,-0.028044,-0.04666,-0.014752,-0.011563,0.10066,-0.23232,-0.085749,0.017943,-0.0092616,-0.042742,0.0054058,-0.014034,-0.020988,0.01794,-0.022579
0.0089249,0.024015,-0.030042,-0.0057209,0.014609,-0.020024,-0.0164,0.0020081,0.00083848,-0.028414,-0.044144,-0.015615,-0.018959,0.087733,-0.18154,-0.09272,0.016553,-0.011483,-0.026634,0.0015721,-0.012896,-0.024946,0.011549,-0.020496
0.013655,0.02092,-0.031334,-0.0083972,0.019844,-0.020118,-0.017163,0.00244,0.0046636,-0.030608,-0.039689,-0.012164,-0.027077,0.068147,-0.14157,-0.095546,0.013982,-0.01379,-0.014029,-0.0063634,-0.016107,-0.029186,0.0032706,-0.021403
0.016618,0.022024,-0.034433,-0.011624,0.021304,-0.021924,-0.016585,0.0022822,0.010477,-0.029812,-0.03359,-0.0059361,-0.031882,0.045582,-0.11697,-0.091555,0.010614,-0.014929,-0.0062346,-0.014587,-0.022354,-0.031785,-0.001626,-0.025384
0.017648,0.02621,-0.040078,-0.013442,0.020169,-0.023436,-0.012747,0.0037842,0.015598,-0.024305,-0.026671,-0.00024016,-0.033021,0.023058,-0.10177,-0.081612,0.0075418,-0.016265,-0.0038884,-0.018896,-0.029987,-0.031467,-2.1063e-005,-0.031396
0.017046,0.029891,-0.047146,-0.013449,0.02039,-0.021432,-0.006299,0.0086131,0.018192,-0.016761,-0.020615,0.0022692,-0.033621,0.0018866,-0.086416,-0.06962,0.0054531,-0.020734,-0.0071749,-0.017547,-0.037878,-0.028368,0.0068342,-0.038322
0.015338,0.029906,-0.052324,-0.012426,0.025053,-0.014607,0.00012364,0.015752,0.018158,-0.011316,-0.01755,0.0015448,-0.037181,-0.01801,-0.065558,-0.059578,0.0037744,-0.029467,-0.01514,-0.012401,-0.045231,-0.023944,0.014262,-0.04538
0.013114,0.025498,-0.051995,-0.010872,0.033429,-0.0053172,0.0041515,0.021669,0.0166,-0.0097095,-0.018901,-0.00017289,-0.044317,-0.03676,-0.041247,-0.05297,0.0009359,-0.039542,-0.025028,-0.0075876,-0.051014,-0.020296,0.017466,-0.051675
0.010991,0.018183,-0.045091,-0.0082905,0.041219,0.0018957,0.0054485,0.022796,0.014713,-0.010271,-0.024184,-0.00064444,-0.052111,-0.053302,-0.020241,-0.048574,-0.0043354,-0.045465,-0.032831,-0.0067039,-0.054022,-0.019301,0.014689,-0.055744
0.0095363,0.010303,-0.034338,-0.0040427,0.043777,0.0039154,0.0054801,0.018271,0.013145,-0.010351,-0.030659,0.00026975,-0.056431,-0.065266,-0.008236,-0.044398,-0.011717,-0.043445,-0.035171,-0.010544,-0.053762,-0.021809,0.007988,-0.056005
0.0090049,0.0037654,-0.02447,0.0011817,0.039658,0.0015992,0.0057781,0.010562,0.012136,-0.0093298,-0.034395,0.00062794,-0.055089,-0.070302,-0.0057677,-0.039668,-0.019136,-0.034794,-0.031259,-0.016926,-0.051258,-0.027066,0.0013485,-0.051981
0.0090893,-0.00035139,-0.018687,0.0050301,0.031682,-0.0011023,0.006551,0.0034725,0.011927,-0.0090762,-0.032335,-0.0015793,-0.049284,-0.06803,-0.008594,-0.035091,-0.024043,-0.025431,-0.023407,-0.022607,-0.048744,-0.032687,-0.0021992,-0.045138
0.00905,-0.0017655,-0.016403,0.0049514,0.024776,-0.00067568,0.0068844,-0.00074524,0.012752,-0.011583,-0.024126,-0.0063852,-0.042482,-0.061117,-0.01159,-0.031551,-0.02525,-0.021806,-0.015555,-0.025737,-0.048233,-0.035507,-0.0023454,-0.038265
0.0083391,-0.0010886,-0.01431,0.00031671,0.022403,0.0030474,0.0060009,-0.0027114,0.014375,-0.01638,-0.012465,-0.011653,-0.037925,-0.054293,-0.012566,-0.028814,-0.023899,-0.026499,-0.010779,-0.026993,-0.050085,-0.033195,-0.0012221,-0.033676
0.0072969,0.00013374,-0.00984,-0.0067228,0.024306,0.0072641,0.0040501,-0.0047658,0.015748,-0.02046,-0.0015905,-0.014822,-0.036695,-0.051572,-0.012978,-0.025642,-0.022739,-0.036758,-0.009514,-0.028623,-0.05285,-0.02581,-0.0017551,-0.031728
0.0072436,3.6655e-005,-0.0038667,-0.012554,0.027069,0.0093079,0.0016558,-0.0086159,0.015393,-0.020848,0.005135,-0.014958,-0.037466,-0.053552,-0.015415,-0.02112,-0.02414,-0.046758,-0.0096863,-0.032303,-0.054574,-0.01612,-0.0060069,-0.031014
0.0096548,-0.0022861,-0.00016328,-0.014623,0.026776,0.009285,-0.0010248,-0.013944,0.012453,-0.017352,0.00698,-0.013368,-0.037777,-0.056999,-0.020485,-0.015809,-0.028326,-0.051551,-0.0085792,-0.037606,-0.054467,-0.0081313,-0.014386,-0.03009
0.014887,-0.0058058,-0.0020378,-0.013143,0.021691,0.0095695,-0.0044609,-0.018984,0.0076502,-0.012887,0.0058385,-0.012399,-0.035776,-0.057364,-0.025951,-0.011512,-0.033244,-0.0499,-0.0049677,-0.042299,-0.053533,-0.0045375,-0.025734,-0.029055
0.021452,-0.0079927,-0.0091425,-0.010659,0.013257,0.011725,-0.0089112,-0.022172,0.0032862,-0.011099,0.0046095,-0.013558,-0.03135,-0.052505,-0.028745,-0.0098335,-0.03621,-0.044389,0.00015272,-0.044139,-0.053666,-0.004881,-0.037891,-0.029413
0.026584,-0.0066785,-0.017306,-0.0099082,0.0050663,0.01411,-0.013705,-0.023199,0.0020782,-0.013424,0.0051791,-0.016443,-0.026,-0.044635,-0.027885,-0.010845,-0.036061,-0.039264,0.0048261,-0.042616,-0.056019,-0.0059197,-0.048504,-0.032283
0.02791,-0.0019826,-0.021586,-0.01178,0.00075428,0.012828,-0.017752,-0.022681,0.0055127,-0.018079,0.0073549,-0.019159,-0.02158,-0.03881,-0.025614,-0.01301,-0.034069,-0.037623,0.008321,-0.039278,-0.059976,-0.0041066,-0.055955,-0.036754
0.025098,0.0033463,-0.019958,-0.014892,0.0020177,0.0053513,-0.020923,-0.021176,0.012852,-0.021608,0.0093147,-0.019664,-0.018793,-0.039054,-0.025741,-0.014338,-0.032924,-0.039615,0.01229,-0.036498,-0.063465,0.0016395,-0.060104,-0.040121
0.020214,0.0056136,-0.014619,-0.016888,0.0076471,-0.006648,-0.024728,-0.018806,0.021545,-0.021468,0.009088,-0.016995,-0.01661,-0.045219,-0.030651,-0.013703,-0.034708,-0.042527,0.019671,-0.035836,-0.064276,0.0090349,-0.062305,-0.039968
0.016425,0.0026424,-0.0099741,-0.016199,0.013932,-0.018168,-0.031135,-0.015816,0.028802,-0.01753,0.0060005,-0.011606,-0.013216,-0.053114,-0.039478,-0.011292,-0.03954,-0.042585,0.031975,-0.037237,-0.061362,0.014119,-0.064433,-0.036128
0.015914,-0.0048778,-0.0091487,-0.012903,0.01637,-0.024875,-0.040335,-0.013267,0.033259,-0.011633,0.0011628,-0.0048895,-0.0078539,-0.057689,-0.048788,-0.0080747,-0.045837,-0.037442,0.047164,-0.039452,-0.055316,0.014162,-0.067445,-0.03058
0.018478,-0.0141,-0.011893,-0.0083442,0.012062,-0.026675,-0.049623,-0.012796,0.035539,-0.0060318,-0.0032483,0.0015675,-0.0020089,-0.05664,-0.05495,-0.0049812,-0.051615,-0.027849,0.060052,-0.041071,-0.04786,0.0095061,-0.070547,-0.025304
0.021808,-0.022038,-0.015346,-0.0042117,0.0015718,-0.02758,-0.054836,-0.01539,0.037356,-0.0021614,-0.0054107,0.0064822,0.0013306,-0.051636,-0.056199,-0.0024351,-0.055554,-0.017337,0.065293,-0.041333,-0.040778,0.0030233,-0.071765,-0.020193
0.023177,-0.027222,-0.016697,-0.0018356,-0.01103,-0.031992,-0.053477,-0.02021,0.039915,-0.00040758,-0.0050398,0.009051,7.1848e-006,-0.046538,-0.053076,-0.00038095,-0.057167,-0.0098671,0.060826,-0.040349,-0.034954,-0.0021757,-0.069626,-0.013184
0.02131,-0.029882,-0.015377,-0.0018348,-0.020356,-0.04077,-0.046854,-0.024609,0.042938,-0.00048804,-0.0035298,0.0090333,-0.0052065,-0.044426,-0.04748,0.0014636,-0.056536,-0.0069242,0.049198,-0.038869,-0.030007,-0.0048957,-0.064654,-0.0026327
0.017163,-0.030942,-0.013119,-0.0038335,-0.022955,-0.050577,-0.039223,-0.025536,0.045078,-0.0017412,-0.0029221,0.0068814,-0.010656,-0.045894,-0.041501,0.0033164,-0.0543,-0.0061499,0.035804,-0.037855,-0.024791,-0.0063821,-0.05939,0.010297
0.013213,-0.031025,-0.012141,-0.0062953,-0.019468,-0.056923,-0.034469,-0.021396,0.045355,-0.0031465,-0.0043951,0.0037507,-0.012263,-0.049567,-0.036778,0.0050224,-0.051822,-0.0027863,0.025482,-0.037974,-0.018501,-0.0091211,-0.056759,0.021674
0.011846,-0.030302,-0.013142,-0.0070082,-0.014012,-0.057991,-0.033095,-0.013099,0.044287,-0.0034721,-0.0073632,0.001134,-0.008604,-0.053779,-0.034265,0.0058747,-0.050766,0.0068413,0.020074,-0.039129,-0.011674,-0.014988,-0.057957,0.0275
0.013897,-0.02899,-0.014708,-0.0044657,-0.011129,-0.055804,-0.032127,-0.0036599,0.043652,-0.0018452,-0.0098775,0.00015279,-0.0021473,-0.05768,-0.03395,0.0049085,-0.051816,0.022278,0.018529,-0.040317,-0.0062024,-0.023995,-0.06149,0.026854
0.018159,-0.027675,-0.014375,0.00066674,-0.012491,-0.053913,-0.028058,0.0033251,0.044954,0.0015711,-0.010057,0.00093983,0.0024628,-0.061065,-0.034634,0.0017758,-0.053559,0.038743,0.018881,-0.040031,-0.0041104,-0.034283,-0.064118,0.022739
0.02206,-0.02701,-0.010326,0.0054547,-0.015908,-0.054077,-0.0203,0.0054066,0.047904,0.0054672,-0.0074682,0.0026046,0.0018292,-0.063642,-0.034329,-0.0024001,-0.053027,0.050188,0.020097,-0.037114,-0.0059118,-0.043237,-0.062929,0.019887
0.023098,-0.027163,-0.002515,0.0065865,-0.017386,-0.055119,-0.012146,0.0022878,0.05029,0.0081302,-0.0033772,0.0038637,-0.0036806,-0.064818,-0.031443,-0.0051885,-0.048079,0.053472,0.02231,-0.031508,-0.0099482,-0.049077,-0.056907,0.021304
0.020261,-0.027678,0.0073284,0.0030162,-0.014578,-0.05483,-0.0083307,-0.0043267,0.049533,0.0085469,0.00033605,0.0038751,-0.01024,-0.064158,-0.026019,-0.0043936,-0.039829,0.050458,0.025698,-0.024393,-0.013436,-0.051923,-0.046981,0.026265
0.014636,-0.027917,0.016535,-0.0029483,-0.0088382,-0.052749,-0.011122,-0.011843,0.04476,0.0069842,0.0027328,0.002645,-0.013382,-0.061783,-0.019911,1.8668e-005,-0.032701,0.046317,0.029443,-0.017638,-0.01443,-0.053546,-0.034959,0.031119
0.0088273,-0.027537,0.022642,-0.0073545,-0.0042029,-0.050862,-0.018045,-0.018149,0.037667,0.0045906,0.0045471,0.00074038,-0.011083,-0.058113,-0.015543,0.0053443,-0.031532,0.04526,0.031799,-0.013007,-0.012956,-0.055697,-0.022705,0.031987
0.0054294,-0.026437,0.024441,-0.0078644,-0.0042401,-0.051483,-0.023027,-0.02242,0.031362,0.002423,0.0074419,-0.0013669,-0.0047775,-0.053375,-0.014198,0.0077877,-0.037846,0.047104,0.03108,-0.011592,-0.010248,-0.05808,-0.012347,0.027182
0.0054345,-0.024307,0.022614,-0.0057293,-0.0094119,-0.05453,-0.020121,-0.024973,0.028018,0.00078219,0.012383,-0.0037148,0.0022749,-0.047693,-0.015277,0.0052771,-0.048441,0.04753,0.026596,-0.01361,-0.0068485,-0.05769,-0.006897,0.017754
0.0076049,-0.020475,0.019572,-0.0046351,-0.017093,-0.057107,-0.007168,-0.026486,0.027223,-0.00060309,0.018562,-0.0066715,0.0077049,-0.04184,-0.017097,-0.00083714,-0.057616,0.041922,0.018884,-0.018425,-0.0015497,-0.050486,-0.0099196,0.0061424
0.0093012,-0.014488,0.018305,-0.0073887,-0.023991,-0.056053,0.012885,-0.027391,0.026365,-0.001848,0.023921,-0.010374,0.011511,-0.037578,-0.018397,-0.0067278,-0.061223,0.029655,0.0093629,-0.02468,0.0075484,-0.034571,-0.023649,-0.0057573
0.008301,-0.0069681,0.020627,-0.013431,-0.028639,-0.05112,0.033543,-0.027942,0.02278,-0.0024833,0.026925,-0.014362,0.015207,-0.036648,-0.019129,-0.0089871,-0.05924,0.015158,-0.00016366,-0.030661,0.020666,-0.012518,-0.046704,-0.017618
0.004389,0.0001862,0.025898,-0.019407,-0.03174,-0.045666,0.04797,-0.028699,0.015896,-0.0018688,0.027994,-0.017817,0.019646,-0.038941,-0.01991,-0.0070777,-0.05499,0.0046971,-0.0080433,-0.034985,0.034943,0.0092269,-0.073427,-0.03011
-0.00043972,0.0046872,0.031213,-0.022181,-0.034345,-0.044036,0.052057,-0.030609,0.0076435,-9.9237e-005,0.029129,-0.020249,0.023667,-0.04172,-0.020864,-0.0033229,-0.052053,0.0014166,-0.013502,-0.037315,0.045643,0.023788,-0.09598,-0.043292
-0.0033809,0.005201,0.033177,-0.021478,-0.035958,-0.047895,0.04608,-0.034244,0.00085607,0.0015631,0.031865,-0.022009,0.024901,-0.041256,-0.021095,-0.00059283,-0.051685,0.0027288,-0.017367,-0.03853,0.049277,0.027842,-0.10821,-0.055325
-0.002836,0.0020577,0.030137,-0.019786,-0.03471,-0.054785,0.034419,-0.038779,-0.0029457,0.0013729,0.035348,-0.024067,0.022074,-0.035893,-0.019342,0.00014794,-0.052647,0.002262,-0.02204,-0.040026,0.046103,0.023325,-0.10871,-0.062793
0.00047244,-0.0031368,0.023314,-0.019842,-0.029546,-0.060164,0.023451,-0.04187,-0.0045499,-0.0015172,0.036475,-0.027103,0.016691,-0.027865,-0.015148,0.00023874,-0.053005,-0.0052063,-0.030112,-0.042532,0.039842,0.015771,-0.101,-0.062712
0.0041236,-0.008456,0.015979,-0.022194,-0.022146,-0.061079,0.018354,-0.041036,-0.0061227,-0.0061987,0.032295,-0.030638,0.012444,-0.021883,-0.0094215,0.0014343,-0.051894,-0.019817,-0.04212,-0.0454,0.03482,0.010594,-0.090671,-0.054891
0.0057984,-0.012329,0.011217,-0.025086,-0.01632,-0.058344,0.020309,-0.035714,-0.0093165,-0.010564,0.022727,-0.033082,0.012624,-0.021383,-0.0038525,0.0036389,-0.049729,-0.036741,-0.055118,-0.047038,0.032969,0.0099021,-0.081644,-0.042665
0.0047453,-0.013715,0.0098763,-0.026486,-0.015044,-0.055593,0.025882,-0.028236,-0.014124,-0.012913,0.011172,-0.032909,0.01759,-0.025601,0.00029496,0.0045225,-0.047094,-0.049977,-0.063722,-0.046202,0.033165,0.01171,-0.074227,-0.031085
0.0017928,-0.012204,0.010187,-0.026092,-0.017767,-0.056294,0.029413,-0.022619,-0.019361,-0.01322,0.0022692,-0.030176,0.024363,-0.030076,0.0030156,0.0015192,-0.043716,-0.056569,-0.063516,-0.043038,0.033175,0.011668,-0.066089,-0.023675
-0.0018268,-0.0083437,0.0093434,-0.025347,-0.020674,-0.061293,0.027157,-0.021863,-0.024088,-0.01294,-0.0014434,-0.027052,0.028744,-0.030208,0.0053697,-0.005537,-0.038623,-0.057962,-0.054523,-0.038925,0.03218,0.0059717,-0.055108,-0.020286
-0.0055221,-0.0037451,0.0058837,-0.02567,-0.019944,-0.068608,0.020247,-0.025855,-0.028444,-0.013602,-0.0012324,-0.026619,0.028306,-0.024898,0.0084526,-0.013557,-0.03126,-0.057836,-0.041867,-0.035256,0.031467,-0.0062399,-0.041617,-0.017826
-0.0092532,-0.00032234,0.0010394,-0.026881,-0.015156,-0.075104,0.014003,-0.031624,-0.033023,-0.015565,-0.00086744,-0.030593,0.023973,-0.017305,0.012328,-0.018052,-0.022419,-0.058688,-0.032633,-0.032251,0.032814,-0.022249,-0.028277,-0.013316
-0.012651,0.0010903,-0.0020457,-0.02752,-0.0096945,-0.078435,0.013829,-0.035743,-0.037528,-0.018068,-0.0034521,-0.037749,0.019115,-0.012321,0.015749,-0.016298,-0.014024,-0.060101,-0.03103,-0.02888,0.036298,-0.037185,-0.017857,-0.0066608
-0.014595,0.0014758,-0.00069945,-0.026671,-0.0077294,-0.077897,0.020864,-0.036845,-0.040306,-0.020334,-0.0089781,-0.044524,0.017012,-0.012942,0.016942,-0.0093346,-0.0078864,-0.05987,-0.035636,-0.023911,0.039751,-0.046782,-0.010953,-0.00075285
-0.013962,0.002651,0.0051204,-0.02527,-0.010494,-0.074115,0.030934,-0.036203,-0.039625,-0.022407,-0.01446,-0.047603,0.018698,-0.018305,0.015001,-0.0012302,-0.0044426,-0.056583,-0.041021,-0.017148,0.040385,-0.04983,-0.0056226,0.0011205
-0.010861,0.0051502,0.012583,-0.025356,-0.015271,-0.068268,0.037711,-0.036072,-0.035734,-0.024812,-0.016371,-0.046525,0.022651,-0.024534,0.010886,0.0037497,-0.0025172,-0.051254,-0.042504,-0.0098256,0.037093,-0.048651,0.00084268,-0.001733
-0.0069273,0.0070542,0.01781,-0.027884,-0.017954,-0.061513,0.037402,-0.037458,-0.031648,-0.027491,-0.013388,-0.044114,0.02624,-0.027398,0.0071742,0.0039421,-0.0003093,-0.046665,-0.04006,-0.0039573,0.031386,-0.047101,0.0096035,-0.006631
-0.0041392,0.0053446,0.018292,-0.031338,-0.016781,-0.054725,0.031074,-0.039343,-0.031423,-0.029419,-0.0074332,-0.044194,0.027602,-0.024828,0.0065031,0.0010872,0.0031942,-0.045201,-0.038049,-0.0012482,0.026277,-0.047513,0.019363,-0.0095526
-0.0032002,-0.001051,0.014076,-0.032773,-0.013824,-0.048385,0.022981,-0.039871,-0.036961,-0.029562,-0.0024188,-0.04834,0.026586,-0.017866,0.0097043,-0.0012447,0.0075082,-0.047093,-0.040945,-0.002301,0.024208,-0.049044,0.027472,-0.0082052
-0.0031263,-0.009383,0.0071063,-0.030511,-0.012974,-0.042553,0.016811,-0.038185,-0.046023,-0.028295,-0.0017449,-0.054358,0.024404,-0.0097607,0.015056,-0.0002966,0.011195,-0.050461,-0.048768,-0.006399,0.025646,-0.04886,0.031942,-0.0036083
-0.0025202,-0.014595,-0.0003263,-0.025959,-0.016353,-0.03702,0.013329,-0.035138,-0.053456,-0.027624,-0.0062863,-0.057861,0.022607,-0.0039461,0.019412,0.0040527,0.013192,-0.052889,-0.056211,-0.011764,0.029127,-0.045111,0.032704,0.00090383
-0.0012731,-0.013397,-0.0066333,-0.022671,-0.022374,-0.03168,0.011105,-0.032346,-0.054984,-0.029615,-0.014037,-0.055742,0.022187,-0.0020223,0.020503,0.0094244,0.013772,-0.053118,-0.056408,-0.01618,0.032328,-0.038927,0.03129,0.0022406
-0.0009081,-0.0073884,-0.010939,-0.023373,-0.027039,-0.026926,0.0088451,-0.03067,-0.05056,-0.034337,-0.021421,-0.048721,0.023174,-0.0028632,0.018646,0.012731,0.01429,-0.051549,-0.046295,-0.017911,0.03333,-0.033477,0.029511,-0.00036482
-0.0031005,-0.0022301,-0.012722,-0.027594,-0.027175,-0.023728,0.0066313,-0.029616,-0.04442,-0.039428,-0.025318,-0.040847,0.024678,-0.0034228,0.016434,0.012245,0.015894,-0.049383,-0.029189,-0.016629,0.031528,-0.030948,0.028335,-0.0050988
-0.0077509,-0.0032627,-0.011946,-0.032026,-0.022786,-0.023204,0.0049746,-0.028082,-0.041675,-0.041971,-0.024659,-0.036347,0.025283,-0.00083657,0.016574,0.0085077,0.018392,-0.047346,-0.012564,-0.013714,0.02803,-0.030385,0.02773,-0.0089597
-0.012518,-0.011257,-0.0096102,-0.033209,-0.016711,-0.025815,0.0032443,-0.025566,-0.044269,-0.041111,-0.020788,-0.036423,0.023868,0.0055493,0.019617,0.003611,0.020419,-0.045057,-0.0029601,-0.011457,0.025281,-0.028612,0.027299,-0.009618
-0.014374,-0.021954,-0.0078117,-0.030088,-0.012186,-0.030663,-0.00034277,-0.022606,-0.049653,-0.038865,-0.016542,-0.038579,0.020598,0.013729,0.023509,-0.00042554,0.020893,-0.041403,-0.0021901,-0.011529,0.025752,-0.023426,0.026986,-0.0066131
-0.01187,-0.029694,-0.0086363,-0.024367,-0.010521,-0.035454,-0.0068784,-0.020181,-0.053165,-0.038186,-0.014586,-0.038905,0.017311,0.020607,0.02535,-0.0028601,0.020405,-0.0354,-0.0075418,-0.013855,0.03008,-0.015979,0.027202,-0.0014437
-0.0061536,-0.031874,-0.012512,-0.018755,-0.010691,-0.037388,-0.015047,-0.018816,-0.051855,-0.040009,-0.015928,-0.035292,0.016528,0.024417,0.023931,-0.0041737,0.021012,-0.026856,-0.015142,-0.016871,0.035987,-0.0099686,0.028296,0.0032736
3.9601e-005,-0.030411,-0.017552,-0.014999,-0.010801,-0.034594,-0.021604,-0.018312,-0.046424,-0.042177,-0.019505,-0.028896,0.019391,0.026033,0.020863,-0.005058,0.024333,-0.016542,-0.023138,-0.018957,0.039229,-0.0084218,0.029843,0.0051259
0.0043886,-0.029312,-0.020844,-0.013349,-0.0099153,-0.027218,-0.023897,-0.018217,-0.039818,-0.041488,-0.023094,-0.022823,0.024152,0.028077,0.019329,-0.0055691,0.029656,-0.006093,-0.03201,-0.019693,0.036484,-0.011168,0.030422,0.0031646
0.0062459,-0.030892,-0.020898,-0.013356,-0.0086767,-0.01737,-0.022109,-0.018365,-0.034214,-0.037029,-0.024938,-0.019405,0.026945,0.032545,0.021446,-0.0053332,0.034094,0.0021956,-0.042294,-0.019714,0.028168,-0.015385,0.028308,-0.0014849
0.0063051,-0.034089,-0.019165,-0.01467,-0.0083957,-0.0078934,-0.019082,-0.018809,-0.029446,-0.031599,-0.024902,-0.018481,0.024722,0.038939,0.02643,-0.0045529,0.035022,0.0058611,-0.052372,-0.01935,0.018722,-0.018473,0.022851,-0.0061094
0.005393,-0.036052,-0.019099,-0.016905,-0.0096015,-0.00081501,-0.017945,-0.019305,-0.024266,-0.029597,-0.024314,-0.017979,0.018049,0.044435,0.031113,-0.0046131,0.032663,0.0032574,-0.058723,-0.017561,0.013665,-0.020234,0.01557,-0.0079339
0.003753,-0.035125,-0.02329,-0.019032,-0.011334,0.0035198,-0.019792,-0.019076,-0.018833,-0.033114,-0.024685,-0.01598,0.011036,0.045933,0.03242,-0.0073346,0.030204,-0.0053355,-0.058527,-0.012504,0.015477,-0.022223,0.0098998,-0.0059197
0.0013903,-0.032329,-0.031043,-0.019415,-0.011726,0.0062714,-0.023477,-0.01732,-0.015508,-0.039747,-0.02647,-0.012264,0.0080915,0.042355,0.02979,-0.013295,0.030989,-0.017438,-0.052257,-0.003401,0.021641,-0.025162,0.0093303,-0.0016508
-0.0012371,-0.030196,-0.038558,-0.01687,-0.0093496,0.0094705,-0.027356,-0.014052,-0.016779,-0.044223,-0.028938,-0.008095,0.010158,0.035513,0.025595,-0.020823,0.035333,-0.029605,-0.04386,0.0080874,0.026584,-0.027333,0.015015,0.0015101
-0.0032666,-0.030336,-0.041718,-0.011781,-0.0042754,0.015708,-0.030987,-0.010325,-0.022212,-0.042546,-0.031159,-0.0047641,0.013898,0.029036,0.023295,-0.026946,0.040131,-0.039588,-0.038254,0.01854,0.026036,-0.025853,0.024629,0.00069622
-0.0043509,-0.032097,-0.03922,-0.0060698,0.001929,0.028265,-0.035047,-0.0074035,-0.027661,-0.035109,-0.03306,-0.0024632,0.01469,0.026214,0.024915,-0.029767,0.041974,-0.047739,-0.038088,0.02514,0.020267,-0.019655,0.033588,-0.0042419
-0.0054,-0.033383,-0.033402,-0.001857,0.0072806,0.05099,-0.039718,-0.0055427,-0.028044,-0.02617,-0.035435,-0.0004916,0.010773,0.028165,0.029874,-0.030163,0.040902,-0.056238,-0.042266,0.02768,0.013649,-0.011186,0.03793,-0.010314
-0.0080642,-0.03266,-0.028142,3.2662e-005,0.010814,0.087246,-0.043361,-0.0035854,-0.021538,-0.020269,-0.038858,0.0016637,0.0047369,0.033333,0.035842,-0.031,0.041067,-0.066536,-0.047209,0.028391,0.011029,-0.0050065,0.036768,-0.013358
-0.013162,-0.030302,-0.025724,0.00038094,0.013387,0.13813,-0.043058,8.9961e-005,-0.011437,-0.018704,-0.042579,0.0036382,0.00098426,0.038427,0.040553,-0.034289,0.047258,-0.077164,-0.049618,0.029813,0.013966,-0.0044068,0.032484,-0.01111
-0.019542,-0.028229,-0.025412,0.00052883,0.017212,0.20115,-0.036765,0.006038,-0.0037948,-0.018964,-0.044563,0.0045953,0.0015419,0.040177,0.042931,-0.038839,0.060254,-0.084046,-0.048466,0.032722,0.019748,-0.0090227,0.028638,-0.0049668
-0.024672,-0.028316,-0.0248,0.0010604,0.024288,0.27034,-0.025261,0.013064,-0.0027263,-0.017328,-0.042868,0.0042065,0.0040707,0.036953,0.042898,-0.040761,0.075286,-0.083378,-0.044789,0.035975,0.023662,-0.015402,0.027343,0.0010659
-0.026636,-0.030851,-0.022491,0.0014373,0.034719,0.33804,-0.012146,0.019095,-0.0073169,-0.012233,-0.037273,0.0031287,0.0038992,0.029494,0.040705,-0.036687,0.085237,-0.074749,-0.039807,0.038184,0.02248,-0.019823,0.028167,0.0034428
-0.025743,-0.034132,-0.019518,0.00075868,0.0462,0.397,-0.0017677,0.022848,-0.012667,-0.0055623,-0.029804,0.0025124,-0.0017242,0.020443,0.03683,-0.026948,0.08598,-0.06173,-0.033343,0.039401,0.016481,-0.020913,0.029121,0.0015816
-0.024167,-0.035394,-0.018311,-0.0012636,0.055243,0.44169,0.0033905,0.024752,-0.013954,-0.0009673,-0.023623,0.0030945,-0.010868,0.013013,0.032472,-0.015797,0.079354,-0.049267,-0.024106,0.041125,0.0087925,-0.02012,0.028556,-0.0022772
-0.023859,-0.032533,-0.02034,-0.004075,0.059396,0.46842,0.0038997,0.026275,-0.0099763,-0.00079497,-0.021064,0.0047556,-0.01801,0.0094575,0.029577,-0.0083336,0.071382,-0.040042,-0.011586,0.04473,0.0029733,-0.020118,0.026276,-0.0054818
-0.024661,-0.025665,-0.024704,-0.0068623,0.058804,0.47512,0.0023704,0.028325,-0.0034226,-0.0041869,-0.02219,0.0068215,-0.018114,0.010071,0.029694,-0.0067309,0.067491,-0.032944,0.0022733,0.0499,0.00075249,-0.02267,0.023173,-0.0072024
-0.024429,-0.0175,-0.028875,-0.0091963,0.055831,0.46155,0.0011691,0.03028,0.0018524,-0.0077762,-0.024817,0.0086391,-0.010474,0.013166,0.032447,-0.0089701,0.068809,-0.024881,0.01339,0.054574,0.0013358,-0.027454,0.020141,-0.0083813
-0.021139,-0.012034,-0.030708,-0.011067,0.053015,0.42991,0.00071465,0.030587,0.0038948,-0.008266,-0.025877,0.0098589,0.00057733,0.015989,0.035325,-0.011005,0.07234,-0.014139,0.01785,0.05636,0.0023758,-0.032331,0.017423,-0.0097253
-0.015084,-0.01208,-0.029804,-0.012421,0.051099,0.38508,-0.00036938,0.028333,0.0036178,-0.004792,-0.023193,0.010364,0.0085282,0.016143,0.035578,-0.010247,0.074229,-0.0021655,0.014451,0.054129,0.0017053,-0.034648,0.014816,-0.0101
-0.009121,-0.017203,-0.027191,-0.012861,0.048849,0.3336,-0.0035393,0.024243,0.0033666,0.00068592,-0.016601,0.010176,0.0089448,0.012824,0.032839,-0.0073037,0.072832,0.0077645,0.0055414,0.048522,-0.0012733,-0.032838,0.012173,-0.0072247
-0.0066426,-0.023715,-0.02395,-0.011915,0.044744,0.28173,-0.0086075,0.020122,0.0047198,0.0051102,-0.0078517,0.0095018,0.0021124,0.007204,0.030009,-0.0047141,0.069008,0.013583,-0.0042764,0.041258,-0.005274,-0.027568,0.0095212,-9.2987e-005
-0.008915,-0.027053,-0.020276,-0.0095605,0.038873,0.23387,-0.013511,0.01726,0.0073652,0.006757,0.00056014,0.0087436,-0.0076279,0.0016278,0.03121,-0.0042198,0.06401,0.016245,-0.010361,0.033999,-0.0080209,-0.021686,0.0068198,0.0093537
-0.014018,-0.024972,-0.015743,-0.0063418,0.033171,0.1922,-0.015765,0.015419,0.0096396,0.0065533,0.0068811,0.0082539,-0.015127,-0.0020195,0.038358,-0.0051934,0.057629,0.018713,-0.0096402,0.027632,-0.0078565,-0.018667,0.0039176,0.017121
-0.018263,-0.019083,-0.010247,-0.002905,0.029733,0.1573,-0.014357,0.013443,0.0099771,0.0073735,0.010938,0.0080256,-0.017813,-0.0037705,0.04945,-0.0054774,0.048712,0.023203,-0.001156,0.022189,-0.0050707,-0.020219,0.0010149,0.019924
-0.018943,-0.013426,-0.0045027,0.00053768,0.028849,0.12882,-0.01046,0.010947,0.0080598,0.011888,0.013745,0.0077027,-0.016876,-0.0057162,0.060261,-0.0035323,0.037461,0.029334,0.013902,0.017172,-0.0019419,-0.024729,-0.0008816,0.017317
-0.016248,-0.011203,0.00040089,0.0041657,0.028701,0.10538,-0.0063917,0.009342,0.0049359,0.020549,0.016176,0.0069895,-0.015711,-0.010422,0.06806,0.00023855,0.026803,0.034855,0.032247,0.012018,-0.0012538,-0.028065,-0.00028123,0.011414
-0.01289,-0.012372,0.0039106,0.0079471,0.027077,0.084201,-0.0037413,0.010958,0.0021825,0.031152,0.017806,0.0060337,-0.017063,-0.018516,0.073903,0.0040586,0.020883,0.038198,0.049148,0.0065707,-0.004261,-0.026537,0.003649,0.0047885
-0.01183,-0.014082,0.00646,0.011219,0.023429,0.061686,-0.0022972,0.01682,0.00081485,0.040255,0.017043,0.0053146,-0.021084,-0.027276,0.081213,0.0064398,0.021636,0.040563,0.0604,0.0014138,-0.0097303,-0.019838,0.010085,-0.0012646
-0.013911,-0.013431,0.0090305,0.013099,0.019309,0.035206,-0.00065231,0.025092,0.00076885,0.045349,0.012628,0.0051164,-0.025518,-0.03165,0.091717,0.0073043,0.026657,0.04574,0.065056,-0.0022375,-0.014957,-0.011438,0.016775,-0.0066402
-0.017214,-0.0099946,0.012196,0.013467,0.016785,0.0049094,0.0021544,0.031819,0.0013134,0.046175,0.0052473,0.0051978,-0.027471,-0.027401,0.10233,0.0077327,0.030704,0.057798,0.066863,-0.0032389,-0.017965,-0.0058584,0.021503,-0.011101
-0.018576,-0.0058968,0.015451,0.013419,0.016422,-0.026121,0.0055694,0.03363,0.0019647,0.044319,-0.0023164,0.0051278,-0.025211,-0.014261,0.10598,0.0088825,0.029834,0.078362,0.072446,-0.0014676,-0.018962,-0.005033,0.023558,-0.01351
-0.016122,-0.0035267,0.017419,0.01448,0.016765,-0.053905,0.008136,0.030258,0.0029765,0.041654,-0.0069189,0.0050038,-0.018827,0.0034049,0.096169,0.011165,0.024564,0.10526,0.086755,0.0017492,-0.019739,-0.0069077,0.023878,-0.012582
-0.010868,-0.0032256,0.01688,0.017056,0.015734,-0.076366,0.0093007,0.024735,0.00483,0.039052,-0.0073171,0.0057197,-0.0097593,0.01919,0.071918,0.014189,0.019166,0.1332,0.10902,0.0042733,-0.02167,-0.0075384,0.023784,-0.0083263
-0.0061407,-0.0031994,0.013983,0.019666,0.012528,-0.094567,0.010645,0.021088,0.0071757,0.036348,-0.004948,0.0082555,4.7286e-005,0.028694,0.039368,0.017158,0.017705,0.15577,0.13274,0.004556,-0.024344,-0.0048214,0.023608,-0.0025375
-0.0051373,-0.0016649,0.01071,0.019959,0.0082833,-0.11132,0.015071,0.021427,0.0084137,0.033253,-0.0024388,0.012446,0.0087399,0.03199,0.0087824,0.019231,0.020396,0.16772,0.15022,0.0027284,-0.026196,-0.00046759,0.022605,0.0023366
-0.008391,0.0010208,0.010013,0.016909,0.0050451,-0.12835,0.024246,0.024768,0.0066771,0.030074,-0.0011671,0.016392,0.014927,0.032666,-0.011097,0.019784,0.02352,0.1666,0.15822,0.00043266,-0.026389,0.0016176,0.020186,0.0049656
-0.013113,0.0025187,0.013891,0.012202,0.0041489,-0.14453,0.036429,0.028313,0.0015915,0.027541,-0.00016898,0.01735,0.018038,0.034418,-0.017624,0.018758,0.022807,0.15333,0.16004,-0.00052825,-0.025844,-0.00088121,0.017071,0.0059301
-0.015039,0.00094066,0.02163,0.0093029,0.0054159,-0.1566,0.046843,0.029827,-0.0048407,0.026127,0.0025193,0.013685,0.018583,0.038092,-0.014936,0.016962,0.017091,0.13186,0.16241,0.00041323,-0.02618,-0.0061894,0.015004,0.0068992
-0.011488,-0.0028296,0.029631,0.01068,0.0075776,-0.16186,0.050817,0.029031,-0.0093684,0.025777,0.0073504,0.0064578,0.017941,0.041506,-0.01057,0.015864,0.0090284,0.1078,0.16972,0.0023653,-0.027653,-0.0095947,0.015146,0.0090486
-0.003306,-0.0053625,0.03335,0.015522,0.0092289,-0.16012,0.047406,0.027156,-0.0099701,0.026369,0.012096,-0.00078957,0.017572,0.04187,-0.010399,0.016675,0.002539,0.086379,0.18071,0.0041041,-0.028457,-0.0073663,0.016784,0.01213
0.0057896,-0.0034905,0.030264,0.020096,0.0094312,-0.15369,0.040452,0.025518,-0.007584,0.028147,0.013371,-0.0041163,0.018132,0.038438,-0.01523,0.019349,-0.00041372,0.070256,0.18998,0.0054844,-0.026469,-2.2744e-005,0.01781,0.014824
0.011916,0.0028298,0.021765,0.020695,0.0077595,-0.14545,0.035932,0.024677,-0.0054182,0.031361,0.0096328,-0.0017526,0.019235,0.033138,-0.021169,0.022499,-0.00087781,0.05834,0.19282,0.0077693,-0.021861,0.007997,0.016697,0.01583
0.013619,0.010318,0.012403,0.016763,0.0042048,-0.13705,0.037526,0.024724,-0.006239,0.035288,0.0028718,0.0047608,0.020086,0.028966,-0.023234,0.02452,-0.0013029,0.046427,0.18896,0.012481,-0.017779,0.012103,0.014056,0.014728
0.012403,0.015118,0.0068813,0.01147,-0.00075072,-0.12881,0.043964,0.02588,-0.0099051,0.037872,-0.0027671,0.011762,0.020433,0.027841,-0.019459,0.025,-0.0032404,0.029671,0.18245,0.019733,-0.017922,0.011565,0.012112,0.012158
0.011017,0.01605,0.0069534,0.0091456,-0.0060741,-0.12098,0.050297,0.028356,-0.013315,0.036811,-0.0043874,0.016117,0.020951,0.029723,-0.012425,0.025063,-0.0065581,0.0055894,0.17831,0.027517,-0.022966,0.010249,0.012441,0.0095183
0.011117,0.01545,0.010547,0.011741,-0.010509,-0.11481,0.051962,0.031519,-0.012877,0.031433,-0.0027256,0.017315,0.022653,0.033297,-0.0071423,0.026272,-0.010478,-0.024301,0.17926,0.032629,-0.029233,0.013362,0.014208,0.0085142
0.012186,0.016915,0.013709,0.017358,-0.013228,-0.11208,0.048192,0.033527,-0.0074496,0.023637,-0.0012246,0.017431,0.025777,0.037111,-0.0069991,0.029096,-0.014884,-0.055329,0.1849,0.032576,-0.031178,0.022902,0.014784,0.010555
0.012394,0.021974,0.01374,0.022048,-0.014248,-0.11348,0.042038,0.032378,0.00069191,0.016796,-0.0024794,0.019076,0.029091,0.040085,-0.010978,0.032431,-0.020379,-0.082339,0.19299,0.027094,-0.025791,0.035695,0.012416,0.015929
0.010422,0.028578,0.01104,0.02321,-0.01413,-0.11765,0.037308,0.027755,0.007563,0.013413,-0.0052795,0.023095,0.030326,0.041398,-0.014352,0.034549,-0.02718,-0.10216,0.20082,0.018345,-0.015084,0.045712,0.0083768,0.023163
0.0067311,0.032579,0.0083005,0.021577,-0.013236,-0.12196,0.035294,0.02189,0.010381,0.013542,-0.0051484,0.027934,0.027619,0.040496,-0.012314,0.034476,-0.034276,-0.11416,0.2052,0.0098539,-0.0044266,0.04872,0.00634,0.029365
0.003347,0.030919,0.0079375,0.020177,-0.011351,-0.12455,0.034069,0.01826,0.0093637,0.015269,0.0017919,0.031158,0.02104,0.037547,-0.0037074,0.032473,-0.039894,-0.11901,0.20172,0.0049916,0.0018447,0.045395,0.0092039,0.03187
0.0024418,0.024019,0.0099854,0.021416,-0.0081547,-0.12558,0.030663,0.018939,0.0072105,0.016603,0.014926,0.031712,0.013034,0.03381,0.0079959,0.02938,-0.042824,-0.11735,0.18524,0.0057125,0.0037229,0.040435,0.016172,0.030306
0.0047585,0.015717,0.012151,0.024982,-0.0041135,-0.12629,0.023942,0.022907,0.0069666,0.016951,0.028779,0.030901,0.0072288,0.031169,0.017114,0.025759,-0.043268,-0.10988,0.15225,0.011939,0.0049428,0.038658,0.022895,0.027342
0.0089349,0.010977,0.011813,0.028331,-0.0007479,-0.12678,0.015687,0.026933,0.010024,0.016987,0.036737,0.031206,0.0061862,0.030982,0.019592,0.021833,-0.04242,-0.098869,0.10381,0.02169,0.0092298,0.041479,0.024829,0.027056
0.0122,0.013024,0.0081813,0.02904,0.00022242,-0.12482,0.0092013,0.028277,0.015567,0.017481,0.035841,0.034043,0.0096177,0.033243,0.015374,0.018102,-0.041337,-0.088965,0.046365,0.031963,0.016854,0.046573,0.020988,0.031819
0.012101,0.021689,0.0028697,0.026737,-0.0017784,-0.11735,0.0068183,0.02678,0.021463,0.018571,0.028669,0.038465,0.014487,0.036909,0.0078064,0.015629,-0.040251,-0.085974,-0.010961,0.0401,0.024519,0.050599,0.014811,0.040126
0.00822,0.033812,-0.0013921,0.022971,-0.0056022,-0.10358,0.008353,0.024469,0.025619,0.020197,0.020932,0.041915,0.017138,0.041083,0.00097416,0.015361,-0.038897,-0.093911,-0.061146,0.044942,0.028474,0.052345,0.011302,0.047361
0.002678,0.045299,-0.0027095,0.019477,-0.0091862,-0.086719,0.011442,0.023231,0.026872,0.022901,0.017082,0.042255,0.015986,0.045855,-0.0027957,0.0171,-0.037339,-0.11274,-0.10298,0.046965,0.027868,0.053599,0.012929,0.049158
-0.0011399,0.053447,-0.0011245,0.016767,-0.011097,-0.072303,0.013206,0.022898,0.025148,0.027741,0.017624,0.039264,0.01268,0.051921,-0.0035773,0.019375,-0.036396,-0.1388,-0.14091,0.047212,0.025293,0.057314,0.017819,0.044759
-0.00093858,0.058079,0.0017022,0.014373,-0.011471,-0.064181,0.011879,0.021576,0.021233,0.035121,0.019948,0.034474,0.010759,0.059384,-0.0027495,0.020642,-0.037351,-0.16768,-0.18117,0.045868,0.024228,0.064923,0.021727,0.037647
0.0027175,0.060853,0.0036784,0.012206,-0.011585,-0.06175,0.0074045,0.017757,0.016485,0.043752,0.021248,0.02981,0.012783,0.066999,-0.001523,0.020796,-0.041264,-0.197,-0.22673,0.041741,0.025913,0.07515,0.021869,0.032905
0.0066701,0.063374,0.0034217,0.011277,-0.0125,-0.060959,0.00089845,0.012041,0.012548,0.051018,0.020678,0.026432,0.018262,0.072701,-0.00028211,0.021403,-0.048446,-0.22693,-0.2749,0.033218,0.028577,0.085064,0.019136,0.033464
0.00744,0.065668,0.00085087,0.012744,-0.014006,-0.058246,-0.0063598,0.0067354,0.010895,0.054691,0.019198,0.024655,0.024059,0.074973,0.0011762,0.024252,-0.058246,-0.25793,-0.31905,0.019875,0.029569,0.092257,0.01679,0.038204
0.0038425,0.066249,-0.0027842,0.01616,-0.014714,-0.053753,-0.013613,0.0037415,0.012231,0.054458,0.017938,0.024566,0.026907,0.073756,0.0031931,0.029469,-0.069056,-0.28804,-0.35324,0.0032695,0.028184,0.096299,0.017107,0.043228
-0.0021008,0.063677,-0.0053502,0.018911,-0.01315,-0.050867,-0.020629,0.0027488,0.016054,0.0519,0.017018,0.026296,0.025901,0.070045,0.0060739,0.034993,-0.078527,-0.31199,-0.37634,-0.013816,0.026424,0.098607,0.019281,0.045049
-0.0066946,0.05817,-0.0047522,0.017844,-0.0089642,-0.052679,-0.027276,0.0014428,0.02074,0.049017,0.015757,0.029512,0.022921,0.064623,0.010015,0.038013,-0.084182,-0.32316,-0.39243,-0.028964,0.027005,0.10125,0.020566,0.043044
-0.0073215,0.051748,-0.000122,0.011933,-0.0033574,-0.058835,-0.033231,-0.002443,0.024206,0.046746,0.013604,0.032803,0.020738,0.057256,0.014806,0.037137,-0.084416,-0.31691,-0.40709,-0.041102,0.030558,0.10585,0.019404,0.039455
-0.0042179,0.04672,0.0073955,0.0035904,0.0015171,-0.065803,-0.038127,-0.0089907,0.024829,0.044704,0.01064,0.033983,0.020599,0.04724,0.019516,0.033396,-0.079395,-0.29348,-0.42217,-0.050163,0.034743,0.11324,0.017316,0.03731
6.7421e-005,0.043899,0.015023,-0.0027364,0.0037681,-0.070152,-0.041889,-0.015641,0.022154,0.04202,0.0073178,0.0315,0.021398,0.034821,0.022768,0.02931,-0.071101,-0.25854,-0.43303,-0.056046,0.03616,0.12367,0.017616,0.038178
0.002929,0.042283,0.019971,-0.0036592,0.0028426,-0.071538,-0.044775,-0.018781,0.017033,0.038127,0.0040987,0.02588,0.021068,0.022014,0.023742,0.02695,-0.06222,-0.22128,-0.43071,-0.058102,0.033333,0.13695,0.022247,0.041451
0.0036926,0.040581,0.021314,0.00086501,-0.0001647,-0.072496,-0.046964,-0.016203,0.011097,0.032793,0.0015501,0.019736,0.018808,0.01174,0.023058,0.026705,-0.054476,-0.19096,-0.40798,-0.055629,0.028066,0.15222,0.02992,0.045395
0.0036979,0.039117,0.020673,0.0078415,-0.0031529,-0.075397,-0.048157,-0.0087042,0.0058134,0.025789,0.00063356,0.016001,0.016061,0.0058024,0.022389,0.027616,-0.047636,-0.17311,-0.36526,-0.048773,0.023983,0.16773,0.037384,0.048788
0.0045585,0.040079,0.021038,0.013683,-0.0042387,-0.079737,-0.047723,0.00026368,0.0016189,0.017074,0.0024224,0.015669,0.015323,0.0035273,0.022811,0.028624,-0.040047,-0.16736,-0.31164,-0.038893,0.023612,0.18101,0.042433,0.051695
0.0062849,0.045551,0.024501,0.01668,-0.0028216,-0.082558,-0.045396,0.0066869,-0.0022239,0.0075247,0.0071134,0.016974,0.017864,0.0024928,0.023367,0.029387,-0.030438,-0.16789,-0.26008,-0.028111,0.026589,0.18959,0.045563,0.054815
0.0070429,0.054969,0.030631,0.017636,0.00016714,-0.081521,-0.0418,0.0084718,-0.0067634,-0.00070242,0.013224,0.016853,0.022408,0.00086391,0.021547,0.030041,-0.019583,-0.16659,-0.21974,-0.018505,0.030414,0.19178,0.048673,0.058131
0.0048336,0.064533,0.036752,0.01849,0.0029435,-0.077467,-0.038116,0.0066387,-0.011973,-0.0050975,0.018044,0.013502,0.025982,-0.00085793,0.01564,0.03046,-0.010367,-0.15752,-0.19122,-0.011509,0.032823,0.18705,0.05233,0.060181
-0.00038896,0.069512,0.039917,0.020334,0.0039446,-0.073768,-0.035058,0.0043365,-0.016012,-0.0045957,0.019352,0.0078204,0.026178,-0.00053043,0.0068446,0.030043,-0.0059307,-0.13995,-0.16824,-0.00757,0.033523,0.17564,0.054585,0.058816
-0.0061344,0.067718,0.039082,0.022441,0.0025353,-0.073062,-0.032174,0.0043028,-0.016117,-0.00072118,0.017067,0.0024751,0.022851,0.0029471,-0.0011539,0.028315,-0.0071263,-0.11784,-0.14426,-0.0059558,0.033865,0.15794,0.052631,0.052953
-0.0090461,0.061081,0.035839,0.022956,-0.0010196,-0.074674,-0.028301,0.0066378,-0.01082,0.003173,0.01339,-0.0005165,0.017869,0.0075805,-0.0051919,0.025573,-0.011269,-0.096219,-0.11821,-0.0048716,0.035103,0.13411,0.045627,0.043865
-0.007571,0.05382,0.03324,0.020599,-0.0060332,-0.075356,-0.022905,0.0086856,-0.0018199,0.0042006,0.011231,-0.0014091,0.013319,0.0092064,-0.0055875,0.022683,-0.013363,-0.077003,-0.094535,-0.0022136,0.037116,0.10479,0.035822,0.034651
-0.0033923,0.048787,0.033637,0.016026,-0.011739,-0.072611,-0.017013,0.00724,0.0063214,0.0019963,0.012295,-0.0020966,0.0099711,0.0049982,-0.0061315,0.02009,-0.0091468,-0.057719,-0.077877,0.0031888,0.038775,0.072292,0.026864,0.028019
-0.00029037,0.045321,0.037089,0.011733,-0.01723,-0.067219,-0.01271,0.0013485,0.0088558,-0.0010942,0.016379,-0.0039823,0.0073272,-0.0035557,-0.010797,0.017144,0.002168,-0.03435,-0.067478,0.010738,0.039364,0.041251,0.02095,0.024131
-0.001207,0.040549,0.041391,0.01042,-0.021303,-0.062441,-0.011535,-0.0066683,0.0040135,-0.0017219,0.022226,-0.0065866,0.0049143,-0.011241,-0.020037,0.012694,0.017476,-0.0060397,-0.056715,0.018523,0.039433,0.017604,0.017435,0.020476
-0.0058465,0.032776,0.043594,0.012932,-0.022751,-0.060862,-0.013274,-0.012988,-0.0058826,0.0023361,0.028729,-0.0083366,0.0032416,-0.013213,-0.030158,0.0066163,0.031973,0.02252,-0.038156,0.024866,0.040193,0.0059527,0.013926,0.014159
-0.010803,0.023573,0.041929,0.017436,-0.021209,-0.062329,-0.016318,-0.015465,-0.016266,0.011195,0.035179,-0.0086763,0.0033378,-0.0091707,-0.036515,0.00069386,0.04231,0.043566,-0.0094287,0.029616,0.042198,0.0068741,0.0085367,0.0047495
-0.012184,0.016515,0.036853,0.020711,-0.017978,-0.065175,-0.019219,-0.015492,-0.023558,0.023355,0.040524,-0.0091424,0.0054256,-0.0037848,-0.037704,-0.0023906,0.048355,0.052009,0.025337,0.033947,0.044753,0.016195,0.0012535,-0.0049309
-0.0086694,0.013873,0.030588,0.020688,-0.015963,-0.069282,-0.021847,-0.016831,-0.027127,0.036736,0.042934,-0.011981,0.0082805,-0.0027272,-0.036894,-0.0014821,0.052411,0.049693,0.059426,0.038884,0.046637,0.027048,-0.0064052,-0.010991
-0.0025586,0.014655,0.025544,0.018118,-0.018319,-0.077289,-0.024959,-0.022259,-0.028662,0.049256,0.040764,-0.017436,0.010097,-0.0076098,-0.039013,0.0013007,0.056762,0.044314,0.088817,0.044113,0.047269,0.033495,-0.012594,-0.011815
0.0019888,0.01598,0.022729,0.01577,-0.026433,-0.092119,-0.028718,-0.030828,-0.030024,0.058845,0.034359,-0.022463,0.010035,-0.014278,-0.046333,0.001407,0.061649,0.043675,0.11409,0.048358,0.047034,0.033348,-0.016037,-0.0094853
0.0020769,0.016296,0.021186,0.01574,-0.038578,-0.11312,-0.031866,-0.03808,-0.031742,0.063596,0.026779,-0.022601,0.0088528,-0.016046,-0.056431,-0.0048854,0.065236,0.050175,0.13795,0.050934,0.046533,0.02846,-0.016283,-0.0078354
-0.0019301,0.016916,0.018769,0.01732,-0.050392,-0.13511,-0.032606,-0.039118,-0.033246,0.062445,0.022103,-0.015747,0.0079637,-0.0091506,-0.064293,-0.017197,0.065384,0.060326,0.1616,0.052717,0.045754,0.022691,-0.013731,-0.0088166
-0.0070254,0.020081,0.013637,0.017542,-0.0572,-0.15214,-0.03034,-0.032106,-0.033992,0.055861,0.022238,-0.0045561,0.0079221,0.0042255,-0.066485,-0.03054,0.061598,0.069509,0.18377,0.055288,0.044182,0.019253,-0.0096335,-0.010574
-0.010126,0.025468,0.005421,0.014044,-0.05681,-0.16266,-0.026263,-0.01955,-0.03395,0.045726,0.024974,0.0049853,0.0078784,0.017785,-0.063545,-0.038343,0.055559,0.077367,0.20287,0.058937,0.041624,0.019181,-0.0057352,-0.0091246
-0.010414,0.029049,-0.0046361,0.0075843,-0.050855,-0.17109,-0.021917,-0.0065799,-0.033027,0.034275,0.025439,0.0079941,0.0064938,0.025946,-0.058635,-0.036931,0.049961,0.088768,0.21938,0.0616,0.038581,0.02147,-0.0033447,-0.0022023
-0.0096166,0.0261,-0.014525,0.0017338,-0.043652,-0.18335,-0.017118,0.0022303,-0.030478,0.023095,0.020238,0.0045508,0.0032608,0.027347,-0.054085,-0.028095,0.046733,0.10975,0.23564,0.060075,0.035507,0.024153,-0.0024375,0.0082673
-0.010198,0.015917,-0.022652,-0.00013351,-0.039311,-0.20025,-0.0097179,0.0052215,-0.025418,0.01313,0.010861,-0.00030283,-0.0011728,0.024274,-0.049368,-0.017748,0.046018,0.14286,0.25303,0.052678,0.031737,0.025379,-0.001776,0.017363
-0.013143,0.0035836,-0.028591,0.0021707,-0.039177,-0.21486,0.0019576,0.0039134,-0.018114,0.0055219,0.0031087,-0.00053105,-0.0059175,0.019201,-0.042409,-0.011685,0.04647,0.18679,0.26986,0.04101,0.025571,0.024015,-0.00020969,0.02101
-0.017214,-0.0035029,-0.03303,0.0054315,-0.041459,-0.21688,0.016121,0.0015444,-0.010562,0.0019509,0.0025551,0.0062099,-0.010861,0.012267,-0.03275,-0.01167,0.046416,0.24061,0.28225,0.029174,0.015887,0.019881,0.001984,0.019081
-0.020215,-0.0017435,-0.037028,0.0057836,-0.043124,-0.20065,0.027278,0.0011255,-0.005341,0.0035704,0.0096464,0.016977,-0.016564,0.0022404,-0.023232,-0.014771,0.044945,0.30785,0.28744,0.021066,0.0038633,0.013821,0.0031272,0.015157
-0.021015,0.0053155,-0.04108,0.0019497,-0.04238,-0.16998,0.029805,0.0040195,-0.0035446,0.009308,0.018781,0.02616,-0.023093,-0.010215,-0.018303,-0.016254,0.042328,0.39526,0.28594,0.018014,-0.0071419,0.0074954,0.0016638,0.013404
-0.020547,0.0096451,-0.044592,-0.003838,-0.039717,-0.13551,0.022671,0.0094404,-0.0037445,0.015517,0.022524,0.029932,-0.029078,-0.020743,-0.020328,-0.01353,0.039682,0.50631,0.27997,0.018573,-0.013889,0.0027622,-0.0022777,0.015398
-0.020888,0.0053271,-0.04613,-0.0078233,-0.036896,-0.10692,0.010957,0.014918,-0.0031012,0.018027,0.017645,0.028822,-0.032223,-0.023486,-0.027231,-0.0079312,0.038219,0.63506,0.26948,0.020251,-0.015833,0.00079177,-0.0068586,0.019446
-0.023251,-0.0066026,-0.044341,-0.0076726,-0.035093,-0.086621,0.0022902,0.017636,0.00032834,0.015231,0.0078656,0.026632,-0.031024,-0.01581,-0.03364,-0.0030517,0.038536,0.76641,0.24971,0.021336,-0.015531,0.0014789,-0.010041,0.022469
-0.026615,-0.019243,-0.038958,-0.0038586,-0.033939,-0.069835,0.00089239,0.016173,0.0062115,0.009401,0.00082159,0.027049,-0.026196,-0.0013212,-0.034632,-0.0013432,0.040338,0.88362,0.21335,0.021312,-0.016346,0.0036467,-0.011004,0.022441
-0.028232,-0.025763,-0.031138,0.0013726,-0.032155,-0.050227,0.0043722,0.011667,0.012645,0.0047101,0.0016408,0.030969,-0.020481,0.011955,-0.028973,-0.0021119,0.042867,0.97778,0.15633,0.020019,-0.019495,0.0059876,-0.0099721,0.01944
-0.025673,-0.024877,-0.022808,0.0061545,-0.028933,-0.025549,0.0062126,0.0073655,0.018018,0.0035453,0.0085644,0.036458,-0.016913,0.017097,-0.019307,-0.0026446,0.045876,1.0518,0.08252,0.01692,-0.023164,0.0080676,-0.0067742,0.014993
-0.018816,-0.02118,-0.01546,0.010257,-0.024646,0.0016619,0.0019031,0.0065293,0.022075,0.0045055,0.014383,0.040783,-0.016949,0.013027,-0.0094442,-0.0011869,0.050542,1.1162,0.0033787,0.011457,-0.024433,0.010606,-6.9154e-006,0.010907
-0.010237,-0.020436,-0.0092974,0.014528,-0.020361,0.028387,-0.0066635,0.010065,0.025284,0.0040656,0.012561,0.042456,-0.019853,0.0045599,-0.0012571,0.0012979,0.059453,1.1803,-0.067581,0.0040577,-0.022055,0.014794,0.011856,0.0085968
-0.003667,-0.02437,-0.003449,0.019308,-0.016841,0.055883,-0.012474,0.015778,0.027553,0.00038773,0.0029034,0.041743,-0.023551,-0.0020022,0.006172,0.002432,0.075275,1.2449,-0.12127,-0.0034986,-0.017414,0.021187,0.028235,0.0089628
-0.0016638,-0.02963,0.0029559,0.023421,-0.014111,0.09003,-0.0093267,0.019988,0.027975,-0.0043936,-0.0080368,0.039787,-0.026056,-0.0038066,0.014659,0.0014714,0.098672,1.3018,-0.1557,-0.0089397,-0.012908,0.029076,0.045482,0.0122
-0.0041226,-0.031481,0.0097726,0.024764,-0.011894,0.13652,0.0026953,0.020291,0.026012,-0.0057034,-0.01222,0.037568,-0.026466,-0.0028382,0.02424,0.00080935,0.12687,1.3394,-0.17338,-0.010815,-0.0096108,0.036836,0.058663,0.01739
-0.0085533,-0.028446,0.015796,0.022101,-0.010247,0.19469,0.016953,0.017196,0.022731,-0.0005238,-0.0066859,0.035606,-0.02516,-0.0031358,0.032311,0.0040105,0.1542,1.3501,-0.17671,-0.0089523,-0.0066763,0.042941,0.064947,0.02243
-0.011775,-0.023484,0.019764,0.016581,-0.0095939,0.25513,0.025405,0.013364,0.020475,0.0098473,0.0040165,0.034255,-0.023407,-0.0068074,0.035522,0.012013,0.17472,1.334,-0.16555,-0.0036819,-0.0030024,0.046821,0.06563,0.024801
-0.011799,-0.020862,0.021565,0.011572,-0.010127,0.30317,0.024804,0.011298,0.021014,0.020777,0.011497,0.033823,-0.022616,-0.012421,0.032787,0.021329,0.18546,1.2977,-0.13921,0.0051329,0.00080406,0.048899,0.064792,0.022911
-0.0087379,-0.021929,0.022589,0.010598,-0.011328,0.32584,0.018781,0.011596,0.023941,0.02798,0.010177,0.034195,-0.023401,-0.016756,0.02667,0.02647,0.18797,1.2479,-0.1004,0.017951,0.0024496,0.049895,0.06562,0.01702
-0.0043789,-0.023902,0.024815,0.014755,-0.012265,0.31798,0.01427,0.013135,0.027011,0.030485,0.0014392,0.034413,-0.024849,-0.017829,0.021733,0.024709,0.18706,1.1856,-0.056779,0.034235,0.00012751,0.050049,0.067639,0.0090463
-0.00090195,-0.022683,0.029224,0.021644,-0.012471,0.28376,0.015548,0.014615,0.028165,0.030403,-0.0079417,0.032941,-0.024739,-0.016342,0.021164,0.018724,0.18727,1.1046,-0.01809,0.05142,-0.0054012,0.048874,0.067328,0.0014389
0.00038013,-0.0169,0.034748,0.026868,-0.012482,0.2336,0.020972,0.015699,0.027281,0.030229,-0.01144,0.028729,-0.021065,-0.014533,0.024565,0.014389,0.18964,0.99588,0.0090607,0.065682,-0.01116,0.045495,0.0615,-0.0040723
-0.00039008,-0.0093471,0.038636,0.027131,-0.013402,0.1788,0.024969,0.016707,0.025946,0.03053,-0.0075941,0.022295,-0.014058,-0.013862,0.028777,0.015538,0.19105,0.85485,0.024262,0.074308,-0.014657,0.039247,0.05031,-0.0071134
-0.0018773,-0.0045986,0.038185,0.022494,-0.015848,0.12727,0.023205,0.017462,0.025592,0.030102,-0.00018342,0.015781,-0.0069112,-0.013718,0.030889,0.020536,0.18682,0.68772,0.031537,0.077658,-0.016336,0.030132,0.037163,-0.0085449
-0.0024175,-0.0051626,0.032734,0.015979,-0.019307,0.082107,0.016324,0.016798,0.025988,0.027974,0.0058241,0.011699,-0.0040612,-0.012088,0.030697,0.023914,0.17443,0.51139,0.034547,0.078741,-0.019223,0.018975,0.025737,-0.0098231
-0.0010184,-0.0096673,0.02451,0.010932,-0.02255,0.043227,0.0091049,0.013462,0.025635,0.024869,0.008632,0.011206,-0.0078778,-0.0073097,0.030474,0.021559,0.15568,0.34686,0.033297,0.080487,-0.025885,0.0072194,0.016905,-0.012162
0.0020064,-0.014441,0.017516,0.0085296,-0.024632,0.010136,0.0061222,0.0075381,0.023601,0.022646,0.01051,0.013269,-0.016412,0.00068267,0.032491,0.014595,0.13549,0.20971,0.025253,0.083104,-0.035526,-0.0036538,0.0082808,-0.015828
0.0051479,-0.016695,0.01503,0.0075877,-0.025421,-0.016239,0.007943,0.0009017,0.02082,0.022479,0.014855,0.015429,-0.024367,0.010451,0.036642,0.0084242,0.1183,0.10368,0.0093911,0.083966,-0.04404,-0.012961,-0.0033803,-0.019949
0.0066057,-0.016356,0.017371,0.0065977,-0.025131,-0.033889,0.01124,-0.0039098,0.019412,0.023827,0.022432,0.015569,-0.026857,0.020058,0.04029,0.0079411,0.10492,0.021067,-0.011215,0.080205,-0.047132,-0.021407,-0.019158,-0.023118
0.0055304,-0.015242,0.021585,0.0057686,-0.023531,-0.041515,0.012459,-0.0054553,0.020606,0.025176,0.030257,0.013278,-0.023013,0.027969,0.040284,0.013429,0.092273,-0.050985,-0.031104,0.071623,-0.043778,-0.030834,-0.036812,-0.024485
0.002772,-0.014888,0.023477,0.0069567,-0.019908,-0.039804,0.011433,-0.0042117,0.023246,0.025546,0.033972,0.009826,-0.016471,0.033244,0.035302,0.020678,0.076335,-0.12259,-0.046824,0.061183,-0.037051,-0.042998,-0.052176,-0.02454
0.00044893,-0.015279,0.020638,0.011556,-0.014011,-0.030713,0.011509,-0.0018139,0.024352,0.025003,0.031502,0.0069581,-0.012397,0.035242,0.026645,0.024786,0.055836,-0.19635,-0.059567,0.052646,-0.031768,-0.058131,-0.061735,-0.024816
0.00044121,-0.015464,0.014251,0.018532,-0.006905,-0.015319,0.016112,0.00045618,0.021301,0.023685,0.024862,0.00567,-0.01357,0.033427,0.017171,0.02389,0.0337,-0.26746,-0.073196,0.047563,-0.03105,-0.074427,-0.064493,-0.026639
0.0028473,-0.014981,0.0082872,0.024697,-0.00050105,0.0075804,0.025091,0.0025092,0.013775,0.020678,0.018758,0.005929,-0.018669,0.027678,0.0094899,0.019682,0.01496,-0.32729,-0.089357,0.04437,-0.0345,-0.089011,-0.062183,-0.029966
0.0057054,-0.014384,0.0066576,0.027097,0.0041126,0.040333,0.034387,0.0050071,0.0039688,0.014341,0.017295,0.0072803,-0.023798,0.018882,0.0047674,0.014966,0.0028389,-0.36788,-0.10429,0.040269,-0.039038,-0.099714,-0.058103,-0.033352
0.0064268,-0.014285,0.010478,0.025337,0.007902,0.08327,0.039432,0.0083132,-0.0049254,0.0040997,0.021433,0.0094697,-0.025592,0.0092285,0.0026682,0.011162,-0.0037186,-0.38545,-0.11044,0.034,-0.041331,-0.10622,-0.055448,-0.035068
0.003943,-0.014008,0.017508,0.021703,0.013143,0.13207,0.039123,0.011964,-0.010651,-0.0080495,0.028945,0.012389,-0.023316,0.0017806,0.002054,0.0080959,-0.0088648,-0.38182,-0.10176,0.026996,-0.039924,-0.10963,-0.055854,-0.034331
-0.00023119,-0.011407,0.024059,0.019066,0.021058,0.17809,0.036654,0.015072,-0.012907,-0.018114,0.036536,0.015544,-0.01871,-0.0006941,0.0018386,0.005682,-0.01599,-0.36383,-0.078255,0.022142,-0.035914,-0.11095,-0.05865,-0.031543
-0.0031091,-0.0043617,0.027751,0.018558,0.03004,0.21176,0.036453,0.017075,-0.013077,-0.022601,0.042222,0.017862,-0.014358,0.0028995,0.0016279,0.0051564,-0.024565,-0.34062,-0.046378,0.021565,-0.032102,-0.10997,-0.061157,-0.027538
-0.0027684,0.007135,0.028931,0.019071,0.036414,0.22694,0.040057,0.018009,-0.013147,-0.020899,0.046111,0.018334,-0.012185,0.011147,0.0019798,0.0082721,-0.030593,-0.32008,-0.015463,0.025375,-0.031275,-0.10573,-0.060008,-0.022812
-0.00016422,0.020045,0.029793,0.018737,0.03735,0.22333,0.044674,0.018164,-0.014538,-0.015486,0.049244,0.016986,-0.012949,0.020452,0.0041434,0.015275,-0.030417,-0.30632,0.0068485,0.031943,-0.034487,-0.098194,-0.052833,-0.01761
0.0015298,0.029538,0.032136,0.016749,0.03332,0.206,0.045621,0.017655,-0.017348,-0.0098638,0.051796,0.015111,-0.01642,0.026617,0.0092529,0.023908,-0.02451,-0.29952,0.017183,0.038761,-0.040244,-0.089604,-0.039229,-0.01261
-0.00027358,0.031878,0.035643,0.013813,0.027761,0.18274,0.040331,0.016389,-0.020274,-0.0061052,0.052408,0.014275,-0.021589,0.027027,0.01734,0.030717,-0.017723,-0.29812,0.016342,0.042961,-0.045253,-0.083797,-0.020388,-0.0090722
-0.0049656,0.027096,0.037996,0.011063,0.024163,0.16097,0.030471,0.014325,-0.021333,-0.0040732,0.049353,0.014836,-0.026797,0.022199,0.026886,0.033593,-0.015618,-0.30098,0.0078228,0.041714,-0.046509,-0.083771,0.0020431,-0.0078575
-0.0087462,0.019486,0.036565,0.0088416,0.023286,0.14573,0.020621,0.011576,-0.019159,-0.0026556,0.042496,0.015413,-0.030151,0.015628,0.035434,0.03323,-0.020089,-0.30758,-0.0036252,0.033363,-0.043388,-0.089252,0.026496,-0.0080839
-0.0075418,0.015263,0.030245,0.006681,0.023042,0.13882,0.014993,0.008273,-0.014124,-0.0014857,0.034171,0.014051,-0.030378,0.011787,0.040978,0.03217,-0.028188,-0.31627,-0.013092,0.019102,-0.03799,-0.096379,0.050597,-0.0070251
-0.00055105,0.018633,0.020071,0.0044301,0.021048,0.13904,0.014951,0.004571,-0.0083506,-0.0013747,0.027936,0.010232,-0.027588,0.013447,0.043108,0.032381,-0.035109,-0.32306,-0.016598,0.003548,-0.033195,-0.10004,0.069815,-0.0019141
0.0086095,0.028885,0.0083333,0.003158,0.017326,0.14306,0.018903,0.0010703,-0.0043331,-0.003152,0.026045,0.0058896,-0.023231,0.020103,0.042957,0.033643,-0.038493,-0.32289,-0.012184,-0.0072971,-0.02994,-0.097216,0.077663,0.0075948
0.01431,0.040645,-0.0029309,0.0046216,0.014618,0.14704,0.023973,-0.0007367,-0.0030512,-0.0062726,0.027727,0.0043135,-0.019054,0.028584,0.04201,0.034136,-0.040088,-0.31314,-0.00036839,-0.0099341,-0.026232,-0.088873,0.068635,0.018572
0.013046,0.047341,-0.012847,0.0095604,0.01612,0.14836,0.027852,0.0012059,-0.0031645,-0.0087687,0.029783,0.007675,-0.015817,0.035352,0.040812,0.032488,-0.043401,-0.29624,0.016543,-0.0060131,-0.019091,-0.078964,0.042416,0.026708
0.0060101,0.045509,-0.021458,0.016404,0.02285,0.1472,0.029729,0.0081829,-0.0021678,-0.0087355,0.029028,0.015231,-0.012807,0.038747,0.038712,0.029186,-0.049781,-0.27845,0.035813,-0.0010512,-0.0079005,-0.071501,0.0060614,0.029668
-0.0019194,0.036842,-0.02877,0.021833,0.033012,0.14679,0.030292,0.019267,0.0013269,-0.0059704,0.02454,0.02372,-0.008643,0.039574,0.03474,0.025937,-0.056733,-0.26554,0.055194,0.00018126,0.0039776,-0.067939,-0.028354,0.029137
-0.0058352,0.026547,-0.03404,0.023068,0.043713,0.15215,0.031182,0.031178,0.0062121,-0.0021748,0.017939,0.029567,-0.0027477,0.039857,0.028713,0.023645,-0.059994,-0.25873,0.072821,-0.0022683,0.011145,-0.06676,-0.04976,0.029739
-0.0041152,0.019458,-0.035956,0.02012,0.053201,0.16754,0.034112,0.04001,0.0097964,0.00050474,0.011732,0.031017,0.0037096,0.040992,0.021496,0.021042,-0.057345,-0.25442,0.086711,-0.0037557,0.010316,-0.065271,-0.053846,0.035671
0.0010957,0.016969,-0.03352,0.016111,0.061566,0.19405,0.039778,0.04376,0.010273,0.001242,0.0073769,0.028604,0.0083008,0.042864,0.014339,0.015491,-0.050528,-0.2479,0.095038,0.00047303,0.0031355,-0.062048,-0.044584,0.047748
0.0062491,0.016985,-0.026918,0.015228,0.069549,0.22848,0.047095,0.043709,0.00841,0.0009818,0.0046848,0.023997,0.0090146,0.044434,0.0081585,0.0054346,-0.043594,-0.23749,0.097468,0.010566,-0.0048734,-0.058141,-0.030686,0.063077
0.0093691,0.016388,-0.017716,0.019817,0.076954,0.26455,0.053524,0.043419,0.0067451,0.0012468,0.0026164,0.01863,0.0058511,0.045029,0.0035355,-0.0076585,-0.039354,-0.22541,0.096335,0.021488,-0.0084376,-0.056241,-0.019937,0.077196
0.011199,0.013547,-0.0083145,0.02883,0.082413,0.29574,0.056679,0.046034,0.0070013,0.0025319,0.0002749,0.013319,0.0009936,0.045014,0.0012387,-0.019661,-0.037293,-0.21513,0.096001,0.027168,-0.0062956,-0.058495,-0.015457,0.086632
0.013851,0.008807,-0.0010113,0.038735,0.08471,0.31827,0.056211,0.051983,0.0083002,0.003842,-0.0028951,0.0088008,-0.0027185,0.045233,0.0022853,-0.026382,-0.034755,-0.20802,0.10018,0.025551,-0.0015749,-0.06455,-0.015846,0.089983
0.018388,0.0030694,0.0029054,0.045997,0.084238,0.33236,0.054401,0.058901,0.0080544,0.0037546,-0.0073963,0.0061262,-0.003866,0.045767,0.0070297,-0.026382,-0.030041,-0.2027,0.10908,0.020006,0.0012156,-0.071288,-0.017918,0.087417
0.023515,-0.0036397,0.003764,0.049088,0.083014,0.34121,0.054677,0.063745,0.0047156,0.0019019,-0.013442,0.0061962,-0.0033673,0.045225,0.014065,-0.021802,-0.024293,-0.19753,0.11895,0.015986,-0.00020843,-0.074613,-0.019225,0.079885
0.026455,-0.012027,0.0035954,0.048618,0.0831,0.34832,0.059009,0.065262,-0.00041614,-0.000599,-0.019998,0.0088378,-0.0034345,0.041433,0.020368,-0.016612,-0.020371,-0.19333,0.12492,0.016249,-0.0046495,-0.072273,-0.0187,0.069026
0.025232,-0.022107,0.0054348,0.045956,0.084902,0.35524,0.06624,0.06473,-0.0042344,-0.0021723,-0.024281,0.012491,-0.0054699,0.033141,0.023156,-0.013734,-0.019908,-0.19345,0.12518,0.019015,-0.0091187,-0.065752,-0.015895,0.057392
0.020378,-0.032212,0.011818,0.041966,0.086923,0.3614,0.072763,0.06444,-0.0047156,-0.0022594,-0.023044,0.015055,-0.0087933,0.021384,0.022099,-0.013254,-0.021582,-0.20094,0.12308,0.020385,-0.01157,-0.059681,-0.010389,0.047881
0.014633,-0.039686,0.023077,0.037067,0.08719,0.36597,0.075123,0.065353,-0.0027207,-0.00183,-0.015284,0.015304,-0.011376,0.0091507,0.019754,-0.012966,-0.022403,-0.21562,0.12503,0.018311,-0.01229,-0.058853,-0.0021282,0.042168
0.010845,-0.042704,0.036577,0.032209,0.084956,0.36993,0.072503,0.06608,-0.00089566,-0.002473,-0.004101,0.013666,-0.011918,-0.00068614,0.019424,-0.010568,-0.020804,-0.23391,0.1355,0.014265,-0.013156,-0.064878,0.0078829,0.039399
0.009902,-0.041498,0.04773,0.029235,0.081107,0.37589,0.067168,0.064036,-0.00089089,-0.0049749,0.0045287,0.011703,-0.011312,-0.0076609,0.02204,-0.0056454,-0.018461,-0.25144,0.15315,0.011324,-0.015897,-0.075016,0.017655,0.036669
0.01052,-0.03778,0.052446,0.029727,0.076981,0.38532,0.062581,0.057749,-0.0018486,-0.0087232,0.0058299,0.010759,-0.01207,-0.014214,0.024852,4.4994e-005,-0.018871,-0.2661,0.17119,0.010926,-0.020943,-0.0842,0.025288,0.031288
0.011116,-0.032988,0.049454,0.033129,0.072911,0.39519,0.060721,0.04827,-0.0016961,-0.012396,0.00010641,0.010938,-0.016166,-0.023708,0.023311,0.0039723,-0.023931,-0.27884,0.18218,0.011582,-0.027452,-0.088676,0.030161,0.023022
0.012013,-0.027088,0.040824,0.036101,0.067947,0.39717,0.060659,0.038533,0.00025618,-0.01512,-0.0069952,0.011211,-0.023236,-0.037399,0.014761,0.0046012,-0.031758,-0.29193,0.18331,0.010599,-0.033969,-0.088317,0.033142,0.01422
0.015716,-0.01915,0.030317,0.034235,0.060976,0.3813,0.059401,0.031288,0.0023088,-0.016926,-0.0084918,0.010439,-0.030742,-0.052913,0.00083481,0.002171,-0.038006,-0.3067,0.17805,0.0068425,-0.039026,-0.085801,0.035606,0.0076574
0.024609,-0.0091845,0.020837,0.025185,0.051986,0.34201,0.054223,0.027337,0.0021111,-0.018197,-0.0013595,0.0083851,-0.035935,-0.06567,-0.013508,-0.0018434,-0.039615,-0.32282,0.17274,0.0017765,-0.041584,-0.083602,0.038185,0.0040265
0.037912,0.00055513,0.012918,0.010764,0.04215,0.28248,0.044751,0.025394,-0.00070223,-0.018961,0.011123,0.0058977,-0.037856,-0.072159,-0.023467,-0.0058318,-0.037608,-0.33942,0.17106,-0.0020705,-0.041581,-0.081599,0.040352,0.0013796
0.050765,0.0062267,0.0052201,-0.0038382,0.032751,0.2136,0.03332,0.023451,-0.0038515,-0.018986,0.02188,0.0042318,-0.037704,-0.07234,-0.027508,-0.0087586,-0.036352,-0.35662,0.17093,-0.003491,-0.040368,-0.077385,0.041129,-0.0030142
0.056765,0.0047976,-0.0036106,-0.013326,0.024195,0.14812,0.023461,0.02038,-0.004546,-0.018591,0.025329,0.0041276,-0.037482,-0.069172,-0.027665,-0.010178,-0.03988,-0.37594,0.16645,-0.0035195,-0.040325,-0.068767,0.040115,-0.01019
0.052251,-0.0036184,-0.013367,-0.015675,0.016244,0.093866,0.017626,0.016554,-0.0022694,-0.019068,0.021207,0.0053447,-0.038286,-0.065804,-0.027156,-0.0099541,-0.048525,-0.39935,0.15295,-0.0042543,-0.04336,-0.056029,0.037799,-0.018688
0.03891,-0.015421,-0.022187,-0.013192,0.0090958,0.0509,0.015666,0.013203,0.00065319,-0.021853,0.014121,0.0068813,-0.039732,-0.062982,-0.027649,-0.0081768,-0.058788,-0.42784,0.13109,-0.0069872,-0.049189,-0.041952,0.03489,-0.026132
0.022504,-0.025659,-0.027802,-0.010601,0.0038918,0.013998,0.01507,0.01123,0.0013152,-0.027011,0.009604,0.0076043,-0.040735,-0.058863,-0.028463,-0.005318,-0.06648,-0.46037,0.10676,-0.011406,-0.055011,-0.029857,0.031385,-0.031723
0.0087687,-0.031161,-0.029014,-0.01172,0.0017749,-0.02198,0.012848,0.010506,-0.00096502,-0.032615,0.010111,0.006846,-0.040591,-0.051125,-0.028039,-0.0022991,-0.070303,-0.49369,0.087157,-0.016248,-0.057309,-0.021615,0.026393,-0.037461
-0.00010163,-0.032317,-0.026278,-0.017101,0.0023102,-0.058312,0.0079119,0.010091,-0.0040925,-0.036026,0.013966,0.0046822,-0.039252,-0.039267,-0.026016,-0.00021439,-0.072822,-0.5234,0.076341,-0.020403,-0.05458,-0.017225,0.019016,-0.047078
-0.0056381,-0.032078,-0.021191,-0.024108,0.0030598,-0.092596,0.0022917,0.0090767,-0.0053645,-0.036196,0.01749,0.0018308,-0.036738,-0.025075,-0.023999,0.00017163,-0.078111,-0.54629,0.073376,-0.023427,-0.048672,-0.015782,0.0095165,-0.063501
-0.010273,-0.032957,-0.015429,-0.02908,0.0011593,-0.1217,0.00011567,0.0072171,-0.0040812,-0.034872,0.018037,-0.00073076,-0.032598,-0.011141,-0.024542,-0.0012124,-0.088308,-0.56357,0.07375,-0.025505,-0.043395,-0.016446,-0.00037771,-0.086744
-0.014422,-0.034494,-0.0099281,-0.029898,-0.0042884,-0.14431,0.0046897,0.004836,-0.0019655,-0.035329,0.015495,-0.0022516,-0.026257,0.00085891,-0.029372,-0.0037889,-0.10212,-0.58285,0.072496,-0.027401,-0.041534,-0.018491,-0.0085055,-0.1137
-0.016192,-0.033416,-0.0046501,-0.02719,-0.011236,-0.16095,0.015612,0.0022236,-0.0010887,-0.039516,0.011648,-0.0025529,-0.018018,0.010509,-0.038275,-0.0067378,-0.11652,-0.61643,0.066728,-0.030488,-0.042848,-0.020879,-0.013881,-0.13989
-0.013739,-0.026536,0.0010865,-0.02349,-0.016237,-0.17248,0.028246,-0.0007103,-0.001568,-0.046149,0.0086318,-0.0020374,-0.009573,0.017607,-0.049233,-0.0094591,-0.1299,-0.67512,0.056432,-0.036269,-0.044805,-0.022336,-0.017498,-0.16191
-0.0077629,-0.013997,0.0079565,-0.021119,-0.0173,-0.17892,0.036397,-0.0040225,-0.0014685,-0.051605,0.0079482,-0.0013725,-0.0032066,0.021165,-0.059415,-0.011754,-0.14374,-0.76104,0.043722,-0.04519,-0.045181,-0.022138,-0.021508,-0.17871
-0.0016189,4.4554e-005,0.015893,-0.020454,-0.01554,-0.18005,0.03648,-0.0069599,0.00099603,-0.052995,0.010274,-0.0010991,-9.9504e-005,0.019736,-0.066342,-0.013599,-0.16105,-0.86454,0.031476,-0.055657,-0.044022,-0.020711,-0.027333,-0.1906
0.0011488,0.010196,0.023611,-0.019911,-0.014147,-0.17676,0.029992,-0.0078606,0.0052922,-0.050713,0.015333,-0.0014493,0.00078035,0.012832,-0.068771,-0.014739,-0.18298,-0.96872,0.022078,-0.064589,-0.043172,-0.019192,-0.034272,-0.19677
-0.00042918,0.013913,0.02882,-0.017659,-0.015606,-0.17119,0.02216,-0.0053129,0.0087628,-0.048134,0.021437,-0.0024086,0.0020078,0.0019779,-0.067107,-0.014519,-0.20681,-1.0591,0.016659,-0.069566,-0.044059,-0.018246,-0.039841,-0.19353
-0.0041522,0.01343,0.029334,-0.013609,-0.019586,-0.16555,0.017772,0.00017221,0.0091203,-0.048599,0.025389,-0.0037951,0.005599,-0.0097504,-0.063142,-0.012274,-0.2273,-1.1317,0.014933,-0.070845,-0.04606,-0.017381,-0.041656,-0.17561
-0.0066413,0.013761,0.024633,-0.0098855,-0.023231,-0.16058,0.017636,0.0056226,0.0068076,-0.052289,0.023778,-0.0051662,0.011276,-0.019422,-0.059054,-0.0080793,-0.24065,-1.1935,0.015597,-0.071229,-0.047072,-0.015572,-0.039333,-0.14061
-0.0060284,0.018421,0.01677,-0.0092057,-0.023426,-0.15568,0.018593,0.0071937,0.0048667,-0.055755,0.015425,-0.0056964,0.01679,-0.025752,-0.056094,-0.003144,-0.2473,-1.2558,0.017039,-0.073564,-0.045632,-0.012572,-0.034801,-0.093391
-0.0030296,0.026591,0.0096571,-0.012441,-0.019102,-0.15039,0.016875,0.0029928,0.0063755,-0.054559,0.0031542,-0.004387,0.02021,-0.029209,-0.053875,0.00072682,-0.25116,-1.3247,0.017938,-0.078032,-0.042391,-0.0094334,-0.030738,-0.046496
0.00025081,0.03417,0.0068201,-0.017506,-0.011902,-0.14592,0.011609,-0.0051542,0.011844,-0.04684,-0.0071618,-0.00073911,0.022139,-0.030837,-0.050978,0.002456,-0.25563,-1.397,0.017468,-0.081805,-0.039515,-0.0075393,-0.028503,-0.014842
0.0023933,0.037584,0.0090585,-0.020729,-0.0050575,-0.14467,0.0053154,-0.012707,0.018909,-0.03481,-0.010347,0.0045098,0.025608,-0.030971,-0.046539,0.0027372,-0.26038,-1.4634,0.015142,-0.08152,-0.038667,-0.0070599,-0.027332,-0.0076518
0.0036743,0.036744,0.013844,-0.019688,-0.0015895,-0.14818,0.0011836,-0.015617,0.024389,-0.023018,-0.0059065,0.0092554,0.033383,-0.029046,-0.041475,0.0036936,-0.26173,-1.515,0.010632,-0.076366,-0.039574,-0.0065556,-0.025507,-0.023264
0.0053171,0.034496,0.017137,-0.015153,-0.0029377,-0.1554,-2.8598e-005,-0.013199,0.026588,-0.014904,0.0010671,0.010822,0.044907,-0.024584,-0.038122,0.0071335,-0.25655,-1.549,0.0038303,-0.068916,-0.040487,-0.0044044,-0.022426,-0.050616
0.0079671,0.033371,0.016387,-0.010426,-0.008485,-0.16307,-0.00043911,-0.008319,0.025793,-0.010504,0.0032588,0.0072945,0.055761,-0.018399,-0.038386,0.012767,-0.24592,-1.5687,-0.0049034,-0.062941,-0.039891,-0.00081127,-0.019708,-0.076099
0.010928,0.033045,0.012376,-0.0085834,-0.015874,-0.16826,-0.0025468,-0.0048049,0.02296,-0.0069616,-0.0035434,-0.0014425,0.060478,-0.012784,-0.041942,0.018052,-0.23493,-1.5801,-0.014585,-0.060212,-0.037772,0.0017023,-0.020323,-0.090494
0.012805,0.031034,0.0083808,-0.0099701,-0.021951,-0.17085,-0.0064483,-0.0043641,0.018366,-0.001132,-0.017283,-0.013542,0.056566,-0.010264,-0.046149,0.020051,-0.22864,-1.5876,-0.023739,-0.059217,-0.035337,0.00020935,-0.026522,-0.091324
0.012851,0.025768,0.0073046,-0.012103,-0.024159,-0.17369,-0.009648,-0.0055775,0.011812,0.0080297,-0.031184,-0.025899,0.046359,-0.011742,-0.047885,0.017801,-0.2277,-1.5908,-0.030779,-0.056885,-0.033709,-0.0057275,-0.03837,-0.080336
0.011735,0.018793,0.0091417,-0.012046,-0.021873,-0.18024,-0.0096971,-0.0056513,0.0040314,0.019051,-0.038796,-0.03524,0.035135,-0.015519,-0.045828,0.013121,-0.22787,-1.5856,-0.034403,-0.05171,-0.032898,-0.012793,-0.054118,-0.059842
0.011039,0.013773,0.010945,-0.0091612,-0.01689,-0.19178,-0.0070452,-0.0032058,-0.0025171,0.029385,-0.038528,-0.039147,0.027148,-0.018252,-0.0413,0.0090531,-0.22371,-1.5666,-0.033843,-0.045447,-0.031887,-0.015726,-0.071911,-0.031575
0.011865,0.01326,0.0093533,-0.005781,-0.012556,-0.20654,-0.0052302,0.00037658,-0.0047751,0.037167,-0.034207,-0.036812,0.02296,-0.017429,-0.037042,0.007318,-0.21341,-1.5302,-0.02894,-0.041916,-0.029463,-0.011005,-0.091056,0.0017536
0.01371,0.016404,0.003583,-0.0051709,-0.011873,-0.22148,-0.0080961,0.0021147,-0.0014525,0.041894,-0.031548,-0.029404,0.020086,-0.01356,-0.035044,0.0070369,-0.20037,-1.4758,-0.020191,-0.043949,-0.024975,0.00054924,-0.11143,0.034969
0.014572,0.019787,-0.0036758,-0.0085331,-0.015721,-0.23488,-0.0166,-4.9952e-005,0.0054841,0.043855,-0.033637,-0.019827,0.015918,-0.010126,-0.035219,0.0058007,-0.19051,-1.4064,-0.0088626,-0.050977,-0.018559,0.014434,-0.13135,0.061393
0.012381,0.020498,-0.0082779,-0.013707,-0.022365,-0.2474,-0.028174,-0.0055867,0.011758,0.043192,-0.039024,-0.011696,0.010065,-0.010956,-0.035796,0.0019975,-0.18769,-1.3269,0.002848,-0.059149,-0.010992,0.025886,-0.14587,0.075636
0.00683,0.018469,-0.0079708,-0.016764,-0.028586,-0.26057,-0.039206,-0.011887,0.01363,0.039485,-0.043555,-0.0077507,0.0041404,-0.016899,-0.034818,-0.0037479,-0.19128,-1.2428,0.011831,-0.063824,-0.003471,0.033285,-0.1477,0.075611
0.00021817,0.016005,-0.0043236,-0.015186,-0.031701,-0.2742,-0.048252,-0.016348,0.010423,0.032089,-0.044023,-0.0085128,-0.00031342,-0.024652,-0.031404,-0.0092145,-0.19753,-1.1599,0.014648,-0.062555,0.0027009,0.038866,-0.13091,0.062275
-0.0035728,0.015175,-0.0015775,-0.0098934,-0.031198,-0.28509,-0.056937,-0.018197,0.0047478,0.020858,-0.040511,-0.012109,-0.0034411,-0.029057,-0.02594,-0.012538,-0.20306,-1.0839,0.0087996,-0.056513,0.0066452,0.04634,-0.095476,0.038236
-0.0015593,0.015675,-0.0032277,-0.0044038,-0.028935,-0.28856,-0.06769,-0.018635,0.00035063,0.0067534,-0.035813,-0.015525,-0.0066431,-0.027247,-0.019446,-0.013614,-0.20713,-1.0193,-0.0058511,-0.04951,0.0084682,0.057569,-0.049085,0.0072981
0.0060422,0.015121,-0.0090275,-0.001898,-0.027771,-0.2813,-0.08049,-0.019457,-0.00059696,-0.0080604,-0.032845,-0.01652,-0.010717,-0.021166,-0.012905,-0.013758,-0.21093,-0.96785,-0.026611,-0.045447,0.0093579,0.070922,-0.0044074,-0.024864
0.01551,0.011359,-0.014893,-0.0027571,-0.029454,-0.2636,-0.091859,-0.021492,0.0013337,-0.020803,-0.032392,-0.014897,-0.014607,-0.01615,-0.0070292,-0.014125,-0.21507,-0.92696,-0.04929,-0.045926,0.010953,0.082399,0.027153,-0.051048
0.021865,0.0046198,-0.015962,-0.0046246,-0.033187,-0.23914,-0.097318,-0.024177,0.0038549,-0.02924,-0.032854,-0.012276,-0.016117,-0.016662,-0.002324,-0.01447,-0.21794,-0.88958,-0.070818,-0.049552,0.014358,0.088353,0.041235,-0.065567
0.022277,-0.0023404,-0.010524,-0.0047355,-0.035984,-0.21284,-0.095305,-0.026412,0.0050259,-0.032809,-0.031846,-0.010679,-0.013977,-0.022832,0.00096892,-0.013435,-0.21654,-0.84572,-0.09118,-0.053197,0.019554,0.087639,0.041947,-0.06853
0.018111,-0.0060427,-0.0016928,-0.0023068,-0.034775,-0.18856,-0.089005,-0.027739,0.0045545,-0.032894,-0.02809,-0.011084,-0.0093041,-0.030766,0.0031397,-0.010078,-0.20903,-0.78435,-0.11269,-0.054237,0.025585,0.08188,0.038057,-0.067331
0.013881,-0.0043918,0.004653,0.0010663,-0.028873,-0.16807,-0.084201,-0.028743,0.0034689,-0.031831,-0.022159,-0.01299,-0.0050029,-0.036211,0.0051377,-0.0051514,-0.19641,-0.69499,-0.13659,-0.052189,0.031237,0.074047,0.03682,-0.072766
0.013757,0.0025074,0.0042251,0.0030865,-0.020893,-0.15164,-0.084764,-0.030379,0.0027986,-0.031257,-0.015763,-0.015133,-0.0035108,-0.038187,0.0081817,-0.0008088,-0.18179,-0.56949,-0.1594,-0.048697,0.035593,0.06666,0.039873,-0.091815
0.018276,0.013053,-0.002407,0.0027294,-0.015138,-0.13946,-0.089582,-0.032889,0.0026187,-0.031099,-0.010378,-0.016591,-0.0047684,-0.039474,0.012923,0.0011756,-0.16771,-0.40502,-0.17245,-0.04606,0.038166,0.06074,0.043686,-0.12262
0.023939,0.025359,-0.010271,0.00071596,-0.014461,-0.13258,-0.093592,-0.035308,0.0022257,-0.030092,-0.0063569,-0.017399,-0.006167,-0.043804,0.018737,0.0011018,-0.15404,-0.20715,-0.16567,-0.045478,0.038857,0.05591,0.043423,-0.15578
0.026069,0.037887,-0.013869,-0.001677,-0.018074,-0.13291,-0.09201,-0.036048,0.0010298,-0.027392,-0.0031275,-0.018317,-0.004569,-0.052537,0.023775,0.0012399,-0.13819,0.0097148,-0.13365,-0.046296,0.038016,0.051266,0.036691,-0.18099
0.022619,0.04929,-0.011396,-0.0040298,-0.022274,-0.14193,-0.084084,-0.034128,-0.00085685,-0.023754,-0.00018223,-0.020092,0.0012345,-0.063648,0.025974,0.0037285,-0.11762,0.2265,-0.079772,-0.046697,0.036499,0.046377,0.024415,-0.1935
0.015824,0.058043,-0.0058926,-0.0069433,-0.023728,-0.15905,-0.073207,-0.030084,-0.0028981,-0.021135,0.0020331,-0.022775,0.0096078,-0.07349,0.024523,0.0082307,-0.092306,0.42699,-0.015423,-0.045217,0.035413,0.041803,0.0088814,-0.19589
0.010399,0.062467,-0.0024601,-0.010899,-0.022578,-0.18077,-0.063593,-0.025809,-0.0048585,-0.021059,0.0022106,-0.025563,0.017359,-0.079358,0.02086,0.011638,-0.065221,0.60368,0.04515,-0.041996,0.035501,0.038831,-0.0086395,-0.19476
0.0099347,0.061186,-0.0039115,-0.015135,-0.022516,-0.20174,-0.056745,-0.023435,-0.0070817,-0.023357,-0.00063448,-0.02722,0.022068,-0.080664,0.018404,0.010486,-0.040424,0.7578,0.091089,-0.038909,0.036693,0.03857,-0.028346,-0.19609
0.014492,0.053669,-0.0084692,-0.017843,-0.027476,-0.21742,-0.050914,-0.024116,-0.0099381,-0.026504,-0.0057535,-0.026875,0.023538,-0.078277,0.020853,0.0042223,-0.020648,0.89403,0.1186,-0.038534,0.03833,0.041046,-0.050153,-0.20287
0.021148,0.040609,-0.011323,-0.01767,-0.037684,-0.22662,-0.043722,-0.027599,-0.013015,-0.02914,-0.010333,-0.024696,0.023367,-0.073299,0.029881,-0.0036009,-0.0063567,1.0146,0.1305,-0.042604,0.039947,0.045102,-0.071554,-0.21525
0.026567,0.024118,-0.0085988,-0.015151,-0.048673,-0.23187,-0.035101,-0.03276,-0.015018,-0.031109,-0.010881,-0.021946,0.023325,-0.066656,0.043648,-0.0075967,0.0032431,1.118,0.13278,-0.05091,0.041884,0.049381,-0.087217,-0.23099
0.029069,0.0076393,-0.00037481,-0.012622,-0.05443,-0.23714,-0.027615,-0.038442,-0.0147,-0.032862,-0.0055847,-0.020222,0.024093,-0.059554,0.05732,-0.0046424,0.0086798,1.2028,0.1307,-0.061436,0.045104,0.053705,-0.090926,-0.24485
0.028614,-0.0047616,0.0096093,-0.012473,-0.052173,-0.24456,-0.023988,-0.043828,-0.012012,-0.033892,0.0041035,-0.02035,0.025292,-0.053723,0.065603,0.0035421,0.0098872,1.2724,0.12662,-0.071744,0.050371,0.059565,-0.07855,-0.24805
0.025414,-0.0099126,0.017025,-0.015079,-0.044659,-0.25305,-0.024482,-0.048165,-0.0083028,-0.032052,0.013987,-0.021783,0.02635,-0.050675,0.065795,0.011541,0.0072623,1.3358,0.12027,-0.0808,0.057561,0.068945,-0.049951,-0.23033
0.019195,-0.0072767,0.020052,-0.018193,-0.037944,-0.25979,-0.026769,-0.050452,-0.0052231,-0.024794,0.019552,-0.023093,0.027085,-0.05042,0.059322,0.014217,0.0026629,1.4024,0.11055,-0.089883,0.065693,0.082208,-0.0086189,-0.18477
0.010194,0.00036548,0.020026,-0.018498,-0.036505,-0.26319,-0.028285,-0.049768,-0.0033138,-0.011365,0.018594,-0.0232,0.027523,-0.050984,0.050609,0.010295,-0.0011205,1.475,0.097339,-0.10172,0.073531,0.096822,0.040596,-0.1119
0.00070106,0.0082232,0.01948,-0.014248,-0.039918,-0.26432,-0.028523,-0.046144,-0.0016813,0.0061935,0.012196,-0.022323,0.027514,-0.049486,0.044052,0.0028246,-0.002224,1.5458,0.082055,-0.11831,0.08011,0.10828,0.094049,-0.01972
-0.0050471,0.012253,0.019638,-0.0069479,-0.043874,-0.26554,-0.02888,-0.041111,0.00085923,0.024311,0.0035021,-0.0218,0.026948,-0.044113,0.04126,-0.0035398,-0.0011341,1.5995,0.0668,-0.13901,0.084758,0.11271,0.15046,0.081084
-0.003438,0.011456,0.019657,-0.00060419,-0.044445,-0.26753,-0.030318,-0.037119,0.0042926,0.040269,-0.0046151,-0.022965,0.026437,-0.03535,0.040518,-0.0059679,-0.00014356,1.6218,0.05306,-0.16053,0.086753,0.10905,0.20977,0.18261
0.0053132,0.0079404,0.018101,0.0010925,-0.041675,-0.2678,-0.031436,-0.036039,0.0071116,0.05341,-0.0112,-0.026092,0.027438,-0.025425,0.038673,-0.0049061,-0.0011855,1.6089,0.041161,-0.17891,0.085122,0.099056,0.27005,0.2811
0.016322,0.004783,0.015065,-0.0024302,-0.039371,-0.26233,-0.029172,-0.037987,0.0076156,0.0641,-0.017107,-0.030284,0.031152,-0.016504,0.033839,-0.0028409,-0.0040006,1.5722,0.031001,-0.19185,0.078911,0.085364,0.32415,0.37323
0.022883,0.0035493,0.012807,-0.0080856,-0.0414,-0.24906,-0.021726,-0.041568,0.0055847,0.071769,-0.023516,-0.034273,0.036979,-0.009252,0.026775,-0.0019021,-0.0062476,1.5359,0.023456,-0.19949,0.067876,0.06959,0.35858,0.45137
0.021117,0.0035483,0.014138,-0.011445,-0.047933,-0.23031,-0.010994,-0.045347,0.0026973,0.074418,-0.030432,-0.037272,0.042298,-0.0029872,0.019999,-0.0024446,-0.0051993,1.5278,0.021299,-0.20285,0.05319,0.052429,0.35652,0.50316
0.012739,0.0031725,0.019874,-0.01019,-0.054955,-0.21179,-0.0020789,-0.04908,0.0012624,0.070527,-0.036402,-0.039157,0.044356,0.0029019,0.01554,-0.0034876,0.00089624,1.5689,0.02879,-0.20134,0.037707,0.035364,0.30494,0.51681
0.0036015,0.00174,0.027565,-0.0059018,-0.057411,-0.19881,6.6247e-006,-0.053417,0.0024443,0.061624,-0.039541,-0.03997,0.042869,0.0077832,0.013264,-0.0041491,0.013206,1.6655,0.049977,-0.1916,0.025323,0.021779,0.20282,0.4883
-0.00085808,-4.6301e-005,0.032773,-0.0026464,-0.053161,-0.19286,-0.006042,-0.058363,0.0055626,0.05264,-0.038932,-0.039401,0.040709,0.010068,0.011139,-0.0045625,0.033829,1.8079,0.086489,-0.16894,0.019385,0.015611,0.065391,0.42459
0.00041146,-0.0013355,0.032068,-0.0034977,-0.0444,-0.19112,-0.016675,-0.062224,0.0089256,0.048952,-0.035219,-0.036801,0.041444,0.0087321,0.0071623,-0.0055521,0.066401,1.9759,0.13592,-0.13036,0.02077,0.018215,-0.079377,0.34068
0.0037935,-0.0025605,0.02547,-0.0079928,-0.035559,-0.18913,-0.02565,-0.062462,0.011208,0.052221,-0.030054,-0.031728,0.045595,0.0046178,0.001273,-0.0076201,0.11453,2.1472,0.19166,-0.076822,0.026869,0.026302,-0.20195,0.25305
0.0043954,-0.0053444,0.016418,-0.012746,-0.029714,-0.1842,-0.027976,-0.057932,0.012055,0.05868,-0.025023,-0.024547,0.049177,0.00019513,-0.004341,-0.01034,0.17913,2.3067,0.24458,-0.012953,0.032625,0.033343,-0.28418,0.17459
0.00010677,-0.010759,0.0092726,-0.014638,-0.026567,-0.17666,-0.022975,-0.05034,0.011591,0.061677,-0.021065,-0.016617,0.046478,-0.0021582,-0.0067429,-0.012705,0.25695,2.4497,0.2859,0.055573,0.033481,0.033824,-0.32638,0.11327
-0.0070074,-0.01762,0.0062753,-0.013653,-0.023429,-0.16831,-0.014569,-0.043219,0.0097213,0.056569,-0.01874,-0.0098955,0.035118,-0.0019552,-0.0042204,-0.014009,0.3419,2.5792,0.30998,0.12465,0.028467,0.02697,-0.3435,0.073493
-0.012853,-0.022688,0.0062864,-0.012722,-0.017983,-0.15969,-0.0087127,-0.039085,0.0062038,0.043942,-0.018797,-0.0060994,0.018966,-0.00095319,0.0028842,-0.014416,0.42772,2.6986,0.3155,0.19219,0.021014,0.016734,-0.35303,0.057162
-0.014871,-0.022974,0.0061344,-0.014712,-0.010308,-0.14902,-0.0096536,-0.03737,0.0014566,0.028563,-0.02216,-0.0058095,0.0059644,-0.0017465,0.012928,-0.014699,0.50966,2.8036,0.30473,0.25614,0.016508,0.007994,-0.36286,0.063619
-0.013935,-0.018263,0.0033508,-0.019348,-0.0026156,-0.13379,-0.017437,-0.035156,-0.0029507,0.015294,-0.02908,-0.0080081,0.0022671,-0.0057215,0.024286,-0.015456,0.58374,2.8792,0.28174,0.31246,0.018064,0.0021994,-0.36746,0.089221
-0.013226,-0.011558,-0.0019228,-0.022972,0.002715,-0.1134,-0.028265,-0.030105,-0.0050342,0.005723,-0.03821,-0.010491,0.0075056,-0.011943,0.035901,-0.016468,0.64491,2.9037,0.25094,0.35537,0.023709,-0.0038996,-0.35473,0.12788
-0.01538,-0.0068465,-0.0072325,-0.021517,0.004946,-0.090466,-0.037449,-0.022827,-0.0040123,-0.0017363,-0.046665,-0.01114,0.015185,-0.017666,0.046793,-0.016757,0.68691,2.8591,0.2167,0.38047,0.027315,-0.01555,-0.31749,0.17226
-0.020496,-0.0059743,-0.0098702,-0.014143,0.0051801,-0.0693,-0.042819,-0.016431,-0.0013471,-0.0089463,-0.05142,-0.0093625,0.017879,-0.019858,0.055541,-0.015313,0.70485,2.7397,0.18321,0.38808,0.022736,-0.035802,-0.26074,0.21455
-0.026423,-0.0073944,-0.0089824,-0.0043859,0.0050556,-0.053109,-0.046008,-0.013757,1.9124e-006,-0.015584,-0.051146,-0.0065807,0.012829,-0.01649,0.060731,-0.012029,0.69866,2.5543,0.15376,0.38356,0.0081144,-0.063267,-0.19919,0.24673
-0.030683,-0.0079959,-0.0062146,0.0022341,0.0052495,-0.042167,-0.050601,-0.015009,-0.0022001,-0.019579,-0.047076,-0.0051992,0.0033679,-0.0068842,0.062153,-0.0082177,0.67383,2.3192,0.12965,0.37362,-0.012858,-0.093226,-0.14777,0.26163
-0.032119,-0.0064618,-0.0046406,0.0021826,0.00504,-0.034436,-0.058689,-0.017966,-0.0075091,-0.019821,-0.042147,-0.0066315,-0.0046556,0.0086169,0.061369,-0.0062635,0.63808,2.0473,0.10973,0.36147,-0.033425,-0.12057,-0.11235,0.25554
-0.031093,-0.0050244,-0.0068823,-0.003721,0.0031261,-0.027704,-0.068761,-0.020341,-0.012833,-0.018133,-0.039046,-0.0099504,-0.0080038,0.028958,0.060695,-0.0083846,0.59619,1.7422,0.09158,0.345,-0.047876,-0.14187,-0.087513,0.23102
-0.02859,-0.007713,-0.013605,-0.01128,-0.0011447,-0.021096,-0.076814,-0.021741,-0.014593,-0.018286,-0.038629,-0.012407,-0.008226,0.052319,0.061219,-0.014965,0.54742,1.4029,0.073519,0.31971,-0.054187,-0.15532,-0.061943,0.19706
-0.025412,-0.016354,-0.023093,-0.016221,-0.0071811,-0.014806,-0.079705,-0.023311,-0.011381,-0.022754,-0.039778,-0.011562,-0.0093426,0.076053,0.061695,-0.023419,0.48809,1.0357,0.055844,0.28417,-0.053666,-0.15953,-0.026761,0.16521
-0.022166,-0.027911,-0.031994,-0.017083,-0.013544,-0.0088796,-0.077781,-0.02563,-0.0050499,-0.03025,-0.040541,-0.0073322,-0.013589,0.097106,0.059539,-0.028636,0.4175,0.66288,0.040267,0.243,-0.0486,-0.15307,0.019259,0.14378
-0.019628,-0.03598,-0.036927,-0.01559,-0.018836,-0.0027385,-0.074457,-0.027256,0.00054713,-0.036469,-0.039453,-0.0021869,-0.019306,0.11284,0.053197,-0.025445,0.342,0.31726,0.02827,0.20457,-0.040217,-0.1356,0.070322,0.13453
-0.018688,-0.035713,-0.036312,-0.014596,-0.022312,0.0039368,-0.073258,-0.025623,0.0021204,-0.037522,-0.036037,0.00075286,-0.022791,0.12168,0.043808,-0.012176,0.27339,0.02618,0.019991,0.17502,-0.028501,-0.10942,0.11834,0.13404
-0.019692,-0.028159,-0.031476,-0.015588,-0.023866,0.010086,-0.075088,-0.019488,-0.0011477,-0.033122,-0.030425,0.00016399,-0.022143,0.12314,0.034676,0.0068546,0.22212,-0.20288,0.014461,0.1537,-0.013568,-0.07969,0.15767,0.138
-0.02189,-0.020053,-0.026114,-0.017763,-0.023689,0.013486,-0.078151,-0.010551,-0.0075578,-0.026801,-0.022806,-0.0025115,-0.019354,0.11742,0.029056,0.022219,0.19045,-0.3809,0.010548,0.13386,0.003013,-0.052573,0.18673,0.14408
-0.023768,-0.018758,-0.024078,-0.01917,-0.022058,0.012502,-0.080282,-0.0025473,-0.014365,-0.023076,-0.013402,-0.0043744,-0.01871,0.10532,0.028216,0.024085,0.17128,-0.51939,0.0075775,0.1083,0.018292,-0.032383,0.20622,0.15074
-0.024172,-0.026352,-0.026759,-0.018663,-0.019344,0.0078604,-0.081193,0.0014307,-0.019397,-0.024026,-0.0029377,-0.0035161,-0.023041,0.088587,0.031238,0.0083244,0.15376,-0.61112,0.005472,0.075322,0.029434,-0.019826,0.21611,0.15404
-0.023263,-0.037888,-0.032034,-0.016891,-0.015948,0.0027311,-0.08233,0.0010585,-0.021695,-0.028024,0.0070698,-0.00052652,-0.031316,0.070244,0.03629,-0.020196,0.13174,-0.62832,0.0051009,0.040269,0.035415,-0.012476,0.21425,0.14685
-0.022354,-0.045443,-0.035785,-0.015599,-0.011956,0.00096377,-0.084551,-0.0013829,-0.021165,-0.03137,0.014753,0.0021859,-0.039713,0.053862,0.041837,-0.050162,0.10816,-0.54367,0.0090337,0.011687,0.037543,-0.0069524,0.19785,0.1227
-0.022661,-0.044643,-0.034985,-0.016055,-0.0068612,0.0050719,-0.08607,-0.0030366,-0.017997,-0.031145,0.018908,0.0026151,-0.045038,0.041914,0.04677,-0.071126,0.092186,-0.35873,0.021546,-0.0048004,0.038356,-0.0011182,0.16682,0.081582
-0.024072,-0.038107,-0.029904,-0.018058,0.00014933,0.015649,-0.082958,-0.0024128,-0.012538,-0.026976,0.019743,0.00094156,-0.047381,0.034343,0.049861,-0.0805,0.09115,-0.11615,0.046486,-0.010199,0.039672,0.0050522,0.12623,0.032098
-0.025067,-0.032944,-0.023689,-0.020333,0.0093229,0.032326,-0.072108,0.00028516,-0.0055529,-0.020653,0.018636,-0.00069644,-0.049738,0.028796,0.049704,-0.084681,0.10401,0.11627,0.083422,-0.011174,0.041215,0.010052,0.085344,-0.013022
-0.023949,-0.034576,-0.01979,-0.021778,0.019669,0.054798,-0.054152,0.0042446,0.0016957,-0.014461,0.016958,-0.00021712,-0.055197,0.022666,0.045569,-0.092995,0.1214,0.27907,0.12497,-0.015784,0.040822,0.012031,0.053261,-0.045156
-0.020353,-0.042277,-0.019487,-0.022302,0.029365,0.082524,-0.033699,0.0090921,0.0079173,-0.0097805,0.014913,0.0024631,-0.064277,0.015441,0.038259,-0.10895,0.13199,0.34768,0.15862,-0.029224,0.036113,0.0097654,0.034141,-0.065092
-0.015711,-0.050157,-0.021511,-0.022589,0.037183,0.11342,-0.016523,0.014851,0.01254,-0.0068172,0.011399,0.005368,-0.074611,0.0093189,0.029802,-0.12597,0.1299,0.33454,0.17336,-0.051952,0.026443,0.0031474,0.02573,-0.080855
-0.012212,-0.052412,-0.023683,-0.023197,0.043737,0.14332,-0.0058922,0.021147,0.016071,-0.0051002,0.0051478,0.0063498,-0.082868,0.0074173,0.021954,-0.13141,0.11724,0.27022,0.16742,-0.080228,0.013729,-0.0067098,0.02252,-0.099887
-0.011113,-0.048069,-0.024853,-0.023967,0.051185,0.16745,-0.00091151,0.026831,0.019665,-0.0039666,-0.0037177,0.0051432,-0.086991,0.01092,0.014852,-0.11603,0.10053,0.18212,0.15084,-0.1078,0.0014563,-0.017722,0.020925,-0.12241
-0.011815,-0.041192,-0.025425,-0.024231,0.061345,0.1832,0.0020918,0.030621,0.024128,-0.0027365,-0.013014,0.0036074,-0.08701,0.017444,0.0071362,-0.081432,0.084535,0.086675,0.14009,-0.12786,-0.0075138,-0.027555,0.02191,-0.14179
-0.012501,-0.03684,-0.026378,-0.023422,0.073732,0.19162,0.0065977,0.032133,0.02909,-0.00086818,-0.019432,0.003887,-0.08433,0.021873,-0.0025272,-0.039627,0.069008,-0.0053291,0.14716,-0.13523,-0.012823,-0.034642,0.028741,-0.15167
-0.011805,-0.036778,-0.027986,-0.021395,0.085384,0.1961,0.013838,0.032148,0.033029,0.0016731,-0.02056,0.0062435,-0.080701,0.018924,-0.014054,-0.0051272,0.050353,-0.083362,0.17056,-0.12862,-0.016699,-0.03889,0.042175,-0.15335
-0.010069,-0.038786,-0.029468,-0.01832,0.092891,0.19884,0.022967,0.031802,0.034226,0.0041486,-0.016557,0.0086689,-0.077846,0.0055285,-0.026044,0.013956,0.026137,-0.1415,0.19491,-0.11177,-0.021998,-0.041456,0.05803,-0.15679
-0.0090751,-0.039756,-0.029636,-0.01454,0.095018,0.19845,0.032686,0.031543,0.032075,0.0054145,-0.010193,0.0086949,-0.077475,-0.018324,-0.03723,0.019266,-0.0019375,-0.18811,0.19995,-0.092026,-0.029557,-0.043621,0.069879,-0.1736
-0.010428,-0.039289,-0.027769,-0.010781,0.093669,0.19086,0.04251,0.031027,0.027762,0.0049178,-0.0051257,0.0056884,-0.080821,-0.050083,-0.047758,0.018271,-0.028939,-0.24691,0.17292,-0.076471,-0.036986,-0.04561,0.074506,-0.2074
-0.013967,-0.040336,-0.023953,-0.0083942,0.092264,0.17313,0.05264,0.030042,0.023642,0.0035064,-0.003533,0.0014306,-0.087586,-0.0854,-0.058959,0.017119,-0.050171,-0.34181,0.11566,-0.067964,-0.040163,-0.046336,0.07476,-0.24958
-0.017627,-0.046536,-0.018913,-0.0090032,0.092891,0.14697,0.062938,0.029388,0.021554,0.0031234,-0.0047455,-0.0015695,-0.095344,-0.11861,-0.071864,0.016054,-0.063808,-0.4742,0.041996,-0.064069,-0.036626,-0.0443,0.076874,-0.28413
-0.018996,-0.058969,-0.013754,-0.013432,0.094677,0.11904,0.072315,0.030531,0.021223,0.005339,-0.0057643,-0.0024018,-0.10049,-0.14347,-0.085967,0.010141,-0.070482,-0.61181,-0.031796,-0.059847,-0.028236,-0.038937,0.084744,-0.29821
-0.017332,-0.075327,-0.0098948,-0.020669,0.094818,0.097597,0.079239,0.034209,0.020126,0.0098104,-0.003243,-0.0024822,-0.10047,-0.15494,-0.099526,-0.0065135,-0.070606,-0.70085,-0.09549,-0.052212,-0.020746,-0.031315,0.09676,-0.29032
-0.014301,-0.091883,-0.0089352,-0.027951,0.091341,0.088051,0.082885,0.039383,0.015251,0.014057,0.0044538,-0.0039789,-0.095423,-0.15154,-0.11111,-0.036952,-0.06226,-0.69422,-0.14651,-0.042135,-0.020141,-0.023709,0.10809,-0.27001
-0.012724,-0.10612,-0.012123,-0.032239,0.085167,0.090746,0.083851,0.04381,0.0056544,0.014982,0.016401,-0.0074248,-0.087764,-0.13662,-0.1208,-0.080352,-0.041831,-0.57523,-0.18503,-0.032872,-0.028321,-0.018457,0.11572,-0.24965
-0.014291,-0.11761,-0.019493,-0.032191,0.079603,0.10206,0.083822,0.04586,-0.0061416,0.011142,0.029789,-0.010767,-0.079903,-0.11671,-0.1298,-0.1332,-0.0070069,-0.36059,-0.20877,-0.025972,-0.041441,-0.016954,0.12074,-0.23524
-0.018146,-0.12688,-0.029263,-0.029116,0.07768,0.11748,0.084478,0.04581,-0.01527,0.0040516,0.041444,-0.010776,-0.072295,-0.097753,-0.1386,-0.19061,0.040517,-0.084317,-0.21322,-0.018821,-0.052322,-0.019274,0.12568,-0.22378
-0.021548,-0.13391,-0.03812,-0.026108,0.079645,0.13416,0.086445,0.045264,-0.017597,-0.0025316,0.049182,-0.0056068,-0.063752,-0.081606,-0.14543,-0.24663,0.095101,0.22155,-0.19713,-0.0060967,-0.055217,-0.024355,0.13,-0.20867
-0.022079,-0.13786,-0.042521,-0.025917,0.082841,0.15139,0.088935,0.045244,-0.01256,-0.0048895,0.052419,0.0036407,-0.053748,-0.066068,-0.1467,-0.29459,0.15013,0.53409,-0.16765,0.016044,-0.049442,-0.030363,0.1293,-0.18776
-0.019524,-0.13828,-0.040447,-0.029068,0.084062,0.16936,0.090162,0.044987,-0.003543,-0.0016118,0.052049,0.013571,-0.044402,-0.048386,-0.13959,-0.32845,0.20141,0.83334,-0.13922,0.046517,-0.039397,-0.035121,0.11955,-0.16658
-0.015872,-0.13623,-0.032669,-0.033544,0.082247,0.18751,0.088254,0.042851,0.0046123,0.0056844,0.049849,0.020638,-0.039963,-0.02932,-0.12498,-0.34526,0.24788,1.094,-0.12632,0.079319,-0.031342,-0.036783,0.10207,-0.15405
-0.013528,-0.134,-0.02269,-0.036173,0.079078,0.20366,0.082244,0.038454,0.0091227,0.013521,0.047663,0.023001,-0.043949,-0.013947,-0.10838,-0.34639,0.28899,1.2861,-0.13592,0.10669,-0.029485,-0.034686,0.083695,-0.15464
-0.013317,-0.13351,-0.015117,-0.034687,0.076978,0.21439,0.072743,0.033682,0.011092,0.018631,0.04655,0.020808,-0.056367,-0.0081166,-0.097654,-0.33582,0.32107,1.3861,-0.1657,0.12283,-0.033942,-0.029834,0.070949,-0.16425
-0.013972,-0.13464,-0.013106,-0.029015,0.076437,0.2164,0.061933,0.031201,0.014223,0.019497,0.046319,0.015051,-0.073427,-0.013411,-0.098478,-0.31626,0.33651,1.3874,-0.2089,0.12568,-0.041349,-0.024323,0.063834,-0.17296
-0.013443,-0.13501,-0.016353,-0.021046,0.075242,0.20819,0.05273,0.031706,0.021441,0.016572,0.045881,0.0061899,-0.08991,-0.024994,-0.11054,-0.28651,0.32734,1.302,-0.2603,0.11655,-0.047089,-0.019732,0.055394,-0.17167
-0.010781,-0.13135,-0.021145,-0.013194,0.070394,0.1913,0.047407,0.032734,0.032172,0.011482,0.044412,-0.0063087,-0.10206,-0.034377,-0.12718,-0.2433,0.29079,1.151,-0.31771,0.098628,-0.047645,-0.015624,0.038214,-0.15671
-0.0069595,-0.1217,-0.022847,-0.0069653,0.061007,0.17017,0.046379,0.030547,0.042503,0.0060483,0.042504,-0.023159,-0.10864,-0.034956,-0.13911,-0.18712,0.2322,0.95216,-0.37815,0.075775,-0.042056,-0.0096436,0.012236,-0.12954
-0.003931,-0.10689,-0.019372,-0.0025491,0.049555,0.15028,0.047959,0.0236,0.048147,0.0017326,0.0422,-0.043704,-0.10989,-0.025974,-0.14003,-0.12701,0.16216,0.71184,-0.43392,0.051544,-0.032127,0.0004283,-0.013068,-0.093812
-0.0027675,-0.090335,-0.013012,0.00044583,0.040323,0.13536,0.049334,0.014291,0.047775,-0.00055933,0.045542,-0.064721,-0.10592,-0.012095,-0.13042,-0.07914,0.090044,0.42798,-0.4738,0.028079,-0.021301,0.014164,-0.024077,-0.053726
-0.0025058,-0.076134,-0.0089137,0.0019984,0.036353,0.12549,0.048228,0.0071782,0.043921,-0.00064235,0.052673,-0.08079,-0.096482,0.00051573,-0.11694,-0.058227,0.018918,0.10045,-0.48962,0.0051788,-0.012559,0.02787,-0.011312,-0.014826
-0.00073357,-0.066754,-0.011071,0.0015126,0.037368,0.1175,0.044174,0.0051379,0.040682,0.00075973,0.06119,-0.086784,-0.082051,0.008179,-0.10788,-0.067417,-0.053554,-0.25728,-0.48261,-0.019404,-0.0064421,0.036944,0.025837,0.015579
0.0044955,-0.061756,-0.018929,-0.0012726,0.04018,0.10782,0.038557,0.0070035,0.0402,0.0021002,0.067562,-0.081551,-0.064808,0.011029,-0.10774,-0.094359,-0.12938,-0.61336,-0.46363,-0.047941,-0.00074293,0.03968,0.080433,0.031158
0.012964,-0.058451,-0.02753,-0.0052139,0.041006,0.09553,0.033365,0.0088607,0.041045,0.0015952,0.069573,-0.070192,-0.048015,0.011557,-0.11473,-0.11724,-0.20502,-0.92532,-0.44661,-0.080202,0.0074987,0.03927,0.14245,0.031252
0.022238,-0.053999,-0.031306,-0.0078054,0.037831,0.083109,0.029587,0.0077181,0.039942,-0.0019353,0.067646,-0.062217,-0.034131,0.012336,-0.12246,-0.11699,-0.27165,-1.159,-0.44052,-0.11261,0.018976,0.04186,0.20192,0.022992
0.029353,-0.047363,-0.028507,-0.006695,0.031271,0.074124,0.026465,0.0040364,0.035215,-0.0085396,0.063832,-0.065362,-0.02338,0.014807,-0.12448,-0.087208,-0.32092,-1.3086,-0.44612,-0.14024,0.030649,0.051779,0.24921,0.017799
0.032886,-0.039636,-0.022585,-0.001587,0.023694,0.069709,0.022285,0.00079224,0.028641,-0.017268,0.059415,-0.078765,-0.01415,0.019413,-0.11827,-0.035579,-0.35099,-1.4019,-0.45945,-0.16035,0.037484,0.067787,0.27493,0.024566
0.033705,-0.032577,-0.019354,0.0051696,0.017496,0.067024,0.016162,0.00018025,0.023838,-0.026741,0.053522,-0.091115,-0.0047944,0.026202,-0.10615,0.022835,-0.36752,-1.484,-0.47797,-0.17445,0.03632,0.083728,0.27194,0.045516
0.033851,-0.02673,-0.022281,0.010049,0.01367,0.06133,0.0094312,0.0013256,0.022635,-0.035631,0.044264,-0.086761,0.0049395,0.035097,-0.092984,0.074537,-0.3789,-1.5856,-0.50383,-0.18716,0.028664,0.093347,0.23929,0.078679
0.034611,-0.02087,-0.029809,0.010836,0.011408,0.050114,0.0053266,0.0012604,0.022994,-0.042769,0.031453,-0.056607,0.014244,0.045901,-0.082816,0.11282,-0.39016,-1.6988,-0.54156,-0.20253,0.019938,0.09529,0.18449,0.12471
0.035539,-0.013326,-0.036778,0.0081013,0.0088408,0.035678,0.0069228,-0.0019213,0.020702,-0.047192,0.018253,-0.0059655,0.022905,0.058492,-0.076535,0.13766,-0.40074,-1.7805,-0.59242,-0.22091,0.015806,0.093918,0.12157,0.19146
0.035264,-0.0039708,-0.038534,0.0044182,0.0044334,0.02372,0.014731,-0.0069912,0.013432,-0.048569,0.0098113,0.047137,0.032482,0.073197,-0.071894,0.15287,-0.4071,-1.783,-0.65029,-0.23872,0.018846,0.095113,0.065487,0.29133
0.033221,0.0050702,-0.03426,0.0020218,-0.0018706,0.018937,0.025844,-0.010692,0.00329,-0.048016,0.0096423,0.082757,0.04571,0.090709,-0.065262,0.16377,-0.40683,-1.6893,-0.70212,-0.25117,0.028391,0.10074,0.026762,0.43294
0.030571,0.010833,-0.027024,0.00098511,-0.0085954,0.021375,0.03551,-0.010858,-0.0048036,-0.048613,0.016746,0.091235,0.064645,0.11111,-0.05387,0.17649,-0.4002,-1.5265,-0.73306,-0.25556,0.043104,0.10667,0.0092109,0.61326
0.029362,0.012001,-0.021013,-0.000488,-0.013898,0.026644,0.040194,-0.0083794,-0.0076,-0.054773,0.026078,0.077849,0.089506,0.13252,-0.037384,0.1972,-0.38858,-1.347,-0.73319,-0.25267,0.063129,0.1061,0.010703,0.81605
0.030675,0.010343,-0.018526,-0.0039703,-0.017055,0.029682,0.039943,-0.0060851,-0.0067238,-0.070266,0.03226,0.056932,0.11946,0.15074,-0.018181,0.23002,-0.37244,-1.1953,-0.70246,-0.24551,0.089137,0.095139,0.02468,1.0171
0.033531,0.0098182,-0.019014,-0.0088844,-0.019003,0.028625,0.038252,-0.0058095,-0.0075209,-0.095801,0.033581,0.040673,0.15447,0.16066,-0.00018845,0.27384,-0.35156,-1.0874,-0.65071,-0.23695,0.11912,0.075709,0.041236,1.1923
0.035649,0.013968,-0.020325,-0.012572,-0.021419,0.025459,0.039489,-0.0066939,-0.014539,-0.12767,0.032918,0.031484,0.19572,0.15886,0.013231,0.32067,-0.32713,-1.0159,-0.59227,-0.22791,0.1466,0.053456,0.048946,1.3224
0.035432,0.023584,-0.020559,-0.012376,-0.025236,0.023276,0.045772,-0.0064318,-0.027769,-0.15857,0.034701,0.023106,0.24322,0.14548,0.021238,0.35766,-0.30256,-0.96987,-0.53749,-0.21723,0.16307,0.032936,0.038915,1.3948
0.033382,0.03631,-0.018966,-0.0079102,-0.03006,0.023085,0.055617,-0.0040966,-0.042993,-0.18054,0.040365,0.0080325,0.29203,0.12386,0.025974,0.37302,-0.28149,-0.9463,-0.48626,-0.20269,0.16351,0.014658,0.0096193,1.4014
0.031626,0.048333,-0.015628,-0.0015305,-0.03506,0.02325,0.065208,-0.0015851,-0.055678,-0.1885,0.046221,-0.015869,0.3311,0.098619,0.030964,0.36273,-0.26441,-0.94402,-0.42868,-0.18224,0.15048,-0.0035402,-0.03159,1.3384
0.031955,0.056843,-0.010815,0.0033318,-0.040267,0.021745,0.071059,-0.0021546,-0.06466,-0.1826,0.045822,-0.044804,0.34728,0.073715,0.038412,0.33343,-0.24743,-0.94929,-0.3538,-0.15491,0.13304,-0.022479,-0.073195,1.2087
0.034133,0.061672,-0.0048126,0.0044597,-0.04668,0.01859,0.071859,-0.0074855,-0.072359,-0.16796,0.035209,-0.073531,0.33324,0.052303,0.047403,0.2989,-0.22489,-0.93321,-0.26085,-0.12124,0.12123,-0.038984,-0.10798,1.0244
0.036004,0.065259,0.001775,0.0019008,-0.054788,0.015819,0.068271,-0.016159,-0.08171,-0.1519,0.016788,-0.099286,0.2934,0.037613,0.054424,0.27171,-0.19342,-0.86721,-0.16456,-0.083521,0.1203,-0.047075,-0.13842,0.80841
0.035358,0.07113,0.0078552,-0.0027049,-0.063026,0.015068,0.06137,-0.025002,-0.09297,-0.14008,-0.0015149,-0.12089,0.24295,0.033033,0.055779,0.25594,-0.15386,-0.74323,-0.088811,-0.045472,0.12891,-0.041877,-0.17362,0.58982
0.03191,0.081833,0.012218,-0.0074389,-0.068117,0.015461,0.051519,-0.03194,-0.10333,-0.1338,-0.011461,-0.13447,0.19936,0.040352,0.049913,0.24647,-0.10909,-0.57834,-0.052216,-0.011262,0.14168,-0.022908,-0.21961,0.39583
0.027712,0.097478,0.014247,-0.010807,-0.067542,0.014192,0.038722,-0.037627,-0.1094,-0.12991,-0.010095,-0.13149,0.17241,0.057476,0.037902,0.23575,-0.060438,-0.39846,-0.055367,0.016152,0.15304,0.0057167,-0.2712,0.24265
0.025625,0.1158,0.014379,-0.011735,-0.062064,0.0093384,0.023788,-0.044384,-0.10993,-0.12374,-0.001469,-0.10306,0.1601,0.078213,0.022136,0.22235,-0.006398,-0.21651,-0.079254,0.036466,0.15917,0.037818,-0.31299,0.1308
0.027198,0.13388,0.013883,-0.009706,-0.055753,0.0020101,0.0087661,-0.053562,-0.10641,-0.11272,0.006458,-0.048315,0.15343,0.095188,0.0047351,0.21388,0.054802,-0.026443,-0.095984,0.052261,0.15766,0.068067,-0.32943,0.047173
0.03168,0.15057,0.014038,-0.0054464,-0.053079,-0.0044978,-0.0040927,-0.063824,-0.10106,-0.09845,0.0067013,0.020462,0.14572,0.1039,-0.01294,0.22118,0.12123,0.18019,-0.08409,0.067527,0.14689,0.093253,-0.31576,-0.027358
0.036843,0.16775,0.015228,-0.0013223,-0.055416,-0.0078249,-0.01388,-0.071883,-0.094393,-0.085302,-0.0041608,0.08156,0.13849,0.10449,-0.029747,0.24817,0.18592,0.39074,-0.038166,0.08516,0.12662,0.11175,-0.28085,-0.10895
0.040695,0.18906,0.016595,-0.00031152,-0.060098,-0.008803,-0.02147,-0.075018,-0.084506,-0.076832,-0.026963,0.1152,0.13905,0.099602,-0.044419,0.28572,0.23971,0.56391,0.032089,0.10488,0.099272,0.12252,-0.24,-0.20432
0.042551,0.21642,0.016617,-0.0037779,-0.062909,-0.010472,-0.028249,-0.073249,-0.068634,-0.07275,-0.061932,0.1147,0.15256,0.090467,-0.056168,0.31497,0.27587,0.64728,0.1103,0.12299,0.069751,0.12497,-0.20442,-0.30832
0.042707,0.2469,0.014299,-0.0099598,-0.061796,-0.014725,-0.034299,-0.069431,-0.045701,-0.068979,-0.10823,0.089419,0.17612,0.075068,-0.065607,0.31766,0.29265,0.6072,0.18207,0.13423,0.043029,0.11951,-0.17658,-0.40538
0.041404,0.27289,0.010184,-0.014993,-0.058467,-0.019931,-0.037852,-0.067285,-0.017838,-0.060667,-0.16081,0.057855,0.20042,0.050164,-0.074715,0.28635,0.29199,0.44795,0.23884,0.13481,0.021094,0.10806,-0.15471,-0.47522
0.038373,0.2864,0.0062778,-0.016067,-0.056563,-0.022018,-0.036691,-0.068836,0.01017,-0.045559,-0.20828,0.036267,0.2172,0.015261,-0.085398,0.22789,0.27641,0.20706,0.27713,0.12485,0.0019005,0.093693,-0.14148,-0.50282
0.033553,0.28484,0.0047738,-0.014026,-0.058214,-0.018148,-0.030336,-0.073098,0.033041,-0.025011,-0.23612,0.030897,0.22559,-0.025427,-0.097715,0.15949,0.24727,-0.066891,0.29638,0.10879,-0.018613,0.079363,-0.14813,-0.49007
0.028206,0.27409,0.0064045,-0.012823,-0.062178,-0.0095315,-0.021035,-0.076846,0.04725,-0.0022096,-0.23482,0.037892,0.23106,-0.064973,-0.10934,0.10093,0.20577,-0.33592,0.29809,0.093284,-0.043124,0.066821,-0.18983,-0.46213
0.025036,0.26577,0.0097331,-0.016011,-0.065117,-0.00069116,-0.012582,-0.076885,0.052033,0.020274,-0.2075,0.048914,0.23805,-0.097867,-0.1167,0.067191,0.15486,-0.57999,0.28582,0.083554,-0.071003,0.056182,-0.27528,-0.46051
0.026691,0.2705,0.012057,-0.023269,-0.064666,0.0041518,-0.0078374,-0.072241,0.048866,0.041133,-0.17004,0.057016,0.24312,-0.12259,-0.11678,0.06386,0.099488,-0.79073,0.26438,0.080222,-0.099242,0.046425,-0.39793,-0.52242
0.033615,0.29167,0.011312,-0.030156,-0.061473,0.0043178,-0.0069172,-0.064756,0.040184,0.058738,-0.14213,0.058784,0.23559,-0.14072,-0.10796,0.085955,0.044464,-0.96249,0.23756,0.078623,-0.12496,0.0364,-0.53493,-0.65746
0.043104,0.32421,0.0074762,-0.031474,-0.058494,0.0027874,-0.0074359,-0.057682,0.02843,0.069273,-0.13504,0.052943,0.20561,-0.1542,-0.08968,0.12121,-0.0080206,-1.0907,0.20582,0.071441,-0.14686,0.02584,-0.65406,-0.8389
0.050649,0.35901,0.0023579,-0.025433,-0.058419,0.0034214,-0.0065287,-0.053357,0.015816,0.067079,-0.14517,0.03856,0.15326,-0.16363,-0.061939,0.15758,-0.058818,-1.1771,0.16605,0.053298,-0.16427,0.01591,-0.72522,-1.019
0.052782,0.38899,-0.0020625,-0.015155,-0.061528,0.0079429,-0.0030932,-0.051721,0.0043697,0.04775,-0.15795,0.015531,0.090569,-0.16904,-0.025755,0.19173,-0.10981,-1.2351,0.11402,0.024248,-0.17508,0.0089275,-0.73134,-1.1599
0.049217,0.41193,-0.005315,-0.0063704,-0.065681,0.015108,0.0013241,-0.050868,-0.0043834,0.011985,-0.1589,-0.012917,0.034478,-0.17151,0.015628,0.23234,-0.16144,-1.2851,0.048126,-0.010423,-0.17517,0.0072285,-0.67442,-1.2567
0.042579,0.42825,-0.0087262,-0.003338,-0.068137,0.0222,0.003495,-0.049129,-0.010061,-0.03284,-0.143,-0.038541,-0.0038732,-0.17323,0.056443,0.29404,-0.21203,-1.3432,-0.028245,-0.044057,-0.16068,0.011636,-0.57423,-1.3339
0.036009,0.43622,-0.014047,-0.0062261,-0.067532,0.027067,0.00061106,-0.046871,-0.013662,-0.075086,-0.11578,-0.050052,-0.025271,-0.17564,0.090311,0.38471,-0.25898,-1.4088,-0.10705,-0.073114,-0.13187,0.020504,-0.45972,-1.4172
0.030783,0.42965,-0.021563,-0.011678,-0.06459,0.029024,-0.007791,-0.046356,-0.016774,-0.1042,-0.086829,-0.038952,-0.039743,-0.17781,0.11368,0.49558,-0.30011,-1.4652,-0.17828,-0.098558,-0.095128,0.030185,-0.3565,-1.5034
0.025959,0.40056,-0.029322,-0.015654,-0.061412,0.028463,-0.019218,-0.049686,-0.020126,-0.11585,-0.062077,-0.0061312,-0.057983,-0.17708,0.12817,0.60267,-0.33368,-1.491,-0.23306,-0.12294,-0.061058,0.036881,-0.27698,-1.5562
0.020084,0.34526,-0.034224,-0.016132,-0.060184,0.026211,-0.029382,-0.056602,-0.022777,-0.11357,-0.041248,0.035397,-0.083937,-0.17172,0.13952,0.67974,-0.35728,-1.4785,-0.26583,-0.14577,-0.039162,0.038703,-0.2188,-1.5326
0.013047,0.26858,-0.034254,-0.013885,-0.06216,0.023419,-0.034647,-0.064162,-0.022887,-0.10573,-0.021242,0.06465,-0.11365,-0.16262,0.15336,0.71276,-0.36747,-1.4407,-0.27516,-0.1616,-0.032632,0.036391,-0.17207,-1.4179
0.0061137,0.18276,-0.030118,-0.011279,-0.067186,0.021748,-0.034384,-0.06874,-0.019612,-0.099641,-0.0010205,0.062598,-0.13984,-0.152,0.17086,0.70485,-0.36121,-1.4009,-0.26397,-0.16284,-0.036707,0.032116,-0.1296,-1.2396
0.00014702,0.10132,-0.024988,-0.010379,-0.073738,0.02316,-0.031566,-0.0687,-0.014416,-0.096545,0.016895,0.022598,-0.15747,-0.14011,0.18776,0.66868,-0.33818,-1.3708,-0.23912,-0.14554,-0.041707,0.027419,-0.092026,-1.0458
-0.0059442,0.032703,-0.022496,-0.011659,-0.079508,0.029052,-0.030837,-0.065458,-0.010348,-0.090987,0.029102,-0.045094,-0.16612,-0.12346,0.19779,0.61387,-0.30203,-1.3351,-0.20991,-0.113,-0.038724,0.022174,-0.064475,-0.86904
-0.014562,-0.022123,-0.024446,-0.013842,-0.082533,0.039368,-0.035109,-0.062029,-0.0096504,-0.075158,0.034749,-0.11816,-0.1686,-0.09728,0.19767,0.54071,-0.25909,-1.2575,-0.18496,-0.074395,-0.024513,0.015564,-0.048647,-0.70541
-0.026778,-0.067048,-0.029857,-0.01473,-0.082371,0.052483,-0.043185,-0.060382,-0.011722,-0.045385,0.03599,-0.174,-0.1684,-0.060418,0.18966,0.44476,-0.21559,-1.1083,-0.16871,-0.039107,-0.0029249,0.0080298,-0.037991,-0.52983
-0.04015,-0.10622,-0.035828,-0.012537,-0.080359,0.066083,-0.050468,-0.059945,-0.013431,-0.006158,0.035221,-0.20134,-0.1682,-0.018235,0.17938,0.32708,-0.17534,-0.89187,-0.15998,-0.011478,0.017515,0.001983,-0.020721,-0.33057
-0.04942,-0.14126,-0.039376,-0.0071652,-0.07843,0.078419,-0.052482,-0.058531,-0.011772,0.031462,0.032262,-0.20464,-0.16969,0.0198,0.17107,0.20009,-0.1396,-0.65298,-0.15444,0.010105,0.028173,8.5951e-005,0.011838,-0.13067
-0.050084,-0.17165,-0.038931,-0.00064254,-0.077204,0.088986,-0.048566,-0.054676,-0.006649,0.056261,0.024643,-0.19864,-0.17325,0.046306,0.16436,0.08361,-0.10869,-0.45273,-0.14933,0.029564,0.024487,0.0024414,0.058707,0.024799
-0.042055,-0.19659,-0.034771,0.0038354,-0.075109,0.098189,-0.042763,-0.049142,-0.0012472,0.063698,0.0108,-0.19735,-0.17713,0.060807,0.15555,-0.0062151,-0.083922,-0.33318,-0.14637,0.048385,0.0077197,0.0055372,0.11003,0.10384
-0.030267,-0.21594,-0.02859,0.004006,-0.069675,0.10632,-0.041199,-0.044217,0.00052784,0.058193,-0.0071373,-0.20473,-0.17742,0.068994,0.14211,-0.066555,-0.068341,-0.29686,-0.14961,0.063719,-0.016301,0.0045562,0.15447,0.11203
-0.021483,-0.22954,-0.022743,0.00038575,-0.060189,0.11278,-0.048052,-0.041566,-0.0026285,0.049137,-0.024038,-0.21293,-0.17009,0.077219,0.12613,-0.10935,-0.065776,-0.3154,-0.15956,0.070454,-0.040453,-0.0024829,0.18718,0.084264
-0.019727,-0.23624,-0.019435,-0.0038008,-0.049278,0.1162,-0.063129,-0.040804,-0.0083508,0.043493,-0.035634,-0.2085,-0.15437,0.087224,0.11341,-0.15361,-0.079006,-0.35666,-0.16936,0.065092,-0.059595,-0.012356,0.2124,0.05276
-0.023936,-0.23437,-0.019844,-0.0050047,-0.041598,0.11554,-0.082397,-0.04019,-0.012883,0.040471,-0.042109,-0.18158,-0.13473,0.095613,0.10877,-0.21382,-0.10804,-0.40515,-0.16767,0.048182,-0.072035,-0.018456,0.23894,0.0226
-0.02952,-0.22356,-0.023342,-0.0023874,-0.040342,0.11143,-0.10035,-0.038704,-0.014737,0.032216,-0.048042,-0.132,-0.11903,0.098002,0.11145,-0.29171,-0.14929,-0.46008,-0.14735,0.023816,-0.078652,-0.015677,0.27243,-0.02356
-0.032279,-0.20605,-0.027418,0.0011242,-0.044504,0.10649,-0.11219,-0.037349,-0.016373,0.0099307,-0.058648,-0.06887,-0.11373,0.093497,0.11477,-0.37632,-0.19597,-0.51838,-0.11239,-0.0027843,-0.080829,-0.0045121,0.30993,-0.099601
-0.031344,-0.18596,-0.028771,0.0010551,-0.049387,0.10422,-0.1148,-0.038248,-0.022192,-0.029193,-0.075583,-0.0047468,-0.11966,0.085246,0.11045,-0.45183,-0.2395,-0.56385,-0.076245,-0.027427,-0.079097,0.0088642,0.34052,-0.19735
-0.028914,-0.16679,-0.025288,-0.0046495,-0.050083,0.10694,-0.1073,-0.042267,-0.034431,-0.079347,-0.095874,0.051239,-0.13176,0.076967,0.094279,-0.50746,-0.27176,-0.57561,-0.051558,-0.047614,-0.073611,0.016452,0.35138,-0.29452
-0.027473,-0.1491,-0.01766,-0.013249,-0.045002,0.11407,-0.091533,-0.047477,-0.050538,-0.12941,-0.11467,0.096869,-0.14296,0.069288,0.069226,-0.54238,-0.28758,-0.54751,-0.040042,-0.062107,-0.065743,0.013135,0.33515,-0.37965
-0.027263,-0.13055,-0.0093206,-0.018747,-0.036574,0.12223,-0.072322,-0.050071,-0.064417,-0.1693,-0.12912,0.13535,-0.14876,0.059656,0.043811,-0.56232,-0.28664,-0.49761,-0.031999,-0.070594,-0.058858,-0.0010511,0.29406,-0.46588
-0.026275,-0.10825,-0.0044691,-0.016409,-0.028899,0.12732,-0.055922,-0.047158,-0.070671,-0.19436,-0.13996,0.17051,-0.14922,0.045651,0.027299,-0.57173,-0.27382,-0.45612,-0.016882,-0.074022,-0.056927,-0.022082,0.23816,-0.57621
-0.022538,-0.081605,-0.0053713,-0.0066494,-0.024717,0.12742,-0.046858,-0.03909,-0.06839,-0.20515,-0.14959,0.20226,-0.14711,0.027955,0.024785,-0.5691,-0.2573,-0.44208,0.0043243,-0.075115,-0.061765,-0.044967,0.17918,-0.71201
-0.016342,-0.053465,-0.010829,0.0050078,-0.024211,0.12419,-0.04502,-0.02933,-0.061452,-0.20365,-0.15887,0.22526,-0.14485,0.0096224,0.034839,-0.55057,-0.24494,-0.45089,0.016821,-0.078086,-0.071299,-0.066316,0.12421,-0.83538
-0.010239,-0.02865,-0.016961,0.011976,-0.026048,0.12182,-0.045684,-0.021994,-0.055201,-0.1902,-0.16589,0.23184,-0.14286,-0.0076742,0.050588,-0.51845,-0.24076,-0.46459,0.0032327,-0.087184,-0.080701,-0.085222,0.073732,-0.88507
-0.006831,-0.01117,-0.01979,0.01141,-0.029006,0.12409,-0.043028,-0.019114,-0.052243,-0.16372,-0.16778,0.21736,-0.14051,-0.026348,0.063407,-0.48573,-0.24362,-0.47446,-0.040731,-0.10469,-0.085765,-0.10273,0.025542,-0.8152
-0.0064963,-0.0022939,-0.01783,0.0059584,-0.032486,0.13174,-0.034626,-0.019793,-0.050678,-0.12462,-0.16394,0.18502,-0.13797,-0.051226,0.067349,-0.47038,-0.24909,-0.49277,-0.10008,-0.12957,-0.085811,-0.12073,-0.018646,-0.62571
-0.0071755,-0.0007551,-0.012863,0.0012613,-0.035908,0.1421,-0.02321,-0.021703,-0.045923,-0.076924,-0.15715,0.14694,-0.13679,-0.084563,0.062116,-0.48344,-0.25317,-0.54103,-0.14985,-0.15769,-0.083737,-0.1408,-0.049457,-0.36075
-0.0063884,-0.004515,-0.0084474,0.0014582,-0.038261,0.15104,-0.014117,-0.02346,-0.034479,-0.027104,-0.15135,0.11979,-0.13857,-0.12243,0.052934,-0.52206,-0.25483,-0.62487,-0.17232,-0.18355,-0.083415,-0.16318,-0.053097,-0.080087
-0.0035835,-0.012316,-0.0072949,0.0063471,-0.038655,0.1555,-0.010558,-0.025844,-0.016633,0.019519,-0.14786,0.11657,-0.14318,-0.1563,0.047221,-0.57463,-0.25512,-0.71977,-0.16781,-0.20252,-0.086844,-0.18595,-0.02051,0.17065
-0.00072966,-0.023717,-0.0094202,0.01213,-0.037276,0.15482,-0.010779,-0.030957,0.0037392,0.061545,-0.14363,0.1387,-0.14797,-0.17891,0.050028,-0.63318,-0.25368,-0.78269,-0.1507,-0.21235,-0.09341,-0.2051,0.043642,0.36928
-0.00073269,-0.037903,-0.012325,0.014665,-0.035489,0.15023,-0.0095686,-0.040181,0.021799,0.1008,-0.13316,0.17396,-0.14874,-0.18952,0.061398,-0.69932,-0.24619,-0.78132,-0.13551,-0.2131,-0.10127,-0.21572,0.11937,0.50758
-0.0051345,-0.052757,-0.012987,0.012392,-0.03465,0.14378,-0.0027441,-0.052658,0.034609,0.1389,-0.11252,0.20282,-0.14147,-0.194,0.077607,-0.77495,-0.22568,-0.71585,-0.12563,-0.20573,-0.10885,-0.2143,0.17991,0.58164
-0.012933,-0.065343,-0.010178,0.0068654,-0.034631,0.13763,0.0092393,-0.065461,0.042317,0.17449,-0.08209,0.21017,-0.12371,-0.19992,0.09528,-0.84471,-0.18731,-0.61466,-0.11325,-0.19067,-0.11484,-0.20082,0.20613,0.59551
-0.02118,-0.073469,-0.0054581,0.001025,-0.033461,0.13392,0.021563,-0.075242,0.047254,0.2037,-0.045907,0.19455,-0.095133,-0.21102,0.11478,-0.86865,-0.13253,-0.50771,-0.088303,-0.16754,-0.11689,-0.17953,0.19752,0.57156
-0.02661,-0.076853,-0.0021698,-0.0030356,-0.028518,0.13417,0.028775,-0.080034,0.052055,0.22357,-0.0090109,0.16789,-0.057422,-0.22571,0.13963,-0.79834,-0.068642,-0.40068,-0.047102,-0.13654,-0.11124,-0.15743,0.17172,0.54945
-0.027136,-0.076738,-0.0031359,-0.0050979,-0.018326,0.13795,0.028737,-0.07997,0.058217,0.23523,0.0245,0.14551,-0.013994,-0.24026,0.17203,-0.61014,-0.0038305,-0.27122,0.0060815,-0.10022,-0.094587,-0.14118,0.15185,0.56547
-0.022606,-0.074355,-0.0086394,-0.0062538,-0.0036245,0.14183,0.023626,-0.076654,0.065789,0.24402,0.051379,0.13425,0.03048,-0.25322,0.2085,-0.33113,0.058172,-0.088882,0.063391,-0.063743,-0.067129,-0.13397,0.14956,0.62631
-0.014814,-0.069778,-0.016094,-0.0075783,0.012917,0.14041,0.017553,-0.071957,0.073998,0.25656,0.068533,0.12842,0.070775,-0.2669,0.23967,-0.03497,0.1192,0.15948,0.1181,-0.03288,-0.034156,-0.13427,0.15559,0.70105
-0.0068258,-0.062352,-0.021686,-0.0091863,0.027947,0.12948,0.01312,-0.067246,0.082106,0.27718,0.073876,0.11686,0.10198,-0.28507,0.25551,0.19398,0.18295,0.46016,0.16618,-0.010411,-0.0041268,-0.13727,0.14523,0.74248
-0.0016284,-0.052199,-0.022921,-0.01029,0.038776,0.10934,0.009802,-0.063372,0.0899,0.30623,0.06881,0.09454,0.12049,-0.30924,0.25194,0.30529,0.25033,0.78415,0.20621,0.0063649,0.015905,-0.13806,0.095829,0.72297
-0.00050541,-0.041146,-0.020279,-0.010065,0.044229,0.085279,0.0051843,-0.060927,0.09755,0.34069,0.059726,0.067927,0.12513,-0.33703,0.2337,0.30495,0.31815,1.1069,0.24017,0.024878,0.024351,-0.13448,0.0045363,0.65652
-0.0021963,-0.031915,-0.016757,-0.0085665,0.044767,0.064367,-0.0023157,-0.060088,0.10499,0.37577,0.055945,0.049267,0.11813,-0.36343,0.2108,0.2413,0.38182,1.4176,0.27451,0.053138,0.025583,-0.12775,-0.10569,0.58969
-0.0038072,-0.026214,-0.015539,-0.0069018,0.041925,0.050596,-0.011634,-0.060125,0.1113,0.40616,0.064651,0.045042,0.10531,-0.38331,0.19143,0.16658,0.43885,1.7122,0.31786,0.094541,0.026452,-0.12069,-0.19593,0.56949
-0.0031703,-0.023639,-0.017511,-0.0063917,0.03727,0.042265,-0.019544,-0.059322,0.11468,0.42667,0.086594,0.049544,0.094123,-0.39244,0.17683,0.10327,0.48918,1.9782,0.37438,0.14496,0.031435,-0.11513,-0.22998,0.61372
-0.00083396,-0.022588,-0.020565,-0.0073154,0.031396,0.033721,-0.022926,-0.055933,0.11335,0.43307,0.11629,0.049683,0.089558,-0.38669,0.1618,0.038216,0.53223,2.1901,0.43734,0.19414,0.039929,-0.11071,-0.19012,0.70418
0.00023936,-0.022321,-0.021303,-0.0083594,0.023743,0.020137,-0.021007,-0.049689,0.1068,0.42349,0.14667,0.036618,0.089959,-0.36136,0.14,-0.054987,0.56402,2.3201,0.49028,0.2308,0.047417,-0.10572,-0.082137,0.80325
-0.0026521,-0.02401,-0.01786,-0.007488,0.013602,0.0015453,-0.015932,-0.042468,0.096517,0.3996,0.17408,0.013429,0.086334,-0.31254,0.10932,-0.18522,0.57801,2.3578,0.5173,0.24835,0.049281,-0.099113,0.069838,0.87693
-0.0091175,-0.029553,-0.011569,-0.0037244,0.001765,-0.016971,-0.011317,-0.037157,0.085248,0.36642,0.19942,-0.0083284,0.067233,-0.24044,0.073427,-0.32883,0.56948,2.3205,0.51565,0.24795,0.044155,-0.091755,0.23303,0.90677
-0.015375,-0.03925,-0.006134,0.0016876,-0.0086083,-0.028931,-0.0098563,-0.035313,0.075068,0.33026,0.22463,-0.02022,0.026994,-0.15199,0.039116,-0.4404,0.53984,2.2456,0.49946,0.23735,0.034456,-0.085784,0.3753,0.8861
-0.017083,-0.050803,-0.0049482,0.0059834,-0.013041,-0.031064,-0.011688,-0.035598,0.065632,0.29597,0.2483,-0.026596,-0.028545,-0.059636,0.012273,-0.48001,0.49688,2.1674,0.49012,0.22616,0.024079,-0.08288,0.47276,0.80946
-0.012992,-0.060945,-0.0087168,0.0070872,-0.0084255,-0.025498,-0.014591,-0.034512,0.054176,0.26512,0.26468,-0.044273,-0.084028,0.023591,-0.0044352,-0.43717,0.45068,2.0962,0.49997,0.22057,0.015431,-0.082961,0.51574,0.66761
-0.0061731,-0.068338,-0.015142,0.0054593,0.0045268,-0.018182,-0.015799,-0.029044,0.037633,0.23643,0.26722,-0.092871,-0.12386,0.089837,-0.01149,-0.33613,0.40828,2.0134,0.52249,0.22051,0.0080669,-0.084326,0.5113,0.45302
-0.0016245,-0.074939,-0.020681,0.0038089,0.021142,-0.014952,-0.014051,-0.019026,0.015425,0.20793,0.25325,-0.1835,-0.14229,0.13878,-0.011441,-0.22145,0.37108,1.8868,0.53736,0.22056,-0.00041796,-0.084888,0.47927,0.17057
-0.0022762,-0.084308,-0.022813,0.0047542,0.035408,-0.018091,-0.010362,-0.0071291,-0.009344,0.17928,0.22576,-0.31329,-0.14647,0.17519,-0.0082551,-0.13562,0.33632,1.6955,0.52601,0.21403,-0.012491,-0.08336,0.44201,-0.15681
-0.0068641,-0.098289,-0.021172,0.0084832,0.043578,-0.025601,-0.0069685,0.0035198,-0.031519,0.15244,0.19089,-0.46716,-0.15024,0.20408,-0.0069759,-0.10223,0.3006,1.4464,0.48508,0.19739,-0.029474,-0.079716,0.41331,-0.49358
-0.011403,-0.11515,-0.01713,0.012609,0.046057,-0.033359,-0.0053102,0.011961,-0.047232,0.13015,0.15388,-0.62339,-0.16353,0.22746,-0.012716,-0.12193,0.26254,1.1738,0.42757,0.17248,-0.051563,-0.075073,0.3933,-0.80603
-0.012769,-0.13092,-0.012683,0.01442,0.046186,-0.03837,-0.0046746,0.019914,-0.056144,0.11353,0.11727,-0.75872,-0.18605,0.24503,-0.028866,-0.17845,0.2232,0.92304,0.37264,0.1453,-0.078205,-0.071419,0.37233,-1.0762
-0.011165,-0.14269,-0.0095823,0.013425,0.047089,-0.040754,-0.0026332,0.029766,-0.060567,0.10076,0.082438,-0.85271,-0.20974,0.25713,-0.055878,-0.24831,0.18506,0.73338,0.334,0.1225,-0.10772,-0.071081,0.33999,-1.3053
