3.8393e-010,6.7719e-010,1.1383e-010,9.743e-010,9.087e-010,8.3925e-010,5.4214e-010,1.1325e-009,-5.5757e-010,6.849e-010,-1.254e-010,4.7268e-010,-2.374e-008,-7.2793e-009,-6.4072e-009,1.0671e-008,5.8554e-009,2.9285e-008,-2.9461e-009,2.4483e-009,-8.7012e-010,-1.9293e-012,-5.3442e-010,-4.3795e-010
1.0548e-008,1.8783e-008,3.5159e-009,2.6881e-008,2.4814e-008,2.3087e-008,1.5024e-008,3.1303e-008,-1.5408e-008,1.9061e-008,-3.2763e-009,1.3046e-008,-6.5458e-007,-1.9991e-007,-1.7636e-007,3.0076e-007,1.6232e-007,8.1095e-007,-8.0959e-008,6.7929e-008,-2.4037e-008,-3.0412e-010,-1.4486e-008,-1.1952e-008
1.4082e-007,2.5335e-007,5.2379e-008,3.6062e-007,3.2939e-007,3.0879e-007,2.0261e-007,4.204e-007,-2.0707e-007,2.583e-007,-4.1713e-008,1.7498e-007,-8.7706e-006,-2.6661e-006,-2.3572e-006,4.1275e-006,2.1885e-006,1.0921e-005,-1.0804e-006,9.1676e-007,-3.2256e-007,-7.5621e-009,-1.9102e-007,-1.5837e-007
1.2174e-006,2.2147e-006,5.0206e-007,3.1339e-006,2.8318e-006,2.6752e-006,1.7719e-006,3.6546e-006,-1.8033e-006,2.2709e-006,-3.4545e-007,1.5192e-006,-7.6073e-005,-2.2999e-005,-2.0376e-005,3.6754e-005,1.912e-005,9.5288e-005,-9.3259e-006,8.0189e-006,-2.8008e-006,-9.719e-008,-1.6328e-006,-1.3574e-006
7.663e-006,1.4106e-005,3.4838e-006,1.9829e-005,1.772e-005,1.6874e-005,1.1298e-005,2.3111e-005,-1.144e-005,1.4563e-005,-2.0969e-006,9.5962e-006,-0.00048002,-0.0001442,-0.00012798,0.00023876,0.00012168,0.00060555,-5.8499e-005,5.1104e-005,-1.7683e-005,-8.234e-007,-1.0171e-005,-8.4558e-006
3.7427e-005,6.977e-005,1.8665e-005,9.7329e-005,8.5973e-005,8.2557e-005,5.598e-005,0.00011326,-5.6334e-005,7.2594e-005,-9.9728e-006,4.6981e-005,-0.0023472,-0.00069978,-0.00062205,0.0012059,0.00060106,0.0029865,-0.00028396,0.00025288,-8.6457e-005,-5.1208e-006,-4.9212e-005,-4.0778e-005
0.00014762,0.0002789,8.039e-005,0.00038547,0.0003364,0.00032593,0.00022429,0.00044737,-0.00022405,0.00029271,-3.8822e-005,0.00018543,-0.0092501,-0.0027328,-0.002432,0.0049287,0.0023978,0.011893,-0.0011088,0.001011,-0.00034043,-2.4833e-005,-0.00019245,-0.00015829
0.00048304,0.00092564,0.0002861,0.0012648,0.0010897,0.0010661,0.00074646,0.0014622,-0.00073918,0.00098066,-0.00012765,0.00060576,-0.030155,-0.0088116,-0.007845,0.016746,0.0079335,0.039271,-0.0035716,0.0033544,-0.0011079,-9.7572e-005,-0.00062487,-0.00050752
0.0013366,0.0025997,0.00085793,0.0035017,0.002976,0.0029425,0.0021033,0.0040275,-0.0020612,0.0027823,-0.00036318,0.0016684,-0.082791,-0.023866,-0.021238,0.048217,0.022185,0.10957,-0.0096527,0.0094149,-0.003034,-0.0003188,-0.0017171,-0.0013676
0.003171,0.0062646,0.0021988,0.0082871,0.0069382,0.0069429,0.0050872,0.0094675,-0.0049235,0.0067775,-0.00091094,0.0039247,-0.19379,-0.054915,-0.048776,0.1193,0.053145,0.26177,-0.022114,0.022666,-0.0070766,-0.00088229,-0.0040487,-0.0031327
0.0065146,0.01308,0.0048665,0.016912,0.013923,0.014125,0.010667,0.019155,-0.01017,0.014316,-0.0020429,0.0079557,-0.38968,-0.10799,-0.095526,0.25625,0.11012,0.54061,-0.043139,0.047287,-0.014168,-0.002096,-0.0082743,-0.0061383
0.011669,0.02382,0.0093684,0.029922,0.024155,0.024903,0.01953,0.033517,-0.018277,0.026409,-0.0041353,0.013976,-0.67552,-0.18161,-0.15942,0.48116,0.19864,0.97123,-0.071475,0.086141,-0.024437,-0.0043156,-0.01476,-0.010298
0.0183,0.037982,0.015756,0.046003,0.036244,0.038098,0.031366,0.050788,-0.028678,0.042738,-0.0075939,0.021337,-1.0082,-0.25946,-0.22463,0.79306,0.31326,1.5232,-0.099224,0.13779,-0.036291,-0.0077528,-0.023088,-0.014702
0.025185,0.053089,0.023186,0.061405,0.046844,0.05043,0.044329,0.066463,-0.039312,0.060835,-0.012662,0.028324,-1.2854,-0.30884,-0.26054,1.1486,0.43272,2.0874,-0.11112,0.19444,-0.046126,-0.012207,-0.031748,-0.01755
0.030446,0.064932,0.029805,0.070882,0.051593,0.057255,0.055261,0.07454,-0.046992,0.076247,-0.019114,0.032658,-1.3732,-0.29139,-0.2327,1.4573,0.52383,2.4959,-0.089272,0.24322,-0.049464,-0.0169,-0.038408,-0.016768
0.032417,0.069166,0.033277,0.070291,0.047415,0.054756,0.061008,0.070596,-0.048792,0.084172,-0.025966,0.032732,-1.1745,-0.18531,-0.12466,1.6039,0.5561,2.5947,-0.023146,0.27173,-0.043461,-0.020635,-0.040873,-0.011285
0.030765,0.063724,0.031888,0.059534,0.034923,0.042567,0.060285,0.055077,-0.04386,0.082004,-0.03144,0.028897,-0.70311,-0.0065177,0.041555,1.4962,0.52044,2.337,0.080424,0.27526,-0.029374,-0.022354,-0.038304,-0.0022427
0.027096,0.05056,0.025668,0.043512,0.019011,0.024937,0.054825,0.03415,-0.034409,0.071142,-0.033445,0.023723,-0.10526,0.18938,0.20461,1.1158,0.4386,1.8304,0.19544,0.26027,-0.012882,-0.02182,-0.031872,0.0068915
0.02436,0.035217,0.016684,0.029686,0.0064947,0.009045,0.048608,0.016658,-0.024859,0.056479,-0.030543,0.020682,0.40761,0.33317,0.29206,0.54278,0.35286,1.288,0.28765,0.24046,-0.0012783,-0.019904,-0.024233,0.0119
0.025144,0.024015,0.0081086,0.023397,0.001875,0.0010225,0.045289,0.0086821,-0.019372,0.043469,-0.022962,0.021889,0.68391,0.38357,0.26473,-0.06288,0.29954,0.90132,0.33343,0.22687,0.0010254,-0.018112,-0.018033,0.010407
0.029889,0.020465,0.0025011,0.024372,0.0042225,0.0022323,0.045524,0.0096289,-0.019356,0.034673,-0.012926,0.026539,0.72867,0.35517,0.14692,-0.51776,0.28444,0.72112,0.33396,0.21938,-0.0045644,-0.017548,-0.014439,0.0037555
0.036364,0.02341,0.00046228,0.027428,0.0078687,0.0086256,0.046401,0.013128,-0.02275,0.028435,-0.003853,0.031415,0.69252,0.3088,0.016132,-0.68129,0.27968,0.64065,0.31332,0.20678,-0.011917,-0.018119,-0.012765,-0.0034384
0.041004,0.028351,0.00065203,0.02704,0.006798,0.013874,0.043778,0.012288,-0.025642,0.020849,0.0013326,0.033261,0.7525,0.30817,-0.045334,-0.50545,0.24617,0.49811,0.30063,0.17627,-0.014653,-0.018732,-0.011408,-0.0061037
0.04128,0.031004,0.0011575,0.022007,-0.00054369,0.014025,0.035927,0.0051299,-0.02495,0.0094929,0.0017961,0.031191,0.97347,0.37437,-0.003597,-0.052956,0.16486,0.21721,0.3093,0.12489,-0.010502,-0.018502,-0.0092288,-0.0020571
0.03737,0.030324,0.0010809,0.016087,-0.0099933,0.010093,0.025491,-0.0042794,-0.020165,-0.004182,-0.00077754,0.02715,1.2595,0.47335,0.10853,0.51787,0.051893,-0.13058,0.32929,0.063188,-0.0020974,-0.017966,-0.0062158,0.0066357
0.031829,0.028588,0.00099574,0.014018,-0.015173,0.0065902,0.017873,-0.0097929,-0.01308,-0.015873,-0.0032736,0.024019,1.4327,0.54527,0.22138,0.99878,-0.054153,-0.39249,0.33784,0.0080087,0.0060734,-0.01908,-0.0029315,0.015391
0.027544,0.028587,0.0019155,0.016639,-0.012898,0.0073043,0.017084,-0.0086295,-0.0061668,-0.022023,-0.0030763,0.023005,1.3716,0.55057,0.28103,1.2016,-0.12141,-0.46869,0.31892,-0.029698,0.011555,-0.023682,0.00058524,0.020608
0.025584,0.030498,0.0038374,0.019786,-0.0058858,0.011914,0.022383,-0.003549,-0.001176,-0.022896,0.00044025,0.022651,1.0974,0.49507,0.28219,1.0359,-0.14601,-0.39648,0.27498,-0.051576,0.01516,-0.031576,0.0053376,0.022147
0.024617,0.031343,0.0054284,0.018149,-0.00042833,0.016265,0.02862,-0.00014341,0.001088,-0.022455,0.0058281,0.020355,0.74414,0.4163,0.25768,0.56232,-0.14936,-0.31462,0.22218,-0.068011,0.018902,-0.039992,0.012736,0.022823
0.022229,0.027633,0.0053768,0.010546,-0.0011104,0.015973,0.030196,-0.0020229,0.00026383,-0.025141,0.010862,0.015036,0.45056,0.34692,0.23887,-0.014237,-0.15682,-0.34539,0.17521,-0.087992,0.023157,-0.045185,0.023301,0.025492
0.016934,0.018835,0.0041793,0.0015447,-0.0072261,0.010189,0.025462,-0.0082624,-0.0036684,-0.032291,0.014221,0.008485,0.26918,0.2891,0.22472,-0.42637,-0.17765,-0.50091,0.13645,-0.112,0.026109,-0.04502,0.035806,0.03029
0.0092962,0.0083335,0.0044094,-0.0023325,-0.013972,0.0022998,0.017882,-0.015021,-0.0096638,-0.041143,0.01631,0.0040364,0.16219,0.22066,0.18579,-0.47279,-0.20234,-0.6906,0.098627,-0.13348,0.025935,-0.040326,0.047613,0.034419
0.0014168,0.00075255,0.0087599,0.0014981,-0.017166,-0.0029213,0.012997,-0.019344,-0.014919,-0.04706,0.01862,0.0036592,0.070997,0.12425,0.096456,-0.12896,-0.21594,-0.81174,0.056923,-0.14611,0.023294,-0.033765,0.05606,0.034566
-0.0045815,-0.0020705,0.017379,0.0090698,-0.017122,-0.0031399,0.013748,-0.021481,-0.015477,-0.046908,0.022179,0.0060172,-0.012944,0.011105,-0.035926,0.42826,-0.21282,-0.83558,0.01754,-0.14923,0.021391,-0.027256,0.059929,0.029849
-0.0078342,-0.0027029,0.027056,0.012974,-0.018225,2.9607e-005,0.018098,-0.023924,-0.0083517,-0.040767,0.026327,0.0073109,-0.039216,-0.082158,-0.17149,0.90804,-0.19983,-0.8154,-0.0061391,-0.14686,0.023406,-0.020377,0.059998,0.022782
-0.0089567,-0.0056041,0.033379,0.0084522,-0.024735,0.0029297,0.020839,-0.028559,0.0062237,-0.030947,0.028896,0.0042777,0.047263,-0.12026,-0.26627,1.065,-0.18775,-0.82179,-0.0063433,-0.1426,0.029746,-0.011289,0.05828,0.017557
-0.0093155,-0.012635,0.034238,-0.002891,-0.036733,0.0032391,0.017869,-0.034814,0.024337,-0.019649,0.027725,-0.003182,0.24233,-0.095977,-0.30291,0.83922,-0.18158,-0.87408,0.0097044,-0.13637,0.037662,0.00077763,0.056512,0.017103
-0.010056,-0.020802,0.031568,-0.014818,-0.049839,0.0017567,0.0092594,-0.040291,0.040444,-0.0076085,0.02237,-0.011979,0.46638,-0.035168,-0.29811,0.38778,-0.1791,-0.93149,0.023074,-0.12646,0.043451,0.01403,0.055026,0.02119
-0.011519,-0.024588,0.029643,-0.021798,-0.058776,0.0011901,-0.001255,-0.042863,0.050587,0.0052725,0.014651,-0.018384,0.60982,0.022049,-0.28365,-0.018898,-0.17712,-0.94455,0.016579,-0.11413,0.045084,0.025241,0.052865,0.026807
-0.013236,-0.020975,0.031317,-0.023135,-0.061443,0.0033424,-0.0094748,-0.042137,0.054421,0.018279,0.0076236,-0.020916,0.60421,0.046921,-0.2796,-0.17545,-0.17753,-0.91155,-0.013388,-0.10544,0.043092,0.032512,0.049008,0.030254
-0.01438,-0.012602,0.035555,-0.022543,-0.059937,0.007387,-0.013573,-0.039199,0.054622,0.029069,0.003829,-0.021157,0.46576,0.034608,-0.28246,-0.078248,-0.18637,-0.88557,-0.056648,-0.10781,0.039474,0.036988,0.043604,0.029356
-0.014407,-0.005995,0.038445,-0.024127,-0.058008,0.010677,-0.01431,-0.035406,0.054411,0.03457,0.0041946,-0.021946,0.28149,-0.0026966,-0.27487,0.073425,-0.20763,-0.92891,-0.099939,-0.12423,0.036161,0.041774,0.038056,0.024466
-0.013605,-0.0062691,0.036757,-0.028681,-0.057609,0.011124,-0.013117,-0.031623,0.055334,0.032808,0.0081763,-0.02469,0.14987,-0.051963,-0.24488,0.014484,-0.23859,-1.0596,-0.13844,-0.15052,0.034366,0.04903,0.03384,0.017931
-0.013153,-0.012927,0.030814,-0.033438,-0.057721,0.0089434,-0.010469,-0.02842,0.056962,0.024183,0.014541,-0.028124,0.11762,-0.10941,-0.19729,-0.40688,-0.2716,-1.238,-0.17826,-0.17789,0.034734,0.057936,0.031162,0.012604
-0.014442,-0.020491,0.024166,-0.034949,-0.056154,0.0064075,-0.0062519,-0.02648,0.058291,0.011309,0.021751,-0.029455,0.15351,-0.17748,-0.14887,-1.1348,-0.30006,-1.4002,-0.22909,-0.1987,0.037293,0.0654,0.028776,0.01025
-0.017938,-0.023372,0.020515,-0.032113,-0.052254,0.006172,-0.0014024,-0.026334,0.05918,-0.0022235,0.027747,-0.026727,0.17309,-0.2546,-0.11381,-1.9589,-0.32232,-1.5049,-0.29463,-0.21044,0.040923,0.068742,0.025208,0.010608
-0.022415,-0.02066,0.020734,-0.026779,-0.047836,0.009698,0.0015351,-0.027524,0.06043,-0.013287,0.03001,-0.020381,0.094546,-0.32947,-0.092047,-2.6651,-0.33987,-1.5536,-0.36923,-0.21532,0.043262,0.067913,0.020264,0.011563
-0.025387,-0.016674,0.022541,-0.021917,-0.045661,0.016753,0.00020735,-0.028266,0.062671,-0.020173,0.026762,-0.01288,-0.11246,-0.38581,-0.068669,-3.1688,-0.35239,-1.5726,-0.44208,-0.21677,0.04194,0.065466,0.015366,0.01043
-0.024742,-0.016952,0.022848,-0.019454,-0.047097,0.025801,-0.0047897,-0.026455,0.065434,-0.022922,0.018777,-0.0069581,-0.41455,-0.41324,-0.023744,-3.5358,-0.35553,-1.5816,-0.50358,-0.21615,0.036592,0.064658,0.01238,0.0057881
-0.020497,-0.023321,0.020411,-0.019655,-0.05111,0.034631,-0.0091688,-0.021478,0.067448,-0.023023,0.0099357,-0.0039879,-0.74158,-0.41406,0.054459,-3.8979,-0.34405,-1.5786,-0.54817,-0.21231,0.029738,0.067449,0.012017,-0.0012941
-0.01528,-0.032328,0.016437,-0.021968,-0.055235,0.041021,-0.0077585,-0.01527,0.067845,-0.022565,0.0052508,-0.0035398,-1.0287,-0.39964,0.16028,-4.3444,-0.3175,-1.5505,-0.57307,-0.20342,0.025234,0.073759,0.013321,-0.0076729
-0.01301,-0.038181,0.012932,-0.025895,-0.057344,0.043631,0.00099573,-0.01133,0.066943,-0.023067,0.0073449,-0.0040513,-1.2439,-0.37967,0.27006,-4.8733,-0.28231,-1.4947,-0.57669,-0.18879,0.025225,0.08185,0.014671,-0.010232
-0.016611,-0.037446,0.010684,-0.030906,-0.05664,0.042943,0.012807,-0.012158,0.065809,-0.024657,0.014301,-0.003824,-1.3871,-0.3539,0.35086,-5.4138,-0.24788,-1.4262,-0.55958,-0.16923,0.028256,0.089057,0.015323,-0.0082984
-0.026325,-0.031448,0.0088528,-0.035894,-0.053422,0.041376,0.020082,-0.017106,0.065082,-0.026199,0.021073,-0.001741,-1.4717,-0.31357,0.37541,-5.8727,-0.22001,-1.366,-0.52657,-0.14614,0.030426,0.092541,0.016011,-0.0044191
-0.039684,-0.024647,0.0062818,-0.039346,-0.048364,0.041854,0.017631,-0.022548,0.064309,-0.026389,0.023553,0.0023444,-1.5087,-0.25124,0.33667,-6.1524,-0.19754,-1.3221,-0.48605,-0.1208,0.028712,0.090338,0.018091,-0.0025669
-0.052934,-0.020806,0.0028709,-0.040464,-0.042179,0.045406,0.0069,-0.024442,0.062416,-0.024959,0.021772,0.0074306,-1.5057,-0.17009,0.25361,-6.1477,-0.17499,-1.2825,-0.44537,-0.094514,0.023484,0.082637,0.022071,-0.004964
-0.062793,-0.020416,-0.00053699,-0.0401,-0.035692,0.049716,-0.0049479,-0.021247,0.058749,-0.022992,0.019314,0.011594,-1.474,-0.084472,0.16328,-5.7628,-0.14864,-1.2271,-0.40588,-0.069113,0.017893,0.072339,0.026901,-0.01011
-0.067495,-0.02127,-0.0034995,-0.040204,-0.029692,0.050284,-0.010545,-0.014809,0.053579,-0.022035,0.019511,0.01294,-1.4303,-0.010966,0.10203,-4.9667,-0.12013,-1.1451,-0.36261,-0.04681,0.014739,0.063838,0.030638,-0.013851
-0.066916,-0.021085,-0.0068346,-0.041973,-0.024355,0.043786,-0.0079579,-0.008512,0.047697,-0.022768,0.022086,0.011014,-1.3842,0.042486,0.086718,-3.8454,-0.094927,-1.0435,-0.30951,-0.029129,0.013802,0.060373,0.031841,-0.012803
-0.062246,-0.01951,-0.01179,-0.04444,-0.018847,0.031065,-0.0019029,-0.0044173,0.041695,-0.024366,0.023484,0.0075645,-1.3249,0.080202,0.1082,-2.5866,-0.077436,-0.9391,-0.24578,-0.015911,0.01214,0.061887,0.030528,-0.0072496
-0.055654,-0.017901,-0.018298,-0.045075,-0.011864,0.017085,0.00032106,-0.0019278,0.035757,-0.025061,0.020554,0.005597,-1.2197,0.1122,0.14133,-1.3847,-0.067563,-0.8436,-0.17734,-0.0054096,0.0069995,0.065339,0.028073,-0.00094971
-0.049877,-0.017599,-0.024372,-0.042095,-0.0030001,0.0075242,-0.0052208,0.00089042,0.029994,-0.023399,0.013957,0.0069753,-1.0332,0.14317,0.16371,-0.33555,-0.061473,-0.7571,-0.11183,0.0044708,-0.0014647,0.0674,0.026328,0.002092
-0.047373,-0.018667,-0.027708,-0.036358,0.0062755,0.0046157,-0.015965,0.0047297,0.024651,-0.019177,0.0079717,0.01047,-0.75396,0.1664,0.16909,0.58831,-0.055146,-0.6741,-0.051586,0.014842,-0.010182,0.067257,0.026661,0.0011229
-0.049105,-0.020142,-0.028196,-0.030947,0.013212,0.0056234,-0.02479,0.0078319,0.019759,-0.013427,0.0068551,0.012227,-0.40924,0.16754,0.16584,1.4647,-0.047125,-0.59434,0.0087001,0.025454,-0.015772,0.067033,0.029301,-0.00056702
-0.053744,-0.021195,-0.028696,-0.028658,0.015786,0.005187,-0.025328,0.0075377,0.014658,-0.0076747,0.011208,0.0086842,-0.053872,0.13497,0.16424,2.3287,-0.038361,-0.52556,0.076825,0.03536,-0.017228,0.069516,0.032987,0.0018933
-0.058193,-0.02183,-0.032842,-0.029636,0.014533,-0.00043641,-0.01661,0.0032959,0.0082097,-0.0031638,0.017666,-0.00040115,0.25842,0.068205,0.16513,3.1537,-0.030181,-0.47489,0.15438,0.043772,-0.016268,0.075385,0.035027,0.011464
-0.059456,-0.022632,-0.041527,-0.031317,0.012513,-0.0107,-0.003747,-0.0018109,-0.00014263,-0.00054139,0.02202,-0.011569,0.50251,-0.02192,0.16082,3.9138,-0.023007,-0.43822,0.23176,0.050301,-0.015299,0.082492,0.03215,0.027437
-0.056645,-0.024159,-0.051358,-0.030754,0.013229,-0.021654,0.0056196,-0.0028988,-0.0093946,8.5425e-005,0.022725,-0.020409,0.68989,-0.12054,0.14613,4.6351,-0.0171,-0.40047,0.29157,0.054584,-0.015183,0.087694,0.02227,0.046232
-0.051545,-0.026788,-0.056936,-0.027177,0.018136,-0.029392,0.0064009,0.0027037,-0.017229,-0.00090097,0.021708,-0.025011,0.85424,-0.21694,0.12756,5.3511,-0.014131,-0.34874,0.31809,0.055925,-0.014996,0.089263,0.0063186,0.063367
-0.047216,-0.030876,-0.05536,-0.022532,0.025737,-0.033104,-0.00095392,0.012724,-0.021573,-0.0025349,0.022093,-0.026957,1.0256,-0.30739,0.12022,5.9901,-0.01741,-0.28687,0.30603,0.053469,-0.01377,0.087574,-0.011397,0.074866
-0.045715,-0.036573,-0.049097,-0.019646,0.032927,-0.03545,-0.011513,0.021212,-0.02221,-0.0032983,0.025277,-0.029063,1.2094,-0.39138,0.1343,6.3314,-0.029996,-0.23667,0.26227,0.046748,-0.01222,0.083672,-0.02525,0.077858
-0.046743,-0.04306,-0.044478,-0.019781,0.037385,-0.040257,-0.019886,0.023132,-0.020938,-0.0016067,0.029971,-0.032253,1.3816,-0.46603,0.1638,6.131,-0.052103,-0.22284,0.20031,0.036071,-0.012496,0.077572,-0.0318,0.071259
-0.048144,-0.048134,-0.046757,-0.021754,0.039039,-0.049532,-0.023985,0.018503,-0.020002,0.0033192,0.033671,-0.034751,1.4994,-0.52404,0.18798,5.3469,-0.080092,-0.2538,0.13281,0.022459,-0.016169,0.068231,-0.032185,0.056855
-0.04763,-0.049166,-0.055773,-0.023181,0.039671,-0.062,-0.025663,0.012448,-0.020126,0.010732,0.034745,-0.034365,1.5221,-0.55729,0.18409,4.2649,-0.10806,-0.31486,0.067835,0.0073181,-0.022515,0.055209,-0.031231,0.03959
-0.044221,-0.045208,-0.065883,-0.022536,0.041287,-0.073982,-0.028035,0.010981,-0.019961,0.018374,0.033181,-0.031388,1.4295,-0.563,0.13913,3.369,-0.13089,-0.3787,0.010311,-0.0077891,-0.028969,0.040087,-0.033654,0.025689
-0.038507,-0.038482,-0.070395,-0.020192,0.044715,-0.081805,-0.032063,0.016096,-0.017493,0.023365,0.029722,-0.02888,1.2316,-0.54696,0.051579,3.0224,-0.14652,-0.42357,-0.034883,-0.021207,-0.033388,0.025836,-0.040301,0.01907
-0.031941,-0.03348,-0.066911,-0.017747,0.049334,-0.08411,-0.035499,0.024365,-0.012205,0.0235,0.024755,-0.029778,0.96464,-0.52072,-0.074447,3.2087,-0.15602,-0.44385,-0.062648,-0.031369,-0.035895,0.014499,-0.047638,0.018645
-0.025991,-0.033818,-0.059262,-0.016511,0.053718,-0.082688,-0.03507,0.030156,-0.0060521,0.01821,0.018303,-0.033651,0.67785,-0.4945,-0.23133,3.5571,-0.16168,-0.44687,-0.070802,-0.037373,-0.038435,0.0053695,-0.05108,0.018963
-0.021618,-0.03924,-0.054484,-0.016509,0.056411,-0.081394,-0.029783,0.03048,-0.0023515,0.0086769,0.011003,-0.03658,0.41741,-0.47112,-0.4013,3.6364,-0.16492,-0.44289,-0.06302,-0.039752,-0.042479,-0.0044239,-0.04947,0.014018
-0.019008,-0.045476,-0.057297,-0.016646,0.056421,-0.083727,-0.022275,0.027186,-0.0035324,-0.0028977,0.0047519,-0.03468,0.21437,-0.44573,-0.54928,3.2741,-0.16565,-0.43905,-0.047854,-0.040787,-0.047236,-0.017346,-0.046909,0.0011615
-0.017474,-0.04745,-0.066494,-0.015601,0.053517,-0.090439,-0.017004,0.02473,-0.0096077,-0.014374,0.0019553,-0.028041,0.079142,-0.41127,-0.6297,2.6416,-0.16332,-0.44157,-0.034309,-0.043752,-0.050212,-0.033198,-0.050306,-0.018016
-0.015738,-0.043389,-0.075944,-0.012639,0.048502,-0.098681,-0.017001,0.025768,-0.018452,-0.024449,0.0037852,-0.021106,0.0010554,-0.36478,-0.61074,2.0595,-0.15865,-0.45968,-0.028336,-0.051253,-0.049612,-0.049188,-0.064586,-0.040215
-0.012756,-0.036436,-0.079199,-0.0078974,0.043219,-0.10347,-0.022049,0.028657,-0.027347,-0.032757,0.0089352,-0.018755,-0.047653,-0.30904,-0.50095,1.7164,-0.15434,-0.50306,-0.033661,-0.063673,-0.046191,-0.062154,-0.089394,-0.063711
-0.0086234,-0.032253,-0.073942,-0.002265,0.03989,-0.1008,-0.029593,0.029035,-0.034384,-0.039368,0.01413,-0.02165,-0.1025,-0.24789,-0.35487,1.5478,-0.15401,-0.57243,-0.055296,-0.07891,-0.042782,-0.070855,-0.11976,-0.08937
-0.0046761,-0.03446,-0.062985,0.0029038,0.039909,-0.090449,-0.037047,0.023913,-0.038859,-0.044215,0.01622,-0.025439,-0.1922,-0.17995,-0.2479,1.3503,-0.1598,-0.65188,-0.10026,-0.093727,-0.042039,-0.076422,-0.14983,-0.11886
-0.0023878,-0.041628,-0.051495,0.0061866,0.042875,-0.076469,-0.043205,0.014568,-0.040961,-0.046958,0.014363,-0.025019,-0.32433,-0.097592,-0.23495,0.99024,-0.17026,-0.71235,-0.17233,-0.10577,-0.044625,-0.080938,-0.17647,-0.15226
-0.0018889,-0.048299,-0.043083,0.0066601,0.046738,-0.06473,-0.047822,0.005731,-0.041515,-0.047412,0.010619,-0.02004,-0.48071,0.0062345,-0.32099,0.50641,-0.18032,-0.72664,-0.26464,-0.11467,-0.04937,-0.085707,-0.19993,-0.18751
-0.0015469,-0.04923,-0.037906,0.0044644,0.049098,-0.059134,-0.050567,0.0019116,-0.041903,-0.046124,0.0084108,-0.016205,-0.62738,0.12809,-0.46252,0.040029,-0.18371,-0.68567,-0.35791,-0.12157,-0.054827,-0.090662,-0.22164,-0.22205
0.00076616,-0.043387,-0.033875,0.00092969,0.048741,-0.059211,-0.050974,0.0040456,-0.043655,-0.044472,0.0098711,-0.020444,-0.73305,0.25007,-0.59525,-0.30229,-0.17697,-0.60381,-0.42902,-0.12758,-0.060386,-0.094963,-0.24156,-0.25492
0.0057336,-0.034468,-0.029349,-0.0020357,0.04627,-0.060929,-0.049543,0.009128,-0.047389,-0.044064,0.014004,-0.033941,-0.7817,0.34698,-0.6659,-0.50267,-0.16231,-0.50921,-0.46483,-0.13278,-0.065947,-0.097805,-0.25759,-0.28748
0.011811,-0.027675,-0.024698,-0.0030369,0.043457,-0.060128,-0.048484,0.012788,-0.051885,-0.045832,0.01711,-0.049522,-0.76989,0.40071,-0.64933,-0.57128,-0.14719,-0.42681,-0.47024,-0.13655,-0.070949,-0.098669,-0.26732,-0.32271
0.016454,-0.025576,-0.021514,-0.0020098,0.041957,-0.055934,-0.050788,0.012434,-0.054485,-0.049549,0.015356,-0.056517,-0.69503,0.41065,-0.54794,-0.47582,-0.14016,-0.36592,-0.46278,-0.13868,-0.074258,-0.097239,-0.27002,-0.36383
0.018289,-0.026517,-0.020538,-0.00012105,0.042393,-0.051486,-0.058169,0.0084883,-0.053067,-0.054091,0.0077564,-0.049431,-0.55135,0.39132,-0.38355,-0.17413,-0.14525,-0.31964,-0.45726,-0.14003,-0.075231,-0.09354,-0.26663,-0.4127
0.018234,-0.026717,-0.02053,0.0011921,0.044273,-0.051499,-0.069838,0.0031464,-0.048191,-0.058115,-0.002692,-0.032971,-0.34432,0.35877,-0.19081,0.26607,-0.15859,-0.27324,-0.45299,-0.14169,-0.074705,-0.088337,-0.25742,-0.46722
0.018545,-0.023897,-0.01927,0.0012796,0.046483,-0.058654,-0.083387,-0.0018691,-0.043345,-0.060497,-0.010796,-0.018784,-0.11325,0.31729,-0.01204,0.59857,-0.17001,-0.21355,-0.43432,-0.14346,-0.074491,-0.083176,-0.23984,-0.518
0.020734,-0.019131,-0.015761,0.000599,0.04784,-0.071638,-0.096997,-0.0065795,-0.042625,-0.06032,-0.012867,-0.016456,0.063522,0.25814,0.11187,0.4966,-0.16893,-0.13284,-0.38433,-0.14312,-0.075523,-0.079621,-0.20932,-0.54711
0.024261,-0.015442,-0.011459,8.4552e-005,0.047443,-0.086132,-0.11082,-0.012203,-0.047476,-0.056804,-0.0097086,-0.026331,0.098102,0.17183,0.15507,-0.22592,-0.15097,-0.027545,-0.29993,-0.13734,-0.076376,-0.078189,-0.16352,-0.53291
0.027081,-0.01478,-0.0092562,0.00014255,0.044927,-0.097659,-0.12632,-0.019573,-0.055221,-0.049646,-0.0064738,-0.040025,-0.054911,0.063179,0.11763,-1.4502,-0.12073,0.10397,-0.19592,-0.124,-0.073723,-0.077963,-0.1069,-0.46153
0.027334,-0.016377,-0.011021,0.0001467,0.04067,-0.10391,-0.14428,-0.028033,-0.060838,-0.039639,-0.0091269,-0.047714,-0.36141,-0.045056,0.025481,-2.7987,-0.088711,0.2613,-0.094628,-0.10386,-0.064505,-0.077372,-0.051217,-0.33993
0.024672,-0.017894,-0.015937,-0.0010988,0.03575,-0.10505,-0.16367,-0.035746,-0.060668,-0.028862,-0.019922,-0.045617,-0.71917,-0.12443,-0.080585,-3.8668,-0.064599,0.43988,-0.010268,-0.080257,-0.047986,-0.075492,-0.009977,-0.20041
0.020334,-0.017919,-0.021117,-0.0042431,0.031448,-0.10235,-0.18225,-0.041078,-0.055095,-0.019901,-0.03541,-0.037544,-1.0153,-0.15972,-0.1586,-4.4568,-0.051322,0.62987,0.059366,-0.056679,-0.026048,-0.072736,0.010285,-0.089951
0.016351,-0.017149,-0.023882,-0.0084983,0.02853,-0.096865,-0.19828,-0.043831,-0.04802,-0.014454,-0.048813,-0.030108,-1.1893,-0.15872,-0.17353,-4.6319,-0.043822,0.81764,0.12779,-0.034146,-0.0018938,-0.070406,0.01536,-0.047119
0.014726,-0.017108,-0.023603,-0.011784,0.026869,-0.089204,-0.21161,-0.045282,-0.043693,-0.012363,-0.055128,-0.026693,-1.2538,-0.14459,-0.099515,-4.5798,-0.033027,0.98921,0.20676,-0.010444,0.021249,-0.069677,0.020522,-0.079401
0.0169,-0.017935,-0.021618,-0.012014,0.025786,-0.080222,-0.22319,-0.046994,-0.043554,-0.011914,-0.05487,-0.025592,-1.2597,-0.13746,0.077213,-4.4342,-0.011965,1.1335,0.29634,0.018083,0.040177,-0.071015,0.04049,-0.15642
0.02323,-0.017768,-0.019662,-0.0087185,0.024819,-0.071405,-0.23372,-0.04944,-0.045542,-0.011214,-0.053267,-0.023182,-1.239,-0.14102,0.35026,-4.2183,0.020183,1.2439,0.38537,0.053472,0.051042,-0.07442,0.079253,-0.2254
0.032355,-0.014571,-0.018522,-0.0037781,0.024132,-0.064368,-0.24281,-0.051646,-0.046103,-0.0095735,-0.05555,-0.018255,-1.1757,-0.14529,0.68459,-3.9338,0.058479,1.3191,0.45994,0.094142,0.049665,-0.079954,0.12754,-0.24077
0.041108,-0.0086417,-0.017987,-0.0004822,0.024113,-0.059954,-0.2493,-0.052222,-0.042956,-0.0078502,-0.062438,-0.013108,-1.0307,-0.1418,1.0183,-3.6734,0.096213,1.3622,0.512,0.13536,0.033704,-0.087779,0.17009,-0.18962
0.045655,-0.0031562,-0.017638,-0.0013911,0.024585,-0.057919,-0.25233,-0.050942,-0.036441,-0.0076235,-0.069791,-0.010727,-0.7948,-0.13635,1.2808,-3.6205,0.12928,1.3801,0.54136,0.1717,0.00539,-0.097562,0.197,-0.096919
0.043663,-0.0019179,-0.017267,-0.0065285,0.024544,-0.057475,-0.25208,-0.049439,-0.028779,-0.0099593,-0.072612,-0.011358,-0.5199,-0.14633,1.4206,-3.9208,0.15786,1.3806,0.55167,0.1995,-0.027714,-0.10788,0.21019,-0.0077619
0.03605,-0.0061745,-0.016617,-0.013392,0.022966,-0.057999,-0.24959,-0.050239,-0.022337,-0.014714,-0.069596,-0.012112,-0.29557,-0.18379,1.4273,-4.5406,0.18465,1.3689,0.54541,0.2177,-0.055368,-0.1164,0.22007,0.041251
0.026795,-0.013365,-0.015201,-0.018901,0.02019,-0.05906,-0.24571,-0.054726,-0.018361,-0.020728,-0.064089,-0.0098873,-0.18856,-0.23909,1.3331,-5.2403,0.21126,1.3447,0.52267,0.22681,-0.069343,-0.12076,0.2359,0.042862
0.020608,-0.018985,-0.012881,-0.021753,0.018797,-0.05986,-0.24018,-0.06165,-0.016797,-0.026524,-0.060811,-0.0045466,-0.19464,-0.28064,1.1915,-5.6934,0.23576,1.3028,0.48366,0.22732,-0.066921,-0.11953,0.25836,0.020263
0.01997,-0.020003,-0.010555,-0.023175,0.023175,-0.058984,-0.23142,-0.067542,-0.016784,-0.030929,-0.061673,0.00085519,-0.24195,-0.27372,1.0476,-5.6557,0.25317,1.2384,0.43179,0.21908,-0.050855,-0.1125,0.28041,0.010356
0.023668,-0.016982,-0.0097139,-0.025374,0.037863,-0.055095,-0.21732,-0.068977,-0.017182,-0.033283,-0.064579,0.0028995,-0.24039,-0.2049,0.91575,-5.0678,0.25844,1.1538,0.37453,0.20208,-0.026393,-0.10033,0.29491,0.042226
0.027904,-0.013252,-0.010692,-0.028995,0.065387,-0.048023,-0.19678,-0.065106,-0.016969,-0.033381,-0.065991,0.00081013,-0.13487,-0.093491,0.77799,-4.0357,0.2499,1.0615,0.32183,0.17762,0.0017381,-0.084205,0.3016,0.1246
0.029187,-0.01208,-0.011385,-0.03193,0.10437,-0.039078,-0.17079,-0.058492,-0.015657,-0.031383,-0.064438,-0.0032039,0.077515,0.019175,0.60182,-2.7335,0.23068,0.98081,0.28333,0.14881,0.029967,-0.065938,0.30685,0.24694
0.0269,-0.01424,-0.0083858,-0.03074,0.14858,-0.030071,-0.14245,-0.053467,-0.013638,-0.027753,-0.061582,-0.0063073,0.36937,0.094601,0.36532,-1.315,0.20712,0.92792,0.26539,0.11964,0.054528,-0.048154,0.31655,0.38786
0.023646,-0.017829,-0.00025446,-0.023693,0.18774,-0.021939,-0.11561,-0.053081,-0.012073,-0.023129,-0.060158,-0.0075618,0.71295,0.11797,0.074306,0.10899,0.18546,0.90587,0.26825,0.093448,0.07069,-0.033878,0.32867,0.52131
0.023088,-0.020064,0.010025,-0.012846,0.21056,-0.014353,-0.092787,-0.056848,-0.012083,-0.018058,-0.061169,-0.0082362,1.0862,0.101,-0.23811,1.4317,0.16875,0.90167,0.28428,0.071677,0.074449,-0.025308,0.33247,0.61701
0.026881,-0.019329,0.016357,-0.0031706,0.2096,-0.0066847,-0.073836,-0.061028,-0.013677,-0.012783,-0.063102,-0.0099813,1.4548,0.067557,-0.52835,2.5037,0.15613,0.89323,0.2992,0.053856,0.065621,-0.022506,0.31545,0.64188
0.033077,-0.015864,0.014281,0.00086327,0.18565,0.00081081,-0.056185,-0.061317,-0.015325,-0.0073386,-0.063629,-0.012996,1.7602,0.035555,-0.76441,3.142,0.14478,0.86229,0.2979,0.038459,0.049037,-0.023151,0.27272,0.57089
0.037377,-0.010957,0.0051701,-0.0013926,0.14838,0.0069929,-0.036671,-0.055992,-0.014745,-0.0019857,-0.061772,-0.015971,1.9397,0.0092036,-0.93873,3.2164,0.13318,0.80519,0.27268,0.024038,0.031771,-0.023748,0.2113,0.40662
0.036349,-0.0057008,-0.0042321,-0.0062928,0.11164,0.011083,-0.013683,-0.04711,-0.010537,0.0024257,-0.058371,-0.017514,1.9716,-0.014768,-1.0638,2.7704,0.12321,0.73388,0.22873,0.009999,0.018099,-0.0215,0.14661,0.19329
0.030096,-0.00047231,-0.0071117,-0.0087898,0.085686,0.013738,0.01179,-0.03884,-0.0034787,0.0046892,-0.054688,-0.01732,1.9051,-0.035735,-1.1537,2.0793,0.11946,0.6666,0.18223,-0.003233,0.0066657,-0.01548,0.094014,0.0076514
0.022221,0.0046861,-0.0022646,-0.0063788,0.071553,0.016611,0.036861,-0.034218,0.0035778,0.0041652,-0.05088,-0.015938,1.8402,-0.044631,-1.2046,1.5693,0.12587,0.61537,0.15105,-0.014467,-0.0070631,-0.0063743,0.061796,-0.076733
0.017166,0.0094633,0.0049741,-0.00083883,0.062062,0.020717,0.058594,-0.032951,0.0073184,0.001722,-0.045958,-0.013738,1.8646,-0.030509,-1.1895,1.6089,0.14227,0.58029,0.1441,-0.022187,-0.024744,0.0046575,0.049386,-0.032788
0.017147,0.013181,0.0075551,0.0036342,0.048803,0.025343,0.07567,-0.032024,0.0060663,-0.00030528,-0.039113,-0.010491,1.996,0.0086799,-1.0717,2.2985,0.16346,0.55567,0.15655,-0.025017,-0.040944,0.016815,0.050043,0.10042
0.021088,0.01527,0.003048,0.0041875,0.029464,0.028768,0.088731,-0.028544,0.00095389,0.00047484,-0.030889,-0.0060764,2.1777,0.062246,-0.8317,3.4101,0.18201,0.54247,0.17434,-0.022198,-0.045149,0.029442,0.054464,0.24035
0.026055,0.015811,-0.0041803,0.0016419,0.0092967,0.030133,0.099336,-0.022351,-0.0046736,0.0045933,-0.022974,-0.0013465,2.3324,0.11464,-0.48905,4.5361,0.19281,0.55485,0.18405,-0.014085,-0.028956,0.041156,0.052946,0.31473
0.029602,0.015604,-0.0068115,-0.00056648,-0.0044469,0.030461,0.10849,-0.016148,-0.0072816,0.0099229,-0.016927,0.0020857,2.4266,0.15871,-0.1045,5.3478,0.19597,0.61262,0.181,-0.0024954,0.0074899,0.049382,0.036642,0.30988
0.031017,0.01573,-0.00087141,0.00029745,-0.0099705,0.031666,0.11598,-0.013089,-0.0052867,0.012996,-0.013151,0.0031679,2.4893,0.20233,0.24253,5.7726,0.19575,0.72456,0.17004,0.0094109,0.055401,0.051001,-0.00026388,0.27843
0.030902,0.016948,0.011117,0.0037918,-0.013395,0.034505,0.12098,-0.013994,0.00010265,0.011678,-0.01105,0.0024907,2.5689,0.26165,0.48896,5.9606,0.19663,0.8778,0.15976,0.018045,0.10362,0.043824,-0.057392,0.29968
0.030103,0.019325,0.022589,0.0068486,-0.023908,0.037629,0.12336,-0.01666,0.0058968,0.0070426,-0.010056,0.0018739,2.6693,0.34574,0.61521,6.0852,0.19978,1.0458,0.15475,0.020968,0.14554,0.027848,-0.12644,0.42011
0.029248,0.022262,0.028341,0.006696,-0.046025,0.038762,0.12434,-0.017851,0.0094477,0.0027036,-0.01039,0.0026965,2.7266,0.44564,0.64769,6.1555,0.20307,1.2108,0.15156,0.018339,0.18039,0.0053986,-0.19362,0.61621
0.028969,0.02484,0.027957,0.0033988,-0.075915,0.036861,0.1258,-0.016168,0.010137,0.0019392,-0.012777,0.0045662,2.6496,0.53754,0.63613,6.0021,0.20423,1.3826,0.14017,0.013162,0.20818,-0.019898,-0.24622,0.80546
0.030006,0.026297,0.024738,-0.00025029,-0.10485,0.033101,0.1287,-0.01328,0.0094129,0.0049662,-0.017388,0.0056789,2.3926,0.59802,0.62131,5.4432,0.20425,1.5936,0.10978,0.0097971,0.2236,-0.044571,-0.27942,0.89663
0.032624,0.026395,0.022005,-0.0012787,-0.12621,0.029733,0.132,-0.01245,0.0092602,0.0087433,-0.023032,0.0045832,1.9975,0.61921,0.61451,4.4812,0.20761,1.8716,0.055644,0.011519,0.21572,-0.066226,-0.29884,0.84434
0.035878,0.025449,0.020659,0.00083404,-0.13975,0.028068,0.13306,-0.015668,0.010442,0.0095312,-0.027453,0.0016793,1.5705,0.61162,0.60056,3.3563,0.21898,2.2094,-0.016066,0.018845,0.17481,-0.083522,-0.31628,0.67191
0.037701,0.023979,0.019888,0.0037672,-0.14977,0.02756,0.12945,-0.021872,0.012027,0.0059796,-0.028641,-0.00095715,1.213,0.5928,0.55885,2.4072,0.2393,2.5583,-0.087191,0.030022,0.10112,-0.09557,-0.34148,0.45106
0.036078,0.02222,0.019429,0.0044954,-0.16006,0.026707,0.12084,-0.027784,0.012541,4.0852e-005,-0.026164,-0.0012208,0.96285,0.57209,0.48507,1.8522,0.2648,2.8523,-0.13167,0.043394,0.0079778,-0.10154,-0.37504,0.25601
0.030432,0.019937,0.020405,0.0020262,-0.17083,0.024613,0.10963,-0.030619,0.011619,-0.0049996,-0.021436,0.0014611,0.78716,0.54435,0.3975,1.6636,0.28999,3.0459,-0.12453,0.05966,-0.083688,-0.10091,-0.40734,0.12442
0.02207,0.016776,0.023808,-0.0016656,-0.18006,0.021593,0.099731,-0.030368,0.010571,-0.0074517,-0.016648,0.0059912,0.62365,0.49781,0.32415,1.6201,0.31188,3.137,-0.053196,0.081824,-0.15521,-0.094169,-0.42385,0.047913
0.013385,0.012844,0.028577,-0.0033124,-0.18692,0.018475,0.094335,-0.029678,0.011317,-0.0083745,-0.013192,0.010772,0.43064,0.4292,0.28113,1.4794,0.33146,3.157,0.073984,0.11241,-0.19735,-0.083078,-0.413,-0.0077016
0.0065502,0.0088761,0.031846,-0.0011601,-0.19304,0.015657,0.09398,-0.031344,0.014689,-0.0099723,-0.010885,0.014893,0.20821,0.35336,0.25815,1.1253,0.35107,3.1404,0.22783,0.14995,-0.21062,-0.070031,-0.37105,-0.071827
0.0026892,0.005735,0.031501,0.0035557,-0.20016,0.01299,0.096144,-0.035459,0.019711,-0.012895,-0.0086105,0.018254,-0.016206,0.29971,0.22197,0.59283,0.37031,3.1,0.36899,0.18779,-0.20098,-0.056815,-0.30135,-0.15
0.0018261,0.0036793,0.028481,0.0077498,-0.20712,0.01035,0.096678,-0.03868,0.024469,-0.015122,-0.0057287,0.020836,-0.21554,0.29769,0.13669,-0.011599,0.3849,3.0269,0.4649,0.21687,-0.17578,-0.043858,-0.2102,-0.22558
0.0032668,0.0022442,0.026211,0.0091955,-0.20985,0.0079174,0.092364,-0.036484,0.027662,-0.013572,-0.0028804,0.022201,-0.37915,0.36117,-0.011161,-0.6005,0.38976,2.9123,0.50339,0.23095,-0.14268,-0.030766,-0.10369,-0.27521
0.0059747,0.00098238,0.027405,0.0083675,-0.205,0.0057167,0.083068,-0.026809,0.029326,-0.0069832,-0.0013802,0.021947,-0.51034,0.48063,-0.19847,-1.1296,0.38363,2.7655,0.49425,0.23043,-0.10998,-0.017814,0.011196,-0.28361
0.0088605,0.00032513,0.031323,0.0078188,-0.19376,0.0031482,0.071955,-0.012228,0.030227,0.0026037,-0.001833,0.020624,-0.61634,0.62589,-0.37193,-1.5638,0.37039,2.6106,0.45757,0.22166,-0.0851,-0.0069289,0.12353,-0.24821
0.011086,0.0015073,0.034314,0.0097673,-0.18174,-0.00056556,0.063386,0.0012845,0.030781,0.011129,-0.0034405,0.019903,-0.704,0.75592,-0.47219,-1.8487,0.35537,2.465,0.40721,0.21167,-0.071064,-0.00091205,0.21825,-0.17448
0.012295,0.0053866,0.033321,0.014139,-0.17469,-0.005223,0.059814,0.0082342,0.030768,0.015433,-0.0048125,0.02144,-0.78241,0.83049,-0.46155,-1.9327,0.33974,2.3208,0.34173,0.20252,-0.064126,-0.0011392,0.28211,-0.069698
0.012516,0.011262,0.029033,0.01872,-0.17374,-0.0091208,0.060068,0.0072368,0.030054,0.015337,-0.0055153,0.025259,-0.86445,0.82083,-0.33865,-1.8191,0.31886,2.1519,0.24936,0.18957,-0.055948,-0.0056202,0.3129,0.058474
0.011732,0.01704,0.025581,0.02101,-0.17457,-0.010109,0.06056,0.0016243,0.029255,0.013258,-0.0067067,0.02921,-0.96101,0.71801,-0.13299,-1.5891,0.28649,1.9403,0.12255,0.16569,-0.039601,-0.0094042,0.3243,0.1992
0.0095283,0.020824,0.026982,0.019983,-0.17112,-0.0074488,0.058579,-0.0032991,0.029285,0.011953,-0.010041,0.030313,-1.0717,0.53735,0.1135,-1.3598,0.24165,1.6994,-0.030272,0.12787,-0.014752,-0.007561,0.34042,0.33666
0.0053314,0.022472,0.03361,0.016397,-0.16044,-0.0025611,0.054856,-0.0040213,0.030067,0.012324,-0.015826,0.027105,-1.182,0.31606,0.36286,-1.2069,0.19164,1.4677,-0.18566,0.081017,0.012382,0.0013163,0.3817,0.45355
-0.00082366,0.023469,0.041924,0.011969,-0.14417,0.0022834,0.052977,-0.00067261,0.029865,0.012893,-0.022322,0.021095,-1.2714,0.1021,0.58497,-1.119,0.14802,1.2769,-0.31869,0.035405,0.034202,0.013906,0.45129,0.53883
-0.007699,0.025114,0.047559,0.0085274,-0.12575,0.0061111,0.055971,0.0040891,0.026368,0.011021,-0.027096,0.016006,-1.328,-0.063183,0.75181,-1.0204,0.11885,1.1212,-0.41844,-0.00037198,0.047496,0.024455,0.53213,0.59374
-0.013233,0.026831,0.048804,0.0076629,-0.10651,0.0099279,0.063091,0.007654,0.01886,0.0047779,-0.0293,0.015252,-1.3567,-0.16135,0.83416,-0.8428,0.10366,0.95908,-0.49379,-0.025416,0.054975,0.028981,0.59769,0.63052
-0.015904,0.026497,0.047359,0.010352,-0.084685,0.015082,0.069873,0.0090934,0.009504,-0.0057287,-0.030705,0.019533,-1.3738,-0.20288,0.80949,-0.58249,0.095207,0.74912,-0.56552,-0.046733,0.06174,0.028139,0.62922,0.66332
-0.016086,0.022748,0.046059,0.016104,-0.058427,0.021031,0.071683,0.0088305,0.0022555,-0.018117,-0.034293,0.026333,-1.3919,-0.21861,0.67633,-0.30102,0.085916,0.49211,-0.65061,-0.073573,0.07021,0.02646,0.62738,0.69658
-0.016127,0.017091,0.046043,0.022341,-0.029796,0.025159,0.06777,0.0074213,2.9232e-005,-0.028532,-0.041414,0.031637,-1.4075,-0.24052,0.46094,-0.078713,0.073027,0.24123,-0.74907,-0.1103,0.077946,0.028516,0.60983,0.71891
-0.018756,0.013612,0.046034,0.025315,-0.0054576,0.02532,0.062266,0.0051715,0.0024298,-0.033068,-0.049853,0.032578,-1.4012,-0.28269,0.20659,0.032272,0.058723,0.069538,-0.84046,-0.15279,0.079873,0.034965,0.59653,0.70723
-0.024838,0.016217,0.044026,0.022751,0.0072815,0.022737,0.061211,0.0029928,0.0060273,-0.029224,-0.054564,0.029198,-1.3511,-0.33397,-0.049062,0.02168,0.046727,0.020582,-0.8908,-0.19021,0.072764,0.041546,0.59331,0.64036
-0.032307,0.025698,0.039324,0.016246,0.006128,0.022035,0.068112,0.0031421,0.0070369,-0.01676,-0.050712,0.024252,-1.2467,-0.36677,-0.29014,-0.090591,0.03991,0.082612,-0.86576,-0.20996,0.058495,0.041841,0.58511,0.51484
-0.037374,0.039185,0.032912,0.010866,-0.0037132,0.027705,0.081694,0.0083084,0.0042475,0.0024563,-0.036946,0.021333,-1.0934,-0.35656,-0.51804,-0.25971,0.041278,0.20513,-0.74455,-0.20254,0.044142,0.031791,0.54393,0.35379
-0.037327,0.052337,0.026135,0.011338,-0.012728,0.039921,0.097457,0.01923,-0.00012213,0.025389,-0.016656,0.022583,-0.90513,-0.29948,-0.73013,-0.40146,0.055929,0.33922,-0.5299,-0.16443,0.039401,0.012772,0.44638,0.20151
-0.032724,0.062252,0.019435,0.017613,-0.01381,0.053754,0.11143,0.032935,-0.0022146,0.048911,0.0036383,0.027421,-0.69528,-0.21671,-0.90212,-0.38383,0.089755,0.46452,-0.24994,-0.099313,0.052997,-0.0088487,0.28969,0.10411
-0.027038,0.068619,0.012499,0.023875,-0.0073207,0.062964,0.12284,0.0437,0.00054284,0.070417,0.017737,0.033033,-0.4769,-0.14279,-0.99345,-0.062715,0.14404,0.58231,0.049524,-0.01797,0.089432,-0.025225,0.095931,0.084997
-0.023778,0.072522,0.005381,0.022652,-0.00045418,0.065221,0.13377,0.046616,0.0076331,0.087934,0.022962,0.036267,-0.27199,-0.10564,-0.97516,0.63649,0.21034,0.68889,0.32025,0.063795,0.14669,-0.031213,-0.098254,0.12947
-0.023391,0.074506,-0.00099848,0.011189,-0.0013783,0.064014,0.14634,0.041156,0.015952,0.10017,0.021261,0.035627,-0.11643,-0.11116,-0.85834,1.6435,0.27156,0.76145,0.52761,0.12998,0.21541,-0.026651,-0.26001,0.18904
-0.022691,0.073929,-0.0057149,-0.0053579,-0.012767,0.065322,0.16022,0.031758,0.021982,0.10674,0.017645,0.031946,-0.047432,-0.14189,-0.69789,2.7426,0.31025,0.77309,0.65943,0.1708,0.28047,-0.015658,-0.37524,0.20436
-0.017586,0.070067,-0.0090392,-0.017138,-0.0298,0.071956,0.17242,0.024687,0.023905,0.10838,0.016952,0.027289,-0.076701,-0.16969,-0.56538,3.6686,0.3187,0.72074,0.7235,0.18701,0.3254,-0.0038114,-0.4512,0.13289
-0.0069246,0.063573,-0.012361,-0.017056,-0.044072,0.080774,0.17955,0.023527,0.022251,0.10669,0.020883,0.023097,-0.17165,-0.17318,-0.50957,4.2442,0.3026,0.63361,0.73671,0.18852,0.33865,0.0049296,-0.50614,-0.035715
0.0059105,0.056612,-0.016565,-0.0063383,-0.05005,0.085477,0.18049,0.026843,0.018959,0.10344,0.027113,0.019263,-0.26745,-0.14914,-0.53295,4.4612,0.27523,0.54784,0.7135,0.18729,0.31896,0.009931,-0.55422,-0.28387
0.015281,0.051414,-0.020491,0.006649,-0.048735,0.082579,0.17714,0.029747,0.015869,0.099824,0.031019,0.014954,-0.30913,-0.11194,-0.59896,4.4479,0.24679,0.46778,0.66046,0.18915,0.27654,0.013655,-0.59682,-0.58216
0.017672,0.048582,-0.021393,0.013414,-0.04563,0.075158,0.17284,0.027866,0.013787,0.096277,0.028985,0.010294,-0.29343,-0.083725,-0.66031,4.3498,0.21757,0.352,0.57844,0.19045,0.22854,0.019961,-0.62576,-0.90209
0.014445,0.046745,-0.017471,0.012179,-0.044893,0.070861,0.16981,0.020319,0.012564,0.092877,0.021174,0.0070098,-0.27386,-0.082407,-0.68528,4.2208,0.18015,0.14219,0.46855,0.18205,0.19062,0.031955,-0.63414,-1.2165
0.010588,0.043855,-0.010258,0.008671,-0.044737,0.075759,0.16777,0.0093515,0.011769,0.089886,0.011902,0.0071434,-0.31954,-0.11329,-0.66618,4.0089,0.12803,-0.18591,0.33713,0.1574,0.16929,0.050385,-0.62455,-1.4931
0.010642,0.038965,-0.0043489,0.010374,-0.037971,0.089306,0.16482,-0.0026225,0.011195,0.087932,0.0071863,0.010955,-0.45861,-0.16655,-0.61162,3.639,0.062809,-0.593,0.19731,0.11814,0.15955,0.073218,-0.6072,-1.6934
0.015383,0.032981,-0.0040937,0.019572,-0.017216,0.10471,0.15957,-0.015596,0.010828,0.087715,0.010905,0.016241,-0.65346,-0.21984,-0.53563,3.1148,-0.0058948,-0.99518,0.067055,0.073059,0.14931,0.096435,-0.59002,-1.7844
0.021957,0.027839,-0.0098123,0.031392,0.019455,0.11429,0.15236,-0.03168,0.010535,0.089513,0.022049,0.020019,-0.82952,-0.2456,-0.45287,2.5461,-0.067146,-1.3171,-0.035085,0.031867,0.128,0.11548,-0.57035,-1.7552
0.026881,0.024913,-0.016892,0.038352,0.06679,0.11529,0.14468,-0.052258,0.0099698,0.092792,0.035029,0.021094,-0.93389,-0.22251,-0.3782,2.076,-0.11582,-1.5363,-0.095418,-0.0008191,0.093516,0.1266,-0.53659,-1.6249
0.028863,0.024042,-0.018984,0.037057,0.11551,0.11144,0.13742,-0.075331,0.0089194,0.096142,0.043076,0.020839,-0.97429,-0.14787,-0.32429,1.7718,-0.15439,-1.6843,-0.11012,-0.026643,0.053277,0.12743,-0.479,-1.4345
0.029037,0.023915,-0.012974,0.030965,0.15756,0.10928,0.13022,-0.095674,0.0077545,0.097588,0.042597,0.021196,-1.0077,-0.043988,-0.2964,1.5697,-0.18871,-1.8083,-0.087326,-0.04984,0.018603,0.117,-0.40016,-1.2285
0.029033,0.023396,-0.0016539,0.027021,0.18955,0.1127,0.12256,-0.10784,0.0073743,0.09529,0.035519,0.021826,-1.093,0.048012,-0.28987,1.3204,-0.22177,-1.9277,-0.044355,-0.072719,-0.0032041,0.095529,-0.3154,-1.0418
0.029306,0.022587,0.0083177,0.029499,0.21271,0.12026,0.11562,-0.10947,0.0084155,0.08835,0.027924,0.019578,-1.2514,0.087239,-0.29454,0.89403,-0.25074,-2.0218,-0.0006901,-0.094241,-0.01338,0.064469,-0.24284,-0.89723
0.029369,0.022683,0.011612,0.036621,0.23012,0.12694,0.11271,-0.10212,0.010232,0.077213,0.025861,0.011352,-1.4649,0.055171,-0.30182,0.26149,-0.26898,-2.0542,0.029566,-0.11215,-0.019614,0.026807,-0.19137,-0.80874
0.0292,0.024779,0.0082989,0.042584,0.24379,0.12856,0.11723,-0.089136,0.010626,0.063217,0.031286,-0.0020998,-1.7047,-0.033105,-0.30635,-0.50246,-0.27093,-2.0076,0.04169,-0.1259,-0.02936,-0.01295,-0.15675,-0.77859
0.029788,0.028712,0.0033659,0.042715,0.25331,0.12483,0.12966,-0.072908,0.006938,0.047528,0.041007,-0.015331,-1.9542,-0.13696,-0.30043,-1.279,-0.25598,-1.8999,0.039333,-0.13728,-0.044128,-0.049445,-0.12779,-0.78646
0.031996,0.033061,0.0022123,0.03708,0.25642,0.11895,0.14641,-0.053986,-0.0019539,0.030381,0.049229,-0.021755,-2.2034,-0.21309,-0.27072,-1.9699,-0.2289,-1.7702,0.030426,-0.1484,-0.059421,-0.077717,-0.096282,-0.78411
0.035074,0.036361,0.0061343,0.029787,0.25093,0.11441,0.16193,-0.032697,-0.014179,0.011446,0.05162,-0.018857,-2.4259,-0.2383,-0.20693,-2.5223,-0.19688,-1.651,0.023025,-0.15914,-0.070074,-0.094474,-0.061952,-0.71028
0.03682,0.038404,0.011746,0.025273,0.23674,0.11207,0.17236,-0.011123,-0.025327,-0.0088848,0.047872,-0.010478,-2.5696,-0.21722,-0.12016,-2.919,-0.16569,-1.5529,0.022563,-0.16638,-0.076006,-0.098848,-0.029948,-0.52512
0.035599,0.040298,0.014629,0.025054,0.21686,0.10986,0.17786,0.0070584,-0.030895,-0.028565,0.041143,-0.0039611,-2.5786,-0.17127,-0.05333,-3.1685,-0.13757,-1.4702,0.030226,-0.16575,-0.082977,-0.092396,-0.005422,-0.24122
0.032258,0.04306,0.013629,0.027373,0.19646,0.10512,0.18129,0.019159,-0.029169,-0.044457,0.035282,-0.0044776,-2.4311,-0.11846,-0.067749,-3.3156,-0.11166,-1.3978,0.042248,-0.15423,-0.09737,-0.078511,0.0087554,0.076284
0.029779,0.045999,0.011763,0.029283,0.17995,0.09738,0.18481,0.026076,-0.022395,-0.054216,0.032223,-0.011306,-2.1566,-0.060009,-0.20861,-3.457,-0.086434,-1.34,0.051113,-0.13167,-0.11954,-0.061429,0.0098904,0.34755
0.030705,0.046577,0.013021,0.028914,0.16798,0.089335,0.18746,0.032094,-0.015226,-0.057892,0.031331,-0.018933,-1.8189,0.016165,-0.47321,-3.7303,-0.061766,-1.3028,0.049571,-0.1004,-0.14188,-0.044999,-0.0070332,0.52821
0.034675,0.042235,0.018309,0.02623,0.15664,0.085213,0.18602,0.04158,-0.011565,-0.057723,0.030663,-0.02162,-1.4772,0.11884,-0.80659,-4.265,-0.039069,-1.2796,0.035932,-0.06367,-0.15378,-0.031452,-0.047945,0.63254
0.038457,0.03285,0.02453,0.022307,0.14014,0.087741,0.17834,0.055312,-0.012214,-0.056181,0.028701,-0.01739,-1.1619,0.23795,-1.1281,-5.117,-0.019665,-1.2479,0.016768,-0.024228,-0.14974,-0.020665,-0.11454,0.71001
0.038463,0.021736,0.027668,0.01829,0.11529,0.095975,0.16588,0.069834,-0.015067,-0.053996,0.025206,-0.0084814,-0.87897,0.34414,-1.3678,-6.2247,-0.003021,-1.1838,0.0038831,0.016058,-0.13373,-0.010501,-0.19972,0.79559
0.03339,0.014135,0.026779,0.014884,0.084244,0.10554,0.15315,0.080555,-0.017402,-0.049999,0.02093,0.0012301,-0.63353,0.40535,-1.4879,-7.415,0.013437,-1.0835,0.0066157,0.05576,-0.11601,0.0017195,-0.2878,0.8788
0.024639,0.014089,0.024935,0.012363,0.053069,0.11112,0.14455,0.085835,-0.018107,-0.042933,0.016836,0.009036,-0.44163,0.40799,-1.4805,-8.4517,0.032865,-0.97231,0.024841,0.093488,-0.10493,0.017414,-0.35955,0.92011
0.014509,0.021889,0.02615,0.010698,0.027246,0.10945,0.14129,0.088239,-0.017964,-0.033533,0.013587,0.014177,-0.32069,0.36546,-1.3574,-9.1076,0.05741,-0.89072,0.048264,0.12813,-0.10065,0.035813,-0.39915,0.89923
0.0043306,0.033814,0.031293,0.0096487,0.0079167,0.10088,0.14089,0.091737,-0.018083,-0.024848,0.01147,0.016813,-0.27106,0.30642,-1.1445,-9.2334,0.087934,-0.86661,0.063059,0.15951,-0.096045,0.054564,-0.39925,0.84724
-0.005546,0.044245,0.036988,0.0089588,-0.0078465,0.088678,0.13945,0.097542,-0.018337,-0.020373,0.010502,0.016986,-0.27192,0.25235,-0.88407,-8.8055,0.12486,-0.89459,0.061151,0.18869,-0.083909,0.071334,-0.36282,0.82736
-0.014301,0.048729,0.038635,0.0086223,-0.023297,0.076874,0.13449,0.1027,-0.017471,-0.021548,0.010493,0.014799,-0.29775,0.20309,-0.62875,-7.941,0.16856,-0.93944,0.04534,0.21711,-0.063893,0.085139,-0.30146,0.87794
-0.01991,0.046147,0.034713,0.008901,-0.038563,0.068239,0.12641,0.10314,-0.01469,-0.026737,0.011109,0.011282,-0.33927,0.14278,-0.4209,-6.8669,0.21825,-0.96077,0.026693,0.24503,-0.043062,0.096479,-0.23057,0.97117
-0.020544,0.038847,0.028278,0.0098727,-0.050857,0.063531,0.11788,0.098484,-0.01093,-0.032497,0.012034,0.00849,-0.40775,0.060308,-0.27013,-5.8432,0.27026,-0.93979,0.016583,0.2704,-0.029439,0.1065,-0.1626,1.0312
-0.016921,0.030848,0.024209,0.010854,-0.057959,0.061949,0.11223,0.093999,-0.0082637,-0.036004,0.013141,0.0083176,-0.51872,-0.034539,-0.1511,-5.0609,0.3179,-0.88836,0.019492,0.28932,-0.024391,0.11604,-0.10105,1.0018
-0.012879,0.02531,0.024762,0.010421,-0.061347,0.062001,0.11205,0.097239,-0.0078795,-0.036675,0.014423,0.011044,-0.67048,-0.11396,-0.029322,-4.5633,0.35374,-0.83586,0.031528,0.29821,-0.02084,0.12521,-0.039737,0.90391
-0.012832,0.022805,0.027519,0.00735,-0.065741,0.062164,0.11847,0.11182,-0.0086976,-0.035897,0.015655,0.015134,-0.83542,-0.15123,0.10432,-4.2416,0.37311,-0.80687,0.044791,0.29627,-0.0091909,0.13345,0.030957,0.82773
-0.018016,0.021454,0.027574,0.0018564,-0.075481,0.061272,0.13066,0.13374,-0.008213,-0.035445,0.016197,0.018621,-0.96852,-0.13855,0.22093,-3.9168,0.37564,-0.80808,0.053373,0.28634,0.014061,0.13955,0.11412,0.86057
-0.025102,0.018762,0.021963,-0.0040418,-0.091277,0.058773,0.1456,0.15374,-0.0049329,-0.036112,0.015371,0.020783,-1.0245,-0.088566,0.27538,-3.4587,0.36364,-0.8326,0.056264,0.27316,0.042557,0.14185,0.20023,1.0102
-0.028934,0.013771,0.012441,-0.0076617,-0.11034,0.054763,0.1585,0.16422,-6.4241e-006,-0.03754,0.013297,0.022467,-0.97457,-0.020713,0.24349,-2.8597,0.33886,-0.87465,0.055709,0.26015,0.064441,0.13883,0.27118,1.1908
-0.027188,0.0078284,0.0043178,-0.0075558,-0.12938,0.049563,0.16445,0.16499,0.003742,-0.038972,0.011392,0.024794,-0.82166,0.052017,0.14157,-2.2066,0.30076,-0.94019,0.053522,0.247,0.071067,0.13027,0.31292,1.2858
-0.02264,0.0033255,0.0024967,-0.0045599,-0.14722,0.042945,0.16103,0.16293,0.004608,-0.039899,0.011712,0.027652,-0.61053,0.12272,0.012799,-1.5721,0.24811,-1.0447,0.04909,0.23018,0.062692,0.11801,0.32774,1.2344
-0.020657,0.0014461,0.0079773,-0.00094604,-0.16442,0.033679,0.15028,0.16591,0.0038717,-0.039986,0.015364,0.029633,-0.4243,0.17912,-0.10333,-0.91458,0.18215,-1.2015,0.040532,0.20634,0.046821,0.10547,0.33572,1.071
-0.024019,0.00092051,0.017378,0.0016554,-0.18082,0.020036,0.13815,0.17612,0.004684,-0.038644,0.021249,0.029527,-0.35521,0.19661,-0.18779,-0.076174,0.10821,-1.4102,0.027128,0.17584,0.031381,0.095643,0.36242,0.88663
-0.029921,-0.0010097,0.025435,0.003666,-0.19405,0.0011448,0.13126,0.18856,0.0088346,-0.035032,0.026454,0.027798,-0.45516,0.14746,-0.23144,1.1043,0.033861,-1.6554,0.0099261,0.14341,0.019022,0.089171,0.42052,0.74966
-0.032205,-0.0061479,0.028354,0.006937,-0.20095,-0.02176,0.13271,0.19604,0.014541,-0.028786,0.028275,0.026368,-0.69655,0.021049,-0.21342,2.6419,-0.03487,-1.9141,-0.010448,0.11506,0.0069897,0.084019,0.49875,0.65259
-0.027002,-0.013555,0.025696,0.012674,-0.20027,-0.04528,0.14007,0.19598,0.01765,-0.020772,0.026302,0.026784,-0.97776,-0.16334,-0.097954,4.3357,-0.09595,-2.1666,-0.036447,0.093319,-0.0084643,0.077357,0.56715,0.52515
-0.01663,-0.02007,0.019938,0.019946,-0.19329,-0.065223,0.14712,0.19332,0.015414,-0.012966,0.022777,0.028599,-1.1786,-0.36477,0.14,5.8447,-0.1504,-2.4029,-0.073299,0.074832,-0.027932,0.068115,0.59623,0.29561
-0.0079815,-0.022758,0.014463,0.026258,-0.18081,-0.078618,0.14827,0.19696,0.0093806,-0.0072681,0.020793,0.029694,-1.2272,-0.54417,0.4809,6.8747,-0.19924,-2.6208,-0.12488,0.052634,-0.048642,0.058008,0.57755,-0.052986
-0.0067105,-0.021211,0.011502,0.029607,-0.15916,-0.085145,0.14228,0.21316,0.004538,-0.0041133,0.021809,0.028376,-1.1252,-0.68292,0.85232,7.3506,-0.2416,-2.8188,-0.18895,0.02137,-0.067489,0.05013,0.53166,-0.47208
-0.012403,-0.017731,0.011212,0.029926,-0.12012,-0.087224,0.13254,0.24135,0.0052633,-0.0021155,0.024577,0.025234,-0.91121,-0.78048,1.1597,7.4566,-0.27584,-2.9886,-0.25649,-0.018744,-0.083593,0.046403,0.49765,-0.87978
-0.0191,-0.015347,0.012133,0.028584,-0.056781,-0.088879,0.12384,0.27554,0.011586,0.00083109,0.026403,0.022877,-0.59828,-0.83542,1.3361,7.5049,-0.30242,-3.1121,-0.31668,-0.062506,-0.097741,0.046238,0.51048,-1.2022
-0.020586,-0.015444,0.012462,0.026657,0.02791,-0.094114,0.11842,0.30904,0.019039,0.0058155,0.025698,0.023659,-0.14948,-0.83097,1.3724,7.72,-0.3253,-3.1667,-0.36414,-0.10413,-0.10973,0.047615,0.58027,-1.3946
-0.015559,-0.017019,0.011249,0.024005,0.11708,-0.10557,0.11455,0.33804,0.022178,0.011993,0.023639,0.027407,0.47915,-0.74236,1.3087,8.0843,-0.34974,-3.1342,-0.402,-0.14138,-0.11689,0.049426,0.68602,-1.4419
-0.0081091,-0.01799,0.008856,0.020165,0.18533,-0.12387,0.10839,0.36129,0.018744,0.017295,0.023416,0.031197,1.263,-0.5621,1.1975,8.3546,-0.37803,-3.009,-0.43798,-0.17556,-0.11579,0.052638,0.78672,-1.3549
-0.0034847,-0.017204,0.0065598,0.015923,0.21169,-0.14776,0.097026,0.37713,0.011096,0.020178,0.027535,0.031409,2.0725,-0.32,1.0714,8.2385,-0.40693,-2.8,-0.47639,-0.20774,-0.10573,0.058916,0.84204,-1.173
-0.0034134,-0.015296,0.0056573,0.013547,0.19162,-0.17472,0.080014,0.3817,0.0041037,0.02089,0.035327,0.026359,2.7208,-0.076631,0.93897,7.6063,-0.42932,-2.5266,-0.51333,-0.2348,-0.090681,0.067897,0.8296,-0.96441
-0.0052754,-0.013786,0.0066074,0.015036,0.13942,-0.20164,0.058241,0.37027,0.0015064,0.021177,0.04285,0.017444,3.0675,0.10885,0.8003,6.5869,-0.43921,-2.2143,-0.5395,-0.24987,-0.07745,0.075884,0.75027,-0.80624
-0.0053826,-0.013456,0.0086602,0.019998,0.078623,-0.22543,0.031817,0.34082,0.0036289,0.02283,0.045531,0.0080656,3.101,0.21268,0.66299,5.4814,-0.43589,-1.8938,-0.54834,-0.24707,-0.071564,0.077713,0.62199,-0.74832
-0.0026882,-0.013588,0.010181,0.025393,0.027182,-0.24325,-0.00068845,0.29646,0.0077801,0.026544,0.041603,0.0013782,2.9343,0.25575,0.54023,4.5574,-0.42396,-1.6028,-0.54228,-0.22682,-0.074022,0.070635,0.46979,-0.78424
0.00074332,-0.012734,0.009562,0.027667,-0.011998,-0.25266,-0.040912,0.24464,0.010517,0.03216,0.033527,-0.001405,2.7169,0.28143,0.43779,3.8718,-0.40937,-1.3822,-0.53129,-0.19694,-0.081459,0.056956,0.31931,-0.85667
0.0025497,-0.010164,0.0062832,0.025425,-0.048847,-0.25209,-0.088738,0.19392,0.0098949,0.039816,0.026091,-0.001104,2.5288,0.32044,0.34664,3.2442,-0.39507,-1.2625,-0.52487,-0.16827,-0.089223,0.042918,0.19448,-0.89787
0.0028491,-0.0065792,0.0014621,0.020238,-0.094962,-0.24149,-0.14179,0.1505,0.0063262,0.050398,0.022692,0.00061288,2.3317,0.36997,0.25065,2.394,-0.37996,-1.2448,-0.52439,-0.14827,-0.094653,0.03446,0.1145,-0.87533
0.0039583,-0.0034771,-0.002601,0.014981,-0.15283,-0.22284,-0.19686,0.11659,0.0018679,0.064367,0.022944,0.0025327,2.0067,0.40038,0.14154,1.1439,-0.36161,-1.2915,-0.52229,-0.1376,-0.098121,0.033211,0.086706,-0.80699
0.007443,-0.0018712,-0.0037835,0.011406,-0.21363,-0.19971,-0.25178,0.090962,-0.0013401,0.07995,0.023704,0.0043537,1.4465,0.37978,0.026473,-0.44558,-0.33993,-1.3385,-0.50857,-0.13201,-0.10148,0.035933,0.098773,-0.73599
0.01176,-0.0015937,-0.0015828,0.0092364,-0.26408,-0.17572,-0.30575,0.070577,-0.0024793,0.092858,0.022513,0.0062304,0.63972,0.2956,-0.077366,-2.0909,-0.31823,-1.326,-0.47892,-0.12724,-0.10569,0.037626,0.11871,-0.68975
0.01313,-0.0017049,0.0024306,0.0074053,-0.29588,-0.15245,-0.35778,0.052445,-0.0024938,0.098622,0.020189,0.0081064,-0.30407,0.15891,-0.15353,-3.4332,-0.30069,-1.2296,-0.43791,-0.1225,-0.10957,0.035484,0.10737,-0.65989
0.0089638,-0.0014406,0.0056479,0.0059077,-0.30974,-0.12844,-0.40503,0.035128,-0.003268,0.095977,0.020022,0.0095684,-1.1945,-0.0055931,-0.19191,-4.227,-0.28881,-1.0708,-0.39502,-0.11996,-0.11055,0.030479,0.037748,-0.61765
0.00054844,-0.00075782,0.0063352,0.0062377,-0.31202,-0.099925,-0.44299,0.019569,-0.0059984,0.088252,0.024257,0.010324,-1.8394,-0.17115,-0.18812,-4.4667,-0.28002,-0.89907,-0.35718,-0.12133,-0.10648,0.025762,-0.092342,-0.54653
-0.0076004,-0.00012979,0.0050277,0.0098734,-0.30794,-0.0633,-0.46785,0.0087383,-0.0099008,0.081041,0.031268,0.010739,-2.1177,-0.31349,-0.14389,-4.3871,-0.2698,-0.76105,-0.32384,-0.12503,-0.096985,0.023873,-0.2635,-0.45927
-0.011169,-2.9004e-005,0.0042343,0.016277,-0.29763,-0.017519,-0.47932,0.0058672,-0.012407,0.077828,0.036327,0.011788,-2.0143,-0.41066,-0.072303,-4.3394,-0.25527,-0.67699,-0.288,-0.12659,-0.083809,0.025331,-0.45046,-0.38396
-0.0092292,-0.00067507,0.006511,0.022448,-0.27768,0.035488,-0.4813,0.012041,-0.011013,0.077328,0.035517,0.014302,-1.6037,-0.44599,-0.00034963,-4.6025,-0.23707,-0.64006,-0.24183,-0.1217,-0.070133,0.029237,-0.63611,-0.33446
-0.004554,-0.0021083,0.012295,0.02474,-0.24558,0.092871,-0.47952,0.024784,-0.0055032,0.074995,0.029245,0.018123,-1.0011,-0.41642,0.041835,-5.2186,-0.21809,-0.63278,-0.18262,-0.10923,-0.059652,0.034398,-0.81237,-0.2953
-0.00107,-0.0042084,0.019245,0.021601,-0.20259,0.15393,-0.47777,0.03894,0.0013197,0.067384,0.022065,0.021913,-0.30935,-0.33929,0.043786,-5.9437,-0.20035,-0.64383,-0.11465,-0.091612,-0.055742,0.03931,-0.96997,-0.23642
-0.00080616,-0.0064503,0.023773,0.015009,-0.15287,0.22148,-0.47574,0.049544,0.0052724,0.055379,0.0189,0.023919,0.40509,-0.2484,0.031255,-6.3498,-0.1832,-0.67184,-0.046188,-0.072565,-0.060604,0.041194,-1.0906,-0.14445
-0.0027399,-0.0077176,0.023708,0.0092864,-0.10029,0.29997,-0.47008,0.05478,0.0037231,0.043415,0.02109,0.023177,1.101,-0.1782,0.055945,-6.0427,-0.16431,-0.71604,0.016126,-0.054049,-0.074353,0.035969,-1.1525,-0.041126
-0.0041045,-0.0066687,0.019978,0.0080416,-0.046304,0.39094,-0.45787,0.056851,-0.0024825,0.035519,0.025747,0.020269,1.7326,-0.1456,0.15804,-4.8884,-0.14239,-0.76493,0.071432,-0.035043,-0.09443,0.020447,-1.1457,0.028873
-0.0027949,-0.0026594,0.015886,0.011522,0.0095218,0.48924,-0.43965,0.060082,-0.0096631,0.031951,0.028718,0.017019,2.2349,-0.14201,0.32801,-3.1184,-0.1189,-0.79356,0.12438,-0.012873,-0.11594,-0.0044069,-1.0814,0.031478
0.00099704,0.0034565,0.014484,0.016418,0.067281,0.58267,-0.41954,0.067616,-0.013969,0.029406,0.028165,0.015327,2.5427,-0.14075,0.50156,-1.2443,-0.096992,-0.77247,0.18066,0.014117,-0.13306,-0.032133,-0.98509,-0.029548
0.0048878,0.0094512,0.016232,0.018361,0.12518,0.65577,-0.40266,0.079127,-0.013898,0.024335,0.025478,0.01597,2.6355,-0.11372,0.59849,0.184,-0.078644,-0.68175,0.24135,0.044713,-0.14093,-0.053406,-0.876,-0.1134
0.0058664,0.012897,0.018936,0.015239,0.17994,0.69532,-0.39225,0.091268,-0.010764,0.016078,0.023123,0.018225,2.5728,-0.045308,0.57903,0.84609,-0.06279,-0.52175,0.30035,0.075129,-0.1371,-0.061385,-0.75287,-0.16907
0.0022915,0.012625,0.019978,0.008798,0.22859,0.69433,-0.3887,0.1005,-0.0070922,0.0070287,0.021965,0.020531,2.4881,0.064441,0.47344,0.79221,-0.046311,-0.31401,0.34676,0.10105,-0.122,-0.055919,-0.59903,-0.16624
-0.0048081,0.0094121,0.018795,0.0032607,0.26964,0.65314,-0.39068,0.10618,-0.0045881,1.1598e-005,0.020856,0.021655,2.5342,0.20637,0.35935,0.37605,-0.027158,-0.091804,0.37099,0.11977,-0.098658,-0.043236,-0.40328,-0.10776
-0.011955,0.0054098,0.017322,0.0020372,0.30284,0.57842,-0.39656,0.11144,-0.0033684,-0.0043618,0.018631,0.02148,2.8079,0.37097,0.30424,0.021413,-0.0066929,0.11525,0.37021,0.13091,-0.072003,-0.031291,-0.17799,-0.018543
-0.015113,0.0028153,0.017996,0.0051251,0.32792,0.48186,-0.40445,0.12112,-0.002734,-0.0078692,0.016091,0.020916,3.2938,0.55198,0.31948,-0.035751,0.011119,0.29417,0.34918,0.13548,-0.047794,-0.024489,0.041487,0.075644
-0.012339,0.002751,0.021234,0.0092342,0.34383,0.37862,-0.41175,0.13796,-0.0023252,-0.012467,0.015573,0.021125,3.861,0.74361,0.36341,0.12608,0.023158,0.45095,0.31625,0.13445,-0.031081,-0.02194,0.21451,0.16128
-0.0054172,0.005008,0.02482,0.010472,0.34931,0.28427,-0.41601,0.15999,-0.0024141,-0.018034,0.018397,0.022716,4.3147,0.93564,0.38893,0.19284,0.030213,0.5998,0.27772,0.12782,-0.024417,-0.020291,0.31394,0.23484
0.0010491,0.0085192,0.025828,0.0073956,0.34411,0.20981,-0.41763,0.181,-0.0032239,-0.02229,0.022884,0.025452,4.479,1.1122,0.39325,-0.15283,0.036666,0.74677,0.23542,0.11501,-0.026707,-0.018259,0.33164,0.29269
0.0028618,0.011959,0.023311,0.0020461,0.3295,0.15684,-0.42207,0.19381,-0.0042704,-0.022878,0.025337,0.028469,4.2702,1.2562,0.42556,-0.99149,0.046727,0.88074,0.18916,0.095747,-0.033688,-0.018641,0.27178,0.32644
-0.0005567,0.014058,0.019197,-0.0017029,0.30728,0.11686,-0.43792,0.19401,-0.0046361,-0.019547,0.023435,0.0307,3.7267,1.3557,0.54476,-2.07,0.060288,0.98085,0.14171,0.070846,-0.040071,-0.025945,0.14481,0.32903
-0.0057005,0.013758,0.016523,-0.0009986,0.27826,0.0767,-0.47051,0.18159,-0.0039682,-0.014347,0.01885,0.031262,2.9841,1.4077,0.76238,-2.9136,0.072111,1.0358,0.10125,0.042364,-0.042153,-0.041737,-0.02888,0.30477
-0.0079396,0.010553,0.016615,0.0041816,0.24206,0.027316,-0.51544,0.15967,-0.0030714,-0.0097226,0.016241,0.029822,2.2149,1.4159,1.0189,-3.0876,0.075451,1.0589,0.078811,0.013323,-0.03921,-0.061881,-0.21151,0.27116
-0.0055408,0.0050025,0.017832,0.011434,0.19867,-0.030222,-0.55829,0.13183,-0.0032749,-0.006344,0.0191,0.02691,1.5679,1.3854,1.2143,-2.4545,0.067451,1.0849,0.082515,-0.012731,-0.032889,-0.078255,-0.35153,0.24706
-0.0012166,-0.0010965,0.017038,0.01785,0.15056,-0.08629,-0.58244,0.10041,-0.0050425,-0.0027109,0.026092,0.023843,1.1379,1.3188,1.2705,-1.2703,0.052025,1.1473,0.11329,-0.032286,-0.025339,-0.083745,-0.40442,0.23428
0.00028694,-0.0053998,0.012508,0.021757,0.10284,-0.13055,-0.57958,0.066973,-0.0072152,0.0031715,0.031507,0.021969,0.96762,1.2177,1.1773,-0.05359,0.037832,1.2542,0.16553,-0.04256,-0.017717,-0.076584,-0.35782,0.20707
-0.0035187,-0.0063771,0.0056799,0.023076,0.060809,-0.15965,-0.55439,0.033956,-0.0078036,0.011673,0.029877,0.021539,1.0629,1.0871,0.99137,0.69839,0.032829,1.3819,0.23151,-0.042186,-0.010167,-0.060707,-0.23863,0.11976
-0.01055,-0.0044016,0.0001921,0.02251,0.026678,-0.17855,-0.51876,0.0055309,-0.0057495,0.020957,0.02094,0.021246,1.3945,0.93776,0.79224,0.77003,0.039483,1.492,0.30528,-0.031556,-0.0030199,-0.042189,-0.092064,-0.069946
-0.015909,-0.0016056,-0.0009891,0.020651,-0.0012113,-0.19495,-0.48049,-0.013491,-0.0020221,0.028428,0.010481,0.0192,1.8846,0.78351,0.6326,0.30149,0.054005,1.5602,0.38283,-0.012684,0.0020834,-0.024915,0.052755,-0.37554
-0.0161,-0.00044534,0.0020594,0.017857,-0.025708,-0.21227,-0.43634,-0.020016,0.0010767,0.032837,0.0060117,0.014794,2.4002,0.63259,0.51776,-0.36159,0.069672,1.5929,0.45935,0.01119,0.0022697,-0.0089722,0.20127,-0.769
-0.011928,-0.0020179,0.0062904,0.014757,-0.047002,-0.2275,-0.37576,-0.014409,0.0018745,0.035129,0.010729,0.0097242,2.7829,0.48052,0.42222,-0.92306,0.081331,1.6197,0.52786,0.035998,-0.0051234,0.0074002,0.37854,-1.1876
-0.0075925,-0.0054378,0.0080988,0.01257,-0.061502,-0.23551,-0.29196,-0.0003127,0.0008021,0.037331,0.020745,0.0068366,2.9139,0.30994,0.32305,-1.3061,0.087772,1.6676,0.58161,0.057371,-0.020528,0.024634,0.59233,-1.5549
-0.006986,-0.0087215,0.0060837,0.012624,-0.06509,-0.23516,-0.19016,0.017104,1.3731e-005,0.040555,0.027859,0.0074992,2.7792,0.0997,0.22142,-1.622,0.090853,1.7379,0.61838,0.071628,-0.04069,0.040599,0.8069,-1.805
-0.01053,-0.010375,0.0019665,0.015368,-0.058139,-0.23141,-0.085428,0.033003,0.001473,0.043879,0.025575,0.0099421,2.4805,-0.16163,0.13871,-1.9843,0.092886,1.8023,0.64179,0.077116,-0.05869,0.052385,0.95324,-1.899
-0.015128,-0.010356,-0.00096368,0.019774,-0.047528,-0.2315,0.0076648,0.043773,0.0052199,0.045047,0.013601,0.010453,2.1753,-0.46622,0.096133,-2.3369,0.094649,1.8199,0.65659,0.074965,-0.065855,0.059117,0.97083,-1.831
-0.016888,-0.0097508,-0.00052809,0.023789,-0.043106,-0.23901,0.084313,0.047145,0.0093645,0.042324,-0.0024014,0.0066836,1.9754,-0.78776,0.097396,-2.444,0.095229,1.7614,0.66089,0.068329,-0.055152,0.062779,0.84821,-1.6267
-0.014066,-0.009665,0.0026991,0.025611,-0.051005,-0.25129,0.14963,0.042396,0.011775,0.035962,-0.015111,6.268e-005,1.8777,-1.0925,0.12817,-2.0508,0.093076,1.623,0.64255,0.060259,-0.02473,0.065993,0.62961,-1.3363
-0.0079516,-0.010401,0.0060027,0.024814,-0.069241,-0.26228,0.21077,0.030872,0.011911,0.028118,-0.020337,-0.0051364,1.7765,-1.3533,0.17015,-1.082,0.086953,1.4241,0.58471,0.051792,0.020378,0.068891,0.38287,-1.0255
-0.0015487,-0.011524,0.0067766,0.022403,-0.089414,-0.2678,0.26927,0.01606,0.011158,0.021382,-0.018898,-0.00548,1.5509,-1.5585,0.21639,0.27852,0.076131,1.1939,0.47823,0.041875,0.069839,0.068395,0.15599,-0.76228
0.0023778,-0.012479,0.0045551,0.019804,-0.10317,-0.26832,0.3208,0.0023056,0.011419,0.017147,-0.014866,-0.0015048,1.1593,-1.7097,0.27483,1.6847,0.060294,0.95896,0.33199,0.029158,0.11247,0.061105,-0.042365,-0.60125
0.0023748,-0.013028,0.0012574,0.017652,-0.10804,-0.26703,0.36156,-0.007476,0.013296,0.015072,-0.012048,0.0026391,0.6707,-1.8113,0.35696,2.815,0.039789,0.73788,0.17237,0.013873,0.14104,0.047292,-0.22644,-0.5692
-0.0016895,-0.0132,-0.00044214,0.015404,-0.10801,-0.2655,0.39379,-0.013411,0.015536,0.01394,-0.011424,0.0027705,0.20983,-1.8612,0.46018,3.5109,0.016103,0.54125,0.030893,-0.0021019,0.1544,0.031979,-0.40067,-0.65655
-0.0089011,-0.013094,0.00076248,0.012023,-0.10867,-0.26117,0.42441,-0.017996,0.016222,0.013068,-0.011053,-0.0017759,-0.13797,-1.8503,0.55743,3.7842,-0.0082751,0.37285,-0.071965,-0.017018,0.15566,0.021364,-0.54303,-0.81928
-0.01736,-0.012897,0.0038776,0.0070858,-0.11148,-0.24886,0.45808,-0.02333,0.014592,0.012942,-0.00809,-0.0078354,-0.38915,-1.7722,0.60364,3.7296,-0.031059,0.23015,-0.13572,-0.030926,0.14804,0.01727,-0.61864,-0.99193
-0.024394,-0.013031,0.0065349,0.001357,-0.11204,-0.22495,0.49213,-0.028399,0.011789,0.014481,-0.0012866,-0.011482,-0.64635,-1.635,0.55762,3.4388,-0.051645,0.10784,-0.17585,-0.04533,0.13176,0.014562,-0.60815,-1.1083
-0.027511,-0.013951,0.0069291,-0.0035504,-0.10371,-0.1905,0.51885,-0.028782,0.0098685,0.017573,0.0077184,-0.011517,-1.0201,-1.4632,0.40692,2.9843,-0.071297,0.0069217,-0.21078,-0.061039,0.1042,0.004283,-0.52283,-1.1235
-0.025876,-0.015584,0.0051546,-0.0060698,-0.083119,-0.15103,0.53317,-0.019332,0.0099895,0.020304,0.015092,-0.010172,-1.5458,-1.2852,0.17957,2.4537,-0.091415,-0.054773,-0.25005,-0.076426,0.062786,-0.01974,-0.39303,-1.0279
-0.021141,-0.016993,0.0029053,-0.0054551,-0.05287,-0.11345,0.53809,0.002073,0.011454,0.019831,0.017032,-0.010523,-2.1499,-1.1146,-0.066017,1.9669,-0.11124,-0.041777,-0.29161,-0.088122,0.0081492,-0.056292,-0.24415,-0.84589
-0.016625,-0.016924,0.0019284,-0.002068,-0.019548,-0.082363,0.54238,0.032542,0.012467,0.014384,0.01214,-0.013238,-2.6832,-0.94095,-0.26818,1.6314,-0.12741,0.081826,-0.32865,-0.093833,-0.055049,-0.09801,-0.084959,-0.61797
-0.015126,-0.014984,0.002665,0.0027542,0.010918,-0.058342,0.5528,0.065482,0.011872,0.0047845,0.0024338,-0.015766,-2.9943,-0.74137,-0.38969,1.4672,-0.13639,0.32189,-0.35877,-0.094737,-0.11968,-0.13713,0.081716,-0.37404
-0.017002,-0.012313,0.0042395,0.0070824,0.036364,-0.038549,0.56841,0.094306,0.010237,-0.0059104,-0.0076997,-0.014735,-3.0022,-0.50488,-0.42939,1.3765,-0.13795,0.62995,-0.3874,-0.095067,-0.17863,-0.17044,0.24119,-0.11526
-0.020122,-0.01086,0.0056269,0.009022,0.057724,-0.019069,0.58209,0.11595,0.0092741,-0.014438,-0.014012,-0.0092492,-2.7326,-0.2508,-0.4128,1.2007,-0.13625,0.90791,-0.4231,-0.098906,-0.2265,-0.19914,0.36526,0.18252
-0.02179,-0.011699,0.006698,0.0075668,0.076013,0.0025255,0.5875,0.13183,0.010189,-0.019387,-0.014785,-0.0019647,-2.3049,-0.023278,-0.37076,0.83303,-0.137,1.0487,-0.46896,-0.10677,-0.26014,-0.22414,0.43195,0.54241
-0.021058,-0.013938,0.0080393,0.0033139,0.090329,0.025545,0.58389,0.1458,0.012538,-0.021623,-0.011554,0.0030815,-1.8782,0.13534,-0.32229,0.29767,-0.14279,0.99344,-0.51791,-0.11488,-0.27895,-0.24201,0.44691,0.95306
-0.01947,-0.015391,0.0097861,-0.0016087,0.098912,0.046272,0.57434,0.16054,0.014689,-0.022897,-0.0077612,0.0038975,-1.5806,0.21147,-0.27148,-0.27142,-0.15096,0.76746,-0.55592,-0.11796,-0.28568,-0.24609,0.44138,1.3515
-0.019641,-0.014551,0.010848,-0.0047133,0.10192,0.059891,0.55931,0.17487,0.015401,-0.024117,-0.006309,0.0020454,-1.4585,0.22544,-0.21717,-0.73831,-0.15653,0.46707,-0.57106,-0.11343,-0.28723,-0.23259,0.44401,1.6382
-0.022876,-0.01208,0.0095833,-0.0048372,0.1027,0.063421,0.53301,0.18357,0.014945,-0.024885,-0.0077378,0.00086684,-1.4706,0.21165,-0.16515,-1.0722,-0.15783,0.20085,-0.56155,-0.1039,-0.2941,-0.20646,0.45241,1.7224
-0.027872,-0.010378,0.0054361,-0.0030782,0.10571,0.057916,0.48694,0.17994,0.014664,-0.02455,-0.010215,0.0021402,-1.5314,0.19262,-0.13378,-1.3649,-0.15986,0.024132,-0.53701,-0.096083,-0.31714,-0.18095,0.43463,1.5731
-0.031547,-0.011557,-0.00014074,-0.0020869,0.11276,0.0483,0.41814,0.15951,0.015427,-0.023398,-0.011195,0.0043796,-1.5743,0.16964,-0.14984,-1.7408,-0.17166,-0.087279,-0.51212,-0.096979,-0.36199,-0.16996,0.36379,1.2481
-0.031313,-0.01555,-0.0046416,-0.0041005,0.12141,0.040634,0.33461,0.12324,0.01658,-0.022551,-0.009435,0.0044412,-1.5921,0.136,-0.23676,-2.2316,-0.19971,-0.20676,-0.4973,-0.11004,-0.42362,-0.17809,0.2553,0.87865
-0.026951,-0.020027,-0.0066383,-0.0092216,0.12744,0.038597,0.25235,0.078575,0.016556,-0.022607,-0.0058559,0.00092168,-1.6278,0.096199,-0.39977,-2.717,-0.24257,-0.39505,-0.49281,-0.13357,-0.48463,-0.19597,0.16851,0.61344
-0.020715,-0.022191,-0.0070458,-0.015326,0.12952,0.041672,0.18597,0.037504,0.014633,-0.022565,-0.0026722,-0.0039741,-1.7274,0.069892,-0.6135,-2.9833,-0.29129,-0.65484,-0.4897,-0.16184,-0.51992,-0.20481,0.16459,0.55162
-0.015729,-0.020998,-0.0081547,-0.01964,0.1314,0.046297,0.14023,0.011991,0.01211,-0.020506,-0.0015588,-0.0060644,-1.8936,0.075292,-0.81991,-2.8621,-0.33479,-0.93374,-0.4765,-0.18763,-0.50676,-0.18742,0.25345,0.70288
-0.014005,-0.018035,-0.011235,-0.020667,0.13893,0.048824,0.1091,0.0082451,0.011617,-0.015704,-0.002341,-0.0029646,-2.0778,0.10868,-0.94342,-2.3488,-0.36564,-1.167,-0.44682,-0.20463,-0.43525,-0.13801,0.37705,1.0008
-0.015497,-0.016397,-0.015025,-0.018926,0.15419,0.047837,0.082041,0.022685,0.014965,-0.010144,-0.0032408,0.0034998,-2.2135,0.1418,-0.92258,-1.6198,-0.38163,-1.3218,-0.40328,-0.20875,-0.31271,-0.06403,0.44867,1.3608
-0.018622,-0.018438,-0.016702,-0.016146,0.17213,0.044209,0.051443,0.04246,0.021403,-0.0076642,-0.0024221,0.0086012,-2.2629,0.14222,-0.7439,-0.9421,-0.3835,-1.41,-0.35562,-0.1989,-0.15896,0.020507,0.41947,1.7425
-0.021553,-0.024045,-0.014553,-0.013833,0.18349,0.039518,0.015066,0.051303,0.027847,-0.011033,0.00047446,0.0086629,-2.2378,0.099405,-0.45562,-0.54147,-0.37213,-1.467,-0.31464,-0.17729,0.0044057,0.10443,0.31807,2.1684
-0.023234,-0.030647,-0.0098831,-0.012547,0.18178,0.034726,-0.027475,0.037923,0.030953,-0.019402,0.0040428,0.0041044,-2.1811,0.033283,-0.14745,-0.50933,-0.3487,-1.5224,-0.28601,-0.14938,0.16279,0.18406,0.22853,2.6819
-0.023565,-0.034877,-0.0063336,-0.012291,0.16844,0.030277,-0.079293,0.0016906,0.029375,-0.028482,0.0061965,-0.0011347,-2.125,-0.021873,0.095536,-0.78827,-0.31695,-1.5872,-0.26777,-0.12241,0.30963,0.2599,0.22285,3.2734
-0.022988,-0.034685,-0.0071108,-0.013284,0.15167,0.026841,-0.14644,-0.048306,0.024476,-0.033541,0.0056394,-0.0031473,-2.0614,-0.043152,0.23597,-1.2191,-0.2842,-1.6624,-0.25301,-0.10292,0.44053,0.32944,0.30238,3.8369
-0.022029,-0.030455,-0.012496,-0.016075,0.14045,0.025162,-0.23278,-0.10011,0.019157,-0.032771,0.0025882,-0.0012736,-1.9448,-0.031607,0.29572,-1.6078,-0.25849,-1.7506,-0.23591,-0.094036,0.5478,0.38331,0.39595,4.1998
-0.021106,-0.024524,-0.019689,-0.020739,0.1395,0.024682,-0.33401,-0.14645,0.015928,-0.028208,-0.0015534,0.0018354,-1.7234,-0.0029851,0.32983,-1.7845,-0.2436,-1.8554,-0.21685,-0.094425,0.622,0.40937,0.41601,4.2192
-0.020469,-0.019632,-0.024996,-0.026014,0.14903,0.02248,-0.43635,-0.18749,0.015695,-0.023556,-0.0049996,0.0030564,-1.374,0.031364,0.38436,-1.6477,-0.23648,-1.9717,-0.20275,-0.099605,0.66014,0.40171,0.32673,3.8785
-0.020059,-0.01748,-0.026507,-0.029444,0.16767,0.014365,-0.52172,-0.22768,0.017821,-0.020946,-0.0062174,0.0016763,-0.91445,0.073785,0.46938,-1.1947,-0.22968,-2.081,-0.20253,-0.10466,0.67265,0.36669,0.16927,3.3104
-0.019381,-0.018218,-0.025199,-0.028759,0.19351,-0.0020156,-0.5761,-0.27034,0.020928,-0.01951,-0.0043205,-0.00030217,-0.39159,0.13208,0.5625,-0.52561,-0.21707,-2.1628,-0.22114,-0.10643,0.68117,0.32019,0.026178,2.7208
-0.017699,-0.020855,-0.023855,-0.023537,0.22126,-0.024532,-0.59509,-0.31506,0.023599,-0.016797,0.00051061,-0.0004283,0.14504,0.20437,0.6327,0.1942,-0.19814,-2.214,-0.25688,-0.10387,0.70636,0.27737,-0.043372,2.2642
-0.014615,-0.023951,-0.024831,-0.015758,0.2397,-0.047017,-0.58352,-0.35921,0.02467,-0.01145,0.0066794,0.001699,0.66171,0.27409,0.66105,0.80735,-0.17724,-2.2554,-0.30383,-0.097192,0.75399,0.24326,-0.044833,1.9573
-0.010593,-0.026063,-0.028394,-0.0087263,0.23539,-0.062971,-0.55032,-0.40091,0.023383,-0.004622,0.011509,0.003989,1.1412,0.32093,0.64429,1.2348,-0.15934,-2.3148,-0.35618,-0.087257,0.8095,0.21162,-0.036231,1.6945
-0.0068617,-0.025965,-0.032697,-0.005118,0.20301,-0.069761,-0.503,-0.43983,0.019732,0.0010058,0.012613,0.0036617,1.5692,0.33694,0.58649,1.4958,-0.14628,-2.3979,-0.40971,-0.076071,0.84509,0.17263,-0.078279,1.3481
-0.0045923,-0.022933,-0.035206,-0.0055995,0.15461,-0.069968,-0.4455,-0.47544,0.014833,0.0034236,0.0095847,-0.00046228,1.9204,0.3317,0.49361,1.6619,-0.13665,-2.471,-0.45889,-0.067513,0.83406,0.12243,-0.18947,0.8729
-0.0040203,-0.017224,-0.03451,-0.0088426,0.11773,-0.068955,-0.37992,-0.50533,0.010736,0.0026376,0.0045389,-0.0070611,2.1562,0.32151,0.37762,1.7801,-0.12867,-2.4733,-0.49318,-0.066574,0.7631,0.066434,-0.33832,0.33822
-0.0043234,-0.010363,-0.031276,-0.012579,0.12057,-0.070904,-0.30939,-0.52618,0.0094216,0.00019783,0.00073393,-0.01325,2.2386,0.31362,0.26197,1.832,-0.12246,-2.3525,-0.49843,-0.076713,0.63615,0.01409,-0.47039,-0.13169
-0.0043772,-0.0047507,-0.0278,-0.014666,0.17378,-0.076606,-0.23909,-0.53678,0.011471,-0.0022731,0.00019731,-0.016398,2.1504,0.30048,0.1759,1.7649,-0.11967,-2.0982,-0.46485,-0.097077,0.47089,-0.029302,-0.54206,-0.45376
-0.0036507,-0.0024949,-0.026543,-0.013603,0.26262,-0.08444,-0.17449,-0.53979,0.015436,-0.0040767,0.0023894,-0.015587,1.9085,0.26876,0.13654,1.5722,-0.12118,-1.7488,-0.39572,-0.1221,0.29221,-0.066046,-0.53644,-0.64437
-0.0023948,-0.0041051,-0.028647,-0.0088119,0.35586,-0.093019,-0.1186,-0.53994,0.018587,-0.0053407,0.0051025,-0.012052,1.5597,0.2131,0.13273,1.3472,-0.12569,-1.3681,-0.3087,-0.14426,0.1263,-0.10188,-0.4597,-0.80201
-0.00106,-0.0079866,-0.033368,-0.001214,0.42434,-0.10277,-0.070788,-0.54002,0.018664,-0.006396,0.0066968,-0.0085829,1.1608,0.14021,0.12688,1.2481,-0.1305,-1.0092,-0.22625,-0.15819,-0.0045267,-0.13849,-0.33305,-1.0367
0.00029266,-0.011246,-0.038685,0.0062628,0.45532,-0.11507,-0.028088,-0.53848,0.015356,-0.0074318,0.0074744,-0.0081329,0.75675,0.05993,0.077277,1.3863,-0.13362,-0.69216,-0.1616,-0.16297,-0.087157,-0.16975,-0.19108,-1.4007
0.0019056,-0.011399,-0.042549,0.0093689,0.4535,-0.13017,0.012231,-0.53128,0.010384,-0.0085333,0.0088788,-0.012129,0.36978,-0.026722,-0.034345,1.7193,-0.13493,-0.40672,-0.11158,-0.16123,-0.1217,-0.18517,-0.08061,-1.861
0.0037552,-0.0078834,-0.043926,0.0049513,0.4314,-0.14616,0.051186,-0.51644,0.0061276,-0.0096214,0.011462,-0.019382,0.0050333,-0.12859,-0.19021,2.0453,-0.13554,-0.13402,-0.062738,-0.15643,-0.12096,-0.17718,-0.047745,-2.3198
0.0053193,-0.0023569,-0.043058,-0.0062188,0.39917,-0.16009,0.088635,-0.49706,0.0039209,-0.010115,0.01386,-0.026547,-0.33542,-0.25173,-0.34767,2.1248,-0.13641,0.13317,-0.006266,-0.15082,-0.10354,-0.14603,-0.11302,-2.6585
0.0060849,0.0023663,-0.040935,-0.018783,0.36161,-0.17026,0.12488,-0.47994,0.0033253,-0.0088443,0.013979,-0.030214,-0.64398,-0.38448,-0.46472,1.8483,-0.13785,0.38605,0.05096,-0.14567,-0.083766,-0.098685,-0.25304,-2.7844
0.0062234,0.0040077,-0.038432,-0.025729,0.32163,-0.17731,0.1614,-0.47083,0.0028167,-0.0048203,0.011243,-0.02931,-0.91159,-0.49553,-0.52144,1.3261,-0.14001,0.61159,0.088968,-0.14256,-0.064902,-0.043803,-0.40894,-2.6643
0.0065211,0.0020428,-0.035726,-0.023284,0.28379,-0.18309,0.19979,-0.4705,0.001167,0.0014647,0.0075172,-0.025846,-1.1392,-0.54951,-0.52401,0.82332,-0.14323,0.8073,0.089415,-0.14363,-0.040981,0.012166,-0.52137,-2.3397
0.0074735,-0.0022211,-0.032366,-0.01393,0.25347,-0.18844,0.23972,-0.47516,-0.001629,0.007472,0.0055615,-0.02315,-1.3444,-0.52885,-0.4921,0.58388,-0.14718,0.98459,0.050497,-0.1499,-0.0060552,0.064836,-0.56693,-1.9148
0.0085258,-0.00658,-0.027939,-0.0047764,0.23318,-0.19204,0.27754,-0.48089,-0.0044804,0.0098423,0.0064221,-0.022954,-1.5539,-0.44477,-0.44121,0.67703,-0.14959,1.1567,-0.010235,-0.15902,0.036171,0.10941,-0.5664,-1.5142
0.0084545,-0.0091659,-0.022769,-0.0023596,0.22064,-0.19165,0.30699,-0.48816,-0.0060873,0.0069387,0.0083546,-0.023932,-1.7856,-0.3293,-0.3731,0.97958,-0.14623,1.3212,-0.067384,-0.1652,0.070199,0.13987,-0.55844,-1.2252
0.0066742,-0.0092204,-0.017988,-0.0080556,0.21075,-0.18646,0.32158,-0.50241,-0.0058487,0.00073324,0.0085018,-0.023151,-2.0321,-0.21562,-0.28032,1.2951,-0.13297,1.453,-0.1041,-0.16206,0.076604,0.15164,-0.56282,-1.0558
0.0041215,-0.0070805,-0.014804,-0.017724,0.19912,-0.17835,0.31751,-0.52981,-0.0042645,-0.0038512,0.0058348,-0.019155,-2.2586,-0.12278,-0.16068,1.4991,-0.10855,1.5178,-0.12037,-0.14652,0.044847,0.14531,-0.56608,-0.93678
0.00266,-0.0036017,-0.01354,-0.02544,0.18361,-0.1706,0.29552,-0.57146,-0.0027477,-0.0021431,0.0025244,-0.013736,-2.4192,-0.054289,-0.031502,1.5886,-0.075826,1.499,-0.12764,-0.12072,-0.01808,0.12716,-0.54134,-0.77297
0.0034647,0.00044603,-0.013381,-0.027752,0.16298,-0.16517,0.26079,-0.62063,-0.0029923,0.0067276,0.0022896,-0.010597,-2.4849,-0.0073181,0.067159,1.6109,-0.040409,1.4199,-0.13552,-0.090252,-0.089706,0.10522,-0.48192,-0.50866
0.0059893,0.0045811,-0.013164,-0.025018,0.13548,-0.16106,0.22111,-0.66546,-0.0060855,0.01869,0.0070738,-0.012058,-2.4653,0.01936,0.084717,1.5596,-0.0078706,1.341,-0.14245,-0.060406,-0.14399,0.083517,-0.41592,-0.16423
0.0086067,0.0083956,-0.012572,-0.019562,0.099724,-0.15554,0.184,-0.69532,-0.011699,0.027076,0.01499,-0.016959,-2.412,0.026013,-0.017337,1.3514,0.018072,1.3312,-0.13783,-0.033582,-0.16529,0.059719,-0.38728,0.18113
0.010307,0.01129,-0.012551,-0.01331,0.056953,-0.14698,0.15421,-0.70632,-0.017925,0.026867,0.021389,-0.021768,-2.3961,0.017923,-0.2445,0.91116,0.035201,1.4265,-0.11282,-0.0099081,-0.15532,0.028182,-0.42046,0.44475
0.011708,0.012551,-0.014415,-0.0073036,0.011672,-0.13682,0.13249,-0.70227,-0.022199,0.017843,0.022192,-0.023805,-2.471,0.0072902,-0.5623,0.28219,0.041422,1.6059,-0.069752,0.010172,-0.12883,-0.014049,-0.50045,0.59192
0.014269,0.011792,-0.018329,-0.0028227,-0.03096,-0.12874,0.11604,-0.69084,-0.022987,0.0044714,0.016748,-0.023463,-2.6411,0.0065188,-0.90758,-0.35005,0.034677,1.8006,-0.021874,0.02441,-0.102,-0.063358,-0.58504,0.64825
0.018441,0.009332,-0.022547,-0.0018695,-0.068782,-0.12576,0.10049,-0.6782,-0.021034,-0.0071538,0.0080124,-0.023307,-2.8589,0.018364,-1.2118,-0.75744,0.015082,1.9319,0.016405,0.0302,-0.082073,-0.11087,-0.63642,0.6703
0.022604,0.0060628,-0.024199,-0.0057119,-0.10378,-0.12781,0.082299,-0.66609,-0.018925,-0.012991,0.00012823,-0.025059,-3.0521,0.032746,-1.4236,-0.81733,-0.012387,1.9526,0.039925,0.027624,-0.065121,-0.14764,-0.64353,0.70239
0.024021,0.002818,-0.021165,-0.012845,-0.1397,-0.13214,0.060597,-0.65261,-0.019015,-0.01287,-0.0044821,-0.027535,-3.1632,0.033805,-1.5199,-0.59428,-0.037708,1.8667,0.054764,0.020793,-0.042339,-0.16948,-0.61787,0.7522
0.021084,-0.00016654,-0.013602,-0.018984,-0.17886,-0.13578,0.037479,-0.63525,-0.021359,-0.0096436,-0.0062945,-0.027637,-3.171,0.010505,-1.5045,-0.29763,-0.049744,1.716,0.07009,0.015508,-0.008911,-0.17814,-0.57154,0.79781
0.014854,-0.0031048,-0.0039757,-0.019897,-0.2214,-0.13806,0.01665,-0.61326,-0.023609,-0.0068317,-0.0075521,-0.023493,-3.0815,-0.039255,-1.3971,-0.15314,-0.042485,1.548,0.087166,0.014753,0.031373,-0.17881,-0.50185,0.81291
0.0084334,-0.0058828,0.0044511,-0.014868,-0.26714,-0.14094,0.0013797,-0.58796,-0.023228,-0.0067003,-0.010101,-0.01669,-2.9013,-0.11369,-1.2223,-0.27991,-0.019374,1.3895,0.095315,0.015922,0.068466,-0.17647,-0.39775,0.78726
0.0046752,-0.0074544,0.0096021,-0.0075027,-0.31712,-0.14689,-0.0069156,-0.5619,-0.020177,-0.0098438,-0.014024,-0.011395,-2.6272,-0.21368,-1.0018,-0.64206,0.0078917,1.2412,0.078667,0.01257,0.092605,-0.17354,-0.26028,0.72937
0.0042403,-0.0062301,0.011636,-0.0029013,-0.37221,-0.15644,-0.0087105,-0.53831,-0.017479,-0.015871,-0.017932,-0.011034,-2.2667,-0.34116,-0.75092,-1.0855,0.026014,1.0907,0.028265,-0.00029776,0.10001,-0.16964,-0.11537,0.65587
0.0056578,-0.0013968,0.01235,-0.0036204,-0.43029,-0.16719,-0.0055309,-0.52128,-0.018851,-0.024022,-0.020315,-0.015456,-1.8728,-0.48891,-0.48171,-1.4266,0.028143,0.92902,-0.050236,-0.021464,0.09454,-0.1625,-0.0041241,0.58095
0.0071278,0.0059062,0.013448,-0.0079897,-0.48565,-0.17534,0.00057453,-0.51531,-0.025273,-0.033101,-0.020714,-0.021015,-1.5514,-0.63216,-0.20808,-1.5473,0.017992,0.75586,-0.13909,-0.043117,0.085411,-0.14944,0.042673,0.51381
0.0081804,0.012753,0.015044,-0.012117,-0.53267,-0.17817,0.0067003,-0.52332,-0.03359,-0.041201,-0.019934,-0.023371,-1.4178,-0.73355,0.048629,-1.459,0.0071974,0.5743,-0.21852,-0.055279,0.083045,-0.12892,0.024694,0.46218
0.0095636,0.016101,0.015668,-0.013476,-0.5705,-0.17582,0.0087812,-0.54387,-0.038588,-0.046202,-0.019482,-0.020536,-1.5215,-0.7616,0.25974,-1.3018,0.0077146,0.3851,-0.27634,-0.051775,0.094754,-0.10209,-0.029695,0.43397
0.011649,0.014796,0.013806,-0.012693,-0.60387,-0.17091,0.0028342,-0.56999,-0.036996,-0.047178,-0.020847,-0.013795,-1.7986,-0.70964,0.39767,-1.2655,0.024432,0.18921,-0.3106,-0.033474,0.12135,-0.073339,-0.084782,0.43358
0.01328,0.010323,0.0096512,-0.012115,-0.63796,-0.16649,-0.012026,-0.59152,-0.030077,-0.045601,-0.024973,-0.0062405,-2.0933,-0.60015,0.44944,-1.4609,0.052941,-0.0032138,-0.32548,-0.0068275,0.15572,-0.049054,-0.12033,0.45631
0.012602,0.005664,0.0053884,-0.012892,-0.67185,-0.16429,-0.030873,-0.60001,-0.022617,-0.044871,-0.031823,-0.00062172,-2.2457,-0.47082,0.42596,-1.8204,0.083647,-0.16797,-0.32532,0.020749,0.18481,-0.034523,-0.13838,0.48721
0.009275,0.0031696,0.0035184,-0.013606,-0.69708,-0.16457,-0.043571,-0.59303,-0.019145,-0.047961,-0.039995,0.0017427,-2.1823,-0.35345,0.35856,-2.1107,0.10891,-0.27454,-0.31156,0.045135,0.19517,-0.03072,-0.15154,0.50703
0.0057283,0.0031187,0.0045346,-0.011769,-0.70344,-0.16776,-0.039666,-0.57475,-0.020497,-0.054846,-0.046758,0.00073337,-1.9468,-0.26139,0.28259,-2.0793,0.12796,-0.3032,-0.28347,0.066756,0.18006,-0.033214,-0.16544,0.50172
0.005725,0.0040285,0.006075,-0.0066753,-0.6868,-0.17607,-0.014718,-0.55232,-0.023496,-0.062049,-0.049026,-0.0030859,-1.6485,-0.19202,0.21886,-1.6484,0.14622,-0.25885,-0.24006,0.088716,0.14355,-0.034364,-0.17114,0.46932
0.01107,0.0042726,0.0045699,-0.00078617,-0.6511,-0.19315,0.026884,-0.53099,-0.023846,-0.065103,-0.045127,-0.0084739,-1.3716,-0.13754,0.16657,-1.0107,0.17009,-0.16996,-0.18129,0.11374,0.098383,-0.027757,-0.15234,0.42029
0.019406,0.0035414,-0.0017824,0.0018323,-0.60185,-0.22155,0.075419,-0.51135,-0.019731,-0.062106,-0.036291,-0.013367,-1.1145,-0.092015,0.11321,-0.53621,0.20121,-0.07271,-0.10818,0.14204,0.058448,-0.012087,-0.098999,0.37209
0.025441,0.0029567,-0.011203,-0.0012227,-0.53751,-0.25964,0.12318,-0.49063,-0.013151,-0.055327,-0.026452,-0.015469,-0.80468,-0.049683,0.053364,-0.53722,0.23474,0.0080365,-0.023184,0.17108,0.03077,0.0081263,-0.014953,0.34138
0.024974,0.0039089,-0.019345,-0.0084835,-0.44811,-0.30086,0.16941,-0.46613,-0.0080792,-0.049289,-0.020055,-0.013647,-0.37141,-9.0338e-005,-3.6487e-005,-1.0573,0.26221,0.067215,0.069205,0.19676,0.012974,0.025573,0.085837,0.33714
0.018371,0.0067443,-0.022452,-0.015388,-0.32479,-0.33606,0.21831,-0.43786,-0.0071788,-0.046927,-0.019172,-0.009062,0.18155,0.070762,-0.021995,-1.8414,0.2768,0.11344,0.16279,0.21516,-0.0020942,0.035006,0.18844,0.35728
0.010399,0.010414,-0.020162,-0.017523,-0.17303,-0.35768,0.27168,-0.40805,-0.0098792,-0.04724,-0.02208,-0.0047955,0.76043,0.17115,0.0053544,-2.5026,0.2769,0.15595,0.25175,0.22421,-0.018598,0.036668,0.28222,0.38983
0.0064147,0.013239,-0.015729,-0.013855,-0.017624,-0.36263,0.32322,-0.37835,-0.013226,-0.046608,-0.024543,-0.0039878,1.2317,0.294,0.077283,-2.7467,0.2661,0.19655,0.33313,0.22459,-0.033449,0.035968,0.35913,0.41865
0.0081322,0.014026,-0.01354,-0.0074915,0.10677,-0.35227,0.3604,-0.34738,-0.01447,-0.04258,-0.022923,-0.0077876,1.4976,0.41722,0.16882,-2.4807,0.25024,0.23268,0.40755,0.21947,-0.03927,0.039661,0.41096,0.43106
0.012568,0.012628,-0.01587,-0.0034132,0.17375,-0.33024,0.37321,-0.31101,-0.013051,-0.036561,-0.016767,-0.014613,1.5417,0.51636,0.25363,-1.7512,0.23415,0.26692,0.47723,0.2128,-0.031993,0.051177,0.43303,0.42314
0.014926,0.0096942,-0.021294,-0.0048851,0.17844,-0.30053,0.36231,-0.26544,-0.010446,-0.032816,-0.008884,-0.021141,1.4171,0.58098,0.32295,-0.62314,0.22032,0.31348,0.5433,0.20714,-0.016254,0.068324,0.43387,0.3994
0.012748,0.0060494,-0.025802,-0.011187,0.13656,-0.2675,0.33905,-0.21092,-0.0084468,-0.034593,-0.0029769,-0.024216,1.1973,0.62183,0.38694,0.84103,0.20941,0.39511,0.605,0.2023,-0.0034373,0.084779,0.44073,0.36718
0.0077241,0.0022845,-0.025713,-0.018263,0.071352,-0.23706,0.31701,-0.1534,-0.0076315,-0.040887,-0.00084886,-0.022455,0.93402,0.66338,0.45633,2.4672,0.20154,0.53214,0.66168,0.19606,-0.0035587,0.094142,0.49043,0.33067
0.0038672,-0.0012258,-0.020357,-0.021709,-0.00039637,-0.21669,0.30226,-0.10298,-0.0072764,-0.046869,-0.0014226,-0.016776,0.65296,0.72709,0.52101,3.8658,0.19654,0.73095,0.71484,0.18639,-0.017701,0.093627,0.60662,0.28913
0.0039708,-0.0041274,-0.012725,-0.019821,-0.073288,-0.21298,0.29075,-0.069926,-0.0063677,-0.04768,-0.0021534,-0.0097882,0.37969,0.81807,0.54788,4.5235,0.19335,0.97895,0.76763,0.17349,-0.037429,0.085078,0.77838,0.24018
0.0075454,-0.0060513,-0.0075962,-0.014523,-0.14822,-0.22803,0.27449,-0.060389,-0.0044661,-0.04234,-0.0013906,-0.0044598,0.16191,0.92386,0.50473,4.1124,0.18945,1.2484,0.8213,0.1597,-0.051683,0.073083,0.95841,0.18442
0.011748,-0.0068115,-0.0082578,-0.0097304,-0.22458,-0.25754,0.25003,-0.07372,-0.0017001,-0.034412,0.00040225,-0.0027105,0.060044,1.0245,0.39326,2.7933,0.1815,1.5069,0.87191,0.1475,-0.055258,0.06195,1.0863,0.12643
0.014072,-0.0066076,-0.013947,-0.0086124,-0.29745,-0.2925,0.22141,-0.10243,0.0016909,-0.028994,0.0014513,-0.0046218,0.11205,1.1048,0.26266,1.2241,0.16749,1.7295,0.91103,0.13722,-0.051862,0.053709,1.1231,0.071463
0.014241,-0.0059583,-0.019936,-0.011844,-0.36103,-0.32353,0.19519,-0.13482,0.0054468,-0.028735,0.00055415,-0.0086731,0.30482,1.1606,0.1879,0.18737,0.14875,1.9073,0.93073,0.12671,-0.049718,0.048116,1.0733,0.02111
0.01385,-0.0053421,-0.020587,-0.017806,-0.41339,-0.34483,0.17348,-0.1592,0.0089025,-0.032237,-0.0017083,-0.01281,0.58022,1.1954,0.22536,0.08261,0.13029,2.0489,0.92938,0.11315,-0.054165,0.04404,0.97849,-0.027713
0.014446,-0.0048218,-0.013526,-0.02407,-0.45761,-0.35519,0.15208,-0.16824,0.010859,-0.035901,-0.003363,-0.015605,0.87225,1.2116,0.37836,0.6812,0.119,2.1744,0.91335,0.095536,-0.063835,0.040836,0.88853,-0.079639
0.015984,-0.0039969,-0.0018753,-0.028756,-0.4985,-0.3562,0.1254,-0.16122,0.010286,-0.037279,-0.002508,-0.016785,1.1432,1.2046,0.59912,1.3521,0.12052,2.3047,0.89292,0.075819,-0.073135,0.038794,0.82997,-0.13672
0.016943,-0.002371,0.0074753,-0.031001,-0.53876,-0.34978,0.09292,-0.14311,0.0073577,-0.0369,0.0014051,-0.016991,1.3885,1.1628,0.82425,1.5786,0.13698,2.452,0.87557,0.057938,-0.077881,0.038856,0.79362,-0.197
0.015773,0.00016558,0.0087047,-0.030792,-0.57777,-0.33698,0.060316,-0.12079,0.0036594,-0.03722,0.0072528,-0.017182,1.6113,1.0737,1.0146,1.3398,0.16673,2.6166,0.86191,0.045794,-0.07855,0.042427,0.74604,-0.25651
0.012237,0.0032029,0.0015284,-0.028789,-0.61313,-0.31825,0.034291,-0.098751,0.0010521,-0.039969,0.012774,-0.018117,1.7965,0.93161,1.1682,1.0553,0.20573,2.7895,0.84709,0.041565,-0.078511,0.051611,0.65314,-0.31214
0.0075196,0.0062218,-0.0082322,-0.026229,-0.64229,-0.29373,0.016385,-0.076854,0.00015967,-0.044469,0.015474,-0.020014,1.9144,0.7429,1.3001,1.1685,0.24923,2.9563,0.8257,0.045019,-0.07964,0.069205,0.49839,-0.36274
0.003177,0.0092087,-0.01266,-0.024513,-0.66262,-0.26266,0.0022763,-0.051562,5.7253e-005,-0.048315,0.013621,-0.022343,1.9537,0.52627,1.4114,1.7531,0.29231,3.099,0.79538,0.053547,-0.080022,0.097331,0.28548,-0.40823
-1.5614e-005,0.012816,-0.0074072,-0.024356,-0.67071,-0.22245,-0.01276,-0.019387,-0.00036659,-0.049497,0.0072245,-0.023945,1.9495,0.30719,1.4781,2.4757,0.32954,3.1962,0.75618,0.062558,-0.076032,0.1347,0.028774,-0.44896
-0.0023559,0.017703,0.0052861,-0.025127,-0.66321,-0.16924,-0.028142,0.020103,-0.00073169,-0.047828,-0.0014774,-0.023724,1.9751,0.10958,1.4683,2.9138,0.35518,3.2278,0.70747,0.066465,-0.066654,0.17445,-0.25715,-0.4867
-0.0045575,0.023448,0.018441,-0.025245,-0.63955,-0.10069,-0.038661,0.063738,0.0009169,-0.04442,-0.0087172,-0.02158,2.0938,-0.052069,1.3719,2.9202,0.36485,3.1853,0.64702,0.060606,-0.055738,0.20525,-0.55937,-0.52622
-0.0069046,0.028024,0.025437,-0.023617,-0.60454,-0.01964,-0.041998,0.10644,0.0062314,-0.039989,-0.011243,-0.018677,2.3099,-0.17573,1.2127,2.7096,0.35817,3.0833,0.57425,0.043593,-0.04988,0.21664,-0.85942,-0.57472
-0.0090336,0.028587,0.02434,-0.020942,-0.56794,0.064621,-0.046199,0.14327,0.014547,-0.033932,-0.0086039,-0.016397,2.5586,-0.26776,1.0325,2.6225,0.34009,2.9597,0.49454,0.018604,-0.053662,0.2058,-1.1246,-0.63775
-0.010472,0.023334,0.01836,-0.019485,-0.5403,0.13935,-0.069093,0.1704,0.023006,-0.025242,-0.0038626,-0.014726,2.748,-0.33353,0.86165,2.8109,0.31926,2.8583,0.41925,-0.0076637,-0.066268,0.1807,-1.3077,-0.71406
-0.011317,0.013129,0.012612,-0.021218,-0.52762,0.19457,-0.12807,0.1854,0.029056,-0.014389,-0.001753,-0.011787,2.8175,-0.36905,0.7023,3.1299,0.30374,2.8019,0.359,-0.028092,-0.082157,0.15609,-1.3601,-0.79375
-0.012321,0.0015423,0.010164,-0.025875,-0.52857,0.22862,-0.22725,0.18822,0.032935,-0.0041557,-0.0053691,-0.0055559,2.7682,-0.36087,0.539,3.3043,0.29683,2.7764,0.3149,-0.038351,-0.094952,0.14431,-1.253,-0.86244
-0.014231,-0.007005,0.010433,-0.030843,-0.53622,0.24888,-0.35185,0.18312,0.0374,0.0017055,-0.013894,0.0034892,2.6424,-0.29601,0.36359,3.1855,0.29588,2.7402,0.27568,-0.038126,-0.10136,0.14727,-0.99659,-0.90966
-0.016985,-0.0098496,0.010685,-0.033262,-0.54289,0.2673,-0.47441,0.1794,0.044527,0.0010103,-0.023273,0.011476,2.477,-0.17584,0.19079,2.8593,0.29496,2.6552,0.22457,-0.02994,-0.10247,0.15562,-0.64361,-0.9361
-0.01957,-0.0076313,0.0088346,-0.032574,-0.5445,0.29355,-0.56838,0.18843,0.052582,-0.0053115,-0.029366,0.01356,2.2745,-0.02262,0.049981,2.5328,0.28953,2.5173,0.15165,-0.016997,-0.10221,0.15596,-0.2729,-0.95432
-0.020757,-0.0036648,0.0050567,-0.031116,-0.54159,0.33068,-0.61995,0.21728,0.056376,-0.014009,-0.031007,0.0080384,2.0153,0.12813,-0.038023,2.3372,0.27956,2.3611,0.061752,-0.0019304,-0.1049,0.14039,0.041948,-0.98198
-0.020096,-0.0015925,0.0012043,-0.031971,-0.53687,0.37565,-0.63101,0.26313,0.051442,-0.021828,-0.030464,-0.0015487,1.6978,0.2455,-0.077064,2.2374,0.26931,2.2357,-0.028977,0.012959,-0.11339,0.11136,0.26292,-1.0317
-0.018284,-0.0030237,-0.00096123,-0.03588,-0.53181,0.42351,-0.61343,0.3138,0.038499,-0.027202,-0.031039,-0.0087141,1.362,0.3182,-0.090399,2.1097,0.26402,2.1686,-0.10535,0.024973,-0.1284,0.07867,0.40053,-1.1043
-0.016586,-0.0068299,-0.0009246,-0.040121,-0.52497,0.4714,-0.58017,0.35565,0.023942,-0.029967,-0.033985,-0.0091512,1.071,0.35502,-0.10057,1.883,0.26609,2.1465,-0.16383,0.031122,-0.14858,0.051951,0.50075,-1.1899
-0.015894,-0.010472,0.00086484,-0.040638,-0.51326,0.5194,-0.53927,0.38384,0.015425,-0.029874,-0.037432,-0.0042939,0.86305,0.37104,-0.11407,1.6003,0.27308,2.124,-0.21246,0.02933,-0.1712,0.035068,0.61218,-1.2765
-0.016323,-0.012164,0.0039299,-0.03576,-0.49469,0.56808,-0.49318,0.4064,0.016078,-0.025849,-0.038143,-1.8252e-005,0.71596,0.37183,-0.12422,1.3567,0.27873,2.0544,-0.26007,0.019744,-0.19327,0.026041,0.75256,-1.3607
-0.017552,-0.012088,0.0079803,-0.028216,-0.47037,0.61507,-0.442,0.43795,0.022288,-0.017085,-0.034429,-0.0014608,0.55955,0.34962,-0.12752,1.1976,0.27633,1.9163,-0.30456,0.0050223,-0.21322,0.021153,0.89582,-1.4528
-0.019312,-0.011757,0.012027,-0.02341,-0.44422,0.6535,-0.38717,0.48697,0.026931,-0.0048741,-0.027638,-0.0084495,0.33068,0.2945,-0.13546,1.0845,0.26237,1.7221,-0.33136,-0.010617,-0.23157,0.018642,0.98856,-1.5736
-0.021313,-0.012235,0.013561,-0.025193,-0.42049,0.67352,-0.33325,0.54669,0.025159,0.0069712,-0.021081,-0.015548,0.028499,0.20988,-0.16937,0.95311,0.23855,1.5051,-0.32454,-0.022899,-0.25006,0.018832,0.9854,-1.7446
-0.022792,-0.012982,0.0093486,-0.032637,-0.40089,0.66646,-0.28694,0.59733,0.017802,0.014107,-0.017543,-0.016651,-0.27666,0.11705,-0.24224,0.79067,0.21076,1.2979,-0.28156,-0.0287,-0.26938,0.021543,0.87851,-1.9773
-0.022558,-0.012477,-0.0020806,-0.040616,-0.38296,0.6295,-0.25404,0.61867,0.009836,0.014677,-0.017543,-0.010135,-0.49182,0.043515,-0.34481,0.64967,0.18553,1.1143,-0.21868,-0.026663,-0.28768,0.024148,0.70092,-2.2683
-0.019968,-0.010152,-0.018187,-0.043743,-0.36088,0.56844,-0.23608,0.6035,0.0057626,0.010764,-0.019561,-0.00024626,-0.57241,0.0040057,-0.44918,0.59104,0.16589,0.94484,-0.1609,-0.017347,-0.30126,0.022616,0.5034,-2.5986
-0.016035,-0.0077675,-0.032863,-0.04039,-0.32795,0.49706,-0.22853,0.562,0.0061724,0.0068681,-0.021546,0.0062355,-0.56104,-0.0097858,-0.52763,0.62178,0.14959,0.7617,-0.12371,-0.003062,-0.30718,0.014617,0.32531,-2.9356
-0.013218,-0.0086814,-0.040019,-0.033484,-0.27919,0.43277,-0.22149,0.51487,0.0081355,0.0065394,-0.022208,0.0050759,-0.56193,-0.022151,-0.57078,0.69121,0.13116,0.53149,-0.10137,0.012698,-0.30526,0.0015234,0.18308,-3.2337
-0.013556,-0.01521,-0.037874,-0.027667,-0.21223,0.39058,-0.2031,0.48168,0.0083559,0.0099336,-0.021244,-0.0027208,-0.66744,-0.054692,-0.59055,0.74324,0.10653,0.22802,-0.071859,0.026247,-0.29771,-0.012869,0.081465,-3.4355
-0.016616,-0.02617,-0.030414,-0.025498,-0.12578,0.37822,-0.16431,0.47327,0.0058071,0.014197,-0.018936,-0.012408,-0.88994,-0.11098,-0.6071,0.76571,0.076753,-0.15741,-0.014999,0.034882,-0.28651,-0.025999,0.030607,-3.4808
-0.019348,-0.036885,-0.024491,-0.025948,-0.017068,0.3949,-0.10303,0.49183,0.0016804,0.01615,-0.015931,-0.019481,-1.1487,-0.17599,-0.63215,0.78761,0.047892,-0.60941,0.070331,0.03781,-0.27121,-0.039267,0.046816,-3.3261
-0.01841,-0.042112,-0.024715,-0.026154,0.11881,0.43364,-0.025857,0.53466,-0.0025993,0.014856,-0.013347,-0.022743,-1.3211,-0.22908,-0.66231,0.83383,0.027056,-1.0855,0.16364,0.036476,-0.24895,-0.056964,0.13277,-2.9693
-0.013055,-0.039836,-0.030215,-0.024444,0.28554,0.48515,0.053922,0.59589,-0.0068331,0.011939,-0.012633,-0.024211,-1.3219,-0.25888,-0.6857,0.88904,0.017802,-1.519,0.23642,0.034207,-0.21633,-0.081613,0.25614,-2.4629
-0.0059179,-0.032838,-0.035861,-0.021757,0.47876,0.5412,0.12176,0.66453,-0.011538,0.0096434,-0.014756,-0.026453,-1.1536,-0.26802,-0.6933,0.90708,0.018503,-1.8315,0.27042,0.035168,-0.17085,-0.10913,0.35096,-1.9035
-0.00082446,-0.026512,-0.036782,-0.020363,0.68005,0.5963,0.16841,0.72343,-0.016383,0.008546,-0.019174,-0.029855,-0.89926,-0.26584,-0.68441,0.85054,0.024557,-1.9606,0.26654,0.04274,-0.11094,-0.12811,0.34741,-1.3973
0.00044261,-0.02453,-0.032356,-0.021383,0.85732,0.64829,0.19414,0.75378,-0.019632,0.0070159,-0.023634,-0.032166,-0.6659,-0.25716,-0.66374,0.71551,0.031976,-1.8938,0.23874,0.057685,-0.035779,-0.12509,0.21098,-1.018
-0.00053099,-0.025945,-0.026531,-0.023563,0.97443,0.69819,0.2079,0.74418,-0.01945,0.0028052,-0.025318,-0.030602,-0.52592,-0.23845,-0.63582,0.51575,0.039015,-1.692,0.20103,0.07702,0.0526,-0.093534,-0.035945,-0.77882
-0.000535,-0.026323,-0.024499,-0.024368,1.0072,0.74874,0.22177,0.69751,-0.015832,-0.0047433,-0.022729,-0.024691,-0.49401,-0.20463,-0.60423,0.24522,0.044883,-1.4744,0.16002,0.094662,0.14555,-0.040906,-0.32339,-0.63358
0.0021979,-0.022027,-0.02867,-0.022176,0.95725,0.80157,0.2443,0.62867,-0.011138,-0.013877,-0.016925,-0.017382,-0.54719,-0.15986,-0.57574,-0.13991,0.04765,-1.362,0.11922,0.10414,0.22597,0.011435,-0.5653,-0.50179
0.0065015,-0.013914,-0.03707,-0.017512,0.8548,0.8539,0.27734,0.55417,-0.0085721,-0.021706,-0.011094,-0.013307,-0.66061,-0.12118,-0.56308,-0.69885,0.044243,-1.4049,0.088821,0.10216,0.27278,0.037001,-0.69499,-0.3038
0.0095968,-0.0070483,-0.045045,-0.012371,0.74616,0.89773,0.31803,0.48183,-0.009947,-0.026424,-0.0086769,-0.015414,-0.82416,-0.10968,-0.58014,-1.4589,0.033045,-1.5458,0.08862,0.090644,0.27113,0.017446,-0.68972,0.012018
0.009706,-0.0065171,-0.048543,-0.0085502,0.67187,0.92299,0.36307,0.40927,-0.014688,-0.028572,-0.011305,-0.022655,-1.0274,-0.13508,-0.63143,-2.3759,0.016642,-1.6527,0.13748,0.075596,0.22227,-0.047289,-0.57868,0.45837
0.0073714,-0.012979,-0.046463,-0.0066465,0.6474,0.9236,0.41073,0.33191,-0.02075,-0.030345,-0.017925,-0.030696,-1.2321,-0.18621,-0.70412,-3.322,0.0017248,-1.6079,0.23608,0.063128,0.14514,-0.13831,-0.43209,1.0126
0.0044409,-0.021886,-0.040719,-0.0063673,0.658,0.90218,0.45829,0.2526,-0.026325,-0.03362,-0.025608,-0.035146,-1.3651,-0.23626,-0.7708,-4.1039,-0.0042309,-1.3895,0.35794,0.055471,0.066987,-0.22732,-0.33211,1.6273
0.0021165,-0.027101,-0.034551,-0.0074049,0.67037,0.86982,0.49804,0.18335,-0.030727,-0.03839,-0.031374,-0.034662,-1.3465,-0.26024,-0.80228,-4.5085,0.0031781,-1.0837,0.45936,0.04992,0.0087884,-0.29089,-0.33325,2.2412
0.00022496,-0.025772,-0.030533,-0.0097258,0.65342,0.8402,0.51721,0.13756,-0.033964,-0.042828,-0.033741,-0.031389,-1.1368,-0.25229,-0.78204,-4.3776,0.024022,-0.81597,0.5035,0.041594,-0.024631,-0.32096,-0.4308,2.7874
-0.0016997,-0.020274,-0.029447,-0.013058,0.59516,0.8217,0.50413,0.1198,-0.035873,-0.04487,-0.03309,-0.028586,-0.76522,-0.23021,-0.71268,-3.6975,0.055828,-0.65869,0.48161,0.027836,-0.043226,-0.32611,-0.55861,3.2012
-0.0030241,-0.015735,-0.030322,-0.016418,0.50625,0.81229,0.45683,0.12302,-0.035915,-0.044009,-0.030887,-0.027738,-0.31723,-0.22438,-0.61145,-2.6587,0.095942,-0.58841,0.41474,0.010791,-0.061263,-0.32414,-0.62288,3.429
-0.0021467,-0.01549,-0.03127,-0.018497,0.41042,0.80029,0.3869,0.13552,-0.033778,-0.041941,-0.028553,-0.027752,0.11274,-0.25959,-0.50005,-1.6237,0.14181,-0.52546,0.33478,-0.0038073,-0.086411,-0.33148,-0.5545,3.4411
0.0017648,-0.018476,-0.030589,-0.018694,0.32967,0.77048,0.31475,0.15122,-0.029978,-0.041508,-0.026845,-0.026681,0.46571,-0.34283,-0.39644,-0.98344,0.18936,-0.41544,0.26031,-0.010558,-0.11631,-0.35576,-0.34753,3.2422
0.0072598,-0.020612,-0.027632,-0.017721,0.27399,0.71194,0.25979,0.17357,-0.025717,-0.044628,-0.02593,-0.024091,0.72916,-0.46394,-0.31222,-0.96541,0.23219,-0.27972,0.18695,-0.0078884,-0.14364,-0.39455,-0.05874,2.8723
0.011153,-0.018675,-0.023075,-0.017007,0.24049,0.62318,0.23287,0.21016,-0.022163,-0.050642,-0.025729,-0.021756,0.9132,-0.6059,-0.25366,-1.5156,0.26382,-0.19322,0.099543,0.001358,-0.16403,-0.43887,0.23049,2.391
0.010996,-0.013165,-0.018469,-0.017344,0.21951,0.51249,0.23607,0.26321,-0.019899,-0.056306,-0.026025,-0.022186,1.0197,-0.75475,-0.22196,-2.3443,0.28177,-0.21412,-0.0052476,0.01224,-0.17963,-0.4783,0.46419,1.8495
0.0073416,-0.0077611,-0.015367,-0.018054,0.202,0.39405,0.26719,0.32525,-0.019006,-0.057628,-0.026307,-0.026467,1.0343,-0.90191,-0.21195,-3.1118,0.28956,-0.33029,-0.10623,0.020811,-0.19615,-0.50498,0.64192,1.2679
0.0036342,-0.006106,-0.01454,-0.017533,0.18283,0.28304,0.32266,0.38363,-0.019474,-0.052419,-0.02575,-0.033312,0.9449,-1.0395,-0.2121,-3.6208,0.29392,-0.4675,-0.16626,0.025769,-0.21687,-0.51582,0.81282,0.63942
0.003621,-0.0088407,-0.015733,-0.014697,0.15974,0.1922,0.39562,0.42961,-0.021356,-0.041816,-0.02368,-0.039844,0.76397,-1.1553,-0.20875,-3.8806,0.29863,-0.54716,-0.15518,0.028069,-0.23898,-0.513,1.0413,-0.034307
0.0083616,-0.013407,-0.017986,-0.0099725,0.13086,0.13027,0.47293,0.46428,-0.024522,-0.029675,-0.020264,-0.043213,0.52853,-1.234,-0.19376,-4.0133,0.30012,-0.54058,-0.068507,0.029438,-0.25492,-0.50264,1.3675,-0.69661
0.015346,-0.01654,-0.020208,-0.0048965,0.094526,0.10057,0.5377,0.49652,-0.028459,-0.020268,-0.016745,-0.041915,0.27626,-1.2647,-0.1706,-4.1009,0.28872,-0.47601,0.071659,0.031012,-0.25649,-0.49174,1.7841,-1.2151
0.02046,-0.017044,-0.021652,-0.00075338,0.051786,0.098591,0.57836,0.53573,-0.032497,-0.015975,-0.014749,-0.036354,0.021903,-1.2486,-0.15394,-4.1105,0.25499,-0.40091,0.23119,0.032469,-0.23782,-0.48399,2.2403,-1.4153
0.021188,-0.016396,-0.022095,0.0023738,0.0087157,0.11041,0.59723,0.58544,-0.036221,-0.016532,-0.015086,-0.028755,-0.24088,-1.1999,-0.16237,-3.9492,0.19615,-0.33898,0.37951,0.031527,-0.19535,-0.47692,2.6658,-1.1633
0.018446,-0.016833,-0.021718,0.0052052,-0.024826,0.11559,0.60941,0.64233,-0.039467,-0.020033,-0.017123,-0.022415,-0.51287,-1.1378,-0.20864,-3.578,0.11772,-0.27942,0.49446,0.023959,-0.12664,-0.46252,2.9997,-0.45154
0.01563,-0.018933,-0.020823,0.0079939,-0.040577,0.095705,0.63066,0.70008,-0.041755,-0.024507,-0.019462,-0.020174,-0.76512,-1.0757,-0.29319,-3.0667,0.029556,-0.20115,0.55769,0.0048686,-0.030955,-0.43139,3.2109,0.56606
0.015729,-0.021031,-0.01954,0.009798,-0.037808,0.044761,0.66358,0.75391,-0.041875,-0.028714,-0.021419,-0.022588,-0.94585,-1.0134,-0.40444,-2.5366,-0.059714,-0.10305,0.55139,-0.028522,0.087676,-0.37793,3.3004,1.6206
0.018867,-0.020968,-0.017711,0.009167,-0.024927,-0.026082,0.69396,0.8021,-0.038485,-0.031887,-0.023836,-0.027133,-1.0188,-0.93937,-0.52441,-2.0494,-0.14546,-0.0097371,0.46399,-0.073906,0.21767,-0.30285,3.2914,2.4358
0.022207,-0.018417,-0.015028,0.00559,-0.014741,-0.094175,0.70084,0.84402,-0.031592,-0.033261,-0.028185,-0.029577,-1.0012,-0.84092,-0.63615,-1.5528,-0.22545,0.050766,0.30014,-0.1232,0.34072,-0.21169,3.215,2.8351
0.02222,-0.015493,-0.011343,0.00016197,-0.016354,-0.13879,0.67158,0.87725,-0.023577,-0.032283,-0.034597,-0.027032,-0.96408,-0.71526,-0.72916,-0.93896,-0.29669,0.074362,0.083373,-0.1657,0.43687,-0.11162,3.1024,2.7887
0.017441,-0.015041,-0.0069557,-0.0053092,-0.029514,-0.15299,0.60936,0.89679,-0.018364,-0.029406,-0.04075,-0.020378,-0.98679,-0.57437,-0.80095,-0.16328,-0.35447,0.086473,-0.15481,-0.1936,0.49078,-0.0099885,2.9847,2.3825
0.0095564,-0.018235,-0.0026702,-0.0098343,-0.045329,-0.14539,0.52788,0.89749,-0.018817,-0.026494,-0.043078,-0.013753,-1.0969,-0.43951,-0.85458,0.68298,-0.39455,0.12075,-0.39114,-0.20613,0.49528,0.084284,2.8911,1.7453
0.0020973,-0.023664,0.00044558,-0.013717,-0.052382,-0.13111,0.43993,0.87811,-0.02432,-0.026082,-0.039666,-0.01117,-1.2426,-0.32903,-0.8934,1.4143,-0.4162,0.19048,-0.61666,-0.20868,0.45091,0.15936,2.838,0.99184
-0.0020369,-0.028613,0.0015584,-0.017387,-0.043454,-0.11979,0.35039,0.84414,-0.03076,-0.029788,-0.03236,-0.013,-1.3231,-0.24732,-0.91493,1.8724,-0.42242,0.27816,-0.82542,-0.20739,0.36383,0.20326,2.812,0.21365
-0.0022123,-0.031157,0.00062324,-0.019942,-0.018416,-0.11042,0.25858,0.80676,-0.03335,-0.037093,-0.025985,-0.015504,-1.2555,-0.18257,-0.90698,2.0276,-0.4167,0.35136,-0.99596,-0.20329,0.24484,0.21092,2.7592,-0.49919
0.00023374,-0.031107,-0.0013539,-0.019307,0.017525,-0.096235,0.16478,0.77827,-0.030247,-0.045449,-0.024924,-0.014024,-1.0308,-0.11525,-0.84936,1.9816,-0.39935,0.38977,-1.0859,-0.19107,0.10983,0.18993,2.5987,-1.0499
0.0035536,-0.029237,-0.0026903,-0.014325,0.057688,-0.073906,0.073468,0.76681,-0.024004,-0.051619,-0.029703,-0.0071167,-0.71711,-0.031444,-0.72271,1.8784,-0.36726,0.39976,-1.0509,-0.16386,-0.020759,0.15845,2.2586,-1.3635
0.0068204,-0.02598,-0.0020367,-0.0067515,0.096954,-0.047889,-0.0094097,0.77407,-0.019552,-0.053257,-0.03643,0.0020272,-0.41152,0.068174,-0.52172,1.8036,-0.31813,0.40604,-0.87805,-0.1203,-0.1258,0.1341,1.7171,-1.4314
0.0098863,-0.02117,0.00055115,-0.00077192,0.13313,-0.025943,-0.080272,0.79753,-0.020219,-0.049742,-0.039693,0.0081327,-0.17897,0.17007,-0.26578,1.7472,-0.25574,0.43058,-0.60601,-0.067786,-0.18949,0.12154,1.0207,-1.3253
0.012584,-0.015023,0.0033655,0.00017182,0.16744,-0.010443,-0.13772,0.83501,-0.024994,-0.042089,-0.036698,0.0080756,-0.022224,0.25863,0.0013457,1.6421,-0.19082,0.47832,-0.31262,-0.019031,-0.20585,0.1092,0.26802,-1.1556
0.014407,-0.0090029,0.0040764,-0.0034355,0.20457,0.0058683,-0.17899,0.88731,-0.029235,-0.032339,-0.029409,0.0031085,0.10261,0.32753,0.22605,1.4268,-0.13587,0.53982,-0.073481,0.015909,-0.17877,0.079211,-0.43168,-1.0021
0.015164,-0.0052415,0.0014758,-0.007124,0.25148,0.035314,-0.1988,0.95595,-0.028318,-0.022871,-0.023018,-0.0026365,0.24658,0.38311,0.3677,1.0773,-0.097114,0.60352,0.079694,0.03579,-0.11823,0.0232,-1.0014,-0.86935
0.015771,-0.0047897,-0.0033891,-0.0059732,0.31388,0.085965,-0.19425,1.0382,-0.021358,-0.01569,-0.021937,-0.0057056,0.43816,0.43785,0.41666,0.59757,-0.070346,0.66332,0.17009,0.047772,-0.036135,-0.048933,-1.418,-0.70475
0.017985,-0.0064734,-0.0077101,0.0012306,0.39192,0.15609,-0.17213,1.1239,-0.012108,-0.011689,-0.026397,-0.005671,0.6798,0.50005,0.39571,0.0056119,-0.044344,0.71516,0.24824,0.061028,0.056,-0.11465,-1.7079,-0.46153
0.022948,-0.0077808,-0.0087929,0.010976,0.47808,0.23715,-0.15046,1.198,-0.0063419,-0.010193,-0.032223,-0.0044901,0.96016,0.56826,0.34371,-0.64977,-0.0094907,0.75031,0.34754,0.079706,0.14792,-0.15375,-1.9267,-0.1513
0.029816,-0.0072009,-0.0058905,0.018113,0.55985,0.32177,-0.15035,1.2468,-0.0076836,-0.0092942,-0.033925,-0.0040205,1.2623,0.6345,0.29255,-1.2547,0.035368,0.75641,0.45739,0.10078,0.23195,-0.15992,-2.1337,0.15803
0.035949,-0.0057906,-0.00058204,0.020181,0.62584,0.40828,-0.18302,1.2634,-0.014988,-0.0070858,-0.02874,-0.0043286,1.5613,0.69216,0.25288,-1.6284,0.083291,0.72798,0.53349,0.11791,0.305,-0.14031,-2.3708,0.39399
0.038696,-0.0062572,0.0044952,0.01897,0.6707,0.49677,-0.2426,1.2476,-0.023173,-0.003054,-0.01867,-0.0042435,1.8235,0.74115,0.21664,-1.5919,0.12603,0.675,0.53504,0.12739,0.36869,-0.10579,-2.6469,0.5322
0.037313,-0.010207,0.0074281,0.017997,0.69495,0.5806,-0.31073,1.2015,-0.026807,0.0014704,-0.0091016,-0.0031828,2.02,0.78606,0.17147,-1.0822,0.16094,0.61781,0.45851,0.13097,0.42571,-0.062708,-2.9327,0.60349
0.033333,-0.016154,0.0079376,0.018549,0.70049,0.64241,-0.36973,1.1276,-0.023787,0.0042809,-0.0051718,-0.0021099,2.1498,0.82997,0.11374,-0.23236,0.19202,0.56893,0.34227,0.13368,0.47414,-0.01335,-3.172,0.65282
0.029166,-0.020375,0.0069706,0.018308,0.6867,0.66092,-0.41416,1.0307,-0.016444,0.0039832,-0.0085215,-0.0026008,2.2496,0.87031,0.050481,0.6573,0.22457,0.51694,0.24105,0.13919,0.50506,0.037604,-3.3081,0.69187
0.026261,-0.020085,0.0056438,0.013985,0.65153,0.62447,-0.45275,0.9221,-0.0094871,0.0010544,-0.016605,-0.0050773,2.3748,0.90021,-0.0092275,1.2598,0.25886,0.42876,0.19158,0.14717,0.50729,0.080092,-3.316,0.69158
0.024399,-0.016078,0.0044935,0.0053473,0.59688,0.54041,-0.50096,0.81949,-0.0064628,-0.0025308,-0.024709,-0.0081178,2.5588,0.91348,-0.063827,1.3927,0.28862,0.27188,0.19455,0.15451,0.47657,0.10426,-3.219,0.62135
0.02251,-0.012297,0.0033911,-0.0034973,0.53248,0.43141,-0.57071,0.73856,-0.0074188,-0.0046654,-0.029001,-0.009603,2.7822,0.90779,-0.12075,1.1065,0.30562,0.040663,0.2219,0.15867,0.42161,0.10975,-3.0741,0.49712
0.020059,-0.012522,0.0018503,-0.0071199,0.47298,0.32075,-0.66432,0.6823,-0.0092877,-0.0042603,-0.028509,-0.0085623,2.981,0.88346,-0.18852,0.62831,0.3057,-0.23473,0.23876,0.15961,0.36045,0.1084,-2.9348,0.39107
0.017687,-0.01704,-0.00060268,-0.0034866,0.42941,0.21822,-0.77481,0.63636,-0.0084024,-0.0013785,-0.024965,-0.0059081,3.0907,0.84009,-0.26626,0.20084,0.29102,-0.50538,0.22195,0.15889,0.30894,0.11571,-2.8173,0.39023
0.016587,-0.022252,-0.0040242,0.0040245,0.40201,0.1181,-0.89017,0.57655,-0.0030998,0.0033545,-0.02102,-0.0034029,3.0942,0.77534,-0.33921,-0.071399,0.26699,-0.7347,0.16461,0.15703,0.27028,0.13749,-2.6994,0.53622
0.017208,-0.023583,-0.0076363,0.0092805,0.38156,0.010521,-0.99839,0.48444,0.0053772,0.0091719,-0.018253,-0.0019654,3.0377,0.68784,-0.38325,-0.25887,0.23728,-0.92046,0.070408,0.15208,0.23452,0.1639,-2.5545,0.79337
0.018381,-0.019194,-0.0097735,0.0083982,0.35891,-0.10472,-1.0913,0.36029,0.013956,0.015005,-0.016309,-0.0010362,3.003,0.58129,-0.375,-0.50752,0.20168,-1.0913,-0.05269,0.14074,0.18845,0.17706,-2.3908,1.0674
0.017686,-0.011365,-0.0086464,0.002648,0.33479,-0.21442,-1.1663,0.22379,0.019661,0.019302,-0.013601,0.0003987,3.0598,0.46573,-0.30068,-0.88654,0.1583,-1.2814,-0.19287,0.12078,0.12744,0.16652,-2.2532,1.2574
0.013006,-0.0045471,-0.0037085,-0.0031703,0.32062,-0.30177,-1.2255,0.10206,0.020983,0.020634,-0.0089149,0.0022257,3.2292,0.35433,-0.16032,-1.3081,0.1074,-1.5034,-0.33179,0.092946,0.059847,0.1395,-2.1781,1.3059
0.0043021,-0.0019197,0.0034538,-0.0051467,0.32931,-0.36053,-1.2718,0.013041,0.018103,0.018969,-0.0026411,0.0027721,3.4771,0.25822,0.032222,-1.5865,0.052989,-1.7406,-0.4457,0.061066,0.0014486,0.11716,-2.1362,1.2226
-0.0057476,-0.0033296,0.0097631,-0.0033929,0.36395,-0.4004,-1.3049,-0.044407,0.012355,0.016385,0.0033527,0.00014354,3.7297,0.18319,0.25072,-1.5887,0.00088903,-1.9628,-0.51369,0.030502,-0.03402,0.12007,-2.0231,1.0795
-0.01304,-0.0060497,0.012645,-0.0013041,0.41509,-0.43865,-1.3187,-0.087967,0.0055996,0.016042,0.0071159,-0.0058119,3.895,0.12996,0.45948,-1.3493,-0.044589,-2.1532,-0.52867,0.0060773,-0.040776,0.15403,-1.7218,0.98634
-0.014709,-0.0073254,0.011829,-0.0020682,0.46963,-0.48606,-1.3047,-0.1392,-0.000177,0.019811,0.0081319,-0.012797,3.8844,0.0963,0.6198,-1.0458,-0.082286,-2.3221,-0.5026,-0.0098179,-0.021124,0.20633,-1.2018,1.051
-0.011315,-0.0064083,0.009387,-0.0058556,0.52333,-0.54006,-1.2574,-0.20975,-0.0032553,0.026511,0.0076571,-0.01747,3.641,0.078812,0.70108,-0.84729,-0.11318,-2.4989,-0.46084,-0.018371,0.016614,0.25358,-0.57063,1.3302
-0.0067246,-0.0045708,0.0079853,-0.010081,0.5846,-0.59113,-1.179,-0.29535,-0.0027923,0.032583,0.0076003,-0.017922,3.1718,0.073436,0.69227,-0.7615,-0.13846,-2.7058,-0.42862,-0.02406,0.059007,0.27437,-0.027396,1.7884
-0.0054301,-0.0035017,0.0089738,-0.012032,0.66459,-0.63558,-1.0785,-0.38105,0.00055951,0.0349,0.0089762,-0.015139,2.5658,0.075713,0.60636,-0.61504,-0.15903,-2.936,-0.41894,-0.03247,0.088659,0.25875,0.25859,2.2952
-0.0091839,-0.0037461,0.011973,-0.011129,0.76133,-0.68194,-0.96656,-0.45299,0.0046109,0.033319,0.011342,-0.012165,1.9734,0.08179,0.47287,-0.19688,-0.17656,-3.1515,-0.42969,-0.046902,0.089487,0.21115,0.25346,2.6776
-0.015614,-0.0045323,0.016018,-0.0088409,0.85207,-0.74459,-0.85,-0.50791,0.0065804,0.030633,0.013648,-0.011614,1.5449,0.089848,0.32259,0.54757,-0.19438,-3.303,-0.45079,-0.065895,0.055772,0.14754,0.067033,2.8106
-0.0201,-0.0048985,0.020731,-0.0068036,0.90229,-0.8302,-0.73166,-0.5534,0.0047095,0.029946,0.01551,-0.013538,1.3612,0.10075,0.17497,1.4351,-0.2162,-3.3556,-0.47445,-0.08388,-0.0021443,0.088929,-0.13936,2.6866
-0.019542,-0.0048487,0.026151,-0.0052979,0.88593,-0.92976,-0.61466,-0.59964,-0.00044875,0.031938,0.017529,-0.015336,1.4023,0.11737,0.03737,2.1528,-0.24319,-3.3036,-0.50035,-0.095114,-0.063456,0.052822,-0.26751,2.4134
-0.015012,-0.0053403,0.031549,-0.0035485,0.80188,-1.0235,-0.50743,-0.65004,-0.0060692,0.034574,0.020278,-0.013754,1.5749,0.14309,-0.084708,2.4769,-0.27193,-3.1647,-0.53272,-0.098176,-0.11306,0.044951,-0.32812,2.1357
-0.01106,-0.0071114,0.034897,-0.0012093,0.67465,-1.0945,-0.42438,-0.69892,-0.0086009,0.035406,0.023111,-0.0074433,1.774,0.18021,-0.17661,2.4275,-0.29563,-2.9626,-0.57353,-0.097332,-0.15629,0.055577,-0.39129,1.9358
-0.012138,-0.0095638,0.03407,0.00079621,0.53934,-1.1396,-0.38105,-0.738,-0.0059184,0.034143,0.024245,0.0017845,1.9293,0.22844,-0.21366,2.2366,-0.3079,-2.7129,-0.61787,-0.099281,-0.21812,0.064287,-0.49843,1.7883
-0.018993,-0.010952,0.02889,0.0010872,0.42262,-1.1691,-0.38605,-0.76549,0.0013365,0.033009,0.022324,0.0099163,2.0074,0.28348,-0.17198,2.1592,-0.30656,-2.4212,-0.65488,-0.10765,-0.3236,0.052345,-0.62013,1.6013
-0.02788,-0.0098879,0.021874,-0.00057136,0.33265,-1.1959,-0.43463,-0.78884,0.010133,0.034699,0.018078,0.013338,1.9835,0.3369,-0.042431,2.284,-0.29439,-2.0922,-0.67227,-0.11965,-0.47323,0.015139,-0.69503,1.3045
-0.033201,-0.006776,0.016606,-0.0026453,0.26218,-1.2259,-0.50754,-0.81814,0.016896,0.040027,0.014339,0.011419,1.8268,0.37849,0.1638,2.4955,-0.27682,-1.7381,-0.66087,-0.12778,-0.6331,-0.034436,-0.70731,0.90704
-0.031477,-0.0037007,0.01496,-0.0029943,0.19932,-1.2544,-0.57663,-0.85553,0.019597,0.047496,0.01412,0.0072752,1.5206,0.40127,0.42114,2.6069,-0.25834,-1.38,-0.61753,-0.12511,-0.75054,-0.074809,-0.72497,0.47741
-0.023679,-0.0026842,0.015707,-0.00081251,0.13663,-1.2727,-0.61551,-0.89024,0.018778,0.05492,0.018344,0.0058831,1.0986,0.4058,0.69979,2.5412,-0.24059,-1.041,-0.54681,-0.11014,-0.78527,-0.090216,-0.85829,0.068475
-0.014382,-0.0038865,0.01581,0.0024814,0.073378,-1.2758,-0.6108,-0.9045,0.016982,0.06123,0.025159,0.010498,0.65567,0.39996,0.96976,2.4001,-0.22277,-0.73831,-0.46153,-0.087532,-0.73399,-0.079612,-1.1705,-0.33688
-0.0086815,-0.005503,0.013195,0.0042566,0.012518,-1.2664,-0.56803,-0.88627,0.017074,0.06664,0.031374,0.019834,0.30918,0.39295,1.1963,2.3655,-0.20347,-0.4811,-0.38007,-0.064661,-0.6303,-0.053703,-1.6158,-0.80326
-0.0091933,-0.0055439,0.0084209,0.0026849,-0.043365,-1.252,-0.50778,-0.83907,0.02052,0.071202,0.034585,0.028409,0.13586,0.38785,1.3354,2.5232,-0.18222,-0.2722,-0.31888,-0.046978,-0.52103,-0.024091,-2.0574,-1.3595
-0.014974,-0.0038178,0.0038314,-0.0019718,-0.093797,-1.2396,-0.45301,-0.78159,0.026566,0.073456,0.034088,0.030322,0.13097,0.37914,1.3419,2.7659,-0.15987,-0.11071,-0.2829,-0.035532,-0.43757,0.0051695,-2.3514,-1.9318
-0.022573,-0.0021708,0.0011883,-0.0077274,-0.13978,-1.2318,-0.41432,-0.738,0.032636,0.070727,0.030054,0.023845,0.22044,0.35833,1.1919,2.8624,-0.13815,0.0086095,-0.26063,-0.027799,-0.38267,0.036742,-2.4315,-2.3649
-0.028122,-0.0027003,0.00014843,-0.012296,-0.18205,-1.2281,-0.38269,-0.72639,0.03569,0.060923,0.022235,0.013049,0.31224,0.32344,0.905,2.6368,-0.11892,0.097768,-0.22959,-0.020387,-0.33964,0.072464,-2.334,-2.5272
-0.029242,-0.0056413,-0.0010803,-0.014262,-0.21912,-1.2269,-0.33549,-0.75295,0.033834,0.04427,0.0098736,0.0048002,0.34597,0.28366,0.54832,2.1088,-0.10367,0.17581,-0.17062,-0.01138,-0.29306,0.10776,-2.1549,-2.4209
-0.026027,-0.00897,-0.0037348,-0.013316,-0.24556,-1.227,-0.25245,-0.81353,0.027419,0.023541,-0.0068841,0.0033541,0.30916,0.25386,0.2113,1.4823,-0.093109,0.26462,-0.081755,-0.0011585,-0.24294,0.13389,-1.9819,-2.2022
-0.020897,-0.010125,-0.0071928,-0.0099334,-0.25132,-1.2276,-0.1312,-0.89866,0.019016,0.0027509,-0.025508,0.0070835,0.22189,0.24229,-0.034619,0.99701,-0.087116,0.38169,0.018724,0.0080245,-0.2027,0.14534,-1.8553,-2.0849
-0.017307,-0.0082504,-0.0096112,-0.0052235,-0.22336,-1.2261,0.009228,-0.99711,0.012205,-0.014552,-0.041307,0.010219,0.11338,0.24159,-0.16579,0.7658,-0.085006,0.53341,0.10264,0.012801,-0.18581,0.14453,-1.777,-2.1933
-0.017703,-0.004924,-0.0098491,-0.00097174,-0.14977,-1.2184,0.1401,-1.0967,0.0097579,-0.026236,-0.049625,0.0080741,0.0089368,0.23156,-0.20722,0.72015,-0.086163,0.71201,0.1482,0.0093716,-0.19471,0.13895,-1.7413,-2.4741
-0.021799,-0.0028032,-0.0088458,0.00075954,-0.024904,-1.2022,0.24201,-1.184,0.012218,-0.031541,-0.048454,0.0011122,-0.073798,0.19282,-0.20804,0.68678,-0.090568,0.89713,0.15059,-0.0056924,-0.22085,0.13379,-1.752,-2.7341
-0.026509,-0.0034901,-0.0091609,-0.0012173,0.14723,-1.1791,0.31701,-1.2465,0.017703,-0.03063,-0.039431,-0.0056819,-0.1294,0.12123,-0.21338,0.51636,-0.098719,1.0624,0.12024,-0.034233,-0.25343,0.1277,-1.811,-2.7746
-0.028011,-0.0064869,-0.013023,-0.0060434,0.3527,-1.1558,0.38412,-1.275,0.022987,-0.024333,-0.026567,-0.0073516,-0.17168,0.031913,-0.25167,0.16124,-0.11085,1.1861,0.072773,-0.075127,-0.2868,0.11591,-1.8979,-2.5234
-0.024689,-0.0099696,-0.020491,-0.010881,0.56976,-1.1393,0.46107,-1.267,0.025157,-0.014124,-0.013882,-0.0031956,-0.23258,-0.050216,-0.33812,-0.337,-0.126,1.2625,0.019789,-0.1235,-0.31931,0.097237,-1.9686,-2.0716
-0.018619,-0.012483,-0.029187,-0.01262,0.77194,-1.1322,0.54641,-1.2268,0.022898,-0.0019514,-0.0037915,0.0030074,-0.34528,-0.10602,-0.47993,-0.90898,-0.14172,1.3066,-0.032429,-0.17132,-0.34635,0.077429,-1.9791,-1.598
-0.01417,-0.014,-0.035743,-0.010064,0.93139,-1.1292,0.61721,-1.1637,0.016897,0.010292,0.0029815,0.0066037,-0.52051,-0.13207,-0.67178,-1.5012,-0.15485,1.3451,-0.078055,-0.20959,-0.35636,0.06489,-1.9117,-1.248
-0.014685,-0.01556,-0.03779,-0.0047472,1.0233,-1.1205,0.64577,-1.0882,0.0094217,0.021456,0.0066796,0.0059442,-0.73628,-0.1387,-0.88654,-2.0742,-0.16303,1.3956,-0.10791,-0.23144,-0.33581,0.062617,-1.7777,-1.0566
-0.019983,-0.018016,-0.035057,0.00039168,1.0313,-1.0993,0.6236,-1.0099,0.0034102,0.031465,0.0081288,0.0031248,-0.9525,-0.13952,-1.0766,-2.5803,-0.16595,1.4477,-0.11217,-0.23466,-0.27986,0.064185,-1.5921,-0.95896
-0.026766,-0.021127,-0.029039,0.0033469,0.95268,-1.0671,0.57345,-0.93495,0.0013022,0.04102,0.0089305,0.0013692,-1.1394,-0.14186,-1.1921,-2.9603,-0.16558,1.4634,-0.08773,-0.22224,-0.19935,0.058187,-1.3452,-0.86198
-0.031414,-0.023764,-0.021853,0.0043509,0.79884,-1.0332,0.53828,-0.86675,0.0038762,0.050847,0.011367,0.0018684,-1.2948,-0.14521,-1.2043,-3.1659,-0.165,1.4018,-0.042779,-0.20024,-0.11716,0.037776,-1.0007,-0.71123
-0.032525,-0.024889,-0.015288,0.0050997,0.59138,-1.0069,0.55309,-0.80801,0.0095902,0.060992,0.017266,0.003016,-1.4365,-0.14676,-1.1156,-3.1841,-0.16654,1.2543,0.0070217,-0.17426,-0.05588,0.0071269,-0.52474,-0.50855
-0.031035,-0.024317,-0.010541,0.0068023,0.3548,-0.99048,0.61965,-0.76312,0.015081,0.070589,0.026348,0.002413,-1.578,-0.1472,-0.94899,-3.0351,-0.17023,1.0581,0.048878,-0.1467,-0.025149,-0.020695,0.079811,-0.28686
-0.028281,-0.022551,-0.0083035,0.008988,0.11042,-0.978,0.7025,-0.73819,0.016951,0.078252,0.035666,-0.00058669,-1.7135,-0.15103,-0.73301,-2.7482,-0.17356,0.87721,0.081543,-0.11699,-0.016259,-0.032574,0.76776,-0.080298
-0.024347,-0.019975,-0.0086714,0.010156,-0.12591,-0.96185,0.7495,-0.73763,0.013897,0.082833,0.041186,-0.0042704,-1.8251,-0.16128,-0.49808,-2.3449,-0.17288,0.75929,0.11509,-0.084332,-0.0054154,-0.023506,1.483,0.083668
-0.018495,-0.016308,-0.01086,0.0095145,-0.34253,-0.94069,0.72206,-0.75992,0.0075915,0.084047,0.040673,-0.0062955,-1.9039,-0.17433,-0.28492,-1.8491,-0.16531,0.70553,0.16194,-0.050848,0.037971,0.0020769,2.1987,0.1775
-0.010959,-0.010968,-0.013246,0.0080148,-0.53008,-0.92099,0.61404,-0.7972,0.0014067,0.082513,0.035554,-0.0058975,-1.963,-0.18025,-0.14555,-1.3132,-0.15015,0.67652,0.22637,-0.022053,0.14165,0.035636,2.9263,0.17777
-0.0038193,-0.0039981,-0.014123,0.0076421,-0.68111,-0.91037,0.44816,-0.84079,-0.0021857,0.079107,0.029945,-0.0044341,-2.0277,-0.16917,-0.12177,-0.8255,-0.12877,0.62854,0.30024,-0.0040192,0.32058,0.070881,3.678,0.089766
0.00038698,0.0034438,-0.012796,0.0096304,-0.79125,-0.90894,0.25612,-0.88869,-0.0034132,0.074088,0.027438,-0.003892,-2.1125,-0.13871,-0.2125,-0.4744,-0.10342,0.54769,0.36691,0.00069771,0.5672,0.10574,4.4148,-0.028333
0.0010534,0.0096501,-0.010073,0.013306,-0.8604,-0.9072,0.059751,-0.94711,-0.0046252,0.066773,0.028301,-0.0049644,-2.2079,-0.096775,-0.36183,-0.28555,-0.075976,0.45284,0.40884,-0.0051032,0.84582,0.13956,5.0318,-0.072181
0.00033139,0.013549,-0.0075752,0.016616,-0.89211,-0.89321,-0.13326,-1.0224,-0.0078138,0.056225,0.029566,-0.0065676,-2.2888,-0.057846,-0.48807,-0.17704,-0.047754,0.36797,0.41333,-0.015461,1.0975,0.16982,5.4089,0.063729
0.0012798,0.015392,-0.0063247,0.017798,-0.89104,-0.86243,-0.31964,-1.1084,-0.012457,0.042524,0.027939,-0.0071117,-2.3367,-0.035462,-0.53654,0.023054,-0.020245,0.29228,0.37495,-0.025817,1.2589,0.19239,5.4937,0.42903
0.0050012,0.016289,-0.0057903,0.016633,-0.85955,-0.82112,-0.48878,-1.1812,-0.015674,0.027521,0.022951,-0.0061132,-2.3531,-0.035949,-0.5127,0.49096,0.0040838,0.19647,0.29692,-0.03603,1.2893,0.20489,5.3454,0.98594
0.0095967,0.017115,-0.0042759,0.014269,-0.79497,-0.77956,-0.6211,-1.2081,-0.014649,0.014201,0.017506,-0.0045673,-2.3529,-0.056732,-0.46629,1.2951,0.02202,0.047614,0.19295,-0.048961,1.1903,0.20905,5.0941,1.6199
0.012029,0.017925,-0.0003875,0.011999,-0.68957,-0.74143,-0.69774,-1.1659,-0.0092811,0.0049541,0.015401,-0.0038892,-2.342,-0.089323,-0.44139,2.3258,0.031129,-0.16123,0.087241,-0.06548,1.0046,0.20855,4.839,2.1782
0.011079,0.018451,0.0056106,0.010303,-0.53473,-0.69953,-0.71237,-1.0556,-0.0028059,0.00011446,0.018097,-0.0046526,-2.3038,-0.12456,-0.43877,3.3205,0.031643,-0.40328,0.008523,-0.080117,0.79272,0.20376,4.5721,2.5098
0.008471,0.018957,0.011648,0.0089692,-0.32973,-0.64253,-0.67445,-0.90033,0.00020873,-0.0019903,0.023583,-0.0063654,-2.2077,-0.15691,-0.42332,3.9855,0.027201,-0.63698,-0.021908,-0.08168,0.6002,0.18878,4.196,2.4973
0.0071183,0.02029,0.015019,0.0079101,-0.09194,-0.56724,-0.60158,-0.73037,-0.0029734,-0.0035535,0.028118,-0.0082753,-2.0342,-0.18548,-0.36484,4.1537,0.023488,-0.8333,-0.0017805,-0.059449,0.43888,0.15451,3.6236,2.0856
0.008276,0.022814,0.013982,0.0076132,0.1382,-0.48536,-0.50845,-0.5664,-0.011224,-0.0057348,0.029053,-0.010128,-1.7975,-0.21125,-0.26928,3.8827,0.025232,-0.98848,0.049702,-0.010952,0.29402,0.096258,2.868,1.3147
0.01046,0.025335,0.0086659,0.008703,0.30483,-0.41792,-0.402,-0.41373,-0.020094,-0.008356,0.026252,-0.012014,-1.547,-0.23245,-0.17073,3.4223,0.033431,-1.116,0.10227,0.054507,0.15064,0.019511,2.0383,0.3405
0.011128,0.025442,0.00080496,0.011149,0.35814,-0.38085,-0.2854,-0.26887,-0.024604,-0.010841,0.021301,-0.013619,-1.346,-0.24169,-0.096667,3.0597,0.04488,-1.2297,0.13229,0.11962,0.016744,-0.061375,1.246,-0.5894
0.0093913,0.021458,-0.0073716,0.014074,0.28035,-0.3723,-0.16507,-0.12947,-0.022455,-0.013164,0.015822,-0.013917,-1.2452,-0.22789,-0.045818,2.9373,0.05461,-1.3348,0.13645,0.16794,-0.076918,-0.13112,0.51546,-1.218
0.0070567,0.014408,-0.014281,0.01645,0.09962,-0.37108,-0.052548,0.0017642,-0.015507,-0.015736,0.010642,-0.011908,-1.2647,-0.18273,-0.002032,2.9651,0.059595,-1.4309,0.13241,0.1918,-0.10171,-0.18194,-0.20799,-1.3917
0.0070493,0.0080277,-0.019498,0.017921,-0.12045,-0.34676,0.041233,0.12015,-0.0084434,-0.018487,0.0061806,-0.0077686,-1.3958,-0.10727,0.032651,2.889,0.060831,-1.52,0.14613,0.19417,-0.060096,-0.21644,-0.95812,-1.1384
0.010787,0.0063736,-0.023438,0.018823,-0.31272,-0.27437,0.11341,0.2229,-0.0054174,-0.020386,0.0029555,-0.0031573,-1.6147,-0.013798,0.024393,2.4638,0.061972,-1.6078,0.19422,0.18386,0.0071579,-0.24371,-1.6607,-0.65372
0.016985,0.010757,-0.026532,0.019314,-0.44039,-0.14408,0.17079,0.30853,-0.0070433,-0.0202,0.0011957,-0.0001051,-1.8973,0.079059,-0.067575,1.6079,0.065512,-1.6981,0.27177,0.16816,0.045007,-0.27289,-2.1618,-0.19447
0.022881,0.018572,-0.028497,0.018609,-0.51046,0.038493,0.22349,0.37366,-0.010014,-0.017815,1.2435e-005,0.00071284,-2.2234,0.15416,-0.24914,0.43565,0.069775,-1.7882,0.35232,0.14825,0.022964,-0.30909,-2.3631,0.058145
0.02656,0.025115,-0.02831,0.015373,-0.55857,0.25924,0.27643,0.41362,-0.0097357,-0.0147,-0.0025039,0.00076112,-2.5655,0.20132,-0.47347,-0.83354,0.069532,-1.8704,0.39901,0.12013,-0.041572,-0.35256,-2.3414,0.077295
0.028241,0.027013,-0.025005,0.0091946,-0.61783,0.50396,0.32694,0.42924,-0.0039723,-0.012866,-0.0077442,0.0025929,-2.8682,0.21783,-0.66678,-2.0017,0.060017,-1.9399,0.38106,0.079361,-0.094867,-0.39904,-2.331,-0.037772
