-2.8747e-010,1.4914e-009,1.7846e-009,-1.2926e-010,1.3524e-009,-2.6817e-010,5.7686e-010,1.4952e-009,5.4599e-010,-8.5854e-010,1.5492e-009,3.5866e-009,9.7044e-010,-1.447e-010,-5.3828e-010,2.3634e-009,3.8779e-010,-8.6819e-011,1.9312e-009,2.1415e-010,-1.1325e-009,4.7654e-010,-1.5338e-009,2.3171e-009
-7.7238e-009,4.0864e-008,4.9616e-008,-3.6299e-009,3.7311e-008,-7.1444e-009,1.5786e-008,4.1241e-008,1.6045e-008,-2.5577e-008,4.4026e-008,9.9033e-008,2.6539e-008,-4.0989e-009,-1.4952e-008,6.5263e-008,1.0569e-008,-2.2564e-009,5.312e-008,5.8522e-009,-3.1222e-008,1.4118e-008,-4.2307e-008,6.4068e-008
-1.008e-007,5.4401e-007,6.71e-007,-4.9692e-008,5.0071e-007,-9.2493e-008,2.1022e-007,5.5281e-007,2.2908e-007,-3.6846e-007,6.0811e-007,1.3288e-006,3.5273e-007,-5.6046e-008,-2.0246e-007,8.7621e-007,1.4015e-007,-2.8545e-008,7.101e-007,7.7827e-008,-4.1805e-007,2.0335e-007,-5.6703e-007,8.614e-007
-8.5115e-007,4.6873e-006,5.8807e-006,-4.4189e-007,4.3548e-006,-7.7516e-007,1.8144e-006,4.7976e-006,2.1174e-006,-3.422e-006,5.4391e-006,1.1543e-005,3.0355e-006,-4.9255e-007,-1.781e-006,7.6202e-006,1.2049e-006,-2.3477e-007,6.146e-006,6.7103e-007,-3.6217e-006,1.8982e-006,-4.9196e-006,7.503e-006
-5.2255e-006,2.9376e-005,3.7541e-005,-2.8695e-006,2.7589e-005,-4.7254e-006,1.1403e-005,3.0298e-005,1.4244e-005,-2.3043e-005,3.541e-005,7.2942e-005,1.9007e-005,-3.1241e-006,-1.1442e-005,4.8251e-005,7.5505e-006,-1.4151e-006,3.8709e-005,4.2162e-006,-2.2815e-005,1.2915e-005,-3.1055e-005,4.7588e-005
-2.4844e-005,0.00014265,0.00018599,-1.45e-005,0.00013565,-2.2314e-005,5.5564e-005,0.00014833,7.4317e-005,-0.00011994,0.0001788,0.00035721,9.2261e-005,-1.5218e-005,-5.7216e-005,0.00023701,3.6759e-005,-6.6846e-006,0.00018901,2.0567e-005,-0.00011134,6.829e-005,-0.00015196,0.00023418
-9.5107e-005,0.00055827,0.00074384,-5.9321e-005,0.00053852,-8.4847e-005,0.00021817,0.00058561,0.00031296,-0.00050227,0.00072853,0.0014098,0.00036103,-5.9106e-005,-0.00023169,0.00093956,0.00014468,-2.5842e-005,0.00074419,8.1035e-005,-0.00043784,0.00029219,-0.00059965,0.00093006
-0.00030081,0.0018075,0.0024659,-0.0002018,0.0017723,-0.00026642,0.00070782,0.0019141,0.0010928,-0.001739,0.0024602,0.0046027,0.0011691,-0.00018742,-0.00078035,0.0030865,0.0004729,-8.4299e-005,0.0024259,0.00026481,-0.0014245,0.0010399,-0.0019593,0.0030614
-0.00079988,0.0049302,0.0069024,-0.00058168,0.0049258,-0.00070235,0.0019291,0.0052754,0.003225,-0.0050748,0.007016,0.012654,0.00319,-0.00049201,-0.0022273,0.0085598,0.0013084,-0.00023727,0.006668,0.00073128,-0.0039057,0.0031408,-0.0054002,0.0085079
-0.0018087,0.011474,0.016525,-0.0014401,0.011714,-0.0015698,0.0044614,0.012417,0.0081585,-0.012659,0.017128,0.029654,0.0074248,-0.0010754,-0.0054603,0.020304,0.0031063,-0.00058562,0.015652,0.00173,-0.0091429,0.0081704,-0.012721,0.020226
-0.0035002,0.022974,0.034143,-0.0030925,0.024051,-0.0029844,0.008793,0.025176,0.017876,-0.027273,0.036148,0.059682,0.014858,-0.001948,-0.011606,0.041569,0.0063921,-0.0012819,0.031647,0.0035417,-0.018438,0.018515,-0.025845,0.041505
-0.0058044,0.039768,0.061203,-0.0058001,0.042875,-0.0048005,0.014733,0.044184,0.034192,-0.051116,0.066396,0.10348,0.025658,-0.0028605,-0.021525,0.073869,0.011482,-0.0025062,0.055377,0.0063251,-0.032213,0.036867,-0.045553,0.073943
-0.0082057,0.059583,0.095397,-0.0095442,0.066538,-0.0063988,0.020725,0.067214,0.057425,-0.083744,0.10663,0.15428,0.038217,-0.0031804,-0.034964,0.11423,0.018092,-0.0043923,0.083961,0.0099263,-0.048897,0.064924,-0.069848,0.11468
-0.0097367,0.077063,0.12914,-0.013816,0.089846,-0.0066494,0.023665,0.088398,0.085086,-0.1202,0.15015,0.19605,0.0488,-0.0020022,-0.049805,0.15364,0.025107,-0.0069037,0.10994,0.013815,-0.064491,0.10158,-0.093167,0.1548
-0.0093404,0.085403,0.15111,-0.017614,0.10516,-0.0042301,0.019899,0.099769,0.11173,-0.15106,0.1859,0.20778,0.052645,0.0013978,-0.062175,0.179,0.030816,-0.0097055,0.12315,0.017312,-0.073741,0.14161,-0.10776,0.18128
-0.006532,0.079998,0.15151,-0.019794,0.10591,0.001711,0.0073988,0.095333,0.1309,-0.1654,0.20351,0.17447,0.046556,0.006941,-0.067891,0.17929,0.03373,-0.012117,0.11565,0.020106,-0.072869,0.17612,-0.10743,0.18314
-0.0019607,0.062019,0.12877,-0.019652,0.090923,0.010866,-0.012084,0.075625,0.13848,-0.15562,0.20036,0.09906,0.031565,0.013433,-0.06482,0.15284,0.033571,-0.013234,0.087225,0.022704,-0.062298,0.19541,-0.0916,0.1588
0.002646,0.038905,0.092871,-0.017395,0.06639,0.021521,-0.032808,0.04924,0.13552,-0.12094,0.18566,0.0062107,0.0135,0.018996,-0.054633,0.1104,0.031668,-0.012233,0.047223,0.026372,-0.04712,0.19329,-0.066668,0.11927
0.0053371,0.020409,0.061175,-0.01408,0.043115,0.031046,-0.047842,0.029043,0.12784,-0.066685,0.17719,-0.068336,0.00016269,0.022139,-0.042357,0.070292,0.030225,-0.0088003,0.010277,0.032309,-0.034252,0.1707,-0.042697,0.083084
0.0051464,0.012351,0.048231,-0.010954,0.030124,0.036942,-0.053619,0.024589,0.12217,0.00031397,0.19118,-0.098342,-0.0035882,0.022733,-0.033459,0.047484,0.03077,-0.003517,-0.012178,0.040511,-0.027923,0.13598,-0.027129,0.065083
0.0027932,0.012804,0.056103,-0.0086354,0.028878,0.037886,-0.052936,0.035852,0.12136,0.076635,0.23159,-0.083679,0.00061635,0.021999,-0.030283,0.04424,0.032938,0.0019549,-0.018718,0.04921,-0.02695,0.10127,-0.019995,0.06668
0.00027583,0.014063,0.072986,-0.0067568,0.032641,0.034234,-0.053478,0.053209,0.12245,0.16293,0.28694,-0.04948,0.0055992,0.021406,-0.030564,0.049744,0.034708,0.0051152,-0.017769,0.055598,-0.026301,0.076518,-0.014484,0.075452
-0.00041783,0.0091867,0.082024,-0.0043889,0.031817,0.027795,-0.06221,0.064178,0.11954,0.25956,0.33778,-0.026951,0.0039182,0.021424,-0.02948,0.049423,0.034061,0.003471,-0.020487,0.05761,-0.021916,0.06487,-0.0025924,0.07514
0.0014679,-0.0022975,0.073887,-0.00087301,0.021264,0.021122,-0.079641,0.062008,0.10927,0.36108,0.36967,-0.030133,-0.0063806,0.021375,-0.023821,0.03655,0.030673,-0.0040991,-0.03239,0.055507,-0.014724,0.062222,0.018596,0.058365
0.0052123,-0.014455,0.053102,0.0036761,0.0038448,0.016645,-0.098754,0.04954,0.094253,0.45526,0.382,-0.047154,-0.02023,0.020697,-0.014911,0.016578,0.026032,-0.016082,-0.050402,0.05194,-0.010152,0.061437,0.045004,0.031731
0.0094427,-0.020735,0.033035,0.0086471,-0.012459,0.015864,-0.10998,0.035662,0.081383,0.52834,0.38599,-0.052925,-0.029706,0.020457,-0.0077142,0.00091247,0.021769,-0.02823,-0.067106,0.050199,-0.013315,0.05825,0.069208,0.0091473
0.013233,-0.020201,0.02401,0.013686,-0.021234,0.018741,-0.10857,0.027741,0.076078,0.57283,0.39419,-0.0321,-0.03057,0.023423,-0.006705,-0.0038859,0.017826,-0.03535,-0.0777,0.051919,-0.024063,0.054666,0.086154,-0.00064489
0.016525,-0.018398,0.024916,0.019134,-0.02252,0.02358,-0.098334,0.026454,0.07744,0.59095,0.41006,0.0075196,-0.025712,0.032131,-0.011882,-0.0016881,0.012434,-0.034388,-0.083247,0.056057,-0.036434,0.057279,0.096062,-0.0014651
0.019619,-0.021941,0.025295,0.025624,-0.022119,0.027752,-0.088605,0.026819,0.078505,0.59045,0.42581,0.042253,-0.022522,0.046342,-0.018281,-0.0025041,0.0042181,-0.026745,-0.087895,0.060002,-0.043214,0.071692,0.10262,-0.0057749
0.022396,-0.031778,0.015453,0.033171,-0.026401,0.029234,-0.086707,0.023589,0.071568,0.57612,0.42917,0.053204,-0.026413,0.062126,-0.019415,-0.012805,-0.0055879,-0.017645,-0.0936,0.061891,-0.041644,0.097123,0.10884,-0.023292
0.024138,-0.041538,-0.0048299,0.040625,-0.037227,0.028173,-0.092222,0.015722,0.05418,0.54441,0.41263,0.041693,-0.036041,0.073684,-0.011826,-0.029589,-0.013285,-0.012345,-0.097883,0.062095,-0.035214,0.12529,0.11476,-0.052272
0.024177,-0.042829,-0.02655,0.046133,-0.050991,0.027196,-0.097668,0.006228,0.030915,0.4865,0.3777,0.026353,-0.0443,0.076748,0.0028294,-0.043413,-0.015577,-0.011775,-0.096619,0.062598,-0.030014,0.1444,0.11859,-0.080742
0.0227,-0.033,-0.039694,0.048332,-0.062028,0.029743,-0.094718,-0.0015478,0.0096411,0.39761,0.33194,0.025684,-0.044224,0.071095,0.01947,-0.047202,-0.01272,-0.011252,-0.088611,0.064871,-0.029117,0.14546,0.11967,-0.096049
0.020796,-0.018449,-0.041434,0.047297,-0.067083,0.037223,-0.080508,-0.007099,-0.0043305,0.28479,0.28277,0.04244,-0.03481,0.060473,0.033234,-0.042667,-0.0088356,-0.0039075,-0.077123,0.068248,-0.030135,0.12636,0.11979,-0.094295
0.019536,-0.010293,-0.03718,0.044484,-0.06721,0.047089,-0.058869,-0.012446,-0.01134,0.16581,0.23373,0.0634,-0.021957,0.050215,0.04205,-0.038833,-0.0087135,0.013496,-0.066881,0.070347,-0.028015,0.091547,0.12148,-0.082254
0.018939,-0.015816,-0.034648,0.041742,-0.066055,0.053739,-0.036182,-0.01929,-0.015634,0.059494,0.18559,0.073381,-0.013916,0.044347,0.046639,-0.044453,-0.013744,0.037037,-0.059767,0.069205,-0.02014,0.048115,0.12517,-0.071348
0.017901,-0.032776,-0.03731,0.040259,-0.066549,0.052174,-0.016232,-0.027012,-0.021016,-0.025258,0.13938,0.069716,-0.015069,0.043866,0.048877,-0.061099,-0.020662,0.057578,-0.05362,0.065193,-0.0087593,0.0018975,0.12823,-0.069461
0.015367,-0.051205,-0.043117,0.040207,-0.068921,0.041976,0.0012837,-0.033618,-0.028075,-0.093071,0.097604,0.064118,-0.023012,0.046734,0.050443,-0.08243,-0.02435,0.066969,-0.045314,0.060909,0.0014865,-0.044079,0.12716,-0.076886
0.011719,-0.061096,-0.048395,0.041158,-0.071347,0.028409,0.01802,-0.038342,-0.035131,-0.15656,0.062504,0.071185,-0.03095,0.049184,0.052603,-0.099408,-0.022295,0.063666,-0.034875,0.059041,0.0083519,-0.088592,0.12104,-0.088149
0.0089631,-0.059636,-0.051938,0.042677,-0.072153,0.019301,0.033707,-0.042861,-0.041293,-0.22722,0.033703,0.09476,-0.033144,0.047692,0.056401,-0.1066,-0.016769,0.05338,-0.026389,0.059964,0.014285,-0.13048,0.1128,-0.096824
0.009239,-0.052324,-0.055152,0.044545,-0.071369,0.019623,0.046186,-0.049646,-0.048162,-0.31024,0.008289,0.1243,-0.029016,0.040924,0.0623,-0.10477,-0.012909,0.044422,-0.024641,0.061108,0.023919,-0.1677,0.10697,-0.099365
0.012786,-0.047567,-0.05907,0.046594,-0.070418,0.02774,0.054648,-0.059158,-0.058438,-0.40483,-0.016686,0.14344,-0.022926,0.030724,0.069524,-0.098862,-0.014519,0.041647,-0.030648,0.058636,0.039171,-0.19739,0.10574,-0.096195
0.017233,-0.049573,-0.062401,0.048578,-0.07054,0.036384,0.062094,-0.068909,-0.072946,-0.50585,-0.042008,0.1422,-0.020199,0.021172,0.076243,-0.09395,-0.02129,0.043713,-0.040321,0.050085,0.056762,-0.21647,0.10691,-0.090759
0.019096,-0.055352,-0.063173,0.050322,-0.07162,0.037875,0.073545,-0.075503,-0.089111,-0.60243,-0.066779,0.12234,-0.022812,0.015792,0.081016,-0.092572,-0.029666,0.04532,-0.047547,0.035925,0.070638,-0.22244,0.10578,-0.087724
0.016416,-0.057829,-0.061978,0.051968,-0.072443,0.029799,0.091055,-0.077675,-0.10236,-0.67593,-0.090905,0.092807,-0.028088,0.014651,0.084276,-0.094481,-0.036214,0.042079,-0.048855,0.019019,0.077101,-0.21485,0.099305,-0.090818
0.010374,-0.052037,-0.062738,0.053892,-0.07194,0.016832,0.11056,-0.077323,-0.10912,-0.70408,-0.11668,0.06129,-0.031167,0.013883,0.088081,-0.097906,-0.040321,0.034022,-0.045492,0.0026642,0.077833,-0.19701,0.088824,-0.10049
0.0044613,-0.039196,-0.069442,0.056249,-0.070086,0.0072512,0.12455,-0.077596,-0.10865,-0.67364,-0.14761,0.029948,-0.029007,0.0085956,0.093947,-0.10081,-0.043953,0.025425,-0.04131,-0.01112,0.078017,-0.17644,0.078895,-0.11242
0.0018962,-0.02571,-0.081876,0.058514,-0.06762,0.0067576,0.12877,-0.080047,-0.10261,-0.59331,-0.18577,-0.0021738,-0.022628,-0.0028778,0.10076,-0.10157,-0.04907,0.021753,-0.038711,-0.021943,0.081383,-0.16269,0.073243,-0.11837
0.003424,-0.018395,-0.094817,0.05953,-0.064997,0.014295,0.12683,-0.083626,-0.093166,-0.4933,-0.23047,-0.03439,-0.016,-0.017082,0.10507,-0.099477,-0.055343,0.026323,-0.03649,-0.030262,0.086908,-0.16278,0.071546,-0.10985
0.0072012,-0.019862,-0.10193,0.058085,-0.06174,0.022961,0.12759,-0.086235,-0.08163,-0.40639,-0.2796,-0.063143,-0.012781,-0.027923,0.10394,-0.094987,-0.060325,0.038792,-0.031323,-0.0366,0.090193,-0.17731,0.06994,-0.082821
0.010534,-0.027239,-0.10092,0.053589,-0.056845,0.025143,0.13715,-0.086912,-0.068413,-0.34226,-0.33188,-0.085481,-0.013719,-0.031645,0.097818,-0.089697,-0.061775,0.055691,-0.021182,-0.041491,0.088077,-0.20034,0.06468,-0.040521
0.011744,-0.034447,-0.095172,0.046341,-0.049824,0.017803,0.15271,-0.086354,-0.053643,-0.27612,-0.38744,-0.10303,-0.016644,-0.029961,0.090565,-0.08544,-0.059826,0.072007,-0.0073689,-0.045831,0.081966,-0.22341,0.055536,0.0075016
0.010694,-0.035948,-0.090432,0.03729,-0.041398,0.0040138,0.16453,-0.085461,-0.037639,-0.1641,-0.44605,-0.12154,-0.018607,-0.02848,0.086413,-0.082974,-0.056952,0.082855,0.0065026,-0.050791,0.076661,-0.24102,0.045779,0.049675
0.0080255,-0.029609,-0.089754,0.027584,-0.03324,-0.0099857,0.16456,-0.08384,-0.021291,0.023724,-0.50526,-0.14559,-0.018052,-0.031808,0.086385,-0.08122,-0.055811,0.084937,0.017282,-0.057013,0.075834,-0.253,0.038855,0.077541
0.0043458,-0.017494,-0.09144,0.018217,-0.027006,-0.019454,0.15399,-0.080114,-0.0068414,0.27715,-0.56038,-0.17307,-0.015356,-0.039657,0.087453,-0.077826,-0.057029,0.077734,0.024129,-0.063869,0.078485,-0.26232,0.034908,0.089239
0.00020828,-0.0046059,-0.091509,0.0098766,-0.023375,-0.023837,0.14249,-0.07378,0.0012947,0.54629,-0.60628,-0.19479,-0.011836,-0.047318,0.085199,-0.070811,-0.05894,0.06392,0.028079,-0.069808,0.0798,-0.27031,0.030468,0.089998
-0.0034683,0.0037741,-0.087967,0.0029347,-0.021655,-0.025895,0.13967,-0.066519,-0.0029622,0.768,-0.63908,-0.20035,-0.0085727,-0.049835,0.077635,-0.060119,-0.059336,0.048282,0.030358,-0.073795,0.075628,-0.27368,0.021691,0.08962
-0.0055355,0.0050572,-0.082708,-0.0024614,-0.02011,-0.028669,0.14653,-0.061334,-0.024671,0.89809,-0.65595,-0.18589,-0.00605,-0.046117,0.066913,-0.047842,-0.057435,0.035257,0.031442,-0.076526,0.066391,-0.26582,0.0082317,0.097749
-0.0055641,0.0010934,-0.079514,-0.0062051,-0.016878,-0.033024,0.15487,-0.060161,-0.0642,0.92746,-0.65427,-0.15772,-0.0044613,-0.039582,0.057601,-0.03689,-0.05416,0.026513,0.031688,-0.080018,0.056803,-0.24138,-0.0057767,0.11856
-0.0046866,-0.0026693,-0.080459,-0.0080816,-0.011133,-0.037443,0.15497,-0.062195,-0.11536,0.87503,-0.63198,-0.1286,-0.0038538,-0.035201,0.053143,-0.029099,-0.050647,0.020522,0.032487,-0.085565,0.051712,-0.20069,-0.014645,0.14734
-0.0052007,-0.00054859,-0.084258,-0.0078581,-0.0038563,-0.039653,0.1444,-0.064504,-0.1673,0.76838,-0.58981,-0.10923,-0.0038287,-0.035728,0.053436,-0.024274,-0.046634,0.014696,0.036411,-0.091794,0.051927,-0.15089,-0.015561,0.17162
-0.008921,0.0095448,-0.087815,-0.0056195,0.0024598,-0.038469,0.1298,-0.0643,-0.20923,0.62881,-0.5332,-0.10104,-0.0033336,-0.040149,0.055229,-0.020954,-0.040518,0.0084352,0.045952,-0.094814,0.053804,-0.10335,-0.010911,0.17739
-0.015592,0.024644,-0.089013,-0.0020373,0.0053349,-0.03457,0.1203,-0.060771,-0.23471,0.46935,-0.47141,-0.095537,-0.0011247,-0.045139,0.054625,-0.018242,-0.031102,0.0043172,0.06194,-0.090658,0.052723,-0.069007,-0.00675,0.15789
-0.022808,0.038886,-0.087846,0.0017826,0.0041914,-0.030026,0.11902,-0.055095,-0.24281,0.30162,-0.41374,-0.08059,0.0033413,-0.047907,0.049542,-0.017049,-0.019321,0.0060676,0.082908,-0.078182,0.047062,-0.054024,-0.0088384,0.11958
-0.027627,0.047669,-0.085146,0.0048168,0.0011311,-0.027215,0.12057,-0.049066,-0.23619,0.14062,-0.36561,-0.048879,0.0094651,-0.048038,0.040489,-0.019483,-0.0081558,0.014851,0.10568,-0.059983,0.039046,-0.057731,-0.019395,0.080702
-0.028618,0.050469,-0.080785,0.0064942,-0.00028256,-0.027845,0.11656,-0.043879,-0.21852,0.0016369,-0.32794,-0.0024723,0.016013,-0.047209,0.029686,-0.026723,-0.00065972,0.027182,0.12643,-0.040713,0.032027,-0.073827,-0.036674,0.062403
-0.026727,0.050172,-0.073711,0.0064852,0.0024686,-0.032438,0.10382,-0.039914,-0.19358,-0.1078,-0.30009,0.049337,0.022042,-0.04738,0.019687,-0.037296,0.0021657,0.036573,0.14149,-0.024434,0.027104,-0.094603,-0.057003,0.077259
-0.02438,0.049795,-0.063915,0.0041124,0.0089908,-0.04027,0.087404,-0.037125,-0.1659,-0.19268,-0.28353,0.096452,0.027251,-0.049098,0.012509,-0.047595,0.0017634,0.037835,0.14807,-0.013325,0.022274,-0.11588,-0.077216,0.12219
-0.023646,0.049719,-0.054016,-0.0018896,0.016309,-0.049638,0.075854,-0.035161,-0.1413,-0.26675,-0.28235,0.13319,0.031475,-0.051098,0.0093297,-0.054554,0.00046221,0.030554,0.14514,-0.0084399,0.014621,-0.13911,-0.095759,0.1799
-0.02492,0.047898,-0.048205,-0.012786,0.021151,-0.058328,0.073035,-0.033175,-0.12572,-0.34272,-0.30002,0.1587,0.034116,-0.051331,0.010269,-0.058259,-0.00044338,0.018925,0.13444,-0.010965,0.0031647,-0.16814,-0.1123,0.22745
-0.027045,0.042643,-0.048907,-0.028812,0.022288,-0.064247,0.074297,-0.029986,-0.12289,-0.42379,-0.33503,0.17378,0.034443,-0.048498,0.014144,-0.061925,-0.0011683,0.0082425,0.12043,-0.021999,-0.01031,-0.20248,-0.12688,0.24638
-0.028607,0.035149,-0.054139,-0.04868,0.021056,-0.066112,0.070421,-0.024945,-0.1326,-0.50233,-0.37959,0.17829,0.03259,-0.043019,0.018648,-0.068853,-0.0022022,0.0010571,0.10852,-0.040686,-0.022797,-0.23249,-0.13936,0.22889
-0.029305,0.029191,-0.058332,-0.070177,0.019872,-0.063953,0.055817,-0.018786,-0.15082,-0.56483,-0.42262,0.17208,0.030037,-0.036848,0.021341,-0.078853,-0.002825,-0.0039465,0.10224,-0.062737,-0.032133,-0.24229,-0.14942,0.1781
-0.03031,0.028161,-0.056378,-0.091321,0.020269,-0.059127,0.033643,-0.013371,-0.17158,-0.59823,-0.45492,0.15804,0.028702,-0.032372,0.02096,-0.087432,-0.001053,-0.0098146,0.10136,-0.081605,-0.037661,-0.22016,-0.15661,0.10412
-0.033336,0.032186,-0.047602,-0.11089,0.022196,-0.053728,0.013337,-0.010283,-0.18915,-0.59348,-0.47233,0.1431,0.029329,-0.031142,0.017986,-0.08879,0.0047421,-0.0181,0.10242,-0.092216,-0.039449,-0.16925,-0.16055,0.01917
-0.03913,0.03808,-0.036228,-0.12771,0.024844,-0.049667,0.0028455,-0.0095082,-0.19969,-0.54714,-0.47503,0.13507,0.030886,-0.033239,0.013885,-0.0802,0.013978,-0.027367,0.10119,-0.094547,-0.037471,-0.10933,-0.16129,-0.066049
-0.046558,0.042214,-0.027858,-0.13951,0.027779,-0.047957,0.0024063,-0.0095771,-0.20201,-0.46401,-0.4643,0.13769,0.031857,-0.037584,0.0096805,-0.063984,0.023529,-0.034559,0.095222,-0.093881,-0.031868,-0.065719,-0.15987,-0.14427
-0.053052,0.04348,-0.024965,-0.14276,0.03104,-0.048581,0.0051519,-0.0090304,-0.19767,-0.36113,-0.44001,0.14873,0.032209,-0.042872,0.0052363,-0.045344,0.029406,-0.037902,0.0845,-0.097078,-0.02384,-0.051645,-0.15826,-0.21205
-0.05618,0.043429,-0.025135,-0.13432,0.03426,-0.050876,0.0036613,-0.0076494,-0.18987,-0.26825,-0.40081,0.16296,0.033852,-0.048346,-0.00014305,-0.028065,0.029262,-0.038804,0.070526,-0.1075,-0.015909,-0.056316,-0.15827,-0.26881
-0.055231,0.043485,-0.023377,-0.11401,0.036134,-0.054041,-0.0036086,-0.0061054,-0.18163,-0.21929,-0.34632,0.17723,0.038716,-0.053787,-0.0065661,-0.011994,0.023882,-0.041006,0.055264,-0.12243,-0.011022,-0.047767,-0.15998,-0.31514
-0.051653,0.042326,-0.016388,-0.085989,0.03526,-0.057465,-0.011718,-0.0044538,-0.17392,-0.2357,-0.27874,0.19208,0.046149,-0.058773,-0.013207,0.0054594,0.016635,-0.047501,0.041133,-0.13501,-0.011312,0.010056,-0.16111,-0.35099
-0.047994,0.036665,-0.0052613,-0.057503,0.031792,-0.060812,-0.014743,-0.0013019,-0.16558,-0.31156,-0.20256,0.20811,0.052385,-0.06201,-0.019136,0.025333,0.011385,-0.057609,0.03134,-0.13906,-0.017638,0.13593,-0.15834,-0.37528
-0.046135,0.025272,0.0053481,-0.035483,0.028093,-0.063963,-0.01209,0.005107,-0.15518,-0.41222,-0.12265,0.22081,0.05315,-0.061617,-0.024318,0.044494,0.010366,-0.066761,0.028951,-0.13323,-0.030124,0.31807,-0.1497,-0.38663
-0.046131,0.012285,0.010673,-0.023252,0.027253,-0.066792,-0.0096668,0.014713,-0.14326,-0.49019,-0.042571,0.21976,0.047361,-0.056443,-0.029559,0.057125,0.013385,-0.069566,0.03443,-0.12155,-0.048798,0.51617,-0.13625,-0.38417
-0.046492,0.0057237,0.0091385,-0.019592,0.030413,-0.06884,-0.014738,0.024594,-0.13248,-0.50816,0.03604,0.19447,0.038518,-0.047411,-0.035442,0.059391,0.018595,-0.064038,0.043653,-0.11034,-0.073482,0.67765,-0.12116,-0.36692
-0.045577,0.011326,0.0032212,-0.020659,0.035307,-0.069141,-0.029183,0.030469,-0.12506,-0.45339,0.11309,0.14243,0.032208,-0.03759,-0.041568,0.053442,0.023981,-0.05359,0.049061,-0.10425,-0.1031,0.76035,-0.10711,-0.33239
-0.042924,0.026795,-0.0024044,-0.023102,0.037623,-0.066636,-0.04741,0.029845,-0.1199,-0.33465,0.18943,0.072127,0.031642,-0.030632,-0.047142,0.047179,0.028382,-0.044927,0.044317,-0.10418,-0.13539,0.75131,-0.0942,-0.27649
-0.039426,0.042134,-0.0038961,-0.02599,0.034305,-0.061156,-0.06099,0.024216,-0.11297,-0.16857,0.26595,-0.0020918,0.035053,-0.028675,-0.05233,0.049486,0.031516,-0.043222,0.029336,-0.10811,-0.16757,0.67271,-0.080493,-0.19635
-0.036316,0.046804,-0.00039953,-0.030328,0.026031,-0.054228,-0.065907,0.018375,-0.10149,0.029413,0.34187,-0.069423,0.037284,-0.031393,-0.058715,0.064268,0.033422,-0.048377,0.011396,-0.11345,-0.19769,0.57155,-0.064794,-0.0946
-0.033945,0.038031,0.0058675,-0.037004,0.016782,-0.048697,-0.065919,0.017214,-0.088624,0.24112,0.413,-0.12842,0.034222,-0.036902,-0.067961,0.087728,0.034137,-0.055465,0.00063035,-0.11873,-0.22555,0.49698,-0.04907,0.018665
-0.031517,0.022946,0.011412,-0.045163,0.010941,-0.04699,-0.069072,0.022384,-0.083285,0.43649,0.47163,-0.18476,0.026281,-0.043568,-0.079798,0.11094,0.033939,-0.058979,0.0028872,-0.12359,-0.25226,0.4763,-0.03795,0.12874
-0.028064,0.012334,0.013882,-0.052473,0.010434,-0.049236,-0.080573,0.03127,-0.093517,0.57597,0.50967,-0.24359,0.017988,-0.050956,-0.091469,0.1258,0.033657,-0.057258,0.015407,-0.12779,-0.2786,0.50264,-0.035373,0.22242
-0.023762,0.011341,0.013556,-0.056923,0.014049,-0.053018,-0.098331,0.038907,-0.11781,0.63148,0.52428,-0.30334,0.014163,-0.059092,-0.099568,0.12996,0.034325,-0.053321,0.028805,-0.13055,-0.30298,0.54117,-0.041132,0.29276
-0.020216,0.015413,0.012997,-0.058488,0.018914,-0.055288,-0.11488,0.041367,-0.14191,0.61253,0.52181,-0.35605,0.016054,-0.067003,-0.10286,0.12722,0.036161,-0.051645,0.033777,-0.13075,-0.32034,0.55009,-0.050397,0.33879
-0.019196,0.015068,0.01513,-0.059084,0.022395,-0.05494,-0.1236,0.038251,-0.14554,0.57212,0.51613,-0.39302,0.020619,-0.072303,-0.10352,0.1237,0.037804,-0.054092,0.027232,-0.12761,-0.32345,0.50349,-0.056865,0.36168
-0.020747,0.0049634,0.021068,-0.060798,0.022986,-0.053594,-0.12378,0.032735,-0.11557,0.57909,0.52127,-0.41073,0.023274,-0.07261,-0.10551,0.12317,0.036872,-0.058851,0.013191,-0.12083,-0.30651,0.40266,-0.057067,0.36178
-0.022458,-0.01114,0.029142,-0.063868,0.020246,-0.053636,-0.12046,0.029348,-0.056075,0.67141,0.54261,-0.41249,0.021493,-0.067641,-0.11141,0.12542,0.03177,-0.063157,-0.0016929,-0.11023,-0.2695,0.27078,-0.052379,0.33967
-0.02096,-0.023925,0.035809,-0.066177,0.014736,-0.055263,-0.11993,0.031098,0.012916,0.82544,0.57323,-0.40593,0.01624,-0.059985,-0.12029,0.12854,0.023349,-0.066776,-0.013837,-0.095289,-0.22013,0.13755,-0.047245,0.29987
-0.014784,-0.02701,0.03779,-0.064813,0.0082467,-0.055579,-0.12497,0.037755,0.068124,0.96796,0.59803,-0.39913,0.010474,-0.053686,-0.12836,0.13244,0.014807,-0.072473,-0.02493,-0.075341,-0.17117,0.025244,-0.045307,0.25209
-0.0061636,-0.022431,0.034066,-0.058528,0.003553,-0.051041,-0.13364,0.046232,0.098228,1.0255,0.60284,-0.39796,0.0065348,-0.051769,-0.13191,0.13989,0.0095892,-0.082828,-0.039272,-0.050401,-0.13395,-0.055333,-0.04671,0.20727
0.00015828,-0.018355,0.026528,-0.049121,0.0030706,-0.041212,-0.14167,0.052595,0.11034,0.97512,0.58219,-0.40477,0.0048089,-0.054704,-0.13005,0.1538,0.0088694,-0.096594,-0.059051,-0.022041,-0.11214,-0.10033,-0.048647,0.17083
0.0005923,-0.021574,0.018988,-0.040536,0.0071004,-0.030164,-0.14598,0.054331,0.12312,0.85829,0.54082,-0.41729,0.0043812,-0.060776,-0.12549,0.17285,0.010758,-0.10846,-0.081761,0.0063269,-0.10028,-0.10732,-0.04829,0.13929
-0.0041143,-0.031816,0.015121,-0.036223,0.013336,-0.023804,-0.14662,0.051551,0.15241,0.74802,0.48939,-0.42798,0.0043451,-0.067481,-0.12266,0.18951,0.011984,-0.11279,-0.10172,0.029975,-0.088476,-0.0754,-0.045325,0.1043
-0.0091137,-0.042619,0.016458,-0.036718,0.018481,-0.025267,-0.14638,0.046563,0.20066,0.69563,0.43796,-0.4257,0.0041902,-0.072524,-0.12462,0.19283,0.010674,-0.10792,-0.11407,0.044061,-0.06962,-0.010249,-0.041841,0.061466
-0.0092255,-0.047322,0.02148,-0.039282,0.020792,-0.032457,-0.14892,0.042273,0.25774,0.69739,0.39189,-0.40043,0.0031962,-0.07398,-0.13094,0.17471,0.0078755,-0.097057,-0.11788,0.04518,-0.04365,0.072616,-0.039833,0.016678
-0.0031121,-0.044491,0.026421,-0.03995,0.021213,-0.039902,-0.15689,0.040451,0.3111,0.70363,0.3514,-0.34922,0.0001664,-0.07047,-0.13793,0.13554,0.0065509,-0.085146,-0.11599,0.032817,-0.015718,0.15205,-0.038714,-0.016058
0.005797,-0.038365,0.027455,-0.036472,0.021959,-0.043036,-0.17071,0.040876,0.3555,0.65942,0.31391,-0.27913,-0.005582,-0.062041,-0.14118,0.085141,0.0089738,-0.074898,-0.11229,0.010007,0.0096335,0.2114,-0.03525,-0.024467
0.012416,-0.034668,0.023028,-0.029999,0.02388,-0.041043,-0.18803,0.041787,0.39433,0.54394,0.27708,-0.2042,-0.012832,-0.051044,-0.1388,0.038025,0.014766,-0.065708,-0.10868,-0.017467,0.032908,0.24618,-0.026207,-0.0079447
0.014264,-0.035935,0.014831,-0.024245,0.025296,-0.036132,-0.20418,0.041247,0.43238,0.38105,0.24079,-0.13772,-0.018549,-0.041538,-0.1327,0.0055599,0.021187,-0.056043,-0.10416,-0.043384,0.05885,0.26212,-0.011611,0.020571
0.013049,-0.040235,0.0066783,-0.022777,0.023599,-0.030741,-0.21374,0.038446,0.46781,0.21805,0.20738,-0.084998,-0.020078,-0.036826,-0.12697,-0.0099554,0.025317,-0.046349,-0.096313,-0.063855,0.091442,0.26461,0.0041453,0.042757
0.012443,-0.043836,0.0019969,-0.026441,0.018123,-0.025814,-0.21286,0.034052,0.49089,0.092201,0.17983,-0.041525,-0.017757,-0.036823,-0.12434,-0.015532,0.02629,-0.03937,-0.083948,-0.078718,0.12955,0.24911,0.014504,0.046947
0.014499,-0.045021,0.0016903,-0.032803,0.01134,-0.021447,-0.20121,0.029485,0.49067,0.0090246,0.15885,0.0023122,-0.015257,-0.037693,-0.12374,-0.021849,0.025815,-0.037621,-0.068906,-0.09034,0.16722,0.20191,0.014827,0.034706
0.018185,-0.045638,0.0038256,-0.037954,0.0069777,-0.018293,-0.18214,0.025825,0.46322,-0.055982,0.14091,0.053885,-0.016785,-0.034544,-0.12118,-0.035608,0.026711,-0.040762,-0.055868,-0.10039,0.19828,0.1116,0.0054884,0.016974
0.021088,-0.049112,0.005235,-0.039246,0.0067255,-0.017372,-0.16073,0.023271,0.41434,-0.13788,0.11965,0.11371,-0.023312,-0.025166,-0.11344,-0.055291,0.030688,-0.045497,-0.050201,-0.10703,0.22082,-0.018686,-0.0081364,0.0033029
0.022117,-0.056719,0.0037616,-0.036861,0.0087457,-0.018178,-0.14086,0.021498,0.35496,-0.26014,0.090747,0.1763,-0.031282,-0.011707,-0.10115,-0.073267,0.037009,-0.047996,-0.055055,-0.10495,0.23766,-0.16944,-0.018593,-0.0068549
0.02235,-0.065444,-0.00042252,-0.033114,0.009539,-0.017501,-0.12327,0.020364,0.29398,-0.42276,0.056985,0.23473,-0.035251,0.0011189,-0.088501,-0.082387,0.042828,-0.046472,-0.069293,-0.088923,0.25296,-0.31615,-0.020052,-0.023807
0.023416,-0.069555,-0.0051471,-0.030217,0.0074047,-0.011116,-0.10588,0.020197,0.23493,-0.60481,0.02858,0.28447,-0.032327,0.0096815,-0.079666,-0.081698,0.044858,-0.041799,-0.087554,-0.058323,0.26849,-0.4446,-0.010547,-0.058872
0.025451,-0.064931,-0.0077423,-0.028486,0.0040966,0.0025132,-0.086036,0.021434,0.17848,-0.77652,0.016535,0.32393,-0.024513,0.013847,-0.075128,-0.076743,0.041221,-0.036178,-0.10266,-0.019143,0.28302,-0.55752,0.0079241,-0.11457
0.026955,-0.052707,-0.0065734,-0.026521,0.0030163,0.019917,-0.063036,0.02409,0.12698,-0.9118,0.022798,0.35229,-0.016859,0.016369,-0.071399,-0.07451,0.0325,-0.03154,-0.10926,0.01856,0.29481,-0.66729,0.030543,-0.18133
0.026623,-0.039026,-0.0016982,-0.023081,0.0057253,0.034366,-0.039022,0.027658,0.086151,-0.99438,0.035242,0.36815,-0.013074,0.020243,-0.064391,-0.077594,0.021526,-0.029052,-0.10659,0.046284,0.30396,-0.78174,0.050866,-0.2423
0.025031,-0.030814,0.0055281,-0.018797,0.010266,0.040669,-0.017894,0.031471,0.062063,-1.0174,0.033224,0.37056,-0.012516,0.026524,-0.053267,-0.082545,0.012106,-0.029472,-0.098545,0.061786,0.3121,-0.89555,0.062009,-0.2816
0.0243,-0.030866,0.013422,-0.015912,0.013012,0.039027,-0.0030617,0.035029,0.056461,-0.9827,0.0012538,0.36146,-0.011131,0.034211,-0.041162,-0.083518,0.0072467,-0.033287,-0.090751,0.069481,0.3201,-0.99398,0.058516,-0.28957
0.026088,-0.036288,0.020854,-0.016134,0.012257,0.034561,0.0043957,0.03793,0.064797,-0.9045,-0.059364,0.34625,-0.0053874,0.041678,-0.032147,-0.077616,0.0076481,-0.040061,-0.086594,0.076441,0.32671,-1.0644,0.038973,-0.263
0.030058,-0.041529,0.027621,-0.018579,0.0099878,0.032928,0.0061099,0.039596,0.078535,-0.81555,-0.13084,0.33138,0.0043423,0.047934,-0.027416,-0.067182,0.011226,-0.047691,-0.085085,0.087229,0.33016,-1.1045,0.0077784,-0.20289
0.034399,-0.043296,0.034275,-0.01998,0.010032,0.035847,0.0053042,0.039328,0.089454,-0.76472,-0.19205,0.32062,0.01377,0.052746,-0.02435,-0.057352,0.014147,-0.052651,-0.082354,0.10141,0.33103,-1.1189,-0.025995,-0.11339
0.037735,-0.043014,0.041579,-0.017304,0.014303,0.040332,0.0050005,0.036806,0.092476,-0.79918,-0.23466,0.31351,0.017835,0.056181,-0.019272,-0.051547,0.013106,-0.051559,-0.075755,0.11509,0.33307,-1.1099,-0.052904,-0.0026129
0.040372,-0.044769,0.049842,-0.010527,0.02072,0.042025,0.0065808,0.032547,0.085529,-0.93812,-0.26964,0.30702,0.01424,0.058603,-0.011158,-0.049072,0.0076349,-0.043252,-0.067254,0.12466,0.34054,-1.0696,-0.06797,0.11693
0.043632,-0.050735,0.058424,-0.0029158,0.024823,0.03948,0.0093546,0.027714,0.067943,-1.1578,-0.31922,0.29807,0.0046664,0.061215,-0.0026742,-0.046585,0.00082671,-0.029875,-0.063012,0.12937,0.35408,-0.98373,-0.072279,0.22992
0.048124,-0.058302,0.065709,0.001686,0.023594,0.035599,0.011176,0.023276,0.039667,-1.4048,-0.40137,0.28399,-0.0068136,0.066055,0.0024429,-0.041464,-0.0024435,-0.016033,-0.068967,0.13092,0.36917,-0.84279,-0.069973,0.32075
0.05289,-0.061573,0.069752,0.0022049,0.017992,0.035128,0.0096819,0.019215,0.0019673,-1.6308,-0.51919,0.26064,-0.016403,0.074557,0.0031444,-0.033615,0.0010753,-0.0062226,-0.085572,0.13101,0.37909,-0.6519,-0.063298,0.37442
0.056293,-0.05601,0.06936,0.0012123,0.011949,0.040598,0.0035431,0.014527,-0.041871,-1.8249,-0.66222,0.22136,-0.022234,0.085473,0.0024316,-0.024281,0.010349,-0.0020313,-0.10593,0.12932,0.38001,-0.43134,-0.050373,0.37571
0.057576,-0.042286,0.064945,0.0024233,0.0088511,0.050262,-0.0067824,0.0080426,-0.087482,-2.0124,-0.81614,0.15967,-0.024288,0.094275,0.0050756,-0.013594,0.020354,-0.0010082,-0.1192,0.12368,0.37392,-0.20853,-0.027985,0.30971
0.057355,-0.026187,0.058414,0.0071113,0.0087495,0.059627,-0.019068,-0.00059007,-0.13174,-2.222,-0.97103,0.074765,-0.023425,0.095482,0.013785,0.00021134,0.025434,0.001778,-0.11723,0.11212,0.36684,-0.0084949,0.0031496,0.167
0.056538,-0.014708,0.052058,0.012825,0.0087302,0.064919,-0.030059,-0.01055,-0.17425,-2.446,-1.1215,-0.024823,-0.020738,0.086764,0.027151,0.01887,0.023288,0.010296,-0.099776,0.094888,0.3638,0.15098,0.035921,-0.048247
0.055039,-0.011493,0.047248,0.015671,0.005939,0.065325,-0.036612,-0.02026,-0.21616,-2.6277,-1.2606,-0.12382,-0.017607,0.071556,0.040883,0.041341,0.016507,0.024555,-0.074586,0.074628,0.36517,0.25943,0.060211,-0.31325
0.051893,-0.014963,0.044016,0.014036,0.00038118,0.062323,-0.036815,-0.028147,-0.25688,-2.6879,-1.3757,-0.20825,-0.015831,0.057458,0.050931,0.063132,0.010446,0.040285,-0.052208,0.054801,0.36727,0.31342,0.069737,-0.59086
0.046821,-0.020166,0.04181,0.010263,-0.0050679,0.057416,-0.030723,-0.033234,-0.29168,-2.5686,-1.4506,-0.27349,-0.017132,0.051068,0.055739,0.078705,0.009243,0.051664,-0.039241,0.037805,0.36643,0.31824,0.0665,-0.84261
0.041461,-0.022582,0.040513,0.0086939,-0.0073968,0.051025,-0.020471,-0.035381,-0.31292,-2.261,-1.4752,-0.32643,-0.02211,0.053163,0.056135,0.085109,0.013183,0.055127,-0.034759,0.024398,0.36275,0.28898,0.058814,-1.0426
0.038588,-0.021029,0.040514,0.011942,-0.006374,0.043756,-0.0096387,-0.035313,-0.31423,-1.7989,-1.4523,-0.38082,-0.029517,0.058261,0.053658,0.083833,0.01923,0.051489,-0.032275,0.014702,0.35999,0.2466,0.054528,-1.1828
0.039645,-0.017849,0.041637,0.018816,-0.0048904,0.038202,-0.0018567,-0.034432,-0.29456,-1.2302,-1.3991,-0.44934,-0.036726,0.059122,0.049216,0.079397,0.023761,0.04496,-0.025502,0.0095176,0.36156,0.2086,0.055184,-1.267
0.042896,-0.016619,0.042143,0.02567,-0.0062917,0.038354,0.00093992,-0.034265,-0.25837,-0.59407,-1.3387,-0.53758,-0.041295,0.052497,0.043098,0.07594,0.024936,0.040024,-0.013334,0.010412,0.36618,0.18035,0.055789,-1.2989
0.044228,-0.01918,0.039331,0.029686,-0.011035,0.046041,-0.0003183,-0.035562,-0.21202,0.077928,-1.2892,-0.64209,-0.042505,0.041281,0.035741,0.074498,0.02304,0.038644,-0.00024542,0.01827,0.36712,0.15449,0.049869,-1.2756
0.0402,-0.024049,0.031739,0.030933,-0.015756,0.057625,-0.0022594,-0.037601,-0.15955,0.74417,-1.2554,-0.75164,-0.041618,0.031408,0.028047,0.072881,0.019305,0.039719,0.0079584,0.031654,0.35629,0.12053,0.035189,-1.1911
0.03074,-0.027265,0.021113,0.031498,-0.015811,0.06505,-0.0012298,-0.038444,-0.10155,1.3414,-1.229,-0.85023,-0.040602,0.026434,0.020897,0.067883,0.014841,0.040821,0.0092045,0.04676,0.33022,0.077579,0.015615,-1.0478
0.01907,-0.025169,0.01205,0.032906,-0.0092734,0.061746,0.0041107,-0.03632,-0.037718,1.7969,-1.1946,-0.92112,-0.040441,0.024714,0.014598,0.057944,0.010576,0.040574,0.0065552,0.059366,0.29334,0.039793,-0.0016929,-0.86516
0.0090261,-0.017281,0.0090734,0.034637,0.0010405,0.048699,0.011795,-0.031196,0.02984,2.0602,-1.1385,-0.95182,-0.040556,0.02152,0.0090679,0.044325,0.007481,0.039822,0.0047627,0.067232,0.25546,0.028578,-0.010944,-0.67663
0.0022915,-0.0072716,0.013366,0.035154,0.0093646,0.03473,0.018195,-0.025151,0.096043,2.1292,-1.0546,-0.93836,-0.039795,0.013847,0.0045316,0.03013,0.0060881,0.040934,0.0052716,0.070874,0.225,0.056337,-0.010806,-0.51622
-0.0019844,-0.0010781,0.021897,0.034151,0.01124,0.0297,0.021159,-0.020959,0.1555,2.051,-0.94487,-0.88648,-0.037893,0.0033298,0.0017809,0.018086,0.0054406,0.045998,0.0045656,0.072134,0.20285,0.114,-0.0045384,-0.40276
-0.0051583,-0.0031104,0.029719,0.033449,0.0068128,0.036094,0.02197,-0.019858,0.20552,1.8928,-0.81548,-0.80864,-0.035765,-0.0052498,0.0015194,0.0087368,0.0028875,0.055297,-0.0022341,0.072039,0.18185,0.17313,0.0019859,-0.33272
-0.0070098,-0.012904,0.033475,0.035413,0.00062218,0.046622,0.024286,-0.020366,0.24638,1.7053,-0.6729,-0.71888,-0.034178,-0.0081897,0.0035184,0.00026264,-0.0042898,0.066972,-0.015634,0.070118,0.15258,0.20318,0.0028313,-0.28624
-0.0058893,-0.024601,0.033213,0.040434,-0.0017636,0.050417,0.030816,-0.019287,0.2787,1.5035,-0.52221,-0.62886,-0.032222,-0.0057494,0.0067115,-0.010071,-0.016307,0.077809,-0.029392,0.065673,0.11096,0.19274,-0.0057769,-0.24127
-0.0009907,-0.03001,0.031314,0.046078,0.0025037,0.042503,0.040621,-0.014224,0.30085,1.2765,-0.3679,-0.547,-0.027436,-0.0012786,0.010338,-0.024042,-0.029669,0.084505,-0.034269,0.059454,0.061476,0.15952,-0.023926,-0.18596
0.0056914,-0.023615,0.029916,0.048916,0.012141,0.027999,0.04955,-0.0056262,0.30955,1.0145,-0.21482,-0.47908,-0.017978,0.0021004,0.01485,-0.041582,-0.038883,0.084804,-0.025118,0.053771,0.013218,0.14056,-0.04768,-0.12147
0.010047,-0.0063617,0.02926,0.047379,0.023258,0.017296,0.053651,0.0032973,0.30318,0.73032,-0.067322,-0.42813,-0.0049985,0.0038624,0.021242,-0.061378,-0.040148,0.078291,-0.0052287,0.050796,-0.028072,0.16804,-0.070486,-0.05552
0.0089726,0.014573,0.02813,0.042977,0.032211,0.016742,0.0527,0.0087422,0.28464,0.45818,0.072876,-0.39281,0.0071902,0.005487,0.029109,-0.082241,-0.034147,0.066727,0.016026,0.050883,-0.064867,0.24671,-0.086122,0.0066306
0.0031819,0.030213,0.025435,0.038887,0.037573,0.023355,0.050725,0.0089251,0.26075,0.2343,0.20744,-0.36663,0.013771,0.0080086,0.035402,-0.10397,-0.025581,0.053666,0.030442,0.05275,-0.1052,0.34861,-0.091749,0.066306
-0.0030526,0.035546,0.021184,0.037383,0.040165,0.028119,0.052799,0.0052278,0.23847,0.074482,0.33852,-0.34032,0.012892,0.010443,0.035689,-0.1271,-0.019717,0.04318,0.037107,0.055415,-0.15474,0.42879,-0.089205,0.12841
-0.0053133,0.032428,0.01613,0.038492,0.04168,0.024405,0.060539,0.0011308,0.22111,-0.03519,0.46323,-0.30653,0.0070168,0.010586,0.027419,-0.15188,-0.018705,0.038011,0.042382,0.059799,-0.21082,0.45108,-0.083765,0.19542
-0.0027297,0.027416,0.010903,0.040731,0.04321,0.013703,0.070063,-0.00017399,0.20773,-0.13054,0.56969,-0.26342,0.00093505,0.0071674,0.01247,-0.17753,-0.020555,0.038195,0.053976,0.068131,-0.26436,0.40618,-0.081377,0.26429
0.0013563,0.026288,0.0058458,0.042731,0.04468,0.0038122,0.074398,0.0022606,0.19599,-0.25112,0.63924,-0.21395,-0.0018875,0.001169,-0.0035203,-0.20211,-0.021409,0.041202,0.074177,0.08162,-0.30809,0.31109,-0.086213,0.32869
0.0024409,0.029805,0.0016851,0.04399,0.045273,0.0017308,0.068818,0.0069124,0.18588,-0.42186,0.65561,-0.16132,-0.001556,-0.0048197,-0.014894,-0.22285,-0.01911,0.043702,0.097578,0.098779,-0.34362,0.19334,-0.099639,0.38358
-0.0010322,0.034221,-6.0893e-006,0.044383,0.044301,0.0078767,0.054989,0.011236,0.18128,-0.64259,0.61644,-0.10451,-0.00082073,-0.0084072,-0.019747,-0.23637,-0.015156,0.043765,0.11462,0.11634,-0.37997,0.07365,-0.12031,0.42685
-0.0061583,0.035784,0.002453,0.043581,0.041821,0.016395,0.040381,0.013507,0.18807,-0.88841,0.53926,-0.037891,-0.0019807,-0.0087769,-0.020573,-0.2392,-0.01362,0.041812,0.11764,0.13216,-0.42416,-0.040541,-0.14453,0.45624
-0.0080047,0.034821,0.009247,0.041439,0.038678,0.020507,0.033006,0.013627,0.20995,-1.1199,0.45644,0.044432,-0.0043791,-0.0067755,-0.021324,-0.22884,-0.01804,0.039594,0.10485,0.14743,-0.47209,-0.14949,-0.16666,0.4647
-0.003839,0.035414,0.018102,0.038938,0.036029,0.017766,0.035419,0.012479,0.24434,-1.2977,0.40011,0.1428,-0.004566,-0.0040353,-0.02359,-0.20564,-0.028737,0.038118,0.080079,0.16595,-0.50841,-0.25192,-0.18049,0.44
0.0045211,0.040942,0.025188,0.038229,0.034688,0.010977,0.042842,0.010692,0.28106,-1.3945,0.38569,0.24889,0.0011316,-0.0019012,-0.025231,-0.17414,-0.042486,0.036399,0.049805,0.19081,-0.51682,-0.34152,-0.18158,0.37064
0.012151,0.049857,0.027508,0.041096,0.034684,0.004868,0.047059,0.0081414,0.30533,-1.4007,0.40453,0.34782,0.013785,-0.00065715,-0.022356,-0.14247,-0.05459,0.032202,0.020303,0.2212,-0.49248,-0.41067,-0.16977,0.25447
0.014864,0.056066,0.024942,0.047013,0.035251,0.0020984,0.042961,0.0046612,0.30476,-1.3234,0.43133,0.42465,0.030916,0.00075006,-0.012527,-0.11924,-0.061713,0.024148,-0.0035755,0.25179,-0.44595,-0.45585,-0.14953,0.10279
0.012217,0.053949,0.020291,0.05288,0.035266,0.0020015,0.032274,0.0011098,0.27706,-1.185,0.44229,0.47187,0.047935,0.0043004,0.0037368,-0.1095,-0.063509,0.013303,-0.018554,0.27513,-0.39483,-0.47871,-0.12725,-0.064079
0.0074668,0.043597,0.017256,0.055201,0.033869,0.0024262,0.021422,-0.0006119,0.23355,-1.0196,0.43224,0.49351,0.060746,0.011771,0.024033,-0.11229,-0.062132,0.0027755,-0.023199,0.28521,-0.35007,-0.483,-0.10711,-0.22679
0.0049549,0.031406,0.017981,0.053101,0.03089,0.0023103,0.015597,0.00096575,0.19453,-0.86539,0.41916,0.50277,0.06771,0.023426,0.046047,-0.12161,-0.060209,-0.0043792,-0.018435,0.28008,-0.30844,-0.47186,-0.08841,-0.3747
0.0071953,0.025286,0.021962,0.049409,0.026815,0.0024833,0.01447,0.0050856,0.17738,-0.74764,0.43309,0.51337,0.069902,0.03754,0.068205,-0.12981,-0.058796,-0.0072154,-0.0073916,0.26239,-0.2573,-0.44823,-0.066612,-0.50496
0.013669,0.028584,0.026894,0.048517,0.022342,0.0043288,0.013353,0.0085354,0.18434,-0.65903,0.49754,0.52921,0.069762,0.051278,0.088692,-0.13128,-0.056653,-0.0073173,0.0059319,0.23816,-0.18729,-0.41629,-0.037171,-0.61442
0.021632,0.037951,0.030475,0.052583,0.017851,0.0080312,0.0084771,0.0077514,0.19859,-0.55378,0.61662,0.53957,0.069171,0.062302,0.10452,-0.12382,-0.051221,-0.0074309,0.018302,0.21436,-0.10192,-0.37993,0.00091052,-0.69251
0.027895,0.046796,0.031792,0.059352,0.013215,0.012274,0.0011738,0.0018574,0.19336,-0.36938,0.77595,0.52453,0.068175,0.069658,0.11236,-0.10781,-0.040603,-0.0095157,0.02781,0.19602,-0.016447,-0.33873,0.044416,-0.72303
0.030364,0.051049,0.031584,0.063655,0.0080713,0.015572,-0.0031493,-0.0059878,0.14917,-0.070138,0.95447,0.46824,0.065091,0.073256,0.11076,-0.084534,-0.025246,-0.013577,0.033121,0.18408,0.05239,-0.28656,0.08812,-0.69514
0.028747,0.05207,0.031672,0.06152,0.0023463,0.017713,-0.00029567,-0.01048,0.067738,0.31563,1.1362,0.37107,0.057878,0.072744,0.10163,-0.055519,-0.0082266,-0.017799,0.03275,0.17527,0.096663,-0.21681,0.12765,-0.61506
0.0244,0.054315,0.034097,0.053471,-0.0034114,0.019706,0.0083289,-0.0081414,-0.027914,0.697,1.3123,0.25141,0.045827,0.067322,0.089346,-0.022994,0.0061151,-0.019638,0.025756,0.16478,0.11983,-0.13036,0.1609,-0.50754
0.019547,0.060179,0.040281,0.044205,-0.0081861,0.022252,0.016618,-0.00020529,-0.1082,0.96762,1.4742,0.13539,0.030357,0.056953,0.078044,0.0096317,0.014448,-0.017228,0.013474,0.15006,0.13122,-0.037284,0.18771,-0.40372
0.016186,0.066899,0.050294,0.038883,-0.011044,0.024344,0.019293,0.0081036,-0.15644,1.0698,1.6059,0.042301,0.014269,0.043687,0.069468,0.038346,0.016267,-0.010523,0.00022736,0.13296,0.13875,0.052335,0.20913,-0.32294
0.015251,0.06848,0.062519,0.039143,-0.011671,0.02363,0.016855,0.011496,-0.17894,1.0286,1.6854,-0.023127,8.2846e-006,0.03134,0.063073,0.059965,0.014129,-0.0015524,-0.0084688,0.11817,0.14578,0.14169,0.2271,-0.26179
0.01649,0.061032,0.074122,0.04212,-0.010517,0.018501,0.01514,0.0085979,-0.19817,0.92865,1.6953,-0.066581,-0.011743,0.023235,0.057875,0.073206,0.012103,0.006559,-0.0092557,0.10914,0.15289,0.25032,0.24419,-0.19881
0.019096,0.046858,0.082344,0.043112,-0.0085366,0.010081,0.01969,0.0027209,-0.23439,0.85066,1.6354,-0.093452,-0.022014,0.019751,0.054012,0.07855,0.013376,0.011493,-0.0029997,0.10498,0.16041,0.39936,0.26234,-0.11163
0.022453,0.033612,0.085901,0.039483,-0.0068572,0.0021667,0.030144,-0.0011122,-0.29002,0.81721,1.5256,-0.10212,-0.032107,0.017849,0.052567,0.077189,0.018486,0.013272,0.006339,0.10146,0.16809,0.58808,0.28073,0.0060432
0.026292,0.028987,0.085501,0.032526,-0.0066162,-0.0011304,0.039971,-0.00027973,-0.34857,0.78994,1.3967,-0.087279,-0.041965,0.013087,0.054121,0.07016,0.025254,0.014072,0.015016,0.095114,0.17286,0.78165,0.29473,0.13952
0.030158,0.035067,0.083162,0.026021,-0.0088608,0.0017166,0.042048,0.0036617,-0.38858,0.71809,1.2744,-0.049416,-0.049697,0.0025181,0.057632,0.058381,0.030411,0.016252,0.021972,0.086551,0.16863,0.9245,0.29763,0.26273
0.032951,0.046725,0.080969,0.023081,-0.014148,0.0084849,0.035151,0.0068136,-0.4009,0.59568,1.1684,-7.3383e-005,-0.052657,-0.013704,0.060596,0.043204,0.031788,0.020219,0.028463,0.079484,0.15011,0.97262,0.28503,0.35438
0.033337,0.055258,0.0802,0.024093,-0.021836,0.014681,0.025439,0.006472,-0.3954,0.47772,1.0714,0.043819,-0.049261,-0.032824,0.060001,0.026628,0.029634,0.024123,0.03579,0.075934,0.11786,0.9216,0.2588,0.40901
0.0309,0.054495,0.081146,0.027226,-0.029701,0.016515,0.021477,0.0031354,-0.39254,0.44181,0.96933,0.073143,-0.040178,-0.051093,0.053092,0.010718,0.026248,0.025737,0.043769,0.072094,0.079471,0.80872,0.22733,0.43689
0.026916,0.044845,0.083245,0.030521,-0.034707,0.013207,0.027085,-0.00058728,-0.40711,0.52785,0.85227,0.095962,-0.028082,-0.065065,0.037857,-0.0032018,0.024309,0.024744,0.0514,0.059252,0.044755,0.68767,0.20117,0.45527
0.023699,0.032468,0.085173,0.033391,-0.034883,0.0071549,0.038295,-0.002774,-0.43743,0.70715,0.72025,0.13367,-0.016176,-0.072142,0.013965,-0.014752,0.025124,0.023193,0.058493,0.029854,0.018522,0.59562,0.18703,0.47878
0.022764,0.024386,0.085139,0.0363,-0.031062,0.0020844,0.046998,-0.0038465,-0.46764,0.90577,0.58144,0.20512,-0.0065898,-0.07097,-0.015713,-0.023874,0.027981,0.023661,0.065974,-0.016002,-0.0028285,0.53675,0.18444,0.51487
0.023379,0.023354,0.081776,0.039337,-0.026771,0.00060991,0.047947,-0.0055848,-0.48003,1.0599,0.44584,0.31039,0.00027727,-0.062073,-0.044359,-0.03009,0.030855,0.02696,0.074257,-0.06915,-0.027803,0.49173,0.18735,0.56478
0.023009,0.026324,0.07537,0.041401,-0.025846,0.0027573,0.04292,-0.0087021,-0.46685,1.1548,0.31924,0.42668,0.0051453,-0.04813,-0.063013,-0.032484,0.031774,0.031582,0.081614,-0.11646,-0.062581,0.44146,0.18894,0.6265
0.019549,0.027495,0.068254,0.040919,-0.029408,0.0062153,0.038524,-0.011579,-0.43362,1.2157,0.20033,0.51977,0.0086576,-0.033008,-0.064878,-0.03049,0.029825,0.03523,0.084798,-0.14846,-0.10654,0.38475,0.18559,0.69659
0.013457,0.02329,0.063518,0.037335,-0.034762,0.0079677,0.039891,-0.011533,-0.3932,1.2638,0.081396,0.56224,0.010665,-0.019745,-0.049423,-0.024628,0.02531,0.036663,0.081775,-0.16369,-0.15425,0.33763,0.17716,0.77051
0.0077675,0.015164,0.062657,0.031816,-0.037475,0.0062102,0.046088,-0.0074459,-0.35726,1.2805,-0.048135,0.54576,0.010567,-0.0090424,-0.022917,-0.016308,0.019279,0.035965,0.0738,-0.16703,-0.20159,0.31862,0.16431,0.84301
0.0057237,0.0080164,0.064099,0.026388,-0.035093,0.0013906,0.051323,-0.0012159,-0.33136,1.2141,-0.19582,0.48083,0.0082942,0.000288,0.0054084,-0.0067429,0.013005,0.033274,0.064332,-0.16453,-0.24972,0.33394,0.14625,0.90914
0.0079963,0.0057588,0.064162,0.022259,-0.029311,-0.0041853,0.050616,0.0034331,-0.31535,1.0204,-0.35999,0.38794,0.0049777,0.0093382,0.028703,0.0040612,0.0076792,0.027824,0.055484,-0.15962,-0.30328,0.37389,0.12112,0.96482
0.011957,0.0079048,0.059903,0.018912,-0.024594,-0.0078357,0.044575,0.0038207,-0.30624,0.69971,-0.52687,0.28902,0.0026349,0.017747,0.045188,0.017306,0.0041868,0.018781,0.045598,-0.15346,-0.36444,0.42055,0.088746,1.0055
0.013759,0.010078,0.051425,0.014829,-0.024371,-0.0080797,0.038868,0.00042701,-0.30008,0.29601,-0.67497,0.20428,0.0030771,0.024692,0.056508,0.034399,0.0027458,0.0071996,0.030895,-0.14776,-0.42859,0.45886,0.052771,1.0239
0.01145,0.0078724,0.041554,0.0091453,-0.028162,-0.0053553,0.038989,-0.0034727,-0.29242,-0.13857,-0.7872,0.15211,0.006797,0.03142,0.063986,0.05581,0.0025337,-0.0032366,0.010092,-0.14634,-0.48519,0.48319,0.019891,1.0092
0.0064027,0.00066435,0.033145,0.0026773,-0.032189,-0.0015855,0.045275,-0.0042805,-0.27916,-0.58027,-0.86469,0.14646,0.012501,0.042431,0.066699,0.080587,0.001735,-0.0081228,-0.012465,-0.15369,-0.52299,0.49696,-0.0033922,0.95074
0.001828,-0.007838,0.026578,-0.002686,-0.032796,0.00095669,0.052718,-0.00065903,-0.25889,-1.0392,-0.93239,0.191,0.017506,0.063199,0.063115,0.10655,-0.0017039,-0.0057017,-0.028775,-0.1721,-0.53522,0.50824,-0.014101,0.84406
-0.00019137,-0.012601,0.019869,-0.0056635,-0.029505,0.00074947,0.055529,0.0056783,-0.23505,-1.5319,-1.0291,0.27453,0.01889,0.095654,0.054277,0.1307,-0.0088655,0.0013299,-0.033055,-0.20061,-0.52188,0.52502,-0.013843,0.69658
-0.00043257,-0.011154,0.011282,-0.0067757,-0.025009,-0.0023952,0.052037,0.011362,-0.21555,-2.0473,-1.1852,0.37351,0.015048,0.13532,0.044837,0.1497,-0.018917,0.0075327,-0.026343,-0.23669,-0.48899,0.55166,-0.0073191,0.52725
-0.0015433,-0.0051664,0.0017966,-0.0079381,-0.022452,-0.0073443,0.045467,0.013729,-0.20882,-2.5357,-1.4006,0.46119,0.0069832,0.17313,0.040353,0.16063,-0.029127,0.0088048,-0.01545,-0.27857,-0.44674,0.58629,0.00025698,0.36099
-0.0054381,0.0012824,-0.0052068,-0.010833,-0.022795,-0.012135,0.040355,0.012398,-0.21885,-2.9262,-1.6382,0.51726,-0.0016792,0.201,0.042976,0.16234,-0.036029,0.0054288,-0.0070509,-0.32517,-0.40704,0.61905,0.0051698,0.2215
-0.011633,0.0049299,-0.0069831,-0.01555,-0.024719,-0.014806,0.038414,0.0091019,-0.24262,-3.1541,-1.8387,0.53171,-0.0065088,0.21679,0.049458,0.15663,-0.037212,0.0014937,-0.0023071,-0.37306,-0.38016,0.63241,0.0059903,0.12683
-0.018,0.0052431,-0.0043318,-0.020668,-0.026747,-0.014308,0.037755,0.0061491,-0.27168,-3.1788,-1.9484,0.50264,-0.0051944,0.22464,0.053501,0.14806,-0.032765,0.0012703,0.0031336,-0.41355,-0.37069,0.605,0.0033165,0.088313
-0.022988,0.0037106,-0.0014398,-0.024587,-0.029062,-0.011015,0.035686,0.0048,-0.29639,-2.9859,-1.9436,0.43329,0.00047175,0.23082,0.0506,0.14173,-0.02542,0.0057294,0.014055,-0.43351,-0.37563,0.51919,-0.0013196,0.10947
-0.026952,0.0016854,-0.0025643,-0.026808,-0.033035,-0.0063769,0.031799,0.0047249,-0.30995,-2.5849,-1.8381,0.33201,0.0054078,0.23905,0.041357,0.14014,-0.019036,0.012085,0.030542,-0.42094,-0.38729,0.36982,-0.0072546,0.18174
-0.031335,-0.0008877,-0.0085298,-0.028046,-0.039071,-0.0018127,0.028214,0.0047509,-0.31011,-2.0138,-1.6709,0.21333,0.0047132,0.24934,0.030656,0.14126,-0.016137,0.016445,0.047584,-0.37191,-0.39994,0.1699,-0.016488,0.27984
-0.036705,-0.0046542,-0.016274,-0.029248,-0.04526,0.0023563,0.027112,0.0041212,-0.29828,-1.345,-1.4879,0.094794,-0.0026593,0.26049,0.023767,0.13976,-0.016069,0.016988,0.059372,-0.29415,-0.41524,-0.050516,-0.033883,0.36347
-0.041815,-0.0090044,-0.021794,-0.03056,-0.048542,0.0069825,0.028423,0.003187,-0.27732,-0.6747,-1.3251,-0.011777,-0.012953,0.27286,0.022897,0.13084,-0.015247,0.014965,0.063822,-0.20443,-0.44093,-0.25311,-0.064478,0.39003
-0.044697,-0.011437,-0.023644,-0.031204,-0.04738,0.013036,0.030053,0.0030102,-0.24898,-0.087722,-1.2032,-0.10827,-0.020252,0.28795,0.026862,0.11401,-0.0096514,0.013015,0.063006,-0.12129,-0.48288,-0.40386,-0.1087,0.33345
-0.04464,-0.0092366,-0.023717,-0.030286,-0.043259,0.020357,0.030133,0.0042945,-0.21247,0.38625,-1.128,-0.20872,-0.020668,0.30491,0.033409,0.093912,0.0020025,0.012704,0.059578,-0.057539,-0.53693,-0.48308,-0.15878,0.19699
-0.04303,-0.0021375,-0.024837,-0.027704,-0.039297,0.027434,0.028768,0.0066213,-0.16497,0.7893,-1.0923,-0.32639,-0.014803,0.31808,0.041373,0.077255,0.01679,0.013562,0.053201,-0.016882,-0.58833,-0.48824,-0.19998,0.010099
-0.042199,0.0066563,-0.027758,-0.024335,-0.037152,0.03248,0.027597,0.0086905,-0.10417,1.2015,-1.0778,-0.45857,-0.0067353,0.31882,0.050536,0.068308,0.029082,0.014137,0.040717,0.0044149,-0.62048,-0.42954,-0.21742,-0.18903
-0.043464,0.012465,-0.030603,-0.021383,-0.035206,0.034763,0.027959,0.0093798,-0.031407,1.6715,-1.0576,-0.58294,-0.00064884,0.30116,0.059793,0.066512,0.034111,0.013591,0.019832,0.012751,-0.62652,-0.3233,-0.20474,-0.37222
-0.046195,0.01266,-0.031144,-0.019513,-0.030019,0.034904,0.029757,0.0086897,0.046949,2.1622,-1.0051,-0.67085,0.0020315,0.26648,0.066166,0.06836,0.031024,0.012064,-0.007392,0.012791,-0.61397,-0.18805,-0.16866,-0.52812
-0.048645,0.0085882,-0.029419,-0.018542,-0.019961,0.033896,0.032056,0.0077308,0.12145,2.5587,-0.90428,-0.70885,0.0028828,0.22293,0.066309,0.071977,0.023176,0.0096008,-0.034636,0.0058253,-0.59819,-0.044116,-0.1258,-0.65497
-0.049597,0.0040809,-0.027984,-0.01793,-0.0077144,0.031994,0.034365,0.0077828,0.18349,2.7424,-0.7584,-0.71089,0.0042749,0.17947,0.059382,0.080393,0.01551,0.0051736,-0.054934,-0.008891,-0.58992,0.087534,-0.093317,-0.74977
-0.049283,0.001902,-0.029545,-0.017591,0.00091924,0.02874,0.036909,0.0093163,0.22836,2.6783,-0.58939,-0.71007,0.0067237,0.13959,0.048425,0.10038,0.011085,-0.0026209,-0.064603,-0.03139,-0.58717,0.1907,-0.079497,-0.80572
-0.048934,0.0014857,-0.034425,-0.018146,0.0013224,0.024067,0.039613,0.011877,0.25533,2.4483,-0.42743,-0.73488,0.007901,0.10005,0.038504,0.13738,0.0093676,-0.013483,-0.064379,-0.058903,-0.57828,0.26178,-0.080355,-0.82024
-0.049595,2.17e-005,-0.040405,-0.020197,-0.0060311,0.019141,0.041189,0.014851,0.26591,2.2019,-0.29504,-0.78778,0.0039723,0.055699,0.032967,0.19038,0.0074286,-0.024105,-0.057475,-0.085702,-0.55329,0.31282,-0.084119,-0.80364
-0.05133,-0.0043393,-0.045082,-0.023127,-0.015485,0.015762,0.039804,0.018228,0.26281,2.0592,-0.19442,-0.84213,-0.0077235,0.006254,0.031092,0.25104,0.002831,-0.029608,-0.046821,-0.10478,-0.51412,0.3642,-0.079747,-0.77697
-0.053396,-0.010406,-0.048367,-0.024642,-0.020273,0.014789,0.034978,0.022481,0.25109,2.0395,-0.10567,-0.85984,-0.026468,-0.041213,0.029252,0.3076,-0.0042474,-0.02723,-0.033916,-0.11029,-0.47485,0.42962,-0.063237,-0.75769
-0.055031,-0.014961,-0.052688,-0.021932,-0.017559,0.015336,0.028751,0.027628,0.23936,2.0641,0.0016919,-0.81615,-0.047917,-0.076629,0.024557,0.35091,-0.011316,-0.019245,-0.019672,-0.099537,-0.45225,0.50408,-0.037742,-0.74407
-0.056127,-0.015656,-0.0607,-0.013927,-0.010366,0.015835,0.024566,0.032422,0.23782,2.0237,0.14968,-0.71397,-0.06609,-0.094862,0.017648,0.37787,-0.015808,-0.012101,-0.0056953,-0.073769,-0.45416,0.56473,-0.0085034,-0.71192
-0.05727,-0.012815,-0.07267,-0.002826,-0.0048874,0.016066,0.024535,0.034667,0.25269,1.8525,0.33646,-0.57946,-0.076494,-0.10084,0.012114,0.3906,-0.017165,-0.01174,0.0056063,-0.037881,-0.47455,0.58487,0.022646,-0.62756
-0.059173,-0.0085197,-0.085835,0.0067524,-0.0055364,0.017891,0.027586,0.032613,0.28092,1.557,0.53545,-0.44414,-0.078434,-0.10746,0.011057,0.39265,-0.016996,-0.018587,0.012286,0.00083802,-0.49831,0.55076,0.058743,-0.46823
-0.061954,-0.0042805,-0.0961,0.010865,-0.011833,0.023473,0.030373,0.026436,0.31031,1.1933,0.71106,-0.32746,-0.07497,-0.12753,0.013873,0.38575,-0.017384,-0.026487,0.014194,0.034716,-0.51078,0.46881,0.10437,-0.23609
-0.064754,8.8305e-005,-0.10043,0.0093365,-0.019436,0.032295,0.030297,0.018586,0.32639,0.82695,0.84148,-0.23058,-0.070528,-0.16528,0.016168,0.36936,-0.019017,-0.026892,0.013083,0.058165,-0.50504,0.35924,0.16066,0.042207
-0.066004,0.0053205,-0.098111,0.0061961,-0.023961,0.03995,0.027858,0.012621,0.32163,0.51221,0.93286,-0.14245,-0.067798,-0.21301,0.012995,0.3425,-0.020803,-0.015301,0.011389,0.069681,-0.48287,0.24314,0.22264,0.32779
-0.064246,0.010796,-0.090486,0.0067552,-0.024093,0.040547,0.026065,0.011179,0.29988,0.29558,1.0143,-0.050956,-0.0661,-0.25476,0.0028002,0.30577,-0.021064,0.005049,0.010759,0.072048,-0.45115,0.13353,0.28078,0.58483
-0.059088,0.01423,-0.080084,0.013439,-0.021547,0.031412,0.027379,0.01437,0.27295,0.21915,1.1173,0.049409,-0.062236,-0.27413,-0.011199,0.26192,-0.019038,0.025102,0.011493,0.070118,-0.41755,0.035331,0.32524,0.79111
-0.051684,0.013516,-0.069925,0.023751,-0.018596,0.016367,0.030989,0.019591,0.2522,0.30445,1.2554,0.15685,-0.052896,-0.26145,-0.023438,0.2149,-0.015371,0.035975,0.013055,0.067254,-0.38817,-0.049343,0.34983,0.9417
-0.044363,0.0088575,-0.062887,0.032158,-0.015902,0.0043781,0.033018,0.023023,0.2419,0.52578,1.4189,0.26605,-0.036638,-0.21685,-0.030385,0.16853,-0.011438,0.034451,0.014818,0.063018,-0.36642,-0.11742,0.35362,1.0472
-0.039449,0.002904,-0.060669,0.034454,-0.01267,0.0037841,0.029598,0.022007,0.23874,0.80337,1.5865,0.37167,-0.014046,-0.14866,-0.033412,0.12568,-0.0083648,0.024149,0.016135,0.054188,-0.35201,-0.16556,0.34011,1.1286
-0.037927,-0.0013903,-0.062736,0.031076,-0.0085096,0.016007,0.020197,0.016885,0.23637,1.0351,1.7426,0.46895,0.013584,-0.069137,-0.037788,0.088002,-0.0065747,0.012092,0.01581,0.038713,-0.3406,-0.1927,0.31514,1.2109
-0.038773,-0.0031153,-0.066364,0.026691,-0.0046743,0.033601,0.0083719,0.010953,0.23035,1.1513,1.8849,0.55295,0.045474,0.0096925,-0.048424,0.055672,-0.0058804,0.0037289,0.011878,0.019485,-0.32546,-0.20034,0.28465,1.315
-0.039497,-0.0036504,-0.068397,0.026469,-0.003155,0.044717,-0.00065808,0.0083059,0.21994,1.1525,2.0169,0.61925,0.081272,0.078074,-0.065552,0.027011,-0.0056846,2.806e-005,0.0025158,0.0044918,-0.30146,-0.19018,0.25308,1.452
-0.037691,-0.004647,-0.067632,0.032137,-0.0045373,0.041261,-0.0036403,0.010874,0.20645,1.1006,2.1359,0.6672,0.11986,0.12861,-0.083607,-0.0016939,-0.0051319,-0.0018625,-0.01224,0.0025397,-0.26873,-0.16263,0.22263,1.6197
-0.032634,-0.0059316,-0.065834,0.040884,-0.0069582,0.024879,-0.0013232,0.016846,0.1911,1.0722,2.2283,0.70362,0.15837,0.15593,-0.094153,-0.03543,-0.0035187,-0.0056002,-0.029406,0.017525,-0.23257,-0.11961,0.19363,1.803
-0.02585,-0.0056258,-0.066296,0.04774,-0.0074664,0.0060473,0.0024759,0.021894,0.1743,1.1081,2.2797,0.74315,0.19248,0.15745,-0.090722,-0.078456,-0.0010727,-0.012748,-0.043855,0.045727,-0.19911,-0.070572,0.166,1.9781
-0.020142,-0.0025089,-0.071062,0.049308,-0.0046231,-0.0033817,0.0038418,0.02248,0.15657,1.1971,2.2885,0.80339,0.2179,0.13531,-0.07224,-0.13157,0.00050703,-0.021726,-0.050894,0.07839,-0.16999,-0.036103,0.14077,2.118
-0.017673,0.001772,-0.079173,0.045982,0.00018305,0.0013106,0.0014873,0.018681,0.13942,1.2963,2.2724,0.89642,0.2319,0.097576,-0.043056,-0.19007,-0.0013723,-0.028792,-0.048926,0.10757,-0.14065,-0.043882,0.12042,2.1999
-0.018465,0.0031409,-0.087385,0.041245,0.0040605,0.014639,-0.0026509,0.014144,0.1253,1.3651,2.2577,1.0213,0.23398,0.056913,-0.010138,-0.24408,-0.0084422,-0.030108,-0.040204,0.13052,-0.10353,-0.11696,0.10762,2.212
-0.020445,-0.0017411,-0.09257,0.038865,0.0053623,0.025534,-0.0051814,0.013075,0.1165,1.3835,2.2605,1.1622,0.22579,0.026892,0.020272,-0.28203,-0.019854,-0.023769,-0.029024,0.1491,-0.053467,-0.26075,0.10325,2.1568
-0.021081,-0.012201,-0.093658,0.040077,0.0052093,0.025778,-0.0039993,0.016769,0.11391,1.3458,2.2746,1.2933,0.21065,0.017835,0.044541,-0.29608,-0.032061,-0.010969,-0.018589,0.16522,0.0094218,-0.45706,0.10548,2.0499
-0.019342,-0.02321,-0.091617,0.042541,0.0062839,0.015505,-2.5064e-005,0.022652,0.11618,1.245,2.2753,1.3884,0.19315,0.034283,0.061618,-0.28622,-0.040725,0.0041906,-0.0088692,0.17655,0.081286,-0.66929,0.11089,1.914
-0.016408,-0.028651,-0.087902,0.041676,0.010012,0.0018484,0.0032819,0.026619,0.11946,1.0695,2.2367,1.4311,0.17823,0.074257,0.072042,-0.25992,-0.04332,0.016386,0.0029153,0.17691,0.15844,-0.85593,0.11672,1.7712
-0.014522,-0.025776,-0.082996,0.033625,0.014842,-0.0073876,0.0023155,0.02653,0.11793,0.81751,2.1494,1.4188,0.16944,0.1293,0.077093,-0.22688,-0.040524,0.021703,0.019466,0.16124,0.23983,-0.9844,0.12212,1.6386
-0.014951,-0.017291,-0.076285,0.018149,0.017389,-0.0093626,-0.0040383,0.023721,0.10578,0.51599,2.0237,1.3621,0.16692,0.1852,0.078459,-0.19206,-0.035491,0.019896,0.040283,0.13112,0.32614,-1.0387,0.12745,1.5271
-0.016846,-0.0093291,-0.067101,-0.00042045,0.015561,-0.0069107,-0.013417,0.021329,0.079995,0.22338,1.8792,1.2782,0.16684,0.22517,0.078063,-0.15227,-0.031866,0.014654,0.060648,0.095663,0.41706,-1.0191,0.13219,1.4421
-0.018006,-0.0068653,-0.055791,-0.015198,0.010886,-0.004766,-0.021458,0.021234,0.043036,0.0074857,1.7274,1.1851,0.1634,0.23631,0.077649,-0.099292,-0.032151,0.011189,0.073707,0.066524,0.50968,-0.93894,0.13365,1.3825
-0.016843,-0.010148,-0.043903,-0.020856,0.0077657,-0.0052987,-0.024794,0.022599,0.0032518,-0.089935,1.5642,1.0966,0.15264,0.21717,0.07815,-0.028002,-0.037309,0.012401,0.07438,0.050845,0.59945,-0.82083,0.12761,1.3366
-0.01372,-0.014794,-0.033455,-0.017224,0.0099592,-0.0072844,-0.023433,0.02327,-0.027972,-0.078647,1.3755,1.0208,0.13529,0.1802,0.079236,0.056409,-0.04721,0.016324,0.062469,0.047661,0.68242,-0.69633,0.11053,1.2821
-0.010473,-0.015259,-0.025893,-0.0095972,0.017095,-0.0079275,-0.020749,0.022373,-0.041406,-0.017192,1.1509,0.95974,0.11629,0.14533,0.07945,0.13759,-0.061029,0.017135,0.0428,0.050564,0.75623,-0.60325,0.081345,1.1917
-0.0086279,-0.0088335,-0.021419,-0.0051308,0.024264,-0.0056476,-0.02103,0.021294,-0.034639,0.01814,0.89416,0.90925,0.10095,0.12706,0.076982,0.19483,-0.077246,0.0094752,0.022383,0.05397,0.8189,-0.57712,0.041729,1.047
-0.0080763,0.002732,-0.019027,-0.007747,0.025429,-0.0011917,-0.026374,0.021993,-0.013209,-0.025834,0.62233,0.86057,0.090899,0.12457,0.070753,0.21299,-0.093692,-0.0070481,0.0066627,0.057456,0.8671,-0.63635,-0.0048148,0.84921
-0.0074525,0.014754,-0.01726,-0.015441,0.018188,0.0033297,-0.035234,0.024417,0.012739,-0.15314,0.3551,0.80406,0.083092,0.12293,0.061233,0.18905,-0.10803,-0.026865,-0.0026261,0.064669,0.89622,-0.768,-0.054009,0.62087
-0.0057505,0.022665,-0.015291,-0.022144,0.0060625,0.0061623,-0.043618,0.025849,0.0342,-0.32209,0.1052,0.73462,0.072998,0.10557,0.050543,0.13137,-0.11845,-0.042057,-0.0069851,0.078379,0.90296,-0.92509,-0.10149,0.39274
-0.0034836,0.024308,-0.01366,-0.022596,-0.0038337,0.0069569,-0.047878,0.023151,0.047716,-0.47385,-0.12306,0.65513,0.058984,0.068114,0.041731,0.053366,-0.12389,-0.047821,-0.00908,0.096501,0.88831,-1.0424,-0.14368,0.18626
-0.0021706,0.02035,-0.013995,-0.016231,-0.0061104,0.0066873,-0.046898,0.015908,0.055724,-0.56587,-0.32721,0.57435,0.04402,0.02223,0.037608,-0.032732,-0.12371,-0.04537,-0.010981,0.11261,0.85777,-1.0659,-0.17911,0.0036743
-0.0026505,0.013296,-0.017699,-0.007025,-0.0011553,0.0068142,-0.04219,0.007396,0.063078,-0.58888,-0.4998,0.49946,0.033039,-0.013734,0.039742,-0.11783,-0.11722,-0.040007,-0.013765,0.12005,0.81818,-0.9803,-0.20944,-0.1665
-0.0039618,0.006168,-0.024506,0.00013186,0.0054797,0.0082837,-0.036275,0.0022503,0.072685,-0.55905,-0.62884,0.42899,0.02835,-0.029239,0.048037,-0.19387,-0.10401,-0.036404,-0.017979,0.11561,0.77332,-0.8161,-0.23859,-0.33363
-0.0040282,0.0014062,-0.032123,0.0031062,0.0078564,0.010886,-0.030992,0.0028026,0.083504,-0.49569,-0.70592,0.35291,0.027379,-0.028712,0.060909,-0.25189,-0.084867,-0.035357,-0.023832,0.099732,0.72219,-0.63138,-0.26968,-0.49233
-0.0016097,2.3761e-005,-0.037484,0.0032279,0.0044602,0.013399,-0.02704,0.0073355,0.092067,-0.4044,-0.7347,0.26179,0.024939,-0.025578,0.075777,-0.28385,-0.062361,-0.034528,-0.030645,0.07388,0.66154,-0.4793,-0.30183,-0.62433
0.0023426,0.0010862,-0.038763,0.0030455,-0.0011265,0.014607,-0.024637,0.011708,0.09596,-0.27926,-0.7319,0.15831,0.017978,-0.02894,0.089551,-0.28741,-0.04011,-0.031648,-0.036274,0.038462,0.59073,-0.38303,-0.32957,-0.71435
0.0053206,0.0020317,-0.036565,0.0037615,-0.00409,0.014543,-0.024105,0.012707,0.096456,-0.12052,-0.71873,0.061128,0.0083678,-0.034888,0.098979,-0.26862,-0.020689,-0.026493,-0.037472,-0.0063649,0.51495,-0.33327,-0.34597,-0.76813
0.0054074,0.00017321,-0.033319,0.0047505,-0.0030317,0.014809,-0.025627,0.010068,0.098325,0.05004,-0.70933,-0.0040328,0.0010418,-0.029919,0.10095,-0.23894,-0.0036819,-0.019776,-0.0313,-0.057785,0.44406,-0.30608,-0.34735,-0.8182
0.0029699,-0.0052377,-0.031367,0.0050896,-0.0010004,0.017339,-0.028527,0.0056891,0.10698,0.19223,-0.70501,-0.020492,-0.00083603,-0.0031272,0.092962,-0.20758,0.014423,-0.010786,-0.016602,-0.10841,0.38757,-0.28465,-0.33573,-0.91161
0.00027112,-0.011902,-0.031247,0.005042,-0.0020925,0.022413,-0.031103,0.0013044,0.12485,0.26954,-0.69823,0.0082364,0.0008234,0.043419,0.073907,-0.17524,0.037941,0.0029855,0.0055719,-0.14773,0.34948,-0.26832,-0.31704,-1.0861
-0.00070572,-0.015533,-0.031415,0.0058461,-0.0071529,0.027783,-0.031462,-0.0028163,0.14928,0.27339,-0.68199,0.06114,0.00033933,0.094445,0.045005,-0.13499,0.06862,0.023338,0.032869,-0.16647,0.32626,-0.26484,-0.2968,-1.3492
-0.00020662,-0.012714,-0.029401,0.008246,-0.012964,0.030116,-0.028714,-0.0070998,0.1734,0.2295,-0.65618,0.11386,-0.007028,0.13056,0.01031,-0.080023,0.10361,0.048599,0.063066,-0.16096,0.30938,-0.27564,-0.27686,-1.6734
-0.00053153,-0.0035681,-0.023417,0.011564,-0.015739,0.027824,-0.023501,-0.011155,0.1895,0.18002,-0.62587,0.15268,-0.021253,0.13851,-0.023969,-0.012056,0.13653,0.07393,0.09501,-0.13477,0.29064,-0.28761,-0.25607,-2.0079
-0.0037482,0.0078617,-0.013348,0.014382,-0.015297,0.022719,-0.0174,-0.013585,0.19298,0.15506,-0.59426,0.17763,-0.037924,0.11492,-0.051589,0.056869,0.16116,0.0949,0.1286,-0.096563,0.26716,-0.27721,-0.23351,-2.3014
-0.0092963,0.015996,-0.00075608,0.016026,-0.015449,0.01867,-0.011779,-0.013542,0.18466,0.15573,-0.55785,0.1941,-0.052197,0.062843,-0.068975,0.11103,0.17537,0.111,0.16405,-0.055857,0.24282,-0.22236,-0.21135,-2.5193
-0.013718,0.017232,0.011855,0.017174,-0.019937,0.018116,-0.0070282,-0.012276,0.16998,0.16135,-0.50914,0.2024,-0.062587,-0.013505,-0.076834,0.14075,0.18239,0.12552,0.20114,-0.019141,0.22539,-0.1127,-0.19466,-2.6497
-0.012968,0.01213,0.022073,0.01893,-0.027905,0.01963,-0.0027493,-0.012744,0.15595,0.15295,-0.44466,0.19567,-0.071423,-0.11017,-0.079447,0.14753,0.18825,0.14176,0.23864,0.011481,0.22064,0.047583,-0.18867,-2.6971
-0.0055238,0.0048548,0.028604,0.021432,-0.033731,0.019096,0.0013691,-0.017336,0.14794,0.13254,-0.37062,0.16792,-0.08214,-0.22067,-0.081986,0.14085,0.19734,0.15912,0.27432,0.036992,0.22748,0.24302,-0.19606,-2.6747
0.0062442,0.00044079,0.031974,0.023605,-0.031935,0.013874,0.0047862,-0.025816,0.14832,0.12233,-0.30015,0.12409,-0.096371,-0.33331,-0.087789,0.13059,0.20921,0.1728,0.30508,0.059012,0.23764,0.45069,-0.21579,-2.6015
0.017571,0.0017691,0.034492,0.024415,-0.022794,0.0062353,0.0062286,-0.035477,0.15725,0.14647,-0.24384,0.081589,-0.11345,-0.43289,-0.097514,0.12169,0.21906,0.17743,0.32728,0.078224,0.24096,0.64104,-0.24355,-2.5048
0.024504,0.0080959,0.039172,0.024336,-0.013166,0.0025193,0.0048102,-0.043292,0.17406,0.21193,-0.20163,0.060519,-0.13224,-0.50641,-0.11046,0.11476,0.22136,0.17127,0.33705,0.094685,0.23291,0.77747,-0.27211,-2.4195
0.026337,0.015796,0.047878,0.025399,-0.011243,0.0080369,0.0013715,-0.047951,0.19763,0.30468,-0.1639,0.069663,-0.15279,-0.54855,-0.12648,0.11033,0.21357,0.15755,0.33079,0.10924,0.21882,0.8204,-0.29167,-2.3763
0.025496,0.020695,0.059784,0.029576,-0.019563,0.0218,-0.0012088,-0.050002,0.22532,0.40184,-0.12137,0.099369,-0.1761,-0.56265,-0.14645,0.11101,0.19723,0.14203,0.30638,0.12421,0.2107,0.73962,-0.29144,-2.3817
0.025171,0.020575,0.071402,0.036899,-0.032477,0.035905,0.00055542,-0.050444,0.25212,0.48732,-0.075328,0.12697,-0.20219,-0.55687,-0.17093,0.11932,0.17594,0.12911,0.2648,0.14224,0.21856,0.53182,-0.26354,-2.4073
0.026695,0.0164,0.078586,0.045031,-0.040426,0.04081,0.0082591,-0.04961,0.27169,0.55758,-0.038765,0.1306,-0.22884,-0.53885,-0.19828,0.13405,0.15261,0.11955,0.21151,0.16385,0.24256,0.23305,-0.2076,-2.3997
0.028759,0.01148,0.079407,0.050699,-0.037528,0.032646,0.019907,-0.047523,0.2794,0.6156,-0.026589,0.10134,-0.2524,-0.51265,-0.22423,0.15015,0.12841,0.11102,0.15613,0.18597,0.27266,-0.085513,-0.13223,-2.3137
0.028958,0.0090381,0.075767,0.051784,-0.026096,0.016523,0.030662,-0.045006,0.27525,0.66194,-0.042832,0.045907,-0.27007,-0.47936,-0.2434,0.1635,0.10388,0.10057,0.10953,0.20299,0.2965,-0.34197,-0.050949,-2.1448
0.026248,0.0098077,0.07229,0.048403,-0.01446,0.0027714,0.035903,-0.043819,0.26421,0.69248,-0.075973,-0.02046,-0.28132,-0.4399,-0.25161,0.17604,0.080386,0.086855,0.07938,0.21009,0.30921,-0.47843,0.025129,-1.9353
0.022188,0.011484,0.073035,0.042314,-0.010112,-0.0011087,0.034459,-0.045276,0.2531,0.70335,-0.10674,-0.084251,-0.28712,-0.39739,-0.24719,0.19542,0.059784,0.070987,0.066635,0.20651,0.31688,-0.48662,0.092361,-1.7446
0.019878,0.010598,0.078487,0.035383,-0.01392,0.0037815,0.029465,-0.048644,0.24619,0.69609,-0.12195,-0.13965,-0.28774,-0.35755,-0.23042,0.22776,0.042697,0.05561,0.065479,0.19611,0.33028,-0.40802,0.15283,-1.6024
0.021483,0.0054245,0.08526,0.028406,-0.019961,0.0091068,0.026,-0.051174,0.24269,0.67689,-0.12258,-0.18733,-0.2815,-0.32729,-0.20189,0.26909,0.027339,0.043101,0.066919,0.18477,0.35403,-0.30729,0.20758,-1.4815
0.026435,-0.0024742,0.088822,0.021043,-0.020689,0.0066553,0.027271,-0.05004,0.23795,0.65116,-0.11928,-0.22906,-0.26591,-0.31239,-0.16141,0.30294,0.010842,0.033978,0.063599,0.17667,0.38057,-0.23574,0.25142,-1.3149
0.031814,-0.0094145,0.086987,0.012624,-0.012978,-0.0045928,0.032286,-0.044516,0.22701,0.61938,-0.11949,-0.264,-0.24058,-0.31551,-0.10876,0.30739,-0.0076911,0.026569,0.05263,0.17217,0.39476,-0.20871,0.27519,-1.0466
0.034567,-0.012528,0.081248,0.0030828,-0.00024645,-0.017706,0.036799,-0.036383,0.20764,0.57792,-0.11782,-0.28998,-0.20938,-0.33537,-0.045949,0.26627,-0.025271,0.018352,0.035021,0.16879,0.38576,-0.20985,0.27411,-0.67933
0.03371,-0.011941,0.074952,-0.0066336,0.01053,-0.023852,0.036682,-0.028244,0.18064,0.52303,-0.098092,-0.30859,-0.17982,-0.36752,0.020741,0.17631,-0.036536,0.0082386,0.013112,0.16397,0.35633,-0.21534,0.25473,-0.27924
0.030798,-0.010348,0.070083,-0.014844,0.014055,-0.019773,0.031016,-0.021398,0.14784,0.45331,-0.045076,-0.32847,-0.15956,-0.40618,0.080883,0.044957,-0.037971,-0.0018941,-0.011406,0.15698,0.32166,-0.21631,0.2331,0.066882
0.02846,-0.010429,0.065597,-0.019917,0.01,-0.010267,0.022621,-0.015197,0.11025,0.36971,0.044517,-0.3626,-0.15234,-0.44636,0.12304,-0.11766,-0.031348,-0.0079755,-0.037496,0.14856,0.29819,-0.22148,0.22449,0.31098
0.028339,-0.012436,0.058685,-0.021132,0.0023532,-0.0038788,0.015868,-0.0082302,0.068445,0.27534,0.16087,-0.41969,-0.15604,-0.48462,0.13978,-0.30432,-0.023215,-0.0067534,-0.063659,0.1391,0.29101,-0.24044,0.23269,0.47399
0.030036,-0.014025,0.047613,-0.019105,-0.0038102,-0.0059599,0.013667,6.5065e-005,0.024572,0.17719,0.28968,-0.49562,-0.16413,-0.51831,0.1316,-0.50823,-0.020501,0.001051,-0.087521,0.12776,0.28953,-0.26636,0.24786,0.62439
0.031665,-0.01238,0.033449,-0.01547,-0.0052502,-0.015092,0.015879,0.0088896,-0.016374,0.087725,0.42189,-0.57171,-0.16958,-0.54401,0.10709,-0.71515,-0.025676,0.010178,-0.10684,0.11356,0.27442,-0.277,0.25467,0.82293
0.031423,-0.0067298,0.019188,-0.011976,-0.0014768,-0.025355,0.019984,0.016835,-0.047945,0.022129,0.55602,-0.62262,-0.16848,-0.55718,0.078396,-0.89935,-0.035395,0.013848,-0.12098,0.097491,0.23038,-0.25559,0.24369,1.0764
0.028994,0.00086089,0.0072661,-0.0096466,0.0058855,-0.031592,0.023119,0.022797,-0.065787,-0.0091602,0.69223,-0.62957,-0.16119,-0.55414,0.05459,-1.0303,-0.043593,0.00838,-0.13125,0.08298,0.15585,-0.21261,0.21679,1.3341
0.025888,0.0069944,-0.0022376,-0.0086126,0.013975,-0.032771,0.023815,0.026127,-0.07049,-0.0076376,0.82519,-0.59052,-0.15062,-0.53555,0.037013,-1.0877,-0.046304,-0.0042171,-0.13984,0.073726,0.063856,-0.18613,0.18319,1.5266
0.024503,0.0094012,-0.011233,-0.0085918,0.019407,-0.031154,0.022393,0.026345,-0.067194,0.013144,0.94317,-0.52079,-0.13937,-0.50867,0.01994,-1.0738,-0.044248,-0.017904,-0.14842,0.070311,-0.025503,-0.2157,0.15096,1.6137
0.026448,0.0083748,-0.021636,-0.0093773,0.019426,-0.029208,0.020176,0.023386,-0.062061,0.035757,1.034,-0.44424,-0.12821,-0.48605,-0.0038779,-1.0122,-0.041362,-0.027237,-0.15766,0.068786,-0.095142,-0.30931,0.12206,1.6072
0.031137,0.0061787,-0.033525,-0.010772,0.013679,-0.02775,0.01837,0.018561,-0.058522,0.049237,1.0917,-0.38144,-0.11655,-0.48064,-0.036741,-0.93362,-0.04099,-0.031136,-0.16803,0.063016,-0.13782,-0.43044,0.094118,1.557
0.035711,0.0050979,-0.044759,-0.012181,0.0053155,-0.026678,0.017399,0.015044,-0.056448,0.053237,1.1191,-0.34211,-0.1042,-0.49964,-0.073256,-0.85822,-0.043143,-0.032761,-0.18043,0.049342,-0.1567,-0.51695,0.065968,1.5152
0.036644,0.0057844,-0.052077,-0.012626,-0.00026642,-0.026551,0.0169,0.016589,-0.054765,0.053304,1.1237,-0.32504,-0.092122,-0.54035,-0.10322,-0.78965,-0.044961,-0.035906,-0.19565,0.029761,-0.16078,-0.51775,0.040613,1.5067
0.032198,0.0071268,-0.052762,-0.011504,0.00099515,-0.028592,0.016086,0.024879,-0.054786,0.052659,1.1131,-0.32313,-0.081544,-0.59024,-0.11783,-0.72229,-0.043557,-0.041343,-0.21276,0.010735,-0.1585,-0.42017,0.023224,1.5221
0.023959,0.0075488,-0.04597,-0.0094629,0.0084349,-0.032972,0.014175,0.037746,-0.060693,0.048771,1.0938,-0.32825,-0.072188,-0.63093,-0.11463,-0.65372,-0.03861,-0.046339,-0.22788,-0.0017519,-0.15329,-0.25117,0.016845,1.5298
0.016087,0.0065333,-0.033171,-0.0083098,0.016551,-0.037562,0.01072,0.050406,-0.07617,0.037817,1.0721,-0.333,-0.061609,-0.64483,-0.097946,-0.5894,-0.032655,-0.047479,-0.23488,-0.0069142,-0.143,-0.057835,0.020419,1.4963
0.012558,0.0051164,-0.017579,-0.0097257,0.018846,-0.039101,0.0058059,0.059339,-0.099998,0.022028,1.0542,-0.3301,-0.046546,-0.62184,-0.075005,-0.53549,-0.029138,-0.043909,-0.22813,-0.0096678,-0.12267,0.11362,0.030701,1.4029
0.014435,0.0050198,-0.0027495,-0.013831,0.012809,-0.036087,0.00011274,0.065678,-0.12494,0.011611,1.0448,-0.31271,-0.025349,-0.56372,-0.051009,-0.48803,-0.029945,-0.037974,-0.20563,-0.016333,-0.088397,0.22741,0.045303,1.255
0.019359,0.0071975,0.0089636,-0.018994,0.0019714,-0.030544,-0.0052674,0.07482,-0.14187,0.017871,1.0442,-0.27689,0.00052597,-0.48367,-0.026588,-0.43082,-0.034167,-0.032869,-0.1706,-0.029118,-0.040077,0.25956,0.063232,1.0823
0.023709,0.011018,0.017162,-0.023176,-0.0067225,-0.026649,-0.0092722,0.091888,-0.14627,0.042724,1.0482,-0.22479,0.027206,-0.40056,0.0010903,-0.34605,-0.038657,-0.029758,-0.13012,-0.044146,0.01798,0.20242,0.082414,0.92726
0.025577,0.014787,0.022869,-0.025609,-0.00807,-0.027207,-0.011439,0.1164,-0.1419,0.073968,1.0501,-0.16485,0.050606,-0.33005,0.034969,-0.22868,-0.039779,-0.027105,-0.091802,-0.054836,0.078041,0.075392,0.097483,0.82282
0.025975,0.017235,0.027249,-0.027214,-0.0021152,-0.031211,-0.012275,0.14061,-0.13802,0.091448,1.0441,-0.10794,0.068242,-0.27748,0.075132,-0.091478,-0.035324,-0.022695,-0.060435,-0.057795,0.13062,-0.070279,0.10127,0.77159
0.027306,0.018765,0.030799,-0.029363,0.0065845,-0.034772,-0.013092,0.15334,-0.14222,0.080143,1.0251,-0.061363,0.079273,-0.23721,0.11798,0.044134,-0.025743,-0.016212,-0.036954,-0.056109,0.16671,-0.16689,0.089766,0.74094
0.030574,0.021289,0.033718,-0.032191,0.012878,-0.034589,-0.015225,0.14682,-0.15475,0.040233,0.98839,-0.025134,0.083182,-0.199,0.15752,0.16299,-0.014181,-0.0098695,-0.02003,-0.057071,0.1807,-0.165,0.066202,0.6832
0.034004,0.026531,0.036827,-0.034156,0.014674,-0.030776,-0.019014,0.12167,-0.16902,-0.013535,0.9286,0.0065465,0.078797,-0.1568,0.18748,0.26347,-0.005189,-0.006609,-0.0088823,-0.066139,0.17336,-0.06606,0.040035,0.57033
0.034419,0.034001,0.041647,-0.033379,0.01361,-0.026561,-0.02328,0.086326,-0.17769,-0.062449,0.84322,0.039939,0.064876,-0.11355,0.20281,0.35181,-0.002519,-0.0077326,-0.0048846,-0.082085,0.15267,0.072973,0.020593,0.41829
0.030268,0.04044,0.049055,-0.029642,0.012889,-0.025327,-0.025887,0.051727,-0.17883,-0.09625,0.73705,0.076784,0.041748,-0.078586,0.20031,0.43047,-0.007114,-0.012226,-0.01057,-0.0972,0.13097,0.17049,0.010235,0.28018
0.023596,0.04168,0.057643,-0.025165,0.014589,-0.02775,-0.025234,0.024933,-0.17683,-0.11859,0.62376,0.11363,0.01227,-0.060033,0.1788,0.49298,-0.016539,-0.018146,-0.02687,-0.10222,0.11899,0.1674,0.0026876,0.21024
0.019069,0.035941,0.063733,-0.023294,0.018596,-0.031427,-0.021688,0.0062656,-0.17774,-0.14269,0.52126,0.1457,-0.019113,-0.058723,0.13956,0.52983,-0.026399,-0.024382,-0.050953,-0.092022,0.12058,0.059145,-0.011846,0.22478
0.020579,0.02609,0.063725,-0.026003,0.023363,-0.032951,-0.0177,-0.0086125,-0.18375,-0.18142,0.44216,0.1718,-0.048525,-0.068041,0.086905,0.53838,-0.032917,-0.030887,-0.076633,-0.068169,0.1319,-0.10663,-0.03888,0.29002
0.028011,0.01864,0.057148,-0.032216,0.027193,-0.03036,-0.016242,-0.023801,-0.19177,-0.23901,0.38532,0.19599,-0.074158,-0.07901,0.028235,0.52608,-0.034961,-0.037355,-0.09717,-0.037236,0.14584,-0.2607,-0.075463,0.34582
0.036797,0.019598,0.047657,-0.038402,0.028901,-0.024017,-0.018541,-0.039374,-0.1968,-0.30913,0.33473,0.22445,-0.095831,-0.085516,-0.026981,0.50352,-0.034154,-0.042088,-0.10833,-0.0072287,0.15784,-0.34787,-0.11286,0.3461
0.040848,0.02989,0.040693,-0.04112,0.027904,-0.015791,-0.022927,-0.051415,-0.1963,-0.37916,0.26769,0.26022,-0.11331,-0.085345,-0.069315,0.4748,-0.033224,-0.042728,-0.1095,0.015104,0.16823,-0.347,-0.14358,0.28427
0.036861,0.04394,0.039512,-0.039605,0.024419,-0.0078681,-0.025898,-0.055463,-0.19153,-0.43717,0.16792,0.29984,-0.12531,-0.077466,-0.091868,0.43544,-0.034085,-0.038499,-0.10245,0.024974,0.17934,-0.27059,-0.16688,0.18625
0.026812,0.052964,0.042935,-0.036406,0.019893,-0.002306,-0.024749,-0.05044,-0.18516,-0.47755,0.03543,0.33472,-0.13048,-0.059911,-0.09224,0.37993,-0.037173,-0.031864,-0.089393,0.019375,0.19045,-0.1523,-0.18823,0.0808
0.016671,0.050938,0.046774,-0.035509,0.016855,-0.0010837,-0.01973,-0.039983,-0.17853,-0.50277,-0.11374,0.35593,-0.12931,-0.031707,-0.073226,0.31108,-0.042229,-0.027779,-0.072363,-0.0024936,0.19597,-0.032133,-0.21361,-0.026133
0.012134,0.038894,0.047612,-0.03931,0.01753,-0.0055923,-0.014001,-0.03031,-0.1714,-0.52126,-0.25794,0.3588,-0.12498,0.0027808,-0.041841,0.24149,-0.049289,-0.030809,-0.054195,-0.038046,0.18891,0.05708,-0.24327,-0.15306
0.014513,0.024151,0.045536,-0.04665,0.021847,-0.015274,-0.011422,-0.026414,-0.16412,-0.54277,-0.38315,0.34378,-0.12161,0.03258,-0.0068884,0.18543,-0.05851,-0.042236,-0.039636,-0.080708,0.16714,0.1022,-0.26987,-0.32268
0.019965,0.014862,0.043456,-0.053426,0.026664,-0.026639,-0.014001,-0.029426,-0.15929,-0.5738,-0.4891,0.31359,-0.12109,0.045609,0.023946,0.14908,-0.068809,-0.059234,-0.034629,-0.12121,0.13666,0.11819,-0.28219,-0.53908
0.022703,0.013973,0.04392,-0.05539,0.027494,-0.034344,-0.020975,-0.036751,-0.16052,-0.61526,-0.58376,0.26924,-0.12112,0.03799,0.045921,0.12822,-0.076858,-0.076487,-0.043577,-0.15064,0.10897,0.14558,-0.27138,-0.78059
0.019691,0.017284,0.046536,-0.051155,0.021937,-0.034514,-0.029964,-0.044337,-0.16921,-0.66338,-0.67093,0.20871,-0.11639,0.019022,0.057001,0.11499,-0.078009,-0.088931,-0.066511,-0.16385,0.094441,0.2327,-0.23552,-1.011
0.012999,0.017174,0.048384,-0.043218,0.012103,-0.028083,-0.038887,-0.049029,-0.18264,-0.71265,-0.74261,0.12949,-0.10256,0.005624,0.056194,0.10634,-0.069102,-0.093925,-0.098517,-0.16138,0.096781,0.40912,-0.17975,-1.1973
0.0079036,0.0090549,0.046839,-0.03621,0.0036615,-0.02108,-0.046994,-0.049404,-0.19538,-0.7586,-0.78394,0.03305,-0.079979,0.0087885,0.042518,0.10577,-0.051096,-0.091971,-0.13208,-0.14923,0.11256,0.66524,-0.11279,-1.3207
0.0083666,-0.0046154,0.042061,-0.033663,0.0017566,-0.020765,-0.054522,-0.045107,-0.20287,-0.79845,-0.78757,-0.072478,-0.054286,0.022576,0.016254,0.11723,-0.02918,-0.086013,-0.16062,-0.13665,0.13547,0.95177,-0.042669,-1.3769
0.013774,-0.01604,0.036862,-0.035718,0.0068654,-0.030063,-0.061807,-0.0359,-0.20399,-0.8302,-0.76446,-0.17394,-0.033423,0.025797,-0.018315,0.13785,-0.0098877,-0.079765,-0.18081,-0.13282,0.1613,1.2008,0.025577,-1.3702
0.01967,-0.018185,0.034238,-0.039491,0.014117,-0.044753,-0.068859,-0.021563,-0.20037,-0.8519,-0.73962,-0.25859,-0.023061,-0.0031539,-0.051755,0.15736,0.002735,-0.075748,-0.19244,-0.14342,0.18983,1.3568,0.089327,-1.3098
0.021637,-0.01043,0.034855,-0.041714,0.016964,-0.056138,-0.075481,-0.0027358,-0.19372,-0.86273,-0.73402,-0.31994,-0.023707,-0.068994,-0.072406,0.16506,0.0090332,-0.073934,-0.19694,-0.16853,0.2226,1.4013,0.14596,-1.2086
0.018783,0.00073034,0.036643,-0.041418,0.012476,-0.057506,-0.081294,0.018178,-0.18394,-0.86517,-0.74749,-0.36047,-0.031221,-0.15338,-0.072491,0.15791,0.012424,-0.071934,-0.19635,-0.20283,0.25898,1.3613,0.19092,-1.0836
0.013858,0.0064766,0.036562,-0.040398,0.0039476,-0.049273,-0.085398,0.037037,-0.1697,-0.86525,-0.75842,-0.38959,-0.04008,-0.22501,-0.053052,0.14203,0.016242,-0.066878,-0.19322,-0.23857,0.29387,1.3,0.21794,-0.95373
0.010314,0.002201,0.032828,-0.041173,-0.0014254,-0.038546,-0.086263,0.049227,-0.15075,-0.869,-0.7425,-0.41838,-0.046948,-0.25845,-0.023626,0.1265,0.021464,-0.057803,-0.19044,-0.26968,0.31899,1.2939,0.22155,-0.83376
0.0093153,-0.0092045,0.025798,-0.044369,0.0018739,-0.033395,-0.08258,0.051586,-0.12939,-0.87634,-0.69525,-0.45443,-0.05228,-0.24736,0.0034247,0.11551,0.026938,-0.046697,-0.18957,-0.2945,0.32686,1.4033,0.19997,-0.72698
0.009357,-0.019711,0.017197,-0.047948,0.013252,-0.036618,-0.074718,0.043886,-0.10956,-0.87718,-0.63843,-0.49931,-0.059215,-0.20327,0.019625,0.10656,0.031372,-0.037202,-0.18842,-0.31555,0.31479,1.6452,0.15624,-0.62028
0.0083701,-0.02228,0.0088112,-0.049013,0.026218,-0.044118,-0.065402,0.028911,-0.09446,-0.85412,-0.6034,-0.54953,-0.07074,-0.14264,0.0233,0.096258,0.034896,-0.031853,-0.18051,-0.3366,0.28616,1.9789,0.096703,-0.48668
0.0058477,-0.016157,0.001814,-0.04649,0.033082,-0.048942,-0.058516,0.010966,-0.084623,-0.79224,-0.60502,-0.59934,-0.087091,-0.07381,0.017497,0.087547,0.038759,-0.030094,-0.15834,-0.35975,0.24815,2.3183,0.028281,-0.2978
0.0029235,-0.0074368,-0.0031232,-0.042196,0.030487,-0.047164,-0.056632,-0.0063008,-0.07792,-0.69031,-0.62838,-0.64339,-0.10507,0.0058908,0.0060422,0.090681,0.04369,-0.02872,-0.11934,-0.38439,0.2074,2.5674,-0.04324,-0.042497
0.00072012,-0.0045107,-0.0056695,-0.039268,0.021598,-0.040535,-0.059261,-0.021292,-0.071065,-0.56616,-0.63986,-0.67804,-0.11974,0.10193,-0.0083675,0.11568,0.048767,-0.024403,-0.069924,-0.40826,0.1666,2.6669,-0.11257,0.25857
-0.00097733,-0.011702,-0.0061452,-0.039396,0.013491,-0.034044,-0.063415,-0.034065,-0.06129,-0.4514,-0.61256,-0.70122,-0.12722,0.21125,-0.023191,0.16246,0.052005,-0.016264,-0.023464,-0.42879,0.12438,2.62,-0.17318,0.55451
-0.0032974,-0.025772,-0.0059028,-0.041405,0.01191,-0.031128,-0.066114,-0.044565,-0.047068,-0.37755,-0.54423,-0.71187,-0.12666,0.31802,-0.034823,0.21737,0.05211,-0.0065032,0.0076026,-0.44321,0.078487,2.4825,-0.21702,0.78502
-0.0067698,-0.037927,-0.0069438,-0.042475,0.017381,-0.031043,-0.066656,-0.051147,-0.027821,-0.36097,-0.45397,-0.70978,-0.11968,0.40077,-0.039831,0.26007,0.04962,0.0012496,0.019928,-0.44774,0.02976,2.3192,-0.23683,0.90984
-0.010548,-0.039953,-0.010608,-0.040839,0.025327,-0.030422,-0.066707,-0.05096,-0.0033704,-0.39508,-0.3639,-0.69577,-0.10797,0.44581,-0.03809,0.27539,0.046265,0.0043993,0.02118,-0.43759,-0.016156,2.1577,-0.22971,0.9274
-0.013243,-0.029983,-0.016294,-0.037462,0.029753,-0.027059,-0.068223,-0.042151,0.026121,-0.45406,-0.28478,-0.67173,-0.091209,0.45691,-0.034318,0.2611,0.043096,0.0027804,0.023706,-0.40897,-0.051241,1.9697,-0.19887,0.86935
-0.014344,-0.013656,-0.02148,-0.035162,0.027526,-0.022107,-0.071182,-0.026036,0.059559,-0.50618,-0.21796,-0.64023,-0.067336,0.45263,-0.035346,0.22592,0.039173,-0.0018341,0.034726,-0.36208,-0.070199,1.6953,-0.1518,0.7753
-0.014561,3.2717e-005,-0.023327,-0.035981,0.020155,-0.018745,-0.073264,-0.0071125,0.094177,-0.52932,-0.16811,-0.60404,-0.035155,0.45189,-0.044562,0.18062,0.032111,-0.0074048,0.050878,-0.30238,-0.074683,1.2907,-0.09643,0.66761
-0.014661,0.0048443,-0.020744,-0.039215,0.012129,-0.018839,-0.071848,0.0095186,0.12547,-0.52043,-0.15016,-0.56636,0.0032434,0.45733,-0.058274,0.13052,0.020111,-0.013057,0.061434,-0.23858,-0.073412,0.76696,-0.038314,0.5456
-0.01418,0.00072152,-0.015275,-0.041928,0.0074479,-0.020898,-0.066552,0.021478,0.14835,-0.49405,-0.18077,-0.53175,0.042713,0.44957,-0.067688,0.07518,0.0037209,-0.019292,0.057382,-0.178,-0.077824,0.19413,0.018974,0.40223
-0.011643,-0.0076432,-0.01011,-0.041482,0.0070746,-0.021259,-0.059932,0.030564,0.1593,-0.47175,-0.26188,-0.5068,0.077964,0.39879,-0.065473,0.014269,-0.01416,-0.027051,0.038887,-0.12294,-0.096141,-0.33094,0.071573,0.24714
-0.0063038,-0.015219,-0.0080249,-0.037808,0.0090093,-0.017392,-0.055574,0.041159,0.15822,-0.46962,-0.37377,-0.49937,0.10652,0.28745,-0.051724,-0.047284,-0.030016,-0.036476,0.015409,-0.070791,-0.12969,-0.73049,0.11439,0.11433
0.00036334,-0.02007,-0.0098525,-0.033334,0.010512,-0.010342,-0.055105,0.056869,0.14874,-0.4916,-0.48691,-0.516,0.12899,0.12809,-0.034386,-0.099882,-0.041746,-0.046313,-0.00093203,-0.018272,-0.17346,-0.97712,0.14336,0.045935
0.0051997,-0.023339,-0.014515,-0.030572,0.010458,-0.0041484,-0.056815,0.077898,0.13615,-0.53174,-0.58378,-0.55887,0.14666,-0.038086,-0.02368,-0.13472,-0.049527,-0.054359,-0.0029232,0.033597,-0.21979,-1.0946,0.15918,0.063516
0.0057593,-0.026695,-0.020342,-0.029525,0.0099727,-0.0026457,-0.057222,0.10082,0.12429,-0.58161,-0.67167,-0.62461,0.15924,-0.16256,-0.024871,-0.1484,-0.055193,-0.058692,0.0089726,0.077814,-0.26206,-1.1336,0.16871,0.14968
0.0024609,-0.0302,-0.026439,-0.027321,0.011071,-0.0062251,-0.054293,0.12039,0.11346,-0.63608,-0.77487,-0.70593,0.16557,-0.21612,-0.034779,-0.14254,-0.061019,-0.058933,0.029647,0.10493,-0.29641,-1.1404,0.18162,0.25564
-0.0015832,-0.032525,-0.033007,-0.020653,0.014581,-0.011121,-0.049391,0.13181,0.10106,-0.69328,-0.91302,-0.79521,0.16645,-0.20149,-0.044255,-0.11955,-0.068832,-0.05673,0.054467,0.1096,-0.32151,-1.1391,0.20423,0.33078
-0.0030601,-0.032735,-0.040471,-0.0090891,0.019121,-0.011861,-0.046038,0.13205,0.084661,-0.7506,-1.0838,-0.88745,0.16643,-0.1434,-0.044302,-0.080149,-0.079644,-0.055064,0.081996,0.095585,-0.33783,-1.131,0.23502,0.35354
-0.0011468,-0.031286,-0.048331,0.0036116,0.021952,-0.0051556,-0.046449,0.12032,0.064948,-0.80242,-1.2634,-0.98049,0.17156,-0.065792,-0.03122,-0.025844,-0.093364,-0.056611,0.11289,0.075333,-0.34752,-1.1078,0.26584,0.34125
0.0018951,-0.029089,-0.0548,0.011604,0.021002,0.0076006,-0.048996,0.098243,0.046255,-0.84275,-1.4215,-1.072,0.18436,0.02435,-0.0075327,0.036072,-0.10847,-0.062051,0.14702,0.064214,-0.35435,-1.0653,0.28771,0.33193
0.0026424,-0.025876,-0.057677,0.011103,0.016443,0.021088,-0.049081,0.069815,0.034131,-0.87056,-1.5372,-1.1556,0.20056,0.13379,0.021108,0.091249,-0.12213,-0.069379,0.18188,0.072937,-0.36256,-1.0096,0.29664,0.35205
-0.00074,-0.020148,-0.055815,0.0034008,0.010534,0.029669,-0.042894,0.040833,0.031912,-0.8918,-1.6038,-1.2185,0.21126,0.2656,0.050135,0.12424,-0.13127,-0.07485,0.21338,0.10282,-0.3747,-0.95679,0.29485,0.39544
-0.0071209,-0.01128,-0.050009,-0.0057081,0.0058494,0.031269,-0.030828,0.017119,0.038961,-0.91498,-1.6227,-1.2442,0.20936,0.40549,0.078207,0.12833,-0.13424,-0.07517,0.23808,0.14652,-0.3897,-0.92679,0.28686,0.43043
-0.013292,-0.0017354,-0.042613,-0.0097911,0.0033714,0.028622,-0.017469,0.0021557,0.051723,-0.94342,-1.5966,-1.219,0.195,0.52592,0.10611,0.11126,-0.13179,-0.069659,0.25499,0.19334,-0.40317,-0.93743,0.27417,0.42949
-0.016248,0.0034131,-0.036217,-0.0060412,0.0020853,0.026823,-0.0080489,-0.004451,0.066352,-0.97132,-1.5282,-1.1403,0.17543,0.60527,0.13383,0.091203,-0.12653,-0.060855,0.26606,0.23567,-0.41005,-0.99713,0.25316,0.39585
-0.015143,0.00010448,-0.032456,0.0032399,0.00040608,0.029037,-0.0043853,-0.0064669,0.080593,-0.98753,-1.4241,-1.021,0.15953,0.64498,0.15855,0.085477,-0.12119,-0.052948,0.2753,0.27296,-0.40818,-1.0988,0.21795,0.36221
-0.011698,-0.010785,-0.031774,0.012854,-0.0019271,0.033811,-0.0037773,-0.0085889,0.093686,-0.98415,-1.2962,-0.88592,0.1517,0.66905,0.17549,0.10031,-0.11695,-0.048932,0.28687,0.31102,-0.40019,-1.2187,0.16564,0.35942
-0.008943,-0.023024,-0.033965,0.018615,-0.0033811,0.036354,-0.001747,-0.013604,0.10499,-0.96244,-1.1558,-0.76077,0.15011,0.70582,0.18109,0.12946,-0.11311,-0.048436,0.30279,0.35763,-0.39236,-1.3234,0.099577,0.38141
-0.0091762,-0.029181,-0.038674,0.019812,-0.0021967,0.032968,0.0038686,-0.020972,0.11307,-0.93113,-1.0062,-0.65963,0.14998,0.76719,0.17596,0.16179,-0.10766,-0.047885,0.3211,0.4169,-0.39112,-1.3837,0.028265,0.37982
-0.012454,-0.026274,-0.045248,0.018573,0.0014162,0.025022,0.011096,-0.027648,0.11608,-0.89903,-0.84181,-0.57898,0.14817,0.84143,0.16498,0.19035,-0.098307,-0.042981,0.33593,0.48558,-0.39917,-1.3864,-0.039052,0.2986
-0.016599,-0.018153,-0.052309,0.017231,0.004701,0.018928,0.01584,-0.030451,0.11308,-0.86915,-0.65681,-0.50252,0.1449,0.90319,0.15395,0.21508,-0.083253,-0.031689,0.34033,0.55356,-0.41371,-1.3375,-0.096812,0.12289
-0.018798,-0.012411,-0.057883,0.016294,0.0042945,0.021577,0.015914,-0.028356,0.10471,-0.83908,-0.45725,-0.41363,0.14166,0.93078,0.14527,0.2372,-0.061841,-0.015461,0.33088,0.60796,-0.42732,-1.254,-0.14469,-0.10078
-0.017731,-0.014288,-0.060429,0.014731,-0.00081147,0.0345,0.013444,-0.023284,0.093004,-0.8065,-0.26521,-0.30655,0.13805,0.91728,0.13617,0.25183,-0.035253,0.0022306,0.31122,0.63856,-0.43107,-1.1529,-0.18586,-0.295
-0.014651,-0.022618,-0.059981,0.011905,-0.007982,0.051443,0.013461,-0.018963,0.080542,-0.77336,-0.10999,-0.18852,0.13114,0.87061,0.12115,0.24687,-0.0065629,0.01884,0.29173,0.64161,-0.41818,-1.044,-0.22364,-0.41121
-0.012498,-0.031093,-0.05824,0.0089712,-0.01272,0.061824,0.01976,-0.018612,0.069986,-0.74461,-0.012084,-0.072217,0.11816,0.80695,0.096768,0.21054,0.020616,0.034804,0.28482,0.62027,-0.38681,-0.92704,-0.25898,-0.46898
-0.013647,-0.033574,-0.057266,0.0081941,-0.012193,0.058041,0.03157,-0.022895,0.063829,-0.72307,0.027987,0.034823,0.099906,0.7447,0.064959,0.14149,0.044593,0.053136,0.2983,0.58211,-0.34075,-0.78982,-0.28997,-0.53992
-0.018029,-0.028889,-0.057821,0.0108,-0.0075175,0.041276,0.043918,-0.029422,0.063859,-0.70602,0.02741,0.13518,0.081659,0.70095,0.032239,0.05244,0.067323,0.076953,0.3312,0.53533,-0.28781,-0.60769,-0.31339,-0.68779
-0.02314,-0.021284,-0.058866,0.015491,-0.0028203,0.021098,0.051438,-0.034114,0.070041,-0.68752,0.0078927,0.23757,0.070342,0.68854,0.0055478,-0.036525,0.093419,0.10696,0.37473,0.48541,-0.23629,-0.35094,-0.32701,-0.915
-0.025926,-0.016601,-0.058717,0.019185,-0.0018496,0.0087067,0.052462,-0.033427,0.079556,-0.66449,-0.017819,0.34775,0.070216,0.71217,-0.011776,-0.10968,0.12649,0.14065,0.4177,0.433,-0.19131,-0.0055388,-0.33114,-1.1607
-0.024994,-0.017732,-0.056782,0.019483,-0.0049935,0.0088074,0.050032,-0.025781,0.087169,-0.64051,-0.049836,0.46168,0.080392,0.76633,-0.020836,-0.16278,0.16536,0.17361,0.45246,0.37395,-0.15278,0.40173,-0.32822,-1.3512
-0.0214,-0.023041,-0.054253,0.016699,-0.0091246,0.016499,0.049184,-0.011093,0.087244,-0.62387,-0.09417,0.5659,0.095966,0.83797,-0.024814,-0.20006,0.20336,0.20157,0.4772,0.30218,-0.11639,0.79564,-0.32061,-1.4591
-0.017523,-0.028561,-0.053176,0.013648,-0.010241,0.02173,0.052942,0.010952,0.076325,-0.62155,-0.15227,0.64443,0.11158,0.91264,-0.026061,-0.22513,0.23175,0.2218,0.49342,0.21518,-0.076758,1.0794,-0.30813,-1.5217
-0.015159,-0.031493,-0.054879,0.01336,-0.0066174,0.017691,0.060349,0.041881,0.054599,-0.63494,-0.21602,0.68721,0.12451,0.97891,-0.025281,-0.23496,0.24483,0.23338,0.50131,0.11976,-0.030509,1.1866,-0.2874,-1.6054
-0.014462,-0.031945,-0.059213,0.016713,2.6151e-005,0.0061649,0.067851,0.082984,0.025377,-0.66083,-0.27169,0.69541,0.13525,1.0277,-0.022923,-0.22319,0.24307,0.23676,0.49755,0.033441,0.02271,1.1234,-0.25421,-1.7487
-0.014419,-0.031895,-0.065055,0.021942,0.0060354,-0.0045034,0.072461,0.13197,-0.0068269,-0.69589,-0.30854,0.68144,0.14571,1.0492,-0.020612,-0.18934,0.23203,0.23363,0.47772,-0.021284,0.081415,0.96549,-0.20759,-1.9307
-0.014126,-0.03293,-0.071191,0.026273,0.0085551,-0.0068252,0.073878,0.18067,-0.038245,-0.73916,-0.32532,0.66447,0.15702,1.0343,-0.02062,-0.14453,0.21811,0.22674,0.4413,-0.028439,0.14391,0.80724,-0.15264,-2.0853
-0.013535,-0.034997,-0.076585,0.028056,0.0073036,-0.00047361,0.074039,0.21674,-0.0668,-0.78932,-0.33036,0.66351,0.1687,0.98189,-0.023744,-0.10663,0.20422,0.21925,0.39423,0.011482,0.20845,0.69895,-0.099409,-2.1436
-0.013141,-0.036888,-0.08007,0.027527,0.0042569,0.0077678,0.074939,0.2295,-0.09195,-0.83906,-0.33654,0.69004,0.17941,0.90523,-0.027933,-0.087869,0.18851,0.21311,0.34608,0.080465,0.27196,0.6193,-0.057975,-2.0704
-0.013231,-0.037383,-0.080446,0.025781,0.0018777,0.0099323,0.076798,0.21624,-0.11392,-0.87276,-0.35528,0.74273,0.1883,0.82857,-0.029506,-0.085255,0.16644,0.20724,0.3036,0.15249,0.32908,0.5033,-0.033055,-1.8724
-0.013679,-0.035761,-0.077464,0.023289,0.0015079,0.0032958,0.077996,0.18402,-0.13296,-0.87164,-0.39286,0.80703,0.19565,0.77291,-0.026158,-0.082483,0.13467,0.19704,0.26632,0.20713,0.37352,0.30128,-0.021714,-1.5836
-0.014473,-0.031582,-0.07286,0.019573,0.0030727,-0.00799,0.076507,0.14529,-0.14895,-0.82461,-0.45004,0.86135,0.20261,0.74172,-0.019007,-0.062352,0.094061,0.17634,0.22842,0.23747,0.40128,0.021339,-0.015711,-1.249
-0.016156,-0.024694,-0.069973,0.014385,0.0059051,-0.016831,0.071477,0.11014,-0.16155,-0.73786,-0.52382,0.88786,0.21042,0.72042,-0.011567,-0.01968,0.049964,0.14087,0.18571,0.24749,0.41341,-0.27652,-0.0065717,-0.91521
-0.019363,-0.015938,-0.071658,0.0090226,0.0095452,-0.01887,0.063855,0.081102,-0.17059,-0.63614,-0.61029,0.88262,0.21984,0.69184,-0.0064927,0.035522,0.0096026,0.090964,0.14178,0.24298,0.41549,-0.52559,0.010063,-0.6261
-0.023707,-0.0077032,-0.078013,0.0061576,0.013645,-0.015251,0.055914,0.054249,-0.17615,-0.55366,-0.70699,0.85806,0.23099,0.65431,-0.0031035,0.086401,-0.021784,0.031714,0.10783,0.22497,0.41374,-0.69806,0.033199,-0.41245
-0.027279,-0.0031117,-0.086037,0.0078874,0.017256,-0.010829,0.050172,0.025055,-0.17802,-0.51858,-0.81349,0.83518,0.24362,0.62536,0.0018933,0.1214,-0.043561,-0.029148,0.096186,0.19153,0.41027,-0.81531,0.058285,-0.27816
-0.027704,-0.0038878,-0.091765,0.013578,0.018618,-0.0099313,0.048251,-0.0062257,-0.17513,-0.53922,-0.9293,0.82943,0.25735,0.62587,0.011132,0.14022,-0.059254,-0.083638,0.11261,0.14481,0.40106,-0.91887,0.080199,-0.195
-0.02424,-0.0086537,-0.093169,0.019572,0.016154,-0.013263,0.05003,-0.034291,-0.16602,-0.59931,-1.0503,0.83923,0.27175,0.65873,0.02388,0.14998,-0.0733,-0.12459,0.15336,0.095156,0.37828,-1.029,0.095624,-0.11591
-0.01908,-0.013488,-0.091384,0.021447,0.010031,-0.01799,0.053421,-0.05369,-0.1508,-0.66543,-1.1676,0.84505,0.28608,0.70196,0.036524,0.15637,-0.087377,-0.14606,0.20802,0.056724,0.33548,-1.1249,0.10407,-0.0010736
-0.016427,-0.01463,-0.08935,0.017298,0.0027035,-0.020372,0.055127,-0.064483,-0.13349,-0.7035,-1.2717,0.8201,0.29907,0.72401,0.045857,0.15805,-0.09918,-0.1448,0.26454,0.03755,0.27236,-1.161,0.10769,0.16089
-0.019701,-0.011098,-0.08928,0.0094459,-0.0025168,-0.018614,0.052299,-0.073733,-0.12202,-0.69615,-1.3602,0.7452,0.30912,0.70864,0.051973,0.14831,-0.10463,-0.12325,0.31216,0.032931,0.19627,-1.1034,0.11022,0.35112
-0.029006,-0.0049291,-0.091203,0.0030097,-0.0040182,-0.013899,0.044272,-0.091335,-0.1249,-0.65151,-1.4437,0.61829,0.31523,0.66733,0.05782,0.12131,-0.10164,-0.091324,0.34146,0.028455,0.1195,-0.95875,0.11524,0.53645
-0.040922,0.0010494,-0.093493,0.00226,-0.0033773,-0.0092267,0.033196,-0.12327,-0.14602,-0.59816,-1.5418,0.45254,0.31803,0.62795,0.065476,0.077128,-0.092216,-0.063755,0.34436,0.01058,0.054077,-0.77418,0.12439,0.68812
-0.050846,0.0056572,-0.094429,0.0074809,-0.004172,-0.0073044,0.022924,-0.16725,-0.18187,-0.56854,-1.671,0.2658,0.32007,0.60963,0.072461,0.022145,-0.081062,-0.052827,0.31607,-0.024184,0.0064698,-0.60871,0.13618,0.78985
-0.056047,0.0097395,-0.093195,0.014764,-0.0087839,-0.0091746,0.016825,-0.21391,-0.22375,-0.58033,-1.8298,0.069875,0.32446,0.60573,0.071765,-0.03407,-0.072103,-0.061174,0.25787,-0.069105,-0.025032,-0.4973,0.14658,0.83485
-0.057122,0.014433,-0.089831,0.018882,-0.01586,-0.01443,0.015973,-0.25261,-0.2636,-0.62696,-1.9951,-0.13271,0.33257,0.58986,0.056362,-0.082082,-0.06617,-0.080583,0.17722,-0.11572,-0.048803,-0.4308,0.15083,0.82127
-0.056905,0.019428,-0.084861,0.016992,-0.020864,-0.022521,0.018891,-0.27781,-0.29856,-0.68262,-2.1317,-0.34303,0.34244,0.53922,0.024984,-0.11431,-0.06188,-0.098621,0.084249,-0.16319,-0.074699,-0.36456,0.14561,0.75361
-0.057924,0.02316,-0.07934,0.010361,-0.019623,-0.033918,0.022798,-0.29164,-0.33042,-0.71838,-2.211,-0.5569,0.34934,0.45503,-0.015559,-0.12597,-0.058591,-0.10819,-0.012797,-0.22053,-0.10794,-0.24975,0.12985,0.64708
-0.060454,0.024593,-0.074971,0.0029368,-0.012041,-0.0502,0.025351,-0.30134,-0.36079,-0.7189,-2.2257,-0.76066,0.34843,0.36308,-0.053859,-0.11643,-0.058159,-0.11219,-0.10887,-0.30023,-0.14581,-0.068036,0.10382,0.5267
-0.062495,0.024439,-0.073435,-0.0018796,-0.0027167,-0.072999,0.025761,-0.3134,-0.38709,-0.68984,-2.1898,-0.93577,0.33731,0.29505,-0.08089,-0.090327,-0.063337,-0.11936,-0.19966,-0.40915,-0.1796,0.15217,0.067799,0.41716
-0.061453,0.024243,-0.074917,-0.0036055,0.0023662,-0.10241,0.024906,-0.32895,-0.40357,-0.65244,-2.1271,-1.0689,0.31674,0.26683,-0.095167,-0.056361,-0.074016,-0.13521,-0.27885,-0.54389,-0.20072,0.34832,0.021743,0.33044
-0.056129,0.024207,-0.077178,-0.0044273,0.00052412,-0.13556,0.024695,-0.34345,-0.40661,-0.62968,-2.0563,-1.1599,0.28935,0.27122,-0.10194,-0.023067,-0.084922,-0.15614,-0.33916,-0.69294,-0.20697,0.45881,-0.033445,0.26125
-0.047646,0.022223,-0.076555,-0.0068404,-0.0054375,-0.16583,0.027136,-0.35085,-0.39899,-0.63294,-1.9841,-1.2199,0.25818,0.28841,-0.10706,0.006068,-0.087499,-0.17219,-0.37702,-0.84213,-0.2044,0.46018,-0.094326,0.19395
-0.038796,0.015539,-0.070648,-0.011385,-0.0094634,-0.18364,0.033435,-0.34856,-0.3885,-0.65628,-1.9098,-1.2613,0.22665,0.30298,-0.11053,0.034268,-0.075141,-0.17588,-0.3962,-0.97839,-0.20362,0.38368,-0.15491,0.11418
-0.032383,0.0038047,-0.060558,-0.016403,-0.0071791,-0.17911,0.04334,-0.33929,-0.3816,-0.68034,-1.8329,-1.2849,0.19941,0.3129,-0.10516,0.068226,-0.047923,-0.16893,-0.40619,-1.0906,-0.21333,0.30049,-0.20886,0.014938
-0.029701,-0.0094474,-0.050499,-0.019794,0.00047916,-0.14668,0.055029,-0.32847,-0.37803,-0.68297,-1.7563,-1.2761,0.18235,0.32488,-0.081632,0.11242,-0.013177,-0.16089,-0.41579,-1.1699,-0.23576,0.28339,-0.25244,-0.10607
-0.030086,-0.018557,-0.044761,-0.020981,0.0078585,-0.089457,0.065749,-0.31967,-0.3713,-0.65031,-1.6802,-1.2144,0.18039,0.34326,-0.036056,0.16553,0.018556,-0.16075,-0.42737,-1.2123,-0.26679,0.3673,-0.28594,-0.25136
-0.031703,-0.019471,-0.044361,-0.021189,0.0088856,-0.020393,0.073074,-0.31247,-0.35498,-0.58275,-1.5952,-1.0912,0.19452,0.36374,0.025899,0.22161,0.03917,-0.16907,-0.43681,-1.2214,-0.29974,0.53212,-0.31224,-0.42258
-0.032854,-0.012363,-0.046164,-0.021906,0.001648,0.041675,0.076122,-0.3045,-0.32891,-0.49259,-1.4836,-0.92477,0.22068,0.37722,0.091419,0.27434,0.046427,-0.17725,-0.43911,-1.208,-0.32932,0.71745,-0.33391,-0.61228
-0.032817,-0.0010507,-0.045211,-0.023152,-0.010184,0.080014,0.075951,-0.29538,-0.29999,-0.39516,-1.3313,-0.75847,0.25183,0.37914,0.14747,0.32073,0.043452,-0.17447,-0.43459,-1.1838,-0.35292,0.85925,-0.35101,-0.79698
-0.031719,0.0099639,-0.038364,-0.023376,-0.019914,0.087687,0.074771,-0.28821,-0.27679,-0.29957,-1.1429,-0.64296,0.28156,0.37509,0.1869,0.36171,0.03557,-0.15622,-0.43045,-1.1544,-0.36925,0.92521,-0.36161,-0.94129
-0.02981,0.018117,-0.026352,-0.021181,-0.022205,0.070417,0.074385,-0.28656,-0.26295,-0.2059,-0.94504,-0.61062,0.30642,0.37753,0.20968,0.40033,0.027093,-0.12766,-0.43696,-1.1165,-0.37695,0.92731,-0.364,-1.0143
-0.026971,0.023066,-0.012754,-0.017208,-0.016122,0.043025,0.07485,-0.28995,-0.25497,-0.11148,-0.77447,-0.65905,0.32542,0.39655,0.2192,0.43997,0.019799,-0.099867,-0.46199,-1.0631,-0.3751,0.90563,-0.35847,-1.0079
-0.0229,0.025122,-0.00098862,-0.014224,-0.0050711,0.021949,0.074344,-0.2926,-0.24577,-0.021144,-0.65681,-0.75355,0.33804,0.43212,0.21762,0.48303,0.013087,-0.082462,-0.5082,-0.99355,-0.36519,0.89625,-0.34686,-0.9426
-0.01764,0.023982,0.0081168,-0.015072,0.0057933,0.018185,0.070482,-0.28805,-0.23072,0.048048,-0.59184,-0.84719,0.34297,0.47407,0.20432,0.52899,0.0049422,-0.078587,-0.57378,-0.91789,-0.35199,0.9056,-0.33031,-0.85649
-0.011757,0.01916,0.016295,-0.020144,0.012637,0.033727,0.062372,-0.27605,-0.21091,0.073515,-0.55626,-0.90518,0.3385,0.50962,0.17835,0.57185,-0.006838,-0.084958,-0.6544,-0.85291,-0.34154,0.90783,-0.3076,-0.78304
-0.0059388,0.011416,0.025624,-0.026674,0.014625,0.061876,0.051998,-0.26519,-0.19161,0.042062,-0.52087,-0.91884,0.3236,0.53299,0.14222,0.5992,-0.02319,-0.095774,-0.74378,-0.81142,-0.33725,0.86551,-0.27588,-0.73488
-0.00053594,0.0032294,0.036219,-0.030678,0.013613,0.090364,0.04365,-0.2679,-0.17765,-0.038312,-0.46831,-0.90182,0.29821,0.54992,0.103,0.59666,-0.042425,-0.10685,-0.83306,-0.79479,-0.33716,0.75778,-0.2335,-0.70232
0.0043386,-0.0026147,0.045875,-0.030093,0.012499,0.10632,0.041337,-0.29071,-0.16977,-0.1397,-0.39847,-0.8732,0.26286,0.57349,0.069151,0.55743,-0.060042,-0.11731,-0.91176,-0.79463,-0.33486,0.59686,-0.18253,-0.66471
0.0082707,-0.0051697,0.051913,-0.026532,0.013389,0.10214,0.045705,-0.32784,-0.1643,-0.22889,-0.32019,-0.84042,0.21858,0.61339,0.045329,0.49052,-0.070652,-0.12865,-0.97158,-0.80167,-0.32357,0.4225,-0.12866,-0.60335
0.010357,-0.0060552,0.053569,-0.02411,0.016523,0.080004,0.052853,-0.36357,-0.156,-0.28502,-0.2391,-0.79337,0.16764,0.66593,0.029522,0.41957,-0.071443,-0.14282,-1.011,-0.81301,-0.30022,0.27997,-0.07842,-0.50715
0.0099079,-0.0078737,0.052788,-0.026146,0.020355,0.051685,0.056416,-0.38179,-0.14152,-0.30792,-0.15325,-0.71266,0.11398,0.71237,0.015084,0.36971,-0.064743,-0.16084,-1.0368,-0.83103,-0.26675,0.19729,-0.035671,-0.37168
0.0075247,-0.011704,0.052754,-0.032361,0.022617,0.03199,0.051903,-0.37521,-0.12125,-0.31231,-0.059223,-0.58466,0.062128,0.72789,-0.0036688,0.35078,-0.057169,-0.18219,-1.0593,-0.85487,-0.2286,0.17577,3.7002e-005,-0.19835
0.0053463,-0.016092,0.055428,-0.038858,0.021759,0.029022,0.040088,-0.34724,-0.098766,-0.3136,0.038836,-0.41233,0.014792,0.69583,-0.026816,0.34991,-0.055195,-0.20484,-1.0851,-0.87327,-0.19219,0.19715,0.032309,0.0028528
0.0058634,-0.018625,0.060167,-0.040959,0.017932,0.038203,0.026656,-0.30622,-0.078637,-0.31636,0.12732,-0.21476,-0.028837,0.61699,-0.049067,0.34082,-0.060126,-0.22558,-1.111,-0.86655,-0.16336,0.23872,0.065197,0.2115
0.010086,-0.018633,0.064457,-0.036696,0.012907,0.04549,0.018065,-0.25802,-0.064081,-0.31299,0.19122,-0.017174,-0.072086,0.50714,-0.06488,0.30355,-0.066531,-0.24112,-1.1247,-0.81799,-0.1465,0.28414,0.10102,0.40249
0.016634,-0.01831,0.065986,-0.028244,0.0089348,0.038196,0.016814,-0.20375,-0.055691,-0.29196,0.22529,0.16053,-0.11774,0.385,-0.074366,0.23912,-0.065799,-0.24984,-1.1112,-0.72617,-0.14348,0.32377,0.13984,0.55855
0.022627,-0.020861,0.064339,-0.020255,0.0072987,0.015103,0.019849,-0.14356,-0.051646,-0.24837,0.23848,0.30912,-0.16563,0.26037,-0.084991,0.16716,-0.052424,-0.2532,-1.0605,-0.60837,-0.15229,0.34827,0.18008,0.67962
0.025685,-0.027177,0.061121,-0.016497,0.0075525,-0.012523,0.021255,-0.081768,-0.04911,-0.18926,0.2476,0.42735,-0.2131,0.13204,-0.10731,0.109,-0.028303,-0.2546,-0.97281,-0.4915,-0.16708,0.3449,0.21923,0.77902
0.025453,-0.034216,0.058712,-0.017443,0.0079795,-0.030013,0.016815,-0.0276,-0.045995,-0.12973,0.2654,0.51551,-0.25768,-0.0036316,-0.14768,0.070489,-0.0018212,-0.25507,-0.85804,-0.39648,-0.18073,0.30239,0.25401,0.86791
0.023557,-0.037042,0.058723,-0.020525,0.0068909,-0.030958,0.006692,0.009792,-0.042125,-0.082445,0.29266,0.5714,-0.29912,-0.14196,-0.20341,0.03886,0.017415,-0.24822,-0.7325,-0.32692,-0.18873,0.22103,0.28085,0.9418
0.022243,-0.033119,0.061155,-0.022525,0.0037621,-0.021897,-0.005576,0.027376,-0.03911,-0.047178,0.32023,0.5918,-0.33854,-0.26694,-0.26384,-0.0050188,0.024198,-0.21923,-0.61393,-0.26943,-0.19127,0.11833,0.29715,0.98315
0.022844,-0.025074,0.064567,-0.021956,-0.00061524,-0.016712,-0.016372,0.029898,-0.038899,-0.0084462,0.33825,0.57765,-0.3755,-0.35923,-0.31649,-0.070819,0.019855,-0.15158,-0.51713,-0.20462,-0.19151,0.022483,0.30306,0.97966
0.025062,-0.019117,0.066975,-0.019519,-0.0049828,-0.026074,-0.024648,0.025845,-0.041846,0.055378,0.3445,0.53822,-0.40617,-0.4086,-0.35342,-0.15296,0.010122,-0.039737,-0.4507,-0.12071,-0.19147,-0.044362,0.30202,0.94238
0.027261,-0.019999,0.06695,-0.016639,-0.0087322,-0.0507,-0.032126,0.021753,-0.045656,0.15549,0.34554,0.49024,-0.42483,-0.42088,-0.37371,-0.23828,0.0010221,0.10032,-0.41573,-0.020393,-0.18937,-0.082024,0.2991,0.90625
0.027388,-0.026715,0.064359,-0.013738,-0.012432,-0.082867,-0.041574,0.0201,-0.04614,0.27958,0.35033,0.45162,-0.42761,-0.41401,-0.38114,-0.31819,-0.0042725,0.2319,-0.40697,0.082766,-0.1809,-0.11521,0.29781,0.9101
0.024011,-0.032814,0.060351,-0.010009,-0.017425,-0.11329,-0.054941,0.022025,-0.039487,0.39314,0.36239,0.43328,-0.41533,-0.40696,-0.37995,-0.39371,-0.0061911,0.31287,-0.41642,0.17467,-0.1627,-0.17958,0.29782,0.97224
0.017104,-0.031412,0.056594,-0.0048081,-0.024833,-0.13694,-0.072539,0.031052,-0.024514,0.45744,0.37679,0.43436,-0.39293,-0.40975,-0.37225,-0.46953,-0.0076642,0.31834,-0.4377,0.24965,-0.13474,-0.29851,0.2955,1.082
0.0081788,-0.020917,0.05433,0.00086708,-0.034687,-0.1538,-0.093267,0.053015,-0.0032264,0.45387,0.38383,0.44396,-0.36627,-0.42136,-0.35829,-0.54442,-0.012357,0.25664,-0.46867,0.31171,-0.099346,-0.46468,0.28701,1.2142
-0.00043828,-0.0067594,0.053921,0.0044878,-0.045786,-0.16602,-0.11525,0.091468,0.020689,0.39816,0.37572,0.44863,-0.33929,-0.4353,-0.33811,-0.60787,-0.022917,0.16686,-0.51072,0.36804,-0.058913,-0.63779,0.27167,1.3541
-0.0069101,0.0023278,0.055115,0.0038513,-0.056393,-0.17517,-0.13654,0.14301,0.044123,0.33326,0.35101,0.44067,-0.31379,-0.44765,-0.31254,-0.64643,-0.039524,0.097696,-0.56557,0.42103,-0.015443,-0.76054,0.25299,1.5093
-0.010876,0.00050232,0.05752,-0.00089772,-0.065325,-0.1822,-0.15589,0.19784,0.065679,0.30421,0.3138,0.42192,-0.29128,-0.4613,-0.28285,-0.65387,-0.059288,0.079605,-0.63225,0.46584,0.0272,-0.78475,0.23682,1.6991
-0.013259,-0.01128,0.060671,-0.006933,-0.072623,-0.18885,-0.17324,0.24618,0.084983,0.33137,0.26985,0.40104,-0.27399,-0.48373,-0.25021,-0.63633,-0.077306,0.10818,-0.7062,0.49571,0.061415,-0.69432,0.22835,1.9306
-0.014974,-0.026349,0.063662,-0.010531,-0.079234,-0.19799,-0.18954,0.28554,0.10128,0.3995,0.22358,0.38693,-0.26366,-0.52056,-0.21588,-0.60866,-0.089284,0.1495,-0.78083,0.51009,0.078027,-0.51324,0.22999,2.1814
-0.015732,-0.037131,0.06504,-0.0095953,-0.085873,-0.2118,-0.20547,0.32213,0.11311,0.46931,0.17834,0.38356,-0.25911,-0.56976,-0.18189,-0.58585,-0.094089,0.16389,-0.84943,0.51813,0.072313,-0.29489,0.24116,2.4074
-0.014213,-0.039907,0.063483,-0.0049453,-0.092057,-0.22911,-0.22016,0.36477,0.11972,0.5028,0.13855,0.3894,-0.2557,-0.62096,-0.15102,-0.57655,-0.094008,0.13189,-0.90576,0.53342,0.049052,-0.09878,0.25931,2.5677
-0.009621,-0.036325,0.058864,0.00056698,-0.096239,-0.24443,-0.23088,0.41596,0.12271,0.48518,0.11048,0.40036,-0.24807,-0.66077,-0.12561,-0.58218,-0.092076,0.064988,-0.94368,0.56407,0.021346,0.03295,0.28105,2.6492
-0.0031481,-0.031259,0.052622,0.0043066,-0.097049,-0.24979,-0.23453,0.46754,0.12612,0.43005,0.099585,0.41269,-0.23441,-0.68128,-0.10608,-0.60036,-0.088606,-0.0050456,-0.95758,0.60595,0.0029328,0.08714,0.30287,2.6696
0.0022595,-0.029068,0.046818,0.0056881,-0.094468,-0.23846,-0.22984,0.50447,0.13405,0.36653,0.10648,0.4233,-0.21857,-0.68635,-0.090603,-0.6287,-0.080303,-0.049253,-0.94502,0.64507,-0.00029306,0.07588,0.32185,2.6601
0.0038695,-0.030933,0.042505,0.0062461,-0.089702,-0.20827,-0.21839,0.51346,0.14766,0.31897,0.12525,0.42859,-0.20785,-0.69193,-0.076136,-0.66687,-0.063381,-0.059639,-0.90986,0.66724,0.0073193,0.023249,0.33624,2.6409
0.0011834,-0.034647,0.038834,0.0080295,-0.083763,-0.16222,-0.2035,0.48996,0.16422,0.29322,0.14643,0.42471,-0.20773,-0.71956,-0.059901,-0.71675,-0.038317,-0.050287,-0.86234,0.66747,0.016705,-0.047016,0.34582,2.6107
-0.0038147,-0.036468,0.033831,0.011686,-0.076112,-0.10616,-0.18771,0.43918,0.17919,0.27725,0.16264,0.41011,-0.21761,-0.78623,-0.040094,-0.78108,-0.011706,-0.042894,-0.81393,0.65219,0.02254,-0.11611,0.35128,2.5559
-0.0083227,-0.033629,0.026301,0.015797,-0.064859,-0.044849,-0.17101,0.37205,0.18986,0.2537,0.17246,0.3877,-0.23081,-0.89567,-0.015838,-0.86035,0.0073107,-0.049497,-0.76906,0.63339,0.027346,-0.168,0.35281,2.4689
-0.010654,-0.026101,0.017338,0.017989,-0.048479,0.020591,-0.15154,0.30046,0.19744,0.21392,0.17931,0.3633,-0.23878,-1.035,0.012772,-0.94813,0.013729,-0.065549,-0.71995,0.62001,0.0382,-0.18656,0.34895,2.3576
-0.01073,-0.016892,0.010171,0.016925,-0.027479,0.09158,-0.12806,0.23474,0.20565,0.16373,0.18664,0.34004,-0.23641,-1.178,0.044114,-1.0281,0.010814,-0.076852,-0.6499,0.61254,0.059699,-0.15734,0.33656,2.2406
-0.0090565,-0.010758,0.0083293,0.013512,-0.0044217,0.16747,-0.10207,0.18272,0.21705,0.11804,0.19386,0.31297,-0.22486,-1.2946,0.074729,-1.0764,0.0075395,-0.072908,-0.54459,0.60337,0.08976,-0.073715,0.31252,2.1325
-0.005665,-0.011758,0.013318,0.010292,0.017725,0.24081,-0.077582,0.14852,0.23035,0.089781,0.19643,0.26949,-0.21021,-1.3607,0.10023,-1.0716,0.010907,-0.055551,-0.40428,0.58116,0.12158,0.056514,0.27579,2.037
-0.00029122,-0.020595,0.023337,0.0094958,0.037319,0.29689,-0.058555,0.13047,0.24106,0.081687,0.18984,0.19683,-0.19898,-1.3668,0.11719,-1.0056,0.019616,-0.037102,-0.24728,0.5363,0.14924,0.20875,0.22856,1.9516
0.0065537,-0.033247,0.033901,0.011352,0.054286,0.31982,-0.046182,0.12073,0.24517,0.086007,0.1734,0.091914,-0.1938,-1.3209,0.12452,-0.89008,0.025002,-0.030873,-0.10097,0.46583,0.17146,0.34573,0.17553,1.8797
0.013123,-0.042287,0.040078,0.014063,0.068901,0.30201,-0.038279,0.10875,0.24234,0.090595,0.1508,-0.034453,-0.19182,-1.2438,0.12301,-0.75087,0.019036,-0.041752,0.014674,0.37668,0.19056,0.4278,0.12207,1.8359
0.017475,-0.041031,0.039112,0.015411,0.080571,0.25042,-0.031208,0.087262,0.23591,0.085765,0.12747,-0.16328,-0.1871,-1.1605,0.11371,-0.61397,0.0026284,-0.062973,0.099361,0.28531,0.20861,0.4266,0.072598,1.8391
0.019176,-0.028412,0.031915,0.014571,0.088016,0.18429,-0.022471,0.056211,0.22944,0.067401,0.10814,-0.27953,-0.1753,-1.09,0.097098,-0.49285,-0.0134,-0.079982,0.17161,0.21182,0.22494,0.33715,0.030255,1.8982
0.019921,-0.011009,0.0225,0.012615,0.090697,0.12491,-0.01164,0.020546,0.22305,0.036082,0.096959,-0.38163,-0.15764,-1.0403,0.074435,-0.38523,-0.016261,-0.07809,0.255,0.16935,0.23741,0.18198,-0.0024887,2.0034
0.02226,0.00028236,0.015647,0.011396,0.089967,0.084255,0.00094629,-0.016706,0.21288,-0.0049667,0.099349,-0.48039,-0.14106,-1.0086,0.049804,-0.28103,-0.0017447,-0.049607,0.36168,0.15499,0.24551,0.0034614,-0.023778,2.1299
0.027493,-0.0023604,0.014174,0.011915,0.088552,0.060588,0.015911,-0.059807,0.19437,-0.050759,0.12201,-0.58734,-0.13422,-0.9869,0.030277,-0.1742,0.021575,0.0024604,0.48499,0.14967,0.25155,-0.15323,-0.033725,2.2489
0.034652,-0.0174,0.01751,0.013649,0.088554,0.043555,0.034685,-0.11811,0.16651,-0.094514,0.16941,-0.7009,-0.14191,-0.96865,0.022839,-0.069407,0.038196,0.065361,0.60572,0.12979,0.25857,-0.2574,-0.036244,2.3373
0.04145,-0.034186,0.022393,0.015279,0.089591,0.024296,0.05719,-0.19669,0.13336,-0.12862,0.23896,-0.80112,-0.16177,-0.95212,0.030069,0.020978,0.036789,0.12192,0.70546,0.084164,0.26691,-0.30051,-0.039104,2.3792
0.046251,-0.040505,0.025135,0.015987,0.088762,0.0025352,0.079792,-0.28725,0.10147,-0.14767,0.31986,-0.85807,-0.18605,-0.93992,0.048329,0.0863,0.017502,0.1584,0.77596,0.024188,0.27333,-0.29104,-0.050775,2.3624
0.049246,-0.031971,0.023892,0.016024,0.082709,-0.014011,0.096392,-0.36781,0.075577,-0.15217,0.39826,-0.84831,-0.2069,-0.93661,0.070426,0.12581,-0.0098342,0.17112,0.81815,-0.021228,0.27391,-0.24259,-0.075436,2.2766
0.051908,-0.015467,0.019512,0.016129,0.070378,-0.016125,0.10277,-0.41319,0.056326,-0.14997,0.46616,-0.7682,-0.22139,-0.94687,0.090762,0.14979,-0.033941,0.16802,0.83477,-0.023603,0.26835,-0.16549,-0.10982,2.1167
0.05545,-0.0034263,0.014631,0.016549,0.054417,0.00036517,0.10071,-0.40939,0.041577,-0.1527,0.52709,-0.6351,-0.23244,-0.97496,0.10857,0.17339,-0.04921,0.16326,0.82566,0.026594,0.26167,-0.067498,-0.14486,1.8869
0.059806,-0.0035766,0.011798,0.016766,0.040038,0.032434,0.0977,-0.36175,0.029548,-0.16749,0.59359,-0.47695,-0.24531,-1.0246,0.12645,0.20762,-0.056451,0.16784,0.79099,0.11382,0.26116,0.039937,-0.17145,1.6007
0.06395,-0.013031,0.01189,0.016191,0.031951,0.072089,0.10155,-0.29124,0.020463,-0.18797,0.67753,-0.31895,-0.26271,-1.0986,0.14554,0.2536,-0.058552,0.18259,0.73807,0.20752,0.2707,0.13851,-0.18628,1.2732
0.067015,-0.021808,0.013678,0.014978,0.031385,0.10994,0.11401,-0.22259,0.015257,-0.19124,0.78014,-0.17641,-0.28262,-1.1977,0.16178,0.303,-0.056608,0.19861,0.68272,0.28051,0.28682,0.20856,-0.19322,0.91268
0.069039,-0.022351,0.014668,0.013955,0.035276,0.13775,0.12918,-0.1727,0.013135,-0.14577,0.88954,-0.056099,-0.30001,-1.3209,0.16686,0.34381,-0.050379,0.20495,0.64093,0.32229,0.29978,0.24002,-0.19953,0.51753
0.070666,-0.016166,0.012675,0.013675,0.038289,0.14993,0.13857,-0.14637,0.010994,-0.028854,0.98739,0.039219,-0.31057,-1.4651,0.15332,0.36736,-0.04169,0.19773,0.61649,0.33927,0.29902,0.23939,-0.21015,0.082149
0.072242,-0.011609,0.0072002,0.013705,0.036309,0.14505,0.13863,-0.13921,0.0057496,0.15598,1.0597,0.10897,-0.31325,-1.6241,0.11992,0.37227,-0.036159,0.18342,0.59581,0.34383,0.27925,0.22501,-0.22475,-0.39154
0.073236,-0.015287,-0.00023976,0.013173,0.028962,0.12696,0.13401,-0.1431,-0.0025722,0.3742,1.1039,0.15655,-0.30988,-1.7855,0.073128,0.36362,-0.040597,0.17386,0.55614,0.34225,0.24316,0.21256,-0.23938,-0.88511
0.072504,-0.02547,-0.0071641,0.01221,0.019408,0.10366,0.13325,-0.14973,-0.010169,0.57426,1.1281,0.19016,-0.30327,-1.9289,0.023698,0.34877,-0.057991,0.1772,0.4822,0.33061,0.1992,0.20083,-0.25064,-1.363
0.069122,-0.033669,-0.011942,0.012736,0.011729,0.083216,0.14058,-0.15191,-0.012237,0.71374,1.1443,0.21875,-0.29582,-2.0282,-0.018843,0.33343,-0.084588,0.19187,0.37888,0.30055,0.15637,0.16951,-0.25858,-1.7806
0.06306,-0.032523,-0.015031,0.01735,0.0079602,0.068937,0.15137,-0.14482,-0.0068792,0.78073,1.1624,0.2454,-0.28942,-2.0605,-0.049857,0.32087,-0.11163,0.20822,0.27057,0.24902,0.11945,0.09145,-0.26622,-2.0977
0.055247,-0.022275,-0.018522,0.026904,0.006933,0.057704,0.15557,-0.12837,0.0032638,0.79609,1.1884,0.26466,-0.28588,-2.0189,-0.069482,0.31398,-0.13014,0.21597,0.18777,0.184,0.087447,-0.048996,-0.27698,-2.2921
0.047105,-0.0098688,-0.024184,0.038897,0.0055215,0.043398,0.14641,-0.10883,0.013015,0.79521,1.2261,0.26777,-0.28636,-1.9196,-0.080106,0.31743,-0.13488,0.2116,0.15084,0.12252,0.055757,-0.24513,-0.2927,-2.3682
0.039947,-0.0021031,-0.031564,0.048443,0.0010765,0.022759,0.12652,-0.096897,0.018397,0.80297,1.2779,0.25219,-0.2903,-1.7986,-0.084363,0.33647,-0.12484,0.20033,0.1609,0.083011,0.020369,-0.47202,-0.31357,-2.3575
0.03454,0.00023447,-0.037893,0.051376,-0.0067881,-0.0014603,0.10601,-0.10202,0.018938,0.81947,1.3434,0.22691,-0.29506,-1.6956,-0.085251,0.37216,-0.10132,0.19195,0.20203,0.077598,-0.018377,-0.70117,-0.33927,-2.3074
0.030952,0.0017749,-0.040104,0.047025,-0.016115,-0.022972,0.0942,-0.1266,0.017002,0.82508,1.416,0.20869,-0.29745,-1.6358,-0.087054,0.41653,-0.066118,0.19385,0.25082,0.10886,-0.054606,-0.91347,-0.36895,-2.2615
0.028675,0.0067129,-0.037413,0.038322,-0.023982,-0.037686,0.092414,-0.16435,0.015306,0.79849,1.4838,0.21264,-0.29611,-1.6174,-0.094424,0.45273,-0.021683,0.20598,0.28642,0.17177,-0.079239,-1.1008,-0.39989,-2.238
0.026973,0.013927,-0.032267,0.029169,-0.028271,-0.04709,0.093981,-0.20417,0.014975,0.73301,1.535,0.24551,-0.29269,-1.6156,-0.1088,0.46193,0.027591,0.22052,0.29643,0.25869,-0.085105,-1.2579,-0.42613,-2.2215
0.025369,0.01798,-0.028775,0.021423,-0.028751,-0.05589,0.091043,-0.23628,0.015377,0.64041,1.5657,0.30637,-0.29057,-1.5986,-0.12487,0.43324,0.075141,0.22596,0.27846,0.36394,-0.072219,-1.3733,-0.43943,-2.1738
0.023996,0.014836,-0.029833,0.014113,-0.026935,-0.066264,0.081708,-0.25573,0.015177,0.5422,1.583,0.39141,-0.29228,-1.5478,-0.13129,0.36971,0.11426,0.21313,0.23944,0.48551,-0.049609,-1.4304,-0.43294,-2.0602
0.02351,0.0064934,-0.035208,0.0054268,-0.02489,-0.074608,0.071327,-0.26111,0.013315,0.4574,1.5994,0.49568,-0.29782,-1.4685,-0.1174,0.28557,0.1413,0.18021,0.1946,0.62279,-0.031276,-1.4179,-0.40533,-1.875
0.024508,-0.00011591,-0.041964,-0.0045857,-0.023781,-0.074391,0.067434,-0.25045,0.009398,0.39575,1.6235,0.60969,-0.30531,-1.3878,-0.082036,0.19682,0.1576,0.1344,0.16533,0.77207,-0.027646,-1.3421,-0.36222,-1.6468
0.026735,0.0010046,-0.046634,-0.013283,-0.023129,-0.062634,0.073487,-0.21844,0.0038307,0.35915,1.6531,0.71655,-0.31332,-1.339,-0.037505,0.11261,0.16848,0.089434,0.17392,0.92298,-0.037992,-1.2302,-0.31367,-1.4221
0.028729,0.0097533,-0.047313,-0.017504,-0.021296,-0.043713,0.08693,-0.15759,-0.0020435,0.34698,1.6754,0.79709,-0.32253,-1.3417,-0.0040228,0.033976,0.17955,0.05995,0.2345,1.0595,-0.049991,-1.1194,-0.26908,-1.2373
0.028367,0.020163,-0.044227,-0.016574,-0.016799,-0.026505,0.10243,-0.062559,-0.0061723,0.35948,1.6756,0.84275,-0.33535,-1.3884,0.0028716,-0.040158,0.19288,0.055281,0.34322,1.1665,-0.048062,-1.038,-0.23306,-1.1014
0.024179,0.02565,-0.038856,-0.013386,-0.0094022,-0.017293,0.11634,0.065445,-0.0068408,0.39655,1.6431,0.86581,-0.35374,-1.4448,-0.016746,-0.10631,0.20558,0.075493,0.47403,1.2375,-0.025123,-0.98918,-0.20453,-1.0003
0.016587,0.024447,-0.032736,-0.012377,-0.00016667,-0.014958,0.12811,0.21673,-0.0040512,0.45419,1.5742,0.89535,-0.37735,-1.4642,-0.046314,-0.1558,0.21192,0.11164,0.58513,1.2792,0.011227,-0.94902,-0.17903,-0.91867
0.00804,0.020515,-0.026914,-0.016046,0.0093786,-0.01288,0.13828,0.37435,5.3096e-005,0.52263,1.4682,0.95778,-0.4031,-1.4091,-0.063255,-0.18087,0.20748,0.15009,0.63552,1.3069,0.043409,-0.88202,-0.15211,-0.85775
0.0016869,0.019544,-0.022052,-0.023102,0.018041,-0.0056067,0.14613,0.51786,0.0024701,0.5887,1.3245,1.0548,-0.42653,-1.2693,-0.05346,-0.1816,0.19252,0.17884,0.60369,1.3344,0.056123,-0.76521,-0.12144,-0.83578
-0.00061476,0.023915,-0.018542,-0.029892,0.025082,0.0060369,0.15003,0.62838,0.0014422,0.64114,1.1434,1.1561,-0.44361,-1.064,-0.019359,-0.16698,0.17192,0.19272,0.49739,1.3645,0.04651,-0.6063,-0.087091,-0.86961
0.00053442,0.030976,-0.01625,-0.03376,0.029907,0.015976,0.14981,0.69405,-0.0025216,0.67504,0.93077,1.2132,-0.45173,-0.82778,0.02367,-0.14914,0.15171,0.19503,0.34787,1.3873,0.024208,-0.44252,-0.050743,-0.95518
0.0026685,0.035707,-0.014281,-0.035173,0.032124,0.018741,0.14791,0.71406,-0.0077226,0.69204,0.69991,1.1868,-0.44965,-0.58916,0.058782,-0.13609,0.13465,0.19459,0.19204,1.387,0.0018932,-0.31951,-0.014672,-1.0646
0.0033231,0.035054,-0.011342,-0.036594,0.032234,0.01451,0.14733,0.69898,-0.013417,0.69601,0.46904,1.0666,-0.43686,-0.35668,0.07766,-0.12899,0.11846,0.19997,0.053824,1.3525,-0.015325,-0.26324,0.018945,-1.1635
0.001599,0.030257,-0.0067054,-0.039204,0.032118,0.0088835,0.14795,0.6663,-0.020885,0.68766,0.25518,0.87258,-0.41333,-0.12163,0.081976,-0.12549,0.0981,0.2138,-0.063356,1.2838,-0.032842,-0.26423,0.048647,-1.2343
-0.0018477,0.025719,-0.00096388,-0.04082,0.034273,0.0081093,0.14492,0.63274,-0.032303,0.66238,0.070333,0.63898,-0.38008,0.12536,0.077066,-0.1248,0.070406,0.23071,-0.16927,1.1904,-0.060146,-0.28535,0.074055,-1.2857
-0.0061684,0.025879,0.0042918,-0.037398,0.039811,0.014408,0.13096,0.60774,-0.048462,0.61342,-0.077602,0.39448,-0.33993,0.37744,0.064845,-0.12938,0.037391,0.24007,-0.27122,1.0851,-0.10119,-0.28786,0.095444,-1.3386
-0.011524,0.032645,0.0078426,-0.027063,0.046784,0.025332,0.10059,0.59184,-0.067411,0.53814,-0.18226,0.15345,-0.2976,0.60814,0.042575,-0.14226,0.0057036,0.23195,-0.36186,0.97778,-0.14949,-0.257,0.11245,-1.4032
-0.018792,0.044703,0.010159,-0.012918,0.05066,0.036943,0.052567,0.5805,-0.085167,0.44306,-0.23993,-0.078966,-0.25861,0.78426,0.0078957,-0.16337,-0.01719,0.20245,-0.41887,0.87529,-0.19109,-0.20925,0.12281,-1.4643
-0.027971,0.058264,0.013387,-0.0016308,0.047191,0.047238,-0.010937,0.5695,-0.097692,0.34409,-0.2556,-0.29569,-0.22733,0.88575,-0.035511,-0.1888,-0.026943,0.15504,-0.41662,0.78461,-0.21203,-0.17714,0.12265,-1.4899
-0.036971,0.068347,0.019766,0.0014308,0.035693,0.056657,-0.086182,0.55762,-0.10251,0.26181,-0.24809,-0.48181,-0.20536,0.91821,-0.077617,-0.2134,-0.023547,0.097527,-0.34163,0.71583,-0.20465,-0.18409,0.10868,-1.4531
-0.042309,0.070389,0.029622,-0.0035986,0.020056,0.065773,-0.16768,0.54515,-0.099026,0.21422,-0.24678,-0.61941,-0.19116,0.90979,-0.10781,-0.23382,-0.0095617,0.036981,-0.20165,0.68001,-0.16988,-0.22804,0.081048,-1.3506
-0.041569,0.062359,0.040654,-0.011298,0.0063804,0.073023,-0.24593,0.53082,-0.088135,0.21013,-0.2788,-0.69925,-0.18113,0.89493,-0.12166,-0.24902,0.012402,-0.023678,-0.022619,0.68269,-0.11587,-0.28372,0.044379,-1.2017
-0.035618,0.046701,0.049321,-0.015481,-0.001058,0.075078,-0.30675,0.51121,-0.071974,0.24537,-0.35515,-0.73002,-0.17107,0.89548,-0.12272,-0.25847,0.04055,-0.085429,0.16467,0.71801,-0.05513,-0.31894,0.0058046,-1.0334
-0.028412,0.030278,0.053475,-0.014078,-0.0023769,0.069753,-0.33563,0.48341,-0.054216,0.30334,-0.46712,-0.73797,-0.15716,0.9101,-0.11796,-0.26051,0.07264,-0.14991,0.34017,0.76888,-0.0009837,-0.31032,-0.028727,-0.86419
-0.024148,0.021025,0.054184,-0.010186,-0.0011711,0.058817,-0.32601,0.4484,-0.040134,0.3605,-0.59675,-0.75577,-0.13645,0.91718,-0.11135,-0.25337,0.10432,-0.21582,0.50318,0.81456,0.036586,-0.24847,-0.057217,-0.70034
-0.023936,0.02273,0.055128,-0.0086602,-0.00092808,0.048028,-0.28542,0.41153,-0.035576,0.39539,-0.73257,-0.80627,-0.10726,0.88914,-0.10125,-0.23807,0.12913,-0.27737,0.66869,0.84104,0.054666,-0.1341,-0.081573,-0.54287
-0.02494,0.031819,0.0597,-0.011542,-0.0017234,0.04402,-0.23331,0.37908,-0.044737,0.39745,-0.87658,-0.88975,-0.070177,0.80973,-0.08389,-0.22051,0.14083,-0.32598,0.85379,0.84681,0.058494,0.025414,-0.10529,-0.39466
-0.022975,0.039484,0.067937,-0.016404,0.00016287,0.050411,-0.19094,0.35377,-0.067701,0.37081,-1.0357,-0.98223,-0.028778,0.6846,-0.059159,-0.21009,0.13639,-0.35407,1.0627,0.84002,0.058201,0.2137,-0.13106,-0.25998
-0.016482,0.03828,0.075881,-0.018773,0.0094633,0.066092,-0.17007,0.33275,-0.099194,0.33022,-1.2054,-1.0472,0.011091,0.53836,-0.033176,-0.2151,0.1177,-0.3589,1.2805,0.82972,0.062435,0.40232,-0.15996,-0.13864
-0.0083075,0.028086,0.078307,-0.016118,0.028182,0.08684,-0.16875,0.30981,-0.1297,0.29172,-1.3614,-1.0556,0.043932,0.40027,-0.015099,-0.23767,0.090681,-0.34428,1.4802,0.81851,0.072706,0.55699,-0.19218,-0.023184
-0.003483,0.016182,0.072974,-0.0098167,0.053672,0.10859,-0.17654,0.27959,-0.14893,0.2641,-1.4694,-1.0036,0.067799,0.28857,-0.010836,-0.27188,0.062531,-0.31871,1.638,0.80226,0.082229,0.65494,-0.22785,0.096987
-0.0048478,0.01104,0.062983,-0.0036792,0.079773,0.12948,-0.18408,0.24059,-0.15027,0.24674,-1.5081,-0.91501,0.085711,0.20519,-0.018996,-0.30627,0.039059,-0.29086,1.7472,0.77611,0.079981,0.7009,-0.26725,0.22851
-0.01048,0.015059,0.055019,-0.0007369,0.099968,0.14909,-0.18893,0.19508,-0.13399,0.23408,-1.4872,-0.82701,0.10393,0.14434,-0.032248,-0.32946,0.023441,-0.26496,1.8197,0.73943,0.057198,0.72497,-0.31031,0.37064
-0.015356,0.022614,0.054591,-0.0012255,0.11034,0.16612,-0.19432,0.14675,-0.10719,0.22236,-1.4448,-0.7655,0.12812,0.10608,-0.042601,-0.33522,0.016592,-0.23934,1.8749,0.69403,0.012365,0.75857,-0.35646,0.51618
-0.015736,0.025114,0.062021,-0.0031838,0.11062,0.1772,-0.20365,0.098407,-0.0801,0.21304,-1.4241,-0.72837,0.16006,0.10053,-0.046157,-0.32385,0.018153,-0.20959,1.9249,0.63634,-0.047602,0.80564,-0.40442,0.65162
-0.012189,0.018466,0.072454,-0.0046403,0.10309,0.1785,-0.21688,0.051525,-0.06053,0.21125,-1.4453,-0.68786,0.19718,0.13661,-0.043911,-0.2993,0.027048,-0.17406,1.9661,0.55189,-0.10955,0.83496,-0.45161,0.75377
