-1.1209e-009,2.8264e-009,1.0206e-009,4.0515e-011,1.1557e-009,-1.2483e-009,8.8169e-010,1.2521e-009,4.8426e-010,-2.9133e-010,-3.5055e-009,2.348e-009,7.4278e-010,-1.4258e-009,9.1642e-010,2.1435e-009,1.0978e-009,-1.3177e-009,1.8656e-009,6.6387e-009,-4.0515e-011,1.2714e-009,-1.9004e-009,1.7537e-009
-3.1029e-008,7.8703e-008,2.8025e-008,6.9514e-010,3.1831e-008,-3.4594e-008,2.4013e-008,3.4616e-008,1.3123e-008,-7.6298e-009,-9.6914e-008,6.4729e-008,2.0684e-008,-3.9515e-008,2.5841e-008,5.9571e-008,3.0606e-008,-3.6244e-008,5.172e-008,1.8394e-007,-1.4321e-009,3.5736e-008,-5.2719e-008,4.8447e-008
-4.1753e-007,1.0663e-006,3.7444e-007,3.5887e-009,4.2612e-007,-4.6531e-007,3.1762e-007,4.6524e-007,1.724e-007,-9.6433e-008,-1.3025e-006,8.6769e-007,2.8021e-007,-5.3192e-007,3.5366e-007,8.0546e-007,4.148e-007,-4.8382e-007,6.973e-007,2.4778e-006,-2.3885e-008,4.8846e-007,-7.1129e-007,6.5021e-007
-3.6386e-006,9.3662e-006,3.2439e-006,-1.922e-008,3.6939e-006,-4.0463e-006,2.7178e-006,4.0501e-006,1.4617e-006,-7.8173e-007,-1.1339e-005,7.5354e-006,2.4603e-006,-4.6328e-006,3.1293e-006,7.0601e-006,3.6411e-006,-4.1748e-006,6.0927e-006,2.1618e-005,-2.5242e-007,4.326e-006,-6.2178e-006,5.6475e-006
-2.3079e-005,5.9952e-005,2.049e-005,-4.4428e-007,2.3306e-005,-2.5564e-005,1.6905e-005,2.567e-005,8.9829e-006,-4.5513e-006,-7.1865e-005,4.7652e-005,1.5735e-005,-2.9339e-005,2.0117e-005,4.51e-005,2.3269e-005,-2.616e-005,3.879e-005,0.0001373,-1.9097e-006,2.7905e-005,-3.9576e-005,3.5673e-005
-0.00011352,0.00029799,0.0001006,-3.7867e-006,0.00011403,-0.00012501,8.1408e-005,0.00012622,4.2577e-005,-2.0155e-005,-0.00035329,0.0002338,7.8106e-005,-0.00014392,0.00010009,0.00022377,0.00011535,-0.00012676,0.00019182,0.0006763,-1.106e-005,0.0001397,-0.00019539,0.00017455
-0.00045041,0.0011966,0.00039957,-2.1478e-005,0.00045014,-0.00049207,0.00031559,0.0005009,0.00016162,-6.9897e-005,-0.0014015,0.00092578,0.00031299,-0.00056879,0.00040082,0.00089735,0.00046144,-0.00049365,0.00076684,0.0026875,-5.1144e-005,0.00056469,-0.00077825,0.00068802
-0.00148,0.0039866,0.0013196,-9.232e-005,0.0014722,-0.0016007,0.0010104,0.0016477,0.00050314,-0.00019115,-0.0046061,0.003038,0.0010397,-0.0018595,0.0013261,0.002988,0.0015299,-0.0015847,0.0025468,0.0088465,-0.00019435,0.0018927,-0.0025673,0.0022422
-0.0041018,0.011227,0.0036957,-0.0003185,0.0040641,-0.0043829,0.0027188,0.0045776,0.0013031,-0.00040229,-0.012777,0.0084149,0.0029165,-0.0051227,0.00369,0.0084211,0.0042833,-0.0042645,0.0071659,0.024568,-0.00061949,0.0053597,-0.0071438,0.0061498
-0.0097124,0.027088,0.0089049,-0.0009112,0.0095968,-0.010231,0.0062173,0.010886,0.0028244,-0.00058196,-0.030304,0.01993,0.0070002,-0.012049,0.008743,0.020371,0.010263,-0.0097201,0.017332,0.058315,-0.0016819,0.012994,-0.016983,0.014368
-0.019816,0.056511,0.018665,-0.0022071,0.019567,-0.020544,0.012158,0.022372,0.0051054,-0.00023051,-0.061999,0.040715,0.014511,-0.024424,0.017773,0.042739,0.021248,-0.018854,0.036434,0.11935,-0.0039339,0.027226,-0.034793,0.028809
-0.03501,0.10258,0.034319,-0.0045891,0.03466,-0.03568,0.020344,0.039991,0.0075455,0.0018057,-0.11,0.072104,0.026137,-0.042938,0.031101,0.078374,0.038264,-0.031072,0.067147,0.21172,-0.0079974,0.049602,-0.061746,0.049718
-0.053627,0.16254,0.05571,-0.0082662,0.053524,-0.053766,0.028947,0.062421,0.0085914,0.0073824,-0.16959,0.11086,0.041053,-0.065726,0.046756,0.12636,0.060209,-0.043019,0.10924,0.32628,-0.014227,0.078844,-0.095099,0.073693
-0.071006,0.22499,0.08026,-0.012971,0.072125,-0.070381,0.034379,0.08523,0.0059901,0.018517,-0.22679,0.1476,0.056305,-0.08779,0.059815,0.17998,0.083045,-0.048552,0.15781,0.43631,-0.022267,0.10943,-0.1269,0.092915
-0.080568,0.27156,0.10313,-0.017777,0.084707,-0.080153,0.03251,0.10182,-0.0020724,0.036139,-0.26138,0.16881,0.067424,-0.10247,0.063541,0.22765,0.10077,-0.041096,0.20361,0.50391,-0.030818,0.13241,-0.14584,0.097352
-0.076962,0.2847,0.11898,-0.021291,0.086521,-0.080024,0.021081,0.10648,-0.015296,0.058641,-0.25627,0.16319,0.070534,-0.10484,0.052595,0.25772,0.10847,-0.018002,0.23624,0.49869,-0.037936,0.13928,-0.1427,0.080065
-0.059817,0.25846,0.12472,-0.022289,0.076938,-0.072114,0.0018621,0.097941,-0.030227,0.081367,-0.20873,0.12935,0.064949,-0.095049,0.026778,0.26509,0.10583,0.015726,0.2489,0.41962,-0.04192,0.12728,-0.11667,0.042864
-0.035351,0.20472,0.12165,-0.020522,0.06062,-0.063437,-0.019402,0.080966,-0.041173,0.098056,-0.13546,0.079317,0.054314,-0.078738,-0.0074025,0.2549,0.098389,0.047846,0.24164,0.30342,-0.042285,0.10247,-0.077739,-0.0021798
-0.013884,0.14862,0.11514,-0.017109,0.045231,-0.06143,-0.036044,0.063925,-0.04325,0.10408,-0.065287,0.033645,0.044894,-0.063686,-0.039259,0.23948,0.094392,0.064735,0.22055,0.20793,-0.040135,0.077288,-0.041821,-0.038155
-0.0041369,0.1138,0.11174,-0.014099,0.036712,-0.067862,-0.044863,0.053605,-0.035913,0.099615,-0.022549,0.0095946,0.041649,-0.054782,-0.059584,0.22956,0.098852,0.05958,0.19321,0.17715,-0.037545,0.063249,-0.020953,-0.053474
-0.0079997,0.10716,0.11505,-0.013281,0.035361,-0.075931,-0.048413,0.050854,-0.024218,0.090185,-0.012147,0.010187,0.044842,-0.051467,-0.065803,0.226,0.10908,0.036885,0.16363,0.21164,-0.036393,0.063479,-0.015309,-0.050047
-0.019605,0.11465,0.1234,-0.015038,0.035843,-0.07385,-0.052843,0.05058,-0.016215,0.083534,-0.017994,0.022568,0.04989,-0.049771,-0.062882,0.21887,0.11595,0.0091787,0.13056,0.2682,-0.037527,0.071184,-0.013683,-0.043006
-0.02951,0.11239,0.13095,-0.018098,0.0314,-0.053213,-0.06243,0.046271,-0.017703,0.084462,-0.016495,0.027804,0.050786,-0.046893,-0.059297,0.19551,0.11071,-0.012106,0.090224,0.2916,-0.040785,0.075632,-0.0025332,-0.051223
-0.030875,0.084946,0.13172,-0.020484,0.019186,-0.016036,-0.075179,0.035386,-0.028073,0.09137,0.0054537,0.015071,0.044426,-0.043714,-0.061139,0.15143,0.092273,-0.024423,0.041169,0.25451,-0.04555,0.071008,0.023456,-0.084987
-0.023097,0.036527,0.12359,-0.021008,0.0026168,0.025387,-0.083574,0.021187,-0.040597,0.097357,0.042279,-0.010793,0.032381,-0.04266,-0.068717,0.09501,0.068428,-0.034128,-0.012878,0.17388,-0.050993,0.060629,0.05787,-0.13954
-0.010624,-0.013661,0.10939,-0.020152,-0.011109,0.056262,-0.080417,0.0097103,-0.047302,0.095375,0.077111,-0.034379,0.018929,-0.043142,-0.077759,0.041877,0.049535,-0.048907,-0.064071,0.091319,-0.055683,0.052882,0.08864,-0.19875
0.0013635,-0.047307,0.094483,-0.019626,-0.016368,0.069019,-0.065135,0.0047351,-0.044828,0.083668,0.097098,-0.043079,0.0074036,-0.039692,-0.083549,0.0033215,0.039596,-0.06954,-0.10451,0.035135,-0.057223,0.052665,0.10798,-0.24541
0.010577,-0.06053,0.082718,-0.020959,-0.013192,0.067556,-0.045037,0.0051544,-0.036676,0.067301,0.10297,-0.037497,-0.0018151,-0.025573,-0.084359,-0.021528,0.032612,-0.088544,-0.13032,-0.0029428,-0.052925,0.056382,0.11753,-0.27035
0.017935,-0.064178,0.07423,-0.024253,-0.0070148,0.062987,-0.03007,0.0066333,-0.030076,0.054625,0.10555,-0.030347,-0.010184,0.00085964,-0.081757,-0.04354,0.017785,-0.096908,-0.14332,-0.057558,-0.041631,0.055274,0.12486,-0.27448
0.025153,-0.072085,0.066527,-0.028057,-0.0044422,0.064596,-0.025257,0.0055639,-0.030057,0.051387,0.11415,-0.035142,-0.018366,0.033019,-0.078329,-0.073651,-0.010682,-0.092763,-0.14964,-0.15693,-0.025364,0.044027,0.13555,-0.26426
0.032338,-0.088636,0.057632,-0.030396,-0.0084227,0.07323,-0.027168,0.001636,-0.035572,0.056902,0.12844,-0.054635,-0.024954,0.059668,-0.075327,-0.11384,-0.047785,-0.084088,-0.15644,-0.2971,-0.0090842,0.026364,0.14849,-0.24571
0.037748,-0.10647,0.048232,-0.030099,-0.016469,0.081849,-0.027452,-0.0028363,-0.040713,0.06486,0.14062,-0.078842,-0.027827,0.072691,-0.072218,-0.15639,-0.081127,-0.082927,-0.16836,-0.44455,0.0019214,0.012049,0.15818,-0.22169
0.039545,-0.11514,0.040924,-0.027448,-0.023108,0.081955,-0.020381,-0.0055262,-0.039781,0.067738,0.14453,-0.093956,-0.02667,0.072648,-0.068034,-0.19133,-0.10065,-0.095973,-0.18557,-0.56226,0.005403,0.0078031,0.1609,-0.19293
0.037657,-0.11155,0.037442,-0.023842,-0.024507,0.070289,-0.0079252,-0.0059483,-0.031834,0.061403,0.14211,-0.094114,-0.024032,0.067595,-0.062796,-0.21513,-0.10622,-0.11914,-0.20432,-0.63498,0.0036699,0.010651,0.15802,-0.16032
0.034059,-0.10265,0.03667,-0.020875,-0.021691,0.050774,0.0020064,-0.0052136,-0.021081,0.046924,0.14132,-0.085842,-0.023721,0.066448,-0.057516,-0.23317,-0.10672,-0.14003,-0.21976,-0.67323,0.0018674,0.01019,0.15358,-0.12555
0.031456,-0.098611,0.035395,-0.019482,-0.019993,0.031111,0.0025782,-0.0046233,-0.013128,0.029063,0.14823,-0.081736,-0.027872,0.072513,-0.052871,-0.25432,-0.11201,-0.14587,-0.22901,-0.69656,0.0041719,-0.0019131,0.14934,-0.090225
0.03167,-0.10389,0.031014,-0.019538,-0.02523,0.01754,-0.0057294,-0.0048364,-0.010498,0.013079,0.16112,-0.089339,-0.035234,0.082097,-0.048038,-0.28289,-0.12508,-0.13087,-0.23204,-0.71423,0.010855,-0.023726,0.14322,-0.054966
0.034975,-0.11472,0.023515,-0.01995,-0.039472,0.011919,-0.01491,-0.0061679,-0.011101,0.001938,0.17214,-0.10501,-0.042169,0.088558,-0.041092,-0.3146,-0.14094,-0.098387,-0.22972,-0.72048,0.018535,-0.04375,0.13291,-0.019722
0.040535,-0.12458,0.014848,-0.019099,-0.059393,0.012523,-0.015324,-0.0090768,-0.010518,-0.0048453,0.17446,-0.11773,-0.045526,0.088029,-0.030845,-0.33954,-0.15219,-0.057604,-0.22087,-0.7054,0.023323,-0.050188,0.12076,0.015419
0.047194,-0.13162,0.0065028,-0.015532,-0.078246,0.016711,-0.0027552,-0.013816,-0.0058158,-0.010543,0.16816,-0.11899,-0.045105,0.082462,-0.018453,-0.34877,-0.1554,-0.017811,-0.20166,-0.66803,0.024158,-0.040811,0.11381,0.050008
0.053852,-0.14037,-0.0021701,-0.0086742,-0.089885,0.022786,0.018926,-0.019491,0.0022485,-0.019085,0.15973,-0.10978,-0.04381,0.078278,-0.0070213,-0.33895,-0.15261,0.016113,-0.16881,-0.61828,0.023561,-0.024931,0.1178,0.083699
0.059328,-0.15618,-0.013254,0.00078589,-0.092059,0.030033,0.041114,-0.023822,0.010061,-0.032297,0.15602,-0.098852,-0.045487,0.082133,0.00090085,-0.31222,-0.14767,0.044806,-0.12408,-0.56696,0.025336,-0.015986,0.13082,0.11632
0.062194,-0.17798,-0.028044,0.011146,-0.086946,0.038046,0.056598,-0.024397,0.013926,-0.047989,0.15847,-0.094509,-0.052116,0.09676,0.0059701,-0.27296,-0.14209,0.072214,-0.075597,-0.51514,0.03134,-0.021292,0.14329,0.14685
0.061054,-0.19644,-0.045626,0.02048,-0.079,0.046835,0.06362,-0.02064,0.012564,-0.060532,0.16245,-0.097517,-0.062412,0.11927,0.012393,-0.22532,-0.13482,0.10178,-0.033956,-0.45368,0.040078,-0.037488,0.14542,0.17236
0.055317,-0.19993,-0.06356,0.027494,-0.071944,0.057559,0.065449,-0.014757,0.0077999,-0.064293,0.16192,-0.10135,-0.072683,0.14255,0.025213,-0.17343,-0.12561,0.13343,-0.005333,-0.37344,0.048096,-0.054745,0.13557,0.18864
0.045973,-0.18332,-0.079715,0.031942,-0.066996,0.072309,0.066925,-0.010604,0.0033852,-0.057996,0.1548,-0.098896,-0.07918,0.15881,0.04644,-0.12264,-0.11779,0.16317,0.012658,-0.27638,0.052722,-0.065177,0.12136,0.19292
0.035764,-0.15268,-0.093337,0.034506,-0.063197,0.091964,0.071264,-0.01119,0.0029478,-0.046656,0.14443,-0.089126,-0.080234,0.16319,0.073127,-0.078963,-0.1167,0.1853,0.028705,-0.17727,0.053818,-0.067945,0.11232,0.18664
0.028289,-0.12198,-0.1046,0.036407,-0.059113,0.11352,0.079161,-0.016742,0.0081697,-0.039033,0.13616,-0.077673,-0.076872,0.15577,0.099036,-0.046362,-0.12487,0.19569,0.050678,-0.094793,0.053384,-0.067505,0.11092,0.17543
0.02629,-0.10448,-0.11367,0.039,-0.054366,0.12982,0.089715,-0.024786,0.017965,-0.042033,0.13249,-0.071274,-0.071796,0.141,0.11862,-0.024258,-0.13856,0.19381,0.07937,-0.0398,0.053782,-0.067973,0.11079,0.1656
0.030001,-0.10501,-0.12057,0.043322,-0.049911,0.13322,0.10145,-0.032117,0.028982,-0.056209,0.13116,-0.071528,-0.067689,0.12535,0.13017,-0.0084149,-0.14956,0.18255,0.1082,-0.010249,0.056175,-0.069488,0.10384,0.15975
0.036768,-0.11804,-0.12585,0.049538,-0.047117,0.1211,0.11257,-0.037129,0.037279,-0.075824,0.12762,-0.073713,-0.065923,0.1145,0.13586,0.0049901,-0.15106,0.16647,0.12896,0.0042645,0.060172,-0.069536,0.089048,0.15517
0.042531,-0.13221,-0.13076,0.056631,-0.046593,0.098664,0.12099,-0.040821,0.040446,-0.093236,0.11926,-0.07146,-0.06618,0.11129,0.1391,0.015588,-0.14254,0.14994,0.13873,0.013651,0.064422,-0.066852,0.074045,0.14663
0.044489,-0.13785,-0.1362,0.062869,-0.047704,0.076178,0.12508,-0.045778,0.039006,-0.10385,0.10749,-0.062727,-0.066845,0.11506,0.14179,0.019078,-0.12924,0.13611,0.14235,0.021907,0.067444,-0.063335,0.067918,0.13118
0.04312,-0.13265,-0.14171,0.067123,-0.049028,0.062188,0.12489,-0.053792,0.036071,-0.10785,0.095965,-0.051609,-0.065784,0.1221,0.1436,0.011695,-0.11673,0.1264,0.14864,0.0284,0.068244,-0.062124,0.072199,0.11094
0.041896,-0.12233,-0.14594,0.070094,-0.04928,0.057963,0.12255,-0.063706,0.035292,-0.10808,0.086985,-0.044619,-0.061295,0.1272,0.14337,-0.0050105,-0.1056,0.12039,0.16389,0.032577,0.066725,-0.064346,0.078988,0.091622
0.04459,-0.11601,-0.14877,0.074102,-0.048004,0.05762,0.1211,-0.071092,0.038336,-0.10679,0.079608,-0.045058,-0.053022,0.12598,0.14076,-0.023597,-0.091163,0.11639,0.1878,0.036282,0.063861,-0.068357,0.07798,0.078457
0.05205,-0.11933,-0.15273,0.081124,-0.045678,0.053685,0.12224,-0.070367,0.043709,-0.10451,0.071101,-0.050472,-0.04244,0.11721,0.13643,-0.035261,-0.068437,0.11301,0.21496,0.041343,0.06138,-0.072314,0.065578,0.072937
0.060991,-0.12991,-0.16154,0.090549,-0.043318,0.043472,0.1249,-0.058341,0.047854,-0.1013,0.060105,-0.055075,-0.032456,0.10384,0.13091,-0.035808,-0.037925,0.11088,0.2399,0.045632,0.06084,-0.07707,0.047417,0.072815
0.065989,-0.13855,-0.17618,0.098833,-0.041901,0.031247,0.1259,-0.036956,0.047815,-0.098409,0.048318,-0.054536,-0.026032,0.09155,0.12367,-0.028082,-0.0067035,0.11281,0.26124,0.042942,0.06256,-0.085804,0.032193,0.074531
0.063387,-0.13574,-0.19234,0.10189,-0.041867,0.024915,0.12242,-0.013195,0.043507,-0.097898,0.039048,-0.048878,-0.024543,0.085158,0.11381,-0.018968,0.016363,0.12126,0.28163,0.028389,0.065256,-0.10027,0.022883,0.075554
0.054165,-0.11928,-0.20238,0.098479,-0.042826,0.030238,0.11419,0.0040488,0.037873,-0.10056,0.034047,-0.041408,-0.026974,0.084926,0.10163,-0.013781,0.027308,0.13486,0.30437,0.0051561,0.06681,-0.1173,0.013583,0.074898
0.043543,-0.096957,-0.2014,0.091655,-0.043577,0.046946,0.10399,0.0082693,0.034792,-0.10451,0.031613,-0.035217,-0.030613,0.08556,0.089513,-0.012828,0.029964,0.1473,0.33001,-0.014081,0.065627,-0.1295,-0.0053217,0.0723
0.037477,-0.081833,-0.19219,0.086772,-0.042498,0.068859,0.095799,-0.0018047,0.036294,-0.1065,0.027688,-0.030509,-0.032836,0.079205,0.080705,-0.012688,0.032646,0.15068,0.35575,-0.013884,0.061499,-0.13022,-0.038425,0.067656
0.038588,-0.082889,-0.18431,0.087586,-0.038288,0.086992,0.092102,-0.022196,0.041165,-0.10499,0.018906,-0.024714,-0.032712,0.06098,0.077024,-0.010433,0.041484,0.14148,0.37729,0.013282,0.055404,-0.11892,-0.080482,0.061518
0.044425,-0.097904,-0.18701,0.093714,-0.030776,0.093114,0.0921,-0.045953,0.045959,-0.10218,0.0048842,-0.014747,-0.031287,0.033292,0.077577,-0.0066902,0.05594,0.124,0.39071,0.060688,0.048654,-0.10236,-0.11913,0.055832
0.049239,-0.1142,-0.2015,0.10145,-0.02129,0.08211,0.092054,-0.06612,0.04761,-0.10239,-0.012015,0.00069123,-0.030377,0.0053936,0.079968,-0.0049065,0.070001,0.10795,0.39297,0.11077,0.042321,-0.090354,-0.14255,0.053566
0.04792,-0.11721,-0.21935,0.10691,-0.012177,0.053046,0.087668,-0.078129,0.045575,-0.10803,-0.028861,0.020326,-0.030862,-0.012333,0.083005,-0.0078132,0.077729,0.10127,0.38194,0.14626,0.037315,-0.089429,-0.14632,0.056929
0.039282,-0.10078,-0.22871,0.1085,-0.0055429,0.0094885,0.076988,-0.081139,0.041879,-0.11654,-0.044101,0.041098,-0.031826,-0.015739,0.08823,-0.014513,0.078391,0.10429,0.35757,0.1609,0.034604,-0.098822,-0.13519,0.065445
0.026481,-0.071587,-0.2235,0.10694,-0.0018855,-0.040797,0.061884,-0.078135,0.039127,-0.12164,-0.0577,0.059635,-0.031223,-0.01032,0.098437,-0.020795,0.077033,0.10996,0.32387,0.16217,0.034921,-0.11147,-0.11961,0.075512
0.014494,-0.044236,-0.20793,0.10341,0.00040909,-0.087185,0.046944,-0.074501,0.038288,-0.1181,-0.06983,0.073582,-0.027556,-0.0074092,0.11427,-0.02232,0.080277,0.11022,0.28962,0.16463,0.038043,-0.1189,-0.10976,0.081966
0.0066339,-0.030604,-0.1929,0.098221,0.0041247,-0.11881,0.036431,-0.075264,0.038194,-0.10642,-0.07977,0.082408,-0.02119,-0.015435,0.13213,-0.017907,0.090901,0.1029,0.26547,0.17936,0.042534,-0.11662,-0.11048,0.080573
0.0026654,-0.03141,-0.18735,0.091357,0.011275,-0.12797,0.031466,-0.082229,0.037077,-0.093209,-0.086255,0.087505,-0.014151,-0.033037,0.14579,-0.010342,0.10552,0.093136,0.25905,0.20713,0.046548,-0.10682,-0.1196,0.069664
-0.0003333,-0.036258,-0.19193,0.083662,0.021515,-0.11305,0.029611,-0.09296,0.034555,-0.086537,-0.088929,0.091457,-0.008481,-0.04999,0.15079,-0.0042956,0.11703,0.088357,0.27187,0.23941,0.049192,-0.096982,-0.13042,0.049916
-0.0054031,-0.031771,-0.19964,0.076866,0.032208,-0.079646,0.027131,-0.10259,0.032083,-0.090032,-0.089417,0.096626,-0.0045122,-0.055663,0.14783,-0.0031818,0.11974,0.091423,0.30075,0.26513,0.051104,-0.095184,-0.13697,0.022766
-0.013629,-0.011339,-0.20206,0.071928,0.04027,-0.038896,0.02195,-0.10733,0.031473,-0.10026,-0.090844,0.10375,-0.00061523,-0.048079,0.14199,-0.0073121,0.1133,0.098031,0.34212,0.27813,0.053497,-0.10487,-0.13878,-0.011049
-0.023991,0.020786,-0.19538,0.067493,0.044412,-0.0032963,0.014706,-0.10702,0.03311,-0.10953,-0.09597,0.11151,0.0052416,-0.035792,0.13824,-0.014435,0.10275,0.1005,0.39433,0.28049,0.056408,-0.12226,-0.14149,-0.05141
-0.034668,0.053321,-0.1815,0.060563,0.045941,0.018471,0.0071194,-0.10469,0.035806,-0.11181,-0.10531,0.1175,0.013452,-0.030898,0.13731,-0.021913,0.094842,0.094289,0.45499,0.28086,0.057875,-0.13841,-0.15224,-0.096952
-0.044208,0.075739,-0.16474,0.049303,0.047413,0.024931,-0.00043035,-0.10364,0.038454,-0.1069,-0.11671,0.11992,0.022135,-0.03938,0.13544,-0.028781,0.093743,0.081305,0.51568,0.28955,0.055094,-0.14493,-0.17311,-0.14261
-0.051558,0.083836,-0.14811,0.035419,0.050317,0.021241,-0.0093288,-0.10468,0.041597,-0.099934,-0.12688,0.11884,0.028577,-0.057263,0.1283,-0.036245,0.09879,0.067223,0.56,0.31375,0.046813,-0.13966,-0.19832,-0.17864
-0.05556,0.07995,-0.13271,0.023484,0.053841,0.014723,-0.020436,-0.10585,0.046911,-0.096769,-0.13385,0.11597,0.031456,-0.075469,0.11516,-0.046451,0.10557,0.055602,0.5688,0.35495,0.034912,-0.12805,-0.21807,-0.19287
-0.055162,0.069565,-0.11959,0.017331,0.055771,0.0094695,-0.031445,-0.10465,0.054831,-0.099388,-0.13859,0.11328,0.031745,-0.088145,0.099733,-0.060547,0.10897,0.044449,0.53017,0.4092,0.023633,-0.11907,-0.22642,-0.17598
-0.050615,0.058058,-0.11088,0.01662,0.054619,0.0040201,-0.037193,-0.10043,0.062767,-0.1047,-0.14436,0.11172,0.031445,-0.096411,0.086927,-0.077499,0.1059,0.028382,0.44662,0.46959,0.016819,-0.11857,-0.2263,-0.12753
-0.044359,0.049517,-0.10812,0.016803,0.050958,-0.0060794,-0.033623,-0.094669,0.06618,-0.10731,-0.15404,0.11091,0.031462,-0.10457,0.079013,-0.094431,0.096353,0.0040735,0.33392,0.52902,0.015208,-0.12516,-0.2271,-0.058941
-0.040162,0.046658,-0.10941,0.012794,0.046812,-0.023075,-0.022238,-0.089066,0.062103,-0.10361,-0.16722,0.11016,0.030856,-0.11355,0.074468,-0.10815,0.082663,-0.026493,0.21215,0.5818,0.015871,-0.13159,-0.23659,0.0094351
-0.040664,0.050315,-0.10914,0.003189,0.043872,-0.043813,-0.010618,-0.083448,0.052093,-0.094088,-0.17955,0.10943,0.028326,-0.11893,0.070156,-0.11671,0.068087,-0.058057,0.095744,0.62352,0.014249,-0.1305,-0.25433,0.056797
-0.045382,0.058702,-0.10163,-0.0087122,0.042376,-0.061591,-0.0076847,-0.075792,0.041745,-0.08248,-0.18533,0.10939,0.024376,-0.11564,0.064278,-0.11994,0.055467,-0.087003,-0.01038,0.65029,0.0073781,-0.11981,-0.27217,0.071868
-0.051148,0.068085,-0.086015,-0.017964,0.041643,-0.071567,-0.017204,-0.064337,0.036869,-0.073158,-0.18166,0.11037,0.021699,-0.10429,0.057327,-0.11899,0.046309,-0.1136,-0.10707,0.65886,-0.0038958,-0.10384,-0.28138,0.058746
-0.054907,0.075425,-0.067529,-0.022364,0.041448,-0.074856,-0.035087,-0.04967,0.039411,-0.068713,-0.17108,0.11122,0.023054,-0.092057,0.050686,-0.11524,0.040311,-0.13878,-0.19389,0.64807,-0.015096,-0.089663,-0.27959,0.034889
-0.056474,0.081118,-0.053469,-0.02429,0.042546,-0.077456,-0.053063,-0.03462,0.04637,-0.068916,-0.16031,0.10949,0.028564,-0.086851,0.04471,-0.10961,0.03556,-0.15883,-0.26523,0.62,-0.020537,-0.081721,-0.27174,0.022063
-0.058746,0.089113,-0.046835,-0.028515,0.045619,-0.08479,-0.065714,-0.022015,0.052345,-0.070992,-0.1556,0.10322,0.035292,-0.090401,0.038124,-0.10236,0.029677,-0.16447,-0.31263,0.57887,-0.016539,-0.078872,-0.26471,0.035315
-0.065028,0.10368,-0.043224,-0.038149,0.049768,-0.096653,-0.074824,-0.012563,0.053377,-0.070769,-0.15835,0.093063,0.039797,-0.097356,0.028832,-0.093337,0.021609,-0.14711,-0.33097,0.52759,-0.0036772,-0.075624,-0.26103,0.076168
-0.075723,0.12514,-0.033871,-0.052315,0.052325,-0.10704,-0.08726,-0.0050054,0.049164,-0.06451,-0.16426,0.082904,0.041362,-0.10136,0.014972,-0.082346,0.012977,-0.1076,-0.32324,0.46476,0.013133,-0.066213,-0.25737,0.13346
-0.087212,0.14814,-0.012419,-0.067278,0.050601,-0.10901,-0.10831,0.0016685,0.042471,-0.051057,-0.16692,0.078121,0.042657,-0.10187,-0.0045675,-0.069548,0.0077173,-0.058978,-0.30025,0.3858,0.026854,-0.048338,-0.2485,0.19051
-0.093929,0.16382,0.02015,-0.079592,0.044189,-0.10024,-0.13636,0.0063619,0.036846,-0.03309,-0.16298,0.082379,0.047013,-0.10448,-0.029971,-0.055749,0.0098055,-0.019318,-0.2759,0.28856,0.03182,-0.024183,-0.23247,0.23362
-0.092043,0.16477,0.056205,-0.088336,0.035702,-0.084739,-0.16347,0.0065774,0.034476,-0.016072,-0.15462,0.095158,0.054782,-0.11422,-0.060234,-0.042361,0.0204,0.00043379,-0.26177,0.17949,0.026712,0.0012862,-0.21207,0.25701
-0.082038,0.14948,0.086755,-0.094876,0.029108,-0.069559,-0.18128,0.0013012,0.035318,-0.0048029,-0.14725,0.11167,0.062246,-0.12845,-0.093035,-0.030891,0.036522,0.0032804,-0.26418,0.07459,0.015249,0.022957,-0.19167,0.26209
-0.068476,0.12394,0.10685,-0.10105,0.026927,-0.05981,-0.18706,-0.0066925,0.037485,0.00025837,-0.14455,0.12514,0.064151,-0.13715,-0.12528,-0.022131,0.05248,0.0016207,-0.28434,-0.0068853,0.0039419,0.037389,-0.173,0.25312
-0.057312,0.099243,0.11732,-0.10776,0.02858,-0.056128,-0.18506,-0.011649,0.038379,0.0038458,-0.14516,0.12996,0.057625,-0.13124,-0.1542,-0.015603,0.063244,0.005253,-0.31961,-0.052004,-0.0019112,0.0434,-0.15417,0.23326
-0.052636,0.086178,0.12254,-0.11484,0.031167,-0.056102,-0.18247,-0.008532,0.036068,0.012653,-0.14387,0.12387,0.044214,-0.11161,-0.17795,-0.0097093,0.06746,0.012771,-0.36423,-0.059658,-0.0014678,0.042087,-0.13268,0.20377
-0.054741,0.089043,0.12706,-0.1217,0.031881,-0.057554,-0.18362,0.003324,0.030318,0.03017,-0.13634,0.10832,0.028687,-0.090182,-0.19526,-0.0025917,0.067932,0.014203,-0.4099,-0.03805,0.0014478,0.036677,-0.10925,0.16604
-0.060408,0.10225,0.13343,-0.12759,0.030047,-0.060465,-0.18726,0.019699,0.022715,0.053711,-0.12289,0.087143,0.016073,-0.081203,-0.20461,0.0069074,0.069215,0.0023605,-0.44774,0.0026555,0.0013745,0.031665,-0.088473,0.12383
-0.065012,0.1128,0.14202,-0.13163,0.027231,-0.066241,-0.18858,0.034609,0.015634,0.076198,-0.108,0.064395,0.0093042,-0.089918,-0.20436,0.018826,0.073996,-0.017923,-0.47158,0.055095,-0.0047498,0.030732,-0.07542,0.083102
-0.065193,0.10855,0.15166,-0.13321,0.025578,-0.075748,-0.18385,0.044543,0.010678,0.091346,-0.096065,0.042452,0.0085964,-0.10848,-0.19439,0.032396,0.080818,-0.031944,-0.48093,0.11247,-0.015626,0.034313,-0.071017,0.049152
-0.060614,0.087516,0.16035,-0.13278,0.025879,-0.088341,-0.1738,0.050435,0.0077146,0.097957,-0.087412,0.021287,0.012055,-0.12261,-0.17762,0.0467,0.08473,-0.027618,-0.48104,0.1627,-0.027125,0.038984,-0.070524,0.023572
-0.0538,0.060899,0.16624,-0.13229,0.026962,-0.1026,-0.16324,0.056016,0.0052453,0.099905,-0.078544,-0.00053865,0.016649,-0.12316,-0.15968,0.061076,0.0805,-0.0075096,-0.47972,0.18722,-0.035844,0.040155,-0.066606,0.0036839
-0.048152,0.046052,0.16901,-0.1341,0.026766,-0.11747,-0.15738,0.064199,0.0017284,0.10216,-0.066091,-0.023634,0.019403,-0.11285,-0.14625,0.075049,0.066228,0.010665,-0.48347,0.16892,-0.041573,0.036648,-0.054663,-0.014786
-0.045443,0.053338,0.1707,-0.139,0.024105,-0.13228,-0.15785,0.074636,-0.0032779,0.10659,-0.050568,-0.045928,0.018879,-0.10265,-0.14001,0.088062,0.044974,0.0064866,-0.49579,0.10459,-0.046719,0.033335,-0.03615,-0.033941
-0.044607,0.077045,0.17473,-0.14495,0.019608,-0.14552,-0.16133,0.084339,-0.0089979,0.11118,-0.036093,-0.062921,0.016291,-0.10189,-0.13976,0.099454,0.023246,-0.027552,-0.51836,0.011088,-0.053573,0.038699,-0.017266,-0.051974
-0.042744,0.098503,0.18308,-0.14821,0.015054,-0.15396,-0.16199,0.090556,-0.014201,0.11283,-0.026358,-0.070376,0.014984,-0.1106,-0.14236,0.10889,0.0072883,-0.079959,-0.55279,-0.082036,-0.062128,0.058208,-0.0040863,-0.064893
-0.037568,0.099913,0.19394,-0.14613,0.011789,-0.15348,-0.15596,0.093222,-0.018047,0.11083,-0.02092,-0.067607,0.017975,-0.12037,-0.14556,0.11686,-0.00045043,-0.12858,-0.60046,-0.14937,-0.070354,0.088452,0.0020742,-0.070119
-0.029297,0.078008,0.20222,-0.13936,0.0097252,-0.1413,-0.14446,0.094894,-0.020433,0.10775,-0.015604,-0.058621,0.025264,-0.12197,-0.14929,0.12468,-0.0024057,-0.1566,-0.66054,-0.18363,-0.076266,0.11717,0.0055425,-0.06879
-0.020403,0.046159,0.20338,-0.1315,0.007894,-0.11787,-0.13328,0.098363,-0.021937,0.10727,-0.0066951,-0.049842,0.03348,-0.11276,-0.15456,0.13366,-0.0039726,-0.16371,-0.72871,-0.19623,-0.079537,0.13007,0.012811,-0.064756
-0.013486,0.023151,0.1974,-0.12632,0.0059597,-0.086845,-0.12872,0.10414,-0.023719,0.11137,0.0052118,-0.046022,0.03867,-0.097814,-0.16167,0.14392,-0.01007,-0.16463,-0.79927,-0.20505,-0.081213,0.12001,0.027372,-0.061189
-0.0091763,0.01829,0.18926,-0.12498,0.0050275,-0.053804,-0.13313,0.10999,-0.027386,0.1194,0.015502,-0.047613,0.039967,-0.085016,-0.16973,0.1538,-0.022641,-0.17736,-0.86949,-0.22014,-0.082232,0.091884,0.046809,-0.057842
-0.005924,0.025482,0.18494,-0.12544,0.0066648,-0.024904,-0.14338,0.11281,-0.034466,0.12936,0.0197,-0.051653,0.040566,-0.079113,-0.17796,0.1607,-0.040623,-0.21126,-0.94246,-0.23887,-0.082594,0.059797,0.064483,-0.051354
-0.0018051,0.030754,0.18613,-0.12425,0.010885,-0.0065067,-0.15336,0.11128,-0.045342,0.13942,0.017498,-0.0551,0.044671,-0.079604,-0.18706,0.16302,-0.061908,-0.26329,-1.025,-0.2528,-0.081959,0.038438,0.074656,-0.038328
0.0033657,0.025766,0.18853,-0.11917,0.015128,-0.0046659,-0.15852,0.10708,-0.058278,0.14802,0.012904,-0.057403,0.053009,-0.083003,-0.19888,0.16204,-0.085364,-0.32345,-1.1211,-0.2585,-0.080773,0.034694,0.077166,-0.018479
0.0075999,0.01507,0.18538,-0.11051,0.015599,-0.022994,-0.15866,0.1038,-0.069616,0.15287,0.010631,-0.06004,0.061279,-0.086161,-0.21445,0.16176,-0.11126,-0.38282,-1.2261,-0.26216,-0.080457,0.044801,0.077789,0.0047887
0.0084274,0.011094,0.17346,-0.10079,0.01014,-0.059184,-0.15711,0.10431,-0.075608,0.15104,0.012297,-0.063917,0.063468,-0.087467,-0.23218,0.16656,-0.14002,-0.43747,-1.326,-0.27459,-0.082396,0.058244,0.083696,0.02667
0.0052437,0.022111,0.15623,-0.09301,0.00023279,-0.10305,-0.15703,0.10862,-0.074949,0.14082,0.015925,-0.06764,0.057355,-0.085863,-0.24818,0.17784,-0.17068,-0.48641,-1.4027,-0.30181,-0.086847,0.065104,0.097449,0.04389
0.00023611,0.044396,0.14114,-0.089057,-0.0097321,-0.13924,-0.15821,0.11364,-0.070078,0.12411,0.018791,-0.068739,0.047128,-0.080101,-0.25853,0.19241,-0.20038,-0.52793,-1.4419,-0.33971,-0.092885,0.061835,0.1145,0.055661
-0.0029752,0.065377,0.13337,-0.088753,-0.015516,-0.15452,-0.15691,0.11497,-0.065891,0.10662,0.020604,-0.066706,0.040463,-0.069843,-0.26189,0.20413,-0.22508,-0.55906,-1.4376,-0.37684,-0.099288,0.052179,0.12658,0.062098
-0.0019319,0.074329,0.13142,-0.089918,-0.01604,-0.14535,-0.14877,0.1096,-0.066418,0.094743,0.02394,-0.064571,0.042378,-0.057422,-0.26043,0.20805,-0.24096,-0.57893,-1.3924,-0.40242,-0.10526,0.043478,0.1284,0.062034
0.0028763,0.070612,0.12853,-0.089391,-0.013999,-0.11998,-0.13226,0.097681,-0.07189,0.091261,0.031683,-0.066931,0.051162,-0.047537,-0.25847,0.20399,-0.24546,-0.5918,-1.3146,-0.41304,-0.11035,0.041428,0.12216,0.052768
0.0083912,0.062271,0.11864,-0.084672,-0.013632,-0.092969,-0.1098,0.082476,-0.078596,0.093481,0.043949,-0.075864,0.059792,-0.043994,-0.26015,0.19649,-0.23796,-0.6057,-1.2157,-0.4137,-0.11407,0.046753,0.11598,0.032321
0.011191,0.05705,0.10164,-0.075386,-0.01738,-0.075666,-0.085835,0.06844,-0.081831,0.095489,0.057279,-0.088489,0.061358,-0.045873,-0.26754,0.19108,-0.22005,-0.62644,-1.1089,-0.4137,-0.11615,0.055503,0.1174,0.0021724
0.0098459,0.054764,0.083245,-0.063569,-0.023956,-0.06964,-0.063683,0.058656,-0.07962,0.092779,0.066807,-0.098717,0.053731,-0.046918,-0.28014,0.18991,-0.19562,-0.6518,-1.007,-0.42121,-0.11742,0.062214,0.12744,-0.032304
0.005739,0.048259,0.069775,-0.052371,-0.029224,-0.067517,-0.043924,0.053198,-0.074149,0.085358,0.069642,-0.10193,0.039961,-0.039583,-0.29547,0.19021,-0.17015,-0.67075,-0.91875,-0.4403,-0.12025,0.063545,0.14015,-0.064524
0.0018924,0.031779,0.062685,-0.043993,-0.029267,-0.059963,-0.02554,0.049418,-0.06967,0.076869,0.066903,-0.098571,0.02504,-0.021014,-0.31009,0.1871,-0.14905,-0.66854,-0.84528,-0.47123,-0.12724,0.060134,0.14767,-0.090459
0.00075762,0.0084032,0.057883,-0.038426,-0.023354,-0.042999,-0.008389,0.043955,-0.068731,0.070805,0.062913,-0.09349,0.012569,0.0039164,-0.32052,0.17811,-0.13537,-0.63354,-0.77733,-0.51258,-0.13901,0.05584,0.14657,-0.11035
0.0025961,-0.010965,0.050256,-0.03399,-0.014609,-0.020256,0.005607,0.035148,-0.070016,0.06734,0.062175,-0.091776,0.0039391,0.02538,-0.32406,0.16533,-0.12795,-0.56081,-0.69859,-0.56316,-0.15278,0.055215,0.14004,-0.12705
0.0055343,-0.016568,0.038992,-0.029102,-0.0078334,0.0006901,0.01387,0.024234,-0.069702,0.063485,0.066256,-0.094742,-0.00055041,0.035383,-0.31968,0.15347,-0.12156,-0.45105,-0.59373,-0.62225,-0.16356,0.060974,0.13458,-0.14267
0.0071197,-0.008618,0.02865,-0.023681,-0.0061253,0.014249,0.015827,0.014464,-0.065101,0.056107,0.072756,-0.099443,-0.00099062,0.033363,-0.30847,0.1455,-0.10936,-0.30782,-0.45774,-0.68802,-0.16724,0.07286,0.13431,-0.1566
0.0061529,0.0022273,0.025044,-0.018943,-0.0089014,0.02032,0.014113,0.0087513,-0.057346,0.04487,0.077114,-0.10172,0.0014053,0.026215,-0.2933,0.14003,-0.086957,-0.13736,-0.30082,-0.75525,-0.16303,0.088218,0.13783,-0.16652
0.0034718,0.0034561,0.029943,-0.015951,-0.012852,0.023411,0.012906,0.0074866,-0.050743,0.032534,0.075988,-0.099699,0.0036202,0.022743,-0.27751,0.13284,-0.055459,0.048613,-0.1448,-0.81374,-0.15336,0.10361,0.13988,-0.17123
0.0012347,-0.0091703,0.039539,-0.014358,-0.014982,0.028977,0.014798,0.0081142,-0.049331,0.022623,0.06977,-0.094696,0.0021404,0.02697,-0.2632,0.12102,-0.021282,0.23046,-0.011783,-0.8492,-0.14144,0.11635,0.13605,-0.17238
0.0013769,-0.028814,0.04791,-0.012546,-0.015194,0.040207,0.019103,0.0067859,-0.053567,0.016713,0.062358,-0.08914,-0.00414,0.035566,-0.25043,0.10579,0.0078334,0.38336,0.088824,-0.84707,-0.12888,0.12532,0.12644,-0.17341
0.0044272,-0.044275,0.051928,-0.0089216,-0.01625,0.057213,0.02322,0.00091845,-0.059826,0.013584,0.058342,-0.083944,-0.012252,0.041236,-0.23777,0.091551,0.027993,0.48573,0.16683,-0.79813,-0.11528,0.13062,0.11545,-0.17683
0.0094236,-0.049896,0.052899,-0.0030881,-0.021154,0.078234,0.025681,-0.0091502,-0.063017,0.010552,0.059693,-0.07784,-0.017039,0.039113,-0.22405,0.081933,0.041516,0.52874,0.24635,-0.70299,-0.099607,0.13269,0.1083,-0.18223
0.014746,-0.04974,0.0537,0.0041185,-0.03016,0.10103,0.027899,-0.020506,-0.060106,0.0055827,0.064378,-0.069018,-0.015533,0.03095,-0.20952,0.076635,0.05426,0.52025,0.35177,-0.57282,-0.08175,0.13134,0.10733,-0.18701
0.019065,-0.052616,0.054657,0.011546,-0.039859,0.12319,0.032887,-0.029632,-0.051914,-0.0013629,0.067837,-0.057197,-0.00997,0.02398,-0.1955,0.071737,0.069753,0.47994,0.49313,-0.42551,-0.062604,0.12571,0.11073,-0.18879
0.021739,-0.062893,0.052569,0.018494,-0.045184,0.14175,0.042195,-0.034537,-0.042138,-0.0083145,0.066164,-0.044132,-0.0064054,0.025758,-0.18247,0.063068,0.085092,0.42883,0.65995,-0.27953,-0.04314,0.11539,0.11442,-0.1873
0.022599,-0.075657,0.044004,0.024507,-0.04285,0.15341,0.054026,-0.035592,-0.034667,-0.012258,0.058719,-0.032402,-0.009891,0.039287,-0.16832,0.049536,0.092483,0.38015,0.82673,-0.14893,-0.023725,0.10188,0.11503,-0.18387
0.021593,-0.080545,0.029689,0.028548,-0.033755,0.15604,0.064361,-0.034734,-0.031223,-0.010616,0.048489,-0.023954,-0.020363,0.061822,-0.14848,0.033685,0.085659,0.33733,0.96573,-0.041867,-0.0045311,0.089228,0.11179,-0.17931
0.018768,-0.070767,0.015605,0.02873,-0.022628,0.15061,0.070125,-0.033875,-0.030767,-0.0028177,0.040083,-0.019803,-0.032766,0.087274,-0.11848,0.019434,0.066033,0.29862,1.0589,0.037984,0.013548,0.082587,0.10619,-0.17246
0.014682,-0.049405,0.0094634,0.023421,-0.015198,0.14137,0.071634,-0.033835,-0.030752,0.00877,0.036705,-0.020642,-0.041072,0.10944,-0.077525,0.0093017,0.043311,0.26335,1.1028,0.089903,0.028621,0.085385,0.10024,-0.16112
0.010828,-0.02772,0.015437,0.013192,-0.014755,0.13339,0.072241,-0.03446,-0.029156,0.019452,0.038002,-0.027033,-0.042562,0.12371,-0.030742,0.0034046,0.029739,0.23409,1.1061,0.11641,0.038527,0.097026,0.094886,-0.1446
0.0094843,-0.017065,0.031392,0.0018941,-0.020366,0.12893,0.075554,-0.035585,-0.025916,0.024551,0.040103,-0.038432,-0.038937,0.12728,0.011951,0.00049862,0.032308,0.21385,1.0828,0.12441,0.041802,0.11318,0.089774,-0.12544
0.012669,-0.020999,0.050471,-0.0046111,-0.02782,0.12554,0.082515,-0.03786,-0.022775,0.022184,0.037948,-0.051967,-0.034002,0.11965,0.040233,-0.00047979,0.048759,0.20198,1.0462,0.12445,0.037927,0.12883,0.0841,-0.10831
0.020618,-0.033435,0.065276,-0.0018439,-0.032568,0.11811,0.090597,-0.042666,-0.021633,0.014379,0.028539,-0.062708,-0.030574,0.1038,0.0489,5.3838e-005,0.069994,0.19359,1.0039,0.12654,0.026779,0.14203,0.077721,-0.096862
0.030887,-0.043601,0.071372,0.0099689,-0.032599,0.10364,0.095605,-0.051201,-0.022653,0.0054795,0.012994,-0.066012,-0.029252,0.086316,0.041264,0.0016563,0.086465,0.18339,0.9579,0.13497,0.0081433,0.15517,0.071508,-0.091287
0.039169,-0.043623,0.068303,0.025335,-0.029269,0.084843,0.094655,-0.063423,-0.023756,-0.00091881,-0.004113,-0.060466,-0.029356,0.074852,0.028064,0.0032286,0.093598,0.17025,0.90565,0.14684,-0.017914,0.17241,0.066727,-0.088862
0.041839,-0.033353,0.058599,0.036707,-0.025694,0.069044,0.088149,-0.077672,-0.022215,-0.0039254,-0.017794,-0.048966,-0.030272,0.073328,0.022051,0.0034066,0.092823,0.15787,0.84413,0.15672,-0.050005,0.19485,0.063966,-0.086978
0.038649,-0.019686,0.046176,0.039587,-0.024116,0.062895,0.079446,-0.091292,-0.017218,-0.0047007,-0.025888,-0.036844,-0.031643,0.078755,0.031243,0.0016367,0.088577,0.15073,0.77285,0.16444,-0.084709,0.21704,0.062475,-0.085687
0.033363,-0.011506,0.034826,0.035824,-0.024394,0.066909,0.072629,-0.1019,-0.011105,-0.004205,-0.029996,-0.028406,-0.032658,0.082995,0.055036,-0.0013,0.084361,0.14901,0.69444,0.17892,-0.11703,0.22815,0.060572,-0.087134
0.031283,-0.013886,0.026783,0.032399,-0.024699,0.07448,0.070068,-0.10857,-0.0078462,-0.0018381,-0.033408,-0.02459,-0.031889,0.078947,0.085663,-0.0040444,0.080777,0.1475,0.61269,0.2134,-0.14185,0.21783,0.056957,-0.092245
0.035159,-0.025087,0.021696,0.036311,-0.023581,0.076539,0.071457,-0.11208,-0.0097795,0.0036394,-0.037853,-0.023404,-0.028373,0.066357,0.11383,-0.0060582,0.076234,0.13974,0.53043,0.27472,-0.15556,0.1832,0.051975,-0.097844
0.042712,-0.0379,0.016909,0.049327,-0.021428,0.068431,0.074817,-0.11408,-0.015417,0.012008,-0.041924,-0.022354,-0.022872,0.052166,0.13436,-0.0082327,0.068969,0.12376,0.44997,0.35551,-0.15677,0.1324,0.047647,-0.097301
0.048123,-0.044272,0.0095034,0.06667,-0.020042,0.053923,0.07845,-0.11567,-0.020427,0.020708,-0.042539,-0.020574,-0.017648,0.044759,0.14792,-0.011962,0.058529,0.10387,0.37556,0.43645,-0.14614,0.081874,0.046143,-0.08467
0.046696,-0.040331,-0.0010582,0.080729,-0.020827,0.043514,0.082252,-0.11657,-0.021074,0.026294,-0.038005,-0.018957,-0.014515,0.046864,0.15805,-0.017473,0.045952,0.086866,0.3147,0.49764,-0.12563,0.048884,0.04777,-0.059013
0.038991,-0.028753,-0.011961,0.086907,-0.023377,0.048391,0.087459,-0.11567,-0.017085,0.026895,-0.029813,-0.018633,-0.012972,0.053262,0.16692,-0.023067,0.033066,0.075912,0.27556,0.52978,-0.09786,0.043722,0.050285,-0.025189
0.030835,-0.016994,-0.019007,0.087011,-0.025745,0.074045,0.095173,-0.11244,-0.011451,0.023305,-0.021507,-0.019495,-0.010489,0.055282,0.17364,-0.026155,0.021844,0.06802,0.26155,0.53582,-0.065628,0.065949,0.05048,0.009599
0.028878,-0.012517,-0.020241,0.087562,-0.026038,0.11713,0.10495,-0.10787,-0.0075065,0.017715,-0.015785,-0.02014,-0.005061,0.048174,0.17633,-0.025299,0.014265,0.057443,0.26803,0.52225,-0.031756,0.10612,0.047007,0.040485
0.035225,-0.018011,-0.018168,0.094429,-0.023754,0.16669,0.11454,-0.1039,-0.0061528,0.011483,-0.012616,-0.019064,0.0022924,0.034981,0.17536,-0.021425,0.012377,0.04193,0.28452,0.48835,0.0010829,0.15092,0.042033,0.066833
0.04561,-0.029678,-0.018332,0.10801,-0.019678,0.20852,0.12105,-0.1016,-0.0057272,0.0042354,-0.010112,-0.01583,0.0077281,0.023743,0.17397,-0.017097,0.017909,0.025934,0.30092,0.42369,0.030519,0.18824,0.039929,0.090018
0.05268,-0.039608,-0.025075,0.12268,-0.014709,0.23056,0.12255,-0.10014,-0.0043648,-0.0047958,-0.0071544,-0.011213,0.0077432,0.020694,0.1755,-0.014508,0.031203,0.017586,0.31214,0.31642,0.054691,0.20985,0.043695,0.1097
0.051703,-0.040653,-0.037796,0.13077,-0.0090033,0.22714,0.11915,-0.097632,-0.0023351,-0.014544,-0.0050887,-0.0063847,0.002663,0.025331,0.17995,-0.013995,0.050151,0.021831,0.31695,0.16538,0.072609,0.21181,0.051996,0.12258
0.044,-0.030666,-0.050873,0.12812,-0.0023983,0.20052,0.11277,-0.093374,-0.0020505,-0.021288,-0.0066597,-0.0020337,-0.0028051,0.031228,0.18366,-0.014326,0.0703,0.035622,0.31316,-0.014079,0.084661,0.19386,0.059541,0.12515
0.035452,-0.013506,-0.057492,0.11704,0.004502,0.15921,0.10595,-0.088957,-0.0057916,-0.020463,-0.013068,0.001861,-0.0028043,0.031435,0.18262,-0.014337,0.086725,0.049354,0.29497,-0.19515,0.092908,0.15884,0.060865,0.11775
0.031601,0.0036154,-0.054516,0.10468,0.009993,0.11377,0.10045,-0.086799,-0.013312,-0.01014,-0.021923,0.0056982,0.0051144,0.023786,0.17642,-0.014303,0.096714,0.053554,0.25624,-0.35099,0.10068,0.11165,0.054641,0.10566
0.033506,0.014562,-0.044649,0.097979,0.012402,0.072298,0.096446,-0.087156,-0.021484,0.0062968,-0.028205,0.0099284,0.017812,0.012133,0.16882,-0.015798,0.10119,0.045558,0.19716,-0.46433,0.11122,0.057549,0.044918,0.095595
0.037556,0.017647,-0.034328,0.09895,0.011751,0.03798,0.092777,-0.086662,-0.026298,0.020677,-0.027749,0.01506,0.028554,0.0031944,0.16431,-0.020234,0.10344,0.031064,0.12727,-0.52991,0.12598,5.513e-005,0.038126,0.090606
0.038918,0.016009,-0.029058,0.10342,0.010204,0.0097212,0.088108,-0.080355,-0.025663,0.024342,-0.020416,0.021718,0.031627,0.0019163,0.16403,-0.027424,0.1059,0.019606,0.060627,-0.55107,0.14353,-0.059881,0.038093,0.088268
0.03539,0.0151,-0.029786,0.10416,0.010575,-0.015017,0.082254,-0.065826,-0.020984,0.014059,-0.010297,0.030328,0.026062,0.0086387,0.16484,-0.035389,0.1078,0.017602,0.0061614,-0.53527,0.16015,-0.12212,0.043062,0.084099
0.028568,0.019182,-0.032881,0.096023,0.014012,-0.03737,0.076863,-0.045719,-0.016427,-0.004523,-0.0026759,0.040513,0.01585,0.019367,0.16252,-0.041495,0.10585,0.024234,-0.038742,-0.49173,0.17179,-0.18392,0.047053,0.076939
0.021871,0.029047,-0.033356,0.079553,0.018987,-0.055924,0.074787,-0.026036,-0.016293,-0.019282,-0.00024122,0.050981,0.0068549,0.028274,0.15583,-0.043968,0.097646,0.032905,-0.085866,-0.43077,0.17612,-0.23767,0.044467,0.070815
0.017637,0.041916,-0.028536,0.060528,0.022622,-0.067576,0.078304,-0.011512,-0.022042,-0.019507,-0.001623,0.060534,0.0030312,0.030689,0.14754,-0.042705,0.084512,0.036651,-0.14671,-0.36279,0.17342,-0.27278,0.034293,0.071043
0.015866,0.052936,-0.01933,0.045938,0.023294,-0.069517,0.087314,-0.0021627,-0.03088,-0.0041635,-0.0033458,0.069745,0.0047174,0.025231,0.14166,-0.038981,0.071006,0.033077,-0.22364,-0.29602,0.16578,-0.28128,0.020791,0.078079
0.015257,0.05701,-0.0086075,0.039484,0.022207,-0.061063,0.09903,0.0059202,-0.037128,0.016084,-0.0033128,0.081757,0.0098934,0.014397,0.13956,-0.034482,0.061231,0.025168,-0.30819,-0.23468,0.15577,-0.26361,0.010408,0.085278
0.01499,0.050324,0.001325,0.039879,0.022455,-0.044422,0.10974,0.016398,-0.035893,0.025795,-0.0026424,0.10076,0.016834,0.0033744,0.13881,-0.030393,0.055278,0.01788,-0.38706,-0.17919,0.14543,-0.2297,0.0075246,0.083311
0.01531,0.031762,0.0096521,0.042864,0.026309,-0.024037,0.11753,0.029086,-0.026726,0.016101,-0.0042272,0.12849,0.025617,-0.0025792,0.13546,-0.027039,0.049139,0.013741,-0.45001,-0.12814,0.13634,-0.19369,0.012095,0.067703
0.016564,0.0042228,0.015835,0.044893,0.033066,-0.00482,0.1237,0.040212,-0.014448,-0.0083245,-0.0094411,0.16123,0.037124,-0.0010195,0.12749,-0.024079,0.038252,0.011188,-0.49385,-0.080092,0.12963,-0.16568,0.020387,0.042774
0.018092,-0.025126,0.018164,0.045276,0.039379,0.0097455,0.13147,0.046067,-0.0060625,-0.032603,-0.016185,0.19005,0.050579,0.0062957,0.11631,-0.020995,0.021448,0.0067482,-0.52089,-0.033691,0.1256,-0.14663,0.027583,0.018458
0.01845,-0.046994,0.014382,0.045273,0.041886,0.018435,0.14267,0.046469,-0.0057552,-0.042885,-0.02026,0.2054,0.062177,0.014648,0.10537,-0.017538,0.0017378,-0.0011757,-0.53468,0.012965,0.12278,-0.12997,0.030186,0.0029651
0.016837,-0.054425,0.004372,0.045496,0.039979,0.02153,0.15533,0.044801,-0.011744,-0.03644,-0.018915,0.20312,0.066632,0.01961,0.097564,-0.013901,-0.016571,-0.010418,-0.5374,0.061694,0.11793,-0.10852,0.02712,-0.0021022
0.014078,-0.046991,-0.007828,0.044429,0.036402,0.019301,0.16443,0.044801,-0.017554,-0.02265,-0.013342,0.18782,0.060891,0.020039,0.093747,-0.010567,-0.031548,-0.016719,-0.53021,0.1116,0.10768,-0.080765,0.019742,-0.000283
0.01188,-0.031264,-0.015602,0.039528,0.035125,0.011327,0.16544,0.0473,-0.016787,-0.01472,-0.0077958,0.17032,0.047059,0.018557,0.09307,-0.0079086,-0.044698,-0.017311,-0.51515,0.15682,0.091389,-0.051976,0.011317,0.0052287
0.010926,-0.016357,-0.0146,0.029682,0.038248,-0.0024159,0.15784,0.050031,-0.0076964,-0.019483,-0.0061856,0.16063,0.031851,0.019153,0.094224,-0.0058262,-0.058681,-0.013034,-0.49608,0.18813,0.073041,-0.029725,0.0058619,0.015083
0.0097803,-0.0073842,-0.0068053,0.016449,0.044395,-0.019604,0.14546,0.050466,0.0058497,-0.033424,-0.0092212,0.16114,0.022537,0.023812,0.096201,-0.0036958,-0.074152,-0.0070292,-0.47804,0.19915,0.060111,-0.018066,0.0061672,0.031699
0.0058806,-0.0019494,0.00047552,0.0027768,0.049857,-0.034874,0.13329,0.048731,0.017402,-0.047046,-0.014477,0.16529,0.022275,0.03081,0.098315,-0.00076223,-0.088828,-0.0013763,-0.46563,0.19339,0.059475,-0.014834,0.011718,0.053976
-0.0021133,0.0072797,0.00079477,-0.0093965,0.051396,-0.041793,0.12365,0.047609,0.022337,-0.052829,-0.018874,0.16268,0.02831,0.035906,0.10006,0.0031833,-0.099546,0.0048517,-0.46184,0.18618,0.072704,-0.013482,0.018298,0.074623
-0.012744,0.025797,-0.0051516,-0.020097,0.048441,-0.036595,0.115,0.049614,0.020383,-0.050104,-0.021008,0.14692,0.034314,0.035344,0.10122,0.0072643,-0.10524,0.013935,-0.46746,0.19851,0.094164,-0.0072619,0.020417,0.083518
-0.02235,0.051794,-0.0091475,-0.029788,0.043072,-0.020994,0.10429,0.05409,0.014906,-0.043935,-0.021421,0.12002,0.034925,0.028316,0.10192,0.0095703,-0.10801,0.025658,-0.48088,0.24565,0.11371,0.0074856,0.015396,0.074555
-0.027299,0.07654,-0.0021704,-0.037126,0.038151,-0.0017344,0.090409,0.057363,0.010063,-0.040263,-0.021287,0.090263,0.029021,0.017249,0.10201,0.0079569,-0.11147,0.035162,-0.49813,0.32763,0.12261,0.030472,0.0059498,0.049952
-0.026084,0.090312,0.017216,-0.038803,0.035326,0.013096,0.075433,0.055992,0.008109,-0.04173,-0.021401,0.065499,0.019503,0.0061128,0.099923,0.0012523,-0.11788,0.03517,-0.514,0.42746,0.11893,0.05837,-0.0012603,0.018298
-0.019965,0.089144,0.040351,-0.0323,0.034374,0.01852,0.062673,0.050046,0.0084996,-0.046798,-0.022398,0.047576,0.010225,-0.0016964,0.092387,-0.0098665,-0.12672,0.02132,-0.52429,0.51787,0.10867,0.086039,-0.00043711,-0.011537
-0.012144,0.077166,0.054661,-0.019116,0.03399,0.014886,0.053559,0.04317,0.0089399,-0.051662,-0.025261,0.032373,0.0027881,-0.0045187,0.075857,-0.023,-0.13554,-0.0037851,-0.52841,0.57237,0.10158,0.10751,0.0088137,-0.035033
-0.0062182,0.063106,0.053666,-0.0050007,0.032977,0.0065417,0.0464,0.039246,0.0073316,-0.052781,-0.030703,0.014879,-0.0042784,-0.002387,0.049561,-0.035208,-0.1422,-0.031427,-0.53018,0.57542,0.10455,0.11724,0.020848,-0.051657
-0.0045527,0.054105,0.042286,0.0037606,0.030868,-0.0018211,0.038063,0.038788,0.0032372,-0.048388,-0.037605,-0.0054878,-0.01356,0.0035037,0.017946,-0.044517,-0.14627,-0.052107,-0.53543,0.528,0.11676,0.11215,0.027787,-0.061308
-0.0070392,0.051728,0.032798,0.0050079,0.0278,-0.0084853,0.026864,0.038556,-0.0019842,-0.038783,-0.0424,-0.024053,-0.025887,0.011164,-0.0099202,-0.050697,-0.14851,-0.061228,-0.54725,0.44726,0.13018,0.093768,0.024805,-0.062384
-0.010863,0.052711,0.034815,0.0019841,0.024163,-0.015481,0.013962,0.034851,-0.0062385,-0.025985,-0.040856,-0.035141,-0.039032,0.01809,-0.024584,-0.054756,-0.14915,-0.060826,-0.56168,0.36043,0.13495,0.069129,0.013004,-0.053909
-0.011945,0.053029,0.047736,-0.0002139,0.020448,-0.026546,0.0021627,0.027397,-0.0080101,-0.013173,-0.031339,-0.037519,-0.049075,0.021943,-0.021629,-0.057631,-0.14672,-0.056447,-0.567,0.29412,0.12621,0.048956,-0.0019271,-0.039151
-0.0077559,0.051512,0.061812,0.00017237,0.017269,-0.043917,-0.0065479,0.020151,-0.0069233,-0.0038747,-0.016733,-0.036318,-0.053333,0.021712,-0.00426,-0.059234,-0.1386,-0.052162,-0.54772,0.26273,0.10758,0.043659,-0.013833,-0.025898
0.00029183,0.050258,0.066483,-0.00028184,0.015244,-0.066274,-0.012482,0.018196,-0.0033141,-0.00080997,-0.0029549,-0.039968,-0.052473,0.018563,0.019333,-0.058697,-0.12307,-0.047878,-0.49113,0.2617,0.088828,0.059035,-0.019794,-0.021773
0.0070634,0.052102,0.058733,-0.0067235,0.01465,-0.089196,-0.017578,0.023455,0.0024713,-0.0046767,0.0050592,-0.054912,-0.050028,0.015355,0.0421,-0.055632,-0.10113,-0.040822,-0.39313,0.27012,0.079362,0.094019,-0.020972,-0.028457
0.0070373,0.057715,0.04476,-0.020438,0.015093,-0.10768,-0.02341,0.032977,0.010125,-0.013585,0.0066652,-0.082293,-0.049636,0.014647,0.062822,-0.05121,-0.076709,-0.029475,-0.26034,0.26228,0.081739,0.14147,-0.020517,-0.040655
-0.0014651,0.064694,0.034314,-0.03659,0.015548,-0.1189,-0.029704,0.041189,0.018674,-0.023705,0.0054301,-0.11854,-0.052101,0.016524,0.085364,-0.048008,-0.055015,-0.016328,-0.10796,0.22146,0.089828,0.19112,-0.020535,-0.051574
-0.014548,0.068997,0.033009,-0.047762,0.014838,-0.12334,-0.034601,0.044075,0.025977,-0.031024,0.0058722,-0.15831,-0.054638,0.018153,0.11318,-0.048549,-0.0399,-0.0068874,0.045581,0.14723,0.09282,0.2328,-0.020493,-0.060288
-0.025137,0.06727,0.038819,-0.050228,0.012315,-0.12399,-0.036329,0.041824,0.029463,-0.033325,0.0098746,-0.19673,-0.052932,0.015929,0.14429,-0.053663,-0.031942,-0.005554,0.18513,0.052513,0.082368,0.25885,-0.018067,-0.073821
-0.027768,0.058416,0.044755,-0.04719,0.0083731,-0.1243,-0.034869,0.038064,0.027949,-0.031138,0.015688,-0.22951,-0.044496,0.0087857,0.17169,-0.061965,-0.028307,-0.011559,0.30429,-0.046075,0.057941,0.26552,-0.01143,-0.10113
-0.022032,0.043883,0.04465,-0.045861,0.0044728,-0.1265,-0.032309,0.036727,0.022969,-0.026959,0.020054,-0.25209,-0.030781,-0.00012736,0.18921,-0.070813,-0.024443,-0.018303,0.40763,-0.13664,0.026817,0.25372,-0.00098652,-0.1435
-0.012181,0.027079,0.037232,-0.050983,0.0025295,-0.13092,-0.031655,0.039228,0.018041,-0.02311,0.021363,-0.26021,-0.016488,-0.0052854,0.19717,-0.077908,-0.016577,-0.016938,0.50775,-0.21383,-0.001021,0.22875,0.010765,-0.18964
-0.00356,0.012284,0.02598,-0.060595,0.00382,-0.13616,-0.035018,0.043907,0.016005,-0.019656,0.021104,-0.25229,-0.0066369,-0.0031242,0.20227,-0.08221,-0.0034787,-0.0018454,0.61776,-0.27511,-0.019278,0.1984,0.020888,-0.22032
0.0010382,0.0030605,0.01588,-0.067687,0.0079615,-0.1398,-0.042447,0.047594,0.016542,-0.014006,0.02258,-0.23173,-0.0035244,0.0045542,0.21132,-0.083578,0.013618,0.025734,0.74236,-0.31719,-0.028551,0.16964,0.027714,-0.21975
0.0024094,0.00036014,0.0099884,-0.066024,0.012754,-0.13959,-0.052124,0.047722,0.016213,-0.0028719,0.028266,-0.20667,-0.0056083,0.011185,0.22469,-0.081794,0.032781,0.058312,0.8732,-0.33651,-0.034455,0.14564,0.031443,-0.18553
0.0030963,0.0014748,0.0079528,-0.054888,0.015306,-0.13502,-0.061679,0.043529,0.011361,0.014423,0.038158,-0.18626,-0.0088527,0.010049,0.23578,-0.07615,0.053266,0.086356,0.9919,-0.33301,-0.042585,0.12539,0.033651,-0.13016
0.0046365,0.0012112,0.0068058,-0.038957,0.013915,-0.12827,-0.06967,0.03609,0.0016262,0.03366,0.050315,-0.17626,-0.0094453,-0.00046005,0.2372,-0.066194,0.075698,0.1031,1.0792,-0.31279,-0.054327,0.10601,0.036457,-0.073463
0.0062084,-0.0047137,0.0031345,-0.024178,0.0093351,-0.12338,-0.076267,0.027785,-0.0089513,0.046757,0.06265,-0.17663,-0.0061349,-0.015024,0.22777,-0.052957,0.10005,0.10706,1.1244,-0.28648,-0.066521,0.085845,0.041779,-0.031498
0.0055357,-0.016345,-0.0045946,-0.013774,0.0043159,-0.12328,-0.082765,0.021636,-0.01444,0.046478,0.073989,-0.18313,-0.00090455,-0.024693,0.21375,-0.039254,0.12314,0.10132,1.1289,-0.26409,-0.074729,0.065402,0.050537,-0.0089135
0.0010875,-0.029276,-0.014754,-0.0075996,0.0015812,-0.12641,-0.090355,0.020458,-0.011402,0.032226,0.08349,-0.19085,0.0022629,-0.023122,0.20323,-0.02836,0.13832,0.090994,1.1038,-0.25026,-0.077143,0.045744,0.061833,0.0013041
-0.0062624,-0.038388,-0.02329,-0.004362,0.001805,-0.12598,-0.099034,0.025683,-0.0017871,0.012521,0.089569,-0.19712,-0.00023045,-0.011313,0.19921,-0.021838,0.13878,0.080627,1.0628,-0.2429,-0.075864,0.026224,0.072812,0.011857
-0.01343,-0.042646,-0.026472,-0.0036644,0.0032427,-0.11358,-0.10743,0.036368,0.0080106,0.001098,0.090221,-0.20149,-0.0094242,0.0026435,0.19773,-0.018353,0.12264,0.072857,1.017,-0.2356,-0.074651,0.0043481,0.079995,0.033211
-0.01706,-0.046452,-0.024007,-0.0057167,0.0033103,-0.08533,-0.11361,0.049265,0.011431,0.0079829,0.085136,-0.20358,-0.023174,0.0089122,0.19245,-0.01474,0.095823,0.068306,0.97161,-0.22157,-0.075188,-0.021831,0.081629,0.068152
-0.01576,-0.055635,-0.019914,-0.00953,0.00074269,-0.046228,-0.11626,0.060348,0.0063547,0.031536,0.077573,-0.20104,-0.037597,0.0027949,0.18086,-0.008701,0.069734,0.066311,0.92536,-0.1969,-0.075126,-0.051159,0.07917,0.11115
-0.0109,-0.071147,-0.019754,-0.012146,-0.0034666,-0.0086385,-0.1155,0.066932,-0.0033286,0.058106,0.073385,-0.18941,-0.049729,-0.01167,0.16618,-0.0009939,0.054588,0.066025,0.87146,-0.16197,-0.069693,-0.079582,0.076261,0.15216
-0.0053208,-0.086177,-0.025967,-0.010226,-0.0069523,0.014751,-0.11286,0.068865,-0.010452,0.070926,0.076957,-0.16437,-0.05947,-0.024083,0.1537,0.0048474,0.052979,0.067344,0.80132,-0.12144,-0.055648,-0.10347,0.075609,0.1824
-0.001006,-0.089901,-0.035257,-0.0026469,-0.0076653,0.018779,-0.11061,0.067954,-0.0097096,0.062375,0.087167,-0.1246,-0.069182,-0.024517,0.14562,0.0051913,0.058686,0.071019,0.71057,-0.083001,-0.034372,-0.12337,0.076277,0.19872
0.002263,-0.075268,-0.040831,0.0084474,-0.0048255,0.0086,-0.11104,0.066289,-0.0014409,0.040069,0.09733,-0.073474,-0.081092,-0.010062,0.13941,-0.00073003,0.061868,0.077673,0.60457,-0.055208,-0.011504,-0.14478,0.073827,0.20399
0.0060895,-0.044497,-0.03812,0.019224,0.0013937,-0.0048127,-0.11578,0.064998,0.0088051,0.0214,0.10005,-0.018414,-0.094614,0.013475,0.13113,-0.010028,0.056685,0.086429,0.49871,-0.044444,0.006623,-0.17495,0.063337,0.20332
0.011272,-0.0077981,-0.029122,0.026909,0.010608,-0.012943,-0.12524,0.064359,0.014617,0.020387,0.093379,0.032045,-0.106,0.035596,0.11994,-0.018208,0.04536,0.094448,0.41204,-0.05227,0.016928,-0.21825,0.042955,0.19872
0.01639,0.023322,-0.021323,0.031271,0.022271,-0.015274,-0.13812,0.064756,0.01359,0.037296,0.082914,0.071754,-0.11085,0.047647,0.1095,-0.02238,0.035567,0.098014,0.35781,-0.074571,0.020857,-0.27381,0.015365,0.18602
0.018641,0.042516,-0.021866,0.033781,0.034954,-0.017806,-0.15121,0.067183,0.0088879,0.059307,0.077676,0.099126,-0.10732,0.047241,0.10492,-0.023008,0.033638,0.094404,0.33761,-0.10349,0.022283,-0.33716,-0.013551,0.15683
0.016191,0.050141,-0.032036,0.035639,0.045957,-0.026092,-0.16015,0.072595,0.0063666,0.071182,0.082843,0.11678,-0.097405,0.038199,0.10822,-0.022877,0.03955,0.083057,0.34276,-0.13147,0.024119,-0.40409,-0.037578,0.10423
0.0097708,0.05007,-0.046794,0.036633,0.05223,-0.03879,-0.16109,0.080734,0.0097292,0.066694,0.095355,0.12899,-0.08512,0.027134,0.11646,-0.024272,0.04792,0.065487,0.36079,-0.15532,0.026466,-0.47272,-0.052749,0.028388
0.0019537,0.045791,-0.059431,0.03569,0.052245,-0.047094,-0.15264,0.089704,0.017716,0.051622,0.10601,0.13883,-0.073606,0.019628,0.12413,-0.02681,0.053728,0.04473,0.38118,-0.17775,0.027431,-0.54134,-0.058654,-0.062076
-0.0051277,0.039159,-0.066773,0.032279,0.04721,-0.040316,-0.13676,0.096869,0.025433,0.037056,0.10628,0.14673,-0.064005,0.018168,0.12735,-0.027714,0.057211,0.025266,0.39664,-0.2051,0.025342,-0.60348,-0.058318,-0.15372
-0.011246,0.031504,-0.070331,0.027209,0.040313,-0.01284,-0.11788,0.10048,0.028401,0.029923,0.094332,0.15132,-0.057048,0.022062,0.12632,-0.024225,0.063198,0.012922,0.40088,-0.24219,0.020216,-0.64514,-0.056676,-0.23407
-0.017253,0.02437,-0.0731,0.022205,0.034416,0.032907,-0.10038,0.10076,0.02581,0.028901,0.075819,0.15141,-0.055401,0.028473,0.12396,-0.016085,0.075402,0.01325,0.38696,-0.28662,0.013552,-0.64864,-0.057923,-0.2955
-0.022968,0.01836,-0.075852,0.01881,0.030093,0.088863,-0.086063,0.099696,0.020522,0.027958,0.059384,0.14749,-0.063812,0.033898,0.1226,-0.0059651,0.091025,0.02813,0.34855,-0.32575,0.0071739,-0.60276,-0.06283,-0.33535
-0.026291,0.011692,-0.076749,0.017553,0.025753,0.14594,-0.073193,0.099885,0.016357,0.022906,0.050834,0.14182,-0.086184,0.035822,0.12172,0.0025197,0.10099,0.05297,0.28316,-0.33855,0.0023765,-0.513,-0.067918,-0.35378
-0.024851,0.0011281,-0.074256,0.017858,0.019725,0.19672,-0.058009,0.10325,0.015309,0.014808,0.050259,0.1373,-0.12183,0.033977,0.1187,0.0075525,0.096087,0.077881,0.19427,-0.30252,-0.00023169,-0.40361,-0.06772,-0.35256
-0.018823,-0.014366,-0.06981,0.018528,0.012377,0.23514,-0.037782,0.11045,0.016872,0.0081424,0.053543,0.13607,-0.16433,0.030262,0.11141,0.010251,0.074051,0.093496,0.091283,-0.20371,-0.00062116,-0.30771,-0.059032,-0.33595
-0.012007,-0.030351,-0.067123,0.01838,0.0062649,0.25598,-0.013363,0.12097,0.01943,0.0066201,0.056313,0.13868,-0.20426,0.026897,0.10027,0.013176,0.041505,0.097572,-0.012298,-0.04567,0.0006716,-0.25003,-0.043952,-0.31198
-0.0096909,-0.037893,-0.068587,0.01672,0.0040857,0.25668,0.010804,0.13356,0.02193,0.010699,0.057055,0.1439,-0.23376,0.023877,0.087955,0.017499,0.0092732,0.096694,-0.10129,0.14751,0.002712,-0.23348,-0.028879,-0.29128
-0.014768,-0.029409,-0.07228,0.013524,0.0062001,0.24075,0.029534,0.14662,0.024336,0.018194,0.057316,0.14935,-0.24948,0.017856,0.077569,0.021422,-0.014934,0.10071,-0.16193,0.33739,0.0047636,-0.23885,-0.019864,-0.28273
-0.025325,-0.0053862,-0.072607,0.0092606,0.0099653,0.21875,0.04074,0.15838,0.026912,0.026317,0.059385,0.15252,-0.25209,0.0039552,0.071071,0.021504,-0.030433,0.11381,-0.18585,0.48554,0.0068818,-0.23846,-0.017989,-0.28826
-0.035783,0.02376,-0.06427,0.0044185,0.011569,0.20366,0.047233,0.16723,0.02953,0.032998,0.0636,0.15204,-0.24383,-0.020237,0.068902,0.015948,-0.041348,0.12971,-0.1737,0.5698,0.0096849,-0.21408,-0.018788,-0.30081
-0.040696,0.043314,-0.046337,-0.00092607,0.008904,0.20261,0.05471,0.17212,0.0318,0.037041,0.067533,0.14834,-0.22692,-0.051074,0.07017,0.0069248,-0.051012,0.1355,-0.13556,0.59341,0.013217,-0.16659,-0.016367,-0.30724
-0.038283,0.044079,-0.023219,-0.007079,0.0031019,0.21151,0.06716,0.17299,0.033668,0.03798,0.067665,0.14304,-0.20402,-0.078312,0.072562,-0.00044521,-0.058367,0.12157,-0.086375,0.58072,0.016035,-0.11144,-0.0087658,-0.29484
-0.031137,0.029124,-0.0019609,-0.014064,-0.0025821,0.21788,0.083309,0.1708,0.035561,0.036243,0.062233,0.13742,-0.17925,-0.088342,0.07242,-0.0019546,-0.05949,0.08968,-0.037957,0.56135,0.015829,-0.064667,7.625e-005,-0.25715
-0.023986,0.011785,0.011944,-0.020777,-0.0056194,0.21074,0.097275,0.16704,0.037768,0.03312,0.052929,0.13113,-0.15736,-0.069579,0.066165,0.0022133,-0.052334,0.05252,0.0075801,0.55266,0.011443,-0.030986,0.0034715,-0.19628
-0.020456,0.0057696,0.017289,-0.024838,-0.0063982,0.19017,0.10326,0.1629,0.039749,0.02996,0.043979,0.12237,-0.14082,-0.017299,0.053041,0.0075777,-0.039791,0.025052,0.058149,0.5524,0.0044978,-0.0025499,-0.0024378,-0.12073
-0.021151,0.014777,0.016925,-0.023718,-0.0078445,0.16847,0.10051,0.15867,0.040231,0.027137,0.039189,0.10974,-0.12734,0.06417,0.036912,0.0092004,-0.027868,0.014578,0.12481,0.54598,-0.0012077,0.032322,-0.015345,-0.041136
-0.024003,0.029971,0.015254,-0.016678,-0.012709,0.16139,0.094315,0.15381,0.038121,0.023984,0.039229,0.093858,-0.11092,0.16252,0.024558,0.0060384,-0.020542,0.0172,0.21169,0.522,-0.0024046,0.078728,-0.028327,0.033653
-0.026117,0.037593,0.015394,-0.0060589,-0.020812,0.1764,0.091967,0.14772,0.033403,0.020105,0.041317,0.077249,-0.086375,0.26115,0.020735,0.0019377,-0.016184,0.02273,0.30947,0.48276,0.0010781,0.13159,-0.03482,0.098158
-0.025647,0.030566,0.017759,0.0034298,-0.028707,0.20696,0.097041,0.14057,0.027162,0.016758,0.041602,0.062283,-0.053899,0.34414,0.023962,0.0022617,-0.0091304,0.023271,0.39756,0.44135,0.0062557,0.18072,-0.032973,0.14974
-0.022609,0.014334,0.020556,0.0074096,-0.03222,0.23705,0.1068,0.13329,0.020812,0.016563,0.038328,0.048971,-0.019753,0.4011,0.027344,0.0090314,0.0047876,0.0183,0.45495,0.40825,0.0096235,0.21905,-0.026254,0.18728
-0.018543,0.0020131,0.02148,0.0047286,-0.029798,0.25165,0.11495,0.12684,0.015337,0.021337,0.033242,0.034753,0.0079669,0.43003,0.02455,0.018839,0.023803,0.012873,0.47329,0.38001,0.010169,0.24683,-0.020389,0.21076
-0.015504,0.0031789,0.019367,-0.0017179,-0.023806,0.24485,0.11724,0.12129,0.011218,0.029989,0.030171,0.016606,0.025124,0.43694,0.015913,0.025405,0.041065,0.011627,0.46359,0.34095,0.0099984,0.26876,-0.019403,0.22198
-0.01498,0.016073,0.014888,-0.0070698,-0.018675,0.22049,0.11513,0.11561,0.0088901,0.038731,0.032017,-0.0061592,0.034321,0.43192,0.0087875,0.024636,0.050193,0.014349,0.45097,0.2771,0.011935,0.28754,-0.023654,0.22537
-0.017099,0.029711,0.010148,-0.0079501,-0.0175,0.18665,0.11429,0.10839,0.0089864,0.04375,0.038651,-0.030513,0.042679,0.42329,0.01123,0.017929,0.050587,0.016638,0.45976,0.19037,0.016216,0.30013,-0.030634,0.22706
-0.020425,0.033363,0.0076367,-0.0045247,-0.019986,0.14954,0.1194,0.098859,0.01197,0.043985,0.047251,-0.050367,0.056757,0.41322,0.024435,0.011072,0.047691,0.014254,0.49852,0.10022,0.019358,0.30033,-0.037155,0.23168
-0.022562,0.024649,0.0090664,0.00043194,-0.023264,0.11102,0.12967,0.087437,0.017489,0.041359,0.05454,-0.05839,0.07871,0.39727,0.040907,0.0097909,0.048039,0.0066636,0.55521,0.030435,0.016443,0.28554,-0.040929,0.23921
-0.02153,0.0096591,0.014432,0.004451,-0.024532,0.069925,0.13889,0.075425,0.024144,0.038297,0.0589,-0.047934,0.10616,0.36821,0.050246,0.015591,0.053577,-0.0032979,0.60629,-0.0080422,0.0050991,0.26145,-0.040849,0.24464
-0.017256,-0.0035676,0.021556,0.0075123,-0.023118,0.02451,0.13989,0.064301,0.029924,0.035163,0.060756,-0.015083,0.13493,0.32137,0.04743,0.024926,0.060227,-0.012742,0.63299,-0.024373,-0.012165,0.24,-0.036688,0.24188
-0.012102,-0.011157,0.026547,0.011479,-0.020475,-0.025799,0.12986,0.055062,0.032954,0.03046,0.061286,0.038707,0.1619,0.25775,0.03626,0.031863,0.061615,-0.021392,0.63316,-0.039667,-0.029338,0.23113,-0.029163,0.22902
-0.0096798,-0.01385,0.025489,0.017532,-0.018689,-0.079742,0.11232,0.04793,0.032044,0.023798,0.060946,0.10416,0.18587,0.18338,0.025178,0.031845,0.054289,-0.031098,0.61993,-0.071009,-0.040993,0.23463,-0.020271,0.21053
-0.012446,-0.013155,0.016903,0.024308,-0.019124,-0.13425,0.094499,0.042293,0.026959,0.018495,0.05924,0.16439,0.20682,0.10615,0.019697,0.023908,0.039836,-0.043175,0.60889,-0.12087,-0.04583,0.23873,-0.012904,0.19385
-0.01976,-0.0087465,0.0033844,0.02877,-0.022168,-0.18525,0.082323,0.036885,0.018626,0.020463,0.055894,0.19982,0.2248,0.032917,0.018297,0.010418,0.022541,-0.056692,0.60407,-0.17925,-0.046842,0.22749,-0.0093083,0.18324
-0.028057,-0.00023103,-0.009301,0.029131,-0.027645,-0.22943,0.076834,0.03029,0.0092894,0.033468,0.052215,0.19687,0.23974,-0.031246,0.014952,-0.0046952,0.0052377,-0.069602,0.59382,-0.23438,-0.048156,0.19173,-0.0094371,0.17649
-0.033274,0.0094553,-0.015798,0.026955,-0.034957,-0.26591,0.074545,0.021773,0.0021097,0.054687,0.051187,0.15547,0.25179,-0.082699,0.0051997,-0.017744,-0.012857,-0.081326,0.56045,-0.28181,-0.0513,0.13531,-0.010973,0.168
-0.033718,0.014198,-0.015143,0.026146,-0.042804,-0.2963,0.070907,0.011971,-0.00017031,0.075047,0.055817,0.089775,0.26146,-0.11932,-0.010052,-0.026378,-0.034819,-0.093717,0.49653,-0.32477,-0.053935,0.071789,-0.011512,0.15568
-0.031107,0.0097749,-0.011871,0.029465,-0.049173,-0.32291,0.063932,0.0027897,0.0029771,0.085009,0.066773,0.020785,0.26946,-0.14162,-0.025992,-0.03006,-0.062871,-0.10906,0.41554,-0.36806,-0.051857,0.014454,-0.011169,0.1449
-0.028996,-0.00078759,-0.012798,0.035716,-0.052168,-0.34689,0.055251,-0.0036529,0.0089841,0.08153,0.081146,-0.034835,0.27648,-0.1533,-0.038488,-0.030114,-0.096211,-0.12699,0.34808,-0.41269,-0.042378,-0.032384,-0.013037,0.14502
-0.029987,-0.0077034,-0.021583,0.040328,-0.051268,-0.3683,0.048178,-0.0063656,0.013394,0.07036,0.09361,-0.072143,0.28324,-0.15988,-0.04717,-0.029221,-0.13123,-0.14367,0.32501,-0.45603,-0.026399,-0.07365,-0.020692,0.16048
-0.034046,-0.0017843,-0.035348,0.039055,-0.047902,-0.38788,0.044755,-0.0060333,0.012796,0.061415,0.099549,-0.096812,0.29047,-0.16584,-0.054528,-0.030221,-0.16339,-0.15427,0.35842,-0.49526,-0.0079553,-0.1155,-0.034792,0.18451
-0.039073,0.017238,-0.046328,0.031627,-0.044666,-0.40752,0.044259,-0.0043232,0.0074347,0.060724,0.09807,-0.11733,0.29838,-0.17328,-0.062573,-0.034659,-0.18906,-0.15657,0.43336,-0.52876,0.0079215,-0.15607,-0.051937,0.20177
-0.042826,0.039082,-0.047479,0.02219,-0.043693,-0.42754,0.044159,-0.0025878,0.0012495,0.065528,0.092572,-0.13722,0.30608,-0.18362,-0.070669,-0.042041,-0.20624,-0.15225,0.51607,-0.55343,0.017322,-0.18328,-0.067019,0.19927
-0.044351,0.050135,-0.037683,0.016195,-0.045392,-0.44256,0.0424,-0.0011496,-0.0010549,0.066619,0.088226,-0.15316,0.31163,-0.2006,-0.076544,-0.050466,-0.21417,-0.14469,0.57307,-0.56189,0.018587,-0.18228,-0.07704,0.17742
-0.043929,0.043773,-0.02247,0.016497,-0.048454,-0.44104,0.03899,0.00024271,0.0022024,0.056083,0.088129,-0.15956,0.31345,-0.23072,-0.0792,-0.058269,-0.21286,-0.13562,0.5883,-0.54491,0.012516,-0.14757,-0.083053,0.15212
-0.042095,0.025173,-0.0098921,0.021904,-0.050952,-0.41113,0.035726,0.0013691,0.0081484,0.034086,0.091134,-0.15453,0.31198,-0.2792,-0.080712,-0.065415,-0.20272,-0.12378,0.56772,-0.49904,0.0019701,-0.09043,-0.08867,0.14529
-0.039008,0.0066778,-0.00498,0.029064,-0.051632,-0.34962,0.034532,0.0010823,0.011534,0.0091182,0.093124,-0.14203,0.3101,-0.34458,-0.085089,-0.073487,-0.18474,-0.10669,0.53057,-0.43241,-0.0091344,-0.035356,-0.096817,0.17011
-0.034704,-0.0020905,-0.0070744,0.035632,-0.050508,-0.26686,0.035887,-0.0019591,0.0089834,-0.0086002,0.090626,-0.12859,0.31139,-0.41757,-0.095106,-0.084177,-0.16055,-0.083305,0.49597,-0.36182,-0.017549,-0.0068856,-0.10775,0.22138
-0.029674,-0.00097832,-0.011601,0.041827,-0.048533,-0.18263,0.038432,-0.0079743,0.0018077,-0.015289,0.083679,-0.11821,0.31727,-0.48672,-0.10982,-0.097425,-0.13234,-0.055065,0.47514,-0.30142,-0.022482,-0.015332,-0.11974,0.2778
-0.024884,0.002264,-0.014262,0.049298,-0.046727,-0.11581,0.039747,-0.015438,-0.0050287,-0.016813,0.075515,-0.11008,0.32537,-0.54665,-0.12486,-0.11074,-0.10254,-0.02448,0.47301,-0.25215,-0.026188,-0.051437,-0.13113,0.31447
-0.021052,-0.00031826,-0.014105,0.058759,-0.045445,-0.075363,0.037588,-0.021935,-0.0069415,-0.024271,0.069436,-0.10071,0.33071,-0.60147,-0.13541,-0.12038,-0.073484,0.0067161,0.49384,-0.20153,-0.032527,-0.094119,-0.14144,0.31685
-0.017953,-0.010071,-0.013417,0.068759,-0.044249,-0.058904,0.030904,-0.026032,-0.0033611,-0.045257,0.065759,-0.087801,0.32874,-0.65959,-0.13948,-0.12374,-0.047051,0.037719,0.54266,-0.13455,-0.044191,-0.12615,-0.1506,0.28679
-0.014587,-0.021203,-0.015167,0.076607,-0.042462,-0.058243,0.020401,-0.028784,0.0020184,-0.077356,0.06148,-0.071969,0.31797,-0.72428,-0.13913,-0.12113,-0.024379,0.067202,0.61989,-0.046594,-0.060557,-0.14628,-0.15779,0.23732
-0.010248,-0.025979,-0.020357,0.080396,-0.03993,-0.06612,0.0085783,-0.033616,0.0043683,-0.10877,0.052812,-0.055023,0.30008,-0.78849,-0.1387,-0.11578,-0.005424,0.092404,0.71491,0.052695,-0.077823,-0.16835,-0.16147,0.18084
-0.0056007,-0.020538,-0.027131,0.080203,-0.037354,-0.079049,-0.00090191,-0.044452,0.0013805,-0.12568,0.038167,-0.037091,0.27785,-0.83841,-0.14149,-0.11181,0.011441,0.11055,0.80743,0.14746,-0.091299,-0.20751,-0.16063,0.11979
-0.0026483,-0.0067925,-0.031827,0.077545,-0.035836,-0.095971,-0.0045403,-0.063212,-0.0055794,-0.12134,0.01894,-0.015895,0.25301,-0.86234,-0.14747,-0.11179,0.029304,0.12179,0.87898,0.22794,-0.097999,-0.26427,-0.15588,0.04697
-0.0033385,0.0098231,-0.030959,0.073853,-0.035973,-0.11603,-0.00048116,-0.088405,-0.013372,-0.1007,-0.0023659,0.011059,0.22613,-0.85661,-0.15373,-0.11577,0.05166,0.13059,0.92649,0.29645,-0.097678,-0.31959,-0.14888,-0.045077
-0.0077068,0.023655,-0.022936,0.069478,-0.037307,-0.1381,0.010797,-0.11584,-0.019906,-0.077799,-0.024703,0.043781,0.19843,-0.8239,-0.15712,-0.1223,0.080618,0.14353,0.96554,0.36297,-0.091944,-0.34662,-0.14074,-0.1532
-0.013073,0.030527,-0.0089071,0.063999,-0.038736,-0.16156,0.027135,-0.14101,-0.025265,-0.06762,-0.049249,0.079587,0.17344,-0.76751,-0.1568,-0.13032,0.11539,0.16456,1.018,0.43558,-0.08274,-0.33119,-0.13107,-0.26041
-0.015234,0.028035,0.0074594,0.057272,-0.039586,-0.18626,0.046155,-0.16153,-0.030489,-0.077538,-0.077671,0.11555,0.15611,-0.68882,-0.15467,-0.13993,0.1522,0.19177,1.0929,0.51428,-0.071653,-0.28575,-0.11877,-0.34403
-0.011136,0.016159,0.021224,0.050045,-0.040358,-0.21092,0.066304,-0.17766,-0.035619,-0.10326,-0.10946,0.15074,0.14933,-0.59081,-0.15348,-0.15128,0.18594,0.21884,1.1763,0.59227,-0.060245,-0.24494,-0.10391,-0.39011
-0.0012188,-0.0015705,0.028215,0.043499,-0.042268,-0.23145,0.086708,-0.19085,-0.039114,-0.13132,-0.14071,0.18538,0.15074,-0.48244,-0.15432,-0.16271,0.21256,0.24056,1.242,0.66146,-0.050422,-0.24436,-0.088622,-0.40386
0.010464,-0.018382,0.027097,0.03822,-0.045827,-0.24101,0.1064,-0.20156,-0.039157,-0.14642,-0.16542,0.2174,0.15304,-0.37581,-0.15558,-0.17023,0.23081,0.25765,1.274,0.7163,-0.043928,-0.2963,-0.076264,-0.40782
0.018719,-0.027686,0.020327,0.033613,-0.049734,-0.23189,0.12418,-0.20846,-0.035447,-0.13936,-0.17835,0.23988,0.14878,-0.27527,-0.15399,-0.16939,0.24222,0.27642,1.2837,0.75353,-0.041269,-0.37887,-0.069392,-0.42831
0.020673,-0.027953,0.013059,0.028382,-0.051297,-0.19763,0.13952,-0.20984,-0.029665,-0.11143,-0.17731,0.2429,0.13588,-0.16784,-0.14658,-0.15826,0.24977,0.30291,1.3041,0.77044,-0.041271,-0.44596,-0.068323,-0.47868
0.017638,-0.02461,0.010167,0.021659,-0.048288,-0.13429,0.15349,-0.20594,-0.024187,-0.073014,-0.16368,0.21909,0.11922,-0.027319,-0.13217,-0.13903,0.25627,0.33658,1.3647,0.76545,-0.04192,-0.45213,-0.0713,-0.55063
0.013876,-0.026128,0.01302,0.013844,-0.040716,-0.041257,0.16816,-0.20001,-0.02035,-0.037893,-0.14132,0.1687,0.10618,0.16603,-0.11144,-0.1169,0.26329,0.36947,1.4669,0.74134,-0.041751,-0.37715,-0.075855,-0.61898
0.013235,-0.036774,0.018294,0.0064589,-0.030924,0.077241,0.18441,-0.19653,-0.017918,-0.016556,-0.11529,0.10002,0.099614,0.4032,-0.086376,-0.097094,0.27107,0.39207,1.5803,0.70731,-0.040358,-0.23606,-0.080189,-0.65657
0.01637,-0.052417,0.020168,0.001184,-0.021821,0.21056,0.20023,-0.19792,-0.016137,-0.012091,-0.091128,0.024834,0.09451,0.64097,-0.059736,-0.082477,0.27881,0.40091,1.6637,0.67651,-0.037553,-0.069546,-0.083775,-0.64914
0.020789,-0.063788,0.014817,-0.0011558,-0.014838,0.34206,0.21162,-0.20235,-0.015103,-0.020125,-0.074343,-0.047429,0.081836,0.82153,-0.034799,-0.073346,0.28523,0.40089,1.6927,0.65936,-0.032362,0.078535,-0.087247,-0.60139
0.023499,-0.064834,0.0039694,-0.00097791,-0.0094595,0.45345,0.21591,-0.20478,-0.015834,-0.031908,-0.069215,-0.11258,0.056515,0.90533,-0.01478,-0.069018,0.28916,0.40004,1.6708,0.65787,-0.023531,0.18292,-0.091966,-0.53162
0.02379,-0.058635,-0.0056061,0.00040734,-0.0046285,0.53174,0.21464,-0.20066,-0.018784,-0.0385,-0.076772,-0.17032,0.022229,0.8929,-0.0016871,-0.069306,0.29008,0.4015,1.6184,0.66548,-0.011681,0.24582,-0.099375,-0.46021
0.023669,-0.05515,-0.0068899,0.0015202,-0.00040415,0.57476,0.2129,-0.18922,-0.022308,-0.034355,-0.093329,-0.22091,-0.011797,0.81932,0.0046953,-0.07455,0.28836,0.40038,1.5517,0.67255,-0.0011715,0.28948,-0.11006,-0.40002
0.02573,-0.062516,0.0017574,0.0014108,0.0020434,0.59091,0.21513,-0.17363,-0.022916,-0.019341,-0.11138,-0.26303,-0.039559,0.72698,0.0065924,-0.08447,0.28486,0.38867,1.4725,0.67287,0.00060635,0.33904,-0.12269,-0.3544
0.030616,-0.079743,0.014748,0.00014191,0.0022178,0.5927,0.22088,-0.15802,-0.017595,0.0015678,-0.12316,-0.29411,-0.064682,0.63917,0.0065476,-0.09726,0.27993,0.36359,1.3755,0.66559,-0.013345,0.40699,-0.13376,-0.32179
0.036483,-0.097483,0.023037,-0.0010616,0.0018692,0.58817,0.22453,-0.14411,-0.0063574,0.02149,-0.12497,-0.31171,-0.098257,0.55461,0.0055113,-0.10988,0.27242,0.33141,1.2636,0.65193,-0.046086,0.48798,-0.13874,-0.30177
0.040814,-0.10605,0.02068,-0.00020844,0.0042324,0.5766,0.21958,-0.13051,0.0073512,0.03697,-0.11901,-0.31437,-0.14954,0.46322,0.0025052,-0.11921,0.25992,0.30277,1.1521,0.63105,-0.096103,0.5648,-0.13453,-0.29684
0.042716,-0.10339,0.0089363,0.0044028,0.011088,0.5517,0.20372,-0.11523,0.019007,0.052407,-0.11117,-0.30131,-0.2175,0.36533,-0.0035828,-0.12299,0.2403,0.28395,1.0579,0.60046,-0.15995,0.61965,-0.12173,-0.30837
0.043457,-0.096017,-0.0052519,0.012848,0.020348,0.50976,0.18043,-0.098746,0.026238,0.079479,-0.10616,-0.27227,-0.29053,0.27569,-0.011594,-0.11995,0.21403,0.27222,0.98333,0.562,-0.23523,0.64322,-0.10494,-0.33015
0.044917,-0.092798,-0.014799,0.022894,0.026922,0.45563,0.15591,-0.084447,0.030215,0.12985,-0.10372,-0.22819,-0.35443,0.21012,-0.017531,-0.1096,0.18544,0.25952,0.91307,0.52763,-0.32042,0.63702,-0.090359,-0.34578
0.047623,-0.09753,-0.01731,0.030792,0.02674,0.40102,0.13444,-0.07575,0.034218,0.20483,-0.098948,-0.17238,-0.40151,0.16989,-0.016923,-0.092416,0.16143,0.24073,0.82799,0.51807,-0.41102,0.60959,-0.082004,-0.33365
0.050308,-0.10669,-0.015649,0.033401,0.020503,0.35602,0.11605,-0.072507,0.040991,0.28966,-0.086346,-0.11055,-0.43327,0.14018,-0.0085773,-0.070463,0.14787,0.2185,0.7235,0.55205,-0.49575,0.56946,-0.07897,-0.27844
0.051245,-0.11318,-0.01469,0.030288,0.013483,0.321,0.097995,-0.070174,0.051476,0.35861,-0.06451,-0.049165,-0.45545,0.10473,0.0034389,-0.047447,0.14569,0.20016,0.61448,0.63274,-0.55743,0.51928,-0.07588,-0.1819
0.0499,-0.11187,-0.017601,0.024198,0.011043,0.2867,0.077732,-0.062843,0.065735,0.38956,-0.03778,0.0071312,-0.47081,0.062261,0.011688,-0.027399,0.14945,0.1901,0.52107,0.74194,-0.57987,0.45433,-0.066392,-0.065324
0.047293,-0.10224,-0.024513,0.019302,0.0137,0.24311,0.054476,-0.047737,0.084371,0.37844,-0.013847,0.056821,-0.47675,0.028962,0.01018,-0.01231,0.14981,0.18489,0.44804,0.84802,-0.55657,0.36733,-0.047356,0.039679
0.044922,-0.087348,-0.033614,0.018374,0.016323,0.18992,0.028654,-0.027365,0.10816,0.34262,0.00065915,0.10056,-0.46959,0.024644,-0.0013827,-0.00042594,0.13874,0.17549,0.3764,0.92379,-0.49478,0.25758,-0.020642,0.10724
0.043506,-0.071573,-0.042679,0.02094,0.012511,0.13908,0.00096667,-0.0074866,0.13576,0.30922,0.003459,0.13882,-0.45109,0.055836,-0.017282,0.013065,0.11399,0.15402,0.27503,0.96243,-0.41153,0.1391,0.0085805,0.13
0.042771,-0.059317,-0.049595,0.023839,0.00040537,0.10643,-0.027281,0.0073802,0.16215,0.29625,-0.0029747,0.17029,-0.43095,0.11136,-0.029832,0.032823,0.07981,0.11863,0.12195,0.98003,-0.32428,0.040615,0.035536,0.12032
0.042244,-0.054305,-0.052283,0.023833,-0.015251,0.098927,-0.053121,0.017178,0.1802,0.30042,-0.013419,0.19259,-0.42265,0.17364,-0.034831,0.059597,0.043302,0.073078,-0.082432,1.003,-0.24338,-0.005728,0.058525,0.099787
0.041977,-0.058127,-0.049292,0.020289,-0.026659,0.10787,-0.072176,0.025707,0.1852,0.30109,-0.022582,0.20462,-0.4356,0.23406,-0.034252,0.088755,0.0094111,0.022737,-0.31928,1.0485,-0.17141,0.018006,0.078741,0.085405
0.042379,-0.068327,-0.041238,0.015844,-0.028903,0.11389,-0.081138,0.036986,0.17851,0.2774,-0.027074,0.20849,-0.46886,0.2976,-0.034087,0.11266,-0.02171,-0.028075,-0.5662,1.112,-0.10869,0.10244,0.097882,0.082454
0.043454,-0.078363,-0.031664,0.014442,-0.023106,0.099445,-0.080735,0.051822,0.16677,0.22485,-0.026221,0.2089,-0.51002,0.3728,-0.039072,0.12563,-0.052967,-0.075451,-0.8089,1.1688,-0.058595,0.21214,0.11595,0.087846
0.044425,-0.080991,-0.025737,0.018147,-0.014391,0.059073,-0.076228,0.067419,0.157,0.15832,-0.021798,0.21032,-0.53937,0.45737,-0.048519,0.12792,-0.085968,-0.11418,-1.0415,1.1902,-0.02691,0.3023,0.13097,0.098581
0.04423,-0.073173,-0.027039,0.025222,-0.0070846,0.00025808,-0.074329,0.079983,0.15164,0.099532,-0.016828,0.21394,-0.53694,0.53391,-0.056702,0.12568,-0.11788,-0.13856,-1.2596,1.1611,-0.015493,0.34098,0.14033,0.11627
0.042365,-0.058271,-0.034767,0.031087,-0.0017029,-0.064212,-0.078734,0.087703,0.14798,0.06024,-0.013875,0.21711,-0.48977,0.58043,-0.05758,0.12643,-0.14223,-0.14609,-1.4554,1.0892,-0.016711,0.3234,0.14236,0.14336
0.039135,-0.043089,-0.043782,0.031551,0.003914,-0.12532,-0.087941,0.091421,0.1421,0.035223,-0.013672,0.21582,-0.39728,0.58711,-0.05008,0.13345,-0.15301,-0.14065,-1.6214,0.99857,-0.01521,0.2694,0.1368,0.17558
0.035118,-0.03204,-0.047853,0.025848,0.01111,-0.18157,-0.097176,0.092714,0.13334,0.010428,-0.015098,0.20824,-0.27281,0.56455,-0.039567,0.14341,-0.14886,-0.13131,-1.7567,0.91437,0.002728,0.20693,0.12463,0.19943
0.030512,-0.023686,-0.043758,0.017055,0.018314,-0.23594,-0.10272,0.09161,0.12488,-0.022047,-0.016632,0.19656,-0.1399,0.53661,-0.03414,0.14917,-0.13398,-0.12672,-1.869,0.84807,0.039419,0.15337,0.10795,0.19956
0.025122,-0.012841,-0.033117,0.0095371,0.02227,-0.2899,-0.10496,0.086353,0.12007,-0.056029,-0.018131,0.18554,-0.023928,0.52347,-0.038623,0.14548,-0.11556,-0.12957,-1.969,0.79389,0.084039,0.10715,0.090006,0.17094
0.018958,0.0037737,-0.020679,0.0055657,0.021096,-0.3394,-0.10789,0.075467,0.11847,-0.077367,-0.021301,0.17899,0.057674,0.52843,-0.051085,0.13306,-0.099585,-0.13562,-2.0611,0.73698,0.12096,0.054672,0.074673,0.12521
0.012703,0.023724,-0.010616,0.0039215,0.016055,-0.37538,-0.11579,0.059967,0.11569,-0.078032,-0.028224,0.17708,0.1017,0.53797,-0.064695,0.11787,-0.088019,-0.13799,-2.1386,0.66651,0.14157,-0.013868,0.064809,0.084237
0.0075136,0.040447,-0.0038937,0.0015826,0.010455,-0.38782,-0.13011,0.043391,0.10769,-0.065121,-0.039066,0.17665,0.11864,0.53355,-0.073381,0.10658,-0.078812,-0.13303,-2.1875,0.58406,0.14988,-0.092464,0.0605,0.064848
0.004371,0.048556,0.0013661,-0.0031434,0.0069434,-0.37081,-0.14874,0.029455,0.095349,-0.056622,-0.050975,0.17413,0.12586,0.50525,-0.07663,0.10229,-0.068082,-0.12262,-2.1958,0.50241,0.15785,-0.16086,0.058886,0.066983
0.0036349,0.047854,0.0072416,-0.0089161,0.0058334,-0.32635,-0.16781,0.019482,0.085068,-0.06781,-0.059258,0.16849,0.13881,0.45738,-0.079494,0.10374,-0.05276,-0.1114,-2.1606,0.43719,0.17504,-0.19904,0.056322,0.075541
0.005115,0.042604,0.013623,-0.012588,0.0058467,-0.26578,-0.1841,0.011972,0.084482,-0.1001,-0.059992,0.16177,0.16511,0.4038,-0.08787,0.1081,-0.032149,-0.10179,-2.0903,0.39772,0.20178,-0.20343,0.051483,0.074567
0.008335,0.037317,0.018141,-0.012156,0.0062955,-0.2082,-0.19655,0.004649,0.096774,-0.14135,-0.052025,0.15674,0.20382,0.35805,-0.10303,0.11396,-0.0078972,-0.091246,-2.0006,0.38188,0.23103,-0.19103,0.04684,0.061626
0.012568,0.033443,0.018317,-0.0087558,0.0084324,-0.17575,-0.20634,-0.0030332,0.11816,-0.17636,-0.036958,0.15392,0.24867,0.32564,-0.12,0.12182,0.017142,-0.074361,-1.9094,0.37616,0.25602,-0.18682,0.047011,0.04977
0.016693,0.029918,0.014027,-0.0060142,0.014578,-0.18578,-0.21634,-0.0093832,0.14031,-0.19832,-0.017452,0.15054,0.29201,0.30265,-0.13108,0.13215,0.040169,-0.04773,-1.8323,0.35937,0.27602,-0.20305,0.055095,0.055435
0.01932,0.026407,0.0082504,-0.0075444,0.025701,-0.24222,-0.23026,-0.012479,0.15544,-0.21245,0.0045435,0.14247,0.32729,0.27965,-0.13171,0.14344,0.059034,-0.013778,-1.7795,0.30912,0.29547,-0.22663,0.069871,0.083206
0.019398,0.025416,0.0056046,-0.014791,0.039558,-0.33015,-0.25153,-0.012778,0.15996,-0.23079,0.028344,0.1275,0.3501,0.24752,-0.12376,0.15268,0.072055,0.019359,-1.7537,0.21074,0.31828,-0.2259,0.086161,0.12128
0.016919,0.030827,0.0097102,-0.026738,0.051174,-0.41851,-0.28171,-0.013738,0.1545,-0.26385,0.053921,0.1072,0.35881,0.20201,-0.11374,0.15768,0.077741,0.041447,-1.7509,0.066665,0.34359,-0.17311,0.098107,0.15183
0.013027,0.04414,0.020999,-0.04109,0.055665,-0.47209,-0.31914,-0.019572,0.14103,-0.31545,0.081092,0.086004,0.35543,0.1453,-0.10756,0.15883,0.075199,0.044422,-1.762,-0.099265,0.36706,-0.066895,0.10288,0.167
0.0093069,0.062167,0.036096,-0.055472,0.051551,-0.46836,-0.35906,-0.031919,0.12035,-0.38248,0.1092,0.068191,0.34564,0.084556,-0.10629,0.1583,0.065244,0.02481,-1.7779,-0.24788,0.38567,0.061934,0.10216,0.17638
0.0067247,0.078634,0.04911,-0.067821,0.042092,-0.40938,-0.39592,-0.04831,0.092113,-0.45679,0.13708,0.055369,0.33659,0.028019,-0.10597,0.15752,0.051097,-0.016043,-1.7923,-0.34133,0.40094,0.16558,0.10055,0.19945
0.0050366,0.088519,0.054438,-0.076431,0.03337,-0.32033,-0.42699,-0.063941,0.057096,-0.52657,0.16278,0.046326,0.33271,-0.019484,-0.10132,0.15552,0.03741,-0.072607,-1.8021,-0.36217,0.41709,0.20517,0.10248,0.24965
0.0031053,0.091382,0.04997,-0.080436,0.030117,-0.23449,-0.45469,-0.075467,0.019075,-0.57773,0.18318,0.039038,0.33201,-0.05898,-0.089645,0.14987,0.027553,-0.13574,-1.8043,-0.32277,0.4362,0.17015,0.10959,0.32393
-0.00011516,0.090737,0.038872,-0.080626,0.032159,-0.17402,-0.48565,-0.08383,-0.016083,-0.59773,0.19432,0.032864,0.32584,-0.095998,-0.071895,0.1395,0.020985,-0.1939,-1.7929,-0.25827,0.45494,0.079471,0.12028,0.40561
-0.0046247,0.090082,0.028327,-0.079495,0.034281,-0.13973,-0.52636,-0.093877,-0.044008,-0.58225,0.19311,0.029012,0.30315,-0.13618,-0.050915,0.12652,0.013117,-0.23638,-1.7589,-0.20717,0.46623,-0.034357,0.13092,0.47733
-0.0091102,0.089259,0.02524,-0.079843,0.030038,-0.11662,-0.57812,-0.11109,-0.065193,-0.54031,0.17959,0.029104,0.25671,-0.18111,-0.029225,0.11508,-0.0015233,-0.25803,-1.6952,-0.19257,0.4641,-0.14688,0.13772,0.53245
-0.011587,0.084635,0.031398,-0.082712,0.016941,-0.089687,-0.63497,-0.13799,-0.084852,-0.4922,0.15793,0.033386,0.18749,-0.22771,-0.0086139,0.10811,-0.024863,-0.26266,-1.6019,-0.21605,0.44791,-0.2551,0.13845,0.57621
-0.010601,0.073165,0.041775,-0.086476,-0.0010207,-0.057101,-0.68646,-0.17268,-0.10873,-0.45848,0.13491,0.04031,0.1044,-0.27175,0.0087578,0.10483,-0.053077,-0.2613,-1.4888,-0.26609,0.42265,-0.37502,0.13331,0.61745
-0.0062456,0.056641,0.047909,-0.088155,-0.015835,-0.030414,-0.72359,-0.21044,-0.13813,-0.44594,0.11644,0.047865,0.020157,-0.31251,0.019854,0.10131,-0.078703,-0.26509,-1.3707,-0.33229,0.39582,-0.52583,0.1247,0.65918
-0.00027149,0.041876,0.044325,-0.086004,-0.021332,-0.023347,-0.74375,-0.24661,-0.16862,-0.44064,0.10442,0.055389,-0.053791,-0.35451,0.022134,0.09352,-0.095642,-0.27736,-1.2602,-0.41365,0.37366,-0.71106,0.11573,0.69593
0.0048759,0.035991,0.033107,-0.081152,-0.01792,-0.039842,-0.75128,-0.27883,-0.19392,-0.41479,0.096281,0.064224,-0.11061,-0.40436,0.015668,0.080182,-0.10315,-0.29109,-1.1599,-0.51594,0.35893,-0.90868,0.10772,0.71891
0.0075128,0.040514,0.022682,-0.076737,-0.012277,-0.071714,-0.75323,-0.30713,-0.21184,-0.34452,0.087447,0.076624,-0.14899,-0.46508,0.0036278,0.063342,-0.10559,-0.29486,-1.0628,-0.64279,0.35082,-1.077,0.098449,0.72317
0.007669,0.049462,0.021442,-0.075262,-0.012101,-0.1066,-0.75374,-0.33239,-0.2266,-0.22707,0.074712,0.093803,-0.17262,-0.532,-0.0098524,0.046614,-0.10829,-0.28289,-0.95776,-0.78986,0.34595,-1.1738,0.082986,0.71023
0.0068539,0.053408,0.031168,-0.076489,-0.020065,-0.13756,-0.75103,-0.35455,-0.2451,-0.085307,0.058038,0.11466,-0.18892,-0.59371,-0.022785,0.033121,-0.11318,-0.26117,-0.83784,-0.94716,0.33972,-1.1771,0.057535,0.68475
0.0068129,0.046399,0.045492,-0.077716,-0.031829,-0.16518,-0.73901,-0.37173,-0.27012,0.044007,0.039654,0.13605,-0.20726,-0.63781,-0.036624,0.024699,-0.11803,-0.24424,-0.70537,-1.1069,0.32816,-1.0956,0.023811,0.64964
0.0081798,0.030166,0.054517,-0.076169,-0.039598,-0.19077,-0.71198,-0.38086,-0.29657,0.13088,0.021596,0.15425,-0.23625,-0.65786,-0.054505,0.022219,-0.11984,-0.2449,-0.57162,-1.2686,0.31008,-0.96227,-0.0098831,0.60518
0.0099985,0.0125,0.051729,-0.071395,-0.03823,-0.20852,-0.66877,-0.37904,-0.31442,0.16793,0.0038548,0.16668,-0.28116,-0.65708,-0.077927,0.025756,-0.11953,-0.26544,-0.45202,-1.4367,0.28864,-0.81505,-0.032865,0.55345
0.010458,0.0015483,0.03785,-0.065631,-0.028952,-0.20499,-0.61365,-0.36482,-0.31602,0.17144,-0.015425,0.17271,-0.34279,-0.64643,-0.10472,0.034068,-0.12337,-0.29745,-0.36065,-1.6113,0.27065,-0.67605,-0.039131,0.5034
0.0083412,0.00066746,0.019269,-0.061884,-0.017895,-0.16769,-0.55363,-0.3387,-0.30152,0.16771,-0.038003,0.1735,-0.4182,-0.63829,-0.12993,0.044203,-0.13957,-0.32984,-0.30631,-1.7799,0.26305,-0.54138,-0.031754,0.47008
0.004189,0.0072246,0.0031647,-0.061402,-0.010913,-0.095817,-0.49454,-0.30252,-0.27796,0.17455,-0.063496,0.17099,-0.50209,-0.6395,-0.14885,0.052382,-0.1722,-0.35773,-0.29111,-1.9168,0.26854,-0.38638,-0.020626,0.46583
0.0002815,0.015157,-0.0065025,-0.062592,-0.0089611,-0.0039577,-0.43847,-0.25837,-0.25316,0.19056,-0.088862,0.16662,-0.58659,-0.64741,-0.15982,0.055959,-0.21721,-0.3848,-0.31035,-1.9929,0.28344,-0.18337,-0.014954,0.48916
-0.0007318,0.01874,-0.0097072,-0.062243,-0.0076314,0.084296,-0.38414,-0.20791,-0.22998,0.19847,-0.10991,0.16063,-0.65958,-0.65089,-0.1647,0.054839,-0.26381,-0.4176,-0.35323,-1.99,0.29973,0.077833,-0.016574,0.5204
0.002225,0.015316,-0.0086127,-0.058058,-0.00098669,0.14829,-0.32923,-0.1523,-0.20588,0.17915,-0.12391,0.15232,-0.70428,-0.6354,-0.16713,0.050902,-0.30053,-0.45763,-0.40427,-1.912,0.31012,0.37679,-0.01957,0.52967
0.0075297,0.0062678,-0.0057524,-0.050543,0.013517,0.17937,-0.27277,-0.092954,-0.17729,0.12617,-0.13146,0.14125,-0.70361,-0.59028,-0.16976,0.045834,-0.32143,-0.49815,-0.44621,-1.784,0.31214,0.66386,-0.016148,0.49375
0.011609,-0.0035967,-0.0034195,-0.042892,0.03291,0.18204,-0.21629,-0.031889,-0.14473,0.051397,-0.13629,0.12851,-0.64946,-0.5153,-0.17272,0.039418,-0.32825,-0.52831,-0.46425,-1.6405,0.30819,0.87693,-0.0031787,0.41038
0.011317,-0.0081544,-0.0035717,-0.038998,0.050928,0.16858,-0.16296,0.028475,-0.11372,-0.021219,-0.14283,0.11694,-0.55104,-0.42379,-0.17398,0.030015,-0.32729,-0.54047,-0.45058,-1.5087,0.30159,0.96708,0.016439,0.29981
0.0062931,-0.0031898,-0.007084,-0.041042,0.062627,0.15241,-0.11596,0.086002,-0.091196,-0.068868,-0.15314,0.10971,-0.43494,-0.3399,-0.17124,0.016842,-0.32405,-0.53456,-0.40708,-1.3976,0.29209,0.92202,0.038228,0.19203
-0.00056955,0.010749,-0.01257,-0.048204,0.067681,0.14434,-0.076828,0.13919,-0.080433,-0.081979,-0.16544,0.10823,-0.33384,-0.28917,-0.16373,0.0018172,-0.31989,-0.51614,-0.34469,-1.3007,0.2748,0.7747,0.061387,0.10879
-0.0050969,0.027959,-0.016357,-0.057146,0.069807,0.15176,-0.044609,0.18681,-0.078704,-0.068598,-0.17548,0.11084,-0.2698,-0.28572,-0.15258,-0.010971,-0.31285,-0.49081,-0.27916,-1.2095,0.24333,0.59058,0.089288,0.053107
-0.00475,0.04052,-0.014665,-0.063717,0.07302,0.17802,-0.016311,0.22731,-0.079285,-0.049219,-0.17982,0.11355,-0.2435,-0.32274,-0.13975,-0.017945,-0.3008,-0.46007,-0.22507,-1.127,0.19449,0.43732,0.12469,0.012766
-0.00016557,0.042867,-0.0068073,-0.06478,0.077971,0.22074,0.01167,0.25892,-0.075864,-0.04518,-0.17851,0.11242,-0.23724,-0.37356,-0.12666,-0.018636,-0.28397,-0.42196,-0.19071,-1.0699,0.13035,0.35177,0.16464,-0.026601
0.0058493,0.034775,0.0033156,-0.059317,0.081492,0.2706,0.041688,0.28067,-0.066091,-0.067,-0.1749,0.10578,-0.22922,-0.40507,-0.11389,-0.015988,-0.26472,-0.37512,-0.17648,-1.0569,0.056181,0.32318,0.2006,-0.070036
0.010839,0.02067,0.0092508,-0.048581,0.079671,0.31385,0.073656,0.29336,-0.052162,-0.1093,-0.17289,0.094757,-0.20781,-0.39647,-0.10216,-0.014142,-0.24571,-0.32195,-0.17735,-1.0939,-0.023884,0.30396,0.22414,-0.1119
0.014478,0.006101,0.0063991,-0.035405,0.071697,0.33889,0.10538,0.29952,-0.038774,-0.15575,-0.17416,0.082008,-0.17534,-0.3512,-0.093275,-0.01564,-0.22847,-0.26801,-0.18781,-1.1672,-0.10906,0.24291,0.2331,-0.1438
0.018193,-0.0057237,-0.0046462,-0.022921,0.061028,0.34279,0.13424,0.30168,-0.0304,-0.19135,-0.17787,0.069787,-0.14052,-0.29351,-0.089504,-0.020349,-0.21357,-0.21846,-0.20631,-1.2515,-0.19983,0.12085,0.23255,-0.16337
0.023254,-0.014954,-0.018642,-0.013034,0.052724,0.33252,0.15887,0.30038,-0.029557,-0.21406,-0.18319,0.058878,-0.10822,-0.25171,-0.091416,-0.026862,-0.20151,-0.17514,-0.2364,-1.326,-0.29313,-0.034659,0.22976,-0.1759
0.029223,-0.023547,-0.029753,-0.0052942,0.049229,0.31917,0.17944,0.2936,-0.036465,-0.23697,-0.19176,0.048886,-0.07668,-0.2402,-0.096088,-0.034922,-0.19289,-0.13704,-0.28394,-1.3845,-0.37962,-0.1655,0.22803,-0.18816
0.034093,-0.032907,-0.035807,0.0030479,0.048406,0.30941,0.19633,0.27845,-0.049449,-0.27823,-0.20718,0.039333,-0.043417,-0.25291,-0.097963,-0.046517,-0.18763,-0.10336,-0.3525,-1.4325,-0.4463,-0.21953,0.22515,-0.20099
0.035773,-0.042531,-0.039334,0.015498,0.045669,0.30136,0.20862,0.25411,-0.065559,-0.34493,-0.23135,0.030457,-0.012599,-0.27173,-0.092472,-0.064384,-0.1844,-0.075916,-0.44022,-1.4768,-0.48377,-0.1826,0.21727,-0.20803
0.033462,-0.05021,-0.044775,0.033995,0.038383,0.2881,0.21406,0.22391,-0.081468,-0.42246,-0.26102,0.023,0.0050187,-0.28226,-0.079791,-0.088955,-0.18123,-0.058442,-0.54054,-1.5167,-0.49263,-0.084619,0.20396,-0.2018
0.027835,-0.053203,-0.054422,0.057274,0.028491,0.26552,0.21105,0.19445,-0.094822,-0.47776,-0.2882,0.017064,0.00052122,-0.28488,-0.065411,-0.11618,-0.17702,-0.053417,-0.6459,-1.5458,-0.48392,0.023098,0.18919,-0.18176
0.020168,-0.049536,-0.066448,0.081088,0.020836,0.23706,0.20084,0.1721,-0.10552,-0.47582,-0.30472,0.010859,-0.02431,-0.29422,-0.056652,-0.13818,-0.17253,-0.059429,-0.7515,-1.5593,-0.47226,0.10139,0.17757,-0.15699
0.011445,-0.03898,-0.076304,0.10017,0.01861,0.2111,0.18796,0.15905,-0.11567,-0.39918,-0.30722,0.00048311,-0.056873,-0.32969,-0.057764,-0.14656,-0.16973,-0.071605,-0.85597,-1.5573,-0.46678,0.14345,0.1697,-0.14119
0.0022528,-0.023541,-0.079926,0.11059,0.020112,0.19348,0.17833,0.15187,-0.12763,-0.25832,-0.29845,-0.018581,-0.083632,-0.40455,-0.067533,-0.1362,-0.17003,-0.084706,-0.95888,-1.541,-0.4662,0.16932,0.16173,-0.14358
-0.0066066,-0.0072817,-0.076098,0.11094,0.019947,0.18218,0.17619,0.14406,-0.14118,-0.086511,-0.284,-0.048718,-0.10164,-0.51979,-0.081031,-0.10735,-0.17272,-0.096199,-1.0576,-1.5043,-0.46174,0.20285,0.14942,-0.16288
-0.013592,0.0046965,-0.066589,0.10212,0.013712,0.16898,0.18234,0.13086,-0.15215,0.077899,-0.26816,-0.087888,-0.1209,-0.66349,-0.093461,-0.065124,-0.175,-0.10672,-1.1467,-1.4324,-0.4451,0.252,0.13317,-0.18847
-0.016734,0.0080225,-0.054765,0.086352,0.0019907,0.14651,0.19441,0.11297,-0.15434,0.21079,-0.25302,-0.1297,-0.15439,-0.81297,-0.10248,-0.017343,-0.17336,-0.11779,-1.22,-1.3099,-0.41514,0.3074,0.11904,-0.20771
-0.014783,0.00094571,-0.044175,0.066579,-0.0099699,0.11435,0.2087,0.096103,-0.14347,0.31179,-0.24104,-0.16642,-0.20332,-0.93797,-0.1073,0.028025,-0.16566,-0.12905,-1.2734,-1.1336,-0.37836,0.35652,0.11501,-0.21381
-0.0083918,-0.014591,-0.037734,0.046283,-0.016598,0.079123,0.22206,0.086766,-0.12032,0.39827,-0.23772,-0.19318,-0.25018,-1.0061,-0.10624,0.06524,-0.15233,-0.13724,-1.3062,-0.91831,-0.34356,0.39679,0.12557,-0.20857
-0.00027583,-0.033465,-0.037061,0.029112,-0.016495,0.048898,0.23292,0.087426,-0.090311,0.48782,-0.25001,-0.21051,-0.2665,-0.99188,-0.095907,0.092654,-0.13647,-0.13785,-1.3192,-0.69039,-0.31582,0.43394,0.14884,-0.19865
0.0060502,-0.049535,-0.041661,0.017758,-0.013207,0.027295,0.24166,0.094784,-0.059876,0.58074,-0.28072,-0.22316,-0.23058,-0.88787,-0.073185,0.11339,-0.12232,-0.12774,-1.3136,-0.47389,-0.29454,0.46788,0.17792,-0.18855
0.0082957,-0.058547,-0.048673,0.012636,-0.011847,0.011746,0.25038,0.10239,-0.032852,0.65447,-0.32338,-0.23609,-0.14224,-0.71043,-0.038275,0.13372,-0.11311,-0.10702,-1.29,-0.28046,-0.27624,0.48203,0.20457,-0.17633
0.0067712,-0.060232,-0.054236,0.01156,-0.014746,-0.0036425,0.26217,0.10528,-0.0096822,0.67493,-0.36276,-0.25068,-0.023692,-0.49374,0.0042353,0.15921,-0.10902,-0.078845,-1.2485,-0.11046,-0.25862,0.4497,0.22257,-0.15555
0.0040183,-0.058182,-0.056147,0.011054,-0.01991,-0.024058,0.27936,0.10299,0.010422,0.61799,-0.38207,-0.26405,0.093961,-0.27135,0.047456,0.19064,-0.10667,-0.047857,-1.1886,0.037961,-0.24136,0.35466,0.22913,-0.12242
0.0028261,-0.057274,-0.055738,0.0084993,-0.023327,-0.051988,0.30153,0.098625,0.026976,0.48708,-0.37243,-0.27194,0.18857,-0.055698,0.085529,0.22293,-0.10087,-0.018239,-1.1087,0.16122,-0.22357,0.2081,0.22475,-0.08208
0.0040239,-0.060123,-0.05689,0.0034948,-0.022823,-0.08742,0.32439,0.095334,0.037895,0.31454,-0.33777,-0.27257,0.25655,0.16882,0.11526,0.24836,-0.088053,0.0075127,-1.0068,0.25121,-0.2012,0.045785,0.21227,-0.04861
0.0057306,-0.065124,-0.062511,-0.0025403,-0.020067,-0.12826,0.34125,0.093083,0.041291,0.14497,-0.29175,-0.26869,0.30904,0.42954,0.13487,0.26168,-0.069347,0.028785,-0.88319,0.30279,-0.16848,-0.094029,0.19542,-0.037234
0.0047468,-0.067873,-0.071463,-0.0079321,-0.019225,-0.16984,0.34647,0.088443,0.037169,0.010803,-0.24905,-0.2663,0.35999,0.73369,0.14174,0.26296,-0.050998,0.046094,-0.74399,0.31959,-0.12354,-0.19421,0.17704,-0.053396
-0.00081934,-0.065231,-0.079012,-0.011917,-0.023631,-0.20491,0.33907,0.077326,0.027132,-0.084232,-0.21734,-0.27139,0.41623,1.0441,0.13208,0.25582,-0.041146,0.059758,-0.60187,0.31257,-0.073389,-0.26487,0.15753,-0.086034
-0.009616,-0.05885,-0.080786,-0.014442,-0.033267,-0.22571,0.32385,0.058336,0.012659,-0.16349,-0.19539,-0.28692,0.47622,1.2856,0.10384,0.24284,-0.044788,0.068778,-0.47264,0.29353,-0.033099,-0.32851,0.13463,-0.11022
-0.017382,-0.054838,-0.076821,-0.015141,-0.04484,-0.22791,0.30913,0.034075,-0.0059096,-0.25924,-0.17732,-0.31157,0.53522,1.3841,0.060528,0.22299,-0.060343,0.070915,-0.36885,0.27099,-0.018011,-0.39817,0.10526,-0.09861
-0.019569,-0.059239,-0.071952,-0.012918,-0.054058,-0.21294,0.30281,0.0094933,-0.028411,-0.39021,-0.15862,-0.34033,0.58982,1.314,0.012324,0.19339,-0.080356,0.064457,-0.29462,0.25302,-0.033826,-0.46731,0.06823,-0.035558
-0.014554,-0.072785,-0.072036,-0.0068683,-0.05823,-0.18589,0.30934,-0.011326,-0.053057,-0.54864,-0.1389,-0.36638,0.63717,1.1187,-0.0277,0.1537,-0.095878,0.050827,-0.24434,0.25305,-0.071931,-0.5178,0.025981,0.074005
-0.0051034,-0.089562,-0.079339,0.0022425,-0.057471,-0.14981,0.32905,-0.02748,-0.076137,-0.70404,-0.12025,-0.3834,0.67126,0.8846,-0.050317,0.10828,-0.10129,0.035827,-0.20541,0.29015,-0.11384,-0.53621,-0.016445,0.20619
0.0031849,-0.10121,-0.091019,0.011555,-0.054076,-0.10154,0.35951,-0.041126,-0.094147,-0.81899,-0.1039,-0.3881,0.68253,0.68624,-0.055251,0.063504,-0.096329,0.027662,-0.16301,0.37945,-0.14192,-0.52297,-0.054505,0.32952
0.0056086,-0.10343,-0.10167,0.017557,-0.050768,-0.033864,0.39711,-0.055361,-0.10654,-0.86608,-0.088906,-0.3819,0.66428,0.5431,-0.050777,0.02242,-0.084467,0.032124,-0.10521,0.51851,-0.14899,-0.48728,-0.087101,0.41963
0.001648,-0.099219,-0.10728,0.018524,-0.048849,0.055947,0.43794,-0.071978,-0.1162,-0.83609,-0.073616,-0.37063,0.62128,0.42068,-0.047897,-0.018055,-0.069702,0.048168,-0.027666,0.68166,-0.1403,-0.43461,-0.11689,0.46892
-0.0047009,-0.095946,-0.10733,0.016031,-0.047147,0.15757,0.4781,-0.090676,-0.12661,-0.73568,-0.057529,-0.36187,0.57224,0.27294,-0.053133,-0.064324,-0.054291,0.06775,0.063514,0.82976,-0.12721,-0.35959,-0.14748,0.48568
-0.0079792,-0.098657,-0.10402,0.014193,-0.042294,0.24725,0.51409,-0.10991,-0.13789,-0.58051,-0.041163,-0.36078,0.54098,0.089675,-0.064895,-0.11968,-0.038565,0.081099,0.15292,0.93078,-0.11787,-0.2505,-0.17955,0.48411
-0.0054904,-0.10549,-0.10028,0.017,-0.030512,0.29878,0.54311,-0.12833,-0.14543,-0.39071,-0.02415,-0.36672,0.5411,-0.090183,-0.075496,-0.17968,-0.021902,0.084197,0.22202,0.97631,-0.11188,-0.10088,-0.20915,0.47218
0.00059854,-0.10916,-0.098522,0.025629,-0.0103,0.29984,0.563,-0.14571,-0.14289,-0.19035,-0.0041719,-0.37297,0.56596,-0.20844,-0.07679,-0.23343,-0.0035487,0.082783,0.25786,0.98161,-0.10245,0.082087,-0.22976,0.44553
0.0050048,-0.10308,-0.1002,0.037614,0.015462,0.26266,0.57169,-0.16303,-0.12746,-0.0061679,0.021457,-0.37007,0.59322,-0.2334,-0.06521,-0.26991,0.017177,0.089192,0.25882,0.96978,-0.083864,0.27856,-0.23702,0.39078
0.0035191,-0.086865,-0.10534,0.048418,0.039753,0.21986,0.56716,-0.18225,-0.10276,0.13899,0.052852,-0.35094,0.60201,-0.18256,-0.043128,-0.28456,0.040853,0.11368,0.23367,0.95344,-0.057798,0.46386,-0.23241,0.2952
-0.0038468,-0.066466,-0.11175,0.054222,0.054538,0.20697,0.54875,-0.20571,-0.076841,0.2361,0.086434,-0.31495,0.59006,-0.10532,-0.016582,-0.28149,0.067678,0.15643,0.19496,0.92911,-0.033398,0.61642,-0.22292,0.15594
-0.013354,-0.049341,-0.11528,0.053978,0.055233,0.24225,0.51895,-0.23524,-0.056582,0.29504,0.11713,-0.26817,0.57674,-0.043246,0.0082906,-0.27018,0.09713,0.20623,0.15244,0.88754,-0.020821,0.72119,-0.21658,-0.016607
-0.021052,-0.038994,-0.11218,0.049454,0.043526,0.31709,0.48397,-0.27078,-0.043097,0.33766,0.14184,-0.21992,0.58864,-0.0027471,0.027682,-0.25938,0.12793,0.24724,0.11109,0.82916,-0.023319,0.76962,-0.21706,-0.20183
-0.026003,-0.033464,-0.10213,0.043558,0.0264,0.40252,0.45119,-0.30923,-0.031934,0.38176,0.16069,-0.17763,0.63829,0.038454,0.040668,-0.25234,0.15826,0.2687,0.073747,0.76986,-0.034241,0.75977,-0.22145,-0.37534
-0.030283,-0.02838,-0.089344,0.038392,0.011889,0.46618,0.42484,-0.34467,-0.017483,0.42795,0.17467,-0.14351,0.71246,0.10038,0.04857,-0.24605,0.18601,0.27085,0.043812,0.73192,-0.041537,0.69815,-0.22314,-0.51534
-0.035975,-0.021263,-0.079931,0.034421,0.0046166,0.48765,0.40325,-0.37055,0.0024116,0.46112,0.18254,-0.11496,0.77947,0.17466,0.053988,-0.23442,0.20885,0.26283,0.024566,0.72843,-0.036371,0.60112,-0.21766,-0.60726
-0.042335,-0.013149,-0.077371,0.031049,0.0042605,0.46343,0.38059,-0.38295,0.025446,0.46596,0.18091,-0.088099,0.80977,0.22589,0.059672,-0.2134,0.22452,0.25495,0.016046,0.7548,-0.019087,0.49208,-0.20687,-0.6466
-0.046141,-0.0066403,-0.079915,0.027744,0.0075642,0.40202,0.35231,-0.38263,0.047666,0.44324,0.16806,-0.061426,0.7938,0.21803,0.067051,-0.18496,0.23143,0.25137,0.013713,0.79317,0.0020578,0.3939,-0.1979,-0.63933
-0.045043,-0.0028117,-0.08229,0.024572,0.011664,0.31651,0.32002,-0.37446,0.066959,0.41169,0.14787,-0.03678,0.74406,0.14174,0.074851,-0.15722,0.22929,0.2486,0.01148,0.82394,0.018047,0.31995,-0.19738,-0.5993
-0.040559,-6.6656e-005,-0.080145,0.021794,0.015761,0.22117,0.29134,-0.36423,0.084,0.39293,0.12934,-0.017055,0.68078,0.019751,0.078894,-0.14025,0.21921,0.24007,0.0069672,0.83442,0.02612,0.26975,-0.20548,-0.54273
-0.037531,0.0043037,-0.07321,0.019071,0.020158,0.13163,0.27443,-0.35493,0.10033,0.39271,0.12106,-0.002989,0.61402,-0.11211,0.073862,-0.13988,0.20314,0.22222,0.0041833,0.81964,0.031059,0.23242,-0.21491,-0.48261
-0.0402,0.011761,-0.064538,0.015207,0.024362,0.063517,0.27149,-0.34475,0.11608,0.39607,0.12531,0.0079288,0.53628,-0.23016,0.056297,-0.15369,0.18342,0.19698,0.011147,0.77939,0.04025,0.19645,-0.21611,-0.42651
-0.048437,0.02168,-0.056979,0.0087581,0.026608,0.026343,0.27675,-0.32801,0.12964,0.38224,0.1373,0.019369,0.43115,-0.33267,0.026876,-0.17264,0.16268,0.16914,0.034775,0.71767,0.057104,0.15863,-0.20489,-0.37919
-0.057668,0.032435,-0.05049,-0.00092051,0.025374,0.016664,0.28071,-0.29832,0.13952,0.34706,0.15045,0.032753,0.28985,-0.42845,-0.009722,-0.18768,0.14375,0.14187,0.077551,0.64509,0.078347,0.12593,-0.18632,-0.34694
-0.062619,0.042849,-0.042696,-0.013019,0.021065,0.018078,0.27706,-0.2523,0.14593,0.31313,0.16287,0.045673,0.12212,-0.51732,-0.047148,-0.19631,0.12903,0.11475,0.1378,0.5789,0.096903,0.10854,-0.17158,-0.33892
-0.061464,0.052385,-0.031774,-0.025465,0.015773,0.011173,0.26693,-0.192,0.15061,0.31749,0.17912,0.053689,-0.047169,-0.58071,-0.080101,-0.20374,0.11893,0.085946,0.21094,0.53648,0.1074,0.10974,-0.17017,-0.36282
-0.056712,0.060185,-0.018585,-0.035785,0.011131,-0.012914,0.25749,-0.12501,0.155,0.38552,0.20587,0.054047,-0.19258,-0.58966,-0.10564,-0.21745,0.11104,0.055933,0.28834,0.52483,0.10964,0.12087,-0.18343,-0.41752
-0.05235,0.064458,-0.0060095,-0.042061,0.0065685,-0.046616,0.25664,-0.061907,0.15897,0.51078,0.24592,0.048176,-0.30235,-0.52207,-0.12293,-0.23956,0.10112,0.02844,0.35441,0.53453,0.10761,0.12605,-0.20454,-0.48862
-0.050173,0.063325,0.0036735,-0.04351,0.00015599,-0.073582,0.26813,-0.011856,0.16123,0.65565,0.29582,0.040854,-0.38187,-0.37621,-0.13248,-0.26374,0.085885,0.0074284,0.38728,0.54411,0.10554,0.11251,-0.22419,-0.55113
-0.048741,0.05658,0.010674,-0.040613,-0.008439,-0.083882,0.29021,0.021636,0.16096,0.77079,0.34844,0.036734,-0.44492,-0.1736,-0.13595,-0.27955,0.065328,-0.0070471,0.36737,0.53263,0.10448,0.077833,-0.23704,-0.57836
-0.045621,0.046751,0.017072,-0.034964,-0.015934,-0.083394,0.31739,0.042364,0.1586,0.81894,0.39683,0.036965,-0.50088,0.0467,-0.136,-0.2804,0.042555,-0.019556,0.2907,0.49147,0.10161,0.027436,-0.24375,-0.55216
-0.040477,0.038427,0.02447,-0.029,-0.017008,-0.088542,0.34336,0.059003,0.15501,0.78833,0.43519,0.038365,-0.54833,0.23842,-0.13523,-0.26811,0.021209,-0.035063,0.17686,0.4277,0.092396,-0.034557,-0.24785,-0.46937
-0.035915,0.036239,0.032336,-0.025529,-0.0087791,-0.11059,0.36314,0.079666,0.14995,0.69135,0.45743,0.035433,-0.579,0.36153,-0.1344,-0.24981,0.0030522,-0.053153,0.062877,0.35832,0.073337,-0.11147,-0.251,-0.34277
-0.035332,0.042799,0.038745,-0.026912,0.0057028,-0.14352,0.37401,0.10686,0.14167,0.55383,0.4568,0.023466,-0.58713,0.3967,-0.13138,-0.23013,-0.011893,-0.06633,-0.015508,0.30094,0.043609,-0.20949,-0.25101,-0.19799
-0.039816,0.057571,0.042839,-0.033989,0.018573,-0.16687,0.3758,0.13645,0.12823,0.40271,0.42954,0.00061058,-0.57527,0.35369,-0.12244,-0.2058,-0.022999,-0.065054,-0.042652,0.26638,0.005059,-0.32502,-0.24371,-0.067996
-0.046988,0.076894,0.046556,-0.045264,0.022624,-0.16203,0.37044,0.16146,0.10951,0.25647,0.37988,-0.032069,-0.55197,0.2652,-0.10536,-0.16797,-0.027443,-0.046325,-0.02855,0.25508,-0.038724,-0.43579,-0.22625,0.014693
-0.052773,0.095126,0.053691,-0.05712,0.016769,-0.12836,0.36066,0.17793,0.087731,0.11995,0.32099,-0.071855,-0.52465,0.1668,-0.082103,-0.11012,-0.021877,-0.018845,0.0017679,0.25663,-0.083252,-0.50624,-0.1987,0.028001
-0.054487,0.10681,0.066668,-0.065384,0.0067826,-0.085422,0.34822,0.18803,0.066092,-0.014356,0.26906,-0.11569,-0.49501,0.077213,-0.058273,-0.034445,-0.0064829,0.0003222,0.024994,0.25235,-0.12351,-0.50642,-0.16294,-0.029574
-0.052579,0.10932,0.083683,-0.06765,0.00051173,-0.059053,0.33252,0.19805,0.046656,-0.15674,0.23396,-0.16072,-0.46063,-0.0037905,-0.039481,0.049216,0.012411,-0.0036808,0.029204,0.22258,-0.15419,-0.43067,-0.12086,-0.13373
-0.049681,0.10445,0.099,-0.064893,0.0016261,-0.062514,0.31087,0.21277,0.029507,-0.30575,0.21428,-0.20414,-0.42011,-0.077863,-0.027377,0.13101,0.024397,-0.033018,0.011971,0.15796,-0.17047,-0.30149,-0.073725,-0.23896
-0.04802,0.097365,0.10675,-0.061044,0.0072311,-0.087642,0.28038,0.23098,0.013778,-0.43876,0.20103,-0.24303,-0.37533,-0.12928,-0.018635,0.20812,0.021052,-0.074726,-0.026087,0.069108,-0.16946,-0.15473,-0.022971,-0.29366
-0.047536,0.092798,0.10553,-0.060445,0.011162,-0.11241,0.24032,0.24619,-0.00066998,-0.51822,0.18677,-0.27481,-0.32866,-0.12804,-0.0077572,0.28479,0.0015827,-0.10885,-0.082763,-0.013963,-0.15177,-0.017881,0.029032,-0.26015
-0.04624,0.091111,0.099792,-0.064824,0.0096898,-0.11793,0.19327,0.25205,-0.012637,-0.51346,0.17235,-0.29798,-0.27899,-0.058197,0.0086689,0.3652,-0.026335,-0.12183,-0.14946,-0.056171,-0.12218,0.10145,0.079369,-0.12997
-0.042312,0.087665,0.096539,-0.072036,0.0044484,-0.10125,0.14435,0.24801,-0.020429,-0.42385,0.16534,-0.31277,-0.22226,0.052752,0.029739,0.44594,-0.051175,-0.11544,-0.20832,-0.03898,-0.088601,0.20862,0.12549,0.073345
-0.035957,0.076836,0.09944,-0.077686,0.00028846,-0.074694,0.099053,0.24023,-0.022887,-0.28437,0.17231,-0.32084,-0.15774,0.13499,0.051551,0.51522,-0.064052,-0.1045,-0.23926,0.025063,-0.059451,0.30462,0.16527,0.30591
-0.029429,0.057771,0.10549,-0.078537,0.00061482,-0.054155,0.061054,0.23669,-0.019231,-0.14661,0.19224,-0.32395,-0.093914,0.11647,0.070462,0.56009,-0.062507,-0.10469,-0.2345,0.096772,-0.040887,0.37535,0.19616,0.52306
-0.025314,0.036797,0.1074,-0.075107,0.0048052,-0.046725,0.031135,0.24056,-0.0079961,-0.048533,0.21688,-0.32254,-0.04688,-0.025079,0.085249,0.57586,-0.049656,-0.11977,-0.20797,0.13322,-0.035384,0.39894,0.21463,0.6961
-0.0246,0.023656,0.10025,-0.071366,0.0098082,-0.047113,0.0076468,0.24746,0.013129,0.0035884,0.23728,-0.31545,-0.030198,-0.24016,0.096581,0.56996,-0.030639,-0.13828,-0.18898,0.11477,-0.042343,0.36586,0.21766,0.81728
-0.026092,0.024089,0.086785,-0.071702,0.01371,-0.04399,-0.012214,0.24911,0.045328,0.027672,0.25007,-0.3014,-0.043875,-0.4364,0.10492,0.55707,-0.0098198,-0.14275,-0.20231,0.057622,-0.059812,0.29418,0.20557,0.89204
-0.027448,0.034867,0.076368,-0.077477,0.017357,-0.029637,-0.03133,0.24016,0.085651,0.041838,0.25825,-0.28127,-0.072218,-0.53855,0.10926,0.54922,0.0094691,-0.12454,-0.24997,0.0025367,-0.085536,0.22496,0.18376,0.92603
-0.026811,0.045682,0.077889,-0.08585,0.022558,-0.0051305,-0.05235,0.22224,0.12595,0.047083,0.26653,-0.25908,-0.093414,-0.53387,0.1079,0.54851,0.023812,-0.092155,-0.30955,-0.012938,-0.11628,0.19877,0.16131,0.91772
-0.023759,0.046612,0.092225,-0.091791,0.029156,0.021809,-0.077879,0.20205,0.1558,0.032011,0.27635,-0.24019,-0.093612,-0.46931,0.10007,0.54742,0.029674,-0.065986,-0.35105,0.020571,-0.14645,0.22996,0.14684,0.86225
-0.019109,0.035167,0.11071,-0.091767,0.034374,0.043281,-0.11043,0.18547,0.16808,-0.0073189,0.28509,-0.22753,-0.074275,-0.40536,0.086686,0.53565,0.025385,-0.063282,-0.35889,0.079294,-0.16828,0.29832,0.14455,0.76274
-0.014047,0.017493,0.1212,-0.086337,0.035223,0.056843,-0.15173,0.17348,0.16321,-0.05462,0.28935,-0.21876,-0.047397,-0.36536,0.069367,0.50791,0.013426,-0.085161,-0.34216,0.12373,-0.17535,0.36396,0.15333,0.63863
-0.009403,0.0032445,0.11704,-0.079726,0.031393,0.066994,-0.20189,0.16324,0.14858,-0.082568,0.28851,-0.20706,-0.023538,-0.31994,0.049171,0.46707,0.00031052,-0.11603,-0.32616,0.12459,-0.1674,0.39431,0.16879,0.52261
-0.0054655,-0.0014247,0.10165,-0.076722,0.025519,0.082195,-0.25904,0.15252,0.13336,-0.075897,0.2853,-0.18585,-0.0032053,-0.21616,0.026518,0.42147,-0.0067972,-0.13555,-0.33325,0.078283,-0.15272,0.38334,0.18614,0.44644
-0.0022272,0.0024918,0.085382,-0.079222,0.020513,0.10917,-0.31998,0.14272,0.12284,-0.044753,0.28322,-0.15402,0.021735,-0.025269,0.002324,0.37954,-0.0044654,-0.13334,-0.36809,0.0028424,-0.14437,0.35044,0.20146,0.4248
0.00030482,0.0085479,0.0774,-0.084949,0.016804,0.14723,-0.38101,0.13714,0.11636,-0.013005,0.28411,-0.11756,0.059214,0.22913,-0.021204,0.34632,0.0051418,-0.11487,-0.41682,-0.07871,-0.15172,0.32188,0.21117,0.44753
0.0019903,0.0098004,0.07941,-0.08921,0.012423,0.18599,-0.43829,0.13666,0.11018,0.008749,0.28766,-0.085941,0.10938,0.48253,-0.041335,0.32333,0.016514,-0.094918,-0.45829,-0.15185,-0.17305,0.30978,0.21164,0.48558
0.0026835,0.0032635,0.085695,-0.088319,0.0059163,0.20904,-0.48756,0.13772,0.10228,0.038716,0.29262,-0.065501,0.16472,0.66967,-0.056486,0.31008,0.025183,-0.08484,-0.47735,-0.21085,-0.1956,0.30413,0.20056,0.50695
0.0024816,-0.008702,0.088672,-0.08211,-0.00093457,0.20318,-0.52431,0.13535,0.094964,0.11046,0.29746,-0.054896,0.21656,0.76283,-0.066962,0.30458,0.030435,-0.084449,-0.47099,-0.24976,-0.20393,0.28301,0.17914,0.4935
0.0018441,-0.020251,0.084841,-0.073819,-0.0035038,0.16787,-0.54527,0.12854,0.093452,0.2409,0.29999,-0.045993,0.26106,0.78278,-0.07399,0.30205,0.034248,-0.084177,-0.44556,-0.25659,-0.19083,0.23295,0.15278,0.44938
0.0013604,-0.025612,0.076484,-0.067677,0.002269,0.11814,-0.55077,0.12256,0.10224,0.40979,0.2972,-0.029458,0.29919,0.77897,-0.078293,0.29405,0.037929,-0.074517,-0.4095,-0.21898,-0.16223,0.16418,0.1284,0.39631
0.0012409,-0.0223,0.068578,-0.066162,0.016455,0.077038,-0.54571,0.12515,0.1224,0.57243,0.28679,-0.00062042,0.33185,0.79574,-0.080121,0.27034,0.040045,-0.054196,-0.36805,-0.13684,-0.1322,0.10837,0.11009,0.35866
0.0010141,-0.012407,0.064292,-0.068875,0.034669,0.062076,-0.53749,0.13942,0.15167,0.69651,0.26992,0.03874,0.35629,0.84726,-0.080779,0.22316,0.037761,-0.030619,-0.32256,-0.029537,-0.11215,0.098913,0.096464,0.34698
-5.811e-005,-0.0013861,0.062943,-0.073478,0.05076,0.07495,-0.53155,0.15991,0.18642,0.7908,0.25244,0.083474,0.36777,0.91374,-0.083518,0.15124,0.030148,-0.013233,-0.27291,0.070531,-0.10321,0.14654,0.082326,0.35093
-0.0019526,0.0049866,0.061575,-0.077553,0.060216,0.10211,-0.52755,0.17587,0.22348,0.89838,0.24277,0.12979,0.36455,0.9568,-0.091803,0.06062,0.019959,-0.0061638,-0.21971,0.13369,-0.097673,0.2282,0.063309,0.3474
-0.0031719,0.0037258,0.058085,-0.079819,0.061719,0.12517,-0.51939,0.17939,0.26077,1.0578,0.24729,0.17743,0.35004,0.94175,-0.10585,-0.038362,0.011844,-0.0062577,-0.16438,0.14579,-0.087591,0.29891,0.039425,0.31901
-0.0013527,-0.0040138,0.052923,-0.080051,0.056406,0.13242,-0.49964,0.17162,0.2971,1.2637,0.26666,0.22788,0.32874,0.85446,-0.12084,-0.13534,0.0085422,-0.0072728,-0.10794,0.10921,-0.0722,0.31964,0.014265,0.26951
0.0048838,-0.014131,0.048098,-0.078326,0.04634,0.12284,-0.46511,0.16151,0.33233,1.4601,0.29576,0.28113,0.29978,0.70597,-0.12921,-0.22268,0.0087477,-0.0055598,-0.050455,0.034426,-0.057522,0.28128,-0.0092959,0.22294
0.014324,-0.022412,0.044825,-0.074607,0.033665,0.10128,-0.41934,0.15802,0.36775,1.573,0.32703,0.33474,0.25537,0.52545,-0.1258,-0.29563,0.0088444,-0.0018728,0.0082438,-0.068433,-0.049029,0.20643,-0.032659,0.20523
0.023501,-0.02704,0.042159,-0.069052,0.020451,0.071528,-0.37009,0.16263,0.40586,1.559,0.35414,0.38649,0.18745,0.34691,-0.11125,-0.35097,0.0069423,0.0018035,0.067703,-0.19108,-0.045038,0.12727,-0.06073,0.22185
0.029146,-0.029226,0.037862,-0.06251,0.0083529,0.034536,-0.32391,0.16831,0.44886,1.4342,0.37354,0.43788,0.097076,0.19665,-0.090804,-0.38613,0.0052523,0.0065684,0.12728,-0.32344,-0.037882,0.056846,-0.097356,0.2497
0.030794,-0.031797,0.030566,-0.056394,-0.0022014,-0.007344,-0.28248,0.16589,0.49649,1.2642,0.38368,0.49396,-0.0028091,0.086923,-0.06958,-0.39978,0.0082525,0.017247,0.18782,-0.45186,-0.0223,-0.023622,-0.14119,0.25131
0.031127,-0.037001,0.021152,-0.051838,-0.012441,-0.046453,-0.24366,0.15194,0.54495,1.1246,0.38423,0.55788,-0.095348,0.017547,-0.049062,-0.39295,0.018116,0.038349,0.25287,-0.56284,-0.0032364,-0.15142,-0.18587,0.20051
0.033436,-0.045038,0.012038,-0.048843,-0.024391,-0.072661,-0.20607,0.13131,0.58763,1.0591,0.37674,0.62373,-0.17232,-0.017939,-0.027889,-0.36967,0.031732,0.069105,0.3276,-0.64899,0.0048011,-0.35404,-0.22437,0.098194
0.038383,-0.05398,0.0050451,-0.046309,-0.039115,-0.082098,-0.17297,0.11241,0.61737,1.0613,0.36579,0.67418,-0.24004,-0.026666,-0.0057796,-0.33622,0.042474,0.10249,0.41606,-0.71117,-0.012902,-0.62755,-0.25361,-0.034829
0.043089,-0.060732,-0.00018448,-0.043002,-0.055629,-0.083596,-0.15165,0.099732,0.62872,1.0856,0.35828,0.68705,-0.31297,-0.014691,0.013747,-0.29957,0.045588,0.12945,0.51845,-0.75468,-0.06083,-0.93561,-0.27543,-0.18087
0.043588,-0.062255,-0.0056754,-0.038669,-0.071667,-0.094829,-0.14879,0.090528,0.61942,1.0769,0.35994,0.64817,-0.40079,0.012289,0.024822,-0.26579,0.04245,0.1448,0.63047,-0.78403,-0.13024,-1.2259,-0.29346,-0.34243
0.038505,-0.05669,-0.012881,-0.034251,-0.08574,-0.12869,-0.16597,0.078288,0.5908,0.99689,0.37123,0.56228,-0.50027,0.049592,0.023642,-0.2391,0.039627,0.14977,0.74446,-0.80148,-0.20514,-1.4492,-0.30925,-0.53651
0.030579,-0.044431,-0.020682,-0.030991,-0.09857,-0.17996,-0.19918,0.059513,0.54754,0.83481,0.38657,0.45389,-0.59843,0.096809,0.011824,-0.22142,0.043143,0.14941,0.85122,-0.81005,-0.27082,-1.5701,-0.32108,-0.77026
0.02458,-0.028957,-0.025535,-0.029187,-0.11251,-0.22412,-0.2424,0.037263,0.49677,0.60395,0.39862,0.35621,-0.6822,0.15984,-0.0041535,-0.21238,0.05283,0.1476,0.94154,-0.81587,-0.31711,-1.5707,-0.32603,-1.0207
0.023573,-0.016535,-0.023982,-0.027651,-0.12938,-0.23178,-0.29154,0.018193,0.44612,0.33103,0.40432,0.29497,-0.74449,0.24675,-0.016683,-0.20991,0.061881,0.14438,1.0081,-0.82523,-0.33503,-1.4542,-0.32271,-1.2394
0.026913,-0.013849,-0.015777,-0.024348,-0.14866,-0.18973,-0.34492,0.0058954,0.40102,0.046451,0.40751,0.27721,-0.78185,0.35807,-0.02068,-0.21173,0.062335,0.13749,1.0482,-0.83818,-0.31305,-1.2487,-0.31197,-1.3815
0.031597,-0.023981,-0.005212,-0.01775,-0.16752,-0.11346,-0.40064,-0.0032146,0.36251,-0.22351,0.41495,0.29159,-0.78916,0.47964,-0.014558,-0.21743,0.051938,0.12631,1.0661,-0.84603,-0.24011,-1.0038,-0.29531,-1.4367
0.035332,-0.043246,0.00064762,-0.0079335,-0.18262,-0.040625,-0.45398,-0.017506,0.32731,-0.46292,0.42866,0.31844,-0.75993,0.58673,0.0013342,-0.22932,0.036508,0.11412,1.0728,-0.83772,-0.11514,-0.77255,-0.27342,-1.4358
0.038249,-0.061932,-0.0040038,0.003275,-0.192,-0.0086085,-0.49827,-0.043157,0.29057,-0.66908,0.44108,0.34153,-0.69447,0.65863,0.026567,-0.25085,0.02573,0.10676,1.0818,-0.81112,0.045246,-0.58376,-0.24673,-1.4256
0.041859,-0.069818,-0.019913,0.013236,-0.19566,-0.030871,-0.52825,-0.078571,0.2499,-0.84825,0.43786,0.35369,-0.60751,0.69142,0.060732,-0.28272,0.025974,0.10876,1.1029,-0.77887,0.21039,-0.4245,-0.2176,-1.432
0.046754,-0.06328,-0.0418,0.020008,-0.1948,-0.088435,-0.54275,-0.11495,0.2078,-1.0048,0.40672,0.35452,-0.52522,0.69569,0.10176,-0.31936,0.036105,0.12012,1.1381,-0.76083,0.35054,-0.24954,-0.19118,-1.4388
0.051649,-0.048549,-0.061175,0.023621,-0.19077,-0.14231,-0.54378,-0.14256,0.17074,-1.1326,0.34564,0.34461,-0.47046,0.67857,0.14437,-0.34929,0.0494,0.1361,1.1817,-0.76749,0.45255,-0.016132,-0.17294,-1.3994
0.054666,-0.037762,-0.071395,0.026276,-0.18474,-0.15802,-0.5336,-0.15738,0.14539,-1.2175,0.26402,0.32243,-0.44755,0.62627,0.18071,-0.36003,0.059354,0.14988,1.2251,-0.78807,0.52333,0.27854,-0.16416,-1.2694
0.055266,-0.040076,-0.071722,0.03108,-0.17816,-0.12518,-0.51286,-0.16299,0.13463,-1.2543,0.17627,0.2862,-0.44039,0.50658,0.20371,-0.34496,0.064186,0.15628,1.2617,-0.79529,0.57783,0.58527,-0.15955,-1.0377
0.054602,-0.054666,-0.067499,0.039849,-0.17297,-0.059625,-0.48207,-0.16648,0.13594,-1.2613,0.092858,0.23739,-0.42699,0.29491,0.21092,-0.30684,0.06662,0.15417,1.2885,-0.76493,0.62215,0.82679,-0.15018,-0.73524
0.053979,-0.071523,-0.066187,0.051398,-0.17128,0.011198,-0.4443,-0.17222,0.14268,-1.2789,0.015691,0.18153,-0.3991,0.005697,0.20619,-0.25535,0.069959,0.14654,1.3048,-0.69506,0.64699,0.94243,-0.13039,-0.42114
0.053251,-0.079697,-0.072038,0.06183,-0.17435,0.067146,-0.40584,-0.17873,0.14684,-1.3454,-0.059749,0.12465,-0.37011,-0.29806,0.19747,-0.20036,0.074439,0.13813,1.3102,-0.60862,0.63744,0.92272,-0.10331,-0.15983
0.051088,-0.076179,-0.083324,0.067041,-0.18193,0.10471,-0.37311,-0.18078,0.14138,-1.4682,-0.13806,0.068721,-0.36428,-0.52907,0.19219,-0.14622,0.076977,0.13204,1.3046,-0.53715,0.59006,0.81069,-0.079857,-0.0013178
0.046922,-0.067888,-0.094173,0.065826,-0.19231,0.13195,-0.34859,-0.17434,0.12163,-1.6142,-0.21888,0.010761,-0.39622,-0.62001,0.1937,-0.091217,0.074051,0.12729,1.2902,-0.49927,0.52108,0.67062,-0.07102,0.030366
0.042366,-0.065187,-0.099396,0.061102,-0.20288,0.15577,-0.32939,-0.16013,0.086186,-1.7317,-0.29685,-0.053172,-0.45804,-0.55778,0.20121,-0.031728,0.064815,0.11922,1.2726,-0.49188,0.45742,0.54727,-0.079114,-0.057303
0.040279,-0.072781,-0.09837,0.058016,-0.2106,0.17303,-0.31022,-0.1429,0.037953,-1.7895,-0.36646,-0.12263,-0.5245,-0.38596,0.21263,0.032942,0.051834,0.1031,1.2597,-0.5003,0.41824,0.44377,-0.094905,-0.22582
0.042112,-0.085978,-0.094914,0.060195,-0.21254,0.17267,-0.2881,-0.12761,-0.015945,-1.8013,-0.42774,-0.19146,-0.57088,-0.17687,0.22726,0.099166,0.039192,0.078702,1.2591,-0.51581,0.40347,0.33101,-0.10313,-0.41552
0.046143,-0.095223,-0.093642,0.06712,-0.20665,0.14618,-0.26465,-0.11625,-0.066597,-1.8164,-0.4885,-0.2525,-0.58803,0.0057241,0.24587,0.1612,0.029926,0.052454,1.275,-0.54301,0.3993,0.17864,-0.092209,-0.56584
0.048573,-0.094348,-0.096208,0.074831,-0.19285,0.097493,-0.24402,-0.10765,-0.10811,-1.881,-0.56071,-0.30496,-0.58287,0.13062,0.26847,0.21405,0.024887,0.034611,1.3082,-0.58971,0.39485,-0.016936,-0.060976,-0.63838
0.046729,-0.085178,-0.1007,0.079397,-0.17363,0.043807,-0.22844,-0.10015,-0.14199,-2.0029,-0.65267,-0.35781,-0.56632,0.20112,0.2926,0.25424,0.023464,0.032859,1.3572,-0.64968,0.39375,-0.22766,-0.017892,-0.63002
0.04145,-0.075017,-0.10432,0.08025,-0.15317,0.0057529,-0.21539,-0.093866,-0.17714,-2.1453,-0.76193,-0.4252,-0.5414,0.24063,0.31411,0.27887,0.024896,0.046703,1.4199,-0.69683,0.40954,-0.41365,0.025454,-0.56758
0.036389,-0.070136,-0.10658,0.080565,-0.13496,-0.0066839,-0.19894,-0.09047,-0.22406,-2.251,-0.87424,-0.51602,-0.50249,0.27398,0.32974,0.28552,0.028561,0.066991,1.4929,-0.69949,0.44916,-0.55066,0.061103,-0.48768
0.034799,-0.071248,-0.10967,0.084438,-0.11954,-0.0025889,-0.17406,-0.090655,-0.28616,-2.2772,-0.97027,-0.62494,-0.44473,0.31348,0.33872,0.27431,0.032911,0.081194,1.5701,-0.64475,0.50038,-0.64403,0.087324,-0.41479
0.036725,-0.074145,-0.11594,0.093314,-0.10427,-0.0060159,-0.14023,-0.092263,-0.35446,-2.2128,-1.0361,-0.73197,-0.37308,0.35386,0.34172,0.25057,0.034333,0.080813,1.6417,-0.55183,0.53606,-0.72026,0.10689,-0.35025
0.039079,-0.073731,-0.12479,0.10467,-0.085661,-0.040644,-0.10142,-0.091267,-0.41064,-2.0717,-1.0703,-0.81195,-0.30089,0.37653,0.33859,0.22473,0.027732,0.065857,1.6955,-0.46159,0.53295,-0.80586,0.1239,-0.27646
0.038376,-0.067422,-0.13234,0.11394,-0.062348,-0.1126,-0.062781,-0.084978,-0.43756,-1.8729,-1.082,-0.84815,-0.23925,0.36119,0.32785,0.20813,0.0094724,0.043766,1.7211,-0.40932,0.48995,-0.91167,0.14143,-0.17182
0.03354,-0.055762,-0.1342,0.11788,-0.036169,-0.20323,-0.026842,-0.074333,-0.43055,-1.6251,-1.082,-0.84113,-0.18727,0.29956,0.30913,0.20728,-0.018873,0.0242,1.7141,-0.40186,0.43054,-1.0331,0.1603,-0.027069
0.026347,-0.041107,-0.12923,0.11669,-0.010503,-0.27777,0.0074229,-0.062738,-0.40133,-1.3245,-1.074,-0.80676,-0.1333,0.20326,0.28594,0.22044,-0.04889,0.013565,1.6774,-0.41661,0.38717,-1.1612,0.17817,0.14537
0.019464,-0.026269,-0.12061,0.11322,0.012502,-0.30529,0.04223,-0.052261,-0.3714,-0.96032,-1.0527,-0.76517,-0.066525,0.10095,0.26523,0.23904,-0.06806,0.012573,1.6187,-0.42151,0.37977,-1.2915,0.18952,0.31494
0.014226,-0.013842,-0.11337,0.11052,0.033215,-0.27716,0.077629,-0.040818,-0.35885,-0.52386,-1.0124,-0.72836,0.011194,0.026052,0.25269,0.25233,-0.06633,0.017522,1.5456,-0.39889,0.40419,-1.4223,0.18808,0.44916
0.010195,-0.0056084,-0.11003,0.10965,0.053289,-0.212,0.11031,-0.02345,-0.36766,-0.017036,-0.95525,-0.69501,0.084235,0.0028277,0.24782,0.25203,-0.042836,0.023618,1.463,-0.35495,0.43759,-1.549,0.17112,0.53469
0.0065517,-0.0017217,-0.10831,0.10947,0.073407,-0.14415,0.13572,0.0029363,-0.38642,0.53752,-0.8942,-0.6554,0.13416,0.038396,0.24371,0.23468,-0.0080511,0.027854,1.3736,-0.3103,0.45477,-1.6647,0.14268,0.58956
0.0034846,-0.00034195,-0.10288,0.10807,0.092334,-0.10394,0.15153,0.035447,-0.3965,1.0889,-0.84437,-0.60165,0.15353,0.12242,0.23271,0.20151,0.020981,0.029884,1.2814,-0.28236,0.44271,-1.767,0.11174,0.65557
0.0019771,0.0015264,-0.090155,0.10437,0.10811,-0.10285,0.1595,0.065703,-0.38358,1.5621,-0.81123,-0.5348,0.15095,0.23106,0.21349,0.15699,0.030081,0.03093,1.1931,-0.27443,0.40436,-1.8609,0.085941,0.77289
0.0022434,0.0063644,-0.072075,0.098686,0.11992,-0.13202,0.16399,0.085126,-0.34458,1.879,-0.78561,-0.4629,0.14359,0.33188,0.19284,0.10688,0.016157,0.032022,1.1152,-0.27796,0.35233,-1.9474,0.065851,0.95377
0.0026438,0.014925,-0.055529,0.092218,0.12857,-0.17272,0.16856,0.090958,-0.28682,1.9909,-0.75172,-0.39212,0.14388,0.39035,0.17998,0.056114,-0.011328,0.033021,1.0493,-0.28266,0.29952,-2.0037,0.04559,1.1757
0.00049905,0.02629,-0.047302,0.086071,0.13519,-0.20974,0.17362,0.088122,-0.22183,1.9013,-0.70277,-0.31919,0.15168,0.37995,0.17809,0.0071616,-0.036709,0.032981,0.98835,-0.28434,0.25312,-1.9783,0.019909,1.3998
-0.0057132,0.03875,-0.048467,0.080582,0.1396,-0.23832,0.17684,0.085354,-0.15959,1.6642,-0.6514,-0.23268,0.15741,0.29367,0.18058,-0.040003,-0.047866,0.031182,0.91958,-0.28499,0.21376,-1.8172,-0.0090269,1.6006
-0.01481,0.05055,-0.052944,0.075219,0.14035,-0.2618,0.17556,0.088713,-0.10683,1.3558,-0.62533,-0.12346,0.15223,0.14883,0.17573,-0.086146,-0.042654,0.027626,0.83225,-0.28695,0.17722,-1.5094,-0.032424,1.7799
-0.02357,0.060201,-0.051811,0.068938,0.1363,-0.28434,0.16889,0.097544,-0.068922,1.0395,-0.65017,0.0040288,0.13566,-0.021785,0.15586,-0.13063,-0.028032,0.022578,0.72471,-0.28712,0.13667,-1.1135,-0.043408,1.955
-0.029138,0.066868,-0.040075,0.060799,0.12829,-0.30609,0.15786,0.10582,-0.051634,0.74511,-0.73213,0.13002,0.11456,-0.18955,0.12312,-0.17111,-0.013526,0.015925,0.60621,-0.27555,0.085639,-0.73441,-0.04522,2.1306
-0.031081,0.071032,-0.020367,0.050605,0.11882,-0.32469,0.14399,0.10739,-0.059915,0.47424,-0.85368,0.23049,0.095557,-0.3466,0.087282,-0.20572,-0.0045073,0.0075233,0.49194,-0.23874,0.022618,-0.45743,-0.050193,2.2821
-0.031278,0.07467,-0.00045957,0.039261,0.11019,-0.3408,0.12806,0.10077,-0.094053,0.2203,-0.98486,0.29349,0.078994,-0.50536,0.057898,-0.23569,-5.9612e-005,-0.0015143,0.39473,-0.16551,-0.044243,-0.28994,-0.069229,2.3661
-0.031861,0.080115,0.013188,0.028621,0.10278,-0.3615,0.11018,0.089744,-0.14668,-0.014648,-1.101,0.32764,0.060108,-0.68077,0.037687,-0.26554,0.0041256,-0.0081048,0.31922,-0.052642,-0.096718,-0.16199,-0.10125,2.3501
-0.033175,0.087986,0.020241,0.020771,0.095394,-0.39748,0.090843,0.079712,-0.20413,-0.21959,-1.1932,0.35506,0.035962,-0.87134,0.022154,-0.30005,0.011321,-0.0085495,0.26173,0.092119,-0.11351,0.0098265,-0.13318,2.2356
-0.033644,0.095983,0.025567,0.01708,0.08715,-0.45542,0.071546,0.07283,-0.25244,-0.38668,-1.2665,0.39347,0.010801,-1.0581,0.0044485,-0.34072,0.021698,-0.0013967,0.21529,0.25198,-0.082414,0.24617,-0.15141,2.0539
-0.03162,0.10004,0.033735,0.017472,0.079072,-0.53174,0.054278,0.065771,-0.28459,-0.52109,-1.3289,0.44149,-0.0060905,-1.224,-0.019662,-0.38533,0.033616,0.010858,0.17558,0.40803,-0.0098894,0.48259,-0.15435,1.8407
-0.027418,0.097382,0.044261,0.020264,0.073645,-0.61288,0.040169,0.051661,-0.30379,-0.63767,-1.3831,0.4788,-0.0087912,-1.3751,-0.050566,-0.43108,0.046113,0.023525,0.14341,0.54834,0.080077,0.62311,-0.15416,1.6126
-0.023598,0.089195,0.052183,0.02266,0.072681,-0.68185,0.028583,0.024575,-0.31999,-0.74674,-1.4248,0.48107,-0.0018197,-1.5393,-0.086755,-0.47797,0.059866,0.034083,0.12226,0.67382,0.15873,0.62616,-0.16555,1.3642
-0.023168,0.080792,0.053505,0.021797,0.075455,-0.72581,0.01759,-0.016699,-0.34181,-0.84264,-1.4474,0.43761,0.001123,-1.7372,-0.12645,-0.52793,0.075908,0.045215,0.11324,0.7963,0.20896,0.54909,-0.19232,1.0851
-0.027275,0.078941,0.050352,0.016045,0.078742,-0.73886,0.0057226,-0.068042,-0.36944,-0.90694,-1.4464,0.35845,-0.01336,-1.9487,-0.16686,-0.57952,0.09376,0.062991,0.11145,0.92908,0.23342,0.51092,-0.22442,0.77644
-0.034313,0.08802,0.05064,0.0059977,0.078678,-0.71934,-0.0061577,-0.12237,-0.39395,-0.92525,-1.4207,0.26688,-0.048184,-2.1086,-0.2027,-0.62305,0.11103,0.090819,0.10663,1.0758,0.24822,0.60112,-0.24866,0.45122
-0.041063,0.10721,0.062003,-0.0055504,0.072939,-0.66569,-0.014362,-0.17274,-0.40354,-0.9045,-1.3715,0.18538,-0.093364,-2.1413,-0.22677,-0.64219,0.1249,0.12414,0.087288,1.2254,0.26696,0.80733,-0.26291,0.12132
-0.044766,0.13024,0.085066,-0.014992,0.061893,-0.57588,-0.014039,-0.21405,-0.39182,-0.87574,-1.3028,0.12617,-0.13318,-2.0106,-0.23356,-0.62316,0.13406,0.15106,0.045261,1.3561,0.28767,1.0191,-0.28003,-0.2124
-0.044504,0.14797,0.11209,-0.020043,0.048365,-0.4513,-0.0022776,-0.24288,-0.36195,-0.87864,-1.222,0.091045,-0.15655,-1.7432,-0.22306,-0.56541,0.13921,0.15951,-0.022125,1.4479,0.29317,1.1036,-0.31739,-0.55384
-0.041178,0.15294,0.13243,-0.021183,0.036461,-0.30117,0.019368,-0.25712,-0.32359,-0.93736,-1.1389,0.075967,-0.1618,-1.4042,-0.2011,-0.48467,0.14183,0.14576,-0.1128,1.4935,0.26423,0.99366,-0.38096,-0.89547
-0.03657,0.14364,0.1402,-0.021176,0.029922,-0.14293,0.045034,-0.25652,-0.286,-1.044,-1.0614,0.073393,-0.1529,-1.047,-0.17586,-0.40468,0.1424,0.11751,-0.22181,1.5019,0.19482,0.72592,-0.4584,-1.2105
-0.032404,0.12575,0.1379,-0.02287,0.030448,0.0031356,0.067764,-0.24401,-0.25309,-1.1609,-0.98942,0.070799,-0.1322,-0.68199,-0.15323,-0.34272,0.13988,0.088971,-0.3425,1.4934,0.09706,0.40592,-0.52739,-1.4656
