-4.4567e-010,8.0066e-010,-2.3943e-009,2.7531e-009,-1.3409e-009,2.537e-009,3.0001e-009,-8.1224e-010,-1.2444e-009,2.0509e-009,-5.8284e-009,-7.5822e-010,-4.9101e-009,8.7783e-010,1.1171e-009,2.5216e-009,-4.4181e-010,2.9422e-009,-4.8233e-011,1.31e-009,-2.375e-009,-2.6817e-010,3.957e-009,1.3717e-009
-1.2412e-008,2.2646e-008,-6.6552e-008,7.5978e-008,-3.6775e-008,7.0382e-008,8.2818e-008,-2.236e-008,-3.4094e-008,5.6074e-008,-1.5983e-007,-2.1045e-008,-1.3496e-007,2.4867e-008,3.0633e-008,6.9619e-008,-1.2186e-008,8.1319e-008,-7.3476e-010,3.6281e-008,-6.5706e-008,-6.8318e-009,1.0934e-007,3.5699e-008
-1.6826e-007,3.114e-007,-8.9865e-007,1.0191e-006,-4.9e-007,9.4892e-007,1.1116e-006,-2.9956e-007,-4.5401e-007,7.4549e-007,-2.1298e-006,-2.8407e-007,-1.8028e-006,3.4446e-007,4.0792e-007,9.3467e-007,-1.6346e-007,1.0929e-006,-1.605e-009,4.8832e-007,-8.8359e-007,-8.295e-008,1.4691e-006,4.4607e-007
-1.4795e-006,2.7737e-006,-7.8527e-006,8.8519e-006,-4.2254e-006,8.2833e-006,9.6668e-006,-2.6022e-006,-3.9143e-006,6.4208e-006,-1.8369e-005,-2.4849e-006,-1.5591e-005,3.111e-006,3.5128e-006,8.1298e-006,-1.4208e-006,9.5166e-006,6.0768e-008,4.2549e-006,-7.6943e-006,-6.3373e-007,1.2788e-005,3.5493e-006
-9.4844e-006,1.7988e-005,-4.9907e-005,5.5951e-005,-2.65e-005,5.2612e-005,6.1215e-005,-1.6477e-005,-2.4556e-005,4.0273e-005,-0.00011525,-1.5838e-005,-9.8103e-005,2.0609e-005,2.1978e-005,5.1494e-005,-8.9965e-006,6.0342e-005,8.8301e-007,2.6972e-005,-4.8761e-005,-3.3692e-006,8.1049e-005,2.0068e-005
-4.7236e-005,9.0512e-005,-0.00024576,0.00027418,-0.00012876,0.00025904,0.0003008,-8.1033e-005,-0.0001194,0.00019603,-0.00056035,-7.8394e-005,-0.00047847,0.0001068,0.00010637,0.00025308,-4.4219e-005,0.00029685,6.9531e-006,0.0001325,-0.00023958,-1.2852e-005,0.00039854,8.4856e-005
-0.00019013,0.00036767,-0.00097529,0.0010834,-0.00050412,0.0010282,0.0011932,-0.00032202,-0.00046798,0.00077056,-0.0021955,-0.00031365,-0.0018813,0.00045096,0.00041393,0.001004,-0.00017553,0.0011787,3.8844e-005,0.00052461,-0.00094925,-3.3637e-005,0.0015816,0.00027261
-0.00063508,0.0012384,-0.003202,0.0035439,-0.0016323,0.003378,0.0039245,-0.0010619,-0.0015177,0.0025128,-0.0071162,-0.0010423,-0.0061211,0.001595,0.001328,0.0033014,-0.00057786,0.0038783,0.00016878,0.0017181,-0.0031135,-4.2694e-005,0.0052012,0.00064708
-0.0017931,0.0035249,-0.0088571,0.0097723,-0.0044502,0.0093533,0.010903,-0.00296,-0.0041467,0.0069301,-0.019427,-0.002934,-0.016783,0.0048203,0.0035719,0.0091674,-0.0016074,0.010772,0.000598,0.0047389,-0.0086093,0.00010805,0.014439,0.00096634
-0.0043346,0.0085946,-0.020902,0.023004,-0.010342,0.022104,0.025934,-0.0070672,-0.0096647,0.016399,-0.045223,-0.0070984,-0.03926,0.012632,0.0081363,0.021782,-0.0038281,0.025587,0.001779,0.011143,-0.020323,0.00090994,0.034278,-0.00010686
-0.0090494,0.018128,-0.042433,0.046616,-0.020648,0.044958,0.053304,-0.014583,-0.019373,0.033669,-0.090479,-0.014926,-0.078995,0.029019,0.015764,0.044693,-0.0078769,0.052432,0.0045329,0.022512,-0.04129,0.0035094,0.07022,-0.0063335
-0.0164,0.033297,-0.074427,0.081683,-0.035551,0.079056,0.095269,-0.02615,-0.033546,0.060526,-0.1562,-0.027522,-0.13728,0.058904,0.025919,0.079658,-0.014086,0.093186,0.010033,0.039217,-0.072516,0.0098786,0.12481,-0.025105
-0.025854,0.053486,-0.11285,0.12386,-0.052758,0.12029,0.14857,-0.040848,-0.05022,0.096076,-0.23259,-0.044837,-0.20605,0.10622,0.035708,0.12371,-0.021957,0.14393,0.019497,0.058869,-0.11012,0.022372,0.19291,-0.066932
-0.035431,0.07528,-0.14727,0.16194,-0.067099,0.15784,0.20234,-0.055525,-0.064785,0.13588,-0.29707,-0.065003,-0.26576,0.1707,0.039846,0.16744,-0.029858,0.19293,0.033532,0.075654,-0.14387,0.042238,0.25902,-0.14148
-0.042112,0.092867,-0.16364,0.18081,-0.072148,0.17699,0.24036,-0.065358,-0.071429,0.17322,-0.321,-0.084577,-0.29083,0.24468,0.032659,0.1971,-0.035393,0.2232,0.051383,0.08197,-0.15969,0.067291,0.30063,-0.25023
-0.043401,0.10045,-0.15147,0.16912,-0.063821,0.16666,0.24847,-0.065999,-0.066363,0.20221,-0.28522,-0.099986,-0.26295,0.3124,0.01184,0.20099,-0.036596,0.22063,0.070597,0.072467,-0.14646,0.090042,0.29864,-0.37944
-0.039381,0.095808,-0.11183,0.12783,-0.043901,0.12779,0.22371,-0.056405,-0.051005,0.22071,-0.19574,-0.10954,-0.1853,0.35381,-0.018333,0.17732,-0.033382,0.18372,0.087638,0.048405,-0.10405,0.098263,0.24999,-0.49957
-0.033653,0.082622,-0.059846,0.072716,-0.020474,0.075991,0.17862,-0.040384,-0.032437,0.23019,-0.086689,-0.11468,-0.08618,0.35301,-0.047377,0.13745,-0.028109,0.12775,0.099449,0.01875,-0.046382,0.079092,0.17302,-0.57531
-0.031761,0.069368,-0.017553,0.026818,-0.0038165,0.034127,0.13565,-0.025166,-0.019854,0.23217,-0.0036807,-0.11929,-0.0055407,0.30736,-0.063854,0.10074,-0.024457,0.078046,0.10514,-0.0040864,0.0044178,0.025365,0.099159,-0.58334
-0.037411,0.064538,-0.00016482,0.0062092,0.00016858,0.018257,0.1138,-0.017282,-0.018871,0.22431,0.024322,-0.12721,0.029474,0.23137,-0.062861,0.082892,-0.02499,0.054803,0.10657,-0.011964,0.03057,-0.059591,0.054266,-0.52668
-0.04905,0.071083,-0.0054096,0.0091195,-0.0058875,0.026719,0.11649,-0.018366,-0.027838,0.20054,0.0045103,-0.13963,0.022704,0.15121,-0.050368,0.085834,-0.029118,0.059808,0.10702,-0.006712,0.029529,-0.16231,0.042413,-0.43427
-0.059955,0.084172,-0.014974,0.017666,-0.012799,0.041601,0.13005,-0.024102,-0.039282,0.15636,-0.025511,-0.15414,0.005558,0.091327,-0.040316,0.097228,-0.033264,0.075791,0.1087,0.0011305,0.014794,-0.26503,0.045186,-0.34299
-0.062663,0.094432,-0.0083538,0.011937,-0.011951,0.042508,0.13478,-0.027438,-0.045573,0.095227,-0.026371,-0.16617,0.012793,0.061094,-0.045685,0.10056,-0.03346,0.080057,0.11098,0.00027495,0.0055157,-0.35287,0.037759,-0.27351
-0.054806,0.094662,0.02117,-0.01439,-0.0019681,0.02203,0.12015,-0.023769,-0.044301,0.029554,0.013324,-0.17163,0.055908,0.050982,-0.069804,0.087954,-0.028521,0.062119,0.11095,-0.012649,0.012713,-0.41731,0.0089514,-0.21745
-0.041464,0.085026,0.061427,-0.049763,0.010691,-0.0097938,0.091947,-0.014027,-0.039059,-0.025779,0.070123,-0.16902,0.11575,0.041745,-0.1045,0.065344,-0.021139,0.031028,0.1063,-0.030833,0.03272,-0.45397,-0.031345,-0.14622
-0.031469,0.072609,0.091655,-0.075344,0.017816,-0.035635,0.065885,-0.0032741,-0.035287,-0.062785,0.10702,-0.15954,0.16032,0.020355,-0.13633,0.045932,-0.015848,0.0064443,0.098083,-0.043397,0.052389,-0.45863,-0.06306,-0.035186
-0.030238,0.065593,0.099667,-0.081175,0.01689,-0.046573,0.053561,0.0038591,-0.035119,-0.084597,0.10444,-0.1457,0.17223,-0.0095945,-0.15575,0.03811,-0.015438,0.0014359,0.090841,-0.044655,0.0608,-0.4271,-0.074586,0.11536
-0.035146,0.066689,0.091391,-0.073842,0.013297,-0.049405,0.053015,0.0069041,-0.03575,-0.10087,0.074629,-0.12961,0.16217,-0.031787,-0.16192,0.038494,-0.018797,0.011975,0.089358,-0.038562,0.057393,-0.36048,-0.072094,0.27823
-0.03769,0.071123,0.084883,-0.069405,0.015383,-0.059316,0.051622,0.0094301,-0.032409,-0.11863,0.048508,-0.11195,0.1575,-0.032803,-0.16021,0.03584,-0.021923,0.021724,0.094501,-0.034663,0.050493,-0.27093,-0.071835,0.41681
-0.030858,0.070699,0.094479,-0.078668,0.026864,-0.084864,0.037906,0.015559,-0.022868,-0.13675,0.048249,-0.091945,0.17727,-0.016746,-0.15581,0.021605,-0.021054,0.016805,0.10178,-0.039453,0.048912,-0.18031,-0.083951,0.50759
-0.015302,0.06052,0.11911,-0.098234,0.043396,-0.11897,0.011355,0.026419,-0.0093934,-0.14854,0.070141,-0.06801,0.21623,-0.006006,-0.14955,-0.0027077,-0.015158,-0.0032283,0.10426,-0.050957,0.054658,-0.10985,-0.10378,0.55056
0.0011622,0.042861,0.14453,-0.11481,0.056217,-0.14393,-0.018104,0.03944,0.003298,-0.14903,0.091553,-0.038859,0.25144,-0.026037,-0.13917,-0.027737,-0.0059141,-0.027422,0.097789,-0.061121,0.062605,-0.067439,-0.11837,0.56171
0.010294,0.025203,0.15661,-0.11782,0.05936,-0.14578,-0.039493,0.050545,0.011846,-0.13963,0.093567,-0.0047678,0.2639,-0.085263,-0.12376,-0.045198,0.0041809,-0.045009,0.084155,-0.063373,0.06614,-0.04269,-0.12055,0.55601
0.010377,0.014268,0.15334,-0.10846,0.053992,-0.12549,-0.049844,0.056927,0.016374,-0.12619,0.07795,0.031569,0.25505,-0.16578,-0.1063,-0.054869,0.013443,-0.054669,0.069543,-0.05827,0.063007,-0.014941,-0.11604,0.53555
0.0072021,0.010956,0.14526,-0.097391,0.046452,-0.097736,-0.05499,0.058258,0.019434,-0.11345,0.064103,0.065399,0.24387,-0.23237,-0.091874,-0.063441,0.021043,-0.0631,0.059499,-0.052388,0.056517,0.031529,-0.11668,0.4913
0.0084329,0.01009,0.14486,-0.09452,0.042393,-0.079079,-0.062436,0.056077,0.023254,-0.10188,0.070616,0.091711,0.24861,-0.25322,-0.083577,-0.077049,0.026164,-0.075773,0.054722,-0.052035,0.052102,0.09639,-0.12746,0.41553
0.016619,0.004884,0.1552,-0.10057,0.042609,-0.075991,-0.073846,0.052555,0.027965,-0.089719,0.099064,0.10748,0.27039,-0.21674,-0.080355,-0.094995,0.027884,-0.09022,0.051152,-0.057879,0.052974,0.16397,-0.14103,0.31363
0.027186,-0.007588,0.16773,-0.10786,0.043903,-0.08234,-0.084237,0.049616,0.032139,-0.077311,0.13395,0.11275,0.29316,-0.13334,-0.078573,-0.11043,0.026255,-0.098784,0.043938,-0.065099,0.058412,0.21393,-0.14553,0.20585
0.032986,-0.024125,0.17042,-0.10839,0.043379,-0.087035,-0.087945,0.04842,0.034633,-0.068567,0.15703,0.10965,0.29844,-0.023472,-0.075264,-0.11685,0.023235,-0.097498,0.031559,-0.068263,0.065148,0.23342,-0.13782,0.11698
0.031056,-0.03786,0.15835,-0.10111,0.041586,-0.084245,-0.085031,0.048939,0.035732,-0.067999,0.16201,0.10041,0.28115,0.09571,-0.069502,-0.11395,0.021891,-0.091357,0.016624,-0.066017,0.069834,0.22305,-0.12863,0.061169
0.025384,-0.04337,0.13741,-0.092097,0.041654,-0.077548,-0.081836,0.049957,0.036614,-0.076496,0.15699,0.086142,0.2528,0.21347,-0.060791,-0.10759,0.02404,-0.090201,0.0031725,-0.061526,0.070534,0.19532,-0.13399,0.032205
0.023318,-0.040598,0.11881,-0.08821,0.045774,-0.075583,-0.08544,0.049993,0.037998,-0.090282,0.15432,0.067634,0.23088,0.31771,-0.046858,-0.10431,0.028463,-0.099246,-0.0065364,-0.058965,0.066892,0.1682,-0.16084,0.0059994
0.028965,-0.034836,0.11014,-0.09081,0.05275,-0.084108,-0.097523,0.048837,0.039573,-0.10402,0.15864,0.047219,0.22498,0.38703,-0.024044,-0.10572,0.031716,-0.11395,-0.012814,-0.059789,0.059804,0.15658,-0.20037,-0.045696
0.039521,-0.033037,0.11058,-0.095041,0.058938,-0.10144,-0.11331,0.048294,0.040786,-0.11482,0.16383,0.029653,0.23128,0.39466,0.009271,-0.10756,0.031206,-0.12447,-0.016838,-0.062049,0.051206,0.16382,-0.23501,-0.13874
0.047689,-0.03928,0.11345,-0.094649,0.061328,-0.12028,-0.12619,0.050999,0.041995,-0.1233,0.16016,0.020598,0.23816,0.32529,0.049343,-0.10392,0.027873,-0.12541,-0.018933,-0.062696,0.043595,0.17711,-0.2526,-0.26733
0.047952,-0.052535,0.1124,-0.087406,0.059648,-0.1333,-0.13333,0.05792,0.044526,-0.131,0.14375,0.023469,0.23597,0.19199,0.087413,-0.09241,0.025872,-0.12102,-0.019004,-0.060189,0.038791,0.17202,-0.25488,-0.40726
0.041237,-0.067955,0.10558,-0.076358,0.055738,-0.13731,-0.13723,0.066813,0.049366,-0.13727,0.11941,0.037014,0.22231,0.036558,0.1142,-0.076269,0.02923,-0.12086,-0.018549,-0.055049,0.036379,0.1283,-0.25342,-0.52859
0.0341,-0.080291,0.094973,-0.066427,0.051373,-0.13353,-0.14235,0.073451,0.055769,-0.13879,0.095694,0.055653,0.20008,-0.092085,0.12527,-0.061863,0.038226,-0.13013,-0.02153,-0.048464,0.033239,0.049053,-0.25786,-0.60878
0.033326,-0.086796,0.083283,-0.060039,0.04702,-0.125,-0.15047,0.075014,0.061306,-0.13235,0.07775,0.072571,0.17274,-0.1683,0.12311,-0.054174,0.048603,-0.1441,-0.032228,-0.040862,0.025158,-0.032671,-0.26743,-0.63815
0.040573,-0.08788,0.071994,-0.055715,0.0426,-0.11417,-0.15921,0.072745,0.06348,-0.11814,0.064962,0.083536,0.1423,-0.20588,0.11491,-0.053697,0.054401,-0.15206,-0.051324,-0.031994,0.0098348,-0.070155,-0.27275,-0.61684
0.051339,-0.085841,0.061979,-0.050346,0.038919,-0.10248,-0.16457,0.071293,0.061471,-0.10049,0.054227,0.088906,0.11095,-0.24545,0.10816,-0.056705,0.052225,-0.14691,-0.073794,-0.022174,-0.010902,-0.03547,-0.26482,-0.54891
0.058731,-0.083245,0.054735,-0.042423,0.0377,-0.091136,-0.1648,0.074934,0.056471,-0.085482,0.044439,0.092616,0.082458,-0.32072,0.1075,-0.058179,0.04368,-0.13147,-0.091217,-0.013063,-0.031498,0.055641,-0.24246,-0.44027
0.058643,-0.082085,0.051838,-0.033102,0.039848,-0.081537,-0.16194,0.083802,0.05055,-0.077368,0.037296,0.099077,0.060149,-0.42888,0.11408,-0.055047,0.034221,-0.11591,-0.097437,-0.0068724,-0.045531,0.14866,-0.21209,-0.3012
0.052245,-0.083587,0.052765,-0.024462,0.043764,-0.074728,-0.15992,0.093469,0.045419,-0.076442,0.034188,0.11022,0.042694,-0.52882,0.12659,-0.047538,0.029372,-0.10906,-0.093302,-0.0045004,-0.048905,0.18541,-0.1815,-0.14866
0.044306,-0.087863,0.053688,-0.017115,0.045748,-0.070689,-0.16135,0.098395,0.042233,-0.07956,0.033075,0.12463,0.02272,-0.56934,0.14233,-0.038041,0.031094,-0.11152,-0.086484,-0.0042795,-0.041271,0.14447,-0.15441,-0.0029754
0.039304,-0.093408,0.049355,-0.0096918,0.042557,-0.068528,-0.16586,0.096394,0.042136,-0.082572,0.029015,0.1391,-0.0089711,-0.52568,0.15803,-0.028682,0.036822,-0.11651,-0.086138,-0.0026217,-0.025291,0.055225,-0.13046,0.12021
0.038684,-0.097345,0.037105,-0.00062141,0.03396,-0.067552,-0.17108,0.090292,0.046244,-0.082913,0.018003,0.15101,-0.056271,-0.4161,0.17092,-0.019666,0.041757,-0.11682,-0.096313,0.0037015,-0.005152,-0.025972,-0.10906,0.21636
0.041019,-0.097136,0.01952,0.0098107,0.023041,-0.068205,-0.17502,0.085365,0.054453,-0.080831,0.00038766,0.1599,-0.11393,-0.28688,0.17997,-0.0098093,0.042723,-0.11128,-0.1132,0.015323,0.014327,-0.058772,-0.09191,0.29102
0.044205,-0.092944,0.0030027,0.019365,0.014001,-0.071862,-0.17739,0.084797,0.064194,-0.078632,-0.019339,0.16696,-0.17076,-0.17961,0.18642,0.0011636,0.04075,-0.10516,-0.12832,0.029834,0.028067,-0.047087,-0.081125,0.35241
0.047316,-0.088527,-0.0069375,0.025937,0.0093492,-0.079554,-0.17894,0.08705,0.07087,-0.078468,-0.03604,0.17336,-0.21748,-0.1078,0.19251,0.010587,0.040286,-0.10466,-0.135,0.043494,0.031688,-0.031665,-0.075392,0.40441
0.050664,-0.089239,-0.0099429,0.029765,0.0086098,-0.090625,-0.17998,0.087312,0.070477,-0.080212,-0.047426,0.17881,-0.25247,-0.059174,0.1995,0.013179,0.045385,-0.11094,-0.13306,0.053708,0.023386,-0.055566,-0.068965,0.4458
0.054542,-0.098038,-0.011092,0.033488,0.0090648,-0.10242,-0.17968,0.081662,0.062689,-0.08116,-0.054649,0.18162,-0.28095,-0.017153,0.20643,0.0039706,0.055749,-0.11886,-0.12823,0.060287,0.0054129,-0.13152,-0.055551,0.47475
0.058257,-0.11254,-0.016995,0.03977,0.0074681,-0.11134,-0.1771,0.07034,0.051801,-0.078196,-0.060093,0.18023,-0.30888,0.020128,0.21113,-0.018186,0.06605,-0.12113,-0.12703,0.064573,-0.01665,-0.23533,-0.033763,0.49223
0.060434,-0.12578,-0.030851,0.048656,0.0014774,-0.11461,-0.17257,0.057519,0.044369,-0.070965,-0.064935,0.17479,-0.33733,0.039395,0.21236,-0.049279,0.069666,-0.11409,-0.13157,0.06748,-0.037026,-0.32565,-0.0087798,0.49988
0.060165,-0.13053,-0.050245,0.057177,-0.0095072,-0.11164,-0.16771,0.048043,0.044987,-0.06324,-0.068801,0.16755,-0.36204,0.027325,0.21124,-0.082152,0.064164,-0.10015,-0.13806,0.068493,-0.053179,-0.37023,0.011793,0.49452
0.057791,-0.12423,-0.069085,0.061779,-0.023833,-0.10422,-0.16372,0.044081,0.05321,-0.060658,-0.071364,0.16164,-0.37779,-0.015517,0.21052,-0.11046,0.053871,-0.085493,-0.14006,0.066724,-0.06685,-0.3582,0.02432,0.46669
0.054737,-0.11068,-0.081816,0.061561,-0.0376,-0.095169,-0.15956,0.044322,0.063804,-0.065997,-0.073783,0.15906,-0.38296,-0.07495,0.21241,-0.13178,0.046866,-0.075365,-0.13325,0.063051,-0.08181,-0.29456,0.032015,0.4073
0.052737,-0.097487,-0.086677,0.059466,-0.045906,-0.086248,-0.1522,0.045869,0.070092,-0.07579,-0.078174,0.15946,-0.38046,-0.13529,0.21693,-0.148,0.048456,-0.070978,-0.1184,0.061041,-0.10018,-0.18911,0.041775,0.31858
0.053096,-0.091017,-0.08601,0.060246,-0.045462,-0.076324,-0.13923,0.046692,0.068009,-0.08164,-0.085533,0.16048,-0.37482,-0.18991,0.22201,-0.16309,0.056623,-0.069975,-0.10062,0.065257,-0.12023,-0.052587,0.057972,0.21981
0.056184,-0.092749,-0.084109,0.066765,-0.037089,-0.060996,-0.12167,0.046439,0.058213,-0.075994,-0.094236,0.15949,-0.36867,-0.24053,0.22514,-0.18017,0.063576,-0.069051,-0.086219,0.077948,-0.13727,0.099377,0.07878,0.1411
0.06102,-0.099221,-0.084619,0.077672,-0.025834,-0.034363,-0.10404,0.045262,0.045135,-0.058142,-0.10087,0.15532,-0.36175,-0.28808,0.22486,-0.1996,0.062257,-0.065998,-0.079475,0.096834,-0.14675,0.24405,0.09798,0.10749
0.065216,-0.1052,-0.089153,0.088397,-0.017786,0.0074788,-0.091203,0.042309,0.033955,-0.035426,-0.10294,0.1488,-0.35239,-0.32662,0.22112,-0.2188,0.05217,-0.059859,-0.081115,0.1161,-0.14707,0.3586,0.11024,0.12374
0.065931,-0.10742,-0.097381,0.094726,-0.015527,0.062929,-0.084477,0.035635,0.027649,-0.018207,-0.10122,0.1419,-0.33954,-0.34704,0.21472,-0.23356,0.039444,-0.05021,-0.088716,0.1301,-0.14023,0.43163,0.11514,0.17063
0.061892,-0.1063,-0.10783,0.096077,-0.015908,0.12371,-0.080683,0.023742,0.025903,-0.012241,-0.099389,0.13629,-0.32315,-0.3465,0.20647,-0.24013,0.031245,-0.037236,-0.098327,0.13697,-0.13011,0.46784,0.11686,0.21537
0.055068,-0.10474,-0.11871,0.095855,-0.012457,0.1775,-0.075234,0.0072836,0.02621,-0.014524,-0.10113,0.1324,-0.30334,-0.33287,0.19702,-0.23714,0.029736,-0.022703,-0.10642,0.13922,-0.12001,0.47946,0.12054,0.22948
0.050039,-0.10513,-0.12853,0.098626,-0.0010049,0.21357,-0.066563,-0.010755,0.02596,-0.015936,-0.1069,0.12941,-0.27984,-0.31903,0.18674,-0.22639,0.030954,-0.01013,-0.11145,0.14107,-0.11103,0.47201,0.12853,0.20235
0.050672,-0.10713,-0.13657,0.10643,0.015912,0.22811,-0.057676,-0.02676,0.023877,-0.0084472,-0.11311,0.12591,-0.25284,-0.312,0.17563,-0.21202,0.029195,-0.0028695,-0.11431,0.14478,-0.10237,0.4381,0.13922,0.14247
0.056481,-0.10773,-0.14307,0.11716,0.029774,0.22603,-0.053149,-0.038822,0.020017,0.0090786,-0.11459,0.12068,-0.22423,-0.3072,0.16298,-0.19821,0.022394,-0.0010859,-0.11735,0.14914,-0.092879,0.36659,0.14852,0.067114
0.062166,-0.10392,-0.14877,0.12615,0.031811,0.21786,-0.054194,-0.047954,0.014868,0.030966,-0.10836,0.1131,-0.19771,-0.29281,0.14767,-0.18672,0.013408,-0.00047435,-0.12232,0.15131,-0.082537,0.25933,0.15234,-0.011497
0.061524,-0.095727,-0.15418,0.12959,0.019443,0.21447,-0.056563,-0.057272,0.008768,0.04991,-0.095657,0.10326,-0.17689,-0.25961,0.129,-0.17588,0.0063445,0.0054309,-0.12871,0.1501,-0.072669,0.14032,0.14867,-0.093404
0.052834,-0.087218,-0.15917,0.127,-0.0016827,0.22315,-0.053649,-0.069659,0.0021978,0.062281,-0.080566,0.09205,-0.16274,-0.20754,0.10759,-0.16169,0.0019553,0.020615,-0.13375,0.14751,-0.064832,0.047481,0.13845,-0.18664
0.040909,-0.083999,-0.16322,0.12109,-0.021679,0.24702,-0.042336,-0.085421,-0.0036744,0.069146,-0.066612,0.080772,-0.1525,-0.14405,0.085325,-0.14043,-0.0031284,0.043219,-0.13407,0.14721,-0.059242,0.012116,0.12528,-0.29455
0.03355,-0.088887,-0.16618,0.1156,-0.033164,0.28645,-0.026318,-0.10151,-0.0072693,0.073113,-0.054453,0.070643,-0.14117,-0.078104,0.064271,-0.11071,-0.012482,0.066309,-0.12787,0.15129,-0.054102,0.040997,0.11366,-0.40401
0.035149,-0.099031,-0.16864,0.11288,-0.035443,0.33968,-0.013527,-0.113,-0.007816,0.074966,-0.042562,0.062219,-0.12464,-0.016094,0.045375,-0.073966,-0.025251,0.082319,-0.11585,0.15846,-0.046487,0.11342,0.10654,-0.48418
0.042999,-0.10711,-0.1717,0.11286,-0.03328,0.40159,-0.0095081,-0.11608,-0.0063372,0.073665,-0.029905,0.055296,-0.10226,0.037436,0.028202,-0.03321,-0.035657,0.087797,-0.10052,0.16521,-0.034252,0.19401,0.10353,-0.49925
0.04956,-0.10606,-0.17613,0.11366,-0.032092,0.46294,-0.012318,-0.1108,-0.0051059,0.06926,-0.017678,0.049382,-0.077083,0.07744,0.011859,0.0084387,-0.037658,0.084995,-0.084764,0.16877,-0.017537,0.25139,0.10144,-0.42921
0.048627,-0.093996,-0.18177,0.1128,-0.034098,0.51244,-0.013475,-0.10146,-0.0057543,0.065001,-0.0082685,0.044284,-0.05364,0.098933,-0.0038889,0.048307,-0.030689,0.07945,-0.070862,0.16889,0.001339,0.27078,0.097282,-0.2858
0.039974,-0.075455,-0.18752,0.10836,-0.038331,0.54166,-0.0044431,-0.094252,-0.0078113,0.065764,-0.0025165,0.040162,-0.03506,0.10071,-0.01846,0.083712,-0.021017,0.075811,-0.06043,0.16712,0.019555,0.2552,0.091575,-0.11184
0.028648,-0.058234,-0.19172,0.099865,-0.043455,0.54906,0.016619,-0.093369,-0.0093105,0.073903,0.0017609,0.036967,-0.021316,0.087932,-0.031334,0.11161,-0.016996,0.07519,-0.054509,0.16433,0.035732,0.21784,0.088892,0.03817
0.020068,-0.048134,-0.19282,0.088645,-0.049871,0.53939,0.043365,-0.098627,-0.0091062,0.08666,0.0082219,0.033884,-0.0097138,0.069914,-0.042925,0.12936,-0.02215,0.075743,-0.053238,0.15934,0.05062,0.17267,0.094654,0.12596
0.015569,-0.045486,-0.19021,0.077617,-0.058957,0.51848,0.066195,-0.10627,-0.0086283,0.098067,0.018733,0.029508,0.002962,0.054244,-0.054429,0.13649,-0.032226,0.075518,-0.055338,0.14994,0.06607,0.12915,0.1104,0.14838
0.012113,-0.045633,-0.18484,0.069928,-0.070639,0.48785,0.079497,-0.11249,-0.011107,0.10403,0.031561,0.022748,0.01824,0.042717,-0.066753,0.13583,-0.039062,0.074856,-0.05829,0.13517,0.083222,0.092518,0.13148,0.13502
0.0057941,-0.042538,-0.1792,0.066909,-0.082339,0.44428,0.085323,-0.11669,-0.018722,0.10605,0.04296,0.013642,0.035167,0.032704,-0.079552,0.13271,-0.038015,0.076324,-0.059611,0.11656,0.10136,0.067086,0.14945,0.12611
-0.0044068,-0.032686,-0.1762,0.066676,-0.09076,0.38482,0.09079,-0.1219,-0.030277,0.11006,0.050861,0.0033119,0.051259,0.022171,-0.091217,0.13218,-0.032402,0.082433,-0.058472,0.096994,0.11817,0.058227,0.15756,0.14604
-0.015866,-0.016755,-0.17712,0.064838,-0.094794,0.31298,0.10177,-0.13175,-0.041673,0.12105,0.057291,-0.0068785,0.064287,0.012808,-0.099655,0.13609,-0.03098,0.093346,-0.056274,0.078254,0.13103,0.070593,0.1552,0.19069
-0.024712,0.0016018,-0.18023,0.057295,-0.096472,0.23995,0.11828,-0.1467,-0.048831,0.13804,0.067159,-0.016112,0.073541,0.0079752,-0.10315,0.14219,-0.040607,0.10663,-0.055465,0.059714,0.13818,0.10349,0.14802,0.23582
-0.028904,0.018505,-0.18137,0.043271,-0.098826,0.17899,0.13511,-0.16268,-0.050486,0.15367,0.084215,-0.024149,0.079805,0.0078654,-0.10094,0.14604,-0.060387,0.11898,-0.05739,0.039444,0.13941,0.14761,0.14361,0.25833
-0.029448,0.032074,-0.17642,0.026143,-0.1027,0.13704,0.14663,-0.17329,-0.04853,0.15902,0.10752,-0.030829,0.084297,0.0074417,-0.093748,0.14424,-0.082154,0.12792,-0.060913,0.016871,0.13619,0.18717,0.14631,0.25326
-0.029181,0.042745,-0.16411,0.011222,-0.10575,0.11058,0.15124,-0.17401,-0.045987,0.15024,0.13143,-0.035876,0.08752,-0.00010795,-0.08427,0.13649,-0.096579,0.1319,-0.063101,-0.0053543,0.13136,0.20766,0.15476,0.23416
-0.030547,0.051781,-0.14688,0.0021023,-0.1047,0.089413,0.15178,-0.16495,-0.044714,0.13186,0.14934,-0.0394,0.088821,-0.01744,-0.077013,0.12497,-0.099596,0.12927,-0.061593,-0.021964,0.1284,0.20426,0.16355,0.21922
-0.034154,0.059399,-0.12939,-0.0015645,-0.098649,0.065481,0.15214,-0.15036,-0.044706,0.1143,0.15838,-0.042487,0.086904,-0.040424,-0.076495,0.11193,-0.094172,0.11848,-0.056691,-0.027856,0.1299,0.18468,0.16725,0.21596
-0.038882,0.064209,-0.11576,-0.0032491,-0.090181,0.039592,0.15378,-0.1356,-0.044983,0.10695,0.16141,-0.046884,0.080925,-0.061434,-0.084296,0.097934,-0.08682,0.10037,-0.051259,-0.021133,0.13587,0.1635,0.16354,0.21728
-0.043048,0.064557,-0.1075,-0.0065791,-0.082994,0.020217,0.15528,-0.12406,-0.044688,0.11176,0.16481,-0.053671,0.071502,-0.075465,-0.097164,0.082407,-0.082532,0.080397,-0.048179,-0.0044095,0.14316,0.15221,0.15359,0.20985
-0.045633,0.060654,-0.1033,-0.012769,-0.07844,0.015235,0.15473,-0.11626,-0.043398,0.12172,0.17336,-0.062068,0.060921,-0.083476,-0.10845,0.06615,-0.082267,0.067337,-0.047387,0.016196,0.14687,0.15221,0.13992,0.18559
-0.04685,0.055478,-0.10015,-0.020341,-0.074339,0.023425,0.15217,-0.11129,-0.040987,0.1258,0.18641,-0.069711,0.052174,-0.090324,-0.11271,0.053053,-0.08416,0.067447,-0.04525,0.033455,0.14346,0.15619,0.12406,0.14545
-0.047855,0.053247,-0.095175,-0.026939,-0.06731,0.033055,0.14927,-0.10876,-0.03779,0.117,0.1982,-0.074462,0.04721,-0.099791,-0.11022,0.048827,-0.086277,0.078379,-0.037355,0.041277,0.13333,0.15575,0.10594,0.093785
-0.049908,0.056448,-0.086996,-0.031421,-0.056397,0.029161,0.14701,-0.10968,-0.035025,0.097762,0.20247,-0.076214,0.045561,-0.11141,-0.1073,0.057051,-0.088122,0.088902,-0.022799,0.035887,0.12068,0.14857,0.085405,0.030838
-0.053542,0.06396,-0.076488,-0.034593,-0.044437,0.0038944,0.14415,-0.11551,-0.034533,0.078407,0.19776,-0.076962,0.044542,-0.1214,-0.11174,0.075571,-0.090077,0.086566,-0.0062788,0.016032,0.11055,0.13902,0.064044,-0.047835
-0.05832,0.072163,-0.066282,-0.038356,-0.035767,-0.038338,0.13857,-0.12645,-0.037386,0.069429,0.18904,-0.078981,0.041171,-0.12597,-0.12676,0.09651,-0.092136,0.068001,0.0043947,-0.017116,0.10505,0.13251,0.045368,-0.14384
-0.063398,0.078356,-0.058954,-0.044254,-0.032404,-0.084903,0.13005,-0.14025,-0.042362,0.073436,0.18404,-0.082781,0.034428,-0.12367,-0.14872,0.11042,-0.093581,0.042938,0.0040124,-0.060008,0.102,0.12929,0.032679,-0.24781
-0.068444,0.083515,-0.054694,-0.052511,-0.032306,-0.12447,0.12124,-0.15242,-0.046028,0.083102,0.1871,-0.086772,0.026011,-0.11533,-0.17042,0.11167,-0.093752,0.027391,-0.005493,-0.10698,0.097082,0.12349,0.026307,-0.33907
-0.074068,0.091605,-0.050225,-0.061957,-0.031321,-0.154,0.11525,-0.15787,-0.044995,0.086928,0.19549,-0.088974,0.018874,-0.10288,-0.18715,0.10118,-0.092703,0.030879,-0.015652,-0.1513,0.08772,0.10789,0.022779,-0.39448
-0.081195,0.10555,-0.040447,-0.070602,-0.026936,-0.17786,0.112,-0.1531,-0.038773,0.078216,0.20141,-0.089103,0.014719,-0.088831,-0.19983,0.084506,-0.090793,0.048397,-0.01721,-0.18691,0.075592,0.07988,0.01712,-0.39977
-0.089735,0.12311,-0.022287,-0.076523,-0.020317,-0.20093,0.10728,-0.13808,-0.030666,0.059929,0.19796,-0.089014,0.012542,-0.07631,-0.21285,0.067329,-0.087708,0.064231,-0.0067199,-0.2102,0.065572,0.043255,0.0067503,-0.35499
-0.09779,0.13666,0.0019597,-0.078775,-0.01496,-0.22286,0.09617,-0.11657,-0.025627,0.04157,0.18414,-0.090993,0.0093487,-0.068381,-0.22897,0.051664,-0.082266,0.06449,0.011261,-0.22059,0.062097,0.0048563,-0.0062604,-0.27163
-0.10241,0.13795,0.024866,-0.07797,-0.01352,-0.23896,0.077775,-0.094605,-0.026571,0.031004,0.1649,-0.095483,0.0023624,-0.066064,-0.24638,0.035519,-0.073558,0.047582,0.02811,-0.21961,0.06587,-0.030445,-0.016618,-0.16555
-0.10163,0.12473,0.038266,-0.076171,-0.015926,-0.24638,0.056812,-0.077571,-0.032143,0.028234,0.14646,-0.10033,-0.008975,-0.066909,-0.26071,0.015564,-0.062351,0.024034,0.037964,-0.20954,0.073353,-0.062121,-0.019915,-0.05151
-0.09619,0.10389,0.038986,-0.075959,-0.02026,-0.24905,0.040067,-0.067497,-0.037778,0.026206,0.13139,-0.10236,-0.022438,-0.06644,-0.26961,-0.0094706,-0.051073,0.0067153,0.041912,-0.19261,0.079107,-0.092611,-0.01606,0.058649
-0.089266,0.087921,0.031557,-0.079102,-0.024964,-0.25594,0.030912,-0.062276,-0.039188,0.017488,0.1174,-0.099846,-0.033898,-0.062151,-0.27535,-0.036927,-0.041994,0.00072604,0.046365,-0.17144,0.078954,-0.12471,-0.0092339,0.15607
-0.084137,0.086458,0.025503,-0.085556,-0.029825,-0.27402,0.026948,-0.057394,-0.035483,0.00089705,0.10067,-0.093946,-0.038951,-0.056476,-0.28274,-0.060686,-0.035197,0.0014218,0.057302,-0.14964,0.071759,-0.16066,-0.0045502,0.23553
-0.081724,0.099047,0.028946,-0.093425,-0.034867,-0.30237,0.022883,-0.049033,-0.029538,-0.017374,0.080242,-0.08782,-0.034651,-0.054984,-0.2942,-0.073468,-0.028465,0.00088225,0.075219,-0.13129,0.059153,-0.20327,-0.004285,0.29594
-0.080212,0.11507,0.043229,-0.099913,-0.038759,-0.33337,0.015631,-0.036365,-0.025511,-0.028643,0.059629,-0.084416,-0.020977,-0.060246,-0.30661,-0.069899,-0.019488,-0.0042956,0.094628,-0.11897,0.044099,-0.25624,-0.0066697,0.33876
-0.077234,0.12145,0.062607,-0.10284,-0.038922,-0.35965,0.0066347,-0.021538,-0.025578,-0.028323,0.044487,-0.084737,-0.0015243,-0.06664,-0.31264,-0.04926,-0.0083621,-0.010939,0.10797,-0.11202,0.029601,-0.32117,-0.0078444,0.36416
-0.072649,0.11255,0.079128,-0.10201,-0.033564,-0.38036,-0.00055783,-0.0076569,-0.028398,-0.019022,0.038475,-0.087792,0.017212,-0.061871,-0.30538,-0.016752,0.0021786,-0.013617,0.11059,-0.10696,0.018072,-0.39189,-0.0049855,0.3686
-0.069148,0.094416,0.088813,-0.099564,-0.02359,-0.40067,-0.0045519,0.0034208,-0.0303,-0.0082501,0.040742,-0.091842,0.028157,-0.035746,-0.28233,0.017651,0.0092953,-0.010083,0.10311,-0.10029,0.011046,-0.45074,0.0019796,0.34712
-0.069809,0.079855,0.094268,-0.099005,-0.012258,-0.42519,-0.0076252,0.011784,-0.028121,-0.0030771,0.046715,-0.09556,0.02671,0.010135,-0.2462,0.042769,0.012993,-0.0026277,0.090316,-0.091659,0.0088485,-0.4721,0.011056,0.29949
-0.074657,0.078044,0.10183,-0.10296,-0.0026104,-0.45176,-0.013109,0.018441,-0.021513,-0.0059529,0.051188,-0.098223,0.01289,0.060099,-0.20274,0.050712,0.0165,0.0049248,0.077916,-0.084474,0.010324,-0.43443,0.02013,0.23516
-0.079539,0.08725,0.11571,-0.11107,0.0050077,-0.47177,-0.021747,0.023881,-0.013128,-0.014388,0.051222,-0.099255,-0.0087511,0.092766,-0.15828,0.039864,0.023471,0.010602,0.069724,-0.083126,0.013084,-0.33515,0.028263,0.17161
-0.078772,0.096592,0.13404,-0.11962,0.013035,-0.47697,-0.031167,0.027705,-0.0067152,-0.023923,0.047012,-0.098119,-0.031467,0.094733,-0.11848,0.014573,0.034596,0.01455,0.066507,-0.089019,0.014428,-0.19802,0.03542,0.12635
-0.069674,0.095273,0.15001,-0.1237,0.02422,-0.46643,-0.039035,0.029553,-0.0046364,-0.031552,0.040645,-0.094925,-0.049504,0.06962,-0.087912,-0.018194,0.046895,0.016657,0.066533,-0.098978,0.012497,-0.065045,0.041295,0.10835
-0.055114,0.081392,0.15707,-0.1206,0.038709,-0.4471,-0.046271,0.030167,-0.0065485,-0.036971,0.03409,-0.09102,-0.060366,0.035715,-0.069177,-0.052876,0.05644,0.014952,0.067133,-0.10765,0.0069432,0.025029,0.044669,0.11518
-0.041745,0.062995,0.15394,-0.11194,0.053177,-0.42717,-0.056439,0.031259,-0.010048,-0.041195,0.027933,-0.088509,-0.065086,0.014087,-0.061477,-0.087275,0.061819,0.0070994,0.066476,-0.11196,-0.0011583,0.058828,0.044046,0.13721
-0.035148,0.050799,0.14534,-0.10258,0.062704,-0.40821,-0.071524,0.034109,-0.012593,-0.044322,0.021465,-0.088659,-0.066706,0.016095,-0.060242,-0.12126,0.064932,-0.0063494,0.064771,-0.11377,-0.0098524,0.05501,0.03899,0.16413
-0.035861,0.049131,0.13807,-0.096881,0.063985,-0.38295,-0.088476,0.03826,-0.01319,-0.04469,0.013718,-0.090498,-0.06809,0.039088,-0.059262,-0.15359,0.068362,-0.020509,0.064174,-0.11823,-0.016817,0.049271,0.030852,0.18841
-0.039447,0.052794,0.13603,-0.095268,0.057555,-0.34099,-0.10055,0.041721,-0.012639,-0.040273,0.0044518,-0.091125,-0.070408,0.072176,-0.054473,-0.17958,0.072084,-0.028624,0.06726,-0.12921,-0.01974,0.067702,0.022137,0.20431
-0.040381,0.052177,0.13819,-0.094056,0.047565,-0.27759,-0.10282,0.04269,-0.012367,-0.031025,-0.0056092,-0.08787,-0.073066,0.10622,-0.046492,-0.19189,0.072948,-0.026795,0.075005,-0.14552,-0.016819,0.10848,0.015057,0.20655
-0.036339,0.041822,0.14087,-0.088684,0.03938,-0.19863,-0.096963,0.041191,-0.012986,-0.01994,-0.015338,-0.080681,-0.074874,0.13981,-0.039559,-0.18416,0.067646,-0.017006,0.085833,-0.16098,-0.0075186,0.14598,0.010524,0.19236
-0.029463,0.025108,0.14151,-0.07776,0.036557,-0.11798,-0.090593,0.038967,-0.013854,-0.011594,-0.023964,-0.072666,-0.075476,0.17754,-0.037522,-0.15515,0.056272,-0.0057636,0.096656,-0.16821,0.0068101,0.15352,0.0083193,0.16625
-0.023954,0.01145,0.1403,-0.064509,0.038999,-0.049977,-0.091387,0.037603,-0.013935,-0.0090979,-0.031408,-0.068099,-0.075897,0.22386,-0.040225,-0.11036,0.042928,0.00065822,0.10514,-0.163,0.023048,0.12577,0.0078931,0.14184
-0.022498,0.0087876,0.13858,-0.054487,0.043327,-0.0026207,-0.10089,0.036677,-0.013031,-0.011921,-0.038027,-0.069303,-0.077712,0.27887,-0.043363,-0.059779,0.03262,0.00059275,0.11128,-0.1462,0.037385,0.082754,0.0087002,0.13623
-0.024593,0.017608,0.13636,-0.05148,0.045184,0.024304,-0.11327,0.033841,-0.012102,-0.016548,-0.04418,-0.07478,-0.081472,0.33943,-0.041784,-0.01302,0.027346,-0.0024441,0.11698,-0.12237,0.04683,0.053446,0.0097494,0.15887
-0.027742,0.030938,0.13183,-0.054869,0.042027,0.036263,-0.12001,0.026931,-0.012291,-0.019619,-0.050138,-0.080073,-0.085657,0.4034,-0.033212,0.02494,0.02502,-0.0032727,0.12401,-0.096744,0.050319,0.05379,0.009272,0.20306
-0.029818,0.03964,0.12371,-0.06029,0.034623,0.039492,-0.11662,0.016185,-0.013597,-0.020997,-0.056414,-0.080726,-0.08716,0.47165,-0.019263,0.054772,0.022162,0.00022212,0.13228,-0.072931,0.0489,0.077387,0.0055587,0.24823
-0.030246,0.038538,0.11362,-0.062754,0.026224,0.038171,-0.10578,0.0043884,-0.014614,-0.023932,-0.064059,-0.075174,-0.083154,0.5455,-0.0033908,0.08016,0.01768,0.0048851,0.1399,-0.052485,0.045079,0.10453,-0.0013553,0.2732
-0.029299,0.028955,0.1056,-0.059752,0.020021,0.034196,-0.094589,-0.0053644,-0.013763,-0.031791,-0.074426,-0.065546,-0.073044,0.62221,0.011919,0.10375,0.014094,0.0043563,0.14452,-0.035747,0.041714,0.11938,-0.0089074,0.27147
-0.026858,0.01655,0.1027,-0.052278,0.01682,0.028378,-0.088253,-0.012262,-0.010957,-0.043923,-0.08834,-0.056,-0.058982,0.69363,0.026124,0.12479,0.015062,-0.0060348,0.14454,-0.0229,0.040822,0.11992,-0.013525,0.25665
-0.022346,0.006837,0.1038,-0.043531,0.014785,0.021488,-0.085668,-0.018235,-0.0080428,-0.054465,-0.10523,-0.049994,-0.044378,0.74975,0.039471,0.14009,0.02153,-0.025096,0.13886,-0.014531,0.042604,0.11404,-0.013641,0.25265
-0.015963,0.001897,0.10379,-0.036568,0.011467,0.014387,-0.080435,-0.0256,-0.007423,-0.055894,-0.12287,-0.048502,-0.03133,0.78396,0.051512,0.14712,0.030098,-0.045455,0.12617,-0.011647,0.045126,0.10823,-0.011478,0.27531
-0.0096345,0.00029493,0.097551,-0.032525,0.0064173,0.0075333,-0.066556,-0.033751,-0.010008,-0.045035,-0.13792,-0.050191,-0.018892,0.79507,0.061037,0.14652,0.035078,-0.057623,0.1052,-0.015271,0.045051,0.10081,-0.011484,0.31919
-0.0062117,-0.0004859,0.08427,-0.030379,0.0020573,0.0005071,-0.044055,-0.037705,-0.01438,-0.02663,-0.14708,-0.052971,-0.0036403,0.78467,0.067261,0.1416,0.03247,-0.055895,0.076426,-0.025627,0.039301,0.084999,-0.016282,0.36004
-0.0072684,-0.0014538,0.068467,-0.028129,0.0019092,-0.0079246,-0.01983,-0.029851,-0.017985,-0.010899,-0.14836,-0.055487,0.017627,0.75363,0.070745,0.13527,0.022503,-0.042133,0.043646,-0.04109,0.026781,0.057306,-0.023654,0.37133
-0.011569,-0.001453,0.056765,-0.02449,0.0075408,-0.019037,-0.0029989,-0.0036583,-0.019264,-0.0063528,-0.14221,-0.057555,0.044997,0.70234,0.073063,0.12729,0.0089221,-0.024786,0.013322,-0.057592,0.0090435,0.021991,-0.027605,0.34236
-0.015908,0.0012867,0.053072,-0.019895,0.016765,-0.032901,0.0015103,0.043218,-0.018747,-0.013451,-0.13184,-0.059677,0.074672,0.63495,0.075851,0.11456,-0.0039514,-0.013713,-0.0087055,-0.069349,-0.010581,-0.012387,-0.023079,0.28412
-0.017838,0.0069733,0.055969,-0.016076,0.024687,-0.047359,-0.0039414,0.10818,-0.018102,-0.024477,-0.12249,-0.062407,0.10117,0.56221,0.080463,0.094506,-0.013664,-0.014312,-0.020719,-0.071111,-0.02871,-0.040458,-0.01048,0.21929
-0.017818,0.013484,0.060151,-0.014532,0.026943,-0.058183,-0.011976,0.18487,-0.018084,-0.030027,-0.11931,-0.066037,0.12096,0.49802,0.088328,0.068721,-0.019805,-0.024804,-0.025742,-0.060912,-0.043263,-0.064279,0.0039633,0.16511
-0.018648,0.017763,0.060486,-0.015132,0.02275,-0.06103,-0.015437,0.26468,-0.017402,-0.026775,-0.1247,-0.070484,0.13473,0.45098,0.10079,0.043152,-0.022505,-0.038225,-0.028467,-0.041579,-0.053721,-0.09107,0.012552,0.12311
-0.022509,0.018209,0.055491,-0.016075,0.015543,-0.054505,-0.011252,0.33748,-0.013653,-0.019893,-0.13693,-0.075127,0.14638,0.41818,0.11759,0.024011,-0.021269,-0.04733,-0.031056,-0.019932,-0.060575,-0.12766,0.01175,0.082826
-0.028286,0.015869,0.047804,-0.015339,0.010764,-0.042302,-0.00055567,0.39238,-0.0056049,-0.018089,-0.15112,-0.07879,0.15976,0.38799,0.13525,0.012548,-0.01543,-0.048908,-0.031616,-0.0041429,-0.06477,-0.17712,0.0045948,0.034783
-0.031846,0.013242,0.041683,-0.012343,0.012309,-0.032251,0.013687,0.41991,0.0051669,-0.025651,-0.16243,-0.080298,0.1757,0.35062,0.1476,0.0033793,-0.005532,-0.044837,-0.02673,-0.00092411,-0.067523,-0.23943,-0.0019193,-0.019282
-0.029336,0.011611,0.039625,-0.0083187,0.01995,-0.032019,0.028708,0.41593,0.014776,-0.038501,-0.16889,-0.079518,0.19192,0.30718,0.14938,-0.011529,0.0060911,-0.039759,-0.01553,-0.013955,-0.070179,-0.31302,-0.0022519,-0.067348
-0.020695,0.0093767,0.040595,-0.0049872,0.02934,-0.04394,0.042231,0.38508,0.01939,-0.04759,-0.17183,-0.07802,0.20546,0.26884,0.14043,-0.035872,0.016396,-0.037422,-0.0012049,-0.043647,-0.073663,-0.39317,0.0037337,-0.09737
-0.010181,0.0032471,0.040975,-0.0028005,0.034544,-0.062759,0.052095,0.34034,0.017737,-0.046493,-0.17371,-0.078451,0.21528,0.24643,0.12649,-0.064559,0.023474,-0.038207,0.01178,-0.087324,-0.077736,-0.46742,0.011094,-0.10736
-0.0032295,-0.0083183,0.037387,-0.00047621,0.031552,-0.078209,0.056841,0.29766,0.011952,-0.036593,-0.17557,-0.082714,0.22266,0.23972,0.11536,-0.085698,0.027458,-0.039281,0.022155,-0.13919,-0.080838,-0.51377,0.013793,-0.10694
-0.0022599,-0.022266,0.029301,0.0036408,0.020665,-0.080728,0.057148,0.26809,0.0062276,-0.025689,-0.17641,-0.090279,0.22928,0.23663,0.11104,-0.088008,0.029784,-0.037014,0.033394,-0.19065,-0.081118,-0.50708,0.0091336,-0.10985
-0.0051011,-0.031574,0.019567,0.0096529,0.0063082,-0.066161,0.056288,0.25275,0.0042642,-0.021724,-0.175,-0.098086,0.23518,0.22305,0.11118,-0.068397,0.031689,-0.029907,0.050191,-0.2321,-0.078158,-0.43312,-0.00054435,-0.12436
-0.0074064,-0.029584,0.012458,0.015532,-0.0055532,-0.036436,0.058318,0.24442,0.0072002,-0.027152,-0.17187,-0.10228,0.23865,0.19448,0.11008,-0.034287,0.033456,-0.020019,0.07269,-0.25625,-0.074033,-0.30157,-0.0097877,-0.14858
-0.0068341,-0.015082,0.010615,0.018598,-0.010752,0.0032888,0.065069,0.23483,0.013233,-0.038153,-0.1694,-0.10053,0.238,0.15893,0.10415,0.00076052,0.034906,-0.011862,0.093913,-0.26147,-0.072521,-0.14722,-0.01383,-0.17286
-0.0051413,0.0059104,0.013091,0.017802,-0.0088783,0.047753,0.074635,0.22187,0.018928,-0.048321,-0.1699,-0.093165,0.23332,0.12885,0.094688,0.024763,0.036274,-0.0094848,0.10345,-0.25253,-0.076577,-0.015411,-0.011419,-0.18588
-0.0062387,0.023446,0.016005,0.014739,-0.0027295,0.092443,0.082988,0.21087,0.021214,-0.053023,-0.17358,-0.082492,0.22631,0.10968,0.08536,0.033002,0.038262,-0.013734,0.094885,-0.23789,-0.085715,0.061014,-0.004872,-0.17974
-0.011996,0.029965,0.015415,0.012431,0.0041254,0.13254,0.087454,0.20888,0.018834,-0.051115,-0.17841,-0.071085,0.21853,0.095341,0.077289,0.028316,0.041083,-0.021594,0.070783,-0.22496,-0.095388,0.078361,0.0022522,-0.15231
-0.019738,0.025034,0.010333,0.012985,0.0097536,0.16246,0.088994,0.21684,0.012637,-0.043934,-0.18184,-0.0604,0.20997,0.07378,0.066962,0.016872,0.043566,-0.028028,0.040997,-0.21624,-0.099313,0.06119,0.0077929,-0.10755
-0.023886,0.014959,0.0035387,0.016209,0.014545,0.1776,0.091245,0.22663,0.0048772,-0.033759,-0.18287,-0.050584,0.1994,0.036898,0.049257,0.0032716,0.043493,-0.029044,0.015781,-0.20852,-0.093581,0.044443,0.011973,-0.05471
-0.020423,0.0075956,-0.0005009,0.020329,0.019947,0.17725,0.09722,0.22597,-0.0018421,-0.023381,-0.1825,-0.041215,0.18639,-0.013917,0.022616,-0.011418,0.0392,-0.023999,-0.00046937,-0.19521,-0.079759,0.051139,0.016413,-0.0059872
-0.010255,0.006364,0.0009012,0.023948,0.026556,0.1658,0.1066,0.2072,-0.0055064,-0.016184,-0.18274,-0.032171,0.17308,-0.070159,-0.0087182,-0.028024,0.031119,-0.015814,-0.010055,-0.16964,-0.064473,0.080592,0.022554,0.027843
0.001459,0.0081092,0.0064645,0.027291,0.033215,0.15066,0.11592,0.17294,-0.0053593,-0.015088,-0.1849,-0.024027,0.16439,-0.12259,-0.037483,-0.046283,0.021847,-0.0090929,-0.01781,-0.12793,-0.055229,0.11367,0.031116,0.04204
0.0093116,0.0063723,0.011731,0.031606,0.037759,0.1381,0.12129,0.134,-0.002281,-0.020187,-0.18857,-0.017858,0.16634,-0.16535,-0.058381,-0.063432,0.014495,-0.0072741,-0.026581,-0.070603,-0.05514,0.12917,0.042755,0.039136
0.011434,-0.0026746,0.012225,0.037436,0.03857,0.12994,0.12138,0.10147,0.0013387,-0.02715,-0.19173,-0.014622,0.18339,-0.19555,-0.070723,-0.075468,0.010569,-0.010382,-0.036397,-0.0032729,-0.060498,0.11865,0.058545,0.024615
0.0099775,-0.016527,0.0065668,0.043567,0.035558,0.12369,0.11817,0.079426,0.0025236,-0.028774,-0.19165,-0.014391,0.21585,-0.21111,-0.076987,-0.079795,0.0089945,-0.014645,-0.046993,0.063997,-0.063359,0.090196,0.078978,-0.00058002
0.0084165,-0.027946,-0.0027946,0.047748,0.029837,0.11559,0.11537,0.063522,-0.00069857,-0.019615,-0.18626,-0.01585,0.25847,-0.2108,-0.07962,-0.07699,0.0069637,-0.014387,-0.059897,0.1192,-0.057566,0.061123,0.10208,-0.044591
0.0085705,-0.030545,-0.011618,0.048545,0.022656,0.10406,0.11613,0.045464,-0.0078713,-0.00043739,-0.17536,-0.01655,0.30113,-0.19628,-0.079558,-0.070493,0.0018872,-0.0053658,-0.077183,0.1527,-0.043697,0.046652,0.12286,-0.12117
0.010022,-0.023815,-0.01697,0.046581,0.014738,0.090712,0.12176,0.019308,-0.015965,0.021351,-0.16092,-0.014136,0.33212,-0.17295,-0.077308,-0.064752,-0.0069465,0.012276,-0.098074,0.16154,-0.028966,0.052456,0.13582,-0.23905
0.011894,-0.013567,-0.018935,0.044075,0.0066005,0.078223,0.13191,-0.014932,-0.020959,0.036224,-0.14609,-0.0079615,0.34319,-0.14712,-0.074367,-0.063261,-0.017979,0.033421,-0.11737,0.15082,-0.021942,0.074015,0.13909,-0.39115
0.014577,-0.0076404,-0.01975,0.043126,-0.00071332,0.067148,0.14505,-0.051721,-0.020303,0.038817,-0.13332,0.00012188,0.33352,-0.12171,-0.07264,-0.067429,-0.02827,0.050423,-0.12821,0.13094,-0.026099,0.1007,0.13685,-0.55142
0.019281,-0.010409,-0.021311,0.044291,-0.0055329,0.054845,0.15826,-0.082998,-0.014574,0.031142,-0.12298,0.0067252,0.30991,-0.095001,-0.072223,-0.076261,-0.034971,0.057325,-0.12729,0.11207,-0.037185,0.12088,0.137,-0.68206
0.025898,-0.020218,-0.023353,0.046573,-0.0064603,0.037784,0.16689,-0.10159,-0.0070766,0.02035,-0.11371,0.0092562,0.28245,-0.064362,-0.070295,-0.086456,-0.036568,0.053192,-0.11804,0.099925,-0.046352,0.12572,0.14548,-0.74649
0.031691,-0.031092,-0.023957,0.048596,-0.0035252,0.015349,0.16571,-0.10378,-0.0016155,0.013099,-0.10429,0.0079479,0.25864,-0.031469,-0.063019,-0.093036,-0.033399,0.042401,-0.10872,0.095084,-0.046495,0.11137,0.16161,-0.72076
0.032779,-0.036799,-0.021922,0.049777,0.0015389,-0.0085925,0.1518,-0.090622,-7.5355e-005,0.011182,-0.095227,0.0058835,0.24026,-0.0032776,-0.049297,-0.091024,-0.027347,0.031762,-0.1069,0.095674,-0.036933,0.079694,0.17859,-0.59884
0.027532,-0.034206,-0.018664,0.050514,0.0062283,-0.028323,0.12742,-0.067366,-0.0015402,0.011601,-0.088603,0.0068331,0.22506,0.012916,-0.032951,-0.078098,-0.020907,0.026522,-0.11485,0.1,-0.023125,0.037945,0.18891,-0.39254
0.018752,-0.024262,-0.017509,0.051439,0.0085989,-0.04115,0.099581,-0.040968,-0.0034803,0.010396,-0.086055,0.012544,0.21114,0.015945,-0.020977,-0.056853,-0.016084,0.027873,-0.1291,0.1068,-0.01209,-0.0023718,0.19012,-0.12932
0.012237,-0.010971,-0.020668,0.052632,0.0078892,-0.049923,0.07559,-0.016594,-0.0039521,0.006554,-0.086837,0.021629,0.19953,0.012363,-0.018817,-0.034563,-0.01366,0.033222,-0.14381,0.11357,-0.0072297,-0.026986,0.18639,0.15145
0.012523,0.00052345,-0.026646,0.053593,0.0041777,-0.060368,0.057402,0.0046086,-0.0030752,0.0028457,-0.087739,0.030833,0.19251,0.01147,-0.026156,-0.019539,-0.013278,0.038429,-0.15455,0.11578,-0.0063451,-0.020733,0.1848,0.40565
0.019355,0.0060574,-0.030972,0.053912,-0.002159,-0.07527,0.039921,0.024768,-0.0027343,0.0034605,-0.085042,0.037495,0.18931,0.018683,-0.036467,-0.015871,-0.014288,0.040211,-0.15973,0.10882,-0.0039759,0.029034,0.18971,0.5962
0.027964,0.0044387,-0.03021,0.053883,-0.010376,-0.090965,0.015452,0.046166,-0.0048791,0.010859,-0.076808,0.04117,0.18383,0.033866,-0.040796,-0.020261,-0.016765,0.037499,-0.15964,0.091163,0.0040007,0.12651,0.19967,0.70507
0.032911,-0.0014371,-0.025734,0.054327,-0.018841,-0.099905,-0.018963,0.068346,-0.0098296,0.024292,-0.063676,0.0434,0.16728,0.055789,-0.033332,-0.023807,-0.021839,0.031756,-0.15488,0.065626,0.017015,0.26062,0.20868,0.7383
0.032087,-0.0055124,-0.023267,0.055691,-0.025067,-0.0974,-0.057714,0.08781,-0.015891,0.040408,-0.047797,0.046289,0.13413,0.086983,-0.015187,-0.017925,-0.030905,0.026688,-0.14589,0.037047,0.030095,0.40246,0.21029,0.71909
0.027545,-0.0018719,-0.027722,0.057244,-0.026906,-0.086389,-0.090026,0.10017,-0.020498,0.054693,-0.03115,0.051279,0.086455,0.13228,0.0060265,-2.3985e-005,-0.044133,0.027191,-0.13353,0.0084155,0.037492,0.5128,0.20134,0.67316
0.022903,0.011198,-0.037645,0.057302,-0.024154,-0.075555,-0.10777,0.10247,-0.021963,0.062648,-0.014754,0.058749,0.032963,0.19094,0.020585,0.025661,-0.05941,0.037013,-0.1196,-0.020498,0.036911,0.55953,0.18334,0.6169
0.020157,0.029328,-0.044769,0.054547,-0.01896,-0.072221,-0.1107,0.09372,-0.020515,0.060921,0.00082592,0.067977,-0.01659,0.24998,0.022309,0.052714,-0.072702,0.055633,-0.10682,-0.050361,0.031176,0.53645,0.16127,0.55666
0.018847,0.044256,-0.040115,0.049455,-0.014179,-0.076471,-0.1046,0.073859,-0.017958,0.049002,0.014585,0.076901,-0.057143,0.28716,0.011948,0.078529,-0.079879,0.076528,-0.098345,-0.078183,0.026052,0.46972,0.14098,0.49784
0.017835,0.049007,-0.021942,0.044444,-0.010768,-0.081884,-0.094634,0.043159,-0.016307,0.030842,0.024956,0.082055,-0.089864,0.28371,-0.0037554,0.10612,-0.078891,0.089307,-0.097147,-0.096761,0.025798,0.4042,0.12629,0.45336
0.017245,0.042425,0.0014692,0.042286,-0.0065328,-0.082097,-0.080747,0.0030723,-0.016423,0.014343,0.030784,0.079602,-0.11888,0.23729,-0.016427,0.13999,-0.070893,0.085722,-0.10501,-0.099595,0.029848,0.37581,0.1171,0.44168
0.018294,0.029698,0.017239,0.043837,0.0023127,-0.076983,-0.05989,-0.042678,-0.017557,0.0074608,0.032596,0.067512,-0.14652,0.16402,-0.020697,0.1799,-0.059585,0.065794,-0.12115,-0.087566,0.033271,0.38805,0.10963,0.4745
0.021302,0.018547,0.017391,0.047035,0.017719,-0.072738,-0.032503,-0.088864,-0.017971,0.01272,0.032892,0.047372,-0.17124,0.086881,-0.016073,0.21857,-0.049311,0.038959,-0.14125,-0.070923,0.030729,0.40998,0.099111,0.54489
0.02435,0.014053,0.0045797,0.048295,0.037293,-0.076052,-0.0062583,-0.13162,-0.016174,0.024529,0.034914,0.023903,-0.18986,0.019911,-0.0054508,0.2459,-0.043146,0.018251,-0.15864,-0.063393,0.020804,0.39849,0.08334,0.62744
0.024499,0.015935,-0.010595,0.045408,0.054965,-0.087988,0.007554,-0.17092,-0.011975,0.032578,0.04053,0.0020107,-0.20173,-0.038694,0.0077771,0.25643,-0.041973,0.011266,-0.1675,-0.072084,0.0071176,0.32949,0.064559,0.69246
0.020702,0.019952,-0.018134,0.039525,0.064573,-0.10318,0.0023832,-0.20987,-0.0067114,0.029679,0.048846,-0.016403,-0.21102,-0.098967,0.021555,0.25325,-0.044674,0.014972,-0.16656,-0.091196,-0.0047598,0.2158,0.047651,0.72366
0.015463,0.021844,-0.015724,0.03438,0.063687,-0.11466,-0.018016,-0.2509,-0.0024789,0.017869,0.056807,-0.032985,-0.22464,-0.16437,0.035105,0.24514,-0.048835,0.018888,-0.15965,-0.10508,-0.012029,0.099365,0.035824,0.7253
0.013206,0.020655,-0.0088957,0.033194,0.054873,-0.1195,-0.041966,-0.29222,-0.00071127,0.0071552,0.061636,-0.050174,-0.24721,-0.22343,0.048094,0.2394,-0.051423,0.014312,-0.15221,-0.098809,-0.01692,0.024486,0.027376,0.71377
0.016363,0.019218,-0.0050827,0.03585,0.043659,-0.11985,-0.058121,-0.32822,-0.00098525,0.0072262,0.063344,-0.067594,-0.27691,-0.2558,0.060417,0.23693,-0.049392,0.0019854,-0.14613,-0.068364,-0.0244,0.011922,0.016651,0.70133
0.02262,0.021915,-0.0072229,0.038792,0.034988,-0.11902,-0.062348,-0.3538,-0.00097952,0.018951,0.065123,-0.08107,-0.30595,-0.2478,0.072695,0.23358,-0.04054,-0.0083344,-0.13739,-0.02286,-0.037221,0.05096,-0.0013217,0.68618
0.026049,0.031582,-0.011988,0.037817,0.030825,-0.11668,-0.057771,-0.36847,0.0020721,0.033155,0.070893,-0.085496,-0.32544,-0.20453,0.086387,0.22608,-0.024636,-0.0061369,-0.11913,0.022284,-0.052658,0.11147,-0.026471,0.65647
0.021625,0.047457,-0.013105,0.031429,0.030325,-0.10816,-0.0491,-0.37609,0.0092078,0.038035,0.081612,-0.079179,-0.33116,-0.14862,0.1028,0.21654,-0.0041774,0.010697,-0.087744,0.055555,-0.063936,0.16318,-0.053516,0.60322
0.009615,0.065121,-0.0062569,0.021984,0.03185,-0.088706,-0.03737,-0.38012,0.018448,0.02887,0.093399,-0.065812,-0.32581,-0.10709,0.12165,0.21136,0.016092,0.033509,-0.046594,0.075303,-0.065274,0.18705,-0.076205,0.52937
-0.0038935,0.078311,0.0082073,0.013819,0.034856,-0.058481,-0.020051,-0.37867,0.025671,0.011625,0.099492,-0.052204,-0.31624,-0.096692,0.14053,0.21534,0.031156,0.049055,-0.003883,0.087835,-0.056295,0.17375,-0.092174,0.44662
-0.01103,0.081874,0.025826,0.010063,0.04014,-0.023639,0.0041992,-0.36458,0.027384,-0.0025457,0.095108,-0.043652,-0.30832,-0.11783,0.15588,0.22651,0.038232,0.048982,0.033669,0.10023,-0.042171,0.11652,-0.10426,0.36323
-0.0078386,0.074626,0.04055,0.010708,0.048438,0.0079932,0.031382,-0.33091,0.023475,-0.0068115,0.081567,-0.0408,-0.30358,-0.15856,0.1645,0.23634,0.038181,0.034972,0.065658,0.11381,-0.029696,0.0090082,-0.11747,0.27458
0.0027521,0.06052,0.047548,0.013201,0.058776,0.032893,0.053064,-0.27782,0.017689,-0.003922,0.066108,-0.040377,-0.30001,-0.20291,0.16412,0.23526,0.034727,0.016088,0.097018,0.12297,-0.02306,-0.14931,-0.13488,0.16584
0.013061,0.046886,0.045393,0.01463,0.068161,0.05423,0.061871,-0.21535,0.015169,-0.0030527,0.057004,-0.038811,-0.29541,-0.23683,0.15285,0.21932,0.031975,0.001398,0.13234,0.11944,-0.023033,-0.34778,-0.15631,0.024425
0.01634,0.04011,0.037044,0.013594,0.073111,0.078457,0.056827,-0.16016,0.018746,-0.011526,0.057539,-0.035399,-0.28977,-0.25005,0.12841,0.19272,0.03204,-0.0058593,0.1709,0.098407,-0.029777,-0.56792,-0.18059,-0.149
0.011699,0.041258,0.028815,0.010543,0.071991,0.109,0.043997,-0.12848,0.026807,-0.028635,0.063762,-0.032458,-0.2849,-0.23681,0.088914,0.16475,0.034456,-0.0085628,0.20707,0.061921,-0.045842,-0.79539,-0.20848,-0.34114
0.004524,0.045014,0.027024,0.0068652,0.066304,0.14261,0.032073,-0.12945,0.034476,-0.046296,0.06809,-0.032644,-0.28231,-0.1978,0.035168,0.14392,0.03745,-0.011485,0.23551,0.017226,-0.075696,-1.0296,-0.2428,-0.53703
0.0021297,0.04345,0.033887,0.0037964,0.059775,0.17158,0.026704,-0.16141,0.037297,-0.055236,0.06591,-0.035955,-0.28209,-0.1421,-0.027128,0.13366,0.039621,-0.016789,0.2563,-0.02846,-0.12152,-1.2801,-0.28543,-0.73001
0.0080348,0.032373,0.045675,0.0019136,0.05574,0.19005,0.028036,-0.21195,0.034639,-0.051328,0.059557,-0.038927,-0.28385,-0.085339,-0.087387,0.13205,0.040426,-0.022685,0.275,-0.072751,-0.179,-1.5497,-0.33437,-0.92006
0.019274,0.015378,0.055217,0.0011609,0.054842,0.19883,0.032829,-0.26167,0.030207,-0.037483,0.056115,-0.036609,-0.28808,-0.043001,-0.13327,0.13494,0.039428,-0.025442,0.29767,-0.11872,-0.23742,-1.8198,-0.38422,-1.1017
0.028713,0.0019043,0.057329,0.0010029,0.05492,0.20459,0.038592,-0.2914,0.029295,-0.020627,0.060817,-0.025799,-0.29559,-0.022171,-0.15551,0.1392,0.035689,-0.02251,0.32504,-0.17069,-0.28497,-2.0514,-0.42999,-1.2538
0.030474,0.00019787,0.052873,0.00056532,0.053216,0.21417,0.04585,-0.29118,0.034874,-0.0068403,0.071833,-0.0073063,-0.30481,-0.017656,-0.15169,0.14365,0.028485,-0.014408,0.35084,-0.22836,-0.31542,-2.2042,-0.47055,-1.3446
0.024285,0.010611,0.047808,-0.0010451,0.049016,0.22886,0.05678,-0.26642,0.045473,0.0016946,0.081141,0.014143,-0.30968,-0.015836,-0.12683,0.1475,0.018856,-0.004552,0.3655,-0.28412,-0.33085,-2.258,-0.50778,-1.3514
0.015537,0.024837,0.047906,-0.0041539,0.044382,0.2438,0.071924,-0.23662,0.056416,0.0064437,0.080852,0.032148,-0.30121,-0.0039598,-0.090761,0.14855,0.010073,0.0023895,0.36224,-0.32616,-0.33804,-2.2169,-0.54192,-1.2797
0.011234,0.032022,0.053753,-0.0080136,0.042203,0.25247,0.088358,-0.22544,0.063336,0.010051,0.069538,0.041593,-0.27275,0.021556,-0.053948,0.14328,0.0058607,0.0026229,0.34114,-0.34511,-0.34164,-2.0949,-0.56745,-1.1654
0.014994,0.026915,0.060498,-0.010923,0.04321,0.25248,0.1012,-0.24771,0.065139,0.013912,0.053101,0.040664,-0.22507,0.05354,-0.02418,0.12942,0.0074687,-0.005033,0.30863,-0.33913,-0.34013,-1.899,-0.57469,-1.0566
0.024806,0.013413,0.062441,-0.011136,0.044641,0.24757,0.10718,-0.30182,0.063999,0.017438,0.03959,0.031011,-0.16713,0.079724,-0.005143,0.10881,0.01223,-0.018517,0.2734,-0.31335,-0.32814,-1.6305,-0.55675,-0.98883
0.034899,0.0007654,0.058121,-0.0080534,0.04195,0.24478,0.10713,-0.37274,0.062477,0.019106,0.032665,0.016304,-0.11121,0.090662,0.0033272,0.087559,0.015283,-0.033502,0.24195,-0.27473,-0.30328,-1.305,-0.51661,-0.97282
0.040014,-0.0040817,0.051269,-0.0027985,0.03236,0.24941,0.10522,-0.44289,0.060364,0.018045,0.029375,0.00026257,-0.065832,0.083503,0.0041902,0.072719,0.013266,-0.04574,0.21652,-0.22737,-0.27136,-0.96952,-0.4675,-1.0042
0.038804,-0.0015356,0.047068,0.002386,0.017403,0.26196,0.10585,-0.50196,0.054317,0.014723,0.023901,-0.014641,-0.031791,0.059178,0.0018932,0.067409,0.0068618,-0.053495,0.19635,-0.17239,-0.24507,-0.69288,-0.4253,-1.0818
0.034123,0.0019529,0.047443,0.0056297,0.0023319,0.27877,0.11075,-0.54836,0.041063,0.010223,0.013525,-0.02731,-0.0037513,0.01677,0.00087805,0.068411,-5.6773e-005,-0.058385,0.18075,-0.11176,-0.23679,-0.52672,-0.39846,-1.2149
0.030425,-0.00027921,0.049658,0.006779,-0.0072607,0.29473,0.11856,-0.58244,0.021621,0.0049678,0.0012914,-0.037264,0.024245,-0.048268,0.0040788,0.06842,-0.0038501,-0.063834,0.17146,-0.051234,-0.25108,-0.46733,-0.38375,-1.4111
0.030486,-0.0099636,0.049053,0.0075145,-0.009068,0.30552,0.12655,-0.59877,0.0025734,-0.0016446,-0.0069586,-0.043757,0.053856,-0.13874,0.012021,0.061336,-0.0039506,-0.072082,0.17216,0.0016259,-0.28247,-0.45248,-0.37151,-1.6542
0.033705,-0.023185,0.043012,0.010013,-0.0053143,0.30819,0.13251,-0.5852,-0.0075482,-0.010019,-0.0082859,-0.0454,0.081426,-0.24701,0.023148,0.046295,-0.0026071,-0.081894,0.18533,0.042867,-0.31945,-0.40149,-0.35563,-1.8965
0.036858,-0.033621,0.032716,0.0151,-0.00089046,0.30067,0.13527,-0.53037,-0.0044509,-0.018541,-0.0057109,-0.040547,0.10087,-0.35127,0.035236,0.027115,-0.0020109,-0.088629,0.20871,0.075535,-0.35089,-0.26911,-0.33951,-2.0769
0.036438,-0.036478,0.021807,0.021408,5.165e-005,0.282,0.13422,-0.43371,0.0081666,-0.023032,-0.005747,-0.028219,0.1079,-0.42248,0.046896,0.0079011,-0.0017572,-0.086652,0.23445,0.107,-0.36985,-0.070223,-0.33247,-2.1548
0.030992,-0.030491,0.013846,0.026348,-0.0034167,0.25345,0.12897,-0.30969,0.020857,-0.018437,-0.012624,-0.009119,0.10268,-0.43922,0.058093,-0.01104,0.00083557,-0.072482,0.25236,0.14225,-0.37366,0.14352,-0.33994,-2.1356
0.022084,-0.017791,0.010727,0.028206,-0.0089349,0.21937,0.11994,-0.18284,0.025344,-0.0017242,-0.024474,0.013918,0.09004,-0.4009,0.069423,-0.033148,0.0079005,-0.046747,0.25536,0.17957,-0.36202,0.33268,-0.35645,-2.0659
0.013386,-0.0028189,0.012494,0.027557,-0.012872,0.18652,0.10879,-0.076754,0.020615,0.026283,-0.034964,0.03648,0.077413,-0.33,0.080877,-0.061394,0.018537,-0.014003,0.24325,0.21318,-0.33624,0.50117,-0.36815,-2.0011
0.0084413,0.0090946,0.017665,0.026695,-0.012845,0.16183,0.097646,-0.0047017,0.013074,0.061497,-0.038905,0.054148,0.071839,-0.26153,0.091017,-0.09371,0.029181,0.0192,0.2219,0.24061,-0.29952,0.68425,-0.36277,-1.9684
0.008473,0.013654,0.023466,0.027525,-0.0091468,0.14986,0.087467,0.033178,0.010561,0.098781,-0.036753,0.064344,0.076912,-0.22627,0.09708,-0.1223,0.036525,0.046864,0.19867,0.26753,-0.25692,0.9073,-0.33846,-1.9496
0.011744,0.0098086,0.026513,0.029882,-0.0044398,0.15157,0.077153,0.045949,0.0153,0.13376,-0.033986,0.067358,0.090752,-0.23784,0.096006,-0.13774,0.040155,0.06556,0.17764,0.30465,-0.21365,1.1542,-0.30374,-1.8945
0.015075,0.00077972,0.024456,0.031915,-0.0020936,0.16485,0.064819,0.045564,0.021832,0.16308,-0.036002,0.065804,0.10614,-0.29001,0.086162,-0.13482,0.042315,0.075318,0.15833,0.35851,-0.17274,1.3725,-0.26909,-1.7543
0.016452,-0.0075519,0.017793,0.032157,-0.0041724,0.18606,0.050313,0.042482,0.02168,0.18386,-0.043188,0.062784,0.11345,-0.36407,0.06916,-0.1157,0.045025,0.079274,0.13813,0.42378,-0.13428,1.5072,-0.23793,-1.5125
0.016551,-0.010382,0.010058,0.031182,-0.010138,0.21176,0.036519,0.04453,0.010722,0.19384,-0.050544,0.059982,0.10546,-0.44049,0.050558,-0.088335,0.04742,0.082295,0.1159,0.4839,-0.096823,1.5325,-0.20521,-1.1966
0.017684,-0.0070988,0.0056031,0.031032,-0.016979,0.24023,0.027793,0.057263,-0.0069971,0.19256,-0.052088,0.056971,0.081511,-0.5081,0.038166,-0.061808,0.046045,0.088964,0.09351,0.52007,-0.059718,1.4545,-0.16413,-0.86623
0.020933,-0.0011202,0.00644,0.032874,-0.020811,0.27247,0.026575,0.083545,-0.022155,0.18226,-0.046117,0.052062,0.048269,-0.56607,0.037986,-0.042237,0.038086,0.10146,0.074837,0.52219,-0.02401,1.2927,-0.11432,-0.58636
0.024205,0.0034498,0.010821,0.035303,-0.019153,0.31204,0.031203,0.12181,-0.027314,0.16701,-0.036784,0.043834,0.016283,-0.61817,0.050099,-0.03161,0.024624,0.11812,0.06354,0.49429,0.0085041,1.0629,-0.06362,-0.39885
0.023429,0.0053006,0.014913,0.035248,-0.012535,0.36261,0.037041,0.16462,-0.022528,0.15042,-0.030719,0.03212,-0.0056531,-0.6633,0.067941,-0.02921,0.010787,0.13352,0.061649,0.45135,0.036831,0.78055,-0.021868,-0.30633
0.016299,0.0063704,0.016096,0.030882,-0.0042413,0.42361,0.040136,0.19979,-0.01506,0.13376,-0.031585,0.017922,-0.014915,-0.68867,0.082406,-0.033257,0.002364,0.14057,0.069228,0.41061,0.061156,0.47666,0.0073041,-0.2753
0.0052247,0.0090639,0.014969,0.023717,0.0019211,0.48636,0.04031,0.21473,-0.013646,0.11618,-0.036993,0.0027455,-0.01576,-0.67187,0.088162,-0.040974,0.0015811,0.13396,0.084367,0.3832,0.081758,0.20292,0.029032,-0.25729
-0.0036008,0.01315,0.014372,0.017618,0.0044625,0.53427,0.041121,0.20232,-0.021852,0.096531,-0.040245,-0.011807,-0.016401,-0.59289,0.086985,-0.047426,0.005599,0.11317,0.10309,0.37051,0.09773,0.012908,0.051808,-0.21596
-0.0047586,0.015466,0.016569,0.015384,0.0055538,0.54883,0.046794,0.16518,-0.035502,0.075075,-0.035575,-0.024009,-0.024668,-0.45014,0.084944,-0.04509,0.0090048,0.083042,0.11986,0.36603,0.10699,-0.067633,0.079204,-0.14367
0.0019874,0.012706,0.021257,0.016081,0.0095433,0.51874,0.05872,0.11533,-0.045866,0.053471,-0.02298,-0.032117,-0.044658,-0.26961,0.085728,-0.025704,0.0081653,0.051147,0.12939,0.3604,0.10772,-0.054907,0.10632,-0.055907
0.011444,0.0045386,0.026029,0.015828,0.019384,0.4466,0.074273,0.069393,-0.046091,0.033643,-0.0090338,-0.035148,-0.075571,-0.098344,0.086362,0.015973,0.0037361,0.023515,0.12912,0.34618,0.10012,0.0080534,0.12406,0.031723
0.017336,-0.0058715,0.028544,0.011541,0.033563,0.348,0.088687,0.042023,-0.036176,0.016837,-0.0028722,-0.033941,-0.11243,0.017566,0.079723,0.07869,-0.00074224,0.001695,0.12058,0.32036,0.086953,0.0828,0.12715,0.12492
0.017477,-0.014253,0.028216,0.0042264,0.04612,0.24346,0.098304,0.041343,-0.023045,0.0036768,-0.0099858,-0.031398,-0.14787,0.058993,0.061842,0.15372,-0.0027641,-0.016734,0.10806,0.28396,0.072609,0.15562,0.11854,0.25094
0.015133,-0.018147,0.026091,-0.0014076,0.050214,0.14826,0.10267,0.068136,-0.015782,-0.0054462,-0.028048,-0.031177,-0.17438,0.047186,0.036917,0.22709,-0.0036507,-0.034828,0.095548,0.24018,0.061357,0.23046,0.10626,0.435
0.015379,-0.017782,0.023469,-0.00096932,0.042825,0.067455,0.1041,0.11761,-0.019377,-0.010623,-0.047781,-0.03547,-0.18671,0.033929,0.01466,0.28382,-0.0075578,-0.053046,0.084317,0.19267,0.055827,0.30457,0.096062,0.67117
0.019836,-0.014608,0.020889,0.0053881,0.027115,-0.0014495,0.10552,0.18118,-0.031268,-0.01327,-0.058463,-0.043481,-0.18389,0.072444,0.0017848,0.3122,-0.017489,-0.068841,0.073048,0.14467,0.056327,0.35209,0.086616,0.91328
0.024685,-0.0094045,0.018383,0.012371,0.010526,-0.061439,0.10823,0.24722,-0.043009,-0.016424,-0.054461,-0.051859,-0.16985,0.1866,-0.0045125,0.30665,-0.031924,-0.079147,0.060122,0.098785,0.061031,0.33206,0.071842,1.0961
0.023892,-0.0020042,0.016384,0.013399,-4.6179e-005,-0.11128,0.11145,0.30233,-0.045951,-0.023592,-0.038474,-0.056839,-0.15186,0.35802,-0.014563,0.26883,-0.045248,-0.083196,0.045631,0.056861,0.06692,0.21418,0.047977,1.1723
0.014769,0.0073085,0.015953,0.0058741,-0.0024383,-0.14711,0.1133,0.33506,-0.037073,-0.036601,-0.019478,-0.056504,-0.13673,0.53868,-0.036897,0.20719,-0.051736,-0.082997,0.031119,0.019641,0.071409,-0.00016105,0.018816,1.1376
0.00088144,0.01653,0.017842,-0.0065049,0.00020915,-0.16826,0.11201,0.34153,-0.020978,-0.054043,-0.0070453,-0.051601,-0.12655,0.67894,-0.069715,0.13513,-0.049616,-0.081213,0.017449,-0.013014,0.074266,-0.27831,-0.0058138,1.026
-0.010371,0.022543,0.021294,-0.01643,0.0025916,-0.18105,0.1063,0.32904,-0.0066538,-0.071642,-0.0059312,-0.044582,-0.11679,0.75122,-0.10088,0.067896,-0.041726,-0.078672,0.0031329,-0.041067,0.078685,-0.57558,-0.017157,0.88205
-0.013443,0.023445,0.024026,-0.018591,0.0013869,-0.1961,0.094937,0.31381,-0.0012903,-0.084651,-0.014203,-0.037795,-0.098604,0.7548,-0.11667,0.018431,-0.032514,-0.073907,-0.014907,-0.063186,0.090073,-0.85578,-0.014226,0.73478
-0.0087219,0.020512,0.023829,-0.013689,-0.0028112,-0.22064,0.076604,0.31278,-0.0055824,-0.090975,-0.025471,-0.032118,-0.064744,0.70362,-0.11197,-0.0066281,-0.024495,-0.064978,-0.038564,-0.076961,0.11227,-1.0974,-0.0046968,0.59205
-0.0016253,0.017685,0.020579,-0.007584,-0.006947,-0.25238,0.05089,0.33424,-0.013854,-0.093186,-0.033147,-0.026703,-0.015465,0.61093,-0.093628,-0.0090903,-0.017422,-0.051694,-0.066191,-0.080945,0.1432,-1.2853,0.00032539,0.45453
0.0023344,0.018478,0.016781,-0.0062962,-0.0087336,-0.28059,0.019737,0.37376,-0.01873,-0.097973,-0.033872,-0.019681,0.040048,0.48451,-0.07472,0.0018858,-0.01039,-0.036196,-0.092865,-0.077054,0.17356,-1.402,-0.0067982,0.33057
0.0021589,0.022653,0.015812,-0.011039,-0.0087933,-0.29386,-0.012378,0.41782,-0.016643,-0.11285,-0.028423,-0.0093472,0.088421,0.33377,-0.065025,0.013977,-0.004078,-0.021641,-0.11317,-0.070836,0.19075,-1.429,-0.026757,0.23549
0.0017914,0.025641,0.019083,-0.017456,-0.010002,-0.2883,-0.040459,0.45235,-0.010014,-0.14165,-0.020246,0.0046783,0.12018,0.17867,-0.065122,0.01709,-0.00047149,-0.010331,-0.12424,-0.068636,0.18656,-1.3616,-0.054899,0.17619
0.0062015,0.021729,0.024527,-0.019695,-0.014796,-0.26939,-0.062022,0.46979,-0.0047792,-0.18147,-0.013094,0.020775,0.13529,0.049175,-0.067785,0.0072988,-0.00043135,-0.0027712,-0.1266,-0.073478,0.1632,-1.2211,-0.085622,0.13836
0.016627,0.008874,0.027915,-0.015768,-0.022884,-0.24629,-0.078506,0.47046,-0.0057259,-0.22339,-0.0093443,0.035591,0.14182,-0.026791,-0.064311,-0.012469,-0.0020934,0.0020967,-0.12253,-0.083007,0.13279,-1.0529,-0.11584,0.092254
0.029023,-0.0086914,0.026162,-0.0094633,-0.031299,-0.22405,-0.093337,0.45869,-0.013527,-0.2569,-0.0097279,0.045421,0.14841,-0.038526,-0.050392,-0.034867,-0.0023266,0.0061975,-0.11368,-0.091266,0.10999,-0.90498,-0.14551,0.015609
0.036955,-0.022529,0.019927,-0.0069996,-0.036662,-0.20057,-0.10787,0.43784,-0.025369,-0.27527,-0.014071,0.048097,0.15657,-0.00020078,-0.027706,-0.051864,-0.0001176,0.011862,-0.10027,-0.092782,0.10327,-0.8002,-0.1757,-0.085708
0.036484,-0.025623,0.013251,-0.011336,-0.037568,-0.17103,-0.11878,0.4082,-0.037731,-0.27833,-0.021962,0.044219,0.15898,0.053512,-0.0012853,-0.057734,0.0016841,0.021531,-0.082343,-0.085647,0.11143,-0.72061,-0.2065,-0.17918
0.02912,-0.017508,0.010377,-0.019236,-0.035049,-0.13516,-0.11977,0.36853,-0.048336,-0.27102,-0.032572,0.036757,0.14536,0.080065,0.024421,-0.050392,-0.0014298,0.03709,-0.061295,-0.071675,0.12797,-0.61718,-0.23625,-0.23148
0.020609,-0.0049859,0.012386,-0.023871,-0.030883,-0.10072,-0.10692,0.3193,-0.055901,-0.25927,-0.043909,0.029246,0.11102,0.042848,0.047747,-0.031459,-0.01107,0.058676,-0.039873,-0.05469,0.1487,-0.44177,-0.26244,-0.23975
0.016746,0.002282,0.016406,-0.020734,-0.025576,-0.079315,-0.083588,0.26491,-0.059014,-0.2465,-0.052645,0.023854,0.061147,-0.078387,0.069125,-0.0057394,-0.023312,0.083565,-0.020138,-0.039298,0.17594,-0.18285,-0.28324,-0.24312
0.019543,-0.0017559,0.017979,-0.011607,-0.018116,-0.07792,-0.060141,0.21334,-0.056314,-0.23315,-0.055378,0.020698,0.0074082,-0.28151,0.088609,0.019889,-0.030863,0.10626,-0.0013558,-0.030845,0.21556,0.11811,-0.29823,-0.30429
0.026541,-0.01554,0.014497,-0.0029843,-0.0078421,-0.092981,-0.047974,0.17339,-0.048208,-0.21824,-0.050792,0.0187,-0.03981,-0.54062,0.10385,0.038634,-0.028568,0.12039,0.019965,-0.034982,0.27023,0.38287,-0.30801,-0.47363
0.033373,-0.031078,0.0069293,-0.00042865,0.0034556,-0.11208,-0.051769,0.15081,-0.037989,-0.2009,-0.041004,0.017087,-0.076647,-0.81069,0.11028,0.046743,-0.017586,0.12192,0.047517,-0.055257,0.33508,0.53798,-0.31304,-0.76071
0.037196,-0.039348,-0.00124,-0.0039578,0.011575,-0.12213,-0.066085,0.14516,-0.030243,-0.18017,-0.030622,0.016353,-0.10427,-1.0393,0.10353,0.045606,-0.0045368,0.11164,0.082103,-0.089834,0.39968,0.55684,-0.31308,-1.1314
0.038267,-0.036153,-0.006572,-0.0084724,0.01258,-0.11779,-0.079338,0.14936,-0.027276,-0.15407,-0.023876,0.018168,-0.12293,-1.1825,0.082403,0.040994,0.0036618,0.09493,0.12053,-0.13065,0.45376,0.4742,-0.30777,-1.529
0.038768,-0.024442,-0.0075991,-0.0085254,0.0060357,-0.1041,-0.082482,0.15292,-0.026885,-0.11992,-0.021974,0.024565,-0.12809,-1.2186,0.05013,0.038981,0.004825,0.078353,0.15716,-0.16703,0.4914,0.36123,-0.29782,-1.9035
0.040257,-0.011672,-0.0051085,-0.0028925,-0.00416,-0.091596,-0.075849,0.14736,-0.024064,-0.076475,-0.022772,0.036989,-0.11324,-1.1532,0.013043,0.04081,0.002219,0.065032,0.18654,-0.19163,0.51056,0.27693,-0.28558,-2.2305
0.042072,-0.0042172,-0.0013534,0.005042,-0.012439,-0.088202,-0.068916,0.13062,-0.015592,-0.026297,-0.022947,0.055514,-0.077128,-1.0137,-0.022075,0.040407,0.00076183,0.052453,0.2051,-0.20381,0.5102,0.22977,-0.27431,-2.5132
0.041904,-0.0028836,0.00084386,0.010912,-0.015735,-0.093965,-0.073372,0.10711,-0.0033695,0.024316,-0.020617,0.078371,-0.028261,-0.83766,-0.049889,0.026806,0.0024376,0.034911,0.21144,-0.20728,0.48948,0.17881,-0.26648,-2.7696
0.037888,-0.0027511,-0.0010757,0.013221,-0.015661,-0.10214,-0.095107,0.083364,0.0067364,0.068372,-0.016036,0.10202,0.018725,-0.6594,-0.066714,-0.0096253,0.0050369,0.0092007,0.20645,-0.20426,0.45102,0.074555,-0.2626,-3.015
0.030393,0.002637,-0.0082472,0.013864,-0.016762,-0.10502,-0.13132,0.062564,0.0096933,0.10194,-0.0098297,0.1221,0.053024,-0.49822,-0.070176,-0.071212,0.0049988,-0.0209,0.19433,-0.19181,0.40475,-0.090947,-0.26119,-3.2454
0.022124,0.015985,-0.019115,0.015301,-0.022228,-0.099707,-0.17452,0.042577,0.0054608,0.12534,-0.00076835,0.13508,0.075712,-0.35121,-0.060085,-0.15125,0.0013338,-0.04546,0.18347,-0.16476,0.36716,-0.26381,-0.25972,-3.4314
0.016575,0.033923,-0.029309,0.01758,-0.030786,-0.089484,-0.21941,0.018797,-0.0011086,0.14076,0.014256,0.13995,0.098551,-0.19446,-0.040383,-0.23763,-0.0031371,-0.054568,0.18498,-0.12297,0.35432,-0.35384,-0.25573,-3.5253
0.016023,0.049362,-0.033714,0.018245,-0.037476,-0.080393,-0.2666,-0.010884,-0.0042908,0.14867,0.037282,0.13861,0.13394,0.0041736,-0.019649,-0.31924,-0.0041721,-0.045413,0.2082,-0.07624,0.37261,-0.28647,-0.24747,-3.4825
0.020391,0.056527,-0.029955,0.015112,-0.03767,-0.076177,-0.31986,-0.043427,-0.0017423,0.14688,0.065655,0.13465,0.18439,0.26309,-0.0076619,-0.39092,0.00043284,-0.024746,0.2554,-0.041033,0.41408,-0.043146,-0.23435,-3.2896
0.027508,0.054655,-0.020654,0.0090331,-0.030779,-0.075536,-0.37939,-0.072446,0.0044313,0.1336,0.091393,0.13105,0.24085,0.56745,-0.0088562,-0.45384,0.0096639,-0.0046286,0.3195,-0.030018,0.46021,0.33454,-0.21727,-2.9798
0.034367,0.047677,-0.012143,0.003839,-0.020389,-0.073344,-0.43712,-0.092585,0.010005,0.11177,0.10534,0.12832,0.29149,0.86687,-0.017369,-0.51178,0.021175,0.0055622,0.38706,-0.042296,0.49161,0.77061,-0.19864,-2.6243
0.03851,0.040601,-0.010102,0.0034039,-0.010789,-0.06426,-0.47853,-0.10279,0.011811,0.089824,0.10378,0.12435,0.33371,1.0962,-0.018729,-0.56596,0.033833,0.0051604,0.44455,-0.062612,0.49688,1.1853,-0.1814,-2.2989
0.038841,0.03585,-0.015431,0.008464,-0.0030897,-0.045673,-0.49044,-0.10632,0.0092586,0.076818,0.092311,0.11606,0.37865,1.2093,0.0011968,-0.61248,0.047976,0.0022095,0.48337,-0.071259,0.47553,1.5128,-0.16737,-2.0477
0.035671,0.032347,-0.023851,0.015984,0.0055361,-0.01807,-0.46921,-0.10842,0.0037887,0.075323,0.083008,0.10186,0.44371,1.2039,0.045426,-0.64387,0.063158,0.0076671,0.50063,-0.057685,0.43459,1.7101,-0.15602,-1.8687
0.030211,0.027475,-0.029657,0.02153,0.01893,0.016639,-0.42309,-0.11397,-0.0024378,0.078463,0.086067,0.083307,0.53881,1.1215,0.10115,-0.65354,0.076175,0.027761,0.49647,-0.027431,0.3834,1.769,-0.14491,-1.7316
0.023919,0.019683,-0.030464,0.022535,0.038154,0.056848,-0.3668,-0.12636,-0.007463,0.074756,0.10202,0.064962,0.65697,1.0223,0.14537,-0.64008,0.082298,0.059207,0.47127,0.0029585,0.33082,1.7287,-0.13158,-1.612
0.018007,0.009588,-0.028902,0.019852,0.060328,0.10151,-0.3125,-0.14735,-0.010003,0.057646,0.12101,0.05227,0.77679,0.9528,0.15791,-0.60841,0.079345,0.089955,0.42556,0.018928,0.28531,1.6696,-0.11538,-1.5124
0.013238,-0.00078275,-0.029969,0.016632,0.080986,0.14908,-0.26433,-0.17687,-0.0098476,0.031747,0.13017,0.048656,0.87464,0.92765,0.1335,-0.56762,0.070805,0.10496,0.36177,0.018602,0.25484,1.6721,-0.097445,-1.4518
0.0099406,-0.0093151,-0.036548,0.01578,0.097481,0.1965,-0.22055,-0.2129,-0.0080569,0.009899,0.12345,0.053503,0.93764,0.93364,0.085175,-0.52756,0.064379,0.094026,0.28507,0.013147,0.24402,1.7557,-0.078993,-1.4342
0.0080535,-0.014492,-0.047034,0.017998,0.11017,0.2395,-0.18054,-0.25176,-0.0064296,0.0028482,0.10597,0.062363,0.96863,0.94874,0.037138,-0.49674,0.066266,0.057895,0.20171,0.017252,0.24951,1.8444,-0.059341,-1.4254
0.0070959,-0.015432,-0.056837,0.021549,0.12051,0.27411,-0.1494,-0.28881,-0.0063039,0.010082,0.089255,0.069384,0.98101,0.95901,0.011933,-0.4818,0.075829,0.0092596,0.11612,0.037749,0.25865,1.7952,-0.035481,-1.3609
0.0061214,-0.012016,-0.062008,0.023453,0.12841,0.29827,-0.1346,-0.31833,-0.0076729,0.01979,0.081793,0.070504,0.98876,0.962,0.019824,-0.48692,0.085583,-0.032376,0.02981,0.069127,0.25466,1.4858,-0.0033081,-1.1829
0.0039338,-0.0054452,-0.061635,0.021176,0.13184,0.31232,-0.13698,-0.33275,-0.0095546,0.018208,0.082864,0.065449,0.99857,0.95746,0.055813,-0.51123,0.087099,-0.050244,-0.056979,0.098563,0.2267,0.90191,0.040611,-0.87447
-0.00021969,0.001347,-0.057303,0.01404,0.1293,0.31806,-0.14437,-0.32232,-0.011314,0.00052616,0.084689,0.057374,1.0084,0.93689,0.10435,-0.54536,0.0781,-0.039665,-0.14273,0.11573,0.1778,0.15971,0.09769,-0.46748
-0.005715,0.0042019,-0.05093,0.0039053,0.12263,0.31725,-0.13563,-0.2776,-0.01349,-0.025776,0.080301,0.050667,1.0113,0.88285,0.14756,-0.57119,0.064704,-0.011707,-0.22406,0.11977,0.12396,-0.55718,0.16628,-0.01814
-0.010176,-0.00068227,-0.043548,-0.005253,0.11679,0.31082,-0.094075,-0.19468,-0.017088,-0.047605,0.069878,0.0485,0.99975,0.7795,0.17205,-0.56772,0.056692,0.011976,-0.29794,0.11912,0.08399,-1.1009,0.24052,0.42543
-0.010459,-0.014785,-0.036023,-0.0091039,0.11629,0.2992,-0.020338,-0.080262,-0.021943,-0.05682,0.060262,0.051582,0.96979,0.62498,0.17207,-0.52174,0.059665,0.011099,-0.36434,0.12551,0.067327,-1.4281,0.30977,0.83815
-0.0048177,-0.035967,-0.030196,-0.0055153,0.12105,0.2835,0.066368,0.048099,-0.025997,-0.055604,0.058833,0.058469,0.92137,0.43437,0.14945,-0.43644,0.070642,-0.021364,-0.42642,0.14727,0.068667,-1.5927,0.36021,1.208
0.005257,-0.058724,-0.028322,0.0036549,0.12576,0.26604,0.14075,0.16796,-0.026556,-0.052662,0.06763,0.066793,0.85825,0.22907,0.11198,-0.33108,0.080674,-0.07491,-0.48763,0.18579,0.07335,-1.6843,0.37936,1.5175
0.015382,-0.076268,-0.030802,0.013196,0.12373,0.24972,0.18856,0.26141,-0.022613,-0.054396,0.082513,0.074512,0.78685,0.021006,0.071,-0.2307,0.082117,-0.12767,-0.5481,0.23599,0.068662,-1.7722,0.36142,1.7376
0.021134,-0.083789,-0.034639,0.017753,0.11206,0.23619,0.21492,0.32213,-0.016075,-0.059234,0.09703,0.080619,0.71433,-0.19541,0.037975,-0.15266,0.074379,-0.15864,-0.60335,0.28882,0.052018,-1.893,0.31002,1.8428
0.021379,-0.081188,-0.034977,0.015543,0.093849,0.22437,0.23761,0.35627,-0.010614,-0.059815,0.10677,0.085152,0.64585,-0.43603,0.020379,-0.09957,0.063486,-0.15751,-0.6459,0.33382,0.03029,-2.07,0.23606,1.8323
0.019123,-0.073279,-0.029068,0.0096373,0.075469,0.21071,0.27152,0.37763,-0.009078,-0.050466,0.11066,0.088634,0.58221,-0.70906,0.01851,-0.06315,0.056213,-0.12626,-0.66835,0.36154,0.012185,-2.3187,0.15262,1.7392
0.018802,-0.066729,-0.019161,0.0055266,0.061408,0.19157,0.31734,0.40095,-0.011695,-0.032934,0.10937,0.091321,0.5193,-0.99979,0.025453,-0.034969,0.053976,-0.073493,-0.66598,0.36618,0.00077689,-2.6205,0.071081,1.6179
0.022218,-0.065515,-0.0112,0.006738,0.051216,0.16628,0.36312,0.4368,-0.016463,-0.015347,0.10364,0.092849,0.4503,-1.2691,0.030833,-0.014624,0.051651,-0.008136,-0.63841,0.34816,-0.0081029,-2.8948,0.0011747,1.5194
0.026891,-0.06827,-0.0099489,0.012114,0.040937,0.13832,0.39591,0.48895,-0.021032,-0.0056441,0.094192,0.092686,0.36958,-1.4682,0.026294,-0.0090761,0.042086,0.062232,-0.59114,0.31485,-0.021749,-3.0174,-0.046782,1.4692
0.028521,-0.069869,-0.014716,0.017067,0.027354,0.11348,0.41263,0.5534,-0.024174,-0.0054427,0.082548,0.091151,0.27626,-1.5615,0.0090633,-0.024821,0.022342,0.12884,-0.53635,0.2781,-0.045353,-2.8945,-0.062115,1.4617
0.025332,-0.066195,-0.01967,0.017701,0.011024,0.095735,0.42101,0.61857,-0.025703,-0.0095329,0.070733,0.089999,0.17533,-1.5467,-0.018759,-0.060517,-0.0035255,0.18034,-0.49088,0.24925,-0.079807,-2.5382,-0.038454,1.4696
0.020064,-0.05813,-0.018668,0.014174,-0.0044086,0.0842,0.43127,0.66813,-0.025468,-0.011017,0.059674,0.091711,0.07601,-1.461,-0.054185,-0.1066,-0.027248,0.20639,-0.46994,0.23464,-0.12287,-2.0713,0.020726,1.4618
0.017551,-0.051253,-0.010468,0.010366,-0.015512,0.073698,0.44685,0.68697,-0.022873,-0.0073038,0.048189,0.09769,-0.011658,-1.3672,-0.096719,-0.15176,-0.042183,0.20402,-0.47863,0.23417,-0.17117,-1.6421,0.10215,1.4206
0.020174,-0.051358,0.00020648,0.010319,-0.021673,0.059033,0.46257,0.66866,-0.017527,-0.001784,0.034305,0.1068,-0.080254,-1.3243,-0.14759,-0.19015,-0.047501,0.18027,-0.50684,0.24359,-0.22099,-1.3104,0.19081,1.3523
0.025652,-0.059598,0.0065187,0.014772,-0.024796,0.039588,0.4706,0.6196,-0.010214,-4.1559e-005,0.018095,0.1157,-0.12714,-1.3531,-0.20478,-0.22298,-0.04772,0.14763,-0.53257,0.25796,-0.26814,-1.0008,0.28035,1.2865
0.029397,-0.071364,0.0048138,0.020903,-0.026943,0.020259,0.46793,0.55598,-0.0028733,-0.0042052,0.0031237,0.12102,-0.15466,-1.4205,-0.25816,-0.25347,-0.04854,0.11546,-0.53306,0.27388,-0.30827,-0.57135,0.37599,1.2634
0.029087,-0.079788,-0.0031147,0.025287,-0.0286,0.0075892,0.45796,0.49428,0.0025945,-0.010469,-0.0054167,0.1217,-0.1685,-1.4574,-0.28978,-0.27977,-0.052702,0.085288,-0.49695,0.28918,-0.33811,0.054671,0.4855,1.3121
0.026914,-0.08084,-0.012294,0.027119,-0.029279,0.0040735,0.44508,0.44119,0.005641,-0.011923,-0.0045857,0.11954,-0.17503,-1.4067,-0.28149,-0.29216,-0.059056,0.053867,-0.42944,0.30194,-0.35643,0.80203,0.605,1.4305
0.027274,-0.075884,-0.018927,0.028703,-0.029527,0.0054954,0.4279,0.39046,0.0073107,-0.0042274,0.0039826,0.11746,-0.17877,-1.2717,-0.22594,-0.27709,-0.064951,0.020512,-0.34785,0.31065,-0.36399,1.4757,0.7128,1.5795
0.032222,-0.069959,-0.022975,0.032931,-0.031906,0.0037598,0.39822,0.32918,0.0093393,0.010745,0.015583,0.11687,-0.18142,-1.1276,-0.13365,-0.22516,-0.069306,-0.0094444,-0.27205,0.31613,-0.36278,1.8886,0.77933,1.6974
0.039145,-0.067531,-0.027195,0.040278,-0.039565,-0.0069813,0.34768,0.24893,0.013114,0.026411,0.026457,0.11662,-0.18294,-1.0807,-0.030467,-0.13743,-0.07354,-0.029006,-0.21754,0.3233,-0.35538,1.9827,0.78685,1.7309
0.042838,-0.069193,-0.034077,0.048112,-0.05349,-0.026045,0.27698,0.15317,0.019368,0.036835,0.036686,0.11428,-0.18407,-1.1993,0.053922,-0.026276,-0.079858,-0.037229,-0.19477,0.33988,-0.34478,1.852,0.74296,1.6624
0.039873,-0.071618,-0.043652,0.052784,-0.071036,-0.047402,0.19965,0.055029,0.028419,0.041284,0.049525,0.10846,-0.1885,-1.466,0.099847,0.08913,-0.088811,-0.041844,-0.21175,0.37133,-0.3336,1.6589,0.67577,1.5205
0.031157,-0.070397,-0.053828,0.052436,-0.087327,-0.065257,0.13603,-0.032372,0.040132,0.043968,0.068162,0.099932,-0.20326,-1.7877,0.10547,0.18932,-0.098511,-0.053126,-0.27383,0.41454,-0.32232,1.523,0.61399,1.3658
0.020659,-0.063382,-0.062486,0.048096,-0.098584,-0.079251,0.10078,-0.10492,0.053329,0.049135,0.092981,0.090289,-0.2364,-2.0571,0.084466,0.26007,-0.10607,-0.074339,-0.37871,0.45509,-0.30762,1.4709,0.56841,1.2643
0.011965,-0.052111,-0.069197,0.042441,-0.10464,-0.094931,0.092998,-0.16864,0.065376,0.055903,0.12129,0.079553,-0.29314,-2.2178,0.055943,0.29574,-0.10978,-0.098115,-0.51102,0.47129,-0.28288,1.4712,0.5297,1.2628
0.0060238,-0.040498,-0.075128,0.037689,-0.10857,-0.11928,0.096487,-0.23262,0.072873,0.057852,0.14877,0.065215,-0.37246,-2.2824,0.033625,0.30046,-0.11006,-0.11273,-0.64359,0.44395,-0.24144,1.5042,0.48288,1.3785
0.0017111,-0.03203,-0.081458,0.034445,-0.11394,-0.1552,0.090683,-0.30035,0.073334,0.048546,0.17065,0.044194,-0.46609,-2.294,0.020682,0.28692,-0.10853,-0.11269,-0.74773,0.36615,-0.18063,1.5916,0.4242,1.5983
-0.002064,-0.027665,-0.08786,0.032034,-0.12221,-0.1994,0.064294,-0.36684,0.06658,0.029015,0.18194,0.016319,-0.56095,-2.2663,0.012378,0.27185,-0.1065,-0.10382,-0.80657,0.24681,-0.10356,1.7654,0.3652,1.8838
-0.005139,-0.025922,-0.092404,0.029531,-0.13256,-0.24512,0.021695,-0.42318,0.054699,0.011026,0.1783,-0.01381,-0.644,-2.1565,0.003412,0.26852,-0.10424,-0.097963,-0.8219,0.10595,-0.017366,2.0161,0.32144,2.1758
-0.0067778,-0.024738,-0.093026,0.026447,-0.14408,-0.28695,-0.022396,-0.46383,0.040795,0.012736,0.15875,-0.038645,-0.70668,-1.8944,-0.0058013,0.27964,-0.1016,-0.10252,-0.80936,-0.035043,0.070834,2.2807,0.298,2.4061
-0.0071002,-0.023189,-0.089401,0.022867,-0.15769,-0.32398,-0.055305,-0.49035,0.027861,0.049027,0.12888,-0.052075,-0.74664,-1.444,-0.0084441,0.29546,-0.09905,-0.11429,-0.78577,-0.16149,0.15719,2.487,0.28594,2.5178
-0.0074863,-0.021452,-0.083664,0.019366,-0.17564,-0.359,-0.075886,-0.50959,0.018745,0.12285,0.10107,-0.052903,-0.76608,-0.84444,0.0033649,0.29972,-0.097811,-0.12282,-0.75822,-0.26761,0.24178,2.6095,0.27264,2.4888
-0.0094702,-0.019302,-0.079193,0.016859,-0.19875,-0.39525,-0.094116,-0.52905,0.016619,0.2232,0.089452,-0.044702,-0.76866,-0.19699,0.031161,0.28041,-0.098883,-0.11952,-0.72243,-0.35319,0.32702,2.6797,0.25534,2.3431
-0.013295,-0.015106,-0.078166,0.016173,-0.22403,-0.43353,-0.12231,-0.55364,0.024427,0.33064,0.10164,-0.032596,-0.75771,0.39168,0.066378,0.23807,-0.10157,-0.10381,-0.66966,-0.41905,0.41527,2.7359,0.24492,2.1378
-0.017637,-0.0069078,-0.079687,0.0173,-0.24524,-0.47164,-0.166,-0.58478,0.042822,0.42613,0.13342,-0.020182,-0.73675,0.86354,0.093755,0.18578,-0.10272,-0.081583,-0.59547,-0.46527,0.50675,2.7597,0.25627,1.9313
-0.020846,0.0050991,-0.080123,0.01891,-0.2563,-0.50595,-0.22174,-0.62016,0.068121,0.49772,0.17102,-0.0092188,-0.71054,1.2193,0.10039,0.14097,-0.097409,-0.058338,-0.50322,-0.4923,0.59775,2.6662,0.29446,1.7536
-0.022568,0.017378,-0.075631,0.018824,-0.25478,-0.53324,-0.28181,-0.65316,0.092743,0.54196,0.2004,-0.001616,-0.68425,1.483,0.084457,0.11548,-0.080952,-0.034277,-0.40114,-0.50229,0.6795,2.3642,0.34899,1.6014
-0.024254,0.025033,-0.065081,0.015385,-0.24263,-0.55145,-0.33966,-0.67374,0.10894,0.56124,0.21669,-0.00072745,-0.66026,1.6581,0.05725,0.11072,-0.051522,-0.0054246,-0.29695,-0.49776,0.73884,1.8402,0.40026,1.4589
-0.027985,0.025807,-0.051148,0.0086689,-0.22381,-0.55979,-0.3904,-0.67309,0.11369,0.56011,0.2266,-0.0097653,-0.63585,1.716,0.036451,0.12004,-0.012021,0.03099,-0.19494,-0.47838,0.76214,1.1906,0.43198,1.3262
-0.034525,0.022443,-0.038725,0.00047854,-0.20136,-0.5588,-0.4271,-0.65138,0.111,0.54351,0.24184,-0.028431,-0.60499,1.6263,0.03498,0.13446,0.030052,0.072274,-0.097351,-0.43936,0.74164,0.56912,0.43921,1.2278
-0.042211,0.020722,-0.031912,-0.0068997,-0.17644,-0.55099,-0.43924,-0.62303,0.10953,0.51711,0.26893,-0.051258,-0.5644,1.4003,0.053186,0.14686,0.065262,0.11064,-0.00788,-0.37451,0.68059,0.09047,0.4275,1.1948
-0.04774,0.024409,-0.031744,-0.012076,-0.14984,-0.54089,-0.418,-0.61336,0.11699,0.48818,0.30359,-0.070037,-0.51912,1.1037,0.079881,0.15277,0.086404,0.13727,0.066232,-0.28323,0.59305,-0.23199,0.40643,1.2355
-0.04839,0.031566,-0.03605,-0.014965,-0.124,-0.53355,-0.36516,-0.64547,0.13526,0.46516,0.33392,-0.078909,-0.48186,0.82581,0.10114,0.15022,0.091761,0.1467,0.11538,-0.17645,0.49707,-0.46771,0.38385,1.3228
-0.044054,0.035874,-0.041115,-0.016179,-0.10309,-0.53187,-0.29695,-0.72382,0.15983,0.45489,0.3493,-0.078006,-0.46504,0.62583,0.10999,0.14063,0.085258,0.13897,0.13158,-0.076379,0.40518,-0.69256,0.36407,1.4114
-0.037512,0.032177,-0.043861,-0.016333,-0.090958,-0.53461,-0.23656,-0.82503,0.18338,0.45861,0.34777,-0.07248,-0.47091,0.49879,0.10967,0.13009,0.073299,0.11922,0.11285,-0.0087337,0.31867,-0.92379,0.34833,1.4717
-0.032739,0.021485,-0.043325,-0.016032,-0.088527,-0.53704,-0.19935,-0.90359,0.20036,0.46915,0.33623,-0.067745,-0.48787,0.38614,0.1085,0.12793,0.060559,0.095667,0.065393,0.0083364,0.2297,-1.1169,0.33512,1.5125
-0.032528,0.010961,-0.040821,-0.016299,-0.092805,-0.53438,-0.18237,-0.9114,0.20938,0.47167,0.32444,-0.064909,-0.4971,0.22045,0.11107,0.14166,0.047867,0.076384,0.0021598,-0.027638,0.12966,-1.2146,0.32024,1.5729
-0.037149,0.0087354,-0.03874,-0.018533,-0.098246,-0.52562,-0.16775,-0.82102,0.21206,0.44888,0.31813,-0.060033,-0.48549,-0.030599,0.11291,0.17188,0.033522,0.065617,-0.061679,-0.10262,0.017154,-1.1962,0.29814,1.6879
-0.044758,0.017823,-0.038505,-0.023606,-0.099381,-0.51471,-0.13794,-0.63944,0.21042,0.38886,0.3165,-0.04745,-0.45544,-0.34956,0.10285,0.21218,0.0165,0.061217,-0.1136,-0.19225,-0.10037,-1.0849,0.26497,1.8561
-0.052874,0.033962,-0.03897,-0.030832,-0.093123,-0.50792,-0.090005,-0.40385,0.2052,0.29146,0.31469,-0.024217,-0.42402,-0.68661,0.070648,0.25493,-0.0015478,0.055367,-0.14598,-0.27133,-0.21218,-0.92197,0.22101,2.0337
-0.059581,0.048732,-0.036727,-0.038044,-0.079703,-0.50913,-0.037359,-0.16217,0.19663,0.1696,0.30807,0.0076721,-0.41187,-0.98845,0.01418,0.29814,-0.017329,0.039171,-0.15454,-0.32228,-0.31219,-0.74516,0.16997,2.1609
-0.063825,0.055137,-0.028722,-0.043108,-0.062165,-0.51659,0.0023396,0.049737,0.18622,0.044475,0.29479,0.042454,-0.42984,-1.2165,-0.058717,0.34674,-0.02891,0.0087411,-0.13519,-0.33982,-0.40273,-0.59184,0.11538,2.2
-0.065177,0.051493,-0.015375,-0.045715,-0.044911,-0.52358,0.021955,0.22005,0.17766,-0.063244,0.2758,0.07383,-0.47281,-1.3481,-0.13423,0.40697,-0.037673,-0.031361,-0.082857,-0.33063,-0.49146,-0.50896,0.058058,2.1585
-0.06376,0.0414,-0.0013272,-0.047776,-0.03191,-0.52251,0.029688,0.35625,0.17541,-0.14154,0.25366,0.09805,-0.52451,-1.3712,-0.19914,0.47925,-0.047069,-0.069996,0.0060608,-0.30838,-0.58414,-0.53617,-0.0021038,2.0803
-0.060387,0.03064,0.0075825,-0.051825,-0.02522,-0.50964,0.040624,0.46959,0.18165,-0.19092,0.2313,0.1153,-0.56877,-1.2837,-0.24607,0.55648,-0.058867,-0.095542,0.12942,-0.28572,-0.67901,-0.66163,-0.061234,2.0135
-0.056296,0.02346,0.0090756,-0.058653,-0.024429,-0.48707,0.063373,0.56182,0.19399,-0.22257,0.21059,0.12895,-0.5984,-1.099,-0.2753,0.62914,-0.070116,-0.1021,0.2777,-0.26668,-0.76682,-0.79444,-0.10871,1.9777
-0.05222,0.020437,0.0067785,-0.06624,-0.027236,-0.46072,0.093661,0.62419,0.2057,-0.25265,0.19039,0.14304,-0.61586,-0.8493,-0.29328,0.69129,-0.073816,-0.091868,0.43709,-0.2436,-0.83586,-0.79907,-0.1311,1.9534
-0.047547,0.018788,0.0075966,-0.071011,-0.030824,-0.43589,0.11958,0.64752,0.20912,-0.29542,0.16555,0.15915,-0.62676,-0.57876,-0.30888,0.74079,-0.063436,-0.072764,0.59496,-0.20118,-0.8784,-0.58447,-0.12124,1.8994
-0.040751,0.014722,0.015921,-0.070487,-0.033158,-0.41375,0.13278,0.63322,0.19994,-0.3575,0.12906,0.17448,-0.63328,-0.32959,-0.32899,0.77369,-0.038103,-0.053479,0.74276,-0.126,-0.89447,-0.18033,-0.085463,1.786
-0.031201,0.0063921,0.029606,-0.065237,-0.033477,-0.3912,0.13537,0.59507,0.17961,-0.43476,0.077531,0.1828,-0.63331,-0.12964,-0.35518,0.77999,-0.0043352,-0.039338,0.87389,-0.015947,-0.89182,0.26975,-0.041754,1.6184
-0.020843,-0.004505,0.041414,-0.058627,-0.031935,-0.36425,0.13736,0.55047,0.15377,-0.51268,0.016448,0.17823,-0.62528,0.010851,-0.38283,0.74787,0.027368,-0.030919,0.97931,0.11644,-0.88251,0.60335,-0.008977,1.4367
-0.013793,-0.013827,0.044846,-0.054695,-0.028984,-0.3325,0.1481,0.5095,0.12771,-0.57172,-0.039895,0.15953,-0.61297,0.09556,-0.40313,0.67534,0.048755,-0.025265,1.0467,0.24897,-0.87799,0.75,0.0052879,1.2903
-0.013535,-0.01827,0.039295,-0.055811,-0.025175,-0.30099,0.16962,0.47164,0.10228,-0.59789,-0.075822,0.13167,-0.6043,0.13848,-0.40663,0.57912,0.058288,-0.01831,1.0659,0.35999,-0.88393,0.76853,0.0087585,1.2068
-0.019818,-0.018379,0.029999,-0.061688,-0.021456,-0.27761,0.19707,0.43236,0.07352,-0.59455,-0.084824,0.1031,-0.60417,0.16324,-0.38645,0.49053,0.060693,-0.0072514,1.0365,0.43731,-0.89705,0.78404,0.017102,1.1769
-0.028107,-0.018605,0.022905,-0.070032,-0.019449,-0.26782,0.22427,0.39251,0.03642,-0.58732,-0.07532,0.080798,-0.60771,0.20066,-0.3398,0.43814,0.062406,0.0077359,0.97049,0.48098,-0.90593,0.88341,0.041134,1.165
-0.032561,-0.023996,0.019102,-0.077964,-0.021094,-0.27063,0.24856,0.36098,-0.010158,-0.61478,-0.066398,0.066927,-0.6011,0.27933,-0.26839,0.42864,0.06685,0.022883,0.88564,0.49941,-0.89696,1.0586,0.078777,1.1391
-0.030424,-0.036046,0.013825,-0.083169,-0.027613,-0.27919,0.27074,0.34788,-0.061418,-0.70551,-0.07581,0.059337,-0.57098,0.4118,-0.17856,0.44088,0.073082,0.031808,0.79439,0.50273,-0.86264,1.2382,0.11782,1.095
-0.024212,-0.051244,0.00095819,-0.084441,-0.038458,-0.28575,0.29147,0.35525,-0.10918,-0.85381,-0.10876,0.054729,-0.51561,0.58729,-0.08126,0.43885,0.078009,0.02828,0.69756,0.4977,-0.80721,1.3651,0.14644,1.0606
-0.019724,-0.063706,-0.020872,-0.081893,-0.051094,-0.28684,0.3085,0.37478,-0.147,-1.0115,-0.15551,0.051145,-0.44851,0.77815,0.0093731,0.39477,0.0794,0.0097144,0.5882,0.48682,-0.74512,1.4422,0.16233,1.075
-0.021343,-0.069796,-0.045895,-0.077016,-0.062009,-0.28439,0.31806,0.3956,-0.17393,-1.1061,-0.19902,0.047835,-0.39054,0.95542,0.079564,0.30601,0.076909,-0.020775,0.46191,0.47071,-0.69287,1.5048,0.17316,1.1599
-0.028488,-0.070875,-0.064624,-0.072332,-0.068438,-0.28205,0.31882,0.41501,-0.19433,-1.078,-0.22637,0.043749,-0.35597,1.1001,0.12053,0.1943,0.070895,-0.055649,0.32354,0.45132,-0.65982,1.5538,0.18865,1.3018
-0.036156,-0.07193,-0.070386,-0.070313,-0.069749,-0.2802,0.3146,0.44131,-0.21447,-0.91509,-0.23565,0.037329,-0.34269,1.2028,0.1315,0.089893,0.061178,-0.087203,0.18387,0.43343,-0.64433,1.5216,0.21197,1.4572
-0.039083,-0.077306,-0.063755,-0.071912,-0.067624,-0.27463,0.31258,0.48516,-0.23864,-0.66148,-0.23478,0.028441,-0.33386,1.2582,0.11908,0.01375,0.047519,-0.11194,0.049811,0.42339,-0.63739,1.3118,0.2376,1.5743
-0.035979,-0.087125,-0.051517,-0.075757,-0.064986,-0.26006,0.31811,0.54633,-0.26728,-0.39348,-0.23495,0.020161,-0.30915,1.2667,0.093637,-0.029635,0.031282,-0.13167,-0.081179,0.42546,-0.6303,0.88063,0.25697,1.6167
-0.030292,-0.097191,-0.041221,-0.078919,-0.064539,-0.23547,0.33,0.6086,-0.29743,-0.17731,-0.24451,0.017533,-0.25724,1.2455,0.06521,-0.047019,0.016043,-0.15035,-0.21584,0.43808,-0.62052,0.28727,0.26603,1.5758
-0.027007,-0.10217,-0.035756,-0.078958,-0.067886,-0.20611,0.33985,0.64857,-0.32438,-0.035524,-0.26675,0.023276,-0.18104,1.2333,0.041546,-0.047137,0.0057949,-0.16931,-0.35299,0.45261,-0.61187,-0.33274,0.26776,1.4689
-0.02842,-0.099197,-0.032057,-0.07576,-0.075536,-0.18034,0.33597,0.65256,-0.34343,0.05728,-0.30074,0.034059,-0.093847,1.2737,0.028436,-0.036717,0.002024,-0.18482,-0.47664,0.45652,-0.60995,-0.84985,0.26797,1.3292
-0.032544,-0.089151,-0.024538,-0.071629,-0.087237,-0.16395,0.30916,0.62795,-0.35158,0.14877,-0.34279,0.041308,-0.011134,1.3817,0.030555,-0.023145,0.002501,-0.19032,-0.56244,0.44023,-0.61622,-1.2094,0.26884,1.1952
-0.035283,-0.075147,-0.010035,-0.069473,-0.10192,-0.15675,0.25653,0.59959,-0.34894,0.2724,-0.38725,0.036762,0.05577,1.5201,0.05089,-0.017159,0.0033715,-0.18135,-0.59382,0.40374,-0.6247,-1.4369,0.26653,1.1048
-0.034145,-0.06033,0.0098017,-0.070502,-0.11726,-0.1538,0.18145,0.59373,-0.33888,0.42471,-0.42807,0.018494,0.10119,1.6124,0.088635,-0.029145,0.0030736,-0.15918,-0.57477,0.35835,-0.6233,-1.5897,0.25476,1.0908
-0.030066,-0.047117,0.030278,-0.073269,-0.12971,-0.14955,0.090074,0.62149,-0.32645,0.56956,-0.46136,-0.0077618,0.12349,1.5913,0.13747,-0.060634,0.0045644,-0.13044,-0.52817,0.32136,-0.59911,-1.708,0.23044,1.176
-0.025969,-0.037999,0.047504,-0.07473,-0.13577,-0.14099,-0.012562,0.67309,-0.3154,0.66358,-0.48756,-0.033143,0.12329,1.4488,0.18646,-0.099567,0.013438,-0.10345,-0.48103,0.30634,-0.54523,-1.8042,0.19595,1.3665
-0.023728,-0.035959,0.060723,-0.072361,-0.13425,-0.12781,-0.12383,0.72497,-0.306,0.68415,-0.5103,-0.052116,0.10292,1.2466,0.2242,-0.12609,0.033032,-0.084293,-0.44821,0.31544,-0.46509,-1.8833,0.15678,1.6465
-0.022552,-0.042891,0.071321,-0.065659,-0.12771,-0.11085,-0.24064,0.75293,-0.29554,0.64204,-0.53193,-0.065331,0.066185,1.0768,0.24417,-0.12608,0.060537,-0.075106,-0.42658,0.33876,-0.37136,-1.9528,0.1181,1.9804
-0.02017,-0.056993,0.080024,-0.056117,-0.12178,-0.091226,-0.35443,0.74214,-0.28109,0.57198,-0.54983,-0.076867,0.017684,1.0019,0.24793,-0.10154,0.087725,-0.074241,-0.40236,0.361,-0.27931,-2.003,0.085001,2.3231
-0.015442,-0.072112,0.085396,-0.046041,-0.12198,-0.070956,-0.44893,0.68974,-0.2624,0.50829,-0.55769,-0.089144,-0.037646,1.0206,0.2437,-0.068883,0.10622,-0.077091,-0.36394,0.37021,-0.19879,-1.9803,0.06603,2.6348
-0.0097177,-0.080928,0.085159,-0.037269,-0.13032,-0.053403,-0.50467,0.60217,-0.24229,0.46124,-0.55191,-0.10069,-0.09389,1.0839,0.24061,-0.046403,0.11326,-0.077216,-0.31013,0.36257,-0.13006,-1.7955,0.075161,2.8935
-0.0056453,-0.080165,0.07884,-0.030483,-0.14379,-0.041637,-0.50968,0.49132,-0.22467,0.40927,-0.5375,-0.10889,-0.14306,1.1414,0.24222,-0.041888,0.11329,-0.068858,-0.24914,0.34092,-0.066272,-1.3773,0.12719,3.0973
-0.0046576,-0.073354,0.068869,-0.025188,-0.15628,-0.035183,-0.46931,0.37188,-0.21195,0.31298,-0.52686,-0.11471,-0.17596,1.1778,0.2439,-0.050801,0.11394,-0.050855,-0.19153,0.3099,-0.00047611,-0.73132,0.22752,3.2556
-0.0056771,-0.068098,0.058869,-0.020126,-0.16244,-0.028148,-0.40647,0.25896,-0.2039,0.14352,-0.5311,-0.12418,-0.18639,1.2087,0.23631,-0.065381,0.11981,-0.02919,-0.14327,0.27232,0.068464,0.048955,0.36362,3.3741
-0.0063602,-0.069599,0.050776,-0.014095,-0.16057,-0.011473,-0.34973,0.16493,-0.19826,-0.092722,-0.55067,-0.14438,-0.1767,1.248,0.21293,-0.084893,0.12926,-0.01455,-0.10386,0.22913,0.13542,0.83186,0.50577,3.4454
-0.0056914,-0.075883,0.043628,-0.0069903,-0.15268,0.021206,-0.3167,0.096099,-0.19181,-0.35049,-0.57394,-0.17709,-0.15985,1.2805,0.17633,-0.11651,0.13663,-0.014881,-0.069492,0.18138,0.19355,1.5192,0.61864,3.4524
-0.0053043,-0.079089,0.035209,-0.00044066,-0.14196,0.068064,-0.3055,0.051836,-0.1813,-0.56778,-0.58571,-0.21599,-0.15415,1.2676,0.1383,-0.16567,0.13751,-0.028491,-0.038548,0.1312,0.23948,2.0805,0.67693,3.3843
-0.0079972,-0.072002,0.024957,0.0028348,-0.1301,0.11841,-0.30167,0.027395,-0.16453,-0.69994,-0.57893,-0.25076,-0.17277,1.1815,0.11324,-0.22532,0.13217,-0.044583,-0.015724,0.080895,0.27467,2.5292,0.67566,3.251
-0.014616,-0.054443,0.015347,0.0010079,-0.11695,0.15797,-0.29545,0.018824,-0.14199,-0.74252,-0.55989,-0.2756,-0.21495,1.0356,0.1091,-0.27502,0.12395,-0.052322,-0.012037,0.031558,0.30274,2.8719,0.62939,3.084
-0.022281,-0.034243,0.010371,-0.0048938,-0.10242,0.17678,-0.29496,0.025805,-0.11796,-0.72755,-0.54263,-0.29566,-0.26591,0.88335,0.12237,-0.29227,0.11451,-0.051127,-0.040345,-0.016801,0.32607,3.0834,0.56243,2.9209
-0.025989,-0.022092,0.012359,-0.010942,-0.088475,0.17438,-0.32392,0.049489,-0.099251,-0.69744,-0.53765,-0.32594,-0.30637,0.78482,0.14055,-0.26743,0.10074,-0.052353,-0.10855,-0.063717,0.34522,3.127,0.49681,2.7841
-0.02259,-0.024337,0.019827,-0.012758,-0.079037,0.15879,-0.4054,0.086781,-0.091131,-0.67703,-0.54431,-0.38227,-0.32504,0.76907,0.15029,-0.21051,0.076752,-0.069634,-0.21443,-0.10742,0.36129,2.9964,0.44446,2.6701
-0.013682,-0.039004,0.02812,-0.0087221,-0.077576,0.14056,-0.54441,0.12649,-0.092984,-0.66404,-0.5521,-0.47006,-0.32464,0.81946,0.14557,-0.14519,0.039422,-0.10597,-0.34556,-0.1462,0.37824,2.7348,0.40602,2.5572
-0.0046764,-0.057465,0.032357,-0.0011967,-0.084767,0.12634,-0.72239,0.15228,-0.097447,-0.64165,-0.54836,-0.57787,-0.31723,0.88929,0.13049,-0.095707,-0.0073782,-0.14952,-0.48458,-0.18109,0.40207,2.4152,0.3748,2.4226
-0.00056944,-0.070043,0.030433,0.0054667,-0.0983,0.11646,-0.90599,0.15201,-0.094519,-0.59928,-0.52544,-0.68051,-0.31309,0.93082,0.1157,-0.07678,-0.053924,-0.18264,-0.61667,-0.21723,0.43719,2.1002,0.34269,2.2537
-0.0020911,-0.071692,0.023941,0.0084636,-0.11484,0.10762,-1.0617,0.12657,-0.077926,-0.54292,-0.48265,-0.75018,-0.31229,0.91565,0.11135,-0.091875,-0.090471,-0.19623,-0.73437,-0.26215,0.48327,1.8189,0.30534,2.0487
-0.0056442,-0.06439,0.016508,0.0085318,-0.13195,0.097795,-1.1656,0.09043,-0.048856,-0.48806,-0.42378,-0.76953,-0.30563,0.83812,0.12104,-0.13744,-0.11294,-0.19628,-0.83681,-0.32168,0.5353,1.5722,0.26468,1.8094
-0.0069897,-0.055227,0.010952,0.0087989,-0.14805,0.08921,-1.2055,0.061998,-0.01428,-0.44429,-0.35411,-0.73894,-0.2833,0.70944,0.13976,-0.20728,-0.12378,-0.19666,-0.9243,-0.3964,0.58681,1.3544,0.22789,1.5398
-0.0051388,-0.051542,0.0073605,0.011822,-0.16097,0.087024,-1.1793,0.050429,0.018387,-0.40697,-0.27941,-0.67407,-0.24386,0.55304,0.156,-0.29413,-0.12793,-0.20498,-0.99218,-0.4807,0.63304,1.1653,0.20305,1.2506
-0.0027975,-0.056064,0.0034043,0.017637,-0.16742,0.095156,-1.0955,0.049587,0.045729,-0.36346,-0.20598,-0.59569,-0.19632,0.40245,0.15685,-0.3901,-0.12786,-0.21497,-1.0286,-0.56469,0.67145,1.0048,0.19359,0.96125
-0.003139,-0.065082,-0.0034911,0.024291,-0.16461,0.11292,-0.97457,0.04443,0.068719,-0.30738,-0.13953,-0.51878,-0.1544,0.29471,0.13418,-0.48826,-0.12254,-0.21257,-1.0183,-0.63721,0.69996,0.86401,0.19474,0.69064
-0.0062769,-0.071057,-0.013793,0.029783,-0.15283,0.13539,-0.84569,0.024952,0.089842,-0.24713,-0.082852,-0.44786,-0.12818,0.2556,0.089346,-0.58431,-0.1106,-0.18961,-0.95019,-0.68821,0.71553,0.72742,0.19448,0.44278
-0.009012,-0.06824,-0.025075,0.033278,-0.1359,0.15736,-0.73723,-0.0038584,0.11024,-0.20098,-0.034385,-0.38049,-0.11907,0.28438,0.03397,-0.6753,-0.09399,-0.1522,-0.82575,-0.70987,0.71542,0.58768,0.17887,0.20272
-0.0080579,-0.05741,-0.033392,0.034784,-0.11829,0.17787,-0.66489,-0.024573,0.12922,-0.18333,0.010335,-0.31424,-0.12094,0.35141,-0.014733,-0.75519,-0.077629,-0.11571,-0.6612,-0.697,0.70036,0.45542,0.13868,-0.046768
-0.0034316,-0.045979,-0.03591,0.034401,-0.10128,0.20192,-0.62655,-0.020738,0.14549,-0.19388,0.055161,-0.25034,-0.12485,0.41405,-0.042575,-0.8114,-0.064887,-0.091288,-0.48275,-0.64769,0.67645,0.35087,0.073288,-0.29855
0.0014361,-0.042843,-0.032997,0.032503,-0.08172,0.2381,-0.60787,0.0093613,0.15804,-0.21848,0.1007,-0.19096,-0.12333,0.44134,-0.045922,-0.82816,-0.053245,-0.076554,-0.31526,-0.56443,0.65331,0.28283,-0.010217,-0.51092
0.0029925,-0.051544,-0.028348,0.030565,-0.055226,0.29356,-0.5937,0.049192,0.16562,-0.2394,0.14475,-0.13417,-0.112,0.42942,-0.032765,-0.79643,-0.034964,-0.059007,-0.17062,-0.45518,0.63918,0.23628,-0.10151,-0.63065
0.00099305,-0.067041,-0.026971,0.031057,-0.020815,0.36957,-0.57595,0.073048,0.16612,-0.24575,0.18505,-0.072967,-0.088661,0.39666,-0.016061,-0.72331,-0.0031939,-0.028825,-0.042546,-0.33333,0.6365,0.18387,-0.19158,-0.63709
-0.0012831,-0.078901,-0.032256,0.035645,0.017414,0.46007,-0.55274,0.06066,0.15751,-0.23631,0.22143,-0.0010866,-0.052091,0.36425,-0.0041368,-0.63197,0.041272,0.010972,0.087866,-0.21571,0.64126,0.11322,-0.27452,-0.57191
-0.00019374,-0.078718,-0.043973,0.043098,0.053527,0.55392,-0.52194,0.0072704,0.14039,-0.21489,0.25535,0.079094,-0.0018402,0.33868,0.0042995,-0.54985,0.088552,0.046151,0.23875,-0.11837,0.64679,0.043659,-0.34627,-0.52615
0.0048094,-0.06612,-0.058469,0.049385,0.084964,0.63969,-0.47703,-0.076163,0.11961,-0.18457,0.28768,0.15455,0.060879,0.30916,0.016495,-0.4926,0.12516,0.06286,0.41426,-0.051551,0.64897,0.012887,-0.40257,-0.59038
0.010659,-0.048761,-0.070946,0.050626,0.11456,0.71051,-0.41006,-0.17057,0.10299,-0.14659,0.31739,0.20884,0.13228,0.25914,0.03667,-0.4557,0.14224,0.058561,0.60074,-0.01616,0.64918,0.041758,-0.4386,-0.80558
0.013408,-0.036377,-0.078343,0.046633,0.14712,0.76685,-0.31942,-0.25821,0.097136,-0.10335,0.34252,0.23342,0.20628,0.18039,0.059723,-0.4198,0.14007,0.042974,0.77508,-0.0040886,0.653,0.10863,-0.45075,-1.1524
0.011522,-0.03361,-0.080893,0.041584,0.1837,0.81562,-0.21607,-0.3294,0.10344,-0.060539,0.36226,0.23365,0.27629,0.078674,0.073294,-0.36547,0.12588,0.029192,0.91944,-0.003054,0.66647,0.15983,-0.4389,-1.5828
0.0067324,-0.037061,-0.081353,0.040738,0.21932,0.86584,-0.12363,-0.38512,0.11726,-0.0248,0.37756,0.22455,0.33776,-0.030124,0.066473,-0.28594,0.10739,0.023643,1.0312,-0.0037083,0.69253,0.15215,-0.40694,-2.0619
0.0019795,-0.038549,-0.082539,0.045815,0.24675,0.92261,-0.072428,-0.43568,0.13124,0.0014845,0.38936,0.22024,0.38957,-0.12742,0.037711,-0.18899,0.087785,0.023429,1.1204,-0.0048993,0.73001,0.092779,-0.36092,-2.5803
-0.001338,-0.031669,-0.085134,0.053254,0.26318,0.98267,-0.090103,-0.49487,0.14019,0.022869,0.39636,0.22634,0.43307,-0.19782,-0.0044375,-0.088384,0.065661,0.021868,1.1973,-0.013501,0.77451,0.041134,-0.30662,-3.1276
-0.004189,-0.016406,-0.087515,0.057139,0.27328,1.0342,-0.19127,-0.57014,0.14407,0.047678,0.39522,0.24062,0.46952,-0.23366,-0.047519,0.0065822,0.038761,0.015525,1.2604,-0.038507,0.81969,0.067011,-0.24835,-3.6555
-0.0083016,0.0015567,-0.08769,0.054309,0.28528,1.0618,-0.36844,-0.65312,0.14698,0.081365,0.38395,0.25926,0.49804,-0.23949,-0.082391,0.094961,0.0075196,0.0057873,1.2973,-0.083069,0.85811,0.19663,-0.18962,-4.0715
-0.013948,0.015735,-0.08552,0.047081,0.30324,1.0551,-0.5878,-0.71826,0.15316,0.12244,0.36558,0.28121,0.51629,-0.23314,-0.10581,0.17981,-0.024601,-0.0054381,1.2968,-0.14001,0.88251,0.38934,-0.13423,-4.2759
-0.019341,0.023591,-0.083082,0.04112,0.32254,1.0151,-0.79447,-0.73481,0.16285,0.16489,0.34815,0.30663,0.52336,-0.23707,-0.11803,0.26113,-0.053471,-0.019927,1.2626,-0.19426,0.8882,0.56355,-0.08605,-4.2187
-0.022129,0.027276,-0.082678,0.040443,0.33328,0.95539,-0.92855,-0.6874,0.17119,0.20508,0.34,0.33233,0.52189,-0.25973,-0.11964,0.33282,-0.076544,-0.041355,1.2157,-0.23098,0.87551,0.65158,-0.047444,-3.9299
-0.021468,0.030338,-0.084329,0.044078,0.32918,0.89573,-0.94639,-0.59102,0.17074,0.24688,0.34369,0.35073,0.51688,-0.27966,-0.11132,0.3857,-0.093114,-0.068066,1.1808,-0.24384,0.84963,0.64136,-0.018011,-3.4989
-0.018732,0.033887,-0.085283,0.047267,0.31426,0.85243,-0.83658,-0.48646,0.15621,0.30034,0.35384,0.35451,0.51203,-0.24954,-0.095754,0.41282,-0.10318,-0.087311,1.1694,-0.2379,0.81632,0.57597,0.0045184,-3.0198
-0.016338,0.035971,-0.082309,0.045856,0.30127,0.83066,-0.62187,-0.41629,0.12817,0.37474,0.36119,0.34281,0.50721,-0.12571,-0.078348,0.41234,-0.10687,-0.077849,1.1726,-0.22551,0.77572,0.51601,0.021449,-2.544
-0.015908,0.034582,-0.074841,0.039709,0.30239,0.82388,-0.3468,-0.39755,0.093336,0.47125,0.3599,0.3222,0.50028,0.094599,-0.064706,0.38681,-0.10516,-0.021227,1.171,-0.21866,0.71952,0.49624,0.030688,-2.0749
-0.017448,0.031085,-0.065954,0.032159,0.31994,0.81989,-0.058609,-0.41205,0.060795,0.5805,0.35211,0.30097,0.49171,0.35902,-0.05728,0.3414,-0.10057,0.085457,1.1515,-0.22316,0.635,0.50793,0.027259,-1.6016
-0.020079,0.030323,-0.060012,0.02641,0.34438,0.809,0.20866,-0.42196,0.036433,0.68603,0.34563,0.28211,0.48723,0.58686,-0.054738,0.28389,-0.096171,0.22436,1.1162,-0.238,0.51452,0.51438,0.0070598,-1.1366
-0.023343,0.036872,-0.058947,0.022598,0.36157,0.78875,0.44112,-0.39822,0.019083,0.77079,0.34654,0.26191,0.49443,0.72244,-0.054671,0.22538,-0.093169,0.36314,1.077,-0.25823,0.36357,0.48227,-0.028696,-0.72483
-0.027652,0.050734,-0.060536,0.018315,0.36322,0.76315,0.64252,-0.33886,0.0011678,0.82286,0.35302,0.23606,0.51502,0.7749,-0.056209,0.17893,-0.089367,0.46876,1.0409,-0.27826,0.20102,0.40371,-0.071903,-0.41475
-0.033429,0.066598,-0.060334,0.011829,0.35249,0.73868,0.82517,-0.26407,-0.026205,0.83837,0.35562,0.20705,0.53935,0.81011,-0.059159,0.1544,-0.080605,0.52064,1.0028,-0.29305,0.050458,0.29586,-0.11048,-0.2215
-0.039939,0.077701,-0.055535,0.0045081,0.3408,0.72071,0.99821,-0.19494,-0.066926,0.82159,0.34401,0.18555,0.54918,0.89744,-0.060601,0.15285,-0.064519,0.51662,0.95181,-0.29816,-0.07158,0.18385,-0.13399,-0.11419
-0.045248,0.081112,-0.047212,-0.00024495,0.33905,0.71213,1.1584,-0.13575,-0.11668,0.78275,0.31456,0.18351,0.52835,1.0532,-0.053672,0.16534,-0.043458,0.47025,0.88429,-0.29053,-0.16214,0.082978,-0.13819,-0.040262
-0.047687,0.079891,-0.038933,-0.00063609,0.35038,0.71336,1.2891,-0.074349,-0.16523,0.73431,0.27288,0.20464,0.47396,1.2285,-0.031662,0.17854,-0.023725,0.40267,0.81085,-0.27055,-0.22899,-0.0074764,-0.12563,0.034062
-0.047546,0.08018,-0.033113,0.00097135,0.36935,0.722,1.3705,0.0024252,-0.20276,0.68668,0.22972,0.24041,0.39942,1.3535,0.0052295,0.18347,-0.011466,0.33348,0.74848,-0.24354,-0.28111,-0.098054,-0.10241,0.10165
-0.047204,0.085722,-0.028593,-0.0004974,0.38669,0.73236,1.3959,0.094082,-0.22575,0.6451,0.19446,0.2749,0.32683,1.4009,0.047021,0.18056,-0.0086108,0.27436,0.70468,-0.21831,-0.32025,-0.1987,-0.074226,0.128
-0.049175,0.094509,-0.021719,-0.0083002,0.39503,0.73638,1.3829,0.18561,-0.23817,0.60914,0.17164,0.2944,0.27378,1.4119,0.078678,0.17691,-0.012269,0.22711,0.66793,-0.20307,-0.33993,-0.31251,-0.044535,0.085965
-0.053681,0.10042,-0.0099179,-0.020396,0.39143,0.72684,1.3691,0.25923,-0.2473,0.57435,0.16222,0.29426,0.24406,1.4593,0.089172,0.17836,-0.017884,0.18641,0.61387,-0.20092,-0.33215,-0.43561,-0.015607,-0.020712
-0.058135,0.09851,0.0055172,-0.030554,0.37665,0.7012,1.3929,0.30665,-0.25741,0.53387,0.1667,0.27867,0.22799,1.5752,0.077341,0.18326,-0.023122,0.14552,0.52338,-0.20811,-0.29604,-0.55958,0.0093196,-0.16576
-0.059422,0.089499,0.019912,-0.033501,0.35336,0.66318,1.471,0.33118,-0.26625,0.47868,0.18564,0.25539,0.2111,1.7087,0.049991,0.18324,-0.028984,0.10178,0.39886,-0.21576,-0.24142,-0.67256,0.025467,-0.33118
-0.057106,0.079797,0.02852,-0.029681,0.32533,0.62044,1.589,0.34042,-0.26683,0.39752,0.21701,0.23072,0.18418,1.7529,0.014879,0.17001,-0.037363,0.058813,0.26661,-0.21414,-0.18435,-0.75969,0.028518,-0.53015
-0.054439,0.076963,0.029877,-0.025246,0.29741,0.58011,1.7129,0.33859,-0.25269,0.28018,0.25351,0.20846,0.14796,1.6234,-0.024573,0.142,-0.047585,0.024151,0.16409,-0.19703,-0.13826,-0.80638,0.01779,-0.79892
-0.055745,0.084236,0.026703,-0.027043,0.27462,0.54509,1.8117,0.32609,-0.22236,0.12567,0.28434,0.19179,0.11064,1.3267,-0.068608,0.10497,-0.05532,0.0041938,0.1209,-0.1645,-0.10775,-0.80542,-0.0022094,-1.1624
-0.062146,0.098359,0.024103,-0.036895,0.26007,0.51362,1.8737,0.30468,-0.17962,-0.048517,0.3012,0.18447,0.0814,0.96199,-0.1166,0.066371,-0.055037,8.7886e-006,0.14546,-0.12318,-0.089223,-0.76362,-0.023744,-1.602
-0.069553,0.11218,0.026753,-0.050169,0.25309,0.48145,1.9043,0.28072,-0.13004,-0.20431,0.30422,0.18916,0.065379,0.65678,-0.16419,0.028613,-0.044002,0.0067445,0.22378,-0.083628,-0.077132,-0.7019,-0.040762,-2.0517
-0.071269,0.11978,0.036864,-0.059819,0.24936,0.44437,1.9102,0.26166,-0.07765,-0.29458,0.30246,0.20408,0.063034,0.4888,-0.20504,-0.012567,-0.024541,0.016695,0.32857,-0.055559,-0.069708,-0.64689,-0.053687,-2.4269
-0.063455,0.12018,0.053509,-0.062249,0.24318,0.39925,1.8844,0.24908,-0.024529,-0.28577,0.30787,0.22166,0.073194,0.45266,-0.23499,-0.063358,-0.0028366,0.023623,0.43203,-0.042799,-0.06968,-0.61937,-0.070481,-2.6637
-0.048823,0.11689,0.073036,-0.059871,0.23023,0.34371,1.8082,0.2362,0.026734,-0.17912,0.32667,0.2313,0.096347,0.48746,-0.25418,-0.12509,0.014728,0.025458,0.5156,-0.041107,-0.080268,-0.6278,-0.10251,-2.7451
-0.035016,0.11422,0.090384,-0.05841,0.20936,0.27598,1.6684,0.21376,0.071108,-0.015269,0.35433,0.22508,0.13491,0.5301,-0.26499,-0.19163,0.025019,0.023959,0.57368,-0.040919,-0.10103,-0.67045,-0.15735,-2.7005
-0.02863,0.11344,0.1013,-0.061708,0.18261,0.19591,1.4755,0.17963,0.10235,0.14424,0.37754,0.20248,0.18994,0.54553,-0.26843,-0.25348,0.029297,0.022119,0.61189,-0.034024,-0.12756,-0.74244,-0.2332,-2.5886
-0.02984,0.11187,0.10476,-0.068726,0.15433,0.10673,1.2664,0.14303,0.11687,0.24927,0.38166,0.1705,0.25672,0.51558,-0.2629,-0.30533,0.031825,0.021476,0.64193,-0.02002,-0.15488,-0.84066,-0.31886,-2.4762
-0.032425,0.10546,0.10388,-0.075046,0.12966,0.015836,1.0858,0.11866,0.11675,0.28706,0.35896,0.13899,0.32306,0.41154,-0.24653,-0.35045,0.037203,0.021278,0.67525,-0.007806,-0.18068,-0.96326,-0.39932,-2.4223
-0.029391,0.092617,0.1039,-0.077014,0.11286,-0.066886,0.95889,0.11519,0.10896,0.28423,0.31261,0.11442,0.37257,0.18905,-0.2206,-0.39812,0.047989,0.019932,0.71705,-0.010414,-0.2054,-1.1058,-0.4632,-2.4675
-0.019387,0.076072,0.10826,-0.074608,0.10555,-0.13293,0.87626,0.12797,0.10119,0.28271,0.25467,0.096329,0.39153,-0.18192,-0.19056,-0.45551,0.063565,0.017402,0.7631,-0.036009,-0.22982,-1.2583,-0.50719,-2.6247
-0.0081653,0.061467,0.11576,-0.070831,0.10597,-0.17942,0.80236,0.14204,0.097411,0.30595,0.19951,0.078836,0.37558,-0.67708,-0.16311,-0.52062,0.080562,0.016497,0.8016,-0.080691,-0.25326,-1.4052,-0.5355,-2.8737
-0.0035622,0.053599,0.12174,-0.068821,0.10988,-0.21103,0.70212,0.14238,0.096779,0.33914,0.15726,0.056087,0.33184,-1.2063,-0.14154,-0.58193,0.094645,0.021833,0.82054,-0.1278,-0.27476,-1.5268,-0.55601,-3.1662
-0.0082862,0.053241,0.12273,-0.069569,0.11319,-0.23797,0.56621,0.12248,0.096148,0.33817,0.13101,0.02753,0.27564,-1.6462,-0.12287,-0.62581,0.10303,0.037009,0.81672,-0.1546,-0.29556,-1.6036,-0.5764,-3.4432
-0.016883,0.056749,0.1204,-0.071959,0.11442,-0.27075,0.41621,0.084688,0.093818,0.2616,0.11927,-0.00064743,0.22405,-1.898,-0.099113,-0.6464,0.10651,0.061893,0.79971,-0.14293,-0.31949,-1.6226,-0.60205,-3.6579
-0.019726,0.058539,0.12078,-0.074311,0.11532,-0.31465,0.28656,0.033933,0.091379,0.1037,0.12078,-0.018932,0.19015,-1.9313,-0.062549,-0.65039,0.10958,0.091768,0.7862,-0.088368,-0.34974,-1.5845,-0.63537,-3.7918
-0.010759,0.054513,0.12879,-0.075523,0.11906,-0.36758,0.19791,-0.027891,0.092538,-0.094873,0.137,-0.020379,0.18002,-1.7913,-0.012067,-0.65269,0.11807,0.1188,0.78719,-0.0029241,-0.38424,-1.506,-0.67511,-3.8528
0.0075255,0.044185,0.14298,-0.07496,0.12754,-0.42265,0.14294,-0.1015,0.10034,-0.26651,0.16953,-0.0049956,0.1923,-1.5707,0.043054,-0.66562,0.13525,0.13488,0.79755,0.089969,-0.41439,-1.4124,-0.71575,-3.859
0.025939,0.030503,0.15547,-0.071991,0.13989,-0.47383,0.095238,-0.18538,0.11512,-0.35336,0.21493,0.020163,0.21899,-1.3679,0.085045,-0.6897,0.15893,0.13432,0.79679,0.16564,-0.42897,-1.3218,-0.74831,-3.8206
0.035553,0.017944,0.15808,-0.066329,0.1531,-0.52029,0.033382,-0.27274,0.13457,-0.3369,0.26277,0.045011,0.24737,-1.2513,0.095384,-0.71286,0.18185,0.1155,0.7618,0.20796,-0.42099,-1.2341,-0.76341,-3.7328
0.033979,0.010162,0.14937,-0.058982,0.16391,-0.56613,-0.040166,-0.35445,0.15549,-0.24246,0.30049,0.061758,0.26367,-1.2414,0.064679,-0.71906,0.19559,0.081176,0.68217,0.21381,-0.39211,-1.1352,-0.75531,-3.5846
0.026246,0.0082475,0.13629,-0.052394,0.17025,-0.61578,-0.10117,-0.42526,0.17578,-0.11812,0.32235,0.068245,0.25838,-1.3119,-0.0013869,-0.69975,0.19566,0.037394,0.56654,0.19074,-0.35124,-1.0142,-0.72434,-3.3735
0.020246,0.010215,0.12857,-0.048919,0.17137,-0.66893,-0.12489,-0.48701,0.19538,-0.0046531,0.33437,0.067653,0.23037,-1.4104,-0.084615,-0.65988,0.18416,-0.0087027,0.43557,0.15085,-0.30857,-0.88,-0.67596,-3.1138
0.020894,0.011961,0.13056,-0.04867,0.16713,-0.71957,-0.10847,-0.54476,0.21564,0.083913,0.3495,0.065415,0.18683,-1.4906,-0.16437,-0.61418,0.16789,-0.051756,0.30776,0.10567,-0.26961,-0.75942,-0.61761,-2.8299
0.027453,0.0094779,0.13765,-0.048996,0.15778,-0.76013,-0.075284,-0.599,0.23779,0.1592,0.37524,0.06561,0.13846,-1.54,-0.22846,-0.5774,0.15326,-0.090444,0.18921,0.064531,-0.23359,-0.67726,-0.55561,-2.5406
0.035273,0.0013323,0.14025,-0.046593,0.1445,-0.78766,-0.057989,-0.64108,0.26127,0.24207,0.40422,0.06895,0.093145,-1.5826,-0.27684,-0.55623,0.14171,-0.12743,0.073938,0.034893,-0.1967,-0.63522,-0.49427,-2.2462
0.03971,-0.010131,0.1319,-0.040686,0.1299,-0.80719,-0.075494,-0.6562,0.28331,0.34486,0.41659,0.073052,0.052711,-1.6512,-0.3157,-0.5483,0.1291,-0.16626,-0.047682,0.021437,-0.15719,-0.60939,-0.43665,-1.9295
0.038935,-0.019885,0.11422,-0.034259,0.11696,-0.82941,-0.124,-0.63223,0.30017,0.46372,0.39393,0.074282,0.014139,-1.7469,-0.34701,-0.54726,0.10929,-0.20655,-0.17991,0.022682,-0.11832,-0.56993,-0.38517,-1.5696
0.034086,-0.02312,0.094983,-0.031822,0.1067,-0.86463,-0.18877,-0.56758,0.3096,0.58275,0.33402,0.069879,-0.027129,-1.8211,-0.36269,-0.54791,0.079045,-0.24091,-0.31833,0.028374,-0.087338,-0.506,-0.34124,-1.1615
0.027593,-0.018091,0.081497,-0.035443,0.096127,-0.91749,-0.26365,-0.47296,0.31272,0.68311,0.25403,0.059253,-0.075181,-1.8012,-0.34887,-0.54673,0.040789,-0.25657,-0.45246,0.022193,-0.071549,-0.43405,-0.30461,-0.7295
0.021589,-0.0070865,0.075552,-0.04261,0.078799,-0.9861,-0.35845,-0.36664,0.3136,0.74908,0.17919,0.044049,-0.13329,-1.6449,-0.29716,-0.53845,0.0014972,-0.24205,-0.5707,-0.0094821,-0.074345,-0.38266,-0.27386,-0.32777
0.017487,0.0048788,0.073775,-0.048049,0.048281,-1.0652,-0.48634,-0.26717,0.31619,0.76853,0.1257,0.027154,-0.20261,-1.382,-0.21386,-0.51368,-0.030772,-0.19509,-0.6635,-0.068051,-0.093436,-0.36758,-0.24819,-0.026571
0.016305,0.012509,0.07201,-0.047999,0.0023505,-1.1505,-0.64365,-0.18709,0.32057,0.73174,0.091645,0.011294,-0.27825,-1.1059,-0.11956,-0.4618,-0.050287,-0.12608,-0.72407,-0.14016,-0.12202,-0.37868,-0.22868,0.11095
0.018721,0.012358,0.068845,-0.043115,-0.055212,-1.2396,-0.80286,-0.12944,0.32164,0.63325,0.062825,-0.0020314,-0.34533,-0.91589,-0.038733,-0.37765,-0.055323,-0.053701,-0.74773,-0.20536,-0.15199,-0.38857,-0.2172,0.053817
0.024478,0.0038829,0.065165,-0.037456,-0.11664,-1.3314,-0.92798,-0.086994,0.31189,0.47714,0.027928,-0.01266,-0.38046,-0.85331,0.013129,-0.26623,-0.048111,0.0052911,-0.73163,-0.24903,-0.17745,-0.37396,-0.21363,-0.18025
0.031859,-0.010547,0.061182,-0.034621,-0.17445,-1.4231,-1.0007,-0.045201,0.2868,0.28022,-0.0098905,-0.020822,-0.36099,-0.87825,0.036361,-0.14075,-0.033772,0.04545,-0.67583,-0.27077,-0.19691,-0.33151,-0.21425,-0.52583
0.038198,-0.02659,0.054958,-0.034689,-0.22489,-1.5104,-1.0345,0.010804,0.2487,0.068147,-0.03454,-0.025695,-0.27766,-0.90522,0.044332,-0.014778,-0.018683,0.074044,-0.58467,-0.28205,-0.21316,-0.27707,-0.21376,-0.89087
0.041483,-0.039757,0.044408,-0.034612,-0.26838,-1.5893,-1.0646,0.086811,0.20598,-0.13485,-0.029938,-0.02453,-0.1418,-0.8677,0.054271,0.10528,-0.008401,0.10288,-0.4676,-0.29557,-0.23109,-0.23211,-0.2103,-1.1907
0.041881,-0.047625,0.030601,-0.031346,-0.30754,-1.6587,-1.122,0.17339,0.16762,-0.3148,0.006579,-0.013381,0.01872,-0.76181,0.078309,0.22148,-0.0056852,0.13623,-0.33823,-0.31529,-0.25481,-0.21019,-0.20928,-1.3801
0.041738,-0.051089,0.018299,-0.024501,-0.34475,-1.7216,-1.2129,0.24859,0.13732,-0.46734,0.061213,0.01046,0.17262,-0.63844,0.11943,0.33837,-0.0097353,0.1644,-0.21183,-0.33491,-0.28575,-0.21285,-0.22177,-1.4671
0.043761,-0.053396,0.012358,-0.016168,-0.38093,-1.784,-1.3203,0.28967,0.11189,-0.58684,0.11298,0.045647,0.29893,-0.55555,0.17267,0.45479,-0.017451,0.16889,-0.10271,-0.34474,-0.32251,-0.23397,-0.25743,-1.5026
0.048645,-0.05719,0.013032,-0.0086061,-0.4155,-1.8528,-1.4228,0.28666,0.085339,-0.65451,0.14752,0.08579,0.39304,-0.53227,0.22882,0.56016,-0.026102,0.13659,-0.022343,-0.33979,-0.36188,-0.26554,-0.31626,-1.5497
0.054092,-0.061763,0.014877,-0.002463,-0.44672,-1.934,-1.5149,0.24746,0.05524,-0.63811,0.16483,0.12186,0.4631,-0.54012,0.27794,0.63835,-0.035474,0.072359,0.021533,-0.3222,-0.39972,-0.29951,-0.38589,-1.6487
0.056143,-0.063004,0.010899,0.0027272,-0.47195,-2.0292,-1.6093,0.19035,0.026072,-0.50875,0.17608,0.14731,0.52123,-0.5333,0.31184,0.67662,-0.047718,-0.00036376,0.02587,-0.29712,-0.43136,-0.32692,-0.44682,-1.7967
0.051895,-0.056513,-0.0014042,0.0067804,-0.48839,-2.1331,-1.7223,0.12959,0.00665,-0.26611,0.19348,0.16262,0.57532,-0.48867,0.32568,0.67342,-0.064974,-0.052892,-0.0063255,-0.26753,-0.45209,-0.33916,-0.48285,-1.9521
0.041658,-0.041562,-0.017481,0.0082297,-0.49428,-2.2309,-1.8528,0.065825,0.0039861,0.046403,0.2213,0.17582,0.62522,-0.42219,0.31909,0.63975,-0.086736,-0.069352,-0.065473,-0.2335,-0.45883,-0.33294,-0.48969,-2.0616
0.029053,-0.022661,-0.029084,0.0058686,-0.49009,-2.3018,-1.9751,-0.010926,0.018703,0.35212,0.25365,0.19735,0.66336,-0.37245,0.29623,0.59377,-0.10921,-0.056018,-0.13741,-0.1961,-0.4525,-0.31533,-0.47622,-2.0913
0.019145,-0.007351,-0.030836,0.00091647,-0.47842,-2.3274,-2.0496,-0.10927,0.045368,0.5764,0.27858,0.23206,0.67843,-0.36935,0.26444,0.55258,-0.12727,-0.034704,-0.20784,-0.16077,-0.43913,-0.30288,-0.45808,-2.0422
0.01589,-0.0018348,-0.02454,-0.0027158,-0.46261,-2.3027,-2.0462,-0.22652,0.076554,0.68708,0.28395,0.27335,0.66076,-0.41465,0.23184,0.52648,-0.13743,-0.0255,-0.26683,-0.13529,-0.42789,-0.31281,-0.44817,-1.9413
0.02028,-0.0075301,-0.017851,-0.00084498,-0.44543,-2.2407,-1.963,-0.34975,0.10657,0.71296,0.26169,0.30422,0.60754,-0.48608,0.205,0.51831,-0.13958,-0.032513,-0.31059,-0.12286,-0.42686,-0.35141,-0.45014,-1.8182
0.029914,-0.020628,-0.01864,0.0077766,-0.42942,-2.166,-1.8262,-0.46624,0.1321,0.72436,0.20992,0.30521,0.52578,-0.55503,0.18755,0.52611,-0.13649,-0.043502,-0.34047,-0.11616,-0.43906,-0.40787,-0.45823,-1.691
0.040049,-0.034496,-0.029646,0.020275,-0.41874,-2.0996,-1.6717,-0.57235,0.15069,0.78509,0.13386,0.265,0.43083,-0.5999,0.1797,0.5456,-0.13187,-0.042632,-0.36116,-0.098269,-0.46169,-0.459,-0.46255,-1.5725
0.045824,-0.043198,-0.047222,0.03157,-0.42015,-2.0449,-1.5201,-0.67145,0.15985,0.90643,0.045047,0.18682,0.34071,-0.60641,0.17829,0.57053,-0.12834,-0.02499,-0.38045,-0.050925,-0.48859,-0.48209,-0.45576,-1.4894
0.044823,-0.044289,-0.064486,0.037818,-0.44053,-1.9864,-1.3655,-0.76167,0.15811,1.0353,-0.042585,0.086443,0.26904,-0.56123,0.17765,0.59223,-0.12647,-0.00078157,-0.40982,0.034818,-0.51345,-0.46749,-0.43666,-1.49
0.038626,-0.039686,-0.076042,0.038657,-0.48169,-1.9011,-1.1857,-0.82509,0.14643,1.0867,-0.11986,-0.016908,0.22061,-0.44972,0.17165,0.6016,-0.1248,0.013447,-0.46373,0.15194,-0.5312,-0.42281,-0.40914,-1.6257
0.032002,-0.034293,-0.080991,0.036744,-0.53593,-1.7756,-0.96819,-0.83033,0.12769,1.0003,-0.18862,-0.11077,0.19161,-0.26164,0.15684,0.59387,-0.12063,0.0082163,-0.55666,0.27812,-0.53745,-0.36696,-0.37763,-1.9174
0.029768,-0.032907,-0.082686,0.035356,-0.5873,-1.6142,-0.72989,-0.75034,0.10435,0.78236,-0.26161,-0.19369,0.17319,0.0010291,0.13514,0.57287,-0.11157,-0.012344,-0.69931,0.38252,-0.52804,-0.31902,-0.3431,-2.3359
0.033345,-0.037002,-0.085995,0.036092,-0.61896,-1.4337,-0.51445,-0.58409,0.076641,0.50431,-0.35387,-0.27121,0.15563,0.32141,0.11382,0.54989,-0.097502,-0.035576,-0.896,0.43535,-0.50048,-0.28964,-0.30263,-2.812
0.039799,-0.043553,-0.094028,0.038293,-0.62269,-1.2496,-0.36715,-0.3663,0.043658,0.26058,-0.47032,-0.34727,0.13115,0.67089,0.10183,0.53647,-0.081754,-0.05164,-1.143,0.41699,-0.4564,-0.27899,-0.25308,-3.2687
0.044431,-0.047115,-0.10627,0.040212,-0.60359,-1.0668,-0.30625,-0.15674,0.0064544,0.11495,-0.59832,-0.41824,0.095541,1.0135,0.10437,0.53606,-0.070065,-0.06116,-1.4259,0.32466,-0.40226,-0.28035,-0.19555,-3.6437
0.044863,-0.044098,-0.11914,0.040755,-0.57624,-0.88056,-0.31311,-0.014828,-0.030022,0.071029,-0.71177,-0.47417,0.049552,1.3085,0.11939,0.54208,-0.06732,-0.073421,-1.7165,0.17451,-0.34652,-0.28518,-0.13647,-3.8896
0.043005,-0.036063,-0.12858,0.040424,-0.55471,-0.68554,-0.34861,0.02542,-0.058474,0.081935,-0.78483,-0.50597,-0.0003628,1.514,0.13842,0.54464,-0.074108,-0.09775,-1.9728,-0.0026097,-0.29483,-0.2868,-0.083789,-3.9619
0.043004,-0.029147,-0.13303,0.040887,-0.54342,-0.48283,-0.38252,-0.034031,-0.073297,0.085898,-0.80633,-0.51243,-0.043333,1.5951,0.15127,0.54069,-0.08599,-0.13577,-2.1493,-0.17179,-0.24707,-0.28215,-0.041107,-3.8229
0.04704,-0.029593,-0.13462,0.04362,-0.53526,-0.27956,-0.41279,-0.16271,-0.073719,0.040367,-0.785,-0.50135,-0.068266,1.5369,0.15094,0.53807,-0.096477,-0.18023,-2.2137,-0.30725,-0.19917,-0.27249,-0.0050734,-3.4685
0.05294,-0.038701,-0.1377,0.048676,-0.51783,-0.082528,-0.46059,-0.31989,-0.063552,-0.064644,-0.74228,-0.48415,-0.069252,1.3525,0.13546,0.54902,-0.1015,-0.21989,-2.1627,-0.40151,-0.1484,-0.26306,0.03127,-2.9539
0.055976,-0.051352,-0.14566,0.054516,-0.4827,0.10652,-0.54616,-0.47161,-0.048223,-0.2136,-0.69844,-0.46828,-0.048809,1.0808,0.10616,0.57788,-0.10168,-0.24576,-2.0227,-0.46512,-0.097835,-0.26089,0.071644,-2.3819
0.053212,-0.059565,-0.15842,0.059035,-0.4308,0.28977,-0.66457,-0.59843,-0.03192,-0.37942,-0.66195,-0.45323,-0.016602,0.77209,0.064807,0.61372,-0.10048,-0.25396,-1.8321,-0.51646,-0.055978,-0.27132,0.11219,-1.8512
0.046329,-0.058457,-0.17255,0.061058,-0.37052,0.46847,-0.77954,-0.69349,-0.01688,-0.53327,-0.62898,-0.4324,0.015551,0.47245,0.012403,0.63469,-0.099987,-0.24459,-1.6167,-0.56803,-0.031714,-0.29528,0.14377,-1.3988
0.04029,-0.049901,-0.18366,0.061157,-0.31084,0.64021,-0.84059,-0.75689,-0.0043941,-0.64954,-0.59195,-0.39873,0.039016,0.21719,-0.049869,0.6211,-0.098053,-0.21917,-1.3759,-0.61781,-0.028278,-0.32971,0.15929,-0.98778
0.039095,-0.040935,-0.18914,0.061178,-0.25533,0.80113,-0.8128,-0.79205,0.0043595,-0.71153,-0.54962,-0.34991,0.050864,0.034812,-0.11914,0.56675,-0.089188,-0.17924,-1.092,-0.65121,-0.040953,-0.37085,0.15973,-0.55448
0.042538,-0.038145,-0.18949,0.062827,-0.20141,0.95012,-0.70051,-0.80619,0.0086646,-0.71942,-0.51093,-0.2903,0.053058,-0.04642,-0.19078,0.48029,-0.068365,-0.12694,-0.7549,-0.65187,-0.059997,-0.41735,0.15364,-0.077861
0.046745,-0.042401,-0.18757,0.066411,-0.1448,1.0899,-0.54927,-0.8112,0.0089465,-0.69477,-0.49016,-0.22958,0.050217,-0.00075458,-0.25976,0.37734,-0.034703,-0.066286,-0.38322,-0.61368,-0.076334,-0.46991,0.15063,0.38926
0.047719,-0.047987,-0.18684,0.070668,-0.085436,1.2235,-0.42273,-0.82073,0.0064098,-0.67494,-0.49759,-0.17943,0.048183,0.18063,-0.32199,0.27161,0.0073963,-0.0035373,-0.022252,-0.54619,-0.085747,-0.52753,0.15429,0.75461
0.044512,-0.046732,-0.18954,0.073726,-0.0299,1.3487,-0.36657,-0.8427,0.001625,-0.69834,-0.53309,-0.14953,0.053756,0.47258,-0.37414,0.17198,0.049968,0.05388,0.2797,-0.46975,-0.089079,-0.58399,0.16058,0.95767
0.03932,-0.034021,-0.19547,0.074336,0.011197,1.4571,-0.38088,-0.8718,-0.0063616,-0.78917,-0.58688,-0.14317,0.07414,0.81207,-0.41229,0.085578,0.084703,0.099532,0.49926,-0.40404,-0.08927,-0.62868,0.16244,1.017
0.034862,-0.012266,-0.2017,0.072447,0.029335,1.5379,-0.41915,-0.88926,-0.019021,-0.95051,-0.64621,-0.15366,0.11467,1.1168,-0.43137,0.02038,0.10619,0.13013,0.64846,-0.35729,-0.088144,-0.65213,0.15613,1.0158
0.031835,0.010541,-0.20382,0.06887,0.023596,1.5851,-0.41632,-0.87255,-0.03607,-1.1672,-0.70277,-0.16427,0.17528,1.3194,-0.42667,-0.01768,0.11414,0.14665,0.75987,-0.32337,-0.085288,-0.65244,0.14389,1.0409
0.028825,0.02596,-0.19837,0.064565,0.0020284,1.6026,-0.32922,-0.80995,-0.054272,-1.4125,-0.7557,-0.15406,0.24825,1.3962,-0.39674,-0.030979,0.11362,0.15358,0.85874,-0.28816,-0.079096,-0.63722,0.13112,1.1294
0.024439,0.030201,-0.1855,0.060245,-0.022066,1.6041,-0.1633,-0.7096,-0.068984,-1.6525,-0.80918,-0.10837,0.31973,1.3719,-0.34559,-0.032655,0.11257,0.15631,0.94387,-0.24068,-0.068388,-0.61937,0.12123,1.2624
0.019262,0.025749,-0.16973,0.05648,-0.036604,1.609,0.031913,-0.5952,-0.077487,-1.8479,-0.8676,-0.028405,0.37562,1.295,-0.28202,-0.040343,0.11705,0.15768,0.99067,-0.181,-0.053181,-0.60956,0.1127,1.4013
0.015506,0.018858,-0.15766,0.053889,-0.035896,1.6351,0.19497,-0.49123,-0.081052,-1.9596,-0.93227,0.067178,0.40902,1.204,-0.21618,-0.064445,0.1267,0.15599,0.97202,-0.11938,-0.034542,-0.61117,0.10024,1.5268
0.014615,0.015197,-0.15384,0.052953,-0.021401,1.6917,0.2897,-0.4092,-0.083524,-1.9603,-1.0016,0.15104,0.42525,1.1072,-0.15535,-0.10034,0.13373,0.14605,0.87872,-0.067789,-0.014404,-0.62112,0.0784,1.6459
0.015232,0.017,-0.15779,0.05349,0.0017876,1.776,0.32262,-0.34608,-0.087507,-1.8503,-1.0736,0.20094,0.44053,0.99191,-0.10136,-0.13172,0.12697,0.12336,0.72405,-0.030939,0.0042119,-0.63511,0.044308,1.7681
0.013725,0.023342,-0.16446,0.054344,0.02946,1.872,0.33097,-0.29536,-0.091867,-1.6661,-1.1472,0.20913,0.47428,0.85066,-0.051075,-0.14297,0.098806,0.088167,0.53125,-0.0045396,0.017194,-0.65235,-0.0018423,1.8834
0.007103,0.032489,-0.16782,0.053762,0.060094,1.955,0.3532,-0.25958,-0.093418,-1.4734,-1.2217,0.18113,0.5382,0.70095,0.00076295,-0.13072,0.050129,0.046082,0.31679,0.01737,0.020547,-0.6759,-0.057734,1.9668
-0.0042,0.043701,-0.16462,0.050346,0.092953,2,0.40429,-0.25173,-0.09171,-1.3419,-1.2942,0.12663,0.62873,0.58057,0.057842,-0.10517,-0.010199,0.0040077,0.084281,0.031959,0.012785,-0.70854,-0.11954,2.0074
-0.016301,0.05692,-0.15572,0.043908,0.12502,1.9923,0.47173,-0.2836,-0.092372,-1.314,-1.3581,0.051048,0.72783,0.5221,0.11952,-0.08093,-0.070875,-0.035552,-0.16712,0.023166,-0.0029972,-0.74837,-0.18185,2.0282
-0.024858,0.071154,-0.14429,0.035576,0.15037,1.9352,0.53072,-0.35217,-0.10501,-1.3849,-1.404,-0.044754,0.81317,0.52812,0.18007,-0.066315,-0.12437,-0.076619,-0.42889,-0.031919,-0.019297,-0.78815,-0.23786,2.0745
-0.028595,0.083771,-0.13289,0.027102,0.16331,1.8484,0.56429,-0.43799,-0.13622,-1.5074,-1.4245,-0.1577,0.87143,0.56679,0.23039,-0.060514,-0.16938,-0.1255,-0.67721,-0.14949,-0.027135,-0.81885,-0.28067,2.1756
