1.2926e-010,5.3442e-010,1.2213e-009,1.5184e-009,-3.2798e-011,8.0838e-010,-9.743e-010,1.7074e-009,-2.9518e-010,8.7012e-010,1.746e-009,2.348e-009,-8.6626e-010,4.3024e-010,1.7267e-009,-8.8555e-010,-4.9969e-010,2.9461e-009,1.6262e-008,6.6773e-009,3.4129e-009,1.0746e-009,-8.9327e-010,1.4258e-009
3.8498e-009,1.4718e-008,3.3778e-008,4.1973e-008,-7.4041e-010,2.245e-008,-2.685e-008,4.7287e-008,-7.9486e-009,2.3778e-008,4.8453e-008,6.513e-008,-2.3498e-008,1.1955e-008,4.8009e-008,-2.4305e-008,-1.3345e-008,8.1499e-008,4.4977e-007,1.8459e-007,9.4574e-008,2.9441e-008,-2.4349e-008,3.8978e-008
5.5507e-008,1.9656e-007,4.5422e-007,5.6428e-007,-7.7368e-009,3.0315e-007,-3.5966e-007,6.3669e-007,-1.0405e-007,3.158e-007,6.5375e-007,8.7859e-007,-3.0942e-007,1.616e-007,6.4887e-007,-3.2398e-007,-1.7264e-007,1.0964e-006,6.0484e-006,2.4813e-006,1.274e-006,3.918e-007,-3.219e-007,5.1762e-007
5.1645e-007,1.6955e-006,3.9559e-006,4.9153e-006,-4.8686e-008,2.6521e-006,-3.1196e-006,5.5527e-006,-8.8216e-007,2.7158e-006,5.7138e-006,7.6798e-006,-2.6348e-006,1.416e-006,5.6796e-006,-2.7937e-006,-1.4401e-006,9.5557e-006,5.2693e-005,2.1606e-005,1.1114e-005,3.374e-006,-2.7491e-006,4.448e-006
3.4869e-006,1.0612e-005,2.5078e-005,3.1183e-005,-1.9771e-007,1.6901e-005,-1.9693e-005,3.5253e-005,-5.4462e-006,1.6999e-005,3.6361e-005,4.8897e-005,-1.6305e-005,9.0407e-006,3.6188e-005,-1.751e-005,-8.6953e-006,6.0655e-005,0.00033425,0.000137,7.0572e-005,2.1129e-005,-1.704e-005,2.7798e-005
1.821e-005,5.1324e-005,0.00012328,0.00015352,-4.8626e-007,8.3617e-005,-9.6387e-005,0.00017359,-2.6093e-005,8.2529e-005,0.00017952,0.00024166,-7.811e-005,4.4817e-005,0.00017883,-8.4964e-005,-4.0424e-005,0.00029877,0.001645,0.0006739,0.00034754,0.0001025,-8.1637e-005,0.00013459
7.6554e-005,0.00019937,0.00048877,0.00061018,-3.5314e-007,0.00033426,-0.00038047,0.00068959,-0.00010095,0.00032329,0.00071537,0.0009647,-0.00030126,0.00017945,0.00071298,-0.00033182,-0.00015013,0.0011881,0.0065341,0.0026755,0.0013807,0.00040067,-0.00031427,0.00052515
0.00026615,0.00063811,0.0016045,0.0020107,2.374e-006,0.0011093,-0.0012435,0.0022692,-0.00032399,0.0010494,0.0023627,0.0031953,-0.0009603,0.00059607,0.002355,-0.0010703,-0.0004556,0.003917,0.021511,0.0088032,0.0045439,0.0012954,-0.00099731,0.0016951
0.00077991,0.0017119,0.0044407,0.0055964,1.0047e-005,0.0031153,-0.0034272,0.0063005,-0.00087914,0.0028752,0.0065885,0.0089509,-0.002576,0.0016732,0.0065645,-0.0029016,-0.0011434,0.010908,0.059792,0.024455,0.012618,0.0035281,-0.0026544,0.0046098
0.001953,0.0038923,0.010494,0.013332,1.1346e-005,0.0075086,-0.0080678,0.014952,-0.0020447,0.0067376,0.015718,0.021503,-0.0058888,0.0040221,0.015646,-0.0066885,-0.0023763,0.026003,0.14219,0.058121,0.029952,0.0081983,-0.0059921,0.010696
0.0042213,0.0075459,0.02135,0.027435,-6.0674e-005,0.015691,-0.01636,0.030595,-0.0041152,0.013623,0.032369,0.044758,-0.011566,0.0083562,0.032171,-0.013198,-0.0040313,0.053553,0.29196,0.11926,0.061331,0.016396,-0.011543,0.021354
0.0079306,0.012484,0.037565,0.049058,-0.00040131,0.028635,-0.028719,0.054271,-0.0072092,0.023896,0.057866,0.081331,-0.01961,0.015094,0.05739,-0.022337,-0.0053024,0.095875,0.52064,0.21256,0.10894,0.028373,-0.018987,0.036855
0.013011,0.017527,0.057205,0.076461,-0.0013932,0.04585,-0.043697,0.083625,-0.011012,0.036422,0.090015,0.12973,-0.028724,0.023775,0.089033,-0.032301,-0.004418,0.1497,0.80872,0.33013,0.16827,0.042589,-0.026502,0.055045
0.018698,0.020542,0.075124,0.10389,-0.003549,0.064567,-0.057465,0.11176,-0.014603,0.048131,0.12172,0.18241,-0.036244,0.032663,0.12002,-0.039399,0.0011232,0.20403,1.0943,0.4471,0.22592,0.055445,-0.030804,0.07092
0.023584,0.019336,0.084269,0.12274,-0.0072464,0.079983,-0.064784,0.12877,-0.01656,0.054712,0.14239,0.22691,-0.039094,0.039032,0.13998,-0.039316,0.013551,0.2424,1.2866,0.52733,0.26271,0.062505,-0.028417,0.078129
0.026203,0.013121,0.079259,0.12545,-0.012317,0.087017,-0.061601,0.12642,-0.015403,0.052614,0.14275,0.25093,-0.035577,0.040346,0.14008,-0.029668,0.033361,0.25048,1.3077,0.54065,0.26289,0.061029,-0.017806,0.072328
0.025895,0.0035829,0.060422,0.11041,-0.017778,0.082952,-0.047968,0.10351,-0.010271,0.041403,0.12095,0.24904,-0.02685,0.035813,0.11902,-0.012399,0.058282,0.22547,1.1442,0.48306,0.22498,0.052295,-0.00098194,0.054489
0.023381,-0.005585,0.035159,0.084157,-0.022073,0.069384,-0.029016,0.068153,-0.0015263,0.024805,0.085598,0.22625,-0.016749,0.027202,0.085744,0.0060618,0.083601,0.1804,0.86896,0.38449,0.16594,0.041601,0.016985,0.03147
0.020418,-0.010758,0.014537,0.058527,-0.023878,0.051901,-0.012554,0.033926,0.0090402,0.0092471,0.052294,0.19501,-0.0095901,0.018033,0.055616,0.017801,0.10398,0.13826,0.60823,0.29382,0.11325,0.035188,0.030775,0.012578
0.018617,-0.010718,0.0065454,0.043604,-0.023021,0.037305,-0.0043153,0.011695,0.018597,0.00037584,0.034646,0.16699,-0.0073017,0.011386,0.041579,0.018117,0.11578,0.11804,0.46592,0.24797,0.088162,0.035861,0.038158,0.0039637
0.018258,-0.0073529,0.010713,0.041411,-0.020743,0.030014,-0.0041093,0.0028752,0.024242,-0.00025179,0.035656,0.14549,-0.0081058,0.0078635,0.045975,0.0086366,0.11843,0.12228,0.45753,0.2474,0.091534,0.040741,0.041212,0.0048508
0.018179,-0.0040383,0.018584,0.045334,-0.018931,0.030016,-0.0060363,-0.00050227,0.024279,0.0040691,0.0461,0.12462,-0.0079787,0.0054194,0.059426,-0.0036366,0.11408,0.13592,0.50587,0.25866,0.10375,0.043359,0.04426,0.0086288
0.017033,-0.0030663,0.020217,0.046,-0.018815,0.033654,-0.0029652,-0.0086275,0.019233,0.0076709,0.051622,0.095982,-0.003886,0.0013894,0.067882,-0.010836,0.10598,0.13837,0.50499,0.24387,0.099475,0.038812,0.050106,0.0080314
0.014895,-0.0043441,0.011754,0.038918,-0.020156,0.036443,0.0080269,-0.025437,0.011962,0.0065089,0.043283,0.057221,0.0037882,-0.0048223,0.06248,-0.0089723,0.09694,0.11937,0.40187,0.1931,0.06609,0.027836,0.057783,0.00027498
0.01363,-0.0063143,-0.0021703,0.027471,-0.021645,0.035719,0.023559,-0.045835,0.0064832,0.00076211,0.023297,0.015065,0.011583,-0.010717,0.044518,0.00052917,0.088761,0.085869,0.22954,0.13152,0.011312,0.016216,0.063706,-0.011805
0.01533,-0.0078172,-0.013156,0.018936,-0.022118,0.031431,0.036867,-0.060696,0.0058722,-0.0058089,0.0016986,-0.019658,0.015697,-0.012419,0.022225,0.013173,0.08241,0.054318,0.066658,0.095078,-0.045353,0.009866,0.065088,-0.023002
0.019952,-0.0088127,-0.016691,0.017423,-0.021458,0.025083,0.043262,-0.064937,0.010375,-0.0090818,-0.012633,-0.04052,0.014769,-0.0079416,0.0029938,0.025116,0.078165,0.035658,-0.036988,0.096479,-0.088964,0.0097609,0.062458,-0.030067
0.024365,-0.0093821,-0.015919,0.020302,-0.020362,0.018225,0.043574,-0.061463,0.017063,-0.0077595,-0.018644,-0.050042,0.010529,0.00057886,-0.011747,0.035075,0.07522,0.026292,-0.10177,0.11276,-0.11906,0.011157,0.059093,-0.033405
0.024149,-0.0085652,-0.018293,0.02125,-0.019292,0.011765,0.042888,-0.05782,0.021545,-0.0040961,-0.022158,-0.05665,0.0061118,0.007588,-0.025068,0.043343,0.071201,0.012745,-0.19186,0.10556,-0.1457,0.0078561,0.058127,-0.035352
0.017067,-0.0048502,-0.02837,0.016684,-0.017766,0.0062101,0.045973,-0.059112,0.020867,-0.0018441,-0.029185,-0.067146,0.0037764,0.0074587,-0.039031,0.049642,0.06243,-0.014987,-0.34985,0.054931,-0.17714,-0.0021901,0.060109,-0.037427
0.0053506,0.0018814,-0.043448,0.0092453,-0.014807,0.0019982,0.053524,-0.063757,0.015659,-0.0033378,-0.040273,-0.081433,0.0039014,-0.0017857,-0.051183,0.052322,0.045316,-0.054039,-0.55432,-0.024456,-0.21114,-0.014803,0.0631,-0.039328
-0.0053947,0.009209,-0.055943,0.0049759,-0.010163,-0.00065968,0.062238,-0.065644,0.0098737,-0.0081061,-0.050935,-0.093634,0.0057153,-0.016929,-0.056565,0.049738,0.018279,-0.091592,-0.73789,-0.098645,-0.23763,-0.022819,0.06482,-0.04012
-0.010126,0.013635,-0.060108,0.0069857,-0.0050638,-0.002163,0.068189,-0.060182,0.0080275,-0.013841,-0.05699,-0.097875,0.0086864,-0.031287,-0.052971,0.042282,-0.01698,-0.11661,-0.84512,-0.14512,-0.24882,-0.021852,0.064624,-0.039713
-0.0080568,0.013714,-0.056849,0.011737,-0.0016326,-0.003432,0.070135,-0.048505,0.011768,-0.018455,-0.05906,-0.093381,0.013243,-0.038655,-0.044025,0.032934,-0.055734,-0.12896,-0.87547,-0.16962,-0.24657,-0.013767,0.063591,-0.038825
-0.0031099,0.011766,-0.052388,0.011574,-0.0013349,-0.0052167,0.069942,-0.036301,0.018367,-0.021258,-0.061841,-0.084953,0.020388,-0.036955,-0.036974,0.025614,-0.091957,-0.13757,-0.87392,-0.19466,-0.2401,-0.0051722,0.063042,-0.037763
-0.0008099,0.012054,-0.052408,0.0012882,-0.0037391,-0.0075165,0.070277,-0.028877,0.022515,-0.022504,-0.069204,-0.079351,0.03077,-0.029227,-0.03728,0.022648,-0.12058,-0.15023,-0.88323,-0.23349,-0.23675,-0.002454,0.063115,-0.035777
-0.0042045,0.016775,-0.057247,-0.017167,-0.0066393,-0.0098414,0.07217,-0.027213,0.020312,-0.022327,-0.080207,-0.081268,0.043968,-0.021213,-0.044869,0.023369,-0.13909,-0.1654,-0.9049,-0.27561,-0.23477,-0.0074689,0.062674,-0.031987
-0.01202,0.023626,-0.062396,-0.035895,-0.0074397,-0.0121,0.074674,-0.028274,0.012422,-0.02061,-0.089867,-0.091896,0.058354,-0.017144,-0.05497,0.024826,-0.1477,-0.17384,-0.90363,-0.29721,-0.22493,-0.01702,0.060365,-0.026826
-0.020181,0.027556,-0.063329,-0.047025,-0.004758,-0.01502,0.07643,-0.028593,0.0037601,-0.018033,-0.093727,-0.11007,0.071414,-0.016723,-0.062079,0.023871,-0.14836,-0.16824,-0.84669,-0.28418,-0.19929,-0.025895,0.055707,-0.022111
-0.025058,0.025316,-0.059803,-0.048285,0.00083299,-0.019361,0.077084,-0.027382,-0.00026078,-0.016925,-0.091674,-0.13388,0.080368,-0.015678,-0.063305,0.019117,-0.14337,-0.15138,-0.73848,-0.2443,-0.15917,-0.030621,0.049362,-0.019344
-0.025756,0.018631,-0.055628,-0.043779,0.0072808,-0.02459,0.077064,-0.026428,0.0019643,-0.020341,-0.087586,-0.16108,0.083031,-0.0096391,-0.058796,0.011613,-0.1346,-0.135,-0.61902,-0.19753,-0.11534,-0.031116,0.042614,-0.018015
-0.023979,0.012813,-0.054529,-0.039905,0.012316,-0.028615,0.076315,-0.027469,0.0068934,-0.02949,-0.085556,-0.18869,0.078811,0.001643,-0.050158,0.0041408,-0.12362,-0.13047,-0.53128,-0.15581,-0.080479,-0.029605,0.036624,-0.015959
-0.022131,0.011961,-0.056392,-0.040331,0.014715,-0.029362,0.073809,-0.03002,0.0086189,-0.041645,-0.086567,-0.21304,0.069377,0.013304,-0.039198,-0.00026005,-0.11228,-0.13969,-0.48962,-0.11377,-0.060678,-0.0283,0.031912,-0.011708
-0.02149,0.015184,-0.057607,-0.044122,0.014859,-0.026991,0.068635,-0.031802,0.0035366,-0.050853,-0.088524,-0.23079,0.058377,0.018754,-0.028072,0.00028867,-0.10279,-0.15414,-0.47695,-0.059288,-0.052624,-0.027817,0.028162,-0.0064088
-0.021759,0.017557,-0.055029,-0.047948,0.014314,-0.024467,0.061497,-0.031066,-0.0068608,-0.051615,-0.088998,-0.23993,0.049908,0.01492,-0.019788,0.0057359,-0.097082,-0.16247,-0.46842,0.0072169,-0.048042,-0.027224,0.024342,-0.0029881
-0.021965,0.015069,-0.049479,-0.049706,0.014675,-0.025437,0.054733,-0.028251,-0.017184,-0.042942,-0.087582,-0.23947,0.046332,0.0049924,-0.017558,0.014265,-0.095552,-0.15982,-0.45573,0.064816,-0.04067,-0.025211,0.019198,-0.0029869
-0.021651,0.008944,-0.045185,-0.05012,0.016482,-0.030998,0.050506,-0.025319,-0.022161,-0.029435,-0.085602,-0.22838,0.046798,-0.003797,-0.022914,0.023244,-0.096562,-0.15126,-0.44958,0.084314,-0.02984,-0.021321,0.012009,-0.0042073
-0.021371,0.0050636,-0.045605,-0.051178,0.018996,-0.038401,0.048852,-0.02357,-0.020194,-0.01818,-0.083978,-0.20534,0.047717,-0.0056954,-0.034158,0.030399,-0.097138,-0.14728,-0.46164,0.050406,-0.018634,-0.016438,0.0031968,-0.0019721
-0.02227,0.00879,-0.049719,-0.053348,0.021016,-0.043184,0.047606,-0.022309,-0.013958,-0.013708,-0.081893,-0.17058,0.045202,-0.0006911,-0.046817,0.03457,-0.094795,-0.15565,-0.48707,-0.025421,-0.0096182,-0.012433,-0.0057674,0.0065863
-0.02525,0.019892,-0.052505,-0.054553,0.021991,-0.043028,0.044355,-0.01975,-0.008114,-0.014942,-0.077853,-0.12844,0.037892,0.0059848,-0.056184,0.035707,-0.089237,-0.1759,-0.50624,-0.11182,-0.0025567,-0.011256,-0.013246,0.019041
-0.030397,0.032338,-0.049326,-0.051992,0.022399,-0.039803,0.038484,-0.01522,-0.0062472,-0.016495,-0.072016,-0.08768,0.027979,0.008514,-0.060278,0.034418,-0.08264,-0.20008,-0.50336,-0.17792,0.0042943,-0.013991,-0.01854,0.028575
-0.03694,0.039186,-0.040095,-0.045088,0.02306,-0.037799,0.031368,-0.010377,-0.0091759,-0.013127,-0.067071,-0.057726,0.019447,0.0052009,-0.061041,0.031591,-0.078051,-0.21807,-0.4828,-0.21075,0.011588,-0.020294,-0.022352,0.02905
-0.043539,0.03799,-0.029274,-0.036678,0.024153,-0.039741,0.024737,-0.0081461,-0.015203,-0.0037145,-0.066299,-0.04288,0.014774,-0.00063317,-0.062745,0.028339,-0.076823,-0.22343,-0.46622,-0.21802,0.018161,-0.028496,-0.026239,0.020059
-0.048633,0.031785,-0.021716,-0.031161,0.025041,-0.044323,0.019139,-0.010255,-0.021514,0.0082586,-0.070296,-0.038931,0.012762,-0.0038513,-0.068571,0.026007,-0.076906,-0.21607,-0.47263,-0.21744,0.022834,-0.036341,-0.031482,0.0075395
-0.050797,0.025091,-0.018324,-0.031125,0.025125,-0.047567,0.014104,-0.015602,-0.025611,0.017683,-0.075489,-0.035656,0.0094505,-0.0015734,-0.077801,0.025853,-0.073451,-0.20067,-0.49963,-0.22303,0.026398,-0.041966,-0.038246,-0.00074493
-0.049234,0.019336,-0.015601,-0.035401,0.024766,-0.046638,0.0095639,-0.020884,-0.02624,0.021611,-0.076243,-0.023928,0.0014508,0.0053337,-0.085862,0.028466,-0.06169,-0.18264,-0.5233,-0.23852,0.031172,-0.044546,-0.045574,-0.0010525
-0.044344,0.012474,-0.0093752,-0.040179,0.025095,-0.042422,0.0065838,-0.022885,-0.023693,0.020951,-0.069146,-0.0021301,-0.011094,0.013895,-0.087498,0.033395,-0.040323,-0.16441,-0.51691,-0.25963,0.038288,-0.04427,-0.052096,0.0040002
-0.037875,0.0030717,0.0010299,-0.042127,0.026722,-0.038488,0.0063051,-0.020509,-0.01951,0.01919,-0.055884,0.02317,-0.024505,0.021436,-0.080892,0.039393,-0.013014,-0.14439,-0.47245,-0.28037,0.045551,-0.041809,-0.056842,0.0082525
-0.032253,-0.0057863,0.01221,-0.040842,0.028691,-0.037613,0.0081613,-0.015048,-0.015617,0.019571,-0.042138,0.042712,-0.034548,0.026343,-0.069543,0.045036,0.013287,-0.11937,-0.4071,-0.29742,0.048512,-0.037843,-0.059631,0.0071465
-0.029236,-0.0076273,0.020124,-0.038695,0.029027,-0.039316,0.0095498,-0.0087886,-0.01325,0.022943,-0.033295,0.051588,-0.039761,0.027239,-0.06021,0.049179,0.03225,-0.088571,-0.3504,-0.31033,0.044276,-0.03304,-0.060902,0.00071794
-0.028811,0.0014759,0.024091,-0.038533,0.026651,-0.040748,0.0077543,-0.0033399,-0.012372,0.027589,-0.03053,0.052151,-0.042243,0.022657,-0.05829,0.050991,0.041657,-0.05601,-0.32343,-0.31956,0.034627,-0.028348,-0.061269,-0.0076635
-0.029295,0.017778,0.027415,-0.041326,0.022832,-0.039864,0.002427,0.0010641,-0.011998,0.030798,-0.030447,0.050881,-0.045387,0.012509,-0.064083,0.049913,0.044081,-0.028973,-0.32655,-0.32534,0.025357,-0.024993,-0.061215,-0.014936
-0.028696,0.03121,0.034127,-0.04564,0.020524,-0.037665,-0.0039485,0.0050857,-0.011168,0.030929,-0.028365,0.052435,-0.050817,-7.6441e-005,-0.072729,0.045924,0.044459,-0.012979,-0.34306,-0.3286,0.022001,-0.02385,-0.061167,-0.020713
-0.026304,0.033007,0.045122,-0.049044,0.021891,-0.037257,-0.0083435,0.0094115,-0.009701,0.028594,-0.022212,0.0562,-0.057348,-0.0093313,-0.077668,0.039908,0.046598,-0.0070057,-0.35341,-0.3327,0.025541,-0.024583,-0.061742,-0.026493
-0.023169,0.023075,0.05739,-0.050059,0.026254,-0.04065,-0.010131,0.0143,-0.0081221,0.026298,-0.013754,0.058024,-0.062641,-0.010618,-0.074871,0.033429,0.051313,-0.003159,-0.34772,-0.34366,0.031766,-0.025567,-0.063693,-0.03312
-0.021046,0.010132,0.066864,-0.04908,0.030476,-0.046392,-0.011758,0.019692,-0.0069988,0.026827,-0.006426,0.055047,-0.065579,-0.0045209,-0.064841,0.027698,0.057325,0.0080804,-0.32835,-0.36737,0.034816,-0.025088,-0.067288,-0.039382
-0.020723,0.0040799,0.071837,-0.047798,0.031557,-0.050387,-0.016348,0.025444,-0.006459,0.031539,-0.0020289,0.048963,-0.066889,0.0029333,-0.051495,0.02256,0.063605,0.030521,-0.30328,-0.40498,0.031817,-0.023047,-0.071538,-0.043122
-0.021213,0.0073529,0.073636,-0.047832,0.029056,-0.049291,-0.024508,0.031305,-0.0063423,0.039746,0.00076762,0.044703,-0.067594,0.005102,-0.039426,0.016695,0.070731,0.058607,-0.2777,-0.44943,0.02474,-0.021487,-0.074214,-0.043432
-0.020514,0.013177,0.074329,-0.049722,0.025129,-0.043515,-0.033487,0.036722,-0.0066246,0.049427,0.0050839,0.045794,-0.067231,0.0008465,-0.031673,0.009172,0.079899,0.08082,-0.25042,-0.48655,0.018224,-0.022994,-0.073196,-0.041474
-0.01723,0.012246,0.074314,-0.05288,0.022285,-0.037198,-0.039573,0.04084,-0.0074338,0.058381,0.013173,0.050647,-0.064033,-0.0037136,-0.029046,0.00091775,0.090595,0.08796,-0.21617,-0.50142,0.015554,-0.028001,-0.068403,-0.039013
-0.011641,0.0014425,0.072498,-0.056288,0.021181,-0.035159,-0.041425,0.04285,-0.0085696,0.064665,0.024801,0.053189,-0.057037,-1.3544e-005,-0.030574,-0.0056494,0.099352,0.079909,-0.17017,-0.48684,0.016325,-0.033542,-0.062572,-0.036302
-0.0053517,-0.013553,0.068643,-0.059218,0.020547,-0.039459,-0.041121,0.042448,-0.0092514,0.066215,0.037722,0.047468,-0.047897,0.015354,-0.034224,-0.0088911,0.1012,0.065403,-0.11065,-0.44813,0.017504,-0.035159,-0.059717,-0.031686
4.9978e-005,-0.02392,0.064886,-0.061481,0.019094,-0.04843,-0.041953,0.040061,-0.0087846,0.060862,0.049342,0.032433,-0.040228,0.036884,-0.037536,-0.010067,0.092975,0.05498,-0.03831,-0.40079,0.01654,-0.030796,-0.062113,-0.023518
0.0040566,-0.025895,0.064293,-0.063231,0.017235,-0.058747,-0.045198,0.036711,-0.0077726,0.047769,0.057989,0.012996,-0.036778,0.053726,-0.038388,-0.012933,0.07568,0.052924,0.045127,-0.36227,0.013579,-0.023271,-0.068251,-0.012481
0.0071746,-0.023643,0.067693,-0.064719,0.016753,-0.068425,-0.049049,0.033729,-0.008519,0.029516,0.06304,-0.0033588,-0.037044,0.057634,-0.035871,-0.020678,0.053879,0.054803,0.13664,-0.34388,0.010939,-0.018662,-0.073714,-0.0017948
0.0099728,-0.024447,0.072252,-0.066209,0.018816,-0.077906,-0.050709,0.032433,-0.013644,0.012401,0.064471,-0.011561,-0.03771,0.048649,-0.030764,-0.032818,0.032379,0.052307,0.22987,-0.34851,0.010577,-0.021457,-0.074492,0.0052202
0.012289,-0.031357,0.073716,-0.067964,0.022488,-0.088337,-0.049529,0.033703,-0.023635,0.0033191,0.062723,-0.011726,-0.035634,0.034095,-0.025053,-0.045086,0.013097,0.040797,0.31374,-0.37438,0.011953,-0.030468,-0.070067,0.0080724
0.013364,-0.040529,0.07041,-0.07007,0.025355,-0.09889,-0.048043,0.037371,-0.035485,0.0047217,0.059044,-0.0080984,-0.030601,0.022354,-0.020624,-0.052706,-0.0052326,0.022895,0.37415,-0.41988,0.012222,-0.039146,-0.063656,0.0096757
0.012715,-0.0455,0.064997,-0.0722,0.025662,-0.10603,-0.04981,0.041798,-0.044085,0.011853,0.055543,-0.0057951,-0.025223,0.017006,-0.017961,-0.05417,-0.02444,0.0053107,0.39861,-0.48377,0.0085331,-0.04028,-0.059488,0.013827
0.010838,-0.043717,0.062004,-0.073692,0.023787,-0.10584,-0.056093,0.044257,-0.045734,0.015485,0.054309,-0.0083154,-0.022139,0.015778,-0.015757,-0.052,-0.044097,-0.0077095,0.38106,-0.56033,0.00049869,-0.031321,-0.059472,0.021751
0.0090547,-0.038693,0.063398,-0.074066,0.021611,-0.097471,-0.064525,0.042429,-0.040998,0.0088499,0.055952,-0.017377,-0.021311,0.014138,-0.011665,-0.049812,-0.061382,-0.018149,0.32385,-0.63525,-0.0091721,-0.016148,-0.062039,0.030823
0.0086667,-0.035904,0.066608,-0.073523,0.020544,-0.084575,-0.071056,0.036259,-0.034356,-0.0067237,0.058838,-0.034094,-0.020145,0.0096939,-0.0036619,-0.048657,-0.073912,-0.031965,0.23598,-0.68859,-0.016324,-0.002111,-0.06393,0.036643
0.010203,-0.036897,0.067079,-0.072747,0.020292,-0.073051,-0.073374,0.028623,-0.030685,-0.022584,0.060007,-0.05935,-0.01635,0.0037544,0.0087592,-0.046314,-0.08278,-0.05325,0.12926,-0.70495,-0.01804,0.0050843,-0.063183,0.036628
0.013355,-0.037797,0.062894,-0.072031,0.019577,-0.066789,-0.072629,0.023783,-0.031452,-0.029746,0.057387,-0.092391,-0.010677,-0.00047389,0.024145,-0.040257,-0.092576,-0.080256,0.015063,-0.68389,-0.014502,0.0048457,-0.060716,0.03203
0.017428,-0.033727,0.056776,-0.070697,0.017896,-0.065023,-0.07197,0.02431,-0.033825,-0.026292,0.051591,-0.12886,-0.006623,-0.00083353,0.039582,-0.031224,-0.10787,-0.10653,-0.097256,-0.64106,-0.0088602,0.0013804,-0.059357,0.02683
0.02166,-0.024546,0.053327,-0.067739,0.016296,-0.0635,-0.073425,0.028774,-0.033414,-0.018726,0.045737,-0.16057,-0.0071528,0.002186,0.051988,-0.02356,-0.12901,-0.12553,-0.20022,-0.5978,-0.0053363,0.00037486,-0.061351,0.0247
0.025066,-0.015832,0.054149,-0.063355,0.016281,-0.05833,-0.076189,0.032326,-0.028139,-0.016054,0.043246,-0.17818,-0.011457,0.0059843,0.059645,-0.021654,-0.15081,-0.13427,-0.28765,-0.5658,-0.006745,0.0052296,-0.066528,0.026635
0.026235,-0.013779,0.055794,-0.059675,0.017969,-0.048995,-0.077901,0.030121,-0.0198,-0.02187,0.045302,-0.17563,-0.015011,0.0076179,0.063096,-0.025775,-0.16558,-0.13324,-0.35445,-0.53873,-0.01294,0.015217,-0.07245,0.030899
0.023821,-0.018945,0.052806,-0.059314,0.019536,-0.037973,-0.07753,0.021059,-0.01211,-0.031472,0.050008,-0.15366,-0.013187,0.0054728,0.064674,-0.031411,-0.16806,-0.1238,-0.39674,-0.49749,-0.021076,0.026368,-0.076144,0.034762
0.017775,-0.025197,0.043065,-0.062543,0.018653,-0.027714,-0.07684,0.0087623,-0.0071963,-0.03645,0.053883,-0.12007,-0.0052831,5.2331e-005,0.066761,-0.032991,-0.15848,-0.10642,-0.41266,-0.42548,-0.027522,0.034152,-0.075863,0.036294
0.010335,-0.025297,0.030238,-0.065762,0.014605,-0.018226,-0.07884,-0.001144,-0.0038366,-0.032443,0.054424,-0.086324,0.0046826,-0.0063198,0.069939,-0.028665,-0.14171,-0.081618,-0.40348,-0.32244,-0.030186,0.036084,-0.071672,0.03501
0.0054183,-0.017957,0.020813,-0.063413,0.0090287,-0.0077171,-0.0846,-0.0052914,0.0010432,-0.023074,0.051674,-0.062533,0.011238,-0.010773,0.072544,-0.021826,-0.12332,-0.052114,-0.37452,-0.20652,-0.029685,0.03264,-0.064848,0.031512
0.0062214,-0.0094485,0.018402,-0.052409,0.0045618,0.0045162,-0.09158,-0.0048818,0.0091468,-0.016694,0.047646,-0.053303,0.011899,-0.01168,0.0721,-0.018111,-0.10605,-0.023423,-0.33487,-0.10361,-0.028572,0.026158,-0.056944,0.027037
0.012616,-0.0079015,0.020663,-0.035385,0.0026984,0.016254,-0.09526,-0.0042183,0.018853,-0.019061,0.044337,-0.056678,0.0089115,-0.010004,0.067494,-0.020796,-0.089115,-0.001554,-0.29514,-0.032469,-0.029256,0.018872,-0.049332,0.023331
0.020655,-0.015507,0.021657,-0.019554,0.0028301,0.023913,-0.092797,-0.006857,0.026245,-0.028509,0.042165,-0.066367,0.0068966,-0.0090905,0.059953,-0.028696,-0.070555,0.010376,-0.26364,0.0038135,-0.032267,0.011766,-0.043261,0.022483
0.025142,-0.026108,0.017312,-0.011581,0.0031542,0.026313,-0.085458,-0.012744,0.02815,-0.037676,0.04015,-0.075789,0.0087022,-0.012603,0.051893,-0.038076,-0.050407,0.013762,-0.24287,0.015196,-0.036184,0.0050772,-0.039871,0.026206
0.023563,-0.030722,0.0088161,-0.012583,0.0023033,0.026842,-0.077644,-0.018679,0.024625,-0.039934,0.037506,-0.081568,0.013136,-0.021733,0.044688,-0.046289,-0.031882,0.013076,-0.22855,0.01531,-0.039096,-0.00037862,-0.039743,0.034789
0.018159,-0.026027,0.00095447,-0.017478,4.2691e-005,0.031371,-0.07337,-0.021447,0.018967,-0.034782,0.034993,-0.084521,0.016321,-0.033797,0.037543,-0.05364,-0.019534,0.012756,-0.21212,0.013531,-0.040154,-0.0027181,-0.042211,0.046617
0.014158,-0.017849,-0.0027222,-0.019238,-0.0033736,0.043302,-0.07325,-0.020686,0.015436,-0.027699,0.034578,-0.087812,0.015087,-0.043618,0.02868,-0.062154,-0.015832,0.014894,-0.18573,0.01359,-0.039874,-0.00016732,-0.045168,0.058925
0.015443,-0.016231,-0.0031272,-0.014398,-0.0080498,0.06015,-0.074479,-0.018975,0.0165,-0.025092,0.037541,-0.093764,0.0093353,-0.047072,0.017791,-0.073019,-0.01891,0.019066,-0.1469,0.017107,-0.039146,0.0070799,-0.045959,0.069392
0.021325,-0.026441,-0.0043412,-0.0052299,-0.01423,0.074992,-0.073566,-0.019254,0.021453,-0.029066,0.042681,-0.10169,0.0016646,-0.044257,0.007351,-0.085372,-0.023434,0.023693,-0.099921,0.026668,-0.038181,0.016282,-0.043026,0.077335
0.027269,-0.044017,-0.0093914,0.0028961,-0.021156,0.081774,-0.069279,-0.022053,0.027061,-0.036445,0.046396,-0.10832,-0.0048321,-0.039726,0.0012685,-0.097308,-0.02404,0.027472,-0.053128,0.045023,-0.036595,0.023815,-0.037152,0.083534
0.028945,-0.058207,-0.017447,0.006258,-0.026501,0.079924,-0.063354,-0.025098,0.029579,-0.042336,0.044905,-0.11022,-0.0084695,-0.039323,0.0017984,-0.10762,-0.018713,0.029973,-0.013498,0.07185,-0.034483,0.027863,-0.031142,0.088896
0.025941,-0.06059,-0.025107,0.0054681,-0.027538,0.074339,-0.058686,-0.025622,0.026906,-0.044535,0.036988,-0.10614,-0.0093272,-0.045844,0.0073454,-0.11633,-0.0094739,0.031577,0.017927,0.10228,-0.033161,0.029686,-0.027859,0.093229
0.021798,-0.051271,-0.030172,0.0041849,-0.023406,0.071016,-0.056836,-0.023297,0.019789,-0.044766,0.025043,-0.097238,-0.0084741,-0.056856,0.013184,-0.12364,-3.3928e-005,0.033179,0.046562,0.12954,-0.034455,0.03206,-0.02798,0.095194
0.020418,-0.037735,-0.033797,0.0055833,-0.016392,0.072341,-0.056968,-0.021144,0.01153,-0.046109,0.013549,-0.085327,-0.0071098,-0.066461,0.014698,-0.12892,0.0074007,0.035796,0.080157,0.14976,-0.03892,0.036147,-0.029277,0.09333
0.022301,-0.02825,-0.038682,0.0099479,-0.010748,0.075971,-0.056813,-0.023592,0.006255,-0.049525,0.0061232,-0.071006,-0.0060803,-0.06971,0.010621,-0.13097,0.01337,0.039947,0.12284,0.16476,-0.044681,0.039694,-0.028187,0.087018
0.024155,-0.026098,-0.045253,0.015203,-0.0097759,0.077716,-0.054519,-0.033261,0.006523,-0.052904,0.0033861,-0.053704,-0.0055589,-0.066179,0.0037786,-0.1295,0.019599,0.045026,0.17161,0.18036,-0.04827,0.038573,-0.022523,0.076491
0.022248,-0.029146,-0.050177,0.019318,-0.013585,0.07536,-0.049813,-0.049017,0.011584,-0.053331,0.0031085,-0.033537,-0.0048282,-0.059877,-0.0011842,-0.1259,0.026432,0.049251,0.21796,0.2014,-0.047068,0.030622,-0.013157,0.062115
0.016245,-0.033711,-0.049338,0.022078,-0.019402,0.070036,-0.043846,-0.066651,0.017592,-0.050084,0.0022129,-0.012883,-0.0025849,-0.055649,-0.0012461,-0.12232,0.031963,0.050565,0.25318,0.2277,-0.041353,0.01847,-0.0032435,0.044078
0.0098044,-0.037987,-0.042675,0.024785,-0.024049,0.064521,-0.038232,-0.081328,0.020026,-0.045367,-0.0010517,0.0042891,0.0020071,-0.055227,0.0029789,-0.11945,0.033822,0.048086,0.27317,0.2542,-0.034083,0.0084968,0.00438,0.023093
0.0072981,-0.041894,-0.035794,0.028572,-0.026385,0.060512,-0.034239,-0.089794,0.016924,-0.042114,-0.0062137,0.015129,0.0082117,-0.056311,0.0080126,-0.1155,0.031897,0.043092,0.27926,0.27509,-0.028463,0.0063416,0.0094365,0.0014831
0.0097037,-0.04475,-0.035937,0.033158,-0.027717,0.057364,-0.032483,-0.090983,0.010609,-0.041114,-0.011176,0.020227,0.013761,-0.055315,0.01023,-0.10744,0.029241,0.038686,0.27501,0.28857,-0.025331,0.012477,0.014218,-0.016725
0.013617,-0.044489,-0.045442,0.037082,-0.030168,0.052895,-0.03286,-0.085296,0.0063393,-0.040281,-0.013544,0.023351,0.016409,-0.051031,0.0083228,-0.093941,0.030101,0.038183,0.26268,0.29854,-0.022691,0.02166,0.021387,-0.027265
0.014395,-0.039919,-0.058875,0.038981,-0.034658,0.045049,-0.034374,-0.073735,0.0086087,-0.036789,-0.011845,0.028739,0.015816,-0.045726,0.0037424,-0.077342,0.036679,0.043156,0.24264,0.31153,-0.017854,0.026968,0.031472,-0.027732
0.010535,-0.033406,-0.067087,0.038647,-0.040179,0.033063,-0.035037,-0.057678,0.017807,-0.0301,-0.0063011,0.038336,0.013981,-0.042689,-0.00087171,-0.062715,0.047471,0.052406,0.21593,0.33105,-0.010287,0.025205,0.042205,-0.01866
0.0051582,-0.030172,-0.065028,0.037087,-0.044658,0.017955,-0.032423,-0.039057,0.029867,-0.023064,0.00098737,0.05126,0.013641,-0.042816,-0.0037318,-0.054403,0.058539,0.06257,0.18693,0.35387,-0.0024913,0.01917,0.050268,-0.00288
0.0031768,-0.033815,-0.056254,0.035777,-0.046428,0.0028564,-0.025049,-0.020298,0.03922,-0.020008,0.0066248,0.065519,0.01597,-0.043759,-0.0047333,-0.052782,0.066463,0.070103,0.16255,0.37141,0.0021289,0.014872,0.05399,0.015978
0.006774,-0.042122,-0.049825,0.03579,-0.045169,-0.0068509,-0.013838,-0.003846,0.042695,-0.0233,0.0073954,0.079951,0.019664,-0.04256,-0.0047236,-0.053978,0.070385,0.073403,0.14808,0.37615,0.0026716,0.016138,0.054737,0.034359
0.013414,-0.047836,-0.052243,0.037248,-0.041898,-0.0045833,-0.0023283,0.0083459,0.041312,-0.031157,0.0021022,0.094473,0.022205,-0.039063,-0.0043029,-0.052849,0.07174,0.073655,0.14277,0.36833,0.0022984,0.021419,0.055819,0.048536
0.01819,-0.044586,-0.061788,0.039196,-0.038244,0.014404,0.0051113,0.015067,0.038734,-0.038447,-0.007426,0.10873,0.022081,-0.036455,-0.0035087,-0.04682,0.072447,0.073748,0.13917,0.35766,0.0061969,0.025587,0.059824,0.054241
0.018243,-0.032868,-0.07043,0.039918,-0.035474,0.048971,0.0061759,0.01603,0.037942,-0.039931,-0.01716,0.12096,0.019942,-0.038077,-0.0026087,-0.037422,0.073531,0.076055,0.12745,0.35796,0.017338,0.024979,0.066575,0.047426
0.015101,-0.02029,-0.071402,0.037758,-0.0337,0.08993,0.0025042,0.012277,0.038958,-0.033698,-0.023244,0.12858,0.017782,-0.043565,-0.0028852,-0.028398,0.075167,0.080772,0.1018,0.37799,0.033584,0.020869,0.073397,0.026155
0.012856,-0.015304,-0.065293,0.032297,-0.031728,0.12252,-0.0012199,0.0065324,0.039296,-0.022468,-0.024284,0.1301,0.017095,-0.048293,-0.006146,-0.022213,0.0775,0.086091,0.064947,0.41526,0.048821,0.018049,0.077448,-0.0079068
0.014068,-0.019863,-0.059124,0.025208,-0.027909,0.13338,-0.00063371,0.0027024,0.036434,-0.011929,-0.021823,0.12648,0.017748,-0.047083,-0.013001,-0.018091,0.080875,0.089885,0.027748,0.45744,0.057431,0.019903,0.078142,-0.049872
0.017321,-0.027694,-0.059573,0.019884,-0.021678,0.11825,0.0049286,0.0041369,0.030038,-0.0072392,-0.018762,0.12049,0.018403,-0.038932,-0.021471,-0.013193,0.085129,0.091295,0.0046494,0.49022,0.058533,0.024808,0.077598,-0.093735
0.018701,-0.029905,-0.066977,0.019628,-0.014663,0.084908,0.011793,0.011483,0.02226,-0.0099414,-0.017174,0.11466,0.017858,-0.028302,-0.027624,-0.0056795,0.088961,0.090836,0.0078117,0.50599,0.056535,0.027518,0.078724,-0.1344
0.015664,-0.022871,-0.075614,0.025367,-0.010129,0.048728,0.014705,0.021808,0.016147,-0.017282,-0.017334,0.10962,0.015957,-0.021563,-0.028275,0.0032516,0.090489,0.089247,0.043167,0.50701,0.057634,0.024354,0.082518,-0.16802
0.009605,-0.011264,-0.079545,0.034605,-0.010739,0.02332,0.010865,0.03006,0.01365,-0.024323,-0.018443,0.10441,0.013414,-0.021682,-0.023697,0.010199,0.088868,0.086648,0.10985,0.50196,0.065186,0.017252,0.086917,-0.1909
0.0047489,-0.0036573,-0.078083,0.04267,-0.016197,0.012661,0.0020366,0.032113,0.01467,-0.027376,-0.019946,0.098317,0.010978,-0.025916,-0.01784,0.012459,0.085539,0.083144,0.20242,0.4994,0.077579,0.012749,0.088237,-0.19895
0.004492,-0.0049074,-0.075685,0.045639,-0.022907,0.010303,-0.0068908,0.027269,0.017489,-0.026375,-0.021982,0.09223,0.0088385,-0.028553,-0.015426,0.010399,0.083772,0.080182,0.31412,0.50341,0.089927,0.016796,0.084092,-0.18911
0.0085685,-0.012262,-0.076816,0.042917,-0.026303,0.0059134,-0.011564,0.018317,0.019958,-0.024533,-0.024737,0.088178,0.0067298,-0.026117,-0.018098,0.0072618,0.08663,0.080763,0.43921,0.51387,0.09784,0.030174,0.075361,-0.16212
0.013477,-0.018339,-0.081202,0.037589,-0.0242,-0.0061759,-0.011019,0.009187,0.02059,-0.025579,-0.027747,0.087346,0.0044381,-0.020325,-0.022892,0.0066803,0.094878,0.087519,0.57344,0.5295,0.10019,0.048507,0.065514,-0.12387
0.015508,-0.017732,-0.084175,0.03428,-0.018436,-0.023057,-0.0076065,0.0021113,0.01908,-0.030658,-0.03014,0.088635,0.002147,-0.016241,-0.02455,0.010018,0.10636,0.10003,0.71255,0.55008,0.099091,0.066296,0.057841,-0.083329
0.013512,-0.011046,-0.08157,0.036065,-0.013377,-0.036594,-0.0044115,-0.0034963,0.016176,-0.03725,-0.031625,0.089337,0.00037742,-0.017529,-0.019898,0.01565,0.11715,0.11403,0.85033,0.57594,0.097807,0.080777,0.052964,-0.0479
0.0091302,-0.0031518,-0.074143,0.042559,-0.012488,-0.040664,-0.0025367,-0.0097384,0.013087,-0.040955,-0.033019,0.08751,-0.00031827,-0.023188,-0.010641,0.020578,0.1236,0.12388,0.97779,0.606,0.098454,0.092057,0.048818,-0.019758
0.00479,0.0018742,-0.067173,0.050324,-0.015777,-0.03607,-0.00041732,-0.017839,0.010707,-0.038831,-0.035523,0.083871,0.00035133,-0.028568,-0.0022212,0.022931,0.12391,0.12645,1.0849,0.63696,0.10123,0.10014,0.04306,0.0038157
0.0016747,0.0039722,-0.065795,0.05508,-0.020093,-0.029307,0.0045637,-0.026766,0.0091433,-0.031757,-0.039383,0.08133,0.0022235,-0.029449,0.00026655,0.023372,0.11871,0.12317,1.164,0.66506,0.1051,0.10263,0.03565,0.026326
-0.00055962,0.0057761,-0.070679,0.054145,-0.021806,-0.026763,0.013705,-0.033967,0.007943,-0.024014,-0.043345,0.08237,0.004576,-0.025334,-0.0043186,0.024419,0.11053,0.1181,1.2137,0.68886,0.10886,0.096008,0.029055,0.047925
-0.0025689,0.0088657,-0.078066,0.047687,-0.01951,-0.029555,0.025759,-0.037443,0.0069029,-0.020343,-0.045622,0.086547,0.0062105,-0.019196,-0.012838,0.028302,0.10268,0.11406,1.2396,0.71026,0.1116,0.079437,0.025753,0.06508
-0.0042776,0.011874,-0.083701,0.038361,-0.014646,-0.033232,0.037636,-0.03735,0.006669,-0.022643,-0.045586,0.090389,0.00592,-0.01443,-0.020686,0.035038,0.09788,0.11039,1.2515,0.73252,0.11249,0.05723,0.025327,0.07437
-0.0051252,0.012324,-0.08653,0.029791,-0.0098755,-0.032162,0.04638,-0.035851,0.008316,-0.028673,-0.044563,0.089891,0.003312,-0.012139,-0.025075,0.042171,0.097154,0.10479,1.259,0.75646,0.1107,0.037094,0.024078,0.076653
-0.0050687,0.0098919,-0.088597,0.024768,-0.006858,-0.024555,0.05096,-0.03552,0.011995,-0.033684,-0.044874,0.08351,-0.00050763,-0.011141,-0.026149,0.046377,0.099519,0.097447,1.2671,0.77804,0.10576,0.025226,0.017886,0.077207
-0.0049619,0.0072606,-0.09162,0.023964,-0.0052415,-0.013921,0.052739,-0.037731,0.015891,-0.033732,-0.047894,0.073187,-0.0031255,-0.010097,-0.025573,0.045732,0.10264,0.092871,1.2752,0.78927,0.098213,0.022273,0.0060024,0.0811
-0.0057877,0.0074512,-0.094055,0.025729,-0.0033963,-0.0060073,0.054404,-0.042232,0.016858,-0.02829,-0.05277,0.062669,-0.0021802,-0.0091849,-0.024418,0.040995,0.10422,0.097017,1.2797,0.78205,0.089725,0.023484,-0.0077041,0.087798
-0.0076629,0.010447,-0.091835,0.027156,3.3464e-005,-0.0040958,0.058133,-0.047928,0.012747,-0.020331,-0.056909,0.054801,0.002807,-0.0095394,-0.022389,0.035038,0.10334,0.11163,1.2778,0.75216,0.082316,0.022772,-0.017435,0.090216
-0.0098626,0.012952,-0.082163,0.025993,0.0050612,-0.0066136,0.064208,-0.053924,0.0046216,-0.013891,-0.05784,0.050102,0.0095743,-0.011293,-0.018812,0.030987,0.1009,0.13117,1.2706,0.70099,0.077128,0.017214,-0.020006,0.079725
-0.011898,0.011966,-0.066595,0.022284,0.01038,-0.0088569,0.07098,-0.05992,-0.0033373,-0.011015,-0.054977,0.047557,0.014289,-0.012629,-0.014034,0.030516,0.099019,0.14586,1.2624,0.63426,0.073769,0.008497,-0.01737,0.053225
-0.014351,0.0087361,-0.050262,0.018481,0.014216,-0.0070911,0.076134,-0.065877,-0.00668,-0.010357,-0.049979,0.046376,0.014254,-0.011156,-0.0097105,0.03336,0.099598,0.14892,1.2564,0.55935,0.070812,0.00057772,-0.014914,0.016293
-0.018276,0.0087911,-0.037816,0.017628,0.015388,-0.001462,0.078254,-0.07159,-0.0042223,-0.0084878,-0.045554,0.046788,0.010119,-0.0063468,-0.0076997,0.038006,0.10309,0.14194,1.2512,0.48304,0.06714,-0.0040945,-0.016937,-0.020303
-0.023595,0.017315,-0.029888,0.020804,0.01406,0.0046192,0.077448,-0.07664,0.00075955,-0.002812,-0.043673,0.049207,0.0055388,-0.000447,-0.0086515,0.042687,0.10814,0.13344,1.2397,0.4106,0.063094,-0.0066224,-0.023211,-0.047772
-0.028197,0.033721,-0.023266,0.02593,0.011811,0.0078192,0.07463,-0.080585,0.0029293,0.006301,-0.044445,0.053042,0.0041938,0.0033456,-0.011602,0.046004,0.1124,0.13155,1.2132,0.34587,0.060539,-0.010578,-0.029531,-0.064274
-0.029075,0.05051,-0.014421,0.029282,0.010777,0.0078439,0.070277,-0.082883,-0.00090773,0.01592,-0.046248,0.056825,0.0065192,0.0039006,-0.014882,0.047182,0.11396,0.13705,1.1665,0.29139,0.061694,-0.019002,-0.03167,-0.074129
-0.024819,0.057978,-0.0028403,0.028705,0.012074,0.0073906,0.063977,-0.082493,-0.009219,0.023124,-0.04684,0.059849,0.009108,0.0034825,-0.017468,0.046282,0.11246,0.14268,1.1016,0.24845,0.067466,-0.031997,-0.029288,-0.082898
-0.017308,0.051249,0.0089016,0.025756,0.014472,0.0092695,0.055336,-0.07777,-0.016878,0.027492,-0.044637,0.063582,0.007624,0.0059499,-0.019564,0.044324,0.1089,0.13923,1.0263,0.21732,0.076376,-0.046657,-0.026481,-0.093223
-0.010894,0.034031,0.018005,0.024561,0.014668,0.013476,0.045308,-0.067302,-0.019029,0.031279,-0.039465,0.070973,0.0008334,0.013304,-0.021938,0.042869,0.10437,0.12308,0.94959,0.19768,0.084842,-0.059077,-0.028686,-0.10491
-0.0095043,0.016207,0.024012,0.028145,0.0095863,0.017019,0.036383,-0.051401,-0.014528,0.037063,-0.032546,0.083772,-0.007932,0.023666,-0.02461,0.04292,0.098553,0.098982,0.87659,0.18877,0.088795,-0.066809,-0.038635,-0.11835
-0.013922,0.0073353,0.028444,0.035568,-0.00066886,0.016715,0.030983,-0.032974,-0.0063969,0.044968,-0.025862,0.10026,-0.013444,0.032521,-0.026143,0.043872,0.089457,0.075996,0.80744,0.18889,0.08574,-0.070089,-0.054586,-0.13716
-0.021324,0.010986,0.032232,0.042823,-0.011757,0.012301,0.029236,-0.016607,0.00069199,0.052015,-0.021229,0.11584,-0.013145,0.036183,-0.024332,0.043597,0.074899,0.060675,0.73918,0.19464,0.076075,-0.071362,-0.071912,-0.16682
-0.027301,0.023537,0.034129,0.046908,-0.017479,0.0068848,0.028163,-0.0061628,0.0036022,0.054385,-0.019462,0.12643,-0.009474,0.034483,-0.018019,0.039982,0.054747,0.053087,0.66871,0.20137,0.062837,-0.073735,-0.086348,-0.20994
-0.028679,0.037329,0.032226,0.049178,-0.014317,0.0041849,0.023376,-0.0026476,0.0021876,0.050731,-0.020047,0.13174,-0.0077018,0.030479,-0.0086452,0.032854,0.032025,0.048342,0.59409,0.20513,0.050031,-0.079407,-0.096214,-0.26179
-0.025165,0.045305,0.027124,0.054329,-0.0046053,0.0050936,0.01222,-0.0041071,-0.001602,0.043665,-0.021545,0.13531,-0.011173,0.027635,-3.3396e-005,0.024635,0.011672,0.041296,0.51376,0.20526,0.040603,-0.088773,-0.1022,-0.31012
-0.019011,0.044287,0.023044,0.065526,0.0045553,0.0068044,-0.0040726,-0.0075827,-0.0056843,0.038001,-0.022534,0.14101,-0.01824,0.027021,0.0039574,0.018994,-0.0023574,0.03011,0.42562,0.20517,0.035239,-0.10041,-0.10551,-0.33989
-0.013346,0.035817,0.024936,0.080247,0.0061905,0.0054433,-0.020998,-0.011308,-0.0091676,0.037157,-0.022452,0.14902,-0.023649,0.026863,0.0024694,0.018411,-0.0094879,0.016361,0.32742,0.21008,0.032589,-0.11185,-0.10621,-0.34016
-0.010404,0.024963,0.033857,0.091256,-0.0016259,-9.9246e-005,-0.033744,-0.015165,-0.012356,0.040717,-0.021711,0.15522,-0.023047,0.024611,-0.0010765,0.022511,-0.012488,0.002986,0.21877,0.2231,0.030492,-0.12098,-0.10332,-0.30924
-0.010537,0.017807,0.045213,0.092379,-0.014761,-0.0066291,-0.040257,-0.019186,-0.015997,0.045214,-0.021085,0.15456,-0.016563,0.019563,-0.00098211,0.028383,-0.01508,-0.0073589,0.10284,0.24266,0.027297,-0.12726,-0.096025,-0.25532
-0.012237,0.018355,0.052204,0.083879,-0.026614,-0.0089473,-0.042144,-0.02186,-0.020638,0.047373,-0.02093,0.14564,-0.0084586,0.013806,0.0064654,0.032505,-0.01921,-0.012571,-0.013774,0.26385,0.022536,-0.1322,-0.084981,-0.19283
-0.013035,0.026101,0.051771,0.072187,-0.033129,-0.0041963,-0.042936,-0.02025,-0.026378,0.046955,-0.020898,0.13221,-0.0035876,0.010802,0.019696,0.03279,-0.024226,-0.011221,-0.12331,0.2828,0.016814,-0.13849,-0.072171,-0.13664
-0.01087,0.035936,0.047519,0.063938,-0.035026,0.0053594,-0.045248,-0.012091,-0.032726,0.046653,-0.020176,0.12027,-0.0040584,0.012911,0.032491,0.029443,-0.02841,-0.0036652,-0.21998,0.30035,0.011262,-0.14811,-0.059721,-0.097094
-0.0053672,0.041161,0.046564,0.059915,-0.035764,0.013527,-0.04905,0.0019523,-0.03839,0.049135,-0.017827,0.11339,-0.0087959,0.019849,0.038521,0.02439,-0.031251,0.0067527,-0.30216,0.32175,0.0069331,-0.16072,-0.048731,-0.077619
0.001729,0.038089,0.052912,0.054831,-0.037582,0.014602,-0.052139,0.018046,-0.041385,0.053909,-0.012928,0.11032,-0.015584,0.029127,0.036346,0.019992,-0.034268,0.014548,-0.37256,0.35228,0.0043479,-0.17335,-0.039215,-0.075198
0.0074045,0.028848,0.063476,0.043325,-0.039422,0.0077028,-0.052087,0.031369,-0.039912,0.057001,-0.0047445,0.10678,-0.022944,0.03787,0.030638,0.017898,-0.0397,0.0155,-0.43623,0.39226,0.0032743,-0.18178,-0.031008,-0.082896
0.0092144,0.019835,0.070583,0.026349,-0.038403,-0.0022523,-0.04793,0.039023,-0.033795,0.054074,0.006707,0.099487,-0.029963,0.044443,0.028326,0.018514,-0.048384,0.010092,-0.49741,0.43582,0.0028406,-0.18247,-0.024457,-0.092947
0.0069763,0.016618,0.068766,0.011496,-0.033002,-0.0077609,-0.04041,0.041413,-0.025326,0.044522,0.019885,0.088753,-0.034876,0.048712,0.032752,0.021069,-0.058859,0.0035075,-0.55674,0.47444,0.0020203,-0.17408,-0.019999,-0.099284
0.0030433,0.019369,0.059559,0.0066159,-0.024688,-0.0039082,-0.03102,0.041251,-0.018403,0.032934,0.031671,0.07773,-0.034757,0.051073,0.040795,0.024141,-0.068511,0.0014892,-0.61017,0.50273,0.00028413,-0.15783,-0.017016,-0.098984
0.00074348,0.02286,0.049937,0.012672,-0.016539,0.0081695,-0.02104,0.041278,-0.016102,0.02625,0.038755,0.069466,-0.027476,0.051453,0.045547,0.026434,-0.075631,0.005409,-0.65015,0.52155,-0.0020412,-0.137,-0.013432,-0.092605
0.0019687,0.021274,0.046063,0.022683,-0.0105,0.022008,-0.011437,0.042638,-0.018345,0.028562,0.039946,0.064541,-0.014314,0.049379,0.042292,0.027495,-0.080464,0.011049,-0.66869,0.53594,-0.0040858,-0.11596,-0.0069607,-0.083551
0.0057528,0.013744,0.048358,0.027746,-0.0061323,0.030218,-0.0033009,0.044927,-0.021711,0.03772,0.037613,0.060971,-0.000402,0.045019,0.032683,0.02792,-0.084344,0.012342,-0.66115,0.54947,-0.0053102,-0.098955,0.0028043,-0.076547
0.0090929,0.0056083,0.052347,0.024388,-0.0019302,0.029394,0.0021824,0.047412,-0.021897,0.04676,0.036601,0.055884,0.0081373,0.040018,0.023584,0.028848,-0.087807,0.0067039,-0.62953,0.55974,-0.0062667,-0.08866,0.01353,-0.075539
0.0094831,0.0039861,0.053919,0.016454,0.002417,0.022044,0.0046097,0.050055,-0.017099,0.049284,0.04086,0.047324,0.0083575,0.03693,0.021687,0.031054,-0.089507,-0.0028682,-0.58339,0.55912,-0.0084952,-0.084971,0.021789,-0.081739
0.0070499,0.011411,0.053465,0.010309,0.0053307,0.014276,0.005239,0.053423,-0.0095411,0.044491,0.050247,0.035121,0.0025389,0.037379,0.028529,0.034355,-0.086995,-0.010641,-0.53706,0.54069,-0.013404,-0.084947,0.026124,-0.092766
0.0043445,0.023215,0.054815,0.0085761,0.0049786,0.011187,0.0065457,0.057767,-0.0037027,0.0376,0.060329,0.020827,-0.0036426,0.040476,0.039876,0.037829,-0.078712,-0.013076,-0.5033,0.50506,-0.020906,-0.084501,0.028761,-0.10339
0.0038762,0.03118,0.060432,0.0085693,0.0015409,0.013476,0.010286,0.062346,-0.0025863,0.035212,0.065785,0.0070817,-0.0053145,0.043127,0.04947,0.040596,-0.065518,-0.011397,-0.48588,0.46248,-0.029001,-0.081017,0.034081,-0.10753
0.0056611,0.030353,0.068112,0.0063168,-0.0022425,0.017622,0.015646,0.065791,-0.0051637,0.039474,0.064811,-0.0035118,-0.0015813,0.042358,0.053608,0.042384,-0.050551,-0.0099233,-0.4763,0.42809,-0.034924,-0.07503,0.044826,-0.10049
0.0072364,0.023029,0.072773,0.001364,-0.0029053,0.019061,0.019479,0.067252,-0.0072567,0.046097,0.060715,-0.0099294,0.004634,0.037833,0.052917,0.043403,-0.037679,-0.012289,-0.45826,0.41304,-0.037172,-0.069468,0.059331,-0.080522
0.006304,0.016374,0.071536,-0.0028694,0.0011175,0.015618,0.01887,0.067259,-0.0051519,0.047996,0.059113,-0.013882,0.0094932,0.032299,0.050607,0.04383,-0.029803,-0.019046,-0.41875,0.4178,-0.036771,-0.066902,0.072403,-0.049388
0.0034669,0.015926,0.066859,-0.0033501,0.0082951,0.0086705,0.013887,0.067363,0.0011915,0.041401,0.063044,-0.019332,0.011235,0.029334,0.049476,0.043655,-0.028052,-0.028199,-0.35857,0.43217,-0.036537,-0.067124,0.079328,-0.011977
0.0021452,0.020929,0.0644,-0.001491,0.015103,0.0016317,0.0077656,0.068753,0.0081612,0.029118,0.070348,-0.029993,0.010967,0.030235,0.050363,0.043123,-0.031846,-0.037196,-0.29396,0.44181,-0.038697,-0.06723,0.079624,0.025091
0.0053757,0.025656,0.067638,-0.0024469,0.018375,-0.0026472,0.0040566,0.071037,0.011687,0.018127,0.075724,-0.046276,0.011091,0.032829,0.052734,0.043122,-0.039172,-0.044054,-0.2465,0.43637,-0.042851,-0.064279,0.077318,0.055763
0.012418,0.025286,0.074528,-0.010145,0.017114,-0.0035721,0.0032658,0.07235,0.010726,0.01373,0.075614,-0.064247,0.013068,0.033391,0.05604,0.044729,-0.046694,-0.046948,-0.22767,0.41382,-0.046182,-0.05824,0.077597,0.077089
0.018637,0.020632,0.079431,-0.023034,0.012714,-0.0027601,0.0023106,0.070808,0.0079225,0.015346,0.071429,-0.077985,0.016343,0.030031,0.060201,0.048044,-0.050068,-0.04371,-0.22984,0.37892,-0.046026,-0.052537,0.082787,0.090466
0.019174,0.017181,0.078353,-0.034864,0.0078021,-0.002759,-0.0024839,0.066062,0.0069511,0.017451,0.068188,-0.083919,0.018986,0.024462,0.064968,0.051547,-0.045061,-0.032763,-0.2308,0.33833,-0.042691,-0.051627,0.090973,0.10033
0.013207,0.019352,0.072319,-0.039806,0.0046548,-0.0055449,-0.011621,0.059616,0.00902,0.014525,0.069872,-0.083753,0.01919,0.020465,0.069222,0.052994,-0.029416,-0.015092,-0.20909,0.29611,-0.039974,-0.057591,0.098036,0.11071
0.0047539,0.025509,0.06571,-0.037054,0.0040648,-0.011546,-0.021572,0.053709,0.011725,0.0055836,0.075806,-0.083441,0.016448,0.02041,0.071241,0.051416,-0.0045037,0.0049646,-0.15834,0.25225,-0.042675,-0.068628,0.10091,0.12192
-0.00085283,0.02872,0.061447,-0.030763,0.0051176,-0.019523,-0.027718,0.049834,0.011215,-0.0053523,0.08137,-0.088876,0.011796,0.023022,0.069861,0.048346,0.024499,0.021783,-0.090114,0.2038,-0.052998,-0.080617,0.09922,0.13033
-0.0016017,0.022921,0.057985,-0.025783,0.0058989,-0.027352,-0.028262,0.048215,0.0056662,-0.01277,0.082295,-0.10181,0.0072562,0.024507,0.065525,0.046793,0.05045,0.032421,-0.023706,0.14711,-0.068742,-0.090318,0.09448,0.13146
-0.00016874,0.0089376,0.051158,-0.023487,0.0047396,-0.033392,-0.025329,0.048504,-0.0030129,-0.013804,0.078584,-0.11932,0.0049144,0.022027,0.060237,0.048543,0.06737,0.039156,0.028312,0.079926,-0.084687,-0.097512,0.088286,0.12434
-0.00077201,-0.0053935,0.038997,-0.021437,0.001292,-0.037566,-0.022299,0.050806,-0.010593,-0.0096887,0.074495,-0.13691,0.0059588,0.016363,0.056339,0.052207,0.073172,0.047849,0.067414,0.0031103,-0.095984,-0.10447,0.081459,0.11325
-0.0046317,-0.011558,0.024575,-0.016693,-0.0032348,-0.041175,-0.02021,0.055973,-0.013672,-0.00391,0.074647,-0.1522,0.0099789,0.011336,0.05496,0.054042,0.070329,0.062762,0.10468,-0.078484,-0.10094,-0.11345,0.074475,0.10525
-0.0085517,-0.0077627,0.013773,-0.009262,-0.0068171,-0.045283,-0.016858,0.064976,-0.011855,0.00076785,0.079764,-0.16566,0.014913,0.010525,0.055283,0.05108,0.063978,0.081928,0.14952,-0.1568,-0.10135,-0.1244,0.068015,0.10512
-0.0081402,-0.00071536,0.0098561,-0.0024909,-0.0077845,-0.048962,-0.0094548,0.078077,-0.0073674,0.003832,0.085867,-0.17809,0.017941,0.014246,0.055246,0.043832,0.058637,0.097297,0.20132,-0.22326,-0.10065,-0.13474,0.062569,0.11146
-0.0026379,0.0001292,0.010048,-0.00034701,-0.0056232,-0.049296,0.0019977,0.094532,-0.0028569,0.0062918,0.087669,-0.18766,0.017083,0.019474,0.053215,0.036063,0.055678,0.10016,0.24991,-0.27217,-0.10149,-0.14117,0.057564,0.11702
0.0034037,-0.0089983,0.0075814,-0.0043076,-0.0010516,-0.043757,0.014106,0.11288,0.00052529,0.0089648,0.083192,-0.19005,0.012548,0.022641,0.049345,0.031759,0.053239,0.087721,0.28332,-0.30262,-0.10438,-0.14198,0.051401,0.1129
0.0035325,-0.022503,-0.0023424,-0.012481,0.0043989,-0.0332,0.02293,0.13133,0.0032772,0.011585,0.075522,-0.18195,0.0067592,0.022713,0.045458,0.031991,0.048367,0.065473,0.29574,-0.31778,-0.10801,-0.138,0.042974,0.094066
-0.0049363,-0.029888,-0.017987,-0.021247,0.0089172,-0.022471,0.027481,0.14797,0.0062594,0.013382,0.070087,-0.16457,0.0028256,0.02173,0.043439,0.034436,0.039518,0.043145,0.28978,-0.32279,-0.11049,-0.13169,0.033409,0.062625
-0.018069,-0.024549,-0.032015,-0.027592,0.011003,-0.017264,0.03047,0.16097,0.0094946,0.014254,0.069783,-0.14336,0.0025049,0.022394,0.043504,0.035785,0.027383,0.027595,0.2729,-0.32355,-0.11067,-0.12529,0.02606,0.027365
-0.027953,-0.0092401,-0.037086,-0.030224,0.010212,-0.019327,0.035628,0.16905,0.012193,0.015186,0.072281,-0.12382,0.005255,0.024996,0.0439,0.034662,0.013657,0.018351,0.25214,-0.32757,-0.10854,-0.11962,0.024151,0.00015809
-0.028634,0.0063758,-0.031235,-0.029162,0.0077478,-0.02424,0.044225,0.17218,0.013744,0.017426,0.072068,-0.10695,0.009092,0.026705,0.042412,0.032424,-0.00075749,0.0092451,0.23145,-0.34492,-0.10471,-0.11426,0.027865,-0.0086373
-0.020325,0.013594,-0.018683,-0.024883,0.0061655,-0.024315,0.054012,0.1717,0.014462,0.021206,0.065563,-0.088799,0.012358,0.024137,0.038352,0.031397,-0.016246,-0.0056293,0.21276,-0.38643,-0.099611,-0.10862,0.033581,0.0062461
-0.0085547,0.010901,-0.0060495,-0.018045,0.0077955,-0.014708,0.061363,0.16962,0.015266,0.025323,0.054799,-0.064662,0.014682,0.017076,0.033179,0.032541,-0.033274,-0.026789,0.19832,-0.45867,-0.093251,-0.10249,0.036425,0.043471
0.00053552,0.0035727,0.0022396,-0.0097527,0.012753,0.002403,0.064448,0.16715,0.016674,0.028103,0.046191,-0.034317,0.016322,0.0098067,0.029128,0.034788,-0.050839,-0.049089,0.19144,-0.5586,-0.085871,-0.095625,0.034278,0.095581
0.0044018,-0.0019983,0.0056153,-0.0015418,0.018268,0.019465,0.064559,0.16374,0.018226,0.02899,0.045217,-0.0034136,0.016835,0.0083218,0.027097,0.036496,-0.066265,-0.065959,0.19516,-0.67257,-0.078778,-0.086942,0.02981,0.15093
0.004522,-0.0034367,0.0057375,0.0053023,0.020386,0.029851,0.064744,0.15723,0.018944,0.029257,0.051553,0.02022,0.014826,0.015316,0.025745,0.037336,-0.076626,-0.074238,0.21015,-0.78144,-0.074102,-0.074696,0.028534,0.19662
0.0035689,-0.0026497,0.0041833,0.010543,0.017063,0.033288,0.067348,0.14547,0.01832,0.030975,0.058996,0.032175,0.0093643,0.027258,0.022681,0.038711,-0.080483,-0.075739,0.23375,-0.86921,-0.0731,-0.057834,0.034283,0.22208
0.0026899,-0.0021868,0.0018286,0.014983,0.01012,0.035454,0.072676,0.12814,0.016746,0.034872,0.060389,0.03427,0.0016473,0.0365,0.016676,0.042293,-0.078406,-0.074855,0.2609,-0.92962,-0.0743,-0.037456,0.045874,0.22289
0.0014613,-0.0021927,-0.00030325,0.019476,0.004165,0.042022,0.079516,0.10755,0.014934,0.038923,0.053349,0.032558,-0.0051151,0.037143,0.0089413,0.048102,-0.07205,-0.074723,0.28624,-0.96653,-0.073604,-0.016769,0.057833,0.20309
-0.00011538,-0.00092871,-0.00075463,0.02385,0.0031285,0.052664,0.086437,0.087608,0.013002,0.039181,0.041921,0.03262,-0.0080081,0.0298,0.0023692,0.053875,-0.062965,-0.075148,0.30642,-0.9884,-0.067048,0.00079745,0.064551,0.17449
-0.00035711,0.0024966,0.0010478,0.026827,0.0072625,0.060768,0.092493,0.071573,0.010301,0.032612,0.032886,0.036116,-0.0069388,0.020974,-0.00059387,0.05637,-0.052302,-0.0735,0.32186,-1.0009,-0.054357,0.013833,0.064306,0.15193
0.0028809,0.0067853,0.0032831,0.02711,0.01318,0.059519,0.097042,0.060232,0.0062723,0.019907,0.03012,0.040907,-0.004839,0.01732,0.00030327,0.053625,-0.041396,-0.067295,0.33726,-1.0028,-0.040004,0.023553,0.059836,0.14636
0.0097209,0.010015,0.0023558,0.024615,0.016902,0.048988,0.099501,0.051909,0.0014667,0.0058939,0.031901,0.04386,-0.0050615,0.019696,0.0030233,0.046533,-0.032094,-0.056152,0.36028,-0.98735,-0.030252,0.03218,0.055344,0.15943
0.017338,0.011955,-0.0040163,0.020652,0.017214,0.037671,0.099714,0.044433,-0.0024417,-0.0031471,0.033223,0.043622,-0.0082982,0.022349,0.0046792,0.038513,-0.025997,-0.041836,0.39804,-0.94843,-0.028237,0.040641,0.052859,0.18315
0.021946,0.014042,-0.013868,0.016884,0.016391,0.036729,0.098503,0.037476,-0.0039007,-0.0035715,0.030684,0.041401,-0.012006,0.018177,0.0033043,0.033413,-0.023091,-0.02684,0.45242,-0.88697,-0.031351,0.0478,0.051197,0.20513
0.022018,0.016841,-0.021462,0.014083,0.017768,0.051651,0.097465,0.033207,-0.0029412,0.0031237,0.02546,0.039832,-0.013004,0.0055217,-0.0012366,0.032953,-0.021254,-0.01296,0.51684,-0.81369,-0.033456,0.052016,0.048041,0.21607
0.019604,0.018134,-0.021612,0.011914,0.022451,0.078419,0.097727,0.034494,-0.0014521,0.011321,0.02188,0.041327,-0.010777,-0.0095528,-0.0075503,0.03548,-0.017518,-0.00095175,0.57724,-0.74578,-0.030173,0.053566,0.042843,0.21459
0.018346,0.014577,-0.014432,0.0098622,0.028181,0.1072,0.09869,0.041961,-0.0018376,0.015214,0.023138,0.047062,-0.0082199,-0.017743,-0.013754,0.037055,-0.010353,0.0088119,0.6177,-0.69912,-0.022542,0.055609,0.037678,0.20647
0.019995,0.005916,-0.0060566,0.0082987,0.03127,0.12995,0.098117,0.052308,-0.0050929,0.012843,0.02811,0.056702,-0.0089827,-0.014041,-0.018502,0.034302,-0.0010743,0.015647,0.62783,-0.68048,-0.015718,0.062624,0.035346,0.19947
0.022788,-0.0027433,-0.004047,0.0085153,0.029711,0.14513,0.093877,0.059364,-0.009945,0.0073207,0.032057,0.068488,-0.013899,-0.0019091,-0.021494,0.027051,0.0069451,0.018644,0.60696,-0.68426,-0.013891,0.07754,0.036618,0.19763
0.023315,-0.004004,-0.011033,0.011647,0.024631,0.15582,0.085984,0.057163,-0.013849,0.004322,0.030512,0.079563,-0.019925,0.0094987,-0.023357,0.018737,0.010708,0.017492,0.56231,-0.69597,-0.016116,0.099879,0.039209,0.19896
0.020161,0.0052024,-0.022087,0.017559,0.018944,0.16388,0.077089,0.042826,-0.015016,0.0076612,0.022964,0.086834,-0.022607,0.01272,-0.025051,0.014082,0.0097031,0.013218,0.50275,-0.70027,-0.01693,0.12631,0.039383,0.19737
0.015789,0.019534,-0.028392,0.024835,0.014762,0.16625,0.070803,0.017525,-0.013708,0.016168,0.013263,0.088399,-0.019723,0.0077681,-0.027137,0.015701,0.0060073,0.0080553,0.43335,-0.68853,-0.011248,0.15292,0.034752,0.18688
0.014712,0.028412,-0.024331,0.031875,0.012058,0.15712,0.069101,-0.014513,-0.011697,0.024241,0.0065449,0.084778,-0.012737,0.0015856,-0.029256,0.022243,0.0024897,0.0044441,0.35502,-0.66138,0.00086678,0.17729,0.02598,0.16504
0.01944,0.024709,-0.012046,0.038012,0.0096466,0.13383,0.070943,-0.047776,-0.010425,0.025835,0.0052949,0.078865,-0.0049565,0.0018486,-0.030111,0.029478,0.0007653,0.0039393,0.26911,-0.62551,0.013815,0.19885,0.016233,0.13374
0.027854,0.011502,0.00031804,0.043553,0.0070867,0.10066,0.073184,-0.077046,-0.0096389,0.019029,0.0077427,0.07426,0.0015066,0.010507,-0.027986,0.033413,0.00055214,0.0068027,0.18189,-0.58778,0.02085,0.21782,0.0091435,0.09755
0.034479,0.00033091,0.0050221,0.048813,0.0053505,0.066768,0.072938,-0.098761,-0.0077963,0.0077386,0.0097061,0.072942,0.0069556,0.022399,-0.021533,0.032881,0.0006337,0.012342,0.10432,-0.5511,0.019463,0.23395,0.0069457,0.06121
0.034673,0.0017031,0.00026945,0.053276,0.0055456,0.039996,0.069402,-0.11227,-0.0038554,-0.00093242,0.0081826,0.073989,0.012653,0.02979,-0.010452,0.029641,0.00023754,0.019411,0.046385,-0.51478,0.013262,0.24647,0.0099108,0.028178
0.02817,0.015901,-0.009582,0.055946,0.0071553,0.022271,0.063825,-0.12041,0.0013301,-0.0018277,0.0036991,0.074442,0.018656,0.028696,0.0041661,0.026229,-0.00044086,0.02655,0.010755,-0.4779,0.0089037,0.25513,0.016891,0.00073413
0.019045,0.032409,-0.018678,0.056607,0.0078317,0.01037,0.058033,-0.12847,0.0054512,0.004564,-0.00037454,0.071762,0.02346,0.02166,0.01987,0.023689,-0.00074077,0.031918,-0.0087991,-0.4424,0.010791,0.26104,0.026136,-0.019085
0.012253,0.038751,-0.024633,0.056611,0.0052037,0.0008467,0.053055,-0.14137,0.0067034,0.012783,-0.00080731,0.066008,0.025749,0.01501,0.03325,0.021185,-0.00022294,0.033581,-0.022881,-0.41318,0.017932,0.2663,0.035814,-0.029169
0.0098191,0.030963,-0.029486,0.058046,-0.00092804,-0.005891,0.048995,-0.1607,0.005443,0.016863,0.0027433,0.059975,0.026085,0.0134,0.040767,0.017582,0.0012347,0.030399,-0.039635,-0.39535,0.025334,0.27234,0.044314,-0.028388
0.0097733,0.016318,-0.036373,0.061736,-0.0081307,-0.0061836,0.045836,-0.18377,0.0039373,0.014867,0.0073982,0.05708,0.026366,0.016408,0.040007,0.013171,0.0038162,0.022977,-0.06117,-0.39098,0.028459,0.27816,0.05056,-0.018233
0.0084168,0.0060662,-0.045539,0.065931,-0.013154,0.0024268,0.043971,-0.20543,0.0043758,0.0098296,0.0092794,0.058632,0.027449,0.0197,0.030985,0.009695,0.0079011,0.013836,-0.085524,-0.39761,0.02688,0.28007,0.054257,-0.0033241
0.0036827,0.0051791,-0.053558,0.067229,-0.014452,0.017204,0.043725,-0.22112,0.0069494,0.0066379,0.0064132,0.062686,0.027596,0.019111,0.016692,0.0086588,0.013583,0.0064262,-0.11159,-0.40918,0.024171,0.2735,0.055699,0.010256
-0.003261,0.0086706,-0.056287,0.063356,-0.013191,0.030266,0.044402,-0.22892,0.0097518,0.007908,3.1554e-005,0.065505,0.023859,0.013761,0.0021659,0.0097442,0.020045,0.0035285,-0.14238,-0.41837,0.024388,0.25591,0.055116,0.017913
-0.0092087,0.007615,-0.052577,0.055494,-0.011936,0.032461,0.044088,-0.22934,0.010593,0.012466,-0.0066094,0.064429,0.015434,0.0058309,-0.0078041,0.011137,0.025559,0.0059823,-0.18423,-0.41904,0.028357,0.22905,0.052122,0.018502
-0.011547,-0.0013754,-0.045263,0.047967,-0.012269,0.017908,0.040761,-0.22399,0.0090793,0.017304,-0.010806,0.059787,0.0055928,-0.0020075,-0.011126,0.011539,0.028278,0.01235,-0.24346,-0.40809,0.032973,0.19886,0.045988,0.013626
-0.010044,-0.012582,-0.038708,0.045258,-0.013497,-0.013726,0.033949,-0.21476,0.0070907,0.020614,-0.012316,0.054224,-0.00025865,-0.0085853,-0.009384,0.011708,0.02714,0.019455,-0.32344,-0.38601,0.034053,0.17298,0.036742,0.0049444
-0.0066273,-0.016881,-0.035361,0.048716,-0.013519,-0.057617,0.025447,-0.20418,0.0072159,0.02287,-0.013212,0.050163,0.00085251,-0.01393,-0.006541,0.013624,0.022117,0.023419,-0.42381,-0.35566,0.030156,0.15703,0.02616,-0.0080154
-0.0038134,-0.010888,-0.034415,0.055686,-0.010889,-0.10556,0.018333,-0.19564,0.010467,0.025324,-0.015963,0.047715,0.0063902,-0.01768,-0.006142,0.017822,0.013785,0.020948,-0.54088,-0.31953,0.024064,0.15203,0.017516,-0.027466
-0.0032967,-0.00042076,-0.033403,0.061667,-0.0061138,-0.14817,0.014919,-0.19219,0.015203,0.027964,-0.021349,0.044927,0.0099316,-0.018521,-0.008907,0.02164,0.002893,0.010693,-0.66769,-0.277,0.020683,0.15457,0.013886,-0.054755
-0.0055768,0.0051247,-0.030784,0.063427,-0.0010803,-0.17767,0.015216,-0.19437,0.018183,0.029332,-0.02786,0.03998,0.0065048,-0.015507,-0.01237,0.020625,-0.0094965,-0.0058257,-0.79391,-0.22443,0.023234,0.15954,0.016222,-0.088035
-0.010314,0.0019028,-0.02693,0.060314,0.0026079,-0.19111,0.017078,-0.19909,0.016976,0.028319,-0.032962,0.033167,-0.002944,-0.0097315,-0.012762,0.012309,-0.021573,-0.024556,-0.90736,-0.15961,0.030905,0.16349,0.022787,-0.12241
-0.016605,-0.0047257,-0.022916,0.052959,0.0046387,-0.19242,0.017894,-0.20106,0.011899,0.025793,-0.035174,0.026759,-0.012074,-0.0041163,-0.0077758,-0.0010484,-0.030796,-0.040894,-0.99774,-0.088051,0.039778,0.16614,0.030556,-0.15236
-0.022915,-0.0054841,-0.018838,0.041218,0.0054642,-0.19097,0.0165,-0.19626,0.0060953,0.024,-0.035237,0.022996,-0.014454,-0.0010325,0.0016917,-0.013641,-0.034703,-0.052306,-1.0607,-0.025745,0.04598,0.16906,0.037422,-0.17427
-0.027195,0.0038536,-0.013708,0.023942,0.005109,-0.19635,0.013895,-0.18438,0.0037099,0.023978,-0.035443,0.022198,-0.0091274,6.5448e-005,0.011948,-0.020526,-0.031941,-0.059511,-1.0994,0.0063644,0.048321,0.17287,0.043299,-0.18686
-0.027705,0.018495,-0.0069662,0.0011044,0.0028834,-0.21216,0.0123,-0.16816,0.0074967,0.023319,-0.037721,0.022708,-0.0015586,0.0024805,0.018705,-0.021404,-0.022673,-0.064861,-1.121,-0.0049838,0.04839,0.17593,0.049209,-0.18992
-0.024187,0.029214,0.00036196,-0.023951,-0.0015684,-0.23357,0.013386,-0.15018,0.01747,0.016589,-0.042147,0.022519,0.00089359,0.0093771,0.019587,-0.020276,-0.0082005,-0.06897,-1.1317,-0.053672,0.048423,0.17598,0.055381,-0.18296
-0.018322,0.030695,0.0065771,-0.045027,-0.0071599,-0.25069,0.017033,-0.1301,0.031327,-0.0013665,-0.047195,0.020884,-0.0049085,0.020643,0.015383,-0.02125,0.0095527,-0.068805,-1.1341,-0.11308,0.049149,0.17338,0.060421,-0.16543
-0.012712,0.025543,0.011589,-0.056773,-0.011756,-0.25565,0.021515,-0.10529,0.04605,-0.031254,-0.051506,0.018469,-0.01535,0.0324,0.0093699,-0.024469,0.028054,-0.059694,-1.129,-0.1489,0.049576,0.17254,0.062606,-0.13818
-0.0090014,0.02055,0.017923,-0.058721,-0.014024,-0.24803,0.024838,-0.074105,0.05934,-0.067064,-0.055523,0.016201,-0.023047,0.039717,0.0053129,-0.026063,0.043894,-0.040298,-1.1199,-0.13875,0.048733,0.17929,0.062172,-0.10458
-0.0067494,0.019551,0.028724,-0.055906,-0.014901,-0.23457,0.026139,-0.038739,0.069936,-0.097465,-0.061442,0.014091,-0.022585,0.040194,0.0054778,-0.022292,0.053153,-0.01627,-1.1166,-0.085368,0.047434,0.19613,0.062169,-0.070377
-0.0041461,0.020189,0.044186,-0.055034,-0.016901,-0.22352,0.026112,-0.0045909,0.07697,-0.11071,-0.071432,0.011052,-0.014191,0.035415,0.0098331,-0.013946,0.052855,0.001293,-1.1324,-0.013408,0.048038,0.21975,0.066497,-0.042406
-2.3205e-006,0.01751,0.060008,-0.059141,-0.021566,-0.21825,0.026295,0.023533,0.079386,-0.10092,-0.085731,0.0056091,-0.0027384,0.02926,0.0167,-0.0067624,0.042773,0.0022664,-1.1781,0.048118,0.052113,0.24401,0.076339,-0.026994
0.0048793,0.010199,0.070058,-0.065248,-0.027411,-0.2149,0.027937,0.044862,0.076262,-0.072307,-0.10237,-0.0032932,0.0064637,0.024815,0.024133,-0.0072136,0.026048,-0.015971,-1.2569,0.085157,0.058225,0.26622,0.08806,-0.028067
0.008334,0.0027863,0.071393,-0.067075,-0.030482,-0.20569,0.031337,0.062407,0.067786,-0.03822,-0.11882,-0.015842,0.011288,0.022575,0.030964,-0.017396,0.0076695,-0.047097,-1.3635,0.10579,0.062398,0.29048,0.094883,-0.04496
0.0089366,0.0014737,0.067091,-0.06046,-0.027328,-0.18466,0.035983,0.079159,0.055779,-0.014343,-0.13411,-0.031103,0.013189,0.021131,0.036869,-0.033624,-0.0085361,-0.080557,-1.4874,0.1311,0.061543,0.32393,0.091637,-0.070957
0.0075543,0.0078132,0.063927,-0.046794,-0.017912,-0.15109,0.041151,0.094385,0.042874,-0.00937,-0.14943,-0.046835,0.014836,0.019194,0.041671,-0.049937,-0.022442,-0.10852,-1.6172,0.1783,0.057092,0.36809,0.079047,-0.094571
0.0067833,0.016646,0.066652,-0.03157,-0.0059338,-0.10799,0.046373,0.10378,0.030764,-0.019208,-0.16658,-0.059774,0.017522,0.016851,0.044645,-0.063215,-0.037767,-0.12981,-1.7431,0.25012,0.05526,0.41374,0.064001,-0.10455
0.0087233,0.020425,0.073955,-0.019556,0.0037604,-0.057624,0.05158,0.10359,0.019052,-0.029471,-0.18561,-0.066914,0.020383,0.015057,0.044501,-0.075145,-0.059479,-0.1485,-1.8563,0.33765,0.062888,0.44565,0.055164,-0.096307
0.013159,0.015818,0.079835,-0.011013,0.0085861,0.0011636,0.057024,0.094842,0.0059429,-0.025521,-0.2035,-0.067422,0.021447,0.014307,0.040122,-0.089311,-0.090081,-0.16956,-1.9492,0.43143,0.081905,0.45524,0.057051,-0.075024
0.017836,0.0064462,0.079102,-0.002282,0.009817,0.070958,0.063134,0.083477,-0.0095665,-0.0032933,-0.21521,-0.063685,0.019122,0.014093,0.031539,-0.10631,-0.12731,-0.19514,-2.0166,0.52807,0.10709,0.45073,0.067045,-0.05194
0.020516,-0.00050098,0.07186,0.010019,0.011279,0.15053,0.070175,0.075931,-0.025916,0.027298,-0.21642,-0.060119,0.012978,0.013698,0.020429,-0.12165,-0.16494,-0.22404,-2.0571,0.62484,0.12933,0.45484,0.07759,-0.03556
0.020796,-0.00028655,0.062881,0.025164,0.016283,0.23144,0.077648,0.074,-0.039431,0.049395,-0.20618,-0.060106,0.0038633,0.01324,0.0098034,-0.12866,-0.19609,-0.25317,-2.0742,0.70746,0.14188,0.4899,0.081743,-0.024189
0.020027,0.0061749,0.05669,0.03838,0.0251,0.30046,0.083816,0.073791,-0.04691,0.051567,-0.18776,-0.063398,-0.0061315,0.013508,0.0029526,-0.12389,-0.21678,-0.27921,-2.0754,0.74542,0.14454,0.56151,0.077717,-0.0060815
0.019565,0.014135,0.053257,0.044652,0.03473,0.34697,0.086056,0.069799,-0.048292,0.035882,-0.1673,-0.066383,-0.013886,0.014515,0.0020807,-0.11026,-0.22723,-0.29926,-2.0699,0.7043,0.14244,0.65359,0.069142,0.032173
0.019253,0.019213,0.0484,0.042783,0.041031,0.36947,0.08227,0.060374,-0.04707,0.015357,-0.15108,-0.065319,-0.016232,0.014361,0.0071294,-0.095065,-0.23031,-0.31102,-2.0675,0.56946,0.14116,0.73852,0.061371,0.095074
0.017733,0.019809,0.038309,0.036174,0.041637,0.37578,0.072569,0.049461,-0.048004,0.0030843,-0.14289,-0.059854,-0.011817,0.01011,0.015323,-0.08462,-0.22874,-0.31349,-2.0769,0.3627,0.14246,0.79352,0.057171,0.17346
0.014216,0.016349,0.023587,0.029916,0.037634,0.37647,0.059804,0.043003,-0.053955,0.002089,-0.14261,-0.053644,-0.0026841,0.00053031,0.021893,-0.080161,-0.22333,-0.3077,-2.1036,0.13609,0.14405,0.81001,0.055166,0.24919
0.0098096,0.0095655,0.0088492,0.027048,0.032804,0.37667,0.04812,0.043423,-0.064287,0.0040774,-0.14664,-0.051321,0.0061994,-0.011639,0.022077,-0.078151,-0.21326,-0.29643,-2.1453,-0.055838,0.14278,0.7908,0.051731,0.30569
0.0068375,0.00047844,-0.0015785,0.027238,0.030967,0.3731,0.040306,0.047404,-0.075796,-0.0025127,-0.14973,-0.054383,0.0099525,-0.0204,0.013742,-0.074267,-0.19781,-0.28243,-2.189,-0.18642,0.13765,0.74078,0.044248,0.33673
0.0066835,-0.008155,-0.0075237,0.028567,0.033327,0.35845,0.035893,0.049052,-0.085005,-0.022432,-0.14746,-0.059639,0.0074919,-0.020394,-0.00081294,-0.067227,-0.17778,-0.26643,-2.2141,-0.26795,0.13007,0.66213,0.032981,0.34793
0.008263,-0.01172,-0.012653,0.030151,0.0377,0.32915,0.031588,0.045367,-0.089886,-0.04992,-0.13826,-0.061582,0.0028779,-0.011159,-0.01533,-0.059326,-0.15571,-0.24672,-2.2015,-0.33646,0.12161,0.55801,0.020437,0.3512
0.0087589,-0.0067098,-0.020509,0.032903,0.040109,0.28973,0.0238,0.038841,-0.090101,-0.073782,-0.12369,-0.056672,0.0026582,0.0019072,-0.022648,-0.053795,-0.13485,-0.22116,-2.145,-0.42341,0.11214,0.43902,0.009239,0.35719
0.0060758,0.0052669,-0.030937,0.03797,0.037504,0.25044,0.011377,0.034807,-0.086327,-0.086144,-0.10717,-0.045912,0.010822,0.011141,-0.018782,-0.051815,-0.11802,-0.19003,-2.0553,-0.53607,0.10017,0.32307,0.00040903,0.37094
0.00075044,0.016814,-0.040321,0.044892,0.029659,0.22037,-0.0035892,0.036205,-0.079768,-0.087368,-0.091732,-0.033842,0.025279,0.012179,-0.0054045,-0.051809,-0.10664,-0.15698,-1.9523,-0.65838,0.084963,0.22625,-0.006809,0.39223
-0.0044888,0.019473,-0.045079,0.051743,0.019097,0.20195,-0.017479,0.04087,-0.072147,-0.083724,-0.078547,-0.025204,0.038889,0.007,0.011152,-0.051135,-0.10018,-0.12687,-1.8497,-0.76686,0.068041,0.15198,-0.013841,0.41815
-0.0071008,0.010689,-0.044716,0.057194,0.009422,0.19086,-0.027999,0.043963,-0.065589,-0.080936,-0.067028,-0.022215,0.044485,0.0018692,0.023805,-0.048185,-0.096267,-0.10224,-1.744,-0.84533,0.052498,0.08924,-0.021486,0.44496
-0.006833,-0.003195,-0.041556,0.062204,0.0033399,0.18067,-0.035886,0.043205,-0.06184,-0.079715,-0.056282,-0.024294,0.039994,0.001897,0.02883,-0.042998,-0.09171,-0.081548,-1.6156,-0.88778,0.040631,0.022631,-0.02938,0.46821
-0.0056628,-0.01135,-0.037908,0.069163,0.0015308,0.16781,-0.044047,0.041941,-0.061172,-0.076799,-0.046421,-0.02959,0.029634,0.0068607,0.027274,-0.036304,-0.084464,-0.060974,-1.4434,-0.89163,0.032081,-0.053274,-0.036414,0.48286
-0.0058085,-0.0071928,-0.034008,0.078961,0.002728,0.1528,-0.054733,0.047055,-0.062022,-0.069803,-0.038496,-0.036309,0.020375,0.011802,0.022912,-0.028443,-0.075378,-0.038168,-1.221,-0.85176,0.024074,-0.12735,-0.041688,0.48525
-0.0078186,0.0060417,-0.028921,0.088786,0.0047085,0.13773,-0.066955,0.063542,-0.062041,-0.061018,-0.033126,-0.042748,0.016654,0.011678,0.018656,-0.019334,-0.068224,-0.014619,-0.96194,-0.76207,0.01355,-0.17884,-0.045224,0.47615
-0.010504,0.018023,-0.023023,0.093155,0.0056313,0.12267,-0.076302,0.090427,-0.060008,-0.056728,-0.029187,-0.046871,0.017569,0.0057861,0.014381,-0.0093105,-0.067341,0.0055111,-0.6896,-0.62234,-0.00051279,-0.19244,-0.047921,0.46188
-0.012528,0.02019,-0.018742,0.087741,0.0050731,0.10472,-0.077559,0.12128,-0.057195,-0.062665,-0.02397,-0.046881,0.01843,-0.0019421,0.0077096,0.00036265,-0.074172,0.018812,-0.42162,-0.44255,-0.016242,-0.17014,-0.050667,0.45113
-0.013833,0.012948,-0.018162,0.072849,0.0041303,0.080499,-0.068341,0.14826,-0.057014,-0.079394,-0.014859,-0.042904,0.014924,-0.0068201,-0.0031929,0.0080169,-0.085266,0.025041,-0.16107,-0.2411,-0.029955,-0.13154,-0.05328,0.44888
-0.015393,0.0047998,-0.019903,0.053522,0.0043483,0.049845,-0.051021,0.16566,-0.063052,-0.1012,-0.0011851,-0.038103,0.0062928,-0.0077174,-0.017318,0.012655,-0.093651,0.026416,0.097907,-0.039705,-0.038371,-0.10352,-0.054202,0.45216
-0.017672,0.0043554,-0.019173,0.036109,0.0060999,0.017411,-0.031485,0.17017,-0.076854,-0.1192,0.015282,-0.037442,-0.0047622,-0.0078318,-0.030921,0.014441,-0.093066,0.02484,0.35623,0.13997,-0.040577,-0.10713,-0.051604,0.45178
-0.019643,0.01264,-0.011968,0.024101,0.0077473,-0.0097092,-0.015653,0.15882,-0.097013,-0.12647,0.031508,-0.044362,-0.014768,-0.011357,-0.039895,0.014119,-0.082212,0.019993,0.60038,0.27749,-0.038643,-0.1498,-0.045378,0.43949
-0.019687,0.022675,0.00024481,0.016479,0.0065989,-0.026826,-0.0063779,0.12819,-0.12007,-0.12164,0.044947,-0.057855,-0.022105,-0.019252,-0.042538,0.012054,-0.065897,0.010086,0.80617,0.35675,-0.03651,-0.22602,-0.03853,0.41489
-0.017597,0.026344,0.010393,0.0094836,0.0012015,-0.035431,-0.0028474,0.077105,-0.14234,-0.10897,0.054477,-0.072521,-0.02747,-0.027996,-0.040639,0.0080514,-0.052004,-0.0057861,0.95257,0.37363,-0.037783,-0.32336,-0.036441,0.38613
-0.015479,0.021787,0.011407,-1.3942e-005,-0.0069151,-0.042963,-0.0024379,0.010906,-0.16105,-0.095008,0.060084,-0.081832,-0.032266,-0.032385,-0.038176,0.0022393,-0.046207,-0.026231,1.0341,0.34384,-0.043778,-0.42909,-0.043882,0.36324
-0.016198,0.014392,0.0029526,-0.012326,-0.013805,-0.05856,-0.0030838,-0.057256,-0.17408,-0.084387,0.061955,-0.082218,-0.036762,-0.029768,-0.038622,-0.0039439,-0.048088,-0.048389,1.0621,0.30174,-0.053126,-0.53361,-0.061594,0.34933
-0.02053,0.010897,-0.0071771,-0.02528,-0.01587,-0.087732,-0.0042231,-0.1108,-0.17907,-0.077287,0.059921,-0.075032,-0.039713,-0.022057,-0.042736,-0.0079792,-0.051433,-0.069842,1.055,0.28526,-0.063235,-0.63028,-0.08504,0.3368
-0.025841,0.012735,-0.0090354,-0.036212,-0.012654,-0.1295,-0.0060903,-0.13768,-0.17341,-0.069862,0.053544,-0.065321,-0.039605,-0.013984,-0.04825,-0.0079838,-0.048601,-0.089504,1.0261,0.31299,-0.072566,-0.71353,-0.1067,0.31166
-0.027982,0.015216,0.001078,-0.043737,-0.0072566,-0.17752,-0.0087242,-0.13634,-0.15599,-0.056854,0.042523,-0.058793,-0.036234,-0.0094357,-0.051563,-0.0046362,-0.036005,-0.10687,0.97852,0.36815,-0.081984,-0.77798,-0.12057,0.26207
-0.025016,0.013105,0.017426,-0.048071,-0.0039356,-0.22399,-0.012005,-0.1152,-0.12949,-0.03439,0.027059,-0.059141,-0.031206,-0.0090332,-0.050219,-0.0015011,-0.016904,-0.12107,0.90918,0.40203,-0.094174,-0.81981,-0.12565,0.18437
-0.019302,0.006738,0.029972,-0.050118,-0.0049225,-0.26358,-0.016547,-0.086375,-0.10067,-0.0013933,0.0082035,-0.066931,-0.02696,-0.010707,-0.0445,-0.0030763,0.00038177,-0.13124,0.81612,0.35691,-0.11152,-0.8393,-0.12569,0.082464
-0.015707,0.0023566,0.03319,-0.050353,-0.0091115,-0.29549,-0.024053,-0.058903,-0.077334,0.040582,-0.011774,-0.079833,-0.025099,-0.012201,-0.037083,-0.011802,0.0075897,-0.13809,0.7035,0.19513,-0.13393,-0.84176,-0.1254,-0.037041
-0.017348,0.0061775,0.030354,-0.048387,-0.013536,-0.32298,-0.03616,-0.036254,-0.063387,0.08819,-0.029311,-0.093554,-0.025282,-0.012966,-0.031066,-0.026287,0.0014964,-0.1444,0.5815,-0.082697,-0.15795,-0.83475,-0.12644,-0.16849
-0.022781,0.018024,0.029407,-0.043365,-0.016061,-0.35105,-0.05246,-0.018787,-0.055787,0.13699,-0.040407,-0.10325,-0.025424,-0.013856,-0.027899,-0.042132,-0.014422,-0.15329,0.4632,-0.43923,-0.17772,-0.8229,-0.12647,-0.30606
-0.027348,0.030853,0.034625,-0.034882,-0.016859,-0.3832,-0.069518,-0.0073516,-0.046317,0.18203,-0.042447,-0.1054,-0.023078,-0.015307,-0.026818,-0.054644,-0.032427,-0.16516,0.36135,-0.81724,-0.18719,-0.80446,-0.12209,-0.44001
-0.027399,0.036747,0.042359,-0.023916,-0.017643,-0.4187,-0.082137,-0.0039898,-0.027491,0.21882,-0.03606,-0.099585,-0.017035,-0.016109,-0.026151,-0.061238,-0.045082,-0.17628,0.28577,-1.1597,-0.18274,-0.77381,-0.11265,-0.55529
-0.023341,0.033661,0.044988,-0.01325,-0.019819,-0.4516,-0.086217,-0.0093329,0.0016575,0.24503,-0.025492,-0.089001,-0.0080661,-0.014135,-0.025225,-0.061754,-0.048834,-0.18089,0.24089,-1.4234,-0.1648,-0.7292,-0.10135,-0.63557
-0.018675,0.026537,0.038944,-0.0068813,-0.023472,-0.4725,-0.081162,-0.019994,0.034462,0.26189,-0.016757,-0.078838,0.0016861,-0.008367,-0.024967,-0.05692,-0.044562,-0.17548,0.22409,-1.5844,-0.13783,-0.67945,-0.092484,-0.67011
-0.016221,0.021999,0.028583,-0.0082835,-0.027904,-0.47268,-0.070107,-0.029375,0.061174,0.27414,-0.01448,-0.073296,0.010111,-0.00017366,-0.026461,-0.046865,-0.035357,-0.16186,0.22677,-1.64,-0.1083,-0.64248,-0.087464,-0.65809
-0.015484,0.022027,0.021862,-0.018208,-0.032636,-0.44816,-0.057949,-0.031838,0.075641,0.28729,-0.019473,-0.073162,0.016142,0.0075343,-0.028781,-0.031331,-0.023651,-0.14637,0.23845,-1.6086,-0.081717,-0.63366,-0.083749,-0.60691
-0.013773,0.022756,0.022247,-0.033523,-0.037458,-0.4016,-0.048788,-0.026696,0.078909,0.30359,-0.028655,-0.075791,0.019596,0.012593,-0.028428,-0.011302,-0.0099738,-0.13592,0.25118,-1.5243,-0.060556,-0.65128,-0.077882,-0.52646
-0.0096344,0.01923,0.025203,-0.04836,-0.041423,-0.34063,-0.044491,-0.018422,0.077182,0.31911,-0.037241,-0.077543,0.020277,0.015193,-0.021483,0.00992,0.0058967,-0.1341,0.26034,-1.4246,-0.044113,-0.67082,-0.069804,-0.42453
-0.0047796,0.011005,0.023072,-0.057376,-0.042258,-0.2742,-0.045021,-0.012833,0.076259,0.32479,-0.041481,-0.076834,0.01762,0.01727,-0.0070422,0.027754,0.022563,-0.14041,0.26111,-1.3337,-0.029992,-0.65487,-0.064013,-0.30712
-0.0023163,0.0028919,0.013501,-0.059132,-0.037469,-0.20873,-0.049708,-0.012551,0.077266,0.31178,-0.040139,-0.075476,0.01162,0.020324,0.01109,0.038933,0.035625,-0.15283,0.24436,-1.2512,-0.015661,-0.57381,-0.065912,-0.18245
-0.00318,0.00022337,0.0028033,-0.057082,-0.026633,-0.14632,-0.05813,-0.015446,0.07705,0.2778,-0.034116,-0.077282,0.004224,0.023819,0.026301,0.043295,0.038783,-0.17104,0.19694,-1.1595,0.001069,-0.42324,-0.076389,-0.063867
-0.0047131,0.0036065,0.0006137,-0.057217,-0.012674,-0.085315,-0.069887,-0.016974,0.072314,0.22987,-0.025102,-0.085004,-0.00060462,0.025777,0.033485,0.042946,0.027001,-0.19725,0.1072,-1.0441,0.022245,-0.2258,-0.089721,0.032498
-0.0031986,0.0084863,0.01098,-0.063974,-0.00046714,-0.023129,-0.083675,-0.013953,0.063408,0.18069,-0.014524,-0.097814,0.00093105,0.024892,0.032315,0.039463,-0.00043974,-0.23404,-0.028893,-0.91459,0.049302,-0.017228,-0.097206,0.094795
0.0020605,0.0097977,0.028711,-0.077467,0.0065201,0.04016,-0.096837,-0.0065921,0.054276,0.14059,-0.0033841,-0.11111,0.009322,0.021924,0.026715,0.03182,-0.039348,-0.28121,-0.20669,-0.8085,0.081418,0.17147,-0.093785,0.12246
0.0073979,0.0068241,0.044527,-0.094028,0.0087184,0.099136,-0.10627,0.0024447,0.048805,0.11109,0.0073889,-0.1188,0.020364,0.018896,0.020931,0.01723,-0.083129,-0.33471,-0.41808,-0.77319,0.11404,0.32269,-0.082012,0.12731
0.0079046,0.0033663,0.053695,-0.10931,0.0097458,0.14356,-0.11041,0.010476,0.047182,0.085036,0.016673,-0.11651,0.027238,0.016919,0.01553,-0.0056137,-0.12656,-0.38853,-0.65796,-0.83934,0.13965,0.42873,-0.069822,0.12634
0.0022273,0.0033181,0.059458,-0.12116,0.01295,0.16286,-0.11076,0.016445,0.045751,0.053485,0.023238,-0.10383,0.024954,0.015031,0.0067053,-0.033811,-0.16779,-0.43768,-0.9255,-1.0052,0.15142,0.48478,-0.06384,0.12977
-0.0056662,0.0064792,0.06801,-0.1299,0.018231,0.1526,-0.11144,0.020774,0.040479,0.013908,0.026079,-0.084116,0.013888,0.01144,-0.010473,-0.060659,-0.20697,-0.47936,-1.2185,-1.2415,0.14746,0.48837,-0.063785,0.13196
-0.009712,0.009008,0.080548,-0.13618,0.022035,0.11862,-0.11647,0.024244,0.030766,-0.026978,0.024865,-0.062381,-0.00038664,0.0059579,-0.037478,-0.079162,-0.24272,-0.51124,-1.5259,-1.5101,0.13254,0.44607,-0.062613,0.11233
-0.0070912,0.0078725,0.090964,-0.1388,0.020574,0.075225,-0.12672,0.02724,0.020063,-0.057999,0.020459,-0.042587,-0.010861,0.00099383,-0.069983,-0.085908,-0.26999,-0.52899,-1.8253,-1.7807,0.11558,0.37813,-0.052228,0.047699
-0.00063395,0.0043485,0.09187,-0.13481,0.013442,0.037861,-0.13883,0.029867,0.012855,-0.071972,0.015239,-0.026389,-0.013574,-0.00026142,-0.099507,-0.08233,-0.28189,-0.52636,-2.0899,-2.0338,0.1044,0.31229,-0.030131,-0.070735
0.0040374,0.0026112,0.082907,-0.12187,0.0044562,0.015136,-0.14745,0.03235,0.010916,-0.07098,0.012705,-0.014041,-0.0095385,0.0030582,-0.11781,-0.072673,-0.27476,-0.49891,-2.3,-2.2539,0.10156,0.26876,-0.0017919,-0.2267
0.0038793,0.0047851,0.072522,-0.10092,-0.0010065,0.005831,-0.1491,0.035019,0.012187,-0.064483,0.016133,-0.0066125,-0.0030518,0.0081469,-0.12104,-0.060674,-0.25228,-0.44876,-2.4521,-2.4231,0.10394,0.24851,0.022941,-0.3827
0.0010742,0.0078665,0.070737,-0.076604,5.5968e-005,0.0026928,-0.14455,0.037867,0.012966,-0.062262,0.026814,-0.0074782,0.001853,0.010513,-0.11116,-0.047709,-0.22485,-0.38594,-2.5589,-2.5207,0.10594,0.23523,0.036442,-0.49725
0.00034013,0.0062957,0.079559,-0.055086,0.0062152,-0.00062593,-0.13765,0.040278,0.011029,-0.06809,0.043102,-0.021384,0.0039762,0.0077209,-0.094198,-0.033556,-0.20383,-0.32447,-2.6386,-2.5303,0.10353,0.20919,0.037949,-0.54496
0.0035732,-0.0019464,0.09053,-0.040812,0.012857,-0.0052422,-0.13167,0.041379,0.0068421,-0.078753,0.061144,-0.051204,0.0049203,0.0015217,-0.076951,-0.018514,-0.19477,-0.27537,-2.6996,-2.445,0.096201,0.16062,0.033087,-0.52697
0.0072677,-0.011981,0.092304,-0.034683,0.015516,-0.0082272,-0.12662,0.040782,0.0022897,-0.088249,0.076949,-0.09453,0.007084,-0.0036157,-0.064075,-0.0046601,-0.19454,-0.24166,-2.7299,-2.2681,0.086073,0.09149,0.029098,-0.46624
0.0055709,-0.015514,0.081419,-0.034603,0.012724,-0.007107,-0.11992,0.039027,-0.0012013,-0.092977,0.088398,-0.14286,0.011621,-0.0043348,-0.05701,0.0049337,-0.19467,-0.21871,-2.6984,-2.0129,0.075309,0.0063284,0.029681,-0.39292
-0.0037473,-0.0085633,0.06604,-0.037524,0.006548,-0.002903,-0.10963,0.037265,-0.0031474,-0.093798,0.095907,-0.18467,0.017839,-0.0012105,-0.054668,0.0083426,-0.18776,-0.19888,-2.5692,-1.7021,0.06418,-0.096677,0.033219,-0.3314
-0.016249,0.0038367,0.058849,-0.041149,0.00087143,0.0010281,-0.097118,0.036383,-0.00313,-0.094286,0.10158,-0.21076,0.024009,0.0018703,-0.054925,0.006487,-0.17206,-0.17642,-2.3228,-1.3675,0.051082,-0.22469,0.035212,-0.29642
-0.023992,0.010949,0.065525,-0.044217,-0.0010966,0.0027548,-0.086183,0.036352,-0.00028465,-0.097707,0.10769,-0.21856,0.02852,0.0011409,-0.055892,0.0030384,-0.15104,-0.14927,-1.9709,-1.0446,0.034239,-0.38049,0.032355,-0.29666
-0.022269,0.0052742,0.079482,-0.045876,0.0015114,0.0041194,-0.079713,0.036451,0.0057086,-0.10555,0.1156,-0.21246,0.030461,-0.0038347,-0.056466,0.0025706,-0.12899,-0.11733,-1.5556,-0.75897,0.013562,-0.5542,0.024689,-0.33777
-0.013704,-0.010786,0.087777,-0.04543,0.00706,0.0092657,-0.076954,0.036316,0.013143,-0.11804,0.12546,-0.20017,0.029628,-0.0099007,-0.05628,0.0081772,-0.10715,-0.080144,-1.1298,-0.51383,-0.008941,-0.72502,0.014292,-0.41922
-0.0058081,-0.026662,0.082691,-0.043135,0.012447,0.020724,-0.074168,0.036972,0.018403,-0.13471,0.13663,-0.18791,0.026546,-0.013099,-0.055417,0.02004,-0.083248,-0.036224,-0.7302,-0.28657,-0.030729,-0.8713,0.0022784,-0.52801
-0.0042018,-0.032334,0.068335,-0.041251,0.014596,0.036725,-0.067966,0.04081,0.018359,-0.15348,0.14848,-0.17784,0.022699,-0.012019,-0.05408,0.035766,-0.05449,0.015549,-0.36095,-0.042733,-0.051154,-0.97969,-0.012719,-0.63766
-0.0077556,-0.026339,0.056439,-0.043761,0.011799,0.052195,-0.058082,0.050149,0.01313,-0.16873,0.16115,-0.16895,0.02045,-0.0088183,-0.052312,0.052204,-0.020693,0.074153,0.0012583,0.24001,-0.072681,-1.0462,-0.033045,-0.71737
-0.010051,-0.016165,0.05555,-0.054113,0.0045365,0.062538,-0.047102,0.0652,0.006472,-0.17093,0.17586,-0.15975,0.022042,-0.0070968,-0.049828,0.067524,0.015141,0.13604,0.38209,0.55373,-0.099506,-1.0711,-0.059114,-0.74635
-0.0056314,-0.011149,0.063696,-0.072209,-0.0045095,0.066921,-0.037776,0.08298,0.0030192,-0.14957,0.19433,-0.14981,0.027955,-0.0085123,-0.04614,0.082127,0.049107,0.19638,0.78255,0.86178,-0.13422,-1.0552,-0.08824,-0.72267
0.0048295,-0.014561,0.070927,-0.093176,-0.011506,0.068413,-0.030769,0.098256,0.0046464,-0.098425,0.21746,-0.13897,0.035915,-0.011149,-0.041012,0.09768,0.079365,0.25097,1.1697,1.1202,-0.17509,-1.0027,-0.11664,-0.65934
0.015085,-0.021789,0.068758,-0.10949,-0.013428,0.071144,-0.024936,0.10618,0.0092057,-0.019995,0.24451,-0.12513,0.041738,-0.011197,-0.034929,0.11494,0.10735,0.29765,1.4926,1.3044,-0.21632,-0.92531,-0.14277,-0.57188
0.01876,-0.025534,0.057443,-0.11551,-0.010006,0.077029,-0.019376,0.10491,0.012797,0.074398,0.27391,-0.10349,0.041845,-0.0066434,-0.02907,0.13204,0.13655,0.33669,1.7126,1.4218,-0.25164,-0.84194,-0.16868,-0.46863
0.014492,-0.022635,0.044611,-0.1111,-0.0042233,0.084663,-0.014798,0.096384,0.013469,0.16928,0.30528,-0.068269,0.035672,0.00022249,-0.024618,0.14471,0.1699,0.37019,1.825,1.5029,-0.27826,-0.76889,-0.1976,-0.35207
0.0062736,-0.016232,0.037279,-0.10158,-0.00051297,0.090918,-0.012702,0.084721,0.012964,0.25198,0.34069,-0.016067,0.026015,0.0039121,-0.021827,0.14846,0.20752,0.40053,1.8586,1.5779,-0.29821,-0.70772,-0.22975,-0.2284
-0.00074524,-0.011918,0.035371,-0.093735,-0.0015569,0.093586,-0.013385,0.073401,0.014995,0.31767,0.38313,0.05154,0.016918,-7.8188e-005,-0.019648,0.1413,0.2459,0.4285,1.8537,1.6567,-0.31563,-0.64072,-0.26011,-0.11441
-0.0046182,-0.01219,0.032874,-0.091095,-0.0060732,0.092923,-0.015042,0.063432,0.021739,0.36937,0.43258,0.12809,0.010735,-0.0113,-0.016346,0.12491,0.27883,0.45204,1.8374,1.7275,-0.33238,-0.53965,-0.28041,-0.033568
-0.0071326,-0.014609,0.025022,-0.091957,-0.0096492,0.091171,-0.015007,0.053665,0.031817,0.41296,0.48292,0.20479,0.0066947,-0.024002,-0.010686,0.10357,0.29969,0.46677,1.8127,1.771,-0.34561,-0.383,-0.28397,-0.0039214
-0.010609,-0.014982,0.013971,-0.091487,-0.0082487,0.090849,-0.011943,0.042792,0.041515,0.45054,0.52318,0.27387,0.0020343,-0.030976,-0.0027581,0.081834,0.30437,0.4687,1.7667,1.7775,-0.3494,-0.17059,-0.26968,-0.028498
-0.014695,-0.011919,0.0070987,-0.085642,-0.0015147,0.093277,-0.0067797,0.031182,0.048023,0.47675,0.54329,0.33065,-0.0054194,-0.028705,0.0062969,0.062551,0.29335,0.45755,1.6879,1.7527,-0.33906,0.073826,-0.24242,-0.096159
-0.016512,-0.0081054,0.0095538,-0.073513,0.0071035,0.098171,-0.001548,0.021013,0.051696,0.48128,0.5404,0.37366,-0.015375,-0.019769,0.015417,0.046507,0.27172,0.43808,1.5805,1.7097,-0.31473,0.31252,-0.20988,-0.19065
-0.013827,-0.0073054,0.018534,-0.056588,0.013578,0.10416,0.0026253,0.014691,0.05538,0.45639,0.52061,0.40307,-0.02527,-0.010708,0.024647,0.03332,0.24685,0.41795,1.466,1.6563,-0.28145,0.50869,-0.17859,-0.2983
-0.00774,-0.010426,0.025197,-0.036555,0.016882,0.10956,0.0063492,0.012983,0.061641,0.4044,0.49441,0.41884,-0.032056,-0.0072041,0.035128,0.022531,0.2249,0.40328,1.3761,1.5906,-0.24591,0.63758,-0.1517,-0.40804
-0.0019541,-0.01469,0.022589,-0.014373,0.019524,0.11288,0.010908,0.014393,0.070624,0.33904,0.46952,0.41975,-0.033963,-0.010458,0.047983,0.014107,0.20847,0.39504,1.3408,1.5079,-0.21257,0.69002,-0.12929,-0.5072
0.00070014,-0.016574,0.01196,0.0085122,0.024582,0.11317,0.016555,0.016121,0.080541,0.27867,0.44692,0.40409,-0.03105,-0.017342,0.062979,0.0083627,0.19692,0.38939,1.3776,1.411,-0.18199,0.67099,-0.1101,-0.58201
0.00094293,-0.01534,0.001288,0.028749,0.032267,0.11032,0.02202,0.015663,0.090199,0.23556,0.42302,0.37167,-0.024649,-0.023644,0.078017,0.0057632,0.1884,0.3815,1.4858,1.3141,-0.15215,0.59703,-0.093115,-0.62628
0.0021484,-0.01349,-0.0024769,0.041924,0.039502,0.10525,0.02573,0.01181,0.10094,0.20929,0.39554,0.32591,-0.016596,-0.027371,0.089916,0.0067829,0.18173,0.3701,1.6463,1.2362,-0.1214,0.49283,-0.07825,-0.65063
0.006741,-0.013841,0.00016905,0.04568,0.042923,0.099825,0.027453,0.0046773,0.11592,0.19016,0.36734,0.27442,-0.0088446,-0.029499,0.095994,0.011603,0.17655,0.35891,1.8299,1.1905,-0.09062,0.38455,-0.0662,-0.68049
0.013526,-0.016381,0.0024565,0.042241,0.042213,0.096296,0.028566,-0.004795,0.13721,0.17047,0.34444,0.227,-0.0032825,-0.032058,0.09548,0.019536,0.17215,0.35409,2.0117,1.1803,-0.063241,0.28948,-0.057831,-0.73959
0.018686,-0.018296,-0.0013133,0.037415,0.040348,0.096461,0.030623,-0.015288,0.16342,0.15439,0.33009,0.19176,-0.0012668,-0.035666,0.089995,0.02858,0.1669,0.35972,2.182,1.2027,-0.043306,0.2077,-0.053434,-0.83024
0.019489,-0.01722,-0.0098127,0.036347,0.04051,0.10089,0.03368,-0.025446,0.19018,0.15719,0.32052,0.17146,-0.0029451,-0.038765,0.082862,0.035747,0.15929,0.37494,2.3476,1.2549,-0.03302,0.12358,-0.052168,-0.92703
0.016991,-0.014353,-0.016158,0.039647,0.042831,0.10863,0.036214,-0.03437,0.21304,0.19272,0.30668,0.16255,-0.0070027,-0.03904,0.077526,0.038341,0.14976,0.39455,2.5198,1.3354,-0.031486,0.019583,-0.052113,-0.99113
0.014984,-0.014011,-0.015209,0.043431,0.044271,0.1175,0.036829,-0.04217,0.23017,0.25848,0.28129,0.15765,-0.011352,-0.035539,0.075718,0.03549,0.14107,0.41214,2.7001,1.4381,-0.035434,-0.10622,-0.051101,-0.99486
0.01618,-0.019676,-0.0091448,0.043223,0.041725,0.12496,0.036088,-0.050014,0.24231,0.33106,0.24529,0.14997,-0.014448,-0.029555,0.076248,0.028723,0.13641,0.42333,2.8745,1.547,-0.041342,-0.23289,-0.047854,-0.93716
0.019445,-0.030214,-0.0055133,0.037905,0.035185,0.12909,0.036486,-0.059337,0.2503,0.37757,0.20827,0.13686,-0.016209,-0.023521,0.075353,0.02093,0.13639,0.427,3.0213,1.6391,-0.047365,-0.32738,-0.042576,-0.83891
0.02093,-0.040058,-0.0097096,0.029956,0.027837,0.12941,0.040378,-0.070668,0.25286,0.37547,0.18209,0.1201,-0.017748,-0.018998,0.068853,0.014283,0.13782,0.42441,3.1267,1.6964,-0.053693,-0.36611,-0.036343,-0.72442
0.018089,-0.043538,-0.019567,0.021946,0.023105,0.12686,0.047725,-0.083112,0.24703,0.32591,0.17249,0.10339,-0.020099,-0.015559,0.055083,0.0086537,0.13584,0.41755,3.1941,1.7169,-0.061228,-0.35048,-0.029598,-0.60603
0.012622,-0.039572,-0.0277,0.013063,0.02167,0.12313,0.05587,-0.095026,0.23121,0.2499,0.17514,0.089012,-0.023008,-0.011565,0.036554,0.0019088,0.12795,0.408,3.2397,1.7157,-0.069896,-0.30345,-0.020869,-0.48402
0.0092575,-0.032462,-0.02933,-0.00052683,0.021314,0.11947,0.061689,-0.10524,0.20786,0.17064,0.17878,0.076502,-0.024838,-0.0061318,0.018745,-0.0079661,0.11677,0.39691,3.2805,1.713,-0.078153,-0.25055,-0.0068962,-0.35795
0.011322,-0.028042,-0.027643,-0.021539,0.019477,0.1158,0.064257,-0.1136,0.18352,0.096059,0.17271,0.06389,-0.023759,-0.00046027,0.0064576,-0.020516,0.10893,0.38554,3.3235,1.7187,-0.084058,-0.20141,0.01554,-0.23583
0.017256,-0.028704,-0.031008,-0.047546,0.015779,0.11077,0.065622,-0.12036,0.16569,0.015564,0.1528,0.050322,-0.019311,0.0027973,0.00040284,-0.032279,0.11076,0.37525,3.3656,1.726,-0.086777,-0.1471,0.04701,-0.13109
0.021532,-0.031718,-0.044515,-0.071035,0.012016,0.10276,0.069011,-0.12511,0.15885,-0.087881,0.12215,0.037584,-0.013172,0.0017248,-0.0030492,-0.038786,0.12405,0.36667,3.4002,1.718,-0.086966,-0.073778,0.083824,-0.050423
0.019311,-0.032146,-0.064105,-0.083755,0.0099385,0.091222,0.076092,-0.12666,0.16212,-0.22149,0.086971,0.029178,-0.0084437,-0.0030409,-0.0084443,-0.037686,0.14509,0.35867,3.4225,1.6819,-0.08562,0.021071,0.11885,0.014779
0.01063,-0.027424,-0.079272,-0.081744,0.0092757,0.077436,0.085653,-0.12421,0.16945,-0.37607,0.051715,0.027643,-0.0078558,-0.008624,-0.016893,-0.030483,0.16753,0.3482,3.4281,1.6189,-0.082509,0.12408,0.14484,0.084097
0.00032989,-0.01944,-0.082086,-0.067065,0.0080676,0.063993,0.094645,-0.11873,0.17191,-0.5334,0.017087,0.032346,-0.012018,-0.01225,-0.024716,-0.021318,0.18674,0.33209,3.4084,1.5439,-0.075756,0.21578,0.15842,0.17306
-0.0061037,-0.012503,-0.074151,-0.045488,0.0048014,0.053259,0.10048,-0.11306,0.16113,-0.67918,-0.018453,0.039613,-0.018894,-0.013568,-0.02664,-0.013665,0.20245,0.30991,3.3493,1.476,-0.063108,0.28406,0.16214,0.27933
-0.0068978,-0.0094728,-0.065041,-0.022727,6.2641e-005,0.045782,0.10258,-0.11026,0.13294,-0.80922,-0.055885,0.045333,-0.024909,-0.014766,-0.020979,-0.007547,0.21791,0.28584,3.2379,1.4285,-0.043958,0.32907,0.1628,0.38099
-0.004729,-0.0097371,-0.063805,-0.002301,-0.0039485,0.039789,0.10228,-0.11154,0.090011,-0.92389,-0.094169,0.048166,-0.027058,-0.018232,-0.012099,0.0004633,0.23691,0.26757,3.0719,1.403,-0.020462,0.35698,0.16699,0.44863
-0.0035952,-0.010613,-0.071472,0.014266,-0.0054057,0.032249,0.10148,-0.1154,0.041569,-1.0171,-0.13099,0.050894,-0.024653,-0.023883,-0.0075492,0.014496,0.26062,0.26202,2.8646,1.3908,0.0031443,0.3711,0.17681,0.46271
-0.005113,-0.010362,-0.081201,0.026513,-0.0042828,0.020964,0.10165,-0.11873,-0.00081608,-1.0721,-0.16449,0.058618,-0.019553,-0.028727,-0.011967,0.036065,0.28636,0.27052,2.6409,1.3788,0.02262,0.36987,0.18903,0.42533
-0.0076656,-0.0096528,-0.085326,0.034934,-0.001948,0.0063197,0.10335,-0.11885,-0.029618,-1.0688,-0.19429,0.07477,-0.014732,-0.029247,-0.023016,0.062645,0.30874,0.28724,2.4274,1.3596,0.03577,0.35284,0.19811,0.35968
-0.008734,-0.010152,-0.082305,0.041438,0.00033531,-0.0085859,0.10631,-0.11484,-0.045703,-0.99939,-0.22123,0.097628,-0.012231,-0.024551,-0.033151,0.088969,0.32242,0.30247,2.2425,1.3401,0.043196,0.32712,0.20072,0.29914
-0.0076787,-0.011962,-0.077333,0.04888,0.0022653,-0.019767,0.10934,-0.10733,-0.056931,-0.8775,-0.24649,0.12002,-0.011986,-0.017423,-0.035964,0.10985,0.32541,0.30931,2.0938,1.3441,0.047435,0.3065,0.19802,0.27303
-0.006169,-0.012812,-0.076799,0.059125,0.0039391,-0.025107,0.11038,-0.097225,-0.071503,-0.73479,-0.27133,0.13292,-0.012295,-0.012277,-0.031738,0.12257,0.32108,0.30878,1.9814,1.4029,0.051307,0.30345,0.19406,0.29672
-0.0061557,-0.010086,-0.082454,0.071082,0.0048183,-0.026187,0.10722,-0.084605,-0.09119,-0.60547,-0.29721,0.13089,-0.011412,-0.011782,-0.027378,0.12755,0.31726,0.30958,1.904,1.5355,0.05669,0.32156,0.1921,0.36935
-0.0077866,-0.0037272,-0.090665,0.080808,0.003683,-0.027695,0.098751,-0.068694,-0.11016,-0.50989,-0.32581,0.1157,-0.0089204,-0.015087,-0.03072,0.12736,0.32222,0.32191,1.861,1.7303,0.064406,0.35535,0.19195,0.47801
-0.0094817,0.0030026,-0.096706,0.084115,-0.00017133,-0.034509,0.085814,-0.048748,-0.12059,-0.44798,-0.35798,0.095455,-0.005844,-0.019083,-0.044031,0.12492,0.33936,0.34966,1.8498,1.943,0.074792,0.39668,0.19059,0.60405
-0.0099042,0.0059935,-0.099232,0.07969,-0.0057664,-0.048386,0.070535,-0.025196,-0.12022,-0.40574,-0.3924,0.079625,-0.0035972,-0.021404,-0.06221,0.12196,0.36437,0.38662,1.8616,2.1162,0.088002,0.44082,0.1851,0.72793
-0.0095366,0.0038337,-0.10061,0.070025,-0.010705,-0.066804,0.054494,-0.00020682,-0.1149,-0.36889,-0.42546,0.073374,-0.0027505,-0.022465,-0.077045,0.11852,0.38734,0.41985,1.8784,2.2104,0.10351,0.48594,0.17512,0.83198
-0.010082,-0.00092753,-0.10342,0.059308,-0.012843,-0.085103,0.0374,0.022729,-0.11382,-0.3343,-0.45291,0.075214,-0.0026051,-0.024803,-0.083867,0.1138,0.39898,0.43779,1.8771,2.2224,0.11946,0.52747,0.1629,0.90242
-0.012355,-0.0040891,-0.10726,0.050187,-0.011902,-0.10041,0.017802,0.0401,-0.12141,-0.31308,-0.47267,0.0793,-0.0017729,-0.030409,-0.085144,0.1078,0.39615,0.43702,1.8383,2.1791,0.13284,0.55465,0.15137,0.93195
-0.015061,-0.0035645,-0.1092,0.042297,-0.0095648,-0.11408,-0.0045145,0.049906,-0.13351,-0.32492,-0.48643,0.07995,0.00078986,-0.038438,-0.088431,0.10264,0.38225,0.42269,1.7551,2.1095,0.14109,0.55464,0.1421,0.92219
-0.016011,-0.0010772,-0.10697,0.033698,-0.0080217,-0.13038,-0.026653,0.052511,-0.14129,-0.38787,-0.4988,0.074223,0.0050061,-0.045286,-0.10074,0.10216,0.36247,0.40257,1.6344,2.0185,0.14389,0.5222,0.13488,0.88335
-0.014696,-0.00024996,-0.10135,0.023595,-0.0082585,-0.15221,-0.043373,0.050174,-0.13953,-0.50795,-0.51469,0.060543,0.0095202,-0.04703,-0.12387,0.10976,0.33832,0.38015,1.4911,1.8825,0.14364,0.46638,0.12852,0.83002
-0.013506,-0.0030015,-0.095093,0.013556,-0.0094708,-0.1776,-0.050384,0.045502,-0.13154,-0.67209,-0.53712,0.035496,0.01215,-0.042347,-0.15377,0.12569,0.30688,0.35258,1.3368,1.6703,0.14395,0.40767,0.12178,0.77472
-0.015949,-0.0077021,-0.089988,0.0059934,-0.0098961,-0.20002,-0.047655,0.039924,-0.12644,-0.84728,-0.5668,-0.0068386,0.01079,-0.03366,-0.18366,0.14581,0.26529,0.31508,1.1731,1.3722,0.14706,0.3666,0.11348,0.72349
-0.023257,-0.010738,-0.085374,0.0014809,-0.0082399,-0.21263,-0.039904,0.033349,-0.13124,-0.98802,-0.60295,-0.070798,0.0044934,-0.025664,-0.20797,0.16272,0.21555,0.26733,0.9926,1.0131,0.15246,0.35251,0.10228,0.67655
-0.032594,-0.0098508,-0.079868,-0.0022693,-0.0045911,-0.21271,-0.033652,0.025146,-0.14503,-1.0511,-0.64388,-0.15306,-0.0057448,-0.022286,-0.2245,0.16869,0.1644,0.21567,0.78745,0.64166,0.15765,0.36028,0.087071,0.63316
-0.038898,-0.0060552,-0.074099,-0.0085017,-0.00026085,-0.20294,-0.032986,0.015449,-0.16042,-1.0118,-0.68643,-0.24032,-0.017149,-0.024238,-0.23419,0.15856,0.11764,0.1688,0.55856,0.3033,0.16061,0.37601,0.067897,0.59705
-0.038971,-0.0025197,-0.070875,-0.018232,0.0032363,-0.18876,-0.037173,0.0054531,-0.17061,-0.87193,-0.72536,-0.31429,-0.026496,-0.028793,-0.23946,0.13126,0.074808,0.13085,0.31789,0.019728,0.1617,0.38509,0.046465,0.5784
-0.034145,-0.0017229,-0.071937,-0.028857,0.0053206,-0.17435,-0.041653,-0.0035306,-0.17558,-0.65387,-0.75408,-0.36132,-0.031971,-0.031774,-0.24224,0.089934,0.030058,0.098276,0.083348,-0.21203,0.16342,0.37603,0.025265,0.59143
-0.028973,-0.0036307,-0.074546,-0.036072,0.0067912,-0.16061,-0.041351,-0.011214,-0.18186,-0.38409,-0.76719,-0.37968,-0.034236,-0.030243,-0.24267,0.041012,-0.020512,0.063718,-0.1295,-0.40264,0.16802,0.33959,0.0056588,0.64871
-0.027068,-0.0063062,-0.072169,-0.037482,0.0091659,-0.14565,-0.033772,-0.018381,-0.19639,-0.079361,-0.76293,-0.37876,-0.035737,-0.024035,-0.23867,-0.0075608,-0.071793,0.023525,-0.31279,-0.55151,0.17457,0.26889,-0.013472,0.75413
-0.027946,-0.0078989,-0.059809,-0.034577,0.013262,-0.12638,-0.020071,-0.025728,-0.2199,0.25298,-0.74386,-0.37138,-0.038674,-0.015318,-0.22682,-0.04874,-0.11016,-0.017834,-0.46658,-0.64216,0.17783,0.1647,-0.035053,0.89633
-0.027854,-0.0079063,-0.039533,-0.031224,0.018052,-0.099394,-0.0039658,-0.032733,-0.24533,0.6014,-0.71487,-0.36555,-0.043335,-0.006892,-0.20458,-0.078919,-0.12246,-0.050676,-0.59611,-0.65627,0.16995,0.042975,-0.0612,1.0455
-0.02376,-0.0068359,-0.020545,-0.03008,0.020852,-0.061392,0.01033,-0.037857,-0.26223,0.93729,-0.68026,-0.36234,-0.048297,-0.00066532,-0.17244,-0.099064,-0.10656,-0.068241,-0.70977,-0.59609,0.14427,-0.064235,-0.090462,1.1587
-0.016618,-0.005286,-0.012602,-0.0303,0.01901,-0.010592,0.020025,-0.039948,-0.26318,1.218,-0.64181,-0.36008,-0.052328,0.0026878,-0.1346,-0.11324,-0.074841,-0.073484,-0.81883,-0.49674,0.099159,-0.12009,-0.11711,1.1951
-0.010716,-0.0038417,-0.017854,-0.028655,0.012039,0.050737,0.024915,-0.03941,-0.24747,1.407,-0.59871,-0.35953,-0.056053,0.0031316,-0.097235,-0.12508,-0.047234,-0.078927,-0.93635,-0.41556,0.039547,-0.10153,-0.13339,1.137
-0.0096839,-0.0037141,-0.028346,-0.022927,0.002573,0.11456,0.027527,-0.037854,-0.21987,1.495,-0.5487,-0.36423,-0.061491,0.00073988,-0.065357,-0.13477,-0.039151,-0.099287,-1.0727,-0.40092,-0.024805,-0.012072,-0.13351,1.0037
-0.013009,-0.0066696,-0.031923,-0.014365,-0.0047742,0.16881,0.03193,-0.036594,-0.1865,1.5036,-0.48903,-0.37561,-0.069571,-0.0040925,-0.04048,-0.13905,-0.052827,-0.14188,-1.2286,-0.45993,-0.08342,0.12153,-0.11698,0.84475
-0.016439,-0.013402,-0.021967,-0.0069067,-0.006098,0.20279,0.041343,-0.035631,-0.15131,1.4668,-0.41663,-0.38808,-0.078023,-0.010083,-0.020808,-0.13453,-0.077647,-0.20121,-1.3908,-0.54893,-0.12926,0.26607,-0.088863,0.71454
-0.0159,-0.021663,-0.0027411,-0.0039229,-0.00066791,0.21316,0.055644,-0.034307,-0.11546,1.4053,-0.3281,-0.39001,-0.082109,-0.01514,-0.0034528,-0.12146,-0.098015,-0.26112,-1.5346,-0.59819,-0.16076,0.39897,-0.056824,0.6411
-0.011176,-0.026612,0.014244,-0.005442,0.0085347,0.20608,0.070616,-0.032885,-0.078972,1.3164,-0.22055,-0.37118,-0.078104,-0.017513,0.013303,-0.10459,-0.10262,-0.30305,-1.6355,-0.55803,-0.18087,0.51278,-0.026706,0.61236
-0.0058819,-0.024167,0.019706,-0.0082712,0.016664,0.19373,0.080046,-0.033096,-0.042649,1.1872,-0.093527,-0.33102,-0.066578,-0.017179,0.029343,-0.089929,-0.08948,-0.31539,-1.6814,-0.43537,-0.19428,0.60644,0.00042417,0.5891
-0.0038098,-0.014909,0.013793,-0.0087789,0.020062,0.18725,0.079713,-0.036517,-0.0085346,1.0187,0.049049,-0.28052,-0.052252,-0.016004,0.043518,-0.080245,-0.065052,-0.29871,-1.679,-0.29336,-0.20441,0.67401,0.027777,0.53512
-0.0051932,-0.0047184,0.0050843,-0.0058421,0.018457,0.19101,0.070399,-0.041949,0.02105,0.83774,0.1986,-0.23561,-0.040203,-0.016137,0.054488,-0.0732,-0.039763,-0.26433,-1.6491,-0.21235,-0.21188,0.70295,0.059271,0.44184
-0.0064226,-0.00078644,0.0027335,-0.0015052,0.014764,0.20183,0.057391,-0.044427,0.04464,0.68551,0.34411,-0.20636,-0.031796,-0.01782,0.060736,-0.064138,-0.02313,-0.22772,-1.6155,-0.23929,-0.2147,0.68377,0.095391,0.33081
-0.0034631,-0.0059812,0.0088827,0.00099881,0.012638,0.21301,0.046558,-0.037416,0.06194,0.59161,0.47579,-0.19008,-0.024296,-0.018664,0.060533,-0.051249,-0.020597,-0.20089,-1.594,-0.36125,-0.20978,0.62193,0.13145,0.23607
0.0042162,-0.016479,0.017743,1.4572e-005,0.013628,0.21967,0.04001,-0.016951,0.073482,0.55445,0.58806,-0.17344,-0.014645,-0.015416,0.053274,-0.038617,-0.032475,-0.18798,-1.5886,-0.52017,-0.19486,0.54087,0.15955,0.18333
0.012799,-0.024923,0.021458,-0.0033065,0.016138,0.22138,0.034832,0.015523,0.080504,0.54348,0.67971,-0.14208,-0.003711,-0.0069659,0.042037,-0.034239,-0.05465,-0.18591,-1.593,-0.6553,-0.17006,0.47298,0.17304,0.18129
0.017113,-0.026399,0.016961,-0.0061665,0.017037,0.2207,0.025871,0.053972,0.08542,0.52034,0.75126,-0.090585,0.0035062,0.0039888,0.034928,-0.04428,-0.080633,-0.18835,-1.5954,-0.74145,-0.1383,0.44498,0.17048,0.22632
0.014812,-0.022007,0.0077309,-0.0065094,0.014519,0.2195,0.010065,0.091557,0.092084,0.46149,0.80183,-0.025718,0.0024568,0.012327,0.042443,-0.068055,-0.10437,-0.18971,-1.581,-0.79925,-0.10424,0.46707,0.15647,0.30991
0.0081465,-0.017139,-0.00043039,-0.0045915,0.0097454,0.21643,-0.011428,0.12415,0.10463,0.36643,0.82812,0.039225,-0.0057226,0.014161,0.071009,-0.097691,-0.12264,-0.18685,-1.5346,-0.87616,-0.072202,0.53125,0.13885,0.41917
0.0019787,-0.016501,-0.0049761,-0.0025366,0.0057463,0.20768,-0.034972,0.15083,0.12477,0.24833,0.82615,0.09448,-0.013545,0.0099804,0.11688,-0.12276,-0.13586,-0.17846,-1.4459,-1.0158,-0.044171,0.61727,0.12414,0.53243
-0.00010638,-0.020581,-0.0081939,-0.0024157,0.0045251,0.1901,-0.058124,0.17161,0.14925,0.1181,0.79425,0.1405,-0.012318,0.0047699,0.16576,-0.13638,-0.14672,-0.16412,-1.3155,-1.2345,-0.019289,0.70167,0.11423,0.61964
0.0017442,-0.026358,-0.013813,-0.0045298,0.0049643,0.16387,-0.081684,0.18536,0.17012,-0.024301,0.73461,0.18601,0.0011264,0.004822,0.20003,-0.13851,-0.15766,-0.14463,-1.1578,-1.5132,0.0048162,0.76601,0.10634,0.65365
0.0044699,-0.030726,-0.022542,-0.00727,0.003533,0.13241,-0.10827,0.19036,0.17856,-0.1858,0.65253,0.23867,0.022013,0.013453,0.20918,-0.13462,-0.16883,-0.12308,-0.99544,-1.8032,0.029642,0.80161,0.095948,0.62663
0.0051192,-0.032797,-0.031086,-0.0085442,-0.0026965,0.099914,-0.13905,0.18699,0.17031,-0.36939,0.55446,0.29588,0.041577,0.028611,0.1959,-0.13153,-0.17786,-0.10486,-0.8487,-2.0414,0.053922,0.80935,0.08041,0.55845
0.0032444,-0.033096,-0.035301,-0.0075271,-0.013344,0.068807,-0.17189,0.17936,0.14856,-0.56726,0.44659,0.34326,0.053745,0.044015,0.17317,-0.13352,-0.18161,-0.095358,-0.7267,-2.1695,0.073462,0.79438,0.06069,0.48899
0.00069364,-0.031324,-0.033922,-0.0053512,-0.024728,0.039418,-0.20273,0.17343,0.12158,-0.76408,0.33452,0.3632,0.058688,0.053025,0.1545,-0.14104,-0.1782,-0.096305,-0.62769,-2.1534,0.08286,0.7593,0.04018,0.45841
-0.00063807,-0.025848,-0.029098,-0.0042848,-0.032584,0.011818,-0.22856,0.17259,0.096456,-0.94658,0.22274,0.34749,0.06063,0.052649,0.14517,-0.15165,-0.16822,-0.10375,-0.5474,-1.9931,0.078369,0.70148,0.021913,0.48828
-0.00071044,-0.015934,-0.023555,-0.0060777,-0.035104,-0.012155,-0.24885,0.17476,0.073661,-1.1104,0.11352,0.30419,0.062719,0.045115,0.14118,-0.16172,-0.15421,-0.10965,-0.48707,-1.7178,0.060733,0.61829,0.006506,0.57413
-0.0010382,-0.0042694,-0.017788,-0.010655,-0.033719,-0.028753,-0.26399,0.17399,0.046856,-1.2573,0.0064729,0.25284,0.064096,0.036088,0.13578,-0.16757,-0.13927,-0.10652,-0.45378,-1.37,0.03675,0.51675,-0.0076042,0.69047
-0.0026357,0.0034749,-0.010331,-0.016004,-0.031221,-0.034123,-0.2724,0.16585,0.0081612,-1.3848,-0.099321,0.2112,0.061639,0.030856,0.12707,-0.16634,-0.12583,-0.092096,-0.45327,-0.98924,0.018378,0.41829,-0.022078,0.80231
-0.004432,0.0024881,-0.00057296,-0.019302,-0.029163,-0.026377,-0.26981,0.15182,-0.045223,-1.4768,-0.20081,0.18333,0.054088,0.031045,0.11966,-0.15704,-0.11518,-0.070611,-0.48258,-0.60614,0.018785,0.3506,-0.036698,0.87673
-0.0038933,-0.0071207,0.0093064,-0.01863,-0.026957,-0.0062961,-0.25203,0.1386,-0.10804,-1.5036,-0.28806,0.15824,0.044164,0.033981,0.11928,-0.14163,-0.10749,-0.049755,-0.52975,-0.24669,0.046294,0.32953,-0.049143,0.89194
0.00067663,-0.019923,0.015709,-0.014215,-0.023248,0.023257,-0.21922,0.13249,-0.16943,-1.4356,-0.34707,0.11957,0.03662,0.03495,0.126,-0.12497,-0.1018,-0.035592,-0.58003,0.062526,0.099155,0.34375,-0.056527,0.84326
0.0084189,-0.029127,0.017013,-0.008367,-0.017973,0.057921,-0.17795,0.13341,-0.21836,-1.2619,-0.3684,0.058459,0.034286,0.030702,0.13286,-0.11278,-0.09623,-0.029093,-0.62243,0.29707,0.16476,0.35615,-0.057276,0.74332
0.016474,-0.031569,0.015316,-0.0039773,-0.012981,0.091574,-0.13879,0.13423,-0.24787,-1.0045,-0.35579,-0.020314,0.035948,0.021775,0.13154,-0.10846,-0.088634,-0.026611,-0.65084,0.44463,0.22495,0.32347,-0.05197,0.61369
0.022209,-0.029427,0.014433,-0.0025028,-0.010596,0.11594,-0.11098,0.12608,-0.25607,-0.71694,-0.32722,-0.10218,0.037876,0.01207,0.11988,-0.11069,-0.078093,-0.023602,-0.66061,0.51243,0.26504,0.2216,-0.043001,0.46949
0.024898,-0.027379,0.016004,-0.0029158,-0.011478,0.12156,-0.097817,0.10584,-0.2449,-0.46492,-0.30586,-0.17182,0.037236,0.0059622,0.10428,-0.11402,-0.066157,-0.018419,-0.64555,0.52408,0.28092,0.058718,-0.033882,0.30623
0.025381,-0.028017,0.01766,-0.0025745,-0.013772,0.10065,-0.09582,0.079376,-0.21866,-0.29884,-0.30664,-0.2194,0.034126,0.0049266,0.094532,-0.11241,-0.056468,-0.013077,-0.599,0.50766,0.2796,-0.13204,-0.028851,0.10058
0.024463,-0.029678,0.01526,0.00049953,-0.014355,0.050531,-0.097807,0.057956,-0.18331,-0.2329,-0.32838,-0.24063,0.03063,0.0060597,0.095758,-0.10337,-0.052391,-0.010327,-0.51732,0.48484,0.27285,-0.31258,-0.032412,-0.17177
0.02204,-0.028382,0.0070663,0.0057342,-0.011252,-0.024473,-0.097544,0.05059,-0.14591,-0.24526,-0.35765,-0.23391,0.028223,0.0037111,0.10458,-0.089631,-0.054253,-0.0095517,-0.40191,0.46826,0.26898,-0.45658,-0.048122,-0.51147
0.017916,-0.021772,-0.0042227,0.010178,-0.0053716,-0.11387,-0.092959,0.058293,-0.1134,-0.30003,-0.38125,-0.20007,0.026202,-0.0066478,0.11258,-0.077093,-0.058681,-0.0052885,-0.25839,0.46515,0.26887,-0.55279,-0.076746,-0.88222
0.013089,-0.011404,-0.013605,0.010764,-0.00028082,-0.20414,-0.086299,0.074169,-0.090987,-0.37541,-0.39736,-0.14584,0.022464,-0.024874,0.11354,-0.070604,-0.061041,0.0095237,-0.095527,0.47865,0.26853,-0.59817,-0.11506,-1.2203
0.009645,-0.0015987,-0.017961,0.0069102,-0.00018375,-0.2826,-0.081577,0.088279,-0.081067,-0.47586,-0.41667,-0.086456,0.01563,-0.045483,0.10785,-0.070854,-0.059149,0.037398,0.07396,0.50321,0.26529,-0.59261,-0.15665,-1.4616
0.0089811,0.0038118,-0.018284,0.0012927,-0.0074196,-0.3404,-0.081229,0.09282,-0.082808,-0.61689,-0.45307,-0.041914,0.0064403,-0.060558,0.10047,-0.074585,-0.054873,0.072103,0.23277,0.5198,0.26173,-0.54296,-0.19459,-1.5688
0.010265,0.0039313,-0.018018,-0.0018849,-0.021033,-0.3739,-0.084162,0.084004,-0.091933,-0.79369,-0.51164,-0.02708,-0.0026919,-0.064417,0.095074,-0.077527,-0.051905,0.10069,0.36333,0.50085,0.26431,-0.47165,-0.22432,-1.5421
0.011063,0.00073278,-0.019443,0.00023253,-0.03721,-0.38415,-0.086435,0.060826,-0.10065,-0.95995,-0.58315,-0.042625,-0.0093354,-0.056902,0.090348,-0.077255,-0.051513,0.11154,0.45756,0.4265,0.27823,-0.41816,-0.24489,-1.4107
0.0098421,-0.0029421,-0.021805,0.0073987,-0.051226,-0.37495,-0.084021,0.023558,-0.099014,-1.0379,-0.64858,-0.074672,-0.012426,-0.043162,0.081751,-0.073648,-0.05025,0.10292,0.52559,0.30103,0.30299,-0.42581,-0.25813,-1.2176
0.0078161,-0.0054353,-0.022846,0.016917,-0.059707,-0.35032,-0.075633,-0.025913,-0.078783,-0.95606,-0.68971,-0.10444,-0.012502,-0.030348,0.06681,-0.067135,-0.042035,0.085372,0.59389,0.15453,0.33216,-0.52024,-0.26717,-1.0074
0.0080338,-0.0069875,-0.021858,0.026012,-0.061968,-0.31284,-0.063583,-0.082743,-0.038641,-0.68955,-0.6978,-0.12073,-0.01105,-0.023732,0.048593,-0.057059,-0.023028,0.074989,0.69086,0.025424,0.35707,-0.695,-0.27561,-0.82216
0.012385,-0.0090294,-0.020888,0.033947,-0.059858,-0.26406,-0.052167,-0.13932,0.013189,-0.27535,-0.67567,-0.12557,-0.0097503,-0.024794,0.033979,-0.042237,0.0049827,0.082086,0.82889,-0.063351,0.37134,-0.9171,-0.28758,-0.69621
0.019495,-0.012834,-0.02283,0.042293,-0.056399,-0.20663,-0.044978,-0.188,0.062242,0.20557,-0.6334,-0.12879,-0.010069,-0.031905,0.028354,-0.023366,0.035678,0.10364,0.99654,-0.11512,0.3737,-1.1502,-0.30728,-0.64696
0.025724,-0.018393,-0.028408,0.053322,-0.054112,-0.14667,-0.043229,-0.22446,0.096192,0.66504,-0.58203,-0.13671,-0.013057,-0.04224,0.031519,-0.0047669,0.062615,0.12536,1.1673,-0.14846,0.3679,-1.3793,-0.33714,-0.66469
0.028348,-0.024093,-0.035197,0.067904,-0.0539,-0.093645,-0.045985,-0.24862,0.11261,1.0408,-0.52918,-0.14463,-0.019091,-0.05312,0.038213,0.00682,0.082784,0.1318,1.3172,-0.17488,0.36052,-1.6175,-0.37547,-0.71266
0.027732,-0.027448,-0.03973,0.084479,-0.054968,-0.057172,-0.051492,-0.26226,0.11992,1.3114,-0.47816,-0.13922,-0.027616,-0.06219,0.042302,0.0062029,0.096294,0.11672,1.4375,-0.18583,0.35781,-1.8896,-0.41572,-0.74277
0.02633,-0.026602,-0.040557,0.099709,-0.055728,-0.042095,-0.058099,-0.26581,0.13037,1.4923,-0.4296,-0.10891,-0.037175,-0.067246,0.040682,-0.0063552,0.10324,0.08597,1.5333,-0.16094,0.36254,-2.2036,-0.44861,-0.71964
0.025709,-0.02175,-0.03921,0.1102,-0.055111,-0.04535,-0.064139,-0.25796,0.15046,1.6197,-0.38402,-0.053811,-0.045935,-0.066708,0.03384,-0.024465,0.10181,0.051889,1.6122,-0.089982,0.37232,-2.5299,-0.46636,-0.63743
0.024895,-0.015391,-0.038225,0.11414,-0.053401,-0.057272,-0.067529,-0.23868,0.17659,1.7285,-0.34363,0.012234,-0.052464,-0.060676,0.023527,-0.039096,0.090178,0.024405,1.6749,0.011581,0.38055,-2.8063,-0.466,-0.51866
0.021907,-0.011028,-0.038407,0.11206,-0.051946,-0.067076,-0.066165,-0.21297,0.19909,1.833,-0.31209,0.068618,-0.056363,-0.051469,0.01042,-0.044035,0.070668,0.0061458,1.7157,0.10737,0.38022,-2.9644,-0.44967,-0.39805
0.016827,-0.011114,-0.038276,0.10641,-0.051862,-0.069061,-0.059187,-0.19106,0.21098,1.9168,-0.29234,0.098636,-0.058428,-0.042699,-0.0059972,-0.039601,0.05128,-0.0059198,1.7295,0.16094,0.36834,-2.9642,-0.42197,-0.30499
0.01279,-0.015699,-0.03635,0.10047,-0.052789,-0.065283,-0.047978,-0.18404,0.21338,1.9426,-0.28387,0.096612,-0.060312,-0.037225,-0.025799,-0.032101,0.041888,-0.015474,1.7167,0.15465,0.34777,-2.8151,-0.38693,-0.25673
0.013318,-0.022641,-0.033827,0.096776,-0.052937,-0.062873,-0.035727,-0.19778,0.21344,1.8774,-0.28259,0.06786,-0.063812,-0.035405,-0.047392,-0.029521,0.047188,-0.02375,1.6807,0.092071,0.32436,-2.5716,-0.34706,-0.26308
0.018397,-0.029012,-0.034577,0.096099,-0.050651,-0.068085,-0.025585,-0.22969,0.21688,1.7191,-0.28428,0.023317,-0.069919,-0.035044,-0.068069,-0.036483,0.062234,-0.03056,1.622,-0.014822,0.30131,-2.3066,-0.30486,-0.33288
0.023516,-0.032592,-0.041894,0.0974,-0.046251,-0.081443,-0.018795,-0.27015,0.22244,1.5032,-0.28951,-0.026333,-0.077862,-0.033117,-0.085618,-0.051852,0.074785,-0.037106,1.5367,-0.15898,0.27537,-2.0776,-0.26448,-0.47253
0.023323,-0.032643,-0.054865,0.099165,-0.042319,-0.097262,-0.014303,-0.30694,0.22322,1.2821,-0.30517,-0.073537,-0.084615,-0.028025,-0.099209,-0.070316,0.073135,-0.046706,1.4222,-0.33914,0.23855,-1.9042,-0.23126,-0.67542
0.01681,-0.02995,-0.068011,0.1013,-0.041766,-0.10721,-0.01013,-0.32932,0.21356,1.0923,-0.33914,-0.1138,-0.085522,-0.020651,-0.10878,-0.086385,0.053602,-0.062209,1.2847,-0.54915,0.18442,-1.7675,-0.20861,-0.91255
0.008943,-0.026453,-0.075094,0.10598,-0.045132,-0.10458,-0.0052659,-0.32992,0.19527,0.93481,-0.39074,-0.14506,-0.076308,-0.01335,-0.11395,-0.097692,0.022215,-0.082765,1.1393,-0.76872,0.11399,-1.6295,-0.19458,-1.1364
0.0066127,-0.024555,-0.074003,0.11626,-0.049549,-0.086166,-0.00040148,-0.30547,0.17776,0.78535,-0.44441,-0.16803,-0.055737,-0.0075576,-0.11391,-0.10531,-0.01003,-0.10352,1.0014,-0.96723,0.03595,-1.4581,-0.18145,-1.3016
0.012272,-0.026078,-0.068345,0.13297,-0.050604,-0.051141,0.0030901,-0.2576,0.17202,0.62379,-0.47325,-0.18645,-0.027176,-0.0019258,-0.10853,-0.11131,-0.034218,-0.11907,0.87489,-1.1194,-0.039107,-1.2405,-0.15953,-1.392
0.021156,-0.031161,-0.064199,0.15227,-0.045701,0.00049452,0.0049248,-0.19337,0.18379,0.45686,-0.45182,-0.20491,0.0025579,0.0072314,-0.099437,-0.116,-0.047783,-0.12759,0.74932,-1.2195,-0.10557,-0.97804,-0.12288,-1.4337
0.024989,-0.037901,-0.064891,0.16653,-0.036066,0.067551,0.0066761,-0.12386,0.21083,0.3145,-0.36994,-0.22434,0.026988,0.023052,-0.089269,-0.11707,-0.05387,-0.13191,0.6092,-1.2812,-0.16489,-0.6715,-0.073143,-1.4798
0.019102,-0.043264,-0.068542,0.16863,-0.025568,0.14527,0.010682,-0.059988,0.24567,0.2247,-0.2378,-0.23829,0.044054,0.044854,-0.079543,-0.11133,-0.057472,-0.1365,0.44816,-1.3233,-0.22128,-0.31307,-0.018719,-1.5724
0.0065944,-0.044781,-0.070536,0.15701,-0.017456,0.22351,0.017983,-0.0078993,0.28038,0.19014,-0.078747,-0.23462,0.057283,0.067402,-0.068846,-0.097227,-0.061658,-0.14338,0.27588,-1.3534,-0.27519,0.1048,0.030125,-1.7058
-0.0042404,-0.04183,-0.06833,0.13704,-0.012002,0.28829,0.027208,0.03278,0.30935,0.18621,0.084152,-0.20299,0.07267,0.08399,-0.053353,-0.076108,-0.066236,-0.15089,0.11127,-1.3633,-0.32061,0.56873,0.066737,-1.8203
-0.006905,-0.035624,-0.063872,0.11732,-0.0071352,0.32681,0.035582,0.06615,0.32911,0.178,0.23785,-0.14365,0.093312,0.091358,-0.029652,-0.051489,-0.06905,-0.15621,-0.032342,-1.3402,-0.34864,1.0302,0.090717,-1.8364
-0.0018715,-0.02819,-0.06131,0.10307,-0.0012603,0.33324,0.041285,0.095088,0.33694,0.13674,0.37931,-0.069733,0.11606,0.092373,0.002271,-0.027355,-0.068487,-0.15898,-0.15702,-1.2831,-0.3537,1.4145,0.10669,-1.7083
0.004449,-0.021372,-0.062486,0.092117,0.0046869,0.31146,0.045042,0.1185,0.3309,0.040041,0.50801,0.00013024,0.13321,0.093725,0.038306,-0.0068589,-0.065278,-0.16202,-0.27617,-1.208,-0.33716,1.6524,0.12088,-1.4601
0.0056198,-0.016468,-0.06493,0.076894,0.0080836,0.27292,0.049377,0.13306,0.31131,-0.13913,0.6189,0.054568,0.1383,0.10003,0.072268,0.0081165,-0.06229,-0.1681,-0.40069,-1.1381,-0.30556,1.7173,0.13793,-1.1737
0.00046464,-0.014139,-0.064525,0.051366,0.0075582,0.231,0.056138,0.13735,0.28181,-0.43524,0.70217,0.097543,0.13124,0.10908,0.098952,0.017055,-0.062409,-0.17606,-0.52794,-1.0865,-0.26606,1.6436,0.15944,-0.93621
-0.0067355,-0.014006,-0.060128,0.01714,0.0050202,0.19517,0.064602,0.13388,0.2483,-0.87165,0.74961,0.14443,0.11861,0.11234,0.11586,0.020983,-0.066141,-0.18025,-0.64423,-1.0473,-0.22323,1.5126,0.18406,-0.78465
-0.010669,-0.014266,-0.055268,-0.016543,0.0045469,0.16804,0.072087,0.12677,0.21594,-1.4304,0.7612,0.20806,0.10867,0.1005,0.12281,0.022359,-0.071065,-0.17483,-0.73857,-1.0046,-0.17906,1.4132,0.20815,-0.68781
-0.009595,-0.01234,-0.05489,-0.039408,0.0089307,0.14613,0.076661,0.11733,0.18679,-2.0368,0.74572,0.2855,0.10509,0.069797,0.12065,0.024079,-0.073964,-0.15954,-0.81542,-0.95206,-0.13454,1.3982,0.22676,-0.57958
-0.0061443,-0.0068679,-0.060251,-0.048189,0.017049,0.12346,0.079388,0.10259,0.15996,-2.5792,0.71427,0.3565,0.10469,0.024211,0.11074,0.027851,-0.074146,-0.14196,-0.89429,-0.90551,-0.090169,1.4609,0.23495,-0.41696
-0.0043201,0.00039455,-0.067212,-0.049502,0.024578,0.095544,0.083726,0.079051,0.134,-2.9587,0.67232,0.39543,0.10075,-0.027234,0.095481,0.033186,-0.075027,-0.13376,-0.9962,-0.89556,-0.045683,1.5435,0.22928,-0.21849
-0.0060431,0.0050266,-0.069957,-0.055116,0.027524,0.061872,0.092247,0.04856,0.10918,-3.1373,0.6174,0.38774,0.088948,-0.075181,0.078782,0.038031,-0.082214,-0.14333,-1.1283,-0.9422,-0.00065676,1.5727,0.20881,-0.054039
-0.010321,0.0032496,-0.066655,-0.07346,0.025471,0.025875,0.10353,0.020207,0.087164,-3.153,0.5448,0.33784,0.070915,-0.11276,0.06509,0.040678,-0.099176,-0.17004,-1.2799,-1.0315,0.043286,1.5025,0.17506,0.0052344
-0.015047,-0.0043494,-0.061378,-0.10424,0.021709,-0.0073161,0.11229,0.0051055,0.068417,-3.0878,0.45698,0.26292,0.052814,-0.13537,0.057368,0.041288,-0.1238,-0.20379,-1.4315,-1.1149,0.080988,1.3413,0.13098,-0.061848
-0.01898,-0.012305,-0.060078,-0.14011,0.020241,-0.033925,0.11303,0.0075692,0.049791,-3.0103,0.36817,0.17864,0.040546,-0.1394,0.055578,0.041699,-0.14855,-0.23014,-1.5687,-1.1347,0.10587,1.1471,0.07985,-0.21216
-0.02192,-0.01419,-0.064356,-0.17332,0.022348,-0.053535,0.10447,0.020285,0.025272,-2.9309,0.2997,0.088991,0.035795,-0.12226,0.056989,0.043817,-0.16422,-0.23718,-1.6888,-1.0593,0.11515,0.99381,0.025037,-0.36999
-0.023566,-0.0080041,-0.069216,-0.20115,0.025653,-0.068921,0.090882,0.02846,-0.0099072,-2.7997,0.26881,-0.012016,0.035814,-0.08425,0.058003,0.048273,-0.16443,-0.22049,-1.7943,-0.90219,0.11358,0.92762,-0.029571,-0.47876
-0.022999,0.0018208,-0.067304,-0.22573,0.02634,-0.084049,0.079134,0.020373,-0.054792,-2.5483,0.27928,-0.12992,0.036424,-0.030497,0.056003,0.054715,-0.14823,-0.18416,-1.8848,-0.71004,0.111,0.94194,-0.079326,-0.53337
-0.019714,0.0079899,-0.055852,-0.24909,0.022509,-0.10176,0.073739,-0.0039836,-0.10183,-2.1439,0.32087,-0.26098,0.035227,0.029038,0.050048,0.063425,-0.11981,-0.13815,-1.9532,-0.52975,0.1142,0.98575,-0.11948,-0.57047
-0.014977,0.0066227,-0.039693,-0.26862,0.015829,-0.12274,0.073894,-0.033178,-0.14099,-1.6183,0.37681,-0.39251,0.032484,0.08198,0.040572,0.076535,-0.086433,-0.093909,-1.9935,-0.37916,0.11977,0.99956,-0.14649,-0.62782
-0.01157,0.00065289,-0.027326,-0.27753,0.010252,-0.14605,0.074736,-0.053164,-0.16617,-1.0512,0.43288,-0.51092,0.029589,0.11744,0.028973,0.097337,-0.056295,-0.060124,-2.0098,-0.24176,0.11479,0.9526,-0.15882,-0.70715
-0.01174,-0.0028122,-0.023605,-0.2699,0.0089578,-0.17055,0.071446,-0.057361,-0.17906,-0.52446,0.48115,-0.60903,0.027074,0.12974,0.017443,0.12791,-0.036773,-0.040499,-2.0184,-0.08547,0.086465,0.85469,-0.15673,-0.77053
-0.015293,0.0011273,-0.025839,-0.24594,0.012013,-0.19588,0.062631,-0.050132,-0.18734,-0.083394,0.5171,-0.68618,0.024061,0.12057,0.0084883,0.16683,-0.032749,-0.034294,-2.0396,0.11241,0.033505,0.73656,-0.14117,-0.7721
-0.019876,0.010745,-0.026856,-0.21295,0.016429,-0.2227,0.050354,-0.041832,-0.19892,0.26589,0.53457,-0.74223,0.019329,0.098293,0.0037039,0.20872,-0.045063,-0.038908,-2.0854,0.35344,-0.030388,0.61747,-0.1134,-0.69884
-0.023272,0.01909,-0.02196,-0.18107,0.018332,-0.25227,0.037349,-0.040521,-0.21642,0.52623,0.52405,-0.77227,0.012686,0.074392,0.002473,0.24599,-0.070018,-0.052365,-2.1542,0.62434,-0.084802,0.48867,-0.075749,-0.58766
-0.025339,0.019781,-0.013145,-0.15752,0.015467,-0.28567,0.024364,-0.047387,-0.23612,0.67878,0.47563,-0.76777,0.0052782,0.058229,0.0020149,0.2715,-0.10093,-0.073597,-2.2366,0.91065,-0.11687,0.32591,-0.033034,-0.50574
-0.027578,0.01197,-0.0067298,-0.1438,0.0083146,-0.32265,0.010147,-0.058721,-0.25143,0.68435,0.38404,-0.72314,-0.0013037,0.052902,-0.00067825,0.28037,-0.13139,-0.10051,-2.3243,1.2036,-0.13047,0.11795,0.0073778,-0.5098
-0.03087,0.00038864,-0.006946,-0.13744,-0.00060258,-0.36052,-0.0061922,-0.071374,-0.25781,0.52093,0.25205,-0.6421,-0.0061461,0.054717,-0.0063979,0.27051,-0.1582,-0.12823,-2.4151,1.4959,-0.14295,-0.1168,0.038021,-0.61409
-0.033897,-0.0089801,-0.011716,-0.13635,-0.008378,-0.39402,-0.023028,-0.086172,-0.25563,0.22606,0.090521,-0.53904,-0.009358,0.056552,-0.013076,0.24228,-0.18186,-0.15017,-2.508,1.7748,-0.17194,-0.34224,0.055262,-0.78715
-0.034065,-0.013372,-0.014468,-0.14176,-0.013151,-0.41736,-0.03664,-0.10644,-0.24969,-0.096768,-0.084519,-0.43522,-0.01154,0.052578,-0.017862,0.19842,-0.20433,-0.16194,-2.5963,2.0215,-0.22243,-0.53525,0.061699,-0.97423
-0.030015,-0.014143,-0.0099141,-0.15764,-0.014671,-0.42804,-0.043933,-0.13342,-0.24654,-0.32295,-0.25648,-0.35266,-0.013101,0.040981,-0.020199,0.14424,-0.22574,-0.16483,-2.6659,2.2181,-0.28388,-0.70638,0.064396,-1.1249
-0.023082,-0.014118,0.0018646,-0.18721,-0.014046,-0.42997,-0.044836,-0.16278,-0.25159,-0.37587,-0.41347,-0.30847,-0.014127,0.023343,-0.022904,0.087336,-0.24311,-0.16505,-2.703,2.3566,-0.33866,-0.88994,0.069415,-1.2076
-0.016138,-0.014541,0.016592,-0.22935,-0.012962,-0.43268,-0.042043,-0.18499,-0.26724,-0.26955,-0.55203,-0.31005,-0.014773,0.0023491,-0.029861,0.036203,-0.25222,-0.16892,-2.7045,2.4388,-0.37464,-1.1099,0.076545,-1.2083
-0.011035,-0.014477,0.03037,-0.27753,-0.012662,-0.44573,-0.038388,-0.18909,-0.29215,-0.091215,-0.67643,-0.35171,-0.015547,-0.019448,-0.042115,-0.0021616,-0.25129,-0.17776,-2.6807,2.4701,-0.39212,-1.3503,0.078723,-1.1235
-0.0072995,-0.012582,0.042655,-0.32204,-0.01305,-0.47138,-0.034448,-0.16717,-0.32178,0.063986,-0.79264,-0.41461,-0.017004,-0.038827,-0.055903,-0.024103,-0.24367,-0.18744,-2.6481,2.4525,-0.4008,-1.5564,0.067325,-0.95954
-0.0033752,-0.0088542,0.054762,-0.35394,-0.012485,-0.50102,-0.028663,-0.11694,-0.35027,0.15585,-0.90018,-0.47233,-0.019094,-0.050832,-0.06466,-0.029513,-0.23714,-0.19301,-2.6161,2.3864,-0.41063,-1.6665,0.039707,-0.73893
0.0010755,-0.0044566,0.066066,-0.36855,-0.0086948,-0.51879,-0.019642,-0.041955,-0.3733,0.21253,-0.98853,-0.50113,-0.020977,-0.04984,-0.063606,-0.020519,-0.23991,-0.19407,-2.5792,2.278,-0.42417,-1.6507,0.0031259,-0.50402
0.004413,-0.00021374,0.072642,-0.36646,-0.00045695,-0.51069,-0.0081289,0.049649,-0.39041,0.28937,-1.0422,-0.48975,-0.021827,-0.032988,-0.053293,-0.00013846,-0.25587,-0.19537,-2.5197,2.1451,-0.43598,-1.5258,-0.028368,-0.30791
0.0047763,0.0040941,0.070486,-0.35185,0.011149,-0.47271,0.0033711,0.14672,-0.40532,0.4129,-1.0514,-0.44247,-0.022155,-0.0033062,-0.039413,0.027826,-0.28207,-0.20186,-2.4184,2.013,-0.43808,-1.3406,-0.042134,-0.19236
0.0025676,0.008588,0.060352,-0.32932,0.023088,-0.41193,0.012824,0.23649,-0.42348,0.55899,-1.0203,-0.37307,-0.024438,0.030604,-0.029257,0.057956,-0.30983,-0.21247,-2.2654,1.9032,-0.42633,-1.1448,-0.034403,-0.16512
0.00091708,0.011731,0.049002,-0.30131,0.032346,-0.34015,0.020384,0.30624,-0.44783,0.67968,-0.96497,-0.29405,-0.032046,0.058859,-0.027618,0.08322,-0.32866,-0.21854,-2.0631,1.8233,-0.40288,-0.96627,-0.011767,-0.193
0.0032636,0.010723,0.044785,-0.26778,0.03813,-0.2655,0.027927,0.34603,-0.47553,0.74887,-0.9027,-0.20875,-0.046807,0.075579,-0.034805,0.097079,-0.33031,-0.20865,-1.8205,1.7669,-0.37386,-0.80813,0.014037,-0.21858
0.010124,0.0042712,0.051048,-0.22822,0.042464,-0.18937,0.037069,0.35174,-0.49778,0.78277,-0.8412,-0.11169,-0.066863,0.08117,-0.047362,0.096753,-0.3109,-0.17581,-1.5465,1.7235,-0.34478,-0.65874,0.034027,-0.19138
0.018182,-0.0048455,0.063341,-0.18421,0.048538,-0.11097,0.047777,0.32723,-0.50343,0.81871,-0.77647,0.0036219,-0.086654,0.079961,-0.0602,0.084902,-0.27087,-0.12159,-1.2473,1.6891,-0.31734,-0.50248,0.047044,-0.092594
0.022866,-0.010648,0.073173,-0.1404,0.058004,-0.03519,0.058787,0.28343,-0.48437,0.87658,-0.7001,0.1358,-0.099543,0.075389,-0.06858,0.067677,-0.21405,-0.054727,-0.93056,1.6693,-0.28911,-0.32513,0.059029,0.064086
0.022266,-0.0085479,0.075074,-0.10267,0.069396,0.02431,0.068991,0.23402,-0.43986,0.94193,-0.60922,0.27209,-0.10157,0.066818,-0.069391,0.050197,-0.14715,0.013693,-0.60951,1.6747,-0.25536,-0.11849,0.077769,0.25471
0.018816,0.00010427,0.070676,-0.074666,0.078985,0.050824,0.078032,0.18966,-0.37698,0.98485,-0.51086,0.39295,-0.093833,0.050587,-0.062024,0.033189,-0.079513,0.074272,-0.30323,1.7135,-0.2116,0.11134,0.10714,0.47058
0.016993,0.0081718,0.066312,-0.055317,0.08345,0.036023,0.085485,0.15413,-0.30729,0.9921,-0.4185,0.48208,-0.08187,0.024367,-0.048974,0.013909,-0.021763,0.12045,-0.029413,1.7877,-0.15596,0.3368,0.14444,0.72409
0.01903,0.0083871,0.066633,-0.039751,0.082215,-0.011705,0.089785,0.12497,-0.2413,0.97832,-0.34467,0.53564,-0.072404,-0.0087967,-0.035654,-0.0092612,0.017388,0.14767,0.20385,1.8917,-0.091102,0.5142,0.18193,1.0289
0.022667,-1.7413e-005,0.070293,-0.023179,0.077626,-0.069094,0.088498,0.097584,-0.18432,0.96572,-0.29511,0.56528,-0.069799,-0.04015,-0.028687,-0.032794,0.034935,0.15298,0.40034,2.0097,-0.024942,0.60564,0.21062,1.3717
0.023297,-0.0098453,0.071651,-0.0048744,0.072919,-0.10973,0.080147,0.069407,-0.13539,0.95565,-0.26651,0.59282,-0.07442,-0.059223,-0.032937,-0.048731,0.03536,0.1361,0.57,2.1122,0.030716,0.60569,0.22417,1.702
0.018667,-0.011551,0.066643,0.011228,0.069781,-0.11808,0.066061,0.040901,-0.089723,0.9239,-0.24682,0.63937,-0.083535,-0.059605,-0.048906,-0.050192,0.028641,0.10133,0.72039,2.1578,0.064229,0.55201,0.22074,1.9519
0.011661,-0.0013584,0.057119,0.020248,0.067484,-0.096694,0.050453,0.013444,-0.042418,0.84633,-0.21772,0.71479,-0.093472,-0.042655,-0.072493,-0.037209,0.025501,0.058283,0.85311,2.1073,0.069269,0.50805,0.20287,2.0729
0.0081884,0.015298,0.04945,0.021604,0.064151,-0.06241,0.038368,-0.012803,0.0087049,0.72886,-0.16041,0.81323,-0.10125,-0.016719,-0.097701,-0.017725,0.032964,0.020143,0.96775,1.9439,0.048132,0.52731,0.1759,2.0623
0.01183,0.028159,0.048772,0.021224,0.058781,-0.035035,0.032941,-0.038206,0.062454,0.60964,-0.064724,0.91697,-0.10494,0.0075397,-0.12043,-0.0025231,0.052792,-0.0008084,1.068,1.6858,0.010819,0.62341,0.14565,1.962
0.020219,0.030463,0.054352,0.028242,0.05213,-0.026078,0.033885,-0.060705,0.11556,0.52858,0.062432,1.0055,-0.10333,0.022571,-0.14018,0.0020361,0.082835,0.0013447,1.1619,1.3786,-0.029812,0.76574,0.11638,1.833
0.026811,0.023804,0.060444,0.048258,0.045752,-0.034097,0.038109,-0.074086,0.16462,0.49294,0.19681,1.0644,-0.095903,0.026763,-0.15804,-0.0022662,0.11924,0.022483,1.2554,1.0677,-0.063795,0.90101,0.089659,1.7255
0.026706,0.015503,0.061709,0.078452,0.040263,-0.048103,0.041744,-0.070304,0.20746,0.47401,0.3081,1.0892,-0.083145,0.023402,-0.17251,-0.0080692,0.15768,0.049465,1.3435,0.77153,-0.087268,0.98323,0.064887,1.6642
