2.373e-010,7.1384e-011,8.3153e-010,1.1981e-009,2.6431e-010,4.9583e-010,1.773e-009,9.4536e-011,4.3795e-010,4.3024e-010,1.3332e-009,6.8876e-010,-3.4149e-010,1.1286e-009,3.6676e-009,1.4026e-009,-1.6013e-010,9.6658e-010,1.8849e-009,-8.3153e-010,1.6013e-010,6.9648e-010,3.2509e-009,-7.1384e-011
6.7737e-009,2.0189e-009,2.3013e-008,3.31e-008,7.3156e-009,1.3497e-008,4.9296e-008,2.9481e-009,1.2056e-008,1.1553e-008,3.6967e-008,1.896e-008,-9.1587e-009,3.1428e-008,1.0092e-007,3.8724e-008,-4.2437e-009,2.6845e-008,5.2192e-008,-2.2345e-008,4.398e-009,1.9185e-008,8.9718e-008,-1.9379e-009
9.3915e-008,2.7825e-008,3.0953e-007,4.4447e-007,9.8464e-008,1.7861e-007,6.664e-007,4.457e-008,1.6141e-007,1.5064e-007,4.981e-007,2.5379e-007,-1.1888e-007,4.2532e-007,1.3499e-006,5.1991e-007,-5.4389e-008,3.6228e-007,7.028e-007,-2.9058e-007,5.8631e-008,2.5679e-007,1.2035e-006,-2.5497e-008
8.4253e-007,2.4893e-007,2.6954e-006,3.865e-006,8.5876e-007,1.5308e-006,5.8353e-006,4.3601e-007,1.4005e-006,1.2704e-006,4.3447e-006,2.2012e-006,-9.943e-007,3.7275e-006,1.1694e-005,4.5226e-006,-4.4876e-007,3.1645e-006,6.1318e-006,-2.4331e-006,5.0524e-007,2.2252e-006,1.0455e-005,-2.1641e-007
5.4965e-006,1.6246e-006,1.7076e-005,2.4463e-005,5.4557e-006,9.5516e-006,3.72e-005,3.1073e-006,8.8524e-006,7.7855e-006,2.7573e-005,1.3904e-005,-6.0199e-006,2.378e-005,7.375e-005,2.8651e-005,-2.6762e-006,2.0106e-005,3.8959e-005,-1.4718e-005,3.1614e-006,1.4029e-005,6.6099e-005,-1.3301e-006
2.7782e-005,8.2393e-006,8.3837e-005,0.00012008,2.6906e-005,4.6231e-005,0.00018395,1.7219e-005,4.344e-005,3.6927e-005,0.00013563,6.8156e-005,-2.809e-005,0.00011769,0.00036074,0.00014085,-1.2273e-005,9.8979e-005,0.00019207,-6.8338e-005,1.5296e-005,6.8565e-005,0.00032402,-6.2949e-006
0.00011318,3.377e-005,0.00033171,0.00047551,0.00010719,0.00018056,0.0007339,7.7314e-005,0.0001722,0.00014094,0.00053791,0.00026974,-0.00010499,0.0004701,0.0014237,0.00055897,-4.4946e-005,0.00039263,0.00076432,-0.00025235,5.9486e-005,0.00027018,0.001281,-2.3791e-005
0.00038159,0.0001148,0.0010855,0.0015599,0.00035434,0.00058425,0.0024258,0.00028939,0.00056645,0.00044422,0.0017658,0.00088519,-0.00032238,0.0015565,0.0046553,0.0018392,-0.00013461,0.0012882,0.0025209,-0.00075591,0.00019081,0.00088136,0.0041933,-7.3372e-005
0.0010849,0.00032943,0.0029909,0.0043179,0.00099054,0.0015953,0.0067658,0.00092186,0.001576,0.0011771,0.0048859,0.0024538,-0.00082724,0.0043518,0.012849,0.0051115,-0.00033459,0.0035596,0.0070209,-0.0018492,0.00051386,0.0024241,0.011576,-0.0001865
0.0026363,0.00080734,0.007022,0.010217,0.0023739,0.0037231,0.016131,0.0025385,0.0037598,0.0026551,0.011541,0.0058223,-0.0017933,0.010411,0.030333,0.012161,-0.00069514,0.0083873,0.016729,-0.0036578,0.0011761,0.0056945,0.027295,-0.00038969
0.0055274,0.0017006,0.014153,0.020846,0.0049253,0.0074896,0.033165,0.0061154,0.0077684,0.0051424,0.023467,0.011933,-0.0033034,0.021503,0.061815,0.024998,-0.0012052,0.01699,0.03442,-0.0055883,0.0023074,0.011525,0.055448,-0.00065316
0.010065,0.0030826,0.024562,0.036869,0.0089059,0.013049,0.059108,0.013011,0.013995,0.0086034,0.041266,0.021246,-0.0051718,0.038547,0.10939,0.044678,-0.0017172,0.029726,0.061511,-0.0054999,0.0039016,0.020202,0.09754,-0.00080743
0.015984,0.0047818,0.036636,0.056632,0.014091,0.01971,0.091479,0.02463,0.022075,0.012491,0.062802,0.032946,-0.0068333,0.060079,0.16864,0.069665,-0.0019153,0.044971,0.095774,0.00082448,0.0057095,0.030739,0.14884,-0.00047757
0.02218,0.0062449,0.046553,0.075419,0.019541,0.025719,0.12269,0.04172,0.030527,0.015825,0.082425,0.04447,-0.0074654,0.081228,0.22653,0.094866,-0.0013963,0.058691,0.12997,0.019003,0.0072675,0.040557,0.19663,0.00086522
0.026903,0.0066001,0.049344,0.086601,0.023748,0.02871,0.14162,0.063525,0.03697,0.017675,0.092409,0.052055,-0.0063981,0.094547,0.26454,0.11271,0.00013917,0.065709,0.1534,0.053627,0.0081398,0.046225,0.22356,0.0036492
0.028535,0.0050536,0.041523,0.084941,0.02528,0.026845,0.13872,0.087252,0.039087,0.0178,0.086867,0.052509,-0.0036021,0.093305,0.26735,0.11664,0.0027004,0.062655,0.15688,0.10481,0.0082685,0.045256,0.2164,0.0077909
0.026577,0.0015224,0.023914,0.070517,0.023678,0.020066,0.11238,0.10842,0.036004,0.016815,0.066178,0.045424,0.00012217,0.075945,0.23292,0.1054,0.0059799,0.050907,0.1388,0.16583,0.0081312,0.038017,0.17584,0.012377
0.02215,-0.0029081,0.0024046,0.050292,0.019991,0.01047,0.071916,0.12226,0.02924,0.015519,0.038462,0.034218,0.0035045,0.04868,0.17637,0.084883,0.0095243,0.036891,0.1078,0.2242,0.0084556,0.028158,0.11947,0.015786
0.017477,-0.0062174,-0.014795,0.035181,0.016421,0.0012515,0.033655,0.12569,0.022361,0.013783,0.015824,0.024733,0.0055467,0.023445,0.12288,0.065407,0.012945,0.028445,0.078792,0.26645,0.0096022,0.020722,0.073452,0.016409
0.014583,-0.0065306,-0.02213,0.033586,0.015049,-0.0052231,0.011427,0.11885,0.019181,0.010175,0.0069126,0.021766,0.0061347,0.011314,0.092898,0.055434,0.015943,0.029199,0.063911,0.284,0.01113,0.018862,0.056511,0.013644
0.014139,-0.0034819,-0.02042,0.045595,0.016395,-0.0087692,0.0077927,0.10528,0.021364,0.0031723,0.010929,0.025763,0.0060628,0.015284,0.089599,0.056048,0.018121,0.035403,0.064692,0.27634,0.012049,0.021634,0.067518,0.0084694
0.015318,0.0011967,-0.016125,0.062441,0.018868,-0.010957,0.012891,0.09038,0.026992,-0.0066784,0.018109,0.032294,0.0064574,0.027855,0.098437,0.060675,0.01884,0.038484,0.071647,0.2494,0.011691,0.024869,0.086954,0.0030088
0.016683,0.0045901,-0.016303,0.072263,0.019688,-0.013222,0.012423,0.078854,0.031377,-0.015715,0.016983,0.035103,0.0080365,0.03601,0.099226,0.060583,0.017454,0.032004,0.072114,0.21093,0.01042,0.024819,0.092049,-0.00075995
0.017228,0.0046207,-0.023141,0.068232,0.016832,-0.015276,-0.001155,0.072368,0.030015,-0.018927,0.0030717,0.030697,0.010713,0.030567,0.081315,0.051908,0.013918,0.017376,0.060231,0.16723,0.0094079,0.021676,0.073952,-0.0022463
0.016658,0.0017308,-0.032593,0.052876,0.010662,-0.015488,-0.023144,0.06871,0.021879,-0.013836,-0.017971,0.020971,0.013744,0.012956,0.049982,0.03845,0.0092812,0.0031267,0.040891,0.12355,0.009491,0.0198,0.043056,-0.0024291
0.0149,-0.0011684,-0.038343,0.035332,0.0039862,-0.013025,-0.041208,0.062945,0.010548,-0.0033253,-0.035317,0.011753,0.016232,-0.0061182,0.019845,0.027975,0.0054701,-0.0020895,0.024601,0.086801,0.01016,0.024001,0.018515,-0.0028102
0.011654,-0.00059224,-0.037588,0.024005,0.00029915,-0.0095853,-0.046013,0.050156,0.001883,0.0055939,-0.041777,0.0083656,0.017601,-0.015372,0.0019282,0.025361,0.0042321,0.0033073,0.018047,0.066013,0.0098407,0.034649,0.011491,-0.0040374
0.0066743,0.0051435,-0.033476,0.020826,0.0013449,-0.0085098,-0.038824,0.028447,-0.00037814,0.0068303,-0.03899,0.011737,0.01779,-0.012091,-0.0044451,0.028549,0.0059405,0.012911,0.018763,0.068351,0.0074857,0.045791,0.01668,-0.0054016
0.00050532,0.014813,-0.031966,0.021613,0.0057646,-0.011528,-0.029809,0.00056873,0.002335,0.00016303,-0.034918,0.018052,0.017124,-0.0041749,-0.0091185,0.030615,0.0092644,0.018503,0.018319,0.093153,0.004089,0.048331,0.018672,-0.0055928
-0.0053476,0.025128,-0.036029,0.021408,0.0099372,-0.016143,-0.029029,-0.02701,0.0044997,-0.0082878,-0.036412,0.021951,0.016026,-0.0033456,-0.021699,0.025749,0.012137,0.017451,0.010636,0.12969,0.0024703,0.036299,0.0063271,-0.0039309
-0.0093182,0.03273,-0.042617,0.019347,0.010521,-0.016796,-0.03818,-0.047343,0.0011616,-0.010787,-0.043711,0.020461,0.014792,-0.015213,-0.044167,0.013722,0.013326,0.014389,-0.0024013,0.16204,0.0051122,0.011497,-0.018144,-0.00088765
-0.011037,0.035866,-0.045362,0.018486,0.0068332,-0.0097177,-0.050065,-0.056719,-0.007686,-0.0040007,-0.051387,0.014548,0.013522,-0.034619,-0.071116,-0.00083624,0.013255,0.01579,-0.012965,0.1784,0.011769,-0.017192,-0.042785,0.0025232
-0.011623,0.034833,-0.04064,0.021217,0.0012044,0.0026201,-0.055628,-0.056354,-0.016974,0.0088074,-0.05407,0.0075565,0.012156,-0.050106,-0.095722,-0.013093,0.013302,0.023017,-0.014661,0.17759,0.019108,-0.039528,-0.05762,0.0057882
-0.012551,0.031325,-0.031374,0.025308,-0.0030178,0.012119,-0.05195,-0.050733,-0.021008,0.021007,-0.051161,0.0023798,0.010502,-0.053477,-0.11514,-0.022057,0.014223,0.030726,-0.008261,0.16754,0.023004,-0.050365,-0.063153,0.0093134
-0.01417,0.027399,-0.024869,0.0249,-0.0042072,0.011315,-0.044299,-0.043809,-0.018559,0.027993,-0.046385,-0.00016711,0.0082413,-0.046185,-0.13099,-0.030558,0.015264,0.032077,-0.00071416,0.15706,0.021678,-0.051942,-0.068464,0.013857
-0.015475,0.024619,-0.026388,0.01575,-0.0036394,0.00032213,-0.041,-0.036143,-0.01385,0.029859,-0.04338,-0.00094028,0.0050688,-0.037288,-0.14603,-0.041779,0.014953,0.025413,0.0012097,0.14836,0.016924,-0.050485,-0.081841,0.019587
-0.01547,0.023564,-0.034221,-0.00036723,-0.0041086,-0.01205,-0.046063,-0.025536,-0.012475,0.029518,-0.042176,-0.0011335,0.0010921,-0.035234,-0.16106,-0.05595,0.01286,0.015787,-0.0034546,0.13674,0.012345,-0.050297,-0.10322,0.02567
-0.014711,0.023775,-0.040841,-0.016544,-0.0072346,-0.014896,-0.055963,-0.010769,-0.016104,0.02892,-0.03998,-0.0015295,-0.0027204,-0.040975,-0.17495,-0.07018,0.010472,0.01002,-0.0099437,0.11752,0.010286,-0.050531,-0.12489,0.030705
-0.015163,0.024174,-0.039324,-0.026306,-0.011921,-0.0043159,-0.062885,0.004914,-0.021095,0.027441,-0.034973,-0.0026428,-0.0045658,-0.048249,-0.18655,-0.081126,0.010106,0.010399,-0.012956,0.093434,0.010309,-0.047357,-0.13883,0.033612
-0.018215,0.023912,-0.029413,-0.02877,-0.015361,0.013071,-0.061199,0.014105,-0.022385,0.023713,-0.028818,-0.0048898,-0.0026869,-0.050148,-0.19604,-0.087681,0.012707,0.01321,-0.011775,0.074983,0.010426,-0.039192,-0.14323,0.034336
-0.022766,0.02316,-0.017801,-0.02875,-0.015596,0.025632,-0.051633,0.0098133,-0.018837,0.018343,-0.025192,-0.0081211,0.0032353,-0.045528,-0.20429,-0.091283,0.016742,0.013092,-0.010638,0.072863,0.0095085,-0.029711,-0.14283,0.034058
-0.025658,0.023273,-0.012329,-0.03202,-0.013142,0.026503,-0.040077,-0.0090334,-0.014732,0.014157,-0.026001,-0.011024,0.011259,-0.039453,-0.21139,-0.09403,0.019409,0.0083779,-0.014376,0.088717,0.0081856,-0.025305,-0.14377,0.034903
-0.024568,0.026008,-0.015249,-0.04032,-0.010196,0.018833,-0.032615,-0.035755,-0.015811,0.013508,-0.029364,-0.011492,0.017922,-0.037809,-0.21605,-0.096786,0.019123,0.0019352,-0.023749,0.11253,0.0073668,-0.02907,-0.14849,0.03918
-0.020798,0.032191,-0.021469,-0.050546,-0.0083522,0.01187,-0.031157,-0.059621,-0.023658,0.015623,-0.031555,-0.0082094,0.020388,-0.041644,-0.21647,-0.099068,0.016821,-0.0028861,-0.034876,0.12933,0.0062941,-0.037163,-0.15508,0.048176
-0.018976,0.0407,-0.02316,-0.058283,-0.0072479,0.011873,-0.032994,-0.072513,-0.033901,0.017107,-0.03088,-0.0022255,0.018467,-0.046673,-0.21139,-0.10039,0.014755,-0.0064099,-0.043104,0.12999,0.0027226,-0.04158,-0.16073,0.060948
-0.023258,0.048565,-0.016424,-0.061867,-0.0055367,0.016622,-0.034033,-0.073542,-0.040093,0.0155,-0.02938,0.0030937,0.014757,-0.047998,-0.20064,-0.10118,0.013977,-0.012186,-0.047435,0.11724,-0.0044861,-0.037351,-0.16516,0.073986
-0.033135,0.05237,-0.0041274,-0.063213,-0.0030728,0.018562,-0.032559,-0.068219,-0.039617,0.012357,-0.03045,0.0040918,0.012516,-0.044954,-0.18507,-0.10214,0.013182,-0.022413,-0.051238,0.10205,-0.013038,-0.027516,-0.1707,0.082546
-0.042888,0.050262,0.0071873,-0.065191,-0.0018235,0.013143,-0.030346,-0.063155,-0.035984,0.012429,-0.034712,-0.00060508,0.012926,-0.041143,-0.16671,-0.10265,0.010253,-0.034369,-0.058564,0.093681,-0.018119,-0.020794,-0.17916,0.083339
-0.045818,0.043286,0.013032,-0.068586,-0.004268,0.0039695,-0.030504,-0.060621,-0.035339,0.019168,-0.038401,-0.0089839,0.014125,-0.039884,-0.14892,-0.10037,0.0050335,-0.042119,-0.069657,0.091544,-0.016458,-0.023595,-0.18897,0.076842
-0.039971,0.034945,0.014107,-0.071588,-0.010719,-0.00029375,-0.034237,-0.05722,-0.040477,0.030568,-0.03615,-0.016854,0.013013,-0.040182,-0.13557,-0.092921,0.00039331,-0.042187,-0.080059,0.085281,-0.0099109,-0.03371,-0.19563,0.067246
-0.030224,0.028975,0.01459,-0.071895,-0.018361,0.0058759,-0.039447,-0.047382,-0.048019,0.039468,-0.025744,-0.020409,0.008347,-0.037799,-0.129,-0.080449,6.3199e-005,-0.037399,-0.084406,0.062596,-0.0047859,-0.041826,-0.19513,0.059585
-0.024463,0.026741,0.017971,-0.069002,-0.023334,0.019566,-0.042346,-0.028623,-0.05137,0.038646,-0.010386,-0.018329,0.0023273,-0.03054,-0.12792,-0.066437,0.0049216,-0.034615,-0.081521,0.018246,-0.0068179,-0.039799,-0.18742,0.055971
-0.026888,0.026314,0.024524,-0.064505,-0.024183,0.032042,-0.040597,-0.0042284,-0.04672,0.026662,0.0036855,-0.01222,-0.0009574,-0.022127,-0.12766,-0.055653,0.011227,-0.03814,-0.075971,-0.042589,-0.016067,-0.028051,-0.17663,0.053945
-0.034341,0.024216,0.032186,-0.060485,-0.023394,0.036542,-0.035168,0.018701,-0.036583,0.009531,0.012049,-0.0054784,0.00089849,-0.019941,-0.12315,-0.050632,0.012895,-0.045259,-0.074369,-0.10835,-0.026531,-0.015056,-0.16793,0.04843
-0.039111,0.018619,0.039054,-0.057872,-0.025238,0.033723,-0.029258,0.034169,-0.027777,-0.0032887,0.015087,-0.0015165,0.0061141,-0.028035,-0.11276,-0.04972,0.0063575,-0.048512,-0.079517,-0.16855,-0.031176,-0.0093399,-0.16325,0.035812
-0.035851,0.011259,0.044676,-0.056338,-0.031561,0.029807,-0.025292,0.041164,-0.025788,-0.0054696,0.016714,-0.0022585,0.0096498,-0.042,-0.099577,-0.048451,-0.0060658,-0.042783,-0.087704,-0.21884,-0.028034,-0.011601,-0.15945,0.016774
-0.026356,0.0062054,0.049333,-0.055468,-0.039331,0.029672,-0.022771,0.043454,-0.030522,0.0020938,0.020503,-0.0074405,0.0070663,-0.051232,-0.088667,-0.043079,-0.017413,-0.030421,-0.091794,-0.26061,-0.021829,-0.014453,-0.15037,-0.0043407
-0.01782,0.0062974,0.052947,-0.055648,-0.042575,0.031847,-0.018987,0.045675,-0.036924,0.012477,0.026968,-0.014866,-0.0017764,-0.047347,-0.082483,-0.033184,-0.021339,-0.01939,-0.087543,-0.29692,-0.019607,-0.0098784,-0.13125,-0.022744
-0.01615,0.010353,0.055319,-0.057616,-0.037486,0.030252,-0.011964,0.049112,-0.03951,0.017828,0.034146,-0.021518,-0.012302,-0.031448,-0.07856,-0.021247,-0.017228,-0.016254,-0.077609,-0.32889,-0.024394,0.0029439,-0.10247,-0.035934
-0.020549,0.013735,0.057301,-0.061146,-0.026405,0.020833,-0.0027233,0.050783,-0.036693,0.014387,0.040204,-0.025072,-0.018568,-0.013449,-0.071756,-0.0099544,-0.01089,-0.020771,-0.069689,-0.35547,-0.032676,0.016999,-0.069824,-0.043682
-0.024414,0.011923,0.060971,-0.064353,-0.016903,0.0063992,0.0054475,0.046496,-0.031375,0.0041463,0.0451,-0.025035,-0.017764,-0.0037307,-0.059174,1.5873e-007,-0.010099,-0.027143,-0.070386,-0.37592,-0.037852,0.024317,-0.041054,-0.046019
-0.021673,0.0039963,0.067822,-0.06454,-0.016153,-0.005338,0.010165,0.035116,-0.027846,-0.007283,0.049786,-0.022797,-0.012266,-0.0044402,-0.043244,0.0096081,-0.018529,-0.030269,-0.080169,-0.39184,-0.03621,0.023366,-0.020926,-0.042016
-0.012583,-0.0069499,0.0765,-0.06004,-0.025039,-0.0089985,0.012436,0.020227,-0.028012,-0.014495,0.054316,-0.020531,-0.0076662,-0.0082105,-0.029976,0.019315,-0.033,-0.030537,-0.093594,-0.40623,-0.029788,0.019722,-0.0083985,-0.031109
-0.0035461,-0.016594,0.082737,-0.051531,-0.037013,-0.0072496,0.015815,0.0076598,-0.030143,-0.015197,0.057231,-0.019738,-0.0084477,-0.0053838,-0.02377,0.027385,-0.04622,-0.032504,-0.10425,-0.41984,-0.023775,0.019743,0.0020269,-0.015605
-0.0011817,-0.022719,0.082352,-0.041659,-0.042983,-0.0092201,0.022857,0.00099513,-0.030746,-0.010839,0.057034,-0.020479,-0.014818,0.0069396,-0.023446,0.030763,-0.052585,-0.039331,-0.10981,-0.42818,-0.021417,0.02402,0.015602,-0.0012279
-0.0062367,-0.026232,0.075038,-0.033286,-0.038376,-0.022416,0.032372,-0.0011065,-0.027581,-0.0052374,0.054103,-0.021758,-0.023077,0.022289,-0.02313,0.027803,-0.052173,-0.04913,-0.113,-0.42254,-0.021553,0.027333,0.032867,0.0058287
-0.01301,-0.029464,0.065354,-0.02779,-0.026551,-0.045183,0.04036,-0.0035298,-0.021219,-0.0023245,0.050853,-0.02254,-0.028906,0.030876,-0.01722,0.020333,-0.049781,-0.057099,-0.11817,-0.39525,-0.02089,0.025008,0.049067,0.003259
-0.014676,-0.033795,0.059555,-0.024769,-0.015758,-0.066807,0.043855,-0.010549,-0.014175,-0.0041802,0.049813,-0.02243,-0.030623,0.028531,-0.0049978,0.012907,-0.050244,-0.060916,-0.12721,-0.3459,-0.018231,0.018866,0.058181,-0.0056162
-0.0094095,-0.038849,0.060598,-0.023238,-0.012342,-0.075775,0.043812,-0.022433,-0.008748,-0.01009,0.051492,-0.021532,-0.029794,0.020214,0.0090648,0.0095887,-0.054327,-0.06329,-0.13845,-0.2837,-0.016043,0.016337,0.058362,-0.01471
-0.0016611,-0.043502,0.065612,-0.023157,-0.016068,-0.069267,0.044024,-0.035522,-0.005495,-0.017046,0.054176,-0.01997,-0.029102,0.015081,0.019224,0.01086,-0.058717,-0.06863,-0.14887,-0.22384,-0.017765,0.023279,0.054097,-0.020322
0.0023774,-0.047148,0.068158,-0.025825,-0.021373,-0.055488,0.047103,-0.045478,-0.0033668,-0.021608,0.055806,-0.017853,-0.029762,0.018028,0.022847,0.013249,-0.059687,-0.077358,-0.15687,-0.17999,-0.023824,0.037599,0.052908,-0.023934
0.00064675,-0.049805,0.063534,-0.032745,-0.022991,-0.046647,0.051691,-0.050855,-0.00097949,-0.022239,0.055996,-0.015859,-0.030865,0.025757,0.021567,0.012085,-0.056785,-0.084271,-0.16261,-0.15813,-0.030634,0.050215,0.059126,-0.030071
-0.0030329,-0.051298,0.052771,-0.043896,-0.020518,-0.048797,0.053876,-0.054174,0.0022466,-0.020526,0.056103,-0.015606,-0.030879,0.030707,0.018942,0.0051839,-0.053083,-0.083315,-0.16608,-0.15566,-0.033743,0.052776,0.070094,-0.041349
-0.0027365,-0.050866,0.041991,-0.056934,-0.017791,-0.057574,0.051429,-0.059936,0.005908,-0.020045,0.057292,-0.018963,-0.02945,0.028628,0.01746,-0.0054411,-0.052028,-0.074154,-0.16581,-0.16575,-0.031936,0.044882,0.078275,-0.055559
0.0040029,-0.047951,0.037695,-0.068077,-0.01807,-0.063345,0.046435,-0.071447,0.0092301,-0.023329,0.058676,-0.026473,-0.027582,0.022279,0.017628,-0.015105,-0.0541,-0.063458,-0.15999,-0.183,-0.028176,0.03398,0.077608,-0.067641
0.013967,-0.043359,0.041793,-0.074095,-0.020072,-0.060545,0.043455,-0.088896,0.011733,-0.02931,0.057556,-0.036309,-0.026285,0.018012,0.019135,-0.019836,-0.056532,-0.058842,-0.14918,-0.20595,-0.026475,0.028158,0.068571,-0.074588
0.021136,-0.039385,0.050215,-0.073902,-0.018958,-0.052351,0.044979,-0.10976,0.01342,-0.033744,0.051759,-0.045133,-0.025476,0.019166,0.021939,-0.018911,-0.056141,-0.060999,-0.1371,-0.23489,-0.027948,0.028858,0.057478,-0.078325
0.021785,-0.038456,0.055966,-0.068691,-0.01135,-0.046688,0.048811,-0.13066,0.01453,-0.032777,0.041811,-0.050609,-0.024536,0.023115,0.025817,-0.014719,-0.052305,-0.061975,-0.12782,-0.26728,-0.029986,0.030361,0.050755,-0.083556
0.017227,-0.041375,0.054058,-0.060719,0.00073277,-0.048006,0.0501,-0.14911,0.015216,-0.02674,0.030725,-0.05358,-0.023812,0.024766,0.029291,-0.010468,-0.047095,-0.051941,-0.1214,-0.29495,-0.029172,0.026194,0.049502,-0.092523
0.012163,-0.046684,0.044631,-0.051846,0.011165,-0.053,0.046027,-0.16406,0.015439,-0.020563,0.021435,-0.057739,-0.025076,0.02251,0.029952,-0.0078152,-0.042588,-0.028466,-0.11251,-0.30605,-0.024757,0.015863,0.049308,-0.10184
0.010619,-0.051622,0.032321,-0.042886,0.015202,-0.054104,0.038426,-0.17545,0.015107,-0.019906,0.014252,-0.066641,-0.029983,0.020233,0.026585,-0.0062549,-0.038291,0.00049364,-0.09445,-0.29116,-0.01907,0.005304,0.045293,-0.10479
0.013178,-0.05379,0.022783,-0.033929,0.01386,-0.046826,0.031818,-0.18351,0.014336,-0.026194,0.0068172,-0.080312,-0.037908,0.023159,0.021106,-0.0043094,-0.031465,0.023056,-0.065626,-0.24971,-0.014591,0.00083588,0.037369,-0.097233
0.017497,-0.052319,0.019097,-0.024981,0.01281,-0.033598,0.028979,-0.18801,0.013627,-0.035055,-0.0033769,-0.094417,-0.045551,0.031762,0.017923,-0.0011278,-0.020134,0.0336,-0.032649,-0.19229,-0.011003,0.002876,0.0306,-0.081781
0.020966,-0.048042,0.020363,-0.016241,0.016787,-0.020851,0.02859,-0.1878,0.013775,-0.039853,-0.016372,-0.10298,-0.049064,0.040077,0.020763,0.0029335,-0.0057689,0.037367,-0.0062409,-0.13633,-0.0055747,0.0057323,0.030247,-0.066172
0.022777,-0.04299,0.022953,-0.0079835,0.024951,-0.012861,0.027224,-0.18062,0.015388,-0.037302,-0.02961,-0.10264,-0.046875,0.040394,0.029631,0.0069323,0.007134,0.045261,0.0072195,-0.097379,0.0033324,0.00356,0.036303,-0.057053
0.023792,-0.039587,0.023125,-0.00051981,0.031722,-0.0085882,0.023343,-0.1638,0.018265,-0.030099,-0.040362,-0.094953,-0.040619,0.03011,0.040727,0.010226,0.014317,0.063591,0.011201,-0.081198,0.013368,-0.0036763,0.042841,-0.054609
0.024898,-0.039579,0.019152,0.0054887,0.032232,-0.0040158,0.018957,-0.13621,0.021222,-0.024233,-0.048178,-0.085031,-0.03346,0.014415,0.049367,0.0127,0.014904,0.087984,0.016114,-0.082105,0.019332,-0.010355,0.042986,-0.05278
0.025787,-0.042876,0.011856,0.0087832,0.027042,0.0032535,0.017115,-0.10041,0.022834,-0.023511,-0.054807,-0.077575,-0.027639,0.0024768,0.053244,0.014325,0.011641,0.10675,0.02995,-0.08869,0.017806,-0.011347,0.034914,-0.044878
0.025347,-0.047078,0.0036293,0.0080067,0.021544,0.01211,0.017889,-0.063278,0.022735,-0.026448,-0.061671,-0.073737,-0.023587,0.00060623,0.053256,0.014782,0.0082968,0.11044,0.050607,-0.092725,0.010932,-0.0078964,0.02332,-0.029679
0.023131,-0.048654,-0.0031312,0.0029716,0.020734,0.020153,0.017257,-0.033619,0.022311,-0.02829,-0.06765,-0.071132,-0.020964,0.0081533,0.051705,0.01368,0.0067621,0.099178,0.067069,-0.094611,0.0053698,-0.0070756,0.015064,-0.012753
0.020318,-0.045589,-0.0072217,-0.0043195,0.024542,0.026859,0.010382,-0.017595,0.023769,-0.026044,-0.069735,-0.066592,-0.019849,0.018931,0.050088,0.011071,0.0063187,0.081822,0.068776,-0.10153,0.0068379,-0.015015,0.013154,-0.0020385
0.019116,-0.039629,-0.0089862,-0.010144,0.028185,0.033957,-0.0037818,-0.0149,0.027989,-0.021569,-0.066172,-0.059082,-0.020437,0.026128,0.048636,0.0075139,0.0052195,0.068325,0.055008,-0.12032,0.015003,-0.030415,0.014661,-0.0016228
0.021,-0.035837,-0.0099269,-0.011155,0.026989,0.042925,-0.021296,-0.018862,0.033038,-0.019773,-0.058955,-0.050403,-0.021697,0.026443,0.047502,0.0034024,0.0027003,0.062352,0.035927,-0.15122,0.023487,-0.044828,0.014228,-0.0089681
0.025268,-0.039062,-0.011922,-0.0066697,0.020824,0.052976,-0.03683,-0.020916,0.035084,-0.023778,-0.05287,-0.043448,-0.021064,0.020865,0.047682,-0.0018291,-0.00037759,0.060074,0.024472,-0.18722,0.025259,-0.049799,0.0095056,-0.017586
0.029208,-0.049717,-0.016383,0.00075853,0.013927,0.062222,-0.048536,-0.016434,0.031423,-0.031832,-0.051676,-0.039795,-0.016284,0.012761,0.050301,-0.0096536,-0.0023718,0.055217,0.026484,-0.21884,0.018744,-0.04428,0.0032344,-0.022439
0.029861,-0.06246,-0.023619,0.0070651,0.010617,0.07072,-0.059181,-0.007598,0.023127,-0.039026,-0.054962,-0.038626,-0.00793,0.0055493,0.055033,-0.021279,-0.0019807,0.045176,0.037648,-0.23973,0.009238,-0.035366,0.00026497,-0.023366
0.026084,-0.069351,-0.032622,0.0093516,0.011344,0.081423,-0.072228,-0.0011812,0.014749,-0.042089,-0.058808,-0.037573,0.00019462,0.0013902,0.059667,-0.036223,0.0013402,0.032847,0.049191,-0.24894,0.0043765,-0.031649,0.0028469,-0.024022
0.019355,-0.065387,-0.041447,0.0074017,0.012858,0.097055,-0.086882,-0.0031052,0.010946,-0.042503,-0.059693,-0.034526,0.0038295,0.00077769,0.061724,-0.051938,0.0075077,0.023312,0.056297,-0.24935,0.0076276,-0.035451,0.0089822,-0.027923
0.012777,-0.052199,-0.048071,0.003105,0.011888,0.11568,-0.097537,-0.014039,0.012749,-0.044735,-0.057836,-0.028944,0.0020102,0.0024142,0.060697,-0.064999,0.015774,0.01912,0.061433,-0.2452,0.015464,-0.041175,0.015205,-0.03546
0.0091201,-0.036993,-0.051282,-0.0012623,0.008291,0.13005,-0.098747,-0.029186,0.016736,-0.051184,-0.056597,-0.021926,-0.0017727,0.0034978,0.058542,-0.072997,0.024414,0.018592,0.07029,-0.24109,0.020502,-0.041082,0.020474,-0.044291
0.0093376,-0.027621,-0.051139,-0.0042398,0.0045693,0.13269,-0.091017,-0.041856,0.017844,-0.058771,-0.058529,-0.015285,-0.0024101,0.00099879,0.057699,-0.075699,0.030892,0.018157,0.085116,-0.24211,0.017733,-0.032783,0.026824,-0.052081
0.012423,-0.027537,-0.048814,-0.0052083,0.002656,0.12277,-0.081336,-0.047596,0.013432,-0.060823,-0.062132,-0.010438,0.0023882,-0.0062816,0.058537,-0.074676,0.033099,0.015847,0.10198,-0.25281,0.0085256,-0.021304,0.036044,-0.058486
0.016344,-0.034209,-0.04603,-0.003998,0.0017178,0.10801,-0.07727,-0.045806,0.0051653,-0.052971,-0.062871,-0.0077672,0.010141,-0.016363,0.05899,-0.07201,0.031035,0.012363,0.11405,-0.27432,-0.00074026,-0.014064,0.046097,-0.064397
0.019195,-0.041651,-0.04444,-0.0010296,-0.00060574,0.098726,-0.079974,-0.038338,-0.0026149,-0.037847,-0.057751,-0.0066312,0.01598,-0.025017,0.057018,-0.069278,0.027304,0.0090162,0.1171,-0.30202,-0.0038775,-0.014,0.051518,-0.069568
0.019947,-0.044775,-0.04507,0.0021917,-0.0049763,0.098556,-0.083051,-0.027039,-0.0063773,-0.024086,-0.048954,-0.0058188,0.017132,-0.028789,0.053495,-0.067464,0.025422,0.0051832,0.11221,-0.32675,0.00052862,-0.017626,0.04794,-0.071574
0.018709,-0.042405,-0.047905,0.003352,-0.0088537,0.10012,-0.078787,-0.012512,-0.0057428,-0.019991,-0.042605,-0.0041585,0.015256,-0.027741,0.05228,-0.067256,0.026916,-0.0017047,0.10383,-0.33964,0.0086645,-0.019621,0.036404,-0.067682
0.016615,-0.037311,-0.051809,0.00090399,-0.0086598,0.090491,-0.066021,0.0052773,-0.0030674,-0.026961,-0.043338,-0.0010584,0.014469,-0.02534,0.056844,-0.068875,0.029724,-0.013487,0.096001,-0.33672,0.014945,-0.018825,0.02294,-0.058013
0.015266,-0.033799,-0.055081,-0.0041794,-0.0036187,0.062421,-0.05198,0.025732,-0.0011015,-0.038255,-0.049625,0.0031851,0.017025,-0.025215,0.066508,-0.07136,0.029681,-0.028795,0.090174,-0.31879,0.016142,-0.019218,0.013506,-0.046544
0.015752,-0.034726,-0.056557,-0.0083944,0.0027099,0.021986,-0.045996,0.047098,-0.000905,-0.044306,-0.054487,0.0074657,0.020943,-0.027623,0.076245,-0.072327,0.024213,-0.043621,0.085699,-0.28649,0.012937,-0.024803,0.0091217,-0.038271
0.017751,-0.03976,-0.056537,-0.0080909,0.0051112,-0.014315,-0.050889,0.067013,-0.0015305,-0.040328,-0.051326,0.01041,0.021979,-0.029081,0.080883,-0.06911,0.015057,-0.05466,0.081129,-0.23583,0.008284,-0.033926,0.0059823,-0.034726
0.019566,-0.045701,-0.056647,-0.0025478,0.001379,-0.030741,-0.060223,0.083331,-0.0012702,-0.029984,-0.039801,0.01119,0.01811,-0.025926,0.080058,-0.060848,0.007284,-0.062157,0.07475,-0.15992,0.0045638,-0.039513,0.00038613,-0.032178
0.019388,-0.048541,-0.058544,0.0050344,-0.0053793,-0.022555,-0.064076,0.094391,0.00088577,-0.022078,-0.026401,0.01011,0.012113,-0.018638,0.079013,-0.049695,0.0050465,-0.069305,0.06462,-0.057098,0.0020878,-0.035694,-0.0066716,-0.024857
0.016905,-0.046008,-0.06246,0.0098423,-0.0091022,0.0026807,-0.05777,0.098771,0.0047513,-0.023096,-0.019176,0.0084979,0.0094605,-0.012592,0.083914,-0.039615,0.0076584,-0.078738,0.049424,0.061073,-0.00022128,-0.024341,-0.010144,-0.010799
0.013752,-0.038998,-0.066888,0.0093208,-0.0058271,0.032461,-0.045244,0.095202,0.0094975,-0.031879,-0.021263,0.0078787,0.013211,-0.013908,0.095674,-0.033272,0.0096882,-0.089702,0.030123,0.17054,-0.0031341,-0.014458,-0.0063502,0.0050647
0.012211,-0.030944,-0.069779,0.0052788,0.0030146,0.05764,-0.034166,0.08308,0.014436,-0.040866,-0.028854,0.0090298,0.020673,-0.023826,0.10813,-0.029557,0.0053479,-0.098948,0.010537,0.24593,-0.0061666,-0.014174,0.0024069,0.013971
0.013251,-0.025496,-0.070235,0.0023159,0.0119,0.074424,-0.028081,0.063227,0.019179,-0.042642,-0.03502,0.011654,0.025255,-0.036871,0.11262,-0.024191,-0.0065027,-0.10458,-0.0047776,0.27516,-0.008051,-0.022813,0.0091185,0.01048
0.015755,-0.024119,-0.069192,0.0038895,0.015815,0.080205,-0.023696,0.038183,0.023112,-0.03601,-0.035583,0.014903,0.022219,-0.044929,0.10513,-0.013298,-0.021198,-0.10886,-0.014316,0.26642,-0.0078572,-0.031071,0.0084793,-0.0024282
0.017693,-0.025361,-0.068562,0.0094397,0.014029,0.069911,-0.015968,0.011717,0.024961,-0.026451,-0.031776,0.018214,0.013216,-0.043913,0.089485,0.0029614,-0.032081,-0.11682,-0.021751,0.24194,-0.005582,-0.029775,0.002301,-0.015085
0.018033,-0.026264,-0.069634,0.015019,0.0099139,0.03848,-0.0054752,-0.012053,0.023309,-0.021017,-0.027824,0.021632,0.0052937,-0.037065,0.073828,0.019988,-0.035936,-0.13151,-0.033862,0.22321,-0.0018256,-0.019086,-0.0016068,-0.018636
0.01746,-0.02474,-0.072113,0.016758,0.0073903,-0.012524,3.6139e-005,-0.029369,0.018003,-0.022577,-0.026424,0.025355,0.0049566,-0.031899,0.063795,0.032194,-0.035243,-0.15043,-0.055324,0.21859,0.0028039,-0.0090733,0.0035846,-0.012041
0.017231,-0.02101,-0.07446,0.014101,0.0074638,-0.071975,-0.0077277,-0.037298,0.011235,-0.02841,-0.026668,0.029052,0.012402,-0.033531,0.058651,0.037395,-0.035431,-0.16679,-0.084498,0.22179,0.0077494,-0.010582,0.017313,-0.0025607
0.017501,-0.017034,-0.075058,0.010159,0.0078831,-0.12514,-0.028959,-0.034378,0.0069164,-0.033649,-0.026011,0.031834,0.021082,-0.040406,0.053642,0.038262,-0.039845,-0.17472,-0.11386,0.22065,0.011985,-0.024706,0.031837,0.00068494
0.016995,-0.014574,-0.073247,0.0091354,0.0058017,-0.16467,-0.053803,-0.021724,0.0082106,-0.035598,-0.023735,0.033079,0.023075,-0.046096,0.045669,0.039532,-0.047021,-0.17374,-0.13482,0.20811,0.013696,-0.040861,0.03893,-0.0055174
0.014417,-0.013573,-0.069653,0.013178,0.00062073,-0.1965,-0.06974,-0.003979,0.01495,-0.034755,-0.022012,0.03336,0.015648,-0.04521,0.036535,0.04356,-0.052375,-0.16842,-0.1431,0.1868,0.010901,-0.045547,0.036907,-0.016041
0.010082,-0.012188,-0.065895,0.021094,-0.0056639,-0.23397,-0.071869,0.011049,0.023201,-0.032365,-0.023493,0.03441,0.0034292,-0.037903,0.030812,0.048375,-0.052269,-0.16366,-0.14036,0.16489,0.0028462,-0.033999,0.031704,-0.022177
0.0059149,-0.008348,-0.063969,0.029502,-0.010645,-0.28455,-0.066607,0.01475,0.027765,-0.027992,-0.028094,0.037824,-0.0054189,-0.029147,0.030948,0.050027,-0.046559,-0.16027,-0.13134,0.14791,-0.0089091,-0.0143,0.031421,-0.019161
0.0037013,-0.001434,-0.065425,0.035078,-0.013832,-0.34075,-0.065301,0.0012971,0.025889,-0.020156,-0.032511,0.043446,-0.0055121,-0.023944,0.034799,0.046931,-0.037691,-0.15504,-0.11955,0.13321,-0.020756,-0.00052892,0.039602,-0.0099186
0.0032965,0.0073046,-0.070423,0.036182,-0.01679,-0.38397,-0.073696,-0.029554,0.019237,-0.0092313,-0.033156,0.048903,0.0022488,-0.023193,0.037943,0.041942,-0.027958,-0.14507,-0.10536,0.11069,-0.028691,-0.0013412,0.053046,-0.0021936
0.0026454,0.015776,-0.077125,0.033148,-0.021089,-0.39788,-0.086986,-0.07231,0.012461,0.0010898,-0.029568,0.050931,0.012396,-0.023836,0.038108,0.040015,-0.017997,-0.13181,-0.087871,0.068229,-0.030288,-0.013944,0.065226,-0.0021879
-0.00033403,0.02241,-0.082095,0.027708,-0.026239,-0.37961,-0.094785,-0.11836,0.0095489,0.0061487,-0.024845,0.047673,0.019668,-0.022571,0.036964,0.043499,-0.0078257,-0.12048,-0.068242,-0.0025069,-0.025714,-0.027937,0.071288,-0.010445
-0.0057507,0.026642,-0.082009,0.022194,-0.029723,-0.33907,-0.090988,-0.15971,0.010944,0.0046267,-0.022605,0.040173,0.022493,-0.019157,0.037523,0.04943,0.0012207,-0.1151,-0.050726,-0.10328,-0.017294,-0.034657,0.070117,-0.022916
-0.011429,0.028394,-0.075812,0.018753,-0.029127,-0.28832,-0.079148,-0.19143,0.013674,0.00041679,-0.023513,0.031846,0.022662,-0.016109,0.040119,0.051435,0.0062642,-0.11396,-0.040159,-0.22991,-0.0081704,-0.033561,0.062827,-0.034982
-0.014469,0.027544,-0.065756,0.018553,-0.024313,-0.23203,-0.068605,-0.21185,0.014135,-0.00029551,-0.024821,0.026246,0.022334,-0.015351,0.041476,0.044703,0.005082,-0.11019,-0.037942,-0.3746,-0.00097296,-0.030873,0.050669,-0.043801
-0.013253,0.024269,-0.056197,0.021199,-0.017609,-0.1681,-0.065522,-0.22104,0.011062,0.0056264,-0.023332,0.024845,0.021614,-0.015451,0.038104,0.02976,-0.0012989,-0.097359,-0.040282,-0.52767,0.0029666,-0.032941,0.035036,-0.046869
-0.0083801,0.019889,-0.050734,0.024942,-0.0119,-0.096596,-0.06758,-0.21954,0.0062846,0.015483,-0.018768,0.026506,0.018883,-0.012464,0.030552,0.011988,-0.0083502,-0.075183,-0.040556,-0.67768,0.0038751,-0.040762,0.018828,-0.039239
-0.0021427,0.016893,-0.049723,0.027858,-0.0084775,-0.02671,-0.067158,-0.20812,0.0029406,0.023196,-0.014166,0.028925,0.013122,-0.0038656,0.023886,-0.0023726,-0.010807,-0.050024,-0.033996,-0.81057,0.0033494,-0.04999,0.0062122,-0.013724
0.0027311,0.01748,-0.050109,0.029323,-0.0065313,0.026635,-0.059364,-0.18869,0.0028489,0.024719,-0.012926,0.030662,0.005691,0.0080949,0.023381,-0.01006,-0.0062769,-0.029698,-0.020784,-0.90946,0.0035946,-0.055334,-0.00029053,0.034491
0.0042475,0.021609,-0.047823,0.030571,-0.0045159,0.054226,-0.046787,-0.16486,0.0052299,0.021325,-0.015429,0.031928,-0.00026589,0.017061,0.029387,-0.011433,0.0033576,-0.017305,-0.005071,-0.95709,0.006098,-0.054808,-0.0027437,0.10212
0.0018739,0.026536,-0.04096,0.033638,-0.00186,0.061124,-0.036389,-0.14114,0.0076175,0.017866,-0.018509,0.033498,-0.0021988,0.017193,0.036467,-0.0080982,0.013869,-0.0096121,0.008961,-0.94104,0.010409,-0.050398,-0.0069051,0.17624
-0.0032725,0.028749,-0.031365,0.03937,0.00068213,0.063705,-0.032002,-0.12105,0.0080062,0.017962,-0.018279,0.034964,-7.4419e-005,0.0080235,0.038058,-0.00046695,0.022156,-0.0010839,0.020387,-0.85994,0.014145,-0.045534,-0.017117,0.23918
-0.008959,0.027013,-0.023433,0.046121,0.0022668,0.077396,-0.030281,-0.10497,0.0064254,0.020897,-0.013591,0.034245,0.0038803,-0.0046955,0.032551,0.012179,0.028229,0.010683,0.031413,-0.72679,0.014722,-0.042378,-0.031327,0.27697
-0.013103,0.023891,-0.02095,0.050461,0.0033999,0.10615,-0.024317,-0.089513,0.0047423,0.023078,-0.006978,0.029176,0.0072405,-0.013157,0.025098,0.029388,0.034229,0.02335,0.044389,-0.56621,0.011729,-0.041209,-0.041485,0.28529
-0.015111,0.024151,-0.024185,0.04958,0.0059711,0.1428,-0.011213,-0.069096,0.0049442,0.02233,-0.0023746,0.019846,0.0092785,-0.013403,0.023215,0.047764,0.04171,0.033222,0.059037,-0.40573,0.0078856,-0.041533,-0.039934,0.26903
-0.01618,0.030984,-0.029281,0.043582,0.011637,0.17875,0.0042669,-0.039326,0.0073057,0.020556,-0.0019107,0.009362,0.011032,-0.0081322,0.029971,0.062034,0.049858,0.039731,0.072492,-0.2653,0.0073018,-0.042903,-0.026501,0.23656
-0.018096,0.042906,-0.030512,0.035733,0.019966,0.21231,0.013999,-0.00026123,0.0099067,0.022068,-0.0046669,0.0019571,0.013704,-0.004125,0.040834,0.068465,0.056223,0.046198,0.081856,-0.15092,0.012088,-0.044376,-0.0096472,0.19391
-0.02144,0.053893,-0.024076,0.030271,0.02815,0.24709,0.014617,0.042698,0.0099244,0.029191,-0.0081896,-0.00019161,0.017081,-0.0065636,0.047069,0.067598,0.059069,0.056064,0.086679,-0.055978,0.020131,-0.043699,-9.297e-005,0.14311
-0.024919,0.057033,-0.01092,0.029377,0.032761,0.28225,0.0112,0.081336,0.0057376,0.039515,-0.010891,0.0012894,0.019533,-0.015095,0.042792,0.063745,0.059034,0.068613,0.089101,0.031206,0.026174,-0.038034,-0.0022594,0.08515
-0.026545,0.049314,0.0035389,0.031717,0.032221,0.30597,0.012509,0.10926,-0.0017922,0.047527,-0.012811,0.0022333,0.019573,-0.024862,0.029698,0.061555,0.058593,0.078837,0.091854,0.11873,0.025631,-0.026359,-0.011038,0.023795
-0.025588,0.034207,0.012946,0.033729,0.027903,0.30109,0.022217,0.12553,-0.0098683,0.049139,-0.014118,-0.00088346,0.017448,-0.031361,0.015643,0.062656,0.05996,0.081915,0.096231,0.2069,0.018149,-0.011294,-0.016668,-0.033964
-0.023306,0.019934,0.014494,0.032589,0.022926,0.25999,0.034894,0.13445,-0.015664,0.044794,-0.013234,-0.0085628,0.015247,-0.034707,0.0085901,0.06524,0.063422,0.077933,0.10178,0.29032,0.0080942,0.0020496,-0.013172,-0.081425
-0.021674,0.01428,0.011038,0.028378,0.019694,0.19526,0.041045,0.14168,-0.018021,0.038301,-0.0070576,-0.018533,0.015334,-0.039546,0.01107,0.06665,0.067418,0.072013,0.10745,0.36379,0.001688,0.0099356,-0.002748,-0.11647
-0.02142,0.01937,0.008985,0.023688,0.018234,0.13461,0.036616,0.14962,-0.017652,0.032832,0.0063035,-0.027955,0.018471,-0.05068,0.019311,0.066346,0.069958,0.069504,0.11263,0.4273,0.0031099,0.013299,0.0074575,-0.14246
-0.02144,0.030219,0.013355,0.021179,0.016621,0.10195,0.027742,0.15591,-0.016003,0.0283,0.024647,-0.035323,0.023219,-0.068081,0.026869,0.066416,0.069875,0.070815,0.11687,0.48666,0.012328,0.017102,0.012634,-0.16456
-0.020178,0.038337,0.023804,0.02137,0.012926,0.099508,0.02592,0.15622,-0.014043,0.022869,0.041736,-0.040497,0.027056,-0.085387,0.029076,0.069313,0.066984,0.070979,0.11927,0.54915,0.025646,0.025861,0.014584,-0.18451
-0.017462,0.03788,0.034857,0.022559,0.0069294,0.10634,0.037975,0.14892,-0.01211,0.016818,0.051079,-0.043423,0.028157,-0.09312,0.024803,0.075168,0.061581,0.064458,0.11853,0.61747,0.03793,0.039283,0.019226,-0.19843
-0.014754,0.02973,0.040244,0.022706,0.00027536,0.095015,0.060265,0.13741,-0.01056,0.014168,0.050718,-0.043335,0.026312,-0.084327,0.015181,0.081375,0.054298,0.05053,0.11424,0.68619,0.044887,0.052168,0.030223,-0.19962
-0.013567,0.020365,0.037852,0.021237,-0.0048117,0.052634,0.08246,0.12803,-0.010083,0.019485,0.044972,-0.03945,0.022445,-0.058901,0.0016441,0.084915,0.046518,0.034029,0.10795,0.74367,0.044528,0.058871,0.045146,-0.18409
-0.013808,0.016531,0.031315,0.01904,-0.0070361,-0.010611,0.097073,0.12532,-0.011028,0.032422,0.041325,-0.03235,0.017547,-0.024054,-0.014539,0.085255,0.040499,0.020671,0.10248,0.7788,0.037759,0.058156,0.057769,-0.15417
-0.013936,0.020118,0.027088,0.016911,-0.0066638,-0.070888,0.10551,0.12881,-0.012478,0.04572,0.044734,-0.024324,0.01225,0.0090445,-0.031446,0.085085,0.038351,0.011525,0.099783,0.78818,0.028069,0.053858,0.063871,-0.11725
-0.012779,0.027316,0.029563,0.014366,-0.0050869,-0.10823,0.11519,0.13405,-0.012391,0.049756,0.054027,-0.017936,0.0072816,0.030532,-0.046309,0.088111,0.04032,0.0020164,0.099266,0.77866,0.020045,0.050848,0.064677,-0.080944
-0.01097,0.032362,0.038116,0.01026,-0.0038861,-0.11704,0.13104,0.13694,-0.0091482,0.040453,0.063342,-0.013942,0.0038331,0.036452,-0.057044,0.095812,0.043941,-0.013483,0.098534,0.76304,0.01696,0.050409,0.064742,-0.048481
-0.010295,0.032322,0.048102,0.0045978,-0.0040345,-0.10337,0.1501,0.13726,-0.0031898,0.023413,0.06729,-0.010487,0.0028894,0.030507,-0.064271,0.10602,0.045269,-0.03585,0.095986,0.75177,0.018722,0.049648,0.066859,-0.017979
-0.01153,0.028786,0.054479,-0.0005655,-0.0055401,-0.075551,0.16442,0.1386,0.0029425,0.009957,0.06534,-0.0045205,0.0038936,0.021946,-0.071494,0.11459,0.04156,-0.059715,0.092807,0.74679,0.02194,0.045366,0.06945,0.014452
-0.013122,0.025465,0.055029,-0.0024011,-0.0075516,-0.039303,0.16898,0.14479,0.0064378,0.0080521,0.061734,0.0056198,0.0043576,0.020338,-0.082574,0.11873,0.033335,-0.077685,0.092117,0.74207,0.022522,0.0382,0.069066,0.05054
-0.012334,0.024406,0.051041,0.00020473,-0.0088643,-0.00052275,0.16645,0.15623,0.0063409,0.016092,0.061316,0.018628,0.0015094,0.030004,-0.098347,0.119,0.024053,-0.086251,0.095826,0.72994,0.019071,0.032597,0.065055,0.087845
-0.0079297,0.02443,0.045699,0.0053143,-0.0086621,0.030726,0.16422,0.16932,0.0040646,0.025037,0.065242,0.030999,-0.0050002,0.047659,-0.11527,0.11826,0.017619,-0.087831,0.10219,0.7079,0.014177,0.032544,0.061087,0.12109
-0.00173,0.022913,0.04189,0.0091523,-0.0071043,0.043196,0.16693,0.1793,0.0019491,0.026769,0.070408,0.039555,-0.011867,0.065152,-0.1274,0.11824,0.015752,-0.087278,0.10665,0.68033,0.012204,0.037436,0.061512,0.14537
0.0027072,0.018726,0.040886,0.0089053,-0.0052989,0.033764,0.17208,0.18374,0.001368,0.020839,0.072775,0.043683,-0.014069,0.075545,-0.13005,0.11681,0.017197,-0.086533,0.10556,0.6542,0.015188,0.042476,0.06618,0.15881
0.0032124,0.013366,0.042171,0.004712,-0.0045464,0.013557,0.173,0.18355,0.0021107,0.013647,0.071233,0.045573,-0.0088256,0.077971,-0.12227,0.10861,0.01911,-0.082804,0.099254,0.63325,0.020466,0.043341,0.069404,0.16286
0.0010133,0.009409,0.043926,-0.00073405,-0.0053474,0.0025222,0.16579,0.1808,0.003289,0.011433,0.068374,0.048462,0.0017216,0.077435,-0.10663,0.088821,0.019152,-0.07189,0.091588,0.61584,0.022438,0.040451,0.064859,0.16062
-0.00036028,0.0081735,0.043838,-0.0043991,-0.0069737,0.014903,0.15317,0.17563,0.0044954,0.014165,0.067772,0.05445,0.011647,0.079907,-0.08706,0.057236,0.016594,-0.053036,0.086257,0.59811,0.017244,0.038444,0.052095,0.15451
0.001667,0.0089373,0.040176,-0.0049705,-0.0080073,0.047753,0.14168,0.16531,0.005952,0.01607,0.070638,0.063536,0.015496,0.087163,-0.067055,0.019262,0.011958,-0.0302,0.083357,0.57943,0.0063429,0.041211,0.038155,0.14506
0.0063225,0.010176,0.032888,-0.0032791,-0.0074289,0.082951,0.13549,0.14643,0.0077364,0.011809,0.074979,0.07432,0.012186,0.09597,-0.04932,-0.017185,0.0060862,-0.0083474,0.079562,0.56482,-0.0043469,0.047341,0.032102,0.13148
0.010193,0.011179,0.024018,-0.0012046,-0.0053103,0.1013,0.13316,0.11831,0.0092259,0.0019887,0.077703,0.085416,0.0054485,0.10203,-0.03609,-0.046384,-0.00029306,0.011328,0.071668,0.56217,-0.0092005,0.050563,0.037055,0.11316
0.01035,0.012334,0.016861,-0.00029782,-0.0024849,0.096578,0.13012,0.084442,0.0095237,-0.0072064,0.077311,0.096345,0.00075188,0.10454,-0.028852,-0.067406,-0.0063519,0.03221,0.059948,0.57627,-0.0074844,0.045093,0.047093,0.091048
0.0069773,0.014096,0.014157,-0.0011557,0.00049117,0.077817,0.12384,0.050543,0.0083752,-0.0095323,0.07468,0.1074,0.0015478,0.10676,-0.027236,-0.082764,-0.011065,0.058142,0.047959,0.60453,-0.0037837,0.031147,0.052148,0.067691
0.0030871,0.016095,0.016503,-0.0036366,0.0040544,0.059327,0.11605,0.02111,0.0064753,-0.0038987,0.071736,0.11885,0.0077552,0.11204,-0.02846,-0.094873,-0.013822,0.08859,0.039038,0.63748,-0.0039282,0.015686,0.046634,0.045955
0.0017254,0.017458,0.022107,-0.0073663,0.0091957,0.048429,0.11009,-0.0024982,0.004782,0.0053115,0.069793,0.13012,0.016923,0.11936,-0.02861,-0.10389,-0.015312,0.11809,0.03321,0.6638,-0.010031,0.0075783,0.034021,0.027465
0.0033219,0.01783,0.02796,-0.012064,0.016093,0.041784,0.10678,-0.020735,0.0036275,0.012386,0.06917,0.13924,0.026182,0.12316,-0.025321,-0.10885,-0.017532,0.14049,0.027847,0.67578,-0.018897,0.011116,0.023281,0.012003
0.00559,0.017761,0.031514,-0.017581,0.023068,0.031997,0.10336,-0.032958,0.0026366,0.014583,0.069813,0.14299,0.033128,0.1177,-0.019648,-0.11054,-0.02231,0.15367,0.021543,0.67158,-0.024918,0.022961,0.020643,-0.0015586
0.0058837,0.017966,0.031761,-0.02371,0.027107,0.016641,0.096745,-0.036306,0.001488,0.012992,0.071536,0.13789,0.035695,0.10178,-0.01519,-0.11253,-0.029258,0.16006,0.017069,0.65322,-0.024714,0.034642,0.024329,-0.013467
0.003686,0.018368,0.029331,-0.029819,0.02597,0.00070613,0.087225,-0.028054,0.00053022,0.010255,0.07339,0.12221,0.032496,0.079028,-0.014921,-0.11861,-0.035068,0.16323,0.019798,0.62304,-0.019539,0.038387,0.026922,-0.022015
0.0009626,0.018197,0.025878,-0.03454,0.0203,-0.009111,0.078488,-0.0094893,0.00042584,0.0081199,0.073236,0.097967,0.024198,0.05337,-0.018415,-0.12881,-0.035393,0.16492,0.032476,0.58222,-0.013833,0.031941,0.02276,-0.02436
0.00023983,0.017147,0.023252,-0.035931,0.013742,-0.011744,0.073542,0.012682,0.0012007,0.0069882,0.068859,0.071249,0.014574,0.024073,-0.02211,-0.13803,-0.028331,0.16576,0.051254,0.53262,-0.011613,0.019281,0.013193,-0.01891
0.0023364,0.016324,0.022737,-0.032412,0.01046,-0.013165,0.070831,0.029576,0.0018994,0.0068681,0.060182,0.049575,0.0091516,-0.014662,-0.022612,-0.13953,-0.016744,0.16808,0.067335,0.47965,-0.013887,0.0073944,0.0049188,-0.0073955
0.0057964,0.017698,0.024517,-0.024046,0.011802,-0.020732,0.064852,0.035916,0.001462,0.0078934,0.050421,0.037558,0.011457,-0.068632,-0.020125,-0.13068,-0.0069809,0.17598,0.073576,0.43225,-0.018803,0.0017451,0.0033983,0.0053528
0.0083361,0.022332,0.027642,-0.013077,0.015066,-0.036419,0.05119,0.033575,-9.2546e-006,0.0098341,0.044443,0.033935,0.019589,-0.13734,-0.01873,-0.116,-0.004358,0.19098,0.070416,0.39834,-0.023722,0.0033662,0.0078621,0.01425
0.0087964,0.029003,0.03063,-0.0029185,0.015832,-0.055686,0.031258,0.029686,-0.0010741,0.011818,0.045116,0.032738,0.026538,-0.21203,-0.022894,-0.10416,-0.0087774,0.20756,0.065636,0.37869,-0.027048,0.0088783,0.01248,0.017479
0.0078337,0.034642,0.032441,0.0039656,0.012166,-0.072879,0.012036,0.030757,-0.00033672,0.013294,0.050719,0.028132,0.024867,-0.27983,-0.033094,-0.1013,-0.014351,0.21486,0.067759,0.36448,-0.02846,0.012883,0.012065,0.017846
0.0069298,0.036396,0.033117,0.0077118,0.0068822,-0.087519,0.00072963,0.037671,0.001883,0.015312,0.055937,0.019099,0.01247,-0.33072,-0.044566,-0.10613,-0.013905,0.20524,0.078742,0.34194,-0.028015,0.011152,0.0065191,0.020606
0.0068422,0.033611,0.033519,0.010776,0.0053976,-0.10507,-0.00088474,0.045524,0.0034261,0.020075,0.055934,0.0099413,-0.0053187,-0.36125,-0.050655,-0.11108,-0.0050189,0.18243,0.092415,0.30157,-0.025516,0.0029974,2.5947e-006,0.029165
0.0069613,0.028148,0.034331,0.015838,0.010682,-0.13132,0.0026269,0.048012,0.0021692,0.028337,0.050178,0.006073,-0.019334,-0.3722,-0.048214,-0.10838,0.0075001,0.16055,0.1,0.245,-0.020934,-0.0083006,-0.0036607,0.041848
0.0060519,0.022872,0.035178,0.023582,0.019845,-0.1657,0.0047843,0.042379,-0.0017192,0.037047,0.042725,0.0088447,-0.023258,-0.36249,-0.040403,-0.095743,0.015107,0.1529,0.097675,0.18377,-0.015243,-0.017417,-0.0043028,0.05217
0.0035699,0.019644,0.034645,0.032195,0.025862,-0.20019,0.0026612,0.031051,-0.0053973,0.040363,0.038677,0.014102,-0.018099,-0.32559,-0.034286,-0.077026,0.012365,0.15994,0.089252,0.13057,-0.010401,-0.020438,-0.0043253,0.052408
0.00030796,0.018403,0.031228,0.038919,0.023385,-0.22484,-0.0015541,0.019348,-0.0054977,0.034247,0.039769,0.015815,-0.010923,-0.25278,-0.035064,-0.058024,0.0014749,0.16806,0.081879,0.089998,-0.0080486,-0.017774,-0.0050552,0.037932
-0.0021996,0.017861,0.024455,0.042256,0.013615,-0.23508,-0.0038682,0.01188,-0.0010445,0.020851,0.042814,0.011477,-0.0089899,-0.14198,-0.041814,-0.041628,-0.009352,0.16145,0.078974,0.056764,-0.0079965,-0.014171,-0.0050328,0.0094905
-0.0029769,0.01707,0.015309,0.042956,0.0036781,-0.23432,-0.0030213,0.010524,0.0055021,0.0081215,0.042313,0.0043669,-0.014119,-0.0050244,-0.048383,-0.026599,-0.012293,0.13667,0.077268,0.022895,-0.0081187,-0.015178,-0.0023014,-0.027611
-0.0024789,0.01651,0.0057257,0.04311,0.00075865,-0.22989,-0.0017801,0.014681,0.010127,0.0039954,0.035047,0.00064566,-0.021704,0.13342,-0.048567,-0.010302,-0.005698,0.10643,0.070592,-0.012246,-0.0061368,-0.022428,0.0019673,-0.066434
-0.0022596,0.017791,-0.0023186,0.044296,0.0059622,-0.22611,-0.0039909,0.022376,0.010473,0.0099266,0.022852,0.0039167,-0.024772,0.24629,-0.040963,0.0078852,0.0054001,0.088505,0.056566,-0.038334,-0.001891,-0.031747,0.002994,-0.10153
-0.0036556,0.022107,-0.0074493,0.046343,0.013271,-0.22048,-0.010575,0.030799,0.0075427,0.019746,0.011291,0.012053,-0.019415,0.31748,-0.029334,0.025836,0.013988,0.089891,0.039546,-0.040652,0.0020368,-0.036339,-0.0036762,-0.13083
-0.0065417,0.028581,-0.0090421,0.047575,0.014493,-0.2053,-0.018525,0.036409,0.0044578,0.025316,0.0053028,0.018954,-0.0072248,0.3486,-0.018502,0.040907,0.016565,0.10104,0.026962,-0.011823,0.0021705,-0.032839,-0.017476,-0.15603
-0.0092352,0.033941,-0.0072084,0.046133,0.0059159,-0.17254,-0.023874,0.035748,0.003521,0.023961,0.0054457,0.019544,0.0066734,0.35471,-0.0099311,0.05248,0.014836,0.10546,0.022606,0.041064,-0.0029925,-0.024863,-0.032328,-0.18166
-0.0097423,0.034205,-0.002907,0.041295,-0.0089339,-0.11755,-0.025751,0.027196,0.0043511,0.02059,0.007817,0.01366,0.017653,0.3529,-0.0011618,0.062219,0.012859,0.095507,0.023394,0.099943,-0.01159,-0.020223,-0.041412,-0.21315
-0.0074165,0.027549,0.0020635,0.033939,-0.022436,-0.040001,-0.027599,0.012283,0.004698,0.022313,0.0076714,0.0056888,0.024142,0.35276,0.01056,0.071982,0.012975,0.079326,0.022645,0.14695,-0.019697,-0.023607,-0.042873,-0.25416
-0.0036516,0.01622,0.0057094,0.026037,-0.028858,0.056485,-0.034332,-0.0051307,0.0029075,0.030648,0.0035728,0.00057891,0.027216,0.35483,0.024251,0.081674,0.014379,0.07274,0.016635,0.17425,-0.024091,-0.031201,-0.040943,-0.30373
-0.00093696,0.0056503,0.0070796,0.019638,-0.028046,0.16408,-0.04798,-0.021683,-0.00053285,0.039143,-0.0015588,-0.00020816,0.028665,0.35581,0.034869,0.089211,0.015129,0.084123,0.0080895,0.18533,-0.023977,-0.032676,-0.041292,-0.35441
-0.00095188,0.00091315,0.00711,0.015966,-0.024162,0.27031,-0.065729,-0.036958,-0.0038461,0.03915,-0.0034251,0.00050202,0.029862,0.35387,0.037168,0.09255,0.014913,0.10675,0.003408,0.18858,-0.020368,-0.019527,-0.045139,-0.39313
-0.0032374,0.0030143,0.0079556,0.015046,-0.021269,0.35982,-0.082101,-0.052953,-0.0061075,0.028449,-0.00063774,-0.0016272,0.03218,0.34918,0.030163,0.091743,0.015471,0.12537,0.0064322,0.19008,-0.014212,0.0073829,-0.047989,-0.40534
-0.0055628,0.008051,0.010941,0.015901,-0.019908,0.4195,-0.093272,-0.070528,-0.0081849,0.014174,0.0036691,-0.0087145,0.037611,0.34073,0.018062,0.089096,0.018343,0.12996,0.014701,0.19172,-0.0055313,0.037986,-0.044291,-0.38129
-0.0057137,0.010168,0.014849,0.017092,-0.017338,0.44413,-0.09968,-0.085912,-0.011317,0.0067258,0.0045152,-0.019086,0.048066,0.32475,0.0069432,0.087366,0.022478,0.12345,0.02153,0.19436,0.0054305,0.061002,-0.033413,-0.32135
-0.0032758,0.006092,0.016431,0.017299,-0.010588,0.43815,-0.10474,-0.090957,-0.014877,0.010133,-0.00032449,-0.02883,0.063571,0.29746,0.0003304,0.087691,0.024437,0.11665,0.021737,0.20019,0.016488,0.072697,-0.02094,-0.23695
-3.1596e-005,-0.0024162,0.013124,0.015799,0.0006728,0.41155,-0.11116,-0.077931,-0.016023,0.018082,-0.0080676,-0.034814,0.081202,0.25946,-0.0024442,0.089006,0.021233,0.11662,0.015716,0.2102,0.023608,0.07857,-0.013875,-0.14589
0.0012812,-0.010141,0.0056798,0.012799,0.013684,0.37289,-0.11871,-0.04548,-0.012163,0.019663,-0.013249,-0.036558,0.096161,0.21657,-0.0041408,0.089207,0.013172,0.12028,0.0084909,0.2186,0.023524,0.08676,-0.014368,-0.064538
-0.0010925,-0.012625,-0.0019132,0.0095128,0.024329,0.32505,-0.12543,-0.00087676,-0.0040349,0.0096022,-0.012627,-0.035767,0.10433,0.17537,-0.0063344,0.086893,0.0039664,0.11929,0.005081,0.21123,0.016832,0.099635,-0.018027,-0.0012304
-0.0066025,-0.0094943,-0.0054864,0.0077584,0.029277,0.26687,-0.13089,0.043655,0.0038471,-0.0066053,-0.0082084,-0.034426,0.10418,0.13739,-0.0081747,0.082209,-0.002024,0.11023,0.0064235,0.17217,0.0085106,0.11155,-0.018334,0.045108
-0.012472,-0.0043378,-0.0040969,0.0090223,0.027188,0.19831,-0.13743,0.077941,0.0064189,-0.017442,-0.0055828,-0.033368,0.096553,0.098157,-0.0078837,0.076361,-0.0029955,0.099389,0.0090375,0.095412,0.0047872,0.11465,-0.012712,0.080974
-0.015117,-0.0015859,-0.00060188,0.013427,0.018958,0.12386,-0.14745,0.098875,0.0023614,-0.015488,-0.0090792,-0.032387,0.083104,0.052434,-0.004854,0.070472,-0.00063555,0.096916,0.0080653,-0.0075585,0.0086037,0.10683,-0.0042884,0.11226
-0.012171,-0.0031355,0.0012198,0.019416,0.0074957,0.051128,-0.15923,0.10991,-0.004492,-0.0035832,-0.018146,-0.031411,0.065277,0.00073105,-7.6016e-006,0.064798,0.0017362,0.1062,0.00081503,-0.11133,0.017478,0.094143,0.0021114,0.14058
-0.0040808,-0.007317,0.00032178,0.024643,-0.0029946,-0.01349,-0.16607,0.1162,-0.0081976,0.00823,-0.028167,-0.031355,0.044772,-0.049418,0.0055785,0.058773,0.0019357,0.11939,-0.011791,-0.18994,0.025705,0.085283,0.0054392,0.16395
0.0057325,-0.010617,-0.00065714,0.027568,-0.0086198,-0.067476,-0.16075,0.11997,-0.0057089,0.011552,-0.034776,-0.033764,0.024448,-0.089194,0.011701,0.051704,0.00020801,0.12381,-0.026322,-0.23082,0.029107,0.083767,0.0096601,0.18028
0.012542,-0.010453,0.0019463,0.028554,-0.0079335,-0.11105,-0.14194,0.11979,0.00052063,0.0059553,-0.037569,-0.039534,0.0079107,-0.11603,0.018229,0.043567,-0.0017054,0.11355,-0.039139,-0.23951,0.028279,0.085203,0.019439,0.19033
0.013108,-0.006826,0.0091147,0.029493,-0.0030911,-0.14441,-0.11632,0.11375,0.0046483,-0.0023318,-0.039916,-0.047788,-0.0024681,-0.13584,0.023522,0.03547,-0.0024586,0.095043,-0.048229,-0.23285,0.027532,0.082166,0.034672,0.19748
0.0078652,-0.0018966,0.017978,0.03223,0.0013924,-0.16727,-0.09362,0.10286,0.0024287,-0.0070004,-0.045339,-0.055812,-0.0073136,-0.1577,0.024479,0.029421,-0.0021237,0.081299,-0.053751,-0.22679,0.030559,0.071726,0.049551,0.20495
0.00077367,0.0018784,0.024289,0.037021,0.0018694,-0.18178,-0.078755,0.091366,-0.005229,-0.0067469,-0.054042,-0.060152,-0.0097993,-0.18583,0.019051,0.027252,-0.0016829,0.080155,-0.057404,-0.22764,0.036751,0.058323,0.057388,0.21303
-0.0033688,0.0035212,0.026145,0.042213,-0.0016505,-0.19502,-0.068178,0.083919,-0.013087,-0.0046376,-0.062702,-0.058169,-0.013068,-0.21623,0.008998,0.02899,-0.0018657,0.087476,-0.061149,-0.23193,0.041544,0.049345,0.056605,0.21841
-0.0023206,0.004017,0.025356,0.045241,-0.0056194,-0.2169,-0.054133,0.082348,-0.015883,-0.0036254,-0.067324,-0.049177,-0.017858,-0.24095,-0.00026497,0.031673,-0.0026256,0.091552,-0.065911,-0.23241,0.040509,0.047873,0.05194,0.21631
0.0021535,0.0053365,0.025231,0.044086,-0.006092,-0.25327,-0.032826,0.084909,-0.012335,-0.0034434,-0.066195,-0.03468,-0.022652,-0.25591,-0.0033473,0.029921,-0.0036293,0.084225,-0.070866,-0.22442,0.033475,0.049643,0.049502,0.20347
0.0059904,0.0088471,0.027073,0.038223,-0.0022496,-0.29958,-0.0086436,0.088482,-0.0055653,-0.0017788,-0.060324,-0.017756,-0.026188,-0.26524,0.00097904,0.018714,-0.0049991,0.068158,-0.073787,-0.2081,0.024939,0.047084,0.050461,0.18005
0.0062452,0.014314,0.02894,0.028723,0.0028426,-0.34161,0.0097803,0.091508,2.7685e-005,0.0023048,-0.051612,-0.0019789,-0.029728,-0.27836,0.0091007,-0.0029456,-0.0073724,0.053723,-0.07242,-0.18622,0.020369,0.036444,0.049734,0.14938
0.0032584,0.02017,0.027978,0.017729,0.0050072,-0.36417,0.017887,0.095108,0.002424,0.0069321,-0.041153,0.0097076,-0.036601,-0.30221,0.016102,-0.030143,-0.011199,0.049058,-0.066133,-0.16066,0.021775,0.021193,0.041329,0.11615
-0.00021461,0.024747,0.023972,0.0076391,0.0027957,-0.3618,0.019742,0.10172,0.0029527,0.0096116,-0.02948,0.015895,-0.04924,-0.33452,0.020151,-0.053968,-0.016054,0.053116,-0.056642,-0.13041,0.026503,0.0086146,0.025309,0.084327
-0.0018575,0.02739,0.020373,0.00022425,-0.0011153,-0.34273,0.024214,0.11274,0.0040527,0.010422,-0.018004,0.017139,-0.066513,-0.36228,0.023519,-0.066604,-0.020714,0.057958,-0.047011,-0.092479,0.030129,0.0030409,0.0093158,0.056083
-0.0017768,0.028583,0.021387,-0.0039937,-0.0023128,-0.32246,0.036343,0.12734,0.006262,0.012285,-0.0093594,0.015667,-0.084076,-0.36556,0.029425,-0.066231,-0.023897,0.057121,-0.039452,-0.044781,0.030515,0.0022174,0.0025526,0.03189
-0.0017899,0.029066,0.027647,-0.0057022,0.001333,-0.31171,0.052227,0.14327,0.0074425,0.01758,-0.0056123,0.014287,-0.097548,-0.32395,0.038129,-0.058026,-0.024945,0.051152,-0.033653,0.01051,0.029209,-2.5427e-006,0.0074402,0.011371
-0.0030101,0.028851,0.034696,-0.0060016,0.0077504,-0.30847,0.06238,0.15853,0.0049833,0.024593,-0.0059465,0.014898,-0.10559,-0.22391,0.046373,-0.050263,-0.023929,0.045007,-0.027282,0.065385,0.02919,-0.0076711,0.016851,-0.0059356
-0.0044362,0.027116,0.036173,-0.0054403,0.012682,-0.3005,0.060378,0.17218,-0.0011913,0.028003,-0.006568,0.017478,-0.10996,-0.065806,0.050678,-0.048306,-0.021386,0.040931,-0.018563,0.10761,0.031485,-0.019523,0.019885,-0.020367
-0.0040927,0.023102,0.029194,-0.0037822,0.01376,-0.276,0.048564,0.18336,-0.0078078,0.023733,-0.0035967,0.020326,-0.11259,0.13124,0.050914,-0.051017,-0.018238,0.035113,-0.008708,0.1255,0.034135,-0.031506,0.011181,-0.032369
-0.0014463,0.017188,0.017147,-0.000801,0.012745,-0.23329,0.035613,0.18984,-0.010573,0.013729,0.0034477,0.021516,-0.11275,0.33087,0.050244,-0.05227,-0.015957,0.022045,-0.0016395,0.11349,0.034352,-0.042064,-0.0046716,-0.042669
0.001632,0.011087,0.0071459,0.0027132,0.013686,-0.18174,0.028628,0.18795,-0.0076347,0.0055768,0.010982,0.02048,-0.10747,0.49044,0.051422,-0.046207,-0.016399,0.0017531,-0.00063861,0.075159,0.031529,-0.05428,-0.017452,-0.051963
0.0025719,0.0068628,0.0041214,0.0049795,0.018693,-0.13363,0.027495,0.17481,-0.0010734,0.0064568,0.014456,0.018371,-0.094991,0.57864,0.053363,-0.032064,-0.020811,-0.018515,-0.0047218,0.021482,0.028046,-0.07225,-0.02009,-0.060181
0.00074924,0.0056001,0.0066197,0.004629,0.025452,-0.094682,0.026578,0.15145,0.0048235,0.016559,0.012437,0.01686,-0.078102,0.59008,0.051838,-0.014957,-0.028509,-0.030888,-0.0084495,-0.034373,0.027227,-0.095141,-0.01379,-0.065921
-0.0018485,0.0069071,0.0080031,0.0023276,0.029097,-0.061332,0.021458,0.12379,0.0068406,0.028233,0.0077891,0.016443,-0.06349,0.54615,0.043935,-0.0024678,-0.036502,-0.035363,-0.006165,-0.082071,0.030553,-0.11525,-0.0053752,-0.066615
-0.0028664,0.009703,0.0020831,0.00090732,0.026883,-0.026371,0.013665,0.099941,0.0047472,0.032195,0.0047776,0.015907,-0.057165,0.48004,0.03189,-3.9101e-005,-0.040951,-0.041015,0.002622,-0.11585,0.036679,-0.1228,-0.00040565,-0.05952
-0.0024671,0.013457,-0.011593,0.0034473,0.02124,0.013101,0.0088251,0.085092,0.00049875,0.025522,0.0049442,0.013568,-0.059741,0.41601,0.022183,-0.0086324,-0.039722,-0.057697,0.011733,-0.13321,0.042787,-0.11366,0.00081651,-0.043071
-0.0036011,0.018484,-0.027195,0.010695,0.018121,0.053055,0.010446,0.07816,-0.0039651,0.014244,0.0058203,0.0091564,-0.066065,0.35808,0.020331,-0.025669,-0.034067,-0.085955,0.012745,-0.13351,0.046587,-0.092872,0.00097635,-0.017922
-0.0089225,0.02475,-0.037078,0.020081,0.021958,0.087128,0.015911,0.07308,-0.007958,0.0081353,0.0036884,0.0044629,-0.069928,0.29614,0.026137,-0.047417,-0.027843,-0.11545,0.0020198,-0.11887,0.0472,-0.070502,0.00067568,0.012767
-0.017244,0.030331,-0.037388,0.027401,0.031806,0.11307,0.018764,0.064012,-0.011411,0.012408,-0.0024205,0.0019492,-0.069877,0.22279,0.033934,-0.070301,-0.024691,-0.1343,-0.015767,-0.096448,0.04478,-0.053574,-0.0032708,0.043984
-0.023376,0.031471,-0.030305,0.029956,0.042224,0.13417,0.014915,0.050111,-0.01368,0.023735,-0.0094426,0.002502,-0.070786,0.14501,0.037764,-0.090456,-0.02543,-0.14098,-0.030968,-0.078719,0.040032,-0.041304,-0.014052,0.070394
-0.022186,0.025104,-0.021548,0.028581,0.048042,0.1543,0.0064653,0.035741,-0.013626,0.033776,-0.012843,0.0044908,-0.079495,0.080251,0.03675,-0.10311,-0.027829,-0.14707,-0.036492,-0.079311,0.034378,-0.027792,-0.029735,0.088267
-0.01344,0.012236,-0.015734,0.026876,0.04856,0.17212,-0.0006193,0.02603,-0.011063,0.036408,-0.010378,0.0051604,-0.098168,0.040818,0.035795,-0.10372,-0.028855,-0.16775,-0.03305,-0.10615,0.0301,-0.0091219,-0.042692,0.096793
-0.0027747,-0.00092673,-0.013537,0.02828,0.047367,0.18113,-0.0026043,0.021888,-0.0077475,0.031882,-0.0035279,0.0031506,-0.12123,0.021989,0.041148,-0.090621,-0.027359,-0.20809,-0.027683,-0.15671,0.029395,0.012161,-0.044896,0.097675
0.0025946,-0.0060557,-0.012568,0.033364,0.04821,0.17619,-0.00176,0.019126,-0.006285,0.024737,0.004269,-0.00025781,-0.13858,0.0055221,0.055092,-0.06707,-0.024874,-0.2577,-0.027208,-0.21935,0.032515,0.02941,-0.034278,0.092881
-8.6143e-005,0.0015319,-0.010598,0.039461,0.051003,0.16013,-0.0041759,0.012422,-0.0076279,0.018637,0.010239,-0.0024345,-0.14237,-0.024135,0.074498,-0.040033,-0.023983,-0.29848,-0.032623,-0.28018,0.036788,0.038441,-0.016135,0.08215
-0.0067207,0.018722,-0.0080371,0.042756,0.05181,0.14351,-0.013851,0.00032925,-0.0098004,0.013809,0.013113,-0.0020397,-0.13158,-0.065832,0.094002,-0.016073,-0.025894,-0.31881,-0.039278,-0.33082,0.03806,0.04161,0.0016569,0.06276
-0.009908,0.035857,-0.0077283,0.041106,0.046751,0.13683,-0.028785,-0.013385,-0.0096204,0.009245,0.012128,-0.00044441,-0.11112,-0.10285,0.11016,0.002834,-0.029436,-0.32152,-0.041996,-0.37182,0.033967,0.045323,0.014928,0.032695
-0.0053792,0.043143,-0.012561,0.035474,0.036106,0.14211,-0.042639,-0.023257,-0.006116,0.0062432,0.0064565,-0.00050431,-0.087132,-0.118,0.12254,0.020129,-0.032202,-0.31957,-0.039901,-0.40999,0.02629,0.053519,0.025244,-0.004635
0.00434,0.037586,-0.023132,0.029149,0.024781,0.1516,-0.050114,-0.027113,-0.0021602,0.0083651,-0.0034234,-0.0038567,-0.063063,-0.10854,0.13136,0.041318,-0.032554,-0.32384,-0.036444,-0.45192,0.019947,0.063736,0.0365,-0.03805
0.012187,0.024937,-0.037248,0.025495,0.018722,0.15489,-0.050931,-0.027899,-0.0021815,0.017099,-0.01391,-0.0093886,-0.039539,-0.087181,0.13512,0.06895,-0.030593,-0.33416,-0.035166,-0.49808,0.019092,0.069879,0.050198,-0.05152
0.012586,0.01491,-0.051304,0.025839,0.020462,0.1478,-0.049024,-0.03088,-0.0077056,0.027954,-0.01909,-0.014361,-0.016884,-0.069007,0.1314,0.099884,-0.027358,-0.34064,-0.035878,-0.54102,0.023598,0.069153,0.064273,-0.031505
0.0058829,0.013428,-0.06218,0.028774,0.027562,0.13503,-0.048273,-0.039041,-0.015083,0.032229,-0.015001,-0.017039,0.0032544,-0.05729,0.12034,0.12695,-0.02332,-0.33304,-0.035208,-0.56829,0.02917,0.066264,0.076035,0.025576
-0.0024361,0.018262,-0.068262,0.031188,0.03498,0.12452,-0.049052,-0.050951,-0.018097,0.024208,-0.0040103,-0.018235,0.019056,-0.042246,0.10658,0.14368,-0.017889,-0.30943,-0.030784,-0.56838,0.031182,0.070305,0.085304,0.1105
-0.0065768,0.021583,-0.069312,0.030335,0.039047,0.11961,-0.048578,-0.062723,-0.013477,0.0073684,0.0054618,-0.020355,0.030771,-0.01385,0.096873,0.14853,-0.010503,-0.277,-0.024493,-0.53651,0.028841,0.086682,0.093893,0.20477
-0.0048013,0.01712,-0.065884,0.025697,0.039705,0.11654,-0.044154,-0.071789,-0.0041537,-0.0070276,0.0050524,-0.025051,0.040902,0.023814,0.094628,0.14534,-0.0021766,-0.24583,-0.021213,-0.47738,0.025882,0.11145,0.10191,0.28859
0.00021931,0.0056749,-0.059017,0.019437,0.039536,0.10937,-0.035907,-0.078781,0.0031097,-0.0088879,-0.0062185,-0.031837,0.051339,0.051028,0.096507,0.14024,0.0042671,-0.22183,-0.024185,-0.40348,0.027068,0.13361,0.10535,0.34867
0.0046235,-0.0056717,-0.050216,0.015006,0.04093,0.09696,-0.02656,-0.085966,0.0037844,0.001811,-0.020176,-0.038772,0.060105,0.046144,0.094636,0.13741,0.0058938,-0.2048,-0.031778,-0.32984,0.033645,0.14384,0.098395,0.38236
0.0066763,-0.0097466,-0.041201,0.014717,0.043972,0.084697,-0.018856,-0.094099,-0.00033942,0.014573,-0.025758,-0.044115,0.061468,0.0025405,0.082978,0.13706,0.002035,-0.19165,-0.039132,-0.26802,0.041849,0.14213,0.079099,0.39635
0.0072912,-0.0053298,-0.033171,0.017938,0.046572,0.078982,-0.01332,-0.10096,-0.0030527,0.017443,-0.018494,-0.047073,0.05033,-0.066281,0.062422,0.13667,-0.0047776,-0.18021,-0.043186,-0.22228,0.045814,0.13766,0.052886,0.40141
0.0080062,0.002089,-0.026184,0.021397,0.046264,0.080163,-0.0083099,-0.10307,0.00010414,0.0077186,-0.0048939,-0.047129,0.027508,-0.13775,0.040193,0.13377,-0.010366,-0.16946,-0.046019,-0.18931,0.042254,0.1409,0.029959,0.40653
0.0090302,0.0051609,-0.019489,0.02156,0.041999,0.081171,-0.0019424,-0.098926,0.007349,-0.0055379,0.0025329,-0.043341,0.0010361,-0.19713,0.024241,0.12775,-0.011854,-0.1567,-0.052962,-0.1613,0.032837,0.15494,0.018126,0.41541
0.0093786,0.00069286,-0.012858,0.017378,0.034711,0.073651,0.0061369,-0.090839,0.012273,-0.0097847,-0.00431,-0.035042,-0.018367,-0.24537,0.017552,0.11933,-0.0096208,-0.13599,-0.067178,-0.13084,0.022398,0.17304,0.017176,0.42687
0.0085555,-0.0081823,-0.0077227,0.011196,0.02668,0.055743,0.014618,-0.083648,0.010079,-0.00067935,-0.022206,-0.023548,-0.024455,-0.29214,0.016987,0.10875,-0.0066007,-0.10111,-0.086031,-0.095683,0.01486,0.18404,0.019848,0.43756
0.007582,-0.014981,-0.0066678,0.0070219,0.020392,0.033765,0.021718,-0.081446,0.0023841,0.013616,-0.039225,-0.012769,-0.019478,-0.34216,0.016911,0.095014,-0.0055688,-0.051369,-0.10293,-0.061038,0.010558,0.1802,0.018607,0.44453
0.0080649,-0.014965,-0.011232,0.0074857,0.017453,0.015948,0.026257,-0.084939,-0.0041228,0.019646,-0.044554,-0.0072161,-0.011702,-0.38849,0.013824,0.076884,-0.0067856,0.0051027,-0.11296,-0.037125,0.0069974,0.16104,0.012147,0.44583
0.010298,-0.0081418,-0.01986,0.011962,0.017774,0.0043854,0.02775,-0.091364,-0.0039405,0.010928,-0.037071,-0.0085002,-0.0084793,-0.41866,0.0079441,0.0548,-0.0080816,0.054769,-0.11697,-0.031404,0.0017848,0.13107,0.0058212,0.43967
0.012548,0.0016578,-0.028236,0.017367,0.019314,-0.0065859,0.025988,-0.096681,0.0021302,-0.0059556,-0.025541,-0.013427,-0.010671,-0.42681,0.0010399,0.031776,-0.0072523,0.08715,-0.12015,-0.039184,-0.0053012,0.095112,0.0056783,0.42418
0.012476,0.010043,-0.03227,0.020854,0.018858,-0.023664,0.021206,-0.098197,0.0079265,-0.017028,-0.020792,-0.015894,-0.01299,-0.41931,-0.0066995,0.012374,-0.0045127,0.10182,-0.12676,-0.039909,-0.012917,0.056427,0.011684,0.39863
0.0094152,0.014734,-0.031358,0.02207,0.013845,-0.046169,0.015005,-0.095846,0.0079341,-0.013215,-0.026997,-0.011471,-0.0096792,-0.40797,-0.017487,0.00060092,-0.0026615,0.108,-0.13589,-0.0051263,-0.020392,0.018262,0.016478,0.36517
0.0052681,0.015967,-0.028823,0.023065,0.0042702,-0.064758,0.010886,-0.091636,0.0025007,0.0018774,-0.039388,-0.00089557,-0.00031735,-0.39716,-0.033731,-0.0017471,-0.0046746,0.11684,-0.14231,0.08364,-0.028995,-0.014491,0.011078,0.32894
0.0030891,0.015165,-0.028866,0.02604,-0.0069437,-0.069248,0.013042,-0.088083,-0.0027182,0.015575,-0.04953,0.010655,0.0094558,-0.37718,-0.055026,0.0045962,-0.010817,0.13259,-0.14128,0.21814,-0.040767,-0.037146,-0.0073603,0.29553
0.0045977,0.013496,-0.032634,0.030944,-0.015811,-0.058294,0.023607,-0.086737,-0.0023655,0.017583,-0.052708,0.017931,0.012939,-0.33065,-0.077143,0.017057,-0.017857,0.14983,-0.13269,0.36112,-0.056089,-0.049412,-0.032626,0.26756
0.0088118,0.011429,-0.037067,0.034999,-0.020178,-0.041333,0.040452,-0.087518,0.0034935,0.0087737,-0.050821,0.019806,0.008605,-0.24709,-0.09391,0.032165,-0.021119,0.15878,-0.12097,0.46303,-0.072526,-0.056872,-0.054095,0.24294
0.012873,0.0091434,-0.037669,0.03458,-0.021244,-0.030478,0.057829,-0.088945,0.0095812,-0.00038262,-0.049042,0.019639,0.0019764,-0.13353,-0.10035,0.046394,-0.017675,0.15406,-0.11109,0.48803,-0.086306,-0.066451,-0.065102,0.21655
0.014162,0.0070275,-0.032619,0.027875,-0.022256,-0.029931,0.070038,-0.089029,0.010487,0.0001873,-0.050298,0.021748,0.001486,-0.01284,-0.094708,0.057006,-0.0081093,0.13943,-0.10474,0.43165,-0.09514,-0.078864,-0.067945,0.18417
0.011837,0.0056957,-0.024392,0.016242,-0.025494,-0.033061,0.075478,-0.086412,0.0055452,0.011123,-0.053024,0.02748,0.012004,0.088866,-0.078425,0.062887,0.0043159,0.12517,-0.099794,0.31853,-0.099716,-0.085466,-0.071462,0.14567
0.0067541,0.0056194,-0.017479,0.0032266,-0.030354,-0.029806,0.077649,-0.081138,-0.0010543,0.023569,-0.05372,0.03454,0.031657,0.15605,-0.054891,0.06495,0.016047,0.12047,-0.092965,0.18403,-0.10242,-0.074111,-0.083513,0.10518
0.00028777,0.0068145,-0.014544,-0.0078452,-0.0344,-0.016976,0.08198,-0.074558,-0.0046333,0.027594,-0.051004,0.039893,0.05432,0.18988,-0.028463,0.065637,0.025175,0.12725,-0.08285,0.055382,-0.10458,-0.0404,-0.10487,0.068036
-0.0065808,0.0088901,-0.014685,-0.015795,-0.036303,-0.0013004,0.091041,-0.068276,-0.0043316,0.021043,-0.046828,0.043087,0.074917,0.20421,-0.0041059,0.067656,0.031738,0.1396,-0.070492,-0.054216,-0.1049,0.0053476,-0.12936,0.036924
-0.013163,0.01134,-0.015138,-0.021628,-0.037566,0.0074751,0.10228,-0.062883,-0.0032394,0.010887,-0.043973,0.046648,0.09245,0.21571,0.013231,0.072691,0.036746,0.14852,-0.057517,-0.13849,-0.10083,0.042418,-0.14938,0.0099561
-0.018408,0.013701,-0.014323,-0.026898,-0.041018,0.0062202,0.11032,-0.057498,-0.0046469,0.0064085,-0.04293,0.053352,0.10846,0.23427,0.020312,0.080811,0.041051,0.14796,-0.044085,-0.18936,-0.091465,0.052972,-0.16163,-0.017913
-0.020756,0.015403,-0.013015,-0.031951,-0.047353,0.0011006,0.11185,-0.050597,-0.0085249,0.010845,-0.041677,0.063412,0.12336,0.25777,0.01771,0.09069,0.044769,0.13801,-0.028723,-0.19745,-0.079299,0.033944,-0.16843,-0.051002
-0.018981,0.015606,-0.012681,-0.035543,-0.053317,0.00092333,0.10858,-0.041402,-0.011817,0.018976,-0.038475,0.074582,0.13493,0.27258,0.01033,0.10016,0.047306,0.12382,-0.0099765,-0.1614,-0.068868,-0.0017618,-0.17442,-0.089055
-0.013383,0.013507,-0.013064,-0.03602,-0.053835,0.0082397,0.10574,-0.030497,-0.012001,0.022273,-0.03437,0.084944,0.14045,0.25964,0.0049999,0.10669,0.047805,0.1119,0.012012,-0.095108,-0.063481,-0.035275,-0.18261,-0.12585
-0.0061572,0.0091742,-0.011832,-0.03292,-0.046539,0.017305,0.10741,-0.018937,-0.0099912,0.016378,-0.03239,0.095114,0.13973,0.20439,0.0061407,0.10779,0.045886,0.10608,0.035593,-0.023622,-0.062865,-0.054492,-0.19322,-0.15113
-0.00035007,0.0041897,-0.0067472,-0.027572,-0.034517,0.020694,0.11299,-0.0066599,-0.0092417,0.0041955,-0.034035,0.10707,0.13538,0.10671,0.012733,0.10173,0.042384,0.10542,0.059033,0.030851,-0.063812,-0.059836,-0.20551,-0.155
0.0019791,0.0011723,0.0019254,-0.022281,-0.024411,0.017454,0.11804,0.0080937,-0.012011,-0.0075294,-0.036828,0.12038,0.12983,-0.01514,0.019335,0.088233,0.039363,0.10487,0.08147,0.061238,-0.063133,-0.060061,-0.21979,-0.13248
0.00098284,0.0021402,0.011399,-0.0189,-0.02132,0.014263,0.11849,0.027297,-0.016777,-0.01421,-0.035951,0.12965,0.12251,-0.13065,0.020713,0.068856,0.038887,0.098286,0.10223,0.07575,-0.06021,-0.06324,-0.23722,-0.086612
-0.0013594,0.0069047,0.018907,-0.017938,-0.025011,0.018464,0.11425,0.050439,-0.019645,-0.016301,-0.028857,0.12655,0.11053,-0.21139,0.016307,0.046262,0.041115,0.082218,0.11943,0.086326,-0.057002,-0.070752,-0.25778,-0.029016
-0.0029321,0.012987,0.024318,-0.018696,-0.030799,0.030283,0.10899,0.072918,-0.018378,-0.01703,-0.018436,0.10549,0.09231,-0.2451,0.010454,0.022891,0.043446,0.058205,0.1299,0.095947,-0.055767,-0.077974,-0.27916,0.022291
-0.003075,0.017311,0.030208,-0.02004,-0.034047,0.042357,0.10647,0.087416,-0.014847,-0.018116,-0.011222,0.068587,0.070275,-0.24011,0.0079616,1.2007e-005,0.042024,0.031958,0.13151,0.09554,-0.056779,-0.079381,-0.2978,0.04723
-0.0027726,0.018249,0.039212,-0.021132,-0.033904,0.047076,0.10715,0.087909,-0.013255,-0.018115,-0.011741,0.025634,0.049391,-0.21663,0.009017,-0.021917,0.034951,0.0097945,0.1259,0.071826,-0.058077,-0.073149,-0.31109,0.029113
-0.0033994,0.016245,0.051123,-0.021759,-0.03289,0.0442,0.10833,0.073701,-0.015852,-0.014847,-0.018036,-0.011266,0.032882,-0.19137,0.0083774,-0.041833,0.024504,-0.0052064,0.11879,0.018009,-0.05724,-0.062358,-0.31819,-0.040795
-0.0052826,0.012708,0.062477,-0.022287,-0.0332,0.040921,0.1075,0.050455,-0.020582,-0.0088483,-0.022711,-0.03438,0.019497,-0.16655,3.9703e-007,-0.057074,0.015994,-0.014462,0.11629,-0.061961,-0.05331,-0.053285,-0.31868,-0.16168
-0.0074389,0.0086189,0.069062,-0.023345,-0.033864,0.044296,0.10545,0.027192,-0.023226,-0.0037931,-0.018967,-0.043594,0.0051973,-0.13106,-0.017005,-0.064147,0.013637,-0.021691,0.11994,-0.15755,-0.047138,-0.052675,-0.31083,-0.32516
-0.0086332,0.004419,0.06925,-0.025309,-0.031816,0.053841,0.10575,0.011212,-0.021938,-0.0031404,-0.0064192,-0.044436,-0.012483,-0.072027,-0.036805,-0.061145,0.016772,-0.029311,0.12454,-0.25843,-0.040092,-0.064994,-0.29202,-0.51888
-0.0085758,0.0010205,0.065403,-0.027787,-0.02573,0.061874,0.11099,0.0043875,-0.01943,-0.0064332,0.0085355,-0.043242,-0.031919,0.012931,-0.051446,-0.049917,0.019888,-0.036742,0.12151,-0.35711,-0.032716,-0.089853,-0.2616,-0.72845
-0.0079933,0.00020933,0.062332,-0.029508,-0.01844,0.061298,0.11949,0.0032536,-0.02029,-0.0092844,0.018243,-0.043501,-0.049244,0.11174,-0.057537,-0.035946,0.016793,-0.042171,0.10525,-0.44615,-0.024742,-0.12046,-0.22337,-0.93631
-0.0075668,0.0032228,0.064079,-0.028905,-0.01509,0.052925,0.12595,0.0024222,-0.02587,-0.0074144,0.020366,-0.045596,-0.062431,0.20444,-0.058812,-0.025459,0.0054941,-0.045996,0.077467,-0.51505,-0.0163,-0.14494,-0.18476,-1.1199
-0.0069991,0.0085797,0.071325,-0.025119,-0.018531,0.044907,0.12566,-0.0014783,-0.031978,-0.00088041,0.019764,-0.048857,-0.073227,0.27419,-0.062144,-0.021616,-0.010464,-0.052297,0.04561,-0.55189,-0.0087496,-0.15134,-0.15272,-1.254
-0.0053627,0.011769,0.081019,-0.018675,-0.026464,0.044876,0.11843,-0.0081768,-0.03209,0.0057674,0.024139,-0.05318,-0.084912,0.31476,-0.070821,-0.022497,-0.025358,-0.066262,0.01687,-0.54985,-0.0039585,-0.13396,-0.1294,-1.3184
-0.0024386,0.008128,0.088221,-0.011248,-0.033273,0.052722,0.10837,-0.015163,-0.023416,0.00771,0.037405,-0.058646,-0.098372,0.33015,-0.081461,-0.022408,-0.036288,-0.089416,-0.0069684,-0.51325,-0.0025588,-0.096593,-0.1116,-1.3078
0.00046443,-0.0029855,0.088959,-0.0046783,-0.034937,0.061197,0.099659,-0.020439,-0.010042,0.0043837,0.056492,-0.064047,-0.11075,0.32893,-0.087401,-0.015719,-0.045293,-0.11704,-0.029339,-0.45763,-0.0030096,-0.049871,-0.094556,-1.2337
0.0013461,-0.016566,0.082523,-1.9486e-005,-0.032345,0.06349,0.092499,-0.024212,0.00010273,-0.00013051,0.074031,-0.066502,-0.11822,0.31797,-0.085176,-0.00085225,-0.056715,-0.14072,-0.053878,-0.40313,-0.0026936,-0.0044894,-0.076443,-1.1165
-0.00056389,-0.025049,0.071984,0.002669,-0.029877,0.059921,0.083102,-0.028376,0.0019081,-0.0011735,0.084219,-0.063137,-0.12011,0.29893,-0.077816,0.017866,-0.072395,-0.15441,-0.079523,-0.36571,-0.00024914,0.0342,-0.059717,-0.97173
-0.0036471,-0.024119,0.062524,0.0037989,-0.030789,0.056993,0.067869,-0.034636,-0.0027195,0.0021046,0.086801,-0.053531,-0.12023,0.26758,-0.071866,0.031407,-0.089186,-0.15871,-0.10045,-0.35168,0.0030617,0.066095,-0.048026,-0.80231
-0.0048173,-0.016394,0.058375,0.003599,-0.03398,0.060039,0.047528,-0.043047,-0.0069495,0.0064102,0.086322,-0.040578,-0.12403,0.21505,-0.071077,0.029743,-0.10109,-0.1594,-0.11096,-0.35778,0.0044071,0.091711,-0.04192,-0.60418
-0.0019293,-0.0096006,0.060125,0.0019078,-0.035276,0.067242,0.027022,-0.052084,-0.0053276,0.0081536,0.088094,-0.028784,-0.13417,0.1316,-0.072843,0.006573,-0.10398,-0.16123,-0.11065,-0.37492,0.0020226,0.10816,-0.037601,-0.38133
0.0043485,-0.01046,0.064287,-0.0015304,-0.031758,0.071307,0.01116,-0.059868,0.0016705,0.0072478,0.094695,-0.021376,-0.14867,0.013147,-0.070733,-0.036844,-0.098648,-0.16268,-0.10512,-0.39243,-0.0030226,0.10999,-0.029982,-0.15609
0.010795,-0.019331,0.065658,-0.0066607,-0.024747,0.067065,0.00031714,-0.065306,0.0088845,0.0067399,0.10551,-0.018713,-0.16271,-0.13155,-0.060714,-0.090729,-0.089613,-0.15703,-0.10149,-0.40133,-0.0076566,0.094235,-0.017146,0.036456
0.013804,-0.030067,0.061011,-0.012979,-0.018498,0.057154,-0.0094912,-0.068208,0.011859,0.0086959,0.11858,-0.019164,-0.17227,-0.27889,-0.045358,-0.13992,-0.081208,-0.13902,-0.10276,-0.3966,-0.0095233,0.0645,-0.0019631,0.16744
0.011707,-0.03512,0.051468,-0.019679,-0.016055,0.049926,-0.022254,-0.068537,0.010856,0.010987,0.13223,-0.021256,-0.17625,-0.39795,-0.032346,-0.17045,-0.074692,-0.11112,-0.10599,-0.37884,-0.0090888,0.029995,0.010595,0.23156
0.0056194,-0.031546,0.041735,-0.02584,-0.016528,0.051611,-0.037755,-0.065668,0.0096965,0.008922,0.14513,-0.024798,-0.17605,-0.46518,-0.028859,-0.17642,-0.068794,-0.082933,-0.10555,-0.35412,-0.0092247,-5.4057e-005,0.01788,0.24862
-0.0014857,-0.022996,0.03675,-0.030481,-0.016499,0.060585,-0.051784,-0.0585,0.011068,0.00053062,0.15544,-0.029953,-0.17408,-0.4768,-0.036808,-0.16314,-0.062459,-0.063631,-0.098082,-0.3315,-0.012746,-0.021826,0.021721,0.2483
-0.006487,-0.01635,0.038269,-0.032636,-0.014012,0.069304,-0.060432,-0.046462,0.013495,-0.010015,0.16094,-0.035545,-0.173,-0.44949,-0.052594,-0.14398,-0.056535,-0.054049,-0.084797,-0.3194,-0.020217,-0.037806,0.026673,0.25187
-0.0074548,-0.016117,0.043934,-0.031685,-0.010941,0.071719,-0.063876,-0.030693,0.013245,-0.015048,0.16043,-0.038769,-0.17571,-0.40837,-0.070742,-0.13273,-0.052533,-0.045975,-0.069643,-0.32362,-0.029883,-0.05312,0.036344,0.26531
-0.0041812,-0.021263,0.049341,-0.027936,-0.011207,0.068665,-0.065614,-0.014369,0.0090742,-0.010353,0.15496,-0.037014,-0.18482,-0.37147,-0.087603,-0.13611,-0.04996,-0.029763,-0.055679,-0.34851,-0.039413,-0.070998,0.051153,0.28692
0.0019074,-0.026697,0.051314,-0.022965,-0.016555,0.066049,-0.067996,-0.0015636,0.0045507,0.00015411,0.14717,-0.030128,-0.20066,-0.34236,-0.10205,-0.15144,-0.045401,-0.0035287,-0.043239,-0.39855,-0.047507,-0.090811,0.069016,0.31829
0.0082343,-0.027661,0.049839,-0.019149,-0.024193,0.068171,-0.068972,0.0050533,0.0050936,0.0070229,0.1392,-0.020706,-0.21958,-0.31469,-0.11339,-0.17036,-0.034826,0.024685,-0.031123,-0.47642,-0.053858,-0.10876,0.087528,0.36604
0.011983,-0.023148,0.047349,-0.018384,-0.028874,0.073301,-0.06386,0.0063374,0.012438,0.0034188,0.13105,-0.01185,-0.23473,-0.28227,-0.11944,-0.18493,-0.017192,0.04406,-0.018926,-0.57675,-0.057973,-0.11881,0.1052,0.43247
0.011366,-0.015869,0.046289,-0.020815,-0.027654,0.076041,-0.050573,0.00689,0.02222,-0.0084681,0.12122,-0.0044159,-0.23995,-0.24465,-0.11697,-0.19154,0.0041291,0.051096,-0.0078383,-0.68118,-0.058588,-0.11264,0.12091,0.50583
0.006666,-0.009455,0.047139,-0.02473,-0.022793,0.073803,-0.032823,0.012536,0.027491,-0.018819,0.10894,0.0035221,-0.23401,-0.20481,-0.10458,-0.19015,0.023644,0.053358,0.00081209,-0.76191,-0.05464,-0.080396,0.1329,0.5624
0.00023642,-0.0057918,0.048476,-0.02794,-0.019902,0.070398,-0.017546,0.02619,0.025007,-0.018397,0.095567,0.014365,-0.22157,-0.16416,-0.085061,-0.18141,0.037801,0.063287,0.0075244,-0.79496,-0.046786,-0.015011,0.13906,0.58097
-0.0048328,-0.004661,0.048713,-0.029644,-0.022845,0.072687,-0.0087521,0.044967,0.01817,-0.0062954,0.083603,0.028049,-0.2094,-0.1218,-0.065152,-0.16507,0.047257,0.087573,0.014914,-0.77446,-0.037598,0.080652,0.13855,0.55812
-0.006567,-0.00538,0.047685,-0.031105,-0.030025,0.083433,-0.004018,0.061223,0.013657,0.0095576,0.074244,0.041395,-0.20078,-0.079217,-0.052269,-0.14162,0.055591,0.12158,0.025909,-0.71561,-0.02982,0.18928,0.13322,0.5106
-0.0051327,-0.0082582,0.046517,-0.034391,-0.035521,0.097588,0.0024594,0.067573,0.014988,0.019268,0.06615,0.050447,-0.19258,-0.044199,-0.050393,-0.11462,0.065971,0.15357,0.041449,-0.64232,-0.024276,0.28333,0.12702,0.4624
-0.002295,-0.014191,0.045993,-0.0402,-0.034179,0.10605,0.012945,0.062595,0.019362,0.01876,0.056893,0.053594,-0.17754,-0.028438,-0.057752,-0.090428,0.078794,0.1747,0.059615,-0.56912,-0.019589,0.33835,0.12366,0.42744
0.00012978,-0.022879,0.045266,-0.046834,-0.02622,0.10361,0.022373,0.052721,0.020865,0.011735,0.04568,0.05253,-0.14969,-0.040098,-0.06755,-0.074304,0.091912,0.18555,0.076706,-0.49335,-0.014087,0.34763,0.12433,0.40168
0.0014807,-0.031785,0.042506,-0.05144,-0.017351,0.093614,0.022057,0.048242,0.016774,0.004863,0.034421,0.050306,-0.10842,-0.078789,-0.071001,-0.066196,0.10247,0.19406,0.089264,-0.40529,-0.0078886,0.32722,0.12749,0.36973
0.0022481,-0.037294,0.037067,-0.052514,-0.014287,0.084968,0.0079799,0.055998,0.010636,0.0014695,0.025832,0.048553,-0.058311,-0.13839,-0.060865,-0.060443,0.1084,0.20717,0.095635,-0.3064,-0.0028161,0.30619,0.13067,0.31838
0.0031825,-0.037339,0.030986,-0.051294,-0.019484,0.084335,-0.014053,0.074309,0.008961,-0.00037507,0.020449,0.046591,-0.005486,-0.21484,-0.034058,-0.050567,0.10875,0.22449,0.096442,-0.21696,-0.00010091,0.30819,0.13247,0.24545
0.0045399,-0.03307,0.02796,-0.050595,-0.029419,0.090785,-0.031621,0.094328,0.01473,-0.0043346,0.015801,0.043051,0.045792,-0.30965,0.0071862,-0.03535,0.1037,0.23939,0.094085,-0.16255,0.0015952,0.33732,0.13305,0.15899
0.006068,-0.027807,0.030328,-0.052112,-0.037596,0.097481,-0.034793,0.10684,0.024064,-0.011181,0.0088971,0.038054,0.093674,-0.42293,0.055682,-0.020617,0.094981,0.24575,0.091661,-0.14909,0.0053442,0.37825,0.13282,0.07146
0.00742,-0.024049,0.036755,-0.05479,-0.039547,0.0982,-0.023216,0.10908,0.02935,-0.01792,-0.00041663,0.033534,0.13693,-0.5397,0.10138,-0.014602,0.086149,0.24369,0.091611,-0.14915,0.012726,0.4092,0.13098,-0.0041174
0.0083443,-0.021218,0.042969,-0.055888,-0.035706,0.092254,-0.0052179,0.10593,0.025938,-0.021196,-0.0088831,0.031409,0.17357,-0.622,0.13504,-0.020582,0.081261,0.2391,0.09455,-0.11514,0.021486,0.41667,0.12574,-0.054348
0.0085396,-0.016363,0.045197,-0.05372,-0.030177,0.083559,0.0096726,0.10482,0.01616,-0.021028,-0.013046,0.031595,0.20177,-0.61755,0.1523,-0.033362,0.082119,0.23824,0.098968,-0.011968,0.026924,0.40063,0.11613,-0.066914
0.0076779,-0.0073846,0.043319,-0.049334,-0.026968,0.075698,0.017674,0.1088,0.0070955,-0.020798,-0.013212,0.032059,0.22211,-0.48432,0.15543,-0.043068,0.086177,0.24288,0.10222,0.15612,0.026194,0.36827,0.10345,-0.037151
0.0058941,0.0040342,0.040889,-0.0454,-0.027102,0.068469,0.021301,0.11395,0.0043331,-0.023525,-0.013911,0.03094,0.23839,-0.2171,0.15107,-0.043209,0.087666,0.25025,0.10241,0.34673,0.021423,0.32412,0.090802,0.023981
0.0042111,0.012548,0.041888,-0.043393,-0.028815,0.059314,0.024206,0.11297,0.0074907,-0.028378,-0.019784,0.028553,0.2554,0.14179,0.14463,-0.035838,0.081918,0.25659,0.099799,0.50821,0.018198,0.26636,0.080581,0.089753
0.0040539,0.0126,0.047023,-0.041866,-0.030067,0.047545,0.026204,0.10155,0.011284,-0.031156,-0.030493,0.027085,0.27518,0.51635,0.13554,-0.02904,0.069592,0.26006,0.096746,0.61342,0.020382,0.19198,0.072523,0.13012
0.0058814,0.0026586,0.052813,-0.037603,-0.030678,0.036339,0.023347,0.08148,0.010717,-0.028409,-0.039682,0.028084,0.29533,0.82821,0.11755,-0.028771,0.056853,0.26023,0.095906,0.6725,0.026079,0.10412,0.064102,0.12982
0.0082191,-0.01304,0.054234,-0.02861,-0.032121,0.02995,0.012275,0.058164,0.0054382,-0.021148,-0.039573,0.030149,0.31112,1.0276,0.084713,-0.03237,0.050681,0.25585,0.09803,0.71704,0.028882,0.013517,0.053072,0.097628
0.0084515,-0.026702,0.048688,-0.016199,-0.035456,0.028918,-0.0061849,0.035145,-0.00045773,-0.014445,-0.027491,0.029338,0.32006,1.1074,0.038241,-0.029741,0.052854,0.24454,0.10096,0.77171,0.023612,-0.068057,0.03956,0.05764
0.0051455,-0.031671,0.038025,-0.0043107,-0.039693,0.028555,-0.027832,0.011291,-0.002503,-0.013177,-0.0085099,0.022314,0.32456,1.0955,-0.011693,-0.011538,0.057764,0.22532,0.10068,0.83724,0.011262,-0.13596,0.025516,0.029017
-0.00011426,-0.026438,0.027073,0.0032178,-0.042403,0.02293,-0.048961,-0.016786,0.00022875,-0.017869,0.0082609,0.0096143,0.32987,1.0349,-0.051616,0.02257,0.056245,0.20131,0.093917,0.89632,-0.0016343,-0.19454,0.012075,0.011349
-0.0033863,-0.015324,0.020029,0.0050836,-0.042098,0.010891,-0.068819,-0.049603,0.004788,-0.024418,0.016617,-0.0040733,0.33876,0.9628,-0.073629,0.062557,0.042572,0.17852,0.080478,0.93302,-0.0087609,-0.25128,-0.002311,-0.011526
-0.0013841,-0.0055073,0.017605,0.002867,-0.040043,-0.0019518,-0.08817,-0.082219,0.0074117,-0.027774,0.017434,-0.013305,0.34756,0.90014,-0.080196,0.094625,0.018996,0.16118,0.063679,0.94661,-0.0095032,-0.30932,-0.020685,-0.053274
0.0056497,-0.002448,0.017008,-0.00052389,-0.039553,-0.0079223,-0.10621,-0.10702,0.0067809,-0.026094,0.016702,-0.016427,0.34781,0.85057,-0.080857,0.1101,-0.0058309,0.14765,0.04824,0.94866,-0.008971,-0.36606,-0.044238,-0.11011
0.01383,-0.0066925,0.014479,-0.0027935,-0.043195,-0.004821,-0.12006,-0.11961,0.0045183,-0.021768,0.019563,-0.01756,0.33292,0.80579,-0.083894,0.10949,-0.023168,0.13161,0.036986,0.94926,-0.012644,-0.41861,-0.07009,-0.16404
0.018517,-0.014079,0.0082522,-0.0032655,-0.050405,0.00080571,-0.12814,-0.12257,0.0029132,-0.018861,0.025794,-0.024273,0.30456,0.75284,-0.090208,0.099139,-0.030137,0.10808,0.028757,0.94747,-0.02091,-0.46954,-0.092686,-0.20179
0.017733,-0.019054,-0.0003033,-0.0027123,-0.05783,-0.0015771,-0.13362,-0.12382,0.0024761,-0.019666,0.030449,-0.042563,0.2732,0.68125,-0.094293,0.084341,-0.030789,0.078898,0.019274,0.93461,-0.028766,-0.52555,-0.10784,-0.23127
0.013241,-0.018703,-0.0079635,-0.0025121,-0.062153,-0.017307,-0.14335,-0.13092,0.0017694,-0.023326,0.028445,-0.072856,0.25173,0.58883,-0.090518,0.065122,-0.031968,0.052257,0.0045053,0.90518,-0.030827,-0.58927,-0.11589,-0.27828
0.0086161,-0.014603,-0.012112,-0.003687,-0.062742,-0.041036,-0.1617,-0.14629,-0.00056798,-0.027076,0.018589,-0.10968,0.24697,0.48395,-0.078311,0.037763,-0.037717,0.036285,-0.016054,0.86245,-0.026553,-0.65225,-0.12118,-0.36426
0.0063265,-0.011222,-0.012418,-0.0061933,-0.061556,-0.060265,-0.18462,-0.1671,-0.0039181,-0.028337,0.0036174,-0.14476,0.25556,0.38239,-0.061649,-0.00016716,-0.046708,0.032286,-0.038846,0.81239,-0.020531,-0.69712,-0.12866,-0.48378
0.0064143,-0.012194,-0.010635,-0.008834,-0.060506,-0.065303,-0.20053,-0.18944,-0.0059603,-0.025867,-0.013086,-0.1709,0.26721,0.29949,-0.044291,-0.046205,-0.054187,0.033816,-0.058854,0.75256,-0.017648,-0.70905,-0.14069,-0.60232
0.0074451,-0.017445,-0.0090008,-0.010049,-0.059087,-0.057103,-0.19861,-0.21298,-0.0048358,-0.019833,-0.030516,-0.18422,0.27185,0.24194,-0.026309,-0.093796,-0.056144,0.032377,-0.073044,0.66902,-0.018108,-0.68711,-0.15674,-0.67774
0.0081859,-0.023457,-0.0087052,-0.0092607,-0.054908,-0.046139,-0.17816,-0.24191,-0.00095778,-0.011784,-0.050052,-0.18409,0.2649,0.20456,-0.0056847,-0.13629,-0.051966,0.024476,-0.081629,0.54712,-0.017338,-0.64559,-0.17532,-0.68813
0.0081623,-0.026345,-0.0095252,-0.0077351,-0.046725,-0.043381,-0.15035,-0.28161,0.0033563,-0.0048418,-0.073036,-0.17223,0.24676,0.17398,0.016947,-0.17047,-0.043683,0.013765,-0.086218,0.38767,-0.010925,-0.60346,-0.1957,-0.64331
0.0069651,-0.025116,-0.010595,-0.007945,-0.03677,-0.051433,-0.13009,-0.33363,0.0059722,-0.0030955,-0.098794,-0.15212,0.21867,0.13629,0.035875,-0.19708,-0.033192,0.0067719,-0.086799,0.21329,0.00032194,-0.57069,-0.21752,-0.57202
0.0037912,-0.022351,-0.011371,-0.011584,-0.029642,-0.063476,-0.1246,-0.39299,0.0065655,-0.0094181,-0.12509,-0.12881,0.17972,0.082628,0.043396,-0.21865,-0.020487,0.0066036,-0.080618,0.056497,0.010243,-0.54256,-0.23929,-0.49802
-0.0016762,-0.021835,-0.011948,-0.017768,-0.028457,-0.070353,-0.12874,-0.44969,0.0062142,-0.022775,-0.15016,-0.10795,0.12822,0.0090637,0.035863,-0.23706,-0.0046777,0.010456,-0.064159,-0.062602,0.012382,-0.50631,-0.25791,-0.4268
-0.0078619,-0.025235,-0.012668,-0.023176,-0.031934,-0.068877,-0.1309,-0.49305,0.0056258,-0.037668,-0.17373,-0.093667,0.066214,-0.087439,0.016868,-0.2527,0.01336,0.0127,-0.036506,-0.15154,0.0054669,-0.4538,-0.27022,-0.35309
-0.011334,-0.030622,-0.013571,-0.024388,-0.035395,-0.063838,-0.12408,-0.5161,0.0041182,-0.047266,-0.19592,-0.086335,0.0027194,-0.21163,-0.0056389,-0.26499,0.029642,0.0099499,-0.0010635,-0.24025,-0.0057621,-0.38932,-0.27509,-0.27868
-0.0090664,-0.03396,-0.01417,-0.020704,-0.034884,-0.06257,-0.11165,-0.51756,0.0005629,-0.048447,-0.21541,-0.082312,-0.047521,-0.36756,-0.025628,-0.27319,0.038849,0.003095,0.035807,-0.35844,-0.014994,-0.32646,-0.27407,-0.22081
-0.0012623,-0.032132,-0.013598,-0.015037,-0.03044,-0.067857,-0.10305,-0.50093,-0.0048019,-0.044549,-0.22954,-0.07636,-0.069345,-0.55307,-0.042696,-0.27686,0.038036,-0.0052243,0.06796,-0.51262,-0.01975,-0.27716,-0.26978,-0.20104
0.0079952,-0.025012,-0.010904,-0.011938,-0.025423,-0.075919,-0.104,-0.47205,-0.0099255,-0.042852,-0.23671,-0.065358,-0.053575,-0.75698,-0.059864,-0.27597,0.028986,-0.014438,0.091794,-0.68018,-0.022906,-0.24224,-0.26405,-0.2244
0.013317,-0.015166,-0.0054386,-0.014231,-0.022684,-0.080816,-0.11106,-0.4367,-0.012717,-0.04831,-0.23876,-0.0505,-0.0014201,-0.96243,-0.078059,-0.27136,0.016886,-0.026813,0.10637,-0.82459,-0.029441,-0.21038,-0.25754,-0.26939
0.01187,-0.0058748,0.0026528,-0.020934,-0.021576,-0.080359,-0.1155,-0.39954,-0.013326,-0.058758,-0.24001,-0.036176,0.074586,-1.1534,-0.093098,-0.26491,0.0062539,-0.04427,0.11226,-0.9194,-0.041954,-0.16582,-0.25078,-0.30056
0.0052616,0.00073516,0.012006,-0.028129,-0.018852,-0.0777,-0.11207,-0.36454,-0.014293,-0.066133,-0.24299,-0.026347,0.15339,-1.3171,-0.098433,-0.25862,-0.0023001,-0.064778,0.11098,-0.96287,-0.059048,-0.09833,-0.24468,-0.29502
-0.0020706,0.0042026,0.020213,-0.031999,-0.012466,-0.077478,-0.10374,-0.33623,-0.017938,-0.063129,-0.24463,-0.021257,0.21178,-1.4392,-0.091034,-0.25246,-0.011519,-0.08262,0.10541,-0.97355,-0.077256,-0.0090818,-0.23908,-0.26125
-0.0063794,0.0050708,0.02493,-0.031544,-0.0042716,-0.080818,-0.097831,-0.32035,-0.023384,-0.049702,-0.23717,-0.017051,0.23306,-1.4956,-0.074634,-0.2427,-0.023649,-0.093011,0.099877,-0.97245,-0.093737,0.090203,-0.23055,-0.23436
-0.0068905,0.004081,0.025403,-0.028908,0.0013464,-0.08417,-0.097977,-0.32282,-0.026507,-0.033553,-0.21435,-0.0085963,0.21486,-1.4532,-0.057093,-0.22291,-0.03693,-0.096963,0.098324,-0.96751,-0.10685,0.1829,-0.21244,-0.25164
-0.0052014,0.0019301,0.023136,-0.027317,0.0017074,-0.082792,-0.10034,-0.34701,-0.023519,-0.023888,-0.17777,0.0065263,0.17131,-1.2855,-0.044328,-0.18795,-0.045974,-0.10145,0.10154,-0.9528,-0.11475,0.25436,-0.17856,-0.3281
-0.0029971,-0.00051954,0.020835,-0.028506,-0.0012513,-0.075086,-0.097919,-0.39067,-0.01512,-0.023811,-0.13759,0.025638,0.12653,-0.99682,-0.036381,-0.13851,-0.046035,-0.114,0.10606,-0.92173,-0.11466,0.29757,-0.12827,-0.45011
-0.00065266,-0.0021106,0.020211,-0.031694,-0.0023891,-0.063603,-0.088207,-0.44474,-0.0070177,-0.028125,-0.10601,0.041747,0.10188,-0.6366,-0.028811,-0.082585,-0.037548,-0.13608,0.10661,-0.88195,-0.1043,0.31608,-0.068453,-0.58908
0.0020677,-0.0016301,0.020538,-0.034727,0.0021363,-0.052242,-0.076022,-0.49512,-0.0056302,-0.028493,-0.088852,0.047134,0.10429,-0.28876,-0.017447,-0.032127,-0.02675,-0.16124,0.10066,-0.85801,-0.084306,0.32312,-0.0095919,-0.72051
0.0044615,0.0017225,0.019413,-0.036138,0.011575,-0.042924,-0.068463,-0.5268,-0.012385,-0.021242,-0.082442,0.037848,0.12353,-0.034888,-0.0017563,0.0028251,-0.021509,-0.17993,0.090993,-0.87795,-0.058336,0.33587,0.041555,-0.83193
0.0046463,0.0079283,0.015225,-0.036278,0.021614,-0.035,-0.067101,-0.5284,-0.021841,-0.010665,-0.078434,0.016726,0.14073,0.087897,0.015694,0.018395,-0.025617,-0.18712,0.083403,-0.95279,-0.030265,0.36619,0.086796,-0.9158
0.001234,0.015975,0.0090211,-0.036601,0.02861,-0.027357,-0.065496,-0.495,-0.0258,-0.0048913,-0.071912,-0.0069729,0.14189,0.10586,0.031933,0.016933,-0.036166,-0.18627,0.081502,-1.0639,-0.00087489,0.41224,0.13442,-0.95816
-0.0047583,0.023993,0.003898,-0.037892,0.03285,-0.020337,-0.054833,-0.42861,-0.020175,-0.0083148,-0.06529,-0.021687,0.12673,0.088851,0.044911,0.0041363,-0.046008,-0.18606,0.083384,-1.1681,0.032209,0.45701,0.19151,-0.93744
-0.0099799,0.029779,0.0022928,-0.039177,0.037711,-0.015187,-0.032354,-0.33668,-0.0086298,-0.017643,-0.064704,-0.019652,0.10678,0.10285,0.052369,-0.013266,-0.049115,-0.19278,0.083751,-1.2171,0.070653,0.47612,0.25703,-0.83659
-0.011175,0.031636,0.0037094,-0.03843,0.04575,-0.011936,-0.0044487,-0.22971,0.00036743,-0.025074,-0.072912,-0.0014878,0.094893,0.16718,0.050664,-0.027321,-0.04452,-0.2051,0.079633,-1.1798,0.11113,0.45164,0.32153,-0.65777
-0.0079455,0.029199,0.0051017,-0.034474,0.055703,-0.0086044,0.018555,-0.11891,0.00059187,-0.025332,-0.085815,0.023953,0.095196,0.24695,0.036365,-0.027865,-0.036059,-0.21559,0.074033,-1.0531,0.14518,0.3831,0.3736,-0.42496
-0.0033029,0.023681,0.0036475,-0.028244,0.063419,-0.0032104,0.030932,-0.014341,-0.0069756,-0.019884,-0.095891,0.044921,0.10102,0.28586,0.010106,-0.0043005,-0.028778,-0.2175,0.073434,-0.85693,0.1641,0.28843,0.4074,-0.17038
-0.0013254,0.017264,-0.00068672,-0.02213,0.065778,0.0033598,0.035544,0.07622,-0.015578,-0.014686,-0.099011,0.054022,0.10165,0.25402,-0.021164,0.048625,-0.025253,-0.21064,0.081111,-0.62057,0.16508,0.19386,0.42501,0.084046
-0.0038314,0.011929,-0.0052235,-0.017937,0.063717,0.0070516,0.040013,0.14802,-0.018983,-0.014126,-0.098013,0.052404,0.09125,0.17366,-0.046841,0.12443,-0.024504,-0.201,0.092666,-0.36977,0.15318,0.11918,0.43221,0.33354
-0.0088528,0.0085275,-0.007196,-0.01547,0.061417,0.0040198,0.049241,0.19973,-0.016769,-0.017184,-0.099891,0.047922,0.072434,0.10312,-0.059106,0.20381,-0.023573,-0.19485,0.098571,-0.12431,0.13735,0.068091,0.43248,0.57953
-0.012203,0.0067069,-0.0063801,-0.013155,0.062495,-0.0052154,0.061442,0.23366,-0.013856,-0.019227,-0.10958,0.048765,0.052117,0.092046,-0.058038,0.2621,-0.019805,-0.19278,0.09198,0.096623,0.12418,0.028971,0.42485,0.81166
-0.010877,0.0056991,-0.0052223,-0.010078,0.066881,-0.015141,0.070923,0.2552,-0.015045,-0.017128,-0.12617,0.05745,0.03425,0.14297,-0.050907,0.28228,-0.012055,-0.18926,0.074861,0.2698,0.11445,-0.015464,0.40701,1.0013
-0.0055811,0.0052854,-0.0063824,-0.0073125,0.071239,-0.019414,0.074202,0.27125,-0.02001,-0.012432,-0.14439,0.069543,0.016364,0.20887,-0.046034,0.26553,-0.00058541,-0.1777,0.056804,0.3718,0.10506,-0.076796,0.37982,1.116
-0.00038992,0.0060918,-0.01007,-0.0070402,0.072241,-0.016313,0.073186,0.28801,-0.023569,-0.0095644,-0.15917,0.07761,-0.0072146,0.22755,-0.046375,0.23171,0.013365,-0.15645,0.047447,0.39099,0.093358,-0.15474,0.34799,1.1434
0.000199,0.008876,-0.013713,-0.010237,0.069358,-0.010292,0.072545,0.30914,-0.020887,-0.011177,-0.16873,0.076856,-0.038905,0.16589,-0.048069,0.20858,0.027701,-0.13031,0.049269,0.33865,0.079445,-0.23846,0.316,1.1052
-0.005386,0.013331,-0.014285,-0.015254,0.064574,-0.0079297,0.074346,0.33565,-0.012487,-0.015346,-0.17381,0.068085,-0.074386,0.04105,-0.044697,0.21615,0.039622,-0.10701,0.056886,0.24903,0.06462,-0.3127,0.28361,1.0449
-0.014532,0.017511,-0.011134,-0.01886,0.059766,-0.011926,0.075682,0.36695,-0.0041886,-0.01728,-0.17529,0.056239,-0.10522,-0.094912,-0.033013,0.25623,0.046466,-0.092216,0.062885,0.16563,0.048458,-0.36393,0.24593,0.99889
-0.022194,0.018701,-0.0067442,-0.018912,0.05475,-0.018848,0.071845,0.40171,-0.0019932,-0.013744,-0.17311,0.04642,-0.12487,-0.19219,-0.015079,0.31318,0.047054,-0.087263,0.064388,0.12188,0.028513,-0.3841,0.19886,0.97153
-0.024378,0.015404,-0.0047289,-0.016205,0.048089,-0.022723,0.061893,0.437,-0.0068087,-0.0059936,-0.16778,0.040785,-0.13258,-0.23332,0.0044484,0.36477,0.042465,-0.0904,0.064434,0.12908,0.0035889,-0.37182,0.14512,0.93552
-0.020792,0.008888,-0.0068219,-0.013748,0.039622,-0.020857,0.050914,0.46658,-0.013927,0.001335,-0.16199,0.038272,-0.13181,-0.2361,0.022467,0.395,0.035404,-0.098856,0.067567,0.17885,-0.022635,-0.33271,0.094927,0.85577
-0.01477,0.0027101,-0.011462,-0.014119,0.03175,-0.016098,0.046339,0.48101,-0.017552,0.0041226,-0.15976,0.036439,-0.12547,-0.23231,0.038527,0.40086,0.028593,-0.10944,0.074376,0.25624,-0.041745,-0.27877,0.06014,0.71782
-0.010586,7.242e-005,-0.015135,-0.0173,0.027804,-0.013448,0.051439,0.47166,-0.01589,0.0018741,-0.16287,0.033294,-0.11306,-0.24289,0.051854,0.39014,0.023516,-0.11804,0.08022,0.35178,-0.045248,-0.22542,0.046628,0.53861
-0.01026,0.00095434,-0.015281,-0.020882,0.028959,-0.014764,0.06205,0.43697,-0.012073,-0.002478,-0.16797,0.027756,-0.09224,-0.26913,0.057774,0.37396,0.020382,-0.12037,0.078979,0.46321,-0.030092,-0.18568,0.051331,0.35356
-0.012305,0.0016351,-0.012342,-0.022324,0.032842,-0.017203,0.069747,0.38599,-0.010404,-0.0054969,-0.16758,0.019086,-0.062906,-0.30305,0.048114,0.36015,0.018826,-0.11457,0.067994,0.58803,-0.00037959,-0.16388,0.066248,0.19279
-0.013313,-0.0024456,-0.0093758,-0.02116,0.035402,-0.017084,0.068742,0.33505,-0.011945,-0.0061079,-0.15509,0.0064797,-0.029066,-0.34306,0.016555,0.35119,0.018211,-0.10355,0.049772,0.71636,0.035926,-0.15395,0.085299,0.065694
-0.010986,-0.012481,-0.0097259,-0.019224,0.034348,-0.014851,0.060403,0.29836,-0.013737,-0.0060483,-0.13007,-0.010551,0.0038539,-0.39814,-0.035063,0.34558,0.017277,-0.093805,0.029554,0.83284,0.072068,-0.1456,0.10766,-0.036689
-0.0061302,-0.024349,-0.014705,-0.018883,0.030913,-0.015404,0.051544,0.27882,-0.012114,-0.0078988,-0.09965,-0.031468,0.033645,-0.47599,-0.095098,0.34,0.014112,-0.090678,0.011535,0.92652,0.10485,-0.13575,0.13492,-0.12787
-0.0019835,-0.031073,-0.022951,-0.021007,0.028322,-0.022805,0.048398,0.26636,-0.0065948,-0.012724,-0.074454,-0.054433,0.063067,-0.56666,-0.14723,0.33022,0.007434,-0.093757,-0.003022,0.9984,0.13289,-0.13659,0.16553,-0.2141
-0.0014888,-0.028199,-0.031557,-0.024471,0.0286,-0.034685,0.051904,0.24533,-0.00057279,-0.019382,-0.06205,-0.076683,0.096532,-0.63778,-0.17884,0.31188,-0.0014919,-0.096889,-0.015223,1.0576,0.15349,-0.17256,0.19253,-0.29256
-0.004801,-0.017871,-0.037819,-0.027436,0.030826,-0.04273,0.058188,0.20585,0.0016168,-0.025805,-0.062757,-0.095132,0.13463,-0.6486,-0.18639,0.28192,-0.0084584,-0.093358,-0.027345,1.1079,0.162,-0.26573,0.20713,-0.35676
-0.0090676,-0.0080474,-0.040369,-0.029051,0.032371,-0.039825,0.06296,0.15066,-0.0017466,-0.030744,-0.070578,-0.10687,0.17172,-0.57358,-0.17437,0.24051,-0.0088495,-0.081859,-0.042466,1.1373,0.15484,-0.41924,0.20509,-0.40103
-0.010616,-0.0070792,-0.039462,-0.029992,0.031643,-0.027406,0.06504,0.093079,-0.0087406,-0.03428,-0.078063,-0.10981,0.19901,-0.41839,-0.14967,0.19111,-0.0017039,-0.067817,-0.064238,1.1234,0.13292,-0.61118,0.18981,-0.41995
-0.0077335,-0.017687,-0.036761,-0.03152,0.029508,-0.015542,0.065721,0.048703,-0.015714,-0.036884,-0.081125,-0.10386,0.21035,-0.21675,-0.11678,0.13787,0.008259,-0.058827,-0.095224,1.0524,0.10201,-0.80436,0.16917,-0.4064
-0.0018334,-0.034951,-0.034874,-0.034101,0.028053,-0.014886,0.065318,0.027266,-0.019937,-0.038393,-0.080451,-0.09226,0.20568,-0.011466,-0.077582,0.081982,0.013141,-0.05842,-0.13403,0.93724,0.068812,-0.96525,0.14884,-0.35382
0.0037796,-0.049809,-0.036384,-0.03693,0.028045,-0.027538,0.061186,0.029792,-0.020751,-0.038262,-0.079342,-0.081774,0.18975,0.16578,-0.034728,0.020506,0.0075088,-0.063911,-0.17393,0.81799,0.036007,-1.0782,0.128,-0.26349
0.0064181,-0.055243,-0.042363,-0.038656,0.027683,-0.045327,0.049731,0.050646,-0.018984,-0.036895,-0.080554,-0.080532,0.16865,0.30278,0.0056638,-0.050497,-0.0073798,-0.069979,-0.20548,0.73982,0.00076955,-1.1454,0.10089,-0.15016
0.0057813,-0.050468,-0.051253,-0.038471,0.023892,-0.057193,0.030501,0.08082,-0.016032,-0.036328,-0.084798,-0.093798,0.14805,0.40098,0.035399,-0.13026,-0.024461,-0.074135,-0.2222,0.72477,-0.041725,-1.1739,0.062878,-0.038845
0.0037587,-0.040351,-0.059359,-0.036472,0.01494,-0.058847,0.0079465,0.1098,-0.013588,-0.038963,-0.091355,-0.12005,0.13399,0.46475,0.048975,-0.20953,-0.036174,-0.078522,-0.22474,0.75849,-0.092597,-1.1616,0.015685,0.047401
0.0026901,-0.031227,-0.063182,-0.033103,0.0020477,-0.055809,-0.011341,0.1268,-0.013578,-0.04517,-0.099146,-0.15033,0.13333,0.49592,0.047707,-0.27223,-0.039527,-0.086424,-0.2193,0.80274,-0.14625,-1.0931,-0.032065,0.10003
0.0036087,-0.026768,-0.062018,-0.028482,-0.011341,-0.057304,-0.023508,0.12359,-0.017316,-0.052247,-0.10673,-0.17223,0.15047,0.49664,0.039518,-0.30215,-0.036607,-0.097199,-0.21078,0.82389,-0.19272,-0.94723,-0.069143,0.12753
0.0057699,-0.026824,-0.058555,-0.022487,-0.021811,-0.067074,-0.029765,0.098659,-0.024058,-0.05631,-0.11157,-0.17654,0.18193,0.47416,0.034221,-0.29065,-0.030625,-0.10494,-0.19652,0.81528,-0.2236,-0.70965,-0.087295,0.14524
0.007559,-0.029135,-0.056688,-0.015581,-0.027818,-0.079741,-0.033992,0.059221,-0.03051,-0.055795,-0.11027,-0.16256,0.21429,0.44032,0.037691,-0.24082,-0.021768,-0.10239,-0.16665,0.79667,-0.23684,-0.38308,-0.084416,0.16053
0.0078069,-0.031557,-0.058321,-0.009375,-0.029818,-0.085679,-0.038205,0.017461,-0.032552,-0.053174,-0.10049,-0.13836,0.22953,0.4049,0.048974,-0.16612,-0.0071244,-0.086511,-0.11232,0.79264,-0.23684,0.01011,-0.064054,0.16583
0.0064451,-0.032806,-0.061984,-0.0059925,-0.029004,-0.079288,-0.040609,-0.017953,-0.028373,-0.052762,-0.083092,-0.11576,0.21512,0.36965,0.06198,-0.085003,0.015328,-0.060435,-0.035647,0.80838,-0.23024,0.43131,-0.032563,0.14564
0.0042113,-0.0319,-0.064477,-0.0064923,-0.025994,-0.062786,-0.038181,-0.048927,-0.020375,-0.056206,-0.06224,-0.10314,0.17096,0.32988,0.070018,-0.014577,0.042853,-0.030373,0.046785,0.82231,-0.22098,0.83284,0.0038977,0.091926
0.0019356,-0.027959,-0.063869,-0.0096999,-0.020541,-0.042671,-0.03092,-0.087124,-0.013732,-0.059948,-0.042601,-0.10093,0.10724,0.28322,0.069761,0.034035,0.068375,-0.00079001,0.11123,0.80096,-0.20819,1.1681,0.041123,0.015068
9.6548e-005,-0.021273,-0.060938,-0.0127,-0.012257,-0.023259,-0.023023,-0.14462,-0.012328,-0.057529,-0.026024,-0.1024,0.035146,0.23766,0.062221,0.057661,0.085165,0.027311,0.1405,0.72397,-0.18789,1.404,0.077218,-0.05897
-0.0011361,-0.014484,-0.057813,-0.012812,-0.0015503,-0.0040953,-0.01944,-0.22259,-0.015346,-0.04518,-0.010688,-0.098736,-0.041131,0.21043,0.050805,0.060375,0.091563,0.053745,0.1345,0.59965,-0.15635,1.5323,0.11194,-0.10359
-0.0016574,-0.011903,-0.055535,-0.0094602,0.0099443,0.016674,-0.02126,-0.30704,-0.01761,-0.025798,0.0063475,-0.084818,-0.12409,0.21705,0.038523,0.050705,0.091388,0.075565,0.10961,0.45945,-0.11287,1.5724,0.14551,-0.10762
-0.0013292,-0.016608,-0.053267,-0.0043504,0.019676,0.037442,-0.02488,-0.37514,-0.013672,-0.0075328,0.02562,-0.061859,-0.21568,0.2589,0.026403,0.037663,0.089771,0.087063,0.087027,0.33602,-0.060553,1.562,0.17733,-0.08097
-8.3699e-005,-0.027497,-0.050053,0.00013976,0.02501,0.05285,-0.026215,-0.40803,-0.0023316,0.0020248,0.04421,-0.035937,-0.31108,0.31925,0.013791,0.026976,0.088365,0.084067,0.078084,0.24198,-0.0055272,1.5361,0.20544,-0.046873
0.0019502,-0.039224,-0.047064,0.0028455,0.024322,0.058989,-0.025786,-0.40096,0.012229,0.0011688,0.058208,-0.014019,-0.40032,0.37103,-0.00040227,0.018975,0.0843,0.068413,0.076963,0.16568,0.044664,1.5091,0.2271,-0.027012
0.0044403,-0.045684,-0.047584,0.0043269,0.018041,0.058666,-0.029162,-0.36445,0.0237,-0.0054269,0.066243,-0.00029381,-0.47632,0.39064,-0.016739,0.0089297,0.073526,0.047664,0.065279,0.086724,0.083259,1.4701,0.24049,-0.029964
0.006961,-0.044449,-0.054241,0.005744,0.0091097,0.060387,-0.041601,-0.31684,0.028503,-0.010988,0.070532,0.0052343,-0.54119,0.36759,-0.035023,-0.01043,0.055132,0.029479,0.024659,-0.0014733,0.10674,1.3972,0.24634,-0.048972
0.0091577,-0.038428,-0.066065,0.0073679,0.0022329,0.070798,-0.061762,-0.27449,0.028152,-0.011648,0.074414,0.0057771,-0.60415,0.30487,-0.054346,-0.04518,0.032542,0.015446,-0.051688,-0.081212,0.1165,1.2791,0.24808,-0.067625
0.010913,-0.033261,-0.078456,0.0081907,0.0018169,0.087352,-0.080966,-0.24551,0.027309,-0.0081219,0.078873,0.0055232,-0.67216,0.2127,-0.072901,-0.096439,0.010659,0.00026155,-0.15529,-0.12229,0.11808,1.1279,0.2501,-0.067284
0.0124,-0.032679,-0.086413,0.006885,0.0095831,0.098835,-0.08959,-0.22955,0.02952,-0.0035188,0.081626,0.0075042,-0.74175,0.10311,-0.08773,-0.15785,-0.008102,-0.022607,-0.26697,-0.10837,0.11776,0.97168,0.25495,-0.031268
0.013864,-0.035723,-0.088132,0.0030481,0.023508,0.09447,-0.085298,-0.22152,0.034511,-0.00018065,0.07985,0.012456,-0.79922,-0.010157,-0.095107,-0.21577,-0.025134,-0.053773,-0.36482,-0.057289,0.11812,0.83462,0.2616,0.054221
0.015152,-0.03801,-0.085582,-0.0024608,0.0391,0.073891,-0.07554,-0.21581,0.039224,0.0014831,0.073947,0.018966,-0.82938,-0.1091,-0.091881,-0.25321,-0.043298,-0.085994,-0.43101,-0.017847,0.11623,0.7205,0.26609,0.19854
0.015394,-0.035701,-0.081665,-0.0082375,0.05227,0.048585,-0.071679,-0.20893,0.041174,0.001917,0.068638,0.024672,-0.8255,-0.17284,-0.077123,-0.25679,-0.063451,-0.10949,-0.4559,-0.043036,0.10617,0.61445,0.26438,0.40137
0.013399,-0.028754,-0.076957,-0.013226,0.061605,0.032582,-0.079715,-0.20036,0.040624,0.0012266,0.07004,0.02789,-0.79278,-0.18669,-0.05294,-0.22351,-0.083322,-0.1199,-0.44074,-0.15896,0.084479,0.49984,0.25534,0.64587
0.0088002,-0.020932,-0.069454,-0.016925,0.068249,0.030096,-0.09579,-0.19229,0.03951,-0.0004529,0.081144,0.028753,-0.74381,-0.15365,-0.023781,-0.16309,-0.099714,-0.12175,-0.39841,-0.35275,0.05418,0.37444,0.24158,0.89694
0.0030882,-0.01687,-0.057621,-0.018944,0.073635,0.031287,-0.11021,-0.18843,0.038498,-0.0017889,0.099544,0.029166,-0.69038,-0.097947,0.0052238,-0.093692,-0.11171,-0.12453,-0.35011,-0.58822,0.023811,0.25145,0.22735,1.1104
-0.00064831,-0.018707,-0.043499,-0.018711,0.077252,0.020596,-0.1159,-0.19184,0.035624,-0.00044441,0.11925,0.031611,-0.63829,-0.053264,0.029702,-0.033153,-0.12161,-0.13507,-0.31696,-0.8354,0.0017089,0.14582,0.21532,1.2514
0.0003827,-0.024787,-0.032354,-0.015878,0.076622,-0.00906,-0.11333,-0.20222,0.02836,0.0046668,0.13486,0.037588,-0.5874,-0.040513,0.046544,0.008692,-0.1328,-0.1531,-0.30996,-1.0893,-0.0098633,0.059977,0.2048,1.3112
0.0063589,-0.031125,-0.028624,-0.011084,0.069595,-0.04856,-0.10784,-0.2141,0.017289,0.011148,0.14458,0.046764,-0.53494,-0.050521,0.053898,0.031846,-0.14673,-0.17341,-0.32501,-1.3627,-0.015797,-0.017349,0.19323,1.3096
0.014098,-0.034341,-0.031757,-0.0061299,0.056841,-0.078325,-0.10276,-0.21772,0.0073846,0.013834,0.15008,0.057275,-0.47844,-0.046891,0.051604,0.041746,-0.16228,-0.19164,-0.34702,-1.6613,-0.023358,-0.099203,0.17926,1.2793
0.018934,-0.033916,-0.036018,-0.0030522,0.042146,-0.082882,-0.095724,-0.20299,0.0047908,0.0088252,0.15411,0.066776,-0.41677,0.0095824,0.042279,0.04293,-0.17795,-0.20787,-0.35993,-1.9643,-0.035585,-0.18854,0.16464,1.2433
0.018116,-0.032275,-0.034868,-0.0027164,0.030079,-0.06201,-0.081899,-0.16509,0.0114,-0.0024047,0.15851,0.073399,-0.35016,0.13111,0.03201,0.036052,-0.19442,-0.22492,-0.35479,-2.23,-0.048622,-0.27879,0.15267,1.2009
0.013109,-0.032725,-0.026359,-0.0041512,0.022992,-0.029553,-0.060733,-0.10818,0.022198,-0.012985,0.16421,0.076135,-0.28073,0.29058,0.029207,0.020074,-0.21434,-0.24406,-0.3301,-2.423,-0.055385,-0.36583,0.14464,1.1345
0.0087536,-0.036729,-0.014863,-0.005339,0.019909,-0.0019548,-0.038918,-0.04458,0.02846,-0.015539,0.17239,0.074794,-0.21307,0.43808,0.041388,-0.0031845,-0.23911,-0.26289,-0.28677,-2.5406,-0.052257,-0.45781,0.13777,1.0289
0.0096686,-0.042504,-0.0075984,-0.0048891,0.018079,0.012907,-0.026194,0.011027,0.024695,-0.0081776,0.1848,0.069929,-0.15361,0.53491,0.071436,-0.026963,-0.26548,-0.27767,-0.2247,-2.6151,-0.042684,-0.57079,0.12722,0.88713
0.016606,-0.046111,-0.0088955,-0.0032179,0.01554,0.017532,-0.027805,0.049244,0.013523,0.0037066,0.20235,0.062833,-0.10837,0.57931,0.11564,-0.042357,-0.28581,-0.28695,-0.14539,-2.6889,-0.03424,-0.7123,0.11075,0.72894
0.025696,-0.04436,-0.017042,-0.002296,0.01225,0.017727,-0.040913,0.07078,0.0039967,0.011715,0.22348,0.055373,-0.080665,0.60322,0.16477,-0.044047,-0.2924,-0.29242,-0.057252,-2.7808,-0.03171,-0.86805,0.091626,0.57596
0.031263,-0.037394,-0.026158,-0.0042541,0.0088581,0.015089,-0.058292,0.085274,0.0044544,0.011257,0.24426,0.049443,-0.070776,0.6434,0.20763,-0.034315,-0.28271,-0.29587,0.023884,-2.8702,-0.032556,-1.0056,0.076351,0.43703
0.030043,-0.028854,-0.031152,-0.0099854,0.0046483,0.0065793,-0.07529,0.10475,0.015802,0.0050155,0.26086,0.04623,-0.077677,0.71127,0.23507,-0.02191,-0.26111,-0.29592,0.082237,-2.9095,-0.029181,-1.0939,0.068871,0.30675
0.023444,-0.02333,-0.031291,-0.018652,-0.0028853,-0.0095373,-0.092864,0.13599,0.030847,0.00014043,0.27208,0.045728,-0.10052,0.7871,0.24291,-0.016381,-0.23543,-0.28861,0.11233,-2.8555,-0.016235,-1.1228,0.06644,0.17595
0.016175,-0.02305,-0.029554,-0.028124,-0.015899,-0.028854,-0.11386,0.17684,0.04011,0.0018601,0.27974,0.046829,-0.13769,0.84261,0.23273,-0.022058,-0.21135,-0.27183,0.12271,-2.6962,0.0035236,-1.1072,0.061381,0.042361
0.012533,-0.026426,-0.028897,-0.035822,-0.033226,-0.043061,-0.13705,0.21849,0.039062,0.0092585,0.28607,0.047962,-0.18397,0.87116,0.21045,-0.036225,-0.18914,-0.24889,0.12917,-2.4571,0.020227,-1.0735,0.047593,-0.088738
0.013451,-0.029597,-0.029299,-0.039567,-0.049596,-0.047348,-0.15612,0.25155,0.030848,0.01676,0.29099,0.047928,-0.2292,0.89727,0.18322,-0.052816,-0.16526,-0.22717,0.14283,-2.1866,0.024093,-1.041,0.025977,-0.21255
0.016518,-0.0296,-0.028322,-0.03839,-0.058519,-0.045187,-0.1659,0.27142,0.022798,0.019533,0.29187,0.046513,-0.26105,0.95551,0.1558,-0.068734,-0.13698,-0.21234,0.16342,-1.9332,0.012658,-1.0121,0.0036712,-0.331
0.018507,-0.026518,-0.024299,-0.033198,-0.057082,-0.045117,-0.16997,0.27947,0.020349,0.017607,0.2864,0.04456,-0.27121,1.0557,0.12848,-0.08769,-0.10566,-0.20362,0.18279,-1.7275,-0.00805,-0.97686,-0.012281,-0.44933
0.017942,-0.022973,-0.01867,-0.026764,-0.048715,-0.052322,-0.18151,0.28021,0.023626,0.015083,0.27572,0.0434,-0.26046,1.1643,0.098344,-0.11816,-0.075776,-0.1948,0.19422,-1.575,-0.028936,-0.92184,-0.020901,-0.56596
0.015606,-0.021629,-0.014992,-0.022512,-0.041187,-0.063353,-0.2147,0.27748,0.02882,0.015652,0.26445,0.043909,-0.23839,1.2185,0.063447,-0.16647,-0.050884,-0.18018,0.19843,-1.4573,-0.044606,-0.83506,-0.027239,-0.66622
0.013063,-0.022917,-0.01561,-0.022357,-0.040905,-0.069362,-0.273,0.27295,0.03212,0.019004,0.25725,0.045787,-0.21758,1.1636,0.026921,-0.22983,-0.030531,-0.15973,0.201,-1.3379,-0.05554,-0.7056,-0.036427,-0.72782
0.011013,-0.024788,-0.0194,-0.024968,-0.047938,-0.064703,-0.34392,0.26713,0.032324,0.021477,0.25505,0.04762,-0.2065,0.98635,-0.0028589,-0.29469,-0.011009,-0.13846,0.20463,-1.1747,-0.064524,-0.52486,-0.0476,-0.73521
0.0090682,-0.024462,-0.022974,-0.026005,-0.055974,-0.052298,-0.40487,0.2611,0.030491,0.019939,0.25486,0.047816,-0.20618,0.72066,-0.017185,-0.34213,0.010769,-0.12087,0.20416,-0.93745,-0.071682,-0.29406,-0.053518,-0.69214
0.0068114,-0.020631,-0.024235,-0.02064,-0.057426,-0.040457,-0.43573,0.25599,0.028071,0.014822,0.25332,0.045749,-0.21253,0.42626,-0.01382,-0.35699,0.034023,-0.10618,0.18898,-0.62468,-0.073366,-0.033038,-0.046184,-0.62297
0.0046707,-0.014416,-0.024729,-0.0068336,-0.049512,-0.034519,-0.42883,0.25024,0.025872,0.0094661,0.25059,0.042194,-0.22158,0.15722,-7.7781e-005,-0.33511,0.054629,-0.089264,0.15045,-0.27118,-0.065878,0.22017,-0.023036,-0.56141
0.0035547,-0.0085078,-0.028293,0.013095,-0.036231,-0.03188,-0.39021,0.23685,0.024401,0.0068609,0.25034,0.038629,-0.23297,-0.058256,0.011143,-0.28385,0.069004,-0.066034,0.087925,0.062533,-0.049963,0.42377,0.011944,-0.53355
0.0037097,-0.0052583,-0.037097,0.03398,-0.024668,-0.025481,-0.33346,0.20423,0.024268,0.007387,0.25574,0.035969,-0.24915,-0.21867,0.010063,-0.2165,0.077752,-0.037647,0.0093102,0.31562,-0.031246,0.5526,0.052618,-0.54348
0.0041955,-0.0051439,-0.048876,0.051415,-0.019015,-0.012076,-0.27199,0.14145,0.025583,0.009711,0.26532,0.033807,-0.27158,-0.33712,-0.0031184,-0.14456,0.085656,-0.0090852,-0.072949,0.45398,-0.015896,0.60957,0.09561,-0.56788
0.003692,-0.0066125,-0.058227,0.064658,-0.017581,0.0032953,-0.21487,0.045708,0.027089,0.013331,0.27339,0.030857,-0.29748,-0.42816,-0.018876,-0.073314,0.09787,0.016203,-0.14668,0.48361,-0.0055794,0.619,0.14073,-0.56237
0.0018292,-0.0073171,-0.06111,0.076481,-0.015224,0.011387,-0.1668,-0.073055,0.026621,0.01953,0.27511,0.026206,-0.32032,-0.50059,-0.026239,-0.0031626,0.1157,0.039691,-0.20297,0.44364,0.0035946,0.60722,0.18704,-0.47878
-0.00043544,-0.0057515,-0.058545,0.090063,-0.0087059,0.0074534,-0.12953,-0.19394,0.02309,0.0295,0.27154,0.020301,-0.33364,-0.5555,-0.021671,0.06523,0.13573,0.065305,-0.23746,0.38556,0.017323,0.58571,0.22945,-0.28766
-0.0019153,-0.0020613,-0.055969,0.10552,7.0325e-005,-0.0040215,-0.10249,-0.29304,0.01807,0.041859,0.26962,0.014815,-0.33504,-0.5863,-0.011746,0.1264,0.15308,0.093569,-0.25071,0.35246,0.038237,0.54935,0.26037,0.0048322
-0.002675,0.0025065,-0.058565,0.11909,0.0058425,-0.013183,-0.082791,-0.35352,0.014974,0.052676,0.27642,0.011522,-0.32704,-0.58022,-0.007494,0.17011,0.16557,0.11883,-0.24772,0.36879,0.064162,0.4891,0.27517,0.35644
-0.0042572,0.0069125,-0.066582,0.12574,0.0049597,-0.013408,-0.065712,-0.37207,0.016143,0.05837,0.29284,0.0111,-0.31392,-0.52385,-0.015203,0.18636,0.17485,0.13327,-0.23582,0.44163,0.090327,0.40708,0.27614,0.70649
-0.008205,0.011143,-0.074842,0.12312,-0.001192,-0.0063347,-0.04638,-0.35884,0.020576,0.058502,0.31265,0.012734,-0.29722,-0.41296,-0.031348,0.17202,0.18337,0.13421,-0.22176,0.56689,0.1126,0.32071,0.27055,1.0012
-0.014209,0.015763,-0.076983,0.1137,-0.0074989,0.0011441,-0.02168,-0.33102,0.024711,0.055412,0.32761,0.01472,-0.27409,-0.26168,-0.045742,0.13409,0.19025,0.12742,-0.21042,0.73396,0.12865,0.25287,0.26435,1.2102
-0.019773,0.020697,-0.070786,0.10336,-0.0098586,0.0043207,0.008805,-0.30407,0.025645,0.051112,0.33411,0.015605,-0.24027,-0.1028,-0.050001,0.087053,0.19065,0.1223,-0.20668,0.9277,0.13707,0.21662,0.25755,1.326
-0.021972,0.024602,-0.059979,0.097948,-0.0088347,0.004866,0.043175,-0.28472,0.023656,0.045079,0.33491,0.015114,-0.19538,0.024462,-0.044051,0.045584,0.1797,0.12306,-0.21862,1.1306,0.1368,0.20677,0.24563,1.3526
-0.019882,0.025731,-0.051042,0.10042,-0.0087684,0.0078118,0.078256,-0.2685,0.021531,0.035695,0.33503,0.014335,-0.14567,0.093088,-0.035259,0.017772,0.15772,0.12438,-0.25787,1.3273,0.12856,0.20481,0.22535,1.2975
-0.015532,0.023676,-0.047921,0.11061,-0.013203,0.014907,0.11065,-0.2426,0.02151,0.02379,0.33624,0.015005,-0.10086,0.10102,-0.031297,0.0030797,0.13123,0.11633,-0.33442,1.5094,0.11663,0.19279,0.19902,1.1744
-0.012452,0.020261,-0.049207,0.12686,-0.020992,0.021601,0.13774,-0.19269,0.023056,0.013824,0.33579,0.018178,-0.0669,0.068617,-0.033223,-0.0043548,0.10825,0.094131,-0.44885,1.6751,0.10785,0.16608,0.17285,1.0112
-0.013045,0.018387,-0.050004,0.14739,-0.026855,0.021126,0.15883,-0.11112,0.023719,0.010308,0.33069,0.023083,-0.040824,0.022918,-0.034879,-0.010533,0.091702,0.063511,-0.58832,1.8239,0.10751,0.13665,0.15136,0.84929
-0.016973,0.019497,-0.0465,0.17003,-0.025962,0.011803,0.17614,-0.0028302,0.021996,0.012471,0.3226,0.027171,-0.012714,-0.019264,-0.028953,-0.018638,0.077027,0.036107,-0.73118,1.9488,0.11529,0.12599,0.13351,0.73
-0.021791,0.021918,-0.039135,0.19102,-0.018313,0.000201,0.19458,0.11422,0.019024,0.013167,0.31808,0.027884,0.025858,-0.057046,-0.014134,-0.029495,0.056702,0.019105,-0.85754,2.0352,0.12566,0.15299,0.11426,0.67657
-0.025061,0.021876,-0.031769,0.20481,-0.0088162,-0.0034149,0.21971,0.21542,0.017263,0.004703,0.32323,0.025306,0.073799,-0.09763,0.0030843,-0.043298,0.02778,0.0091796,-0.95828,2.0685,0.13312,0.22346,0.089786,0.68691
-0.026031,0.016735,-0.027959,0.20619,-0.0030102,0.0064596,0.25454,0.28062,0.017655,-0.012764,0.33793,0.02372,0.12015,-0.14373,0.013465,-0.059902,-0.0042008,-0.0032067,-1.0356,2.0452,0.13753,0.3262,0.06068,0.74131
-0.025634,0.0078537,-0.027928,0.19347,-0.0023703,0.025856,0.29729,0.30453,0.018419,-0.028426,0.35523,0.030202,0.15253,-0.18795,0.012357,-0.077527,-0.028492,-0.023191,-1.0958,1.9785,0.14415,0.43654,0.030155,0.81659
-0.025212,0.00039075,-0.028873,0.17033,-0.0034228,0.044603,0.34196,0.30058,0.016931,-0.027795,0.36691,0.050338,0.16765,-0.21823,0.0028904,-0.092108,-0.036694,-0.045023,-1.1415,1.8898,0.15757,0.52557,-0.000612,0.89387
-0.025358,-0.00018845,-0.028012,0.14417,-0.0011824,0.054551,0.38167,0.29485,0.012797,-0.0047398,0.37003,0.083693,0.17469,-0.22815,-0.0074731,-0.099114,-0.028164,-0.056333,-1.1705,1.7938,0.17515,0.57125,-0.034763,0.95644
-0.025804,0.0076742,-0.02523,0.12154,0.0065291,0.055393,0.41244,0.31269,0.0087659,0.031802,0.3682,0.1226,0.1881,-0.2219,-0.013594,-0.096808,-0.0091831,-0.049354,-1.1824,1.6881,0.18655,0.56586,-0.077145,0.98585
-0.026069,0.020122,-0.022746,0.10396,0.017781,0.053275,0.43474,0.36496,0.0082227,0.063303,0.36652,0.15594,0.21539,-0.20981,-0.016608,-0.087922,0.012454,-0.028478,-1.1858,1.559,0.1808,0.51641,-0.12955,0.96483
-0.02597,0.030468,-0.022239,0.087228,0.028882,0.054058,0.4517,0.44229,0.011483,0.075791,0.36521,0.17583,0.25027,-0.19944,-0.0221,-0.077969,0.032268,-0.0069901,-1.1981,1.4,0.15509,0.43775,-0.1888,0.88623
-0.025565,0.033948,-0.022485,0.065213,0.037502,0.057664,0.46577,0.52122,0.014565,0.070929,0.3585,0.18245,0.277,-0.19116,-0.034619,-0.071636,0.049689,0.0038836,-1.237,1.2276,0.11742,0.34352,-0.24977,0.75797
-0.024888,0.030909,-0.020095,0.035381,0.043397,0.058324,0.47658,0.57867,0.011989,0.064118,0.34036,0.18317,0.28235,-0.1824,-0.053494,-0.07052,0.06526,0.0033721,-1.3075,1.0775,0.080427,0.24056,-0.31008,0.59667
-0.024014,0.025953,-0.012811,0.0017199,0.046611,0.049915,0.48167,0.60542,0.0013849,0.070771,0.31178,0.18618,0.26515,-0.17564,-0.073132,-0.073918,0.0781,-0.00037666,-1.3962,0.98443,0.051678,0.1295,-0.37154,0.41468
-0.023357,0.023861,-0.0021267,-0.027457,0.045823,0.031227,0.47897,0.60945,-0.01412,0.092546,0.28233,0.19343,0.23595,-0.18135,-0.086913,-0.081213,0.086106,0.00053675,-1.4742,0.95918,0.028688,0.0086549,-0.43683,0.21283
-0.023604,0.02571,0.007547,-0.045335,0.039265,0.0068386,0.46872,0.60697,-0.027944,0.11575,0.26363,0.19852,0.20774,-0.21146,-0.091237,-0.09293,0.088085,0.0062467,-1.5098,0.98403,0.0026664,-0.12362,-0.50493,-0.014076
-0.025021,0.028335,0.012563,-0.051555,0.027459,-0.016302,0.45309,0.60838,-0.034903,0.12346,0.26,0.19155,0.18613,-0.26816,-0.087046,-0.1093,0.085219,0.010318,-1.4816,1.0288,-0.0329,-0.26961,-0.5703,-0.26512
-0.026695,0.027358,0.013086,-0.052398,0.014654,-0.032979,0.43407,0.60989,-0.034852,0.11041,0.26441,0.16746,0.16701,-0.33781,-0.078733,-0.12807,0.080433,0.0079145,-1.3849,1.0727,-0.076623,-0.43306,-0.62697,-0.52806
-0.026697,0.021038,0.012544,-0.056071,0.0067418,-0.041336,0.41152,0.59739,-0.032193,0.087245,0.26361,0.13121,0.1425,-0.39668,-0.072011,-0.14422,0.076685,0.0025306,-1.2302,1.1124,-0.12105,-0.61589,-0.67344,-0.78765
-0.023411,0.011642,0.01405,-0.066883,0.006957,-0.042011,0.38305,0.55888,-0.031864,0.070468,0.24812,0.095655,0.10923,-0.42534,-0.071929,-0.15232,0.076006,0.0045021,-1.0354,1.1511,-0.15936,-0.8109,-0.71336,-1.0401
-0.017074,0.0033627,0.017421,-0.082809,0.013117,-0.037008,0.34568,0.49477,-0.035315,0.067589,0.2185,0.073624,0.071458,-0.42132,-0.081175,-0.14957,0.079744,0.022461,-0.81742,1.1838,-0.19022,-0.99582,-0.75076,-1.2996
-0.010071,-0.0011347,0.019784,-0.098008,0.019028,-0.02968,0.29795,0.41785,-0.039797,0.071294,0.18307,0.070195,0.037352,-0.39991,-0.098679,-0.13704,0.088815,0.055472,-0.5871,1.1959,-0.2166,-1.1351,-0.78474,-1.589
-0.0054497,-0.0024545,0.019059,-0.10786,0.018986,-0.024832,0.24144,0.34344,-0.041287,0.067557,0.14978,0.080604,0.012221,-0.38216,-0.11938,-0.11844,0.10287,0.092866,-0.35027,1.1783,-0.24041,-1.191,-0.80884,-1.924
-0.0047022,-0.0032172,0.016599,-0.11231,0.011623,-0.027187,0.18102,0.27903,-0.038297,0.049436,0.12009,0.094576,-0.0051155,-0.3788,-0.13621,-0.097981,0.11908,0.1219,-0.11137,1.1429,-0.25895,-1.1386,-0.81641,-2.3013
-0.006649,-0.0053751,0.016079,-0.11518,0.00010556,-0.03836,0.12403,0.22202,-0.033212,0.023247,0.090028,0.10296,-0.02027,-0.38218,-0.14383,-0.079069,0.13239,0.13669,0.12323,1.1191,-0.26654,-0.97647,-0.80691,-2.7011
-0.0084242,-0.0087621,0.01966,-0.12034,-0.010911,-0.054978,0.078437,0.16615,-0.030114,0.0016023,0.056372,0.10162,-0.03779,-0.3723,-0.14187,-0.064043,0.13799,0.14118,0.34486,1.1315,-0.25964,-0.72659,-0.7869,-3.0964
-0.0077276,-0.011977,0.025407,-0.12824,-0.018596,-0.070475,0.050267,0.10943,-0.031149,-0.0093275,0.021437,0.090809,-0.056809,-0.33217,-0.13494,-0.053781,0.13445,0.14436,0.54466,1.1765,-0.24005,-0.42505,-0.7643,-3.4608
-0.0044163,-0.014204,0.028856,-0.13542,-0.022853,-0.079907,0.040936,0.055913,-0.034616,-0.01565,-0.0083955,0.072321,-0.070911,-0.26029,-0.12899,-0.046559,0.1247,0.15217,0.71547,1.2224,-0.21294,-0.10789,-0.74104,-3.7699
-0.00016549,-0.015778,0.027386,-0.13723,-0.024842,-0.083904,0.046091,0.010646,-0.036302,-0.029075,-0.028505,0.047796,-0.071803,-0.17111,-0.12667,-0.037176,0.11363,0.16293,0.85194,1.2326,-0.18185,0.20003,-0.71078,-4.0003
0.0032725,-0.01698,0.023032,-0.13134,-0.025199,-0.088104,0.05716,-0.025778,-0.032645,-0.054465,-0.040218,0.019441,-0.054064,-0.083838,-0.12543,-0.018063,0.10423,0.16931,0.95014,1.1934,-0.14525,0.48819,-0.66422,-4.1328
0.0054716,-0.016794,0.020741,-0.11944,-0.023797,-0.098272,0.065494,-0.056853,-0.02298,-0.083854,-0.049222,-0.0088051,-0.018143,-0.0096997,-0.11975,0.017337,0.095401,0.1646,1.0091,1.1223,-0.098333,0.75463,-0.59716,-4.1585
0.0071705,-0.013574,0.023534,-0.10589,-0.020813,-0.11536,0.066997,-0.08482,-0.0092752,-0.10273,-0.060021,-0.032046,0.02973,0.05201,-0.10586,0.070781,0.083312,0.14786,1.0345,1.0492,-0.038009,0.99535,-0.5144,-4.0794
0.0089697,-0.0073447,0.029249,-0.094565,-0.017437,-0.13494,0.064338,-0.10706,0.0056979,-0.10263,-0.072021,-0.047237,0.080329,0.10724,-0.084819,0.13761,0.065024,0.12412,1.0399,0.98983,0.033125,1.1961,-0.42632,-3.9033
0.01043,-0.001228,0.03216,-0.08643,-0.015127,-0.15147,0.064966,-0.11944,0.019662,-0.08827,-0.08093,-0.055483,0.12546,0.15767,-0.061896,0.20835,0.041134,0.10042,1.0435,0.93336,0.10726,1.334,-0.34167,-3.6347
0.010594,0.00023284,0.028133,-0.079557,-0.01422,-0.16342,0.075792,-0.12394,0.030594,-0.073087,-0.083719,-0.061316,0.16131,0.19829,-0.042666,0.27213,0.015323,0.081468,1.0585,0.8537,0.17539,1.3892,-0.26325,-3.2748
0.0093637,-0.0049745,0.018578,-0.071375,-0.013556,-0.17447,0.097927,-0.13239,0.036029,-0.067812,-0.082022,-0.069176,0.1895,0.22429,-0.029137,0.31987,-0.008572,0.068104,1.0857,0.73204,0.2313,1.3614,-0.18969,-2.8332
0.0081733,-0.013643,0.0095556,-0.061145,-0.011799,-0.18977,0.12516,-0.16039,0.033654,-0.072857,-0.080755,-0.080063,0.21527,0.23987,-0.018565,0.34609,-0.029248,0.058806,1.114,0.57106,0.27281,1.2778,-0.12049,-2.3427
0.0090099,-0.01896,0.0068803,-0.050645,-0.0091328,-0.21069,0.14753,-0.21516,0.023394,-0.080772,-0.083678,-0.091276,0.24375,0.25912,-0.005492,0.34985,-0.048212,0.051817,1.1287,0.39233,0.30041,1.1842,-0.05876,-1.8591
0.012544,-0.015734,0.011669,-0.042661,-0.0074597,-0.23289,0.15752,-0.28735,0.0090341,-0.085059,-0.090553,-0.099288,0.27669,0.29606,0.014677,0.33504,-0.067729,0.046012,1.1219,0.2239,0.31554,1.1224,-0.0087356,-1.4415
0.017167,-0.0050003,0.020125,-0.038707,-0.0087075,-0.24967,0.15415,-0.35457,-0.0028326,-0.08577,-0.098625,-0.10301,0.31141,0.35144,0.042788,0.30958,-0.088519,0.040645,1.0953,0.091122,0.32012,1.1063,0.029041,-1.1197
0.020044,0.0061636,0.027321,-0.037884,-0.012936,-0.25744,0.14167,-0.39447,-0.0065776,-0.086064,-0.10662,-0.10458,0.34279,0.40811,0.075124,0.2825,-0.10911,0.035438,1.0546,0.015572,0.3168,1.1142,0.059503,-0.87567
0.019404,0.0098117,0.031213,-0.037661,-0.01825,-0.25873,0.12391,-0.39732,-0.0013581,-0.083558,-0.11681,-0.1074,0.36655,0.44028,0.10477,0.25985,-0.12702,0.031391,1.003,0.016128,0.30883,1.1021,0.089421,-0.65203
0.016064,0.0031907,0.033334,-0.035687,-0.022654,-0.26005,0.099569,-0.36899,0.0081801,-0.06631,-0.13285,-0.11351,0.38173,0.43116,0.12457,0.24228,-0.14027,0.030965,0.93885,0.10449,0.29888,1.0298,0.12141,-0.38728
0.012747,-0.0092542,0.036013,-0.031115,-0.025836,-0.26659,0.063277,-0.32407,0.01512,-0.019705,-0.15534,-0.12281,0.39098,0.38581,0.13052,0.22697,-0.14775,0.036373,0.86145,0.27537,0.28796,0.8816,0.15125,-0.05247
0.011802,-0.019448,0.03925,-0.024636,-0.028892,-0.2781,0.012445,-0.27646,0.015015,0.059874,-0.1799,-0.13404,0.39889,0.32925,0.12427,0.21295,-0.14871,0.046973,0.77651,0.50027,0.2756,0.66952,0.17115,0.33499
