1.5242e-010,8.1224e-010,2.9383e-009,-6.2702e-010,-2.1222e-011,6.8105e-010,-1.8811e-009,2.074e-009,3.5692e-010,4.2252e-010,2.02e-009,7.8137e-010,1.0785e-009,-5.1898e-010,4.4586e-009,8.624e-010,-7.9102e-011,1.6457e-009,3.4168e-009,3.9068e-009,-5.431e-009,-4.7172e-009,-3.5789e-009,2.6451e-009
4.2928e-009,2.2156e-008,8.1479e-008,-1.7142e-008,-8.334e-010,1.9503e-008,-5.1773e-008,5.7382e-008,9.809e-009,1.1656e-008,5.592e-008,2.1712e-008,2.9737e-008,-1.4372e-008,1.232e-007,2.4005e-008,-2.1666e-009,4.587e-008,9.426e-008,1.0744e-007,-1.5109e-007,-1.3141e-007,-9.8901e-008,7.1419e-008
5.8798e-008,2.934e-007,1.0985e-006,-2.2746e-007,-1.4289e-008,2.7166e-007,-6.9223e-007,7.7163e-007,1.3097e-007,1.5643e-007,7.5276e-007,2.9339e-007,3.9845e-007,-1.9349e-007,1.6546e-006,3.2491e-007,-2.8553e-008,6.2133e-007,1.2643e-006,1.4358e-006,-2.0448e-006,-1.7796e-006,-1.329e-006,9.3241e-007
5.2196e-007,2.5125e-006,9.5928e-006,-1.9514e-006,-1.4916e-007,2.4522e-006,-5.9899e-006,6.7189e-006,1.1318e-006,1.3604e-006,6.5651e-006,2.5684e-006,3.4563e-006,-1.6868e-006,1.4389e-005,2.8492e-006,-2.4103e-007,5.4485e-006,1.0984e-005,1.2419e-005,-1.7936e-005,-1.5604e-005,-1.1571e-005,7.8282e-006
3.3767e-006,1.5631e-005,6.0984e-005,-1.2161e-005,-1.0883e-006,1.6125e-005,-3.7697e-005,4.2576e-005,7.1145e-006,8.6159e-006,4.1695e-005,1.6369e-005,2.1813e-005,-1.0701e-005,9.1056e-005,1.8193e-005,-1.4634e-006,3.4763e-005,6.9466e-005,7.8144e-005,-0.00011462,-9.9559e-005,-7.3364e-005,4.7379e-005
1.6971e-005,7.5237e-005,0.00030068,-5.8643e-005,-5.9847e-006,8.2302e-005,-0.00018383,0.00020918,3.4653e-005,4.233e-005,0.00020547,8.0908e-005,0.00010669,-5.2616e-005,0.00044671,9.0136e-005,-6.799e-006,0.00017192,0.00034076,0.000381,-0.00056865,-0.00049232,-0.00036097,0.00021938
6.898e-005,0.00029128,0.001196,-0.00022752,-2.6003e-005,0.00033924,-0.00072237,0.00082883,0.00013601,0.00016774,0.00081732,0.00032253,0.00042066,-0.00020854,0.001767,0.00036044,-2.5102e-005,0.00068544,0.0013486,0.001497,-0.0022785,-0.001962,-0.0014339,0.00080314
0.00023301,0.00093045,0.00394,-0.00072887,-9.219e-005,0.0011598,-0.0023483,0.0027191,0.0004416,0.00055008,0.002695,0.0010644,0.0013724,-0.00068387,0.0057859,0.0011946,-7.5435e-005,0.0022619,0.0044208,0.0048651,-0.0075725,-0.006467,-0.0047229,0.0023603
0.00066712,0.002495,0.010949,-0.0019627,-0.00027304,0.0033516,-0.0064306,0.0075221,0.0012074,0.0015192,0.0075043,0.0029611,0.0037726,-0.0018895,0.01597,0.0033431,-0.00018728,0.0062917,0.012227,0.013316,-0.021268,-0.017944,-0.013141,0.0055501
0.0016422,0.0056791,0.025996,-0.0044967,-0.00068793,0.0082988,-0.015021,0.017773,0.0028145,0.0035737,0.017881,0.0070296,0.0088484,-0.0044546,0.037629,0.0080044,-0.00038697,0.014941,0.0289,0.031077,-0.05115,-0.042408,-0.0313,0.010061
0.0035132,0.01104,0.053188,-0.0088333,-0.0014965,0.017782,-0.030173,0.036174,0.0056366,0.0072071,0.036797,0.014356,0.017854,-0.0090366,0.076325,0.016549,-0.00066488,0.030547,0.058893,0.062338,-0.10633,-0.085954,-0.064416,0.012077
0.0065814,0.018351,0.09425,-0.014933,-0.0028479,0.033209,-0.052342,0.063736,0.0097335,0.012476,0.065788,0.025318,0.031135,-0.015852,0.13389,0.029724,-0.00093632,0.054032,0.10402,0.10793,-0.19217,-0.14968,-0.11523,0.00065551
0.01085,0.025953,0.14487,-0.021718,-0.004801,0.054319,-0.078432,0.097356,0.014483,0.018444,0.10251,0.03855,0.046971,-0.024082,0.20334,0.046538,-0.0010304,0.082783,0.15957,0.16139,-0.30288,-0.22289,-0.17973,-0.044523
0.015776,0.030806,0.19269,-0.027025,-0.007262,0.07808,-0.10104,0.1286,0.018456,0.022906,0.13929,0.050387,0.061117,-0.031621,0.26648,0.063585,-0.00073544,0.10953,0.21235,0.2077,-0.41631,-0.27933,-0.24443,-0.14977
0.020215,0.02982,0.22021,-0.028409,-0.0099916,0.098882,-0.11056,0.14583,0.019866,0.022921,0.16476,0.055731,0.068058,-0.035656,0.29869,0.075803,0.00011668,0.1241,0.24401,0.22829,-0.49748,-0.28235,-0.28893,-0.33529
0.022721,0.022144,0.21328,-0.024612,-0.012678,0.11067,-0.10025,0.14,0.017595,0.01622,0.1692,0.050572,0.063981,-0.03412,0.2815,0.078958,0.0015915,0.11838,0.24026,0.21206,-0.51375,-0.20089,-0.29489,-0.59712
0.022198,0.010893,0.17113,-0.016726,-0.015013,0.11021,-0.071439,0.11121,0.012224,0.0027616,0.15097,0.034946,0.049852,-0.0272,0.21637,0.072674,0.0036603,0.092179,0.20124,0.16615,-0.45526,-0.028957,-0.25736,-0.89383
0.01861,0.0023779,0.11029,-0.0079501,-0.016699,0.099197,-0.03477,0.070944,0.0061855,-0.014913,0.11931,0.014082,0.03202,-0.017674,0.12885,0.061708,0.0062201,0.055382,0.14506,0.11679,-0.34703,0.20484,-0.19056,-1.1514
0.013327,0.0023515,0.057323,-0.0016865,-0.017419,0.083407,-0.0049765,0.036765,0.0025077,-0.033379,0.089905,-0.0038669,0.018989,-0.0094229,0.056436,0.053726,0.0090102,0.023567,0.099065,0.095638,-0.24016,0.4479,-0.12193,-1.2915
0.0087234,0.011433,0.033007,0.00079083,-0.016876,0.069024,0.0082342,0.021657,0.0027392,-0.051366,0.075077,-0.012664,0.015944,-0.0048959,0.025497,0.054339,0.011419,0.0087319,0.082797,0.11795,-0.18383,0.65004,-0.076506,-1.2709
0.0070761,0.023433,0.03892,0.0011957,-0.01501,0.058997,0.0067538,0.025492,0.0055322,-0.071836,0.075439,-0.012083,0.021016,-0.0033789,0.033573,0.062756,0.012398,0.011485,0.094485,0.16882,-0.19563,0.78716,-0.061936,-1.1072
0.0092479,0.028843,0.057107,0.0026968,-0.012293,0.052326,0.0025299,0.035484,0.0072354,-0.1008,0.079886,-0.0079036,0.026549,-0.0015098,0.051866,0.071707,0.010793,0.020956,0.11256,0.2104,-0.25228,0.86411,-0.065516,-0.86845
0.013999,0.021639,0.063966,0.0071237,-0.0098114,0.04663,0.0083968,0.035921,0.0043988,-0.14272,0.074694,-0.007407,0.02486,0.0042422,0.047588,0.072334,0.0061088,0.023076,0.11249,0.20782,-0.30915,0.89487,-0.065691,-0.63231
0.018557,0.0041829,0.047784,0.013332,-0.0089016,0.041209,0.02823,0.019777,-0.0035682,-0.19536,0.054692,-0.013765,0.014106,0.015022,0.0090523,0.060685,-0.00072505,0.011054,0.086153,0.15511,-0.33415,0.87888,-0.048844,-0.43964
0.020333,-0.014138,0.015961,0.018291,-0.010383,0.037483,0.054364,-0.0070038,-0.013747,-0.24788,0.027314,-0.02385,-0.00048308,0.028842,-0.046897,0.040736,-0.0073093,-0.010207,0.048026,0.08012,-0.32935,0.79629,-0.017828,-0.27812
0.01874,-0.023943,-0.013358,0.020038,-0.013865,0.036566,0.074332,-0.031616,-0.021768,-0.28448,0.0061596,-0.031211,-0.011011,0.041943,-0.090948,0.021403,-0.010765,-0.02908,0.02262,0.023299,-0.32376,0.62761,0.013927,-0.1061
0.015731,-0.022917,-0.027213,0.019819,-0.017715,0.036906,0.081109,-0.045228,-0.025034,-0.29163,-0.00025299,-0.03156,-0.013221,0.050884,-0.10661,0.0098621,-0.0093192,-0.037077,0.023669,0.0067869,-0.34416,0.37975,0.036227,0.10413
0.014429,-0.016971,-0.027408,0.021376,-0.019905,0.03495,0.078166,-0.049223,-0.024489,-0.26442,0.0051553,-0.026,-0.0094872,0.053803,-0.1029,0.006585,-0.0034654,-0.035274,0.042501,0.01881,-0.38899,0.093105,0.050828,0.33935
0.016667,-0.014613,-0.026423,0.027869,-0.019283,0.028449,0.075406,-0.052165,-0.023448,-0.20807,0.011621,-0.019459,-0.0062839,0.050478,-0.10442,0.0059907,0.0041192,-0.032352,0.055046,0.025749,-0.42699,-0.17897,0.067592,0.55488
0.021353,-0.019581,-0.03494,0.039139,-0.016365,0.018966,0.080128,-0.06114,-0.024469,-0.13424,0.010164,-0.016133,-0.0087045,0.042012,-0.1291,0.0018177,0.0098808,-0.036782,0.040967,0.0010186,-0.4205,-0.40089,0.09277,0.709
0.025064,-0.028176,-0.052975,0.051726,-0.012978,0.010676,0.091243,-0.075632,-0.026919,-0.055077,0.00035961,-0.016258,-0.016809,0.030869,-0.17384,-0.0075682,0.011079,-0.050355,-0.001435,-0.053676,-0.35358,-0.56856,0.12137,0.79149
0.024589,-0.03329,-0.071817,0.061545,-0.010922,0.0063519,0.10146,-0.088958,-0.027307,0.020755,-0.011247,-0.016891,-0.026499,0.020851,-0.21952,-0.018327,0.0068712,-0.068233,-0.056167,-0.11151,-0.24243,-0.69444,0.14124,0.82422
0.01943,-0.031146,-0.083277,0.066833,-0.010643,0.0045253,0.10469,-0.095065,-0.022064,0.088642,-0.018553,-0.015513,-0.033471,0.016043,-0.24868,-0.02503,-0.0016252,-0.084298,-0.10375,-0.14352,-0.12182,-0.77925,0.14487,0.8384
0.012269,-0.024667,-0.086627,0.068846,-0.010958,0.00080332,0.10144,-0.094006,-0.010465,0.14622,-0.021584,-0.01281,-0.036424,0.01858,-0.25867,-0.025521,-0.012011,-0.096004,-0.13538,-0.14084,-0.020698,-0.79902,0.13754,0.85181
0.0070488,-0.020788,-0.087421,0.070026,-0.010058,-0.0078327,0.097546,-0.091298,0.0046249,0.19187,-0.025383,-0.012107,-0.037065,0.026755,-0.25955,-0.022569,-0.021451,-0.10432,-0.15543,-0.11862,0.05326,-0.72249,0.13358,0.86404
0.0062296,-0.024398,-0.090969,0.071592,-0.006967,-0.020003,0.098065,-0.092346,0.018576,0.22478,-0.033997,-0.016262,-0.037725,0.035479,-0.2612,-0.021314,-0.027378,-0.10985,-0.17235,-0.10153,0.11037,-0.54605,0.14415,0.86785
0.0093338,-0.034115,-0.09784,0.072839,-0.0022686,-0.031177,0.10257,-0.097368,0.027763,0.24611,-0.045979,-0.024985,-0.039357,0.039561,-0.2633,-0.025164,-0.028076,-0.11021,-0.18801,-0.10591,0.16378,-0.31539,0.16764,0.85974
0.013673,-0.043138,-0.1053,0.072575,0.0024134,-0.037854,0.10602,-0.10129,0.031191,0.25929,-0.055804,-0.034902,-0.041718,0.037736,-0.25747,-0.033624,-0.023207,-0.1021,-0.19567,-0.13353,0.21741,-0.1118,0.19128,0.83827
0.016383,-0.044222,-0.11175,0.071096,0.0056387,-0.040392,0.10386,-0.098358,0.030183,0.26877,-0.059487,-0.04205,-0.044936,0.034157,-0.23747,-0.043363,-0.01409,-0.086167,-0.18774,-0.17868,0.26649,-0.0090121,0.20246,0.79478
0.016096,-0.034969,-0.11863,0.070659,0.0070085,-0.041721,0.096126,-0.087226,0.026955,0.27772,-0.058626,-0.044592,-0.050262,0.035668,-0.2064,-0.050942,-0.0033793,-0.069039,-0.16501,-0.2378,0.30735,-0.031142,0.19919,0.71125
0.013201,-0.019811,-0.12776,0.073948,0.0070815,-0.043595,0.086925,-0.0722,0.023458,0.28636,-0.058872,-0.043666,-0.058895,0.046456,-0.1738,-0.054782,0.0059557,-0.059299,-0.1383,-0.31112,0.34516,-0.14207,0.19096,0.57254
0.0089313,-0.0073846,-0.13792,0.081907,0.0066889,-0.044615,0.080521,-0.059911,0.021086,0.292,-0.064404,-0.042091,-0.069992,0.064059,-0.14665,-0.055287,0.011962,-0.06029,-0.12086,-0.3962,0.39133,-0.27288,0.18982,0.38434
0.0042641,-0.0048797,-0.145,0.092808,0.0064081,-0.042346,0.078003,-0.05438,0.020797,0.29074,-0.073745,-0.042168,-0.080092,0.080038,-0.12385,-0.053838,0.014624,-0.066613,-0.11836,-0.48272,0.45317,-0.36509,0.20033,0.18007
-0.00056877,-0.012844,-0.14614,0.10324,0.0065462,-0.037223,0.077435,-0.054467,0.022978,0.2798,-0.080897,-0.044253,-0.084959,0.085184,-0.099675,-0.051887,0.015784,-0.06836,-0.1253,-0.55593,0.52572,-0.39739,0.21676,0.0078352
-0.0058196,-0.024043,-0.14306,0.10995,0.0073193,-0.033763,0.076441,-0.055426,0.027029,0.25913,-0.080684,-0.046921,-0.082574,0.075673,-0.071949,-0.05055,0.018064,-0.059874,-0.13065,-0.60631,0.5937,-0.37972,0.2288,-0.094142
-0.011611,-0.027752,-0.14079,0.11101,0.0087924,-0.037133,0.074151,-0.052954,0.031287,0.2318,-0.073474,-0.048388,-0.074777,0.055748,-0.045978,-0.050341,0.023353,-0.045023,-0.12716,-0.63547,0.6417,-0.32635,0.22966,-0.11603
-0.017468,-0.017165,-0.14255,0.10566,0.010637,-0.048089,0.070801,-0.046335,0.033786,0.20298,-0.06519,-0.048019,-0.066086,0.035034,-0.030011,-0.050845,0.031684,-0.033744,-0.11634,-0.65199,0.66361,-0.23563,0.21933,-0.076946
-0.022332,0.0052638,-0.14602,0.093627,0.012168,-0.061424,0.066191,-0.03837,0.033445,0.17795,-0.062803,-0.046653,-0.060545,0.022454,-0.026752,-0.050754,0.041102,-0.032742,-0.10556,-0.66114,0.66326,-0.094734,0.20164,-0.010493
-0.025124,0.028917,-0.1451,0.075172,0.012868,-0.069932,0.059294,-0.032518,0.030704,0.15986,-0.069246,-0.045346,-0.059049,0.020994,-0.029555,-0.048707,0.048557,-0.038956,-0.10063,-0.65881,0.64716,0.097064,0.17927,0.0517
-0.025547,0.042335,-0.13567,0.051989,0.012941,-0.070436,0.049593,-0.029903,0.026993,0.14796,-0.081769,-0.043509,-0.059159,0.02664,-0.027353,-0.04454,0.051292,-0.042127,-0.101,-0.63558,0.61716,0.31101,0.15223,0.087587
-0.024567,0.041374,-0.11983,0.02777,0.013251,-0.066254,0.038422,-0.028643,0.02351,0.1375,-0.094589,-0.038234,-0.057364,0.031744,-0.013856,-0.039823,0.04801,-0.03432,-0.10125,-0.58628,0.57059,0.49632,0.12063,0.083223
-0.024041,0.031698,-0.10447,0.0072021,0.014563,-0.063732,0.02841,-0.025814,0.020482,0.12156,-0.10327,-0.025923,-0.051876,0.030171,0.0074502,-0.036957,0.039302,-0.017636,-0.096876,-0.51471,0.50733,0.60846,0.088332,0.029832
-0.0256,0.023547,-0.095494,-0.0064379,0.016802,-0.066244,0.021257,-0.020143,0.017613,0.094251,-0.10739,-0.0053424,-0.043805,0.020892,0.0269,-0.037418,0.027302,-0.0029254,-0.088537,-0.42863,0.43649,0.63543,0.062925,-0.07412
-0.029524,0.023275,-0.093086,-0.013287,0.019108,-0.071403,0.016119,-0.013031,0.015163,0.053707,-0.10984,0.020394,-0.036052,0.008092,0.037173,-0.040675,0.014875,-0.00056852,-0.08138,-0.33074,0.37568,0.6009,0.051533,-0.21712
-0.034528,0.028856,-0.092321,-0.016599,0.02064,-0.073951,0.010425,-0.0071881,0.014325,0.0032897,-0.11402,0.044985,-0.031075,-0.0018377,0.038945,-0.044756,0.0046847,-0.011625,-0.080478,-0.21588,0.34251,0.544,0.05583,-0.37218
-0.038659,0.033009,-0.088058,-0.020077,0.02128,-0.071163,0.0024878,-0.004199,0.016156,-0.049765,-0.12116,0.062776,-0.029306,-0.0043902,0.03907,-0.047911,-0.001684,-0.027123,-0.086774,-0.078421,0.34518,0.49486,0.070593,-0.50326
-0.040606,0.030667,-0.079399,-0.024947,0.0215,-0.065325,-0.006661,-0.0031927,0.019893,-0.097582,-0.12954,0.072381,-0.029157,0.00033173,0.043856,-0.04974,-0.0043095,-0.035751,-0.096796,0.077149,0.37908,0.46551,0.087045,-0.57873
-0.040387,0.023862,-0.069799,-0.029246,0.021605,-0.061055,-0.014099,-0.0016754,0.022419,-0.13518,-0.1358,0.077173,-0.028159,0.0078245,0.054119,-0.050746,-0.0048823,-0.032813,-0.10577,0.23355,0.43105,0.45871,0.098311,-0.58375
-0.039038,0.019749,-0.063393,-0.029924,0.0213,-0.060591,-0.017775,0.002281,0.019927,-0.16252,-0.13711,0.082334,-0.024201,0.012198,0.066154,-0.050901,-0.0057274,-0.022708,-0.11107,0.36977,0.48691,0.4793,0.10286,-0.5237
-0.037832,0.024078,-0.061505,-0.025776,0.020176,-0.062079,-0.01859,0.0083778,0.010785,-0.18393,-0.13277,0.091035,-0.016261,0.010098,0.076739,-0.048897,-0.0082401,-0.013513,-0.11321,0.47417,0.53626,0.53175,0.10372,-0.41734
-0.037834,0.0364,-0.062447,-0.018535,0.01866,-0.062476,-0.019862,0.014309,-0.0027829,-0.2049,-0.12462,0.10284,-0.0047817,0.0028767,0.086568,-0.043128,-0.011803,-0.0092688,-0.1141,0.54964,0.57301,0.60435,0.10477,-0.28577
-0.039953,0.051169,-0.063924,-0.01124,0.018251,-0.061673,-0.024704,0.017651,-0.015958,-0.22779,-0.11592,0.11522,0.0081379,-0.0046363,0.098736,-0.033682,-0.014228,-0.0070433,-0.11455,0.60615,0.59378,0.65794,0.10722,-0.14519
-0.044855,0.062972,-0.06478,-0.0056001,0.020461,-0.063027,-0.033661,0.017891,-0.024838,-0.24886,-0.10963,0.12627,0.019107,-0.0079728,0.11421,-0.02338,-0.013622,-0.00076298,-0.1131,0.64842,0.59772,0.63733,0.10899,-0.007682
-0.052209,0.070334,-0.064093,-0.00091568,0.025218,-0.069316,-0.044522,0.016965,-0.0294,-0.25908,-0.10703,0.13593,0.024876,-0.0065753,0.12937,-0.016525,-0.010162,0.01252,-0.1069,0.67074,0.58814,0.505,0.10693,0.11384
-0.059742,0.074611,-0.059164,0.0045609,0.030263,-0.078184,-0.054174,0.017846,-0.033345,-0.24911,-0.10741,0.14493,0.024463,-0.0041616,0.13842,-0.015984,-0.0060596,0.030078,-0.093915,0.66426,0.57315,0.27394,0.099589,0.20359
-0.063502,0.076009,-0.045734,0.011358,0.032422,-0.082239,-0.060727,0.022223,-0.040765,-0.21614,-0.10886,0.15308,0.020418,-0.0054978,0.13862,-0.020852,-0.0034808,0.046727,-0.074605,0.62927,0.56285,0.011606,0.088295,0.24825
-0.060054,0.071912,-0.021489,0.017807,0.029991,-0.074723,-0.06429,0.029072,-0.052328,-0.16815,-0.10943,0.15888,0.017669,-0.01223,0.13303,-0.026739,-0.0022312,0.060135,-0.052083,0.58009,0.56387,-0.19436,0.075615,0.24643
-0.049457,0.060057,0.010137,0.020962,0.02431,-0.056124,-0.066175,0.035248,-0.064215,-0.12213,-0.10761,0.16092,0.020215,-0.021359,0.12792,-0.028707,0.00050947,0.07272,-0.030541,0.53681,0.5749,-0.28884,0.062931,0.2133
-0.036356,0.04333,0.04029,0.018108,0.019087,-0.035614,-0.06761,0.03769,-0.070796,-0.095681,-0.10237,0.15934,0.028044,-0.027753,0.12696,-0.024715,0.0078467,0.088265,-0.012963,0.51081,0.58716,-0.28403,0.049381,0.1745
-0.027448,0.030299,0.060242,0.0073501,0.017804,-0.025326,-0.069097,0.035579,-0.068886,-0.096517,-0.093199,0.15547,0.036942,-0.028503,0.12762,-0.016943,0.020157,0.10677,0.00039807,0.49699,0.58974,-0.25007,0.033195,0.15196
-0.026643,0.029294,0.068,-0.012649,0.02117,-0.031613,-0.070768,0.030844,-0.060121,-0.11621,-0.080685,0.14979,0.041659,-0.025312,0.12323,-0.0099246,0.034153,0.12293,0.011673,0.47978,0.57581,-0.26608,0.014036,0.15276
-0.031808,0.040667,0.069936,-0.04246,0.026627,-0.050151,-0.073092,0.02676,-0.049591,-0.13328,-0.067005,0.14036,0.03994,-0.022873,0.10896,-0.0069988,0.045004,0.13017,0.023348,0.44744,0.54544,-0.36505,-0.0061716,0.17024
-0.036264,0.054795,0.07535,-0.080592,0.030335,-0.068821,-0.077063,0.025804,-0.041977,-0.12506,-0.055423,0.12365,0.034088,-0.024897,0.086486,-0.0078947,0.049725,0.12659,0.036037,0.40205,0.50324,-0.51155,-0.025127,0.19635
-0.034315,0.058913,0.088404,-0.12231,0.030094,-0.076247,-0.083503,0.02835,-0.03841,-0.081642,-0.048541,0.097713,0.028843,-0.031459,0.06299,-0.0093606,0.0489,0.1173,0.047874,0.35679,0.45358,-0.62812,-0.043156,0.23337
-0.026246,0.047573,0.10465,-0.16046,0.0269,-0.069554,-0.091993,0.032907,-0.036435,-0.013023,-0.0465,0.064952,0.027568,-0.039865,0.045389,-0.0082098,0.045391,0.11047,0.056061,0.32363,0.39739,-0.65175,-0.064139,0.2931
-0.018265,0.027502,0.11539,-0.18859,0.023961,-0.055704,-0.10054,0.037375,-0.032788,0.055855,-0.04682,0.031821,0.030006,-0.047753,0.03479,-0.0041413,0.041424,0.11065,0.059255,0.30296,0.33303,-0.57977,-0.092626,0.38356
-0.017151,0.012082,0.11591,-0.20421,0.024026,-0.045714,-0.10663,0.040266,-0.026432,0.099572,-0.046328,0.0051459,0.033198,-0.055153,0.025956,7.7081e-005,0.036733,0.11517,0.058589,0.28398,0.2599,-0.47346,-0.12898,0.49573
-0.024204,0.0099757,0.10976,-0.20959,0.027225,-0.046351,-0.1092,0.04121,-0.019396,0.10698,-0.043689,-0.012164,0.034246,-0.063534,0.012105,0.0011662,0.029197,0.11681,0.056324,0.25497,0.1817,-0.419,-0.16678,0.60447
-0.033879,0.017902,0.10524,-0.20935,0.031123,-0.055529,-0.10973,0.040785,-0.015032,0.086552,-0.040232,-0.022551,0.032253,-0.073096,-0.0091921,-0.0016508,0.017014,0.11037,0.053332,0.21408,0.10667,-0.47593,-0.19557,0.68478
-0.038364,0.023946,0.10747,-0.20711,0.032819,-0.064577,-0.11137,0.040066,-0.015428,0.059199,-0.038116,-0.031229,0.028118,-0.081332,-0.033939,-0.0058277,0.00024905,0.097103,0.047826,0.17136,0.044615,-0.64971,-0.20753,0.72951
-0.034016,0.018253,0.11387,-0.20384,0.03121,-0.065236,-0.1162,0.040136,-0.020129,0.044197,-0.037313,-0.041786,0.023128,-0.084552,-0.054802,-0.007542,-0.019386,0.083394,0.036693,0.14067,0.002301,-0.90293,-0.20341,0.75161
-0.023952,0.0014132,0.11722,-0.19877,0.027561,-0.055848,-0.12297,0.041599,-0.026836,0.04821,-0.034181,-0.05365,0.018194,-0.081057,-0.066341,-0.0047696,-0.03978,0.074875,0.018317,0.1286,-0.020368,-1.1893,-0.19297,0.76724
-0.014802,-0.016704,0.11316,-0.19132,0.024135,-0.042205,-0.12756,0.044214,-0.033034,0.064341,-0.023401,-0.063269,0.014323,-0.072979,-0.067972,0.0012616,-0.059189,0.071387,-0.0056475,0.12924,-0.031422,-1.4794,-0.18954,0.77398
-0.010944,-0.025935,0.10455,-0.18178,0.022346,-0.032883,-0.12618,0.046934,-0.037074,0.080188,-0.002285,-0.067566,0.013206,-0.065018,-0.062796,0.0073464,-0.07602,0.066926,-0.031149,0.12847,-0.044294,-1.7592,-0.2023,0.74371
-0.011544,-0.024066,0.098505,-0.17046,0.022067,-0.032991,-0.11888,0.048539,-0.038187,0.087659,0.025778,-0.066411,0.01657,-0.061141,-0.054186,0.01101,-0.088516,0.054429,-0.054448,0.11358,-0.072323,-2.0074,-0.23135,0.63818
-0.012598,-0.017278,0.099288,-0.15694,0.022382,-0.040985,-0.11025,0.048512,-0.036152,0.08719,0.051868,-0.06218,0.024522,-0.062045,-0.043515,0.012244,-0.095435,0.031331,-0.074244,0.080813,-0.12264,-2.1782,-0.26783,0.43611
-0.011287,-0.013578,0.10417,-0.14069,0.022595,-0.050364,-0.10636,0.04744,-0.031441,0.08439,0.06651,-0.057424,0.034614,-0.065366,-0.030697,0.012892,-0.097427,0.0016605,-0.091534,0.035849,-0.19271,-2.2102,-0.29828,0.15131
-0.0081617,-0.016219,0.10628,-0.12266,0.022397,-0.054331,-0.11015,0.046419,-0.025693,0.083319,0.066026,-0.053305,0.043046,-0.06817,-0.016248,0.014423,-0.097533,-0.026358,-0.1077,-0.011595,-0.27185,-2.0604,-0.31068,-0.1713
-0.0054416,-0.022924,0.10137,-0.1058,0.021334,-0.049856,-0.11903,0.045898,-0.021617,0.082537,0.05563,-0.050206,0.047373,-0.06938,-0.0024342,0.016119,-0.099617,-0.04493,-0.12269,-0.053964,-0.34702,-1.7391,-0.29958,-0.47763
-0.0039125,-0.030114,0.091692,-0.093518,0.018679,-0.038748,-0.12671,0.045064,-0.021696,0.077019,0.046485,-0.049339,0.048384,-0.0701,0.0076295,0.015225,-0.10545,-0.050397,-0.13476,-0.088437,-0.40924,-1.3167,-0.26878,-0.7281
-0.0020729,-0.036563,0.083326,-0.087078,0.01422,-0.025777,-0.12809,0.042593,-0.026346,0.063741,0.048287,-0.052966,0.049302,-0.071773,0.011799,0.0089613,-0.11282,-0.044393,-0.14151,-0.11542,-0.45624,-0.89182,-0.22998,-0.9082
0.0016579,-0.042669,0.080078,-0.084391,0.0091014,-0.015614,-0.12305,0.03824,-0.033055,0.045723,0.062573,-0.06245,0.052783,-0.074031,0.0097962,-0.0031676,-0.11659,-0.032678,-0.14109,-0.13596,-0.48993,-0.54038,-0.19741,-1.0228
0.0064586,-0.047289,0.080142,-0.081488,0.0053886,-0.010424,-0.11628,0.033723,-0.037565,0.030793,0.081768,-0.075947,0.058259,-0.074345,0.0025768,-0.018457,-0.11232,-0.022566,-0.13279,-0.15113,-0.51123,-0.27932,-0.18019,-1.0819
0.0094918,-0.047112,0.078628,-0.075454,0.0043077,-0.0091058,-0.11319,0.031689,-0.036617,0.02589,0.094739,-0.088487,0.061988,-0.069992,-0.0087217,-0.032141,-0.099786,-0.019664,-0.11691,-0.16366,-0.51713,-0.071647,-0.17713,-1.0893
0.0090384,-0.040365,0.072915,-0.06629,0.0047739,-0.0082392,-0.11536,0.033348,-0.030374,0.031569,0.094659,-0.0951,0.059884,-0.060771,-0.022879,-0.039828,-0.083398,-0.024984,-0.09471,-0.17925,-0.50254,0.13327,-0.17781,-1.0411
0.0069973,-0.030925,0.065129,-0.056212,0.0039166,-0.0041098,-0.11922,0.036881,-0.022638,0.041316,0.083236,-0.094667,0.050834,-0.050064,-0.03771,-0.039667,-0.069196,-0.034158,-0.068261,-0.20521,-0.46555,0.35579,-0.17002,-0.93261
0.0077352,-0.027308,0.059404,-0.047326,-0.00053741,0.0051787,-0.11898,0.038377,-0.018402,0.046258,0.06851,-0.091049,0.037793,-0.043017,-0.049568,-0.032953,-0.060541,-0.040133,-0.040186,-0.24632,-0.4112,0.57168,-0.14828,-0.76965
0.01403,-0.035905,0.057109,-0.039924,-0.0081434,0.018604,-0.11133,0.034852,-0.020326,0.04148,0.058491,-0.090239,0.025846,-0.04295,-0.054474,-0.022906,-0.055902,-0.038271,-0.013039,-0.30093,-0.35021,0.7351,-0.11725,-0.57441
0.024045,-0.054341,0.055231,-0.032828,-0.015972,0.032749,-0.097881,0.026825,-0.026676,0.02892,0.05584,-0.095653,0.018872,-0.048736,-0.05043,-0.012559,-0.050369,-0.030119,0.011284,-0.36005,-0.29313,0.81653,-0.087184,-0.38202
0.032465,-0.071831,0.049523,-0.025102,-0.021129,0.043628,-0.083663,0.018071,-0.032414,0.014915,0.057238,-0.10543,0.017399,-0.05535,-0.039094,-0.003178,-0.039551,-0.022265,0.031788,-0.41062,-0.24461,0.82425,-0.065338,-0.22752
0.034895,-0.077255,0.038984,-0.017286,-0.023307,0.048688,-0.073114,0.012572,-0.032797,0.0049274,0.056971,-0.11392,0.019076,-0.057409,-0.02516,0.0057527,-0.022711,-0.020609,0.048298,-0.44106,-0.20229,0.79591,-0.050203,-0.13012
0.031383,-0.068143,0.026913,-0.011021,-0.025059,0.047864,-0.067126,0.011262,-0.026792,-2.8018e-005,0.0513,-0.11611,0.020958,-0.053131,-0.013721,0.015185,-0.0028715,-0.024901,0.061381,-0.44637,-0.16123,0.77305,-0.033029,-0.085059
0.025883,-0.052453,0.01757,-0.0075604,-0.029629,0.043257,-0.063397,0.011421,-0.017605,-0.0027528,0.040496,-0.11133,0.021578,-0.045693,-0.007533,0.025007,0.015729,-0.028845,0.072386,-0.43071,-0.11996,0.78207,-0.0051057,-0.069152
0.022441,-0.041533,0.012075,-0.0066961,-0.038347,0.037899,-0.059229,0.0092574,-0.0099006,-0.0064164,0.027965,-0.10347,0.021303,-0.04087,-0.0062214,0.03369,0.030353,-0.026168,0.083281,-0.40654,-0.082689,0.83247,0.035183,-0.056598
0.021926,-0.040741,0.0078992,-0.0069995,-0.049817,0.034369,-0.053876,0.0033352,-0.006024,-0.011804,0.017954,-0.097769,0.021213,-0.042642,-0.00771,0.039384,0.040471,-0.017178,0.095918,-0.39023,-0.055273,0.92378,0.080829,-0.033596
0.022238,-0.046161,0.0022904,-0.0070196,-0.061299,0.03386,-0.048392,-0.0042272,-0.0044593,-0.017481,0.013541,-0.096855,0.02188,-0.05001,-0.010342,0.041469,0.046447,-0.0092849,0.11093,-0.39495,-0.038336,1.0462,0.12089,-0.00079158
0.021279,-0.049831,-0.0042338,-0.0062956,-0.070765,0.035949,-0.043645,-0.0098136,-0.001762,-0.022016,0.015594,-0.099307,0.023139,-0.05741,-0.013797,0.041132,0.048043,-0.010436,0.12705,-0.42328,-0.023839,1.1732,0.14745,0.037277
0.019355,-0.047955,-0.0082707,-0.0054025,-0.077809,0.039105,-0.038941,-0.011682,0.0038772,-0.02561,0.022629,-0.10146,0.024694,-0.058495,-0.018278,0.040413,0.044417,-0.021314,0.14166,-0.46347,0.00042214,1.2589,0.15976,0.085318
0.018627,-0.044218,-0.0075071,-0.0051553,-0.082993,0.041793,-0.032821,-0.011541,0.010746,-0.029526,0.031517,-0.10077,0.026558,-0.050616,-0.023158,0.040539,0.03548,-0.033857,0.15247,-0.49281,0.040507,1.2541,0.16304,0.16018
0.020476,-0.045476,-0.0040231,-0.0057022,-0.086675,0.043672,-0.025108,-0.012909,0.01513,-0.034182,0.038977,-0.09787,0.028734,-0.036814,-0.026705,0.041028,0.022958,-0.037992,0.15914,-0.48785,0.088015,1.1349,0.16376,0.27977
0.023794,-0.054498,-0.0031634,-0.0061727,-0.088552,0.046057,-0.017789,-0.017808,0.01481,-0.03818,0.043281,-0.095737,0.030605,-0.023922,-0.027325,0.040285,0.0098581,-0.030698,0.16364,-0.43657,0.12154,0.92363,0.16508,0.44702
0.026092,-0.066922,-0.0087842,-0.0050876,-0.088193,0.051056,-0.013379,-0.02491,0.011263,-0.039479,0.045053,-0.096855,0.030996,-0.01811,-0.025158,0.037064,-0.0012567,-0.018998,0.16883,-0.34482,0.11888,0.68069,0.16595,0.64273
0.026233,-0.075194,-0.019604,-0.0012763,-0.085741,0.059663,-0.012072,-0.03089,0.0085289,-0.03766,0.046414,-0.10079,0.029162,-0.020978,-0.022433,0.031414,-0.0095653,-0.013914,0.17622,-0.23284,0.072372,0.47193,0.16383,0.83389
0.025803,-0.07541,-0.030498,0.0052401,-0.081994,0.070147,-0.010457,-0.033777,0.0097646,-0.035009,0.049077,-0.10425,0.025781,-0.028837,-0.022122,0.024399,-0.015677,-0.020719,0.18476,-0.12383,-0.0040273,0.33335,0.15844,0.99096
0.027471,-0.070415,-0.037616,0.012977,-0.077836,0.07829,-0.0035159,-0.035132,0.014626,-0.035182,0.052983,-0.10357,0.02275,-0.035506,-0.025922,0.017128,-0.020167,-0.034318,0.19161,-0.032437,-0.082196,0.25873,0.15308,1.1009
0.031823,-0.066351,-0.042134,0.019623,-0.073657,0.079851,0.011346,-0.038923,0.019844,-0.040478,0.056605,-0.097436,0.02169,-0.036493,-0.033177,0.010268,-0.022502,-0.04386,0.19426,0.039437,-0.13752,0.21517,0.15227,1.1672
0.035893,-0.066271,-0.04863,0.023315,-0.069267,0.073758,0.031474,-0.048003,0.022425,-0.050081,0.058478,-0.087656,0.022483,-0.031589,-0.041368,0.0045579,-0.02136,-0.042219,0.19228,0.097787,-0.1645,0.17029,0.15767,1.201
0.03519,-0.067182,-0.059526,0.023747,-0.064182,0.063463,0.049971,-0.061388,0.022525,-0.060775,0.058367,-0.077365,0.023375,-0.0242,-0.047543,0.0016106,-0.015862,-0.031699,0.18695,0.14801,-0.17889,0.11044,0.16593,1.2116
0.027693,-0.063392,-0.071368,0.022339,-0.057835,0.054916,0.060203,-0.074847,0.023305,-0.069414,0.057,-0.068408,0.022685,-0.01818,-0.049534,0.0037655,-0.0063474,-0.021043,0.17935,0.1902,-0.20455,0.042004,0.17044,1.2061
0.016223,-0.052749,-0.077277,0.021299,-0.049598,0.052261,0.06058,-0.084308,0.027806,-0.074934,0.054929,-0.060266,0.020492,-0.014711,-0.046347,0.012568,0.0060605,-0.016979,0.16868,0.22162,-0.25497,-0.017298,0.16599,1.1947
0.0068706,-0.03949,-0.07374,0.022246,-0.038951,0.054555,0.055896,-0.088962,0.035678,-0.07832,0.052002,-0.051293,0.018561,-0.011547,-0.037985,0.026851,0.020381,-0.01835,0.15292,0.24308,-0.32311,-0.046801,0.15252,1.1926
0.0045543,-0.030731,-0.065043,0.025338,-0.026049,0.056422,0.053946,-0.09127,0.042875,-0.08099,0.048145,-0.040885,0.018474,-0.0050193,-0.025118,0.042108,0.035884,-0.018081,0.13161,0.26224,-0.38704,-0.02902,0.13486,1.2131
0.0093668,-0.030028,-0.060338,0.029397,-0.012276,0.05245,0.059732,-0.093992,0.044892,-0.083507,0.044492,-0.030348,0.019776,0.0069577,-0.0087031,0.052124,0.051023,-0.010674,0.10835,0.29013,-0.42662,0.042661,0.11886,1.2558
0.016682,-0.03445,-0.065424,0.032777,5.2205e-006,0.041866,0.07165,-0.09711,0.040799,-0.085859,0.043242,-0.021719,0.02002,0.02326,0.010607,0.052142,0.062491,0.0021294,0.090491,0.33318,-0.438,0.1547,0.10703,1.301
0.020853,-0.038146,-0.076983,0.034292,0.0087995,0.029535,0.082704,-0.097587,0.034378,-0.088621,0.045904,-0.015889,0.01678,0.040356,0.033002,0.041582,0.066062,0.012813,0.085207,0.38744,-0.4355,0.27083,0.097544,1.3175
0.019408,-0.03874,-0.085276,0.033732,0.014067,0.022318,0.085991,-0.092189,0.031075,-0.093169,0.051532,-0.011985,0.0097977,0.054526,0.059312,0.024416,0.059383,0.01509,0.094821,0.4401,-0.44096,0.34476,0.086941,1.2819
0.014466,-0.039784,-0.083361,0.031858,0.018132,0.023747,0.080223,-0.08082,0.033298,-0.10019,0.056991,-0.0085316,0.001332,0.063526,0.089651,0.006838,0.044599,0.0097084,0.11488,0.47734,-0.47016,0.34466,0.073688,1.1938
0.01054,-0.046422,-0.074249,0.03004,0.024268,0.031354,0.070834,-0.067335,0.038308,-0.10796,0.059461,-0.0049654,-0.0055542,0.066677,0.12159,-0.0063052,0.028141,0.003692,0.13682,0.49257,-0.52714,0.27293,0.059121,1.0771
0.010758,-0.058553,-0.068856,0.02964,0.034357,0.038653,0.065767,-0.057072,0.040777,-0.11271,0.058979,-0.0018237,-0.0092286,0.064074,0.14955,-0.014023,0.017032,0.0038771,0.1533,0.48916,-0.6082,0.16506,0.044973,0.96341
0.01454,-0.068922,-0.076137,0.031368,0.047463,0.03992,0.069396,-0.053143,0.03784,-0.11161,0.058362,0.0004827,-0.010427,0.056379,0.16677,-0.019052,0.014212,0.010798,0.16209,0.47623,-0.70878,0.067101,0.030386,0.87227
0.018298,-0.068938,-0.094348,0.034927,0.060432,0.033874,0.079573,-0.054462,0.03206,-0.10583,0.060214,0.0027648,-0.011333,0.045537,0.16918,-0.025389,0.016628,0.018388,0.16572,0.46158,-0.82443,0.0097519,0.011994,0.80096
0.018331,-0.057085,-0.11166,0.039368,0.069955,0.023731,0.090048,-0.056886,0.029534,-0.1003,0.063703,0.0066354,-0.013742,0.035186,0.15871,-0.035355,0.017786,0.019503,0.16777,0.44689,-0.94505,-0.00077038,-0.012335,0.73124
0.013635,-0.041505,-0.11576,0.043998,0.074362,0.014214,0.095828,-0.056361,0.034765,-0.099237,0.064414,0.012955,-0.017796,0.029301,0.14322,-0.048252,0.012747,0.012112,0.16942,0.42798,-1.0502,0.02937,-0.039551,0.64649
0.0066836,-0.033523,-0.10378,0.049109,0.073932,0.0082423,0.096717,-0.05158,0.046854,-0.10077,0.057907,0.020881,-0.022134,0.029459,0.13235,-0.061297,0.0015378,0.00073099,0.16923,0.39865,-1.1142,0.099736,-0.0616,0.54638
0.0018779,-0.03774,-0.083929,0.055633,0.069982,0.0056532,0.096227,-0.044348,0.06028,-0.095932,0.044047,0.028651,-0.025206,0.033082,0.13183,-0.071736,-0.011521,-0.0077841,0.16595,0.35431,-1.1217,0.21967,-0.070539,0.45035
0.0028426,-0.047994,-0.06778,0.063777,0.064016,0.0043363,0.097433,-0.037792,0.069383,-0.074232,0.028175,0.035321,-0.026742,0.034906,0.14022,-0.078314,-0.021446,-0.010005,0.16093,0.29327,-1.0805,0.39285,-0.064625,0.3891
0.010283,-0.05313,-0.060944,0.071822,0.057658,0.0024158,0.099942,-0.034004,0.07252,-0.032514,0.017839,0.041577,-0.028278,0.031212,0.15065,-0.08117,-0.025732,-0.0081504,0.1573,0.21626,-1.0204,0.59707,-0.049923,0.39005
0.02155,-0.047073,-0.060281,0.076558,0.052842,-0.00023541,0.1007,-0.032807,0.07254,0.019877,0.017663,0.048692,-0.03224,0.023494,0.15623,-0.080742,-0.024568,-0.007184,0.15662,0.1262,-0.97309,0.78085,-0.035546,0.46295
0.032026,-0.033681,-0.059181,0.075532,0.051222,-0.002035,0.097495,-0.032221,0.073708,0.064626,0.026449,0.056708,-0.040078,0.018099,0.15502,-0.077096,-0.01877,-0.0098833,0.15646,0.029349,-0.94873,0.88532,-0.026309,0.59096
0.037504,-0.022063,-0.054724,0.069421,0.052753,-0.0010388,0.091438,-0.029992,0.078112,0.085174,0.038512,0.063796,-0.05069,0.021567,0.15083,-0.070314,-0.0081295,-0.01449,0.1522,-0.063861,-0.92709,0.87838,-0.019047,0.73154
0.036343,-0.017449,-0.049566,0.062285,0.054833,0.0034202,0.086122,-0.025006,0.084476,0.077254,0.047689,0.067615,-0.060387,0.035188,0.14949,-0.061246,0.0079742,-0.016877,0.14187,-0.14067,-0.87431,0.77667,-0.00589,0.8302
0.030235,-0.016827,-0.047489,0.058977,0.053492,0.0099591,0.084332,-0.017775,0.089851,0.051572,0.050745,0.067415,-0.064662,0.05327,0.15395,-0.051435,0.028496,-0.014902,0.12934,-0.19124,-0.77298,0.63826,0.018224,0.8445
0.023099,-0.013332,-0.048131,0.061545,0.046318,0.015862,0.085614,-0.0099344,0.092314,0.026707,0.04812,0.064888,-0.060774,0.066701,0.16245,-0.041991,0.049646,-0.010746,0.12205,-0.21424,-0.64122,0.5296,0.050117,0.76711
0.018596,-0.0043269,-0.046829,0.067641,0.034797,0.018853,0.086918,-0.0032382,0.09249,0.017598,0.042394,0.062923,-0.049521,0.069149,0.17076,-0.032605,0.06635,-0.0090692,0.12423,-0.21804,-0.52353,0.48766,0.079622,0.63226
0.017763,0.0056126,-0.03972,0.072435,0.023719,0.018565,0.085478,0.0014081,0.093026,0.027866,0.036223,0.063432,-0.035019,0.061186,0.17636,-0.022057,0.075288,-0.012704,0.13139,-0.21558,-0.45893,0.50094,0.09648,0.49743
0.018426,0.010065,-0.028444,0.072487,0.017713,0.016427,0.081129,0.0045358,0.096707,0.050591,0.030972,0.06614,-0.022646,0.049422,0.18042,-0.010086,0.076962,-0.019824,0.13178,-0.216,-0.45172,0.52051,0.097302,0.40905
0.017083,0.0087115,-0.019085,0.068244,0.017678,0.014002,0.07604,0.0081734,0.10448,0.075361,0.026284,0.069276,-0.016351,0.041598,0.1862,0.0011625,0.075063,-0.025114,0.11462,-0.21918,-0.4689,0.49333,0.087201,0.37466
0.012029,0.0089822,-0.016073,0.06302,0.020224,0.011315,0.072411,0.015254,0.11449,0.095196,0.020461,0.071354,-0.016866,0.041475,0.19549,0.0079556,0.073772,-0.023981,0.0791,-0.21765,-0.46589,0.39659,0.075212,0.36185
0.0052924,0.018847,-0.017224,0.059568,0.020602,0.0069694,0.070419,0.028336,0.12268,0.10853,0.011726,0.072475,-0.021687,0.047018,0.20655,0.0078142,0.075228,-0.016286,0.036713,-0.20396,-0.4191,0.25246,0.067494,0.32435
0.0015001,0.037626,-0.015317,0.05751,0.016438,0.00017373,0.068132,0.047974,0.12482,0.11649,-7.7278e-006,0.074194,-0.026684,0.05269,0.2154,0.002004,0.078994,-0.0065869,0.0049109,-0.17718,-0.33897,0.11516,0.063573,0.23487
0.0042355,0.05452,-0.005084,0.054014,0.0090174,-0.0072397,0.063189,0.071536,0.1189,0.11946,-0.012082,0.078274,-0.028352,0.053684,0.21897,-0.0048266,0.083462,-0.00079294,-0.0032438,-0.14336,-0.25539,0.040119,0.057973,0.099528
0.012752,0.057385,0.01115,0.046937,0.0013121,-0.011129,0.054653,0.093393,0.1065,0.11609,-0.020169,0.085331,-0.025436,0.048976,0.21729,-0.0079472,0.08764,-0.0019026,0.014257,-0.11048,-0.19105,0.05522,0.045183,-0.054863
0.021976,0.043978,0.024968,0.037277,-0.0049603,-0.0079916,0.043692,0.10682,0.091988,0.10469,-0.02129,0.09424,-0.019117,0.041356,0.21294,-0.0061132,0.091845,-0.0080903,0.049412,-0.083524,-0.14656,0.15107,0.023695,-0.20625
0.026119,0.02485,0.02946,0.028529,-0.010372,0.0018229,0.033001,0.10692,0.079675,0.084492,-0.016501,0.1025,-0.011783,0.034951,0.20854,-0.0022782,0.097022,-0.014442,0.090727,-0.064611,-0.10794,0.29275,-0.0036998,-0.35219
0.023048,0.014665,0.025775,0.023599,-0.016286,0.013707,0.02561,0.093071,0.070952,0.055555,-0.010524,0.10728,-0.0052629,0.03236,0.20491,-0.00077997,0.10349,-0.016882,0.12944,-0.057581,-0.065418,0.44137,-0.032823,-0.50314
0.015715,0.019722,0.022224,0.022348,-0.022811,0.021959,0.023667,0.069461,0.063385,0.018472,-0.0080796,0.10665,0.00030024,0.033423,0.20115,-0.0034746,0.11011,-0.015335,0.16147,-0.071461,-0.023929,0.56968,-0.061318,-0.66419
0.0094121,0.033184,0.026513,0.022133,-0.028481,0.023987,0.027455,0.04329,0.052666,-0.024389,-0.0098726,0.10042,0.006207,0.036078,0.19599,-0.0081968,0.11448,-0.013961,0.18566,-0.11762,0.0040014,0.66384,-0.089557,-0.82491
0.0072849,0.042214,0.038307,0.020714,-0.031784,0.021878,0.034944,0.021431,0.036031,-0.066486,-0.01199,0.09019,0.013844,0.038193,0.18875,-0.010731,0.11381,-0.018549,0.20166,-0.20124,0.013882,0.71573,-0.11894,-0.96661
0.0080605,0.040063,0.049167,0.018472,-0.032631,0.019946,0.042413,0.007418,0.014603,-0.096385,-0.0095526,0.078553,0.023249,0.038715,0.17899,-0.0082831,0.10642,-0.033049,0.2097,-0.31351,0.016304,0.71658,-0.14944,-1.0774
0.0078553,0.031839,0.050095,0.017648,-0.032094,0.02054,0.046279,0.00043649,-0.0070792,-0.10125,-0.0013785,0.067939,0.032699,0.037493,0.16589,-0.0012582,0.092665,-0.05743,0.2112,-0.43142,0.027796,0.65914,-0.17855,-1.1585
0.0041426,0.029123,0.039854,0.019369,-0.030882,0.02203,0.045199,-0.0031397,-0.023939,-0.073598,0.0088277,0.059741,0.039673,0.034487,0.14859,0.007978,0.074979,-0.087709,0.20836,-0.52695,0.054541,0.54621,-0.20258,-1.2152
-0.0019455,0.039098,0.026527,0.021604,-0.028514,0.020797,0.040796,-0.0067669,-0.033477,-0.017051,0.016074,0.054219,0.042513,0.029575,0.12749,0.017699,0.056544,-0.11755,0.20204,-0.58035,0.08523,0.39732,-0.21928,-1.2442
-0.0070342,0.058408,0.02102,0.020424,-0.024344,0.015249,0.036164,-0.011357,-0.036965,0.053549,0.019168,0.050952,0.041606,0.023379,0.10489,0.027968,0.039444,-0.14028,0.19028,-0.58933,0.1004,0.24552,-0.22986,-1.2318
-0.0089943,0.076669,0.028424,0.013652,-0.019335,0.0079659,0.033193,-0.01512,-0.03817,0.11837,0.022373,0.049197,0.039256,0.01816,0.083747,0.039289,0.023692,-0.15066,0.16942,-0.56881,0.089722,0.1238,-0.23903,-1.1692
-0.008882,0.085288,0.044743,0.003463,-0.016317,0.0038657,0.031057,-0.015534,-0.040876,0.16154,0.031906,0.04777,0.038304,0.017451,0.065071,0.0505,0.0080554,-0.1462,0.13763,-0.54161,0.061277,0.04796,-0.25266,-1.0693
-0.009417,0.08309,0.061262,-0.0047385,-0.017867,0.0060472,0.027387,-0.011728,-0.047012,0.17732,0.05046,0.044708,0.040394,0.024121,0.046271,0.058559,-0.0079872,-0.12794,0.097658,-0.52584,0.034792,0.0064257,-0.27454,-0.96712
-0.011741,0.074622,0.071923,-0.0064658,-0.023535,0.013127,0.021097,-0.0052757,-0.056372,0.16992,0.074812,0.037542,0.044968,0.038069,0.02232,0.060877,-0.023063,-0.10018,0.055937,-0.5257,0.025565,-0.035581,-0.30403,-0.90108
-0.014034,0.064577,0.076991,-0.0017324,-0.02926,0.020482,0.014091,0.0011334,-0.067586,0.1481,0.098567,0.024584,0.049641,0.055384,-0.01088,0.057972,-0.034864,-0.069075,0.018388,-0.53037,0.033786,-0.11806,-0.33628,-0.88855
-0.013609,0.054812,0.08045,0.0050389,-0.03011,0.024197,0.0099118,0.0058339,-0.079293,0.1184,0.11717,0.0066849,0.051691,0.069865,-0.053624,0.053465,-0.042494,-0.040636,-0.013543,-0.52078,0.047813,-0.26371,-0.36527,-0.91741
-0.010298,0.046246,0.084736,0.0085808,-0.024399,0.024123,0.010399,0.0091617,-0.090678,0.081516,0.13035,-0.011928,0.049688,0.076074,-0.10239,0.050858,-0.047814,-0.019009,-0.043336,-0.4807,0.0568,-0.46401,-0.38796,-0.96159
-0.0073072,0.041795,0.088422,0.0065728,-0.015663,0.023402,0.013611,0.01248,-0.10132,0.033444,0.14008,-0.024842,0.044089,0.072046,-0.15257,0.049871,-0.054111,-0.0056862,-0.076127,-0.4058,0.060381,-0.68299,-0.40675,-1.0085
-0.0081812,0.045276,0.088814,0.00045274,-0.01053,0.025094,0.015333,0.016355,-0.11079,-0.029888,0.14662,-0.026476,0.036338,0.060016,-0.20152,0.046016,-0.063087,0.000397,-0.11477,-0.30612,0.067409,-0.87681,-0.42829,-1.0759
-0.012742,0.056413,0.086059,-0.0070154,-0.013873,0.029068,0.013057,0.019758,-0.11859,-0.10728,0.14708,-0.015269,0.027185,0.044846,-0.24946,0.034258,-0.073162,0.002194,-0.15838,-0.2004,0.086488,-1.0169,-0.45875,-1.2037
-0.016419,0.067714,0.08393,-0.014745,-0.02495,0.031886,0.0086619,0.021082,-0.12436,-0.18892,0.13826,0.0050829,0.015741,0.031085,-0.29786,0.013756,-0.081017,0.0033963,-0.20387,-0.106,0.11785,-1.1019,-0.49826,-1.427
-0.014281,0.068438,0.086194,-0.023991,-0.037584,0.029616,0.006974,0.019879,-0.12824,-0.25683,0.12091,0.027399,0.0003176,0.020272,-0.34719,-0.01066,-0.085119,0.0067994,-0.24826,-0.03066,0.15329,-1.1522,-0.53853,-1.7491
-0.0061829,0.053752,0.092422,-0.036255,-0.044294,0.021054,0.011213,0.017483,-0.13074,-0.28964,0.10108,0.044888,-0.019438,0.0099025,-0.39615,-0.031817,-0.087696,0.012744,-0.28956,0.028947,0.18289,-1.1923,-0.56595,-2.1331
0.0022254,0.030705,0.097847,-0.050638,-0.041293,0.0087879,0.019475,0.015789,-0.1321,-0.27124,0.086777,0.054685,-0.04105,-0.0052598,-0.44261,-0.045557,-0.092914,0.018813,-0.32611,0.081404,0.20191,-1.2344,-0.56879,-2.5164
0.0042385,0.014112,0.097721,-0.063285,-0.030687,-0.0024549,0.025658,0.015385,-0.13162,-0.20047,0.082853,0.058647,-0.060062,-0.029915,-0.48519,-0.053526,-0.10277,0.021566,-0.35631,0.13237,0.21289,-1.2743,-0.54373,-2.8383
-0.0015112,0.014595,0.091753,-0.069473,-0.018438,-0.0086044,0.024247,0.014926,-0.12766,-0.096863,0.088352,0.060816,-0.07301,-0.064608,-0.52376,-0.061108,-0.11467,0.019504,-0.37955,0.18001,0.22293,-1.2963,-0.49732,-3.0656
-0.0091655,0.029137,0.08409,-0.066534,-0.0098864,-0.0082092,0.014836,0.012494,-0.11883,0.0028138,0.098494,0.063398,-0.080121,-0.10395,-0.55885,-0.072493,-0.12327,0.014997,-0.39757,0.21702,0.23955,-1.2831,-0.44114,-3.2028
-0.010481,0.043261,0.078902,-0.05521,-0.006312,-0.0026917,0.0025141,0.007676,-0.1058,0.058383,0.10898,0.064377,-0.085193,-0.1382,-0.59073,-0.087164,-0.12517,0.013234,-0.41371,0.23697,0.26765,-1.2214,-0.38443,-3.285
-0.0022139,0.043541,0.076352,-0.038607,-0.0049938,0.0046481,-0.0060467,0.0023504,-0.092413,0.044831,0.11861,0.058793,-0.092309,-0.15795,-0.61929,-0.10053,-0.12187,0.018487,-0.42972,0.23972,0.30799,-1.1026,-0.32978,-3.3567
0.010775,0.029294,0.073276,-0.0199,-0.0022981,0.010018,-0.0073844,-0.00065799,-0.084666,-0.034779,0.12817,0.042914,-0.10192,-0.15914,-0.64431,-0.10778,-0.11839,0.030429,-0.44264,0.2319,0.35715,-0.9239,-0.27463,-3.4466
0.019676,0.012672,0.06776,-0.00077968,0.0030212,0.010447,-0.0031419,8.8342e-005,-0.087623,-0.1508,0.13739,0.01807,-0.10964,-0.14545,-0.66518,-0.10752,-0.11837,0.043533,-0.44499,0.22242,0.40916,-0.69107,-0.21636,-3.5521
0.019353,0.0070479,0.062425,0.018429,0.0090615,0.0049521,0.0018622,0.0033932,-0.10204,-0.26314,0.14353,-0.0089207,-0.10894,-0.12622,-0.67991,-0.10235,-0.12055,0.050368,-0.42966,0.21666,0.45912,-0.42111,-0.15601,-3.6426
0.012442,0.014578,0.062376,0.037552,0.012933,-0.004701,0.003229,0.0063497,-0.12326,-0.34256,0.1432,-0.029156,-0.095785,-0.11129,-0.68432,-0.096309,-0.11974,0.046534,-0.3962,0.2132,0.50685,-0.14145,-0.09744,-3.6816
0.0063621,0.024539,0.069478,0.055624,0.013667,-0.014279,-0.00060493,0.0066034,-0.14351,-0.38403,0.13554,-0.036247,-0.071657,-0.10628,-0.67299,-0.091403,-0.11168,0.0336,-0.35345,0.20497,0.55765,0.11617,-0.043666,-3.652
0.0063699,0.023819,0.078911,0.071023,0.013172,-0.018901,-0.0082716,0.0040418,-0.15634,-0.40465,0.12343,-0.028776,-0.042937,-0.11091,-0.64217,-0.086043,-0.097095,0.017964,-0.31557,0.18385,0.61827,0.3239,0.0053453,-3.5648
0.011263,0.0095069,0.082139,0.082359,0.014423,-0.015895,-0.01687,0.00062664,-0.15966,-0.42886,0.11124,-0.0094396,-0.017453,-0.12091,-0.59289,-0.076443,-0.081203,0.0065999,-0.29382,0.14611,0.69063,0.46431,0.050672,-3.4422
0.015472,-0.0082455,0.074114,0.089185,0.018646,-0.0069876,-0.023538,-0.001261,-0.15526,-0.47181,0.10124,0.017422,-0.0008979,-0.13118,-0.53166,-0.059962,-0.069013,0.0029342,-0.29003,0.096059,0.7685,0.53366,0.090424,-3.2901
0.015023,-0.015491,0.058075,0.091952,0.024076,0.0020817,-0.026602,-0.00045859,-0.14534,-0.53061,0.09212,0.047428,0.0047708,-0.13783,-0.46791,-0.037858,-0.060686,0.0056802,-0.29662,0.046045,0.84074,0.54312,0.11855,-3.0865
0.011395,-0.0069694,0.043161,0.091467,0.027355,0.0049878,-0.026284,0.0025836,-0.12972,-0.58714,0.080967,0.076167,0.00073406,-0.13855,-0.40943,-0.015307,-0.051279,0.010995,-0.30286,0.012273,0.89914,0.51792,0.12894,-2.7996
0.0096942,0.0097237,0.036781,0.088536,0.026229,-0.00065109,-0.024714,0.0066139,-0.10641,-0.61814,0.066817,0.099034,-0.010246,-0.13231,-0.35927,0.0015494,-0.035131,0.01586,-0.3022,0.0076366,0.94438,0.49178,0.12196,-2.4249
0.013271,0.021559,0.038586,0.084096,0.021165,-0.010962,-0.024803,0.010577,-0.0753,-0.60671,0.052083,0.11232,-0.025047,-0.11997,-0.31574,0.0094751,-0.010968,0.020001,-0.29523,0.034855,0.98462,0.49468,0.10731,-2.006
0.020227,0.021558,0.041463,0.079457,0.01471,-0.017896,-0.028207,0.013913,-0.041143,-0.55027,0.040481,0.11496,-0.040658,-0.10526,-0.27525,0.010014,0.016756,0.025208,-0.28659,0.083849,1.0271,0.53742,0.099654,-1.6169
0.025141,0.013666,0.038433,0.076026,0.0094581,-0.014642,-0.033778,0.016199,-0.012384,-0.46321,0.033488,0.10876,-0.054272,-0.094648,-0.23521,0.0079494,0.041238,0.033024,-0.27956,0.13564,1.069,0.6028,0.1097,-1.3144
0.02416,0.0073547,0.028959,0.074438,0.0065096,-0.0005137,-0.038043,0.0169,0.0039465,-0.37232,0.028928,0.096243,-0.06346,-0.094793,-0.19497,0.0077423,0.058191,0.042841,-0.27327,0.17115,1.0952,0.65211,0.13749,-1.0987
0.018459,0.0080907,0.018946,0.073892,0.0054328,0.018425,-0.03774,0.01572,0.0071201,-0.30501,0.023341,0.077795,-0.066633,-0.10882,-0.15478,0.01102,0.067943,0.051775,-0.26488,0.17982,1.0858,0.64638,0.17326,-0.91527
0.012862,0.013048,0.014739,0.072554,0.0052598,0.033508,-0.032483,0.013225,0.0030198,-0.27372,0.016097,0.051288,-0.063613,-0.13385,-0.11449,0.017091,0.073492,0.056207,-0.25388,0.16245,1.0279,0.56965,0.20468,-0.69752
0.011224,0.015438,0.017057,0.069013,0.0053359,0.039173,-0.02521,0.010887,-0.00058236,-0.26522,0.011338,0.015047,-0.05596,-0.16185,-0.073669,0.025474,0.077044,0.053794,-0.2441,0.12664,0.92462,0.43878,0.2246,-0.4156
0.013142,0.012229,0.020618,0.06359,0.0054342,0.035952,-0.019907,0.010175,0.00028006,-0.2441,0.015561,-0.028447,-0.046659,-0.18338,-0.032856,0.037482,0.078597,0.044715,-0.24114,0.078387,0.79496,0.29247,0.23334,-0.093654
0.014999,0.0072195,0.01966,0.05818,0.0054599,0.028872,-0.018548,0.011317,0.0040117,-0.17182,0.032522,-0.072054,-0.038925,-0.19151,0.0056749,0.054993,0.07758,0.031522,-0.24767,0.016389,0.66378,0.16806,0.23496,0.21379
0.013975,0.0067757,0.0138,0.054529,0.0053015,0.0231,-0.019924,0.012908,0.0069055,-0.031104,0.05968,-0.10781,-0.034472,-0.18337,0.038947,0.077606,0.075212,0.017787,-0.26096,-0.066293,0.54928,0.082455,0.23193,0.46184
0.010876,0.013084,0.0084117,0.052456,0.0049165,0.02052,-0.021257,0.012904,0.0082808,0.16114,0.089305,-0.13197,-0.032248,-0.15902,0.06541,0.10135,0.074541,0.006238,-0.27532,-0.17462,0.4546,0.029886,0.22316,0.63861
0.0090659,0.021986,0.0090653,0.049801,0.0043607,0.019528,-0.020925,0.010355,0.012285,0.3625,0.11345,-0.14645,-0.028737,-0.11954,0.086146,0.12076,0.077715,-0.0026172,-0.28724,-0.30396,0.36881,-0.005232,0.20658,0.75887
0.010799,0.027398,0.015487,0.044392,0.0036529,0.017469,-0.019708,0.0063891,0.024472,0.52987,0.12866,-0.15513,-0.020162,-0.066951,0.10384,0.13269,0.083173,-0.01048,-0.29863,-0.4386,0.27619,-0.032919,0.18302,0.84235
0.01479,0.027519,0.021107,0.036352,0.0027299,0.013196,-0.019532,0.0035087,0.046124,0.64271,0.13665,-0.15813,-0.005387,-0.0060471,0.12035,0.13851,0.085819,-0.019623,-0.31489,-0.55778,0.16785,-0.052385,0.15699,0.8998
0.01744,0.0263,0.018932,0.028523,0.0016536,0.0078448,-0.021128,0.0036821,0.071516,0.70875,0.14064,-0.14959,0.012572,0.054085,0.13509,0.14245,0.080551,-0.030534,-0.33928,-0.64468,0.048535,-0.059075,0.13347,0.93609
0.016407,0.028634,0.0082931,0.024392,0.00074694,0.0038406,-0.023006,0.006798,0.090892,0.75037,0.14104,-0.1214,0.027897,0.10193,0.14572,0.1478,0.066259,-0.040622,-0.36854,-0.69207,-0.065392,-0.055158,0.11366,0.96022
0.01289,0.034227,-0.004005,0.025206,0.00019624,0.0035071,-0.022746,0.010772,0.097075,0.78513,0.13458,-0.070269,0.035604,0.12909,0.1504,0.15432,0.046954,-0.045357,-0.39353,-0.70134,-0.15481,-0.052575,0.093948,0.98743
0.010402,0.03665,-0.0093955,0.028794,-0.00069781,0.0082992,-0.01932,0.013141,0.090508,0.81616,0.11763,-0.0021996,0.034949,0.13608,0.14937,0.15909,0.029163,-0.041426,-0.40452,-0.67705,-0.2072,-0.065686,0.06939,1.0303
0.011304,0.029078,-0.004939,0.031152,-0.0036575,0.018448,-0.014137,0.012721,0.078738,0.83722,0.090418,0.069412,0.029948,0.13361,0.14449,0.15963,0.017833,-0.029604,-0.39675,-0.62226,-0.2204,-0.10066,0.038901,1.0892
0.014533,0.011595,0.0042768,0.029451,-0.010193,0.032331,-0.0097174,0.010011,0.070801,0.84357,0.05814,0.13068,0.026447,0.13703,0.13748,0.1561,0.013878,-0.01486,-0.37193,-0.53799,-0.19967,-0.1516,0.0076389,1.1526
0.016637,-0.007018,0.0096604,0.023967,-0.01963,0.045761,-0.0071841,0.0063253,0.071013,0.83609,0.027477,0.17376,0.027914,0.15704,0.12885,0.15074,0.014714,-0.0032759,-0.33536,-0.42626,-0.15208,-0.20689,-0.015765,1.2072
0.014978,-0.015268,0.006181,0.017506,-0.028336,0.052586,-0.0049777,0.0028052,0.076902,0.81532,0.0016586,0.19835,0.033232,0.19296,0.11861,0.14541,0.016706,0.0019509,-0.2919,-0.29271,-0.083757,-0.25936,-0.025232,1.2453
0.0099619,-0.0079309,-0.0042673,0.01299,-0.03158,0.047667,-0.00021596,0.00026732,0.082497,0.77428,-0.021744,0.208,0.038206,0.23359,0.10782,0.14002,0.017434,0.00221,-0.24454,-0.14634,-0.0016211,-0.31075,-0.021883,1.2639
0.0043018,0.0096799,-0.015451,0.011312,-0.027187,0.031145,0.0082851,-0.0003984,0.083786,0.70103,-0.048528,0.20536,0.039391,0.26494,0.098854,0.13331,0.016495,0.001597,-0.19616,0.0032497,0.083421,-0.3665,-0.013736,1.2568
0.00030528,0.025839,-0.022019,0.011081,-0.01798,0.010601,0.018032,0.0016664,0.081629,0.59157,-0.083313,0.19073,0.03693,0.2792,0.093742,0.12491,0.014936,0.0032087,-0.15151,0.14801,0.15669,-0.42625,-0.010699,1.2128
-0.0020157,0.031346,-0.022386,0.010193,-0.010391,-0.0019905,0.024036,0.0062831,0.079903,0.4608,-0.12657,0.16461,0.03407,0.27851,0.091901,0.11647,0.014095,0.0068645,-0.11648,0.28136,0.2047,-0.47976,-0.018591,1.1252
-0.0042428,0.025724,-0.017614,0.0077601,-0.009779,0.0021044,0.022677,0.011356,0.080965,0.33831,-0.17509,0.13079,0.03402,0.27149,0.089705,0.11062,0.014593,0.010043,-0.094929,0.3967,0.22155,-0.51224,-0.036343,1.005
-0.0072255,0.015899,-0.0089576,0.0047512,-0.016143,0.021256,0.015174,0.013563,0.082772,0.24915,-0.22444,0.096001,0.0372,0.26604,0.082804,0.10895,0.015871,0.010834,-0.086117,0.48725,0.21177,-0.51447,-0.057792,0.88214
-0.0097332,0.0093697,0.0026252,0.002914,-0.024069,0.043033,0.0074665,0.010685,0.080402,0.19555,-0.27052,0.065488,0.041419,0.26444,0.069572,0.11099,0.01651,0.010002,-0.085495,0.54829,0.18751,-0.48844,-0.075974,0.78891
-0.0096024,0.0083416,0.014934,0.0029404,-0.027257,0.052179,0.006021,0.0037179,0.070666,0.15747,-0.30935,0.038306,0.044617,0.26416,0.052797,0.11501,0.015219,0.010294,-0.088149,0.57969,0.16227,-0.44421,-0.086476,0.73591
-0.0062287,0.0095724,0.023931,0.0034776,-0.023841,0.041749,0.012672,-0.0033986,0.055744,0.11341,-0.33667,0.0070079,0.047232,0.26266,0.038047,0.11961,0.011833,0.013838,-0.091496,0.58602,0.1453,-0.39192,-0.087922,0.70065
-0.0017444,0.0088606,0.026134,0.0018973,-0.01782,0.018661,0.022899,-0.0066181,0.042659,0.062895,-0.34927,-0.037218,0.051535,0.26103,0.029905,0.12409,0.0074608,0.020162,-0.094625,0.57299,0.13929,-0.3374,-0.080474,0.64139
0.00054277,0.0050491,0.022095,-0.0036916,-0.015312,-0.0013197,0.029364,-0.0048575,0.038927,0.028243,-0.34767,-0.097892,0.05831,0.26277,0.028929,0.12746,0.0035169,0.026674,-0.095292,0.54325,0.14111,-0.28534,-0.064682,0.5283
-0.00090269,-0.00012464,0.01688,-0.012752,-0.019015,-0.0055677,0.028054,-0.00054506,0.047843,0.031486,-0.33737,-0.17059,0.06417,0.26868,0.031524,0.12754,0.00048163,0.031032,-0.088235,0.49546,0.14421,-0.24559,-0.041965,0.36823
-0.0043716,-0.0050693,0.01599,-0.022325,-0.025871,0.0060276,0.02181,0.0028268,0.066925,0.066903,-0.32622,-0.24637,0.062712,0.27287,0.032535,0.12183,-0.002299,0.033169,-0.067419,0.42841,0.14154,-0.23421,-0.015861,0.20325
-0.0064289,-0.010064,0.020174,-0.028819,-0.029981,0.021872,0.017942,0.0037665,0.090374,0.096372,-0.31929,-0.31785,0.049367,0.26466,0.028466,0.10993,-0.0053473,0.035173,-0.030788,0.34742,0.12857,-0.26529,0.007961,0.082629
-0.0050314,-0.015562,0.024479,-0.030303,-0.02796,0.028654,0.021715,0.0035632,0.11332,0.075941,-0.31536,-0.38234,0.026133,0.23599,0.019159,0.095123,-0.0074861,0.039275,0.016771,0.26742,0.10559,-0.33886,0.023866,0.028796
-0.0012755,-0.019522,0.023128,-0.02767,-0.021731,0.0219,0.031307,0.004262,0.13456,-0.0066595,-0.30838,-0.43933,0.0018431,0.18864,0.0073009,0.083084,-0.0057906,0.045858,0.065579,0.20943,0.077741,-0.4354,0.029376,0.022183
0.0018538,-0.017881,0.015768,-0.023902,-0.016228,0.0084987,0.038819,0.0061793,0.1558,-0.11582,-0.29314,-0.4852,-0.012977,0.13479,-0.0033121,0.078076,0.0023049,0.053287,0.10747,0.19125,0.05213,-0.52331,0.026945,0.015649
0.0024554,-0.0088451,0.0087364,-0.02205,-0.014252,-0.00012686,0.036771,0.0076624,0.17842,-0.18902,-0.27028,-0.51086,-0.013023,0.089682,-0.0094078,0.079698,0.016232,0.059545,0.14166,0.21817,0.03325,-0.57551,0.022962,-0.032446
0.0015118,0.0032323,0.0095425,-0.023392,-0.013343,0.0023313,0.024543,0.0072585,0.20035,-0.18002,-0.24613,-0.50538,-0.0015644,0.06172,-0.0090839,0.083095,0.03136,0.064064,0.17559,0.27953,0.019991,-0.58337,0.024608,-0.12988
0.0018325,0.009386,0.01958,-0.026966,-0.0076243,0.012714,0.0091336,0.0057305,0.21583,-0.09112,-0.22763,-0.46319,0.01237,0.047961,-0.0020328,0.082574,0.041173,0.068009,0.22001,0.35365,0.0066394,-0.55763,0.036544,-0.24549
0.0052259,0.0030699,0.032178,-0.030626,0.0069438,0.022116,-0.00053817,0.0054201,0.21855,0.029454,-0.21659,-0.38905,0.020608,0.038345,0.010478,0.075516,0.041194,0.072824,0.28156,0.41809,-0.012505,-0.51622,0.059169,-0.32871
0.010611,-0.013219,0.038183,-0.03269,0.028518,0.023524,-0.00086478,0.0073651,0.20609,0.1208,-0.20833,-0.29659,0.020926,0.024648,0.025876,0.063209,0.031676,0.078457,0.35776,0.4592,-0.03804,-0.46902,0.088966,-0.33911
0.014805,-0.028369,0.033953,-0.032901,0.049948,0.016756,0.003921,0.0092855,0.18234,0.14679,-0.1956,-0.20156,0.01684,0.006424,0.041093,0.048166,0.016984,0.082965,0.43719,0.47568,-0.063516,-0.4121,0.12043,-0.26633
0.015209,-0.030838,0.024263,-0.032038,0.063384,0.007394,0.0059393,0.0070308,0.15559,0.11133,-0.17437,-0.11502,0.012876,-0.010557,0.053938,0.030797,0.002319,0.083893,0.5044,0.47509,-0.078057,-0.33534,0.14867,-0.13011
0.011941,-0.017981,0.017461,-0.030691,0.06511,0.0017268,0.00068395,-0.0013815,0.13347,0.044907,-0.14679,-0.041327,0.0098216,-0.020883,0.064399,0.0088488,-0.0094594,0.080179,0.54655,0.46731,-0.071953,-0.23636,0.17158,0.035603
0.0075937,0.0017131,0.017622,-0.028391,0.057083,0.0023222,-0.0093185,-0.012969,0.11816,-0.022738,-0.11942,0.018696,0.0041031,-0.024538,0.074862,-0.019671,-0.018556,0.072939,0.55838,0.4597,-0.041943,-0.1281,0.1906,0.20095
0.0049564,0.015652,0.021173,-0.023995,0.044683,0.0072362,-0.017155,-0.02134,0.1054,-0.082164,-0.098808,0.063403,-0.0084073,-0.026124,0.088738,-0.052854,-0.026482,0.064509,0.54325,0.45686,0.0066212,-0.033212,0.20924,0.3488
0.0047803,0.01733,0.020957,-0.017031,0.033066,0.012415,-0.017758,-0.021742,0.088085,-0.14443,-0.088035,0.089326,-0.02782,-0.029877,0.10807,-0.084239,-0.033874,0.056703,0.51042,0.46312,0.061706,0.030454,0.23023,0.47151
0.0054393,0.010769,0.013535,-0.0087583,0.024854,0.014731,-0.012078,-0.015224,0.061652,-0.2265,-0.086416,0.094456,-0.049166,-0.035592,0.13157,-0.10639,-0.039891,0.049781,0.4701,0.48368,0.10954,0.06154,0.253,0.56342
0.0045864,0.0056633,0.0026204,-0.0018324,0.020095,0.013524,-0.005757,-0.0080393,0.027039,-0.33568,-0.091468,0.082278,-0.065967,-0.038886,0.15464,-0.11613,-0.043311,0.042908,0.42925,0.52228,0.14018,0.074689,0.27384,0.61829
0.0012113,0.008209,-0.0044805,0.0013547,0.017508,0.010268,-0.003912,-0.0065567,-0.01083,-0.46411,-0.10103,0.061966,-0.075393,-0.03484,0.17148,-0.11722,-0.043818,0.03552,0.39017,0.57688,0.15118,0.088671,0.28868,0.63422
-0.0036553,0.016196,-0.0037456,0.00036381,0.015616,0.0072269,-0.0069199,-0.011995,-0.047508,-0.5946,-0.11405,0.043462,-0.080458,-0.02163,0.17844,-0.11784,-0.042075,0.028317,0.35223,0.63743,0.14727,0.11265,0.29629,0.61984
-0.0079846,0.022405,0.0020498,-0.0029203,0.013308,0.0061292,-0.010809,-0.019521,-0.082581,-0.71048,-0.13029,0.031004,-0.087159,-0.0020499,0.17634,-0.12467,-0.038704,0.023024,0.3148,0.6884,0.1363,0.14086,0.2992,0.5936
-0.010389,0.022267,0.0063745,-0.0055169,0.010171,0.0074677,-0.011524,-0.022386,-0.11949,-0.80157,-0.14991,0.020455,-0.098826,0.016816,0.17061,-0.13792,-0.033501,0.021155,0.27873,0.71474,0.12317,0.1586,0.30147,0.5745
-0.010876,0.017968,0.0053103,-0.00519,0.0068068,0.010634,-0.008888,-0.0174,-0.16209,-0.86356,-0.17342,0.0028555,-0.11252,0.025096,0.16884,-0.15138,-0.025807,0.022844,0.24533,0.70787,0.10545,0.15406,0.30519,0.57163
-0.010307,0.015297,0.00093498,-0.0015584,0.0047753,0.014728,-0.0065928,-0.0070957,-0.21103,-0.89498,-0.20165,-0.028521,-0.12078,0.013405,0.17702,-0.15732,-0.015674,0.026736,0.2141,0.66824,0.07341,0.12696,0.30897,0.58195
-0.0094351,0.017025,-0.0014702,0.0041249,0.0057517,0.019445,-0.0083486,0.0029603,-0.26277,-0.89721,-0.23508,-0.073111,-0.11748,-0.021614,0.19642,-0.15257,-0.0045299,0.031057,0.1815,0.6043,0.01494,0.088633,0.3095,0.59891
-0.0086165,0.019979,0.00061463,0.010041,0.010201,0.025224,-0.013943,0.0089219,-0.31126,-0.87815,-0.27316,-0.12361,-0.10318,-0.071873,0.22277,-0.14086,0.0053254,0.034952,0.14203,0.52927,-0.077494,0.054708,0.30463,0.62417
-0.0082831,0.018812,0.0039659,0.014773,0.016567,0.032412,-0.019066,0.011182,-0.35035,-0.85413,-0.31395,-0.17104,-0.085255,-0.11779,0.24847,-0.1297,0.011869,0.038905,0.090709,0.45726,-0.20225,0.03624,0.29522,0.67132
-0.009226,0.012276,0.0027794,0.017622,0.021792,0.040126,-0.019203,0.012731,-0.37498,-0.84384,-0.35483,-0.21013,-0.07277,-0.13696,0.26693,-0.12433,0.013987,0.043778,0.024864,0.39941,-0.34897,0.03481,0.28438,0.75757
-0.011913,0.005156,-0.0051064,0.018483,0.022974,0.046033,-0.013995,0.015383,-0.38126,-0.85422,-0.39322,-0.24116,-0.069929,-0.11803,0.27645,-0.12358,0.011141,0.049201,-0.055662,0.3607,-0.50323,0.043857,0.27504,0.89009
-0.015368,0.003582,-0.015305,0.017771,0.019058,0.047462,-0.0077899,0.017694,-0.3671,-0.86773,-0.42685,-0.268,-0.073442,-0.070039,0.28112,-0.1207,0.0027911,0.05276,-0.14873,0.33909,-0.65136,0.054216,0.26815,1.0584
-0.0171,0.0085669,-0.020599,0.016569,0.011448,0.042963,-0.0056312,0.01654,-0.33386,-0.84277,-0.45334,-0.29469,-0.075689,-0.018581,0.28774,-0.10821,-0.011411,0.050938,-0.24903,0.32785,-0.78212,0.059722,0.26267,1.2386
-0.014883,0.014714,-0.017956,0.016582,0.0032192,0.0329,-0.0083004,0.010744,-0.28749,-0.73161,-0.47019,-0.32294,-0.070952,0.010294,0.30075,-0.082865,-0.030541,0.041378,-0.34633,0.3202,-0.88514,0.059416,0.25684,1.4049
-0.0092355,0.015827,-0.011953,0.019449,-0.002445,0.018628,-0.011184,0.003162,-0.23714,-0.50739,-0.4759,-0.35156,-0.059707,0.0071824,0.31896,-0.047242,-0.051556,0.024919,-0.42542,0.31279,-0.95002,0.055897,0.24931,1.54
-0.0041441,0.011882,-0.010871,0.025564,-0.0036734,0.0012955,-0.0083385,-0.00088148,-0.19112,-0.18398,-0.47151,-0.37655,-0.047801,-0.015431,0.33663,-0.0077023,-0.069843,0.005874,-0.4704,0.30502,-0.96902,0.052355,0.23976,1.6379
-0.0046548,0.010025,-0.018847,0.033311,-0.00057171,-0.018291,0.0017993,0.0023865,-0.15304,0.18429,-0.46069,-0.39135,-0.041595,-0.033606,0.34813,0.029061,-0.081126,-0.0096948,-0.47225,0.2948,-0.94269,0.051549,0.22895,1.7024
-0.012729,0.018008,-0.03152,0.039595,0.0049471,-0.038535,0.014384,0.01213,-0.12141,0.52317,-0.4474,-0.38757,-0.043188,-0.029334,0.35248,0.058275,-0.083349,-0.016624,-0.43476,0.27489,-0.88323,0.057522,0.21901,1.7442
-0.024831,0.036042,-0.039469,0.041642,0.009947,-0.056041,0.021947,0.023369,-0.092985,0.76821,-0.43256,-0.35733,-0.049384,-0.0011993,0.35393,0.07753,-0.077155,-0.012632,-0.37312,0.23416,-0.81113,0.077324,0.21349,1.7789
-0.033774,0.054953,-0.036411,0.038853,0.011582,-0.066311,0.020794,0.030593,-0.066635,0.88783,-0.41271,-0.29748,-0.054728,0.038674,0.3582,0.086406,-0.064875,0.0012926,-0.30487,0.16395,-0.74598,0.11899,0.21665,1.8221
-0.033861,0.062741,-0.024605,0.0332,0.0082173,-0.066171,0.014296,0.031645,-0.044079,0.88997,-0.38266,-0.21351,-0.055778,0.076456,0.36763,0.086333,-0.049205,0.021896,-0.23937,0.06485,-0.69796,0.18521,0.23142,1.8818
-0.025319,0.053867,-0.012696,0.02774,0.00013436,-0.056089,0.010013,0.029015,-0.027047,0.8116,-0.34036,-0.12018,-0.053174,0.10582,0.37921,0.08053,-0.032613,0.045096,-0.17459,-0.051197,-0.66655,0.26744,0.25737,1.9505
-0.014322,0.033228,-0.0083433,0.0244,-0.010571,-0.04035,0.013158,0.027771,-0.0141,0.69939,-0.29004,-0.03658,-0.050163,0.12744,0.38712,0.07323,-0.017337,0.066973,-0.10428,-0.16516,-0.64681,0.34654,0.29005,2.0061
-0.0084662,0.011871,-0.012606,0.022885,-0.020986,-0.02471,0.022154,0.031871,-0.00073189,0.59208,-0.24046,0.022649,-0.04917,0.14184,0.3875,0.068009,-0.0049938,0.084069,-0.02941,-0.2581,-0.63699,0.40224,0.32262,2.0206
-0.011337,-0.0012397,-0.020796,0.021586,-0.028825,-0.013291,0.030195,0.041505,0.017023,0.51211,-0.19922,0.055113,-0.049277,0.14472,0.38124,0.066192,0.004494,0.093464,0.03695,-0.31664,-0.64013,0.42542,0.34896,1.974
-0.020425,-0.0043714,-0.028064,0.019497,-0.033533,-0.0069673,0.0313,0.053176,0.039005,0.4669,-0.16758,0.072122,-0.046393,0.13043,0.37271,0.066554,0.01359,0.093288,0.076921,-0.33481,-0.65893,0.42383,0.36619,1.8647
-0.029646,-0.0018101,-0.033769,0.01719,-0.036416,-0.0040998,0.025453,0.062221,0.060975,0.45465,-0.1399,0.091946,-0.035719,0.10044,0.36569,0.066511,0.026052,0.083764,0.082233,-0.3139,-0.6897,0.4157,0.37509,1.7101
-0.033901,0.0010762,-0.040618,0.015845,-0.039725,-0.0024852,0.01839,0.065995,0.0783,0.46868,-0.10771,0.12854,-0.014567,0.067652,0.36041,0.06381,0.044146,0.068017,0.063464,-0.26242,-0.72242,0.4157,0.37854,1.5421
-0.031951,0.0015277,-0.050286,0.015389,-0.045263,-0.00075349,0.016513,0.065646,0.089717,0.49865,-0.065327,0.18284,0.016159,0.051002,0.35427,0.057485,0.066192,0.051449,0.04555,-0.19587,-0.74746,0.42438,0.37931,1.4
-0.025956,-0.00049932,-0.060689,0.013896,-0.053307,0.0015421,0.021608,0.065442,0.097629,0.53223,-0.012782,0.24237,0.052201,0.063226,0.34534,0.047766,0.086753,0.039257,0.052314,-0.1342,-0.76259,0.42956,0.37881,1.3233
-0.019118,-0.0041198,-0.067903,0.0092303,-0.062457,0.0044941,0.029866,0.070058,0.10501,0.56059,0.044871,0.28923,0.087312,0.10155,0.33506,0.035552,0.099761,0.033272,0.091755,-0.095788,-0.77314,0.41834,0.37695,1.3424
-0.013874,-0.0084077,-0.070462,0.0015181,-0.070433,0.0080695,0.035527,0.08147,0.11229,0.58559,0.10051,0.31096,0.11507,0.14889,0.32738,0.022154,0.10225,0.030446,0.15272,-0.090478,-0.78489,0.3891,0.37267,1.4656
-0.011578,-0.011877,-0.071033,-0.0061726,-0.075311,0.011828,0.035512,0.097307,0.11734,0.62112,0.14775,0.30679,0.13083,0.18495,0.32481,0.0092561,0.095669,0.024682,0.21401,-0.11586,-0.79665,0.35319,0.3647,1.6718
-0.012705,-0.012418,-0.073306,-0.010056,-0.076392,0.014796,0.031042,0.11169,0.11846,0.68305,0.18266,0.28567,0.13332,0.19873,0.32535,-0.0014522,0.083913,0.011345,0.25785,-0.15943,-0.79996,0.32549,0.35217,1.9133
-0.016514,-0.0089764,-0.077373,-0.0089498,-0.074219,0.015983,0.025592,0.11812,0.11693,0.77188,0.2045,0.25855,0.12494,0.19354,0.32346,-0.0091211,0.069828,-0.008623,0.27838,-0.20501,-0.78614,0.31266,0.33518,2.1342
-0.020634,-0.0035223,-0.078959,-0.0054725,-0.069806,0.015072,0.021795,0.11283,0.11658,0.86145,0.21596,0.23119,0.11002,0.18179,0.31464,-0.014432,0.053401,-0.028372,0.28182,-0.23924,-0.75332,0.31,0.31493,2.2939
-0.02197,-0.00050737,-0.074069,-0.0037056,-0.063793,0.012313,0.02026,0.096641,0.12071,0.90538,0.22258,0.20268,0.091521,0.17456,0.29962,-0.019312,0.032972,-0.039457,0.28148,-0.25519,-0.70547,0.30891,0.29309,2.3834
-0.019052,-0.0032483,-0.064567,-0.0053337,-0.05626,0.007394,0.02069,0.074272,0.12933,0.86047,0.23106,0.16974,0.068525,0.17424,0.28414,-0.025671,0.0081351,-0.038056,0.29183,-0.25306,-0.64355,0.30731,0.27066,2.4233
-0.013798,-0.010361,-0.058367,-0.0079657,-0.047399,-0.0016018,0.023241,0.051666,0.13945,0.71188,0.24663,0.13214,0.037001,0.17489,0.27419,-0.034166,-0.018362,-0.028427,0.32353,-0.23959,-0.55764,0.31202,0.2474,2.4473
-0.010413,-0.016284,-0.062897,-0.0073776,-0.038417,-0.017608,0.028247,0.032853,0.14761,0.48217,0.27055,0.094008,-0.0061533,0.16908,0.27088,-0.044075,-0.041397,-0.020569,0.37935,-0.22682,-0.42952,0.3302,0.22273,2.4817
-0.011687,-0.016324,-0.0776,-0.0016045,-0.031703,-0.04205,0.034665,0.018203,0.15211,0.21847,0.29882,0.059998,-0.058566,0.15524,0.26966,-0.054315,-0.056212,-0.023293,0.45222,-0.22871,-0.2468,0.35735,0.19752,2.534
-0.015989,-0.011736,-0.093166,0.0070879,-0.029776,-0.072199,0.039377,0.0048844,0.15266,-0.032078,0.32329,0.030035,-0.11126,0.13973,0.26458,-0.064514,-0.060882,-0.037648,0.52819,-0.25485,-0.0182,0.37371,0.17521,2.5928
-0.018285,-0.0094216,-0.099263,0.014309,-0.033615,-0.10109,0.038798,-0.010937,0.14849,-0.24101,0.33513,-0.0019012,-0.15248,0.13204,0.25362,-0.074987,-0.056803,-0.055735,0.59465,-0.30374,0.22308,0.35431,0.16047,2.6357
-0.014855,-0.015557,-0.094112,0.017679,-0.041693,-0.12108,0.031751,-0.03152,0.13765,-0.40167,0.32949,-0.043046,-0.17407,0.13659,0.24032,-0.08558,-0.047206,-0.06609,0.64884,-0.36036,0.43284,0.28619,0.15591,2.6389
-0.0074624,-0.028714,-0.086737,0.018939,-0.050678,-0.12887,0.020965,-0.055914,0.11888,-0.52072,0.30881,-0.094796,-0.17581,0.14755,0.23011,-0.09459,-0.035202,-0.061783,0.69908,-0.40156,0.57813,0.18028,0.15911,2.585
-0.0026412,-0.03945,-0.089153,0.02196,-0.057423,-0.12805,0.011477,-0.079867,0.094547,-0.60905,0.28191,-0.14956,-0.1647,0.15105,0.22486,-0.098989,-0.022827,-0.045205,0.75588,-0.40708,0.653,0.068643,0.16266,2.4694
-0.006193,-0.037778,-0.10529,0.02868,-0.060643,-0.12631,0.0069626,-0.097167,0.071091,-0.67853,0.25884,-0.19482,-0.14989,0.13426,0.22064,-0.096109,-0.011389,-0.026085,0.81947,-0.36935,0.6778,-0.011437,0.1577,2.3026
-0.017714,-0.022299,-0.1269,0.037004,-0.060893,-0.12907,0.0069919,-0.10185,0.055358,-0.74141,0.24442,-0.22155,-0.1374,0.095068,0.21068,-0.085529,-0.0022141,-0.01442,0.8751,-0.29575,0.68399,-0.036284,0.13894,2.1051
-0.030367,-0.0024531,-0.14044,0.042787,-0.058975,-0.13432,0.0075637,-0.090582,0.049268,-0.80569,0.23528,-0.22994,-0.12807,0.044606,0.19078,-0.069658,0.0032705,-0.013751,0.90195,-0.2026,0.69583,-0.006021,0.10745,1.8969
-0.036419,0.0088157,-0.13874,0.043935,-0.054514,-0.13325,0.0044745,-0.064341,0.047605,-0.86614,0.22299,-0.22757,-0.1196,-0.00033593,0.16249,-0.052473,0.0043435,-0.01954,0.88925,-0.1064,0.72021,0.058782,0.069313,1.6862
-0.033691,0.0058074,-0.12684,0.042626,-0.046331,-0.11666,-0.0032858,-0.02855,0.041642,-0.89913,0.2009,-0.22136,-0.10996,-0.030158,0.13145,-0.037373,0.0018735,-0.023272,0.8457,-0.018876,0.74776,0.13025,0.031264,1.4685
-0.027128,-0.0054496,-0.11703,0.043525,-0.034406,-0.082566,-0.012859,0.0087758,0.026216,-0.86999,0.16941,-0.21023,-0.099468,-0.050696,0.10281,-0.025737,-0.0017181,-0.018818,0.79312,0.052202,0.76083,0.18729,-0.0035408,1.2364
-0.02417,-0.013128,-0.11799,0.049831,-0.021311,-0.038978,-0.019923,0.040162,0.0043996,-0.75183,0.13554,-0.1849,-0.08994,-0.079557,0.077842,-0.017208,-0.0036439,-0.0065179,0.74923,0.10012,0.74198,0.22289,-0.03642,0.99353
-0.028238,-0.010534,-0.12813,0.061014,-0.011198,0.00017485,-0.022002,0.061437,-0.014418,-0.54352,0.10791,-0.13503,-0.082542,-0.13232,0.054398,-0.011229,-0.0022905,0.0073581,0.71452,0.11925,0.68028,0.24245,-0.070415,0.75973
-0.036155,-0.0019605,-0.13863,0.074255,-0.0067827,0.023122,-0.020008,0.072528,-0.021575,-0.27336,0.091512,-0.057918,-0.076537,-0.20896,0.030185,-0.0083761,0.0020192,0.014831,0.67499,0.10902,0.57561,0.25643,-0.10629,0.56021
-0.04149,0.0018624,-0.14236,0.087764,-0.0070154,0.02635,-0.017087,0.076005,-0.015257,0.014671,0.086508,0.038426,-0.070146,-0.29166,0.0055554,-0.010163,0.0075282,0.011144,0.61799,0.077408,0.44109,0.27277,-0.14051,0.40828
-0.040385,-0.005668,-0.13976,0.10224,-0.0078725,0.014836,-0.016123,0.07463,-0.000539,0.28151,0.090739,0.14013,-0.062587,-0.35674,-0.016608,-0.017428,0.012277,-0.002555,0.547,0.038923,0.30161,0.29253,-0.16689,0.29629
-0.034543,-0.020402,-0.13653,0.1187,-0.0058202,-0.0027962,-0.018079,0.069729,0.016235,0.50524,0.10247,0.23608,-0.055253,-0.3921,-0.033338,-0.028845,0.015025,-0.020181,0.48174,0.0066044,0.18664,0.30958,-0.18049,0.20336
-0.02912,-0.030897,-0.13624,0.1348,-0.00082484,-0.01974,-0.022208,0.061221,0.033159,0.67842,0.12034,0.32366,-0.050831,-0.40653,-0.04373,-0.041294,0.015267,-0.03466,0.44371,-0.016376,0.11846,0.31304,-0.18107,0.1124
-0.028049,-0.0286,-0.13597,0.14387,0.003922,-0.032955,-0.027354,0.048774,0.05314,0.79686,0.14122,0.408,-0.05103,-0.42297,-0.048854,-0.052313,0.012659,-0.042456,0.43997,-0.038481,0.10157,0.29174,-0.17354,0.020303
-0.031255,-0.015272,-0.12928,0.13857,0.0052689,-0.041083,-0.032861,0.032852,0.078767,0.85303,0.15928,0.49604,-0.054835,-0.46029,-0.050002,-0.0627,0.0067584,-0.045667,0.45874,-0.072915,0.11936,0.2398,-0.16528,-0.06793
-0.035781,-0.00096997,-0.11344,0.11696,0.0031719,-0.041454,-0.038387,0.014955,0.10677,0.84088,0.16845,0.59028,-0.058668,-0.51745,-0.04749,-0.076578,-0.002346,-0.049954,0.47951,-0.12716,0.14078,0.1617,-0.16243,-0.15323
-0.038965,0.0050782,-0.0932,0.085748,0.00064181,-0.029832,-0.043198,-0.0027588,0.12747,0.76702,0.16645,0.68602,-0.058242,-0.57201,-0.04148,-0.098043,-0.012935,-0.05939,0.48782,-0.19713,0.13418,0.073061,-0.16757,-0.24779
-0.040275,0.0020317,-0.077034,0.057463,0.00077549,-0.0036274,-0.04598,-0.017952,0.13003,0.65538,0.15638,0.77246,-0.05066,-0.5942,-0.033909,-0.1266,-0.021233,-0.071933,0.48237,-0.27013,0.081281,-0.0052955,-0.17978,-0.36316
-0.040475,-0.003289,-0.069318,0.042915,0.003899,0.034282,-0.045472,-0.028555,0.10896,0.53776,0.14339,0.83628,-0.035429,-0.56571,-0.029153,-0.15529,-0.022582,-0.079429,0.47039,-0.33356,-0.015633,-0.058483,-0.19645,-0.49184
-0.03979,-0.0039537,-0.066269,0.044379,0.0075895,0.074961,-0.041268,-0.033409,0.06677,0.43524,0.12907,0.86552,-0.014106,-0.48968,-0.032122,-0.17375,-0.013967,-0.072983,0.45781,-0.38155,-0.13672,-0.086773,-0.21493,-0.60295
-0.037543,0.00039832,-0.059818,0.054505,0.0094245,0.10726,-0.033953,-0.03309,0.011463,0.34504,0.10844,0.85302,0.010871,-0.38606,-0.045025,-0.17444,0.003641,-0.050152,0.4436,-0.41441,-0.25562,-0.10528,-0.23314,-0.66196
-0.03363,0.0040302,-0.045829,0.061659,0.0097289,0.12341,-0.024453,-0.030183,-0.04834,0.24478,0.072486,0.79882,0.03743,-0.27792,-0.065623,-0.1573,0.024918,-0.018397,0.42204,-0.43249,-0.35203,-0.13262,-0.24922,-0.66099
-0.029841,0.0017241,-0.028586,0.057552,0.011757,0.12223,-0.01333,-0.028259,-0.10661,0.11222,0.014307,0.71074,0.064757,-0.17994,-0.088649,-0.12925,0.042469,0.0084595,0.38826,-0.43142,-0.41844,-0.17635,-0.26161,-0.6329
-0.028996,-0.0052915,-0.016991,0.041582,0.019215,0.10782,-0.00080566,-0.029686,-0.16038,-0.054325,-0.066534,0.6022,0.093527,-0.096126,-0.10927,-0.099038,0.050616,0.018751,0.341,-0.40453,-0.45719,-0.22718,-0.26989,-0.63297
-0.032311,-0.009864,-0.015906,0.0193,0.033282,0.085728,0.012361,-0.033809,-0.20906,-0.23106,-0.16453,0.48765,0.12523,-0.025321,-0.12561,-0.071518,0.048323,0.010481,0.28032,-0.35143,-0.47077,-0.26783,-0.27588,-0.69986
-0.037596,-0.0051746,-0.02088,-0.0028638,0.051416,0.060139,0.023955,-0.037269,-0.25415,-0.38308,-0.27204,0.37763,0.16078,0.032317,-0.13841,-0.046008,0.039327,-0.0075176,0.20473,-0.28534,-0.45346,-0.28998,-0.2835,-0.82699
-0.040418,0.0093092,-0.021388,-0.021935,0.068585,0.034051,0.030462,-0.036739,-0.29869,-0.48641,-0.38189,0.27634,0.19919,0.073409,-0.14872,-0.01942,0.029418,-0.021394,0.1119,-0.23153,-0.39179,-0.30442,-0.29663,-0.9688
-0.037574,0.027487,-0.0097063,-0.038707,0.079834,0.010539,0.02881,-0.032114,-0.345,-0.54064,-0.48626,0.18289,0.2375,0.093999,-0.15629,0.0089769,0.022856,-0.02069,0.0030657,-0.21521,-0.27471,-0.33453,-0.31591,-1.0766
-0.029848,0.041623,0.012651,-0.0548,0.082551,-0.0077348,0.018915,-0.027253,-0.39111,-0.56345,-0.57429,0.095418,0.27221,0.093157,-0.16062,0.035547,0.020504,-0.0037616,-0.11422,-0.24612,-0.10595,-0.39789,-0.3371,-1.1342
-0.021498,0.047736,0.036524,-0.069914,0.077353,-0.021133,0.0051147,-0.027173,-0.42882,-0.574,-0.6327,0.014968,0.30137,0.074534,-0.16324,0.054717,0.020847,0.022456,-0.22909,-0.31042,0.091421,-0.49231,-0.35246,-1.1631
-0.016859,0.046894,0.052842,-0.081875,0.067416,-0.034416,-0.0052581,-0.033715,-0.4464,-0.58012,-0.65102,-0.053066,0.32543,0.045554,-0.1684,0.063558,0.022663,0.046819,-0.33447,-0.37642,0.28275,-0.59968,-0.35497,-1.1958
-0.017003,0.042383,0.059294,-0.088997,0.056802,-0.053398,-0.0060533,-0.043494,-0.43513,-0.57921,-0.6276,-0.10087,0.34623,0.015429,-0.18052,0.064396,0.02674,0.059063,-0.43179,-0.41118,0.43737,-0.70458,-0.34236,-1.2424
-0.01932,0.036424,0.060413,-0.092047,0.048719,-0.077989,0.0033196,-0.050268,-0.39471,-0.56896,-0.57095,-0.12234,0.36494,-0.0073002,-0.20034,0.063161,0.034889,0.053276,-0.52791,-0.39764,0.54223,-0.80998,-0.31816,-1.2817
-0.020123,0.029569,0.06205,-0.09375,0.044641,-0.097792,0.016794,-0.049927,-0.333,-0.55556,-0.49467,-0.11733,0.38081,-0.017486,-0.2233,0.064935,0.047005,0.029472,-0.62656,-0.34162,0.60671,-0.93332,-0.28908,-1.2849
-0.017741,0.022377,0.066037,-0.096428,0.04465,-0.096194,0.025315,-0.043729,-0.2605,-0.55061,-0.40991,-0.094103,0.39206,-0.015398,-0.24243,0.070537,0.058887,-0.0063505,-0.72199,-0.26535,0.65827,-1.084,-0.26097,-1.2485
-0.013365,0.016486,0.06977,-0.10023,0.048429,-0.062014,0.023018,-0.036774,-0.18449,-0.55983,-0.32162,-0.068411,0.39794,-0.006136,-0.25344,0.076934,0.063234,-0.043959,-0.80158,-0.19301,0.73288,-1.2416,-0.23658,-1.2056
-0.009222,0.013342,0.07009,-0.10361,0.055815,5.1077e-005,0.011312,-0.033087,-0.10821,-0.57505,-0.23118,-0.058629,0.39987,0.0042884,-0.25791,0.080784,0.053661,-0.072896,-0.85583,-0.138,0.86336,-1.3573,-0.21653,-1.2041
-0.0062012,0.012084,0.066928,-0.10539,0.066223,0.069796,-0.0023844,-0.031869,-0.034628,-0.57806,-0.14186,-0.078074,0.40036,0.013822,-0.2618,0.081731,0.028987,-0.087615,-0.88703,-0.098863,1.0662,-1.3808,-0.20179,-1.2699
-0.0033358,0.0095756,0.063187,-0.10603,0.077458,0.12418,-0.010275,-0.028468,0.030049,-0.55354,-0.061295,-0.12768,0.40008,0.025789,-0.2706,0.082543,-0.00547,-0.090691,-0.90858,-0.064081,1.3301,-1.2962,-0.19507,-1.3871
0.00053312,0.0034247,0.061594,-0.10694,0.085342,0.15298,-0.0096839,-0.019092,0.078191,-0.50015,0.001906,-0.19347,0.39565,0.044581,-0.28541,0.086258,-0.040752,-0.091269,-0.93533,-0.020833,1.6119,-1.137,-0.19936,-1.5126
0.0048706,-0.0047815,0.062186,-0.10854,0.085149,0.16471,-0.0042539,-0.0047495,0.10659,-0.43108,0.044071,-0.25166,0.38027,0.068587,-0.30289,0.093314,-0.069347,-0.099006,-0.97323,0.03768,1.8487,-0.96912,-0.21503,-1.6107
0.007508,-0.0098255,0.062882,-0.10943,0.074328,0.17732,-0.00035886,0.0093123,0.12031,-0.36573,0.069325,-0.28012,0.34741,0.086947,-0.31846,0.10145,-0.089022,-0.11741,-1.017,0.10914,1.9834,-0.85281,-0.23816,-1.6789
0.0067358,-0.0074384,0.062055,-0.10762,0.054572,0.2014,-0.0020637,0.018001,0.12958,-0.32146,0.086543,-0.26971,0.29545,0.084546,-0.32954,0.10832,-0.10294,-0.14142,-1.0574,0.18331,1.9911,-0.8122,-0.26188,-1.7425
0.0032993,0.00082075,0.060039,-0.10266,0.031423,0.22983,-0.0086088,0.02038,0.14167,-0.31195,0.10327,-0.2283,0.23022,0.052722,-0.33624,0.1141,-0.11632,-0.16092,-1.0905,0.24668,1.8905,-0.83171,-0.27997,-1.8255
0.00011029,0.0075187,0.058116,-0.096381,0.011322,0.24285,-0.015833,0.019674,0.15499,-0.34897,0.12218,-0.17416,0.16344,-0.0024638,-0.33966,0.1213,-0.13206,-0.16779,-1.1214,0.28886,1.7307,-0.87715,-0.28992,-1.9224
-0.00027266,0.0052342,0.056506,-0.091425,-0.0020203,0.22454,-0.019749,0.019705,0.16146,-0.43915,0.14289,-0.12334,0.1077,-0.061595,-0.34018,0.13179,-0.14832,-0.16109,-1.1587,0.30809,1.5648,-0.9209,-0.29314,-1.9947
0.0019919,-0.0064362,0.054027,-0.088909,-0.0094988,0.17695,-0.019301,0.021517,0.15535,-0.57335,0.16672,-0.080239,0.070662,-0.10277,-0.33732,0.14406,-0.15931,-0.14714,-1.2052,0.31196,1.4273,-0.95138,-0.29219,-1.9925
0.0042405,-0.019516,0.049956,-0.087647,-0.015543,0.12063,-0.016578,0.023335,0.14048,-0.71763,0.19876,-0.038133,0.052064,-0.11441,-0.33084,0.15332,-0.15872,-0.13467,-1.2533,0.3113,1.3288,-0.96469,-0.28727,-1.8825
0.0040753,-0.024087,0.045889,-0.085673,-0.02496,0.081288,-0.014872,0.023422,0.12872,-0.81972,0.2445,0.011275,0.045116,-0.10107,-0.3214,0.15485,-0.14362,-0.12886,-1.2893,0.3103,1.2647,-0.95187,-0.2749,-1.6616
0.0020761,-0.017263,0.045031,-0.082516,-0.039819,0.073338,-0.016266,0.022539,0.13065,-0.83421,0.3038,0.067945,0.041406,-0.078989,-0.31005,0.14744,-0.11674,-0.12859,-1.3027,0.30063,1.2275,-0.89657,-0.25025,-1.3519
0.0016794,-0.0063393,0.049069,-0.079854,-0.058277,0.092574,-0.020368,0.023445,0.14662,-0.75207,0.36818,0.12168,0.036035,-0.0657,-0.29718,0.13386,-0.085849,-0.1286,-1.2958,0.26567,1.2089,-0.78465,-0.21159,-0.98604
0.0060564,-0.0025147,0.055696,-0.07984,-0.075825,0.12169,-0.024928,0.028046,0.16624,-0.61123,0.42526,0.15967,0.029606,-0.071467,-0.28251,0.11789,-0.060626,-0.12479,-1.2836,0.19348,1.1967,-0.61516,-0.1636,-0.59675
0.01479,-0.010448,0.059707,-0.082755,-0.088007,0.14242,-0.02782,0.035185,0.17704,-0.47594,0.46756,0.17627,0.025922,-0.09729,-0.26623,0.10075,-0.048436,-0.11861,-1.2864,0.088756,1.1724,-0.40184,-0.11666,-0.21598
0.023571,-0.023333,0.05723,-0.086399,-0.09288,0.14463,-0.028961,0.041259,0.17453,-0.3964,0.49858,0.17644,0.027274,-0.13846,-0.25029,0.080299,-0.051307,-0.11688,-1.3168,-0.026929,1.1173,-0.16518,-0.081903,0.12337
0.02746,-0.028567,0.049371,-0.087887,-0.091751,0.12745,-0.030547,0.043014,0.16504,-0.37771,0.5306,0.16995,0.030974,-0.18897,-0.23816,0.053827,-0.065627,-0.12688,-1.3712,-0.12788,1.0227,0.075801,-0.065285,0.39112
0.024912,-0.01922,0.041687,-0.086112,-0.087885,0.095115,-0.035178,0.039929,0.15917,-0.38237,0.57528,0.16244,0.029931,-0.24321,-0.23301,0.021752,-0.084627,-0.14993,-1.4309,-0.20035,0.89493,0.30477,-0.064602,0.5703
0.01896,-0.00071385,0.039696,-0.082427,-0.084202,0.053143,-0.043274,0.03424,0.16198,-0.36542,0.63449,0.15171,0.017153,-0.29517,-0.23545,-0.011352,-0.10209,-0.17847,-1.4719,-0.24889,0.74976,0.50435,-0.071595,0.66737
0.014508,0.013642,0.044327,-0.078904,-0.081674,0.0078759,-0.052146,0.02901,0.16855,-0.3158,0.69851,0.13231,-0.0088522,-0.33808,-0.24294,-0.039523,-0.11505,-0.19918,-1.4774,-0.28833,0.60127,0.65572,-0.077555,0.71264
0.01424,0.014227,0.051384,-0.075958,-0.07952,-0.032844,-0.057948,0.026158,0.16855,-0.27114,0.75244,0.10373,-0.041647,-0.36671,-0.25172,-0.059652,-0.12404,-0.2006,-1.4458,-0.32971,0.45248,0.74547,-0.078448,0.74796
0.01682,0.0030261,0.055356,-0.071825,-0.076741,-0.061187,-0.059069,0.025944,0.15528,-0.29257,0.78512,0.073816,-0.069398,-0.38094,-0.26009,-0.073564,-0.13104,-0.17989,-1.3886,-0.37296,0.29445,0.77409,-0.076169,0.80711
0.018804,-0.0092976,0.054021,-0.064546,-0.073359,-0.073361,-0.057833,0.027797,0.13128,-0.41675,0.79361,0.053905,-0.081028,-0.38741,-0.27028,-0.086345,-0.13691,-0.14409,-1.3208,-0.41214,0.1126,0.75678,-0.075493,0.89982
0.018192,-0.013891,0.049753,-0.054515,-0.070131,-0.072611,-0.058579,0.031329,0.1061,-0.62096,0.78126,0.050077,-0.072139,-0.39664,-0.28688,-0.10262,-0.14003,-0.10528,-1.2511,-0.44651,-0.10437,0.71376,-0.079258,1.0082
0.016186,-0.011435,0.046729,-0.044929,-0.06716,-0.067592,-0.063538,0.036622,0.088678,-0.82829,0.75319,0.058506,-0.047035,-0.41666,-0.31196,-0.12394,-0.13739,-0.073309,-1.1776,-0.48532,-0.35735,0.65755,-0.085311,1.0977
0.015626,-0.0099171,0.047008,-0.039365,-0.063157,-0.066587,-0.070262,0.043768,0.081172,-0.95114,0.71415,0.069471,-0.015875,-0.44726,-0.34044,-0.14883,-0.12725,-0.051544,-1.0921,-0.541,-0.63367,0.58759,-0.087275,1.1358
0.017868,-0.015349,0.04914,-0.038581,-0.056517,-0.072164,-0.073274,0.052284,0.078891,-0.94269,0.66934,0.076774,0.010662,-0.47883,-0.36001,-0.17439,-0.11172,-0.03769,-0.98858,-0.61716,-0.90848,0.49578,-0.078614,1.1093
0.021238,-0.025179,0.050226,-0.039591,-0.047388,-0.080767,-0.068704,0.060924,0.075641,-0.82065,0.62492,0.084466,0.025523,-0.49681,-0.3571,-0.19713,-0.096866,-0.028039,-0.86859,-0.70269,-1.1509,0.37632,-0.057415,1.0286
0.022547,-0.031013,0.049035,-0.038119,-0.038477,-0.087271,-0.057806,0.068035,0.069409,-0.6485,0.58531,0.10489,0.026091,-0.48902,-0.32597,-0.21232,-0.089881,-0.021004,-0.74014,-0.77761,-1.3332,0.23099,-0.028822,0.91968
0.020129,-0.027541,0.047047,-0.03239,-0.033236,-0.090071,-0.046075,0.072246,0.063773,-0.48907,0.54936,0.14907,0.01265,-0.45182,-0.27406,-0.21376,-0.094581,-0.017331,-0.61055,-0.82496,-1.4379,0.067384,-0.0033781,0.80811
0.015483,-0.018218,0.046612,-0.024819,-0.03263,-0.092114,-0.038758,0.073105,0.064359,-0.36221,0.51089,0.21646,-0.012786,-0.39194,-0.219,-0.19593,-0.1083,-0.017575,-0.47993,-0.83865,-1.4603,-0.10478,0.0081275,0.70633
0.011966,-0.011685,0.048327,-0.019919,-0.033443,-0.097352,-0.036898,0.071255,0.073598,-0.23149,0.46549,0.29177,-0.045674,-0.32328,-0.17839,-0.15821,-0.12268,-0.019583,-0.34117,-0.82223,-1.4049,-0.2737,0.00046816,0.61201
0.011807,-0.012582,0.050393,-0.020134,-0.030071,-0.10642,-0.037397,0.067987,0.087968,-0.023632,0.41842,0.35104,-0.077469,-0.26017,-0.15934,-0.1079,-0.12818,-0.018299,-0.18755,-0.78248,-1.2822,-0.42308,-0.023034,0.51648
0.014188,-0.016377,0.050599,-0.023227,-0.018709,-0.11567,-0.036678,0.06437,0.099651,0.33283,0.38463,0.37291,-0.09644,-0.20997,-0.15538,-0.058546,-0.11942,-0.0080443,-0.022316,-0.72579,-1.109,-0.53405,-0.052234,0.41541
0.016097,-0.013893,0.048881,-0.023568,-0.00052987,-0.12007,-0.03403,0.060474,0.10125,0.86871,0.37744,0.34805,-0.092204,-0.16837,-0.15271,-0.023366,-0.097702,0.014448,0.13844,-0.65996,-0.91052,-0.5943,-0.075473,0.31275
0.015152,-0.0012836,0.047759,-0.016266,0.018893,-0.11703,-0.031265,0.055192,0.090253,1.5499,0.39358,0.28162,-0.061841,-0.12039,-0.14046,-0.0079318,-0.069188,0.048181,0.27328,-0.59709,-0.71909,-0.60801,-0.085,0.21556
0.011859,0.014695,0.050014,-0.00077611,0.033516,-0.10758,-0.029246,0.046781,0.070373,2.2777,0.40831,0.1889,-0.013024,-0.048172,-0.11717,-0.0075296,-0.040668,0.088086,0.36878,-0.5511,-0.56263,-0.59511,-0.079155,0.12502
0.0093329,0.02199,0.055721,0.018799,0.040909,-0.094741,-0.025299,0.033825,0.049319,2.9178,0.38886,0.088249,0.038979,0.057422,-0.089333,-0.011357,-0.016248,0.1268,0.42809,-0.52978,-0.45078,-0.57562,-0.060596,0.031696
0.010702,0.014551,0.061581,0.036562,0.043306,-0.081084,-0.014786,0.016156,0.034604,3.3518,0.31839,-0.0043639,0.079224,0.1875,-0.064833,-0.010485,0.0029321,0.15694,0.46706,-0.5285,-0.36958,-0.54965,-0.032885,-0.080521
0.016384,-0.0012735,0.063419,0.04827,0.045133,-0.068087,0.0041782,-0.0047336,0.03007,3.5282,0.212,-0.077763,0.10081,0.31495,-0.047553,-0.003581,0.016778,0.17289,0.50071,-0.53276,-0.29329,-0.49157,0.0014226,-0.22519
0.023553,-0.011902,0.059682,0.05286,0.049385,-0.057126,0.027526,-0.026123,0.034781,3.484,0.10947,-0.12608,0.10727,0.40563,-0.036881,0.0036607,0.024706,0.17186,0.5316,-0.52916,-0.20686,-0.36789,0.040002,-0.40528
0.028291,-0.0088869,0.052762,0.051677,0.055774,-0.050367,0.047308,-0.045352,0.044292,3.3188,0.048279,-0.14899,0.10829,0.43585,-0.030652,0.0042399,0.026225,0.15434,0.55106,-0.51591,-0.12127,-0.16794,0.079035,-0.61105
0.028661,0.0030148,0.046948,0.046901,0.061681,-0.050069,0.057846,-0.06137,0.053107,3.1346,0.036936,-0.15139,0.11216,0.40562,-0.027216,-0.0043813,0.022937,0.1243,0.5529,-0.50313,-0.067125,0.07852,0.11329,-0.82295
0.02609,0.0098908,0.04499,0.040681,0.064472,-0.056709,0.06053,-0.075411,0.057143,2.9824,0.0504,-0.14139,0.12027,0.33881,-0.024497,-0.019067,0.019573,0.088775,0.54749,-0.50178,-0.069183,0.3153,0.13878,-1.0159
0.023872,0.0014102,0.046456,0.035028,0.063012,-0.067642,0.062579,-0.089918,0.055504,2.8498,0.051323,-0.12617,0.12697,0.2694,-0.018165,-0.034605,0.022362,0.056424,0.56182,-0.51067,-0.12172,0.49879,0.15578,-1.1625
0.024131,-0.019351,0.049125,0.031502,0.05741,-0.077597,0.07045,-0.10613,0.051142,2.6964,0.019435,-0.10789,0.12394,0.22312,-0.0025347,-0.048145,0.03541,0.034542,0.62293,-0.51337,-0.18565,0.63188,0.16887,-1.2372
0.026005,-0.038024,0.051592,0.030289,0.047873,-0.080792,0.08367,-0.12216,0.049907,2.5016,-0.035221,-0.082541,0.10587,0.20668,0.025145,-0.060176,0.057716,0.025874,0.73684,-0.48884,-0.21147,0.7631,0.18332,-1.2221
0.026743,-0.041124,0.054217,0.029609,0.034185,-0.073357,0.094723,-0.13346,0.057816,2.286,-0.085107,-0.043137,0.073756,0.21101,0.060703,-0.071373,0.083204,0.027255,0.8807,-0.42763,-0.17105,0.94767,0.20049,-1.1165
0.024615,-0.027355,0.057597,0.02669,0.016472,-0.054725,0.095308,-0.13583,0.077519,2.0901,-0.11119,0.014714,0.034724,0.22375,0.093903,-0.078809,0.10396,0.031712,1.016,-0.34032,-0.0742,1.199,0.21649,-0.94299
0.020751,-0.0082205,0.060579,0.02011,-0.0035343,-0.02745,0.083583,-0.12893,0.10607,1.9354,-0.1185,0.088515,-0.00090537,0.23966,0.11467,-0.075806,0.11445,0.03321,1.1134,-0.25076,0.04167,1.4701,0.22562,-0.74679
0.018067,0.0020357,0.060433,0.011556,-0.022129,0.0042854,0.066112,-0.11726,0.13587,1.8042,-0.1283,0.16852,-0.023434,0.26054,0.12002,-0.056272,0.11394,0.030852,1.17,-0.17933,0.13876,1.6811,0.2256,-0.58435
0.01837,-0.0022265,0.055389,0.0050355,-0.034847,0.036616,0.052918,-0.10756,0.15865,1.656,-0.15529,0.24135,-0.026975,0.2865,0.11577,-0.019977,0.10575,0.029212,1.2057,-0.12955,0.20114,1.7735,0.21986,-0.50557
0.020655,-0.015095,0.046926,0.0037289,-0.038613,0.067257,0.049901,-0.10435,0.17006,1.4623,-0.1916,0.29527,-0.011084,0.30843,0.11127,0.026027,0.094605,0.034286,1.2439,-0.088463,0.23647,1.7486,0.21443,-0.53636
0.02236,-0.02595,0.039134,0.0071175,-0.033358,0.095135,0.054865,-0.10703,0.17164,1.2267,-0.21185,0.32432,0.019484,0.31043,0.11154,0.071514,0.084356,0.048206,1.2916,-0.039355,0.26034,1.6597,0.21217,-0.66935
0.022214,-0.02878,0.035358,0.011136,-0.021975,0.11851,0.059942,-0.11067,0.1687,0.9716,-0.19416,0.32927,0.056603,0.28169,0.11325,0.10957,0.077618,0.067136,1.3363,0.024271,0.27972,1.5663,0.20956,-0.86706
0.02158,-0.025556,0.035296,0.011517,-0.0087141,0.13323,0.057841,-0.10982,0.16571,0.70738,-0.13819,0.31522,0.091365,0.22785,0.10792,0.1403,0.076897,0.084273,1.3599,0.095131,0.29079,1.4898,0.19928,-1.0769
0.02282,-0.02197,0.035519,0.0074422,0.0028514,0.13357,0.046707,-0.10229,0.16252,0.41397,-0.064841,0.28701,0.11632,0.17127,0.089277,0.16894,0.085142,0.095504,1.3565,0.16088,0.29137,1.4061,0.17655,-1.252
0.026452,-0.021144,0.032975,0.0021151,0.011087,0.1163,0.030286,-0.090263,0.154,0.052909,0.00060106,0.24533,0.1267,0.13817,0.058586,0.2004,0.10429,0.10282,1.3386,0.21654,0.2945,1.2806,0.14353,-1.3678
0.030236,-0.021766,0.027892,-0.0003809,0.01641,0.085743,0.014332,-0.078255,0.13347,-0.40169,0.046378,0.18588,0.12064,0.14146,0.023838,0.23474,0.13255,0.11238,1.327,0.26974,0.32851,1.112,0.1079,-1.4276
0.031268,-0.021399,0.022997,0.00091026,0.020646,0.054844,0.0027663,-0.069992,0.097214,-0.94054,0.078268,0.10248,0.099039,0.17211,-0.006274,0.26698,0.16304,0.12876,1.3344,0.335,0.42107,0.94534,0.076618,-1.4526
0.028829,-0.020105,0.019856,0.0027247,0.026113,0.039532,-0.0036676,-0.066411,0.046929,-1.5215,0.10816,-0.0078762,0.065385,0.2057,-0.028521,0.29056,0.18619,0.15053,1.3564,0.4232,0.57789,0.84375,0.050231,-1.4638
0.024914,-0.019858,0.016447,0.00049139,0.03453,0.048635,-0.00624,-0.065799,-0.011315,-2.0901,0.13875,-0.14119,0.025091,0.21916,-0.046865,0.30116,0.19523,0.1711,1.3766,0.53536,0.77139,0.84092,0.022486,-1.4663
0.021872,-0.020771,0.009133,-0.0074541,0.045807,0.076637,-0.0064846,-0.065244,-0.070642,-2.597,0.15816,-0.28625,-0.016144,0.20539,-0.068975,0.29825,0.19108,0.18435,1.3814,0.66453,0.94692,0.91462,-0.014579,-1.4456
0.019787,-0.019309,-0.0025088,-0.018342,0.057299,0.10574,-0.0054791,-0.062041,-0.12646,-3.0012,0.14855,-0.42738,-0.054801,0.17561,-0.10047,0.28388,0.18227,0.19015,1.3693,0.80151,1.0426,0.99912,-0.06446,-1.3782
0.016511,-0.011631,-0.013181,-0.027582,0.064514,0.11711,-0.0041737,-0.054372,-0.17678,-3.2648,0.10154,-0.54801,-0.091138,0.14937,-0.1408,0.2608,0.1791,0.19474,1.3497,0.93781,1.0119,1.0227,-0.12377,-1.251
0.010322,0.0010242,-0.015303,-0.033019,0.06355,0.10342,-0.0037228,-0.041516,-0.21992,-3.3566,0.028223,-0.63328,-0.12797,0.14118,-0.18278,0.2312,0.1861,0.20543,1.3333,1.0641,0.84052,0.93979,-0.18495,-1.0771
0.0023033,0.011217,-0.0061602,-0.036791,0.053902,0.07328,-0.0051126,-0.024081,-0.25229,-3.2672,-0.043711,-0.67235,-0.16651,0.15417,-0.2155,0.19645,0.19873,0.22403,1.322,1.1688,0.551,0.73986,-0.24114,-0.90124
-0.0041979,0.011022,0.0079579,-0.043056,0.039364,0.044055,-0.0084303,-0.0041803,-0.26901,-3.0265,-0.083643,-0.66171,-0.20229,0.18376,-0.22887,0.15683,0.20735,0.24451,1.309,1.2416,0.19725,0.43917,-0.28919,-0.78885
-0.0064933,-0.00017018,0.015443,-0.053883,0.025911,0.028835,-0.012643,0.01493,-0.26763,-2.7028,-0.073795,-0.60952,-0.22553,0.22563,-0.21813,0.11129,0.2052,0.2569,1.2829,1.2804,-0.15127,0.071948,-0.32886,-0.8019
-0.0048428,-0.013625,0.0085821,-0.067244,0.018082,0.027925,-0.016268,0.029992,-0.25195,-2.3775,-0.017578,-0.5376,-0.22763,0.27892,-0.18675,0.057784,0.19358,0.25429,1.2345,1.2947,-0.43075,-0.31246,-0.35992,-0.97098
-0.0018834,-0.017903,-0.0097076,-0.078981,0.016949,0.031052,-0.018451,0.039149,-0.23195,-2.1097,0.063903,-0.47723,-0.2099,0.34129,-0.14601,-0.0050151,0.17997,0.23739,1.1573,1.2995,-0.60254,-0.65581,-0.38008,-1.2775
-6.0505e-005,-0.0086611,-0.028039,-0.086741,0.02141,0.027653,-0.019562,0.042695,-0.21885,-1.9122,0.1444,-0.45748,-0.18737,0.40113,-0.11051,-0.075145,0.1711,0.21339,1.0465,1.3038,-0.66324,-0.90985,-0.38572,-1.6584
0.00014497,0.0074145,-0.036072,-0.092111,0.031255,0.016336,-0.020874,0.04264,-0.21804,-1.7558,0.20614,-0.49075,-0.18268,0.43641,-0.090837,-0.14589,0.16745,0.19064,0.89921,1.3042,-0.6409,-1.0605,-0.37459,-2.0351
-0.00039821,0.018322,-0.032943,-0.099062,0.048505,0.0059283,-0.023619,0.041455,-0.22521,-1.597,0.24626,-0.56371,-0.2131,0.42493,-0.087662,-0.20703,0.16409,0.17353,0.71816,1.2898,-0.57993,-1.1361,-0.34818,-2.35
-0.0013101,0.016939,-0.027019,-0.11034,0.075222,0.0078105,-0.028138,0.040924,-0.22852,-1.4098,0.27284,-0.64061,-0.27951,0.3602,-0.09132,-0.24873,0.15624,0.16108,0.51578,1.2542,-0.52313,-1.185,-0.31194,-2.5897
-0.003429,0.0064997,-0.027462,-0.12522,0.10987,0.026074,-0.033685,0.041712,-0.2159,-1.2037,0.29434,-0.67885,-0.36566,0.26084,-0.088062,-0.26585,0.14386,0.14932,0.31274,1.2053,-0.49882,-1.2372,-0.273,-2.7774
-0.0076548,-0.0031895,-0.035691,-0.14034,0.14634,0.053253,-0.038948,0.043593,-0.18243,-1.0189,0.31103,-0.64915,-0.44765,0.16423,-0.069024,-0.26011,0.13086,0.13481,0.13035,1.1603,-0.51636,-1.2777,-0.23685,-2.9448
-0.013434,-0.0046652,-0.044744,-0.1525,0.17747,0.074583,-0.042876,0.0458,-0.13328,-0.90378,0.3149,-0.54914,-0.50589,0.10675,-0.035667,-0.2387,0.1203,0.11669,-0.018721,1.1317,-0.56805,-1.2581,-0.20494,-3.1033
-0.018784,0.0014911,-0.046728,-0.16028,0.20028,0.077246,-0.04523,0.047179,-0.080812,-0.88772,0.29789,-0.40324,-0.53032,0.10285,0.0020038,-0.21063,0.11105,0.096689,-0.13467,1.1157,-0.63414,-1.1364,-0.17485,-3.2375
-0.021894,0.0087833,-0.040769,-0.16332,0.21793,0.057846,-0.046434,0.046317,-0.038075,-0.96048,0.26143,-0.25016,-0.51732,0.13702,0.032539,-0.18347,0.099234,0.077974,-0.22679,1.0939,-0.68947,-0.91424,-0.14299,-3.3185
-0.022467,0.011756,-0.033588,-0.16032,0.23611,0.023297,-0.046782,0.041937,-0.012979,-1.0683,0.21917,-0.12624,-0.46436,0.17343,0.049695,-0.1621,0.082921,0.064028,-0.3051,1.0479,-0.71202,-0.641,-0.10805,-3.3217
-0.021316,0.010751,-0.032352,-0.14856,0.257,-0.014563,-0.045592,0.033565,-0.0061101,-1.1309,0.19017,-0.053991,-0.37012,0.17665,0.053987,-0.14939,0.064893,0.057443,-0.37394,0.97255,-0.69214,-0.38621,-0.072579,-3.2315
-0.018804,0.010383,-0.03713,-0.12617,0.27642,-0.046148,-0.041122,0.022054,-0.012825,-1.0755,0.18725,-0.039459,-0.24089,0.13035,0.049248,-0.14684,0.050451,0.058566,-0.43157,0.87863,-0.638,-0.20464,-0.041333,-3.0371
-0.014193,0.014077,-0.040696,-0.09534,0.28713,-0.06818,-0.031598,0.0095853,-0.027732,-0.87467,0.20894,-0.075798,-0.095914,0.043781,0.038277,-0.1542,0.042266,0.064543,-0.47441,0.78094,-0.57256,-0.12176,-0.017647,-2.7317
-0.0069963,0.020527,-0.035984,-0.063453,0.2853,-0.082857,-0.016845,-0.00094269,-0.048517,-0.56615,0.24061,-0.14767,0.036351,-0.05596,0.021485,-0.16869,0.037285,0.069847,-0.50096,0.68523,-0.52189,-0.14231,-0.0011335,-2.3231
0.00096041,0.025434,-0.023718,-0.040113,0.2744,-0.094186,0.00069662,-0.0068409,-0.076637,-0.23669,0.26383,-0.23395,0.13192,-0.13961,-0.0010558,-0.18534,0.028678,0.068631,-0.51159,0.58453,-0.50143,-0.26187,0.010938,-1.846
0.0053344,0.026336,-0.012374,-0.031685,0.26262,-0.10494,0.016524,-0.0065745,-0.11439,0.026429,0.26777,-0.31021,0.18558,-0.19026,-0.027022,-0.19906,0.010979,0.057573,-0.50519,0.46779,-0.5091,-0.46233,0.019614,-1.3557
0.0019938,0.025293,-0.010124,-0.037212,0.25623,-0.11606,0.026122,-0.00047856,-0.16038,0.18996,0.25555,-0.35353,0.21414,-0.20935,-0.051671,-0.20661,-0.016177,0.03726,-0.47675,0.33188,-0.52974,-0.69525,0.021543,-0.90252
-0.0091855,0.026556,-0.016538,-0.048955,0.25455,-0.12761,0.027296,0.0090048,-0.20695,0.29804,0.24213,-0.34919,0.24451,-0.21192,-0.070388,-0.2068,-0.048612,0.011221,-0.41927,0.1863,-0.54651,-0.87783,0.010797,-0.50563
-0.022907,0.031598,-0.022401,-0.057433,0.25098,-0.13953,0.021298,0.017853,-0.24234,0.44442,0.24493,-0.29585,0.29463,-0.21443,-0.081562,-0.19858,-0.081087,-0.016289,-0.3286,0.047353,-0.5499,-0.92017,-0.015634,-0.15138
-0.031304,0.036753,-0.018308,-0.057342,0.23902,-0.15162,0.011953,0.021812,-0.2571,0.70916,0.27228,-0.20572,0.36152,-0.22259,-0.087112,-0.17975,-0.11,-0.04186,-0.20675,-0.071563,-0.53841,-0.77351,-0.053433,0.17935
-0.029353,0.036279,-0.00399,-0.050096,0.21802,-0.16378,0.0032616,0.018071,-0.2506,1.1034,0.31597,-0.09965,0.42525,-0.22692,-0.090166,-0.14862,-0.1332,-0.063063,-0.060617,-0.16481,-0.513,-0.46363,-0.091943,0.47958
-0.018675,0.028192,0.010756,-0.041423,0.19372,-0.17734,-0.0030632,0.0063691,-0.23248,1.5616,0.35259,-0.00020839,0.465,-0.20934,-0.091925,-0.10784,-0.1484,-0.078001,0.1024,-0.23178,-0.47308,-0.07958,-0.12028,0.71096
-0.006503,0.017067,0.014881,-0.036321,0.17327,-0.19622,-0.008589,-0.011201,-0.21713,1.9854,0.35348,0.074259,0.47376,-0.15701,-0.090531,-0.066669,-0.15305,-0.085548,0.27674,-0.27163,-0.4188,0.27737,-0.1337,0.83167
-0.00040513,0.010546,0.006541,-0.03552,0.15906,-0.22584,-0.016972,-0.031526,-0.2144,2.3051,0.29809,0.11389,0.46013,-0.074064,-0.083105,-0.037923,-0.14666,-0.086286,0.45618,-0.28231,-0.35688,0.54612,-0.13495,0.83358
-0.0028198,0.012325,-0.0047759,-0.035985,0.14686,-0.26897,-0.031306,-0.052001,-0.22341,2.5131,0.18298,0.12021,0.43674,0.017305,-0.069388,-0.03054,-0.13325,-0.082883,0.62898,-0.26502,-0.3021,0.72061,-0.13009,0.75614
-0.0096725,0.018204,-0.006749,-0.034414,0.12959,-0.32157,-0.051817,-0.071166,-0.23397,2.6467,0.021362,0.1067,0.40663,0.08787,-0.053806,-0.0432,-0.12042,-0.078908,0.77687,-0.22922,-0.27028,0.82182,-0.12265,0.66572
-0.013982,0.019375,0.0044004,-0.030323,0.10374,-0.37231,-0.07562,-0.08822,-0.23455,2.7413,-0.16479,0.094797,0.35989,0.11749,-0.043695,-0.064664,-0.1149,-0.076725,0.88132,-0.19206,-0.2664,0.85864,-0.11154,0.6188
-0.011331,0.010405,0.020263,-0.026085,0.073012,-0.40741,-0.098798,-0.10213,-0.22018,2.7903,-0.35346,0.10429,0.28384,0.10576,-0.044483,-0.081281,-0.11767,-0.076381,0.93368,-0.17174,-0.27699,0.81578,-0.094067,0.63777
-0.00279,-0.0053277,0.027736,-0.024253,0.046021,-0.41725,-0.11925,-0.11135,-0.19458,2.7442,-0.52587,0.14204,0.17788,0.071072,-0.055378,-0.086035,-0.12316,-0.076644,0.94128,-0.18003,-0.27348,0.67752,-0.07089,0.71229
0.0066597,-0.017997,0.020655,-0.024959,0.030142,-0.3998,-0.13798,-0.11467,-0.16569,2.5462,-0.6649,0.1963,0.060044,0.040119,-0.069251,-0.082006,-0.12357,-0.07722,0.92409,-0.22018,-0.22531,0.46036,-0.048269,0.81603
0.012298,-0.019655,0.0048721,-0.025884,0.026238,-0.3589,-0.15775,-0.11224,-0.13948,2.1796,-0.75442,0.24207,-0.041022,0.03544,-0.077352,-0.077786,-0.11485,-0.079821,0.90378,-0.29114,-0.11491,0.21874,-0.035275,0.92069
0.012707,-0.011089,-0.0075108,-0.024736,0.028292,-0.30073,-0.18004,-0.10614,-0.11735,1.6922,-0.78436,0.25575,-0.10305,0.067679,-0.075576,-0.079152,-0.099391,-0.08668,0.89324,-0.39318,0.053942,0.01478,-0.037824,0.99999
0.0096077,-0.001089,-0.0088057,-0.021772,0.027721,-0.23344,-0.2029,-0.099491,-0.098469,1.1831,-0.75917,0.2302,-0.12348,0.13444,-0.067485,-0.084089,-0.08344,-0.097638,0.89346,-0.52885,0.25875,-0.12191,-0.053858,1.0306
0.0055735,0.0010552,-0.0012571,-0.0199,0.018679,-0.17068,-0.22154,-0.095099,-0.083378,0.75698,-0.70155,0.18006,-0.11945,0.22367,-0.06166,-0.084897,-0.07175,-0.10861,0.8986,-0.69766,0.46972,-0.20808,-0.073182,0.99833
0.0022854,-0.0070312,0.0069921,-0.022141,0.00058643,-0.13323,-0.23107,-0.09432,-0.074544,0.47131,-0.64534,0.13378,-0.11508,0.3189,-0.065471,-0.074867,-0.06425,-0.11327,0.9043,-0.88921,0.66327,-0.28227,-0.082489,0.90671
0.00064371,-0.019818,0.010445,-0.028693,-0.023033,-0.1422,-0.22967,-0.096963,-0.073291,0.3094,-0.62016,0.11762,-0.12526,0.40479,-0.080061,-0.0535,-0.057019,-0.10686,0.9129,-1.0809,0.82973,-0.36483,-0.072758,0.77625
0.001647,-0.029416,0.010473,-0.036217,-0.047376,-0.20419,-0.21957,-0.10171,-0.076522,0.19497,-0.63751,0.14189,-0.14758,0.47156,-0.10009,-0.026225,-0.045948,-0.089057,0.93308,-1.2432,0.97086,-0.43883,-0.044574,0.62923
0.0061782,-0.03201,0.011645,-0.040021,-0.068377,-0.29873,-0.2056,-0.10639,-0.077187,0.04129,-0.68751,0.19704,-0.16683,0.51673,-0.1177,0.00030926,-0.029504,-0.063432,0.97501,-1.3485,1.0885,-0.46783,-0.0079024,0.46978
0.013502,-0.029562,0.01506,-0.037364,-0.083231,-0.38144,-0.19239,-0.10779,-0.068863,-0.19722,-0.74705,0.25997,-0.16803,0.54318,-0.12701,0.022861,-0.0087061,-0.034262,1.0441,-1.3792,1.1729,-0.43214,0.023791,0.27784
0.02036,-0.026354,0.016377,-0.029259,-0.090427,-0.40651,-0.1821,-0.102,-0.050843,-0.50521,-0.79247,0.30509,-0.14764,0.55558,-0.12593,0.042544,0.014547,-0.0037162,1.1363,-1.3304,1.1994,-0.34924,0.041427,0.026031
0.02249,-0.02474,0.010721,-0.019583,-0.09017,-0.35699,-0.1738,-0.085686,-0.029468,-0.83007,-0.8088,0.31314,-0.11522,0.55792,-0.11515,0.062228,0.038579,0.028065,1.2361,-1.2089,1.1399,-0.26018,0.044963,-0.29128
0.01798,-0.024298,-0.001105,-0.012509,-0.084734,-0.26149,-0.16451,-0.058166,-0.014502,-1.1271,-0.79252,0.27487,-0.085613,0.55344,-0.096945,0.083327,0.061833,0.060483,1.3211,-1.0302,0.98148,-0.19578,0.041798,-0.64016
0.009522,-0.024291,-0.012307,-0.010334,-0.077658,-0.1825,-0.15116,-0.022849,-0.013367,-1.3877,-0.74977,0.19049,-0.069047,0.54423,-0.075447,0.10454,0.082832,0.090518,1.3707,-0.81569,0.73994,-0.15459,0.04048,-0.95644
0.0030207,-0.025749,-0.01662,-0.012959,-0.071805,-0.18062,-0.1324,0.013438,-0.027388,-1.6289,-0.69304,0.068313,-0.067656,0.52819,-0.057206,0.12271,0.10129,0.11368,1.3763,-0.58903,0.45731,-0.11158,0.044735,-1.1765
0.0030996,-0.030338,-0.015044,-0.018676,-0.0678,-0.27701,-0.10956,0.043068,-0.05224,-1.8579,-0.63687,-0.075861,-0.080115,0.49502,-0.049419,0.13406,0.11929,0.12721,1.3453,-0.37147,0.1827,-0.047003,0.052171,-1.2668
0.0091211,-0.037298,-0.015492,-0.025162,-0.064366,-0.43921,-0.086016,0.06075,-0.081406,-2.0476,-0.59277,-0.21947,-0.10821,0.4275,-0.05531,0.13486,0.14033,0.13248,1.2954,-0.17812,-0.05095,0.033328,0.057873,-1.2323
0.015308,-0.042352,-0.025109,-0.030126,-0.060247,-0.60002,-0.065581,0.065533,-0.10956,-2.1491,-0.5651,-0.33648,-0.15705,0.31203,-0.070112,0.12174,0.16579,0.1341,1.2407,-0.016548,-0.23832,0.10492,0.059116,-1.1015
0.01524,-0.040766,-0.042757,-0.031899,-0.05563,-0.6971,-0.050664,0.061031,-0.13362,-2.1301,-0.55091,-0.40439,-0.2274,0.15355,-0.082347,0.093103,0.19146,0.13636,1.1799,0.1121,-0.39433,0.14986,0.057064,-0.90456
0.0071806,-0.032201,-0.05935,-0.030194,-0.051435,-0.70728,-0.041351,0.054247,-0.15153,-2.0046,-0.54458,-0.41246,-0.30736,-0.017397,-0.081346,0.051431,0.2083,0.14002,1.0972,0.21126,-0.53491,0.17433,0.054592,-0.66322
-0.0042452,-0.022503,-0.066025,-0.026496,-0.047174,-0.65475,-0.035824,0.053486,-0.16082,-1.8272,-0.54352,-0.36651,-0.37354,-0.15502,-0.066027,0.0047421,0.20824,0.14238,0.97491,0.28788,-0.66162,0.2009,0.052927,-0.39658
-0.011583,-0.019901,-0.062287,-0.023211,-0.039965,-0.59044,-0.031507,0.06557,-0.15871,-1.6572,-0.54971,-0.28633,-0.40403,-0.22223,-0.047439,-0.035213,0.19113,0.14017,0.80938,0.35107,-0.76161,0.24414,0.050407,-0.13078
-0.010494,-0.028389,-0.056201,-0.021716,-0.026434,-0.55858,-0.025958,0.09278,-0.14425,-1.5257,-0.56581,-0.19657,-0.39389,-0.21229,-0.041822,-0.05812,0.16677,0.13274,0.61679,0.40906,-0.82137,0.29425,0.044142,0.10226
-0.0031974,-0.044069,-0.056549,-0.020842,-0.0062631,-0.57256,-0.017065,0.13085,-0.12057,-1.4309,-0.58998,-0.11619,-0.35989,-0.15179,-0.058693,-0.060819,0.14928,0.12273,0.4246,0.46469,-0.84142,0.32542,0.032623,0.27978
0.0035273,-0.05795,-0.064677,-0.017429,0.015986,-0.61338,-0.003075,0.16974,-0.095253,-1.3583,-0.61568,-0.053034,-0.32857,-0.083119,-0.093071,-0.049454,0.14745,0.114,0.2553,0.51358,-0.83917,0.32141,0.016904,0.40402
0.0041058,-0.062936,-0.073771,-0.0088483,0.032997,-0.64776,0.016792,0.19771,-0.077685,-1.2983,-0.63721,-0.0054261,-0.31609,-0.040195,-0.12798,-0.035997,0.15865,0.10883,0.11543,0.54838,-0.83758,0.29385,-9.9232e-005,0.50248
-0.001178,-0.058964,-0.075742,0.0046304,0.039485,-0.6509,0.041206,0.207,-0.074521,-1.2388,-0.65552,0.032272,-0.31588,-0.035723,-0.14531,-0.031148,0.17101,0.10654,-0.0028751,0.56726,-0.8494,0.27565,-0.0149,0.60845
-0.0066411,-0.051966,-0.068578,0.019891,0.035666,-0.61847,0.066211,0.19765,-0.085933,-1.1445,-0.67744,0.065546,-0.3042,-0.066716,-0.13683,-0.038471,0.17234,0.10432,-0.11109,0.57966,-0.86991,0.29475,-0.02413,0.73519
-0.006327,-0.048005,-0.057144,0.033539,0.026411,-0.56239,0.086462,0.17679,-0.10516,-0.95111,-0.70808,0.099418,-0.25882,-0.1291,-0.10777,-0.053873,0.15853,0.098921,-0.2145,0.60272,-0.88348,0.35115,-0.024879,0.864
0.00075084,-0.048105,-0.047424,0.044654,0.01691,-0.49742,0.09797,0.15373,-0.12187,-0.59526,-0.74337,0.13962,-0.17542,-0.22625,-0.071818,-0.070526,0.13521,0.088093,-0.31052,0.6498,-0.87771,0.41672,-0.015663,0.95659
0.0098662,-0.048233,-0.040636,0.055158,0.0088384,-0.43057,0.10043,0.13398,-0.12727,-0.066616,-0.77091,0.19141,-0.069035,-0.36479,-0.042602,-0.085296,0.11251,0.071177,-0.39442,0.71993,-0.85339,0.45707,0.0020239,0.98283
0.014853,-0.043809,-0.033171,0.067528,0.0004698,-0.36094,0.097115,0.11631,-0.11779,0.56072,-0.77958,0.25524,0.038672,-0.54475,-0.027879,-0.10166,0.097662,0.049305,-0.46585,0.79749,-0.82257,0.45645,0.02314,0.94263
0.013394,-0.034099,-0.021789,0.082122,-0.009635,-0.28749,0.092132,0.094563,-0.095107,1.1498,-0.76939,0.32345,0.13372,-0.75572,-0.028841,-0.12675,0.091488,0.02541,-0.53033,0.86284,-0.79738,0.42631,0.041003,0.86554
0.0085876,-0.022576,-0.00805,0.096658,-0.01931,-0.21557,0.087213,0.062631,-0.063224,1.5679,-0.75194,0.38233,0.21364,-0.98307,-0.042531,-0.16457,0.090096,0.0036922,-0.59563,0.90489,-0.77885,0.393,0.051061,0.78959
0.0057087,-0.013638,0.0029173,0.10816,-0.023539,-0.15514,0.080709,0.01866,-0.025321,1.7543,-0.73973,0.41985,0.27986,-1.2162,-0.064207,-0.21005,0.089032,-0.011909,-0.66664,0.92543,-0.75438,0.37751,0.053751,0.7371
0.0075439,-0.0094297,0.007887,0.11532,-0.019067,-0.11187,0.069724,-0.034411,0.016971,1.7387,-0.73284,0.43352,0.32853,-1.4485,-0.088403,-0.24841,0.085869,-0.01979,-0.74257,0.93264,-0.70532,0.38353,0.053856,0.70617
0.012666,-0.0096294,0.0091495,0.11897,-0.0086187,-0.079552,0.053562,-0.091867,0.061714,1.6009,-0.71482,0.43154,0.3499,-1.6681,-0.10964,-0.26085,0.079915,-0.021992,-0.81739,0.93104,-0.61916,0.40103,0.056538,0.68227
0.017764,-0.013393,0.012075,0.12051,-0.00030277,-0.04157,0.035506,-0.15078,0.10458,1.4056,-0.66248,0.42592,0.33673,-1.8498,-0.12376,-0.23332,0.070739,-0.023568,-0.88286,0.91777,-0.49837,0.41884,0.063254,0.65751
0.021104,-0.020407,0.018975,0.12016,-0.0019043,0.018754,0.021344,-0.211,0.13918,1.1641,-0.56265,0.42293,0.29247,-1.9601,-0.12942,-0.16347,0.057725,-0.030181,-0.93303,0.88759,-0.36087,0.43449,0.07105,0.63993
0.023466,-0.029616,0.025899,0.11689,-0.014613,0.10701,0.015709,-0.27297,0.16021,0.849,-0.42319,0.41935,0.23021,-1.9756,-0.12811,-0.061425,0.04092,-0.045414,-0.96958,0.84057,-0.23205,0.45451,0.075819,0.64559
0.025952,-0.037629,0.026291,0.10987,-0.031721,0.21512,0.018973,-0.33473,0.16695,0.44577,-0.26955,0.40761,0.16293,-1.9006,-0.12239,0.055819,0.021563,-0.069494,-1.0051,0.78363,-0.13269,0.4869,0.076595,0.68201
0.02761,-0.039865,0.018253,0.099991,-0.043803,0.32947,0.026847,-0.39122,0.16408,-0.0064971,-0.1293,0.38541,0.094491,-1.767,-0.11362,0.1727,0.0010529,-0.099991,-1.061,0.72415,-0.06943,0.53325,0.076995,0.73972
0.025918,-0.034543,0.0078406,0.089459,-0.046226,0.44299,0.032749,-0.43646,0.15895,-0.41796,-0.01645,0.36086,0.020119,-1.6163,-0.10114,0.28061,-0.020815,-0.13361,-1.1579,0.66149,-0.033635,0.58623,0.082507,0.80091
0.019884,-0.025691,0.0042213,0.080244,-0.042639,0.56068,0.031093,-0.4668,0.15748,-0.69262,0.073174,0.34802,-0.064596,-1.474,-0.083593,0.37737,-0.046239,-0.16768,-1.3027,0.58537,-0.010067,0.63357,0.096062,0.85876
0.012326,-0.021163,0.01074,0.072809,-0.041404,0.69357,0.019412,-0.4822,0.16172,-0.78042,0.1529,0.356,-0.15579,-1.338,-0.060982,0.46186,-0.077383,-0.20052,-1.4804,0.48333,0.010114,0.6651,0.11579,0.93058
0.0084048,-0.026202,0.020691,0.066515,-0.048067,0.84553,-0.0016083,-0.48452,0.17067,-0.69985,0.23055,0.38093,-0.24288,-1.1882,-0.035536,0.52869,-0.11342,-0.23096,-1.6582,0.35158,0.021792,0.67836,0.13684,1.0517
0.011339,-0.038101,0.022698,0.061059,-0.060385,1.0032,-0.029514,-0.47504,0.18305,-0.51924,0.29997,0.40769,-0.318,-1.0069,-0.010341,0.56788,-0.14947,-0.25777,-1.8009,0.20045,0.010804,0.67988,0.15546,1.2519
0.019382,-0.047571,0.011271,0.05719,-0.070214,1.1377,-0.061437,-0.45383,0.19897,-0.31429,0.34531,0.4204,-0.38286,-0.79414,0.013109,0.57033,-0.1789,-0.27961,-1.8889,0.05032,-0.031611,0.6814,0.17174,1.5307
0.027226,-0.046523,-0.0074464,0.055767,-0.070579,1.2171,-0.094369,-0.42216,0.21908,-0.13187,0.35382,0.41278,-0.44496,-0.5673,0.036425,0.535,-0.19744,-0.29514,-1.925,-0.078548,-0.09717,0.69323,0.18876,1.8492
0.030698,-0.035557,-0.020678,0.056159,-0.061783,1.2225,-0.12453,-0.38551,0.24192,0.020267,0.32681,0.39001,-0.50536,-0.34903,0.063565,0.47205,-0.20583,-0.30316,-1.9259,-0.17475,-0.16352,0.7182,0.20945,2.1459
0.03025,-0.023972,-0.020432,0.055886,-0.051348,1.1566,-0.14699,-0.35381,0.26238,0.15898,0.28006,0.36098,-0.5503,-0.1554,0.098128,0.39884,-0.20881,-0.30247,-1.9062,-0.23796,-0.21141,0.74944,0.23439,2.367
0.02985,-0.021678,-0.010631,0.052319,-0.047959,1.0411,-0.15657,-0.33716,0.27317,0.30198,0.23374,0.32833,-0.55647,0.0074391,0.14042,0.33131,-0.21115,-0.29184,-1.8652,-0.27484,-0.2418,0.77349,0.26235,2.4915
0.03244,-0.030179,-0.0031121,0.045023,-0.054616,0.90376,-0.15007,-0.33939,0.26886,0.45052,0.20008,0.28562,-0.50798,0.14069,0.18617,0.27669,-0.21395,-0.27049,-1.7882,-0.29278,-0.27632,0.77709,0.29269,2.5364
0.036563,-0.041045,-0.0063773,0.036429,-0.066596,0.76632,-0.12842,-0.35408,0.24944,0.58489,0.17796,0.22422,-0.41168,0.25093,0.22779,0.2323,-0.21387,-0.23907,-1.6597,-0.29553,-0.3386,0.75417,0.32658,2.5415
0.037653,-0.043572,-0.017937,0.029906,-0.075501,0.6379,-0.096961,-0.36679,0.2207,0.67052,0.15765,0.14372,-0.29748,0.35115,0.25776,0.19059,-0.20561,-0.20028,-1.4765,-0.28248,-0.43187,0.70912,0.36515,2.5447
0.032789,-0.034668,-0.027506,0.026762,-0.075583,0.51846,-0.063466,-0.36279,0.19084,0.66996,0.13069,0.056168,-0.20215,0.45916,0.27225,0.14603,-0.18571,-0.15849,-1.2525,-0.25074,-0.5333,0.65452,0.40614,2.5665
0.024143,-0.021756,-0.027636,0.024945,-0.067169,0.40733,-0.034652,-0.33531,0.16573,0.55774,0.096757,-0.020612,-0.14819,0.5883,0.27307,0.0988,-0.15483,-0.11807,-1.0107,-0.19865,-0.61169,0.60425,0.44263,2.6102
0.017505,-0.015973,-0.021167,0.020786,-0.055019,0.30939,-0.013372,-0.2888,0.14621,0.33538,0.062932,-0.075578,-0.13324,0.73403,0.26669,0.053614,-0.11732,-0.081604,-0.77029,-0.12867,-0.65351,0.56554,0.4661,2.6735
0.017071,-0.021985,-0.018265,0.012389,-0.043928,0.23341,0.0021521,-0.23471,0.12929,0.040532,0.037394,-0.11313,-0.13647,0.86812,0.26087,0.015598,-0.078734,-0.049265,-0.53802,-0.048136,-0.67429,0.5347,0.4721,2.7569
0.021489,-0.033903,-0.026207,0.0016797,-0.035737,0.18381,0.016868,-0.18329,0.11187,-0.25799,0.023818,-0.1509,-0.13572,0.94958,0.26066,-0.013071,-0.043379,-0.019847,-0.31053,0.032828,-0.70505,0.49941,0.46388,2.862
0.025036,-0.040942,-0.042181,-0.0067839,-0.029922,0.15313,0.036199,-0.13717,0.093973,-0.48273,0.020988,-0.2085,-0.1219,0.94704,0.26621,-0.033447,-0.013357,0.0074337,-0.084138,0.1053,-0.76597,0.447,0.45049,2.982
0.022911,-0.037306,-0.056118,-0.0092583,-0.026389,0.1236,0.063401,-0.091336,0.0791,-0.57977,0.026778,-0.29532,-0.10121,0.85641,0.27331,-0.047546,0.010738,0.031947,0.13579,0.16492,-0.85067,0.37392,0.44012,3.0951
0.015616,-0.026973,-0.06048,-0.0055574,-0.02727,0.07895,0.098049,-0.038718,0.071776,-0.54197,0.041693,-0.40512,-0.0863,0.70079,0.27652,-0.055864,0.028662,0.052211,0.33342,0.21223,-0.93393,0.2898,0.43413,3.1705
0.0082179,-0.019103,-0.057069,0.0011715,-0.035903,0.018336,0.13623,0.023445,0.07442,-0.40722,0.068101,-0.51925,-0.084895,0.51517,0.27275,-0.056806,0.040105,0.067209,0.49044,0.2499,-0.99415,0.2127,0.42664,3.1838
0.0052965,-0.018773,-0.054177,0.0072084,-0.05402,-0.039463,0.17247,0.091557,0.085814,-0.23137,0.106,-0.61454,-0.094908,0.3315,0.26357,-0.048455,0.045222,0.077051,0.59783,0.27951,-1.0293,0.15814,0.41025,3.1324
0.0065669,-0.022097,-0.057266,0.010982,-0.079809,-0.0672,0.2025,0.15897,0.10192,-0.055387,0.1501,-0.67086,-0.10787,0.17654,0.25487,-0.031216,0.045219,0.082428,0.66289,0.30055,-1.0528,0.12932,0.38283,3.0364
0.007492,-0.020403,-0.062911,0.013541,-0.10858,-0.048805,0.22534,0.22134,0.11815,0.10886,0.19222,-0.67629,-0.11605,0.078537,0.25398,-0.0091685,0.042098,0.083688,0.70606,0.31239,-1.0761,0.11549,0.34955,2.9252
0.0042308,-0.009313,-0.062362,0.016932,-0.13545,0.0073407,0.24305,0.27935,0.13141,0.26476,0.22785,-0.63008,-0.11694,0.067939,0.26573,0.01121,0.03767,0.080648,0.74894,0.31656,-1.0947,0.099493,0.31839,2.8181
-0.0021072,0.0062194,-0.051146,0.022479,-0.15781,0.072291,0.25848,0.33679,0.14094,0.40491,0.26106,-0.54357,-0.1123,0.16345,0.28956,0.024464,0.032838,0.073283,0.80114,0.31656,-1.0926,0.06877,0.29315,2.7129
-0.0063188,0.016029,-0.034771,0.03053,-0.17591,0.11497,0.27241,0.39579,0.14773,0.5003,0.30239,-0.43791,-0.10445,0.35279,0.31946,0.029494,0.027933,0.062305,0.85471,0.31452,-1.0587,0.021764,0.26987,2.5895
-0.0043916,0.014278,-0.024283,0.041141,-0.19133,0.12097,0.28247,0.45339,0.15308,0.51886,0.36008,-0.33779,-0.093715,0.5882,0.3468,0.030356,0.023684,0.048872,0.88956,0.30766,-0.99976,-0.033857,0.23974,2.4249
0.0020322,0.0052979,-0.025624,0.053958,-0.20512,0.097883,0.28477,0.50194,0.15734,0.45865,0.43122,-0.26273,-0.079057,0.80659,0.36445,0.033713,0.021576,0.033921,0.88612,0.2879,-0.93805,-0.08842,0.19587,2.2055
0.0066615,-3.6151e-005,-0.033358,0.066777,-0.21691,0.064874,0.27697,0.53265,0.15941,0.36375,0.50037,-0.22049,-0.060079,0.96241,0.36948,0.044594,0.022961,0.01826,0.83665,0.24558,-0.89423,-0.13669,0.13833,1.9297
0.0043484,0.0057991,-0.035389,0.074499,-0.2256,0.037111,0.26022,0.53963,0.15753,0.3023,0.5474,-0.20613,-0.037907,1.0476,0.36308,0.063494,0.027705,0.0036639,0.74803,0.17468,-0.8716,-0.17951,0.073532,1.5998
-0.0038781,0.020076,-0.0246,0.070749,-0.23063,0.018041,0.23851,0.52184,0.15093,0.31879,0.55885,-0.20665,-0.014319,1.0834,0.34811,0.086706,0.033867,-0.0064158,0.63573,0.075936,-0.85376,-0.22123,0.0093282,1.2145
-0.011571,0.032454,-0.0062092,0.052092,-0.23267,0.003932,0.21586,0.48253,0.14111,0.39781,0.53426,-0.20792,0.0091712,1.0931,0.32665,0.10904,0.03896,-0.0081933,0.51413,-0.044135,-0.81645,-0.26656,-0.05021,0.77107
-0.012914,0.034684,0.0065586,0.021693,-0.23322,-0.0064177,0.19372,0.42755,0.1316,0.47054,0.48353,-0.19991,0.030879,1.0801,0.29953,0.12618,0.041639,-0.00074143,0.39013,-0.17673,-0.74273,-0.31864,-0.10619,0.27827
-0.0083353,0.028188,0.0047396,-0.011175,-0.23342,-0.0074862,0.17055,0.36387,0.12601,0.46173,0.41893,-0.17909,0.048036,1.0321,0.26766,0.13466,0.042056,0.011536,0.26278,-0.31377,-0.62989,-0.37796,-0.16216,-0.22944
-0.0042475,0.022406,-0.0077429,-0.036101,-0.23343,0.00764,0.14389,0.29873,0.12533,0.34202,0.34931,-0.14852,0.057661,0.94348,0.23378,0.13059,0.040475,0.019997,0.12746,-0.44844,-0.48518,-0.44091,-0.21996,-0.69152
-0.0069878,0.025595,-0.017384,-0.047281,-0.23284,0.038284,0.11314,0.23873,0.12676,0.14654,0.2808,-0.11639,0.059644,0.83433,0.20258,0.10985,0.035684,0.016611,-0.019256,-0.57353,-0.3173,-0.49912,-0.27712,-1.04
-0.016629,0.036926,-0.013353,-0.045458,-0.23168,0.073118,0.080752,0.18849,0.12523,-0.051106,0.22145,-0.092149,0.059257,0.74558,0.17891,0.071228,0.025173,-0.00073578,-0.1763,-0.68018,-0.13213,-0.5421,-0.32738,-1.2292
-0.026503,0.047321,0.002791,-0.034889,-0.23117,0.097044,0.051136,0.14944,0.11694,-0.18526,0.18354,-0.080649,0.065459,0.71299,0.16521,0.020511,0.0073771,-0.026687,-0.3369,-0.75895,0.06477,-0.56388,-0.36347,-1.2574
-0.028989,0.048067,0.018917,-0.018674,-0.23299,0.10286,0.028116,0.11963,0.10253,-0.2287,0.17968,-0.076926,0.084744,0.74231,0.15973,-0.029044,-0.016017,-0.052087,-0.48949,-0.80378,0.26374,-0.56938,-0.38034,-1.1671
-0.022311,0.038948,0.023742,0.0030259,-0.23761,0.098142,0.012979,0.095172,0.087367,-0.18939,0.21555,-0.066509,0.11498,0.80741,0.1564,-0.062051,-0.040124,-0.070027,-0.62075,-0.81659,0.45085,-0.57423,-0.37763,-1.0218
-0.012233,0.028359,0.016968,0.030479,-0.24295,0.10171,0.0042605,0.07275,0.078744,-0.086084,0.28576,-0.033246,0.14492,0.87269,0.14654,-0.06965,-0.05968,-0.079492,-0.72047,-0.80901,0.61305,-0.59543,-0.36009,-0.87698
-0.0072293,0.025646,0.008833,0.060643,-0.2446,0.13208,-0.00097549,0.051712,0.081826,0.069943,0.37709,0.029406,0.16078,0.91932,0.12225,-0.055444,-0.072367,-0.083985,-0.78557,-0.79818,0.74365,-0.63853,-0.33602,-0.76448
-0.011502,0.033046,0.010067,0.086475,-0.23824,0.19613,-0.0055544,0.034743,0.097268,0.27201,0.47639,0.11197,0.1552,0.9519,0.080743,-0.034052,-0.079756,-0.086876,-0.82055,-0.79738,0.8427,-0.69121,-0.31378,-0.69823
-0.021869,0.044475,0.022155,0.10059,-0.22247,0.28474,-0.011252,0.026851,0.12186,0.50288,0.57631,0.19338,0.13151,0.98086,0.027705,-0.022887,-0.085025,-0.087881,-0.83339,-0.80627,0.9119,-0.72938,-0.29815,-0.69159
-0.030809,0.051593,0.036979,0.10023,-0.20021,0.37718,-0.018622,0.033353,0.15119,0.72797,0.67454,0.25412,0.099977,0.99859,-0.022961,-0.032521,-0.089626,-0.083719,-0.83035,-0.8083,0.94938,-0.73171,-0.28851,-0.76591
-0.032576,0.050957,0.045443,0.089241,-0.17732,0.45035,-0.027224,0.057548,0.18193,0.90726,0.76874,0.28849,0.069497,0.97448,-0.054468,-0.0616,-0.092011,-0.072045,-0.81451,-0.77947,0.95005,-0.69099,-0.28021,-0.93829
-0.027111,0.045854,0.046151,0.075145,-0.15916,0.48786,-0.036041,0.098391,0.2121,1.016,0.8539,0.30685,0.041865,0.87656,-0.05565,-0.098674,-0.089621,-0.054789,-0.78994,-0.70516,0.91165,-0.61361,-0.2683,-1.1969
-0.019036,0.042053,0.045776,0.064056,-0.14755,0.4851,-0.044118,0.14849,0.23961,1.055,0.92591,0.32616,0.012866,0.70195,-0.027431,-0.12885,-0.082204,-0.037769,-0.76793,-0.59458,0.84068,-0.50903,-0.25069,-1.4878
-0.013459,0.042327,0.051437,0.057451,-0.14034,0.44928,-0.051257,0.19355,0.26099,1.0417,0.98804,0.35681,-0.021653,0.48759,0.017684,-0.14099,-0.073195,-0.026899,-0.76848,-0.48157,0.75189,-0.38029,-0.22832,-1.7323
-0.012538,0.044848,0.063279,0.053046,-0.13396,0.39481,-0.058268,0.21506,0.27194,0.99157,1.0527,0.39568,-0.060824,0.28824,0.063341,-0.13202,-0.067586,-0.024293,-0.81334,-0.40861,0.66083,-0.22523,-0.20239,-1.8705
-0.015166,0.046024,0.074733,0.048193,-0.12674,0.33634,-0.066325,0.19708,0.26961,0.90963,1.1341,0.43038,-0.09943,0.13744,0.098867,-0.10692,-0.067985,-0.02748,-0.91351,-0.40315,0.57582,-0.047117,-0.17156,-1.9011
-0.018952,0.044028,0.079651,0.042421,-0.12026,0.28253,-0.07578,0.13503,0.25496,0.79854,1.2376,0.45,-0.13326,0.023851,0.12344,-0.075362,-0.072422,-0.03201,-1.0601,-0.46174,0.49624,0.13603,-0.13247,-1.884
-0.022074,0.03946,0.078456,0.037145,-0.11755,0.23392,-0.085489,0.041434,0.23315,0.67481,1.3529,0.45359,-0.16385,-0.096108,0.14217,-0.046691,-0.076063,-0.034971,-1.2262,-0.55288,0.41842,0.2942,-0.083662,-1.8998
-0.023683,0.033354,0.076764,0.033493,-0.11967,0.18589,-0.093475,-0.056607,0.2115,0.57355,1.4608,0.45003,-0.19802,-0.25883,0.15825,-0.025973,-0.075633,-0.036641,-1.3792,-0.63622,0.34318,0.39954,-0.029734,-1.9917
-0.023452,0.025652,0.078188,0.030774,-0.12395,0.13427,-0.098545,-0.12856,0.19596,0.53332,1.5453,0.45051,-0.2422,-0.45927,0.1686,-0.012975,-0.072812,-0.039595,-1.4976,-0.68429,0.27722,0.44105,0.01875,-2.1357
-0.021444,0.01623,0.07943,0.027072,-0.12549,0.079324,-0.10144,-0.15467,0.18838,0.5715,1.6049,0.45991,-0.29634,-0.64955,0.16684,-0.0044989,-0.073585,-0.046708,-1.5792,-0.69195,0.22668,0.4279,0.050457,-2.26
-0.018388,0.0070352,0.073514,0.021137,-0.12087,0.025248,-0.10427,-0.13427,0.18617,0.67139,1.6506,0.47345,-0.35252,-0.77038,0.15049,0.0018608,-0.083777,-0.059668,-1.6368,-0.66959,0.18908,0.37981,0.060165,-2.3006
-0.015488,0.0020268,0.058272,0.013595,-0.1108,-0.023578,-0.10843,-0.083035,0.18435,0.79315,1.6956,0.48,-0.39933,-0.78957,0.12509,0.0055455,-0.10421,-0.078273,-1.6836,-0.62863,0.15198,0.31373,0.052025,-2.2459
-0.013423,0.0038128,0.041089,0.0063173,-0.099256,-0.065391,-0.11275,-0.021662,0.17862,0.9007,1.7442,0.46865,-0.42903,-0.71935,0.10094,0.0041005,-0.12918,-0.099794,-1.7194,-0.57268,0.10135,0.2379,0.036656,-2.1373
-0.011569,0.0099158,0.034012,0.00072051,-0.089956,-0.10018,-0.11349,0.035399,0.16744,0.98298,1.7888,0.43364,-0.44202,-0.60418,0.085356,-0.0037752,-0.14941,-0.11836,-1.7276,-0.50025,0.033679,0.15582,0.024534,-2.0273
-0.0086462,0.013021,0.042948,-0.0032488,-0.083262,-0.12645,-0.10663,0.083758,0.15203,1.0533,1.8172,0.37525,-0.44595,-0.49432,0.077363,-0.016335,-0.15716,-0.12552,-1.6837,-0.41394,-0.038203,0.073157,0.020771,-1.9342
-0.0045154,0.0062997,0.061123,-0.0064643,-0.076299,-0.13983,-0.090779,0.125,0.13485,1.1291,1.8221,0.29785,-0.4504,-0.42665,0.069464,-0.030076,-0.14986,-0.11319,-1.5698,-0.32534,-0.091202,-0.0011656,0.024511,-1.8325
-0.0011517,-0.010258,0.073588,-0.0090189,-0.065997,-0.13563,-0.068408,0.16077,0.11806,1.2116,1.8053,0.20787,-0.46094,-0.42144,0.054551,-0.043029,-0.13009,-0.078132,-1.3845,-0.25024,-0.10613,-0.061108,0.031848,-1.6865
-0.0012687,-0.028441,0.069299,-0.0093941,-0.052047,-0.11323,-0.044438,0.19121,0.1031,1.2802,1.7744,0.1137,-0.4763,-0.48711,0.031396,-0.056608,-0.10262,-0.025166,-1.1408,-0.19832,-0.079989,-0.11014,0.038694,-1.4932
-0.0054743,-0.037489,0.050064,-0.0054753,-0.036965,-0.077114,-0.022953,0.21775,0.091239,1.3054,1.7362,0.026399,-0.49003,-0.62109,0.0042659,-0.073619,-0.071213,0.033666,-0.8569,-0.16669,-0.027718,-0.16082,0.041423,-1.2974
-0.010814,-0.032593,0.028478,0.0032499,-0.023311,-0.032861,-0.0045136,0.24526,0.083923,1.2662,1.6929,-0.041339,-0.49531,-0.80454,-0.021851,-0.093653,-0.037643,0.084241,-0.54802,-0.14296,0.027065,-0.22685,0.036407,-1.1617
-0.012659,-0.018961,0.017079,0.014228,-0.010901,0.018403,0.014014,0.27869,0.081978,1.1577,1.6437,-0.079239,-0.48957,-1.0002,-0.044927,-0.10998,-0.0031,0.11696,-0.22725,-0.11474,0.065358,-0.3146,0.020858,-1.1191
-0.0086448,-0.0077235,0.01864,0.022635,0.0031677,0.080492,0.036965,0.31599,0.084306,0.98827,1.5887,-0.085051,-0.47567,-1.1624,-0.06492,-0.11156,0.029877,0.13077,0.086755,-0.077496,0.081138,-0.42122,-0.0047358,-1.1456
-0.0010214,-0.0070801,0.025787,0.024099,0.021614,0.15532,0.066605,0.34429,0.087637,0.77357,1.5306,-0.067769,-0.45868,-1.2553,-0.079992,-0.08985,0.057248,0.1323,0.36511,-0.035152,0.080619,-0.53969,-0.035199,-1.1783
0.0050734,-0.016258,0.02909,0.017314,0.043938,0.23393,0.10144,0.34477,0.088275,0.53526,1.4734,-0.045297,-0.44041,-1.2666,-0.084963,-0.046173,0.075716,0.13078,0.57584,0.0054095,0.075024,-0.66423,-0.062852,-1.16
0.0060264,-0.027233,0.025413,0.0043441,0.066128,0.29448,0.13721,0.30393,0.084762,0.3028,1.4196,-0.036958,-0.4162,-1.2042,-0.074631,0.0060598,0.085597,0.13205,0.70107,0.04013,0.073108,-0.78921,-0.082493,-1.077
0.0027183,-0.032097,0.01911,-0.011719,0.083402,0.3116,0.16961,0.22309,0.079116,0.11014,1.3684,-0.055043,-0.37751,-1.0809,-0.049132,0.046915,0.091517,0.1353,0.75131,0.069172,0.07817,-0.90254,-0.094995,-0.95984
-0.0008035,-0.029186,0.01617,-0.029898,0.093492,0.27203,0.19645,0.11837,0.075188,-0.015995,1.3179,-0.10057,-0.31923,-0.90165,-0.015847,0.060859,0.09958,0.13416,0.76293,0.093859,0.089841,-0.98145,-0.10596,-0.85272
-0.0015971,-0.022854,0.017882,-0.052544,0.097638,0.18521,0.21755,0.01156,0.075331,-0.069407,1.2675,-0.16554,-0.24605,-0.66835,0.014699,0.046502,0.11266,0.1215,0.77742,0.11253,0.10751,-0.99882,-0.12025,-0.77915
-0.00071789,-0.018162,0.020083,-0.083326,0.098672,0.080382,0.23273,-0.080832,0.078321,-0.068134,1.2191,-0.23947,-0.17206,-0.39622,0.035745,0.018598,0.12746,0.094615,0.81653,0.11844,0.13207,-0.93979,-0.13726,-0.73037
-0.0017716,-0.01631,0.017967,-0.12327,0.098236,-0.0082356,0.23983,-0.15238,0.08055,-0.044615,1.1754,-0.31511,-0.11234,-0.12442,0.048014,0.00022919,0.13604,0.057587,0.87209,0.1006,0.16499,-0.81736,-0.15137,-0.68156
-0.0065942,-0.015112,0.011088,-0.1678,0.095754,-0.058204,0.23503,-0.20397,0.079481,-0.029472,1.1373,-0.38938,-0.072488,0.094738,0.057256,0.0094979,0.13106,0.019208,0.91831,0.046763,0.20616,-0.67336,-0.15711,-0.61721
-0.012559,-0.013134,0.0036472,-0.20727,0.089983,-0.067186,0.21573,-0.23855,0.076154,-0.040433,1.1022,-0.4597,-0.044317,0.22453,0.068415,0.049099,0.11107,-0.012184,0.93595,-0.052036,0.25276,-0.55949,-0.15432,-0.54322
-0.014493,-0.012322,0.00027401,-0.2309,0.081525,-0.049554,0.18397,-0.25905,0.074385,-0.081563,1.066,-0.51968,-0.011717,0.26851,0.082018,0.10553,0.081667,-0.033581,0.92853,-0.19584,0.29994,-0.50856,-0.14844,-0.47774
