-6.7526e-011,2.7589e-010,2.2476e-009,-7.968e-010,5.7686e-010,2.4888e-010,2.1222e-011,2.0894e-009,-2.5081e-011,1.0708e-009,3.0888e-009,-4.9969e-010,3.7621e-010,1.4566e-009,2.7589e-010,1.3447e-009,-8.4697e-010,-6.7526e-011,7.8137e-010,-3.3319e-009,4.8233e-011,4.611e-010,-2.1029e-010,1.4026e-009
-1.8428e-009,7.3846e-009,6.2141e-008,-2.2119e-008,1.6118e-008,7.1129e-009,1.0412e-010,5.7577e-008,-6.3906e-010,2.9404e-008,8.5344e-008,-1.3774e-008,1.0628e-008,4.0252e-008,7.4001e-009,3.7299e-008,-2.3559e-008,-1.7309e-009,2.1561e-008,-9.3748e-008,6.9231e-010,1.3386e-008,-6.282e-009,3.8528e-008
-2.4315e-008,9.5807e-008,8.3509e-007,-2.9871e-007,2.1896e-007,9.8695e-008,-5.2189e-009,7.7135e-007,-7.999e-009,3.9261e-007,1.1463e-006,-1.8429e-007,1.463e-007,5.4069e-007,9.6535e-008,5.0319e-007,-3.1858e-007,-2.1747e-008,2.8898e-007,-1.2848e-006,3.3564e-010,1.8925e-007,-9.0833e-008,5.1434e-007
-2.0657e-007,8.0252e-007,7.2672e-006,-2.6146e-006,1.9266e-006,8.8554e-007,-1.045e-007,6.6933e-006,-6.5709e-008,3.3959e-006,9.972e-006,-1.594e-006,1.3077e-006,4.7035e-006,8.1634e-007,4.3995e-006,-2.7902e-006,-1.7933e-007,2.5059e-006,-1.143e-005,-7.8372e-008,1.7357e-006,-8.4727e-007,4.4459e-006
-1.2697e-006,4.8769e-006,4.6026e-005,-1.6671e-005,1.2341e-005,5.7727e-006,-1.0487e-006,4.2282e-005,-3.9898e-007,2.1388e-005,6.3149e-005,-1.0011e-005,8.5346e-006,2.9781e-005,5.0323e-006,2.8022e-005,-1.7789e-005,-1.0973e-006,1.5799e-005,-7.4204e-005,-1.0334e-006,1.1609e-005,-5.7317e-006,2.7965e-005
-6.0144e-006,2.2903e-005,0.00022602,-8.2496e-005,6.132e-005,2.9121e-005,-7.1338e-006,0.00020717,-1.9093e-006,0.00010451,0.00031016,-4.861e-005,4.3342e-005,0.00014623,2.4109e-005,0.00013856,-8.797e-005,-5.3412e-006,7.7145e-005,-0.00037466,-7.8308e-006,6.033e-005,-2.9969e-005,0.00013638
-2.2835e-005,8.6428e-005,0.00089511,-0.00032952,0.00024583,0.00011822,-3.6567e-005,0.00081898,-7.4832e-006,0.0004121,0.001229,-0.00018962,0.00017826,0.00057922,9.3457e-005,0.00055332,-0.00035099,-2.1623e-005,0.00030337,-0.001531,-4.2454e-005,0.00025346,-0.000126,0.0005363
-7.1352e-005,0.00026898,0.0029352,-0.0010907,0.00081645,0.0003965,-0.00014923,0.0026821,-2.4588e-005,0.0013468,0.0040346,-0.00060935,0.00061001,0.0019006,0.0003013,0.0018328,-0.0011603,-7.4971e-005,0.00098615,-0.0052019,-0.00017869,0.00088412,-0.00043739,0.0017461
-0.00018692,0.00070271,0.0081166,-0.0030464,0.0022883,0.001119,-0.00050157,0.0074124,-6.8609e-005,0.0037157,0.011177,-0.0016399,0.0017707,0.0052626,0.00082412,0.0051308,-0.0032375,-0.00022677,0.0026975,-0.014978,-0.00060959,0.0026092,-0.0012769,0.0047939
-0.00041595,0.0015592,0.019171,-0.0072692,0.0054827,0.0026927,-0.0014204,0.017513,-0.00016333,0.008769,0.026468,-0.003733,0.0044215,0.01246,0.0019416,0.012301,-0.0077259,-0.00060443,0.0062851,-0.037055,-0.0017301,0.0066039,-0.0031746,0.011241
-0.000793,0.0029576,0.039011,-0.014937,0.01133,0.0055782,-0.0034435,0.035692,-0.00033031,0.017864,0.054063,-0.0072161,0.0095962,0.025458,0.0039877,0.025492,-0.015912,-0.0014254,0.01257,-0.079556,-0.0041545,0.014474,-0.0067755,0.022706
-0.0012996,0.0048013,0.068742,-0.02653,0.020301,0.010019,-0.0072285,0.063101,-0.00055777,0.031592,0.095759,-0.011807,0.018237,0.045159,0.0072117,0.045939,-0.028442,-0.0029738,0.021659,-0.14926,-0.008531,0.027651,-0.012459,0.039708
-0.0018206,0.0066259,0.10509,-0.040706,0.031602,0.015694,-0.013245,0.097038,-0.00075046,0.048635,0.14741,-0.016109,0.030496,0.06977,0.011591,0.072205,-0.044232,-0.0054736,0.032146,-0.24578,-0.015068,0.046225,-0.019708,0.060222
-0.0021224,0.007609,0.13917,-0.053607,0.042667,0.021574,-0.021299,0.1298,-0.00068968,0.065138,0.19696,-0.017597,0.045001,0.093954,0.016715,0.09899,-0.059773,-0.0088445,0.040902,-0.35586,-0.022925,0.067717,-0.02657,0.07905
-0.0018641,0.0068561,0.15884,-0.059663,0.049648,0.026281,-0.030171,0.15069,-6.1032e-005,0.075576,0.22726,-0.013544,0.058645,0.11013,0.021863,0.11803,-0.069772,-0.012454,0.044212,-0.45275,-0.029937,0.08683,-0.029802,0.089264
-0.00064185,0.0039072,0.15492,-0.054289,0.04916,0.028915,-0.037749,0.15138,0.0013997,0.075264,0.22428,-0.0027487,0.067441,0.11216,0.026287,0.12171,-0.06943,-0.015118,0.04018,-0.50455,-0.03323,0.097113,-0.026103,0.085786
0.0019228,-0.00078681,0.12808,-0.037379,0.040495,0.029774,-0.041857,0.13199,0.0036656,0.063259,0.18668,0.012974,0.068365,0.099531,0.029545,0.10788,-0.057333,-0.015567,0.031042,-0.48988,-0.030785,0.094276,-0.014104,0.069203
0.0060067,-0.0057204,0.090681,-0.015047,0.026737,0.03024,-0.041443,0.10294,0.006219,0.043502,0.12968,0.028911,0.06126,0.078771,0.031648,0.082545,-0.03695,-0.013273,0.023287,-0.41236,-0.023123,0.079304,0.0041092,0.046716
0.011303,-0.0086668,0.060554,0.002573,0.013509,0.031639,-0.037334,0.079709,0.0080932,0.022862,0.078061,0.039668,0.049467,0.060195,0.032924,0.057539,-0.015193,-0.009048,0.024487,-0.30318,-0.013732,0.05886,0.023298,0.028484
0.016768,-0.0073762,0.049434,0.0071262,0.0057597,0.033923,-0.031855,0.073019,0.0082631,0.0070955,0.051287,0.042306,0.038359,0.051393,0.033721,0.043706,0.0014687,-0.0047175,0.03827,-0.20703,-0.0073906,0.041876,0.037569,0.021108
0.020692,-0.00036498,0.054621,-0.0020878,0.0046766,0.03545,-0.027414,0.08133,0.0062553,-0.0022878,0.050865,0.038093,0.032377,0.052186,0.034135,0.043868,0.010711,-0.0017716,0.060978,-0.15886,-0.0071471,0.034148,0.04372,0.022984
0.021361,0.012477,0.061188,-0.016726,0.0071258,0.034346,-0.025028,0.092261,0.002607,-0.0076944,0.060212,0.031342,0.032344,0.055213,0.033916,0.051022,0.01507,6.9552e-005,0.083087,-0.16625,-0.0121,0.034737,0.043137,0.02558
0.018133,0.029649,0.054021,-0.024265,0.0081837,0.030387,-0.023938,0.092494,-0.0012186,-0.011992,0.057966,0.026072,0.034947,0.05206,0.032504,0.0536,0.019068,0.0029461,0.09508,-0.20956,-0.017887,0.037093,0.04075,0.020207
0.012214,0.048295,0.030203,-0.016066,0.0048728,0.025616,-0.022587,0.078439,-0.0035517,-0.015175,0.034624,0.023124,0.034916,0.040111,0.029184,0.044091,0.025149,0.0090369,0.093697,-0.25884,-0.01978,0.03423,0.041671,0.0050828
0.0063306,0.064959,0.0011935,0.0072686,-0.0018188,0.022872,-0.020055,0.058667,-0.0034877,-0.014448,-0.00090159,0.020081,0.028523,0.024439,0.023409,0.024341,0.031811,0.018053,0.083681,-0.29385,-0.016071,0.023934,0.047941,-0.01319
0.0031609,0.076653,-0.017269,0.037241,-0.0081458,0.02343,-0.016731,0.045892,-0.0014392,-0.0078543,-0.029916,0.013949,0.016018,0.013211,0.015265,0.0033937,0.035423,0.026369,0.073488,-0.31256,-0.0090553,0.0099298,0.057671,-0.025072
0.0035264,0.081789,-0.018716,0.064127,-0.010897,0.025974,-0.013756,0.045454,0.0012072,0.0020584,-0.039968,0.0042362,0.0013128,0.010619,0.0058952,-0.010096,0.033924,0.029114,0.068379,-0.32334,-0.0029102,-0.0016567,0.066892,-0.025857
0.0058007,0.080511,-0.010929,0.083384,-0.01002,0.027961,-0.011962,0.050499,0.0031557,0.0085088,-0.034423,-0.0062011,-0.010793,0.013455,-0.0025478,-0.014393,0.029011,0.023942,0.066508,-0.32999,-0.00038876,-0.0072555,0.072405,-0.019163
0.0072226,0.074257,-0.0081744,0.09687,-0.008575,0.028171,-0.011351,0.048152,0.0041873,0.0052814,-0.027949,-0.013141,-0.01775,0.014065,-0.007629,-0.01484,0.024879,0.013322,0.061119,-0.32325,-0.0011218,-0.0080704,0.07347,-0.013368
0.0061755,0.06486,-0.018157,0.10879,-0.010282,0.027954,-0.011378,0.031222,0.0052375,-0.0077833,-0.032942,-0.014039,-0.0205,0.0068499,-0.0077673,-0.018104,0.02471,0.0030095,0.046748,-0.28605,-0.002693,-0.0081492,0.071495,-0.014439
0.003512,0.053743,-0.035799,0.12071,-0.016707,0.02986,-0.011432,0.0051353,0.0074644,-0.023669,-0.049355,-0.0097067,-0.022094,-0.0073461,-0.0030896,-0.026039,0.028081,-0.0023713,0.024087,-0.20728,-0.0031213,-0.010594,0.068585,-0.021489
0.0017015,0.041632,-0.04915,0.13016,-0.026137,0.034814,-0.010804,-0.015854,0.011115,-0.033074,-0.066373,-0.0035548,-0.025007,-0.02239,0.0046122,-0.034626,0.031485,-0.0030431,-0.00042375,-0.092382,-0.0023455,-0.015411,0.066321,-0.028576
0.0025111,0.028791,-0.051224,0.13343,-0.034689,0.040436,-0.0083645,-0.019696,0.015242,-0.031645,-0.073186,0.00076651,-0.029351,-0.031984,0.012858,-0.03847,0.03134,-0.0038555,-0.019618,0.037514,-0.0015861,-0.020451,0.065386,-0.030501
0.0053269,0.015503,-0.046351,0.12924,-0.038684,0.042147,-0.0027597,-0.0054551,0.018569,-0.023496,-0.068483,0.0016483,-0.033245,-0.034142,0.019765,-0.036211,0.026837,-0.01019,-0.030842,0.15695,-0.0016094,-0.023893,0.065647,-0.027141
0.007689,0.0024246,-0.04538,0.11971,-0.03671,0.036313,0.0064944,0.016834,0.020659,-0.017785,-0.060611,0.00054935,-0.034749,-0.031611,0.024801,-0.031713,0.020348,-0.023315,-0.037252,0.24918,-0.0018066,-0.025675,0.066213,-0.022743
0.0075446,-0.0093741,-0.054931,0.10805,-0.03032,0.023042,0.017855,0.034234,0.022197,-0.021072,-0.059447,0.0015333,-0.033617,-0.028736,0.028568,-0.030165,0.015413,-0.038868,-0.044493,0.31238,-0.00090919,-0.02684,0.065549,-0.02151
0.0050844,-0.018719,-0.071246,0.095748,-0.023184,0.0066308,0.027907,0.03958,0.023989,-0.031908,-0.068074,0.0095859,-0.031501,-0.028031,0.031918,-0.033109,0.014278,-0.049494,-0.055787,0.35672,0.0016083,-0.027998,0.062148,-0.023901
0.0024529,-0.024889,-0.084204,0.082027,-0.019256,-0.0065617,0.033284,0.034082,0.025645,-0.042311,-0.081316,0.028113,-0.03068,-0.029248,0.03515,-0.037215,0.01695,-0.049454,-0.069296,0.39617,0.0050131,-0.028778,0.055711,-0.026862
0.0017337,-0.028229,-0.087074,0.065854,-0.020827,-0.011444,0.033092,0.023184,0.025381,-0.044798,-0.091273,0.056368,-0.032534,-0.03096,0.037925,-0.037822,0.022082,-0.037962,-0.079592,0.44138,0.0082082,-0.028749,0.04798,-0.027206
0.0032863,-0.030469,-0.082427,0.048079,-0.027342,-0.0069084,0.029837,0.010545,0.02144,-0.038773,-0.09406,0.088158,-0.036932,-0.032545,0.039812,-0.033693,0.028408,-0.019416,-0.081894,0.49694,0.01103,-0.028574,0.042155,-0.024639
0.0060248,-0.034283,-0.078904,0.031453,-0.035583,0.0034161,0.027861,-0.0044877,0.014024,-0.030722,-0.092094,0.11325,-0.042769,-0.034607,0.04084,-0.028386,0.035305,-0.0010064,-0.075854,0.5624,0.014509,-0.029896,0.040873,-0.021695
0.0090696,-0.041824,-0.082608,0.018549,-0.041231,0.012891,0.030369,-0.024578,0.005933,-0.028223,-0.091036,0.12161,-0.048961,-0.037831,0.041462,-0.027044,0.042274,0.010594,-0.066203,0.63433,0.019714,-0.033819,0.04408,-0.021032
0.012678,-0.052756,-0.091685,0.0097604,-0.041196,0.015493,0.037344,-0.050313,0.0010092,-0.033265,-0.095006,0.1086,-0.055012,-0.041801,0.041999,-0.031728,0.048244,0.011909,-0.059817,0.70742,0.026261,-0.03942,0.048596,-0.022914
0.017212,-0.063241,-0.098931,0.0033121,-0.035465,0.0095093,0.045932,-0.078246,0.001421,-0.040811,-0.10406,0.077901,-0.060833,-0.04517,0.042152,-0.039679,0.051606,0.0039435,-0.06128,0.77516,0.031981,-0.043884,0.050044,-0.025178
0.021295,-0.067379,-0.099189,-0.0028752,-0.027304,-0.0011584,0.052863,-0.10246,0.0059908,-0.043613,-0.115,0.039932,-0.066159,-0.047013,0.041063,-0.045999,0.050962,-0.008214,-0.070096,0.83147,0.034256,-0.044421,0.045897,-0.025437
0.021659,-0.061046,-0.094059,-0.0094463,-0.021412,-0.0095071,0.056918,-0.11787,0.011054,-0.038666,-0.12384,0.0064232,-0.070212,-0.047903,0.037782,-0.048135,0.045867,-0.017494,-0.08153,0.87373,0.032015,-0.040531,0.037287,-0.023253
0.015673,-0.0457,-0.089702,-0.015683,-0.020951,-0.010483,0.059523,-0.12268,0.01329,-0.029475,-0.12763,-0.015495,-0.071998,-0.049469,0.031601,-0.048022,0.037028,-0.018188,-0.090448,0.9049,0.026735,-0.034787,0.028001,-0.020311
0.004554,-0.028723,-0.090537,-0.021147,-0.025355,-0.0048942,0.063175,-0.11862,0.012282,-0.022399,-0.12532,-0.025969,-0.071061,-0.052701,0.022019,-0.050033,0.026096,-0.0091065,-0.095205,0.93175,0.021538,-0.031441,0.021322,-0.018665
-0.0061426,-0.018947,-0.095252,-0.027082,-0.030581,0.001129,0.06907,-0.10977,0.010735,-0.020745,-0.11779,-0.030445,-0.068113,-0.056624,0.008673,-0.056713,0.015381,0.0053971,-0.098554,0.95847,0.019005,-0.033796,0.017245,-0.018872
-0.010089,-0.020136,-0.098672,-0.036043,-0.031879,0.0010333,0.075852,-0.10096,0.012143,-0.022019,-0.10779,-0.034897,-0.06498,-0.058812,-0.0083209,-0.066159,0.0074505,0.01773,-0.10487,0.97931,0.019334,-0.042138,0.012535,-0.019747
-0.0053057,-0.02769,-0.097014,-0.049993,-0.02723,-0.006824,0.080445,-0.096543,0.017738,-0.020499,-0.098969,-0.041765,-0.063808,-0.057534,-0.027792,-0.073341,0.0042612,0.021777,-0.11589,0.97671,0.020275,-0.053571,0.0037795,-0.019835
0.0036114,-0.031908,-0.091164,-0.068601,-0.018899,-0.017959,0.080339,-0.099275,0.025106,-0.012387,-0.094006,-0.049164,-0.06605,-0.053653,-0.047485,-0.074186,0.0059298,0.017052,-0.12855,0.92886,0.018917,-0.063766,-0.0090727,-0.019078
0.0084983,-0.025644,-0.08512,-0.089222,-0.011782,-0.025782,0.075585,-0.10961,0.029583,0.0011971,-0.092767,-0.053235,-0.07186,-0.050385,-0.06505,-0.068931,0.010076,0.0091638,-0.13657,0.82383,0.014061,-0.069467,-0.02191,-0.01902
0.0037274,-0.010108,-0.081775,-0.10849,-0.0097127,-0.027327,0.068964,-0.1258,0.027415,0.015676,-0.09217,-0.051375,-0.080119,-0.050876,-0.079484,-0.061976,0.012768,0.0059246,-0.13473,0.67077,0.0074009,-0.070181,-0.029494,-0.021303
-0.0094946,0.0061999,-0.080441,-0.12403,-0.012544,-0.025602,0.06413,-0.14495,0.018414,0.027046,-0.088466,-0.043829,-0.088765,-0.055615,-0.091736,-0.058428,0.010956,0.01175,-0.12246,0.49865,0.0025859,-0.068042,-0.030041,-0.025821
-0.024083,0.014469,-0.078266,-0.13478,-0.016309,-0.026493,0.063081,-0.16441,0.0062269,0.034583,-0.080306,-0.032851,-0.095041,-0.062074,-0.10375,-0.060205,0.0047738,0.024556,-0.10412,0.34149,0.0027257,-0.066045,-0.027368,-0.030371
-0.032355,0.012327,-0.073568,-0.1401,-0.016336,-0.033078,0.064865,-0.18238,-0.0039047,0.040085,-0.069847,-0.020548,-0.095788,-0.067007,-0.11666,-0.064804,-0.0022629,0.037485,-0.085929,0.21895,0.0080594,-0.06586,-0.028447,-0.032311
-0.031278,0.0046927,-0.067452,-0.13872,-0.010831,-0.042581,0.066545,-0.19745,-0.0082553,0.045016,-0.060635,-0.0073884,-0.08831,-0.069371,-0.12969,-0.067597,-0.0056599,0.04399,-0.071989,0.12601,0.015479,-0.066719,-0.038057,-0.030858
-0.023767,-0.00136,-0.06222,-0.12914,-0.0021117,-0.048687,0.065623,-0.20797,-0.006494,0.048667,-0.054025,0.0075004,-0.071897,-0.071173,-0.14089,-0.065632,-0.0033017,0.042218,-0.062192,0.038979,0.020349,-0.066104,-0.054866,-0.027837
-0.015655,-0.0024982,-0.058495,-0.11131,0.00536,-0.047086,0.061925,-0.21222,-0.0012796,0.049104,-0.047596,0.02467,-0.049059,-0.075393,-0.14885,-0.059821,0.0028291,0.03556,-0.053241,-0.066482,0.019483,-0.061694,-0.07222,-0.025963
-0.011362,-0.00055221,-0.054236,-0.087982,0.0084336,-0.039167,0.057469,-0.20932,0.0037535,0.045705,-0.037388,0.042841,-0.025035,-0.082845,-0.15391,-0.053837,0.0079915,0.029586,-0.041691,-0.19826,0.013329,-0.053167,-0.082966,-0.026055
-0.011734,0.00092622,-0.04678,-0.064165,0.0073967,-0.03062,0.05457,-0.19984,0.005978,0.040545,-0.022098,0.058853,-0.0052519,-0.090831,-0.15757,-0.050862,0.0081339,0.028337,-0.026722,-0.34248,0.0059254,-0.042598,-0.084316,-0.025852
-0.015026,0.00074555,-0.035965,-0.044492,0.0052527,-0.026426,0.053993,-0.18531,0.0045175,0.03705,-0.005216,0.069208,0.0077011,-0.094789,-0.16056,-0.050996,0.0028612,0.032682,-0.010788,-0.4714,0.0026217,-0.033286,-0.078954,-0.02184
-0.019268,0.0006767,-0.025189,-0.030363,0.0050417,-0.026982,0.054749,-0.16731,-0.00019689,0.037108,0.0072817,0.072157,0.015107,-0.091472,-0.16141,-0.051477,-0.0042948,0.041114,0.0021219,-0.55738,0.0069513,-0.027927,-0.071988,-0.012649
-0.023638,0.002655,-0.019142,-0.01932,0.0075889,-0.02886,0.055444,-0.14727,-0.0071568,0.03936,0.011822,0.068887,0.020167,-0.081,-0.15676,-0.049335,-0.0084868,0.051324,0.0092267,-0.58384,0.018488,-0.027345,-0.066788,-0.00085701
-0.0281,0.0062553,-0.019981,-0.0074696,0.011434,-0.029114,0.055637,-0.12722,-0.015133,0.040445,0.010211,0.063007,0.024786,-0.066403,-0.14344,-0.044071,-0.0071175,0.061109,0.010699,-0.54963,0.032933,-0.030404,-0.063309,0.0087117
-0.032447,0.0094136,-0.025208,0.0068465,0.014665,-0.02863,0.055797,-0.11027,-0.022825,0.038212,0.0077967,0.058578,0.028107,-0.051511,-0.12067,-0.038065,-0.0017743,0.068678,0.0091801,-0.46788,0.044429,-0.034884,-0.05979,0.012852
-0.036143,0.011428,-0.029136,0.02126,0.016798,-0.031038,0.056063,-0.099249,-0.029302,0.034017,0.0084502,0.057858,0.028212,-0.03913,-0.09097,-0.034476,0.0028213,0.073118,0.0075014,-0.36184,0.048884,-0.038618,-0.055596,0.012517
-0.038966,0.014514,-0.026833,0.031226,0.019005,-0.038235,0.055326,-0.094162,-0.034715,0.03186,0.011108,0.060141,0.025195,-0.03057,-0.059189,-0.034509,0.0020174,0.075034,0.006485,-0.25801,0.04638,-0.040365,-0.052269,0.01169
-0.041326,0.021646,-0.017416,0.034153,0.022647,-0.047232,0.05179,-0.090787,-0.040485,0.034833,0.011183,0.062453,0.022301,-0.026015,-0.030528,-0.036373,-0.0057717,0.076291,0.0047254,-0.17714,0.041087,-0.040135,-0.051965,0.013669
-0.043532,0.032542,-0.0042256,0.032269,0.027593,-0.051993,0.0446,-0.082557,-0.048332,0.041849,0.0054538,0.061661,0.023633,-0.024767,-0.0086607,-0.036677,-0.018355,0.078247,0.00066689,-0.1262,0.038428,-0.038948,-0.055184,0.018223
-0.044752,0.042104,0.0079842,0.031414,0.031886,-0.049036,0.034913,-0.065046,-0.058553,0.047569,-0.0043245,0.056477,0.030414,-0.025223,0.0052375,-0.032991,-0.031567,0.079649,-0.0047692,-0.09703,0.041178,-0.038113,-0.060313,0.022133
-0.043145,0.04363,0.016337,0.036369,0.033068,-0.041462,0.025255,-0.039721,-0.069019,0.045932,-0.012679,0.047712,0.039493,-0.025284,0.012472,-0.025519,-0.041922,0.076481,-0.0075149,-0.074309,0.047248,-0.038456,-0.065459,0.022371
-0.037534,0.034493,0.021049,0.046453,0.029982,-0.037033,0.01768,-0.013783,-0.076095,0.034673,-0.015472,0.036416,0.045772,-0.023592,0.01602,-0.016726,-0.04808,0.064827,-0.0027177,-0.048444,0.051084,-0.040091,-0.070562,0.018813
-0.029201,0.019225,0.024095,0.055359,0.023588,-0.041383,0.012379,0.0041361,-0.077132,0.017349,-0.014039,0.021466,0.04649,-0.020669,0.0192,-0.0094705,-0.050437,0.045025,0.011418,-0.023956,0.047953,-0.043026,-0.077384,0.014088
-0.021775,0.0068373,0.027081,0.055873,0.016296,-0.052412,0.0079055,0.0093712,-0.072641,0.0012632,-0.01451,-0.00092096,0.043415,-0.018604,0.024181,-0.0051573,-0.049878,0.023525,0.031437,-0.016562,0.037894,-0.048036,-0.08718,0.011
-0.018807,0.0042103,0.030397,0.045907,0.010532,-0.061372,0.0026741,0.0038795,-0.066175,-0.0072366,-0.022811,-0.034496,0.040944,-0.019037,0.030948,-0.0031275,-0.047133,0.010122,0.050195,-0.041157,0.026033,-0.056665,-0.098444,0.010076
-0.020888,0.010931,0.034044,0.030779,0.0076749,-0.060253,-0.0037101,-0.0054485,-0.06178,-0.0067307,-0.039658,-0.078648,0.041981,-0.02111,0.037411,-0.0013876,-0.043067,0.011812,0.061377,-0.10033,0.018732,-0.069748,-0.10736,0.0093732
-0.024955,0.019813,0.038692,0.019462,0.0078866,-0.049158,-0.010384,-0.011236,-0.060933,-0.0013047,-0.059685,-0.12601,0.045501,-0.021537,0.040818,0.0020389,-0.038931,0.027539,0.06369,-0.1819,0.018589,-0.085322,-0.11099,0.0064564
-0.02661,0.02259,0.045394,0.017571,0.010493,-0.036958,-0.016266,-0.009561,-0.061533,0.0024684,-0.075132,-0.16474,0.047953,-0.017253,0.039728,0.0079658,-0.035657,0.047965,0.061574,-0.26566,0.022436,-0.097951,-0.1104,0.00061315
-0.023611,0.016039,0.054111,0.022833,0.014356,-0.034323,-0.021136,-0.0009764,-0.059891,-0.00010214,-0.080755,-0.18478,0.046898,-0.0085483,0.035227,0.015572,-0.032658,0.060959,0.061894,-0.33189,0.024056,-0.10087,-0.11037,-0.0064819
-0.017539,0.0037494,0.062773,0.026963,0.018065,-0.044998,-0.025836,0.011417,-0.054099,-0.0090956,-0.076139,-0.18377,0.043258,0.00025941,0.030387,0.02276,-0.027716,0.059236,0.069086,-0.36514,0.019306,-0.09012,-0.11557,-0.011915
-0.012217,-0.0073957,0.06833,0.022452,0.02022,-0.062795,-0.031517,0.02489,-0.045888,-0.020606,-0.064317,-0.1682,0.040121,0.0036184,0.028247,0.027276,-0.018821,0.044827,0.082293,-0.35347,0.0092994,-0.067797,-0.12633,-0.013338
-0.010355,-0.012693,0.069193,0.0085877,0.01996,-0.076811,-0.038604,0.038716,-0.039311,-0.030076,-0.048661,-0.14854,0.039515,-0.0010072,0.029702,0.028176,-0.006748,0.027187,0.09638,-0.28946,-0.0009889,-0.041549,-0.1379,-0.010094
-0.011384,-0.012577,0.066847,-0.0082909,0.017422,-0.080351,-0.046253,0.053571,-0.03732,-0.03585,-0.030821,-0.1321,0.04043,-0.010902,0.032834,0.026704,0.0041723,0.016284,0.10577,-0.17623,-0.0072245,-0.020115,-0.14417,-0.0032037
-0.012269,-0.011233,0.064899,-0.020254,0.013655,-0.076149,-0.052726,0.069695,-0.039212,-0.040373,-0.010866,-0.11895,0.039908,-0.019786,0.034124,0.025719,0.0084753,0.015691,0.10813,-0.033937,-0.0092175,-0.007806,-0.14278,0.0053786
-0.010362,-0.012697,0.066214,-0.024022,0.0099602,-0.073879,-0.056477,0.08574,-0.041157,-0.048264,0.011342,-0.10385,0.035932,-0.022158,0.030636,0.027721,0.0036831,0.020628,0.10526,0.10211,-0.010382,-0.0019883,-0.1369,0.013537
-0.0056577,-0.017872,0.070629,-0.022706,0.007215,-0.082259,-0.057289,0.099555,-0.039333,-0.062793,0.035084,-0.082356,0.029221,-0.016939,0.021719,0.032883,-0.0073264,0.022133,0.10094,0.19581,-0.013942,0.004454,-0.13232,0.01947
-0.00056502,-0.024468,0.075261,-0.022067,0.0057861,-0.10196,-0.056635,0.11026,-0.032905,-0.083437,0.058725,-0.055675,0.022395,-0.0078124,0.0092679,0.038834,-0.018013,0.01398,0.097729,0.22968,-0.019657,0.017496,-0.13221,0.021932
0.0023169,-0.029198,0.077058,-0.025117,0.0059663,-0.12425,-0.056797,0.11963,-0.024346,-0.10612,0.080274,-0.030338,0.01765,-0.00028873,-0.0033746,0.04262,-0.022795,-0.0029548,0.095152,0.21565,-0.024224,0.037506,-0.13432,0.020445
0.0022908,-0.030128,0.075245,-0.02993,0.0082613,-0.13592,-0.059178,0.13114,-0.017046,-0.12559,0.098031,-0.013183,0.015289,0.0021,-0.013117,0.04325,-0.020811,-0.021898,0.09066,0.18801,-0.024834,0.059372,-0.13285,0.015471
0.00081456,-0.027647,0.071627,-0.032089,0.013005,-0.12701,-0.063003,0.14728,-0.012517,-0.13779,0.11108,-0.0061085,0.014268,-0.00014984,-0.018513,0.042484,-0.015739,-0.035581,0.082293,0.18239,-0.022276,0.076946,-0.12318,0.0083954
4.6485e-005,-0.023983,0.068718,-0.028845,0.019622,-0.096907,-0.065608,0.16718,-0.009637,-0.14073,0.1196,-0.0050978,0.013707,-0.0032304,-0.020244,0.04301,-0.012085,-0.041427,0.070911,0.21486,-0.020399,0.088062,-0.10531,0.001182
0.0011813,-0.022009,0.067568,-0.020853,0.026426,-0.05538,-0.06436,0.18664,-0.0062945,-0.13392,0.12471,-0.0040761,0.013557,-0.0025811,-0.020481,0.045652,-0.011407,-0.042704,0.060208,0.27474,-0.022355,0.095966,-0.083582,-0.0042327
0.0038809,-0.023951,0.067092,-0.010158,0.031415,-0.018063,-0.058905,0.20019,-0.001592,-0.11788,0.12759,6.5022e-005,0.013821,0.0044578,-0.021429,0.048306,-0.011744,-0.045173,0.054441,0.33433,-0.027333,0.10606,-0.063533,-0.0065464
0.0068787,-0.030248,0.065205,0.0030371,0.033472,0.0017772,-0.051895,0.20341,0.0034873,-0.09439,0.1284,0.0057391,0.013519,0.01722,-0.023892,0.047729,-0.010369,-0.052168,0.055476,0.36718,-0.031088,0.12078,-0.048984,-0.00548
0.0089418,-0.038979,0.060577,0.021055,0.032869,0.00078452,-0.047403,0.19367,0.0073447,-0.067094,0.12592,0.0094253,0.010908,0.031945,-0.026812,0.042603,-0.0069063,-0.061837,0.061299,0.36214,-0.029886,0.13691,-0.041306,-0.0018696
0.0094674,-0.046433,0.053611,0.045731,0.030603,-0.01243,-0.048085,0.1698,0.0094782,-0.040927,0.1187,0.0098778,0.0051051,0.04342,-0.028177,0.034985,-0.003742,-0.068444,0.067102,0.32537,-0.024104,0.14742,-0.040268,0.0025264
0.008613,-0.049018,0.046163,0.074381,0.027304,-0.022847,-0.053238,0.13231,0.010917,-0.020148,0.10677,0.0095136,-0.0023967,0.04737,-0.02669,0.028716,-0.0034628,-0.066593,0.068325,0.2715,-0.017989,0.14624,-0.044706,0.0055405
0.0071842,-0.045607,0.040393,0.09891,0.022865,-0.019213,-0.059325,0.084451,0.013098,-0.0062238,0.092311,0.011609,-0.0080322,0.042596,-0.022969,0.026215,-0.0059785,-0.055298,0.063562,0.21179,-0.015816,0.13215,-0.052302,0.0054625
0.006364,-0.038647,0.037538,0.10982,0.017205,-0.0018162,-0.062528,0.032706,0.016444,0.0026624,0.07833,0.016158,-0.0084805,0.031695,-0.019322,0.026546,-0.0082571,-0.039034,0.055282,0.14718,-0.018135,0.10918,-0.059488,0.0020325
0.0072149,-0.032911,0.037184,0.1025,0.011289,0.018162,-0.061289,-0.015224,0.020036,0.0099307,0.066249,0.018727,-0.0032937,0.019753,-0.018263,0.026449,-0.0070365,-0.025071,0.047792,0.069838,-0.021662,0.083972,-0.062621,-0.0030499
0.010088,-0.032449,0.037401,0.080827,0.0071679,0.027554,-0.056863,-0.054515,0.022522,0.018066,0.054867,0.013832,0.0043841,0.011554,-0.020857,0.023321,-0.001998,-0.019001,0.043846,-0.029279,-0.022777,0.062801,-0.060002,-0.0067424
0.01438,-0.037816,0.035812,0.054772,0.0066629,0.021538,-0.051724,-0.08611,0.023206,0.027143,0.041959,3.2858e-006,0.0098271,0.0089897,-0.026022,0.017481,0.0036059,-0.021594,0.042404,-0.15214,-0.021175,0.050371,-0.052902,-0.0064062
0.018941,-0.045649,0.0312,0.033755,0.0097084,0.0072127,-0.047454,-0.11533,0.022288,0.03528,0.027173,-0.018164,0.010077,0.01039,-0.031189,0.011857,0.0055703,-0.029134,0.039287,-0.28938,-0.020185,0.050069,-0.04434,-0.0017244
0.022874,-0.050987,0.024651,0.020831,0.013843,-0.002285,-0.044015,-0.14672,0.020278,0.040199,0.013288,-0.033077,0.0060413,0.012191,-0.033735,0.0095636,0.002378,-0.036681,0.03045,-0.42188,-0.023573,0.063935,-0.036437,0.0045896
0.025981,-0.050694,0.019223,0.012312,0.015549,0.0019781,-0.040767,-0.17939,0.017487,0.040428,0.0041711,-0.039825,0.0016206,0.011698,-0.032253,0.011489,-0.0032748,-0.041545,0.015533,-0.52718,-0.0319,0.091182,-0.028695,0.0080061
0.028415,-0.045478,0.018007,0.0026632,0.012629,0.018519,-0.037828,-0.20718,0.014207,0.035411,0.0010419,-0.039599,0.00048951,0.0089706,-0.026948,0.015764,-0.0063702,-0.044201,-0.0010457,-0.58758,-0.041727,0.12633,-0.018791,0.0046603
0.029944,-0.039133,0.021803,-0.0098803,0.0058768,0.037798,-0.036212,-0.22365,0.011221,0.025073,0.00066199,-0.038062,0.0030762,0.0066008,-0.019121,0.019214,-0.0033134,-0.046288,-0.01257,-0.59704,-0.048153,0.15938,-0.005183,-0.0065062
0.029776,-0.035677,0.02826,-0.021905,-0.001291,0.050349,-0.036652,-0.22751,0.0097553,0.0097951,-0.0024092,-0.04032,0.0062153,0.0077719,-0.010201,0.019438,0.0054634,-0.047942,-0.014516,-0.56418,-0.048297,0.1793,0.010888,-0.023293
0.027384,-0.036584,0.03336,-0.02849,-0.0051115,0.053502,-0.038578,-0.22364,0.010579,-0.0089368,-0.011135,-0.046928,0.0058058,0.014104,-0.00097624,0.015958,0.015928,-0.047296,-0.0078295,-0.50986,-0.042879,0.17951,0.02587,-0.041586
0.023581,-0.040052,0.034241,-0.028275,-0.0040816,0.051645,-0.040633,-0.21909,0.013023,-0.027959,-0.023115,-0.054062,0.00031799,0.024661,0.0085363,0.0099267,0.023271,-0.04279,0.0015234,-0.45957,-0.035141,0.16149,0.036525,-0.057426
0.020561,-0.042624,0.031086,-0.025201,-1.997e-006,0.050932,-0.042302,-0.21777,0.015097,-0.042848,-0.032372,-0.057059,-0.0077618,0.036447,0.018592,0.0029724,0.024748,-0.036048,0.0064034,-0.43324,-0.028573,0.13381,0.042478,-0.068468
0.020409,-0.041791,0.026535,-0.025517,0.0033121,0.053831,-0.044777,-0.2187,0.014946,-0.04949,-0.034533,-0.053832,-0.01377,0.045778,0.028997,-0.0038097,0.020525,-0.032191,0.0027819,-0.43694,-0.025314,0.10661,0.046602,-0.074206
0.023223,-0.037682,0.023169,-0.032905,0.0026838,0.058071,-0.049736,-0.21844,0.012544,-0.045901,-0.030864,-0.045397,-0.014463,0.049681,0.038756,-0.010165,0.012481,-0.036705,-0.0087598,-0.46073,-0.025846,0.085345,0.05296,-0.075273
0.026661,-0.032834,0.021316,-0.046003,-0.0024002,0.059944,-0.056943,-0.21465,0.010053,-0.03313,-0.027477,-0.033901,-0.010382,0.046928,0.046432,-0.016378,0.0025565,-0.051259,-0.025032,-0.48396,-0.029396,0.068189,0.063931,-0.072616
0.027639,-0.030388,0.019086,-0.060128,-0.0098296,0.058017,-0.063164,-0.20703,0.010312,-0.014704,-0.030262,-0.020814,-0.0050846,0.038635,0.051063,-0.022791,-0.0078406,-0.072108,-0.043419,-0.48536,-0.034339,0.049093,0.078586,-0.067131
0.024865,-0.032069,0.014404,-0.071262,-0.016723,0.053445,-0.064023,-0.19534,0.014613,0.0048816,-0.039932,-0.007201,-0.0020593,0.028223,0.052979,-0.029477,-0.017349,-0.092515,-0.063151,-0.45274,-0.038655,0.024248,0.093235,-0.059772
0.019985,-0.037246,0.0070351,-0.078745,-0.021439,0.046856,-0.057647,-0.17765,0.021629,0.021592,-0.051534,0.0046639,-0.0020416,0.020311,0.053868,-0.036085,-0.024292,-0.10713,-0.083754,-0.38778,-0.040659,-0.0030712,0.1035,-0.051729
0.016262,-0.043564,-0.0012982,-0.084743,-0.02418,0.03534,-0.046963,-0.15164,0.028418,0.032504,-0.05881,0.0108,-0.0029611,0.018474,0.055897,-0.041822,-0.027324,-0.11469,-0.10278,-0.3049,-0.039769,-0.023249,0.1065,-0.044269
0.015923,-0.048517,-0.0085888,-0.09152,-0.026087,0.013091,-0.038348,-0.11788,0.032602,0.035796,-0.059545,0.0074771,-0.0023017,0.022874,0.060398,-0.045613,-0.026528,-0.11714,-0.11573,-0.22583,-0.036594,-0.026554,0.1021,-0.038228
0.018449,-0.050799,-0.014181,-0.099236,-0.028059,-0.024166,-0.0374,-0.081509,0.033843,0.030776,-0.057258,-0.0057785,0.00045269,0.02959,0.067009,-0.046558,-0.023604,-0.1167,-0.11885,-0.17287,-0.032085,-0.0105,0.092869,-0.033564
0.021136,-0.050527,-0.018725,-0.10609,-0.030569,-0.074534,-0.045122,-0.049777,0.033499,0.018382,-0.057971,-0.02505,0.0035188,0.032796,0.073876,-0.044596,-0.020634,-0.11387,-0.11244,-0.16247,-0.026471,0.017087,0.082895,-0.029444
0.02126,-0.048406,-0.022699,-0.11035,-0.034389,-0.12913,-0.057465,-0.027117,0.033036,0.0017811,-0.065083,-0.044193,0.0047574,0.028883,0.078817,-0.040948,-0.018556,-0.108,-0.10154,-0.20038,-0.01911,0.041745,0.076035,-0.024928
0.017996,-0.044782,-0.025317,-0.11234,-0.040935,-0.17605,-0.068436,-0.012253,0.032782,-0.01392,-0.076846,-0.058679,0.0038462,0.019597,0.080688,-0.037837,-0.016982,-0.099379,-0.092864,-0.27968,-0.0095449,0.050397,0.074169,-0.019753
0.012748,-0.039538,-0.025206,-0.11459,-0.051226,-0.206,-0.074146,-9.072e-006,0.032028,-0.023494,-0.088322,-0.067841,0.0025615,0.011423,0.080104,-0.037369,-0.015618,-0.090542,-0.090506,-0.38336,0.0012113,0.038294,0.076382,-0.014545
0.0080255,-0.032907,-0.022245,-0.12031,-0.064013,-0.2155,-0.074783,0.01395,0.030054,-0.024344,-0.095643,-0.073747,0.0029835,0.011086,0.079106,-0.04017,-0.015665,-0.085352,-0.093594,-0.49145,0.010553,0.010503,0.079661,-0.010242
0.0058996,-0.026259,-0.018528,-0.13137,-0.075025,-0.20579,-0.073462,0.029961,0.026818,-0.018433,-0.098675,-0.078124,0.0055008,0.020292,0.080031,-0.044777,-0.019339,-0.086747,-0.09765,-0.58942,0.015747,-0.022353,0.080852,-0.0072176
0.007018,-0.021822,-0.017088,-0.14764,-0.078811,-0.17949,-0.073362,0.045503,0.022703,-0.011689,-0.10005,-0.08045,0.0086377,0.033897,0.084269,-0.048407,-0.027565,-0.094824,-0.098161,-0.6726,0.015935,-0.050543,0.078709,-0.0049066
0.010472,-0.021305,-0.019269,-0.1678,-0.072498,-0.13873,-0.075481,0.058882,0.017882,-0.0107,-0.10204,-0.078961,0.010832,0.043255,0.091551,-0.04875,-0.038026,-0.10649,-0.093375,-0.74328,0.012978,-0.069506,0.074603,-0.0023203
0.01438,-0.024595,-0.023211,-0.19083,-0.058677,-0.086117,-0.078319,0.071267,0.012318,-0.018657,-0.10441,-0.073243,0.012257,0.042393,0.10008,-0.04555,-0.045782,-0.11674,-0.084487,-0.80235,0.010341,-0.079941,0.07136,0.00097516
0.016894,-0.029754,-0.025121,-0.21664,-0.04468,-0.027206,-0.07918,0.084823,0.0065433,-0.033328,-0.10511,-0.065489,0.014711,0.032278,0.10736,-0.04072,-0.046381,-0.12085,-0.073842,-0.84177,0.010777,-0.085003,0.071017,0.0042778
0.01722,-0.034388,-0.022514,-0.24501,-0.038006,0.028995,-0.075907,0.098953,0.0022271,-0.048643,-0.10246,-0.058911,0.019606,0.019771,0.11133,-0.036804,-0.038958,-0.11662,-0.063224,-0.84417,0.014575,-0.08745,0.073187,0.0060927
0.016074,-0.037141,-0.016641,-0.27353,-0.040945,0.07268,-0.068102,0.10876,0.0014892,-0.058809,-0.096541,-0.05475,0.026172,0.012149,0.11122,-0.03493,-0.026703,-0.1055,-0.053595,-0.79059,0.01971,-0.088709,0.075249,0.0051246
0.015155,-0.037976,-0.011881,-0.29639,-0.048603,0.09748,-0.057474,0.10775,0.0051809,-0.061931,-0.088421,-0.0509,0.031892,0.01161,0.10779,-0.033924,-0.0144,-0.09194,-0.045809,-0.67159,0.023647,-0.089593,0.074249,0.0011455
0.015868,-0.037202,-0.012407,-0.30539,-0.052274,0.10306,-0.047205,0.092576,0.011656,-0.060508,-0.07847,-0.043705,0.034931,0.014161,0.10268,-0.03141,-0.0052878,-0.080623,-0.040808,-0.49428,0.025252,-0.090996,0.069102,-0.0048363
0.018238,-0.034522,-0.018868,-0.29323,-0.045905,0.094484,-0.040331,0.065815,0.017427,-0.058706,-0.065906,-0.031525,0.036122,0.01363,0.097257,-0.026075,0.00019005,-0.073366,-0.038685,-0.28104,0.025202,-0.093296,0.061446,-0.011059
0.020923,-0.029283,-0.027826,-0.25733,-0.030618,0.079495,-0.037681,0.034537,0.019466,-0.058829,-0.050196,-0.0169,0.038334,0.0072969,0.091723,-0.019153,0.0031818,-0.067873,-0.037675,-0.061178,0.024735,-0.094974,0.054567,-0.015699
0.022344,-0.021741,-0.034381,-0.20186,-0.013536,0.066269,-0.036725,0.0063726,0.017308,-0.059865,-0.032722,-0.00529,0.04359,-0.0016032,0.085226,-0.013707,0.0045051,-0.059777,-0.034646,0.13882,0.024089,-0.092319,0.051233,-0.017426
0.021941,-0.013877,-0.035789,-0.13665,-0.001802,0.062709,-0.032708,-0.013462,0.013201,-0.059047,-0.01659,-0.001281,0.050726,-0.0065641,0.07709,-0.012091,0.0040856,-0.046676,-0.027245,0.30129,0.022266,-0.081601,0.052099,-0.015744
0.020429,-0.0085772,-0.033188,-0.073272,0.003249,0.076046,-0.021989,-0.022248,0.010267,-0.054762,-0.0043165,-0.0053133,0.056018,-0.0032732,0.068174,-0.013656,0.0021149,-0.030846,-0.015862,0.41774,0.018412,-0.062799,0.055759,-0.011121
0.018913,-0.0075437,-0.030335,-0.020586,0.0067935,0.11079,-0.0053254,-0.01814,0.010342,-0.048142,0.0044557,-0.013523,0.0564,0.0068277,0.060941,-0.014742,0.00033397,-0.018017,-0.00332,0.48575,0.013354,-0.041785,0.060158,-0.0047644
0.01778,-0.0096696,-0.030677,0.018165,0.015546,0.1651,0.011796,0.00052966,0.013223,-0.041978,0.012689,-0.020703,0.052293,0.017811,0.057698,-0.011151,0.0016605,-0.012752,0.0077257,0.5063,0.0095277,-0.028161,0.06404,0.0020376
0.01646,-0.011436,-0.035176,0.045274,0.031437,0.22831,0.022772,0.033823,0.017521,-0.038031,0.02292,-0.023891,0.047385,0.024043,0.058299,-0.0012249,0.008094,-0.014132,0.017276,0.48367,0.0090823,-0.029139,0.067261,0.0086732
0.014194,-0.0092952,-0.042231,0.065887,0.049393,0.28314,0.024984,0.078078,0.021846,-0.03523,0.034162,-0.023705,0.045565,0.024212,0.059525,0.012944,0.018737,-0.015503,0.027811,0.42763,0.011859,-0.043747,0.070007,0.015425
0.010919,-0.0023297,-0.049174,0.084427,0.061084,0.31284,0.022207,0.12559,0.025168,-0.030488,0.041945,-0.022523,0.047897,0.021295,0.057284,0.027066,0.029945,-0.0089066,0.041457,0.35505,0.015292,-0.062412,0.071989,0.022771
0.0073496,0.0069026,-0.053848,0.10219,0.061349,0.30949,0.021979,0.16716,0.02649,-0.021543,0.041965,-0.021249,0.052269,0.019026,0.050131,0.037605,0.037825,0.00908,0.057284,0.28806,0.016445,-0.073171,0.072538,0.030244
0.0042525,0.01411,-0.055311,0.11741,0.051982,0.27783,0.029779,0.19602,0.024872,-0.0093349,0.034287,-0.017577,0.055694,0.018518,0.040978,0.043755,0.041115,0.034596,0.071538,0.24796,0.014263,-0.070016,0.071399,0.035927
0.001824,0.01642,-0.053809,0.12741,0.039987,0.23167,0.044759,0.21039,0.020273,0.0023184,0.024089,-0.0073781,0.05681,0.018193,0.035068,0.047103,0.042012,0.058968,0.080679,0.2469,0.0098598,-0.056452,0.069132,0.037353
-0.00011158,0.014598,-0.050579,0.13118,0.032108,0.18524,0.060629,0.21319,0.014364,0.0097227,0.017862,0.011785,0.056318,0.016618,0.035607,0.049683,0.044121,0.074486,0.08419,0.28201,0.004737,-0.041037,0.066457,0.033388
-0.0013553,0.012609,-0.047612,0.13059,0.030236,0.14597,0.070922,0.20949,0.010027,0.012516,0.018202,0.037867,0.055463,0.014874,0.040871,0.052244,0.049178,0.079184,0.084271,0.336,-0.00097258,-0.028791,0.063174,0.025639
-0.0010703,0.014763,-0.046998,0.12933,0.031124,0.11327,0.074157,0.20392,0.0094035,0.014204,0.021873,0.064545,0.054527,0.015719,0.045602,0.053926,0.055258,0.077321,0.082765,0.38468,-0.0081895,-0.016409,0.058009,0.01807
0.0013984,0.022558,-0.049765,0.13055,0.030122,0.083341,0.074523,0.19952,0.01202,0.019331,0.023032,0.084322,0.052876,0.020294,0.045639,0.05308,0.05801,0.07559,0.078593,0.40762,-0.016791,0.0040543,0.049924,0.014767
0.0052639,0.033592,-0.054918,0.13496,0.025549,0.054749,0.07773,0.1981,0.014782,0.029561,0.018828,0.092256,0.050133,0.025993,0.041687,0.048105,0.053993,0.078112,0.068641,0.39576,-0.024181,0.036237,0.03976,0.017309
0.007989,0.043268,-0.059701,0.14055,0.020122,0.029945,0.085785,0.20089,0.01418,0.042031,0.012356,0.08781,0.046858,0.028136,0.038689,0.037736,0.043534,0.083858,0.051536,0.35248,-0.026502,0.073799,0.030453,0.023623
0.0066564,0.047858,-0.061322,0.14414,0.018469,0.01196,0.095245,0.20857,0.0090436,0.051471,0.010252,0.074048,0.043883,0.024227,0.041283,0.02128,0.03088,0.088093,0.030674,0.28906,-0.02177,0.10384,0.025206,0.029243
0.0001712,0.046568,-0.059006,0.14338,0.022892,0.00038841,0.10023,0.2208,0.0016247,0.054307,0.016981,0.055402,0.041228,0.016644,0.049452,-0.00048644,0.021564,0.086423,0.013288,0.21872,-0.012035,0.11684,0.025056,0.030205
-0.0095381,0.041299,-0.054683,0.13792,0.030861,-0.0088469,0.097346,0.23596,-0.003898,0.051293,0.030806,0.035808,0.038072,0.010806,0.058334,-0.024006,0.018891,0.078276,0.0059026,0.15283,-0.0024522,0.11431,0.027989,0.025669
-0.018499,0.034783,-0.051494,0.12908,0.036381,-0.01943,0.088154,0.25167,-0.0043265,0.046585,0.044917,0.018052,0.034027,0.010211,0.062373,-0.042675,0.021998,0.067219,0.0098336,0.099213,0.0019876,0.10707,0.030472,0.018495
-0.023244,0.028885,-0.05119,0.11853,0.034296,-0.03034,0.077299,0.26546,0.00038349,0.044296,0.052754,0.0037558,0.030298,0.013035,0.060024,-0.048939,0.026619,0.058053,0.020363,0.060903,-0.0007367,0.10569,0.030048,0.013338
-0.022973,0.024281,-0.052543,0.10718,0.024209,-0.035897,0.068316,0.27512,0.007135,0.045564,0.053114,-0.0068418,0.029184,0.013756,0.054772,-0.03832,0.027762,0.053056,0.030032,0.034772,-0.0093699,0.1116,0.026846,0.013436
-0.019737,0.021173,-0.052226,0.095138,0.010903,-0.030702,0.061008,0.27822,0.011712,0.048403,0.050931,-0.015466,0.031994,0.0086226,0.051689,-0.012884,0.022376,0.050323,0.033188,0.01195,-0.021043,0.11665,0.022958,0.018186
-0.016676,0.019899,-0.04753,0.082811,0.00088444,-0.015155,0.052597,0.27176,0.011383,0.049968,0.05329,-0.02589,0.037256,-2.2424e-005,0.052767,0.018683,0.010418,0.045442,0.028413,-0.018093,-0.032853,0.11124,0.020604,0.023227
-0.015881,0.020801,-0.038644,0.071888,-0.0021989,0.0036364,0.041253,0.25299,0.0064868,0.048994,0.063987,-0.042641,0.041102,-0.004763,0.055257,0.045193,-0.005891,0.035067,0.017637,-0.061152,-0.042236,0.093225,0.020745,0.023136
-0.017482,0.023789,-0.028512,0.065076,0.00038771,0.016693,0.028491,0.22131,0.00010535,0.046474,0.080854,-0.068441,0.039865,0.0010256,0.054355,0.058964,-0.023583,0.019603,0.0034886,-0.11412,-0.046929,0.06991,0.022962,0.015005
-0.020351,0.028387,-0.020381,0.06431,0.0043447,0.019691,0.018141,0.18011,-0.0039417,0.044528,0.097735,-0.10174,0.032875,0.01735,0.04763,0.05975,-0.039999,0.0030492,-0.012766,-0.16682,-0.045782,0.051613,0.026093,0.00040373
-0.023415,0.034273,-0.015146,0.06876,0.0062187,0.015601,0.012812,0.13653,-0.0036096,0.044886,0.10929,-0.13613,0.023149,0.036798,0.0372,0.053888,-0.05298,-0.0095734,-0.031445,-0.20871,-0.040146,0.043219,0.028778,-0.0157
-0.026323,0.041555,-0.010866,0.074521,0.0058092,0.011438,0.011149,0.098432,-5.6419e-005,0.048275,0.11481,-0.16248,0.015349,0.049547,0.027884,0.049327,-0.060803,-0.015086,-0.053266,-0.23531,-0.034025,0.041487,0.029704,-0.028252
-0.029073,0.050172,-0.0048608,0.076775,0.00527,0.012292,0.0084991,0.070259,0.0030967,0.054706,0.11815,-0.17303,0.012584,0.050217,0.023179,0.050179,-0.062637,-0.013335,-0.077873,-0.24917,-0.031879,0.04031,0.028026,-0.03513
-0.031263,0.058888,0.003535,0.073107,0.0062396,0.017878,0.00064953,0.050744,0.0023832,0.06379,0.12413,-0.16524,0.014448,0.04124,0.022635,0.054624,-0.059439,-0.0064478,-0.10294,-0.25565,-0.035377,0.038689,0.024075,-0.037702
-0.031972,0.065096,0.012122,0.065301,0.0080085,0.024037,-0.012411,0.034654,-0.002769,0.074471,0.13453,-0.14312,0.017607,0.030433,0.022681,0.057364,-0.054189,0.0025399,-0.12422,-0.25806,-0.041973,0.043602,0.019757,-0.038922
-0.030494,0.066118,0.01772,0.057916,0.0084331,0.027036,-0.025833,0.017522,-0.0093059,0.084469,0.14672,-0.11527,0.018319,0.024986,0.01986,0.054381,-0.050485,0.010389,-0.13655,-0.25707,-0.046893,0.064465,0.017846,-0.040923
-0.02722,0.061231,0.019051,0.054615,0.0064425,0.026427,-0.033017,-0.00035168,-0.01264,0.090369,0.15602,-0.090854,0.014961,0.026533,0.013567,0.046204,-0.04998,0.01372,-0.13586,-0.25421,-0.046975,0.10344,0.020314,-0.044154
-0.023683,0.052748,0.017889,0.055329,0.0034325,0.024355,-0.030176,-0.014091,-0.010167,0.088874,0.15921,-0.075674,0.0089004,0.030707,0.0061531,0.03735,-0.050722,0.009563,-0.12137,-0.25537,-0.042968,0.14995,0.026897,-0.048256
-0.021513,0.045033,0.017363,0.056744,0.0020386,0.022949,-0.018929,-0.01877,-0.003464,0.078797,0.15658,-0.070669,0.0032976,0.031019,0.00067114,0.032721,-0.048315,-0.0028563,-0.096689,-0.26983,-0.038289,0.18469,0.035163,-0.053133
-0.021137,0.041944,0.018993,0.055654,0.0034578,0.022951,-0.0050773,-0.014551,0.0027261,0.062557,0.15083,-0.073035,0.00081686,0.023916,-0.0016528,0.03401,-0.039537,-0.020084,-0.068791,-0.30495,-0.035531,0.1908,0.042113,-0.058736
-0.021388,0.044456,0.021222,0.051999,0.0059892,0.024765,0.0053832,-0.0079005,0.0040964,0.04588,0.14465,-0.078777,0.0017992,0.011399,-0.0022899,0.038855,-0.025544,-0.034388,-0.04481,-0.36082,-0.033991,0.16383,0.046032,-0.063818
-0.020449,0.050123,0.020781,0.048708,0.0063643,0.030031,0.0099592,-0.0074956,0.00014959,0.035319,0.13901,-0.084789,0.0040647,-0.00043569,-0.0042442,0.043065,-0.01158,-0.037135,-0.02835,-0.42906,-0.030326,0.11316,0.047155,-0.065352
-0.017348,0.054683,0.015502,0.048571,0.0028108,0.041093,0.01043,-0.017953,-0.0054111,0.0346,0.13362,-0.089409,0.0044355,-0.0057117,-0.0099628,0.043865,-0.0029981,-0.02426,-0.017614,-0.49614,-0.021517,0.054179,0.046819,-0.059841
-0.012706,0.054718,0.0060107,0.051405,-0.0028918,0.058178,0.010423,-0.036431,-0.0076529,0.042009,0.12826,-0.091715,0.00095286,-0.0028831,-0.019777,0.041588,-0.00086949,1.528e-005,-0.0068325,-0.54797,-0.0073551,-0.0022448,0.046115,-0.045842
-0.0081564,0.049689,-0.005012,0.054569,-0.0063347,0.077069,0.011972,-0.054735,-0.0043693,0.050917,0.12349,-0.090661,-0.0057295,0.0041876,-0.031698,0.038804,-0.001182,0.024768,0.0095567,-0.57218,0.009537,-0.054726,0.04525,-0.025575
-0.0050553,0.042178,-0.01486,0.05649,-0.0038151,0.090341,0.01389,-0.065057,0.0021965,0.053774,0.12016,-0.084921,-0.012774,0.0089053,-0.042545,0.037988,0.001511,0.039136,0.032507,-0.55772,0.0258,-0.10799,0.043918,-0.0040913
-0.0036665,0.036202,-0.022065,0.059575,0.004565,0.092119,0.013153,-0.064734,0.0072663,0.047294,0.11838,-0.073447,-0.017136,0.0064984,-0.049818,0.039754,0.0092665,0.039732,0.056821,-0.49463,0.039505,-0.16527,0.041937,0.013493
-0.0033914,0.034579,-0.026058,0.069154,0.014575,0.082766,0.0079945,-0.056789,0.0075045,0.035054,0.11724,-0.056082,-0.017674,-0.0027428,-0.053376,0.042864,0.019172,0.0329,0.073969,-0.37681,0.05066,-0.22348,0.039316,0.024603
-0.0035495,0.03693,-0.026297,0.088855,0.020657,0.069369,3.5377e-005,-0.046685,0.0037921,0.025106,0.11537,-0.033639,-0.015873,-0.013789,-0.055852,0.045604,0.026319,0.029567,0.077768,-0.20735,0.059998,-0.27497,0.035767,0.029856
-0.0038078,0.039748,-0.02231,0.11644,0.01974,0.061212,-0.0064428,-0.038497,0.00051014,0.023901,0.11172,-0.0074127,-0.014726,-0.020426,-0.061156,0.047093,0.028309,0.036468,0.068995,-0.0024616,0.06741,-0.31324,0.0305,0.03171
-0.0039725,0.038735,-0.014717,0.14403,0.013209,0.063629,-0.007563,-0.033341,0.0019051,0.031082,0.10587,0.021374,-0.016713,-0.019418,-0.071648,0.047423,0.026963,0.050778,0.055298,0.20977,0.071472,-0.33685,0.022893,0.032575
-0.0036794,0.032007,-0.0058407,0.16264,0.0056299,0.075022,-0.00282,-0.030403,0.0085127,0.039537,0.098025,0.051719,-0.022372,-0.012386,-0.085884,0.046756,0.025939,0.062646,0.046082,0.3969,0.070487,-0.34838,0.013579,0.033867
-0.0025831,0.021802,0.0012525,0.16733,0.001324,0.089032,0.0044192,-0.02885,0.016591,0.041024,0.088982,0.082562,-0.030358,-0.004334,-0.099007,0.044423,0.027023,0.063561,0.04611,0.53281,0.064185,-0.35009,0.0047583,0.036205
-0.00089053,0.013153,0.0048025,0.1587,0.0014575,0.099555,0.0092182,-0.028809,0.021066,0.032957,0.080058,0.11253,-0.038638,-0.00017958,-0.10606,0.039062,0.028945,0.053502,0.05287,0.60628,0.054648,-0.34124,-0.00096647,0.039865
0.00053513,0.010253,0.0057084,0.14052,0.0037357,0.10423,0.0082753,-0.030944,0.019585,0.020598,0.072646,0.14013,-0.045788,-0.0017832,-0.10593,0.029788,0.029602,0.040906,0.05979,0.62375,0.045536,-0.3198,-0.0024314,0.044634
0.00091622,0.013245,0.0068649,0.11617,0.0046928,0.10393,0.0015735,-0.035364,0.014375,0.012597,0.067459,0.1644,-0.051497,-0.0072422,-0.10253,0.017445,0.028949,0.035679,0.062458,0.6051,0.039898,-0.28664,-0.00080363,0.04926
0.00054085,0.018088,0.010932,0.087624,0.0025839,0.099584,-0.008455,-0.040825,0.010387,0.013539,0.064078,0.18536,-0.056193,-0.012483,-0.10189,0.0047481,0.029342,0.041302,0.062368,0.57517,0.038003,-0.24742,0.0014256,0.05147
0.00085025,0.01974,0.018325,0.056909,-0.0014155,0.090003,-0.019059,-0.044679,0.011303,0.019896,0.061416,0.20391,-0.060301,-0.013818,-0.10729,-0.0049992,0.033108,0.052589,0.064927,0.55463,0.036826,-0.20956,0.002517,0.049167
0.0032299,0.016142,0.026923,0.027803,-0.0044801,0.072829,-0.028592,-0.043554,0.016722,0.02303,0.058798,0.22081,-0.063718,-0.009898,-0.11653,-0.009784,0.040168,0.060587,0.073666,0.55437,0.03175,-0.17615,0.0027238,0.042153
0.0074747,0.0097306,0.03355,0.0050723,-0.004614,0.047744,-0.036334,-0.034583,0.022726,0.016739,0.056615,0.2357,-0.065825,-0.0021845,-0.12394,-0.0099869,0.048303,0.060103,0.08608,0.575,0.019471,-0.14269,0.003567,0.032925
0.011488,0.005307,0.036002,-0.0083324,-0.0022064,0.018715,-0.041572,-0.016854,0.02516,0.0028331,0.055795,0.24667,-0.065948,0.0059973,-0.12542,-0.0079113,0.055513,0.053566,0.095054,0.61082,0.00020608,-0.10059,0.0059392,0.025582
0.012803,0.0061129,0.034252,-0.013457,0.00052787,-0.0069295,-0.043412,0.0075223,0.022747,-0.010151,0.056542,0.25097,-0.063943,0.011126,-0.12191,-0.0061519,0.061572,0.048437,0.094708,0.65534,-0.022193,-0.045818,0.0089794,0.023473
0.01076,0.011431,0.030258,-0.014634,0.0015596,-0.021942,-0.041742,0.033492,0.01752,-0.014014,0.05767,0.24634,-0.060525,0.011013,-0.11842,-0.0060484,0.066941,0.050832,0.085382,0.70502,-0.042061,0.013827,0.010832,0.027352
0.0073352,0.017539,0.026729,-0.016387,0.00071705,-0.022498,-0.038207,0.054717,0.012545,-0.007626,0.05736,0.23227,-0.057057,0.0056174,-0.11931,-0.0072625,0.070544,0.06079,0.073268,0.75955,-0.054361,0.059336,0.010438,0.035445
0.0056289,0.020921,0.025648,-0.020619,-0.00027932,-0.009351,-0.035835,0.066336,0.0092383,0.0023747,0.054725,0.2105,-0.054911,-0.00301,-0.12444,-0.0085214,0.069503,0.072706,0.065014,0.81916,-0.056426,0.070106,0.0084533,0.04516
0.0071334,0.020822,0.027352,-0.026301,0.00078292,0.013125,-0.037287,0.067471,0.0066891,0.0072743,0.050671,0.18444,-0.054801,-0.011499,-0.12957,-0.0087311,0.061877,0.079979,0.062182,0.88139,-0.048606,0.036723,0.0063421,0.054834
0.010174,0.019105,0.030607,-0.031403,0.0050454,0.038485,-0.043315,0.061846,0.0033779,0.0032169,0.047146,0.15799,-0.056544,-0.016442,-0.13052,-0.0076476,0.049731,0.079788,0.060455,0.93946,-0.03413,-0.031698,0.0046734,0.064008
0.011073,0.017933,0.033574,-0.034902,0.011932,0.059397,-0.053021,0.05582,-0.00058923,-0.0064622,0.045376,0.13411,-0.059341,-0.015905,-0.12721,-0.0059113,0.038832,0.074381,0.05415,0.98338,-0.018421,-0.1107,0.0025065,0.072277
0.0072537,0.01763,0.03506,-0.037092,0.019527,0.068916,-0.06573,0.054688,-0.003011,-0.0149,0.04469,0.114,-0.062273,-0.010591,-0.12382,-0.0047422,0.034369,0.068564,0.04181,1.0031,-0.007639,-0.17211,-0.0014163,0.078138
-0.00030062,0.016708,0.035233,-0.038403,0.025426,0.06266,-0.082439,0.059456,-0.0014214,-0.017465,0.042957,0.097136,-0.064613,-0.0038161,-0.12516,-0.0055353,0.036389,0.065948,0.027841,0.99229,-0.0064104,-0.19681,-0.0069396,0.079268
-0.0074311,0.013864,0.035348,-0.038387,0.027659,0.04119,-0.10502,0.066273,0.0044655,-0.014464,0.038167,0.082128,-0.06589,0.00022694,-0.13241,-0.0092987,0.039498,0.066901,0.018775,0.95116,-0.015531,-0.18145,-0.012162,0.074189
-0.0098698,0.0098801,0.036755,-0.036086,0.025594,0.010522,-0.13357,0.069061,0.011999,-0.0091666,0.029658,0.067658,-0.065934,-0.00076179,-0.14201,-0.015924,0.037583,0.06912,0.017511,0.8865,-0.031144,-0.13684,-0.015038,0.063838
-0.0065356,0.0074959,0.039908,-0.03141,0.020611,-0.020685,-0.16456,0.063649,0.017282,-0.0041056,0.018019,0.052963,-0.065074,-0.0052547,-0.1483,-0.023716,0.02938,0.069655,0.020569,0.80927,-0.046423,-0.08122,-0.015414,0.05151
-0.0003455,0.0091894,0.044061,-0.026062,0.015887,-0.045929,-0.19191,0.050574,0.017863,0.00036969,0.0040169,0.037671,-0.064306,-0.0085598,-0.14758,-0.029821,0.019645,0.066625,0.020642,0.72986,-0.055192,-0.032619,-0.015455,0.041056
0.0041428,0.014826,0.047722,-0.022976,0.014735,-0.064097,-0.21084,0.034623,0.014146,0.0043693,-0.012167,0.021573,-0.064983,-0.0060665,-0.14032,-0.031675,0.014649,0.05987,0.012272,0.65332,-0.05541,-0.0033896,-0.01796,0.03473
0.0043407,0.021392,0.04949,-0.024554,0.018125,-0.078426,-0.2211,0.021563,0.0085739,0.0062689,-0.030673,0.0049491,-0.067915,0.0031279,-0.13006,-0.028648,0.016124,0.050732,-0.0039847,0.57682,-0.050255,0.0030184,-0.024081,0.032351
0.001578,0.025267,0.048791,-0.030977,0.023248,-0.092139,-0.22679,0.014575,0.0036507,0.0030103,-0.051144,-0.0107,-0.072356,0.015025,-0.12065,-0.022624,0.019267,0.041372,-0.02203,0.49129,-0.04597,-0.0070398,-0.032487,0.032185
-0.00013032,0.025163,0.0462,-0.039808,0.024857,-0.10468,-0.2327,0.012883,0.00063334,-0.007296,-0.072423,-0.02246,-0.075809,0.023074,-0.11404,-0.016944,0.016731,0.033721,-0.034656,0.38725,-0.047763,-0.019878,-0.040521,0.032493
0.0025674,0.023108,0.043226,-0.047273,0.019055,-0.11201,-0.24012,0.01322,-0.00034341,-0.023533,-0.093147,-0.027127,-0.07522,0.022462,-0.11019,-0.01436,0.0050148,0.02833,-0.038311,0.26214,-0.056388,-0.021123,-0.046075,0.032351
0.0096384,0.022425,0.041576,-0.050559,0.0067865,-0.11054,-0.24547,0.012569,0.00045429,-0.042834,-0.11242,-0.023229,-0.069113,0.013295,-0.10835,-0.015455,-0.012409,0.023861,-0.034795,0.12471,-0.067725,-0.0042833,-0.048466,0.031297
0.017735,0.02441,0.042203,-0.049809,-0.0061254,-0.10116,-0.2428,0.0099478,0.002525,-0.063676,-0.12964,-0.012328,-0.059238,0.00051397,-0.10787,-0.018545,-0.027799,0.017979,-0.029223,-0.0068767,-0.075794,0.024267,-0.047932,0.028569
0.022895,0.026758,0.044669,-0.048414,-0.01306,-0.089685,-0.22794,0.0061806,0.0047193,-0.087138,-0.14345,0.0017565,-0.050207,-0.0092255,-0.10783,-0.020905,-0.035021,0.009366,-0.026374,-0.11311,-0.07731,0.048646,-0.044768,0.022965
0.023549,0.025394,0.047331,-0.051108,-0.011853,-0.083448,-0.20114,0.0024139,0.0052922,-0.11437,-0.15115,0.015492,-0.0468,-0.011514,-0.1062,-0.020314,-0.033459,-0.00068051,-0.028279,-0.1824,-0.074593,0.054159,-0.039266,0.0136
0.021317,0.018293,0.048333,-0.060775,-0.0068072,-0.086956,-0.16686,-0.0010599,0.0030375,-0.14254,-0.14964,0.0279,-0.050537,-0.0065294,-0.10003,-0.01598,-0.027066,-0.0086118,-0.03433,-0.2154,-0.074548,0.037778,-0.032405,0.00085116
0.019035,0.0079114,0.046721,-0.076049,-0.0053962,-0.099731,-0.13122,-0.0047702,-0.0013817,-0.16389,-0.13732,0.040528,-0.058101,0.0014757,-0.087272,-0.0086068,-0.020225,-0.010996,-0.042975,-0.22147,-0.08401,0.009946,-0.026164,-0.013434
0.017901,-8.5132e-005,0.042923,-0.091492,-0.012109,-0.11722,-0.099219,-0.0091873,-0.0055021,-0.16995,-0.11531,0.055025,-0.063239,0.0070285,-0.068947,4.9627e-005,-0.014523,-0.0070781,-0.053102,-0.21069,-0.10445,-0.01406,-0.022607,-0.026722
0.016438,-0.0009255,0.038376,-0.10038,-0.024561,-0.13335,-0.073146,-0.013974,-0.0069344,-0.15814,-0.086644,0.070439,-0.061108,0.0068382,-0.04952,0.0077669,-0.0089652,0.00063128,-0.063921,-0.18831,-0.12983,-0.026093,-0.022278,-0.036998
0.012243,0.0057189,0.034746,-0.098156,-0.035309,-0.14284,-0.052581,-0.017944,-0.0054253,-0.1347,-0.053965,0.082851,-0.051877,0.0016915,-0.0345,0.012522,-0.0024762,0.008259,-0.07377,-0.156,-0.14945,-0.030196,-0.023373,-0.04346
0.0048654,0.015598,0.033346,-0.084243,-0.037922,-0.14281,-0.035656,-0.019536,-0.0029517,-0.11088,-0.01806,0.088044,-0.040629,-0.0043439,-0.026766,0.013242,0.0043425,0.013329,-0.07933,-0.11764,-0.15412,-0.03665,-0.022744,-0.04619
-0.0030292,0.023089,0.034837,-0.061303,-0.03214,-0.1336,-0.020701,-0.017269,-0.0015222,-0.094792,0.021318,0.085182,-0.033468,-0.0069175,-0.02452,0.010397,0.0098655,0.016025,-0.076448,-0.082544,-0.14169,-0.050794,-0.018185,-0.04504
-0.0074942,0.025023,0.038942,-0.033194,-0.023756,-0.11909,-0.0074147,-0.010005,-0.00085121,-0.085724,0.063026,0.078287,-0.032917,-0.0045559,-0.022692,0.0059904,0.013299,0.018065,-0.062424,-0.061586,-0.11799,-0.067073,-0.010277,-0.038621
-0.0065777,0.022268,0.044146,-0.0034649,-0.019527,-0.10536,0.0032292,0.0028176,0.0015151,-0.075675,0.10306,0.073881,-0.036263,0.00031954,-0.01683,0.0026767,0.015364,0.020535,-0.038265,-0.059198,-0.092556,-0.073781,-0.0022332,-0.024252
-0.0020378,0.018334,0.047909,0.024817,-0.021729,-0.097698,0.010372,0.020782,0.0074291,-0.057044,0.13587,0.076309,-0.038068,0.0033489,-0.0063383,0.0023544,0.017016,0.022901,-0.0091402,-0.06954,-0.072211,-0.06401,0.0022684,0.00083209
0.0021022,0.016576,0.047896,0.048708,-0.026996,-0.097012,0.015019,0.042099,0.015434,-0.029921,0.15776,0.084416,-0.034545,0.0017136,0.0055574,0.0050678,0.017809,0.024078,0.017691,-0.08228,-0.056955,-0.042646,0.0016605,0.037623
0.0028391,0.018098,0.043743,0.065713,-0.029949,-0.098627,0.020688,0.063589,0.021129,-0.0027235,0.16941,0.09247,-0.026134,-0.0035783,0.014919,0.0089721,0.016048,0.024191,0.03644,-0.094141,-0.041034,-0.023021,-0.0025119,0.083969
0.00036189,0.02144,0.037886,0.074891,-0.027857,-0.09507,0.032199,0.081269,0.020723,0.014437,0.17522,0.09484,-0.016451,-0.0084391,0.020453,0.011446,0.010885,0.024849,0.045618,-0.11545,-0.018281,-0.016347,-0.0070011,0.13458
-0.0026701,0.023738,0.034283,0.077653,-0.022106,-0.081636,0.053223,0.091365,0.014596,0.018178,0.17982,0.090755,-0.0089683,-0.0089024,0.024235,0.010653,0.0041939,0.027289,0.048304,-0.16382,0.012285,-0.023419,-0.00963,0.18246
-0.0037704,0.022441,0.03552,0.077205,-0.015709,-0.060673,0.084205,0.091375,0.0073537,0.015188,0.18447,0.085181,-0.0044971,-0.0042254,0.029407,0.0065563,-0.00012397,0.03021,0.049706,-0.2482,0.044798,-0.035623,-0.011245,0.22108
-0.0025921,0.016787,0.040555,0.076909,-0.0099403,-0.040744,0.12192,0.080778,0.0040911,0.018058,0.18637,0.084941,-0.001331,0.0025626,0.03712,0.00079436,0.00071221,0.029867,0.053727,-0.35614,0.070081,-0.043672,-0.015204,0.24625
-0.00058158,0.0084407,0.045206,0.078918,-0.0035891,-0.030538,0.16076,0.061129,0.0061846,0.037239,0.18116,0.093248,0.0026322,0.007054,0.045484,-0.0043604,0.0055041,0.022986,0.060821,-0.45602,0.081791,-0.045737,-0.024638,0.2572
0.00091589,0.00085336,0.045331,0.0841,0.0047107,-0.031785,0.19483,0.035479,0.010449,0.075165,0.16643,0.10722,0.0079926,0.0068583,0.051211,-0.0071515,0.0094153,0.010117,0.068303,-0.51445,0.080642,-0.047775,-0.039538,0.2566
0.0019718,-0.0025978,0.040224,0.0929,0.013939,-0.036894,0.21989,0.0074031,0.012291,0.12586,0.14346,0.12042,0.013651,0.0033307,0.052284,-0.0068513,0.0076615,-0.0038957,0.072503,-0.51628,0.073581,-0.056313,-0.055946,0.24958
0.0036008,-0.00079817,0.033342,0.10577,0.020921,-0.033789,0.23466,-0.019816,0.0097941,0.17864,0.11622,0.12812,0.017964,0.00035797,0.049323,-0.003509,-0.00047383,-0.013258,0.071046,-0.47216,0.068677,-0.070759,-0.067981,0.24167
0.0063215,0.0040823,0.029672,0.12243,0.023295,-0.014854,0.24087,-0.043347,0.0050023,0.22227,0.088901,0.13069,0.019896,0.0012688,0.044832,0.0025664,-0.01087,-0.015774,0.063847,-0.40865,0.069676,-0.082328,-0.071275,0.2364
0.0095014,0.0077733,0.031879,0.14049,0.022149,0.016603,0.24219,-0.060457,0.0015435,0.24778,0.063968,0.13237,0.019358,0.0063629,0.041399,0.01099,-0.017857,-0.014649,0.052576,-0.34949,0.074327,-0.080523,-0.065368,0.23342
0.012158,0.0068303,0.038382,0.15522,0.021434,0.047394,0.24199,-0.068416,0.001187,0.25031,0.041919,0.13688,0.017015,0.012939,0.040426,0.021029,-0.018784,-0.015918,0.039333,-0.30277,0.077414,-0.061476,-0.053553,0.2286
0.014124,0.0013485,0.044819,0.16118,0.024432,0.062527,0.24122,-0.065325,0.002636,0.23108,0.022226,0.14406,0.014131,0.017595,0.042002,0.031321,-0.015944,-0.023663,0.02543,-0.26269,0.075624,-0.031194,-0.040643,0.21641
0.016073,-0.0046677,0.047502,0.15506,0.030576,0.054676,0.23807,-0.051479,0.0033778,0.19839,0.004342,0.15051,0.012419,0.018738,0.045378,0.0401,-0.01433,-0.037003,0.010858,-0.22131,0.070087,-0.0013734,-0.030494,0.19347
0.018321,-0.0058941,0.045945,0.13798,0.035752,0.028582,0.23005,-0.029972,0.0024255,0.16511,-0.011891,0.15319,0.013362,0.017259,0.049333,0.045936,-0.017316,-0.051022,-0.0054375,-0.17862,0.064706,0.018598,-0.024817,0.16107
0.019926,0.00038359,0.042573,0.1154,0.035965,-0.002176,0.21696,-0.0055768,0.0011769,0.14263,-0.026359,0.15258,0.017064,0.015085,0.052405,0.04843,-0.024049,-0.06037,-0.024575,-0.1421,0.062227,0.027533,-0.023369,0.12493
0.019441,0.011877,0.040182,0.094438,0.030989,-0.023269,0.20215,0.017543,0.0017388,0.13428,-0.038907,0.15219,0.021623,0.013275,0.053339,0.048226,-0.030581,-0.062411,-0.046491,-0.11804,0.061951,0.032863,-0.024617,0.092024
0.016782,0.022455,0.039478,0.080126,0.024638,-0.027086,0.19051,0.037416,0.0045849,0.13352,-0.049555,0.15531,0.024114,0.01154,0.051817,0.04638,-0.033463,-0.057859,-0.069184,-0.10432,0.061231,0.046588,-0.026188,0.0664
0.014106,0.026322,0.03868,0.072835,0.021387,-0.01546,0.1844,0.053826,0.0078944,0.12883,-0.058689,0.16189,0.022856,0.0094673,0.048849,0.043721,-0.032558,-0.049361,-0.089137,-0.091888,0.059149,0.080094,-0.025356,0.04697
0.014276,0.022253,0.035296,0.068598,0.022449,0.0027987,0.18111,0.066477,0.00912,0.11234,-0.067115,0.16851,0.019056,0.0078462,0.046297,0.040886,-0.030808,-0.039796,-0.10291,-0.073241,0.058546,0.14039,-0.0201,0.028883
0.018025,0.014642,0.028395,0.062266,0.02483,0.017182,0.17449,0.073814,0.0072007,0.085873,-0.075738,0.17125,0.016041,0.0083308,0.045692,0.038844,-0.031448,-0.031357,-0.10891,-0.048838,0.064079,0.2282,-0.010495,0.0077621
0.022621,0.010383,0.019544,0.051356,0.024085,0.020623,0.15964,0.073954,0.0033743,0.059811,-0.08491,0.16896,0.016365,0.011485,0.047236,0.039057,-0.035209,-0.025166,-0.10795,-0.024714,0.077893,0.33734,0.00077836,-0.016244
0.023732,0.013839,0.011829,0.037811,0.01816,0.012592,0.1368,0.066987,-4.1746e-005,0.045756,-0.094031,0.16417,0.019305,0.015239,0.049738,0.042604,-0.039766,-0.020848,-0.10212,-0.0034822,0.097074,0.45521,0.009762,-0.037802
0.019117,0.023721,0.0079113,0.026217,0.0089296,-0.00069784,0.11106,0.056484,-0.0017077,0.048067,-0.10188,0.16107,0.021292,0.0158,0.051437,0.048795,-0.041707,-0.016439,-0.092848,0.021917,0.11566,0.56502,0.013818,-0.049929
0.01076,0.034145,0.0085666,0.019799,0.00031289,-0.0091752,0.088013,0.0486,-0.0023517,0.060035,-0.10752,0.16225,0.019209,0.01083,0.051003,0.054713,-0.039274,-0.0094478,-0.079687,0.064198,0.12969,0.64979,0.013528,-0.049219
0.0033525,0.038855,0.012536,0.017411,-0.005075,-0.0042259,0.069279,0.049189,-0.0040043,0.067225,-0.11072,0.16669,0.013683,0.0022051,0.048056,0.056677,-0.03372,0.00098223,-0.06085,0.12923,0.14074,0.69697,0.012154,-0.038704
0.00042983,0.035237,0.017433,0.014142,-0.0076889,0.015857,0.051789,0.060754,-0.0080379,0.056115,-0.11151,0.17031,0.0091646,-0.0044734,0.043162,0.052915,-0.028345,0.012471,-0.034863,0.20534,0.15424,0.70197,0.012944,-0.026052
0.0017207,0.025308,0.020913,0.0051937,-0.0099545,0.043737,0.03141,0.080864,-0.013621,0.023254,-0.10912,0.16866,0.010384,-0.0038699,0.037641,0.045287,-0.026034,0.020276,-0.0019526,0.26463,0.17379,0.6691,0.016524,-0.018488
0.0040551,0.013605,0.021494,-0.010076,-0.013684,0.066606,0.00769,0.10254,-0.017934,-0.020285,-0.10196,0.15996,0.018169,0.0046191,0.033318,0.038346,-0.027103,0.020702,0.035761,0.2776,0.19646,0.60999,0.020663,-0.018457
0.0047287,0.0041738,0.018876,-0.027315,-0.018511,0.074213,-0.014409,0.11638,-0.018182,-0.052327,-0.089135,0.14675,0.028361,0.015785,0.031992,0.036104,-0.028974,0.014554,0.074935,0.23196,0.21368,0.53967,0.022647,-0.023245
0.0039555,-0.0011311,0.013874,-0.040236,-0.022575,0.066206,-0.027282,0.11396,-0.014014,-0.050197,-0.072424,0.13483,0.034944,0.022217,0.034472,0.038952,-0.027869,0.0075021,0.11161,0.1429,0.21747,0.47163,0.022086,-0.028348
0.0041483,-0.0025639,0.0080146,-0.045093,-0.024472,0.053024,-0.025814,0.091576,-0.0083333,-0.003547,-0.056565,0.13029,0.034717,0.019937,0.039641,0.043239,-0.021334,0.0064593,0.14142,0.047353,0.20709,0.41296,0.021561,-0.031328
0.0070138,-0.0016201,0.0027912,-0.043001,-0.024452,0.048658,-0.011085,0.052597,-0.0055222,0.077869,-0.046967,0.1363,0.029493,0.011509,0.044492,0.04394,-0.009925,0.014524,0.16001,-0.014168,0.19021,0.36194,0.02443,-0.032963
0.011525,-0.00025397,-0.0012328,-0.038513,-0.023888,0.059861,0.0098373,0.0065038,-0.0080992,0.16695,-0.046306,0.15186,0.023997,0.0039716,0.04565,0.038383,0.0030055,0.028513,0.16447,-0.017098,0.17767,0.31021,0.031689,-0.035319
0.014752,-0.0001344,-0.0049068,-0.035938,-0.02382,0.079801,0.027679,-0.035826,-0.014421,0.23228,-0.052971,0.17328,0.021446,0.0032137,0.04164,0.028229,0.013139,0.041144,0.15533,0.037617,0.17568,0.249,0.040649,-0.03919
0.014558,-0.0016632,-0.010016,-0.036503,-0.024209,0.091563,0.03582,-0.067963,-0.019557,0.2544,-0.062935,0.19708,0.02079,0.0093532,0.034187,0.018447,0.01731,0.046108,0.13762,0.12822,0.182,0.17616,0.046635,-0.043584
0.011354,-0.0032872,-0.017881,-0.038345,-0.024544,0.079625,0.03338,-0.090719,-0.019012,0.2358,-0.073632,0.22167,0.018016,0.016816,0.027246,0.014366,0.01456,0.041989,0.11933,0.22646,0.18868,0.09851,0.046325,-0.04755
0.0072569,-0.0021822,-0.02792,-0.038772,-0.024917,0.041068,0.024885,-0.10948,-0.012438,0.19818,-0.086454,0.24643,0.010265,0.018895,0.024173,0.019103,0.0057681,0.032192,0.10764,0.31172,0.18868,0.027122,0.040043,-0.052241
0.003705,0.0035179,-0.037391,-0.036487,-0.026165,-0.011992,0.016813,-0.12802,-0.0042404,0.16886,-0.10555,0.26908,-0.0009541,0.012955,0.025186,0.032963,-0.0073933,0.021512,0.10511,0.37672,0.18091,-0.031168,0.031291,-0.060927
0.00016501,0.012531,-0.042834,-0.031953,-0.028804,-0.060771,0.013138,-0.144,-0.00045027,0.16491,-0.13384,0.28425,-0.01036,0.0021789,0.027308,0.054651,-0.023103,0.01256,0.1085,0.4231,0.16977,-0.078851,0.02406,-0.076861
-0.0046958,0.020471,-0.042421,-0.026012,-0.031913,-0.092704,0.012781,-0.15038,-0.0043765,0.18469,-0.16949,0.28531,-0.012867,-0.0072243,0.027025,0.082922,-0.039288,0.0048223,0.11144,0.4521,0.16056,-0.12433,0.020081,-0.10107
-0.010659,0.022692,-0.037428,-0.018463,-0.033401,-0.10913,0.010848,-0.14168,-0.014491,0.21146,-0.20597,0.2683,-0.0076037,-0.010758,0.023499,0.11728,-0.053416,-0.0035454,0.10891,0.45808,0.15494,-0.1723,0.017966,-0.13218
-0.015103,0.017847,-0.031495,-0.0081599,-0.031744,-0.12217,0.0029494,-0.11976,-0.025969,0.22555,-0.23553,0.23482,0.0013311,-0.0085673,0.019488,0.15734,-0.063107,-0.013402,0.10061,0.43003,0.15003,-0.21661,0.014585,-0.16826
-0.014948,0.0091273,-0.027917,0.0053508,-0.027735,-0.1439,-0.010644,-0.093728,-0.034199,0.21698,-0.2534,0.19092,0.0079084,-0.0046745,0.018998,0.20139,-0.067571,-0.023924,0.090755,0.35926,0.14135,-0.24299,0.007411,-0.20858
-0.009807,0.0019544,-0.026938,0.020142,-0.024534,-0.17659,-0.024476,-0.07373,-0.037267,0.19063,-0.25958,0.14299,0.0084533,-0.0036368,0.023661,0.24531,-0.068743,-0.033833,0.084766,0.2475,0.12619,-0.24047,-0.0038562,-0.25321
-0.0032328,1.5263e-005,-0.025215,0.031792,-0.025686,-0.21163,-0.031756,-0.064079,-0.0359,0.16148,-0.25723,0.094067,0.003823,-0.0073984,0.031123,0.28266,-0.070628,-0.043069,0.085547,0.10909,0.10484,-0.21228,-0.017302,-0.30035
-0.00038587,0.0029355,-0.018138,0.035217,-0.032544,-0.23713,-0.029633,-0.061547,-0.031835,0.14356,-0.24942,0.043827,-0.0018995,-0.01438,0.037036,0.30652,-0.076663,-0.053292,0.091968,-0.034382,0.079276,-0.17607,-0.030144,-0.34385
-0.0037379,0.0073029,-0.0033786,0.027318,-0.043166,-0.24727,-0.02152,-0.060068,-0.026633,0.13986,-0.23727,-0.0079786,-0.0047265,-0.020919,0.038875,0.3122,-0.086718,-0.066726,0.10021,-0.16345,0.051463,-0.15278,-0.04036,-0.37355
-0.010527,0.0097498,0.017025,0.0086894,-0.05362,-0.24545,-0.014454,-0.05715,-0.021766,0.13978,-0.22065,-0.05822,-0.003334,-0.023678,0.038015,0.29962,-0.096237,-0.084169,0.10632,-0.2683,0.023124,-0.15296,-0.047596,-0.3793
-0.01451,0.0092659,0.037704,-0.016623,-0.060744,-0.23919,-0.01363,-0.05595,-0.019034,0.12605,-0.20054,-0.10056,0.00077785,-0.021473,0.038038,0.27365,-0.098689,-0.10354,0.10775,-0.3502,-0.0033025,-0.17135,-0.052939,-0.35639
-0.010938,0.0070955,0.053355,-0.043048,-0.064188,-0.23165,-0.018621,-0.061408,-0.020047,0.087299,-0.18019,-0.12918,0.0049894,-0.015715,0.040869,0.24205,-0.089906,-0.12012,0.10314,-0.41692,-0.024482,-0.19324,-0.05781,-0.30899
-0.00070972,0.0050201,0.061883,-0.065879,-0.066114,-0.21742,-0.02417,-0.074565,-0.024874,0.028064,-0.16386,-0.14283,0.0073505,-0.0094696,0.044494,0.21185,-0.071054,-0.1286,0.091545,-0.47553,-0.03799,-0.20564,-0.062657,-0.24916
0.0098889,0.0040218,0.065025,-0.082871,-0.068799,-0.18615,-0.024439,-0.090838,-0.031349,-0.030897,-0.15396,-0.14571,0.0072216,-0.005663,0.044546,0.18655,-0.04783,-0.12612,0.072614,-0.5269,-0.044888,-0.20371,-0.066245,-0.19196
0.013871,0.0043268,0.066276,-0.094439,-0.072186,-0.13101,-0.016937,-0.10399,-0.036216,-0.063567,-0.14913,-0.14468,0.0049286,-0.005213,0.038339,0.16551,-0.026403,-0.11412,0.048284,-0.565,-0.050381,-0.18888,-0.066075,-0.14967
0.0089076,0.006058,0.068058,-0.10265,-0.073527,-0.05541,-0.0031481,-0.11186,-0.03746,-0.05447,-0.14541,-0.14509,0.0012997,-0.006044,0.02755,0.14574,-0.0093318,-0.09765,0.024231,-0.58129,-0.061066,-0.16362,-0.059879,-0.12824
-0.0010218,0.0092096,0.070461,-0.10973,-0.069555,0.026715,0.013752,-0.11825,-0.035815,-0.0088544,-0.13968,-0.14858,-0.0024978,-0.0038229,0.017102,0.12435,0.0053502,-0.082128,0.0089937,-0.57221,-0.08038,-0.12964,-0.047357,-0.12742
-0.0089673,0.012843,0.072238,-0.11683,-0.059406,0.096545,0.031317,-0.12882,-0.033985,0.049921,-0.13256,-0.15362,-0.0051393,0.0055214,0.011406,0.10019,0.021371,-0.069958,0.010113,-0.54573,-0.10585,-0.090838,-0.03098,-0.14352
-0.010484,0.014737,0.072741,-0.12368,-0.045781,0.13771,0.048222,-0.14486,-0.034268,0.093893,-0.12798,-0.15766,-0.0056702,0.022711,0.011462,0.073943,0.040322,-0.059763,0.029302,-0.52244,-0.13051,-0.055326,-0.015082,-0.1725
-0.0067053,0.012554,0.072756,-0.12912,-0.03331,0.14155,0.063132,-0.16054,-0.036792,0.10502,-0.12969,-0.15873,-0.0040647,0.043615,0.015117,0.0473,0.059892,-0.048892,0.060112,-0.52892,-0.14758,-0.031209,-0.0035961,-0.21113
-0.0026954,0.0058963,0.073419,-0.13209,-0.025426,0.10905,0.074306,-0.16638,-0.039951,0.080586,-0.13747,-0.1557,-0.0011799,0.060974,0.019608,0.021795,0.075465,-0.036863,0.090419,-0.58506,-0.15452,-0.018188,0.0021071,-0.25614
-0.0027783,-0.0027135,0.0744,-0.13234,-0.022287,0.050356,0.081093,-0.15601,-0.042428,0.027268,-0.14663,-0.14821,0.0019622,0.06888,0.023578,-0.0021452,0.083408,-0.026412,0.10879,-0.69183,-0.15363,-0.0038945,0.0037425,-0.30219
-0.0069505,-0.0093189,0.073356,-0.13037,-0.021247,-0.018085,0.08586,-0.13078,-0.044662,-0.048754,-0.15157,-0.13702,0.0048214,0.067093,0.026924,-0.025763,0.083276,-0.020978,0.11076,-0.82746,-0.14893,0.028218,0.0045809,-0.34073
-0.011243,-0.011588,0.067556,-0.12667,-0.019151,-0.078766,0.093647,-0.098404,-0.048234,-0.14576,-0.15036,-0.12484,0.0071804,0.061715,0.0294,-0.0517,0.077417,-0.021049,0.10089,-0.95573,-0.14254,0.083131,0.0070518,-0.36125
-0.011402,-0.010759,0.056413,-0.12104,-0.014427,-0.1198,0.10876,-0.06751,-0.053891,-0.26107,-0.14643,-0.11639,0.0084203,0.061029,0.030045,-0.082531,0.068802,-0.023107,0.089325,-1.0422,-0.13358,0.14377,0.011374,-0.35491
-0.0065613,-0.010421,0.042559,-0.11265,-0.0075042,-0.13943,0.13077,-0.042563,-0.060361,-0.38255,-0.1456,-0.11699,0.0072826,0.069125,0.028146,-0.11858,0.059114,-0.022518,0.085717,-1.0685,-0.12025,0.17716,0.016243,-0.31898
7.1479e-005,-0.012942,0.030197,-0.10099,0.00018548,-0.14476,0.15376,-0.02319,-0.065373,-0.487,-0.15091,-0.13023,0.0027747,0.082222,0.024446,-0.15655,0.048539,-0.017721,0.094834,-1.0356,-0.10286,0.15536,0.020789,-0.25934
0.0037964,-0.01678,0.02194,-0.086903,0.0073277,-0.14469,0.17021,-0.007511,-0.06791,-0.54941,-0.15985,-0.15638,-0.0044473,0.090932,0.020976,-0.19041,0.037071,-0.011487,0.1166,-0.95558,-0.084695,0.076118,0.025872,-0.18893
0.0018758,-0.017496,0.016851,-0.072692,0.013072,-0.1425,0.1767,0.0041683,-0.06928,-0.55726,-0.16652,-0.19258,-0.011697,0.087111,0.019508,-0.21444,0.025995,-0.0076826,0.14918,-0.83925,-0.069896,-0.033445,0.033384,-0.12231
-0.0048868,-0.011924,0.011429,-0.06105,0.016845,-0.13432,0.17674,0.0089354,-0.071609,-0.51867,-0.16686,-0.23449,-0.015643,0.070064,0.020215,-0.22628,0.018259,-0.0064494,0.19142,-0.69108,-0.060064,-0.13348,0.04417,-0.069231
-0.01334,-0.0017479,0.0026853,-0.053492,0.018388,-0.11498,0.17814,0.0044009,-0.07497,-0.45761,-0.16216,-0.27807,-0.014606,0.047134,0.021838,-0.22778,0.017418,-0.0026615,0.24192,-0.51412,-0.052844,-0.19527,0.056606,-0.030985
-0.020538,0.0070601,-0.0094123,-0.04958,0.018185,-0.085657,0.18682,-0.0077791,-0.076047,-0.3994,-0.15743,-0.32029,-0.0099262,0.028204,0.022998,-0.22313,0.025846,0.010295,0.2958,-0.32011,-0.044116,-0.21397,0.067356,-0.0019251
-0.025404,0.0088343,-0.022099,-0.047615,0.017676,-0.055738,0.20219,-0.021712,-0.070091,-0.35628,-0.15604,-0.35892,-0.0052411,0.018511,0.023162,-0.2161,0.043281,0.034448,0.34294,-0.13358,-0.032181,-0.20197,0.073736,0.02524
-0.028388,0.0028413,-0.032156,-0.046197,0.018597,-0.036337,0.2175,-0.031197,-0.054862,-0.32228,-0.15563,-0.39202,-0.0041482,0.015431,0.022418,-0.20869,0.06651,0.064422,0.37069,0.015939,-0.020258,-0.17175,0.075532,0.054212
-0.029884,-0.0062618,-0.038177,-0.045201,0.021734,-0.031138,0.22467,-0.034634,-0.033201,-0.27929,-0.14948,-0.41767,-0.0079305,0.011444,0.02066,-0.20172,0.090289,0.09075,0.37025,0.10989,-0.01462,-0.12462,0.074587,0.083483
-0.029198,-0.012535,-0.040975,-0.045145,0.026159,-0.03301,0.21962,-0.036366,-0.011744,-0.20929,-0.13252,-0.43375,-0.01488,0.00046701,0.017338,-0.19579,0.10906,0.10667,0.34216,0.1529,-0.019409,-0.054784,0.072659,0.10882
-0.025193,-0.013611,-0.04234,-0.045442,0.029802,-0.029834,0.20419,-0.042635,0.0034208,-0.10569,-0.10688,-0.43773,-0.021564,-0.017604,0.012065,-0.1912,0.11881,0.11252,0.29636,0.17124,-0.032327,0.037078,0.069778,0.12717
-0.018055,-0.011921,-0.043722,-0.043287,0.03106,-0.014564,0.18385,-0.055127,0.010675,0.021823,-0.08186,-0.4269,-0.025128,-0.03735,0.0052432,-0.18707,0.11837,0.11399,0.24625,0.19705,-0.045111,0.13513,0.064743,0.13854
-0.010389,-0.011532,-0.045979,-0.034696,0.030161,0.0091795,0.16376,-0.067764,0.013188,0.14992,-0.06783,-0.39995,-0.025141,-0.052214,-0.0021335,-0.18139,0.1097,0.11623,0.20092,0.24885,-0.048846,0.21386,0.057196,0.14471
-0.0062541,-0.013982,-0.049807,-0.017408,0.029112,0.030512,0.14628,-0.070256,0.015485,0.25002,-0.068953,-0.35948,-0.023825,-0.058897,-0.0093037,-0.17301,0.096936,0.11927,0.16153,0.32157,-0.040031,0.25373,0.048994,0.1468
-0.0084747,-0.017164,-0.055764,0.0065912,0.030192,0.040203,0.13117,-0.056287,0.019194,0.29865,-0.080434,-0.31355,-0.024484,-0.058567,-0.016172,-0.16405,0.084425,0.11894,0.1243,0.39233,-0.022639,0.25372,0.043225,0.14441
-0.016252,-0.018001,-0.063583,0.031377,0.034158,0.037321,0.1177,-0.029867,0.02148,0.28601,-0.092344,-0.27403,-0.029118,-0.054777,-0.022785,-0.16038,0.074692,0.11188,0.086906,0.43642,-0.0048032,0.23055,0.041521,0.13748
-0.025156,-0.015814,-0.071643,0.050598,0.039517,0.028575,0.1063,-0.0043794,0.017246,0.21947,-0.096654,-0.25154,-0.03687,-0.050634,-0.028464,-0.16896,0.067466,0.099559,0.05224,0.44178,0.0067636,0.20576,0.042108,0.12873
-0.029852,-0.01286,-0.077582,0.061793,0.043372,0.022046,0.09869,0.0053687,0.0031503,0.12054,-0.091817,-0.24987,-0.044514,-0.047731,-0.031774,-0.19387,0.060451,0.087502,0.025966,0.41267,0.010078,0.19138,0.040547,0.12364
-0.027655,-0.011591,-0.079819,0.068058,0.043148,0.021266,0.096534,-0.0079678,-0.019745,0.015975,-0.08176,-0.26409,-0.048711,-0.04704,-0.031645,-0.23411,0.051337,0.080538,0.0099324,0.36284,0.0069468,0.18483,0.032827,0.1271
-0.020242,-0.011703,-0.078618,0.075544,0.037953,0.024218,0.10006,-0.041152,-0.046437,-0.073888,-0.070859,-0.28405,-0.048393,-0.049871,-0.02861,-0.28473,0.039609,0.078756,-0.0022512,0.30562,-0.00024443,0.17515,0.01845,0.13921
-0.01218,-0.010204,-0.075622,0.088651,0.028791,0.026835,0.10777,-0.084803,-0.070745,-0.14409,-0.059546,-0.30079,-0.04536,-0.057129,-0.024647,-0.33986,0.026814,0.077713,-0.022824,0.24889,-0.010525,0.15393,0.0010475,0.15382
-0.0074635,-0.0046036,-0.072276,0.10677,0.017809,0.026947,0.11741,-0.13107,-0.088142,-0.20596,-0.044282,-0.31114,-0.042565,-0.067329,-0.0214,-0.39455,0.015228,0.072352,-0.061854,0.1968,-0.023577,0.12202,-0.014,0.16176
-0.0068115,0.0040143,-0.068695,0.12507,0.0073577,0.02526,0.12759,-0.17817,-0.097036,-0.27744,-0.021795,-0.31717,-0.041459,-0.075781,-0.018306,-0.44424,0.0061164,0.060833,-0.11983,0.15422,-0.037843,0.08832,-0.023163,0.15615
-0.0077572,0.011291,-0.064036,0.13842,-0.00060687,0.023364,0.13851,-0.22888,-0.098427,-0.36713,0.0060744,-0.32195,-0.040604,-0.076807,-0.012668,-0.4831,-0.00098175,0.045222,-0.18682,0.12865,-0.050143,0.063237,-0.026852,0.13606
-0.007237,0.013286,-0.05787,0.14485,-0.0048492,0.021481,0.15137,-0.28533,-0.094836,-0.46208,0.031174,-0.32555,-0.036793,-0.068,-0.0021059,-0.50395,-0.0075489,0.029277,-0.24881,0.12776,-0.057501,0.052554,-0.02841,0.10575
-0.00438,0.010195,-0.051076,0.14585,-0.0052256,0.018312,0.16663,-0.34491,-0.089188,-0.52997,0.042964,-0.32463,-0.027828,-0.052955,0.012544,-0.5006,-0.014801,0.016017,-0.29621,0.15492,-0.059293,0.055267,-0.030884,0.071044
-0.0012039,0.0065236,-0.045341,0.14376,-0.0029762,0.012831,0.1826,-0.40029,-0.083749,-0.53713,0.035023,-0.3153,-0.014683,-0.039491,0.026677,-0.47118,-0.022958,0.0070861,-0.32828,0.2062,-0.05731,0.065249,-0.03432,0.036305
-0.00082118,0.0073559,-0.041876,0.13913,-0.00034607,0.0059744,0.1955,-0.4426,-0.079254,-0.47206,0.0094021,-0.29588,-0.0012239,-0.034064,0.034742,-0.41959,-0.031475,0.0034678,-0.35116,0.27094,-0.053481,0.074456,-0.036004,0.0041922
-0.0048348,0.013906,-0.040713,0.13084,0.00073609,0.00046434,0.20127,-0.46482,-0.074733,-0.35686,-0.024523,-0.26745,0.008372,-0.036756,0.034441,-0.3539,-0.039751,0.0056885,-0.37236,0.3352,-0.047473,0.075832,-0.033641,-0.022764
-0.012102,0.022261,-0.041228,0.11846,0.00016104,-0.0010624,0.19796,-0.46371,-0.068528,-0.23654,-0.055918,-0.23222,0.012498,-0.041259,0.028787,-0.28293,-0.047605,0.012682,-0.39645,0.38625,-0.036668,0.06527,-0.028701,-0.041514
-0.019697,0.026392,-0.043165,0.1043,-9.8615e-005,0.0021028,0.18694,-0.44012,-0.059985,-0.15219,-0.078685,-0.19213,0.013047,-0.040213,0.024094,-0.21347,-0.055322,0.020585,-0.42435,0.41614,-0.018763,0.042553,-0.026656,-0.050193
-0.025028,0.022838,-0.046944,0.092804,0.0023641,0.0084437,0.17199,-0.39886,-0.05037,-0.11731,-0.093437,-0.14904,0.013723,-0.031476,0.025366,-0.14946,-0.063453,0.023472,-0.45511,0.42288,0.0052788,0.01102,-0.033249,-0.050667
-0.027323,0.013135,-0.052908,0.087415,0.0079344,0.015532,0.15693,-0.34797,-0.041879,-0.11462,-0.10424,-0.1058,0.017163,-0.019874,0.032805,-0.092808,-0.072507,0.016477,-0.48705,0.4088,0.030616,-0.024141,-0.049493,-0.049043
-0.02751,0.0021517,-0.060383,0.087661,0.013908,0.021748,0.14366,-0.29697,-0.035389,-0.11425,-0.11337,-0.066251,0.023154,-0.012854,0.042171,-0.04437,-0.082378,-0.00061705,-0.51721,0.37697,0.050981,-0.058163,-0.069675,-0.052883
-0.026971,-0.0059576,-0.067669,0.08898,0.016085,0.027088,0.13209,-0.25406,-0.029058,-0.097678,-0.11871,-0.033601,0.029237,-0.013911,0.048424,-0.0043758,-0.091509,-0.022171,-0.5403,0.32824,0.062323,-0.088127,-0.084491,-0.066822
-0.026438,-0.010649,-0.073095,0.085385,0.01196,0.032608,0.1217,-0.22352,-0.019462,-0.068393,-0.11577,-0.0084278,0.033025,-0.019655,0.049471,0.027572,-0.096429,-0.039201,-0.5495,0.26174,0.064896,-0.11264,-0.087309,-0.089748
-0.0258,-0.014472,-0.076125,0.072841,0.0028403,0.038954,0.11305,-0.20515,-0.0046112,-0.043265,-0.10205,0.011495,0.034216,-0.023087,0.047057,0.052375,-0.092568,-0.044199,-0.53929,0.17881,0.062373,-0.13039,-0.078798,-0.11542
-0.024671,-0.020021,-0.077444,0.051006,-0.0069807,0.044979,0.10749,-0.19581,0.013839,-0.035035,-0.079718,0.029102,0.034666,-0.020002,0.044621,0.071126,-0.07656,-0.035145,-0.50888,0.087212,0.058851,-0.13922,-0.066332,-0.13582
-0.022921,-0.027318,-0.077972,0.022763,-0.013329,0.047468,0.10517,-0.19153,0.031411,-0.042046,-0.054215,0.04537,0.036561,-0.012663,0.044405,0.084926,-0.048884,-0.01615,-0.46343,0.00072212,0.055996,-0.13709,-0.058635,-0.14479
-0.020696,-0.033895,-0.077779,-0.0073544,-0.014942,0.042574,0.10327,-0.18834,0.044205,-0.052523,-0.030116,0.058466,0.040306,-0.0075305,0.046306,0.095001,-0.01485,0.0054188,-0.41225,-0.067459,0.052182,-0.12444,-0.059795,-0.1403
-0.018108,-0.037219,-0.076016,-0.034489,-0.013801,0.028569,0.096407,-0.18156,0.051974,-0.056856,-0.0079459,0.065476,0.043901,-0.0093117,0.048929,0.1028,0.017305,0.023183,-0.36493,-0.11323,0.04393,-0.10595,-0.067005,-0.12457
-0.015116,-0.037034,-0.071937,-0.054329,-0.01312,0.0082276,0.079751,-0.16556,0.058196,-0.055607,0.015598,0.065073,0.044369,-0.016829,0.051158,0.10973,0.040437,0.034625,-0.32765,-0.1446,0.028491,-0.089788,-0.073286,-0.10262
-0.011847,-0.035523,-0.06613,-0.064138,-0.014973,-0.011359,0.052485,-0.13561,0.067242,-0.057064,0.044537,0.058693,0.040042,-0.024306,0.052488,0.1166,0.052171,0.041186,-0.30144,-0.17486,0.0058618,-0.084034,-0.072725,-0.079921
-0.0090288,-0.035396,-0.060766,-0.064141,-0.019382,-0.022439,0.018979,-0.09141,0.08137,-0.068833,0.080311,0.049227,0.031874,-0.026574,0.052007,0.12323,0.055764,0.046193,-0.28281,-0.20966,-0.020865,-0.092146,-0.064265,-0.05983
-0.0079189,-0.03785,-0.058531,-0.058403,-0.025017,-0.021843,-0.013513,-0.039349,0.10016,-0.092356,0.12064,0.038602,0.022738,-0.023264,0.047668,0.12861,0.057532,0.052353,-0.26617,-0.23826,-0.046916,-0.11065,-0.051694,-0.042027
-0.0095519,-0.042149,-0.060971,-0.053919,-0.030257,-0.01385,-0.039017,0.0092812,0.12235,-0.12438,0.16075,0.026598,0.015319,-0.01836,0.037294,0.13141,0.062574,0.06026,-0.24701,-0.2372,-0.068147,-0.13104,-0.040457,-0.023038
-0.013792,-0.046779,-0.067528,-0.057728,-0.033643,-0.0077348,-0.055842,0.044086,0.14761,-0.16151,0.19556,0.0119,0.010341,-0.015985,0.020939,0.13045,0.071595,0.068267,-0.22458,-0.18583,-0.082987,-0.14505,-0.033974,0.0011018
-0.019002,-0.050662,-0.076034,-0.073539,-0.033893,-0.011076,-0.066466,0.061839,0.17608,-0.20141,0.2212,-0.0058073,0.0065316,-0.016649,0.0023802,0.12503,0.08079,0.07334,-0.20296,-0.082868,-0.092969,-0.14985,-0.031977,0.031749
-0.022743,-0.053272,-0.084202,-0.10001,-0.030284,-0.023827,-0.074838,0.068761,0.20607,-0.23949,0.23588,-0.024919,0.0022274,-0.017328,-0.012193,0.11503,0.084565,0.072365,-0.18984,0.048445,-0.10155,-0.14938,-0.031615,0.066501
-0.02309,-0.053994,-0.09086,-0.13182,-0.02351,-0.038195,-0.083464,0.076965,0.23286,-0.26586,0.24041,-0.043097,-0.0028534,-0.014904,-0.017975,0.10127,0.079075,0.06354,-0.19322,0.17119,-0.11191,-0.15065,-0.030056,0.10099
-0.019695,-0.051963,-0.095882,-0.16279,-0.016095,-0.044793,-0.09248,0.0974,0.25051,-0.26854,0.23867,-0.059314,-0.0072373,-0.0094507,-0.015082,0.085671,0.064238,0.047352,-0.21765,0.25427,-0.12505,-0.15804,-0.026545,0.13203
-0.013903,-0.046921,-0.09903,-0.18889,-0.011397,-0.040126,-0.101,0.13409,0.25582,-0.24229,0.23712,-0.074536,-0.0090199,-0.0044041,-0.0088143,0.071003,0.043251,0.026503,-0.26194,0.28705,-0.13934,-0.17002,-0.022526,0.15916
-0.0079434,-0.040135,-0.098982,-0.20952,-0.011553,-0.029056,-0.1092,0.18315,0.25103,-0.19573,0.24245,-0.090132,-0.0076779,-0.0037494,-0.0060365,0.060076,0.020413,0.0046083,-0.31983,0.27984,-0.15193,-0.1809,-0.020014,0.18314
-0.0037365,-0.034045,-0.093707,-0.2265,-0.015976,-0.020198,-0.11896,0.23616,0.24247,-0.14914,0.25799,-0.10546,-0.00473,-0.0088882,-0.01022,0.054664,-0.00097857,-0.0156,-0.38252,0.25185,-0.16081,-0.18562,-0.019663,0.2028
-0.0019789,-0.030517,-0.082046,-0.24196,-0.021835,-0.018431,-0.13262,0.28472,0.23595,-0.12259,0.2813,-0.11714,-0.0026202,-0.017628,-0.01898,0.054793,-0.01941,-0.033242,-0.44146,0.21663,-0.16619,-0.18334,-0.0201,0.21389
-0.0019355,-0.029164,-0.065056,-0.25643,-0.026248,-0.021278,-0.15057,0.32269,0.23261,-0.12291,0.30502,-0.12128,-0.0027267,-0.025534,-0.026046,0.058799,-0.034618,-0.04869,-0.48945,0.17577,-0.16997,-0.17674,-0.018998,0.21171
-0.002014,-0.027421,-0.045752,-0.26825,-0.028357,-0.02223,-0.17015,0.34576,0.2286,-0.13969,0.32109,-0.11709,-0.0041402,-0.028148,-0.026137,0.064052,-0.046683,-0.06206,-0.52062,0.12337,-0.17373,-0.16867,-0.01493,0.19592
-0.00082823,-0.022527,-0.027286,-0.27428,-0.029532,-0.0177,-0.18684,0.35071,0.21872,-0.1535,0.32545,-0.1088,-0.0042167,-0.022647,-0.018908,0.067967,-0.055626,-0.072293,-0.53114,0.055795,-0.17703,-0.15972,-0.0084753,0.17314
0.0018674,-0.013839,-0.011071,-0.27152,-0.031657,-0.01094,-0.19711,0.33632,0.20083,-0.1495,0.31988,-0.10389,-0.00048181,-0.0086888,-0.009014,0.068836,-0.061614,-0.07781,-0.52121,-0.021813,-0.17741,-0.14941,-0.0017451,0.15433
0.0050367,-0.0035741,0.0035637,-0.25854,-0.035188,-0.009202,-0.20092,0.30563,0.17728,-0.1253,0.30974,-0.1086,0.0075826,0.011247,-0.0024504,0.066169,-0.065299,-0.078129,-0.49711,-0.097018,-0.17248,-0.13944,0.0031524,0.14829
0.0072075,0.0045446,0.018009,-0.23602,-0.038745,-0.016725,-0.20193,0.26664,0.15266,-0.088017,0.29985,-0.12416,0.018205,0.032112,-0.0021566,0.060431,-0.067776,-0.074948,-0.47009,-0.15735,-0.16231,-0.13491,0.0053951,0.15602
0.0077198,0.0076258,0.032651,-0.20618,-0.040477,-0.030065,-0.20545,0.22949,0.13016,-0.044791,0.29194,-0.14655,0.028635,0.047705,-0.0061869,0.052326,-0.070148,-0.071619,-0.45129,-0.19782,-0.14994,-0.1413,0.0055676,0.17064
0.0073516,0.0052475,0.046356,-0.17159,-0.039784,-0.040123,-0.21549,0.20118,0.10992,0.0030255,0.28538,-0.16984,0.037028,0.05324,-0.0095502,0.042129,-0.073051,-0.071403,-0.44557,-0.22401,-0.13946,-0.15915,0.0048382,0.18268
0.0077342,-0.00051476,0.057479,-0.13448,-0.037743,-0.03923,-0.23311,0.18188,0.090199,0.056813,0.27969,-0.19021,0.043398,0.047756,-0.0080432,0.029687,-0.076488,-0.075799,-0.44901,-0.25006,-0.1331,-0.18115,0.004153,0.1865
0.010014,-0.0064259,0.065319,-0.096686,-0.035921,-0.027185,-0.25656,0.16604,0.069804,0.11277,0.27598,-0.20731,0.048916,0.034545,-0.0011407,0.015248,-0.080013,-0.084008,-0.45259,-0.29281,-0.12979,-0.19486,0.0041344,0.18276
0.013927,-0.0098664,0.070602,-0.060052,-0.034787,-0.011174,-0.28264,0.14752,0.048995,0.15849,0.2759,-0.2223,0.054211,0.018987,0.0080094,0.00045095,-0.082982,-0.093549,-0.44893,-0.36446,-0.1264,-0.18982,0.0054967,0.1756
0.018091,-0.010081,0.074647,-0.026336,-0.033246,0.00018321,-0.30798,0.12443,0.028386,0.1789,0.2796,-0.23485,0.058277,0.0052225,0.015184,-0.011653,-0.084622,-0.1014,-0.43616,-0.46553,-0.12047,-0.16406,0.0092737,0.16775
0.021165,-0.0082853,0.078056,0.0033949,-0.029715,0.0036019,-0.3299,0.099551,0.0074367,0.16678,0.2851,-0.24194,0.059101,-0.0058632,0.018171,-0.01811,-0.083945,-0.1051,-0.41549,-0.58115,-0.11178,-0.12518,0.016457,0.15817
0.022751,-0.0065633,0.080168,0.029196,-0.023733,0.0032961,-0.34692,0.076217,-0.01536,0.12795,0.28996,-0.23954,0.055594,-0.01593,0.018094,-0.018259,-0.079859,-0.10352,-0.38525,-0.68407,-0.10172,-0.08535,0.027338,0.14428
0.023227,-0.0062119,0.079678,0.051667,-0.016642,0.0071404,-0.35915,0.053629,-0.040542,0.076203,0.29361,-0.22526,0.049008,-0.026667,0.018174,-0.014795,-0.071775,-0.097337,-0.33805,-0.74555,-0.091393,-0.053947,0.041134,0.12629
0.022872,-0.0066512,0.07583,0.070655,-0.010716,0.020203,-0.36812,0.026448,-0.066118,0.02337,0.29789,-0.19964,0.042335,-0.037728,0.02105,-0.012412,-0.060543,-0.088691,-0.26515,-0.74959,-0.0806,-0.0329,0.056169,0.10939
0.021336,-0.0058067,0.069164,0.084557,-0.0074549,0.040753,-0.37588,-0.010415,-0.088444,-0.025044,0.30518,-0.16494,0.038009,-0.046698,0.026745,-0.014634,-0.048919,-0.080229,-0.16513,-0.70192,-0.06867,-0.017475,0.070348,0.10149
0.018083,-0.0018128,0.061303,0.091296,-0.0065257,0.061568,-0.38378,-0.055698,-0.10517,-0.064198,0.31568,-0.12323,0.036073,-0.050678,0.032743,-0.021154,-0.040848,-0.073902,-0.048875,-0.62691,-0.055971,-0.0011161,0.081592,0.10781
0.013332,0.0052193,0.054087,0.090394,-0.0062544,0.075225,-0.39211,-0.10004,-0.11756,-0.081069,0.32665,-0.075735,0.034664,-0.047905,0.035932,-0.027891,-0.039638,-0.070559,0.064423,-0.55367,-0.044218,0.019656,0.08819,0.12676
0.008388,0.012808,0.048771,0.084207,-0.0052984,0.079292,-0.40118,-0.13094,-0.12976,-0.054616,0.33425,-0.024001,0.032477,-0.038354,0.034788,-0.029977,-0.046221,-0.070742,0.15795,-0.5013,-0.035098,0.043676,0.089229,0.15017
0.0048864,0.017496,0.04577,0.076827,-0.0040033,0.077768,-0.41279,-0.14113,-0.14522,0.030318,0.33633,0.028499,0.030619,-0.023574,0.030174,-0.025487,-0.058943,-0.075909,0.226,-0.47328,-0.028689,0.067334,0.08502,0.16784
0.003585,0.017038,0.044854,0.071292,-0.004096,0.078054,-0.4302,-0.13353,-0.16347,0.16494,0.33397,0.07653,0.031718,-0.0065751,0.024448,-0.017059,-0.075168,-0.088651,0.27358,-0.46363,-0.023449,0.088147,0.07715,0.17329
0.0038604,0.011782,0.045361,0.067478,-0.0067657,0.085853,-0.45564,-0.11839,-0.18004,0.31152,0.33029,0.11538,0.036865,0.008269,0.019898,-0.010103,-0.093386,-0.11115,0.30817,-0.46725,-0.017915,0.10671,0.067861,0.16678
0.0043929,0.0043053,0.04624,0.062708,-0.01078,0.1015,-0.48707,-0.10456,-0.1898,0.42084,0.32804,0.14366,0.04354,0.01618,0.017819,-0.0089932,-0.11385,-0.14274,0.33178,-0.48445,-0.012308,0.12576,0.059021,0.154
0.004384,-0.0022813,0.046129,0.0547,-0.012583,0.11987,-0.51696,-0.092328,-0.19073,0.46325,0.32759,0.16421,0.046999,0.014185,0.018565,-0.014132,-0.13693,-0.17845,0.34131,-0.51651,-0.0081898,0.14744,0.051445,0.14189
0.0041879,-0.0060861,0.04385,0.044298,-0.0087731,0.13342,-0.53532,-0.073997,-0.1851,0.45046,0.32682,0.1823,0.044251,0.003415,0.021926,-0.022007,-0.16062,-0.20989,0.33687,-0.55797,-0.0062693,0.17116,0.045105,0.13473
0.0048576,-0.0071676,0.039197,0.035521,0.00088945,0.1361,-0.53512,-0.042208,-0.17734,0.42959,0.32263,0.20225,0.036885,-0.010602,0.027113,-0.027921,-0.17932,-0.22811,0.32945,-0.59374,-0.0044403,0.19355,0.03995,0.13302
0.0071053,-0.0070865,0.03337,0.032727,0.012646,0.12581,-0.51638,0.0015609,-0.17067,0.45113,0.3128,0.22489,0.029823,-0.020601,0.032476,-0.029145,-0.18557,-0.22675,0.33874,-0.60313,0.0017715,0.21023,0.036452,0.13506
0.010601,-0.0078747,0.028378,0.037178,0.021165,0.1045,-0.48552,0.046348,-0.16548,0.53335,0.29726,0.24737,0.026938,-0.021755,0.035738,-0.026185,-0.17338,-0.2038,0.38065,-0.56601,0.016256,0.2181,0.035252,0.13931
0.014103,-0.011058,0.025596,0.045692,0.023463,0.076869,-0.4505,0.080203,-0.16036,0.64996,0.27814,0.26521,0.027644,-0.014415,0.035106,-0.021625,-0.14102,-0.16143,0.45362,-0.466,0.039044,0.21671,0.036309,0.14543
0.016187,-0.016971,0.024573,0.052263,0.021017,0.048929,-0.41567,0.10041,-0.15436,0.75036,0.25884,0.27502,0.027733,-0.0034695,0.030543,-0.017867,-0.09134,-0.10459,0.53572,-0.29179,0.065362,0.20835,0.03859,0.15342
0.016012,-0.024394,0.023228,0.051159,0.018167,0.027559,-0.38028,0.11576,-0.14836,0.79673,0.24239,0.27628,0.023623,0.005029,0.023986,-0.015559,-0.030032,-0.039478,0.59652,-0.041833,0.087952,0.19707,0.040917,0.16227
0.013688,-0.030782,0.019446,0.039248,0.018075,0.020362,-0.34167,0.1381,-0.14467,0.789,0.23002,0.27156,0.015862,0.0073851,0.01805,-0.013538,0.036353,0.02755,0.61589,0.26607,0.10115,0.1869,0.043318,0.16968
0.010166,-0.033394,0.012789,0.016472,0.019731,0.034542,-0.29964,0.17016,-0.14564,0.75899,0.2209,0.26534,0.0084891,0.0037412,0.014184,-0.0098482,0.10112,0.090433,0.59574,0.58816,0.104,0.17981,0.047451,0.17312
0.0067828,-0.031083,0.0048449,-0.014869,0.018644,0.073905,-0.25804,0.20106,-0.15255,0.73951,0.2129,0.26187,0.0049603,-0.0026863,0.011884,-0.0028918,0.15722,0.14364,0.55611,0.86217,0.10034,0.17435,0.055284,0.17121
0.0046884,-0.025536,-0.0020627,-0.050765,0.010695,0.13498,-0.22215,0.21394,-0.16531,0.73432,0.20379,0.26303,0.0047212,-0.0072233,0.0096381,0.0078528,0.19773,0.18253,0.51907,1.0314,0.096048,0.16626,0.066872,0.16414
0.0043984,-0.020638,-0.0066104,-0.085764,-0.0040529,0.20505,-0.19412,0.1996,-0.18264,0.71336,0.19155,0.26699,0.0038424,-0.0049709,0.0067066,0.021709,0.21781,0.20412,0.49295,1.0726,0.095216,0.1514,0.079197,0.15295
0.0056809,-0.019864,-0.0091303,-0.11363,-0.020775,0.26498,-0.17095,0.16401,-0.20217,0.63737,0.17373,0.26873,-0.00085548,0.0082696,0.0040124,0.037292,0.21729,0.20821,0.46872,1.0073,0.0978,0.12947,0.087369,0.13879
0.0077869,-0.023544,-0.01081,-0.12912,-0.033033,0.297,-0.1466,0.1231,-0.22053,0.49272,0.1471,0.26263,-0.0081869,0.034547,0.003264,0.05352,0.20147,0.19823,0.43,0.88762,0.10015,0.10565,0.087609,0.12304
0.0098346,-0.028405,-0.012442,-0.13023,-0.037138,0.29387,-0.1167,0.089775,-0.23378,0.30925,0.10919,0.24609,-0.013052,0.071695,0.0051605,0.070636,0.1789,0.18083,0.36802,0.76471,0.09798,0.088204,0.079805,0.10791
0.011114,-0.030134,-0.013988,-0.1195,-0.034303,0.26359,-0.081561,0.064946,-0.23824,0.147,0.061428,0.22185,-0.010685,0.11205,0.0084495,0.090274,0.15706,0.16365,0.28963,0.66432,0.089774,0.083061,0.067714,0.096422
0.011261,-0.026989,-0.01516,-0.103,-0.029033,0.22556,-0.045004,0.040296,-0.23137,0.060409,0.011805,0.19689,-0.00089583,0.14389,0.010828,0.11405,0.13874,0.15194,0.21288,0.58605,0.078125,0.089144,0.056717,0.091005
0.010401,-0.021281,-0.016139,-0.087696,-0.025154,0.19953,-0.010113,0.0096521,-0.21204,0.064917,-0.025792,0.17825,0.011465,0.1563,0.010884,0.14147,0.12173,0.14602,0.15466,0.52287,0.068083,0.098181,0.050802,0.091809
0.0093012,-0.017268,-0.017529,-0.078912,-0.022693,0.19426,0.024025,-0.022151,-0.1803,0.12856,-0.036299,0.1685,0.02013,0.14533,0.0092417,0.16893,0.10178,0.14168,0.12002,0.48059,0.063627,0.099518,0.050821,0.096605
0.0092754,-0.017286,-0.019669,-0.079319,-0.017994,0.20352,0.061158,-0.041252,-0.13715,0.19355,-0.010141,0.16442,0.021911,0.11794,0.0077834,0.19134,0.076516,0.13341,0.10079,0.47851,0.064847,0.086718,0.05478,0.10288
0.011566,-0.019644,-0.022211,-0.089312,-0.006876,0.21262,0.10261,-0.035725,-0.084859,0.21231,0.051855,0.16048,0.018354,0.090354,0.0077273,0.20531,0.047419,0.11834,0.082938,0.53119,0.067996,0.061577,0.059458,0.11052
0.016352,-0.02025,-0.024543,-0.10739,0.011761,0.2105,0.14224,-0.0054825,-0.027598,0.17361,0.13807,0.15483,0.013659,0.080546,0.0084343,0.21156,0.018659,0.098053,0.056181,0.62981,0.06836,0.033292,0.06207,0.12234
0.022084,-0.016483,-0.026566,-0.12971,0.034672,0.19807,0.16691,0.037624,0.028372,0.10241,0.23041,0.15324,0.011171,0.098425,0.0081183,0.21401,-0.0058838,0.076918,0.01886,0.7423,0.063758,0.013815,0.061176,0.14138
0.025935,-0.0097109,-0.028854,-0.14958,0.0562,0.18605,0.16382,0.079142,0.07576,0.036462,0.31099,0.16721,0.01152,0.1393,0.0057123,0.21632,-0.024839,0.058884,-0.024002,0.83401,0.056005,0.012289,0.056823,0.16685
0.02542,-0.0041443,-0.031895,-0.15854,0.071732,0.18436,0.13065,0.1122,0.10849,-0.0013481,0.36821,0.2066,0.013424,0.18508,0.0019948,0.21856,-0.039207,0.045368,-0.066139,0.89116,0.049317,0.030988,0.050178,0.1925
0.020191,-0.0031038,-0.035226,-0.14966,0.079945,0.19195,0.080648,0.13996,0.12405,-0.014657,0.39944,0.2714,0.015687,0.21344,-0.0011476,0.21718,-0.050477,0.03572,-0.10408,0.92636,0.04704,0.0639,0.042835,0.20926
0.012626,-0.0061545,-0.037536,-0.12147,0.082381,0.19604,0.037302,0.16923,0.12458,-0.023277,0.40958,0.34845,0.018291,0.21,-0.0025305,0.20841,-0.059067,0.028977,-0.13746,0.96184,0.049278,0.098283,0.035925,0.21067
0.0065403,-0.0096614,-0.037844,-0.079527,0.081086,0.18184,0.020638,0.20219,0.11569,-0.043056,0.40651,0.41592,0.021961,0.17612,-0.0027022,0.19203,-0.064556,0.024615,-0.16704,1.0064,0.053174,0.1192,0.029465,0.19666
0.0047883,-0.010135,-0.036604,-0.033991,0.076564,0.14482,0.034138,0.23363,0.10358,-0.074381,0.39595,0.45312,0.027202,0.12747,-0.0032093,0.17225,-0.067244,0.021486,-0.19304,1.0472,0.055422,0.116,0.022479,0.17285
0.0074308,-0.0072385,-0.03552,0.0056916,0.067698,0.095384,0.062297,0.25556,0.092048,-0.10721,0.37877,0.4497,0.033994,0.084286,-0.004969,0.15473,-0.069113,0.01656,-0.2152,1.0636,0.054927,0.087981,0.013995,0.1461
0.011821,-0.0037679,-0.036068,0.035412,0.053532,0.052164,0.081649,0.26366,0.081098,-0.13356,0.35222,0.40872,0.042189,0.060004,-0.0074899,0.1425,-0.072916,0.005683,-0.23351,1.0484,0.053587,0.045515,0.004272,0.12019
0.014526,-0.0028003,-0.038078,0.057254,0.035172,0.029268,0.077775,0.25909,0.068253,-0.15186,0.314,0.34252,0.051762,0.055935,-0.0096868,0.13427,-0.079995,-0.013459,-0.24833,1.0158,0.054763,0.0049976,-0.0048029,0.095239
0.013646,-0.0047447,-0.039779,0.076336,0.01613,0.027747,0.055596,0.24425,0.05146,-0.15838,0.26584,0.26504,0.062407,0.064845,-0.011288,0.12649,-0.088893,-0.038564,-0.25982,0.98805,0.060779,-0.019987,-0.010628,0.070764
0.0098296,-0.006991,-0.039372,0.096408,0.00070908,0.037254,0.035022,0.21724,0.031536,-0.13759,0.21364,0.18612,0.072965,0.079616,-0.013213,0.11722,-0.096138,-0.062945,-0.26748,0.97241,0.071314,-0.025675,-0.011536,0.048999
0.0053715,-0.0063488,-0.036688,0.11757,-0.0083179,0.045502,0.035412,0.17121,0.012263,-0.067601,0.16404,0.11099,0.081511,0.099573,-0.01643,0.10827,-0.098629,-0.079143,-0.27047,0.94854,0.083708,-0.018636,-0.0079273,0.035001
0.0022298,-0.0019275,-0.033374,0.13737,-0.011032,0.047414,0.061142,0.10002,-0.0019275,0.057816,0.12026,0.043388,0.086265,0.12949,-0.020468,0.1038,-0.095549,-0.083289,-0.26792,0.87756,0.094708,-0.0098198,-0.0020581,0.033266
0.00059636,0.004156,-0.031372,0.15346,-0.0097719,0.04729,0.099274,0.005427,-0.0088315,0.20904,0.080897,-0.011506,0.086615,0.17248,-0.023133,0.10654,-0.088242,-0.076806,-0.25863,0.72556,0.10233,-0.0068216,0.0032562,0.043863
-0.00093051,0.0087481,-0.031041,0.16525,-0.00718,0.053734,0.13014,-0.10086,-0.0096054,0.32495,0.042682,-0.047892,0.083446,0.22305,-0.021855,0.11521,-0.078366,-0.064323,-0.2406,0.48447,0.10677,-0.0098256,0.0059536,0.06153
-0.0038681,0.010369,-0.030625,0.17313,-0.0043859,0.072535,0.14146,-0.20279,-0.0073402,0.34617,0.0047085,-0.063255,0.078621,0.26635,-0.015533,0.12517,-0.066095,-0.0498,-0.2116,0.1782,0.10998,-0.013155,0.0051963,0.078515
-0.0083942,0.010187,-0.027613,0.17672,-0.00055793,0.10292,0.13494,-0.28925,-0.0043727,0.25533,-0.029787,-0.061836,0.074116,0.28497,-0.0054192,0.13192,-0.049935,-0.034069,-0.17127,-0.145,0.11447,-0.010009,0.0010202,0.088873
-0.013114,0.010506,-0.020919,0.17442,0.00605,0.1387,0.1219,-0.35982,-0.00055527,0.093058,-0.055801,-0.05412,0.071327,0.2689,0.0054717,0.13425,-0.028204,-0.01549,-0.12334,-0.42589,0.12187,0.0035265,-0.0061686,0.091239
-0.01613,0.012287,-0.012103,0.16495,0.016479,0.17199,0.11369,-0.42236,0.0062972,-0.064959,-0.071048,-0.051979,0.07073,0.22206,0.013747,0.13457,-0.00091377,0.0072649,-0.075668,-0.60784,0.13214,0.027142,-0.015729,0.088803
-0.016391,0.014025,-0.0045591,0.14948,0.03002,0.19629,0.11536,-0.48405,0.018443,-0.15516,-0.078767,-0.062646,0.071876,0.16101,0.016835,0.13617,0.029314,0.032767,-0.037499,-0.65161,0.14359,0.056914,-0.026629,0.08738
-0.014176,0.013012,-0.0012288,0.13197,0.044332,0.20791,0.12614,-0.54252,0.036441,-0.16471,-0.086751,-0.085577,0.073743,0.1067,0.013624,0.14005,0.057744,0.056497,-0.015786,-0.55181,0.15381,0.086401,-0.037434,0.092958
-0.010456,0.0078764,-0.0024977,0.11697,0.056505,0.20635,0.14382,-0.58372,0.058738,-0.13621,-0.10378,-0.11394,0.075351,0.074038,0.0047298,0.14409,0.079043,0.072614,-0.013211,-0.34742,0.16091,0.10804,-0.046665,0.10942
-0.0059807,0.00019851,-0.0058472,0.1069,0.064439,0.19424,0.16738,-0.5883,0.082425,-0.13793,-0.13618,-0.13891,0.07623,0.065393,-0.0074937,0.14505,0.08912,0.076546,-0.02891,-0.11339,0.16422,0.11549,-0.05336,0.13668
-0.0010847,-0.0062013,-0.0075434,0.10104,0.067807,0.17646,0.19616,-0.54252,0.10416,-0.22097,-0.18612,-0.15348,0.076307,0.071099,-0.019519,0.14131,0.086719,0.067004,-0.06032,0.071344,0.16408,0.10647,-0.057543,0.16988
0.0036549,-0.0078065,-0.0051568,0.097349,0.068124,0.15809,0.22788,-0.44663,0.12058,-0.39,-0.25126,-0.15363,0.075221,0.076276,-0.02803,0.13396,0.074203,0.046713,-0.10398,0.16503,0.16099,0.083988,-0.060368,0.20079
0.0068195,-0.0038438,0.00091377,0.09516,0.067769,0.14193,0.25872,-0.31522,0.12841,-0.60242,-0.32491,-0.1378,0.071822,0.069504,-0.031606,0.12526,0.056935,0.021707,-0.15481,0.18508,0.15508,0.054149,-0.063804,0.2214
0.0066155,0.003168,0.0080032,0.095959,0.068404,0.12744,0.28572,-0.16948,0.125,-0.7928,-0.39719,-0.10696,0.06465,0.048254,-0.031479,0.11647,0.041078,-0.00060279,-0.2055,0.19041,0.14652,0.02135,-0.06982,0.22769
0.0023025,0.0090504,0.013334,0.10136,0.069772,0.11214,0.30889,-0.026493,0.10942,-0.90685,-0.45819,-0.066138,0.053273,0.018266,-0.030506,0.10705,0.030681,-0.014076,-0.24739,0.23266,0.13625,-0.015248,-0.079278,0.2212
-0.0047297,0.010494,0.01604,0.11018,0.069897,0.094636,0.33057,0.10792,0.083627,-0.92549,-0.50236,-0.025439,0.039312,-0.011823,-0.030972,0.095952,0.025772,-0.016217,-0.27269,0.31193,0.12625,-0.060626,-0.091179,0.20723
-0.011508,0.0067343,0.017485,0.11752,0.06679,0.07653,0.35257,0.23837,0.052437,-0.86623,-0.53118,0.0022817,0.02592,-0.0361,-0.033022,0.083302,0.022925,-0.0091028,-0.27618,0.37314,0.1186,-0.1187,-0.10295,0.19139
-0.015461,-0.00052296,0.019769,0.11716,0.060521,0.06164,0.37389,0.37233,0.021938,-0.76294,-0.55125,0.0076218,0.015736,-0.052931,-0.035195,0.070639,0.018105,0.0018169,-0.25566,0.34859,0.11402,-0.18729,-0.11179,0.17719
-0.016146,-0.0085196,0.023896,0.10526,0.05392,0.053113,0.39146,0.51106,-0.0029745,-0.63922,-0.56871,-0.0089587,0.0088752,-0.061787,-0.036612,0.059237,0.0098046,0.010598,-0.21168,0.21406,0.11123,-0.25765,-0.1162,0.16603
-0.0151,-0.015046,0.029305,0.082464,0.051116,0.050872,0.403,0.64511,-0.020258,-0.49569,-0.58453,-0.035689,0.0027429,-0.05912,-0.038673,0.048177,0.00012559,0.013825,-0.14782,0.012565,0.10784,-0.31851,-0.11642,0.15845
-0.013985,-0.019283,0.035066,0.053036,0.05494,0.051482,0.40927,0.75736,-0.030364,-0.32114,-0.59487,-0.05518,-0.005921,-0.038481,-0.044369,0.034206,-0.0069647,0.011989,-0.070864,-0.17456,0.10205,-0.36065,-0.11364,0.15458
-0.012904,-0.021646,0.04132,0.022288,0.065268,0.050517,0.41345,0.83172,-0.034249,-0.1174,-0.59631,-0.053969,-0.018296,0.0033629,-0.055496,0.013864,-0.0086746,0.0083746,0.010674,-0.28619,0.093788,-0.3778,-0.10868,0.15326
-0.010616,-0.023006,0.049214,-0.0051243,0.079627,0.045701,0.41835,0.86221,-0.03163,0.085222,-0.59074,-0.029479,-0.032271,0.058375,-0.0702,-0.013697,-0.0052159,0.0062238,0.09059,-0.32246,0.084309,-0.36425,-0.10142,0.15088
-0.0063627,-0.023847,0.059184,-0.025194,0.095377,0.038663,0.42419,0.85676,-0.021252,0.2389,-0.58509,0.010041,-0.043802,0.1046,-0.083283,-0.045488,0.00092899,0.0062915,0.16912,-0.33634,0.074811,-0.31398,-0.091355,0.14183
-0.0012872,-0.023888,0.069357,-0.034208,0.11141,0.034186,0.42911,0.83349,-0.0030635,0.30948,-0.58585,0.051606,-0.049775,0.11349,-0.089391,-0.076179,0.0073903,0.0067417,0.25319,-0.38557,0.065297,-0.22522,-0.078602,0.12051
0.0022347,-0.022422,0.076115,-0.029836,0.12783,0.037258,0.4316,0.81138,0.019756,0.30232,-0.59377,0.084607,-0.050128,0.064407,-0.086653,-0.10124,0.013731,0.0055564,0.35112,-0.48577,0.054473,-0.10854,-0.064385,0.08365
0.0028064,-0.019222,0.076846,-0.013473,0.14419,0.049481,0.43202,0.80098,0.041201,0.26,-0.60394,0.1044,-0.047728,-0.042816,-0.07785,-0.11936,0.021205,0.0033585,0.46476,-0.60153,0.040421,0.0092598,-0.050825,0.031605
0.0015081,-0.015301,0.072541,0.008609,0.15805,0.066956,0.43135,0.80028,0.055507,0.23211,-0.61104,0.1117,-0.04635,-0.18623,-0.068258,-0.13246,0.030919,0.003786,0.585,-0.67781,0.021254,0.092761,-0.040292,-0.031634
0.0010482,-0.012695,0.06759,0.027513,0.16559,0.081339,0.42818,0.79777,0.060593,0.24119,-0.61439,0.11018,-0.048512,-0.33295,-0.062092,-0.1434,0.042176,0.010386,0.69429,-0.68237,-0.0045183,0.11566,-0.034728,-0.099103
0.0032964,-0.013103,0.066526,0.036709,0.16375,0.08403,0.41699,0.77992,0.058997,0.27104,-0.61754,0.1047,-0.054735,-0.45596,-0.060374,-0.15337,0.052463,0.022267,0.77482,-0.6251,-0.037565,0.077771,-0.03503,-0.16229
0.0075831,-0.016276,0.070395,0.036132,0.15216,0.071182,0.39022,0.73811,0.055393,0.28404,-0.62278,0.10024,-0.064329,-0.54564,-0.061584,-0.16091,0.058998,0.032579,0.81677,-0.54404,-0.077002,0.0076779,-0.040569,-0.21387
0.01138,-0.019635,0.076041,0.031882,0.13322,0.046099,0.34313,0.6713,0.052664,0.25052,-0.62615,0.10022,-0.076525,-0.60867,-0.063918,-0.16314,0.060504,0.032206,0.82166,-0.47507,-0.11989,-0.053506,-0.049223,-0.25154
0.01261,-0.019822,0.079049,0.03149,0.11045,0.01701,0.27812,0.58438,0.049706,0.16657,-0.6186,0.1043,-0.090775,-0.65655,-0.066873,-0.15781,0.057898,0.016674,0.80016,-0.43076,-0.16184,-0.077549,-0.058272,-0.28057
0.011318,-0.015265,0.077704,0.038495,0.086508,-0.0083549,0.20535,0.48478,0.042658,0.049886,-0.59293,0.10734,-0.10606,-0.6929,-0.070926,-0.14454,0.053616,-0.0090724,0.76637,-0.40047,-0.19888,-0.065278,-0.065817,-0.31206
0.0092462,-0.0077615,0.074325,0.050665,0.062371,-0.027366,0.13896,0.38028,0.028418,-0.077156,-0.55058,0.1016,-0.12021,-0.70915,-0.076064,-0.12443,0.050312,-0.032464,0.73205,-0.36524,-0.22922,-0.040912,-0.07168,-0.35615
0.0080267,-0.0016264,0.072777,0.062942,0.038121,-0.042854,0.091007,0.27829,0.0075939,-0.20094,-0.50201,0.081409,-0.13017,-0.69091,-0.080919,-0.09924,0.049908,-0.041084,0.70245,-0.31372,-0.25346,-0.028705,-0.076919,-0.41397
0.0079157,-0.00082937,0.074557,0.072137,0.014182,-0.05935,0.066285,0.18529,-0.015362,-0.31757,-0.46015,0.047301,-0.13344,-0.62956,-0.083446,-0.071138,0.053401,-0.0308,0.67491,-0.25116,-0.27285,-0.030801,-0.082305,-0.4749
0.0081903,-0.0061869,0.077197,0.079178,-0.0080966,-0.078705,0.060786,0.10523,-0.034769,-0.42537,-0.43233,0.0065775,-0.12962,-0.52959,-0.082478,-0.043511,0.061073,-0.0080328,0.64095,-0.20122,-0.28725,-0.025101,-0.087212,-0.52251
0.0084535,-0.014677,0.076495,0.087278,-0.026956,-0.098815,0.064519,0.03793,-0.046986,-0.51814,-0.41735,-0.029519,-0.1209,-0.40676,-0.07864,-0.021518,0.072467,0.01541,0.59194,-0.20199,-0.29487,0.014145,-0.090069,-0.54615
0.0092588,-0.021336,0.070474,0.098179,-0.041216,-0.11611,0.067184,-0.020199,-0.051924,-0.58482,-0.40939,-0.049132,-0.11111,-0.27958,-0.073784,-0.011056,0.085952,0.03054,0.52582,-0.2948,-0.2943,0.089793,-0.089995,-0.5495
0.011369,-0.02232,0.061379,0.11007,-0.050818,-0.12917,0.06321,-0.072384,-0.051845,-0.61355,-0.40435,-0.041244,-0.1037,-0.16152,-0.069416,-0.015997,0.098359,0.035916,0.4504,-0.50592,-0.28688,0.17244,-0.08793,-0.54877
0.014528,-0.017037,0.05392,0.11888,-0.056506,-0.14015,0.052669,-0.11658,-0.048648,-0.59627,-0.4026,0.0039272,-0.10005,-0.059565,-0.065466,-0.035352,0.10554,0.035888,0.37971,-0.82911,-0.27662,0.21828,-0.086005,-0.56092
0.017156,-0.008172,0.051444,0.12147,-0.059086,-0.15311,0.037364,-0.14356,-0.041954,-0.53157,-0.40634,0.092576,-0.098892,0.021926,-0.060403,-0.062627,0.10408,0.034968,0.32503,-1.2218,-0.26725,0.20172,-0.085667,-0.59084
0.017421,1.8708e-005,0.053535,0.11778,-0.059021,-0.17104,0.015549,-0.14091,-0.02962,-0.42658,-0.41488,0.22199,-0.097389,0.077628,-0.052655,-0.088436,0.093231,0.033605,0.28693,-1.6223,-0.25872,0.13685,-0.086476,-0.62736
0.014795,0.0038621,0.056994,0.11029,-0.056719,-0.19408,-0.019265,-0.10169,-0.010266,-0.29779,-0.42325,0.37582,-0.093133,0.10239,-0.042235,-0.1052,0.075679,0.028346,0.25481,-1.9777,-0.24656,0.069784,-0.086835,-0.65147
0.010722,0.0017398,0.058939,0.10177,-0.053042,-0.21958,-0.07276,-0.032523,0.014394,-0.1692,-0.42574,0.52582,-0.0859,0.095936,-0.031332,-0.11104,0.056001,0.014971,0.21526,-2.2649,-0.22545,0.04665,-0.08588,-0.65044
0.007821,-0.0054802,0.058965,0.093435,-0.049186,-0.24304,-0.14112,0.04489,0.039598,-0.066391,-0.42047,0.64206,-0.077951,0.065968,-0.023263,-0.11026,0.037705,-0.0088156,0.16262,-2.4867,-0.19416,0.081615,-0.08438,-0.62682
0.0081841,-0.014913,0.058488,0.084891,-0.045667,-0.25877,-0.20713,0.10145,0.060081,-0.0081093,-0.41017,0.70647,-0.072564,0.025629,-0.020428,-0.10971,0.020887,-0.042788,0.10339,-2.6498,-0.15779,0.14884,-0.083495,-0.5961
0.011992,-0.022843,0.058264,0.075353,-0.041218,-0.26091,-0.2466,0.1138,0.073053,0.00038623,-0.39748,0.72001,-0.071692,-0.013053,-0.022731,-0.11357,0.0024634,-0.084565,0.050466,-2.7424,-0.12509,0.20288,-0.082591,-0.57587
0.017348,-0.026391,0.056783,0.064786,-0.032988,-0.24581,-0.24254,0.074903,0.079132,-0.031279,-0.37928,0.69758,-0.07443,-0.044505,-0.027674,-0.1202,-0.020931,-0.12938,0.011853,-2.7326,-0.10306,0.20998,-0.078684,-0.57585
0.02142,-0.025066,0.051238,0.054192,-0.018533,-0.21548,-0.19678,-0.0050584,0.080697,-0.082693,-0.346,0.65435,-0.077509,-0.06968,-0.032093,-0.12375,-0.049383,-0.16977,-0.017004,-2.5868,-0.093073,0.16655,-0.068665,-0.59594
0.022127,-0.021181,0.040166,0.045331,0.001608,-0.17938,-0.12936,-0.10821,0.079466,-0.12969,-0.28797,0.59454,-0.077611,-0.091688,-0.034141,-0.11951,-0.078121,-0.19719,-0.050737,-2.2946,-0.091292,0.093843,-0.052582,-0.63248
0.019292,-0.018481,0.02525,0.040406,0.023035,-0.15175,-0.065156,-0.22194,0.07566,-0.15143,-0.20425,0.51194,-0.073887,-0.11137,-0.033921,-0.10893,-0.099211,-0.20597,-0.10312,-1.8789,-0.092292,0.017821,-0.034819,-0.68549
0.014511,-0.019535,0.010528,0.041601,0.039578,-0.14466,-0.01758,-0.34546,0.069267,-0.13605,-0.10658,0.40149,-0.068769,-0.12643,-0.032364,-0.099781,-0.10556,-0.19686,-0.17599,-1.3867,-0.092349,-0.047864,-0.021683,-0.75999
0.009871,-0.023669,-0.00032946,0.050011,0.047155,-0.16115,0.017543,-0.48483,0.061697,-0.084002,-0.014612,0.27138,-0.066394,-0.13401,-0.029557,-0.10078,-0.09481,-0.17665,-0.25645,-0.86828,-0.089879,-0.10448,-0.017227,-0.86
0.006487,-0.027176,-0.0063637,0.064179,0.046364,-0.19388,0.053409,-0.64036,0.055824,-0.0083734,0.054266,0.14427,-0.069713,-0.13393,-0.024205,-0.11484,-0.07082,-0.15339,-0.32423,-0.36291,-0.083726,-0.15953,-0.020884,-0.98032
0.0040135,-0.025956,-0.0094725,0.079545,0.041532,-0.23082,0.096753,-0.79693,0.054195,0.068821,0.093178,0.045284,-0.078391,-0.13004,-0.014817,-0.13638,-0.042172,-0.13129,-0.36371,0.10297,-0.071985,-0.21758,-0.02882,-1.1029
0.0015084,-0.018771,-0.012508,0.090079,0.036938,-0.26388,0.13933,-0.92601,0.057175,0.12376,0.10626,-0.014225,-0.089042,-0.12911,-0.0015407,-0.15537,-0.018528,-0.1099,-0.37237,0.50842,-0.053004,-0.27815,-0.037481,-1.2009
-0.0011277,-0.0086103,-0.017121,0.091683,0.033513,-0.29361,0.164,-0.99971,0.06288,0.13916,0.10237,-0.044287,-0.097625,-0.13816,0.013147,-0.16466,-0.0067644,-0.088406,-0.36047,0.83193,-0.027414,-0.3393,-0.045904,-1.2483
-0.0025085,-0.001016,-0.023013,0.084996,0.028967,-0.32626,0.1602,-1.0075,0.068916,0.11085,0.087933,-0.069206,-0.10221,-0.16123,0.025701,-0.16464,-0.0085898,-0.070424,-0.34356,1.0527,0.0013846,-0.40108,-0.054854,-1.2291
-0.00068218,-0.00050869,-0.028801,0.075065,0.021129,-0.36621,0.13502,-0.96398,0.074229,0.050083,0.064419,-0.11133,-0.10399,-0.19627,0.033808,-0.16126,-0.020599,-0.063897,-0.33339,1.1573,0.029333,-0.46609,-0.064073,-1.1423
0.005008,-0.0077017,-0.033375,0.067544,0.011158,-0.41047,0.11025,-0.90168,0.07939,-0.019807,0.031073,-0.17785,-0.1058,-0.23392,0.037812,-0.15965,-0.03659,-0.075279,-0.33289,1.1459,0.054576,-0.53884,-0.070772,-1.0021
0.012729,-0.019103,-0.0366,0.064049,0.0032837,-0.45022,0.10784,-0.8534,0.08522,-0.071915,-0.011093,-0.25956,-0.10926,-0.26,0.040045,-0.15923,-0.050895,-0.10303,-0.33696,1.034,0.07806,-0.62592,-0.071157,-0.83362
0.018855,-0.029566,-0.039086,0.060226,0.001088,-0.47777,0.13578,-0.83496,0.091148,-0.087164,-0.058326,-0.34027,-0.113,-0.26211,0.042557,-0.15458,-0.060911,-0.13677,-0.33716,0.84931,0.10093,-0.73529,-0.063737,-0.66679
0.020244,-0.035495,-0.041578,0.048163,0.0039102,-0.49265,0.18496,-0.83867,0.094814,-0.063154,-0.10658,-0.40835,-0.11345,-0.23696,0.045142,-0.14097,-0.067471,-0.16352,-0.32686,0.62791,0.12111,-0.87107,-0.051333,-0.5298
0.016377,-0.036623,-0.044525,0.021404,0.0071511,-0.50135,0.23737,-0.84034,0.093362,-0.014292,-0.15417,-0.46135,-0.10782,-0.19351,0.04533,-0.11892,-0.073067,-0.17631,-0.30448,0.40737,0.13277,-1.024,-0.039801,-0.44255
0.0096784,-0.035412,-0.04798,-0.020981,0.0065851,-0.51113,0.27726,-0.81399,0.085706,0.039086,-0.20132,-0.50228,-0.096754,-0.14845,0.040426,-0.093512,-0.079438,-0.17786,-0.27421,0.21795,0.12985,-1.1656,-0.034304,-0.41196
0.0037617,-0.034858,-0.051729,-0.073744,0.0026559,-0.52331,0.29677,-0.74486,0.074391,0.086737,-0.24699,-0.53256,-0.084368,-0.11673,0.029976,-0.069447,-0.086422,-0.17674,-0.24476,0.073074,0.11104,-1.254,-0.036023,-0.43103
0.0010145,-0.03638,-0.055631,-0.12798,0.00030621,-0.53204,0.29493,-0.63343,0.065725,0.13739,-0.28662,-0.54875,-0.075358,-0.10386,0.016653,-0.047076,-0.092778,-0.17946,-0.22717,-0.035036,0.081722,-1.2545,-0.041778,-0.48245
0.0013579,-0.03912,-0.060105,-0.17471,0.0039669,-0.52929,0.27484,-0.49042,0.067445,0.21079,-0.31413,-0.54557,-0.071417,-0.10589,0.0048842,-0.023669,-0.097869,-0.18552,-0.23177,-0.12867,0.051042,-1.1618,-0.04669,-0.54516
0.0029142,-0.040878,-0.066349,-0.20759,0.012202,-0.51151,0.24304,-0.32865,0.084588,0.31601,-0.32718,-0.52214,-0.069928,-0.11637,-0.00169,0.0011698,-0.10233,-0.18894,-0.26488,-0.22788,0.026352,-1.0084,-0.047749,-0.60074
0.0037525,-0.039819,-0.075778,-0.22432,0.01737,-0.48241,0.20991,-0.15849,0.11581,0.43327,-0.33119,-0.48594,-0.066095,-0.13404,-0.0020439,0.021533,-0.10692,-0.18426,-0.32566,-0.33347,0.009909,-0.84972,-0.045615,-0.63659
0.0031935,-0.035748,-0.088689,-0.22695,0.011314,-0.44996,0.18695,0.010763,0.15304,0.51792,-0.33721,-0.45077,-0.056849,-0.16399,0.0021998,0.027434,-0.11071,-0.17123,-0.40466,-0.42268,0.00040422,-0.73255,-0.043486,-0.64581
0.0018182,-0.030189,-0.10316,-0.22097,-0.0075961,-0.42065,0.18061,0.16698,0.18552,0.52982,-0.35462,-0.42989,-0.043377,-0.21135,0.0081369,0.01213,-0.11057,-0.15429,-0.48561,-0.4628,-0.0025213,-0.66908,-0.04405,-0.62532
0.00055913,-0.025361,-0.11548,-0.21288,-0.032404,-0.39596,0.18726,0.29481,0.20615,0.46804,-0.38418,-0.42867,-0.030345,-0.27352,0.013177,-0.021733,-0.10282,-0.13787,-0.55097,-0.4347,0.0046453,-0.63285,-0.046949,-0.57473
-8.5727e-005,-0.022832,-0.12219,-0.2069,-0.05263,-0.37324,0.19514,0.38127,0.21557,0.38065,-0.4183,-0.44163,-0.022594,-0.33855,0.016028,-0.063031,-0.085707,-0.12217,-0.5891,-0.34917,0.027573,-0.57937,-0.048726,-0.49647
-7.6868e-005,-0.022745,-0.12262,-0.20278,-0.062284,-0.3492,0.19288,0.42398,0.22069,0.33497,-0.44909,-0.45593,-0.021965,-0.39199,0.016932,-0.099883,-0.060559,-0.10331,-0.59884,-0.24372,0.06902,-0.47591,-0.045367,-0.39638
0.00064861,-0.024017,-0.11943,-0.19662,-0.063959,-0.32254,0.17778,0.4346,0.22858,0.36506,-0.4776,-0.45991,-0.026496,-0.42666,0.017296,-0.12773,-0.030752,-0.077358,-0.58817,-0.16123,0.12477,-0.31992,-0.035574,-0.28325
0.0024392,-0.025212,-0.11682,-0.18445,-0.065625,-0.29398,0.15676,0.43328,0.24079,0.43555,-0.51557,-0.45142,-0.03215,-0.44693,0.018765,-0.15083,0.00030819,-0.044512,-0.56758,-0.12586,0.18411,-0.13606,-0.022247,-0.16702
0.0055908,-0.025385,-0.11743,-0.16574,-0.073138,-0.26485,0.13928,0.43641,0.25271,0.45296,-0.57659,-0.44051,-0.035404,-0.46343,0.021948,-0.17606,0.030295,-0.0094825,-0.54312,-0.13263,0.23459,0.042391,-0.010903,-0.056444
0.0097378,-0.02444,-0.12061,-0.14389,-0.085061,-0.23597,0.12917,0.44667,0.25843,0.32087,-0.66343,-0.44364,-0.034867,-0.48259,0.025603,-0.20485,0.057581,0.02204,-0.51477,-0.15556,0.26774,0.19219,-0.0060655,0.04239
0.013627,-0.022952,-0.12337,-0.12325,-0.09403,-0.20756,0.1227,0.45269,0.2566,0.001293,-0.76262,-0.47224,-0.03126,-0.4999,0.02721,-0.2306,0.080554,0.04756,-0.4811,-0.16527,0.28217,0.3068,-0.0082277,0.12626
0.015591,-0.021761,-0.12318,-0.10543,-0.093021,-0.17887,0.11404,0.439,0.25178,-0.46056,-0.85186,-0.52334,-0.026365,-0.50266,0.024952,-0.24378,0.097912,0.068828,-0.44547,-0.14194,0.28302,0.39016,-0.013676,0.19417
0.01442,-0.02155,-0.12021,-0.088512,-0.08086,-0.14741,0.10192,0.3984,0.25017,-0.96267,-0.91505,-0.57969,-0.021937,-0.47992,0.019694,-0.23991,0.1097,0.088938,-0.41691,-0.077154,0.27899,0.44603,-0.017298,0.24675
0.010011,-0.022471,-0.11717,-0.069942,-0.06256,-0.10873,0.090826,0.3372,0.25354,-1.4013,-0.95227,-0.6206,-0.01907,-0.43175,0.015075,-0.22321,0.11747,0.10829,-0.40357,0.030773,0.27878,0.47231,-0.016217,0.28639
0.0034195,-0.023843,-0.11703,-0.050283,-0.044962,-0.058903,0.086004,0.26976,0.25713,-1.7161,-0.97626,-0.6354,-0.018012,-0.37068,0.015186,-0.20286,0.12264,0.12318,-0.40408,0.17863,0.28825,0.46402,-0.011506,0.31781
-0.0036628,-0.024193,-0.12067,-0.034001,-0.031955,0.0014037,0.087724,0.20724,0.25325,-1.9005,-0.99832,-0.62888,-0.018252,-0.31534,0.0214,-0.18551,0.12442,0.12846,-0.40507,0.35458,0.30861,0.42115,-0.0067972,0.34816
-0.0096469,-0.021877,-0.12627,-0.025996,-0.023122,0.064371,0.09036,0.15028,0.23726,-1.9833,-1.0165,-0.61327,-0.018872,-0.28185,0.030942,-0.17073,0.11964,0.12198,-0.38833,0.53497,0.33621,0.35453,-0.0051234,0.38567
-0.013636,-0.016149,-0.13093,-0.02674,-0.016003,0.11759,0.086472,0.091188,0.21058,-2.0035,-1.017,-0.5936,-0.019155,-0.27918,0.038527,-0.15298,0.10551,0.10692,-0.3428,0.68965,0.36456,0.28483,-0.0066384,0.43654
-0.015631,-0.0080236,-0.13275,-0.030544,-0.0090418,0.15089,0.071002,0.023654,0.17835,-1.9954,-0.98715,-0.55974,-0.019213,-0.31022,0.039943,-0.12753,0.083053,0.090171,-0.27146,0.79584,0.38772,0.23464,-0.00899,0.50103
-0.016283,-0.00015422,-0.13198,-0.029,-0.0024343,0.16254,0.041551,-0.048519,0.14482,-1.9836,-0.92914,-0.49363,-0.020214,-0.37526,0.034793,-0.094776,0.057769,0.077964,-0.18742,0.85103,0.40306,0.21833,-0.009774,0.57102
-0.016353,0.0044332,-0.13031,-0.017129,0.0033055,0.15952,-0.0039419,-0.11089,0.11095,-1.9801,-0.86029,-0.38659,-0.023977,-0.4737,0.026282,-0.059134,0.036395,0.072443,-0.10272,0.87373,0.41119,0.23618,-0.008767,0.6313
-0.016215,0.0040653,-0.1292,0.0028289,0.0089599,0.15192,-0.067124,-0.14676,0.076499,-1.9795,-0.7994,-0.25141,-0.032178,-0.60244,0.018285,-0.02414,0.022273,0.071595,-0.019705,0.89031,0.41307,0.2765,-0.0079536,0.66523
-0.015792,-0.00053547,-0.12864,0.023226,0.016505,0.14622,-0.14456,-0.14832,0.043583,-1.9591,-0.74988,-0.11738,-0.045667,-0.75298,0.012117,0.011367,0.013639,0.072171,0.067554,0.91749,0.40716,0.32399,-0.0093943,0.66285
-0.01498,-0.0066125,-0.12737,0.036946,0.027379,0.14306,-0.2228,-0.12271,0.017264,-1.8888,-0.69449,-0.01145,-0.064184,-0.90992,0.005647,0.052259,0.0065173,0.072848,0.1634,0.95363,0.38968,0.36839,-0.012907,0.62693
-0.014183,-0.010927,-0.12418,0.042475,0.040881,0.14048,-0.28054,-0.089169,0.0016962,-1.7503,-0.6068,0.058945,-0.086387,-1.0524,-0.0045545,0.10207,-0.00049359,0.075067,0.2618,0.9839,0.35857,0.40681,-0.015694,0.5732
-0.014406,-0.011534,-0.11914,0.043946,0.05425,0.13844,-0.29979,-0.070024,-0.0048005,-1.5481,-0.47077,0.10617,-0.10996,-1.1577,-0.019788,0.15814,-0.0042683,0.081253,0.34741,0.9935,0.31763,0.43902,-0.014365,0.52339
-0.016662,-0.0087026,-0.11376,0.046388,0.064414,0.14011,-0.27878,-0.081393,-0.010602,-1.305,-0.29322,0.14604,-0.13189,-1.2054,-0.037316,0.21106,-0.00012851,0.092352,0.40647,0.97808,0.27647,0.46083,-0.0077316,0.49447
-0.02113,-0.0044846,-0.10989,0.050605,0.069939,0.14899,-0.23522,-0.12845,-0.025728,-1.0429,-0.099493,0.1798,-0.14917,-1.1816,-0.051546,0.24893,0.012954,0.1069,0.43879,0.94542,0.24494,0.4627,0.0019156,0.48999
-0.026791,-0.0012131,-0.10825,0.052298,0.071687,0.16519,-0.19541,-0.20578,-0.054396,-0.76528,0.083404,0.19124,-0.16003,-1.0819,-0.057381,0.26327,0.029983,0.12221,0.4603,0.91075,0.22598,0.43596,0.010153,0.49843
-0.031953,9.723e-005,-0.10789,0.046234,0.07176,0.18423,-0.17699,-0.30055,-0.091201,-0.45536,0.24297,0.16208,-0.16474,-0.91324,-0.053136,0.25289,0.042943,0.13634,0.49334,0.89159,0.21274,0.3818,0.013435,0.49931
-0.035303,0.00036656,-0.10698,0.031779,0.071603,0.1989,-0.17933,-0.3961,-0.1242,-0.091872,0.38448,0.092156,-0.16524,-0.6925,-0.040907,0.22349,0.046721,0.14895,0.552,0.90422,0.19303,0.31494,0.011557,0.47326
-0.036641,0.0015647,-0.10415,0.014856,0.070611,0.20241,-0.18937,-0.47579,-0.14267,0.32904,0.52021,0.0063981,-0.16323,-0.44209,-0.024492,0.18426,0.042697,0.16037,0.63388,0.9597,0.15804,0.25837,0.0078547,0.41077
-0.036701,0.0048602,-0.099266,0.0044061,0.066211,0.19082,-0.19663,-0.52744,-0.14385,0.78053,0.65416,-0.058409,-0.15823,-0.18287,-0.0069141,0.1436,0.03691,0.17019,0.72429,1.0574,0.10887,0.23226,0.0071374,0.31577
-0.03629,0.0091946,-0.093022,0.0060564,0.055412,0.16423,-0.20348,-0.54707,-0.13391,1.209,0.77518,-0.077077,-0.14748,0.071635,0.010364,0.10632,0.034693,0.1768,0.80852,1.1799,0.055941,0.24488,0.012898,0.20393
-0.035576,0.01155,-0.085993,0.017983,0.03689,0.12692,-0.22176,-0.53938,-0.12324,1.5539,0.86393,-0.051681,-0.12821,0.31659,0.02628,0.072819,0.036732,0.17862,0.88174,1.2962,0.012281,0.29069,0.025635,0.097424
-0.034165,0.008973,-0.078158,0.032114,0.012262,0.08604,-0.26036,-0.5132,-0.11985,1.7735,0.90836,-0.0083147,-0.10085,0.55176,0.038746,0.040653,0.039861,0.17573,0.94913,1.3758,-0.014105,0.3549,0.043088,0.018257
-0.031877,0.00096875,-0.06928,0.039503,-0.014433,0.048617,-0.31653,-0.47419,-0.12542,1.8645,0.91523,0.021032,-0.069882,0.77407,0.044901,0.0075632,0.041265,0.17036,1.0177,1.4062,-0.02364,0.42038,0.06185,-0.018308
-0.029413,-0.0095639,-0.05955,0.035609,-0.038913,0.018271,-0.37931,-0.42064,-0.13582,1.8639,0.90843,0.017124,-0.0413,0.97165,0.043251,-0.025158,0.041669,0.16552,1.0881,1.399,-0.023254,0.47291,0.079122,-0.0088919
-0.02822,-0.017678,-0.049643,0.021733,-0.059198,-0.005929,-0.44097,-0.34659,-0.14494,1.8294,0.91434,-0.019703,-0.018219,1.1237,0.035845,-0.051286,0.044455,0.16303,1.154,1.3795,-0.021884,0.50436,0.093643,0.036512
-0.029543,-0.019135,-0.040101,0.0022963,-0.076801,-0.027167,-0.50447,-0.25078,-0.14877,1.8082,0.94497,-0.076024,0.0013803,1.208,0.028135,-0.062029,0.051805,0.16266,1.2075,1.3637,-0.026835,0.51418,0.10559,0.09855
-0.033397,-0.012713,-0.030782,-0.019064,-0.095631,-0.046984,-0.57916,-0.14411,-0.14752,1.8129,0.99123,-0.13686,0.022387,1.2125,0.02592,-0.051763,0.061925,0.1632,1.246,1.3454,-0.042417,0.50886,0.11577,0.15753
-0.0383,-0.00066582,-0.021075,-0.041199,-0.1192,-0.063497,-0.66843,-0.048611,-0.14503,1.8211,1.0313,-0.19293,0.047388,1.1448,0.031352,-0.023782,0.070184,0.1643,1.2727,1.3029,-0.070146,0.49847,0.12473,0.20348
-0.042048,0.012735,-0.010687,-0.064019,-0.14786,-0.073677,-0.76092,0.012677,-0.1467,1.7997,1.0472,-0.24073,0.073222,1.0322,0.041139,0.0083634,0.073138,0.16739,1.2932,1.2222,-0.10947,0.49065,0.13214,0.24158
-0.042986,0.02349,-0.00012204,-0.085917,-0.17791,-0.077438,-0.83404,0.027932,-0.15693,1.7353,1.0372,-0.27919,0.092744,0.91119,0.048673,0.026113,0.071624,0.17459,1.3107,1.1165,-0.1586,0.48611,0.13691,0.2888
-0.04089,0.029658,0.0097044,-0.10279,-0.20301,-0.079084,-0.86754,0.0021117,-0.17757,1.6465,1.0131,-0.30796,0.10068,0.81034,0.048799,0.015383,0.07004,0.18659,1.3259,1.0231,-0.21531,0.47957,0.13798,0.36319
-0.036875,0.031869,0.018262,-0.10961,-0.21729,-0.083983,-0.85638,-0.047362,-0.20741,1.5684,0.98789,-0.32803,0.098452,0.73837,0.041677,-0.025419,0.072504,0.20148,1.3392,0.97866,-0.27699,0.46632,0.13541,0.47162
-0.032474,0.032505,0.025694,-0.10314,-0.21833,-0.093171,-0.813,-0.10026,-0.24256,1.5233,0.96277,-0.34152,0.09346,0.68315,0.03268,-0.084027,0.079362,0.21561,1.3523,0.99413,-0.33947,0.44891,0.13083,0.6035
-0.028636,0.03406,0.032273,-0.083333,-0.2084,-0.10112,-0.75777,-0.1409,-0.27718,1.501,0.92704,-0.34822,0.093168,0.62299,0.028187,-0.14053,0.087,0.22562,1.3666,1.0482,-0.39539,0.4375,0.12665,0.73425
-0.025342,0.037551,0.037744,-0.052684,-0.19327,-0.09933,-0.70595,-0.15932,-0.30436,1.4644,0.87038,-0.34099,0.099144,0.54204,0.030391,-0.17724,0.090787,0.22997,1.3799,1.104,-0.43432,0.44251,0.12423,0.8364
-0.021979,0.041872,0.041482,-0.014397,-0.17937,-0.082917,-0.66075,-0.14898,-0.31758,1.3734,0.79702,-0.30561,0.10633,0.44013,0.035211,-0.1864,0.088344,0.22859,1.385,1.1326,-0.446,0.46553,0.12251,0.89163
-0.018002,0.044573,0.043441,0.028777,-0.17073,-0.054593,-0.61654,-0.1061,-0.31281,1.2083,0.72895,-0.22791,0.10816,0.33223,0.035066,-0.17173,0.080435,0.22128,1.3722,1.1231,-0.42543,0.49662,0.11854,0.89719
-0.01331,0.043652,0.044855,0.074312,-0.16763,-0.022586,-0.56774,-0.032601,-0.29086,0.97659,0.6943,-0.10459,0.10284,0.23961,0.024524,-0.14404,0.069234,0.2066,1.3331,1.0764,-0.37616,0.5208,0.10999,0.86413
-0.00819,0.039109,0.047655,0.11904,-0.16762,0.0054152,-0.5153,0.061029,-0.25818,0.70432,0.70951,0.050304,0.095272,0.17943,0.0044573,-0.11439,0.056064,0.18274,1.2647,0.99288,-0.30892,0.52814,0.097925,0.80986
-0.0030891,0.033028,0.052866,0.15893,-0.16813,0.027019,-0.46608,0.15787,-0.22493,0.42329,0.76905,0.20925,0.093149,0.15769,-0.018538,-0.088969,0.040776,0.14979,1.1707,0.87114,-0.23661,0.51873,0.087231,0.75019
0.0014664,0.027986,0.059465,0.18996,-0.16867,0.045026,-0.42699,0.24237,-0.20041,0.16343,0.84982,0.3437,0.10079,0.16743,-0.036936,-0.068091,0.023028,0.11149,1.0625,0.71786,-0.16943,0.49893,0.083591,0.69464
0.0048351,0.025035,0.064921,0.20959,-0.171,0.063726,-0.39988,0.30828,-0.18834,-0.04912,0.92572,0.43658,0.11618,0.19143,-0.047437,-0.048813,0.0038667,0.074521,0.95698,0.55669,-0.11354,0.47352,0.088948,0.64606
0.0063867,0.022959,0.067165,0.21762,-0.17696,0.085897,-0.38141,0.35973,-0.18527,-0.19334,0.98051,0.48692,0.13326,0.20867,-0.052449,-0.028966,-0.014047,0.045298,0.87148,0.42258,-0.072792,0.44197,0.099212,0.60281
