-5.0741e-010,1.8386e-009,-8.1996e-010,1.256e-009,-1.1479e-009,2.1319e-009,3.0811e-009,-5.1898e-010,3.4091e-009,5.4889e-009,1.0069e-008,3.8412e-009,-5.267e-010,-1.2405e-009,9.6658e-010,6.849e-010,5.5371e-010,-2.6431e-010,-9.0484e-010,2.6335e-009,-7.8523e-010,2.1898e-009,2.4444e-009,3.9551e-010
-1.4122e-008,5.1314e-008,-2.2095e-008,3.463e-008,-3.1548e-008,5.8383e-008,8.5077e-008,-1.4473e-008,9.4476e-008,1.5046e-007,2.7817e-007,1.064e-007,-1.4786e-008,-3.418e-008,2.6988e-008,1.8591e-008,1.5197e-008,-7.5895e-009,-2.5301e-008,7.255e-008,-2.1757e-008,6.1202e-008,6.7224e-008,1.1956e-008
-1.911e-007,6.9588e-007,-2.8858e-007,4.6415e-007,-4.2068e-007,7.7647e-007,1.1423e-006,-1.9639e-007,1.2732e-006,2.003e-006,3.7351e-006,1.4331e-006,-2.0142e-007,-4.5789e-007,3.6614e-007,2.451e-007,2.0235e-007,-1.0559e-007,-3.4496e-007,9.709e-007,-2.9285e-007,8.3176e-007,8.9926e-007,1.7638e-007
-1.6752e-006,6.1087e-006,-2.4325e-006,4.0289e-006,-3.6257e-006,6.6811e-006,9.9357e-006,-1.7279e-006,1.1118e-005,1.7248e-005,3.2475e-005,1.2505e-005,-1.7735e-006,-3.974e-006,3.215e-006,2.091e-006,1.7406e-006,-9.4839e-007,-3.0568e-006,8.4079e-006,-2.551e-006,7.3234e-006,7.7968e-006,1.6936e-006
-1.0693e-005,3.9008e-005,-1.4859e-005,2.5456e-005,-2.2696e-005,4.18e-005,6.293e-005,-1.1081e-005,7.0705e-005,0.00010795,0.00020548,7.9453e-005,-1.1342e-005,-2.5123e-005,2.053e-005,1.2975e-005,1.0865e-005,-6.1795e-006,-1.9796e-005,5.2947e-005,-1.616e-005,4.6955e-005,4.9254e-005,1.1906e-005
-5.2947e-005,0.00019303,-7.0015e-005,0.00012473,-0.00010991,0.0002026,0.00030925,-5.5187e-005,0.00034894,0.00052297,0.0010081,0.00039169,-5.6106e-005,-0.0001233,0.00010155,6.2395e-005,5.2393e-005,-3.1117e-005,-9.9898e-005,0.00025827,-7.9293e-005,0.00023358,0.00024162,6.5374e-005
-0.00021159,0.00076982,-0.00026426,0.00049298,-0.00042828,0.00079127,0.0012266,-0.0002221,0.0013903,0.0020385,0.0039882,0.0015586,-0.00022323,-0.0004889,0.00040458,0.00024189,0.0002028,-0.00012594,-0.00040888,0.0010148,-0.00031336,0.00093786,0.0009577,0.00029199
-0.0007007,0.0025398,-0.00081854,0.0016137,-0.0013782,0.0025571,0.0040323,-0.00074175,0.0045925,0.0065593,0.013063,0.005141,-0.00073296,-0.0016093,0.0013324,0.00077631,0.00064608,-0.00042052,-0.001395,0.0032971,-0.0010234,0.0031206,0.003151,0.001091
-0.001959,0.0070587,-0.0021121,0.0044556,-0.0037298,0.0069649,0.011192,-0.0020946,0.012815,0.017721,0.036082,0.014322,-0.0020211,-0.004483,0.0036922,0.002101,0.0017219,-0.0011795,-0.004045,0.0090171,-0.0028111,0.0087649,0.0087712,0.0034797
-0.0046845,0.016733,-0.0045739,0.01051,-0.0085953,0.016201,0.026574,-0.0050685,0.030606,0.040638,0.085113,0.034155,-0.0047349,-0.010719,0.0087136,0.0048582,0.0038773,-0.0028144,-0.010113,0.021016,-0.0065693,0.02105,0.020947,0.0096199
-0.0096693,0.03411,-0.008309,0.021363,-0.017009,0.03248,0.054469,-0.010609,0.063153,0.079517,0.17293,0.070391,-0.0094885,-0.022226,0.017647,0.0096835,0.007406,-0.0057613,-0.022029,0.042073,-0.013149,0.04361,0.043358,0.023326
-0.017327,0.060058,-0.012506,0.0376,-0.029039,0.056457,0.096937,-0.019331,0.11325,0.13263,0.30414,0.12621,-0.016302,-0.040266,0.030771,0.016729,0.011967,-0.010173,-0.042139,0.072634,-0.022584,0.078348,0.078366,0.05007
-0.027031,0.091395,-0.015029,0.057379,-0.042841,0.085359,0.15022,-0.030775,0.17702,0.18663,0.46362,0.19772,-0.023945,-0.064054,0.046141,0.025102,0.016148,-0.015543,-0.071171,0.10812,-0.033165,0.12232,0.12435,0.095851
-0.036722,0.11979,-0.012834,0.075705,-0.054508,0.11233,0.20273,-0.042874,0.24121,0.21513,0.61099,0.27139,-0.02978,-0.089708,0.059063,0.032673,0.017596,-0.020596,-0.10652,0.13808,-0.041148,0.16579,0.17392,0.16463
-0.043351,0.13406,-0.0035729,0.085635,-0.059486,0.12844,0.2377,-0.05226,0.2856,0.18658,0.69095,0.32724,-0.03072,-0.11066,0.063424,0.03669,0.014106,-0.023799,-0.14159,0.14952,-0.04198,0.19427,0.21521,0.25493
-0.044369,0.12622,0.012305,0.081624,-0.055208,0.12719,0.24129,-0.055724,0.29199,0.081037,0.6612,0.3486,-0.025229,-0.12003,0.054995,0.035182,0.0053241,-0.024396,-0.16739,0.13424,-0.033031,0.19563,0.23697,0.35737
-0.039538,0.098105,0.030585,0.063345,-0.043214,0.1088,0.21207,-0.052178,0.25551,-0.093043,0.52367,0.33358,-0.01514,-0.11412,0.034934,0.028378,-0.0061771,-0.023238,-0.17646,0.096116,-0.016291,0.1689,0.23522,0.45508
-0.031716,0.063065,0.044973,0.037068,-0.028777,0.080852,0.16481,-0.043727,0.19051,-0.29535,0.33486,0.29937,-0.0055017,-0.095057,0.010567,0.019056,-0.015804,-0.02236,-0.16708,0.051959,0.001431,0.12814,0.21678,0.52806
-0.025554,0.039461,0.05107,0.012753,-0.017662,0.053888,0.12342,-0.034666,0.12445,-0.47071,0.17949,0.2733,-0.0016829,-0.070556,-0.0083488,0.011297,-0.019938,-0.02304,-0.14503,0.023162,0.012071,0.09594,0.19636,0.56
-0.024543,0.038717,0.049906,-0.0018481,-0.012244,0.034893,0.10608,-0.028718,0.081856,-0.5784,0.11888,0.27483,-0.0052697,-0.050656,-0.016257,0.008347,-0.019129,-0.023597,-0.12088,0.022213,0.011944,0.088744,0.18785,0.54459
-0.028428,0.056583,0.047807,-0.0058862,-0.010231,0.023657,0.11279,-0.026509,0.068778,-0.61401,0.14979,0.30103,-0.01199,-0.042958,-0.016716,0.011153,-0.018714,-0.019163,-0.10412,0.043923,0.005196,0.10413,0.19577,0.48793
-0.033168,0.075432,0.051856,-0.0051365,-0.0072751,0.015053,0.12583,-0.025473,0.069855,-0.60723,0.20771,0.32812,-0.014017,-0.049072,-0.021209,0.018645,-0.025565,-0.0047051,-0.097783,0.068984,0.0015658,0.12136,0.21297,0.40628
-0.033823,0.077225,0.064157,-0.0067827,-0.0012367,0.0049832,0.12373,-0.022515,0.060865,-0.59682,0.21585,0.32927,-0.0055788,-0.06407,-0.04167,0.02931,-0.042842,0.020146,-0.097607,0.078107,0.0092681,0.11708,0.22646,0.32023
-0.028286,0.057386,0.079819,-0.013569,0.0058782,-0.0056246,0.098254,-0.017222,0.027386,-0.60242,0.14319,0.29507,0.012405,-0.079014,-0.081614,0.042375,-0.066762,0.048321,-0.096076,0.065935,0.028287,0.084859,0.2268,0.2481
-0.018839,0.028007,0.090833,-0.022264,0.010154,-0.012432,0.060355,-0.012567,-0.02511,-0.61447,0.025087,0.24018,0.03272,-0.085056,-0.13244,0.057323,-0.088276,0.067878,-0.088146,0.043555,0.049825,0.041911,0.21403,0.20061
-0.010182,0.0073298,0.092809,-0.027536,0.0099513,-0.013003,0.030422,-0.012137,-0.077318,-0.60747,-0.06958,0.19049,0.047326,-0.077042,-0.17796,0.072343,-0.098798,0.069338,-0.074042,0.027888,0.062862,0.01601,0.19605,0.17827
-0.0055859,0.0044092,0.088576,-0.027441,0.0078156,-0.010177,0.021236,-0.016209,-0.11234,-0.56223,-0.095884,0.16208,0.053402,-0.05502,-0.20403,0.083737,-0.095758,0.052813,-0.057358,0.027229,0.062652,0.022375,0.18171,0.17237
-0.0044741,0.01233,0.085264,-0.025338,0.0081453,-0.009881,0.02841,-0.020479,-0.12801,-0.47701,-0.0661,0.14993,0.054736,-0.023177,-0.20654,0.087732,-0.083865,0.02912,-0.040872,0.035123,0.054038,0.050387,0.17438,0.17008
-0.0034174,0.01574,0.087464,-0.026524,0.013033,-0.015622,0.035947,-0.019155,-0.13573,-0.36049,-0.032877,0.13528,0.0573,0.012859,-0.19225,0.08365,-0.071455,0.013222,-0.024213,0.036922,0.046855,0.072218,0.17086,0.16225
0.0005386,0.0054465,0.092911,-0.032953,0.020579,-0.025415,0.030984,-0.010013,-0.14826,-0.217,-0.040959,0.10406,0.063185,0.048516,-0.17274,0.075532,-0.065051,0.014476,-0.0051273,0.022306,0.047543,0.0664,0.16533,0.15009
0.0072907,-0.013486,0.094826,-0.041116,0.027375,-0.034435,0.014069,0.0031857,-0.16839,-0.040994,-0.091555,0.05962,0.068599,0.081121,-0.15633,0.070048,-0.066183,0.030938,0.017749,-0.0073188,0.054282,0.035703,0.15457,0.1455
0.014019,-0.027376,0.088681,-0.045086,0.032414,-0.040583,-0.0037062,0.013519,-0.18802,0.17291,-0.14842,0.019046,0.06775,0.10921,-0.14404,0.071772,-0.072079,0.051768,0.043913,-0.042013,0.059579,0.0035278,0.14009,0.16319
0.017821,-0.027454,0.076827,-0.041811,0.038135,-0.046904,-0.012844,0.016837,-0.19707,0.41394,-0.17528,-0.0020636,0.058809,0.13189,-0.13148,0.0796,-0.078661,0.065284,0.072459,-0.072776,0.05748,-0.0077527,0.12606,0.20866
0.018044,-0.018152,0.066512,-0.03373,0.047352,-0.058018,-0.014768,0.015571,-0.19284,0.64943,-0.16776,-0.0020426,0.046111,0.14956,-0.11403,0.0876,-0.083076,0.066137,0.1033,-0.0982,0.048746,0.0030765,0.1151,0.27086
0.016369,-0.012347,0.063262,-0.026448,0.059364,-0.074113,-0.019723,0.016767,-0.18144,0.83698,-0.15226,0.0076849,0.03646,0.16504,-0.09082,0.089898,-0.084329,0.056786,0.13568,-0.12297,0.039612,0.015303,0.10547,0.32598
0.015049,-0.018558,0.066051,-0.023833,0.069584,-0.089042,-0.03598,0.025814,-0.17083,0.94665,-0.15704,0.014188,0.033106,0.18276,-0.064738,0.08562,-0.082648,0.043832,0.16521,-0.15087,0.035802,0.0049141,0.0917,0.35106
0.015302,-0.032819,0.068823,-0.025108,0.07342,-0.095103,-0.061151,0.041349,-0.16273,0.97617,-0.18539,0.0135,0.033205,0.20501,-0.039738,0.07962,-0.078916,0.033491,0.18395,-0.17939,0.037519,-0.034577,0.068231,0.33809
0.017227,-0.043199,0.066595,-0.026399,0.070547,-0.090175,-0.083903,0.05591,-0.15102,0.94809,-0.21527,0.010663,0.03104,0.22768,-0.018587,0.078258,-0.074598,0.02955,0.18571,-0.20083,0.039703,-0.087329,0.033417,0.2984
0.020688,-0.042359,0.059943,-0.024987,0.065075,-0.080096,-0.094051,0.061924,-0.12782,0.89165,-0.22234,0.010929,0.023623,0.24013,-0.0029038,0.083671,-0.071526,0.03349,0.17303,-0.20815,0.036721,-0.12931,-0.0091677,0.25437
0.025654,-0.035479,0.053549,-0.022105,0.061314,-0.07364,-0.091184,0.057872,-0.091372,0.82412,-0.20254,0.011948,0.013143,0.23154,0.00566,0.091292,-0.070962,0.044524,0.15871,-0.20008,0.026853,-0.14749,-0.053134,0.22525
0.031416,-0.035367,0.05059,-0.021687,0.05955,-0.074792,-0.084004,0.049454,-0.049024,0.74502,-0.17307,0.0049432,0.0041112,0.19979,0.0055823,0.092685,-0.07244,0.058927,0.15802,-0.18142,0.012787,-0.14718,-0.093578,0.21744
0.03584,-0.049315,0.048972,-0.026346,0.056346,-0.079785,-0.081911,0.044978,-0.012873,0.64573,-0.15387,-0.016482,-0.0015052,0.15592,-0.0023149,0.081482,-0.073595,0.070546,0.1766,-0.15903,-0.001459,-0.14323,-0.12971,0.22535
0.036185,-0.07068,0.043454,-0.034386,0.049186,-0.081626,-0.087514,0.049039,0.008043,0.52414,-0.14938,-0.048692,-0.0059334,0.11934,-0.012928,0.057844,-0.071561,0.074064,0.20438,-0.1377,-0.013562,-0.14572,-0.16356,0.23947
0.031419,-0.083974,0.031537,-0.040749,0.0404,-0.077364,-0.096806,0.059652,0.012849,0.39154,-0.14823,-0.07902,-0.012373,0.10725,-0.018317,0.028225,-0.065053,0.069143,0.22218,-0.11909,-0.023055,-0.15406,-0.19603,0.25382
0.023985,-0.079111,0.016982,-0.041207,0.035796,-0.070776,-0.1053,0.070646,0.0076642,0.26627,-0.13947,-0.094771,-0.020487,0.12665,-0.012784,0.00089573,-0.055468,0.061102,0.21675,-0.10364,-0.029379,-0.16311,-0.22433,0.26643
0.018884,-0.061312,0.0069988,-0.036189,0.038836,-0.068016,-0.11265,0.076793,-0.00033448,0.16069,-0.12803,-0.092437,-0.025721,0.17512,0.0022442,-0.019225,-0.046059,0.056142,0.19178,-0.092451,-0.03097,-0.17223,-0.24388,0.27428
0.020136,-0.046972,0.005529,-0.030841,0.046262,-0.071051,-0.121,0.077365,-0.0086602,0.072835,-0.13391,-0.079582,-0.023648,0.24777,0.018319,-0.03276,-0.039798,0.054723,0.1652,-0.087159,-0.027105,-0.18629,-0.25328,0.2687
0.027351,-0.049065,0.0091995,-0.031076,0.050174,-0.075861,-0.13007,0.075776,-0.020719,-0.010474,-0.17596,-0.068505,-0.01517,0.34199,0.026128,-0.043955,-0.037528,0.049892,0.15459,-0.087911,-0.020573,-0.20769,-0.25736,0.23682
0.03553,-0.065703,0.010195,-0.038764,0.045203,-0.077102,-0.13581,0.07633,-0.041911,-0.10245,-0.25552,-0.067487,-0.0071231,0.45405,0.02322,-0.056635,-0.037548,0.033543,0.1633,-0.092067,-0.017482,-0.22937,-0.26437,0.16829
0.038738,-0.082477,0.0035942,-0.049971,0.033957,-0.074006,-0.13511,0.080993,-0.07404,-0.20641,-0.3547,-0.076574,-0.0071194,0.57102,0.016701,-0.071289,-0.036563,0.0057234,0.1794,-0.095253,-0.022963,-0.23834,-0.27907,0.061943
0.034897,-0.086157,-0.0078191,-0.057668,0.025052,-0.070929,-0.13126,0.088393,-0.11255,-0.31399,-0.44977,-0.09029,-0.01717,0.66812,0.018122,-0.085282,-0.031077,-0.022187,0.18779,-0.094139,-0.036071,-0.22773,-0.29811,-0.073463
0.02769,-0.076742,-0.016059,-0.056744,0.025111,-0.0718,-0.133,0.09509,-0.14863,-0.41074,-0.52688,-0.1039,-0.032056,0.71784,0.034472,-0.095565,-0.018533,-0.034932,0.18441,-0.088477,-0.049042,-0.20528,-0.31275,-0.22523
0.023831,-0.066753,-0.015611,-0.047362,0.032234,-0.074583,-0.14646,0.097672,-0.17434,-0.48283,-0.58671,-0.1177,-0.044005,0.70618,0.06278,-0.10144,0.0018902,-0.026,0.1796,-0.080581,-0.052707,-0.18802,-0.317,-0.38476
0.027781,-0.068905,-0.0090771,-0.034204,0.037414,-0.072286,-0.16776,0.094247,-0.18676,-0.52016,-0.63586,-0.13633,-0.04927,0.6428,0.092802,-0.10519,0.028776,-0.0040736,0.18824,-0.072791,-0.044002,-0.18699,-0.31358,-0.5511
0.038183,-0.084039,-0.0053433,-0.022558,0.032839,-0.060302,-0.18466,0.084957,-0.18834,-0.51681,-0.67534,-0.1643,-0.050473,0.55586,0.11522,-0.11015,0.058642,0.013322,0.21638,-0.065252,-0.028864,-0.19644,-0.31133,-0.72683
0.048876,-0.10035,-0.011822,-0.01459,0.019319,-0.042766,-0.18702,0.071896,-0.18404,-0.47225,-0.69752,-0.20173,-0.052798,0.47404,0.1281,-0.11807,0.087306,0.014039,0.25635,-0.055975,-0.017434,-0.19912,-0.31627,-0.90965
0.053548,-0.10397,-0.027884,-0.0086858,0.0057532,-0.030744,-0.17662,0.058689,-0.17792,-0.39383,-0.69396,-0.24326,-0.058091,0.40961,0.13631,-0.12779,0.11217,0.00092641,0.2938,-0.042917,-0.015514,-0.18352,-0.32509,-1.0863
0.050175,-0.090634,-0.045506,-0.00194,0.0010634,-0.032803,-0.16641,0.049485,-0.17159,-0.29652,-0.66502,-0.28071,-0.062856,0.3553,0.1453,-0.13633,0.13396,-0.011777,0.31826,-0.025952,-0.01995,-0.15685,-0.32833,-1.2343
0.041804,-0.067984,-0.056413,0.0067439,0.0061854,-0.046445,-0.1691,0.047178,-0.16451,-0.19614,-0.62101,-0.30749,-0.062072,0.29586,0.15556,-0.14142,0.15618,-0.011751,0.32693,-0.0068612,-0.022274,-0.14028,-0.32086,-1.3317
0.03347,-0.047739,-0.059038,0.015692,0.013543,-0.058891,-0.18558,0.051548,-0.15459,-0.098844,-0.57282,-0.32218,-0.054895,0.22345,0.16287,-0.14327,0.18194,0.00075123,0.31933,0.012511,-0.017332,-0.15011,-0.30943,-1.3678
0.028199,-0.036102,-0.05904,0.022223,0.014242,-0.057364,-0.20391,0.05879,-0.13856,0.0040531,-0.52076,-0.3298,-0.046351,0.1438,0.16344,-0.14419,0.21044,0.01451,0.29102,0.031946,-0.0088443,-0.18194,-0.30874,-1.3482
0.025494,-0.031323,-0.063364,0.025228,0.0060074,-0.039958,-0.20994,0.063456,-0.11284,0.12912,-0.45269,-0.34025,-0.0431,0.069281,0.15822,-0.1463,0.23583,0.019005,0.23543,0.05255,-0.0065748,-0.21311,-0.32839,-1.2904
0.023165,-0.029139,-0.073795,0.026098,-0.0054549,-0.017223,-0.19977,0.061979,-0.075966,0.28556,-0.35435,-0.3641,-0.047227,0.006849,0.15226,-0.14955,0.25023,0.014457,0.15366,0.074681,-0.017586,-0.22134,-0.36278,-1.2139
0.020343,-0.028918,-0.086019,0.027253,-0.012447,-0.0028255,-0.18253,0.055268,-0.031318,0.46462,-0.22342,-0.40659,-0.05405,-0.047755,0.15011,-0.15166,0.24904,0.010566,0.061866,0.096231,-0.039585,-0.20299,-0.39429,-1.1305
0.018652,-0.03357,-0.094549,0.029861,-0.012468,-0.0016653,-0.17137,0.048077,0.012709,0.6441,-0.074916,-0.46216,-0.056066,-0.10479,0.15241,-0.15028,0.23447,0.015548,-0.013977,0.11325,-0.062466,-0.17437,-0.4082,-1.0423
0.020517,-0.043874,-0.098235,0.033009,-0.0098278,-0.0060946,-0.17152,0.045277,0.04695,0.80521,0.06747,-0.51321,-0.0493,-0.17015,0.15697,-0.1455,0.2144,0.026663,-0.054632,0.12266,-0.076569,-0.15595,-0.40599,-0.9462
0.026441,-0.054494,-0.10095,0.035075,-0.010774,-0.0033766,-0.17642,0.047893,0.067869,0.94656,0.18709,-0.53589,-0.036202,-0.23997,0.16262,-0.14034,0.19706,0.031812,-0.062041,0.12464,-0.080128,-0.15451,-0.40423,-0.84115
0.034032,-0.057303,-0.10718,0.035828,-0.017454,0.01278,-0.1749,0.052235,0.080867,1.0818,0.28405,-0.51209,-0.022763,-0.30492,0.17104,-0.13866,0.18566,0.020729,-0.057946,0.12222,-0.079374,-0.15944,-0.41902,-0.73266
0.039769,-0.049458,-0.11742,0.037058,-0.026583,0.037138,-0.16205,0.052979,0.096713,1.2221,0.371,-0.44152,-0.013183,-0.35957,0.18406,-0.14207,0.17709,-0.0052106,-0.066041,0.1183,-0.081825,-0.15494,-0.45,-0.631
0.041733,-0.037638,-0.12797,0.041005,-0.033457,0.058311,-0.14312,0.04764,0.12298,1.359,0.45953,-0.34585,-0.0073643,-0.40749,0.1995,-0.14842,0.16582,-0.034157,-0.09203,0.11259,-0.089453,-0.13542,-0.47886,-0.54576
0.040654,-0.032891,-0.1352,0.048039,-0.036561,0.068751,-0.12743,0.038563,0.1573,1.4644,0.5495,-0.26047,-0.0031671,-0.45773,0.21054,-0.15331,0.14947,-0.054592,-0.11889,0.10169,-0.09799,-0.10915,-0.48451,-0.48164
0.038415,-0.040093,-0.13959,0.055799,-0.037999,0.069796,-0.1186,0.030693,0.18843,1.508,0.63028,-0.21757,-0.00026416,-0.51666,0.21064,-0.15336,0.13154,-0.065003,-0.12205,0.082427,-0.1023,-0.087975,-0.46127,-0.43915
0.035784,-0.052323,-0.14535,0.060683,-0.039856,0.06792,-0.11117,0.027131,0.20462,1.4775,0.69128,-0.23056,-0.0010284,-0.58369,0.19956,-0.14867,0.11886,-0.073016,-0.092199,0.055664,-0.10182,-0.074685,-0.42322,-0.41938
0.031831,-0.05656,-0.15617,0.060442,-0.04108,0.067225,-0.096838,0.026441,0.20238,1.3841,0.73075,-0.28896,-0.0075115,-0.65443,0.18439,-0.14265,0.11599,-0.08536,-0.046423,0.027066,-0.10033,-0.061106,-0.39061,-0.42797
0.02559,-0.046173,-0.17126,0.055753,-0.038632,0.066274,-0.073998,0.02411,0.18812,1.2495,0.75404,-0.36571,-0.018184,-0.72707,0.17365,-0.13937,0.12121,-0.099289,-0.018467,0.0039716,-0.10061,-0.038604,-0.3711,-0.47301
0.018027,-0.028326,-0.18578,0.049647,-0.031715,0.061877,-0.050721,0.016807,0.17143,1.0874,0.76391,-0.43062,-0.028602,-0.80403,0.16948,-0.14084,0.12759,-0.10451,-0.035698,-0.0090725,-0.09981,-0.0096488,-0.35361,-0.55641
0.011957,-0.018506,-0.19506,0.045457,-0.024137,0.054694,-0.037701,0.0055608,0.15644,0.89797,0.7538,-0.46163,-0.035848,-0.88668,0.16529,-0.14635,0.12831,-0.093904,-0.10082,-0.01229,-0.090967,0.012236,-0.32072,-0.66432
0.009703,-0.026439,-0.19853,0.044876,-0.021628,0.049798,-0.037875,-0.0049592,0.13896,0.67755,0.7124,-0.4494,-0.042065,-0.96886,0.15183,-0.15401,0.12197,-0.072143,-0.19127,-0.0087266,-0.069629,0.015185,-0.2673,-0.76498
0.010798,-0.04631,-0.19968,0.047294,-0.026331,0.0514,-0.04309,-0.010384,0.11178,0.43501,0.63623,-0.39685,-0.052786,-1.0369,0.12619,-0.16262,0.11355,-0.053275,-0.27465,-0.00056917,-0.038949,0.0022805,-0.20736,-0.81849
0.012193,-0.060794,-0.20237,0.050508,-0.034122,0.057837,-0.04155,-0.010264,0.072726,0.19518,0.53806,-0.31679,-0.070964,-1.0778,0.095423,-0.17206,0.11007,-0.049047,-0.32711,0.012517,-0.0077984,-0.0082153,-0.16222,-0.79498
0.011003,-0.055793,-0.20707,0.052143,-0.038047,0.063007,-0.029079,-0.0083238,0.027904,-0.014884,0.44143,-0.2287,-0.092458,-1.0877,0.070736,-0.18161,0.11463,-0.058996,-0.34197,0.031357,0.016757,0.002738,-0.14121,-0.69069
0.0071506,-0.032707,-0.21055,0.050994,-0.035105,0.063343,-0.013034,-0.0093863,-0.012701,-0.18572,0.36445,-0.15309,-0.10786,-1.0737,0.057682,-0.18827,0.1235,-0.071665,-0.32599,0.053676,0.035414,0.038511,-0.13337,-0.53153
0.0032004,-0.0071705,-0.20891,0.047626,-0.029934,0.062871,-0.0046328,-0.015858,-0.042654,-0.33368,0.3067,-0.10359,-0.10959,-1.0462,0.05155,-0.18694,0.12889,-0.075642,-0.2902,0.07299,0.055026,0.08359,-0.11791,-0.36141
0.0014039,0.0044693,-0.20103,0.043826,-0.031457,0.070252,-0.0069324,-0.026643,-0.062464,-0.48951,0.25102,-0.080972,-0.097753,-1.0113,0.042714,-0.17325,0.125,-0.069927,-0.24397,0.082054,0.080754,0.11703,-0.083097,-0.22191
0.00088772,-0.0013643,-0.18908,0.041127,-0.045043,0.089918,-0.010391,-0.03886,-0.076322,-0.67601,0.17897,-0.074359,-0.079503,-0.96853,0.026979,-0.14695,0.11239,-0.064147,-0.19485,0.078632,0.10946,0.13058,-0.035775,-0.13538
-0.0019894,-0.013877,-0.17609,0.039439,-0.067113,0.11598,-0.0009674,-0.050258,-0.086328,-0.89203,0.08643,-0.070673,-0.06245,-0.91309,0.010789,-0.11292,0.097105,-0.068987,-0.15046,0.068706,0.13083,0.13516,0.006822,-0.10022
-0.010117,-0.018736,-0.16316,0.037074,-0.087151,0.13542,0.026447,-0.060131,-0.090482,-1.1134,-0.013952,-0.065631,-0.048716,-0.83756,0.0057415,-0.078677,0.085375,-0.086113,-0.1178,0.063749,0.13528,0.14995,0.03407,-0.098719
-0.022229,-0.010646,-0.14909,0.032466,-0.095556,0.13813,0.061915,-0.068439,-0.086338,-1.3069,-0.10431,-0.067025,-0.035051,-0.72928,0.017158,-0.049857,0.078512,-0.10669,-0.099706,0.073445,0.12142,0.18431,0.051138,-0.11056
-0.033098,0.003773,-0.13275,0.026215,-0.090599,0.12457,0.087683,-0.074755,-0.075902,-1.4461,-0.17538,-0.08648,-0.018261,-0.57043,0.037558,-0.027078,0.072303,-0.11909,-0.092678,0.099105,0.096434,0.22891,0.072428,-0.12297
-0.037561,0.014336,-0.11538,0.021401,-0.078711,0.10425,0.092332,-0.078444,-0.065943,-1.5186,-0.22998,-0.12594,0.00017629,-0.34865,0.051639,-0.0062997,0.061222,-0.11819,-0.089476,0.13272,0.069659,0.26343,0.10694,-0.13283
-0.034859,0.017726,-0.10038,0.021389,-0.068383,0.087126,0.079187,-0.079789,-0.062844,-1.525,-0.27489,-0.17069,0.015381,-0.075286,0.048605,0.017793,0.043572,-0.10821,-0.085323,0.16227,0.045796,0.27335,0.15023,-0.14183
-0.0293,0.019569,-0.090405,0.026785,-0.063479,0.076559,0.061921,-0.08047,-0.067306,-1.4771,-0.31131,-0.19614,0.024879,0.20494,0.030624,0.048139,0.023002,-0.097886,-0.082434,0.17902,0.023675,0.26085,0.18986,-0.15023
-0.026538,0.026714,-0.084995,0.034303,-0.061726,0.069783,0.052258,-0.0825,-0.074959,-1.3966,-0.3345,-0.18386,0.032585,0.42846,0.0097783,0.083851,0.0051779,-0.093744,-0.088621,0.18182,0.00054934,0.24149,0.21733,-0.15416
-0.028832,0.038258,-0.081177,0.038816,-0.058936,0.06388,0.051375,-0.086546,-0.083002,-1.3127,-0.34239,-0.1344,0.046168,0.54828,-0.0032176,0.12123,-0.0073051,-0.097598,-0.1108,0.1757,-0.02335,0.2313,0.23419,-0.1482
-0.033559,0.045035,-0.076865,0.036999,-0.054166,0.059772,0.052142,-0.091461,-0.096208,-1.2562,-0.34252,-0.066204,0.069828,0.5652,-0.0076505,0.1557,-0.017311,-0.10874,-0.14878,0.16721,-0.044659,0.23614,0.2471,-0.13077
-0.03618,0.038575,-0.073465,0.029483,-0.050613,0.059906,0.048572,-0.095658,-0.12512,-1.2481,-0.34835,-0.0017026,0.099562,0.52743,-0.010813,0.18309,-0.030891,-0.12627,-0.19431,0.16017,-0.060553,0.25084,0.25892,-0.10791
-0.034683,0.020674,-0.074614,0.01984,-0.051727,0.063003,0.042497,-0.098905,-0.17623,-1.2919,-0.36741,0.048041,0.12593,0.49488,-0.018152,0.2002,-0.052429,-0.14801,-0.23577,0.15446,-0.0717,0.26598,0.26606,-0.091825
-0.031326,0.0036577,-0.08184,0.011605,-0.056884,0.062944,0.041181,-0.10251,-0.24214,-1.373,-0.39363,0.088141,0.14209,0.49499,-0.026203,0.20551,-0.081161,-0.16761,-0.26424,0.1473,-0.081173,0.27455,0.26485,-0.093994
-0.030265,0.0002905,-0.091491,0.0061306,-0.061338,0.054262,0.049121,-0.10755,-0.30103,-1.4659,-0.41279,0.13157,0.14941,0.50581,-0.026133,0.20038,-0.11151,-0.17536,-0.27611,0.13522,-0.090766,0.27384,0.25889,-0.1169
-0.033608,0.012609,-0.096639,0.0028525,-0.060615,0.038774,0.062917,-0.1131,-0.32763,-1.5435,-0.41667,0.18605,0.15524,0.48031,-0.014755,0.18932,-0.1365,-0.16461,-0.27174,0.11546,-0.098963,0.26406,0.25804,-0.15022
-0.03976,0.030365,-0.092756,0.0010329,-0.05486,0.025506,0.074511,-0.11661,-0.3083,-1.5818,-0.41225,0.24726,0.16494,0.39073,-0.0016186,0.17817,-0.1514,-0.13887,-0.25301,0.087235,-0.10279,0.24752,0.26896,-0.17524
-0.04539,0.040779,-0.081798,0.00074965,-0.0486,0.022454,0.079303,-0.11661,-0.24897,-1.5624,-0.4162,0.30275,0.17578,0.25565,-0.0036584,0.17045,-0.15548,-0.11164,-0.22306,0.052976,-0.10139,0.22921,0.28687,-0.17577
-0.048754,0.040378,-0.070297,0.0020729,-0.046048,0.027769,0.080587,-0.11485,-0.17055,-1.4741,-0.43957,0.34125,0.17896,0.12796,-0.030729,0.16453,-0.15136,-0.096785,-0.18793,0.018896,-0.097151,0.21559,0.29828,-0.14855
-0.050928,0.037591,-0.062805,0.0035976,-0.046732,0.029806,0.085577,-0.11546,-0.096095,-1.3167,-0.47738,0.3587,0.1679,0.056009,-0.07485,0.15475,-0.14292,-0.096571,-0.1568,-0.0066433,-0.093236,0.21026,0.29315,-0.10572
-0.053957,0.043599,-0.056982,0.002406,-0.046032,0.017406,0.096958,-0.12108,-0.03937,-1.1024,-0.5129,0.35703,0.14511,0.051015,-0.11376,0.1365,-0.13334,-0.098681,-0.13859,-0.016978,-0.090248,0.20936,0.275,-0.066926
-0.058153,0.060336,-0.045444,-0.0038713,-0.040223,-0.0088118,0.10877,-0.12972,-0.001897,-0.85074,-0.53236,0.33907,0.12146,0.085657,-0.12689,0.11175,-0.12376,-0.086173,-0.13651,-0.011084,-0.085895,0.20239,0.25827,-0.046391
-0.061498,0.077331,-0.023031,-0.01455,-0.030828,-0.035501,0.1114,-0.13556,0.022175,-0.57935,-0.53556,0.3057,0.10838,0.12031,-0.11062,0.089914,-0.11324,-0.052492,-0.14506,0.005313,-0.078079,0.17988,0.25484,-0.044139
-0.061666,0.080669,0.0073437,-0.025485,-0.023553,-0.048009,0.10123,-0.13369,0.039466,-0.29897,-0.5329,0.25746,0.11009,0.13178,-0.07993,0.082214,-0.099967,-0.0080552,-0.15247,0.022551,-0.067817,0.14223,0.2624,-0.0475
-0.058346,0.065725,0.036061,-0.031701,-0.022552,-0.043914,0.085383,-0.12455,0.054163,-0.018067,-0.53277,0.19737,0.12231,0.122,-0.055536,0.093095,-0.082962,0.028009,-0.14715,0.031869,-0.058417,0.10129,0.26661,-0.041027
-0.053328,0.041767,0.054347,-0.031248,-0.025797,-0.035539,0.076291,-0.11401,0.068471,0.24776,-0.53254,0.13068,0.13756,0.10492,-0.04798,0.1157,-0.063101,0.043799,-0.12372,0.028966,-0.051476,0.07182,0.25525,-0.01669
-0.048433,0.024278,0.061117,-0.027037,-0.026609,-0.038371,0.080572,-0.10854,0.083595,0.47385,-0.52174,0.061223,0.15138,0.08859,-0.051954,0.13611,-0.042518,0.043957,-0.084585,0.014422,-0.044204,0.059416,0.23066,0.023224
-0.04379,0.022231,0.062952,-0.024856,-0.02025,-0.056061,0.092813,-0.10991,0.099167,0.63878,-0.49293,-0.011758,0.16385,0.069553,-0.054317,0.14408,-0.022849,0.044237,-0.037229,-0.0081586,-0.031692,0.055592,0.20808,0.071347
-0.038448,0.031767,0.067677,-0.02894,-0.0090733,-0.076554,0.10045,-0.11416,0.11229,0.74157,-0.44842,-0.092332,0.17599,0.041335,-0.047121,0.14228,-0.0040017,0.056822,0.0099477,-0.034105,-0.012584,0.045098,0.20105,0.12262
-0.032493,0.041202,0.077824,-0.038676,-0.00077764,-0.083482,0.095398,-0.11563,0.11865,0.80553,-0.39581,-0.18264,0.18584,0.0051664,-0.033788,0.14621,0.015149,0.080054,0.050522,-0.05863,0.0076244,0.019399,0.20815,0.17683
-0.027932,0.04173,0.089813,-0.049195,-0.0010955,-0.07202,0.081384,-0.1121,0.11586,0.85916,-0.33751,-0.27813,0.18854,-0.029078,-0.02427,0.17409,0.03454,0.10137,0.081054,-0.077475,0.019923,-0.015759,0.21423,0.23474
-0.026914,0.033851,0.098719,-0.055407,-0.0080737,-0.053788,0.070014,-0.10609,0.10604,0.90725,-0.26626,-0.36736,0.18019,-0.05181,-0.025552,0.23386,0.051304,0.10961,0.10124,-0.088252,0.019632,-0.045652,0.20521,0.29263
-0.02905,0.024693,0.10324,-0.056083,-0.01382,-0.045906,0.069556,-0.10152,0.094936,0.91848,-0.17247,-0.43645,0.16108,-0.062284,-0.037051,0.31675,0.060692,0.1048,0.11378,-0.091943,0.011575,-0.059968,0.18181,0.34152
-0.031026,0.020337,0.10597,-0.054627,-0.012177,-0.054923,0.077502,-0.099207,0.087784,0.8464,-0.057287,-0.47463,0.13495,-0.067767,-0.054056,0.40153,0.059221,0.096908,0.12358,-0.092745,0.0070791,-0.06188,0.15884,0.37267
-0.029467,0.021064,0.10942,-0.056025,-0.0046774,-0.07142,0.083987,-0.096059,0.085941,0.67187,0.061649,-0.47749,0.10523,-0.074636,-0.073819,0.46553,0.047539,0.096311,0.13555,-0.095344,0.014762,-0.064469,0.15083,0.38446
-0.024319,0.023198,0.1127,-0.062672,0.0013119,-0.0804,0.082128,-0.088529,0.087357,0.43384,0.15877,-0.44731,0.072594,-0.080854,-0.096922,0.49412,0.030418,0.10582,0.15223,-0.10129,0.033321,-0.078081,0.15836,0.38419
-0.01905,0.024146,0.11265,-0.072559,0.00043226,-0.076759,0.074506,-0.076848,0.090272,0.22052,0.2176,-0.39193,0.036456,-0.077047,-0.12285,0.48359,0.013588,0.12113,0.17289,-0.10768,0.053267,-0.10072,0.16845,0.38275
-0.017077,0.024604,0.10833,-0.081121,-0.0048787,-0.069989,0.069285,-0.065565,0.096006,0.12243,0.24224,-0.32365,-0.0017216,-0.053985,-0.14592,0.43823,-4.5941e-005,0.13741,0.1953,-0.10979,0.066462,-0.12047,0.16805,0.38653
-0.018012,0.025953,0.10362,-0.084908,-0.0067882,-0.073299,0.070452,-0.059649,0.10744,0.17875,0.25351,-0.25773,-0.037702,-0.0080428,-0.15783,0.36638,-0.011649,0.15373,0.21871,-0.10554,0.074795,-0.12717,0.15671,0.3935
-0.017837,0.026601,0.10488,-0.08394,-0.00041791,-0.088329,0.072849,-0.059785,0.12423,0.35443,0.27276,-0.20949,-0.068018,0.060236,-0.15554,0.27861,-0.024068,0.17064,0.24494,-0.097871,0.089678,-0.12181,0.14564,0.39655
-0.013205,0.022236,0.11534,-0.081034,0.010418,-0.10151,0.067656,-0.061349,0.13951,0.56365,0.30643,-0.19019,-0.094263,0.15036,-0.14649,0.18701,-0.037923,0.18432,0.27618,-0.092269,0.12231,-0.11458,0.1448,0.3908
-0.0054748,0.01041,0.13183,-0.079121,0.016311,-0.096597,0.052826,-0.058133,0.14241,0.72299,0.34319,-0.20298,-0.12278,0.26075,-0.14437,0.10338,-0.049743,0.18555,0.31072,-0.091621,0.17319,-0.11408,0.152,0.37834
-5.6227e-007,-0.0053611,0.14713,-0.079091,0.011568,-0.071329,0.037318,-0.047498,0.12552,0.79818,0.36484,-0.24086,-0.15861,0.38057,-0.15811,0.035463,-0.054059,0.16697,0.341,-0.093069,0.2303,-0.11875,0.1552,0.36678
-0.00088224,-0.016987,0.15601,-0.079813,0.00055636,-0.041489,0.033931,-0.0324,0.092002,0.81486,0.3607,-0.28713,-0.19881,0.48342,-0.1841,-0.015736,-0.047951,0.1326,0.35662,-0.090293,0.27762,-0.11921,0.14571,0.3635
-0.0063471,-0.018248,0.15912,-0.079796,-0.0055157,-0.027327,0.047157,-0.01861,0.05643,0.82946,0.33401,-0.31856,-0.23237,0.53427,-0.20958,-0.054811,-0.034263,0.099563,0.35111,-0.079652,0.30646,-0.1088,0.12825,0.37114
-0.0097299,-0.01039,0.16122,-0.078585,0.0012678,-0.034816,0.067981,-0.0097442,0.037856,0.88296,0.29693,-0.31096,-0.24814,0.51073,-0.22419,-0.08719,-0.020604,0.087451,0.32726,-0.064757,0.31992,-0.091176,0.11725,0.3878
-0.0056101,-0.0012086,0.16564,-0.07664,0.018061,-0.049703,0.081161,-0.0044889,0.049712,0.97078,0.26108,-0.24694,-0.24462,0.42395,-0.22869,-0.11458,-0.014676,0.10269,0.29619,-0.054998,0.32732,-0.076857,0.12291,0.41086
0.0046855,0.00188,0.17053,-0.074214,0.033668,-0.050642,0.078402,0.0017412,0.093251,1.049,0.23319,-0.12393,-0.2322,0.3202,-0.23215,-0.13456,-0.019488,0.13134,0.27021,-0.058696,0.33459,-0.07182,0.14099,0.43994
0.013753,-0.0017034,0.17066,-0.070794,0.038689,-0.029606,0.065037,0.012431,0.15846,1.0704,0.21852,0.041374,-0.2251,0.25657,-0.24086,-0.14454,-0.032079,0.148,0.25452,-0.076442,0.3396,-0.070004,0.15671,0.47636
0.014628,-0.0059314,0.16291,-0.065852,0.033902,-0.00058949,0.053986,0.026831,0.23075,1.0226,0.22616,0.21601,-0.22927,0.26583,-0.25033,-0.14623,-0.046414,0.13491,0.2445,-0.10033,0.33621,-0.058157,0.15885,0.52005
0.0070735,-0.0047219,0.14986,-0.060015,0.029101,0.011841,0.052928,0.040631,0.29807,0.93882,0.26819,0.36218,-0.23733,0.33585,-0.24904,-0.14639,-0.057843,0.095607,0.23064,-0.1198,0.32204,-0.029395,0.15009,0.56772
-0.0023215,0.0018207,0.13775,-0.055057,0.033634,-0.0058078,0.056986,0.049506,0.354,0.87243,0.35103,0.45247,-0.23515,0.41922,-0.23037,-0.153,-0.065581,0.051525,0.20709,-0.12933,0.30188,0.0074576,0.14341,0.61457
-0.0062249,0.0076933,0.13069,-0.052294,0.047531,-0.043357,0.053776,0.052191,0.39659,0.85572,0.46631,0.48103,-0.21466,0.46536,-0.20059,-0.16995,-0.071755,0.024572,0.17655,-0.13156,0.28331,0.032616,0.14828,0.65803
-0.0028853,0.0072725,0.12685,-0.050856,0.061302,-0.074473,0.035857,0.050493,0.42581,0.873,0.58991,0.46457,-0.18134,0.45087,-0.17457,-0.19479,-0.0785,0.020528,0.14758,-0.13371,0.26862,0.031214,0.16042,0.69959
0.0032614,0.00090613,0.1205,-0.047826,0.064324,-0.077564,0.0086952,0.046711,0.44246,0.86844,0.69161,0.43264,-0.15007,0.38724,-0.16295,-0.22081,-0.085874,0.027173,0.12685,-0.14068,0.25113,0.006618,0.16533,0.74263
0.0068251,-0.0059658,0.10817,-0.040635,0.053991,-0.05208,-0.013398,0.041291,0.4487,0.78133,0.74904,0.41343,-0.13333,0.30467,-0.16327,-0.24141,-0.092085,0.027413,0.11331,-0.15078,0.21974,-0.020837,0.15241,0.78751
0.0068881,-0.0089441,0.092597,-0.029738,0.037611,-0.017138,-0.019587,0.033043,0.448,0.58224,0.75665,0.4229,-0.13247,0.22866,-0.16342,-0.25293,-0.095265,0.014526,0.099308,-0.15739,0.16803,-0.028964,0.12603,0.8288
0.0070827,-0.0091739,0.080549,-0.019005,0.025986,0.0048042,-0.011784,0.021511,0.44325,0.28501,0.72507,0.46175,-0.1394,0.16756,-0.15352,-0.25461,-0.094961,-0.0041253,0.077318,-0.15481,0.10043,-0.0099013,0.10283,0.8574
0.010545,-0.011166,0.076331,-0.013118,0.024935,0.0044339,-0.002575,0.0088801,0.43427,-0.069571,0.67311,0.5195,-0.14619,0.11652,-0.13425,-0.24665,-0.092323,-0.016791,0.046096,-0.1432,0.030434,0.0258,0.097678,0.86675
0.015404,-0.01636,0.077317,-0.014062,0.032037,-0.01079,-0.0039566,-0.00074151,0.41752,-0.44152,0.61831,0.58121,-0.15284,0.068189,-0.11389,-0.22924,-0.089442,-0.019734,0.010862,-0.1289,-0.027281,0.05918,0.11133,0.8579
0.015919,-0.019909,0.076074,-0.019701,0.040385,-0.02628,-0.017218,-0.0042084,0.38922,-0.80812,0.57006,0.63296,-0.16612,0.018641,-0.098026,-0.2032,-0.088771,-0.020267,-0.021946,-0.12027,-0.064662,0.077025,0.13086,0.83929
0.0083965,-0.015022,0.067207,-0.025577,0.044878,-0.032625,-0.032772,-0.0017354,0.34981,-1.1593,0.52697,0.66492,-0.19083,-0.034682,-0.083478,-0.17142,-0.092716,-0.02864,-0.049914,-0.12248,-0.082896,0.078388,0.1418,0.821
-0.0042119,-0.00087613,0.052378,-0.02819,0.045275,-0.029994,-0.039406,0.0034065,0.30575,-1.4803,0.47818,0.67311,-0.22227,-0.095889,-0.062893,-0.1389,-0.10278,-0.048032,-0.075041,-0.13521,-0.089594,0.070432,0.14026,0.80819
-0.014081,0.014493,0.038713,-0.026868,0.044371,-0.023452,-0.034111,0.0075769,0.26657,-1.7402,0.40884,0.66025,-0.24702,-0.16774,-0.035105,-0.11106,-0.1182,-0.072659,-0.099693,-0.15408,-0.093904,0.060351,0.134,0.79913
-0.015317,0.02038,0.032255,-0.022923,0.04441,-0.016495,-0.023832,0.0093718,0.23899,-1.8978,0.3083,0.63501,-0.25153,-0.2451,-0.0097166,-0.091448,-0.13516,-0.094641,-0.12307,-0.17432,-0.10277,0.051677,0.13286,0.78902
-0.0091998,0.013321,0.032891,-0.017471,0.045584,-0.0097391,-0.018433,0.0099684,0.22272,-1.9242,0.17691,0.60858,-0.23087,-0.31388,0.00013321,-0.080518,-0.14836,-0.1112,-0.14209,-0.19341,-0.11903,0.04638,0.1387,0.77564
-0.0025985,0.00082747,0.035457,-0.010356,0.047277,-0.0043345,-0.022063,0.011303,0.2113,-1.8256,0.026297,0.58896,-0.19064,-0.3609,-0.0092822,-0.076165,-0.15426,-0.12443,-0.15549,-0.21126,-0.14052,0.047365,0.1447,0.76128
-0.0010586,-0.0054018,0.035442,-0.0011621,0.049502,-0.0040416,-0.030736,0.014097,0.19705,-1.6527,-0.1284,0.57584,-0.14131,-0.38778,-0.026394,-0.075258,-0.15388,-0.13507,-0.16607,-0.22793,-0.16044,0.056564,0.14353,0.74924
-0.0034147,-0.00065426,0.033214,0.0090809,0.052347,-0.012069,-0.037322,0.017524,0.17598,-1.4844,-0.27936,0.55957,-0.09102,-0.41454,-0.032427,-0.074901,-0.15191,-0.1385,-0.17798,-0.24122,-0.17006,0.070407,0.13536,0.73841
-0.0033361,0.0081547,0.032511,0.017714,0.054268,-0.025845,-0.038213,0.020435,0.149,-1.3947,-0.43116,0.52543,-0.043011,-0.46526,-0.01714,-0.072773,-0.15235,-0.12886,-0.19169,-0.24577,-0.16389,0.078967,0.12752,0.72215
0.0037321,0.0092555,0.035067,0.022433,0.052009,-0.036572,-0.035224,0.022574,0.11926,-1.4165,-0.5951,0.46112,0.0014816,-0.54472,0.012079,-0.066849,-0.15409,-0.10706,-0.20242,-0.23463,-0.14417,0.07193,0.12667,0.69343
0.015232,-0.0020917,0.037345,0.023699,0.0433,-0.036027,-0.031838,0.024536,0.088738,-1.525,-0.77679,0.36289,0.039513,-0.6263,0.03668,-0.05526,-0.15086,-0.083336,-0.20464,-0.20229,-0.12052,0.046909,0.13231,0.65262
0.023248,-0.018142,0.033197,0.025022,0.029945,-0.02488,-0.028685,0.026807,0.057414,-1.6521,-0.9675,0.23701,0.066625,-0.66417,0.043669,-0.036747,-0.13622,-0.069923,-0.19895,-0.14774,-0.10338,0.011983,0.13803,0.61045
0.021809,-0.025139,0.020171,0.030322,0.017635,-0.013697,-0.023309,0.029152,0.025176,-1.7245,-1.1475,0.096189,0.080803,-0.62244,0.037342,-0.011474,-0.10943,-0.069991,-0.19399,-0.07587,-0.095664,-0.020729,0.13886,0.58258
0.01262,-0.015723,0.003205,0.040292,0.01165,-0.014007,-0.014169,0.0311,-0.0061447,-1.7048,-1.2992,-0.046117,0.085448,-0.49847,0.034903,0.018423,-0.077065,-0.074091,-0.20055,0.0032166,-0.08965,-0.044729,0.13632,0.57879
0.0036056,0.0044517,-0.0082386,0.050971,0.011998,-0.026824,-0.0039914,0.032868,-0.033267,-1.6084,-1.4187,-0.18,0.087289,-0.32184,0.049586,0.049039,-0.048564,-0.068535,-0.22265,0.076907,-0.072983,-0.062662,0.13567,0.59513
0.0016477,0.021988,-0.007438,0.056119,0.012861,-0.03981,0.0017194,0.035511,-0.054539,-1.4866,-1.5158,-0.30051,0.090494,-0.13194,0.076806,0.075502,-0.029678,-0.048258,-0.25369,0.13374,-0.039777,-0.080261,0.13881,0.61573
0.0065635,0.027644,0.0042557,0.051844,0.0075515,-0.03716,-0.00010684,0.039942,-0.072983,-1.3898,-1.6024,-0.40701,0.092717,0.044918,0.096513,0.092765,-0.019581,-0.021723,-0.28145,0.16681,0.0021903,-0.097258,0.14087,0.62365
0.012037,0.023563,0.01854,0.039821,-0.0052291,-0.014249,-0.0066034,0.045772,-0.096418,-1.3339,-1.6788,-0.50239,0.087586,0.20034,0.090152,0.095907,-0.013723,-0.0028374,-0.29735,0.17582,0.034861,-0.10549,0.13501,0.61333
0.012345,0.019503,0.026507,0.026403,-0.019795,0.016411,-0.011222,0.051274,-0.13384,-1.2941,-1.7313,-0.59234,0.072014,0.33124,0.057054,0.080217,-0.0091083,0.0024022,-0.3015,0.16692,0.042094,-0.097426,0.12054,0.5957
0.0081231,0.022439,0.02473,0.01823,-0.028435,0.034377,-0.0099317,0.054743,-0.18989,-1.2235,-1.7423,-0.68382,0.051615,0.42783,0.015449,0.041923,-0.0066592,0.0014887,-0.2995,0.1504,0.021426,-0.076931,0.10543,0.59244
0.0055651,0.029932,0.016452,0.017848,-0.028512,0.028414,-0.0052358,0.056082,-0.2606,-1.084,-1.7036,-0.7816,0.038711,0.47721,-0.012643,-0.019924,-0.0087392,0.0076275,-0.29527,0.13702,-0.013759,-0.060266,0.099216,0.62314
0.010034,0.033261,0.0079227,0.022763,-0.024928,0.0066521,-0.003714,0.057059,-0.33299,-0.86855,-1.6213,-0.88412,0.044121,0.47925,-0.018725,-0.10109,-0.014994,0.02608,-0.28748,0.13427,-0.043227,-0.063587,0.10288,0.69383
0.020506,0.026544,0.0036778,0.028376,-0.025324,-0.0094739,-0.009215,0.059791,-0.38946,-0.60418,-1.5081,-0.9822,0.069782,0.45574,-0.011878,-0.19127,-0.021257,0.047939,-0.27294,0.14404,-0.052918,-0.086867,0.10604,0.79354
0.030299,0.012535,0.0044618,0.031891,-0.032401,-0.0023904,-0.018385,0.064649,-0.41567,-0.3399,-1.3712,-1.0631,0.10852,0.43943,-0.0069105,-0.27617,-0.022867,0.057547,-0.2526,0.16256,-0.042398,-0.10938,0.095558,0.90001
0.033238,-0.00020822,0.0083387,0.033736,-0.04078,0.02822,-0.023173,0.069419,-0.40817,-0.12625,-1.208,-1.1189,0.15055,0.45012,-0.0088588,-0.34247,-0.019043,0.046626,-0.23311,0.18278,-0.022331,-0.10279,0.068173,0.99008
0.029148,-0.0052944,0.012858,0.035594,-0.041717,0.066939,-0.018121,0.070654,-0.37748,0.0037114,-1.0137,-1.1531,0.19016,0.48034,-0.0089708,-0.38301,-0.013776,0.021788,-0.22145,0.19785,-0.0055789,-0.052166,0.035183,1.0485
0.023369,-0.0034334,0.016213,0.037486,-0.031429,0.096538,-0.0053889,0.066304,-0.34358,0.046142,-0.79276,-1.1797,0.22638,0.50557,0.0042953,-0.39892,-0.012236,-0.0015596,-0.21795,0.20433,0.00059793,0.032604,0.013885,1.0706
0.020969,-5.332e-006,0.01727,0.037109,-0.015135,0.11104,0.0074001,0.05759,-0.32531,0.027085,-0.56381,-1.2139,0.25828,0.51108,0.030424,-0.39729,-0.016151,-0.012809,-0.215,0.20319,-0.0036233,0.12419,0.013176,1.0599
0.021549,0.0012669,0.015655,0.032195,-0.0027665,0.11669,0.014355,0.04855,-0.32936,-0.0086341,-0.35126,-1.2578,0.28109,0.51002,0.053066,-0.38583,-0.022619,-0.014134,-0.2035,0.19842,-0.013933,0.19713,0.026435,1.0226
0.019915,0.0015153,0.01239,0.023405,-0.00022873,0.12177,0.016436,0.043482,-0.34639,-0.015898,-0.17162,-1.2934,0.28866,0.5346,0.051695,-0.36794,-0.027336,-0.015447,-0.18104,0.19423,-0.026116,0.24233,0.03811,0.96429
0.012018,0.0038226,0.010051,0.01465,-0.0043796,0.12664,0.019542,0.044142,-0.35736,0.033711,-0.026315,-1.2874,0.28059,0.60638,0.018539,-0.34118,-0.028893,-0.021878,-0.15406,0.19272,-0.038154,0.26617,0.037504,0.8891
0.00020945,0.0081663,0.011243,0.010265,-0.0063831,0.12417,0.027704,0.048804,-0.34663,0.14463,0.093465,-1.2069,0.26656,0.71182,-0.034131,-0.2998,-0.029851,-0.026912,-0.13177,0.19335,-0.050388,0.27802,0.026686,0.80175
-0.0077209,0.01043,0.015922,0.011664,-0.00015437,0.10913,0.038321,0.053844,-0.31279,0.30116,0.19562,-1.0375,0.26227,0.80479,-0.082308,-0.23921,-0.033603,-0.018833,-0.11808,0.19395,-0.065447,0.27982,0.015616,0.70903
-0.0053421,0.0069656,0.020051,0.016627,0.01214,0.086467,0.04418,0.056565,-0.26964,0.47649,0.28112,-0.79321,0.279,0.83509,-0.10638,-0.15977,-0.040239,0.0053336,-0.10941,0.19228,-0.08822,0.26692,0.010333,0.61948
0.0060632,-0.0002955,0.017738,0.021724,0.022572,0.069239,0.040116,0.057068,-0.23666,0.63985,0.34853,-0.51111,0.31559,0.78011,-0.10166,-0.068273,-0.045718,0.032584,-0.10064,0.18701,-0.12436,0.23705,0.0066862,0.54139
0.01788,-0.0043397,0.0060688,0.025279,0.025221,0.068342,0.027729,0.05777,-0.22653,0.76124,0.40293,-0.23616,0.35958,0.65598,-0.076472,0.023247,-0.045468,0.042177,-0.092433,0.17786,-0.17635,0.19667,-0.0039916,0.48078
0.021428,0.0004274,-0.011267,0.027963,0.021571,0.08423,0.013928,0.061112,-0.23872,0.81845,0.45827,-0.0035723,0.39633,0.50249,-0.042468,0.10084,-0.039181,0.023292,-0.091775,0.16515,-0.2393,0.15786,-0.02347,0.44087
0.015607,0.011956,-0.025375,0.030719,0.018413,0.10872,0.0054168,0.067374,-0.26298,0.80922,0.52862,0.17176,0.41774,0.35648,-0.006936,0.15316,-0.03211,-0.013971,-0.10419,0.14907,-0.30033,0.1296,-0.041942,0.42291
0.007724,0.021378,-0.028436,0.032591,0.020596,0.13428,0.0048757,0.074306,-0.2885,0.76139,0.61612,0.29566,0.42379,0.23378,0.02743,0.17569,-0.031186,-0.045448,-0.12546,0.12879,-0.34401,0.11295,-0.045951,0.42665
0.006483,0.020944,-0.020025,0.031002,0.025991,0.1604,0.011949,0.078664,-0.31013,0.72856,0.70815,0.38698,0.41731,0.12879,0.058353,0.17293,-0.039066,-0.052623,-0.14212,0.10219,-0.36103,0.1048,-0.03169,0.44903
0.013581,0.011766,-0.0077855,0.024361,0.027771,0.19001,0.026523,0.078247,-0.32713,0.76557,0.78873,0.46673,0.39867,0.025822,0.081771,0.15665,-0.051453,-0.037855,-0.14184,0.066528,-0.35386,0.105,-0.010217,0.48158
0.021807,0.0035977,-0.0012363,0.014247,0.021786,0.21979,0.04944,0.072911,-0.33718,0.89601,0.85478,0.54818,0.36581,-0.089982,0.094096,0.14058,-0.06039,-0.02123,-0.12452,0.020502,-0.3347,0.11805,0.001651,0.50947
0.021574,0.0062235,-0.0036763,0.0047475,0.011658,0.23577,0.079354,0.064181,-0.33271,1.0957,0.9221,0.63105,0.31858,-0.22877,0.095594,0.13424,-0.060952,-0.021834,-0.1029,-0.033765,-0.31681,0.14643,-0.003164,0.51487
0.0099111,0.020294,-0.0093025,-0.00067084,0.0063039,0.22102,0.10971,0.054242,-0.3039,1.309,1.0143,0.70224,0.26182,-0.39645,0.090398,0.13937,-0.055518,-0.040577,-0.090967,-0.090323,-0.30573,0.18225,-0.014991,0.48431
-0.0064051,0.036337,-0.0083353,-0.0018788,0.011879,0.17017,0.13072,0.045204,-0.24602,1.4903,1.1432,0.74391,0.2032,-0.59305,0.082898,0.15097,-0.051779,-0.060154,-0.090416,-0.14144,-0.29717,0.20725,-0.016329,0.4157
-0.016448,0.043159,0.0042463,-0.001841,0.025696,0.09737,0.13628,0.038694,-0.16406,1.6386,1.2986,0.74635,0.14822,-0.807,0.074604,0.16157,-0.056145,-0.06166,-0.08821,-0.18079,-0.28264,0.2033,0.0010677,0.31976
-0.014313,0.037873,0.024151,-0.0036698,0.037991,0.028868,0.12978,0.035365,-0.070367,1.7964,1.4551,0.71815,0.097514,-1.0106,0.065018,0.16547,-0.068299,-0.042044,-0.068136,-0.20547,-0.2576,0.1651,0.027033,0.21432
-0.0036386,0.028124,0.041451,-0.007697,0.040146,-0.014737,0.12259,0.0343,0.022833,2.0092,1.5907,0.68551,0.049308,-1.1639,0.055226,0.16023,-0.081494,-0.016409,-0.026136,-0.2154,-0.22547,0.10367,0.040932,0.11538
0.006254,0.024442,0.049002,-0.011131,0.032016,-0.031886,0.12541,0.033066,0.10909,2.2743,1.6995,0.67854,0.0037664,-1.2301,0.049546,0.14577,-0.087902,-0.003863,0.024767,-0.21122,-0.19452,0.036815,0.029919,0.03184
0.0086573,0.030084,0.047885,-0.010421,0.021895,-0.037654,0.13957,0.029048,0.1871,2.5228,1.7884,0.71237,-0.035564,-1.1942,0.052525,0.1231,-0.08402,-0.010767,0.064471,-0.19312,-0.17115,-0.024528,0.00072883,-0.032604
0.0046088,0.038112,0.045132,-0.0041235,0.019392,-0.048186,0.15604,0.021462,0.25546,2.6524,1.8639,0.7765,-0.064493,-1.0729,0.063984,0.094571,-0.071693,-0.026627,0.081503,-0.16188,-0.15551,-0.081281,-0.026062,-0.073861
0.0006877,0.038467,0.046373,0.0060804,0.027664,-0.066198,0.16327,0.01229,0.30872,2.5927,1.9211,0.84128,-0.081258,-0.9059,0.077645,0.065141,-0.054982,-0.035041,0.080358,-0.12081,-0.14292,-0.13721,-0.034286,-0.085123
0.0021973,0.028131,0.050605,0.016727,0.041547,-0.080281,0.15696,0.0048825,0.33941,2.3552,1.9474,0.87748,-0.085735,-0.73163,0.085783,0.042158,-0.036901,-0.028224,0.074882,-0.076248,-0.12917,-0.18443,-0.026316,-0.06198
0.0083281,0.014495,0.051913,0.024811,0.052519,-0.077718,0.14314,0.00102,0.34414,2.031,1.9341,0.87441,-0.075591,-0.56412,0.086133,0.032448,-0.019279,-0.011831,0.075229,-0.03554,-0.11467,-0.19847,-0.020357,-0.011231
0.013456,0.0086323,0.046051,0.029128,0.055616,-0.058149,0.13217,-0.00096968,0.32794,1.7393,1.8833,0.84301,-0.044822,-0.38844,0.084384,0.038001,-0.0048757,0.0024913,0.081117,-0.0042211,-0.1037,-0.15113,-0.033728,0.045344
0.012736,0.014978,0.035198,0.030083,0.05245,-0.035204,0.12964,-0.0049863,0.30252,1.5601,1.8041,0.80288,0.011375,-0.18095,0.089315,0.053828,0.0019601,0.0077161,0.086832,0.015065,-0.099907,-0.033699,-0.067677,0.078037
0.0063951,0.027404,0.026265,0.028707,0.048614,-0.02501,0.1325,-0.0135,0.27951,1.4981,1.7024,0.76502,0.088436,0.060076,0.10464,0.070621,-0.0020227,0.0048874,0.091409,0.021185,-0.10208,0.12765,-0.10734,0.063752
-0.0011332,0.035519,0.024565,0.02593,0.048642,-0.032784,0.1333,-0.024669,0.2644,1.4948,1.5761,0.72483,0.16921,0.29865,0.12515,0.081191,-0.015333,-0.0018641,0.10255,0.012862,-0.10412,0.27896,-0.136,-0.0023801
-0.0058771,0.035089,0.029185,0.022445,0.053018,-0.049948,0.1278,-0.033129,0.25568,1.4723,1.4232,0.67002,0.23109,0.47586,0.14102,0.086164,-0.031486,-0.011176,0.1296,-0.01055,-0.099114,0.36663,-0.1498,-0.10709
-0.007977,0.032335,0.034483,0.01875,0.059062,-0.063572,0.11804,-0.034189,0.24885,1.3758,1.253,0.59493,0.25946,0.54657,0.14652,0.09428,-0.043405,-0.024095,0.1724,-0.045896,-0.08399,0.36859,-0.15923,-0.23024
-0.010853,0.037613,0.035973,0.014949,0.063855,-0.068216,0.10858,-0.027901,0.2411,1.1905,1.0891,0.50857,0.25674,0.51012,0.14505,0.11629,-0.048651,-0.038794,0.21752,-0.084001,-0.060859,0.30659,-0.17704,-0.35778
-0.017029,0.054207,0.034498,0.010513,0.066226,-0.068758,0.10035,-0.019352,0.23269,0.93384,0.95679,0.43,0.23856,0.41006,0.14547,0.15639,-0.050147,-0.048032,0.24665,-0.11199,-0.034179,0.23066,-0.20495,-0.48659
-0.024956,0.073008,0.034416,0.0045321,0.066586,-0.072607,0.089556,-0.014787,0.2251,0.6383,0.86405,0.3761,0.2197,0.30225,0.153,0.20735,-0.05127,-0.044168,0.25015,-0.12002,-0.0065573,0.18648,-0.23202,-0.61908
-0.030018,0.078818,0.037738,-0.0033895,0.065755,-0.080425,0.072837,-0.016888,0.21863,0.33861,0.79385,0.35179,0.20149,0.21647,0.16301,0.25324,-0.050236,-0.027506,0.2336,-0.10791,0.023043,0.18855,-0.24558,-0.75449
-0.028678,0.063353,0.040467,-0.012244,0.064428,-0.085291,0.053331,-0.023213,0.21232,0.064982,0.71513,0.34924,0.17141,0.14139,0.1639,0.27815,-0.040075,-0.0086852,0.21117,-0.086144,0.057414,0.21675,-0.24315,-0.88575
-0.021731,0.033495,0.035426,-0.019694,0.063526,-0.080686,0.040184,-0.028877,0.20547,-0.16453,0.60535,0.35452,0.11519,0.042904,0.14684,0.27529,-0.015236,-0.00080834,0.1925,-0.069778,0.097765,0.23583,-0.23372,-1.0044
-0.013616,0.0071136,0.019357,-0.02339,0.064246,-0.06808,0.040777,-0.030736,0.19863,-0.35393,0.46618,0.3555,0.03095,-0.10115,0.11365,0.25015,0.021136,-0.0075774,0.17518,-0.069281,0.14232,0.22124,-0.22759,-1.1072
-0.0085719,-0.0004979,-0.0025751,-0.022636,0.067066,-0.05553,0.052787,-0.029309,0.19231,-0.53317,0.31959,0.34623,-0.06679,-0.27818,0.075643,0.21618,0.056805,-0.018899,0.14999,-0.084604,0.18801,0.17252,-0.22592,-1.1974
-0.0073453,0.011738,-0.0197,-0.019007,0.070607,-0.048688,0.064403,-0.027142,0.18485,-0.74546,0.18893,0.3272,-0.15642,-0.44633,0.04432,0.18633,0.078432,-0.01929,0.11341,-0.10619,0.23299,0.10753,-0.22066,-1.2777
-0.0073391,0.030636,-0.024064,-0.015267,0.072091,-0.044249,0.06364,-0.025781,0.17204,-1.0183,0.08195,0.30342,-0.22373,-0.5616,0.022343,0.16654,0.081399,-0.0022193,0.075078,-0.12141,0.27725,0.046065,-0.2047,-1.3426
-0.0056957,0.039964,-0.016662,-0.013393,0.06977,-0.033571,0.048646,-0.024537,0.14997,-1.3351,-0.0098349,0.28169,-0.26955,-0.60513,0.0028975,0.15536,0.072699,0.022879,0.052616,-0.12156,0.32055,-0.0028518,-0.18112,-1.3774
-0.0021362,0.033175,-0.0060695,-0.013387,0.065323,-0.013203,0.029278,-0.022063,0.11905,-1.6292,-0.09635,0.26731,-0.30513,-0.59281,-0.022408,0.14872,0.064258,0.038096,0.058133,-0.10541,0.3606,-0.042306,-0.16154,-1.3686
0.0010399,0.017158,-0.00089463,-0.013859,0.063467,0.008878,0.018122,-0.018674,0.085621,-1.8114,-0.1736,0.26093,-0.34036,-0.56377,-0.054867,0.1453,0.062759,0.032908,0.088346,-0.078368,0.39396,-0.080464,-0.15479,-1.3168
0.0014272,0.0048242,-0.0030188,-0.013736,0.068239,0.018715,0.019083,-0.016631,0.058581,-1.8161,-0.22245,0.25722,-0.3758,-0.55781,-0.08736,0.14777,0.06505,0.014204,0.1267,-0.049187,0.41942,-0.12349,-0.15749,-1.2415
-0.0012064,0.0038656,-0.0074814,-0.013409,0.078829,0.0088948,0.024177,-0.017854,0.043075,-1.6361,-0.22289,0.2471,-0.40496,-0.59545,-0.1111,0.15949,0.062743,0.0012936,0.15488,-0.026201,0.44015,-0.17337,-0.15624,-1.1713
-0.0049724,0.011455,-0.0082952,-0.014176,0.089016,-0.014151,0.021469,-0.02146,0.036065,-1.3213,-0.17107,0.22275,-0.42343,-0.67012,-0.12334,0.17948,0.051082,0.010143,0.16318,-0.014194,0.46198,-0.2293,-0.13987,-1.1273
-0.0078336,0.018396,-0.0041052,-0.016625,0.091484,-0.035497,0.0066517,-0.023949,0.027906,-0.94562,-0.084132,0.18221,-0.43546,-0.75481,-0.1285,0.20039,0.033634,0.040622,0.1518,-0.012204,0.48859,-0.28912,-0.10995,-1.1099
-0.0092333,0.017704,0.0015314,-0.019666,0.083762,-0.044573,-0.012577,-0.022236,0.009291,-0.56798,0.010968,0.13027,-0.45152,-0.81871,-0.13232,0.2111,0.018936,0.077367,0.1242,-0.013023,0.51826,-0.34971,-0.079704,-1.1017
-0.0097889,0.0096172,0.0046417,-0.021295,0.070496,-0.042911,-0.023233,-0.016684,-0.02178,-0.21817,0.0946,0.075203,-0.47909,-0.84422,-0.13587,0.20206,0.012944,0.10244,0.081139,-0.0053804,0.5452,-0.40826,-0.062592,-1.0827
-0.0097344,-0.00042403,0.004881,-0.020388,0.05966,-0.039715,-0.018309,-0.010973,-0.058862,0.089034,0.16333,0.023913,-0.51567,-0.83401,-0.13584,0.1697,0.014604,0.10805,0.021692,0.02125,0.56413,-0.46504,-0.06156,-1.0451
-0.0081483,-0.0074306,0.0049951,-0.017694,0.055744,-0.040738,-0.0020924,-0.0086383,-0.092892,0.33268,0.22444,-0.021027,-0.55039,-0.80358,-0.13041,0.11696,0.018171,0.099038,-0.050392,0.071229,0.57357,-0.52529,-0.068464,-0.99519
-0.0039845,-0.010345,0.0068379,-0.01502,0.055934,-0.042552,0.014881,-0.009539,-0.11995,0.48401,0.28254,-0.060712,-0.57259,-0.76516,-0.12338,0.050459,0.01925,0.085337,-0.12279,0.13984,0.57456,-0.59661,-0.072978,-0.94266
0.0022617,-0.011002,0.0087184,-0.013406,0.052723,-0.038079,0.025754,-0.0098386,-0.14389,0.52751,0.33022,-0.09676,-0.57909,-0.71595,-0.12103,-0.023212,0.018493,0.073253,-0.17856,0.21483,0.56663,-0.68256,-0.071613,-0.88655
0.0082909,-0.011145,0.0071086,-0.012145,0.040591,-0.026952,0.032535,-0.0057871,-0.17111,0.48077,0.34972,-0.12802,-0.5737,-0.64078,-0.12437,-0.09921,0.019966,0.063685,-0.20573,0.28168,0.54568,-0.77773,-0.068613,-0.81292
0.01169,-0.011178,0.00074226,-0.0096216,0.020761,-0.018876,0.042176,0.0022607,-0.20187,0.38598,0.32269,-0.1491,-0.56024,-0.52677,-0.12517,-0.17349,0.026707,0.056699,-0.20448,0.32939,0.50665,-0.8695,-0.069407,-0.70662
0.011905,-0.011238,-0.0075747,-0.0051129,-2.8526e-005,-0.02557,0.058227,0.0096325,-0.22638,0.27303,0.23964,-0.15141,-0.53672,-0.37677,-0.11144,-0.24066,0.038326,0.055349,-0.18628,0.35384,0.44868,-0.94583,-0.074399,-0.56717
0.010377,-0.012115,-0.013597,0.0002748,-0.015188,-0.049221,0.076679,0.011413,-0.23007,0.12591,0.10314,-0.12667,-0.49681,-0.20976,-0.07842,-0.29307,0.052638,0.06352,-0.16599,0.35752,0.37725,-1.0021,-0.079408,-0.41436
0.0087066,-0.014113,-0.015921,0.0044895,-0.023036,-0.079695,0.089819,0.0070448,-0.20455,-0.11107,-0.074738,-0.071925,-0.43712,-0.048287,-0.034913,-0.32246,0.068806,0.080335,-0.15369,0.34684,0.30078,-1.0408,-0.081402,-0.27766
0.0068899,-0.015245,-0.017197,0.006392,-0.026704,-0.10408,0.093696,0.00098326,-0.15558,-0.48207,-0.27636,0.0062803,-0.36322,0.094735,0.0018813,-0.32348,0.088036,0.098346,-0.15125,0.32908,0.22449,-1.0638,-0.082613,-0.17813
0.0036811,-0.011773,-0.020778,0.0068239,-0.030182,-0.11922,0.091402,-0.0013582,-0.10141,-0.96058,-0.48086,0.091633,-0.28804,0.21836,0.019009,-0.29679,0.11088,0.10903,-0.15396,0.30991,0.14733,-1.0653,-0.088328,-0.11756
-0.0012537,-0.0017443,-0.026365,0.0079085,-0.034953,-0.13421,0.089031,0.0014137,-0.062476,-1.4332,-0.66599,0.16377,-0.2239,0.32482,0.016846,-0.24949,0.13423,0.11086,-0.15377,0.29161,0.065149,-1.0327,-0.10068,-0.083046
-0.0058801,0.011727,-0.029467,0.011281,-0.040409,-0.15941,0.088882,0.0055495,-0.050193,-1.7477,-0.81187,0.20821,-0.17521,0.41065,0.0066295,-0.19261,0.15179,0.11137,-0.14203,0.27204,-0.022969,-0.95578,-0.11513,-0.061124
-0.0069869,0.021469,-0.025665,0.016889,-0.046869,-0.19256,0.087301,0.0059919,-0.062402,-1.7966,-0.90684,0.22489,-0.13805,0.46786,-0.0007467,-0.13704,0.15826,0.11998,-0.11275,0.24507,-0.11138,-0.83558,-0.12345,-0.047864
-0.0031594,0.021755,-0.015486,0.023351,-0.057194,-0.21629,0.079598,0.0014859,-0.087542,-1.5763,-0.95213,0.22928,-0.10618,0.49388,-0.0040189,-0.090436,0.15363,0.13773,-0.067254,0.20364,-0.19077,-0.68558,-0.12046,-0.046592
0.0034472,0.013621,-0.004777,0.029362,-0.074554,-0.21096,0.066841,-0.003965,-0.11317,-1.1819,-0.96156,0.24452,-0.077422,0.4993,-0.010634,-0.056385,0.1433,0.15406,-0.017109,0.14439,-0.25445,-0.52218,-0.10772,-0.05749
0.0085605,0.0047007,0.00019591,0.034664,-0.098292,-0.17158,0.05697,-0.0047111,-0.13252,-0.74471,-0.95509,0.28943,-0.054796,0.50382,-0.027483,-0.035491,0.13368,0.15479,0.019386,0.07102,-0.30171,-0.35312,-0.090714,-0.071241
0.0092955,0.0030599,-0.001664,0.0397,-0.12232,-0.11296,0.058196,0.0013045,-0.14584,-0.36257,-0.94969,0.37004,-0.042217,0.52302,-0.052931,-0.02674,0.12697,0.13439,0.028349,-0.006955,-0.33508,-0.17362,-0.072613,-0.074338
0.0063954,0.010332,-0.0054455,0.044438,-0.13848,-0.057823,0.070771,0.010624,-0.15735,-0.070058,-0.95244,0.47929,-0.039889,0.55791,-0.077918,-0.027949,0.11973,0.10137,0.011953,-0.079719,-0.35459,0.02545,-0.050975,-0.061449
0.0030864,0.020538,-0.0050067,0.047804,-0.14239,-0.018795,0.085514,0.017383,-0.17124,0.14371,-0.95941,0.60364,-0.043881,0.59721,-0.09453,-0.035613,0.10616,0.071216,-0.010203,-0.14292,-0.3555,0.24334,-0.020843,-0.04233
0.0017869,0.025837,0.0012538,0.048491,-0.13662,0.0089943,0.091246,0.01842,-0.18917,0.29998,-0.96024,0.73047,-0.049642,0.6301,-0.10318,-0.045471,0.083179,0.053168,-0.014214,-0.19839,-0.33246,0.46061,0.01896,-0.035285
0.0019879,0.023868,0.0091839,0.046422,-0.12816,0.038216,0.084436,0.015663,-0.20971,0.41367,-0.94504,0.85166,-0.055158,0.65741,-0.11125,-0.054472,0.052832,0.042934,0.009106,-0.24866,-0.28673,0.64347,0.062689,-0.051845
0.0013018,0.019701,0.013248,0.043252,-0.12234,0.072762,0.071845,0.013918,-0.229,0.50139,-0.90999,0.96252,-0.060375,0.69057,-0.12485,-0.063014,0.020691,0.027873,0.045154,-0.28994,-0.22888,0.75965,0.10098,-0.08625
-0.0016225,0.020511,0.01204,0.041143,-0.11876,0.10123,0.06355,0.016526,-0.24228,0.59063,-0.85944,1.059,-0.064105,0.73923,-0.14203,-0.075136,-0.0079435,-0.00039935,0.065712,-0.31075,-0.1736,0.79574,0.12764,-0.11952
-0.0054507,0.028102,0.009513,0.040866,-0.11289,0.10749,0.063194,0.023065,-0.24608,0.70714,-0.80426,1.1364,-0.062804,0.7983,-0.15435,-0.095549,-0.030688,-0.037721,0.051562,-0.29867,-0.13026,0.76517,0.14361,-0.13463
-0.0074468,0.036628,0.010866,0.04115,-0.10145,0.088187,0.064991,0.030811,-0.24059,0.84645,-0.75771,1.1899,-0.053704,0.84577,-0.1548,-0.12525,-0.047978,-0.070723,0.0092108,-0.25076,-0.097429,0.70238,0.15482,-0.12876
-0.0062357,0.037897,0.017329,0.040093,-0.086371,0.059688,0.06018,0.037899,-0.23094,0.96049,-0.73026,1.2159,-0.039557,0.85308,-0.14423,-0.15948,-0.061174,-0.088116,-0.03247,-0.17865,-0.066381,0.64669,0.1663,-0.11109
-0.0031178,0.029263,0.025046,0.037321,-0.073523,0.046541,0.046107,0.044727,-0.22548,0.98279,-0.72486,1.2132,-0.029355,0.80081,-0.12956,-0.19047,-0.070927,-0.089302,-0.043257,-0.10357,-0.030285,0.62483,0.17835,-0.08797
-0.00063264,0.016456,0.028994,0.034656,-0.067591,0.061276,0.028678,0.052418,-0.23131,0.87966,-0.73447,1.1835,-0.032438,0.68954,-0.11577,-0.21297,-0.076944,-0.083016,-0.013097,-0.044765,0.0092584,0.64031,0.18787,-0.049705
9.7962e-006,0.008484,0.027847,0.03444,-0.068111,0.093834,0.015948,0.060388,-0.24937,0.6867,-0.74368,1.1312,-0.05015,0.54046,-0.10002,-0.22751,-0.078708,-0.078488,0.042818,-0.010323,0.044194,0.67414,0.1927,0.027101
-0.00011338,0.009426,0.024835,0.037072,-0.070262,0.12026,0.0098303,0.066013,-0.27308,0.49664,-0.73481,1.0637,-0.072822,0.38697,-0.074163,-0.23772,-0.076116,-0.078167,0.098045,0.0031753,0.068203,0.69602,0.19408,0.16114
0.00073428,0.01503,0.023863,0.040284,-0.069275,0.12268,0.0046349,0.06704,-0.29216,0.40367,-0.6958,0.98978,-0.086079,0.26138,-0.03354,-0.24361,-0.069514,-0.078354,0.13507,0.0036675,0.082966,0.68058,0.1948,0.34615
0.002517,0.01746,0.02504,0.041023,-0.06403,0.10294,-0.0063461,0.064375,-0.29934,0.44465,-0.62552,0.91634,-0.081923,0.1817,0.016605,-0.23822,-0.059431,-0.075627,0.15531,-0.0034018,0.096447,0.62038,0.19515,0.54637
0.0028533,0.013564,0.024409,0.038243,-0.056692,0.078675,-0.023604,0.062269,-0.29469,0.57907,-0.53292,0.84561,-0.064817,0.14312,0.064076,-0.2124,-0.046489,-0.071364,0.17282,-0.016302,0.11501,0.52856,0.19143,0.7135
-0.00090259,0.0084938,0.01835,0.033919,-0.049552,0.067251,-0.041492,0.065357,-0.28395,0.71805,-0.43107,0.77476,-0.046813,0.11898,0.099761,-0.16523,-0.031513,-0.06942,0.19904,-0.033399,0.13712,0.42952,0.17867,0.81393
-0.0088302,0.01087,0.0082839,0.031288,-0.042828,0.072541,-0.055449,0.075036,-0.27225,0.77737,-0.33122,0.69878,-0.035797,0.073604,0.12533,-0.11019,-0.015495,-0.069885,0.2322,-0.050505,0.15453,0.3435,0.15505,0.84644
-0.017621,0.023904,0.00071818,0.031993,-0.035658,0.085249,-0.068159,0.088424,-0.25927,0.71807,-0.24146,0.61484,-0.027774,-0.016953,0.15093,-0.069114,0.00080399,-0.066473,0.25852,-0.063155,0.15957,0.27562,0.12354,0.8373
-0.022722,0.041017,0.0021308,0.034787,-0.028646,0.093736,-0.087325,0.10079,-0.24047,0.55532,-0.16945,0.52451,-0.010858,-0.14747,0.18472,-0.056615,0.017246,-0.051617,0.26263,-0.07158,0.15135,0.21663,0.089391,0.81702
-0.021687,0.050465,0.013276,0.036838,-0.024488,0.093599,-0.11689,0.10927,-0.21364,0.34024,-0.12412,0.43237,0.022431,-0.28261,0.22408,-0.067494,0.034179,-0.025038,0.23816,-0.082334,0.13539,0.15391,0.056021,0.79667
-0.015915,0.045069,0.028223,0.036201,-0.025431,0.087801,-0.15109,0.1147,-0.18412,0.13253,-0.11154,0.34266,0.066196,-0.37656,0.25699,-0.079192,0.051639,0.0031355,0.19137,-0.10338,0.11806,0.083364,0.023789,0.76195
-0.0093916,0.028271,0.039086,0.033096,-0.03011,0.079961,-0.1785,0.12022,-0.16253,-0.022283,-0.12724,0.25749,0.10446,-0.40265,0.27232,-0.068796,0.068585,0.019301,0.13716,-0.13625,0.10176,0.012901,-0.0074327,0.68886
-0.0056351,0.011061,0.042162,0.029068,-0.033502,0.069695,-0.19272,0.12811,-0.15599,-0.10547,-0.1528,0.17803,0.12408,-0.37216,0.26951,-0.030789,0.083131,0.018313,0.091715,-0.17252,0.085488,-0.043987,-0.034854,0.56797
-0.005409,0.0026684,0.040083,0.025238,-0.030833,0.054831,-0.19892,0.13786,-0.16023,-0.12673,-0.16321,0.10651,0.12542,-0.32742,0.25865,0.019799,0.094044,0.0094625,0.066511,-0.19871,0.069021,-0.077582,-0.052666,0.4173
-0.0068618,0.003485,0.038483,0.021507,-0.022063,0.036411,-0.20894,0.14658,-0.16073,-0.11455,-0.14202,0.045915,0.12076,-0.31297,0.2513,0.061695,0.10244,0.0098991,0.065833,-0.20614,0.055446,-0.085905,-0.056046,0.27265
-0.0075762,0.0062939,0.040662,0.017379,-0.012523,0.018789,-0.2292,0.15105,-0.14309,-0.099045,-0.092408,-0.0032588,0.12216,-0.34671,0.25094,0.086283,0.11194,0.030174,0.087153,-0.19793,0.048721,-0.071665,-0.045748,0.16231
-0.00653,0.0040326,0.045148,0.013271,-0.0086332,0.0029325,-0.25323,0.14929,-0.10431,-0.096841,-0.03348,-0.0455,0.13013,-0.41339,0.25158,0.10418,0.12639,0.064444,0.12267,-0.1875,0.048751,-0.037873,-0.028733,0.085776
-0.0043993,-0.003547,0.04783,0.010775,-0.012324,-0.020196,-0.26689,0.14069,-0.055546,-0.10859,0.017096,-0.087941,0.13342,-0.48438,0.24477,0.13394,0.14643,0.09445,0.16093,-0.1902,0.049388,0.011642,-0.013717,0.01328
-0.0023595,-0.010373,0.046049,0.011477,-0.019229,-0.067176,-0.2616,0.12558,-0.013862,-0.13028,0.060375,-0.13366,0.11925,-0.54464,0.22751,0.18386,0.16752,0.1042,0.18874,-0.21455,0.042051,0.067359,-0.0051799,-0.093088
-0.00085815,-0.010592,0.04073,0.015452,-0.022382,-0.14924,-0.24295,0.1052,0.0097947,-0.16642,0.11821,-0.17663,0.084019,-0.60142,0.20372,0.24368,0.18155,0.092481,0.1939,-0.25891,0.022118,0.1118,-0.0010091,-0.25261
0.00043768,-0.0044166,0.035124,0.020897,-0.018133,-0.2581,-0.22625,0.082383,0.016237,-0.23012,0.21722,-0.20431,0.0351,-0.66616,0.17926,0.29342,0.18138,0.072265,0.16868,-0.31404,-0.0075829,0.12552,0.0041177,-0.45345
0.0017584,0.0022259,0.032077,0.025256,-0.0089786,-0.36276,-0.22323,0.061553,0.013547,-0.32692,0.36722,-0.20758,-0.016477,-0.72692,0.15668,0.32038,0.16495,0.058171,0.11236,-0.36783,-0.039173,0.098531,0.012571,-0.66288
0.0026935,0.0033222,0.032502,0.026869,-0.0008805,-0.42223,-0.23242,0.047201,0.0079759,-0.43712,0.55187,-0.18961,-0.064162,-0.73911,0.13522,0.32835,0.13598,0.053946,0.031082,-0.40868,-0.065692,0.037386,0.020359,-0.85123
0.0027983,-0.0022293,0.035779,0.025748,0.0023279,-0.40695,-0.24216,0.041551,-0.00063576,-0.51663,0.73889,-0.16487,-0.10739,-0.64762,0.11501,0.33118,0.10087,0.051296,-0.065601,-0.42714,-0.085446,-0.039653,0.01975,-1.0105
0.0026663,-0.010816,0.04066,0.022949,0.0023413,-0.315,-0.24257,0.043433,-0.015032,-0.52179,0.90096,-0.14761,-0.14662,-0.42508,0.099674,0.33796,0.064767,0.0401,-0.16921,-0.41772,-0.10158,-0.11632,0.0059253,-1.1534
0.0039842,-0.018342,0.045364,0.019323,0.0047039,-0.1733,-0.2345,0.04959,-0.033058,-0.4413,1.0305,-0.13917,-0.1785,-0.095528,0.09344,0.3444,0.030046,0.0193,-0.27475,-0.38132,-0.11827,-0.18942,-0.018053,-1.2937
0.0080237,-0.023494,0.047403,0.014861,0.013882,-0.024264,-0.2271,0.057344,-0.044942,-0.30817,1.1373,-0.12636,-0.19651,0.27601,0.095506,0.33799,-0.0021469,-0.0020666,-0.38009,-0.32609,-0.13761,-0.26752,-0.042512,-1.4249
0.013874,-0.02695,0.044597,0.0092146,0.029668,0.093158,-0.22729,0.066056,-0.038965,-0.17882,1.2338,-0.093685,-0.19622,0.61904,0.098073,0.3113,-0.029578,-0.013805,-0.48419,-0.26361,-0.15967,-0.3585,-0.057982,-1.5139
0.018459,-0.028554,0.037302,0.0027579,0.047862,0.15767,-0.23199,0.075895,-0.010825,-0.092865,1.3205,-0.039959,-0.17929,0.88942,0.091447,0.26993,-0.048689,-0.013743,-0.58736,-0.20116,-0.18484,-0.45751,-0.062079,-1.5182
0.018889,-0.026716,0.029627,-0.002997,0.063955,0.17027,-0.23122,0.085185,0.031959,-0.044815,1.3842,0.015641,-0.15254,1.0751,0.072361,0.22794,-0.056658,-0.0080349,-0.69287,-0.13536,-0.21507,-0.54637,-0.06087,-1.4155
0.015244,-0.021218,0.027393,-0.0062059,0.075974,0.15017,-0.21837,0.089371,0.074891,0.009668,1.408,0.044661,-0.12335,1.1785,0.047734,0.19574,-0.053313,-0.0032746,-0.80637,-0.053171,-0.25243,-0.60479,-0.063968,-1.2257
0.010984,-0.015783,0.033456,-0.0060911,0.084074,0.12559,-0.19698,0.083312,0.10658,0.11682,1.3844,0.029928,-0.096114,1.1993,0.029603,0.17206,-0.040683,0.00044832,-0.9302,0.058348,-0.2961,-0.62394,-0.077904,-1.0076
0.01013,-0.016231,0.044335,-0.0036408,0.088285,0.12254,-0.17705,0.065357,0.12553,0.28542,1.321,-0.020652,-0.072488,1.1364,0.02497,0.14705,-0.020805,0.0081243,-1.0555,0.20009,-0.34103,-0.61146,-0.10331,-0.83115
0.013534,-0.02478,0.051862,-0.00090359,0.087784,0.15431,-0.16475,0.039584,0.13845,0.47487,1.2358,-0.078332,-0.053748,1.0058,0.029247,0.11257,0.0053836,0.0222,-1.1601,0.35609,-0.38,-0.58574,-0.13731,-0.74142
0.017798,-0.036176,0.049432,0.00050746,0.083106,0.21557,-0.1565,0.013935,0.15272,0.6195,1.148,-0.11279,-0.04177,0.85205,0.029263,0.06967,0.036464,0.037841,-1.2174,0.50095,-0.40801,-0.56603,-0.17752,-0.73792
0.01819,-0.04072,0.037849,0.00032831,0.078772,0.28518,-0.14406,-0.0044109,0.17031,0.67049,1.07,-0.11177,-0.037341,0.73395,0.013616,0.027086,0.068125,0.046959,-1.2131,0.61477,-0.42541,-0.5657,-0.22287,-0.78266
0.013095,-0.032687,0.025364,-0.00079391,0.082381,0.33794,-0.12561,-0.012639,0.18818,0.62529,1.0055,-0.086691,-0.037984,0.69154,-0.018108,-0.0065168,0.09355,0.047093,-1.155,0.6945,-0.4376,-0.58953,-0.27086,-0.83068
0.0058728,-0.016617,0.021297,-0.0024548,0.099365,0.35932,-0.11106,-0.012198,0.20315,0.52508,0.95044,-0.061368,-0.038389,0.71995,-0.054718,-0.028814,0.10769,0.045518,-1.0678,0.75289,-0.45133,-0.63143,-0.315,-0.86169
0.0021775,-0.004885,0.028396,-0.0049846,0.12749,0.35338,-0.11485,-0.0057975,0.2156,0.42487,0.89419,-0.053754,-0.03388,0.77463,-0.081453,-0.043828,0.11194,0.053507,-0.97411,0.80606,-0.47026,-0.6718,-0.34656,-0.89131
0.0050506,-0.0076994,0.040548,-0.0086557,0.15666,0.33785,-0.14211,0.0052221,0.22805,0.35934,0.82201,-0.064802,-0.024056,0.80529,-0.089767,-0.057494,0.11419,0.075828,-0.87592,0.86027,-0.49265,-0.67957,-0.36023,-0.95571
0.01226,-0.024098,0.047889,-0.012503,0.17539,0.33,-0.18145,0.020768,0.24061,0.32794,0.71828,-0.081546,-0.013046,0.7919,-0.081177,-0.073798,0.12307,0.10578,-0.75282,0.90861,-0.51219,-0.62472,-0.35817,-1.0825
0.018345,-0.042227,0.044845,-0.014289,0.17919,0.33446,-0.21252,0.039856,0.24853,0.30686,0.57201,-0.089803,-0.0055538,0.75413,-0.063368,-0.093989,0.14093,0.13082,-0.57943,0.93992,-0.52096,-0.49729,-0.34823,-1.2706
0.01947,-0.049119,0.034149,-0.012094,0.17344,0.3424,-0.22231,0.059254,0.24484,0.27569,0.38195,-0.085167,-0.0015599,0.7294,-0.043395,-0.11716,0.16211,0.14361,-0.34866,0.95128,-0.51278,-0.31883,-0.33751,-1.4926
0.016575,-0.041618,0.023568,-0.0062081,0.16838,0.34132,-0.21557,0.074671,0.22585,0.23762,0.15778,-0.073934,0.0060432,0.74056,-0.024316,-0.13974,0.17847,0.1479,-0.08246,0.95235,-0.48582,-0.1333,-0.32744,-1.7171
0.014016,-0.028878,0.018674,0.00056457,0.17024,0.3257,-0.20905,0.083385,0.19452,0.2183,-0.08386,-0.064961,0.028564,0.78071,-0.0070643,-0.15438,0.18707,0.15411,0.1781,0.95778,-0.44391,0.020292,-0.31525,-1.9306
0.015137,-0.024292,0.018297,0.0048052,0.17653,0.29878,-0.21482,0.085634,0.15884,0.24528,-0.32626,-0.060855,0.074903,0.82486,0.0062909,-0.15136,0.19278,0.16886,0.39549,0.97425,-0.39619,0.13378,-0.30022,-2.1415
0.019069,-0.033919,0.016466,0.0050572,0.1792,0.26542,-0.22795,0.083364,0.12678,0.32396,-0.55792,-0.05647,0.14548,0.85405,0.012621,-0.12379,0.20314,0.18878,0.55394,0.99418,-0.35442,0.23258,-0.28732,-2.3632
0.021747,-0.051392,0.0085558,0.0027881,0.17242,0.22514,-0.23051,0.077769,0.10209,0.42827,-0.77338,-0.04539,0.23069,0.86911,0.011456,-0.07354,0.22032,0.20423,0.66147,1.0018,-0.3281,0.35074,-0.28351,-2.5917
0.020004,-0.063346,-0.0043231,0.00081937,0.15768,0.1736,-0.20846,0.0682,0.083462,0.51313,-0.97041,-0.027765,0.31498,0.88325,0.0077671,-0.012639,0.23792,0.20908,0.73756,0.98609,-0.31921,0.49695,-0.2892,-2.7949
0.014672,-0.060285,-0.016588,0.00063559,0.14216,0.11122,-0.16574,0.053428,0.066921,0.54037,-1.1466,-0.011973,0.38405,0.90323,0.0094983,0.042318,0.24578,0.20706,0.79818,0.94894,-0.32023,0.63908,-0.29399,-2.9244
0.0096723,-0.043487,-0.023427,0.0010577,0.13231,0.04875,-0.1223,0.033566,0.048678,0.50011,-1.2978,-0.0086844,0.43112,0.91748,0.020978,0.079095,0.23858,0.20846,0.84929,0.90137,-0.31771,0.72055,-0.28264,-2.9373
0.0080765,-0.022741,-0.024736,-0.00045709,0.12894,0.0019828,-0.097562,0.010232,0.02686,0.4135,-1.4183,-0.023127,0.45878,0.90195,0.038382,0.095549,0.22007,0.22022,0.89052,0.85162,-0.30014,0.69703,-0.24783,-2.8156
0.0091078,-0.0079795,-0.0241,-0.005065,0.12753,-0.021367,-0.09444,-0.015406,0.0018392,0.31544,-1.5028,-0.053004,0.47591,0.83815,0.052313,0.098189,0.19923,0.23864,0.92277,0.79663,-0.26536,0.56625,-0.19855,-2.5685
0.0091549,-0.0027354,-0.02432,-0.010913,0.12247,-0.030045,-0.098259,-0.044339,-0.024282,0.22995,-1.5476,-0.093939,0.4916,0.72839,0.055847,0.095576,0.18209,0.25166,0.95189,0.72536,-0.22214,0.37066,-0.15582,-2.2261
0.0058319,-0.0044875,-0.024404,-0.01426,0.11097,-0.043539,-0.091042,-0.078618,-0.048885,0.15542,-1.554,-0.14678,0.50963,0.59702,0.050628,0.092294,0.16701,0.24841,0.98618,0.63156,-0.18494,0.17358,-0.13817,-1.8298
0.00096512,-0.0098419,-0.021293,-0.012463,0.093606,-0.075945,-0.067473,-0.11773,-0.070629,0.069623,-1.5302,-0.21876,0.52624,0.47773,0.044949,0.087751,0.1477,0.22726,1.0305,0.52425,-0.16557,0.027356,-0.149,-1.4283
-0.00073019,-0.01817,-0.014519,-0.0062093,0.072455,-0.12369,-0.038096,-0.15591,-0.090834,-0.049791,-1.4917,-0.31591,0.53263,0.39595,0.045463,0.079289,0.12096,0.19512,1.0821,0.42562,-0.16743,-0.046403,-0.17633,-1.0725
0.0037044,-0.029946,-0.0086559,0.0010008,0.049375,-0.16858,-0.01789,-0.18374,-0.11281,-0.2048,-1.4557,-0.43293,0.52064,0.35683,0.050664,0.065725,0.09115,0.15933,1.1301,0.35641,-0.18545,-0.057496,-0.20467,-0.80211
0.011974,-0.042477,-0.010372,0.0056486,0.025804,-0.19356,-0.012067,-0.19371,-0.13863,-0.37208,-1.4313,-0.55035,0.48877,0.34478,0.052812,0.048156,0.06681,0.12059,1.1596,0.31985,-0.20991,-0.034885,-0.22746,-0.62877
0.017864,-0.049045,-0.022303,0.0067705,0.0030955,-0.19667,-0.012584,-0.18532,-0.1656,-0.51755,-1.4119,-0.64383,0.44455,0.33414,0.046523,0.028291,0.052246,0.073925,1.1584,0.29735,-0.23062,-0.011737,-0.24923,-0.52566
0.016566,-0.043881,-0.039601,0.0061214,-0.017891,-0.19047,-0.0076304,-0.16495,-0.18594,-0.61928,-1.3783,-0.70029,0.40148,0.30595,0.03521,0.0069394,0.042416,0.016403,1.122,0.26021,-0.23918,-0.01333,-0.27648,-0.43844
0.0091554,-0.028558,-0.052991,0.0060514,-0.037602,-0.18825,0.0062946,-0.14038,-0.19153,-0.6805,-1.3114,-0.72875,0.37172,0.2621,0.028374,-0.015415,0.026659,-0.046323,1.0575,0.18919,-0.23035,-0.048663,-0.30762,-0.31501
0.0019104,-0.012629,-0.056163,0.0073022,-0.057463,-0.19076,0.021734,-0.11463,-0.1807,-0.72167,-1.2082,-0.75632,0.35932,0.22748,0.032009,-0.036728,-0.0014268,-0.10164,0.98088,0.087924,-0.20386,-0.10703,-0.33223,-0.13721
0.00085069,-0.0062514,-0.051038,0.0087833,-0.077894,-0.18648,0.028856,-0.085102,-0.16119,-0.75792,-1.0868,-0.81086,0.35864,0.23564,0.041829,-0.05265,-0.036903,-0.13829,0.90935,-0.019012,-0.16594,-0.16301,-0.3404,0.066466
0.0064274,-0.010783,-0.046063,0.0092482,-0.096375,-0.16488,0.025713,-0.048551,-0.14572,-0.78094,-0.97458,-0.90171,0.35937,0.30374,0.046844,-0.058444,-0.066247,-0.15359,0.85193,-0.10143,-0.12739,-0.19117,-0.33227,0.23551
0.013232,-0.016431,-0.048899,0.0088657,-0.10804,-0.12937,0.019566,-0.0072423,-0.14258,-0.76204,-0.8864,-1.0122,0.35444,0.41284,0.040498,-0.052497,-0.078249,-0.153,0.80423,-0.14141,-0.097252,-0.18389,-0.31784,0.30971
0.014957,-0.010244,-0.059955,0.0089336,-0.1092,-0.096772,0.018451,0.030418,-0.1488,-0.67564,-0.81165,-1.1091,0.34469,0.51041,0.02849,-0.03866,-0.073805,-0.14369,0.75129,-0.14271,-0.075409,-0.16012,-0.30675,0.25921
0.010004,0.012079,-0.072435,0.010117,-0.10123,-0.083136,0.02237,0.056084,-0.15212,-0.52424,-0.721,-1.1627,0.33659,0.53769,0.024796,-0.025327,-0.065988,-0.12941,0.67729,-0.12724,-0.050627,-0.15633,-0.2983,0.097207
0.0026676,0.041329,-0.078629,0.011321,-0.091032,-0.088897,0.023608,0.069165,-0.1407,-0.34377,-0.58962,-1.1628,0.33472,0.4656,0.038576,-0.021665,-0.070216,-0.11181,0.57558,-0.12219,-0.0075339,-0.20351,-0.28177,-0.12764
-0.00089852,0.061844,-0.076637,0.010722,-0.087103,-0.097443,0.015903,0.078618,-0.11267,-0.18352,-0.41848,-1.1214,0.33523,0.31247,0.063836,-0.033478,-0.092837,-0.095688,0.45269,-0.14559,0.061585,-0.30558,-0.24709,-0.35158
0.002042,0.064515,-0.071547,0.0081055,-0.093811,-0.088833,0.0027531,0.096566,-0.077629,-0.076187,-0.23627,-1.0611,0.32599,0.12892,0.081895,-0.061149,-0.12736,-0.090815,0.32406,-0.19731,0.1495,-0.43461,-0.19539,-0.51872
0.0090523,0.05412,-0.070392,0.0059718,-0.10855,-0.056552,-0.0042092,0.12898,-0.048863,-0.020944,-0.080281,-0.99929,0.29398,-0.039483,0.075334,-0.10023,-0.16045,-0.10609,0.20582,-0.25985,0.23791,-0.54628,-0.1391,-0.5983
0.015409,0.044444,-0.075844,0.0078011,-0.12418,-0.012516,0.004282,0.17145,-0.033306,0.0088577,0.028167,-0.93994,0.23473,-0.1823,0.041744,-0.14341,-0.18144,-0.14058,0.10816,-0.30911,0.30988,-0.60405,-0.091313,-0.59107
0.018435,0.045787,-0.084415,0.01475,-0.13475,0.023677,0.025989,0.21343,-0.027641,0.04202,0.094625,-0.87724,0.15696,-0.32288,-0.0042403,-0.18219,-0.18715,-0.18043,0.033491,-0.33077,0.36079,-0.59511,-0.055237,-0.52284
0.019211,0.056248,-0.090409,0.023934,-0.13966,0.041264,0.048626,0.24638,-0.023177,0.089408,0.14209,-0.80582,0.078811,-0.48857,-0.041871,-0.2083,-0.1795,-0.20646,-0.022002,-0.33355,0.39888,-0.52913,-0.023885,-0.42785
0.020571,0.064363,-0.091466,0.0303,-0.14276,0.046077,0.060853,0.26829,-0.014191,0.14087,0.19192,-0.72834,0.018235,-0.67974,-0.05862,-0.21559,-0.16012,-0.2071,-0.065935,-0.3496,0.43577,-0.42495,0.010048,-0.33032
0.023859,0.060042,-0.090414,0.030758,-0.14744,0.053571,0.062428,0.281,-0.0019351,0.17716,0.25183,-0.65421,-0.016212,-0.86581,-0.0565,-0.20294,-0.12855,-0.18595,-0.10706,-0.41864,0.4763,-0.29801,0.044917,-0.23491
0.027609,0.043498,-0.092069,0.026863,-0.15224,0.07436,0.063912,0.28422,0.0086775,0.18458,0.3187,-0.59175,-0.02838,-1.0108,-0.046821,-0.17629,-0.085593,-0.15742,-0.15175,-0.56327,0.51672,-0.15765,0.071536,-0.1316
0.029005,0.024409,-0.098543,0.023456,-0.15134,0.10541,0.076296,0.27347,0.01546,0.16194,0.38943,-0.54159,-0.030146,-1.1037,-0.039638,-0.1473,-0.037488,-0.13445,-0.20045,-0.77132,0.55187,-0.012397,0.084178,-0.010413
0.026266,0.012989,-0.10771,0.024353,-0.13948,0.13402,0.10042,0.24449,0.021627,0.11849,0.46729,-0.49749,-0.033263,-1.1648,-0.037229,-0.12751,0.0046275,-0.11903,-0.24768,-0.99833,0.58295,0.12641,0.089676,0.12682
0.019701,0.011708,-0.11594,0.028979,-0.11705,0.14978,0.12601,0.19978,0.03221,0.068271,0.55828,-0.45375,-0.042878,-1.2206,-0.035567,-0.12104,0.030922,-0.10347,-0.28796,-1.1899,0.61729,0.24928,0.10431,0.26808
0.010985,0.01484,-0.12191,0.033066,-0.090522,0.15339,0.14091,0.14976,0.048239,0.024892,0.66321,-0.41226,-0.056156,-1.2728,-0.030078,-0.12136,0.039686,-0.079944,-0.32423,-1.3097,0.65947,0.35799,0.14023,0.40564
0.0019689,0.015003,-0.12726,0.032707,-0.067841,0.15479,0.14169,0.10631,0.06494,-0.0022114,0.77505,-0.38279,-0.065604,-1.2908,-0.019299,-0.11546,0.038502,-0.049122,-0.37068,-1.3545,0.70247,0.46938,0.1941,0.55038
-0.0056952,0.0096249,-0.13373,0.02794,-0.052709,0.16363,0.13595,0.073824,0.076032,-0.010748,0.88398,-0.37594,-0.06395,-1.2372,-0.0039501,-0.093551,0.038305,-0.019907,-0.4439,-1.3479,0.72838,0.60635,0.24901,0.73122
-0.010305,0.0014216,-0.14008,0.022544,-0.042785,0.18135,0.13465,0.046457,0.079881,-0.0059974,0.98391,-0.39449,-0.047391,-1.1055,0.015505,-0.057024,0.04521,-0.0014947,-0.54679,-1.3203,0.71955,0.78072,0.28846,0.9757
-0.010392,-0.0063175,-0.14257,0.020382,-0.032963,0.20176,0.14228,0.014412,0.081305,0.0037958,1.073,-0.43034,-0.016086,-0.93495,0.038603,-0.018411,0.056964,0.004287,-0.6587,-1.2894,0.67135,0.98062,0.3096,1.2849
-0.0059992,-0.013749,-0.13891,0.021858,-0.020247,0.21846,0.15398,-0.026085,0.087168,0.015949,1.1481,-0.46879,0.027064,-0.78869,0.061871,0.0072958,0.066598,0.0033412,-0.74335,-1.2547,0.59534,1.173,0.32358,1.6232
0.00015985,-0.023401,-0.13167,0.023736,-0.0055769,0.23125,0.16174,-0.068288,0.10018,0.039516,1.2009,-0.49649,0.077655,-0.71186,0.077407,0.01339,0.069382,0.002814,-0.77231,-1.2046,0.5101,1.3195,0.34359,1.9357
0.0033258,-0.035604,-0.12717,0.022195,0.0086158,0.24549,0.16309,-0.10009,0.11709,0.092338,1.222,-0.50675,0.13024,-0.70489,0.076778,0.0060063,0.066583,0.0045593,-0.74725,-1.1298,0.42736,1.3941,0.37226,2.1831
-0.00054628,-0.046039,-0.13022,0.016009,0.021871,0.26578,0.16343,-0.11412,0.13295,0.18881,1.2107,-0.49938,0.17858,-0.7321,0.058406,-0.00082124,0.06294,0.0046954,-0.70283,-1.0311,0.34564,1.3907,0.40036,2.3682
-0.011686,-0.048759,-0.1394,0.0070505,0.036015,0.29041,0.16991,-0.11388,0.14672,0.32689,1.1796,-0.47726,0.21666,-0.75518,0.03183,0.0048211,0.060811,-0.0011333,-0.68629,-0.92043,0.25597,1.3192,0.41679,2.5319
-0.025667,-0.04198,-0.14744,-0.0017544,0.051788,0.3118,0.18312,-0.11094,0.16212,0.48501,1.1471,-0.44339,0.24068,-0.76048,0.013645,0.02582,0.056831,-0.012878,-0.72877,-0.81466,0.1537,1.1966,0.41918,2.7179
-0.035911,-0.030543,-0.14682,-0.0085564,0.065666,0.32185,0.19527,-0.11657,0.18235,0.63273,1.1234,-0.40072,0.25068,-0.75796,0.01695,0.057198,0.044154,-0.026965,-0.82948,-0.72715,0.044609,1.0415,0.41442,2.9322
-0.037936,-0.022016,-0.13569,-0.012869,0.071199,0.31667,0.19696,-0.1353,0.20431,0.74718,1.1004,-0.35298,0.25018,-0.75714,0.042409,0.09306,0.017989,-0.04204,-0.96257,-0.66141,-0.059976,0.87333,0.40921,3.1305
-0.032208,-0.019933,-0.11893,-0.014551,0.06468,0.29664,0.18615,-0.16469,0.21877,0.82304,1.0574,-0.30443,0.24304,-0.74687,0.078293,0.13233,-0.020647,-0.063212,-1.0972,-0.60914,-0.15378,0.71254,0.40118,3.2445
-0.023504,-0.02095,-0.10366,-0.013377,0.049939,0.26319,0.17037,-0.19936,0.21772,0.86892,0.97846,-0.25798,0.22952,-0.7,0.10953,0.17811,-0.065847,-0.099392,-1.2125,-0.55422,-0.24061,0.57885,0.38031,3.2304
-0.017414,-0.018976,-0.093325,-0.0099166,0.036854,0.21698,0.15968,-0.23377,0.20254,0.89519,0.86769,-0.21374,0.20447,-0.59859,0.12822,0.23202,-0.11087,-0.15504,-1.2973,-0.4817,-0.32818,0.48773,0.33953,3.101
-0.016688,-0.012275,-0.085798,-0.0063101,0.033748,0.15982,0.15702,-0.26192,0.18518,0.90475,0.74939,-0.16962,0.1604,-0.45474,0.1373,0.28952,-0.15145,-0.22366,-1.341,-0.38756,-0.41651,0.44724,0.28388,2.9189
-0.019968,-0.0062103,-0.076625,-0.0052838,0.040056,0.097753,0.15546,-0.27682,0.18033,0.89436,0.65287,-0.12309,0.093964,-0.3055,0.14502,0.3414,-0.18607,-0.28958,-1.3286,-0.28316,-0.49277,0.45572,0.22871,2.7543
-0.023362,-0.0084242,-0.06403,-0.0077989,0.046319,0.040326,0.14531,-0.27373,0.19503,0.86337,0.59434,-0.071917,0.011893,-0.18504,0.15597,0.38035,-0.21441,-0.33739,-1.2494,-0.19084,-0.53923,0.49969,0.18811,2.6429
-0.023328,-0.02089,-0.050855,-0.011756,0.042253,-0.0050473,0.12442,-0.25614,0.22442,0.82,0.56973,-0.013142,-0.068976,-0.098129,0.16628,0.40653,-0.23618,-0.36133,-1.1092,-0.13285,-0.54845,0.55479,0.16467,2.5711
-0.018831,-0.036712,-0.041914,-0.013546,0.026073,-0.03925,0.10176,-0.2383,0.25695,0.7781,0.56222,0.057454,-0.12895,-0.018093,0.16657,0.42691,-0.25141,-0.36693,-0.93283,-0.12049,-0.5324,0.59366,0.14994,2.4973
-0.01175,-0.045187,-0.039574,-0.011335,0.0064991,-0.071681,0.090426,-0.23923,0.28389,0.74754,0.55623,0.14291,-0.15627,0.090099,0.1491,0.44852,-0.2608,-0.36407,-0.75194,-0.15001,-0.51643,0.60108,0.13428,2.3864
-0.0057356,-0.040589,-0.041768,-0.0069008,-0.0048363,-0.11276,0.096211,-0.27073,0.30447,0.72752,0.54631,0.24042,-0.15423,0.24196,0.11298,0.47168,-0.26487,-0.35824,-0.58651,-0.20686,-0.52197,0.58642,0.11615,2.2314
-0.0042691,-0.026488,-0.044017,-0.0040339,-0.0041412,-0.16414,0.11223,-0.32852,0.32282,0.709,0.53626,0.33897,-0.13934,0.42258,0.064206,0.4892,-0.26279,-0.34732,-0.43655,-0.27418,-0.55145,0.58001,0.10217,2.0496
-0.0087045,-0.011731,-0.043197,-0.0049517,0.0002762,-0.215,0.12457,-0.39492,0.34092,0.68335,0.53307,0.42356,-0.13115,0.59721,0.011897,0.49233,-0.25279,-0.32592,-0.28991,-0.34017,-0.5871,0.60918,0.09871,1.8622
-0.017143,-0.0023541,-0.039443,-0.0082885,-0.0056297,-0.24823,0.12385,-0.45181,0.3554,0.64833,0.54291,0.48436,-0.14052,0.73033,-0.035182,0.47852,-0.2351,-0.29176,-0.13764,-0.40134,-0.60385,0.6689,0.10428,1.6779
-0.025038,0.0026331,-0.034703,-0.010707,-0.029881,-0.25209,0.11253,-0.49311,0.36133,0.60608,0.57101,0.52371,-0.16449,0.79819,-0.070283,0.4544,-0.21479,-0.2482,0.018386,-0.46189,-0.5858,0.71187,0.1101,1.4913
-0.027776,0.0078979,-0.029829,-0.010519,-0.067377,-0.22825,0.10189,-0.52605,0.35877,0.55685,0.62143,0.55391,-0.19119,0.79185,-0.089644,0.43147,-0.20102,-0.20135,0.17196,-0.53023,-0.53415,0.67236,0.10762,1.2922
-0.023925,0.015076,-0.023344,-0.009619,-0.1035,-0.19023,0.10191,-0.5602,0.35469,0.49662,0.69306,0.5864,-0.21038,0.71742,-0.09419,0.41816,-0.2017,-0.15623,0.32458,-0.61347,-0.46283,0.51096,0.095145,1.0754
-0.016723,0.020199,-0.013172,-0.011705,-0.12523,-0.15403,0.11324,-0.59449,0.3575,0.42227,0.77468,0.62124,-0.22103,0.59763,-0.090636,0.41441,-0.2173,-0.11571,0.48854,-0.71089,-0.3873,0.24676,0.077317,0.84286
-0.012041,0.018131,0.00050441,-0.018443,-0.13043,-0.12914,0.12773,-0.61456,0.36924,0.33901,0.84582,0.64661,-0.22972,0.46964,-0.089089,0.41291,-0.23933,-0.082083,0.6757,-0.80992,-0.3158,-0.050321,0.058687,0.60011
-0.013835,0.0091309,0.014324,-0.027354,-0.12789,-0.11642,0.13618,-0.60345,0.3834,0.26064,0.88645,0.64992,-0.24165,0.37197,-0.096668,0.40546,-0.25564,-0.057286,0.88238,-0.88838,-0.2481,-0.30456,0.03846,0.35218
-0.020578,6.7167e-006,0.023995,-0.033555,-0.129,-0.11302,0.13594,-0.55623,0.39087,0.20005,0.88915,0.63138,-0.25265,0.32459,-0.11138,0.38942,-0.25896,-0.039673,1.0863,-0.92366,-0.1801,-0.48433,0.01159,0.10258
-0.025951,-0.002159,0.027776,-0.03384,-0.13866,-0.11811,0.13224,-0.48557,0.38857,0.15743,0.86311,0.60776,-0.24998,0.31798,-0.12223,0.36921,-0.25132,-0.021028,1.2614,-0.90393,-0.10941,-0.6193,-0.025308,-0.14588
-0.023736,0.0024142,0.027902,-0.029361,-0.15297,-0.13359,0.13303,-0.4134,0.38221,0.11773,0.82536,0.60173,-0.2223,0.32407,-0.11724,0.35222,-0.24068,0.010616,1.3978,-0.83365,-0.038333,-0.77271,-0.069613,-0.39124
-0.013107,0.0055947,0.02848,-0.024514,-0.16439,-0.15989,0.14271,-0.35604,0.38035,0.061635,0.78646,0.62462,-0.1704,0.32312,-0.093697,0.34276,-0.23267,0.061634,1.5098,-0.72914,0.025995,-0.99047,-0.11451,-0.63378
0.00017609,-0.00069165,0.031754,-0.023175,-0.16903,-0.19223,0.15986,-0.3158,0.38549,-0.018708,0.74348,0.66635,-0.10915,0.32314,-0.061812,0.33868,-0.22527,0.12413,1.6218,-0.60778,0.073123,-1.2653,-0.1553,-0.87666
0.0078952,-0.015368,0.036209,-0.025761,-0.16946,-0.22271,0.17957,-0.28524,0.391,-0.11298,0.68673,0.70058,-0.058113,0.35214,-0.037862,0.33306,-0.21113,0.17737,1.7454,-0.47902,0.092031,-1.5406,-0.19397,-1.125
0.0055869,-0.027522,0.038298,-0.029644,-0.1714,-0.24692,0.19715,-0.25887,0.3871,-0.20168,0.61284,0.70113,-0.028246,0.42751,-0.031917,0.31906,-0.18532,0.20131,1.8661,-0.34373,0.075433,-1.7479,-0.23742,-1.3847
-0.0041936,-0.025977,0.036087,-0.032177,-0.1785,-0.26853,0.20958,-0.24088,0.37004,-0.27343,0.53059,0.65747,-0.015526,0.5298,-0.040543,0.29415,-0.15079,0.19266,1.9537,-0.2009,0.024774,-1.8485,-0.29061,-1.6635
-0.014072,-0.010621,0.031365,-0.033214,-0.18991,-0.29607,0.21482,-0.24214,0.34583,-0.33531,0.45288,0.57829,-0.0065822,0.60681,-0.050831,0.26106,-0.11629,0.16946,1.9851,-0.05509,-0.047027,-1.8509,-0.35055,-1.9729
-0.017478,0.0056004,0.028264,-0.03469,-0.20232,-0.33335,0.21113,-0.26991,0.32471,-0.40684,0.38222,0.48246,0.0090267,0.60771,-0.052176,0.22563,-0.088737,0.15866,1.9621,0.081882,-0.11837,-1.794,-0.40641,-2.3275
-0.013004,0.0069353,0.029734,-0.037915,-0.21319,-0.37209,0.19809,-0.31959,0.31202,-0.50262,0.30441,0.3853,0.030576,0.51916,-0.045422,0.19375,-0.067526,0.17566,1.9088,0.19566,-0.1674,-1.7142,-0.44535,-2.7386
-0.004303,-0.011389,0.035101,-0.041531,-0.22173,-0.39423,0.178,-0.37557,0.30393,-0.61858,0.19788,0.29008,0.048486,0.37253,-0.041531,0.16898,-0.046266,0.21267,1.8528,0.27578,-0.18171,-1.6193,-0.45925,-3.2018
0.0036938,-0.038351,0.040769,-0.04241,-0.22727,-0.38375,0.15508,-0.41917,0.29174,-0.73339,0.051215,0.18955,0.054026,0.2159,-0.051493,0.15135,-0.019974,0.24589,1.8064,0.31883,-0.1627,-1.4897,-0.44713,-3.6868
0.0084926,-0.055933,0.04322,-0.038719,-0.22764,-0.33888,0.13214,-0.43696,0.27028,-0.82302,-0.12666,0.074643,0.047012,0.074833,-0.076895,0.1368,0.0096281,0.25531,1.7637,0.32699,-0.12171,-1.3019,-0.41267,-4.1365
0.010646,-0.053845,0.041583,-0.032048,-0.22024,-0.27459,0.10774,-0.42365,0.24202,-0.87539,-0.31288,-0.056775,0.034782,-0.06571,-0.10946,0.1178,0.035872,0.23995,1.7128,0.30505,-0.07054,-1.0554,-0.36049,-4.4781
0.011515,-0.037259,0.03771,-0.026272,-0.20497,-0.21312,0.077183,-0.38005,0.2136,-0.8936,-0.48775,-0.19703,0.024423,-0.24541,-0.13937,0.08563,0.053829,0.21601,1.6495,0.25898,-0.013867,-0.78045,-0.29493,-4.6444
0.011102,-0.021189,0.034054,-0.024083,-0.18586,-0.16959,0.037268,-0.31029,0.18857,-0.88793,-0.64733,-0.33289,0.016477,-0.49397,-0.16423,0.034422,0.064787,0.2007,1.5813,0.19639,0.051381,-0.52008,-0.22128,-4.5936
0.0083672,-0.01722,0.031398,-0.024543,-0.16911,-0.14376,-0.0093425,-0.22118,0.1638,-0.86673,-0.80111,-0.45325,0.0064054,-0.80542,-0.19065,-0.03537,0.073934,0.19719,1.5187,0.12657,0.1301,-0.29928,-0.14627,-4.3197
0.0034738,-0.024629,0.028394,-0.024157,-0.15901,-0.12357,-0.054743,-0.12269,0.13294,-0.83569,-0.95832,-0.55427,-0.0080069,-1.1378,-0.22743,-0.11673,0.083913,0.19376,1.4651,0.058027,0.22245,-0.10788,-0.075354,-3.8484
-0.00088847,-0.03306,0.023126,-0.020546,-0.15528,-0.09718,-0.091293,-0.026394,0.093264,-0.80363,-1.1163,-0.63844,-0.021344,-1.4333,-0.27695,-0.19993,0.091339,0.17682,1.4135,-0.0054496,0.32207,0.086876,-0.0085385,-3.2234
-0.0011026,-0.033062,0.015244,-0.015117,-0.15386,-0.064303,-0.11712,0.058626,0.049205,-0.78517,-1.2612,-0.70897,-0.023631,-1.6432,-0.33202,-0.27798,0.090208,0.14438,1.3542,-0.066625,0.41967,0.30576,0.060378,-2.4897
0.0039999,-0.024207,0.0067961,-0.012027,-0.15009,-0.038504,-0.13647,0.12944,0.0093228,-0.79317,-1.3795,-0.76517,-0.0098805,-1.7454,-0.38031,-0.34948,0.078726,0.10776,1.2837,-0.13188,0.50768,0.52952,0.13872,-1.6872
0.011359,-0.013904,0.0010081,-0.01426,-0.14124,-0.038929,-0.15472,0.18896,-0.020242,-0.82611,-1.4683,-0.8043,0.012592,-1.7505,-0.4115,-0.41677,0.062241,0.081021,1.2069,-0.20479,0.58179,0.70334,0.22705,-0.85458
0.015699,-0.0093448,-4.1509e-005,-0.020516,-0.12697,-0.077039,-0.17324,0.24129,-0.039738,-0.86338,-1.5359,-0.82934,0.026618,-1.698,-0.42164,-0.48117,0.04879,0.06909,1.1301,-0.28091,0.6389,0.77405,0.31535,-0.038402
0.013928,-0.01109,0.0029999,-0.025927,-0.10885,-0.14741,-0.18917,0.28682,-0.054065,-0.87685,-1.5932,-0.8556,0.016379,-1.641,-0.41254,-0.53986,0.041479,0.065343,1.0518,-0.34848,0.67511,0.73165,0.38785,0.70527
0.0079905,-0.014248,0.0071904,-0.026075,-0.090371,-0.22919,-0.20008,0.32115,-0.067773,-0.85191,-1.6456,-0.90794,-0.021635,-1.6217,-0.3888,-0.58704,0.035403,0.05916,0.96173,-0.39507,0.68667,0.62013,0.43362,1.3238
0.0034008,-0.015155,0.0093705,-0.020726,-0.076945,-0.29792,-0.208,0.3387,-0.081939,-0.80101,-1.6923,-1.0071,-0.077038,-1.6477,-0.35549,-0.61824,0.022459,0.044385,0.84687,-0.4157,0.67323,0.50666,0.45494,1.7903
0.0045748,-0.016127,0.0081966,-0.013957,-0.074215,-0.34029,-0.21805,0.33769,-0.095525,-0.75705,-1.7328,-1.1535,-0.13426,-1.6839,-0.31712,-0.63367,-0.00058695,0.020706,0.70189,-0.41614,0.64,0.43286,0.46655,2.1195
0.011066,-0.023181,0.0045744,-0.010665,-0.08434,-0.3617,-0.23286,0.32211,-0.10892,-0.75075,-1.7714,-1.3222,-0.1836,-1.6701,-0.27605,-0.6377,-0.028708,-0.010761,0.5332,-0.4084,0.59634,0.38813,0.48636,2.3623
0.018058,-0.039036,0.00038089,-0.012588,-0.10317,-0.38087,-0.24861,0.29983,-0.12522,-0.78972,-1.8149,-1.4735,-0.22511,-1.5539,-0.23017,-0.63507,-0.053214,-0.049686,0.35476,-0.40156,0.55219,0.32658,0.52473,2.5803
0.02065,-0.058618,-0.0032114,-0.017213,-0.12198,-0.41465,-0.25769,0.27901,-0.1474,-0.85541,-1.8645,-1.5753,-0.26298,-1.3166,-0.17224,-0.62778,-0.06959,-0.092196,0.17999,-0.39442,0.51541,0.21222,0.57992,2.8176
0.018061,-0.07207,-0.0063881,-0.020203,-0.13362,-0.46368,-0.25564,0.2661,-0.17423,-0.91862,-1.9111,-1.619,-0.29716,-0.97668,-0.094055,-0.61499,-0.080679,-0.12552,0.016575,-0.37562,0.49143,0.053562,0.64136,3.0884
0.014027,-0.072947,-0.010085,-0.01898,-0.13829,-0.50968,-0.24544,0.26586,-0.19943,-0.95896,-1.9381,-1.6189,-0.32106,-0.57142,0.0055428,-0.59571,-0.092174,-0.13145,-0.13288,-0.33122,0.48355,-0.10104,0.6965,3.3898
0.013083,-0.064048,-0.01504,-0.014403,-0.14306,-0.52713,-0.23435,0.28124,-0.2157,-0.97212,-1.9301,-1.5958,-0.32776,-0.13866,0.11444,-0.57098,-0.1053,-0.10039,-0.26766,-0.25453,0.49124,-0.20133,0.73572,3.7216
0.016123,-0.055152,-0.021412,-0.0094427,-0.15469,-0.50139,-0.2263,0.31138,-0.22012,-0.96114,-1.8792,-1.5606,-0.31832,0.28664,0.20924,-0.54359,-0.11454,-0.044763,-0.38806,-0.15096,0.5072,-0.2326,0.75381,4.0941
0.019263,-0.054325,-0.02892,-0.0064278,-0.17208,-0.44003,-0.21784,0.34875,-0.21609,-0.92286,-1.7839,-1.5092,-0.30376,0.66345,0.26614,-0.51592,-0.11315,0.0031699,-0.49778,-0.034708,0.51708,-0.22251,0.74968,4.512
0.017107,-0.060527,-0.036875,-0.0053567,-0.18569,-0.369,-0.20223,0.37873,-0.20965,-0.84419,-1.6433,-1.4335,-0.29834,0.94213,0.27419,-0.48838,-0.10111,0.012023,-0.60543,0.079899,0.50495,-0.21566,0.72651,4.949
0.007674,-0.06439,-0.043912,-0.0045619,-0.18549,-0.3161,-0.17776,0.38422,-0.20382,-0.71359,-1.4542,-1.334,-0.31019,1.0816,0.24137,-0.45964,-0.087245,-0.024911,-0.7211,0.18569,0.46269,-0.24142,0.69112,5.3383
-0.0053261,-0.056813,-0.048078,-0.0028019,-0.17041,-0.29375,-0.15134,0.35365,-0.19624,-0.53872,-1.2158,-1.2228,-0.33728,1.0768,0.18939,-0.42778,-0.082424,-0.083868,-0.84886,0.28322,0.39632,-0.30134,0.65073,5.5958
-0.014921,-0.037891,-0.04785,-0.0007193,-0.15033,-0.29315,-0.13275,0.2876,-0.18236,-0.35477,-0.93845,-1.1121,-0.37151,0.97149,0.14101,-0.39056,-0.089503,-0.12983,-0.98134,0.37506,0.32349,-0.37972,0.60813,5.6663
-0.016105,-0.018193,-0.043514,-0.00031612,-0.13832,-0.2935,-0.12492,0.19938,-0.16096,-0.21392,-0.64763,-1.0013,-0.40569,0.83604,0.10911,-0.34495,-0.099181,-0.14509,-1.1019,0.45974,0.26293,-0.45968,0.55943,5.5592
-0.0095072,-0.011049,-0.03748,-0.0029395,-0.13995,-0.27876,-0.12045,0.10883,-0.13642,-0.1602,-0.37522,-0.87608,-0.43699,0.72365,0.093863,-0.28788,-0.096254,-0.14192,-1.1937,0.53118,0.22354,-0.52755,0.49821,5.3452
-0.00045741,-0.022321,-0.032834,-0.0076209,-0.14938,-0.24955,-0.10875,0.033509,-0.11529,-0.20483,-0.14351,-0.72348,-0.46483,0.63659,0.087593,-0.21929,-0.071407,-0.14805,-1.2496,0.58438,0.20164,-0.5671,0.4237,5.1125
0.0056616,-0.046166,-0.031153,-0.011359,-0.15586,-0.22165,-0.087512,-0.017353,-0.10049,-0.31806,0.046509,-0.55024,-0.48756,0.53234,0.081553,-0.14566,-0.028605,-0.17835,-1.2742,0.622,0.1878,-0.55846,0.34551,4.9102
0.0076647,-0.069812,-0.031632,-0.011296,-0.15403,-0.21342,-0.066706,-0.043218,-0.089078,-0.44358,0.21187,-0.38755,-0.5025,0.36625,0.069791,-0.079869,0.018193,-0.21936,-1.2786,0.65519,0.17643,-0.48994,0.27911,4.7227
0.0087265,-0.082731,-0.032382,-0.0070731,-0.14834,-0.23219,-0.060374,-0.048599,-0.075998,-0.5279,0.37092,-0.27545,-0.50927,0.13647,0.049718,-0.03529,0.056075,-0.24083,-1.2711,0.69711,0.16938,-0.37115,0.23464,4.4931
0.012497,-0.082633,-0.032599,-0.0013663,-0.14749,-0.27026,-0.073507,-0.039379,-0.060461,-0.54739,0.52602,-0.23755,-0.51182,-0.10621,0.022047,-0.017279,0.082477,-0.22336,-1.2534,0.75444,0.17079,-0.22888,0.20856,4.1767
0.018953,-0.074557,-0.03335,0.0019818,-0.15471,-0.3131,-0.096873,-0.021643,-0.048356,-0.51724,0.65965,-0.26573,-0.51573,-0.29161,-0.0084148,-0.018391,0.10518,-0.17627,-1.2228,0.82409,0.17924,-0.082997,0.18623,3.7811
0.024029,-0.065595,-0.036167,0.0008521,-0.1638,-0.35189,-0.11532,-0.002167,-0.047771,-0.47743,0.74719,-0.32616,-0.52252,-0.37927,-0.032818,-0.021859,0.13378,-0.12942,-1.1803,0.8979,0.18626,0.076082,0.15369,3.3606
0.023489,-0.060446,-0.041012,-0.003543,-0.16488,-0.38962,-0.12182,0.012096,-0.061388,-0.46511,0.77597,-0.38073,-0.52664,-0.38354,-0.041446,-0.011409,0.17064,-0.10731,-1.136,0.97042,0.18401,0.28218,0.10816,2.9712
0.017351,-0.060411,-0.045923,-0.0076482,-0.15417,-0.4352,-0.12352,0.016632,-0.082911,-0.49116,0.75537,-0.40685,-0.51856,-0.35668,-0.029174,0.019745,0.20903,-0.10944,-1.1079,1.0425,0.17542,0.55898,0.057982,2.6249
0.010432,-0.064455,-0.04884,-0.0083516,-0.13782,-0.49125,-0.13372,0.012052,-0.10126,-0.53538,0.71071,-0.40218,-0.49151,-0.34715,0.0010521,0.067195,0.23915,-0.11384,-1.1117,1.1174,0.17615,0.88582,0.012821,2.2838
0.0081878,-0.069954,-0.049698,-0.0052894,-0.12571,-0.54692,-0.15747,0.0037042,-0.10893,-0.56221,0.66665,-0.37538,-0.44569,-0.36852,0.040332,0.12149,0.25575,-0.098398,-1.1491,1.1936,0.20408,1.1982,-0.025711,1.8972
0.011621,-0.072986,-0.050451,-0.00082521,-0.12087,-0.58282,-0.185,-0.0024172,-0.107,-0.54516,0.63328,-0.33469,-0.38603,-0.40204,0.080303,0.17659,0.26046,-0.059323,-1.2006,1.2619,0.26371,1.4275,-0.063873,1.4486
0.01622,-0.069843,-0.052885,0.0021351,-0.11523,-0.58394,-0.19995,-0.0042037,-0.10232,-0.48314,0.60401,-0.28502,-0.31647,-0.42514,0.11832,0.23383,0.25777,-0.010895,-1.231,1.3102,0.33898,1.5467,-0.10711,0.97198
0.016228,-0.060053,-0.056536,0.0024966,-0.096352,-0.5487,-0.19474,-0.0041379,-0.1001,-0.39854,0.56444,-0.23299,-0.23712,-0.43719,0.15647,0.29888,0.24956,0.030133,-1.2049,1.3322,0.40205,1.5814,-0.1527,0.52414
0.01037,-0.048283,-0.059053,0.0014623,-0.059361,-0.48608,-0.17844,-0.0053022,-0.09919,-0.32055,0.50379,-0.19108,-0.1479,-0.46015,0.19541,0.37447,0.23413,0.058575,-1.1059,1.3314,0.43217,1.578,-0.19194,0.13925
0.0035048,-0.042098,-0.058803,0.00088996,-0.012738,-0.40409,-0.16907,-0.0066049,-0.094644,-0.26677,0.42106,-0.1734,-0.055368,-0.51676,0.22933,0.45445,0.21015,0.080276,-0.94601,1.3187,0.42964,1.5604,-0.21976,-0.19519
0.0023616,-0.046207,-0.056968,0.001224,0.027697,-0.30218,-0.17724,-0.0023771,-0.084518,-0.23576,0.32413,-0.18605,0.02517,-0.60937,0.24786,0.52327,0.18117,0.10021,-0.75971,1.3035,0.41303,1.516,-0.24141,-0.523
0.0092,-0.058003,-0.056735,0.001043,0.051413,-0.17605,-0.19627,0.012538,-0.073677,-0.21384,0.22465,-0.22157,0.076287,-0.71953,0.24419,0.56126,0.15517,0.11366,-0.58657,1.2879,0.40216,1.4216,-0.26911,-0.88144
0.019435,-0.069052,-0.060115,-0.001338,0.060956,-0.0309,-0.2079,0.036685,-0.070286,-0.18853,0.13284,-0.26462,0.089912,-0.82713,0.2222,0.55321,0.13888,0.11044,-0.45384,1.2675,0.40108,1.2792,-0.31168,-1.2738
0.025622,-0.071958,-0.065574,-0.0058021,0.068122,0.11087,-0.19858,0.060874,-0.078108,-0.15754,0.053576,-0.30453,0.073895,-0.929,0.19556,0.49612,0.1318,0.08758,-0.36923,1.2374,0.39535,1.1201,-0.36775,-1.6718
0.024137,-0.066557,-0.069058,-0.0099976,0.082662,0.21802,-0.17124,0.073546,-0.092182,-0.12742,-0.015664,-0.34342,0.047104,-1.0379,0.1783,0.40211,0.12577,0.056363,-0.32536,1.198,0.36535,0.97405,-0.4291,-2.0399
0.018234,-0.05951,-0.067694,-0.011103,0.10436,0.27042,-0.14227,0.067924,-0.10246,-0.10499,-0.084349,-0.39167,0.026134,-1.163,0.17456,0.29398,0.11112,0.035299,-0.3093,1.1554,0.30368,0.83506,-0.48964,-2.3598
0.014621,-0.057448,-0.062637,-0.008226,0.12548,0.27404,-0.12683,0.044403,-0.10239,-0.089875,-0.16475,-0.45444,0.014379,-1.2903,0.17631,0.19464,0.084805,0.034876,-0.3093,1.1182,0.22187,0.66346,-0.5499,-2.6386
0.016891,-0.060228,-0.058216,-0.0031944,0.14025,0.25757,-0.12619,0.0064039,-0.094726,-0.074282,-0.26536,-0.52144,0.0026523,-1.3817,0.17099,0.1157,0.053649,0.048718,-0.31597,1.0916,0.14166,0.42854,-0.61182,-2.9026
0.022099,-0.06097,-0.058012,0.001018,0.1517,0.25236,-0.12824,-0.045445,-0.08928,-0.049237,-0.38623,-0.57025,-0.01936,-1.3946,0.15268,0.052825,0.029947,0.05984,-0.32101,1.0752,0.078965,0.15242,-0.66979,-3.1835
0.023644,-0.053014,-0.061568,0.0027782,0.16899,0.27216,-0.11985,-0.114,-0.094771,-0.011177,-0.52068,-0.5811,-0.050938,-1.3051,0.12688,-0.0080687,0.022778,0.056106,-0.31715,1.0651,0.033888,-0.089536,-0.70883,-3.5051
0.017548,-0.036981,-0.064888,0.0028955,0.19826,0.30859,-0.098954,-0.19945,-0.11213,0.036455,-0.66311,-0.55111,-0.078039,-1.1186,0.10499,-0.077111,0.03185,0.040265,-0.30005,1.0578,-0.0064543,-0.21833,-0.71385,-3.87
0.0061202,-0.020848,-0.06429,0.0034203,0.23587,0.34388,-0.075431,-0.29208,-0.13486,0.086512,-0.81696,-0.49635,-0.08261,-0.86363,0.093917,-0.14937,0.048453,0.025516,-0.2697,1.0534,-0.056712,-0.21044,-0.6821,-4.2532
-0.0042461,-0.012753,-0.059971,0.0054315,0.27053,0.36794,-0.060724,-0.37184,-0.15549,0.13171,-0.99494,-0.44069,-0.055282,-0.57825,0.090043,-0.206,0.062289,0.021774,-0.2294,1.0562,-0.12371,-0.1157,-0.62689,-4.6103
-0.0087601,-0.01352,-0.05588,0.0079948,0.29197,0.38471,-0.056674,-0.41737,-0.1718,0.16465,-1.2096,-0.40143,-0.00099404,-0.29944,0.082963,-0.22846,0.068509,0.026493,-0.18292,1.0717,-0.205,-0.019104,-0.56783,-4.9023
-0.007969,-0.016241,-0.056028,0.0091927,0.29823,0.40423,-0.054133,-0.41859,-0.18734,0.17582,-1.4612,-0.38301,0.066019,-0.056161,0.065027,-0.21557,0.069748,0.028731,-0.13195,1.1027,-0.29397,0.018791,-0.51598,-5.1223
-0.0063698,-0.013281,-0.060759,0.008034,0.29523,0.43022,-0.042109,-0.38283,-0.20668,0.1544,-1.7321,-0.3821,0.13233,0.13717,0.037831,-0.18949,0.072461,0.021647,-0.074912,1.1471,-0.38543,-0.0080434,-0.46679,-5.3015
-0.007758,-0.0037107,-0.066504,0.0052914,0.29026,0.45545,-0.018255,-0.32962,-0.2303,0.094593,-1.9949,-0.39705,0.19193,0.28632,0.0099514,-0.18422,0.081325,0.01042,-0.0068963,1.1991,-0.47674,-0.071186,-0.40706,-5.4815
-0.011963,0.0062663,-0.069137,0.0025714,0.28597,0.46843,0.0092523,-0.27807,-0.25436,0.0032126,-2.2253,-0.43178,0.24566,0.41479,-0.011435,-0.22376,0.096183,0.0077048,0.079613,1.2525,-0.56529,-0.15195,-0.3289,-5.6691
-0.015759,0.010206,-0.067538,0.00078551,0.28028,0.46405,0.029682,-0.2368,-0.27481,-0.099584,-2.4114,-0.49071,0.29644,0.54803,-0.026858,-0.30607,0.11309,0.021557,0.19202,1.3051,-0.64581,-0.26414,-0.23819,-5.8082
-0.016477,0.0085544,-0.063829,-0.0003448,0.27104,0.44811,0.039456,-0.20341,-0.2914,-0.18998,-2.5492,-0.5699,0.34605,0.69188,-0.042909,-0.40458,0.12755,0.048145,0.33242,1.3582,-0.71059,-0.4345,-0.15051,-5.7981
-0.01451,0.0086093,-0.060184,-0.0014402,0.25981,0.43257,0.044393,-0.17226,-0.30705,-0.25476,-2.6317,-0.65323,0.39523,0.82266,-0.064491,-0.48583,0.13702,0.076221,0.49239,1.4136,-0.75222,-0.66284,-0.079218,-5.5509
-0.012514,0.017124,-0.055747,-0.002518,0.25089,0.42673,0.053043,-0.1425,-0.323,-0.29829,-2.6416,-0.71771,0.44459,0.90063,-0.088635,-0.52931,0.1415,0.098219,0.65243,1.4693,-0.76638,-0.90377,-0.026964,-5.0508
-0.012657,0.032937,-0.047233,-0.0032027,0.24681,0.43203,0.068249,-0.11881,-0.33486,-0.33524,-2.5586,-0.74426,0.4931,0.89966,-0.106,-0.53508,0.14283,0.1166,0.78909,1.5176,-0.75292,-1.0909,0.01283,-4.3718
-0.014927,0.047243,-0.033001,-0.0038395,0.24531,0.44334,0.08512,-0.10486,-0.3342,-0.37445,-2.3761,-0.72599,0.53518,0.82982,-0.10888,-0.51553,0.14385,0.13976,0.88636,1.5477,-0.71467,-1.1838,0.047495,-3.6397
-0.018007,0.051652,-0.016362,-0.0059918,0.24141,0.45382,0.09668,-0.09621,-0.31514,-0.40806,-2.1133,-0.66902,0.56049,0.73381,-0.098274,-0.4804,0.14743,0.17307,0.94293,1.5514,-0.65536,-1.1962,0.078904,-2.9647
-0.021276,0.046253,-0.0040751,-0.011321,0.23238,0.45899,0.10086,-0.080513,-0.28031,-0.41671,-1.811,-0.58657,0.55935,0.65894,-0.083377,-0.42812,0.15493,0.21476,0.96906,1.5272,-0.57777,-1.1805,0.10515,-2.3877
-0.025489,0.03962,-0.00056418,-0.019669,0.22087,0.45822,0.10182,-0.045975,-0.24047,-0.38747,-1.5129,-0.49199,0.53076,0.62698,-0.073544,-0.34915,0.16476,0.26029,0.97494,1.4802,-0.48326,-1.1831,0.12702,-1.8747
-0.031349,0.040421,-0.0031334,-0.028338,0.2128,0.45459,0.10494,0.0084891,-0.20758,-0.32914,-1.2455,-0.39471,0.48635,0.62528,-0.069929,-0.23635,0.1726,0.30834,0.96036,1.4179,-0.37292,-1.2063,0.15103,-1.3574
-0.037688,0.048711,-0.0033472,-0.033654,0.21206,0.45387,0.11135,0.070426,-0.18698,-0.27101,-1.013,-0.30003,0.44558,0.62423,-0.06435,-0.092577,0.17389,0.35999,0.91463,1.3463,-0.25003,-1.2077,0.18468,-0.78669
-0.04149,0.055562,0.0057389,-0.033756,0.21687,0.46195,0.11782,0.12157,-0.17516,-0.24496,-0.80547,-0.21015,0.42443,0.60415,-0.046757,0.069402,0.16718,0.41076,0.82685,1.2673,-0.12231,-1.1333,0.22805,-0.16467
-0.04012,0.0517,0.02271,-0.030164,0.22144,0.4805,0.12173,0.15045,-0.16438,-0.2656,-0.61252,-0.12456,0.42579,0.56844,-0.015012,0.23227,0.15542,0.44511,0.69711,1.1811,-0.0014791,-0.95694,0.27074,0.46321
-0.033758,0.036975,0.037934,-0.026655,0.2212,0.50338,0.12541,0.15982,-0.14966,-0.32466,-0.42729,-0.040022,0.43861,0.53358,0.021443,0.37901,0.14384,0.44253,0.53915,1.0892,0.10084,-0.69896,0.29858,1.043
-0.025749,0.021505,0.041332,-0.02632,0.21685,0.51818,0.13472,0.16309,-0.13184,-0.40307,-0.24214,0.048215,0.44618,0.50725,0.047383,0.4949,0.13632,0.39329,0.37299,0.9957,0.1793,-0.41556,0.30507,1.5475
-0.020447,0.017244,0.031283,-0.029341,0.21358,0.51382,0.15311,0.17308,-0.11463,-0.48846,-0.044531,0.14342,0.43684,0.47637,0.052381,0.56917,0.13371,0.31038,0.21529,0.90611,0.2385,-0.17128,0.29703,1.9879
-0.020388,0.027874,0.016697,-0.033339,0.21641,0.48959,0.17718,0.19275,-0.09947,-0.58131,0.17763,0.24424,0.40923,0.41714,0.037632,0.59834,0.13551,0.22551,0.075556,0.82293,0.29048,-0.011959,0.28881,2.3995
-0.025009,0.046284,0.010159,-0.035826,0.22594,0.45762,0.19866,0.21516,-0.083288,-0.68461,0.42396,0.34366,0.36959,0.31916,0.013801,0.58947,0.14222,0.16964,-0.041129,0.74317,0.34669,0.051235,0.28998,2.8118
-0.031559,0.061454,0.01801,-0.03643,0.23835,0.43516,0.21128,0.23191,-0.061284,-0.78807,0.67511,0.43137,0.32522,0.20134,-0.0078244,0.55825,0.15507,0.15307,-0.13163,0.65966,0.41,0.044419,0.29767,3.225
-0.037005,0.067683,0.035896,-0.036949,0.24926,0.43182,0.21588,0.24182,-0.031676,-0.86467,0.90101,0.49824,0.28005,0.10239,-0.023419,0.52026,0.17238,0.16094,-0.19765,0.56629,0.47341,0.0216,0.30077,3.6051
-0.03939,0.067601,0.053255,-0.039397,0.25762,0.44238,0.21891,0.25219,0.0020732,-0.88614,1.0794,0.54072,0.2348,0.049243,-0.037828,0.48064,0.18668,0.16708,-0.25105,0.46382,0.52724,0.045151,0.29155,3.8998
-0.038158,0.067178,0.062254,-0.044075,0.26616,0.45163,0.22556,0.27219,0.033391,-0.8459,1.209,0.56285,0.18918,0.027142,-0.058951,0.4307,0.18691,0.15423,-0.31307,0.3617,0.56962,0.16161,0.2734,4.0662
-0.033984,0.068846,0.063151,-0.049423,0.27819,0.44735,0.23448,0.30462,0.056895,-0.7683,1.3064,0.57496,0.14269,-0.022245,-0.090721,0.35559,0.16555,0.12403,-0.40356,0.27389,0.61157,0.38318,0.25712,4.0934
-0.028558,0.069899,0.062045,-0.053527,0.29397,0.42997,0.23934,0.34356,0.071168,-0.6931,1.3882,0.58948,0.09353,-0.1677,-0.1304,0.24788,0.12515,0.090927,-0.52706,0.21062,0.67168,0.68508,0.24947,4.0098
-0.024039,0.066994,0.064184,-0.05554,0.31004,0.41059,0.2359,0.37937,0.078313,-0.64601,1.4568,0.61516,0.038739,-0.44005,-0.17145,0.1163,0.077635,0.067801,-0.668,0.17136,0.76341,1.0196,0.24564,3.8694
-0.021851,0.060973,0.06958,-0.055674,0.32203,0.40007,0.22783,0.40629,0.08155,-0.61961,1.4998,0.65226,-0.022272,-0.8019,-0.20849,-0.01733,0.036137,0.056688,-0.80107,0.14392,0.88403,1.3353,0.23351,3.726
-0.021446,0.056276,0.074549,-0.054189,0.32807,0.39981,0.2252,0.4259,0.083324,-0.58198,1.5051,0.69144,-0.083,-1.158,-0.24001,-0.13064,0.0057174,0.050757,-0.90938,0.11079,1.0132,1.5883,0.20581,3.6101
-0.020382,0.05561,0.076527,-0.050913,0.33,0.40268,0.23652,0.44439,0.085126,-0.50616,1.4745,0.71812,-0.12943,-1.4009,-0.26689,-0.21272,-0.018874,0.042509,-0.99532,0.059082,1.1229,1.7409,0.16829,3.5227
-0.016294,0.056116,0.076663,-0.046036,0.33142,0.402,0.2613,0.46694,0.088321,-0.39481,1.4249,0.72099,-0.14688,-1.4639,-0.28919,-0.26709,-0.046629,0.028805,-1.0754,-0.012384,1.1906,1.7595,0.13555,3.4471
-0.0093835,0.051905,0.077712,-0.041116,0.33471,0.39822,0.28993,0.49442,0.094627,-0.2783,1.3754,0.70038,-0.13032,-1.3484,-0.30415,-0.3049,-0.081063,0.0089962,-1.1635,-0.093243,1.2093,1.6248,0.11832,3.3688
-0.0030054,0.040835,0.080158,-0.038674,0.33952,0.396,0.31114,0.52446,0.10572,-0.18838,1.3335,0.67087,-0.089809,-1.1146,-0.30721,-0.33525,-0.11689,-0.019135,-1.2578,-0.16893,1.1866,1.3505,0.11465,3.2862
-0.0012438,0.028309,0.081358,-0.040211,0.34348,0.3952,0.32036,0.55425,0.12247,-0.13186,1.2926,0.65534,-0.045191,-0.84308,-0.29516,-0.3601,-0.14541,-0.058787,-1.3408,-0.23001,1.1374,0.99439,0.11359,3.2059
-0.0052144,0.023308,0.078925,-0.044527,0.34374,0.3864,0.32179,0.58184,0.14445,-0.088418,1.2416,0.67313,-0.013162,-0.59422,-0.26912,-0.37625,-0.16303,-0.10826,-1.3915,-0.27684,1.0752,0.64212,0.10739,3.1274
-0.011444,0.029696,0.074499,-0.048328,0.3377,0.35778,0.32286,0.60496,0.16976,-0.033575,1.1768,0.72908,0.0036043,-0.38481,-0.23515,-0.38078,-0.17463,-0.15651,-1.3982,-0.31603,1.0076,0.36779,0.099889,3.0336
-0.014177,0.041286,0.07318,-0.048945,0.32281,0.3077,0.32674,0.61991,0.19475,0.035541,1.1038,0.81048,0.016639,-0.19141,-0.20186,-0.37499,-0.18833,-0.1869,-1.3614,-0.35112,0.93649,0.19859,0.10224,2.8968
-0.0099405,0.046209,0.078398,-0.04666,0.29681,0.25017,0.32997,0.62332,0.21405,0.095859,1.0298,0.89399,0.041403,0.025151,-0.17583,-0.36453,-0.20704,-0.18836,-1.2875,-0.37497,0.86027,0.10965,0.12033,2.6961
-0.00042208,0.037392,0.087293,-0.044289,0.25918,0.2057,0.32699,0.61592,0.22173,0.11883,0.95386,0.9584,0.085291,0.2884,-0.15725,-0.35741,-0.22496,-0.16472,-1.1793,-0.37116,0.7752,0.051993,0.14671,2.4335
0.0089936,0.01958,0.091904,-0.044308,0.21298,0.18443,0.31669,0.60459,0.21409,0.095766,0.86542,0.99544,0.14338,0.58476,-0.13901,-0.36148,-0.23289,-0.13343,-1.034,-0.32558,0.67649,-0.011377,0.16591,2.1331
0.013798,0.0058914,0.085974,-0.046369,0.16452,0.17712,0.30428,0.59945,0.19279,0.044744,0.75292,1.0124,0.20394,0.86474,-0.11111,-0.38185,-0.2274,-0.11347,-0.84794,-0.24111,0.56044,-0.089671,0.16855,1.8261
0.013931,0.0063404,0.071229,-0.047677,0.12014,0.16358,0.29662,0.60688,0.16558,-0.0056342,0.61465,1.0258,0.25747,1.068,-0.068641,-0.41754,-0.21525,-0.11226,-0.62566,-0.14375,0.42758,-0.17493,0.16039,1.5328
0.01313,0.018533,0.056825,-0.04586,0.081828,0.13187,0.29592,0.62364,0.14291,-0.038716,0.46208,1.05,0.30094,1.158,-0.018236,-0.45826,-0.20859,-0.12226,-0.38306,-0.072992,0.28446,-0.26043,0.15731,1.2558
0.014747,0.029272,0.051845,-0.041383,0.045617,0.09049,0.29818,0.63732,0.13155,-0.057646,0.31265,1.0892,0.33489,1.1445,0.022621,-0.48496,-0.21493,-0.12972,-0.14287,-0.060184,0.14144,-0.34521,0.17042,0.989
0.018128,0.026114,0.057483,-0.037106,0.0048292,0.0614,0.29783,0.63352,0.12969,-0.073812,0.17793,1.1359,0.35807,1.0766,0.034841,-0.47701,-0.23067,-0.12716,0.075807,-0.10901,0.0068651,-0.42266,0.19583,0.73323
0.019122,0.0086874,0.066137,-0.035462,-0.043682,0.05961,0.29386,0.60506,0.12796,-0.09021,0.056197,1.1778,0.36591,1.012,0.010463,-0.42441,-0.24391,-0.11855,0.26697,-0.19254,-0.11808,-0.47125,0.21885,0.50306
0.014336,-0.010525,0.068303,-0.036139,-0.095325,0.078083,0.29079,0.55683,0.11608,-0.097466,-0.065747,1.2074,0.35418,0.98362,-0.039853,-0.33766,-0.24369,-0.11335,0.44029,-0.27024,-0.23925,-0.464,0.22864,0.31747
0.0050303,-0.016801,0.060901,-0.036491,-0.13954,0.092568,0.29344,0.50306,0.090614,-0.085852,-0.20373,1.227,0.32319,0.98869,-0.090771,-0.24761,-0.22777,-0.11614,0.61426,-0.31368,-0.36352,-0.39249,0.22919,0.17991
-0.003288,-0.0057377,0.049433,-0.034156,-0.1668,0.082489,0.30078,0.45938,0.057376,-0.059876,-0.3669,1.2456,0.2773,1.0061,-0.11632,-0.19279,-0.20259,-0.12194,0.8034,-0.32245,-0.49157,-0.28434,0.23557,0.063886
-0.005445,0.013437,0.042351,-0.02925,-0.17546,0.048818,0.30551,0.43554,0.026296,-0.039505,-0.5531,1.2697,0.21955,1.0237,-0.10549,-0.20092,-0.1766,-0.12125,1.0067,-0.31965,-0.61546,-0.19646,0.25894,-0.081537
-0.0011067,0.026374,0.043275,-0.024128,-0.17299,0.012453,0.30012,0.43285,0.0030167,-0.045705,-0.74989,1.2943,0.14728,1.0519,-0.069446,-0.27548,-0.15367,-0.10918,1.2052,-0.33157,-0.72353,-0.18789,0.29389,-0.30481
0.0051091,0.025717,0.048405,-0.021144,-0.17063,-0.0052791,0.28361,0.44707,-0.015646,-0.083609,-0.93853,1.3024,0.054263,1.1123,-0.035445,-0.39543,-0.1322,-0.089694,1.3703,-0.3685,-0.80855,-0.29259,0.31986,-0.61783
0.0080872,0.015773,0.051046,-0.020649,-0.17583,-0.0018298,0.262,0.47297,-0.038386,-0.13891,-1.0986,1.2729,-0.061333,1.2147,-0.031248,-0.52754,-0.10942,-0.071282,1.4793,-0.42067,-0.87234,-0.50936,0.31533,-0.97682
0.0069958,0.0062775,0.048285,-0.02093,-0.18848,0.0051746,0.24207,0.50696,-0.071092,-0.19031,-1.2123,1.1932,-0.19017,1.3441,-0.06923,-0.64333,-0.085612,-0.059216,1.5267,-0.47036,-0.92302,-0.80903,0.2723,-1.2934
0.0058259,0.0022578,0.043168,-0.019893,-0.20338,-0.0050796,0.22467,0.54619,-0.11084,-0.22584,-1.2685,1.0663,-0.31342,1.4684,-0.13935,-0.73065,-0.063652,-0.052096,1.5249,-0.50757,-0.96722,-1.1466,0.19963,-1.4733
0.0092544,0.00011877,0.040608,-0.016805,-0.21578,-0.037538,0.2045,0.58596,-0.1474,-0.24807,-1.2663,0.90919,-0.41299,1.5586,-0.21453,-0.79437,-0.044916,-0.045138,1.494,-0.53586,-1.0042,-1.4692,0.11406,-1.4624
0.01792,-0.0068284,0.041665,-0.01267,-0.22503,-0.07756,0.17653,0.61847,-0.17086,-0.26463,-1.2156,0.74429,-0.48218,1.6036,-0.26472,-0.84727,-0.026473,-0.035286,1.4486,-0.56514,-1.0271,-1.7231,0.028342,-1.2724
0.027684,-0.019887,0.042206,-0.0091703,-0.23335,-0.10491,0.14273,0.63463,-0.17878,-0.27475,-1.1336,0.5898,-0.52771,1.6085,-0.27174,-0.89796,-0.0032021,-0.022077,1.392,-0.60049,-1.03,-1.8659,-0.053728,-0.97219
0.033431,-0.032673,0.03728,-0.0072393,-0.24202,-0.11148,0.11193,0.62802,-0.17687,-0.26575,-1.0375,0.4556,-0.56091,1.5844,-0.23683,-0.94336,0.026815,-0.0041667,1.3208,-0.6389,-1.0149,-1.8812,-0.13324,-0.6506
0.033534,-0.0373,0.026572,-0.0063939,-0.24922,-0.10648,0.092736,0.59797,-0.17352,-0.22314,-0.93796,0.34492,-0.58552,1.5413,-0.17767,-0.97071,0.05902,0.022577,1.2342,-0.67629,-0.99202,-1.7844,-0.20877,-0.37693
0.030613,-0.032321,0.015205,-0.0051871,-0.25161,-0.10568,0.086102,0.54923,-0.17334,-0.14478,-0.83736,0.25849,-0.59282,1.489,-0.11745,-0.9674,0.084944,0.060806,1.1397,-0.71633,-0.97225,-1.608,-0.27268,-0.18368
0.028099,-0.023925,0.0089387,-0.0022825,-0.24808,-0.1163,0.084722,0.48845,-0.17537,-0.045731,-0.73425,0.19735,-0.56819,1.4393,-0.072602,-0.93205,0.098822,0.10445,1.0495,-0.76927,-0.95823,-1.3759,-0.31337,-0.078218
0.026376,-0.019105,0.0086022,0.002675,-0.2414,-0.13191,0.079568,0.42004,-0.17652,0.050675,-0.62979,0.16276,-0.50381,1.3987,-0.046189,-0.87848,0.10237,0.13734,0.97241,-0.83934,-0.94082,-1.0881,-0.32074,-0.066952
0.022601,-0.018104,0.0094912,0.0089269,-0.23595,-0.14106,0.067212,0.34467,-0.17597,0.12796,-0.53072,0.15402,-0.40669,1.3553,-0.029743,-0.8292,0.10333,0.14253,0.90824,-0.91146,-0.90469,-0.73276,-0.29112,-0.16646
0.01442,-0.014417,0.0064789,0.015143,-0.23366,-0.13975,0.051014,0.26132,-0.1758,0.18579,-0.4461,0.16598,-0.29604,1.2751,-0.011335,-0.80246,0.10897,0.11644,0.85092,-0.95215,-0.83971,-0.31697,-0.22992,-0.38934
0.0037046,-0.0027783,-0.000271,0.020132,-0.23217,-0.1353,0.035724,0.17083,-0.17781,0.23789,-0.38106,0.18769,-0.19325,1.1196,0.016017,-0.80236,0.12022,0.074932,0.79559,-0.92885,-0.74994,0.11225,-0.15149,-0.71708
-0.0037873,0.013034,-0.0049187,0.023243,-0.22714,-0.13845,0.021641,0.077399,-0.18025,0.30253,-0.33313,0.20368,-0.11329,0.87701,0.050834,-0.81915,0.1316,0.04369,0.74309,-0.83513,-0.65392,0.48032,-0.075872,-1.0869
-0.002926,0.021202,-0.0016246,0.024388,-0.21668,-0.15267,0.0046366,-0.013661,-0.17876,0.39334,-0.29479,0.19854,-0.063548,0.58031,0.085894,-0.83911,0.13651,0.039131,0.69736,-0.70146,-0.57567,0.72565,-0.022038,-1.4098
0.0061635,0.011803,0.0090931,0.023945,-0.20355,-0.17141,-0.018123,-0.10001,-0.17089,0.51395,-0.2595,0.164,-0.04778,0.29218,0.11423,-0.85512,0.13296,0.055597,0.65881,-0.58061,-0.53227,0.83636,8.3416e-005,-1.6114
0.017743,-0.013291,0.019625,0.022719,-0.19304,-0.18567,-0.04329,-0.18417,-0.15976,0.65533,-0.22612,0.10466,-0.068197,0.064306,0.1337,-0.8688,0.12478,0.070385,0.62143,-0.5163,-0.52574,0.85182,-0.0057713,-1.6658
0.024868,-0.040153,0.021185,0.021826,-0.18869,-0.19346,-0.063276,-0.27069,-0.15279,0.79478,-0.19845,0.037863,-0.12157,-0.096345,0.14728,-0.88235,0.11794,0.062871,0.57734,-0.51813,-0.54376,0.82776,-0.025162,-1.5971
0.024709,-0.053118,0.011042,0.022226,-0.18992,-0.20149,-0.073831,-0.36015,-0.15615,0.89961,-0.18173,-0.014023,-0.19318,-0.2245,0.15967,-0.88776,0.11603,0.031529,0.52522,-0.56124,-0.56819,0.795,-0.042761,-1.4505
0.020205,-0.046844,-0.0054554,0.024044,-0.19381,-0.2178,-0.079593,-0.44512,-0.16988,0.93921,-0.17992,-0.035138,-0.25687,-0.35956,0.17351,-0.86406,0.11898,-0.0056135,0.47417,-0.60972,-0.58563,0.7469,-0.052578,-1.2565
0.016847,-0.029657,-0.019627,0.026288,-0.19893,-0.24355,-0.091181,-0.5126,-0.18813,0.90243,-0.19508,-0.024041,-0.28565,-0.50927,0.1882,-0.78746,0.12515,-0.027024,0.43778,-0.64441,-0.59386,0.66258,-0.060878,-1.0187
0.017715,-0.015681,-0.026326,0.027426,-0.20701,-0.27253,-0.11566,-0.55237,-0.20435,0.80866,-0.22686,0.0073068,-0.26737,-0.64891,0.20157,-0.64808,0.13328,-0.02599,0.42187,-0.67354,-0.60089,0.54067,-0.079345,-0.72973
0.021178,-0.013176,-0.026802,0.026534,-0.22088,-0.29845,-0.14928,-0.56543,-0.21616,0.70088,-0.26974,0.042223,-0.21362,-0.75573,0.21215,-0.46085,0.14184,-0.015708,0.41507,-0.72045,-0.61781,0.41021,-0.11393,-0.39802
0.02299,-0.019287,-0.025753,0.024012,-0.24081,-0.32151,-0.17992,-0.56555,-0.22546,0.62076,-0.31009,0.068886,-0.15325,-0.84252,0.21975,-0.26162,0.14679,-0.01776,0.39047,-0.80165,-0.65026,0.30978,-0.15868,-0.05688
0.020485,-0.024918,-0.026235,0.021102,-0.26319,-0.34695,-0.1975,-0.57158,-0.23383,0.58171,-0.32769,0.084357,-0.1133,-0.95227,0.22384,-0.089863,0.14157,-0.044835,0.31824,-0.91513,-0.69373,0.25735,-0.19992,0.25279
0.014962,-0.024152,-0.027477,0.018638,-0.28287,-0.37707,-0.20272,-0.59546,-0.2385,0.56061,-0.30387,0.09213,-0.10046,-1.114,0.22215,0.03076,0.12097,-0.092289,0.18154,-1.0474,-0.73565,0.24101,-0.22746,0.51076
0.010274,-0.019181,-0.027036,0.016303,-0.29668,-0.40613,-0.20602,-0.63486,-0.23326,0.51643,-0.23223,0.09746,-0.096916,-1.301,0.21169,0.10175,0.085867,-0.14409,-0.013808,-1.1902,-0.76268,0.23792,-0.24306,0.73085
0.0092879,-0.016781,-0.024304,0.013242,-0.30455,-0.42464,-0.21792,-0.67574,-0.21397,0.42272,-0.12385,0.10501,-0.073313,-1.4363,0.19199,0.14404,0.043948,-0.18596,-0.24096,-1.3497,-0.76839,0.23946,-0.25866,0.94648
0.011655,-0.020614,-0.021498,0.0094764,-0.30768,-0.42933,-0.24019,-0.70263,-0.18314,0.28936,-0.0020088,0.11917,-0.0087979,-1.4495,0.16723,0.18244,0.00476,-0.21378,-0.46273,-1.5389,-0.75622,0.25482,-0.28532,1.1793
0.01481,-0.027262,-0.021381,0.0065519,-0.30627,-0.42813,-0.26609,-0.70843,-0.1489,0.157,0.11015,0.14379,0.096899,-1.3372,0.14455,0.23124,-0.026848,-0.23154,-0.64463,-1.7594,-0.73587,0.28955,-0.32209,1.4159
0.016848,-0.02976,-0.024465,0.0064925,-0.29975,-0.43354,-0.28864,-0.69654,-0.11895,0.069407,0.20006,0.17931,0.22682,-1.1747,0.12902,0.28912,-0.052614,-0.24362,-0.76455,-1.9887,-0.71619,0.32418,-0.35455,1.6101
0.018161,-0.024889,-0.028716,0.0098854,-0.28903,-0.45008,-0.30788,-0.67478,-0.095279,0.045757,0.26774,0.21904,0.36019,-1.0609,0.11987,0.34464,-0.07606,-0.25016,-0.81683,-2.1844,-0.70012,0.32044,-0.36491,1.7085
0.020216,-0.016833,-0.031864,0.014987,-0.27775,-0.46855,-0.32937,-0.64717,-0.074748,0.072763,0.32005,0.24941,0.48338,-1.0425,0.11195,0.38651,-0.095789,-0.24945,-0.812,-2.3031,-0.68538,0.25494,-0.34537,1.6806
0.023003,-0.013455,-0.033634,0.018958,-0.27021,-0.47399,-0.35577,-0.61036,-0.054602,0.11894,0.3643,0.25645,0.59038,-1.079,0.10179,0.4112,-0.10415,-0.24291,-0.77344,-2.3207,-0.66947,0.14901,-0.30381,1.5327
0.02425,-0.018747,-0.03552,0.020284,-0.26767,-0.46049,-0.38076,-0.55657,-0.036811,0.15615,0.4064,0.23525,0.67578,-1.0778,0.092524,0.42387,-0.093657,-0.23599,-0.73051,-2.2427,-0.65401,0.06208,-0.25722,1.2999
0.021604,-0.028778,-0.038528,0.02018,-0.26676,-0.43838,-0.39261,-0.47967,-0.026388,0.17139,0.45285,0.19557,0.73002,-0.96911,0.092007,0.4334,-0.065567,-0.2333,-0.70772,-2.0999,-0.64412,0.048509,-0.21871,1.0235
0.015624,-0.035119,-0.04163,0.021524,-0.26222,-0.42581,-0.38496,-0.37991,-0.02527,0.16405,0.51145,0.15826,0.74333,-0.75714,0.10491,0.44599,-0.032089,-0.23364,-0.71294,-1.9351,-0.64351,0.11341,-0.1894,0.73017
0.010095,-0.032456,-0.042792,0.026158,-0.25159,-0.43212,-0.3644,-0.26553,-0.028481,0.13729,0.58753,0.14364,0.71517,-0.50885,0.12573,0.46159,-0.0089278,-0.23116,-0.73171,-1.7891,-0.65022,0.20691,-0.16144,0.42454
0.0087074,-0.023041,-0.041522,0.032942,-0.23721,-0.44913,-0.34691,-0.15254,-0.027429,0.094192,0.67843,0.15922,0.65948,-0.2959,0.14032,0.47495,-0.0042475,-0.22253,-0.73431,-1.6902,-0.65729,0.26298,-0.12832,0.096941
0.011127,-0.013845,-0.039975,0.038408,-0.22345,-0.45925,-0.34541,-0.063274,-0.017875,0.041162,0.77193,0.19478,0.5995,-0.14345,0.13604,0.47967,-0.014098,-0.21284,-0.69492,-1.6473,-0.65786,0.24928,-0.092294,-0.25861
0.012675,-0.0094604,-0.04102,0.039557,-0.21193,-0.45303,-0.35939,-0.022102,-0.0047476,-0.0080932,0.85093,0.22893,0.55491,-0.027707,0.11241,0.47207,-0.028722,-0.21338,-0.61153,-1.6485,-0.65009,0.18515,-0.062085,-0.62772
0.0085635,-0.0079471,-0.044993,0.036386,-0.19985,-0.43922,-0.37593,-0.046609,0.0015887,-0.034523,0.90122,0.24295,0.5308,0.082829,0.082388,0.45249,-0.04372,-0.23222,-0.51155,-1.6663,-0.63745,0.11524,-0.044289,-0.9706
-0.0010705,-0.0036586,-0.048616,0.031959,-0.18332,-0.43673,-0.38107,-0.13679,-0.0051478,-0.021159,0.91629,0.23316,0.51628,0.18574,0.062384,0.42452,-0.064856,-0.26618,-0.43578,-1.6679,-0.62458,0.065827,-0.037609,-1.2338
-0.010409,0.0060517,-0.047697,0.029889,-0.16272,-0.45562,-0.37126,-0.26941,-0.020594,0.040051,0.89698,0.21362,0.49311,0.24171,0.05901,0.39366,-0.10102,-0.30215,-0.41041,-1.6291,-0.61327,0.023946,-0.036128,-1.3749
-0.012724,0.01731,-0.041365,0.031412,-0.14429,-0.48473,-0.35459,-0.40442,-0.032508,0.14612,0.84899,0.20695,0.44755,0.21029,0.0639,0.36677,-0.15155,-0.32692,-0.42766,-1.5417,-0.60239,-0.044824,-0.03805,-1.3868
-0.0065131,0.023184,-0.033606,0.034502,-0.13572,-0.49852,-0.34145,-0.50255,-0.030657,0.28411,0.78235,0.22936,0.37799,0.088977,0.061063,0.35117,-0.20054,-0.3365,-0.45121,-1.4134,-0.59137,-0.16044,-0.050161,-1.3061
0.0027833,0.020757,-0.030114,0.035757,-0.13918,-0.4782,-0.33392,-0.5441,-0.015001,0.43219,0.7132,0.27957,0.29475,-0.080608,0.040325,0.3516,-0.22523,-0.33661,-0.44322,-1.2602,-0.58278,-0.30909,-0.082041,-1.1982
0.0072796,0.014591,-0.033008,0.033361,-0.14816,-0.42884,-0.32386,-0.53552,0.0049321,0.56119,0.6634,0.33923,0.21328,-0.24297,0.0054037,0.36554,-0.21243,-0.33454,-0.39124,-1.0988,-0.58051,-0.45611,-0.13439,-1.126
0.003297,0.012841,-0.038464,0.028583,-0.15153,-0.37728,-0.30149,-0.49852,0.018414,0.6414,0.65447,0.38425,0.14502,-0.36701,-0.029689,0.3805,-0.16874,-0.33124,-0.31307,-0.94481,-0.58479,-0.57515,-0.1926,-1.1226
-0.0059321,0.019612,-0.039845,0.024596,-0.14195,-0.35206,-0.26608,-0.44956,0.021813,0.65531,0.69774,0.39914,0.090404,-0.45993,-0.051929,0.37755,-0.11528,-0.32144,-0.23608,-0.81503,-0.58919,-0.66366,-0.23304,-1.1843
-0.01381,0.031037,-0.033706,0.023735,-0.12154,-0.36196,-0.22866,-0.38617,0.019876,0.60899,0.78804,0.38441,0.037571,-0.54981,-0.05821,0.34138,-0.071302,-0.3012,-0.17063,-0.72846,-0.58355,-0.73064,-0.23816,-1.2889
-0.016562,0.039054,-0.023014,0.025607,-0.099958,-0.39077,-0.20415,-0.29179,0.020085,0.5307,0.90665,0.35271,-0.031487,-0.65705,-0.055093,0.27127,-0.041175,-0.27417,-0.10235,-0.70199,-0.56128,-0.7709,-0.20837,-1.4217
-0.016158,0.039297,-0.01433,0.027598,-0.086564,-0.4119,-0.20028,-0.15558,0.026199,0.4533,1.0318,0.31797,-0.12969,-0.77979,-0.051209,0.18508,-0.015551,-0.24955,-0.011059,-0.74216,-0.52489,-0.75391,-0.16107,-1.5907
-0.01748,0.035433,-0.011511,0.027169,-0.083241,-0.4099,-0.21344,0.009385,0.03665,0.39183,1.149,0.28666,-0.25482,-0.9006,-0.050111,0.11257,0.015563,-0.23335,0.10091,-0.83935,-0.48489,-0.6422,-0.11793,-1.8176
-0.022915,0.035681,-0.011994,0.023842,-0.084106,-0.39109,-0.23435,0.16653,0.047777,0.33454,1.2539,0.25759,-0.38803,-1.001,-0.049537,0.081822,0.050916,-0.22203,0.19808,-0.96998,-0.45226,-0.42653,-0.091443,-2.1152
-0.029892,0.044852,-0.0093686,0.019202,-0.081956,-0.37556,-0.25733,0.27683,0.057376,0.25685,1.3474,0.22852,-0.50363,-1.068,-0.046269,0.10736,0.078412,-0.20572,0.23102,-1.1057,-0.43085,-0.14812,-0.080621,-2.4686
-0.033687,0.05957,0.00018454,0.01518,-0.075367,-0.37863,-0.28338,0.325,0.064875,0.14821,1.4297,0.20215,-0.58434,-1.0888,-0.040724,0.18672,0.086728,-0.17826,0.17169,-1.2241,-0.41557,0.11407,-0.077466,-2.8372
-0.032466,0.071197,0.013931,0.012365,-0.069817,-0.39805,-0.31443,0.32975,0.069138,0.028935,1.4988,0.18522,-0.63115,-1.047,-0.036708,0.30546,0.07664,-0.14429,0.036769,-1.3136,-0.39739,0.28583,-0.076265,-3.1752
-0.029273,0.0735,0.02512,0.0098958,-0.07176,-0.41699,-0.34527,0.32908,0.067748,-0.059154,1.5534,0.1817,-0.65959,-0.92827,-0.0372,0.44505,0.061404,-0.11578,-0.11954,-1.373,-0.37062,0.34161,-0.077342,-3.4537
-0.028828,0.067671,0.029664,0.0068141,-0.08126,-0.41899,-0.36279,0.35175,0.05961,-0.082592,1.5954,0.18728,-0.68531,-0.73553,-0.04103,0.58837,0.056241,-0.10098,-0.23737,-1.406,-0.33622,0.31915,-0.083621,-3.6663
-0.032311,0.060188,0.030342,0.0033418,-0.090289,-0.40141,-0.35493,0.39753,0.048168,-0.042741,1.6271,0.19166,-0.71078,-0.49849,-0.044026,0.72146,0.066788,-0.096366,-0.28455,-1.4162,-0.29923,0.29442,-0.095464,-3.8129
-0.035565,0.056139,0.034153,0.00074656,-0.08867,-0.37642,-0.32179,0.44129,0.040842,0.023907,1.646,0.18749,-0.72461,-0.26569,-0.04348,0.83397,0.086385,-0.08989,-0.26957,-1.4034,-0.26313,0.33379,-0.1097,-3.8786
-0.032893,0.054963,0.045106,-3.839e-005,-0.072553,-0.36028,-0.27812,0.45597,0.043726,0.073066,1.645,0.17771,-0.71383,-0.080608,-0.0415,0.9203,0.10329,-0.072754,-0.22963,-1.362,-0.2261,0.45444,-0.12309,-3.828
-0.023085,0.052743,0.059445,0.00041125,-0.047868,-0.36102,-0.24391,0.43422,0.055867,0.085862,1.6175,0.17349,-0.67764,0.042607,-0.044101,0.98045,0.1103,-0.048481,-0.20569,-1.2812,-0.18172,0.61648,-0.13522,-3.6263
-0.011774,0.048239,0.068291,0.00027207,-0.025674,-0.37454,-0.23063,0.39118,0.068972,0.080836,1.5662,0.18313,-0.62983,0.12622,-0.057115,1.018,0.10855,-0.030123,-0.22142,-1.1496,-0.12289,0.74813,-0.14689,-3.2736
-0.0073665,0.045876,0.065657,-0.0020387,-0.013646,-0.39026,-0.23465,0.34851,0.073891,0.095277,1.504,0.20115,-0.5873,0.21249,-0.082684,1.0355,0.10384,-0.027783,-0.27579,-0.96276,-0.045678,0.78517,-0.15565,-2.822
-0.013874,0.051892,0.054535,-0.0065469,-0.011125,-0.39921,-0.24286,0.31546,0.06867,0.15198,1.4452,0.20812,-0.55551,0.33482,-0.11876,1.0298,0.10071,-0.038167,-0.34897,-0.72925,0.048601,0.7008,-0.15438,-2.3604
