2.0258e-010,1.256e-009,-4.0033e-009,2.7608e-009,-1.4566e-009,3.8837e-009,1.2058e-009,2.566e-010,6.6561e-010,-6.8105e-010,-4.3737e-009,3.3936e-009,-5.4599e-010,2.3364e-009,-1.7422e-009,2.4599e-009,-7.3892e-010,3.1853e-009,5.566e-009,-6.4632e-010,-3.2219e-010,1.691e-008,3.6174e-009,3.2592e-008
5.3433e-009,3.5259e-008,-1.1022e-007,7.5887e-008,-4.0148e-008,1.0726e-007,3.3645e-008,6.7705e-009,1.8656e-008,-1.892e-008,-1.2049e-007,9.3926e-008,-1.4872e-008,6.5968e-008,-4.7216e-008,6.8727e-008,-2.0315e-008,8.7543e-008,1.5383e-007,-1.7324e-008,-8.8648e-009,4.6882e-007,1.0045e-007,9.0027e-007
6.8212e-008,4.8178e-007,-1.4746e-006,1.0135e-006,-5.3747e-007,1.44e-006,4.5725e-007,8.6217e-008,2.5415e-007,-2.5542e-007,-1.6133e-006,1.2636e-006,-1.9708e-007,9.0472e-007,-6.2173e-007,9.3301e-007,-2.7134e-007,1.1692e-006,2.0666e-006,-2.2444e-007,-1.18e-007,6.3212e-006,1.3577e-006,1.2089e-005
5.6127e-007,4.2695e-006,-1.2773e-005,8.7604e-006,-4.6556e-006,1.2518e-005,4.0338e-006,7.0445e-007,2.2423e-006,-2.2333e-006,-1.3986e-005,1.1009e-005,-1.6933e-006,8.0289e-006,-5.2992e-006,8.1982e-006,-2.3455e-006,1.0111e-005,1.798e-005,-1.8694e-006,-1.0108e-006,5.5227e-005,1.1903e-005,0.00010512
3.3444e-006,2.7584e-005,-8.0488e-005,5.5084e-005,-2.9321e-005,7.9193e-005,2.5972e-005,4.1382e-006,1.4399e-005,-1.4221e-005,-8.8234e-005,6.9809e-005,-1.0606e-005,5.1814e-005,-3.2858e-005,5.2397e-005,-1.4745e-005,6.3615e-005,0.00011387,-1.1224e-005,-6.2512e-006,0.00035144,7.6103e-005,0.0006654
1.5369e-005,0.00013846,-0.00039307,0.0002684,-0.00014303,0.00038839,0.00013009,1.8537e-005,7.1719e-005,-7.0302e-005,-0.00043156,0.00034327,-5.1623e-005,0.00025905,-0.00015791,0.00025948,-7.1815e-005,0.00031027,0.00055932,-5.1581e-005,-2.9643e-005,0.0017357,0.0003782,0.0032663
5.6636e-005,0.00056183,-0.0015472,0.0010541,-0.000562,0.0015358,0.00052751,6.5395e-005,0.0002882,-0.00028086,-0.0017022,0.0013616,-0.0002032,0.0010437,-0.00061165,0.0010355,-0.0002818,0.0012201,0.0022162,-0.00018767,-0.0001116,0.0069217,0.0015203,0.012934
0.00017183,0.0018928,-0.0050382,0.0034251,-0.0018259,0.0050264,0.0017791,0.00018425,0.00095953,-0.00093177,-0.0055596,0.0044728,-0.00066459,0.0034786,-0.0019601,0.0034178,-0.00091448,0.0039709,0.0072741,-0.00055004,-0.00033984,0.022889,0.0050794,0.04242
0.00043722,0.005395,-0.01382,0.0093772,-0.0049945,0.013865,0.0050868,0.00041227,0.0026962,-0.0026171,-0.015314,0.012395,-0.001841,0.00977,-0.0052903,0.0095015,-0.0024988,0.010893,0.020143,-0.0013004,-0.00084086,0.063954,0.014378,0.11737
0.00094635,0.013185,-0.032327,0.021905,-0.011648,0.032646,0.012501,0.00070164,0.0064782,-0.0063108,-0.036042,0.029354,-0.00438,0.023423,-0.012169,0.022524,-0.0058208,0.025506,0.047676,-0.0024233,-0.0016642,0.15301,0.034976,0.27756
0.0017634,0.027894,-0.065004,0.044024,-0.023358,0.066154,0.026671,0.00075654,0.013428,-0.013195,-0.07312,0.05993,-0.0090405,0.048359,-0.024026,0.045899,-0.011653,0.051401,0.097297,-0.0032502,-0.0024715,0.31647,0.073883,0.56591
0.0028651,0.051391,-0.11281,0.076468,-0.040467,0.11591,0.049747,-0.00014393,0.024138,-0.024079,-0.12858,0.10604,-0.016304,0.086448,-0.040799,0.080736,-0.020134,0.089558,0.17212,-0.0018406,-0.0020506,0.56942,0.13658,1.0002
0.0041313,0.082716,-0.16891,0.11488,-0.060674,0.17581,0.081498,-0.0031524,0.0377,-0.038463,-0.19643,0.16296,-0.025814,0.13412,-0.059348,0.12259,-0.030036,0.13502,0.26449,0.0052728,0.0020654,0.89471,0.2222,1.5358
0.0054344,0.11633,-0.21704,0.14874,-0.078609,0.23011,0.1176,-0.009481,0.051037,-0.053727,-0.26057,0.21719,-0.035985,0.18045,-0.072925,0.15987,-0.038532,0.17553,0.35256,0.022231,0.013352,1.2295,0.31948,2.0465
0.0067744,0.14257,-0.2362,0.16438,-0.087615,0.25782,0.14972,-0.019653,0.059421,-0.065194,-0.299,0.24976,-0.044258,0.20973,-0.073072,0.17682,-0.042088,0.19498,0.40557,0.051565,0.034997,1.4775,0.40739,2.3552
0.0082766,0.15146,-0.21181,0.15217,-0.083513,0.24347,0.16858,-0.032772,0.058512,-0.067627,-0.29493,0.24553,-0.048192,0.20928,-0.053985,0.16154,-0.038413,0.18191,0.39894,0.091345,0.0678,1.5525,0.46263,2.3208
0.0098813,0.1389,-0.14749,0.11385,-0.068075,0.18882,0.16913,-0.046445,0.04713,-0.057879,-0.24886,0.20399,-0.046963,0.17858,-0.017121,0.11496,-0.028348,0.13844,0.33182,0.13382,0.10843,1.433,0.47141,1.9366
0.010845,0.11128,-0.067479,0.06411,-0.049042,0.11587,0.15452,-0.057729,0.028879,-0.037337,-0.18197,0.14322,-0.042257,0.13269,0.027541,0.053739,-0.016043,0.082397,0.23374,0.16747,0.14954,1.1884,0.43795,1.3648
0.0095601,0.084195,-0.0047805,0.023162,-0.035578,0.055866,0.13547,-0.064702,0.010972,-0.012297,-0.12559,0.091601,-0.037663,0.095218,0.065798,0.0024113,-0.0067048,0.038695,0.15143,0.18239,0.18242,0.94652,0.3824,0.85804
0.0042279,0.074093,0.019536,0.0041158,-0.031902,0.029893,0.124,-0.067599,0.0003101,0.0088323,-0.10165,0.07049,-0.036602,0.083754,0.087337,-0.021603,-0.0031575,0.023825,0.12095,0.176,0.20086,0.81323,0.32788,0.60355
-0.0057007,0.087199,0.010787,0.0042908,-0.034241,0.035193,0.12548,-0.068561,-0.00090799,0.020635,-0.10817,0.079807,-0.04005,0.098021,0.092299,-0.019636,-0.0037934,0.034747,0.14415,0.15514,0.20387,0.8007,0.28492,0.59823
-0.018363,0.11383,-0.0036941,0.0078931,-0.034169,0.04907,0.13503,-0.070044,0.003045,0.025082,-0.12185,0.098234,-0.045719,0.12061,0.091105,-0.010133,-0.003768,0.051523,0.18815,0.1324,0.19513,0.82105,0.24529,0.65939
-0.029913,0.1337,0.0039167,-0.0012765,-0.025978,0.048278,0.14185,-0.073024,0.0038872,0.031613,-0.11648,0.099132,-0.049484,0.13056,0.096978,-0.013921,0.0013193,0.052749,0.20995,0.11893,0.17952,0.75623,0.19038,0.57156
-0.036813,0.13009,0.039965,-0.027075,-0.011711,0.027955,0.13831,-0.076391,-0.0052896,0.051415,-0.082636,0.07041,-0.048139,0.1191,0.11638,-0.037793,0.012244,0.031731,0.18772,0.1186,0.15945,0.55039,0.10795,0.25584
-0.038444,0.10263,0.085303,-0.058734,0.00084922,0.003748,0.12653,-0.078011,-0.025227,0.088616,-0.032728,0.02267,-0.041468,0.094689,0.14453,-0.070043,0.026135,4.0179e-005,0.13412,0.12739,0.13381,0.24992,0.003685,-0.17666
-0.037703,0.0683,0.11282,-0.080773,0.0055923,-0.0045899,0.11635,-0.0766,-0.049599,0.13459,0.011987,-0.02061,-0.032087,0.073418,0.16936,-0.091642,0.039442,-0.024301,0.081755,0.13799,0.10039,-0.040919,-0.10151,-0.52975
-0.038595,0.048459,0.11118,-0.086288,0.0039996,0.0070953,0.11631,-0.072824,-0.06876,0.17084,0.03983,-0.042146,-0.023302,0.063983,0.1805,-0.093122,0.050948,-0.03322,0.054556,0.14547,0.059583,-0.24821,-0.18588,-0.69233
-0.042559,0.051761,0.093929,-0.082074,0.003861,0.022676,0.12546,-0.068636,-0.075735,0.18038,0.056233,-0.043108,-0.016771,0.060819,0.17618,-0.082269,0.061885,-0.034808,0.04964,0.14995,0.015812,-0.38339,-0.24063,-0.72705
-0.046837,0.067039,0.086175,-0.081539,0.011867,0.020326,0.13356,-0.065307,-0.070495,0.16024,0.075038,-0.039229,-0.011852,0.051084,0.16305,-0.076219,0.073119,-0.044099,0.044055,0.15456,-0.024757,-0.52061,-0.27214,-0.80827
-0.046715,0.072771,0.10183,-0.092309,0.027103,-0.0075065,0.12978,-0.061827,-0.059625,0.12514,0.10353,-0.045794,-0.0069169,0.028035,0.14993,-0.085755,0.082447,-0.067533,0.018039,0.1615,-0.058643,-0.72289,-0.29255,-1.0737
-0.039963,0.055504,0.13223,-0.10971,0.041707,-0.047448,0.11216,-0.055311,-0.051602,0.098214,0.13598,-0.065506,-0.0012392,-0.0022757,0.14131,-0.10629,0.08519,-0.095901,-0.027045,0.16969,-0.087769,-0.98685,-0.3083,-1.5238
-0.029447,0.021391,0.15585,-0.12153,0.048057,-0.077679,0.089232,-0.04344,-0.051021,0.094527,0.16082,-0.089103,0.0043254,-0.02703,0.1355,-0.12321,0.078098,-0.11232,-0.071187,0.17646,-0.11785,-1.2529,-0.31702,-2.0463
-0.021266,-0.0094095,0.15898,-0.11918,0.045596,-0.087238,0.072389,-0.027143,-0.055888,0.11034,0.17302,-0.10616,0.0083559,-0.038928,0.12803,-0.12588,0.06311,-0.10757,-0.094267,0.18143,-0.15327,-1.4638,-0.31433,-2.5257
-0.019773,-0.020551,0.14738,-0.10513,0.040832,-0.083995,0.065927,-0.011044,-0.059941,0.12701,0.17888,-0.11484,0.010419,-0.042422,0.11635,-0.1169,0.047162,-0.088548,-0.092667,0.18887,-0.1924,-1.612,-0.30267,-2.9268
-0.023879,-0.013602,0.13896,-0.090532,0.040743,-0.084732,0.063806,-0.00079994,-0.058071,0.12675,0.1891,-0.12172,0.011533,-0.04806,0.10188,-0.10873,0.03765,-0.072164,-0.079891,0.20549,-0.2271,-1.7322,-0.29287,-3.2813
-0.027996,-0.0058374,0.14588,-0.085654,0.04616,-0.09803,0.055846,0.0009654,-0.0505,0.10709,0.20813,-0.13348,0.01306,-0.061061,0.088505,-0.11161,0.037195,-0.070989,-0.073028,0.23451,-0.24704,-1.8545,-0.29646,-3.609
-0.026833,-0.014023,0.16377,-0.091981,0.051525,-0.1168,0.037341,-0.0031311,-0.042327,0.08193,0.23056,-0.14944,0.015179,-0.075795,0.079587,-0.12451,0.042227,-0.083681,-0.079015,0.27068,-0.24572,-1.9686,-0.31588,-3.8646
-0.019788,-0.039227,0.17772,-0.10221,0.05102,-0.12697,0.013112,-0.0068979,-0.038948,0.068678,0.2475,-0.16242,0.016547,-0.081687,0.076046,-0.13693,0.046542,-0.098227,-0.09254,0.30144,-0.22378,-2.036,-0.34126,-3.967
-0.011188,-0.066342,0.17779,-0.10732,0.044825,-0.1227,-0.0075005,-0.0049641,-0.041361,0.073308,0.25555,-0.16621,0.01564,-0.07454,0.076355,-0.13891,0.046557,-0.10383,-0.10499,0.31499,-0.18733,-2.0351,-0.35693,-3.8789
-0.0064705,-0.07815,0.16811,-0.10398,0.03925,-0.11269,-0.019588,0.003608,-0.045459,0.08634,0.25911,-0.16193,0.012597,-0.061927,0.077535,-0.12948,0.043635,-0.1,-0.11411,0.30965,-0.14316,-1.9889,-0.35191,-3.6525
-0.007873,-0.070493,0.16146,-0.096088,0.040584,-0.1115,-0.026873,0.015357,-0.045831,0.092472,0.2646,-0.15689,0.0097754,-0.057199,0.076243,-0.11603,0.041752,-0.095265,-0.12524,0.29622,-0.094584,-1.9435,-0.32602,-3.3891
-0.013196,-0.054763,0.16597,-0.090099,0.048732,-0.12497,-0.03722,0.02579,-0.040516,0.084062,0.27352,-0.15756,0.010354,-0.067843,0.069791,-0.10642,0.043113,-0.097968,-0.14474,0.28996,-0.041215,-1.9165,-0.2875,-3.148
-0.018102,-0.046418,0.17769,-0.088938,0.057,-0.14435,-0.054098,0.032983,-0.032347,0.06605,0.28169,-0.16378,0.016041,-0.08919,0.057199,-0.10171,0.045974,-0.10855,-0.17311,0.29715,0.017835,-1.8659,-0.24547,-2.8904
-0.019366,-0.051236,0.18591,-0.090048,0.058391,-0.15475,-0.072641,0.038426,-0.025785,0.04903,0.28463,-0.16954,0.025745,-0.10905,0.039813,-0.096135,0.046492,-0.11998,-0.20469,0.30772,0.080377,-1.7165,-0.20423,-2.516
-0.016292,-0.062247,0.18442,-0.088663,0.052429,-0.14934,-0.084561,0.044882,-0.022427,0.038519,0.28231,-0.169,0.036197,-0.1184,0.02079,-0.083585,0.042496,-0.12485,-0.23291,0.30117,0.14039,-1.4229,-0.16377,-1.9633
-0.0098198,-0.06921,0.17682,-0.082654,0.04581,-0.13527,-0.087273,0.053647,-0.019624,0.031056,0.27806,-0.16173,0.043887,-0.11788,0.0035079,-0.06396,0.03549,-0.12184,-0.25538,0.26239,0.19064,-1.0155,-0.12488,-1.2849
-0.0010574,-0.070163,0.17092,-0.074257,0.046094,-0.12575,-0.088002,0.063665,-0.013554,0.01978,0.27341,-0.15234,0.046817,-0.11497,-0.010013,-0.0436,0.029219,-0.11577,-0.27399,0.19495,0.2264,-0.58595,-0.093103,-0.63073
0.0090219,-0.073169,0.169,-0.067318,0.054368,-0.12654,-0.097993,0.072805,-0.0036269,0.0024973,0.26559,-0.14568,0.04506,-0.11558,-0.019543,-0.029832,0.026462,-0.11246,-0.29086,0.12031,0.24715,-0.22523,-0.077138,-0.15176
0.018812,-0.086794,0.16484,-0.063079,0.063992,-0.13076,-0.12164,0.079597,0.0062785,-0.016275,0.25108,-0.14252,0.040266,-0.11891,-0.025915,-0.024935,0.027159,-0.11354,-0.30506,0.062966,0.2555,0.032701,-0.082264,0.09625
0.025804,-0.10947,0.15076,-0.05876,0.066826,-0.12738,-0.15098,0.083848,0.011142,-0.030448,0.23132,-0.13982,0.034826,-0.11994,-0.030112,-0.024754,0.029274,-0.11607,-0.31347,0.033273,0.25475,0.21516,-0.10401,0.172
0.027842,-0.12916,0.12694,-0.050352,0.06109,-0.11502,-0.17159,0.0862,0.0094856,-0.038194,0.21356,-0.13447,0.031132,-0.11599,-0.03297,-0.022624,0.031062,-0.11595,-0.31456,0.021473,0.24757,0.36529,-0.12771,0.18367
0.025007,-0.13409,0.10287,-0.03689,0.053308,-0.10693,-0.17529,0.087697,0.0047905,-0.042096,0.2051,-0.12655,0.0309,-0.11034,-0.035328,-0.01467,0.032296,-0.11107,-0.31085,0.0068779,0.23633,0.4947,-0.13551,0.20232
0.020066,-0.12415,0.088643,-0.021989,0.052268,-0.12096,-0.168,0.089849,0.0022514,-0.044387,0.2063,-0.11886,0.034505,-0.10932,-0.037924,-0.0019816,0.033437,-0.1015,-0.30727,-0.02633,0.22382,0.57969,-0.11658,0.22672
0.016515,-0.1112,0.084724,-0.011034,0.060607,-0.16315,-0.16485,0.094458,0.0041201,-0.043721,0.21008,-0.11371,0.040701,-0.11663,-0.040945,0.011488,0.034036,-0.08766,-0.30649,-0.079662,0.21236,0.6013,-0.07373,0.21989
0.015685,-0.10781,0.080704,-0.0065249,0.071966,-0.2201,-0.17675,0.10247,0.008229,-0.037861,0.20867,-0.11037,0.047191,-0.13049,-0.043935,0.022734,0.032371,-0.069766,-0.30568,-0.14328,0.20189,0.58438,-0.021659,0.17308
0.015718,-0.1154,0.065017,-0.0059032,0.076517,-0.26805,-0.20063,0.11255,0.010961,-0.029251,0.20089,-0.10595,0.051933,-0.14612,-0.046575,0.031732,0.026887,-0.049413,-0.29802,-0.20629,0.18887,0.59141,0.022131,0.13393
0.013771,-0.12367,0.036465,-0.003839,0.069746,-0.29087,-0.22265,0.12121,0.011431,-0.026305,0.19247,-0.098357,0.054343,-0.1602,-0.04979,0.040476,0.017899,-0.030938,-0.27811,-0.26432,0.16814,0.67092,0.047472,0.17454
0.0096162,-0.12182,0.006215,0.0031588,0.05638,-0.29068,-0.23144,0.12521,0.012556,-0.037321,0.18888,-0.088362,0.055394,-0.17238,-0.055905,0.050582,0.007621,-0.01952,-0.24704,-0.31882,0.13669,0.80754,0.055813,0.33197
0.0070505,-0.11023,-0.012176,0.014093,0.04598,-0.28175,-0.22868,0.12463,0.01805,-0.062124,0.1884,-0.078508,0.056478,-0.18287,-0.06728,0.061864,-0.001756,-0.016565,-0.21281,-0.37144,0.096582,0.9231,0.056131,0.57669
0.011199,-0.10059,-0.015547,0.025133,0.044556,-0.27395,-0.22692,0.12349,0.028519,-0.090071,0.18276,-0.070124,0.057933,-0.18922,-0.084328,0.072789,-0.010071,-0.01673,-0.18568,-0.42053,0.054286,0.93359,0.056209,0.83611
0.023796,-0.10441,-0.014589,0.033791,0.050021,-0.2618,-0.23695,0.12681,0.040582,-0.10758,0.16517,-0.06164,0.058586,-0.18666,-0.10464,0.081814,-0.019124,-0.010613,-0.17177,-0.46265,0.016868,0.81536,0.056291,1.0505
0.040841,-0.12133,-0.024523,0.041464,0.055337,-0.22983,-0.25701,0.13588,0.049679,-0.10906,0.13746,-0.05018,0.056848,-0.17218,-0.12408,0.088138,-0.030389,0.0079706,-0.16967,-0.49595,-0.012149,0.6246,0.049943,1.2125
0.055166,-0.13912,-0.051563,0.051803,0.055784,-0.16902,-0.27437,0.14637,0.053619,-0.10134,0.10907,-0.035071,0.052534,-0.14882,-0.13898,0.091476,-0.042736,0.036099,-0.17201,-0.51992,-0.034192,0.45444,0.03099,1.3604
0.061857,-0.14524,-0.087606,0.066479,0.053237,-0.088624,-0.2777,0.15116,0.053512,-0.09722,0.088529,-0.019703,0.047795,-0.12543,-0.14785,0.091685,-0.052678,0.062805,-0.17032,-0.53145,-0.053777,0.36744,0.00050236,1.5354
0.061616,-0.13802,-0.11769,0.082548,0.053742,-0.01215,-0.26782,0.14626,0.051741,-0.10399,0.075918,-0.0095785,0.046035,-0.11155,-0.15151,0.088999,-0.05729,0.076761,-0.15964,-0.52238,-0.07524,0.35933,-0.032173,1.7429
0.059057,-0.12648,-0.13279,0.094231,0.06132,0.038838,-0.25633,0.13469,0.049534,-0.11731,0.063727,-0.0079395,0.049341,-0.11085,-0.15215,0.084579,-0.057211,0.074289,-0.14025,-0.48359,-0.1005,0.37858,-0.055374,1.9486
0.057874,-0.11964,-0.13599,0.097751,0.074235,0.058531,-0.25378,0.1247,0.046626,-0.12585,0.045102,-0.012823,0.056419,-0.11854,-0.15232,0.080426,-0.056723,0.061152,-0.11645,-0.41381,-0.12886,0.37725,-0.063347,2.1071
0.057826,-0.11729,-0.13715,0.094821,0.086899,0.057254,-0.2594,0.12355,0.042824,-0.1221,0.020982,-0.018228,0.062943,-0.12495,-0.15436,0.078328,-0.060451,0.047207,-0.093855,-0.32522,-0.1582,0.34592,-0.060169,2.1952
0.056384,-0.11197,-0.1423,0.091506,0.09482,0.050558,-0.26285,0.13171,0.039225,-0.10931,-0.0011,-0.018395,0.064475,-0.12284,-0.15992,0.078747,-0.069398,0.0391,-0.076774,-0.23905,-0.18637,0.30735,-0.056335,2.2212
0.05289,-0.099879,-0.14873,0.093325,0.097458,0.048755,-0.25594,0.14246,0.037484,-0.098493,-0.015184,-0.011534,0.059895,-0.11291,-0.16912,0.080928,-0.07983,0.037136,-0.06668,-0.1731,-0.21206,0.2839,-0.060908,2.209
0.050344,-0.087853,-0.15009,0.10093,0.096676,0.055494,-0.24208,0.14714,0.038062,-0.098725,-0.023466,-5.4547e-005,0.052564,-0.10332,-0.18014,0.084323,-0.08613,0.037842,-0.06207,-0.13101,-0.23504,0.2747,-0.075428,2.1746
0.052501,-0.087751,-0.1455,0.11007,0.093354,0.07283,-0.23325,0.14171,0.039748,-0.11015,-0.034408,0.012349,0.048048,-0.10334,-0.19007,0.089821,-0.085281,0.038625,-0.059857,-0.1025,-0.25578,0.26218,-0.093917,2.1168
0.059254,-0.1033,-0.14265,0.11568,0.086266,0.10365,-0.23731,0.12937,0.041249,-0.12565,-0.054254,0.023795,0.049966,-0.11584,-0.19702,0.099208,-0.079266,0.039924,-0.057703,-0.074645,-0.27451,0.23482,-0.10813,2.0283
0.065514,-0.12367,-0.15111,0.11616,0.074295,0.14705,-0.24854,0.11733,0.043089,-0.13853,-0.080698,0.034887,0.057175,-0.1344,-0.20179,0.11294,-0.073506,0.043741,-0.055851,-0.044726,-0.29044,0.1979,-0.11334,1.9122
0.065485,-0.13217,-0.17237,0.11426,0.059007,0.19268,-0.25178,0.11095,0.047291,-0.14812,-0.10523,0.046916,0.064533,-0.14737,-0.20733,0.12838,-0.072841,0.051179,-0.056873,-0.024014,-0.30175,0.1603,-0.1103,1.7866
0.058415,-0.12271,-0.19681,0.11408,0.044151,0.22318,-0.23692,0.11006,0.054682,-0.15753,-0.12173,0.059771,0.066669,-0.14595,-0.21593,0.14067,-0.078406,0.061899,-0.063097,-0.029865,-0.30691,0.11351,-0.10293,1.6729
0.049888,-0.10705,-0.21122,0.11756,0.032189,0.22616,-0.20953,0.11017,0.062607,-0.16673,-0.13225,0.07155,0.061849,-0.13023,-0.22665,0.14608,-0.087685,0.075456,-0.073474,-0.073224,-0.30616,0.029599,-0.094534,1.5792
0.046805,-0.10411,-0.21025,0.12327,0.021524,0.20547,-0.18666,0.10685,0.066059,-0.16919,-0.14405,0.080022,0.05304,-0.10874,-0.23559,0.14516,-0.097159,0.091954,-0.082615,-0.15152,-0.3018,-0.1151,-0.085865,1.4944
0.050607,-0.12061,-0.2009,0.12842,0.0077079,0.17971,-0.18089,0.098942,0.061945,-0.15705,-0.16107,0.084409,0.045538,-0.092121,-0.23918,0.14268,-0.10494,0.11031,-0.083344,-0.25128,-0.29649,-0.31186,-0.075798,1.3982
0.055462,-0.14229,-0.19601,0.13137,-0.012155,0.16725,-0.18764,0.088245,0.052582,-0.13054,-0.17915,0.08599,0.043045,-0.085969,-0.2377,0.14396,-0.11124,0.12571,-0.071284,-0.35651,-0.29113,-0.51658,-0.06309,1.2782
0.053552,-0.14604,-0.20267,0.13233,-0.036027,0.17031,-0.18847,0.076756,0.044535,-0.10179,-0.1906,0.087275,0.045014,-0.087971,-0.23571,0.15038,-0.11676,0.13007,-0.048061,-0.45583,-0.28448,-0.67943,-0.047525,1.1378
0.042676,-0.12249,-0.21649,0.132,-0.058032,0.17337,-0.16788,0.064742,0.043131,-0.087382,-0.19346,0.090534,0.047007,-0.090808,-0.2386,0.15793,-0.12099,0.11711,-0.020478,-0.54414,-0.27538,-0.78285,-0.030039,0.99171
0.028852,-0.087117,-0.22666,0.13005,-0.073147,0.15815,-0.12828,0.051514,0.047501,-0.094849,-0.1952,0.09664,0.04372,-0.087854,-0.24787,0.1602,-0.12235,0.089252,0.0038936,-0.62063,-0.26531,-0.85401,-0.012441,0.85376
0.021264,-0.067834,-0.22662,0.12545,-0.081139,0.12176,-0.088875,0.037586,0.05109,-0.11549,-0.20613,0.10468,0.032719,-0.077227,-0.25929,0.15343,-0.1199,0.059866,0.021412,-0.68648,-0.25822,-0.93886,0.0029579,0.72998
0.024167,-0.079404,-0.22004,0.11828,-0.086174,0.080947,-0.069214,0.025331,0.047689,-0.13106,-0.2284,0.11242,0.016502,-0.061885,-0.26551,0.1395,-0.11496,0.046895,0.033869,-0.74403,-0.25699,-1.0589,0.01418,0.62075
0.033287,-0.10871,-0.2168,0.11083,-0.092696,0.058011,-0.072268,0.016978,0.037595,-0.12943,-0.25225,0.11745,0.0014457,-0.046699,-0.2612,0.1246,-0.11059,0.06063,0.045916,-0.7958,-0.25939,-1.1871,0.020979,0.52677
0.039949,-0.1255,-0.22301,0.10649,-0.1016,0.06116,-0.082381,0.011944,0.027946,-0.11514,-0.26439,0.11875,-0.0060126,-0.035178,-0.24686,0.11463,-0.10915,0.094461,0.060631,-0.84223,-0.25813,-1.2624,0.025852,0.45014
0.038918,-0.10944,-0.23484,0.10691,-0.11016,0.077464,-0.079563,0.0065963,0.026547,-0.10484,-0.26104,0.11757,-0.0037296,-0.027806,-0.22846,0.11126,-0.11007,0.12698,0.076652,-0.87892,-0.24571,-1.2305,0.033384,0.38953
0.032589,-0.068641,-0.24176,0.11009,-0.11532,0.085003,-0.056741,-0.0027374,0.034682,-0.11141,-0.25261,0.11697,0.0041977,-0.022274,-0.21346,0.11139,-0.11023,0.13572,0.088763,-0.89657,-0.22032,-1.0789,0.047865,0.33769
0.027895,-0.032289,-0.2361,0.11142,-0.1171,0.072935,-0.024575,-0.0162,0.045599,-0.13141,-0.25453,0.11971,0.00962,-0.014839,-0.20625,0.11006,-0.1069,0.11325,0.091312,-0.88494,-0.18751,-0.83995,0.070818,0.28891
0.029189,-0.024321,-0.21999,0.10717,-0.11865,0.051022,-0.00047682,-0.029942,0.050217,-0.14769,-0.2723,0.12594,0.0055949,-0.0020695,-0.20591,0.10408,-0.10084,0.072902,0.082131,-0.83892,-0.15573,-0.5654,0.1003,0.25332
0.033959,-0.042501,-0.2035,0.097477,-0.1235,0.040262,0.0071324,-0.039674,0.044894,-0.14482,-0.29529,0.1325,-0.0088045,0.017406,-0.20726,0.09362,-0.09638,0.039185,0.06466,-0.76235,-0.12983,-0.29525,0.13228,0.26337
0.035209,-0.061797,-0.19612,0.0862,-0.1327,0.053889,0.0049805,-0.045145,0.034266,-0.12298,-0.30579,0.13474,-0.027682,0.041663,-0.20416,0.081112,-0.097895,0.029521,0.04712,-0.66697,-0.10835,-0.044568,0.16248,0.35939
0.027954,-0.057886,-0.19908,0.077608,-0.14453,0.086556,0.0071969,-0.051234,0.026821,-0.097582,-0.2951,0.12999,-0.042276,0.065604,-0.1929,0.068926,-0.10543,0.041819,0.038999,-0.56751,-0.087021,0.18688,0.18718,0.55843
0.01358,-0.028172,-0.20514,0.072715,-0.15664,0.12093,0.022298,-0.064233,0.027536,-0.085398,-0.27188,0.11989,-0.046843,0.082986,-0.174,0.057897,-0.11335,0.057559,0.046403,-0.47654,-0.064758,0.39667,0.20315,0.82832
-0.0017435,0.0087199,-0.20508,0.068529,-0.16791,0.14402,0.047237,-0.086332,0.034298,-0.090545,-0.25479,0.10974,-0.042144,0.08971,-0.15194,0.047528,-0.11374,0.05749,0.068672,-0.40221,-0.045944,0.57171,0.20806,1.0917
-0.012643,0.032675,-0.19476,0.060918,-0.17812,0.15666,0.072729,-0.11309,0.040799,-0.10282,-0.25673,0.10497,-0.034185,0.086423,-0.13302,0.037177,-0.10205,0.036766,0.098453,-0.34885,-0.036421,0.69629,0.20229,1.2647
-0.018568,0.040715,-0.17674,0.048534,-0.18612,0.16763,0.092963,-0.13616,0.042489,-0.10858,-0.2751,0.10727,-0.029576,0.078449,-0.12212,0.026936,-0.080492,0.0074256,0.12571,-0.3181,-0.036759,0.76633,0.19041,1.3073
-0.022705,0.046687,-0.1562,0.034193,-0.18924,0.17998,0.10962,-0.14908,0.039705,-0.1026,-0.29655,0.11338,-0.031316,0.072701,-0.11994,0.017503,-0.056415,-0.012754,0.14355,-0.30876,-0.039372,0.79522,0.18003,1.2482
-0.027487,0.063896,-0.13592,0.0224,-0.18523,0.1853,0.12713,-0.15136,0.035509,-0.090027,-0.31023,0.11742,-0.037897,0.073447,-0.12235,0.0093488,-0.036952,-0.014747,0.15203,-0.31529,-0.032925,0.80575,0.17748,1.1629
-0.03167,0.089448,-0.11529,0.015221,-0.17533,0.17302,0.14533,-0.14807,0.031271,-0.078286,-0.31664,0.115,-0.045622,0.079924,-0.12248,0.0020663,-0.024171,-0.0040917,0.15731,-0.32713,-0.011022,0.81634,0.18323,1.1199
-0.032047,0.10659,-0.093461,0.010374,-0.16477,0.1449,0.15821,-0.14559,0.025041,-0.068947,-0.32418,0.1061,-0.051624,0.087585,-0.11489,-0.0054694,-0.014396,0.0055779,0.16643,-0.3302,0.021821,0.83386,0.19095,1.1343
-0.027855,0.10248,-0.072381,0.0033929,-0.15946,0.11818,0.16015,-0.14741,0.01447,-0.058191,-0.33835,0.094487,-0.055243,0.092121,-0.098791,-0.014283,-0.0018839,0.0044474,0.18163,-0.31051,0.051881,0.85774,0.19167,1.1651
-0.022955,0.082922,-0.05595,-0.0080059,-0.16112,0.1113,0.15324,-0.15268,0.00092054,-0.044113,-0.35519,0.08451,-0.057477,0.093265,-0.078283,-0.024563,0.016258,-0.0064183,0.19838,-0.25818,0.064503,0.88767,0.17995,1.1561
-0.023048,0.068401,-0.045966,-0.021397,-0.16543,0.12508,0.14733,-0.15807,-0.010187,-0.031321,-0.36541,0.077786,-0.059848,0.09547,-0.058962,-0.035715,0.037635,-0.017698,0.20865,-0.17033,0.05283,0.92488,0.15714,1.0866
-0.030306,0.074804,-0.039454,-0.031426,-0.1652,0.13872,0.15207,-0.16065,-0.013976,-0.026393,-0.36424,0.072471,-0.063781,0.10487,-0.043498,-0.04718,0.05615,-0.020428,0.20713,-0.052113,0.020952,0.96553,0.1289,0.98861
-0.040727,0.097757,-0.03075,-0.034469,-0.15608,0.1271,0.16816,-0.15966,-0.011485,-0.028586,-0.35648,0.065337,-0.070389,0.12464,-0.029469,-0.059255,0.066179,-0.012846,0.19584,0.084144,-0.019963,0.99581,0.09952,0.9174
-0.047179,0.11657,-0.016654,-0.032062,-0.13956,0.084357,0.18658,-0.15652,-0.010096,-0.02665,-0.35113,0.054747,-0.079891,0.15204,-0.011094,-0.07298,0.066335,-0.00053458,0.18376,0.22142,-0.058904,0.99853,0.067994,0.90217
-0.045661,0.11459,0.0005562,-0.030073,-0.12068,0.031135,0.19675,-0.15364,-0.017638,-0.0073021,-0.35131,0.042063,-0.090747,0.17908,0.016474,-0.08895,0.060443,0.0089115,0.18164,0.34184,-0.090309,0.9688,0.029654,0.91914
-0.039067,0.096345,0.015633,-0.03432,-0.10308,-0.0028189,0.19607,-0.15311,-0.035037,0.031406,-0.34976,0.030565,-0.099588,0.19637,0.053501,-0.10599,0.055295,0.011616,0.19547,0.43092,-0.11451,0.92438,-0.018181,0.90907
-0.034941,0.084643,0.026123,-0.046413,-0.086087,-0.0050496,0.19181,-0.15578,-0.054443,0.075086,-0.33502,0.022989,-0.10278,0.19776,0.095156,-0.12102,0.056698,0.0092895,0.22299,0.48109,-0.13441,0.89727,-0.071499,0.82247
-0.039192,0.099631,0.035548,-0.063154,-0.066862,0.0089518,0.19365,-0.1607,-0.065132,0.10287,-0.3025,0.019664,-0.098855,0.18334,0.1342,-0.13078,0.066214,0.0067821,0.25536,0.4933,-0.15174,0.9093,-0.12022,0.6534
-0.051351,0.13944,0.050528,-0.079551,-0.044796,0.011021,0.2043,-0.1652,-0.062334,0.10441,-0.25994,0.018481,-0.089934,0.15926,0.16485,-0.13426,0.080519,0.0080175,0.28262,0.47665,-0.16566,0.95096,-0.154,0.43618
-0.065298,0.18036,0.074414,-0.09245,-0.023435,-0.01313,0.21723,-0.16588,-0.051094,0.088645,-0.22162,0.016393,-0.080567,0.13507,0.18546,-0.13399,0.09375,0.013486,0.29909,0.44608,-0.17395,0.98285,-0.1688,0.21337
-0.074302,0.19645,0.10361,-0.10175,-0.0076981,-0.051343,0.22333,-0.16049,-0.041627,0.075785,-0.19675,0.011252,-0.074828,0.11947,0.19873,-0.13471,0.10132,0.020634,0.30533,0.41838,-0.17494,0.96174,-0.16898,0.0069495
-0.075661,0.18046,0.13018,-0.10879,0.00081933,-0.077792,0.21962,-0.14963,-0.040376,0.079533,-0.18245,0.0028591,-0.073853,0.11648,0.20976,-0.13993,0.10262,0.026238,0.30605,0.40687,-0.16842,0.87196,-0.16339,-0.18348
-0.071266,0.1481,0.14808,-0.11419,0.0055456,-0.077886,0.21134,-0.13691,-0.04494,0.095737,-0.16752,-0.0070979,-0.075701,0.12363,0.22314,-0.14897,0.10072,0.0287,0.30627,0.41636,-0.15478,0.73783,-0.15836,-0.36013
-0.064692,0.12324,0.1572,-0.11738,0.011716,-0.061001,0.20568,-0.1269,-0.047351,0.10783,-0.14311,-0.016014,-0.077348,0.13333,0.24058,-0.15699,0.099448,0.028667,0.30872,0.44103,-0.1336,0.60769,-0.15281,-0.51067
-0.058311,0.11902,0.16179,-0.11795,0.02128,-0.049569,0.20409,-0.12209,-0.042381,0.10358,-0.11037,-0.021733,-0.076893,0.13748,0.26012,-0.15842,0.10012,0.027798,0.31366,0.46761,-0.10313,0.52238,-0.13887,-0.61652
-0.052962,0.13091,0.16576,-0.11697,0.030932,-0.056439,0.20105,-0.12109,-0.03297,0.087345,-0.07852,-0.023749,-0.074241,0.13258,0.27753,-0.1514,0.10087,0.026932,0.31982,0.48325,-0.061538,0.49188,-0.1073,-0.67934
-0.049393,0.14512,0.17005,-0.11654,0.035274,-0.073143,0.19061,-0.11985,-0.027765,0.076488,-0.055942,-0.023657,-0.070156,0.12215,0.28899,-0.13966,0.098848,0.025257,0.32471,0.48353,-0.00911,0.49494,-0.054108,-0.73816
-0.04882,0.15167,0.17417,-0.11794,0.032108,-0.07982,0.17365,-0.11504,-0.03326,0.085859,-0.042679,-0.024462,-0.06505,0.11407,0.29349,-0.12998,0.093414,0.021153,0.32433,0.47535,0.050048,0.49834,0.015955,-0.855
-0.051519,0.14967,0.17892,-0.12043,0.024799,-0.065833,0.15831,-0.10701,-0.047943,0.11519,-0.031011,-0.028951,-0.058786,0.1144,0.2932,-0.12721,0.087268,0.01385,0.31366,0.47195,0.10827,0.47894,0.091184,-1.0738
-0.055247,0.14291,0.18644,-0.12211,0.019441,-0.040283,0.15289,-0.099546,-0.063738,0.15053,-0.012679,-0.038059,-0.051474,0.12206,0.29166,-0.13076,0.084462,0.0042838,0.28916,0.48322,0.15681,0.43369,0.1589,-1.3827
-0.056032,0.13355,0.19693,-0.12216,0.019453,-0.022686,0.15838,-0.09648,-0.073062,0.17701,0.014352,-0.050329,-0.044144,0.12899,0.29097,-0.13552,0.087097,-0.0057635,0.25202,0.50799,0.18956,0.37464,0.21206,-1.7099
-0.051402,0.12156,0.20639,-0.12201,0.022671,-0.02406,0.16787,-0.098034,-0.074805,0.18972,0.045392,-0.062894,-0.038353,0.12601,0.29021,-0.13627,0.093661,-0.015445,0.2091,0.5342,0.20594,0.31621,0.25237,-1.9582
-0.043039,0.10901,0.209,-0.12423,0.023653,-0.037452,0.17325,-0.1002,-0.07395,0.19303,0.074058,-0.073282,-0.034961,0.11004,0.28658,-0.13194,0.10035,-0.025716,0.1697,0.54678,0.21134,0.26505,0.28782,-2.0561
-0.035816,0.1017,0.20275,-0.12983,0.019105,-0.046492,0.17207,-0.097872,-0.075823,0.19143,0.097172,-0.080685,-0.03323,0.086848,0.27813,-0.12612,0.10396,-0.038113,0.13972,0.53786,0.21436,0.21795,0.32591,-1.991
-0.033561,0.10413,0.19263,-0.13675,0.011396,-0.042339,0.16779,-0.089058,-0.080813,0.18355,0.11511,-0.085832,-0.031161,0.066864,0.26614,-0.12364,0.10359,-0.052318,0.11773,0.51145,0.22213,0.16663,0.36737,-1.8067
-0.035454,0.11243,0.18705,-0.14098,0.0068732,-0.031668,0.16389,-0.076359,-0.084479,0.16628,0.12875,-0.089748,-0.026841,0.057242,0.25493,-0.12636,0.099969,-0.064846,0.096268,0.47939,0.23641,0.10536,0.40476,-1.5714
-0.036708,0.11425,0.19012,-0.1396,0.010386,-0.028352,0.15858,-0.064579,-0.082484,0.1436,0.13777,-0.092589,-0.019678,0.056505,0.24898,-0.13177,0.093548,-0.070642,0.067852,0.45186,0.25287,0.036262,0.42743,-1.3389
-0.033142,0.098216,0.19707,-0.13295,0.020891,-0.038152,0.14614,-0.056729,-0.075187,0.12822,0.14249,-0.093484,-0.010619,0.056048,0.24932,-0.13516,0.083762,-0.066946,0.03087,0.43023,0.26416,-0.030188,0.42927,-1.1283
-0.025262,0.065374,0.19803,-0.1242,0.03206,-0.052293,0.12368,-0.052106,-0.067424,0.13137,0.14657,-0.091369,-0.0014192,0.047316,0.25215,-0.13332,0.070224,-0.056447,-0.0093176,0.40798,0.26474,-0.079355,0.41333,-0.92654
-0.017742,0.030989,0.18718,-0.11677,0.037333,-0.056141,0.095895,-0.047878,-0.063894,0.15001,0.15549,-0.085945,0.0061724,0.028941,0.251,-0.12655,0.054471,-0.046753,-0.044982,0.37898,0.25419,-0.098591,0.38996,-0.70924
-0.014687,0.013314,0.16873,-0.112,0.03492,-0.043755,0.072224,-0.042247,-0.064845,0.16574,0.17059,-0.07799,0.01074,0.0082226,0.24123,-0.11762,0.040075,-0.045836,-0.072412,0.34571,0.2368,-0.081712,0.36963,-0.46068
-0.015399,0.018364,0.15327,-0.10883,0.028495,-0.023576,0.058801,-0.035988,-0.066229,0.15943,0.18462,-0.069002,0.011267,-0.0041862,0.22379,-0.10909,0.030559,-0.056471,-0.094704,0.32012,0.21793,-0.029934,0.3562,-0.18096
-0.014999,0.034647,0.14738,-0.1052,0.023363,-0.0099635,0.053033,-0.031168,-0.063992,0.12924,0.18514,-0.060718,0.0075317,-0.0021847,0.20494,-0.10151,0.026874,-0.07401,-0.11869,0.31573,0.20003,0.049827,0.34545,0.12194
-0.0094211,0.043327,0.14632,-0.099639,0.021938,-0.0095345,0.046521,-0.028759,-0.058146,0.094408,0.16513,-0.05491,0.00082003,0.011375,0.19211,-0.093707,0.026746,-0.089649,-0.14868,0.33728,0.18158,0.14718,0.32966,0.44471
0.0002529,0.034994,0.13762,-0.091884,0.022637,-0.015968,0.033667,-0.027813,-0.052657,0.079256,0.13179,-0.053288,-0.0059503,0.026983,0.18872,-0.084692,0.026582,-0.097089,-0.18242,0.37675,0.15934,0.25022,0.30427,0.79213
0.0086182,0.017698,0.11307,-0.082697,0.022722,-0.017803,0.017514,-0.026856,-0.0514,0.091156,0.10385,-0.05705,-0.0094536,0.035337,0.19197,-0.074952,0.024246,-0.097476,-0.21264,0.41886,0.13227,0.34835,0.27155,1.1653
0.011214,0.0087847,0.078483,-0.073582,0.021792,-0.010677,0.0069799,-0.025683,-0.054235,0.11296,0.097853,-0.06601,-0.0080242,0.033249,0.19543,-0.066133,0.020356,-0.098476,-0.23294,0.45118,0.1036,0.43613,0.23867,1.5439
0.0088695,0.018253,0.051079,-0.066566,0.022252,-0.0015846,0.0080833,-0.025339,-0.05699,0.11783,0.11443,-0.077946,-0.0028481,0.024236,0.19394,-0.059428,0.01714,-0.1079,-0.24301,0.46969,0.079655,0.51528,0.21234,1.8793
0.0065848,0.039341,0.045894,-0.063476,0.026431,-0.0014546,0.017703,-0.026239,-0.055232,0.093421,0.13741,-0.088993,0.0030456,0.014144,0.18692,-0.054296,0.0161,-0.12681,-0.24872,0.4751,0.066106,0.59078,0.19419,2.1112
0.0080475,0.055077,0.062738,-0.06456,0.033526,-0.014134,0.02595,-0.026611,-0.048106,0.053161,0.14735,-0.095304,0.0073312,0.0061655,0.17738,-0.048722,0.016554,-0.14786,-0.25697,0.46419,0.064607,0.66106,0.18026,2.199
0.011583,0.054194,0.085678,-0.067461,0.039702,-0.032866,0.024915,-0.023335,-0.038697,0.024097,0.13784,-0.095062,0.010118,-0.00035239,0.16807,-0.040827,0.016154,-0.16037,-0.26941,0.42556,0.072147,0.70972,0.16429,2.1473
0.01205,0.040945,0.095987,-0.067949,0.041336,-0.047048,0.015524,-0.014795,-0.030911,0.022624,0.11989,-0.089401,0.013065,-0.0069067,0.15857,-0.030457,0.012699,-0.15833,-0.28036,0.34512,0.083275,0.70877,0.1418,2.0041
0.0069706,0.029566,0.087217,-0.06258,0.038143,-0.051626,0.0062449,-0.0031059,-0.026105,0.040433,0.1107,-0.081364,0.016668,-0.012355,0.14613,-0.019437,0.0056905,-0.14502,-0.28087,0.21771,0.093254,0.63591,0.11195,1.8331
0.00040355,0.029356,0.068968,-0.051464,0.033054,-0.049599,0.0052939,0.0066286,-0.022588,0.053298,0.11742,-0.0735,0.018643,-0.012974,0.12916,-0.01032,-0.0034522,-0.13095,-0.26604,0.054415,0.099743,0.49506,0.07643,1.6791
-8.9068e-005,0.035531,0.056324,-0.038688,0.029163,-0.04613,0.013869,0.0096943,-0.018006,0.043888,0.13122,-0.065919,0.015588,-0.0062756,0.10985,-0.0046625,-0.01246,-0.12697,-0.24018,-0.12135,0.10216,0.32276,0.037257,1.5509
0.0089804,0.035034,0.055162,-0.029625,0.027018,-0.041797,0.026426,0.0050066,-0.011894,0.017154,0.13674,-0.056419,0.0068197,0.0053837,0.09332,-0.0021427,-0.019766,-0.13789,-0.21598,-0.2865,0.099833,0.17114,-0.0041753,1.4299
0.022407,0.021287,0.057204,-0.027025,0.02503,-0.032919,0.036836,-0.004455,-0.0058863,-0.0055189,0.12731,-0.042778,-0.0033191,0.015604,0.083754,-0.00099132,-0.025661,-0.16066,-0.20801,-0.42928,0.090893,0.076609,-0.046532,1.2923
0.029882,0.0025593,0.049205,-0.029079,0.022213,-0.018473,0.04379,-0.014205,-0.0017556,-0.0069411,0.11114,-0.025442,-0.0075751,0.019095,0.081141,0.00081871,-0.032425,-0.18724,-0.22482,-0.54982,0.072953,0.03703,-0.088011,1.1248
0.025125,-0.0052506,0.027053,-0.03108,0.019945,-0.005193,0.050238,-0.0215,0.00036493,0.01032,0.10294,-0.0083326,-0.0011927,0.016465,0.081405,0.0045808,-0.043213,-0.20941,-0.26446,-0.65082,0.044973,0.015344,-0.12735,0.92252
0.012034,0.0052193,0.00087735,-0.029252,0.020579,-0.0037646,0.058194,-0.02668,0.0017211,0.027646,0.10941,0.0031299,0.013893,0.01369,0.07977,0.010532,-0.059991,-0.22248,-0.31576,-0.72759,0.0087255,-0.032412,-0.16554,0.67909
0.0016024,0.023948,-0.013968,-0.023472,0.024493,-0.018693,0.065072,-0.031893,0.0031854,0.028731,0.12286,0.0055018,0.029996,0.016213,0.074266,0.017987,-0.081598,-0.22655,-0.36402,-0.7671,-0.031234,-0.12547,-0.20582,0.38343
0.0020246,0.031804,-0.011372,-0.016708,0.029187,-0.042159,0.065887,-0.038672,0.0042241,0.014398,0.1289,-0.00027665,0.039302,0.023016,0.066317,0.025558,-0.10333,-0.22547,-0.39756,-0.75751,-0.069003,-0.24596,-0.25062,0.030419
0.011177,0.018867,-0.00032017,-0.011965,0.031965,-0.059355,0.05912,-0.046402,0.0039184,-7.4255e-005,0.12037,-0.0092923,0.039485,0.026603,0.058161,0.031467,-0.11879,-0.22383,-0.41179,-0.70033,-0.099181,-0.35265,-0.29766,-0.36339
0.018769,-0.004968,0.003646,-0.0096268,0.03349,-0.061472,0.049715,-0.052553,0.002947,-0.0014981,0.104,-0.015503,0.034592,0.019505,0.049846,0.034219,-0.12318,-0.22324,-0.40923,-0.61509,-0.11825,-0.40802,-0.33941,-0.7555
0.016361,-0.018294,-0.0068128,-0.007411,0.037901,-0.054009,0.045188,-0.054092,0.0040982,0.0077512,0.093507,-0.014948,0.030656,0.0016707,0.038875,0.033561,-0.11577,-0.21971,-0.39637,-0.53208,-0.12519,-0.39832,-0.36764,-1.0924
0.0057768,-0.008474,-0.024149,-0.0026344,0.048433,-0.051636,0.048012,-0.048919,0.010181,0.012729,0.09607,-0.0073337,0.030165,-0.018103,0.023003,0.03097,-0.099968,-0.20458,-0.37975,-0.47782,-0.12155,-0.33538,-0.37994,-1.3349
-0.0022889,0.015286,-0.033763,0.0055108,0.062534,-0.063693,0.051941,-0.036728,0.020959,0.0020268,0.10541,0.0045186,0.030336,-0.028353,0.0035638,0.028939,-0.080823,-0.16964,-0.36306,-0.46263,-0.11077,-0.2442,-0.38251,-1.4777
0.0015655,0.029263,-0.028666,0.015583,0.071958,-0.084174,0.046802,-0.019309,0.032161,-0.019456,0.10808,0.016448,0.02646,-0.023539,-0.014091,0.029233,-0.062171,-0.11385,-0.34646,-0.47735,-0.096859,-0.14921,-0.38558,-1.5493
0.016012,0.016968,-0.016621,0.025314,0.069012,-0.096529,0.028152,-0.00036699,0.038044,-0.034122,0.096818,0.024772,0.016911,-0.0077654,-0.023955,0.031468,-0.045379,-0.046709,-0.32774,-0.49986,-0.082301,-0.068253,-0.39474,-1.5984
0.029352,-0.014771,-0.012708,0.033162,0.053856,-0.089647,0.0028081,0.015423,0.035752,-0.028325,0.078015,0.027551,0.0050734,0.0091714,-0.024013,0.033374,-0.030244,0.01498,-0.30439,-0.50648,-0.066346,-0.0137,-0.40546,-1.6767
0.029664,-0.04081,-0.024464,0.038656,0.035887,-0.070153,-0.015597,0.024343,0.02773,-0.0056874,0.065922,0.025206,-0.0034655,0.019443,-0.018218,0.032715,-0.016665,0.055649,-0.27569,-0.48194,-0.045095,0.0058066,-0.40603,-1.828
0.015561,-0.039676,-0.044037,0.04173,0.02709,-0.058697,-0.017861,0.025946,0.019882,0.016024,0.069196,0.0203,-0.0056905,0.021878,-0.013911,0.029266,-0.0053764,0.069296,-0.24395,-0.42332,-0.013938,-0.012687,-0.38702,-2.0826
-0.0022857,-0.012525,-0.055066,0.042268,0.032639,-0.072484,-0.0074425,0.024213,0.016832,0.021456,0.082668,0.016218,-0.0034501,0.020403,-0.016584,0.025041,0.0026816,0.062104,-0.21415,-0.33741,0.028826,-0.062915,-0.34959,-2.4497
-0.010236,0.018154,-0.047865,0.040507,0.046888,-0.10925,0.0018954,0.026032,0.018314,0.011559,0.092369,0.015049,-0.0013384,0.018813,-0.026093,0.022583,0.0073381,0.047853,-0.19194,-0.23384,0.079707,-0.12951,-0.30554,-2.9067
-0.0031322,0.028498,-0.028561,0.037673,0.058294,-0.14727,-0.0026809,0.03709,0.019856,0.0015195,0.089063,0.016004,-0.0023483,0.017158,-0.037256,0.022949,0.0093547,0.039664,-0.18059,-0.11896,0.1311,-0.19395,-0.26925,-3.393
0.012029,0.013317,-0.013595,0.035707,0.058955,-0.16203,-0.022561,0.057482,0.017142,0.0051138,0.077252,0.01594,-0.0053508,0.012596,-0.044181,0.025244,0.0096806,0.043577,-0.17866,0.0052879,0.1754,-0.24281,-0.24821,-3.8197
0.023006,-0.01164,-0.014882,0.035972,0.050522,-0.14563,-0.046808,0.080377,0.010174,0.020863,0.070843,0.012154,-0.0065299,0.0029585,-0.044766,0.02793,0.0087303,0.057501,-0.1802,0.13666,0.20936,-0.27239,-0.23961,-4.0973
0.023042,-0.025888,-0.029497,0.038125,0.041752,-0.11266,-0.061331,0.095471,0.0035094,0.033237,0.079471,0.0054828,-0.0031995,-0.010812,-0.041941,0.03035,0.0064872,0.075022,-0.17802,0.26616,0.23555,-0.28704,-0.23475,-4.1686
0.015721,-0.022677,-0.043247,0.040482,0.040499,-0.088093,-0.059977,0.0955,0.0024189,0.027392,0.098583,0.00079946,0.0035685,-0.025305,-0.041021,0.032897,0.0032438,0.090688,-0.16814,0.37651,0.25973,-0.29385,-0.22651,-4.0293
0.010207,-0.012771,-0.044314,0.041716,0.047405,-0.087599,-0.048307,0.081298,0.0084237,0.003195,0.11289,0.003734,0.009746,-0.037064,-0.045543,0.035861,6.5079e-005,0.10329,-0.15252,0.44898,0.28607,-0.29833,-0.2133,-3.7257
0.012052,-0.011629,-0.034034,0.042297,0.05639,-0.10669,-0.037723,0.061469,0.018098,-0.024435,0.1101,0.015754,0.011657,-0.044195,-0.054837,0.03852,-0.0016408,0.11571,-0.13752,0.47509,0.31367,-0.30357,-0.19754,-3.334
0.018362,-0.023757,-0.025075,0.044144,0.060596,-0.12631,-0.035862,0.046608,0.025939,-0.038447,0.092108,0.031752,0.0088312,-0.046245,-0.064801,0.039665,-0.0011022,0.1322,-0.12903,0.4641,0.33681,-0.31131,-0.18165,-2.9322
0.02138,-0.03935,-0.029322,0.048757,0.057929,-0.12876,-0.04158,0.042323,0.028489,-0.033319,0.073296,0.042797,0.0041498,-0.043569,-0.07081,0.039059,0.0012647,0.15525,-0.12745,0.43884,0.34846,-0.32223,-0.16603,-2.5768
0.016444,-0.045141,-0.047148,0.055669,0.051553,-0.11012,-0.047803,0.046335,0.026131,-0.01737,0.067918,0.042524,0.001506,-0.03757,-0.070474,0.03812,0.0044137,0.18358,-0.12635,0.4216,0.34464,-0.33478,-0.15024,-2.288
0.0064908,-0.037544,-0.067696,0.062783,0.045897,-0.079936,-0.048344,0.051583,0.021483,-0.0032238,0.078453,0.032201,0.0030792,-0.031417,-0.06465,0.038939,0.0080265,0.21224,-0.11592,0.42021,0.32678,-0.34417,-0.13477,-2.0463
-0.00093975,-0.025096,-0.079013,0.068228,0.042693,-0.050807,-0.042047,0.052355,0.016605,0.0032679,0.095199,0.020114,0.0082016,-0.029422,-0.056737,0.042533,0.013482,0.23446,-0.089029,0.42572,0.30096,-0.34289,-0.12075,-1.8038
-0.00088137,-0.01894,-0.077902,0.071806,0.040804,-0.028382,-0.031373,0.048177,0.011928,0.0053809,0.1063,0.015372,0.014209,-0.034308,-0.051096,0.048129,0.023272,0.2445,-0.045518,0.42396,0.27493,-0.32322,-0.10785,-1.5121
0.0047813,-0.022062,-0.070626,0.074585,0.039223,-0.010156,-0.018412,0.042629,0.0075587,0.0086895,0.1079,0.020992,0.018257,-0.044158,-0.051238,0.054128,0.038789,0.24022,0.007783,0.41171,0.25477,-0.28061,-0.093218,-1.1569
0.0098193,-0.028221,-0.065149,0.077231,0.039367,0.0079319,-0.0033298,0.038908,0.0048711,0.01362,0.10531,0.031907,0.018844,-0.052229,-0.058058,0.059603,0.057921,0.22415,0.060955,0.40343,0.24303,-0.21754,-0.073375,-0.77773
0.010083,-0.030581,-0.06368,0.079044,0.043738,0.025139,0.013237,0.036685,0.0060754,0.015358,0.1055,0.039562,0.016418,-0.050942,-0.068722,0.064641,0.074589,0.202,0.10556,0.422,0.23871,-0.14636,-0.047792,-0.45285
0.0073333,-0.029885,-0.062896,0.078856,0.052252,0.036432,0.027396,0.033049,0.011895,0.010356,0.10972,0.039191,0.013049,-0.037632,-0.077393,0.069181,0.081359,0.17939,0.13673,0.48069,0.23873,-0.088455,-0.020781,-0.25296
0.0068324,-0.03301,-0.060461,0.076785,0.060477,0.038621,0.033246,0.02612,0.019958,0.0013974,0.1133,0.033612,0.01135,-0.017403,-0.078362,0.071752,0.073952,0.15886,0.15217,0.5711,0.23966,-0.066856,0.00044868,-0.19306
0.011396,-0.043672,-0.059614,0.074683,0.06249,0.03497,0.028121,0.017453,0.026123,-0.0049442,0.11178,0.030367,0.012989,-0.00020312,-0.07018,0.069725,0.054577,0.13938,0.15002,0.66738,0.23879,-0.093683,0.010257,-0.22021
0.018083,-0.055911,-0.066008,0.074395,0.0563,0.032958,0.01669,0.010855,0.027932,-0.0058723,0.10575,0.03484,0.01749,0.0061935,-0.057613,0.06112,0.031364,0.11891,0.12846,0.74286,0.23442,-0.16028,0.008057,-0.24969
0.020955,-0.05847,-0.079953,0.075465,0.046588,0.037323,0.0087045,0.0090927,0.026826,-0.0062924,0.099415,0.045407,0.022267,0.0020507,-0.049072,0.046322,0.013892,0.097886,0.088035,0.78529,0.22578,-0.23974,-0.001775,-0.22352
0.017097,-0.046419,-0.093121,0.074932,0.041413,0.04577,0.011149,0.011985,0.026632,-0.013831,0.095095,0.054808,0.024234,-0.0042277,-0.050565,0.028045,0.0077949,0.080317,0.034957,0.79892,0.21306,-0.304,-0.013138,-0.14602
0.0097233,-0.027914,-0.0948,0.070007,0.045161,0.052146,0.021639,0.017705,0.029517,-0.029398,0.090695,0.056398,0.022088,-0.0019569,-0.06063,0.0095646,0.012221,0.071136,-0.018219,0.79409,0.19761,-0.3447,-0.021877,-0.069333
0.0049857,-0.017949,-0.082604,0.061351,0.054006,0.05413,0.029791,0.025561,0.033446,-0.043501,0.083359,0.04973,0.017479,0.014343,-0.070589,-0.0070521,0.021682,0.071801,-0.056506,0.7756,0.18177,-0.38056,-0.027323,-0.043407
0.0055394,-0.024069,-0.066688,0.053509,0.058418,0.057493,0.026247,0.036966,0.033989,-0.043649,0.075081,0.040706,0.013881,0.041168,-0.070441,-0.02106,0.03048,0.078101,-0.069698,0.74044,0.16794,-0.44237,-0.031278,-0.073676
0.0073991,-0.037985,-0.061841,0.051381,0.050999,0.071919,0.011517,0.053418,0.029006,-0.026881,0.073085,0.036483,0.013904,0.06822,-0.056045,-0.031627,0.036215,0.082392,-0.058227,0.68506,0.15717,-0.54442,-0.035928,-0.1202
0.0036189,-0.042167,-0.073776,0.055469,0.03301,0.10163,-0.0035682,0.073728,0.02156,-0.0050871,0.083079,0.03984,0.017293,0.084496,-0.032087,-0.036741,0.040128,0.078634,-0.032978,0.61301,0.14821,-0.66487,-0.042384,-0.13431
-0.0085008,-0.025972,-0.092625,0.060351,0.013877,0.13938,-0.0066181,0.093825,0.017836,0.0033971,0.10172,0.047761,0.021383,0.084023,-0.0087844,-0.034041,0.044794,0.066148,-0.0080981,0.53417,0.13772,-0.75211,-0.050398,-0.097356
-0.023815,0.003956,-0.10068,0.05837,0.0041324,0.16969,0.0060181,0.10987,0.021748,-0.010637,0.11682,0.054841,0.023625,0.068153,0.0047472,-0.023176,0.051562,0.049271,0.0088778,0.4562,0.12176,-0.75466,-0.058643,-0.028299
-0.033292,0.029287,-0.088013,0.045875,0.0078096,0.17893,0.026471,0.12174,0.031327,-0.03882,0.1168,0.057857,0.023776,0.044027,0.0053933,-0.0074171,0.059754,0.033724,0.022583,0.37708,0.097739,-0.65301,-0.065121,0.04164
-0.032118,0.03645,-0.061489,0.026743,0.020395,0.16428,0.042198,0.13317,0.040484,-0.062286,0.10148,0.057334,0.023676,0.020847,-0.0037528,0.0074919,0.067733,0.023013,0.046526,0.28685,0.065759,-0.47038,-0.067973,0.099419
-0.024253,0.028185,-0.038688,0.0098824,0.033278,0.13477,0.04593,0.14773,0.044512,-0.068211,0.083585,0.055413,0.024869,0.0058729,-0.016805,0.016847,0.074457,0.017352,0.092676,0.17752,0.028844,-0.25617,-0.066994,0.15614
-0.018906,0.019322,-0.032211,0.0025515,0.040225,0.1046,0.039977,0.16416,0.044046,-0.060447,0.078419,0.052937,0.026513,0.0016023,-0.028802,0.02014,0.080042,0.014832,0.16111,0.052599,-0.0082351,-0.056756,-0.064906,0.22477
-0.022175,0.021529,-0.039103,0.0049769,0.040503,0.084521,0.032034,0.17537,0.043808,-0.054249,0.090539,0.049018,0.025817,0.0051815,-0.037338,0.021147,0.084966,0.01286,0.23723,-0.072294,-0.040863,0.10415,-0.06644,0.29319
-0.03172,0.032433,-0.045014,0.010701,0.037118,0.077141,0.027541,0.17256,0.047707,-0.060282,0.10952,0.043225,0.020709,0.010608,-0.042097,0.024724,0.08878,0.0087632,0.29872,-0.1777,-0.066262,0.22415,-0.07437,0.32032
-0.039385,0.039689,-0.038541,0.012178,0.033006,0.077989,0.025984,0.15137,0.055363,-0.07357,0.11915,0.037504,0.012123,0.012955,-0.043692,0.032841,0.089604,0.00023957,0.3278,-0.25044,-0.083981,0.30664,-0.084822,0.26162
-0.038963,0.035219,-0.021739,0.0067259,0.029044,0.080014,0.023719,0.11506,0.063395,-0.078241,0.11192,0.03521,0.0034703,0.01216,-0.042767,0.042984,0.085046,-0.013371,0.32042,-0.28816,-0.094888,0.34756,-0.086355,0.10404
-0.031579,0.024696,-0.0070484,-0.0021066,0.024963,0.078212,0.019252,0.072221,0.069693,-0.063383,0.095521,0.03784,-0.0023915,0.0135,-0.039396,0.05001,0.074046,-0.029672,0.28705,-0.29711,-0.099439,0.3357,-0.06553,-0.11809
-0.023912,0.022522,-0.0044043,-0.0085389,0.021167,0.07225,0.015156,0.03109,0.075794,-0.034245,0.085458,0.042866,-0.0057969,0.023791,-0.032661,0.049796,0.058221,-0.043617,0.24491,-0.2877,-0.096709,0.26365,-0.01627,-0.33932
-0.021642,0.03759,-0.011527,-0.010088,0.019008,0.066331,0.0151,-0.0049045,0.084681,-0.0076204,0.090984,0.045266,-0.0098064,0.045684,-0.020834,0.041882,0.041399,-0.050573,0.20773,-0.27247,-0.085305,0.13767,0.054071,-0.49967
-0.024835,0.064521,-0.016615,-0.0097678,0.019359,0.06629,0.019797,-0.036996,0.096356,0.0039167,0.10742,0.041704,-0.016892,0.074316,-0.0026358,0.029448,0.027325,-0.050115,0.17923,-0.26597,-0.065756,-0.022312,0.12762,-0.57538
-0.0294,0.089314,-0.01009,-0.013291,0.021437,0.074913,0.026447,-0.06699,0.10619,0.0029818,0.12173,0.033498,-0.025966,0.09919,0.020845,0.017105,0.017178,-0.047126,0.15389,-0.28274,-0.042512,-0.19167,0.18667,-0.58373
-0.03231,0.10346,0.0066255,-0.023992,0.023514,0.087998,0.03202,-0.093025,0.10827,0.0025048,0.12547,0.025456,-0.032888,0.11025,0.045097,0.0081886,0.0089888,-0.048643,0.12314,-0.33149,-0.023425,-0.35071,0.22422,-0.56203
-0.034701,0.11178,0.023755,-0.039894,0.02489,0.094402,0.036375,-0.10882,0.10073,0.010245,0.12219,0.021666,-0.034287,0.10385,0.063405,0.0031335,-0.00031522,-0.058647,0.08199,-0.40915,-0.016233,-0.4883,0.24626,-0.53862
-0.039656,0.12567,0.033928,-0.055167,0.026884,0.081502,0.041541,-0.10699,0.087548,0.019109,0.12246,0.022229,-0.031171,0.08435,0.070194,-0.00047766,-0.011849,-0.075054,0.031853,-0.50056,-0.023933,-0.59949,0.26459,-0.51706
-0.047331,0.1484,0.039705,-0.064356,0.031517,0.043613,0.048024,-0.083688,0.074951,0.014048,0.13181,0.023946,-0.028598,0.060561,0.06449,-0.006372,-0.023462,-0.091355,-0.021602,-0.58597,-0.042246,-0.68178,0.28673,-0.48198
-0.052992,0.16785,0.050104,-0.06571,0.039042,-0.012104,0.052615,-0.041025,0.065588,-0.010875,0.14389,0.024002,-0.031271,0.039961,0.050945,-0.017213,-0.031592,-0.10132,-0.073093,-0.65123,-0.061349,-0.7341,0.31128,-0.41815
-0.050588,0.16517,0.069674,-0.061207,0.046915,-0.066959,0.0508,0.014568,0.056468,-0.042883,0.14586,0.022727,-0.038929,0.02515,0.037321,-0.032478,-0.034795,-0.10275,-0.12097,-0.69268,-0.071131,-0.75803,0.33162,-0.32522
-0.038749,0.13239,0.09145,-0.054054,0.051526,-0.099378,0.04175,0.07663,0.042709,-0.059427,0.1308,0.022673,-0.045984,0.014562,0.029818,-0.047937,-0.035658,-0.097514,-0.16673,-0.71316,-0.066638,-0.759,0.34343,-0.2159
-0.02329,0.08224,0.10151,-0.046414,0.051284,-0.095902,0.030555,0.1424,0.023401,-0.048208,0.10491,0.025116,-0.046119,0.0059121,0.029373,-0.057556,-0.039026,-0.088756,-0.21154,-0.71352,-0.050108,-0.74585,0.34886,-0.099667
-0.013351,0.039946,0.091585,-0.039282,0.048116,-0.057879,0.02464,0.21314,0.0035666,-0.018881,0.082452,0.027859,-0.037909,-0.0010944,0.03161,-0.057118,-0.047806,-0.078291,-0.25267,-0.68821,-0.028437,-0.72901,0.35427,0.034043
-0.014159,0.023255,0.067863,-0.033855,0.045818,-0.0001261,0.027209,0.29055,-0.010048,0.0058762,0.073152,0.02685,-0.026364,-0.0049607,0.030627,-0.047265,-0.059997,-0.066314,-0.28303,-0.62891,-0.0082001,-0.71777,0.36458,0.21896
-0.022788,0.027971,0.047389,-0.032138,0.0467,0.057027,0.034015,0.37164,-0.015464,0.012345,0.07421,0.020134,-0.018903,-0.0046859,0.02393,-0.033543,-0.069692,-0.052863,-0.29455,-0.53294,0.008034,-0.71638,0.37971,0.49714
-0.030757,0.031899,0.044578,-0.035513,0.049577,0.097244,0.036969,0.4458,-0.017875,0.009874,0.074245,0.010052,-0.019277,-0.0014989,0.01488,-0.023046,-0.071279,-0.038879,-0.28321,-0.40853,0.021654,-0.71972,0.39551,0.89467
-0.031233,0.013806,0.059731,-0.04252,0.050912,0.11428,0.031445,0.49694,-0.025385,0.022879,0.065095,0.0012238,-0.024824,0.0017112,0.010649,-0.019923,-0.063265,-0.025712,-0.25236,-0.27283,0.034845,-0.71181,0.40742,1.4024
-0.024484,-0.029051,0.079586,-0.048549,0.047916,0.11256,0.020321,0.51057,-0.041832,0.067335,0.050098,-0.0038552,-0.029221,0.0025565,0.017039,-0.023065,-0.048663,-0.014042,-0.21159,-0.14504,0.047352,-0.67113,0.41291,1.9723
-0.016874,-0.079577,0.089154,-0.048649,0.040722,0.10332,0.010845,0.48218,-0.063258,0.13344,0.041289,-0.0071777,-0.027889,0.00068227,0.03384,-0.02757,-0.032133,-0.003841,-0.17158,-0.040443,0.055979,-0.58285,0.41157,2.5321
-0.014558,-0.11584,0.084142,-0.041577,0.031916,0.098595,0.0074613,0.42174,-0.081117,0.19094,0.048606,-0.012962,-0.02107,-0.002728,0.054144,-0.028498,-0.016894,0.0043223,-0.13824,0.031446,0.057158,-0.45112,0.40384,3.0092
-0.017832,-0.12858,0.073298,-0.031413,0.024313,0.1055,0.007812,0.3505,-0.089111,0.21291,0.071285,-0.022807,-0.012232,-0.0067068,0.068207,-0.023809,-0.0041061,0.0083069,-0.11025,0.066348,0.050137,-0.30139,0.39062,3.3553
-0.021247,-0.12634,0.069501,-0.024734,0.019268,0.12276,0.0058151,0.29144,-0.087494,0.19685,0.098772,-0.033143,-0.0040755,-0.011516,0.069254,-0.014491,0.0054517,0.0055051,-0.081947,0.06557,0.037844,-0.16846,0.37337,3.5577
-0.01905,-0.1252,0.078334,-0.025258,0.01666,0.14099,-0.001542,0.25835,-0.081546,0.16479,0.11931,-0.037888,0.0036048,-0.017839,0.057333,-0.0026644,0.0099551,-0.0042388,-0.049637,0.037525,0.024556,-0.076813,0.35348,3.6365
-0.010514,-0.13374,0.09417,-0.030431,0.015712,0.14759,-0.010935,0.25055,-0.07648,0.14335,0.12793,-0.034162,0.012337,-0.025154,0.038769,0.010077,0.0073473,-0.016473,-0.016469,-0.0025913,0.012406,-0.027635,0.33038,3.6288
-8.3672e-005,-0.14686,0.10607,-0.03312,0.015221,0.13434,-0.016511,0.25589,-0.07384,0.14225,0.12759,-0.025646,0.02193,-0.031284,0.021853,0.022715,-0.0023063,-0.023386,0.0080677,-0.03728,-0.00012146,-0.0020485,0.30017,3.57
0.0074813,-0.15255,0.10696,-0.027237,0.013165,0.10348,-0.016805,0.25984,-0.072148,0.14985,0.12429,-0.020067,0.029643,-0.03398,0.011821,0.034037,-0.015538,-0.018446,0.014317,-0.053419,-0.016336,0.022788,0.25699,3.4839
0.011839,-0.14413,0.097739,-0.012595,0.0069824,0.067689,-0.017254,0.25379,-0.069987,0.14733,0.122,-0.022707,0.032685,-0.033089,0.0084359,0.042665,-0.026961,-0.0011953,0.00011129,-0.046158,-0.037814,0.059241,0.19686,3.3811
0.016834,-0.12611,0.084153,0.0050723,-0.0046869,0.042882,-0.025155,0.23733,-0.06771,0.12645,0.12171,-0.031694,0.031329,-0.030961,0.0074577,0.048211,-0.03248,0.021802,-0.025716,-0.016968,-0.062394,0.10868,0.12125,3.2653
0.025667,-0.10955,0.071032,0.018798,-0.020033,0.038042,-0.041776,0.21398,-0.066227,0.094264,0.12319,-0.039393,0.029107,-0.030279,0.0045563,0.052071,-0.031486,0.041159,-0.046855,0.031755,-0.085474,0.17321,0.03693,3.1365
0.036628,-0.10255,0.059803,0.025603,-0.034183,0.049416,-0.059735,0.1853,-0.064968,0.062354,0.12591,-0.038705,0.029528,-0.031159,-0.0013478,0.056424,-0.026362,0.051087,-0.047975,0.099787,-0.10334,0.26509,-0.047963,2.9913
0.044052,-0.10481,0.050184,0.027868,-0.04221,0.063657,-0.068856,0.14884,-0.062023,0.033395,0.12751,-0.028725,0.032558,-0.030475,-0.0076726,0.061923,-0.020134,0.053041,-0.022486,0.18642,-0.11552,0.40032,-0.12824,2.8204
0.043746,-0.10988,0.042365,0.030103,-0.042988,0.06787,-0.065314,0.10171,-0.05672,-0.00067116,0.12271,-0.014943,0.03457,-0.02446,-0.010737,0.066419,-0.014479,0.053581,0.025448,0.2846,-0.12409,0.57836,-0.2027,2.6121
0.037347,-0.11078,0.036502,0.034431,-0.040496,0.058891,-0.055278,0.045914,-0.051682,-0.047652,0.10575,-0.004269,0.032066,-0.012514,-0.0091015,0.066377,-0.0093968,0.058175,0.08539,0.37834,-0.13106,0.76578,-0.27127,2.3603
0.030957,-0.10325,0.03078,0.038945,-0.041027,0.044493,-0.049378,-0.010126,-0.05148,-0.10355,0.07561,0.00033476,0.025552,0.0012988,-0.0050003,0.060031,-0.0040144,0.066148,0.14773,0.44746,-0.13637,0.90293,-0.33148,2.0702
0.02918,-0.085253,0.021789,0.040092,-0.048315,0.035689,-0.05316,-0.056019,-0.058524,-0.15298,0.038757,0.00093857,0.019577,0.010694,-0.0028198,0.049366,0.0027114,0.071171,0.20805,0.47741,-0.13855,0.9351,-0.37801,1.7541
0.030588,-0.056262,0.0082125,0.036505,-0.060602,0.036677,-0.062663,-0.086536,-0.07013,-0.18142,0.005517,0.001162,0.018638,0.011704,-0.0059468,0.038908,0.011682,0.067013,0.26609,0.46723,-0.13693,0.84838,-0.40574,1.4191
0.029441,-0.019006,-0.0059374,0.030546,-0.072137,0.041032,-0.069295,-0.10533,-0.080044,-0.18644,-0.018018,0.0020602,0.022785,0.0055259,-0.014539,0.032332,0.02311,0.053662,0.32133,0.42958,-0.13298,0.68256,-0.41329,1.0577
0.022167,0.018631,-0.013105,0.026255,-0.077847,0.037506,-0.069065,-0.12201,-0.083432,-0.17664,-0.035367,0.0014732,0.02721,-0.002601,-0.025827,0.030002,0.035564,0.038394,0.36973,0.38301,-0.12903,0.50822,-0.40367,0.6517
0.011987,0.046133,-0.0086407,0.025816,-0.077225,0.020518,-0.066848,-0.14505,-0.080685,-0.15996,-0.056614,-0.0028438,0.026368,-0.0073354,-0.036353,0.02961,0.045688,0.030591,0.40496,0.34231,-0.12549,0.3817,-0.3814,0.18884
0.0065794,0.057644,0.0040393,0.027934,-0.074304,-0.0038648,-0.071176,-0.17656,-0.076256,-0.13474,-0.088816,-0.0098016,0.018838,-0.0065661,-0.044037,0.029047,0.049833,0.034532,0.42294,0.31331,-0.11946,0.3098,-0.34941,-0.32389
0.010612,0.057872,0.015314,0.02951,-0.074053,-0.021972,-0.084513,-0.21275,-0.073547,-0.093907,-0.12851,-0.014925,0.0084577,-0.0016215,-0.048432,0.028522,0.047103,0.046255,0.42564,0.29452,-0.10635,0.25048,-0.30859,-0.86408
0.020483,0.059598,0.017348,0.028864,-0.07856,-0.023502,-0.098867,-0.24887,-0.070905,-0.038211,-0.16388,-0.013866,0.00077508,0.0051432,-0.049449,0.029811,0.04127,0.057131,0.4205,0.28237,-0.083557,0.14979,-0.26037,-1.4148
0.026872,0.073094,0.010836,0.027372,-0.08619,-0.010154,-0.10192,-0.2832,-0.062915,0.016843,-0.18545,-0.0061188,-0.0017868,0.012663,-0.046316,0.033533,0.039163,0.061065,0.41573,0.27482,-0.053255,-0.01239,-0.20918,-1.983
0.023136,0.096525,0.0037889,0.028025,-0.093915,0.0054205,-0.088668,-0.31665,-0.046047,0.050316,-0.19575,0.0046093,-0.0016369,0.021235,-0.038206,0.037377,0.045942,0.059247,0.41548,0.27054,-0.021796,-0.20298,-0.16182,-2.5932
0.011597,0.11701,0.0033586,0.032357,-0.10014,0.0093306,-0.067781,-0.34906,-0.023224,0.054561,-0.20836,0.013706,-0.0032636,0.030776,-0.026029,0.037381,0.060736,0.058709,0.41854,0.26552,0.0036621,-0.3582,-0.12401,-3.2545
0.0014857,0.12251,0.0087344,0.038633,-0.1053,-0.003577,-0.055969,-0.37684,-0.0026464,0.044872,-0.23612,0.019516,-0.0088129,0.039579,-0.013354,0.03132,0.07646,0.066313,0.42154,0.2517,0.01889,-0.43069,-0.097257,-3.9251
0.00031746,0.11369,0.01229,0.042983,-0.11017,-0.027621,-0.064659,-0.39489,0.0084497,0.048407,-0.27878,0.024271,-0.016109,0.045171,-0.0048826,0.02109,0.084462,0.083385,0.42362,0.22048,0.024086,-0.42399,-0.079091,-4.5074
0.0068842,0.10389,0.0079023,0.042415,-0.11422,-0.052783,-0.090467,-0.40093,0.0094631,0.080526,-0.32157,0.031494,-0.020736,0.046385,-0.0031619,0.011664,0.080672,0.10511,0.42898,0.16993,0.022569,-0.38647,-0.065993,-4.8848
0.012569,0.10643,-0.0019772,0.037069,-0.11606,-0.073046,-0.11792,-0.39746,0.0063173,0.13,-0.34681,0.042512,-0.020034,0.04423,-0.0062576,0.0073528,0.068594,0.12448,0.44569,0.11035,0.018111,-0.36971,-0.056009,-4.9788
0.0096177,0.12092,-0.0078796,0.029843,-0.11539,-0.089192,-0.13207,-0.3885,0.0057284,0.1674,-0.34839,0.055301,-0.015322,0.04036,-0.0088321,0.0085819,0.056904,0.13708,0.4818,0.063202,0.013,-0.38584,-0.048362,-4.7854
-0.0016518,0.13259,-0.002329,0.023947,-0.11394,-0.1049,-0.12996,-0.37412,0.0093021,0.16952,-0.3362,0.066455,-0.01054,0.034744,-0.0063599,0.012037,0.053596,0.14311,0.54136,0.052305,0.0079335,-0.39955,-0.041012,-4.3651
-0.013489,0.12601,0.012414,0.0206,-0.11378,-0.12141,-0.12137,-0.34901,0.012987,0.13727,-0.32657,0.074168,-0.0088433,0.025507,0.00074103,0.013936,0.060947,0.1459,0.62204,0.091855,0.0032867,-0.36126,-0.029571,-3.8012
-0.01823,0.10077,0.025581,0.018757,-0.11468,-0.13625,-0.11913,-0.30823,0.012191,0.091332,-0.32768,0.079423,-0.010412,0.011873,0.0067581,0.013373,0.074595,0.14907,0.71533,0.17854,0.00036943,-0.25292,-0.0097459,-3.1619
-0.015184,0.073609,0.027154,0.016735,-0.11335,-0.14628,-0.12813,-0.25651,0.0073735,0.051235,-0.33348,0.084587,-0.013276,-0.0024495,0.0050142,0.012662,0.086804,0.15474,0.80913,0.29323,0.0015239,-0.10689,0.018403,-2.4952
-0.010412,0.064099,0.016422,0.014033,-0.10611,-0.15041,-0.14239,-0.21233,0.0044375,0.019508,-0.33114,0.091002,-0.015918,-0.0095802,-0.0061846,0.014512,0.091345,0.16369,0.89232,0.41156,0.0089551,0.018183,0.048639,-1.8484
-0.010223,0.076991,0.0018037,0.011657,-0.092676,-0.14853,-0.15166,-0.20092,0.0093021,-0.013706,-0.31425,0.097855,-0.018693,-0.0027493,-0.020823,0.018836,0.086899,0.17626,0.95968,0.51696,0.023195,0.083791,0.071732,-1.2794
-0.015248,0.097988,-0.0076415,0.010882,-0.077384,-0.13859,-0.15018,-0.23937,0.021764,-0.051686,-0.28875,0.10308,-0.02248,0.017188,-0.028366,0.022348,0.077345,0.19245,1.0142,0.60773,0.042377,0.10016,0.08165,-0.83751
-0.020894,0.10743,-0.010603,0.0118,-0.06595,-0.11675,-0.13984,-0.32432,0.034657,-0.079171,-0.26646,0.10509,-0.026137,0.040081,-0.020988,0.02142,0.069208,0.21082,1.0648,0.69369,0.062906,0.11303,0.07969,-0.52791
-0.023072,0.099159,-0.013588,0.013031,-0.060504,-0.082327,-0.12584,-0.43207,0.039462,-0.071834,-0.2532,0.10369,-0.026031,0.052448,0.00039147,0.015568,0.067852,0.22746,1.1194,0.78538,0.081147,0.161,0.072979,-0.29807
-0.022738,0.086511,-0.022654,0.012779,-0.057374,-0.042964,-0.11047,-0.532,0.033457,-0.019414,-0.24393,0.099515,-0.019076,0.047254,0.025924,0.008277,0.074445,0.23657,1.1782,0.88339,0.095127,0.241,0.068656,-0.06818
-0.024306,0.089458,-0.035079,0.010193,-0.050032,-0.012928,-0.091379,-0.60383,0.021972,0.060418,-0.22935,0.093049,-0.0068057,0.02954,0.042899,0.0042948,0.085272,0.2333,1.2325,0.97521,0.10531,0.31158,0.068809,0.21297
-0.029725,0.11486,-0.039653,0.0059148,-0.034923,-0.0033088,-0.065416,-0.64671,0.01373,0.13272,-0.20694,0.084238,0.0039551,0.01264,0.043839,0.0057177,0.09388,0.21714,1.2698,1.0412,0.11412,0.32966,0.070382,0.53284
-0.034827,0.14872,-0.026164,0.00156,-0.015109,-0.01126,-0.03343,-0.67464,0.01353,0.17227,-0.18467,0.073142,0.005655,0.0074616,0.030848,0.010262,0.094946,0.19335,1.2822,1.0651,0.12462,0.2875,0.069561,0.83071
-0.032375,0.16799,0.0043528,-0.0012812,0.0016165,-0.018556,-0.00070703,-0.70283,0.018794,0.18225,-0.17318,0.060801,-0.0034742,0.013566,0.013265,0.013163,0.087501,0.17045,1.2707,1.0425,0.13879,0.21733,0.066146,1.0492
-0.019276,0.16096,0.038396,-0.0018194,0.0087192,-0.0029781,0.027243,-0.73546,0.022802,0.18758,-0.17425,0.049418,-0.016988,0.019689,0.00063603,0.011018,0.075338,0.15512,1.2422,0.98228,0.15626,0.16117,0.063744,1.1753
-0.00073242,0.13689,0.059721,-0.00032371,0.0060272,0.04516,0.04895,-0.76245,0.021249,0.20936,-0.17769,0.041613,-0.024875,0.013487,-0.0036503,0.0043555,0.064258,0.14793,1.2011,0.90209,0.17371,0.13443,0.065848,1.2381
0.013245,0.11576,0.061843,0.0021007,-0.00025841,0.11449,0.066815,-0.76591,0.015864,0.24475,-0.17063,0.039315,-0.021815,-0.0077171,-0.0035172,-0.0030144,0.058109,0.14355,1.1446,0.82086,0.18547,0.11659,0.07184,1.271
0.016169,0.10811,0.052365,0.0041254,-0.0024843,0.17943,0.082899,-0.73059,0.011798,0.27074,-0.15082,0.043008,-0.011785,-0.034343,-0.0058422,-0.0070434,0.056497,0.13561,1.0654,0.752,0.18516,0.076111,0.076859,1.2804
0.010569,0.10466,0.045413,0.0050255,0.0028129,0.21717,0.095476,-0.65193,0.011473,0.26703,-0.1307,0.051587,-0.0045992,-0.052235,-0.014463,-0.0062616,0.055668,0.12252,0.96079,0.69976,0.168,0.0043235,0.075664,1.2505
0.00551,0.08575,0.04919,0.0052466,0.013034,0.22163,0.10038,-0.53809,0.011056,0.23576,-0.12736,0.062614,-0.0071864,-0.053934,-0.027283,-0.0022477,0.051541,0.10948,0.83982,0.65925,0.1327,-0.075106,0.066898,1.1762
0.0084773,0.041772,0.059846,0.0061168,0.022435,0.20411,0.096008,-0.4059,0.003345,0.19934,-0.14696,0.072808,-0.01731,-0.044036,-0.038329,0.002223,0.042357,0.10458,0.72093,0.62004,0.082188,-0.13105,0.054021,1.086
0.01912,-0.015416,0.066653,0.0086523,0.026896,0.18224,0.086623,-0.27353,-0.01521,0.17973,-0.17806,0.078853,-0.025333,-0.034627,-0.042598,0.0055078,0.029115,0.11176,0.62159,0.5719,0.022636,-0.16045,0.042493,1.0302
0.030293,-0.06137,0.062774,0.01236,0.026554,0.16759,0.080021,-0.1532,-0.039785,0.17948,-0.20056,0.078622,-0.022433,-0.035388,-0.039729,0.0079825,0.014101,0.12621,0.54716,0.51056,-0.038762,-0.19889,0.036054,1.0409
0.034892,-0.080091,0.051136,0.015293,0.024711,0.16163,0.081354,-0.047374,-0.059559,0.18212,-0.20219,0.072399,-0.0080311,-0.046899,-0.033965,0.011048,-0.00079009,0.13599,0.48791,0.44014,-0.096174,-0.29222,0.03527,1.1033
0.031877,-0.077292,0.040306,0.015657,0.024717,0.16041,0.089124,0.0495,-0.065771,0.17013,-0.18792,0.063118,0.0098673,-0.061937,-0.030902,0.015442,-0.014602,0.1291,0.42628,0.37054,-0.14668,-0.45223,0.038815,1.1637
0.026348,-0.073567,0.035383,0.013704,0.027779,0.16081,0.097422,0.14463,-0.05872,0.14201,-0.17393,0.054904,0.021307,-0.07224,-0.033623,0.020452,-0.026929,0.10121,0.34839,0.31105,-0.19035,-0.63653,0.045331,1.1687
0.024409,-0.084548,0.033466,0.011985,0.033127,0.16164,0.10214,0.23983,-0.047563,0.11237,-0.17252,0.050472,0.022038,-0.074243,-0.040743,0.024612,-0.037617,0.058709,0.25137,0.26426,-0.22905,-0.7738,0.053589,1.103
0.028103,-0.10735,0.027982,0.013398,0.039491,0.16051,0.10466,0.32856,-0.04282,0.096094,-0.18206,0.049184,0.015919,-0.069627,-0.047399,0.02706,-0.047008,0.014974,0.14231,0.22469,-0.2646,-0.81634,0.061026,0.99594
0.034726,-0.12578,0.016742,0.018578,0.046013,0.15237,0.10902,0.39934,-0.047832,0.093149,-0.19059,0.04752,0.010801,-0.062014,-0.048432,0.028184,-0.056135,-0.017518,0.03175,0.18317,-0.29709,-0.77618,0.062863,0.89785
0.040157,-0.12799,0.0049258,0.025101,0.051871,0.13336,0.11571,0.44321,-0.056372,0.088738,-0.18821,0.04192,0.012022,-0.054001,-0.041881,0.02896,-0.066086,-0.034226,-0.072411,0.13378,-0.32424,-0.71413,0.053755,0.84913
0.042365,-0.11824,-0.00011345,0.029464,0.055689,0.10627,0.11911,0.45989,-0.058259,0.067799,-0.17559,0.031864,0.018971,-0.04689,-0.03063,0.029694,-0.076789,-0.040356,-0.1668,0.077717,-0.34195,-0.69048,0.031331,0.86575
0.041983,-0.1114,0.0034749,0.030141,0.056078,0.08041,0.1122,0.45789,-0.048013,0.029238,-0.16083,0.02054,0.026819,-0.041837,-0.020886,0.029523,-0.086451,-0.04655,-0.25124,0.02097,-0.34579,-0.71891,-0.0013339,0.94445
0.040359,-0.11657,0.010163,0.02885,0.053141,0.063896,0.094596,0.4486,-0.029242,-0.013526,-0.14895,0.01241,0.031039,-0.039862,-0.018151,0.027271,-0.09257,-0.061447,-0.32715,-0.032134,-0.33295,-0.76111,-0.036868,1.0736
0.037824,-0.1274,0.012889,0.028762,0.049252,0.054734,0.075151,0.43887,-0.011408,-0.045087,-0.13567,0.0096795,0.03058,-0.040341,-0.023325,0.022906,-0.093954,-0.086025,-0.39725,-0.083705,-0.30375,-0.76378,-0.067931,1.2359
0.034019,-0.12918,0.010199,0.031313,0.047623,0.040287,0.065695,0.42767,-0.0022506,-0.060837,-0.112,0.010738,0.027515,-0.040095,-0.031926,0.018091,-0.092017,-0.11343,-0.46527,-0.14086,-0.26197,-0.70401,-0.091179,1.4047
0.029461,-0.11513,0.0068957,0.034751,0.049403,0.007416,0.070899,0.40944,-0.0024047,-0.068247,-0.074823,0.011852,0.024324,-0.034993,-0.037244,0.015134,-0.090058,-0.13437,-0.5345,-0.20885,-0.21363,-0.60431,-0.10729,1.5425
0.026099,-0.094584,0.0074953,0.035875,0.051947,-0.04496,0.08412,0.38116,-0.0062069,-0.077246,-0.032442,0.010488,0.021793,-0.023308,-0.035081,0.015213,-0.090989,-0.14412,-0.60536,-0.28444,-0.16474,-0.50776,-0.11684,1.6123
0.0258,-0.083954,0.0098085,0.033346,0.050412,-0.1028,0.093816,0.34798,-0.0070885,-0.090724,0.0011729,0.0072234,0.019309,-0.007879,-0.026354,0.017569,-0.095357,-0.14625,-0.67423,-0.35555,-0.11905,-0.43883,-0.11587,1.5926
0.028111,-0.089176,0.0061904,0.029225,0.041885,-0.14743,0.094822,0.32244,-0.0024456,-0.10464,0.018016,0.0046923,0.0168,0.0050812,-0.015657,0.020521,-0.10128,-0.15004,-0.73488,-0.40804,-0.077234,-0.38554,-0.09569,1.4864
0.029665,-0.097892,-0.0079863,0.027081,0.028515,-0.17127,0.093522,0.31781,0.0057386,-0.11606,0.022435,0.0047758,0.015952,0.0097965,-0.0074375,0.023326,-0.10615,-0.16357,-0.78144,-0.43494,-0.037932,-0.31648,-0.048216,1.317
0.026315,-0.090345,-0.027183,0.028379,0.016471,-0.18496,0.1013,0.33937,0.013917,-0.12892,0.026234,0.0067104,0.01919,0.0044402,-0.0032862,0.02692,-0.10853,-0.18754,-0.8104,-0.44108,0.00010983,-0.21423,0.02697,1.116
0.016575,-0.059354,-0.038051,0.030766,0.011103,-0.2094,0.12201,0.37971,0.020097,-0.1502,0.037618,0.0076557,0.027174,-0.0081403,-0.0023973,0.032653,-0.10857,-0.21454,-0.82042,-0.43972,0.036413,-0.093672,0.1194,0.91351
0.0035537,-0.019932,-0.030484,0.030234,0.012296,-0.25936,0.14564,0.4211,0.02439,-0.18051,0.054898,0.0048919,0.03722,-0.022672,-0.0040075,0.040163,-0.10697,-0.23417,-0.8109,-0.44415,0.068802,0.0098883,0.21115,0.73501
-0.0064885,0.0017559,-0.0076178,0.025311,0.014223,-0.33264,0.15503,0.44392,0.027461,-0.20994,0.07064,-0.0024615,0.04444,-0.034801,-0.0089139,0.046693,-0.10379,-0.24035,-0.78145,-0.46074,0.094929,0.070375,0.28452,0.60108
-0.0082258,-0.0091787,0.014987,0.019211,0.010025,-0.41355,0.14041,0.43622,0.029335,-0.2255,0.081076,-0.013499,0.04502,-0.04327,-0.018542,0.048911,-0.098282,-0.23527,-0.73332,-0.4885,0.11391,0.091215,0.32894,0.52361
-0.0010847,-0.042955,0.021276,0.017502,-0.0025017,-0.48607,0.10828,0.39878,0.029916,-0.22387,0.090341,-0.026829,0.039027,-0.049776,-0.032818,0.045833,-0.090099,-0.22707,-0.67149,-0.52463,0.12667,0.099745,0.34331,0.50097
0.010134,-0.073167,0.0077427,0.023118,-0.019146,-0.5438,0.076171,0.34278,0.030126,-0.21652,0.10485,-0.041626,0.030335,-0.056875,-0.049313,0.040048,-0.080351,-0.22338,-0.60549,-0.57025,0.13476,0.12263,0.33383,0.51889
0.018427,-0.078952,-0.013885,0.0333,-0.032963,-0.58748,0.057284,0.28177,0.031696,-0.22048,0.12396,-0.057588,0.023548,-0.065415,-0.064614,0.035793,-0.071477,-0.22535,-0.54736,-0.63066,0.1385,0.16429,0.30984,0.56017
0.019264,-0.061266,-0.02682,0.041581,-0.040044,-0.6136,0.049111,0.22352,0.035378,-0.24241,0.13755,-0.074238,0.020363,-0.073133,-0.076456,0.035297,-0.065849,-0.22695,-0.50752,-0.70843,0.13601,0.20542,0.27952,0.61551
0.013313,-0.039246,-0.02338,0.043279,-0.042171,-0.60697,0.036435,0.16743,0.039584,-0.27108,0.13444,-0.090662,0.018332,-0.075457,-0.084465,0.036614,-0.064274,-0.21962,-0.49026,-0.7946,0.12375,0.22083,0.24624,0.68302
0.0053223,-0.031272,-0.010824,0.039587,-0.044034,-0.54728,0.0061308,0.10891,0.041442,-0.28642,0.11394,-0.10613,0.013106,-0.068198,-0.088947,0.035092,-0.0656,-0.19887,-0.49146,-0.86536,0.098461,0.20086,0.20628,0.75361
0.00026179,-0.038822,-0.0040693,0.036411,-0.047764,-0.42639,-0.039863,0.046844,0.03969,-0.27779,0.088649,-0.12097,0.0024078,-0.050613,-0.089321,0.027424,-0.067591,-0.16777,-0.4999,-0.88921,0.059368,0.16008,0.1501,0.79508
-0.00016063,-0.047241,-0.012144,0.038922,-0.050041,-0.2619,-0.085255,-0.012693,0.036417,-0.25485,0.074688,-0.13662,-0.011416,-0.026891,-0.084128,0.014928,-0.068224,-0.13474,-0.50215,-0.84205,0.0094815,0.12797,0.068475,0.7536
0.001909,-0.040896,-0.030421,0.046703,-0.044681,-0.093896,-0.11292,-0.060007,0.035345,-0.24069,0.077821,-0.15439,-0.022386,-0.0049169,-0.072865,0.00324,-0.066458,-0.10771,-0.48908,-0.72184,-0.044838,0.12958,-0.038761,0.57855
0.0027636,-0.017188,-0.045034,0.053931,-0.028489,0.035252,-0.11875,-0.090236,0.037836,-0.25324,0.088779,-0.17399,-0.024831,0.0072878,-0.057912,-0.0014182,-0.062216,-0.089247,-0.46033,-0.55311,-0.096157,0.16961,-0.15766,0.25458
0.0001596,0.013282,-0.044829,0.054407,-0.0050238,0.10389,-0.11359,-0.10942,0.040641,-0.29118,0.092355,-0.19306,-0.017426,0.0055714,-0.044447,0.0035298,-0.056014,-0.076501,-0.42369,-0.37784,-0.13915,0.2294,-0.26457,-0.18476
-0.0051947,0.038488,-0.030015,0.046884,0.01733,0.12044,-0.11268,-0.13237,0.038236,-0.33581,0.081569,-0.20856,-0.004363,-0.0081817,-0.037822,0.015475,-0.048798,-0.06528,-0.38931,-0.23693,-0.17297,0.27737,-0.33928,-0.67433
-0.010342,0.055458,-0.010538,0.035999,0.031517,0.11322,-0.1232,-0.17312,0.028204,-0.36543,0.063374,-0.2191,0.0072857,-0.027137,-0.040068,0.028657,-0.042008,-0.054196,-0.3622,-0.15277,-0.20112,0.28493,-0.37821,-1.153
-0.011998,0.069174,0.0030613,0.028228,0.036913,0.10992,-0.14101,-0.23495,0.01466,-0.3685,0.050815,-0.22627,0.01218,-0.043375,-0.048152,0.037913,-0.037526,-0.044925,-0.33839,-0.12221,-0.22857,0.2374,-0.39706,-1.5906
-0.0083365,0.082814,0.0073096,0.026739,0.039094,0.1219,-0.15792,-0.30785,0.0059575,-0.34547,0.049958,-0.23372,0.010061,-0.052241,-0.055665,0.041288,-0.037149,-0.038582,-0.30794,-0.12294,-0.25787,0.13429,-0.41961,-1.9882
0.00010674,0.091443,0.0057179,0.029695,0.044633,0.14254,-0.17073,-0.37512,0.008156,-0.30165,0.054708,-0.24451,0.0054936,-0.05439,-0.057195,0.039994,-0.041674,-0.032289,-0.26276,-0.12851,-0.28703,-0.018245,-0.4602,-2.3565
0.01056,0.086781,0.0028443,0.033016,0.055537,0.15706,-0.18304,-0.42386,0.019939,-0.2416,0.054303,-0.25869,0.0042908,-0.05419,-0.052463,0.036386,-0.050066,-0.020073,-0.20302,-0.12254,-0.31117,-0.21407,-0.51348,-2.6922
0.019197,0.067871,-0.00041494,0.034473,0.067831,0.15354,-0.1996,-0.45105,0.033648,-0.17121,0.045419,-0.27316,0.0092928,-0.055772,-0.046989,0.031915,-0.05933,0.0020404,-0.13653,-0.1042,-0.32682,-0.44591,-0.5598,-2.9707
0.02315,0.045207,-0.0057964,0.035179,0.074944,0.12782,-0.22053,-0.46146,0.041544,-0.10295,0.036462,-0.28366,0.018514,-0.059804,-0.048215,0.026585,-0.065392,0.031434,-0.071228,-0.082933,-0.33568,-0.69773,-0.58214,-3.1546
0.022441,0.032426,-0.013312,0.037484,0.072526,0.082131,-0.24188,-0.46041,0.041611,-0.054434,0.039839,-0.28744,0.026816,-0.06344,-0.059502,0.019956,-0.064766,0.059744,-0.0070264,-0.067232,-0.34437,-0.93952,-0.58133,-3.2125
0.020264,0.033242,-0.01954,0.041939,0.060722,0.022322,-0.26112,-0.44842,0.037832,-0.037584,0.060138,-0.28469,0.02965,-0.063265,-0.076594,0.012538,-0.056217,0.079188,0.065151,-0.05603,-0.3601,-1.1328,-0.57738,-3.1379
0.02077,0.037334,-0.021053,0.046546,0.042823,-0.043208,-0.28033,-0.42206,0.035278,-0.047162,0.089971,-0.27819,0.026062,-0.058599,-0.08982,0.0062786,-0.041408,0.088961,0.1553,-0.039143,-0.38532,-1.2455,-0.59562,-2.9654
0.025498,0.030442,-0.019042,0.048807,0.022443,-0.10404,-0.30291,-0.37941,0.03518,-0.061188,0.11723,-0.27169,0.019018,-0.052356,-0.091043,0.0036488,-0.024039,0.095593,0.26329,-0.0063838,-0.41563,-1.2656,-0.64789,-2.7769
0.031335,0.0091783,-0.019153,0.048109,0.001998,-0.15039,-0.3273,-0.32451,0.034762,-0.056078,0.13617,-0.26798,0.013153,-0.048925,-0.080246,0.0059741,-0.0079107,0.10645,0.37446,0.041919,-0.44246,-1.203,-0.7225,-2.6881
0.032306,-0.014585,-0.025571,0.045881,-0.016783,-0.17743,-0.34533,-0.26644,0.031528,-0.024964,0.15122,-0.26743,0.011813,-0.050991,-0.066431,0.012257,0.0048373,0.12205,0.46666,0.09194,-0.45842,-1.0772,-0.78989,-2.8062
0.024443,-0.024964,-0.035238,0.043622,-0.031854,-0.18766,-0.34786,-0.21434,0.027208,0.01716,0.1702,-0.26744,0.01532,-0.057852,-0.061724,0.019495,0.014207,0.13453,0.52368,0.12426,-0.46105,-0.90389,-0.81951,-3.175
0.0099381,-0.018297,-0.03911,0.041272,-0.041027,-0.18815,-0.33238,-0.17279,0.027046,0.047224,0.1942,-0.26341,0.021258,-0.066283,-0.072999,0.024437,0.021402,0.13428,0.54441,0.12709,-0.45271,-0.69034,-0.79607,-3.739
-0.0032792,-0.0080476,-0.030653,0.037899,-0.043283,-0.18463,-0.3046,-0.14193,0.034969,0.055423,0.21445,-0.2513,0.026209,-0.073001,-0.09736,0.025599,0.027454,0.11941,0.5403,0.10426,-0.43738,-0.44435,-0.72511,-4.3591
-0.0068988,-0.012839,-0.01385,0.033895,-0.039755,-0.17757,-0.27255,-0.1215,0.049433,0.054987,0.21983,-0.23057,0.02773,-0.0769,-0.12461,0.024038,0.032561,0.099548,0.52382,0.071314,-0.41769,-0.18555,-0.62582,-4.8765
0.0014967,-0.038858,-0.0021419,0.031914,-0.033309,-0.16405,-0.23956,-0.1147,0.064113,0.070759,0.20783,-0.2054,0.025498,-0.07967,-0.14434,0.022313,0.036471,0.089944,0.49857,0.042787,-0.39454,0.05386,-0.51802,-5.1852
0.016434,-0.073745,-0.0078483,0.034953,-0.02724,-0.14337,-0.20375,-0.12779,0.072894,0.1158,0.18844,-0.18262,0.021174,-0.084465,-0.15192,0.022518,0.03913,0.099959,0.45985,0.021154,-0.36895,0.24242,-0.41248,-5.2618
0.028708,-0.098021,-0.031073,0.043082,-0.024394,-0.1202,-0.16435,-0.16534,0.074521,0.17672,0.17712,-0.16706,0.017133,-0.09323,-0.14963,0.025002,0.040685,0.12522,0.40464,-0.0033084,-0.34364,0.36628,-0.31011,-5.1365
0.032398,-0.1029,-0.05854,0.052168,-0.027141,-0.10158,-0.12733,-0.22484,0.07274,0.2215,0.18263,-0.15784,0.014813,-0.10418,-0.14304,0.02864,0.040774,0.15002,0.34076,-0.042064,-0.32259,0.4349,-0.20811,-4.8378
0.029002,-0.097218,-0.074135,0.056419,-0.037219,-0.090148,-0.10311,-0.29537,0.072171,0.22432,0.20056,-0.14859,0.013719,-0.11143,-0.13668,0.032062,0.038076,0.15847,0.28543,-0.09665,-0.30854,0.46987,-0.10648,-4.3633
0.025451,-0.097252,-0.072093,0.052969,-0.054419,-0.080556,-0.097454,-0.36166,0.074064,0.18659,0.2179,-0.13199,0.011836,-0.10787,-0.13192,0.034475,0.031023,0.14571,0.25315,-0.15607,-0.30075,0.48603,-0.0095887,-3.7039
0.028054,-0.10992,-0.061103,0.04451,-0.074848,-0.063157,-0.10466,-0.41092,0.075828,0.13616,0.22404,-0.10531,0.0072886,-0.090264,-0.12781,0.03543,0.019392,0.1204,0.24333,-0.20539,-0.29508,0.48055,0.077401,-2.8948
0.037725,-0.12622,-0.055899,0.037366,-0.091015,-0.032224,-0.11049,-0.43796,0.074301,0.10525,0.21882,-0.072407,6.6173e-005,-0.062976,-0.12301,0.03423,0.0052956,0.096858,0.23905,-0.23797,-0.28663,0.43885,0.15297,-2.0388
0.050262,-0.13081,-0.064255,0.036355,-0.095254,0.0089245,-0.10308,-0.44534,0.069205,0.10558,0.21106,-0.040779,-0.0075671,-0.036742,-0.11715,0.030058,-0.0076821,0.083273,0.21887,-0.26077,-0.273,0.35169,0.22005,-1.2703
0.060652,-0.11769,-0.081114,0.04074,-0.084829,0.050723,-0.081573,-0.43912,0.06344,0.12107,0.21011,-0.015991,-0.012444,-0.022355,-0.11101,0.022915,-0.01686,0.075668,0.17194,-0.28844,-0.25584,0.22913,0.28269,-0.68066
0.066949,-0.096022,-0.094426,0.044813,-0.064665,0.085236,-0.054624,-0.42349,0.060284,0.12312,0.21816,0.0017836,-0.012711,-0.023464,-0.10588,0.014295,-0.022455,0.062162,0.10354,-0.33165,-0.23954,0.10026,0.34206,-0.26365
0.07031,-0.080801,-0.096313,0.042722,-0.044631,0.1113,-0.0303,-0.39825,0.060582,0.094294,0.22948,0.016553,-0.0092078,-0.034144,-0.10278,0.0065729,-0.02738,0.033733,0.027111,-0.38934,-0.22808,-0.00054899,0.39561,0.075687
0.072021,-0.078284,-0.088927,0.033461,-0.032803,0.13208,-0.0078993,-0.36089,0.062604,0.040545,0.23568,0.03213,-0.0049347,-0.043441,-0.10171,0.0014324,-0.034894,-0.0074987,-0.04931,-0.45095,-0.22236,-0.050406,0.44016,0.45401
0.071319,-0.080903,-0.080368,0.021768,-0.030018,0.1483,0.020048,-0.31138,0.064218,-0.016449,0.23175,0.048678,-0.0030247,-0.043311,-0.10143,-0.0011869,-0.046043,-0.049078,-0.12973,-0.50599,-0.2198,-0.046121,0.47581,0.93573
0.066551,-0.076332,-0.075881,0.014222,-0.030479,0.15529,0.057653,-0.25587,0.064645,-0.057888,0.21816,0.063084,-0.0047528,-0.033474,-0.10008,-0.0025958,-0.059032,-0.077165,-0.22433,-0.5525,-0.21611,0.00026909,0.50673,1.5038
0.058203,-0.06089,-0.073568,0.013968,-0.027976,0.14804,0.098113,-0.2052,0.063888,-0.080609,0.19922,0.072386,-0.0090035,-0.019499,-0.096425,-0.0038755,-0.070888,-0.086279,-0.33719,-0.59804,-0.20795,0.073565,0.53798,2.0889
0.049946,-0.043439,-0.068433,0.018551,-0.022086,0.12984,0.12739,-0.16809,0.060911,-0.094816,0.1807,0.076794,-0.013404,-0.0065281,-0.090732,-0.0050034,-0.079705,-0.082462,-0.45953,-0.65316,-0.19445,0.16579,0.5711,2.6254
0.045856,-0.036058,-0.0597,0.022501,-0.018504,0.11459,0.13671,-0.14314,0.053271,-0.11183,0.16858,0.079438,-0.016097,0.0052334,-0.084414,-0.0054773,-0.085455,-0.078174,-0.57453,-0.72333,-0.1767,0.27826,0.60243,3.0903
0.04627,-0.041397,-0.053125,0.022099,-0.023101,0.11843,0.13224,-0.11572,0.039384,-0.13428,0.16796,0.083236,-0.016837,0.019277,-0.078537,-0.0056299,-0.08895,-0.083601,-0.66952,-0.80585,-0.15577,0.41527,0.62609,3.5008
0.046709,-0.049799,-0.055488,0.018061,-0.035337,0.14652,0.13176,-0.063591,0.021329,-0.15621,0.18056,0.08798,-0.016806,0.037606,-0.072553,-0.0069883,-0.090428,-0.1009,-0.7445,-0.89307,-0.13084,0.57547,0.63932,3.8831
0.041504,-0.049052,-0.066868,0.014009,-0.047495,0.1871,0.15019,0.031299,0.0049505,-0.17002,0.20192,0.090539,-0.01756,0.057217,-0.064595,-0.01102,-0.089482,-0.1246,-0.81002,-0.9786,-0.098893,0.74765,0.64573,4.2433
0.028927,-0.03664,-0.078953,0.012494,-0.050776,0.21931,0.18618,0.17226,-0.0036395,-0.17232,0.22201,0.088176,-0.020015,0.071927,-0.053167,-0.017433,-0.086386,-0.14644,-0.87712,-1.061,-0.056745,0.91455,0.65334,4.5627
0.012812,-0.021912,-0.081731,0.012442,-0.042731,0.22898,0.22191,0.34575,-0.002263,-0.16425,0.23114,0.081986,-0.024091,0.077689,-0.038627,-0.023904,-0.083189,-0.16063,-0.9483,-1.1422,-0.0039888,1.0617,0.6681,4.8159
-0.001006,-0.015984,-0.072407,0.010297,-0.029117,0.21883,0.23684,0.52896,0.0064129,-0.14923,0.22761,0.077149,-0.029021,0.075976,-0.022981,-0.027782,-0.082981,-0.16642,-1.017,-1.2228,0.055204,1.1848,0.68781,4.9937
-0.0099888,-0.01987,-0.057809,0.0036424,-0.018483,0.20416,0.22386,0.70098,0.018282,-0.13225,0.22027,0.079431,-0.033854,0.071881,-0.0082337,-0.028302,-0.08757,-0.16764,-1.0746,-1.2982,0.11346,1.2892,0.70154,5.1123
-0.016663,-0.023224,-0.047712,-0.0062148,-0.014653,0.19835,0.19408,0.84941,0.032261,-0.12064,0.22217,0.090719,-0.037788,0.06899,0.0049417,-0.027074,-0.095613,-0.17006,-1.1182,-1.3586,0.16446,1.3818,0.69591,5.2029
-0.025226,-0.015307,-0.045335,-0.01508,-0.014088,0.20146,0.16703,0.9689,0.051306,-0.12237,0.23952,0.10738,-0.040261,0.066382,0.01676,-0.026205,-0.10314,-0.17818,-1.1517,-1.3934,0.20713,1.4601,0.6644,5.2921
-0.036595,0.0028121,-0.044235,-0.019299,-0.010316,0.20232,0.1552,1.0556,0.07874,-0.14031,0.26535,0.12287,-0.041077,0.060876,0.026617,-0.025805,-0.10632,-0.19247,-1.181,-1.3959,0.24629,1.5089,0.61251,5.3843
-0.047131,0.017563,-0.034736,-0.018578,-0.00082586,0.19112,0.1564,1.1043,0.11339,-0.16731,0.28424,0.13237,-0.040698,0.052199,0.032223,-0.023497,-0.10416,-0.20848,-1.2088,-1.3642,0.28865,1.5072,0.55466,5.4562
-0.052482,0.015208,-0.013932,-0.015712,0.010305,0.17007,0.15915,1.1119,0.14844,-0.18895,0.2848,0.13543,-0.040461,0.045581,0.031125,-0.016792,-0.098883,-0.21875,-1.2326,-1.2994,0.3369,1.4435,0.50463,5.4647
-0.052672,-0.0043445,0.010302,-0.013744,0.016403,0.15178,0.15444,1.0838,0.17567,-0.19457,0.26909,0.13473,-0.042206,0.04853,0.02376,-0.0063505,-0.093499,-0.21686,-1.2492,-1.2023,0.38688,1.3276,0.4668,5.364
-0.053103,-0.02587,0.025242,-0.013461,0.014645,0.14716,0.14209,1.0347,0.1913,-0.18774,0.25043,0.1327,-0.047119,0.064134,0.015175,0.0031415,-0.088821,-0.20117,-1.2582,-1.0734,0.4305,1.1905,0.43501,5.1269
-0.060079,-0.031538,0.023894,-0.013602,0.0085811,0.15501,0.12663,0.98346,0.19817,-0.18542,0.24139,0.1294,-0.054364,0.086823,0.013094,0.005863,-0.082564,-0.17585,-1.2626,-0.91664,0.46218,1.0694,0.3995,4.7602
-0.074962,-0.016391,0.010678,-0.013334,0.0044394,0.16301,0.1085,0.94307,0.20207,-0.2043,0.24284,0.12379,-0.060738,0.10483,0.022961,-0.00052413,-0.071444,-0.14848,-1.2648,-0.74223,0.48363,0.98832,0.35592,4.3078
-0.092621,0.0078905,-0.0025459,-0.01421,0.0051273,0.15906,0.081106,0.9157,0.20566,-0.24506,0.24388,0.11652,-0.062186,0.10804,0.043568,-0.012521,-0.054492,-0.12624,-1.2632,-0.56587,0.5028,0.94553,0.30848,3.8353
-0.10577,0.024325,-0.0059532,-0.019362,0.0080064,0.14149,0.037684,0.89557,0.20562,-0.28851,0.23248,0.11086,-0.056591,0.095337,0.067086,-0.023077,-0.034665,-0.1133,-1.2522,-0.40137,0.5278,0.91604,0.26492,3.4023
-0.11111,0.026058,0.0019845,-0.030576,0.0085076,0.11911,-0.018461,0.87683,0.19586,-0.30763,0.20682,0.11038,-0.045791,0.07556,0.084155,-0.026962,-0.017296,-0.11055,-1.2264,-0.25209,0.56073,0.86632,0.22797,3.0358
-0.11151,0.021192,0.016255,-0.046167,0.0055849,0.10225,-0.071297,0.85895,0.17389,-0.28528,0.17705,0.11563,-0.034855,0.061025,0.090539,-0.024839,-0.006607,-0.11639,-1.1852,-0.10868,0.59584,0.77126,0.19125,2.722
-0.11223,0.022874,0.03189,-0.061957,0.0030692,0.094511,-0.10108,0.84492,0.14437,-0.22222,0.1564,0.1238,-0.028591,0.058373,0.090085,-0.022571,-0.003148,-0.12743,-1.1349,0.042793,0.62292,0.62425,0.14324,2.4211
-0.1152,0.034969,0.048164,-0.074616,0.005247,0.092929,-0.098022,0.83497,0.11644,-0.12978,0.15035,0.13218,-0.027842,0.063737,0.091334,-0.026307,-0.0041292,-0.13882,-1.0866,0.20622,0.63258,0.43753,0.075899,2.095
-0.11703,0.047732,0.066715,-0.084293,0.011205,0.094283,-0.068956,0.82264,0.096853,-0.015685,0.15384,0.14214,-0.028784,0.06612,0.1002,-0.037435,-0.006109,-0.14558,-1.0506,0.36504,0.61966,0.2357,-0.0095931,1.729
-0.11282,0.047713,0.086829,-0.094024,0.014227,0.098936,-0.031402,0.79771,0.085075,0.12204,0.15821,0.15894,-0.02621,0.056502,0.11462,-0.051595,-0.0076032,-0.14474,-1.0328,0.48589,0.58359,0.046353,-0.10434,1.3344
-0.10187,0.031721,0.10388,-0.10645,0.0077131,0.10746,-0.00083075,0.75381,0.074353,0.28686,0.15995,0.18634,-0.018244,0.035515,0.12584,-0.062354,-0.0094798,-0.1368,-1.032,0.53706,0.52739,-0.10995,-0.19831,0.93283
-0.089599,0.010593,0.11303,-0.12084,-0.0077067,0.11483,0.01793,0.69377,0.057921,0.46921,0.16255,0.22066,-0.008292,0.013487,0.12563,-0.06621,-0.013074,-0.1243,-1.0398,0.51083,0.45697,-0.22863,-0.28563,0.539
-0.083647,-0.0012763,0.1141,-0.13309,-0.023065,0.11099,0.029075,0.62774,0.03476,0.64045,0.16997,0.25067,-0.0022126,0.0027052,0.11359,-0.064675,-0.01787,-0.10805,-1.0419,0.43327,0.38106,-0.32485,-0.36439,0.15402
-0.087771,-0.0002178,0.112,-0.13867,-0.027859,0.090042,0.037788,0.56588,0.010046,0.76285,0.17936,0.26494,-0.0029515,0.0080708,0.098452,-0.062002,-0.02078,-0.08454,-1.022,0.35256,0.31007,-0.42753,-0.43258,-0.22832
-0.099195,0.0031299,0.11191,-0.1359,-0.019069,0.059309,0.04464,0.51176,-0.0097188,0.80918,0.18158,0.26132,-0.0074208,0.023545,0.092027,-0.061068,-0.017584,-0.047924,-0.96607,0.31135,0.25298,-0.56399,-0.48532,-0.61193
-0.11152,-0.0050725,0.11422,-0.12707,-0.0041726,0.037428,0.047223,0.46172,-0.022232,0.77694,0.16973,0.24998,-0.0086228,0.036935,0.10046,-0.061325,-0.0054127,0.0037398,-0.86687,0.32182,0.21392,-0.7427,-0.51668,-0.99501
-0.11994,-0.026896,0.11481,-0.11673,0.0048705,0.040136,0.045636,0.4096,-0.030675,0.68709,0.14724,0.24639,-0.0013926,0.038802,0.1197,-0.060497,0.015385,0.062945,-0.72703,0.36108,0.19094,-0.94505,-0.52434,-1.3734
-0.12366,-0.048915,0.11041,-0.10884,0.0014883,0.065624,0.044656,0.35185,-0.040062,0.56953,0.12658,0.25913,0.013157,0.028387,0.13855,-0.058002,0.040979,0.11353,-0.55834,0.3902,0.17816,-1.1308,-0.51237,-1.7444
-0.12381,-0.054083,0.10341,-0.10478,-0.010408,0.093662,0.049546,0.28876,-0.052495,0.44719,0.11854,0.28246,0.028328,0.012598,0.1467,-0.056434,0.065307,0.13892,-0.37805,0.38248,0.16973,-1.2522,-0.48914,-2.1064
-0.1198,-0.038178,0.10033,-0.10322,-0.020379,0.10094,0.059784,0.22228,-0.065756,0.3296,0.12184,0.30004,0.03705,-2.2597e-005,0.14141,-0.05942,0.082182,0.13261,-0.20408,0.33993,0.16241,-1.2683,-0.46229,-2.4571
-0.10869,-0.014941,0.10496,-0.10137,-0.020646,0.079768,0.067768,0.15422,-0.076087,0.21734,0.12351,0.29724,0.037157,-0.0049824,0.12821,-0.067782,0.087534,0.10296,-0.050756,0.28715,0.15552,-1.1543,-0.43501,-2.7954
-0.08837,-0.0045509,0.11308,-0.09663,-0.012363,0.043477,0.06478,0.087305,-0.081965,0.10985,0.11036,0.27247,0.032493,-0.0033133,0.11586,-0.07773,0.081079,0.068247,0.073876,0.25015,0.14965,-0.90793,-0.40657,-3.1259
-0.061156,-0.015949,0.11476,-0.087969,-0.0039161,0.013903,0.049054,0.027757,-0.085248,0.0084698,0.081241,0.23906,0.029317,0.0008522,0.11008,-0.083053,0.066673,0.045005,0.16903,0.23881,0.14637,-0.5566,-0.37584,-3.4552
-0.033502,-0.039355,0.10318,-0.07666,-0.0034698,0.0025861,0.028162,-0.014515,-0.089181,-0.086591,0.048264,0.21642,0.031394,0.0035146,0.11042,-0.079643,0.050838,0.03817,0.24015,0.2465,0.14928,-0.15853,-0.34419,-3.7768
-0.01158,-0.055677,0.081796,-0.065939,-0.012696,0.002728,0.013019,-0.029996,-0.095912,-0.17934,0.025462,0.2173,0.037768,0.0023901,0.1119,-0.068571,0.039848,0.040124,0.29567,0.26367,0.1639,0.21053,-0.31517,-4.0505
0.0031902,-0.053731,0.062901,-0.059391,-0.026809,-0.0017965,0.0087214,-0.015632,-0.10613,-0.2751,0.01563,0.23973,0.044501,-0.0031527,0.10914,-0.055257,0.036862,0.038892,0.34267,0.29022,0.19447,0.486,-0.29172,-4.1993
0.014294,-0.039311,0.057921,-0.058639,-0.039924,-0.020024,0.010728,0.021558,-0.12048,-0.3728,0.00795,0.26834,0.048233,-0.012377,0.099568,-0.045621,0.040946,0.028757,0.38418,0.33475,0.23893,0.64348,-0.27382,-4.1387
0.025844,-0.028364,0.067894,-0.061834,-0.050187,-0.045813,0.010069,0.066,-0.14025,-0.46079,-0.011219,0.28297,0.04834,-0.023013,0.084163,-0.042454,0.048687,0.014979,0.42026,0.40282,0.2867,0.706,-0.25861,-3.8286
0.038256,-0.031563,0.082496,-0.064458,-0.060114,-0.064749,0.0029332,0.099254,-0.1659,-0.52292,-0.044969,0.26873,0.046343,-0.031451,0.066127,-0.04464,0.057186,0.0092285,0.45204,0.48778,0.32262,0.72043,-0.24274,-3.3129
0.048179,-0.045087,0.088471,-0.062367,-0.072554,-0.068031,-0.004189,0.10664,-0.19506,-0.55177,-0.083143,0.22177,0.043814,-0.034319,0.049201,-0.04918,0.066065,0.019814,0.48403,0.57434,0.33544,0.71927,-0.22472,-2.7133
0.052488,-0.0557,0.080018,-0.055006,-0.086711,-0.059395,0.0012791,0.08202,-0.22282,-0.55649,-0.11319,0.14893,0.041049,-0.030932,0.036651,-0.053788,0.076946,0.044646,0.52136,0.65172,0.32448,0.6987,-0.20541,-2.1727
0.051855,-0.054221,0.062311,-0.046083,-0.098088,-0.049059,0.027917,0.029485,-0.24519,-0.55506,-0.13396,0.062651,0.03748,-0.024693,0.030702,-0.057864,0.091061,0.072323,0.56306,0.72253,0.29894,0.63169,-0.1869,-1.7818
0.049967,-0.043849,0.0459,-0.040873,-0.10196,-0.042026,0.07287,-0.038342,-0.26255,-0.55476,-0.15842,-0.025275,0.032897,-0.02177,0.031839,-0.061554,0.10728,0.090065,0.59815,0.79735,0.27046,0.50488,-0.17097,-1.5419
0.049275,-0.035577,0.037818,-0.042153,-0.09673,-0.033381,0.12286,-0.10531,-0.27955,-0.53816,-0.2019,-0.10763,0.027953,-0.027485,0.038089,-0.064322,0.12236,0.092066,0.61018,0.87884,0.24487,0.34557,-0.15829,-1.3881
0.048138,-0.036028,0.037378,-0.048179,-0.08406,-0.015477,0.1619,-0.15893,-0.30068,-0.47048,-0.26658,-0.18201,0.023525,-0.042863,0.045179,-0.064633,0.13315,0.082138,0.58839,0.94997,0.22003,0.21241,-0.14829,-1.2537
0.042872,-0.040496,0.039343,-0.054357,-0.066626,0.010768,0.17893,-0.19672,-0.32542,-0.32692,-0.33699,-0.24804,0.019855,-0.063903,0.048195,-0.061036,0.13865,0.06949,0.53713,0.97845,0.19036,0.15524,-0.13915,-1.123
0.032825,-0.038527,0.04005,-0.057023,-0.046513,0.033002,0.17031,-0.22808,-0.34749,-0.11883,-0.39132,-0.30408,0.016538,-0.084121,0.0441,-0.053548,0.1403,0.061717,0.47502,0.93518,0.15329,0.17763,-0.12811,-1.0332
0.022861,-0.026431,0.040004,-0.05587,-0.026101,0.037299,0.13827,-0.26986,-0.35925,0.10421,-0.41876,-0.34577,0.013333,-0.098489,0.033368,-0.044014,0.14052,0.060439,0.42411,0.81294,0.11144,0.23514,-0.11264,-1.0265
0.019861,-0.013692,0.040993,-0.053011,-0.0096034,0.021854,0.08968,-0.33755,-0.35732,0.28065,-0.42735,-0.36735,0.010825,-0.10596,0.01942,-0.035026,0.14106,0.062056,0.3976,0.63133,0.069196,0.27194,-0.092379,-1.0965
0.026078,-0.015824,0.041841,-0.049948,-0.0019754,0.00077111,0.036903,-0.4366,-0.34442,0.37186,-0.43644,-0.36448,0.010114,-0.10899,0.0061783,-0.028294,0.14248,0.061919,0.39552,0.42531,0.028085,0.26516,-0.07043,-1.1753
0.036014,-0.039645,0.038161,-0.045725,-0.0046558,-0.0069855,-0.0027111,-0.55802,-0.32599,0.37853,-0.4612,-0.33634,0.011794,-0.11082,-0.0043775,-0.023772,0.14459,0.058165,0.40957,0.22714,-0.013671,0.23966,-0.052122,-1.173
0.040586,-0.075003,0.02679,-0.038155,-0.011945,0.0060224,-0.013005,-0.67923,-0.30524,0.32776,-0.50328,-0.28615,0.015174,-0.1127,-0.012848,-0.020247,0.14654,0.052612,0.43026,0.054755,-0.056603,0.2419,-0.04128,-1.0354
0.035211,-0.10159,0.010054,-0.026829,-0.012701,0.029359,0.010773,-0.76939,-0.28148,0.24531,-0.55412,-0.22038,0.018406,-0.1129,-0.02101,-0.016851,0.14652,0.048748,0.44955,-0.087602,-0.095068,0.29638,-0.036718,-0.77511
0.0242,-0.10532,-0.0052946,-0.014643,0.0023865,0.04491,0.055984,-0.79766,-0.25304,0.13881,-0.60539,-0.14831,0.019369,-0.10805,-0.02977,-0.014188,0.14164,0.048751,0.45888,-0.20098,-0.11773,0.38245,-0.032382,-0.45398
0.016964,-0.089449,-0.014157,-0.0059991,0.033504,0.044542,0.09841,-0.74343,-0.2215,0.0049089,-0.65512,-0.081872,0.016736,-0.095548,-0.038137,-0.014014,0.12921,0.051577,0.4488,-0.28522,-0.11441,0.44973,-0.021885,-0.13637
0.019293,-0.070388,-0.018226,-0.0031261,0.071193,0.038758,0.11787,-0.6061,-0.19258,-0.1503,-0.70451,-0.034621,0.010886,-0.075653,-0.04375,-0.017529,0.10885,0.053148,0.41413,-0.34042,-0.084351,0.45705,-0.004021,0.14753
0.027811,-0.062197,-0.024503,-0.0039795,0.10384,0.047984,0.11174,-0.40977,-0.17235,-0.30017,-0.75055,-0.01819,0.004391,-0.052445,-0.044296,-0.023552,0.083485,0.048364,0.36043,-0.37389,-0.038739,0.40139,0.015755,0.4026
0.03292,-0.064386,-0.037971,-0.0038681,0.12694,0.084231,0.094503,-0.19752,-0.16228,-0.4081,-0.78416,-0.037056,0.0015578,-0.033077,-0.038885,-0.028175,0.057903,0.033806,0.30382,-0.40432,0.004805,0.3148,0.029778,0.64247
0.027629,-0.064105,-0.055417,0.00049899,0.14597,0.13975,0.083294,-0.014918,-0.15768,-0.45021,-0.79697,-0.0849,0.0064342,-0.025191,-0.028906,-0.026552,0.035497,0.0096073,0.2611,-0.45684,0.031974,0.23592,0.035111,0.86568
0.014169,-0.050136,-0.0669,0.0081568,0.17016,0.19281,0.08227,0.11004,-0.15117,-0.42882,-0.79028,-0.14616,0.019687,-0.03286,-0.018202,-0.015849,0.016071,-0.020614,0.23718,-0.55007,0.038595,0.18213,0.036833,1.0564
0.0023641,-0.025126,-0.064169,0.014816,0.20324,0.22495,0.080089,0.1782,-0.13805,-0.36493,-0.77635,-0.20314,0.036491,-0.052958,-0.012171,0.0027099,-0.0033388,-0.051801,0.22159,-0.68371,0.030306,0.1438,0.044417,1.2047
0.0012979,-0.0045266,-0.04839,0.01677,0.23974,0.23434,0.062623,0.21345,-0.11908,-0.27885,-0.76951,-0.24476,0.048026,-0.075016,-0.015466,0.024356,-0.025337,-0.080177,0.19828,-0.83576,0.016654,0.099942,0.06405,1.3233
0.011809,-0.0034274,-0.029942,0.014274,0.27014,0.23415,0.028361,0.24328,-0.098711,-0.17866,-0.77468,-0.27102,0.046952,-0.086534,-0.028996,0.043643,-0.049694,-0.10479,0.16121,-0.97194,0.0047392,0.037765,0.093519,1.4425
0.026277,-0.023498,-0.020417,0.011403,0.28938,0.23886,-0.0087358,0.27991,-0.081087,-0.06695,-0.78429,-0.29027,0.033421,-0.081557,-0.048254,0.057596,-0.073823,-0.12685,0.12186,-1.0609,-0.0035436,-0.040124,0.12406,1.586
0.035415,-0.051553,-0.024207,0.012531,0.30034,0.2516,-0.031943,0.31575,-0.06739,0.043544,-0.78672,-0.31136,0.016391,-0.066341,-0.06501,0.066812,-0.095566,-0.14753,0.10172,-1.0854,-0.010382,-0.12279,0.14739,1.7515
0.035713,-0.070203,-0.037,0.018554,0.30896,0.26299,-0.037636,0.33604,-0.056323,0.12475,-0.77808,-0.33657,0.0078876,-0.056318,-0.072113,0.073871,-0.11532,-0.16628,0.116,-1.0443,-0.019401,-0.2013,0.16175,1.9115
0.031145,-0.070578,-0.051513,0.026136,0.31644,0.26089,-0.038436,0.33655,-0.046189,0.14745,-0.7657,-0.36017,0.013813,-0.06487,-0.068261,0.080641,-0.13524,-0.18105,0.1619,-0.94676,-0.033569,-0.27179,0.17196,2.0338
0.0284,-0.056633,-0.064029,0.030525,0.31674,0.24106,-0.050046,0.33071,-0.036079,0.10397,-0.75988,-0.37292,0.028775,-0.092004,-0.058861,0.086923,-0.15627,-0.19038,0.22061,-0.80577,-0.054038,-0.33047,0.18412,2.1044
0.030606,-0.03925,-0.075517,0.02944,0.30224,0.20983,-0.074345,0.33986,-0.025472,0.018244,-0.76204,-0.36849,0.039912,-0.12265,-0.051857,0.091409,-0.17608,-0.19521,0.26977,-0.63718,-0.079513,-0.36843,0.20009,2.1333
0.035255,-0.027081,-0.087488,0.024739,0.27191,0.17822,-0.095421,0.37535,-0.013751,-0.067754,-0.76161,-0.34711,0.037205,-0.13724,-0.05163,0.093676,-0.19015,-0.19863,0.29538,-0.46186,-0.10641,-0.37297,0.21652,2.1424
0.037576,-0.022085,-0.098312,0.020693,0.23365,0.15387,-0.093009,0.42871,-0.0011322,-0.12151,-0.74493,-0.31454,0.021792,-0.12675,-0.055949,0.094993,-0.1952,-0.20336,0.29476,-0.30656,-0.13041,-0.33517,0.22855,2.1468
0.035485,-0.021502,-0.1046,0.020566,0.19798,0.13747,-0.061058,0.47859,0.0097428,-0.13981,-0.70763,-0.27813,0.0050602,-0.099856,-0.058446,0.097079,-0.19167,-0.20907,0.27151,-0.19945,-0.14911,-0.2575,0.23432,2.1464
0.031252,-0.022014,-0.10595,0.024463,0.16914,0.12483,-0.014142,0.50805,0.01396,-0.14616,-0.65768,-0.24312,-0.0008408,-0.075963,-0.054321,0.10018,-0.18277,-0.21197,0.2301,-0.16188,-0.16361,-0.15541,0.23635,2.1327
0.028618,-0.021645,-0.10718,0.029961,0.14243,0.11101,0.02404,0.51695,0.0074218,-0.16992,-0.60609,-0.21143,0.0071276,-0.069797,-0.044302,0.10265,-0.17124,-0.20752,0.17528,-0.202,-0.17747,-0.051925,0.23882,2.1018
0.02868,-0.019241,-0.11444,0.034526,0.1107,0.093179,0.03925,0.51845,-0.0091647,-0.22441,-0.55498,-0.18268,0.021037,-0.080241,-0.033715,0.10261,-0.15702,-0.19405,0.11467,-0.31446,-0.19306,0.031446,0.24383,2.0618
0.028869,-0.014405,-0.12879,0.037402,0.073856,0.071491,0.035899,0.52311,-0.029223,-0.2992,-0.49595,-0.15626,0.029341,-0.092313,-0.028032,0.10012,-0.13855,-0.17414,0.058632,-0.48484,-0.20861,0.08284,0.24962,2.0285
0.026099,-0.0090872,-0.14413,0.039551,0.041719,0.048968,0.030385,0.52512,-0.043986,-0.3684,-0.42123,-0.13279,0.02656,-0.089923,-0.029168,0.097456,-0.1166,-0.15214,0.015329,-0.69415,-0.21856,0.10372,0.25223,2.0131
0.020854,-0.0084311,-0.15252,0.042175,0.026573,0.030764,0.036996,0.5029,-0.048373,-0.4054,-0.33654,-0.1144,0.016871,-0.068465,-0.035557,0.09683,-0.096561,-0.12984,-0.014682,-0.91932,-0.21732,0.10658,0.24878,2.0137
0.017882,-0.017939,-0.15233,0.045513,0.031764,0.021919,0.059838,0.43388,-0.044008,-0.39337,-0.26146,-0.10346,0.0091857,-0.037432,-0.045099,0.097677,-0.085967,-0.10445,-0.037694,-1.1316,-0.20354,0.10749,0.23985,2.0164
0.022306,-0.038015,-0.15078,0.048888,0.046917,0.023775,0.095775,0.31085,-0.036552,-0.32802,-0.21516,-0.10061,0.0088732,-0.012216,-0.05747,0.09613,-0.088485,-0.071525,-0.059284,-1.2979,-0.18124,0.11709,0.22924,2.0064
0.034527,-0.061136,-0.15763,0.051543,0.054757,0.031583,0.14153,0.14686,-0.029673,-0.21533,-0.19996,-0.10275,0.013571,-0.0027863,-0.073333,0.087615,-0.099234,-0.030897,-0.076953,-1.3889,-0.15734,0.1353,0.22144,1.9801
0.048764,-0.075905,-0.17543,0.053141,0.044,0.036318,0.19544,-0.03372,-0.021297,-0.068184,-0.19854,-0.10279,0.016035,-0.0080345,-0.091479,0.07057,-0.10631,0.0098036,-0.081118,-1.3906,-0.13778,0.15354,0.21874,1.9494
0.057021,-0.075971,-0.19604,0.053513,0.017184,0.03059,0.25266,-0.208,-0.005772,0.096646,-0.18826,-0.091869,0.010549,-0.018699,-0.10722,0.048152,-0.09854,0.038367,-0.064772,-1.3116,-0.12535,0.16319,0.21993,1.9364
0.055307,-0.066088,-0.20739,0.052336,-0.013135,0.014317,0.30141,-0.35945,0.019998,0.26143,-0.15986,-0.063362,-0.0029516,-0.024849,-0.11434,0.026419,-0.073832,0.046605,-0.032622,-1.1803,-0.12023,0.16415,0.22155,1.9604
0.046672,-0.05887,-0.20471,0.04949,-0.035907,-0.005077,0.32759,-0.47284,0.052376,0.41001,-0.12383,-0.0168,-0.019851,-0.021731,-0.10943,0.010445,-0.04134,0.037534,0.00057113,-1.0313,-0.12159,0.16672,0.22062,2.0268
0.038367,-0.063879,-0.1955,0.045819,-0.050333,-0.018944,0.32522,-0.52839,0.083036,0.52896,-0.099186,0.040727,-0.03492,-0.01082,-0.095122,0.0014374,-0.014898,0.024467,0.02303,-0.89047,-0.12837,0.18509,0.21705,2.1228
0.035628,-0.078385,-0.19267,0.043153,-0.064478,-0.02522,0.30276,-0.5065,0.10569,0.60792,-0.096011,0.096688,-0.045523,0.0026205,-0.079239,-0.0031058,-0.0025225,0.021779,0.039116,-0.76502,-0.13871,0.22743,0.21385,2.2235
0.037667,-0.088651,-0.202,0.043003,-0.085981,-0.030788,0.27793,-0.40319,0.12142,0.64117,-0.10777,0.13792,-0.051921,0.012353,-0.070226,-0.0068323,-0.00030965,0.034537,0.069223,-0.64445,-0.14962,0.29,0.21504,2.3043
0.039291,-0.081478,-0.21565,0.044934,-0.11398,-0.045779,0.26453,-0.24398,0.13754,0.63131,-0.11911,0.15585,-0.055625,0.012711,-0.072215,-0.011994,0.0041403,0.055707,0.13397,-0.50985,-0.15835,0.35954,0.22271,2.3548
0.03634,-0.056117,-0.21866,0.046444,-0.13941,-0.074331,0.26288,-0.081513,0.16077,0.59223,-0.11956,0.14966,-0.057933,-0.00048268,-0.083218,-0.018876,0.021439,0.073356,0.23497,-0.34541,-0.1647,0.42155,0.23531,2.3871
0.029634,-0.025653,-0.20294,0.045012,-0.15272,-0.10977,0.26208,0.02593,0.19064,0.54641,-0.109,0.12596,-0.059595,-0.028399,-0.097435,-0.02706,0.051697,0.081482,0.34895,-0.14663,-0.17201,0.46826,0.24835,2.4332
0.023778,-0.0062401,-0.17581,0.0407,-0.15136,-0.13867,0.25176,0.041939,0.21892,0.51518,-0.090481,0.09506,-0.061023,-0.067313,-0.10945,-0.036815,0.084478,0.08493,0.44186,0.077581,-0.18493,0.50145,0.25688,2.5294
0.022283,-0.0037087,-0.15432,0.036683,-0.14062,-0.15064,0.232,-0.033039,0.23534,0.50718,-0.059668,0.066115,-0.0623,-0.10812,-0.11699,-0.049143,0.10713,0.094211,0.49214,0.30833,-0.2048,0.52917,0.25796,2.6939
0.02409,-0.0096152,-0.1501,0.036677,-0.12823,-0.14583,0.21272,-0.16843,0.23447,0.51436,-0.0036272,0.043911,-0.063087,-0.13883,-0.12054,-0.064653,0.1143,0.11511,0.50475,0.52253,-0.22662,0.55929,0.25153,2.9081
0.024955,-0.01006,-0.15855,0.041319,-0.11837,-0.13413,0.20368,-0.32474,0.2178,0.52013,0.088185,0.029435,-0.063016,-0.14961,-0.12073,-0.082608,0.11078,0.14245,0.50487,0.69824,-0.24074,0.59368,0.23927,3.1139
0.022151,0.0012902,-0.16297,0.0469,-0.11057,-0.12703,0.20498,-0.47278,0.18958,0.51387,0.21078,0.02348,-0.062489,-0.13754,-0.11642,-0.10119,0.10618,0.1633,0.51733,0.81803,-0.23911,0.62598,0.22286,3.2315
0.017453,0.018292,-0.15004,0.047996,-0.10314,-0.12927,0.20692,-0.59922,0.15113,0.49919,0.34144,0.029878,-0.063005,-0.10798,-0.10522,-0.11869,0.10681,0.16662,0.54912,0.87097,-0.22131,0.64453,0.20311,3.1922
0.0152,0.029791,-0.12252,0.041885,-0.096597,-0.137,0.19905,-0.69985,0.099154,0.48778,0.45182,0.054769,-0.066281,-0.071382,-0.086135,-0.13447,0.11176,0.15119,0.58842,0.85449,-0.19531,0.64015,0.18063,2.9703
0.017415,0.031677,-0.096894,0.030755,-0.093231,-0.1429,0.17966,-0.77129,0.030324,0.48354,0.52485,0.10152,-0.072697,-0.037299,-0.061738,-0.14886,0.11592,0.12591,0.61859,0.77564,-0.17167,0.6154,0.15732,2.5994
0.021194,0.031382,-0.088059,0.019609,-0.093677,-0.14309,0.15721,-0.81003,-0.052001,0.47223,0.5628,0.16518,-0.080502,-0.0098218,-0.037636,-0.16239,0.11581,0.10328,0.63361,0.65017,-0.15578,0.58846,0.13661,2.1602
0.02134,0.040287,-0.095346,0.011778,-0.094585,-0.13928,0.14281,-0.81866,-0.13507,0.42872,0.5813,0.23174,-0.086658,0.012681,-0.019234,-0.17504,0.11262,0.091855,0.64164,0.49822,-0.14448,0.58612,0.12141,1.7481
0.015732,0.061592,-0.10319,0.0062177,-0.090258,-0.13508,0.14118,-0.81084,-0.20118,0.33825,0.59559,0.28429,-0.088638,0.033484,-0.0082588,-0.18625,0.10989,0.092557,0.65555,0.33899,-0.13017,0.62622,0.11045,1.4332
0.0078601,0.085869,-0.095874,-0.00093386,-0.076758,-0.13091,0.14846,-0.80763,-0.23646,0.21411,0.61093,0.31229,-0.085495,0.052605,-0.0019928,-0.19509,0.10898,0.10007,0.68093,0.18799,-0.10888,0.69968,0.095716,1.2334
0.0036455,0.099091,-0.072366,-0.012145,-0.054419,-0.12324,0.15786,-0.82577,-0.23777,0.09451,0.62328,0.31731,-0.07733,0.06536,0.0039713,-0.2005,0.10708,0.10675,0.71303,0.058527,-0.0854,0.76591,0.063898,1.1148
0.0055213,0.095623,-0.047199,-0.025725,-0.026466,-0.10902,0.16675,-0.86637,-0.2131,0.018361,0.62695,0.31081,-0.064135,0.066121,0.011733,-0.20145,0.099638,0.10642,0.74439,-0.036001,-0.071096,0.76878,0.0028353,1.0154
0.00978,0.08357,-0.036499,-0.037126,0.0043668,-0.090559,0.1774,-0.91314,-0.17612,-0.0016515,0.62119,0.3058,-0.045789,0.054754,0.019367,-0.19745,0.084889,0.096864,0.77435,-0.084328,-0.076168,0.66571,-0.089772,0.87759
0.010129,0.077136,-0.04246,-0.043019,0.03727,-0.075428,0.19051,-0.94236,-0.13927,0.013222,0.61061,0.30862,-0.023745,0.040556,0.023151,-0.18938,0.065904,0.080601,0.80974,-0.084796,-0.10257,0.45154,-0.20091,0.66915
0.0041534,0.083169,-0.051007,-0.044257,0.071224,-0.070646,0.19847,-0.93785,-0.10968,0.025776,0.60123,0.3166,-0.0026674,0.03951,0.02193,-0.17993,0.048567,0.063893,0.85548,-0.05144,-0.14282,0.16075,-0.30496,0.38501
-0.0037669,0.094776,-0.044916,-0.045016,0.10191,-0.076735,0.18655,-0.90078,-0.089078,0.011484,0.59719,0.32222,0.010513,0.065209,0.019699,-0.17258,0.037407,0.053797,0.90425,-0.0098218,-0.18484,-0.15315,-0.37495,0.035276
-0.0062612,0.098244,-0.020071,-0.049072,0.12184,-0.087641,0.14281,-0.84763,-0.075726,-0.025799,0.60054,0.31959,0.010662,0.11878,0.023863,-0.16962,0.032976,0.054442,0.93623,0.01855,-0.21865,-0.44568,-0.39644,-0.36576
-0.00011203,0.086781,0.010378,-0.056748,0.1249,-0.097025,0.068764,-0.79806,-0.066217,-0.062932,0.612,0.3084,-0.0011206,0.18504,0.04027,-0.17035,0.032598,0.064665,0.93106,0.032489,-0.24034,-0.69758,-0.37533,-0.80159
0.010095,0.068136,0.027866,-0.06522,0.11172,-0.10484,-0.019072,-0.76049,-0.056859,-0.081935,0.62954,0.29291,-0.016798,0.23915,0.068863,-0.17116,0.033176,0.078561,0.88215,0.053325,-0.25188,-0.91072,-0.334,-1.2513
0.015467,0.058835,0.025315,-0.071568,0.090651,-0.11746,-0.099085,-0.72447,-0.045302,-0.087957,0.64539,0.27776,-0.02608,0.26088,0.10333,-0.16775,0.033277,0.088488,0.80084,0.10812,-0.25871,-1.0926,-0.29794,-1.6941
0.010365,0.070178,0.013697,-0.075496,0.072642,-0.14079,-0.15817,-0.66445,-0.032204,-0.10556,0.64587,0.2637,-0.023536,0.24775,0.13485,-0.158,0.032998,0.088432,0.70624,0.20557,-0.26742,-1.245,-0.28184,-2.124
-0.0028729,0.098538,0.012536,-0.079186,0.063681,-0.17293,-0.19796,-0.55313,-0.021304,-0.15709,0.61736,0.24591,-0.012485,0.21717,0.15702,-0.14339,0.032481,0.075984,0.60992,0.32436,-0.28416,-1.3657,-0.28411,-2.5592
-0.016177,0.12827,0.03327,-0.084711,0.061041,-0.20366,-0.2292,-0.37736,-0.016712,-0.24169,0.55582,0.2159,-0.0021304,0.19479,0.16848,-0.1278,0.031078,0.052698,0.50894,0.4245,-0.31285,-1.4555,-0.29221,-3.0314
-0.022593,0.14416,0.070264,-0.091722,0.056326,-0.22196,-0.26049,-0.14765,-0.018838,-0.33218,0.47226,0.16608,5.7508e-005,0.19631,0.17205,-0.11458,0.028046,0.023471,0.39327,0.47332,-0.35278,-1.5198,-0.29331,-3.55
-0.021344,0.14229,0.10664,-0.097739,0.042587,-0.22472,-0.29174,0.10472,-0.022537,-0.39161,0.38799,0.094967,-0.0055936,0.21604,0.17169,-0.10425,0.023868,-0.0048972,0.26027,0.46571,-0.39727,-1.5572,-0.28186,-4.0668
-0.016884,0.13077,0.12866,-0.10071,0.01952,-0.21902,-0.31754,0.3424,-0.019939,-0.39594,0.32154,0.010376,-0.011679,0.2314,0.16993,-0.094472,0.020518,-0.026324,0.12222,0.4241,-0.43568,-1.5461,-0.25956,-4.4752
-0.013642,0.12106,0.13558,-0.10119,-0.0071056,-0.21589,-0.33538,0.54024,-0.0063209,-0.34517,0.27698,-0.071881,-0.010661,0.2205,0.16725,-0.082434,0.020097,-0.038674,-0.00046236,0.38109,-0.45872,-1.4412,-0.23005,-4.6594
-0.011914,0.11862,0.1374,-0.10191,-0.030377,-0.2215,-0.34968,0.69548,0.01592,-0.25652,0.24281,-0.134,-0.0019226,0.17917,0.16336,-0.067584,0.022981,-0.045321,-0.094879,0.36109,-0.46381,-1.191,-0.19476,-4.5701
-0.008683,0.12033,0.1443,-0.10489,-0.046693,-0.23343,-0.36732,0.82282,0.039142,-0.14816,0.20242,-0.16427,0.0074181,0.12401,0.15885,-0.05252,0.027202,-0.052849,-0.16625,0.37385,-0.45611,-0.76534,-0.15381,-4.271
-0.0018912,0.1194,0.15819,-0.10901,-0.056278,-0.24479,-0.38978,0.93773,0.057079,-0.029043,0.14733,-0.16273,0.008797,0.079221,0.1558,-0.041269,0.029669,-0.06557,-0.23442,0.41949,-0.44352,-0.17941,-0.11046,-3.9154
0.0065599,0.11176,0.17315,-0.11043,-0.060596,-0.25141,-0.41066,1.0405,0.070575,0.096692,0.082483,-0.14084,5.8442e-005,0.058507,0.15689,-0.036333,0.028189,-0.081011,-0.31925,0.4941,-0.42967,0.50001,-0.073671,-3.659
0.012216,0.098301,0.18233,-0.10583,-0.060329,-0.25527,-0.42174,1.1136,0.087203,0.21705,0.020228,-0.11539,-0.012186,0.056492,0.16357,-0.036859,0.022665,-0.090844,-0.42717,0.58828,-0.41069,1.1672,-0.054713,-3.5686
0.012328,0.082647,0.18368,-0.095745,-0.056209,-0.2614,-0.42173,1.1345,0.11492,0.30632,-0.030679,-0.10066,-0.01793,0.055738,0.17472,-0.039292,0.014786,-0.087535,-0.54895,0.68241,-0.37893,1.7037,-0.059382,-3.5935
0.0085664,0.068087,0.17965,-0.084665,-0.051241,-0.27182,-0.4187,1.0947,0.15538,0.3359,-0.071062,-0.10349,-0.012242,0.042006,0.1867,-0.039855,0.006949,-0.071728,-0.66887,0.74909,-0.33059,2.0101,-0.081852,-3.6222
0.0054967,0.056863,0.17303,-0.077796,-0.05083,-0.28315,-0.42323,1.0086,0.20291,0.29656,-0.10792,-0.12335,0.00053978,0.014815,0.19505,-0.036783,0.0014353,-0.053871,-0.7766,0.76652,-0.27039,2.0388,-0.10596,-3.5761
0.006481,0.050984,0.16473,-0.07711,-0.059367,-0.29013,-0.43884,0.90758,0.24997,0.21482,-0.14605,-0.15544,0.010428,-0.013962,0.19664,-0.030713,3.8205e-005,-0.047878,-0.8727,0.73412,-0.20915,1.817,-0.11424,-3.4652
0.011143,0.05172,0.15569,-0.080174,-0.075971,-0.29184,-0.45907,0.82265,0.29365,0.14797,-0.18308,-0.19337,0.0099296,-0.029939,0.19099,-0.023299,0.0035019,-0.06131,-0.96536,0.67546,-0.15658,1.446,-0.098725,-3.3609
0.016715,0.057097,0.14939,-0.082615,-0.093802,-0.29419,-0.47437,0.76899,0.33708,0.15724,-0.21175,-0.22969,-0.00028756,-0.025285,0.1801,-0.015507,0.010532,-0.089818,-1.0624,0.62273,-0.11581,1.0653,-0.065647,-3.3131
0.02142,0.060476,0.15021,-0.081762,-0.10459,-0.30586,-0.48192,0.74198,0.38439,0.27417,-0.22622,-0.25589,-0.012624,-0.0011795,0.16725,-0.0070011,0.017303,-0.12045,-1.1643,0.59284,-0.084211,0.79172,-0.030508,-3.2865
0.025973,0.053706,0.15789,-0.078112,-0.10504,-0.33102,-0.48885,0.72395,0.4343,0.48035,-0.22558,-0.26437,-0.018958,0.034908,0.15556,0.0031357,0.018722,-0.14128,-1.262,0.57428,-0.058587,0.6631,-0.0071201,-3.1743
0.031525,0.033962,0.16428,-0.073631,-0.099558,-0.36543,-0.5054,0.69495,0.47903,0.71236,-0.21164,-0.25277,-0.016398,0.072267,0.14705,0.015251,0.011287,-0.14976,-1.3394,0.53602,-0.039071,0.62541,0.001133,-2.8821
0.036555,0.0084229,0.15803,-0.069089,-0.09656,-0.39955,-0.53455,0.6408,0.50999,0.88918,-0.18421,-0.22726,-0.0079139,0.098273,0.1421,0.028528,-0.0045169,-0.15322,-1.38,0.4516,-0.027644,0.57613,0.0017479,-2.4103
0.036813,-0.0089444,0.13486,-0.063401,-0.10166,-0.42581,-0.56782,0.55693,0.52518,0.94811,-0.13982,-0.20129,0.0015932,0.10033,0.13917,0.041258,-0.024635,-0.16163,-1.3763,0.31881,-0.023413,0.43597,0.0059055,-1.8683
0.029332,-0.0077621,0.10399,-0.055564,-0.11365,-0.44331,-0.59122,0.45002,0.53113,0.87193,-0.075817,-0.18933,0.0094292,0.070872,0.13523,0.051607,-0.044816,-0.17889,-1.3356,0.15908,-0.020342,0.19813,0.020049,-1.4085
0.016803,0.0092972,0.082895,-0.046831,-0.12662,-0.45572,-0.59569,0.33759,0.53738,0.69485,0.0034,-0.19973,0.015784,0.013558,0.1272,0.058346,-0.064265,-0.19994,-1.2794,-0.001881,-0.010782,-0.079431,0.042668,-1.1322
0.0072408,0.026839,0.083074,-0.040404,-0.13573,-0.4648,-0.58276,0.2438,0.54833,0.48455,0.084049,-0.23208,0.021227,-0.055189,0.11416,0.061308,-0.086273,-0.21573,-1.2334,-0.15448,0.0079311,-0.32793,0.067499,-1.0392
0.008012,0.028081,0.099183,-0.038584,-0.1408,-0.46617,-0.56095,0.18985,0.55996,0.30918,0.14701,-0.28042,0.024432,-0.11295,0.098544,0.061491,-0.11495,-0.22149,-1.2131,-0.30875,0.030105,-0.52111,0.088942,-1.0502
0.019117,0.0084897,0.11237,-0.040257,-0.14453,-0.45206,-0.53736,0.18266,0.56441,0.20671,0.17589,-0.33856,0.022944,-0.14345,0.085253,0.060773,-0.15069,-0.22102,-1.2155,-0.478,0.045272,-0.68485,0.10472,-1.0759
0.03222,-0.019964,0.10603,-0.041513,-0.14778,-0.41872,-0.51253,0.20903,0.55793,0.17281,0.164,-0.4022,0.016264,-0.1454,0.07858,0.061235,-0.18822,-0.22365,-1.2239,-0.65728,0.046114,-0.85947,0.11472,-1.0735
0.037073,-0.038072,0.080135,-0.039141,-0.14737,-0.37172,-0.48254,0.24062,0.54458,0.17261,0.11684,-0.46594,0.007888,-0.13102,0.079275,0.064293,-0.21907,-0.23662,-1.2224,-0.81527,0.034059,-1.0504,0.11912,-1.0538
0.029994,-0.034635,0.050967,-0.033694,-0.13898,-0.32407,-0.44539,0.24791,0.53213,0.16668,0.049592,-0.51928,0.0037183,-0.11469,0.083939,0.070073,-0.23651,-0.25927,-1.2092,-0.90651,0.017999,-1.21,0.11888,-1.0448
0.01673,-0.01479,0.036344,-0.029074,-0.12206,-0.28875,-0.40497,0.21408,0.524,0.13305,-0.018294,-0.5473,0.0078496,-0.10067,0.087222,0.077375,-0.23907,-0.28354,-1.1981,-0.8943,0.0077035,-1.263,0.11807,-1.0497
0.007038,0.0053016,0.040018,-0.028908,-0.10162,-0.27208,-0.36932,0.13993,0.51486,0.072636,-0.069225,-0.5378,0.019481,-0.07965,0.084975,0.084155,-0.23029,-0.29967,-1.207,-0.76831,0.0079328,-1.1559,0.12387,-1.0299
0.0060453,0.012033,0.049658,-0.033123,-0.084841,-0.27266,-0.34578,0.037749,0.49453,-0.0012454,-0.092176,-0.49048,0.03389,-0.037068,0.076036,0.088153,-0.21532,-0.30242,-1.2428,-0.54806,0.01795,-0.89163,0.14192,-0.92332
0.010413,0.0039802,0.049571,-0.037946,-0.075768,-0.28497,-0.33754,-0.079647,0.45674,-0.077195,-0.084162,-0.42055,0.046658,0.033175,0.061774,0.08735,-0.19769,-0.29342,-1.2962,-0.2755,0.035704,-0.53081,0.1692,-0.67895
0.012612,-0.010088,0.035253,-0.039248,-0.07323,-0.30284,-0.34382,-0.20603,0.40526,-0.15248,-0.0478,-0.35266,0.05726,0.12071,0.044466,0.080281,-0.17842,-0.27914,-1.3478,-0.00448,0.061664,-0.16133,0.19124,-0.28648
0.0087337,-0.021293,0.01562,-0.03601,-0.073644,-0.32007,-0.36155,-0.34084,0.35149,-0.22965,0.013315,-0.30858,0.068719,0.20301,0.026014,0.066444,-0.15768,-0.26677,-1.3803,0.21016,0.098094,0.14109,0.18828,0.21181
0.0020033,-0.028409,0.0015503,-0.030783,-0.075303,-0.32985,-0.38603,-0.48308,0.30559,-0.30932,0.097629,-0.29669,0.083768,0.25904,0.0075633,0.046805,-0.13659,-0.26066,-1.3842,0.32611,0.14441,0.34136,0.14821,0.72983
-0.0012244,-0.036488,-0.0067794,-0.026994,-0.07967,-0.32673,-0.41036,-0.62672,0.26854,-0.38659,0.20403,-0.31011,0.10123,0.28205,-0.010443,0.02399,-0.1174,-0.26041,-1.3557,0.32959,0.19341,0.45056,0.077132,1.1641
0.0014577,-0.049268,-0.020263,-0.025855,-0.088737,-0.31093,-0.42624,-0.76169,0.23178,-0.45339,0.32663,-0.33339,0.11612,0.28211,-0.028126,0.0016972,-0.10181,-0.26071,-1.2905,0.24504,0.23266,0.50886,-0.0011058,1.4312
0.0058163,-0.06411,-0.048252,-0.025656,-0.10182,-0.29037,-0.42733,-0.87972,0.18451,-0.5038,0.45108,-0.3514,0.12334,0.27692,-0.045649,-0.016653,-0.08923,-0.25335,-1.1831,0.12653,0.25093,0.55531,-0.057682,1.5045
0.0054126,-0.074516,-0.085962,-0.023712,-0.11547,-0.2761,-0.413,-0.9801,0.12207,-0.53865,0.55767,-0.35372,0.1216,0.27819,-0.062037,-0.029279,-0.076792,-0.23144,-1.0336,0.029119,0.24478,0.60032,-0.075592,1.4306
-0.0015911,-0.076747,-0.11543,-0.018762,-0.12653,-0.27327,-0.3887,-1.0712,0.048704,-0.56718,0.63082,-0.33297,0.11416,0.28383,-0.074116,-0.036461,-0.06125,-0.19448,-0.8541,-0.025218,0.22038,0.61656,-0.058686,1.3126
-0.010492,-0.072864,-0.12032,-0.01162,-0.13467,-0.27557,-0.36184,-1.1666,-0.026531,-0.60497,0.6687,-0.28142,0.10596,0.28097,-0.077114,-0.039632,-0.041313,-0.15052,-0.66767,-0.062774,0.1892,0.55513,-0.026906,1.2598
-0.015103,-0.066965,-0.10067,-0.0039347,-0.14144,-0.26933,-0.33658,-1.2766,-0.096162,-0.66721,0.68446,-0.1914,0.099998,0.25663,-0.067614,-0.03976,-0.018568,-0.11258,-0.49535,-0.14071,0.16124,0.37809,-0.0021304,1.33
-0.014515,-0.05933,-0.07334,0.003247,-0.14675,-0.24514,-0.31238,-1.401,-0.15705,-0.7585,0.69677,-0.060659,0.095751,0.20776,-0.047319,-0.036249,0.0036709,-0.090215,-0.34216,-0.30648,0.14098,0.086541,0.0043458,1.4985
-0.014296,-0.045779,-0.057152,0.009655,-0.14696,-0.20658,-0.28782,-1.5237,-0.20833,-0.86442,0.71608,0.10228,0.090498,0.14432,-0.024446,-0.027256,0.022644,-0.082211,-0.19332,-0.56204,0.12831,-0.27489,-0.0058336,1.6761
-0.020498,-0.02387,-0.056525,0.01497,-0.13702,-0.16781,-0.26575,-1.6165,-0.24827,-0.95292,0.73747,0.27837,0.081647,0.08417,-0.010537,-0.01123,0.037848,-0.076594,-0.025532,-0.85863,0.12243,-0.64015,-0.025385,1.7629
-0.032438,0.00049287,-0.058885,0.01845,-0.11514,-0.14144,-0.25409,-1.6502,-0.27449,-0.98888,0.7461,0.44556,0.068297,0.044112,-0.013771,0.011479,0.051003,-0.058908,0.17446,-1.1254,0.12422,-0.95441,-0.050278,1.7036
-0.041907,0.014098,-0.047961,0.019797,-0.085079,-0.12765,-0.26045,-1.6104,-0.28749,-0.95499,0.73056,0.58838,0.051602,0.031928,-0.033202,0.038177,0.064459,-0.022724,0.39862,-1.3101,0.13426,-1.1941,-0.082455,1.5072
-0.04034,0.0061486,-0.020301,0.020319,-0.053747,-0.11501,-0.28465,-1.5081,-0.29328,-0.86394,0.69279,0.70302,0.03457,0.043011,-0.058545,0.064881,0.079294,0.026096,0.62241,-1.4029,0.14835,-1.3624,-0.12559,1.2245
-0.027414,-0.021334,0.010446,0.022763,-0.026235,-0.092619,-0.31572,-1.3772,-0.30122,-0.74988,0.64553,0.7947,0.021517,0.062842,-0.076558,0.088072,0.094529,0.074867,0.82101,-1.4286,0.15531,-1.468,-0.17961,0.90644
-0.012585,-0.052387,0.025176,0.029384,-0.003323,-0.062421,-0.33679,-1.2562,-0.31809,-0.64236,0.60028,0.87054,0.016648,0.074728,-0.079932,0.10591,0.10805,0.11454,0.98348,-1.418,0.14088,-1.5075,-0.23984,0.57901
-0.0074393,-0.067677,0.015972,0.039826,0.01624,-0.040028,-0.33498,-1.1662,-0.34352,-0.54148,0.55702,0.93435,0.021749,0.069826,-0.072117,0.11827,0.11854,0.14615,1.1137,-1.3833,0.096757,-1.4661,-0.30052,0.24754
-0.015507,-0.058729,-0.0072929,0.050992,0.031407,-0.042402,-0.30955,-1.1002,-0.37125,-0.41543,0.50576,0.98654,0.034547,0.053891,-0.064151,0.12596,0.12684,0.17811,1.2195,-1.3157,0.028755,-1.3352,-0.35803,-0.085377
-0.028927,-0.034085,-0.025743,0.059397,0.037585,-0.07292,-0.27265,-1.0333,-0.39481,-0.22674,0.43822,1.0275,0.049729,0.045249,-0.065761,0.13001,0.13549,0.21725,1.3011,-1.2024,-0.042522,-1.1285,-0.40948,-0.41443
-0.035271,-0.012219,-0.027179,0.064051,0.030467,-0.1168,-0.24249,-0.94763,-0.4125,0.029763,0.35814,1.0599,0.062608,0.063251,-0.077875,0.13153,0.14653,0.26193,1.3498,-1.0449,-0.090815,-0.88216,-0.44867,-0.7462
-0.028446,-0.0071708,-0.014823,0.067132,0.011398,-0.15084,-0.23332,-0.85218,-0.42702,0.3063,0.27963,1.0872,0.072559,0.11378,-0.092677,0.13181,0.15908,0.30291,1.3574,-0.86255,-0.098068,-0.63794,-0.46522,-1.114
-0.013795,-0.01876,-0.0025217,0.071628,-0.011484,-0.15894,-0.24871,-0.78054,-0.44087,0.51823,0.21465,1.1102,0.082931,0.18213,-0.10108,0.13232,0.16894,0.33052,1.3268,-0.6783,-0.063974,-0.42366,-0.45002,-1.5656
-0.0028998,-0.034874,-0.0020381,0.07811,-0.028381,-0.14047,-0.28187,-0.76584,-0.45214,0.59021,0.16147,1.1255,0.097131,0.23935,-0.10099,0.13429,0.17076,0.34105,1.2731,-0.50267,-0.0047899,-0.24623,-0.40339,-2.1219
-0.0030998,-0.042773,-0.014038,0.083845,-0.03505,-0.10561,-0.32235,-0.81178,-0.45479,0.50174,0.10534,1.1278,0.1145,0.25843,-0.098987,0.13853,0.16161,0.33754,1.2136,-0.3295,0.057217,-0.10014,-0.33845,-2.7362
-0.011421,-0.03909,-0.029572,0.085383,-0.035468,-0.063718,-0.36403,-0.88264,-0.44263,0.29986,0.030999,1.1136,0.13015,0.22927,-0.10398,0.14547,0.14333,0.32561,1.1548,-0.14841,0.10564,0.01956,-0.27517,-3.296
-0.018154,-0.030441,-0.038909,0.082309,-0.037377,-0.016247,-0.40853,-0.92128,-0.41316,0.069691,-0.06464,1.0828,0.13928,0.16229,-0.11851,0.1554,0.12147,0.30965,1.088,0.037279,0.13497,0.11174,-0.2289,-3.6773
-0.016163,-0.025646,-0.038986,0.078421,-0.044941,0.039943,-0.46155,-0.88239,-0.36838,-0.1157,-0.17097,1.0371,0.14179,0.07982,-0.13574,0.16816,0.10148,0.29308,0.99593,0.2023,0.14719,0.17272,-0.20238,-3.8168
-0.0069518,-0.027831,-0.033828,0.0788,-0.055618,0.10359,-0.52501,-0.75687,-0.31325,-0.23027,-0.27381,0.97574,0.14269,0.0026156,-0.14466,0.18266,0.084731,0.28081,0.86637,0.30942,0.14545,0.20009,-0.18737,-3.7476
0.0018398,-0.033518,-0.029609,0.085225,-0.064248,0.16461,-0.59229,-0.57128,-0.25417,-0.29287,-0.36701,0.89469,0.14752,-0.058677,-0.13898,0.19671,0.067521,0.27905,0.70135,0.33229,0.13146,0.18995,-0.17389,-3.5692
0.0043936,-0.03812,-0.030125,0.094234,-0.070183,0.20951,-0.65177,-0.36638,-0.19834,-0.33644,-0.45527,0.79001,0.1573,-0.10279,-0.1219,0.2081,0.044268,0.29067,0.51646,0.27666,0.10827,0.1323,-0.15893,-3.3733
0.0020119,-0.041082,-0.036103,0.099888,-0.079982,0.232,-0.69703,-0.1738,-0.15286,-0.37823,-0.54725,0.66315,0.16793,-0.13076,-0.10314,0.21625,0.012742,0.30968,0.33141,0.1854,0.083159,0.01523,-0.14761,-3.1833
0.00080232,-0.045247,-0.046808,0.098854,-0.10225,0.23861,-0.7352,-0.0081642,-0.12236,-0.4147,-0.64759,0.52392,0.17466,-0.13937,-0.091419,0.22307,-0.022684,0.32147,0.15959,0.12226,0.06554,-0.15874,-0.147,-2.9524
0.0045966,-0.051959,-0.06064,0.093151,-0.13885,0.24426,-0.78482,0.12466,-0.10677,-0.43895,-0.75562,0.3881,0.17706,-0.12024,-0.08909,0.23168,-0.052717,0.31143,0.0037303,0.14227,0.059952,-0.35719,-0.15883,-2.6176
0.010578,-0.058103,-0.074147,0.087995,-0.18049,0.26175,-0.86236,0.21659,-0.10169,-0.45745,-0.87078,0.27073,0.17936,-0.06542,-0.092859,0.24366,-0.069054,0.27654,-0.14045,0.26613,0.061065,-0.52176,-0.17735,-2.1625
0.012081,-0.058788,-0.082162,0.08688,-0.2114,0.29487,-0.96649,0.25793,-0.10183,-0.48669,-0.99707,0.17955,0.18562,0.024526,-0.098527,0.25664,-0.070287,0.23024,-0.27674,0.47447,0.056915,-0.59642,-0.1931,-1.6408
0.0055981,-0.052664,-0.081026,0.088611,-0.21943,0.3401,-1.0724,0.24971,-0.10455,-0.53438,-1.1403,0.1123,0.19449,0.13574,-0.10466,0.26484,-0.0631,0.19488,-0.40307,0.72545,0.039272,-0.56227,-0.19844,-1.1429
-0.0052477,-0.043631,-0.072658,0.089088,-0.20343,0.39345,-1.1416,0.21445,-0.10954,-0.58802,-1.3,0.058957,0.19918,0.24392,-0.11198,0.26238,-0.057491,0.18597,-0.51185,0.98277,0.012444,-0.45087,-0.19035,-0.73722
-0.012915,-0.036639,-0.064713,0.085897,-0.17219,0.45399,-1.1403,0.19139,-0.11476,-0.62772,-1.4639,0.007092,0.19327,0.32439,-0.12008,0.24752,-0.05945,0.20034,-0.59518,1.2327,-0.0080733,-0.32318,-0.16975,-0.43206
-0.01319,-0.032087,-0.064997,0.081006,-0.13652,0.5208,-1.0543,0.21631,-0.11334,-0.65328,-1.6128,-0.052877,0.17762,0.36364,-0.12532,0.22464,-0.066692,0.21837,-0.65061,1.4783,-0.0071234,-0.22922,-0.13992,-0.18354
-0.0092273,-0.025239,-0.074398,0.07873,-0.10182,0.58763,-0.8912,0.30063,-0.096375,-0.69693,-1.7327,-0.1247,0.16163,0.36484,-0.12264,0.20234,-0.070724,0.21916,-0.68369,1.7174,0.017783,-0.18022,-0.10603,0.061152
-0.0083676,-0.011691,-0.085296,0.080925,-0.06705,0.6433,-0.6721,0.42649,-0.060529,-0.80204,-1.8271,-0.20644,0.15689,0.34323,-0.10965,0.18871,-0.063545,0.19687,-0.70602,1.928,0.054009,-0.15423,-0.074957,0.32235
-0.014882,0.0068853,-0.087979,0.08427,-0.029795,0.67965,-0.42152,0.56072,-0.013684,-0.98022,-1.917,-0.29324,0.16801,0.31486,-0.08923,0.18689,-0.043684,0.16456,-0.73004,2.0764,0.083521,-0.12712,-0.053356,0.5772
-0.025803,0.023188,-0.079727,0.082719,0.0085112,0.70012,-0.16209,0.67563,0.028362,-1.1839,-2.0288,-0.38092,0.18783,0.28681,-0.068085,0.19342,-0.016991,0.14268,-0.76318,2.1447,0.096501,-0.099925,-0.044094,0.78149
-0.033798,0.030896,-0.067873,0.073206,0.04226,0.71938,0.086038,0.76053,0.053123,-1.3242,-2.1767,-0.46842,0.20132,0.25603,-0.052339,0.20037,0.0081072,0.14218,-0.80355,2.1521,0.097413,-0.097069,-0.043818,0.90143
-0.034096,0.030696,-0.063362,0.059365,0.066191,0.75226,0.30617,0.81854,0.061432,-1.327,-2.351,-0.55731,0.19517,0.21649,-0.043459,0.19978,0.026917,0.15673,-0.83896,2.1476,0.099016,-0.13619,-0.044553,0.93134
-0.028667,0.029376,-0.070562,0.049485,0.079831,0.80053,0.48851,0.85681,0.066719,-1.1875,-2.5212,-0.64842,0.16605,0.16794,-0.037518,0.18786,0.041448,0.16994,-0.85071,2.1761,0.11041,-0.19466,-0.038705,0.89038
-0.023926,0.032922,-0.083078,0.05005,0.087412,0.84957,0.63317,0.8816,0.083015,-0.98023,-2.6499,-0.73796,0.12162,0.11835,-0.028051,0.16695,0.058001,0.17014,-0.8215,2.2449,0.12979,-0.20286,-0.023517,0.81004
-0.024677,0.040948,-0.089804,0.060189,0.093652,0.87875,0.74822,0.90113,0.11174,-0.81315,-2.709,-0.81646,0.074247,0.07837,-0.010212,0.14414,0.081475,0.15932,-0.74411,2.3193,0.14743,-0.075472,-0.0014162,0.72624
-0.030416,0.048387,-0.085405,0.071783,0.099992,0.87693,0.84344,0.9288,0.13926,-0.75948,-2.6865,-0.87222,0.032894,0.053064,0.016616,0.12716,0.11075,0.1492,-0.62524,2.3509,0.15517,0.23425,0.023303,0.67761
-0.037138,0.052496,-0.074918,0.075217,0.10514,0.84969,0.92561,0.97885,0.14813,-0.81415,-2.5835,-0.89791,-0.0010671,0.038232,0.049165,0.11957,0.13848,0.14939,-0.48157,2.314,0.15318,0.69018,0.04766,0.70082
-0.042056,0.05724,-0.067898,0.066152,0.10895,0.81264,1.0004,1.0552,0.13236,-0.90443,-2.4063,-0.89593,-0.031852,0.024204,0.082775,0.11803,0.15535,0.1592,-0.33016,2.2198,0.14838,1.1695,0.070013,0.81653
-0.046001,0.069658,-0.068009,0.048049,0.11509,0.77762,1.0785,1.1434,0.10314,-0.94296,-2.1633,-0.8784,-0.063957,0.0032351,0.11388,0.11356,0.15573,0.1696,-0.18098,2.0986,0.1465,1.5095,0.087912,1.0139
-0.051352,0.091411,-0.068643,0.028855,0.12891,0.74489,1.1766,1.2148,0.079752,-0.88285,-1.8692,-0.8611,-0.098125,-0.026099,0.14054,0.096749,0.14103,0.17185,-0.037427,1.9703,0.14547,1.5861,0.097429,1.2498
-0.058323,0.1145,-0.059272,0.014914,0.15252,0.70765,1.3094,1.241,0.073493,-0.73757,-1.5484,-0.85479,-0.13123,-0.060683,0.16081,0.063839,0.1185,0.16393,0.096264,1.8326,0.13568,1.3824,0.095911,1.4701
