-2.4888e-010,1.4682e-009,3.6638e-009,-9.8588e-010,-3.5306e-010,1.4836e-009,4.0226e-009,-7.9294e-010,6.3667e-011,-6.9648e-010,1.6457e-009,-9.087e-010,-3.4535e-010,1.4103e-009,3.3473e-009,-3.4149e-010,-2.6046e-010,1.2097e-009,2.6798e-009,-1.8116e-009,4.6496e-010,1.746e-009,1.3139e-009,2.2361e-009
-7.0048e-009,4.0429e-008,1.013e-007,-2.7193e-008,-9.9262e-009,4.096e-008,1.1053e-007,-2.2159e-008,1.5008e-009,-1.9169e-008,4.5234e-008,-2.5385e-008,-9.6049e-009,3.9331e-008,9.2368e-008,-9.2899e-009,-7.2784e-009,3.3293e-008,7.4145e-008,-5.0027e-008,1.2555e-008,4.8041e-008,3.5998e-008,6.137e-008
-9.5849e-008,5.4114e-007,1.3615e-006,-3.6458e-007,-1.3536e-007,5.4963e-007,1.4764e-006,-3.0124e-007,1.6502e-008,-2.5679e-007,6.0443e-007,-3.4486e-007,-1.2986e-007,5.3313e-007,1.2392e-006,-1.2271e-007,-9.887e-008,4.4551e-007,9.9745e-007,-6.7124e-007,1.6454e-007,6.4248e-007,4.798e-007,8.1841e-007
-8.4901e-007,4.6904e-006,1.1851e-005,-3.1655e-006,-1.1925e-006,4.7758e-006,1.2775e-005,-2.6545e-006,1.1023e-007,-2.2314e-006,5.2312e-006,-3.0357e-006,-1.1371e-006,4.6794e-006,1.0769e-005,-1.0484e-006,-8.6991e-007,3.8619e-006,8.6918e-006,-5.8296e-006,1.3941e-006,5.5645e-006,4.1451e-006,7.0643e-006
-5.4677e-006,2.9586e-005,7.5076e-005,-2.0006e-005,-7.627e-006,3.0201e-005,8.0475e-005,-1.7042e-005,4.7832e-007,-1.4143e-005,3.2959e-005,-1.9462e-005,-7.2501e-006,2.989e-005,6.8128e-005,-6.5098e-006,-5.5729e-006,2.4373e-005,5.5141e-005,-3.6827e-005,8.5809e-006,3.508e-005,2.6092e-005,4.4352e-005
-2.7253e-005,0.00014469,0.00036887,-9.8068e-005,-3.7722e-005,0.00014809,0.00039327,-8.4939e-005,1.2335e-006,-6.969e-005,0.00016106,-9.6825e-005,-3.5863e-005,0.00014803,0.00033429,-3.129e-005,-2.7703e-005,0.00011932,0.00027132,-0.00018027,4.0871e-005,0.00017153,0.00012752,0.00021575
-0.00010923,0.00057058,0.0014622,-0.00038788,-0.00015002,0.00058561,0.0015509,-0.00034191,3.4821e-007,-0.00027791,0.00063499,-0.00038892,-0.00014319,0.00059122,0.0013234,-0.00012105,-0.00011119,0.00047135,0.0010771,-0.00071115,0.00015664,0.00067675,0.00050341,0.00084553
-0.00036098,0.0018626,0.0048016,-0.0012712,-0.00049243,0.0019175,0.0050681,-0.0011414,-1.4027e-005,-0.00092161,0.0020736,-0.0012953,-0.00047385,0.0019552,0.0043394,-0.00038677,-0.00037012,0.0015426,0.0035414,-0.0023209,0.00049572,0.0022123,0.0016487,0.0027401
-0.00099985,0.0051251,0.013307,-0.0035171,-0.001358,0.0052945,0.013982,-0.0032191,-8.1183e-005,-0.0025918,0.0057126,-0.003644,-0.001324,0.005453,0.012005,-0.0010386,-0.0010413,0.00426,0.0098231,-0.0063808,0.0013185,0.0061042,0.0045644,0.0074743
-0.0023449,0.012038,0.031532,-0.0083236,-0.0031848,0.012485,0.032991,-0.0077711,-0.00029172,-0.0062713,0.013446,-0.0087765,-0.0031636,0.012992,0.02838,-0.0023714,-0.0025095,0.010056,0.023281,-0.014966,0.0029817,0.014404,0.010826,0.017369
-0.0046789,0.024335,0.064468,-0.017005,-0.0064008,0.025354,0.067192,-0.016202,-0.00079296,-0.0132,0.027271,-0.018265,-0.0065201,0.02667,0.057837,-0.0046334,-0.0052306,0.020467,0.047554,-0.030197,0.0057725,0.029334,0.022207,0.034644
-0.0079334,0.042533,0.11437,-0.030164,-0.011062,0.044553,0.1188,-0.029335,-0.0017303,-0.024375,0.047883,-0.033045,-0.011642,0.047415,0.10213,-0.0077591,-0.0094861,0.036097,0.08414,-0.052656,0.0095827,0.05184,0.039655,0.059498
-0.011325,0.064316,0.1765,-0.04657,-0.016421,0.067807,0.18282,-0.046237,-0.0030965,-0.039757,0.07284,-0.052133,-0.018017,0.073108,0.15652,-0.011083,-0.015014,0.05525,0.12918,-0.079434,0.013578,0.079704,0.061883,0.087849
-0.013289,0.083818,0.23686,-0.062515,-0.020786,0.089093,0.24485,-0.063391,-0.0045457,-0.057614,0.095629,-0.071734,-0.024047,0.097515,0.20783,-0.013301,-0.020727,0.073198,0.17175,-0.10333,0.016174,0.10654,0.084548,0.11064
-0.012065,0.093188,0.27537,-0.072563,-0.022043,0.10018,0.28444,-0.075275,-0.0053439,-0.074618,0.10716,-0.085825,-0.027326,0.11164,0.23751,-0.01293,-0.024837,0.083254,0.19653,-0.1149,0.01559,0.12334,0.10119,0.1167
-0.0068801,0.086553,0.27544,-0.071926,-0.018829,0.094792,0.28498,-0.076828,-0.004638,-0.087009,0.10005,-0.088696,-0.025715,0.10797,0.23074,-0.0091959,-0.025538,0.079902,0.19138,-0.10732,0.010874,0.12293,0.10621,0.099086
0.0010391,0.064289,0.23517,-0.059363,-0.011668,0.073325,0.24495,-0.066782,-0.0020243,-0.092363,0.073482,-0.078374,-0.018807,0.085593,0.18662,-0.0028175,-0.022003,0.062463,0.15606,-0.081513,0.0027703,0.10519,0.098542,0.061325
0.0087094,0.034186,0.1717,-0.038538,-0.0031207,0.044394,0.18226,-0.049521,0.0019294,-0.090843,0.035202,-0.058569,-0.0087691,0.05237,0.12194,0.0040195,-0.015053,0.036557,0.10543,-0.047246,-0.0063094,0.079235,0.083171,0.018308
0.013249,0.0075501,0.11318,-0.016377,0.0035239,0.020841,0.12593,-0.033363,0.0057135,-0.084932,-0.0020173,-0.03711,0.00037685,0.021383,0.063185,0.0087996,-0.0068977,0.011491,0.06262,-0.018078,-0.013481,0.059579,0.068893,-0.010962
0.014217,-0.0078005,0.081596,0.00089254,0.0063099,0.011814,0.098669,-0.02559,0.0076643,-0.077708,-0.027747,-0.021241,0.0050321,0.0028942,0.030356,0.010333,7.0088e-005,-0.0053399,0.044852,-0.0027755,-0.017043,0.057542,0.063034,-0.015215
0.014325,-0.012447,0.078542,0.011314,0.005929,0.016385,0.10246,-0.027402,0.0070943,-0.070919,-0.040077,-0.012844,0.0044785,-0.002621,0.024004,0.0097142,0.0046696,-0.01313,0.051897,0.00051971,-0.017368,0.073342,0.066881,0.0010941
0.017325,-0.013893,0.085236,0.017602,0.0051764,0.024004,0.11842,-0.032793,0.0049228,-0.064316,-0.045722,-0.0073144,0.0015915,-0.0045886,0.026107,0.0096834,0.0074685,-0.017497,0.06646,0.0023364,-0.016296,0.095034,0.075349,0.020607
0.024357,-0.019489,0.077845,0.024019,0.0068824,0.02215,0.12188,-0.032683,0.0032174,-0.056707,-0.053842,0.0026889,0.00088939,-0.0146,0.014984,0.012664,0.0099848,-0.025129,0.067251,0.013135,-0.015532,0.10608,0.081272,0.025554
0.032006,-0.0297,0.046238,0.032316,0.011924,0.0056025,0.10085,-0.021426,0.0038894,-0.047682,-0.068641,0.021333,0.0050826,-0.036451,-0.017461,0.018907,0.013143,-0.037364,0.044899,0.034711,-0.015461,0.096727,0.080879,0.010574
0.0344,-0.037874,0.0011068,0.040198,0.018827,-0.019943,0.063164,-0.00062892,0.007488,-0.038414,-0.086876,0.046191,0.01276,-0.062142,-0.06032,0.026232,0.016258,-0.048248,0.0080947,0.058868,-0.015405,0.070927,0.076037,-0.014361
0.02823,-0.03701,-0.035981,0.043647,0.025083,-0.042656,0.027231,0.022684,0.012979,-0.030764,-0.10195,0.070082,0.019245,-0.077653,-0.094141,0.031607,0.017464,-0.049273,-0.024632,0.074387,-0.014911,0.043321,0.071771,-0.033169
0.016484,-0.027417,-0.050575,0.041012,0.028871,-0.053535,0.0056547,0.041782,0.018604,-0.025471,-0.11032,0.086579,0.020163,-0.074214,-0.10751,0.033342,0.015366,-0.03729,-0.040069,0.076157,-0.014581,0.028467,0.071686,-0.037064
0.0071374,-0.017842,-0.046028,0.035191,0.029789,-0.05209,-0.0036828,0.054842,0.023082,-0.021106,-0.114,0.094604,0.014958,-0.055776,-0.10514,0.032141,0.010595,-0.018875,-0.039597,0.068633,-0.01541,0.030493,0.075427,-0.030837
0.0072583,-0.018401,-0.038689,0.031902,0.02831,-0.04469,-0.012191,0.064768,0.026244,-0.014888,-0.11725,0.098469,0.0074639,-0.036279,-0.10124,0.030267,0.0059567,-0.0068152,-0.035677,0.061087,-0.017225,0.041026,0.079989,-0.027174
0.017225,-0.031432,-0.043191,0.035472,0.024953,-0.038119,-0.027551,0.075,0.028704,-0.0048952,-0.12134,0.10375,0.0030629,-0.028849,-0.10563,0.029681,0.0048485,-0.010819,-0.040037,0.059455,-0.018067,0.046566,0.082889,-0.034692
0.030097,-0.048787,-0.061242,0.045669,0.020183,-0.034684,-0.04626,0.08556,0.030951,0.0080953,-0.12309,0.11284,0.0047725,-0.035942,-0.11587,0.030783,0.0090133,-0.029711,-0.054507,0.062252,-0.015611,0.039005,0.083825,-0.050462
0.036961,-0.058551,-0.082778,0.058118,0.015024,-0.032754,-0.058455,0.092954,0.032631,0.02076,-0.11903,0.12382,0.011382,-0.048607,-0.12182,0.032702,0.017254,-0.05173,-0.071638,0.06379,-0.0096136,0.020905,0.083515,-0.063239
0.033908,-0.055457,-0.096731,0.067708,0.011336,-0.030917,-0.059349,0.093616,0.032614,0.029469,-0.11058,0.13297,0.01891,-0.055085,-0.11688,0.034591,0.026137,-0.063189,-0.082812,0.060995,-0.0029487,0.0019399,0.081653,-0.063898
0.024881,-0.045615,-0.10081,0.07204,0.010954,-0.030631,-0.05542,0.087377,0.029809,0.032978,-0.10452,0.13801,0.023888,-0.051028,-0.10433,0.036552,0.032263,-0.058835,-0.085529,0.057056,0.00026815,-0.0096793,0.076731,-0.053499
0.018126,-0.041051,-0.10215,0.072302,0.014142,-0.034492,-0.059168,0.077738,0.024094,0.03348,-0.10753,0.13906,0.025697,-0.042582,-0.093423,0.039338,0.034476,-0.045622,-0.083878,0.05853,-0.0018071,-0.013324,0.068172,-0.042093
0.019391,-0.048793,-0.10966,0.071378,0.018903,-0.042306,-0.077616,0.069062,0.016583,0.035188,-0.11968,0.13711,0.02636,-0.040179,-0.089969,0.043328,0.034376,-0.036831,-0.083451,0.068844,-0.0067469,-0.014944,0.058255,-0.039827
0.027513,-0.064286,-0.12595,0.071246,0.022209,-0.049778,-0.10567,0.063563,0.0089393,0.041547,-0.13336,0.13223,0.028359,-0.049016,-0.091468,0.047948,0.034739,-0.041341,-0.086567,0.08447,-0.0095075,-0.020709,0.051196,-0.048471
0.03579,-0.075086,-0.14577,0.071854,0.02245,-0.051954,-0.13053,0.060725,0.002258,0.053173,-0.13885,0.12382,0.032466,-0.06461,-0.091093,0.052181,0.037123,-0.056671,-0.091978,0.097306,-0.0065953,-0.031329,0.049624,-0.060564
0.037609,-0.071613,-0.16122,0.071946,0.020989,-0.048395,-0.14271,0.059103,-0.0034807,0.067805,-0.13175,0.11226,0.03717,-0.076789,-0.085761,0.055556,0.040594,-0.071181,-0.097893,0.10105,0.00088779,-0.041859,0.051767,-0.066352
0.031559,-0.055491,-0.1684,0.070558,0.021157,-0.044702,-0.14355,0.058237,-0.0088447,0.081861,-0.11574,0.099876,0.039877,-0.07798,-0.079628,0.058457,0.042594,-0.07329,-0.10419,0.09582,0.0081356,-0.046617,0.052383,-0.062055
0.022094,-0.038347,-0.16983,0.067624,0.025261,-0.04811,-0.14277,0.058776,-0.013758,0.092191,-0.098541,0.089722,0.038828,-0.068461,-0.079458,0.061344,0.041123,-0.060237,-0.11153,0.087256,0.010733,-0.044463,0.047025,-0.052383
0.015657,-0.032354,-0.17143,0.063374,0.032142,-0.060626,-0.14916,0.061105,-0.016914,0.096996,-0.085409,0.083155,0.034392,-0.054784,-0.086736,0.063693,0.036355,-0.039794,-0.11913,0.081357,0.00826,-0.039839,0.035833,-0.045639
0.01565,-0.040765,-0.17736,0.057596,0.037587,-0.076058,-0.16323,0.064339,-0.016612,0.096028,-0.07593,0.078795,0.028922,-0.043898,-0.094711,0.063929,0.030384,-0.024269,-0.12449,0.079899,0.0042015,-0.038934,0.023377,-0.046254
0.020125,-0.056076,-0.18709,0.049879,0.03749,-0.084189,-0.17795,0.066873,-0.012483,0.090601,-0.066361,0.073953,0.025277,-0.038653,-0.093653,0.060693,0.025522,-0.021886,-0.12582,0.08011,0.0025021,-0.044579,0.014707,-0.0514
0.023603,-0.066566,-0.1963,0.040815,0.031166,-0.078988,-0.18571,0.067799,-0.0065384,0.083436,-0.05439,0.067065,0.024961,-0.037891,-0.079631,0.054404,0.022749,-0.031835,-0.12466,0.078158,0.0041886,-0.054268,0.011258,-0.054269
0.021244,-0.065163,-0.20035,0.032842,0.022012,-0.063862,-0.18467,0.067489,-0.0023536,0.077785,-0.041491,0.058625,0.027126,-0.039434,-0.058698,0.047551,0.021518,-0.045794,-0.1254,0.072776,0.0071841,-0.062711,0.010185,-0.050548
0.012172,-0.053592,-0.19746,0.029412,0.014969,-0.049271,-0.17896,0.066674,-0.0027698,0.075763,-0.031002,0.04981,0.029184,-0.042009,-0.042561,0.043172,0.020682,-0.053923,-0.13142,0.065867,0.0090731,-0.066406,0.0072702,-0.042003
-0.00020439,-0.0395,-0.18958,0.032619,0.012974,-0.044542,-0.17394,0.065149,-0.0079592,0.07695,-0.024329,0.040542,0.02866,-0.044381,-0.039401,0.042553,0.01943,-0.050828,-0.1415,0.060143,0.0096742,-0.066222,0.00035779,-0.034108
-0.010681,-0.029972,-0.18101,0.041044,0.01524,-0.050633,-0.17155,0.061723,-0.015504,0.07876,-0.019172,0.029303,0.024908,-0.043779,-0.047665,0.044059,0.017447,-0.037943,-0.14989,0.056479,0.01073,-0.066098,-0.009744,-0.030338
-0.015578,-0.026817,-0.17577,0.049824,0.018463,-0.059713,-0.16981,0.055647,-0.022437,0.078829,-0.011297,0.014971,0.019396,-0.036657,-0.057812,0.044201,0.014608,-0.021637,-0.15068,0.053503,0.013278,-0.069474,-0.0211,-0.028796
-0.014725,-0.026522,-0.17551,0.053388,0.019521,-0.061602,-0.16591,0.047968,-0.027479,0.077646,0.0020799,-0.0013487,0.014334,-0.022002,-0.060214,0.040252,0.010879,-0.0088906,-0.14279,0.049444,0.015801,-0.076801,-0.032829,-0.024447
-0.011182,-0.023751,-0.17869,0.049068,0.017337,-0.051586,-0.15902,0.041139,-0.031582,0.078904,0.020495,-0.016673,0.010879,-0.0038365,-0.052539,0.032393,0.0066051,-0.0032643,-0.13103,0.044122,0.01543,-0.086063,-0.045372,-0.014738
-0.0092225,-0.015172,-0.18151,0.038843,0.012786,-0.033431,-0.15039,0.03702,-0.036485,0.086668,0.041394,-0.028466,0.0084227,0.010446,-0.040897,0.02363,0.0026203,-0.0032703,-0.12235,0.039086,0.011121,-0.095198,-0.058942,-0.0030113
-0.01197,-0.0010978,-0.17991,0.027775,0.0074202,-0.015774,-0.14132,0.035241,-0.042753,0.10132,0.062652,-0.03664,0.0054897,0.015492,-0.034414,0.017451,-0.00029979,-0.0037517,-0.12024,0.035872,0.0054447,-0.10372,-0.072159,0.0038368
-0.019966,0.015408,-0.17173,0.020284,0.0024854,-0.0053853,-0.13187,0.033733,-0.049069,0.11775,0.083806,-0.043214,0.0012985,0.012669,-0.038052,0.014997,-0.0023103,0.00071039,-0.12202,0.034179,0.0028712,-0.11199,-0.082527,0.0014819
-0.031191,0.030633,-0.15758,0.017125,-0.0011984,-0.0027063,-0.12154,0.031035,-0.053293,0.12774,0.1049,-0.050088,-0.0035418,0.0095738,-0.049257,0.013941,-0.0047453,0.012407,-0.12132,0.031747,0.005937,-0.11938,-0.088369,-0.007605
-0.042252,0.041989,-0.14021,0.015377,-0.0031205,-0.002541,-0.11086,0.028004,-0.054174,0.12531,0.12451,-0.057337,-0.0077904,0.014272,-0.060449,0.0099738,-0.0092128,0.029161,-0.11333,0.026056,0.012942,-0.12356,-0.090352,-0.015847
-0.049963,0.048687,-0.12284,0.01131,-0.0034655,0.0015016,-0.10159,0.02694,-0.052218,0.1111,0.13954,-0.06379,-0.010928,0.028884,-0.064696,-0.00018052,-0.016112,0.045821,-0.098456,0.016311,0.019442,-0.12243,-0.091155,-0.016696
-0.052564,0.051507,-0.1076,0.003728,-0.0037193,0.012623,-0.095105,0.028769,-0.049188,0.092422,0.14764,-0.069196,-0.013662,0.047837,-0.059964,-0.01639,-0.023847,0.057533,-0.081513,0.0040587,0.022177,-0.11674,-0.093567,-0.0096742
-0.050175,0.052239,-0.0951,-0.0048768,-0.0064218,0.029377,-0.090665,0.031122,-0.04691,0.078771,0.15021,-0.075548,-0.017049,0.062143,-0.049212,-0.035003,-0.029555,0.062533,-0.067661,-0.0079174,0.021753,-0.11083,-0.09865,3.6396e-005
-0.044518,0.053107,-0.084971,-0.010175,-0.013555,0.047261,-0.085503,0.029605,-0.046366,0.075758,0.1528,-0.085942,-0.021182,0.066058,-0.037256,-0.050966,-0.030911,0.062627,-0.058724,-0.017348,0.021665,-0.11004,-0.10544,0.0066877
-0.038123,0.056063,-0.07673,-0.0093237,-0.02457,0.061479,-0.076998,0.021516,-0.047459,0.081626,0.16153,-0.10187,-0.024873,0.060809,-0.027492,-0.060671,-0.027713,0.061299,-0.052813,-0.02348,0.02476,-0.11648,-0.11226,0.0088337
-0.033348,0.061811,-0.070173,-0.0032212,-0.035919,0.069023,-0.064948,0.0086214,-0.049197,0.088671,0.17799,-0.12144,-0.026748,0.05283,-0.020826,-0.063716,-0.022103,0.061092,-0.046924,-0.026841,0.03057,-0.12665,-0.11843,0.0097159
-0.03153,0.069041,-0.065234,0.0038497,-0.043036,0.069457,-0.051881,-0.0038597,-0.05002,0.088594,0.19712,-0.14027,-0.026673,0.048505,-0.016701,-0.062637,-0.017328,0.062271,-0.039716,-0.02838,0.035937,-0.1332,-0.12482,0.013412
-0.032632,0.074776,-0.061652,0.0067992,-0.043555,0.064713,-0.041234,-0.011442,-0.048357,0.078217,0.21047,-0.1543,-0.02599,0.049801,-0.014393,-0.061032,-0.015897,0.063488,-0.031992,-0.028889,0.038132,-0.12976,-0.13264,0.020832
-0.035568,0.076223,-0.058713,0.0027128,-0.039173,0.05822,-0.035159,-0.014032,-0.043475,0.061691,0.21267,-0.16215,-0.026296,0.053905,-0.013241,-0.061413,-0.018279,0.063523,-0.024954,-0.02902,0.037388,-0.11525,-0.14149,0.029282
-0.039045,0.073145,-0.055127,-0.0076071,-0.034401,0.053449,-0.03381,-0.015631,-0.036186,0.047588,0.20598,-0.16532,-0.027989,0.056466,-0.012118,-0.064139,-0.022851,0.062519,-0.018382,-0.029479,0.036519,-0.094429,-0.14843,0.035537
-0.042373,0.068807,-0.049087,-0.020352,-0.032981,0.052267,-0.036222,-0.02032,-0.028634,0.042764,0.19868,-0.16629,-0.030132,0.055412,-0.0094131,-0.067936,-0.027133,0.061877,-0.010681,-0.030877,0.038155,-0.074529,-0.14935,0.038997
-0.045713,0.068285,-0.0387,-0.031169,-0.034901,0.054028,-0.041333,-0.028271,-0.022979,0.047281,0.19862,-0.16634,-0.031778,0.052434,-0.0040396,-0.071379,-0.029607,0.063259,-0.00061478,-0.033263,0.04229,-0.060618,-0.14221,0.041861
-0.049658,0.075032,-0.022811,-0.037921,-0.036647,0.056301,-0.047893,-0.035595,-0.019833,0.054207,0.20705,-0.1649,-0.033383,0.051481,0.0034638,-0.074078,-0.030985,0.067722,0.011194,-0.03591,0.046353,-0.053221,-0.12968,0.046454
-0.054509,0.088154,-0.001775,-0.04203,-0.034645,0.056986,-0.053637,-0.038158,-0.017799,0.054639,0.21799,-0.16043,-0.036753,0.055966,0.0111,-0.076641,-0.033858,0.075463,0.022679,-0.037805,0.047581,-0.049539,-0.11872,0.052668
-0.059746,0.10241,0.022533,-0.047369,-0.029025,0.056261,-0.055276,-0.035727,-0.014658,0.044245,0.2233,-0.1519,-0.043417,0.066847,0.017073,-0.079609,-0.040642,0.085833,0.032391,-0.038611,0.045413,-0.046723,-0.11658,0.058109
-0.06397,0.1109,0.047647,-0.057194,-0.024329,0.056721,-0.050021,-0.032458,-0.0092972,0.026296,0.21916,-0.1398,-0.052841,0.082371,0.021576,-0.08245,-0.051102,0.097132,0.041236,-0.039224,0.041828,-0.044345,-0.12578,0.060658
-0.065361,0.10856,0.071662,-0.071224,-0.026227,0.061506,-0.037501,-0.033265,-0.0027658,0.0087863,0.20841,-0.12611,-0.06209,0.098731,0.027007,-0.08361,-0.061509,0.10636,0.052104,-0.041285,0.03951,-0.044283,-0.14193,0.060741
-0.062566,0.094681,0.093604,-0.085292,-0.036725,0.071845,-0.019991,-0.039482,0.0024676,-0.0020054,0.19744,-0.11358,-0.067313,0.11076,0.03622,-0.081585,-0.066573,0.10976,0.067436,-0.045868,0.039589,-0.048559,-0.15647,0.060961
-0.055778,0.073658,0.11282,-0.094239,-0.051823,0.085836,-0.00032864,-0.047865,0.0044286,-0.0062634,0.19063,-0.10473,-0.065985,0.11298,0.050145,-0.076016,-0.063143,0.10458,0.086645,-0.052387,0.040821,-0.057222,-0.16257,0.063439
-0.047342,0.053691,0.12835,-0.095997,-0.06377,0.099133,0.020647,-0.05368,0.0031849,-0.009919,0.18729,-0.10078,-0.058444,0.10197,0.066721,-0.067871,-0.052932,0.091313,0.10558,-0.058754,0.040629,-0.067883,-0.15991,0.06742
-0.041067,0.043604,0.13932,-0.093398,-0.066349,0.10682,0.044362,-0.054832,0.00085371,-0.019202,0.18306,-0.10095,-0.047815,0.079715,0.081981,-0.05874,-0.041904,0.07455,0.11869,-0.062836,0.036917,-0.076934,-0.15462,0.069488
-0.040075,0.048227,0.14619,-0.091907,-0.059141,0.10542,0.07176,-0.053258,0.00012664,-0.035011,0.17399,-0.1025,-0.038437,0.055259,0.092436,-0.050123,-0.036488,0.061097,0.12253,-0.064178,0.029295,-0.081185,-0.15437,0.066361
-0.044386,0.064545,0.15125,-0.09499,-0.047498,0.094415,0.10002,-0.052661,0.002414,-0.051656,0.15959,-0.10175,-0.033639,0.041469,0.097029,-0.043292,-0.039327,0.056019,0.11807,-0.064626,0.019125,-0.078861,-0.16262,0.057874
-0.05026,0.081889,0.15736,-0.10116,-0.03837,0.07707,0.1224,-0.055159,0.0068919,-0.06096,0.14268,-0.095693,-0.034036,0.047024,0.097444,-0.039478,-0.047708,0.059089,0.11017,-0.067203,0.0087507,-0.069902,-0.17626,0.04762
-0.052381,0.087792,0.1655,-0.10545,-0.035325,0.059839,0.13225,-0.06007,0.011078,-0.058498,0.12689,-0.083179,-0.037325,0.068768,0.096767,-0.039631,-0.055753,0.064513,0.10448,-0.073907,0.00057207,-0.056164,-0.18834,0.040639
-0.047637,0.076594,0.17361,-0.10399,-0.036591,0.049688,0.12835,-0.065529,0.012569,-0.047189,0.11448,-0.065042,-0.039834,0.091395,0.097506,-0.043666,-0.058534,0.064639,0.104,-0.083971,-0.0036606,-0.041598,-0.19344,0.039988
-0.037514,0.05434,0.17829,-0.097612,-0.037338,0.049983,0.11652,-0.070752,0.010814,-0.035489,0.10598,-0.043241,-0.038914,0.09689,0.10017,-0.049986,-0.055018,0.055342,0.10766,-0.09392,-0.003245,-0.031592,-0.19128,0.044791
-0.02697,0.03503,0.17824,-0.091098,-0.034093,0.057546,0.10566,-0.07641,0.0076922,-0.031534,0.10126,-0.01996,-0.034549,0.07785,0.10316,-0.056158,-0.047934,0.039114,0.112,-0.099552,0.0013698,-0.030677,-0.18618,0.051139
-0.020579,0.030019,0.17615,-0.08882,-0.027649,0.063811,0.10096,-0.082925,0.0064408,-0.037588,0.10037,0.0026482,-0.029012,0.044058,0.10411,-0.060481,-0.041149,0.023318,0.11448,-0.098597,0.0087468,-0.039274,-0.18348,0.054927
-0.019183,0.038774,0.17682,-0.090937,-0.022305,0.060411,0.10003,-0.088884,0.0096031,-0.048966,0.10313,0.022311,-0.024907,0.015862,0.10173,-0.063086,-0.036833,0.01476,0.11578,-0.092219,0.016822,-0.051932,-0.18586,0.054355
-0.019837,0.048958,0.18271,-0.093588,-0.022319,0.045529,0.095522,-0.091659,0.017459,-0.058089,0.10804,0.03689,-0.02324,0.0087215,0.097147,-0.065408,-0.034446,0.014781,0.119,-0.084257,0.023398,-0.059426,-0.19214,0.050399
-0.018811,0.046289,0.19093,-0.092758,-0.028602,0.025786,0.082025,-0.089901,0.02801,-0.06036,0.11165,0.045421,-0.023042,0.021296,0.093381,-0.068421,-0.03184,0.018773,0.12642,-0.07872,0.026785,-0.054484,-0.19869,0.045325
-0.014733,0.026139,0.19489,-0.088034,-0.038185,0.011464,0.061253,-0.085491,0.038361,-0.057122,0.10971,0.049214,-0.022616,0.037138,0.093204,-0.071326,-0.027238,0.020352,0.13659,-0.077316,0.026539,-0.03742,-0.20187,0.040867
-0.009104,-0.002847,0.18958,-0.082736,-0.046543,0.008449,0.041011,-0.08281,0.046292,-0.053587,0.099336,0.051772,-0.021035,0.038538,0.096746,-0.072097,-0.020482,0.016489,0.14444,-0.078761,0.023938,-0.01694,-0.19973,0.0376
-0.0041674,-0.025972,0.17587,-0.080482,-0.050609,0.013443,0.028822,-0.085657,0.050872,-0.053916,0.080982,0.057089,-0.018516,0.020613,0.10079,-0.069531,-0.012892,0.0091672,0.14476,-0.080205,0.021635,-0.0044992,-0.19265,0.035696
-0.00062457,-0.034167,0.16007,-0.081642,-0.050116,0.016599,0.025853,-0.094275,0.052052,-0.057888,0.058651,0.067303,-0.015589,-0.0061647,0.10059,-0.064865,-0.0062307,0.0024099,0.13623,-0.079495,0.022285,-0.0058747,-0.18288,0.035879
0.0024825,-0.030313,0.14889,-0.083069,-0.046711,0.0095139,0.026389,-0.10484,0.050041,-0.061807,0.037903,0.081359,-0.012252,-0.026293,0.093122,-0.061284,-0.0017368,-0.0022212,0.12267,-0.076447,0.026858,-0.016493,-0.17349,0.039322
0.0059089,-0.025495,0.14422,-0.081268,-0.042166,-0.008075,0.023068,-0.11174,0.045285,-0.06222,0.022752,0.095566,-0.0081538,-0.032465,0.079304,-0.061494,0.00024658,-0.0072602,0.11032,-0.072362,0.033819,-0.024555,-0.16684,0.046397
0.0087003,-0.029154,0.14205,-0.075842,-0.037397,-0.028356,0.013097,-0.11081,0.038917,-0.058686,0.013436,0.1055,-0.0035058,-0.030078,0.063443,-0.065358,0.0002265,-0.016566,0.10343,-0.06855,0.039914,-0.019786,-0.16326,0.055477
0.0089337,-0.041709,0.13643,-0.069942,-0.032662,-0.041959,0.0001429,-0.1013,0.032946,-0.053283,0.006625,0.10791,0.0005445,-0.030251,0.050288,-0.069655,-0.0005535,-0.030876,0.10172,-0.065405,0.041994,-0.00098925,-0.16065,0.063124
0.0060678,-0.055288,0.12472,-0.067351,-0.028099,-0.045293,-0.0092726,-0.085751,0.029616,-0.048162,-0.0019798,0.10178,0.0028333,-0.039047,0.04187,-0.070338,-0.00034133,-0.046018,0.1016,-0.062785,0.03858,0.023418,-0.15567,0.065859
0.0023486,-0.061028,0.10971,-0.069002,-0.023729,-0.042792,-0.011272,-0.068267,0.030243,-0.044152,-0.014487,0.088327,0.0035958,-0.053005,0.036459,-0.065547,0.0024249,-0.055642,0.099749,-0.061052,0.030213,0.041923,-0.14576,0.062339
0.001477,-0.056314,0.096967,-0.072105,-0.019143,-0.042701,-0.0073004,-0.05267,0.034405,-0.041746,-0.02946,0.070593,0.0047266,-0.063998,0.030228,-0.057079,0.0079821,-0.056144,0.095833,-0.061411,0.018773,0.047988,-0.13078,0.054306
0.0055082,-0.04623,0.090064,-0.072568,-0.013669,-0.050245,-0.0023424,-0.041422,0.040171,-0.042603,-0.04345,0.052455,0.0082067,-0.067464,0.020159,-0.049159,0.014516,-0.049562,0.092092,-0.064936,0.0065618,0.043562,-0.11309,0.045536
0.012914,-0.038841,0.087677,-0.068426,-0.0071941,-0.063658,-0.00097697,-0.035385,0.045221,-0.048905,-0.054218,0.03729,0.013992,-0.065821,0.0059432,-0.045487,0.01889,-0.042055,0.090606,-0.071072,-0.0043502,0.036191,-0.096141,0.039446
0.019824,-0.038906,0.084949,-0.06128,-0.00072213,-0.075788,-0.0047493,-0.034052,0.048093,-0.060524,-0.063057,0.026602,0.019545,-0.064689,-0.010289,-0.046768,0.018837,-0.039451,0.090891,-0.077119,-0.012679,0.033003,-0.082531,0.036977
0.023457,-0.045221,0.077652,-0.054672,0.004283,-0.079576,-0.012308,-0.035941,0.048692,-0.07305,-0.074199,0.019533,0.021822,-0.0668,-0.025784,-0.05052,0.015074,-0.043525,0.09005,-0.079437,-0.018547,0.036437,-0.072925,0.036264
0.024526,-0.053077,0.065584,-0.050994,0.0074144,-0.073111,-0.02109,-0.039117,0.047847,-0.079719,-0.09159,0.013807,0.020081,-0.070034,-0.038833,-0.053205,0.011325,-0.051697,0.085255,-0.075605,-0.023764,0.044177,-0.066262,0.034351
0.026291,-0.058879,0.052493,-0.049576,0.010109,-0.060757,-0.028684,-0.041872,0.046404,-0.076503,-0.1154,0.0075745,0.016803,-0.070983,-0.049077,-0.052968,0.011738,-0.05977,0.076272,-0.065892,-0.031109,0.052075,-0.060859,0.029736
0.031065,-0.062588,0.042804,-0.04741,0.014565,-0.049982,-0.033343,-0.043351,0.04466,-0.065935,-0.14103,0.00072573,0.015614,-0.069553,-0.056661,-0.050874,0.017543,-0.065102,0.065805,-0.052967,-0.042643,0.057199,-0.055447,0.023748
0.037488,-0.066229,0.037945,-0.041731,0.021568,-0.046455,-0.034392,-0.043765,0.042588,-0.055689,-0.16166,-0.0053688,0.017979,-0.069411,-0.06144,-0.049707,0.025852,-0.067822,0.057397,-0.040243,-0.058192,0.059154,-0.049493,0.019482
0.04127,-0.070593,0.035236,-0.032314,0.029379,-0.050831,-0.032934,-0.043919,0.040489,-0.052634,-0.17261,-0.0093098,0.021801,-0.073864,-0.063176,-0.051388,0.031889,-0.069718,0.052674,-0.030264,-0.075386,0.059712,-0.042793,0.01889
0.038881,-0.073781,0.03009,-0.021765,0.03501,-0.059088,-0.031909,-0.044335,0.039244,-0.057473,-0.1746,-0.010901,0.023317,-0.081727,-0.062452,-0.055194,0.032909,-0.072303,0.050172,-0.024221,-0.091398,0.061728,-0.034911,0.020394
0.030915,-0.073077,0.019636,-0.013751,0.036851,-0.065703,-0.034448,-0.044667,0.039674,-0.064785,-0.17337,-0.011137,0.020594,-0.087714,-0.061072,-0.058304,0.030367,-0.075705,0.046589,-0.022506,-0.10493,0.067894,-0.025046,0.019293
0.022058,-0.068116,0.0048667,-0.010574,0.036093,-0.067224,-0.041044,-0.043959,0.041484,-0.068293,-0.17572,-0.01128,0.015297,-0.087199,-0.06109,-0.058207,0.028324,-0.078901,0.039329,-0.025282,-0.11664,0.079401,-0.012453,0.01107
0.017621,-0.061899,-0.010214,-0.011764,0.035453,-0.063925,-0.048023,-0.041577,0.042975,-0.066357,-0.18482,-0.012248,0.011104,-0.080614,-0.062974,-0.054825,0.029506,-0.080604,0.028317,-0.032299,-0.12752,0.094773,0.0028911,-0.0048866
0.019581,-0.05834,-0.021573,-0.014421,0.036391,-0.05885,-0.049468,-0.03789,0.042211,-0.062781,-0.19815,-0.014912,0.010322,-0.073135,-0.064607,-0.050417,0.032632,-0.079907,0.015818,-0.042164,-0.137,0.10974,0.019918,-0.024318
0.025412,-0.0587,-0.027789,-0.014807,0.037556,-0.055305,-0.041905,-0.033893,0.038957,-0.062724,-0.20961,-0.020637,0.011993,-0.06996,-0.062437,-0.047362,0.033535,-0.076458,0.0046625,-0.052052,-0.14265,0.1189,0.036693,-0.040918
0.030462,-0.060523,-0.030453,-0.010117,0.036062,-0.054664,-0.028067,-0.030005,0.035632,-0.06804,-0.21436,-0.030883,0.013221,-0.071762,-0.05428,-0.045898,0.029073,-0.070525,-0.0035458,-0.058565,-0.14219,0.11867,0.051176,-0.050732
0.031678,-0.060366,-0.032392,0.00043111,0.030419,-0.055812,-0.016029,-0.025249,0.035975,-0.076318,-0.21239,-0.04566,0.012286,-0.074557,-0.041552,-0.043963,0.0203,-0.06324,-0.0089255,-0.059417,-0.13592,0.10969,0.062166,-0.054555
0.029582,-0.057754,-0.035443,0.015408,0.022288,-0.056388,-0.013701,-0.017895,0.042057,-0.083729,-0.20827,-0.062102,0.010439,-0.073846,-0.028849,-0.039262,0.012082,-0.056719,-0.012478,-0.054699,-0.12722,0.096756,0.069975,-0.056557
0.027201,-0.056339,-0.039571,0.03175,0.015366,-0.05484,-0.022898,-0.0072652,0.051901,-0.088126,-0.20721,-0.074748,0.010693,-0.068853,-0.020852,-0.031499,0.0095594,-0.053518,-0.015035,-0.04663,-0.12041,0.08583,0.076395,-0.060615
0.027266,-0.060807,-0.043697,0.045878,0.01246,-0.051838,-0.038056,0.0049867,0.059882,-0.08937,-0.21083,-0.077922,0.014871,-0.062986,-0.018933,-0.022563,0.014465,-0.055399,-0.017079,-0.037787,-0.11779,0.080301,0.083747,-0.067646
0.030124,-0.072188,-0.047174,0.055035,0.013477,-0.050023,-0.050919,0.015591,0.060032,-0.087481,-0.21616,-0.068794,0.021809,-0.060515,-0.020254,-0.01452,0.024126,-0.06213,-0.019396,-0.029078,-0.11838,0.079114,0.093362,-0.075893
0.033828,-0.085877,-0.050534,0.058328,0.01609,-0.05223,-0.057345,0.022069,0.050034,-0.081684,-0.21859,-0.049066,0.028363,-0.062976,-0.020174,-0.0075183,0.03349,-0.0713,-0.023515,-0.019124,-0.11936,0.078275,0.10445,-0.083294
0.035833,-0.094344,-0.054977,0.056861,0.018213,-0.059426,-0.060465,0.024798,0.033027,-0.071969,-0.21614,-0.024217,0.032112,-0.068518,-0.016005,0.00016481,0.038224,-0.079411,-0.031009,-0.0057354,-0.11859,0.074433,0.11437,-0.089372
0.034633,-0.092345,-0.061177,0.052774,0.019772,-0.069934,-0.067569,0.026796,0.015865,-0.06132,-0.21137,-0.00091401,0.033144,-0.074064,-0.0090659,0.0099205,0.036718,-0.08352,-0.04202,0.011518,-0.1159,0.067588,0.12049,-0.09503
0.030252,-0.080436,-0.068373,0.047818,0.022126,-0.080532,-0.083553,0.031313,0.0050478,-0.055305,-0.20931,0.015807,0.033344,-0.077484,-0.0034119,0.020734,0.030221,-0.082334,-0.054431,0.029771,-0.1121,0.060807,0.12246,-0.10094
0.023801,-0.064334,-0.074405,0.042512,0.025946,-0.08851,-0.10654,0.039311,0.003067,-0.058201,-0.21322,0.024213,0.034135,-0.07772,-0.0023675,0.029533,0.021768,-0.076286,-0.064795,0.043971,-0.10745,0.057379,0.12288,-0.10648
0.016962,-0.051133,-0.076686,0.036545,0.029869,-0.09296,-0.12911,0.048981,0.0074822,-0.068736,-0.22177,0.025974,0.035008,-0.073735,-0.0057186,0.033847,0.014818,-0.067011,-0.070568,0.050164,-0.10122,0.057955,0.12559,-0.11039
0.011752,-0.045457,-0.073628,0.030009,0.031407,-0.094328,-0.14372,0.057543,0.013041,-0.079692,-0.22979,0.02499,0.034282,-0.064657,-0.0097837,0.034258,0.012004,-0.056881,-0.071808,0.048534,-0.093014,0.060055,0.13267,-0.11231
0.010144,-0.047838,-0.065751,0.024335,0.029194,-0.09294,-0.14754,0.063533,0.015228,-0.082523,-0.23189,0.025508,0.031191,-0.051729,-0.010262,0.034162,0.014071,-0.04864,-0.070835,0.043551,-0.084291,0.060115,0.14268,-0.11369
0.013131,-0.055465,-0.055687,0.021997,0.024289,-0.088238,-0.14328,0.06754,0.012919,-0.073565,-0.22593,0.030132,0.027066,-0.039644,-0.0056108,0.036927,0.019355,-0.04462,-0.070149,0.040751,-0.078155,0.056117,0.15175,-0.11717
0.01975,-0.06411,-0.046829,0.025139,0.019177,-0.079699,-0.13623,0.070979,0.0085958,-0.05672,-0.21387,0.038507,0.024285,-0.03451,0.0016423,0.04308,0.02439,-0.045446,-0.070493,0.042536,-0.077511,0.048612,0.15653,-0.12494
0.027163,-0.070136,-0.041361,0.034202,0.015516,-0.06852,-0.13053,0.074299,0.0061814,-0.040372,-0.20014,0.047472,0.024035,-0.038958,0.0066571,0.050161,0.025739,-0.049116,-0.07081,0.04643,-0.083081,0.039628,0.15669,-0.13754
0.032289,-0.07204,-0.0391,0.047615,0.012948,-0.058043,-0.12764,0.076382,0.0079807,-0.031113,-0.18907,0.052928,0.025197,-0.048746,0.0057654,0.055306,0.022113,-0.051755,-0.069956,0.047395,-0.092957,0.03086,0.15456,-0.15365
0.033881,-0.071012,-0.038225,0.062694,0.010183,-0.051899,-0.12688,0.075613,0.01276,-0.029385,-0.18355,0.05249,0.025634,-0.054976,-0.00094768,0.058028,0.015302,-0.050172,-0.068329,0.042351,-0.10373,0.022824,0.15285,-0.17068
0.03321,-0.06995,-0.037385,0.076878,0.0070924,-0.051217,-0.12667,0.071537,0.016285,-0.030225,-0.18482,0.04714,0.024619,-0.051146,-0.0099099,0.060519,0.0090842,-0.04448,-0.067711,0.033071,-0.11194,0.015427,0.15239,-0.18549
0.032542,-0.071076,-0.037285,0.088323,0.0054176,-0.05356,-0.12508,0.065585,0.014028,-0.027877,-0.19264,0.040525,0.023861,-0.039138,-0.016918,0.065222,0.0068229,-0.038416,-0.069465,0.024958,-0.11469,0.0089251,0.152,-0.19505
0.032715,-0.073687,-0.040074,0.095618,0.0070933,-0.054969,-0.12012,0.060166,0.0042698,-0.020136,-0.2049,0.036274,0.025853,-0.028311,-0.020298,0.072067,0.0094818,-0.03664,-0.073002,0.022736,-0.10977,0.0041544,0.15007,-0.19725
0.0322,-0.074078,-0.046852,0.097361,0.011812,-0.0535,-0.11072,0.056772,-0.010573,-0.0091623,-0.21745,0.035424,0.03105,-0.027726,-0.021857,0.078054,0.015454,-0.04094,-0.076147,0.026775,-0.095943,0.0019348,0.14603,-0.1918
0.0288,-0.068254,-0.055597,0.092465,0.016533,-0.050949,-0.097957,0.054448,-0.025292,0.0010391,-0.22509,0.036132,0.036754,-0.03805,-0.024915,0.079671,0.022078,-0.048522,-0.077099,0.033105,-0.073894,0.0024787,0.1404,-0.18078
0.022506,-0.055616,-0.061758,0.081248,0.017866,-0.050883,-0.085403,0.049762,-0.034931,0.0076129,-0.22371,0.035903,0.039075,-0.050478,-0.031142,0.075978,0.027395,-0.053973,-0.076021,0.036939,-0.046659,0.0054337,0.1339,-0.16809
0.0167,-0.040512,-0.061497,0.066323,0.015291,-0.054665,-0.077181,0.038469,-0.037426,0.009883,-0.21233,0.034266,0.036268,-0.053973,-0.038879,0.069619,0.030775,-0.053383,-0.074633,0.036496,-0.018613,0.010284,0.12699,-0.15769
0.016112,-0.029933,-0.054998,0.052133,0.01198,-0.059336,-0.074893,0.018013,-0.034233,0.008433,-0.19315,0.033309,0.03032,-0.044654,-0.044369,0.064835,0.032271,-0.047278,-0.074291,0.033951,0.0068179,0.016419,0.12046,-0.15157
0.022934,-0.028707,-0.046852,0.042898,0.01208,-0.059706,-0.075825,-0.010558,-0.028954,0.0040692,-0.1697,0.035484,0.025259,-0.029165,-0.044857,0.064229,0.031783,-0.040081,-0.074631,0.033009,0.029034,0.022723,0.11594,-0.14875
0.034363,-0.03574,-0.042862,0.040184,0.016786,-0.053023,-0.074263,-0.042543,-0.025204,-0.0020908,-0.1448,0.040769,0.023793,-0.019147,-0.041035,0.067019,0.029076,-0.036683,-0.074297,0.035546,0.050105,0.027327,0.11526,-0.14612
0.043903,-0.044303,-0.045661,0.041872,0.022983,-0.041945,-0.065221,-0.071604,-0.025036,-0.0080746,-0.12005,0.046077,0.025381,-0.021632,-0.036917,0.070144,0.024496,-0.03898,-0.073041,0.040274,0.072542,0.028153,0.11875,-0.14076
0.04569,-0.046406,-0.052722,0.04353,0.026014,-0.032873,-0.047807,-0.092695,-0.028408,-0.011543,-0.097123,0.04768,0.027273,-0.033456,-0.037319,0.071122,0.019327,-0.044863,-0.072916,0.044355,0.096735,0.024004,0.12436,-0.13198
0.038612,-0.03826,-0.058415,0.041427,0.024139,-0.030901,-0.02577,-0.10406,-0.033536,-0.011471,-0.078766,0.044451,0.027149,-0.044019,-0.044857,0.070143,0.015049,-0.050048,-0.076979,0.04629,0.12013,0.015346,0.12874,-0.1218
0.027063,-0.022962,-0.058432,0.035151,0.020373,-0.035701,-0.0050123,-0.1071,-0.037894,-0.0092994,-0.067982,0.038784,0.024719,-0.043669,-0.058382,0.069666,0.012124,-0.050997,-0.086412,0.047581,0.13877,0.0041549,0.12967,-0.11325
0.017803,-0.0084182,-0.052956,0.027904,0.019708,-0.04177,0.0099294,-0.10453,-0.039658,-0.0077969,-0.06551,0.034243,0.021123,-0.030755,-0.073596,0.071999,0.0096462,-0.046776,-0.098662,0.051855,0.14993,-0.0068663,0.12756,-0.10808
0.015313,-0.001887,-0.046075,0.024239,0.024224,-0.042644,0.018103,-0.098615,-0.039087,-0.0081314,-0.067986,0.03219,0.01739,-0.012168,-0.085181,0.077022,0.0064578,-0.038932,-0.10852,0.062257,0.15381,-0.015013,0.12451,-0.10542
0.019049,-0.0049112,-0.042162,0.026857,0.030821,-0.035475,0.022051,-0.090801,-0.038789,-0.0078978,-0.068908,0.030662,0.013823,0.0022596,-0.089246,0.081986,0.0026928,-0.029977,-0.11152,0.078983,0.153,-0.01803,0.1219,-0.10278
0.024418,-0.012197,-0.042402,0.034769,0.033973,-0.022525,0.025948,-0.082563,-0.042183,-0.0025164,-0.062215,0.026573,0.010699,0.0066631,-0.085077,0.083554,6.5841e-005,-0.021807,-0.10688,0.098571,0.15054,-0.014696,0.11913,-0.098141
0.026441,-0.015264,-0.044302,0.043999,0.03096,-0.009058,0.033201,-0.075869,-0.050753,0.010618,-0.045869,0.019058,0.0088432,0.0023704,-0.075473,0.080379,0.00037443,-0.014928,-0.097731,0.1153,0.14794,-0.0057393,0.11475,-0.091647
0.023182,-0.0083209,-0.044249,0.050169,0.024509,0.0002085,0.044612,-0.072117,-0.062095,0.02874,-0.022692,0.010658,0.0088776,-0.0040292,-0.065432,0.07422,0.003542,-0.0085739,-0.088553,0.12388,0.14481,0.0056238,0.1089,-0.085152
0.016483,0.0076831,-0.040572,0.050995,0.020137,0.0035221,0.057845,-0.070299,-0.070632,0.044394,0.0020002,0.0051817,0.0098361,-0.0054512,-0.05956,0.068777,0.0071435,-0.0012811,-0.08202,0.12189,0.13986,0.014643,0.10416,-0.080264
0.0098288,0.025563,-0.034417,0.04707,0.020714,0.002382,0.068559,-0.066538,-0.070964,0.050187,0.023781,0.0042601,0.0090871,0.0016754,-0.059467,0.067203,0.0080107,0.0083484,-0.077667,0.11066,0.13236,0.017592,0.1037,-0.076599
0.0054214,0.036427,-0.028029,0.040766,0.023546,0.00030662,0.072892,-0.056357,-0.061638,0.044106,0.040786,0.0057949,0.0043677,0.016216,-0.062771,0.070118,0.0045625,0.020731,-0.073003,0.093923,0.12287,0.014324,0.10827,-0.071856
0.0029152,0.035105,-0.022464,0.034431,0.022848,0.0010942,0.070045,-0.038457,-0.046507,0.031239,0.052929,0.005619,-0.0037422,0.033634,-0.064567,0.075402,-0.0021146,0.034425,-0.065789,0.075395,0.11297,0.008594,0.11501,-0.063663
0.00061166,0.023032,-0.017072,0.029304,0.015231,0.0071644,0.063323,-0.016838,-0.032575,0.020491,0.060284,0.00073192,-0.011581,0.04828,-0.06059,0.079699,-0.0091751,0.04601,-0.055614,0.056823,0.10439,0.0054991,0.1195,-0.051555
-0.0023103,0.0071016,-0.011039,0.025706,0.0029527,0.018357,0.058687,0.001044,-0.025802,0.018564,0.062711,-0.0087547,-0.015176,0.055576,-0.050011,0.080478,-0.013931,0.051452,-0.043879,0.03818,0.098211,0.0078247,0.11924,-0.037373
-0.0047321,-0.0044417,-0.0050981,0.023891,-0.0080342,0.031767,0.061563,0.0092201,-0.027745,0.025404,0.061006,-0.020334,-0.013711,0.053754,-0.035973,0.07732,-0.015225,0.04869,-0.032657,0.019708,0.094364,0.01427,0.11528,-0.02374
-0.0046603,-0.0064975,-0.0013408,0.024483,-0.013137,0.043087,0.073887,0.0075246,-0.035161,0.034213,0.057799,-0.031345,-0.010366,0.044851,-0.023531,0.071804,-0.013562,0.039677,-0.02351,0.0039763,0.091482,0.021004,0.11061,-0.011981
-0.0013279,0.00047742,-0.0011421,0.027971,-0.012455,0.049037,0.093265,0.0017623,-0.042527,0.036147,0.056455,-0.040519,-0.0095006,0.034173,-0.016399,0.066282,-0.010402,0.029862,-0.01698,-0.0041017,0.086875,0.025161,0.10692,-0.0012623
0.0036892,0.011298,-0.0033244,0.033741,-0.0096273,0.049363,0.11456,-0.00053514,-0.045568,0.026703,0.058381,-0.047747,-0.012719,0.027745,-0.014643,0.062457,-0.0073465,0.024797,-0.012786,0.00027447,0.076794,0.02726,0.10303,0.010361
0.0073681,0.01953,-0.0046441,0.039703,-0.0079257,0.046863,0.13276,0.0045401,-0.043476,0.009496,0.061246,-0.052922,-0.01752,0.028693,-0.01477,0.060593,-0.0054952,0.026237,-0.010276,0.018513,0.057329,0.030524,0.096421,0.024012
0.0073069,0.021602,-0.0024001,0.043117,-0.0076718,0.045291,0.14526,0.014928,-0.038635,-0.0055815,0.060281,-0.055361,-0.019822,0.035081,-0.012138,0.059703,-0.0050007,0.031092,-0.0087558,0.046957,0.026185,0.037753,0.086667,0.038917
0.0031592,0.019071,0.0032721,0.042159,-0.0071611,0.046688,0.15269,0.024804,-0.034377,-0.0090925,0.052182,-0.054336,-0.017927,0.041283,-0.0041779,0.058427,-0.0050023,0.034468,-0.0075457,0.078014,-0.015146,0.048381,0.077312,0.053106
-0.0036255,0.017557,0.0097271,0.036984,-0.0054991,0.050234,0.15804,0.029211,-0.032506,0.00082545,0.03845,-0.049817,-0.014134,0.042428,0.0077038,0.055953,-0.0042833,0.034403,-0.0059434,0.1032,-0.060209,0.058099,0.074306,0.065113
-0.011211,0.022932,0.01459,0.029405,-0.0040385,0.053418,0.16481,0.027372,-0.032329,0.016445,0.025128,-0.042404,-0.012544,0.038618,0.018974,0.052405,-0.0025099,0.03406,-0.0032819,0.1161,-0.099013,0.061395,0.081795,0.074971
-0.018488,0.037256,0.018388,0.021454,-0.0049922,0.054418,0.17497,0.022429,-0.031664,0.025639,0.018788,-0.032576,-0.015261,0.035359,0.025241,0.048508,-0.001113,0.039155,0.00086691,0.11383,-0.12237,0.055239,0.09847,0.083509
-0.02502,0.057159,0.024419,0.014129,-0.008962,0.053713,0.18761,0.018437,-0.028831,0.020724,0.02191,-0.020396,-0.020692,0.039507,0.025716,0.044828,-0.0027365,0.052678,0.0065417,0.097036,-0.12705,0.04136,0.11746,0.090716
-0.030227,0.075678,0.035728,0.0073475,-0.014177,0.053745,0.19931,0.017359,-0.023948,0.0040998,0.031463,-0.0064585,-0.025466,0.053836,0.0242,0.041205,-0.0092111,0.071521,0.013525,0.069229,-0.11822,0.025473,0.13022,0.094991
-0.032993,0.086182,0.051732,0.00096238,-0.018247,0.057214,0.20621,0.018266,-0.018589,-0.013886,0.041822,0.0067077,-0.027902,0.074554,0.026584,0.03686,-0.019475,0.088059,0.021698,0.036115,-0.10653,0.013738,0.13182,0.094344
-0.032336,0.085741,0.067509,-0.0044431,-0.02048,0.065493,0.20713,0.018846,-0.014331,-0.023117,0.049479,0.014603,-0.029483,0.093668,0.036599,0.031194,-0.029331,0.095394,0.031188,0.0045576,-0.10131,0.0086147,0.12392,0.088584
-0.028582,0.076122,0.076624,-0.0079642,-0.022299,0.078186,0.20517,0.017608,-0.011566,-0.0212,0.05545,0.013042,-0.032823,0.10413,0.053047,0.024693,-0.033732,0.091943,0.041907,-0.019122,-0.10451,0.0069597,0.11304,0.080353
-0.023802,0.062373,0.075529,-0.0096184,-0.025325,0.093538,0.20637,0.01505,-0.0095364,-0.014339,0.063412,0.0014764,-0.038213,0.10372,0.070661,0.01909,-0.030195,0.081889,0.05273,-0.03113,-0.11031,0.0020184,0.10551,0.073729
-0.020785,0.050302,0.066282,-0.010954,-0.029212,0.10889,0.21555,0.013179,-0.0072851,-0.011415,0.075374,-0.015479,-0.042403,0.095156,0.083788,0.016401,-0.020804,0.07175,0.061293,-0.031329,-0.11081,-0.011682,0.10275,0.071398
-0.021138,0.044153,0.055536,-0.014028,-0.031528,0.12089,0.23242,0.01402,-0.0044725,-0.01664,0.088906,-0.030272,-0.041178,0.083344,0.089993,0.017389,-0.011073,0.066194,0.065176,-0.022675,-0.10308,-0.03397,0.10078,0.072844
-0.024016,0.045087,0.050385,-0.019466,-0.029892,0.12617,0.25088,0.018223,-0.0014156,-0.026739,0.098573,-0.03733,-0.033529,0.072398,0.091033,0.020624,-0.0063235,0.066055,0.063993,-0.0093468,-0.091749,-0.058751,0.094188,0.075144
-0.026618,0.050763,0.053875,-0.025532,-0.024301,0.12294,0.26288,0.024698,0.0013565,-0.034267,0.10042,-0.037007,-0.023364,0.064484,0.090979,0.023103,-0.0082036,0.068989,0.06051,0.005015,-0.084703,-0.078541,0.081342,0.075563
-0.02619,0.056361,0.063259,-0.029414,-0.017415,0.11268,0.26407,0.031561,0.0033558,-0.033599,0.095604,-0.035197,-0.016741,0.060087,0.093319,0.022184,-0.013952,0.071292,0.059188,0.017824,-0.086038,-0.090637,0.066421,0.073575
-0.022022,0.057172,0.072224,-0.029748,-0.012506,0.10033,0.25714,0.037843,0.0040467,-0.024705,0.090057,-0.038553,-0.016798,0.058369,0.099125,0.017451,-0.018901,0.06949,0.06267,0.026993,-0.092455,-0.099955,0.05636,0.070682
-0.015878,0.051729,0.075485,-0.027999,-0.010941,0.091806,0.25015,0.044711,0.0028904,-0.012406,0.090275,-0.048937,-0.020913,0.057244,0.10706,0.011033,-0.020172,0.061542,0.069062,0.030581,-0.096406,-0.11572,0.055209,0.06861
-0.010593,0.043279,0.072416,-0.027187,-0.011345,0.090325,0.25086,0.054981,-0.00013743,-0.002576,0.098782,-0.061549,-0.022898,0.054037,0.11468,0.0060207,-0.018652,0.04783,0.072813,0.027517,-0.093055,-0.1438,0.060557,0.067885
-0.0080213,0.037856,0.066998,-0.028999,-0.011024,0.094185,0.26123,0.070754,-0.003962,0.0014738,0.11269,-0.068187,-0.018511,0.047321,0.12004,0.0041595,-0.017787,0.031461,0.069075,0.018842,-0.084729,-0.18013,0.065013,0.068067
-0.0079349,0.039671,0.064202,-0.032066,-0.0082435,0.098153,0.27609,0.090738,-0.0065604,0.00023881,0.12618,-0.062866,-0.0094487,0.038745,0.12279,0.0046035,-0.020358,0.016971,0.058055,0.0078773,-0.078885,-0.21015,0.061538,0.068934
-0.0085874,0.047225,0.065756,-0.033186,-0.0034535,0.097516,0.28669,0.10959,-0.0060863,-0.0032095,0.13453,-0.045231,-0.0021477,0.032674,0.12424,0.0046471,-0.025935,0.0076968,0.04542,-0.0015682,-0.081465,-0.21548,0.04843,0.070917
-0.0082311,0.053727,0.06882,-0.030428,0.0013921,0.091567,0.28647,0.12043,-0.0022068,-0.0055633,0.13661,-0.019361,-0.0022507,0.032989,0.12634,0.001793,-0.031012,0.0036774,0.038134,-0.0079149,-0.091488,-0.18418,0.030251,0.074101
-0.0062701,0.052234,0.068643,-0.02514,0.004609,0.083684,0.27487,0.11909,0.0034709,-0.0052123,0.13437,0.010278,-0.0095029,0.039309,0.13006,-0.0044656,-0.031469,0.0020765,0.039231,-0.013186,-0.1014,-0.11854,0.014385,0.077
-0.0032827,0.041728,0.062871,-0.020806,0.0060899,0.078084,0.25673,0.10687,0.0083107,-0.0028365,0.13044,0.04174,-0.017576,0.046211,0.13422,-0.012401,-0.025263,2.1939e-005,0.046045,-0.021582,-0.10258,-0.035446,0.0061137,0.076911
-0.0002232,0.028952,0.053743,-0.019757,0.0071364,0.076142,0.23834,0.089588,0.010249,-0.0004747,0.12616,0.07487,-0.019064,0.046861,0.13597,-0.019315,-0.01336,-0.0026306,0.053202,-0.036174,-0.091228,0.04123,0.0057092,0.072104
0.0023324,0.0239,0.046232,-0.02088,0.0091093,0.075415,0.22339,0.073683,0.0089431,0.00033769,0.1214,0.10815,-0.011433,0.038423,0.13287,-0.023235,0.0013217,-0.0032565,0.057307,-0.056343,-0.070078,0.092345,0.0090981,0.063936
0.0043813,0.032185,0.043788,-0.020574,0.012144,0.072035,0.2118,0.062533,0.0057696,0.00013179,0.11593,0.13664,0.0011025,0.024599,0.12491,-0.023866,0.015603,0.00066534,0.058956,-0.07804,-0.045453,0.1123,0.011025,0.056567
0.0062874,0.050445,0.04536,-0.016122,0.015063,0.064236,0.20167,0.05579,0.0027922,0.0015156,0.11066,0.15343,0.011176,0.012839,0.11481,-0.022414,0.027027,0.00835,0.060585,-0.096504,-0.022777,0.10952,0.0083522,0.053968
0.0085511,0.06872,0.046179,-0.0082765,0.016572,0.054015,0.19193,0.051585,0.0014451,0.007344,0.10756,0.15358,0.014135,0.0084036,0.10625,-0.020668,0.033999,0.015173,0.062806,-0.10904,-0.0043237,0.098458,0.0015682,0.056571
0.011601,0.077974,0.041475,-0.00063953,0.01668,0.045595,0.18324,0.048964,0.0017156,0.01825,0.10834,0.1373,0.0112,0.010358,0.10135,-0.020019,0.035831,0.015489,0.063111,-0.11563,0.00974,0.08889,-0.0060124,0.06061
0.015401,0.076635,0.029948,0.0035435,0.017002,0.042069,0.17654,0.048145,0.0022891,0.031514,0.11301,0.10986,0.0076202,0.01289,0.099523,-0.020866,0.03309,0.0066229,0.058169,-0.11729,0.018966,0.08044,-0.010527,0.060997
0.018974,0.070848,0.01437,0.0041181,0.019539,0.042913,0.1711,0.048754,0.001582,0.042399,0.11969,0.078495,0.0078616,0.010695,0.098338,-0.022552,0.027661,-0.0090047,0.04725,-0.11414,0.021619,0.065968,-0.0098172,0.055476
0.020458,0.068581,-0.00065948,0.0037863,0.024897,0.0443,0.1644,0.048385,-0.0009556,0.047117,0.12582,0.048825,0.012178,0.0036546,0.095541,-0.0238,0.021856,-0.025092,0.033291,-0.10527,0.016083,0.040536,-0.0043608,0.046571
0.018148,0.072859,-0.011608,0.0052875,0.031558,0.04199,0.15429,0.043457,-0.0041679,0.045133,0.12986,0.023351,0.017192,-0.0031744,0.090468,-0.023539,0.016931,-0.034969,0.020636,-0.09023,0.0033773,0.0080679,0.0034792,0.039687
0.012035,0.079891,-0.017385,0.0087684,0.036963,0.03466,0.1411,0.031876,-0.0057761,0.039029,0.13196,0.0022789,0.019405,-0.0040475,0.084144,-0.021744,0.012459,-0.035026,0.011737,-0.07054,-0.01152,-0.01983,0.011077,0.038968
0.0044506,0.083243,-0.018804,0.011776,0.039573,0.025186,0.1276,0.01502,-0.0040065,0.03219,0.13324,-0.014725,0.018157,0.0025284,0.078484,-0.019747,0.007453,-0.026139,0.0059544,-0.049414,-0.020922,-0.0316,0.016757,0.044341
-0.0011294,0.079836,-0.017321,0.011751,0.040064,0.018813,0.11637,-0.0029028,0.00082579,0.026432,0.13443,-0.027533,0.015583,0.012607,0.075368,-0.019583,0.0023335,-0.012675,0.0012801,-0.029969,-0.017753,-0.023323,0.0199,0.051995
-0.0024489,0.072194,-0.014341,0.0086208,0.040608,0.019391,0.10705,-0.017644,0.0060606,0.021573,0.13514,-0.035832,0.01409,0.020146,0.075858,-0.022642,-0.00042639,-9.1976e-005,-0.0031018,-0.013894,0.0010622,-0.00027488,0.020392,0.057619
-4.6871e-005,0.06517,-0.011307,0.0051627,0.042869,0.02638,0.096114,-0.027399,0.0082305,0.017082,0.13446,-0.039938,0.014083,0.021775,0.079548,-0.028533,0.0018253,0.0073845,-0.00615,-0.0021467,0.033248,0.027778,0.018382,0.059555
0.0033882,0.060706,-0.0098851,0.0048942,0.046591,0.03491,0.079709,-0.033015,0.0055006,0.013911,0.13224,-0.041159,0.014018,0.018881,0.084286,-0.035079,0.0089197,0.0079825,-0.0067972,0.0030181,0.072729,0.052836,0.014713,0.059427
0.0052946,0.055912,-0.011605,0.009334,0.049969,0.038924,0.057068,-0.036142,-0.00075417,0.014504,0.12987,-0.041284,0.012428,0.015473,0.08685,-0.039485,0.016695,0.0023892,-0.0061827,-0.0028435,0.11307,0.071696,0.011264,0.060117
0.005027,0.046384,-0.01705,0.016837,0.051317,0.035056,0.031475,-0.037379,-0.006589,0.020734,0.12978,-0.041558,0.0096881,0.014099,0.084657,-0.039777,0.01932,-0.0069013,-0.0076527,-0.024365,0.15047,0.085015,0.010287,0.06306
0.0036293,0.031456,-0.025239,0.023791,0.050371,0.024316,0.0078863,-0.036082,-0.0081437,0.031642,0.13393,-0.041888,0.0077416,0.013699,0.077508,-0.035478,0.013581,-0.016381,-0.014058,-0.062533,0.18434,0.095089,0.01286,0.067091
0.002173,0.016077,-0.033768,0.027142,0.048131,0.010528,-0.010649,-0.031598,-0.0044865,0.043253,0.14235,-0.040877,0.0081544,0.011323,0.067866,-0.027373,0.0015208,-0.022464,-0.024699,-0.11227,0.21525,0.10479,0.017856,0.069494
0.00062031,0.0072046,-0.039768,0.026377,0.045716,-0.0028456,-0.024651,-0.024263,0.0015371,0.050981,0.15285,-0.036826,0.010505,0.0059363,0.059161,-0.017075,-0.010939,-0.022784,-0.03498,-0.16392,0.2423,0.11745,0.022726,0.068143
-0.0016436,0.0078917,-0.041246,0.023602,0.043571,-0.014801,-0.03668,-0.014958,0.0052917,0.052791,0.16213,-0.029191,0.012699,0.00048056,0.053306,-0.0069892,-0.018258,-0.017538,-0.039639,-0.2079,0.26234,0.13588,0.025787,0.063021
-0.0044904,0.014508,-0.038085,0.021762,0.041701,-0.026452,-0.048254,-0.0037898,0.0038451,0.050449,0.16778,-0.019514,0.012873,-9.9209e-005,0.049462,-0.00025702,-0.01883,-0.0097951,-0.037089,-0.23908,0.27202,0.16009,0.027984,0.056168
-0.0067225,0.019617,-0.032084,0.022315,0.040285,-0.039293,-0.05821,0.010404,-0.001668,0.047706,0.16973,-0.010987,0.011002,0.0067016,0.045063,0.00027516,-0.015055,-0.0039357,-0.031075,-0.25773,0.2709,0.1859,0.032229,0.0504
-0.0072565,0.017853,-0.025882,0.024132,0.039606,-0.054022,-0.064005,0.028694,-0.0067407,0.046927,0.17009,-0.006669,0.0086988,0.018107,0.038182,-0.005871,-0.010468,-0.0028571,-0.027839,-0.267,0.26271,0.20655,0.040479,0.047804
-0.0064042,0.0095619,-0.021313,0.024527,0.039258,-0.070724,-0.064715,0.049734,-0.006865,0.047019,0.17104,-0.0074508,0.0074944,0.027688,0.029208,-0.015285,-0.0069027,-0.006063,-0.030841,-0.26948,0.25328,0.21737,0.051072,0.04887
-0.0055678,-0.00063078,-0.018317,0.021726,0.037713,-0.089329,-0.062864,0.068632,-0.0010397,0.044494,0.17241,-0.011298,0.0073545,0.030326,0.020531,-0.021752,-0.0040975,-0.010449,-0.037472,-0.26587,0.24663,0.21988,0.059038,0.05251
-0.0055007,-0.0084517,-0.015341,0.016787,0.03319,-0.10903,-0.063266,0.078498,0.0073485,0.036769,0.17098,-0.014482,0.0069159,0.026254,0.014682,-0.020151,-0.0014059,-0.013297,-0.040803,-0.256,0.24261,0.22171,0.059751,0.056733
-0.0051449,-0.013309,-0.011141,0.013208,0.025314,-0.12688,-0.069622,0.07407,0.013046,0.024902,0.16259,-0.013994,0.0051581,0.020584,0.012569,-0.01052,0.00075174,-0.014771,-0.035206,-0.24061,0.238,0.23156,0.053152,0.059593
-0.0026688,-0.017553,-0.0065776,0.014281,0.015928,-0.13751,-0.081548,0.055,0.012931,0.013443,0.14587,-0.0093475,0.0027778,0.018671,0.013074,0.0013756,0.0013312,-0.01744,-0.021227,-0.2218,0.23012,0.25281,0.044727,0.060037
0.0021043,-0.022929,-0.0046857,0.020217,0.0080017,-0.13525,-0.094351,0.026476,0.0083463,0.0074662,0.1244,-0.0024503,0.0017969,0.021326,0.014022,0.0081796,0.000249,-0.023142,-0.0055262,-0.20194,0.21952,0.2807,0.041831,0.058351
0.0065248,-0.027941,-0.0084523,0.027493,0.0034446,-0.11783,-0.10171,-0.0033082,0.0039225,0.009104,0.10521,0.0042048,0.0036708,0.024038,0.013501,0.0068238,-0.0010196,-0.030172,0.0041704,-0.1823,0.2094,0.30564,0.047928,0.055941
0.0068822,-0.028667,-0.017753,0.031147,0.0018039,-0.088884,-0.099275,-0.027197,0.0038579,0.01612,0.094129,0.0094229,0.0076805,0.020884,0.010587,0.0011152,-0.0008073,-0.033699,0.0048913,-0.16255,0.20226,0.32011,0.059513,0.054498
0.0017817,-0.022217,-0.028053,0.028313,0.0010346,-0.056825,-0.08685,-0.042206,0.0086881,0.023363,0.091671,0.013754,0.011191,0.009802,0.0052825,-0.0015651,0.0008008,-0.029312,0.0001824,-0.14153,0.19703,0.32358,0.068564,0.054937
-0.0061207,-0.0096661,-0.032502,0.020206,-0.00050151,-0.030621,-0.067856,-0.050207,0.015114,0.02588,0.092705,0.01838,0.011624,-0.0051033,-0.0017952,0.0031527,0.0017466,-0.016723,-0.0034033,-0.11848,0.18915,0.32123,0.068767,0.056817
-0.011953,0.0041206,-0.026383,0.011022,-0.0027863,-0.015148,-0.046972,-0.056283,0.018895,0.021665,0.090314,0.0237,0.008384,-0.016029,-0.0095066,0.012593,0.00011694,-0.00049743,-0.0017676,-0.093703,0.1737,0.31765,0.060356,0.058737
-0.012549,0.013628,-0.01068,0.0047658,-0.0047142,-0.0091837,-0.027585,-0.066014,0.01828,0.012598,0.080741,0.028942,0.0030366,-0.016698,-0.016139,0.019354,-0.0034024,0.012726,0.0040409,-0.068378,0.14871,0.31101,0.049487,0.059521
-0.0088896,0.016251,0.0082207,0.0025757,-0.0056239,-0.007061,-0.010536,-0.083053,0.015121,0.0033167,0.065532,0.033029,-0.0022733,-0.0064115,-0.019781,0.017999,-0.0054842,0.018268,0.009795,-0.043642,0.11608,0.29309,0.042797,0.0593
-0.0048446,0.013575,0.022806,0.0025372,-0.0060404,-0.0026944,0.0055273,-0.10779,0.012889,-0.0013075,0.049492,0.035746,-0.0065574,0.0097663,-0.019428,0.0099823,-0.0031067,0.015881,0.012372,-0.019533,0.079933,0.25553,0.041926,0.05951
-0.0035074,0.0096037,0.029534,0.0018296,-0.0069093,0.0065477,0.022794,-0.13729,0.013502,0.0011093,0.036579,0.038177,-0.010227,0.024397,-0.016267,0.0021627,0.0030534,0.0094126,0.012293,0.0053094,0.04421,0.19696,0.042688,0.061635
-0.0045704,0.0075286,0.030752,-0.00080954,-0.0083407,0.018356,0.042847,-0.16629,0.015752,0.0089945,0.027244,0.042249,-0.0138,0.03201,-0.013834,0.00028861,0.0082663,0.0043228,0.012551,0.032588,0.011849,0.125,0.039244,0.065692
-0.005042,0.007547,0.031907,-0.0043335,-0.0094013,0.027285,0.065761,-0.18877,0.016582,0.017635,0.019042,0.049894,-0.016632,0.031614,-0.016225,0.0036493,0.007425,0.0046147,0.015402,0.062357,-0.014567,0.051443,0.029316,0.069862
-0.0023603,0.0072372,0.036414,-0.0067138,-0.0092461,0.028878,0.090004,-0.19955,0.013886,0.022065,0.0093069,0.062266,-0.017177,0.026204,-0.025095,0.0060104,-0.00010672,0.010623,0.020395,0.091668,-0.032225,-0.014827,0.015874,0.071841
0.0031511,0.0039553,0.042533,-0.0068882,-0.0082919,0.023476,0.11315,-0.19544,0.0082924,0.020265,-0.0027618,0.078918,-0.014666,0.020059,-0.037718,0.0019117,-0.0089268,0.018732,0.025316,0.11549,-0.038996,-0.071332,0.004312,0.070959
0.0086647,-0.0027336,0.044927,-0.0054899,-0.0079884,0.016718,0.13307,-0.17583,0.0024263,0.014456,-0.016119,0.096945,-0.010414,0.015816,-0.048152,-0.0077819,-0.011303,0.023461,0.028706,0.12994,-0.035202,-0.11978,-0.001858,0.069218
0.011455,-0.010446,0.03953,-0.003851,-0.0092417,0.015705,0.14899,-0.14298,-0.0015002,0.0095012,-0.029229,0.11083,-0.00717,0.013132,-0.05129,-0.016441,-0.0035312,0.02112,0.031222,0.13548,-0.02416,-0.16144,-0.0028864,0.07016
0.011165,-0.015545,0.027497,-0.0024852,-0.011089,0.023226,0.16154,-0.10185,-0.0035032,0.0096212,-0.040972,0.11403,-0.0068173,0.0096611,-0.046913,-0.017766,0.01039,0.0128,0.034487,0.1374,-0.010346,-0.19507,-0.0011292,0.076286
0.0097432,-0.015594,0.014782,-0.00069327,-0.011121,0.034689,0.17154,-0.059304,-0.0054492,0.01578,-0.050403,0.10237,-0.0085198,0.0035143,-0.040376,-0.011515,0.021225,0.00424,0.038744,0.14229,0.003499,-0.21905,0.0018657,0.087045
0.009375,-0.010927,0.0077113,0.0023269,-0.0074607,0.040818,0.17841,-0.022192,-0.0089553,0.025366,-0.056339,0.077298,-0.0092789,-0.0046895,-0.038979,-0.0034865,0.0215,0.0020745,0.041833,0.15314,0.017476,-0.23478,0.00645,0.099044
0.010513,-0.0043689,0.0083028,0.0061469,-0.00054198,0.034619,0.17943,0.005111,-0.013583,0.033949,-0.057967,0.046329,-0.006658,-0.011872,-0.046619,-4.9511e-005,0.011463,0.0089146,0.040791,0.16675,0.032451,-0.24751,0.013334,0.1083
0.011809,0.00044372,0.013143,0.0091378,0.0069125,0.017139,0.17116,0.022504,-0.016991,0.037648,-0.056123,0.019561,-0.0012569,-0.0148,-0.060897,-0.0026908,-0.0009,0.021097,0.034766,0.17601,0.046547,-0.26321,0.021426,0.11268
0.011817,0.00096943,0.016405,0.010017,0.01166,-0.0028499,0.15207,0.033861,-0.016881,0.034796,-0.053592,0.0041245,0.0034915,-0.012896,-0.074922,-0.007684,-0.0058533,0.031106,0.026572,0.17522,0.053866,-0.28471,0.027626,0.11269
0.01067,-0.0030678,0.014161,0.0093394,0.011912,-0.015193,0.12462,0.044465,-0.012967,0.026408,-0.053378,0.0004721,0.0042715,-0.0091583,-0.082341,-0.010678,0.00091793,0.032942,0.02118,0.16453,0.047429,-0.31049,0.029072,0.1102
0.0099717,-0.0095756,0.006485,0.0092439,0.0080286,-0.015625,0.094805,0.057678,-0.0072557,0.015581,-0.056115,0.0032528,0.0010244,-0.0081637,-0.081663,-0.011246,0.015499,0.026381,0.022057,0.14985,0.024502,-0.33737,0.025752,0.10671
0.010973,-0.014995,-0.003701,0.01146,0.0018219,-0.0082879,0.069192,0.073149,-0.0024698,0.0060255,-0.059186,0.0059497,-0.0026715,-0.012574,-0.076835,-0.012856,0.029076,0.017054,0.02824,0.13845,-0.01014,-0.36424,0.020866,0.1027
0.012859,-0.016013,-0.013212,0.015485,-0.0045272,-0.0019777,0.051446,0.087789,-4.4916e-005,0.00020937,-0.058872,0.005537,-0.0025526,-0.020983,-0.07404,-0.018579,0.034295,0.012693,0.034634,0.134,-0.046087,-0.39308,0.018321,0.098552
0.013102,-0.011524,-0.02016,0.018853,-0.009047,-0.0036813,0.04078,0.098686,0.00064019,-0.0019385,-0.053977,0.003616,0.0025327,-0.028931,-0.077408,-0.027112,0.029692,0.018475,0.035568,0.13489,-0.073205,-0.42574,0.019419,0.095598
0.0099309,-0.0037339,-0.023792,0.019412,-0.010155,-0.014511,0.033304,0.10554,0.001322,-0.0026757,-0.047661,0.0036419,0.0093914,-0.032266,-0.086581,-0.033144,0.019487,0.034415,0.02899,0.1367,-0.087094,-0.45873,0.021641,0.09588
0.0047355,0.0027768,-0.023861,0.017503,-0.0071024,-0.030371,0.025064,0.1107,0.0031561,-0.004363,-0.045558,0.0070999,0.01304,-0.030112,-0.09738,-0.031666,0.0099215,0.055796,0.018038,0.13651,-0.090051,-0.48067,0.020704,0.10045
0.0017926,0.0040105,-0.020789,0.015819,-0.00078733,-0.045659,0.014532,0.11693,0.0056951,-0.0070811,-0.051522,0.012006,0.010879,-0.02509,-0.10466,-0.022046,0.0053683,0.075812,0.0086377,0.13503,-0.087293,-0.47575,0.014241,0.1079
0.0049009,-0.0003055,-0.016283,0.016916,0.0059601,-0.056614,0.0030045,0.12496,0.0072391,-0.0079887,-0.064444,0.01468,0.0048215,-0.020843,-0.10544,-0.0082219,0.0066085,0.088983,0.004939,0.13528,-0.081926,-0.43223,0.004087,0.11491
0.013518,-0.0059636,-0.013011,0.020555,0.0095818,-0.062273,-0.0069433,0.133,0.0061193,-0.0032516,-0.078721,0.01279,-0.00049,-0.019108,-0.10058,0.0047196,0.011405,0.093967,0.0061764,0.13926,-0.072762,-0.35084,-0.0046933,0.11878
0.022023,-0.0069963,-0.01285,0.023361,0.0081858,-0.063535,-0.013601,0.13866,0.001884,0.0087791,-0.087969,0.0068723,-0.0017263,-0.01876,-0.094255,0.01413,0.01614,0.094395,0.0074664,0.14587,-0.056277,-0.24691,-0.0072431,0.11992
0.023403,-0.00010595,-0.015117,0.021247,0.0033123,-0.061976,-0.017457,0.14148,-0.0043762,0.025621,-0.089186,-0.00064208,0.00043157,-0.017369,-0.091568,0.020491,0.017474,0.096778,0.0038952,0.15163,-0.030546,-0.14391,-0.0020973,0.12185
0.01477,0.012658,-0.01675,0.012618,-0.00079476,-0.059418,-0.021103,0.14369,-0.010625,0.041498,-0.084639,-0.0075113,0.0022266,-0.0136,-0.095523,0.025347,0.013674,0.10613,-0.0054311,0.15354,0.0023069,-0.062235,0.0082033,0.12856
0.00012156,0.02522,-0.014749,-0.00025516,-0.00036573,-0.057901,-0.027921,0.14847,-0.014913,0.05038,-0.080678,-0.012834,0.00033034,-0.0081834,-0.10517,0.02912,0.0054311,0.12203,-0.016612,0.15133,0.036907,-0.010349,0.019244,0.14106
-0.012241,0.031762,-0.0088567,-0.012728,0.0046741,-0.059141,-0.040289,0.15708,-0.016233,0.049163,-0.08457,-0.01664,-0.0053439,-0.0026964,-0.1161,0.030965,-0.0043077,0.1384,-0.023929,0.1477,0.06768,0.016032,0.027711,0.156
-0.015766,0.030531,-0.0019889,-0.020818,0.010341,-0.06322,-0.058209,0.16748,-0.014812,0.039143,-0.10107,-0.018991,-0.011889,0.0023826,-0.12312,0.030339,-0.011773,0.14756,-0.023996,0.14652,0.091492,0.027233,0.032923,0.16765
-0.010314,0.024264,0.0020615,-0.023389,0.011763,-0.067455,-0.079144,0.17553,-0.011775,0.025235,-0.12998,-0.019847,-0.016112,0.0080919,-0.12342,0.028172,-0.014454,0.14568,-0.017766,0.15047,0.10794,0.031275,0.036076,0.17153
-0.0017277,0.017392,0.0015847,-0.022026,0.007385,-0.066957,-0.099293,0.178,-0.0084175,0.013511,-0.16551,-0.019659,-0.016978,0.015159,-0.11812,0.026244,-0.01244,0.13496,-0.0091605,0.15959,0.11742,0.030332,0.03826,0.16717
0.0031126,0.0127,-0.0020333,-0.019115,0.00049582,-0.057514,-0.1157,0.17494,-0.0055278,0.0081577,-0.19783,-0.019562,-0.015678,0.02177,-0.11112,0.025459,-0.008004,0.12078,-0.0019354,0.17108,0.11885,0.023946,0.03918,0.15804
0.0015026,0.010145,-0.0059174,-0.015892,-0.0034479,-0.039261,-0.12785,0.16972,-0.0031694,0.0091981,-0.21679,-0.020498,-0.013764,0.023712,-0.10636,0.024962,-0.003776,0.10657,0.0024768,0.18021,0.1092,0.015259,0.037639,0.14889
-0.0037335,0.0081853,-0.0082019,-0.011918,-0.0015132,-0.017991,-0.13757,0.16679,-0.0010318,0.012397,-0.21644,-0.022056,-0.011566,0.017624,-0.10529,0.023133,-0.0010025,0.091212,0.0047789,0.18198,0.085336,0.014247,0.033171,0.1426
-0.0073681,0.0058175,-0.00915,-0.0060714,0.004151,-0.0018316,-0.14724,0.16899,0.00095995,0.011991,-0.19809,-0.022526,-0.0084867,0.0047629,-0.10645,0.0195,0.00079852,0.071367,0.0061901,0.17317,0.046979,0.034616,0.027118,0.13845
-0.0063068,0.0033662,-0.010244,0.002041,0.0082295,0.0053156,-0.15765,0.17626,0.0023232,0.0049943,-0.16965,-0.020595,-0.0045473,-0.0085912,-0.10698,0.015628,0.002731,0.045986,0.007277,0.15393,-0.0014781,0.08617,0.021991,0.13263
-0.0017338,0.0017392,-0.012535,0.011443,0.006974,0.0083692,-0.16714,0.18656,0.0023366,-0.005932,-0.14123,-0.01724,-0.0012017,-0.01532,-0.10486,0.013977,0.0051082,0.018425,0.008109,0.12816,-0.051937,0.16805,0.019606,0.12045
0.0024671,0.0014362,-0.015883,0.020297,0.0015138,0.018617,-0.17275,0.19803,0.00081374,-0.01376,-0.11955,-0.015768,-0.00029317,-0.013049,-0.10015,0.015696,0.00698,-0.0060778,0.0089511,0.10187,-0.09586,0.26759,0.01966,0.09884
0.003132,0.0025523,-0.019457,0.027011,-0.0032361,0.044413,-0.17242,0.21048,-0.0013178,-0.012181,-0.10481,-0.019401,-0.0021647,-0.0060485,-0.094605,0.019419,0.0069075,-0.02487,0.010239,0.080456,-0.1277,0.36569,0.020007,0.068241
1.7962e-005,0.0056095,-0.022494,0.031028,-0.0030651,0.081981,-0.16659,0.22493,-0.0022446,-0.00074848,-0.092268,-0.028198,-0.0050082,-0.001335,-0.090158,0.022239,0.0042175,-0.0396,0.011706,0.066293,-0.14622,0.44503,0.018313,0.033079
-0.0047271,0.011866,-0.024358,0.032776,0.0017224,0.11509,-0.15814,0.24131,-0.00031807,0.01426,-0.076988,-0.038049,-0.0063931,-0.002204,-0.087441,0.022098,-0.00036256,-0.053319,0.011904,0.058199,-0.15317,0.49617,0.013619,0.00063932
-0.0087961,0.022125,-0.024061,0.032952,0.0065898,0.12622,-0.15104,0.25627,0.0047617,0.024222,-0.058244,-0.042977,-0.005667,-0.0050634,-0.085313,0.019475,-0.005185,-0.066008,0.0093048,0.052955,-0.15083,0.5184,0.0066527,-0.021357
-0.011405,0.034721,-0.020257,0.031775,0.0067893,0.11188,-0.14872,0.26336,0.011534,0.02432,-0.040047,-0.03923,-0.0048527,-0.0026417,-0.081592,0.016869,-0.0087987,-0.073494,0.004509,0.047576,-0.14077,0.51609,-0.00087629,-0.027522
-0.013124,0.044756,-0.012313,0.028817,0.001403,0.089374,-0.15297,0.25641,0.017526,0.016494,-0.027691,-0.028016,-0.0069248,0.0091375,-0.07442,0.016515,-0.010705,-0.071479,0.0013689,0.040822,-0.12455,0.49439,-0.0070417,-0.016544
-0.014494,0.046149,-0.0017232,0.023502,-0.0061704,0.087719,-0.16344,0.23379,0.02069,0.0071095,-0.023361,-0.014694,-0.012827,0.026705,-0.06339,0.018416,-0.011158,-0.061016,0.0051077,0.033298,-0.10531,0.4578,-0.010093,0.0090536
-0.015079,0.035796,0.0076287,0.0158,-0.011421,0.12755,-0.17753,0.20037,0.020549,0.0017831,-0.024476,-0.0050655,-0.01996,0.040792,-0.049804,0.020536,-0.010395,-0.049615,0.018009,0.026592,-0.087867,0.41215,-0.0089421,0.044827
-0.013902,0.016785,0.011245,0.0064664,-0.012377,0.20466,-0.19119,0.16495,0.01832,0.0018054,-0.026022,-0.0016056,-0.023766,0.043191,-0.036046,0.021025,-0.0082853,-0.045907,0.036007,0.022285,-0.076554,0.36695,-0.0040895,0.08645
-0.010671,-0.0024209,0.0069507,-0.0034346,-0.010338,0.29018,-0.20076,0.13523,0.016007,0.0045939,-0.024764,-0.0024309,-0.021336,0.032821,-0.024528,0.020349,-0.0049405,-0.052078,0.04977,0.021311,-0.072251,0.33429,0.0017434,0.13031
-0.0064332,-0.013147,-0.0031985,-0.013311,-0.0074739,0.34807,-0.20554,0.11431,0.01517,0.0068488,-0.021783,-0.0034646,-0.014027,0.016429,-0.016724,0.021126,-0.0016319,-0.061179,0.050631,0.023624,-0.071314,0.32328,0.0045657,0.17246
-0.0029554,-0.012583,-0.01387,-0.023376,-0.0042558,0.35751,-0.20941,0.10146,0.016153,0.0072085,-0.021321,-0.001795,-0.0066988,0.0037562,-0.012618,0.025567,-0.00070072,-0.062539,0.037357,0.028191,-0.067877,0.33317,0.0017003,0.20763
-0.0014966,-0.0060022,-0.020001,-0.034153,0.00037791,0.3241,-0.2198,0.095914,0.018182,0.0064684,-0.027001,0.0024766,-0.0039749,0.0010615,-0.010684,0.032791,-0.0039231,-0.051133,0.018088,0.033427,-0.058129,0.35126,-0.0059148,0.23004
-0.0021751,-0.0029442,-0.020445,-0.04561,0.0063532,0.27264,-0.24399,0.099284,0.020112,0.0060338,-0.038521,0.0070792,-0.0065133,0.007541,-0.0084537,0.038765,-0.010495,-0.032703,0.005022,0.038028,-0.043245,0.35878,-0.014058,0.23621
-0.0044124,-0.009987,-0.018822,-0.056846,0.010512,0.2281,-0.2849,0.11361,0.021215,0.0065589,-0.051377,0.010006,-0.010431,0.016671,-0.0036627,0.03934,-0.016705,-0.019792,0.0054336,0.041636,-0.028478,0.34235,-0.018437,0.22756
-0.007743,-0.025722,-0.020655,-0.066797,0.0081366,0.19957,-0.33925,0.13672,0.021448,0.0078755,-0.059736,0.011306,-0.010462,0.021044,0.0044154,0.033879,-0.018231,-0.021877,0.016159,0.044611,-0.019075,0.30314,-0.018193,0.20992
-0.011945,-0.04197,-0.028905,-0.075271,-0.0029164,0.1781,-0.39948,0.15993,0.021037,0.0097241,-0.060247,0.012813,-0.0042943,0.017288,0.014245,0.026135,-0.01357,-0.038077,0.026344,0.046968,-0.016402,0.25673,-0.016546,0.18966
-0.01634,-0.050214,-0.041475,-0.083021,-0.019391,0.14812,-0.45768,0.17142,0.019826,0.012191,-0.054016,0.016263,0.0054982,0.007925,0.022647,0.021295,-0.0056694,-0.058574,0.026431,0.047545,-0.017533,0.2229,-0.017918,0.16938
-0.019253,-0.048013,-0.052781,-0.090285,-0.034304,0.10185,-0.50861,0.1636,0.0171,0.015428,-0.045516,0.021591,0.013493,-0.00088807,0.026652,0.021651,-6.7892e-007,-0.073003,0.015914,0.044646,-0.018474,0.21226,-0.024185,0.1471
-0.018652,-0.040321,-0.058167,-0.094967,-0.042141,0.045784,-0.54954,0.13849,0.012296,0.019148,-0.039451,0.026908,0.015667,-0.0040486,0.025433,0.024727,-0.00036454,-0.078093,0.0033783,0.03813,-0.017956,0.21945,-0.033432,0.12007
-0.013797,-0.035074,-0.057551,-0.092536,-0.043103,-0.0043437,-0.57815,0.10622,0.0061038,0.022512,-0.037969,0.030122,0.012304,-0.0012416,0.020859,0.025589,-0.0058511,-0.078063,-0.0010263,0.031198,-0.018228,0.22716,-0.042112,0.090036
-0.0064166,-0.037038,-0.055342,-0.078689,-0.042563,-0.034394,-0.59113,0.077527,0.00084294,0.024567,-0.040068,0.030746,0.0072812,0.003118,0.01619,0.021273,-0.011578,-0.078381,0.0060003,0.029756,-0.022157,0.21702,-0.048243,0.064807
-2.507e-005,-0.044905,-0.056752,-0.0532,-0.046219,-0.039712,-0.58546,0.056288,-0.00071715,0.024855,-0.043228,0.030322,0.0045986,0.0036912,0.013877,0.013351,-0.012601,-0.079457,0.018769,0.038931,-0.029471,0.17877,-0.052599,0.054081
0.0024432,-0.053423,-0.063612,-0.021689,-0.05524,-0.025241,-0.56109,0.038178,0.0024344,0.023837,-0.045622,0.031095,0.0052176,-0.0013782,0.014164,0.0064433,-0.0076539,-0.07623,0.028035,0.05896,-0.035894,0.11161,-0.057078,0.062294
0.00084817,-0.058061,-0.073057,0.0067996,-0.065587,-2.3812e-005,-0.52241,0.016114,0.0081134,0.022916,-0.047071,0.034111,0.0068117,-0.0092308,0.015446,0.0042114,0.00038731,-0.063508,0.028628,0.083821,-0.036183,0.019141,-0.062285,0.084325
-0.0020012,-0.05811,-0.079961,0.025132,-0.071706,0.028244,-0.47651,-0.012513,0.011913,0.023992,-0.048244,0.038378,0.0063465,-0.015258,0.015905,0.0065234,0.0074194,-0.041505,0.022494,0.10433,-0.028416,-0.09591,-0.066865,0.10755
-0.0025048,-0.056101,-0.080911,0.032368,-0.071018,0.05481,-0.42954,-0.043164,0.010333,0.028564,-0.049234,0.041766,0.0030557,-0.017458,0.014988,0.010145,0.011584,-0.016329,0.015181,0.11387,-0.015651,-0.23211,-0.069068,0.11863
0.00097394,-0.054808,-0.076508,0.0336,-0.065368,0.076372,-0.38429,-0.068009,0.0036904,0.036706,-0.049095,0.042784,-0.00074817,-0.01804,0.013608,0.011904,0.014217,0.0045768,0.0099498,0.1125,-0.0035281,-0.38524,-0.06869,0.10982
0.006976,-0.054821,-0.070424,0.035571,-0.058713,0.089785,-0.3409,-0.082515,-0.0038401,0.046594,-0.046852,0.041676,-0.0015673,-0.020817,0.013125,0.011183,0.017729,0.017403,0.00534,0.10614,0.0039575,-0.54449,-0.067266,0.080962
0.012273,-0.054564,-0.066392,0.041676,-0.0537,0.092929,-0.29956,-0.088817,-0.0074473,0.055171,-0.04294,0.039923,0.0024104,-0.026982,0.014002,0.0096097,0.022694,0.023096,-0.002001,0.10132,0.0068652,-0.69313,-0.066339,0.036951
0.014437,-0.052219,-0.065718,0.050159,-0.050187,0.086634,-0.26227,-0.093241,-0.0056319,0.059762,-0.03945,0.038724,0.0098293,-0.033483,0.015193,0.0088057,0.026896,0.024696,-0.012744,0.10006,0.0082454,-0.81389,-0.065705,-0.015893
0.013487,-0.047499,-0.067057,0.056348,-0.046484,0.075087,-0.2319,-0.10071,-0.0014417,0.059581,-0.038672,0.037865,0.017129,-0.03557,0.014691,0.0087605,0.027086,0.02448,-0.023458,0.099152,0.011128,-0.89532,-0.063598,-0.071739
0.011333,-0.041786,-0.0681,0.056492,-0.041473,0.063731,-0.20963,-0.11128,0.00017291,0.055971,-0.041074,0.035974,0.021021,-0.031049,0.010913,0.0084137,0.021707,0.023742,-0.029674,0.094616,0.016392,-0.93505,-0.058839,-0.12509
0.0096548,-0.036824,-0.067443,0.050049,-0.035422,0.056184,-0.19351,-0.12173,-0.0034379,0.051138,-0.04465,0.031853,0.020521,-0.022175,0.0040628,0.0074484,0.012194,0.02441,-0.030125,0.08714,0.022865,-0.93838,-0.052934,-0.17026
0.0081776,-0.033375,-0.065207,0.03928,-0.029082,0.052518,-0.1796,-0.13,-0.010627,0.046451,-0.046476,0.025623,0.017137,-0.013593,-0.0035127,0.0070042,0.0019757,0.029486,-0.027852,0.083188,0.028699,-0.91396,-0.04997,-0.20188
0.0049233,-0.031014,-0.062395,0.027368,-0.02252,0.049653,-0.16454,-0.13803,-0.017367,0.041758,-0.045263,0.018706,0.013336,-0.008481,-0.0084682,0.0083264,-0.0057206,0.041017,-0.027174,0.09025,0.032317,-0.86974,-0.054098,-0.21614
-0.0017061,-0.029008,-0.059946,0.016913,-0.015252,0.042628,-0.14734,-0.15008,-0.021131,0.036276,-0.042598,0.012713,0.010675,-0.0064565,-0.0085422,0.01082,-0.0094532,0.057723,-0.029626,0.11017,0.032412,-0.81177,-0.06656,-0.21172
-0.010835,-0.027264,-0.058344,0.009473,-0.0076062,0.025369,-0.12914,-0.16833,-0.023006,0.030173,-0.041528,0.0082754,0.0090275,-0.0047891,-0.0041591,0.01188,-0.0096482,0.075535,-0.03277,0.13668,0.027842,-0.74618,-0.08468,-0.18994
-0.018999,-0.026382,-0.057761,0.005606,-0.0017414,-0.0086856,-0.11183,-0.19004,-0.026128,0.025235,-0.043493,0.004759,0.0073205,-0.0013028,0.0017735,0.0091561,-0.0076435,0.091322,-0.032769,0.15963,0.018103,-0.68151,-0.10361,-0.15492
-0.022419,-0.02678,-0.058203,0.004889,-0.00087928,-0.064572,-0.097176,-0.20898,-0.032118,0.023801,-0.04635,0.00098257,0.0049148,0.0037476,0.0058929,0.0032268,-0.0047234,0.10624,-0.028002,0.17264,0.0039356,-0.62821,-0.11933,-0.11396
-0.019989,-0.027725,-0.059371,0.0061224,-0.0070129,-0.14198,-0.086519,-0.22001,-0.039093,0.026759,-0.045475,-0.0037708,0.0023255,0.0081008,0.0067162,-0.0021007,-0.001743,0.1246,-0.020327,0.17746,-0.012892,-0.59323,-0.13055,-0.077256
-0.014456,-0.027263,-0.060462,0.0080878,-0.018953,-0.23194,-0.08067,-0.22277,-0.043205,0.032357,-0.03733,-0.0092495,0.00066536,0.009362,0.0054104,-0.0026046,0.00078098,0.14847,-0.013127,0.18141,-0.030642,-0.57245,-0.13826,-0.055328
-0.0106,-0.023311,-0.060329,0.010466,-0.032532,-0.31741,-0.079317,-0.22182,-0.042173,0.037045,-0.022566,-0.014478,0.0004275,0.0067191,0.0044241,0.0027139,0.0025174,0.17281,-0.0083592,0.1906,-0.048274,-0.54714,-0.14366,-0.05434
-0.011689,-0.015185,-0.057976,0.013875,-0.043062,-0.37906,-0.080729,-0.22377,-0.037423,0.037883,-0.0058472,-0.018388,0.00084162,0.0015929,0.0052662,0.010471,0.0032855,0.18681,-0.005359,0.20489,-0.064742,-0.48997,-0.14649,-0.071973
-0.017113,-0.0043902,-0.052974,0.018609,-0.048287,-0.4033,-0.08268,-0.23421,-0.032817,0.03464,0.0077344,-0.020354,0.00047949,-0.0028178,0.0074143,0.015423,0.0030197,0.18148,-0.0020747,0.21886,-0.077657,-0.38018,-0.14514,-0.097721
-0.023189,0.0060795,-0.04548,0.023157,-0.049622,-0.38745,-0.084241,-0.25638,-0.031248,0.029859,0.016827,-0.020405,-0.0014503,-0.0028777,0.0091908,0.014586,0.0016171,0.15766,0.0029683,0.22734,-0.083309,-0.21983,-0.13829,-0.11903
-0.026413,0.01356,-0.03603,0.02429,-0.050846,-0.33897,-0.086664,-0.29122,-0.032247,0.026736,0.025051,-0.019203,-0.0043798,0.0035791,0.0095882,0.0094274,-0.0012092,0.12719,0.0099488,0.22995,-0.078981,-0.039423,-0.1266,-0.13004
-0.026243,0.017336,-0.025466,0.019322,-0.055296,-0.27051,-0.091984,-0.3369,-0.03262,0.026459,0.038132,-0.01785,-0.006948,0.015622,0.0092337,0.0043723,-0.0058027,0.1054,0.018484,0.2307,-0.065937,0.11343,-0.11312,-0.13658
-0.024962,0.018789,-0.015078,0.0089073,-0.063596,-0.19512,-0.1002,-0.38734,-0.029303,0.02714,0.059225,-0.01749,-0.0082949,0.029161,0.0096907,0.0030758,-0.012095,0.10072,0.028345,0.23344,-0.050031,0.19787,-0.10212,-0.15276
-0.024951,0.019906,-0.0065316,-0.0023106,-0.073352,-0.12451,-0.10773,-0.43152,-0.021805,0.0253,0.086318,-0.018759,-0.0087865,0.039076,0.011989,0.0057069,-0.019136,0.1094,0.03893,0.23767,-0.03862,0.20238,-0.097132,-0.19045
-0.026207,0.021372,-0.0012354,-0.0083516,-0.080802,-0.068963,-0.10898,-0.45598,-0.012375,0.018827,0.1138,-0.021356,-0.0094519,0.042409,0.015943,0.0093084,-0.025169,0.11935,0.048131,0.23859,-0.0359,0.15215,-0.099405,-0.24918
-0.026616,0.02192,0.00053895,-0.00611,-0.08319,-0.035778,-0.10008,-0.45078,-0.0041796,0.0091276,0.13667,-0.024181,-0.01074,0.040194,0.020839,0.010515,-0.0285,0.11935,0.052374,0.23121,-0.040568,0.095814,-0.10743,-0.31457
-0.024637,0.019638,2.604e-005,0.0022607,-0.080314,-0.025386,-0.081558,-0.41569,0.00073378,0.00064507,0.15354,-0.026101,-0.01193,0.036261,0.026527,0.0081114,-0.028713,0.1058,0.048731,0.21478,-0.047732,0.079376,-0.11757,-0.36745
-0.021496,0.01423,-0.0006467,0.010838,-0.074375,-0.028612,-0.057576,-0.36239,0.0022835,-0.0020876,0.16607,-0.026861,-0.011889,0.033836,0.033535,0.0035112,-0.027299,0.082605,0.037573,0.19345,-0.053117,0.12241,-0.12565,-0.3972
-0.020409,0.0082533,0.00037899,0.014149,-0.068298,-0.02967,-0.032587,-0.30993,0.0019054,0.0022056,0.17578,-0.02731,-0.010447,0.032857,0.041956,-0.00073298,-0.027034,0.055665,0.023091,0.17279,-0.055661,0.21024,-0.12896,-0.40873
-0.023424,0.0060479,0.003923,0.010752,-0.063701,-0.015127,-0.0085703,-0.27564,0.0016204,0.01032,0.18199,-0.02858,-0.0089675,0.030465,0.05033,-0.0027896,-0.03037,0.028137,0.010559,0.15485,-0.056442,0.30581,-0.12782,-0.41729
-0.02906,0.010959,0.0098954,0.0034961,-0.059974,0.016909,0.014805,-0.26633,0.0032534,0.016516,0.18289,-0.030786,-0.0093862,0.02433,0.056053,-0.002425,-0.037974,0.00020072,0.0023902,0.1359,-0.055681,0.37303,-0.12557,-0.43472
-0.033293,0.022899,0.017905,-0.0033525,-0.055195,0.054952,0.037747,-0.27506,0.0078522,0.016358,0.17857,-0.032486,-0.012503,0.015813,0.057381,-0.0007511,-0.048465,-0.027886,-0.0034392,0.10814,-0.051256,0.39705,-0.12656,-0.45869
-0.033122,0.038092,0.027535,-0.0075135,-0.048248,0.082115,0.058503,-0.28523,0.015171,0.0096993,0.17237,-0.031678,-0.017097,0.0098785,0.055384,0.00048891,-0.059364,-0.054032,-0.010888,0.063924,-0.040324,0.38882,-0.13303,-0.47373
-0.029301,0.051143,0.038033,-0.009957,-0.040425,0.088352,0.074175,-0.27963,0.02343,0.00067052,0.1688,-0.027781,-0.020733,0.01143,0.053813,-0.00039516,-0.068261,-0.076348,-0.021459,-0.00088877,-0.022281,0.3719,-0.14309,-0.46322
-0.025564,0.057906,0.047973,-0.013424,-0.03503,0.077477,0.083461,-0.2493,0.029824,-0.0053329,0.16987,-0.022862,-0.02158,0.020973,0.056547,-0.0043647,-0.073201,-0.096529,-0.032072,-0.086325,4.2395e-006,0.36163,-0.15144,-0.42234
-0.02508,0.057269,0.055663,-0.019775,-0.035018,0.063408,0.088591,-0.19753,0.031917,-0.0054503,0.17383,-0.020618,-0.01969,0.033435,0.064492,-0.010967,-0.072394,-0.1197,-0.037306,-0.18956,0.021855,0.35226,-0.15272,-0.36134
-0.027529,0.051059,0.060227,-0.028342,-0.040406,0.058895,0.094453,-0.13708,0.029239,-0.0012175,0.17758,-0.023432,-0.016731,0.041529,0.074641,-0.018105,-0.064224,-0.1489,-0.033895,-0.30562,0.039573,0.3225,-0.1452,-0.29721
-0.029527,0.042621,0.062492,-0.036388,-0.047615,0.066042,0.10544,-0.082749,0.023925,0.0027789,0.18019,-0.029776,-0.014576,0.041226,0.082297,-0.022864,-0.048207,-0.17857,-0.023199,-0.42636,0.051693,0.25523,-0.1321,-0.24172
-0.027793,0.035144,0.064654,-0.041076,-0.051519,0.076215,0.12244,-0.043681,0.01963,0.0023713,0.18355,-0.034462,-0.014026,0.034875,0.084761,-0.02326,-0.026201,-0.19398,-0.0095134,-0.53918,0.057882,0.15595,-0.11933,-0.19625
-0.021963,0.030501,0.068745,-0.0414,-0.048866,0.078773,0.14225,-0.019722,0.019213,-0.0031769,0.18938,-0.032156,-0.014592,0.02914,0.083375,-0.019749,-0.002407,-0.17967,0.0036806,-0.62848,0.057157,0.053836,-0.11141,-0.15681
-0.014497,0.028826,0.074991,-0.038726,-0.040499,0.070721,0.15957,-0.0034376,0.022747,-0.010759,0.19589,-0.021708,-0.015157,0.029209,0.08215,-0.01515,0.018418,-0.13174,0.015519,-0.68082,0.047558,-0.016716,-0.10834,-0.12336
-0.0081503,0.028826,0.081508,-0.03567,-0.030582,0.058936,0.17012,0.014086,0.027413,-0.015759,0.19818,-0.0077081,-0.014718,0.034065,0.084177,-0.012741,0.033374,-0.064067,0.026025,-0.69126,0.027681,-0.040177,-0.10601,-0.10412
-0.0037114,0.028761,0.085768,-0.034233,-0.023342,0.053436,0.17279,0.037642,0.029502,-0.015247,0.1927,0.0023473,-0.012679,0.037024,0.088952,-0.013883,0.042408,-0.0018465,0.033342,-0.66602,-0.0016372,-0.030198,-0.09966,-0.11075
-0.00017862,0.027688,0.086831,-0.034616,-0.019852,0.057961,0.16977,0.065878,0.027063,-0.0096609,0.18127,0.0033853,-0.0088963,0.031443,0.092901,-0.017071,0.047075,0.033751,0.033721,-0.61883,-0.037313,-0.017367,-0.08791,-0.14895
0.0031652,0.026132,0.086509,-0.035564,-0.017484,0.066298,0.16477,0.093478,0.021201,-0.001988,0.17049,-0.0035453,-0.0038825,0.016885,0.092511,-0.019229,0.048383,0.038664,0.025059,-0.56317,-0.075708,-0.024262,-0.074209,-0.2126
0.0052667,0.025536,0.088328,-0.035827,-0.012544,0.067519,0.16078,0.11531,0.015065,0.0045299,0.16667,-0.012151,0.00093178,0.00036936,0.087263,-0.018225,0.045954,0.026467,0.010531,-0.50595,-0.11416,-0.048248,-0.064507,-0.28635
0.0042088,0.026697,0.094876,-0.035377,-0.0038903,0.05542,0.15869,0.12939,0.011473,0.00816,0.17078,-0.015644,0.0034939,-0.008678,0.079895,-0.014563,0.039322,0.016151,-0.0019318,-0.44712,-0.15063,-0.065992,-0.062834,-0.35395
-0.00030763,0.028504,0.10553,-0.035271,0.0056223,0.03398,0.15763,0.13681,0.011145,0.0088001,0.1783,-0.011577,0.0022999,-0.0057557,0.074037,-0.010923,0.0299,0.01723,-0.0048894,-0.3845,-0.18182,-0.055469,-0.068176,-0.40555
-0.0055978,0.028313,0.11644,-0.036319,0.011229,0.014311,0.15654,0.1394,0.012835,0.0070195,0.18352,-0.0030596,-0.0022238,0.0051447,0.071542,-0.010006,0.021312,0.024168,0.0028347,-0.31912,-0.20215,-0.016753,-0.075154,-0.43875
-0.0075797,0.024032,0.12287,-0.037947,0.010134,0.0058943,0.15567,0.13746,0.014904,0.0033757,0.1841,0.004281,-0.0073954,0.014575,0.07172,-0.012512,0.017325,0.023864,0.015092,-0.25651,-0.20566,0.025674,-0.078079,-0.45425
-0.0042711,0.01638,0.12225,-0.038474,0.0038152,0.0094698,0.15668,0.12948,0.016723,-0.0014149,0.18158,0.0068397,-0.0096719,0.014591,0.072653,-0.016827,0.01909,0.0088598,0.023303,-0.20332,-0.19022,0.040738,-0.075288,-0.45094
0.0020049,0.0092084,0.11569,-0.036679,-0.0032127,0.017039,0.16118,0.11401,0.018726,-0.0061679,0.17822,0.0054071,-0.006974,0.0039991,0.072814,-0.020517,0.024214,-0.015396,0.023219,-0.16281,-0.16087,0.014048,-0.070416,-0.42515
0.0060929,0.0071665,0.10697,-0.033189,-0.0068652,0.018329,0.16889,0.091917,0.021358,-0.009727,0.17401,0.0038511,-0.00020853,-0.011805,0.071389,-0.022222,0.028579,-0.03506,0.017753,-0.13308,-0.12887,-0.041682,-0.069753,-0.37417
0.0042766,0.012162,0.10007,-0.030244,-0.0060245,0.0081278,0.17708,0.067009,0.024196,-0.012071,0.16708,0.0056801,0.0072262,-0.025353,0.067515,-0.022371,0.029327,-0.039529,0.013661,-0.10896,-0.10634,-0.096161,-0.077909,-0.3006
-0.0022964,0.021389,0.096857,-0.02992,-0.0021757,-0.010938,0.18197,0.044241,0.026163,-0.014687,0.1568,0.011468,0.011611,-0.031875,0.060033,-0.022295,0.026479,-0.029852,0.015344,-0.085665,-0.099907,-0.12244,-0.095147,-0.21311
-0.0082325,0.028763,0.096539,-0.032365,0.0028068,-0.031353,0.18109,0.026795,0.026522,-0.019225,0.14567,0.018913,0.011192,-0.031051,0.04864,-0.022749,0.022045,-0.017103,0.021332,-0.06129,-0.10781,-0.11331,-0.11805,-0.12256
-0.008271,0.029021,0.096578,-0.035688,0.0080801,-0.0462,0.17509,0.014207,0.025519,-0.025213,0.13776,0.024906,0.0070922,-0.025716,0.035374,-0.023297,0.017814,-0.012959,0.026241,-0.037228,-0.12248,-0.082939,-0.14234,-0.036644
-0.0017409,0.02157,0.094317,-0.037614,0.013212,-0.052936,0.16747,0.0030725,0.023915,-0.028999,0.13508,0.027618,0.002484,-0.019597,0.024351,-0.023041,0.013943,-0.020889,0.025817,-0.016873,-0.13627,-0.055966,-0.16516,0.042764
0.0067503,0.011142,0.088303,-0.037427,0.016922,-0.053441,0.16251,-0.010168,0.02193,-0.025527,0.13575,0.027174,0.00071212,-0.015771,0.019103,-0.021824,0.0094375,-0.034833,0.020181,-0.0035707,-0.14594,-0.054145,-0.18532,0.11741
0.01096,0.0046816,0.078932,-0.036461,0.017392,-0.051286,0.1627,-0.02642,0.018834,-0.012171,0.13616,0.025062,0.0034585,-0.015887,0.019498,-0.02057,0.0036436,-0.045239,0.012578,0.0015323,-0.1531,-0.089079,-0.20206,0.18752
0.0078268,0.0066473,0.068454,-0.036751,0.01432,-0.048671,0.16756,-0.043171,0.013908,0.0081799,0.13504,0.023257,0.0097956,-0.019577,0.021238,-0.02036,-0.0028558,-0.046468,0.0054898,0.00091285,-0.16109,-0.16195,-0.21432,0.24791
-0.00050654,0.016029,0.060308,-0.039115,0.010381,-0.045024,0.17437,-0.056208,0.008045,0.027542,0.13515,0.023693,0.016547,-0.024281,0.019028,-0.021233,-0.0087182,-0.039632,-0.0017054,0.00014651,-0.17151,-0.26563,-0.22138,0.28849
-0.0087479,0.026987,0.057714,-0.042351,0.0098292,-0.037858,0.18034,-0.062395,0.0042885,0.03712,0.1406,0.027874,0.019882,-0.026264,0.011101,-0.022072,-0.012972,-0.029798,-0.011237,0.0049307,-0.18293,-0.3857,-0.22411,0.29913
-0.01242,0.032447,0.06181,-0.044173,0.014855,-0.025139,0.18445,-0.06151,0.0062459,0.032881,0.15181,0.036264,0.017465,-0.022806,0.0012035,-0.021817,-0.015586,-0.021273,-0.023398,0.017178,-0.19192,-0.50145,-0.22501,0.27594
-0.010404,0.028202,0.070359,-0.042948,0.023048,-0.0076025,0.18768,-0.056119,0.01519,0.018555,0.16308,0.047714,0.0099448,-0.014154,-0.0039582,-0.020788,-0.017059,-0.015322,-0.034793,0.033245,-0.19476,-0.59008,-0.22636,0.22521
-0.0045781,0.015101,0.078261,-0.038736,0.028825,0.010582,0.1916,-0.05,0.028221,0.0036381,0.16564,0.059678,0.00077408,-0.0035859,2.773e-005,-0.020632,-0.017707,-0.01145,-0.04043,0.046321,-0.18848,-0.63397,-0.22814,0.16235
0.0022678,-0.0016435,0.080185,-0.032873,0.028041,0.023506,0.1967,-0.046404,0.039454,-0.0026937,0.15421,0.069541,-0.00571,0.0045372,0.011552,-0.022753,-0.017497,-0.0098623,-0.037886,0.051574,-0.17113,-0.62622,-0.22748,0.10539
0.0080999,-0.015399,0.07391,-0.026658,0.021823,0.026662,0.20189,-0.047024,0.043834,0.0021899,0.1314,0.076225,-0.0067151,0.0071724,0.023806,-0.026686,-0.016498,-0.012098,-0.029838,0.049895,-0.14227,-0.56966,-0.22057,0.065177
0.011917,-0.021633,0.061923,-0.020308,0.016037,0.019435,0.20556,-0.051736,0.040744,0.012452,0.10612,0.080721,-0.0023373,0.0037365,0.029449,-0.030073,-0.015248,-0.01927,-0.022651,0.046854,-0.10367,-0.46998,-0.20568,0.036783
0.013337,-0.020127,0.049769,-0.012962,0.016625,0.0051561,0.20697,-0.058832,0.034368,0.017898,0.086757,0.084857,0.0049511,-0.0043282,0.025481,-0.030432,-0.014496,-0.030071,-0.0222,0.047616,-0.05964,-0.32989,-0.18463,-0.0020065
0.012543,-0.014682,0.042102,-0.0035172,0.024741,-0.011233,0.20677,-0.065678,0.030233,0.011495,0.075051,0.089207,0.012047,-0.014621,0.01475,-0.027163,-0.014556,-0.040958,-0.030209,0.052294,-0.015773,-0.15085,-0.16153,-0.081772
0.010657,-0.010427,0.039451,0.0084205,0.035808,-0.025996,0.20587,-0.06991,0.030677,-0.0051631,0.065647,0.091948,0.016833,-0.02464,0.0034243,-0.02199,-0.015021,-0.048631,-0.04366,0.055982,0.023322,0.058511,-0.1398,-0.2244
0.0096529,-0.01037,0.03827,0.022115,0.043188,-0.037797,0.20409,-0.070817,0.033102,-0.022727,0.051581,0.089825,0.018747,-0.032454,-0.0033145,-0.01754,-0.015177,-0.052456,-0.057203,0.053369,0.055991,0.2753,-0.11981,-0.42672
0.011205,-0.013439,0.034207,0.035919,0.043314,-0.046817,0.19998,-0.069998,0.03259,-0.03096,0.030662,0.080616,0.018391,-0.037407,-0.0042307,-0.015446,-0.014679,-0.05436,-0.066441,0.043583,0.083595,0.46506,-0.099258,-0.65546
0.015148,-0.01535,0.025825,0.047895,0.038113,-0.053132,0.19232,-0.070435,0.026622,-0.02648,0.0071508,0.065161,0.016884,-0.040384,-0.001997,-0.015657,-0.013777,-0.056148,-0.069853,0.030622,0.10866,0.59459,-0.075813,-0.85869
0.019006,-0.011686,0.015749,0.056496,0.033101,-0.056044,0.1819,-0.074229,0.017679,-0.01536,-0.012403,0.047303,0.015412,-0.042823,-0.00082727,-0.017308,-0.012906,-0.056783,-0.06856,0.018926,0.13249,0.6465,-0.049867,-0.98804
0.019464,-0.0010751,0.0084813,0.061033,0.033052,-0.054727,0.17174,-0.08056,0.011357,-0.0084674,-0.025024,0.031713,0.014883,-0.04472,-0.0037546,-0.019999,-0.012181,-0.052363,-0.06471,0.0083108,0.15407,0.62549,-0.024986,-1.0189
0.014979,0.013569,0.0069275,0.061762,0.038781,-0.049136,0.16538,-0.085648,0.011676,-0.013171,-0.033494,0.021244,0.015444,-0.043434,-0.01123,-0.024127,-0.011346,-0.039182,-0.05983,-0.0067914,0.1708,0.55293,-0.0055369,-0.95646
0.0074876,0.026344,0.010461,0.059615,0.047146,-0.040114,0.16444,-0.085125,0.017832,-0.027914,-0.04324,0.01567,0.016076,-0.03514,-0.021408,-0.03006,-0.01017,-0.017473,-0.054157,-0.032657,0.18056,0.45505,0.0068083,-0.82669
0.001576,0.031234,0.01573,0.055802,0.053606,-0.028766,0.16783,-0.077234,0.025218,-0.043753,-0.057318,0.012591,0.014862,-0.018516,-0.031359,-0.037207,-0.0086874,0.0072157,-0.04715,-0.069922,0.18358,0.35309,0.014933,-0.66008
0.0013804,0.02502,0.019086,0.051556,0.055002,-0.016069,0.17313,-0.064396,0.029539,-0.051321,-0.074257,0.0096119,0.010238,0.002332,-0.038231,-0.044058,-0.0069523,0.026239,-0.038661,-0.11081,0.18307,0.25991,0.024876,-0.48108
0.0074373,0.008985,0.018523,0.048068,0.050771,-0.0032537,0.17879,-0.051794,0.030066,-0.047554,-0.090374,0.0061191,0.00255,0.018874,-0.040056,-0.049164,-0.0046249,0.032285,-0.029863,-0.14218,0.18395,0.18179,0.041902,-0.30758
0.016008,-0.011257,0.014003,0.046384,0.042555,0.0076357,0.18504,-0.043941,0.029187,-0.03715,-0.10377,0.0034301,-0.0053997,0.023244,-0.036464,-0.052064,-0.0010481,0.023285,-0.023167,-0.15211,0.19046,0.12138,0.066736,-0.15604
0.02164,-0.027978,0.0066107,0.047051,0.033306,0.014038,0.19272,-0.041748,0.029148,-0.028308,-0.11595,0.0033848,-0.0096713,0.013806,-0.029357,-0.053296,0.0040141,0.0036549,-0.02097,-0.13549,0.20363,0.079138,0.094693,-0.043284
0.021167,-0.035023,-0.0022816,0.049682,0.026591,0.01422,0.20154,-0.042173,0.029555,-0.026595,-0.12979,0.0065763,-0.007773,-0.0033458,-0.022871,-0.053679,0.0096371,-0.017761,-0.023939,-0.095586,0.22048,0.05381,0.11851,0.018768
0.016055,-0.031315,-0.011318,0.052924,0.025793,0.0085832,0.20967,-0.040474,0.028108,-0.031621,-0.14627,0.011606,-0.00062376,-0.018535,-0.021734,-0.053709,0.013889,-0.032094,-0.030073,-0.041869,0.23567,0.043137,0.13299,0.031276
0.011191,-0.021842,-0.019253,0.05519,0.032682,-0.00037123,0.215,-0.033217,0.02357,-0.038279,-0.1632,0.015898,0.0078019,-0.025284,-0.028405,-0.053608,0.015027,-0.035149,-0.035464,0.013597,0.24503,0.045227,0.13818,0.011284
0.010998,-0.014764,-0.025289,0.05578,0.045828,-0.0096461,0.21701,-0.019908,0.017625,-0.040774,-0.17694,0.017383,0.013124,-0.024495,-0.041028,-0.053677,0.012841,-0.029797,-0.036613,0.059136,0.24865,0.059354,0.13882,-0.014726
0.015943,-0.015934,-0.029503,0.055505,0.06043,-0.017689,0.2171,-0.0025508,0.01358,-0.036178,-0.18513,0.015726,0.013581,-0.022842,-0.05442,-0.054275,0.0089132,-0.024151,-0.032907,0.085394,0.25119,0.084857,0.1405,-0.022834
0.022233,-0.024625,-0.032723,0.056084,0.070602,-0.025133,0.21731,0.015956,0.013202,-0.02548,-0.18782,0.012206,0.011079,-0.026829,-0.064009,-0.055311,0.0054323,-0.025992,-0.027384,0.086835,0.25884,0.11839,0.14547,-0.0013815
0.024912,-0.034054,-0.035725,0.058585,0.073162,-0.033851,0.21866,0.033133,0.014971,-0.0123,-0.18649,0.0085008,0.0094507,-0.0374,-0.069636,-0.055878,0.003485,-0.036859,-0.024854,0.063063,0.27535,0.15182,0.15123,0.046897
0.021834,-0.036809,-0.038425,0.062156,0.070035,-0.045191,0.22077,0.047304,0.01558,-0.00068163,-0.18255,0.0055112,0.011302,-0.049336,-0.075595,-0.054662,0.0023221,-0.050384,-0.02836,0.0193,0.29992,0.17374,0.15258,0.10961
0.015323,-0.031081,-0.040017,0.064301,0.066957,-0.058784,0.22278,0.057476,0.013192,0.0066813,-0.17697,0.0032123,0.015937,-0.055673,-0.086424,-0.050898,0.00031069,-0.056851,-0.036512,-0.034931,0.32855,0.17514,0.14552,0.17179
0.010286,-0.0225,-0.040093,0.062751,0.068991,-0.072517,0.22459,0.063445,0.0092166,0.0092185,-0.171,0.0014538,0.019894,-0.053287,-0.10207,-0.044969,-0.0032113,-0.050988,-0.043981,-0.088947,0.35712,0.15607,0.12971,0.22134
0.010394,-0.019799,-0.039711,0.057531,0.076354,-0.083284,0.22685,0.066172,0.006857,0.0082358,-0.1667,0.00067837,0.019562,-0.045126,-0.11715,-0.038032,-0.0068461,-0.036745,-0.04523,-0.1345,0.3832,0.12693,0.10833,0.25204
0.015429,-0.027743,-0.041198,0.051354,0.0841,-0.087783,0.22994,0.067785,0.0078478,0.0059408,-0.16633,0.0015712,0.013807,-0.037567,-0.12537,-0.030994,-0.0079088,-0.024699,-0.038865,-0.16782,0.40505,0.10153,0.085916,0.26438
0.021736,-0.043218,-0.046584,0.047729,0.086105,-0.08329,0.23303,0.070717,0.010504,0.0042333,-0.17099,0.0037288,0.0047658,-0.035457,-0.12515,-0.023866,-0.0045602,-0.023771,-0.029184,-0.18888,0.41943,0.085669,0.066201,0.26464
0.025168,-0.057645,-0.055917,0.048091,0.080108,-0.068889,0.23431,0.076378,0.01087,0.0038808,-0.17989,0.0045751,-0.0035883,-0.038983,-0.12111,-0.016093,0.0024461,-0.034077,-0.023464,-0.1987,0.42136,0.071208,0.051235,0.26137
0.024024,-0.063559,-0.06697,0.050364,0.069599,-0.047339,0.23239,0.084441,0.0058912,0.0045076,-0.1908,-0.00014089,-0.0078816,-0.044512,-0.11987,-0.0074834,0.0099338,-0.047034,-0.026903,-0.19695,0.40712,0.043148,0.041438,0.26008
0.019774,-0.059878,-0.07673,0.050376,0.06106,-0.026411,0.22742,0.09345,-0.004167,0.0052882,-0.2012,-0.01409,-0.0071401,-0.048055,-0.12415,0.0012448,0.014389,-0.052702,-0.039018,-0.18167,0.37816,-0.0038219,0.035891,0.25906
0.015417,-0.051905,-0.08355,0.045274,0.058936,-0.017657,0.22091,0.10223,-0.015957,0.0057578,-0.20901,-0.037718,-0.0029729,-0.048138,-0.13067,0.0088467,0.014384,-0.048021,-0.054204,-0.15145,0.34201,-0.052952,0.032608,0.2499
0.013155,-0.046702,-0.088259,0.036197,0.062426,-0.031542,0.21417,0.11081,-0.025532,0.0061379,-0.21276,-0.067179,0.0017048,-0.046037,-0.13385,0.014425,0.011459,-0.038855,-0.065854,-0.108,0.3081,-0.070248,0.029293,0.22312
0.013279,-0.047945,-0.093327,0.027874,0.066456,-0.070795,0.20686,0.12004,-0.030989,0.0070172,-0.21167,-0.095914,0.0044764,-0.043946,-0.13136,0.017909,0.0088033,-0.034332,-0.070775,-0.057036,0.28134,-0.026087,0.024767,0.17538
0.014707,-0.054029,-0.10075,0.025174,0.065708,-0.12648,0.19689,0.13027,-0.033397,0.0087015,-0.2059,-0.11801,0.0047077,-0.043119,-0.12606,0.019727,0.0088047,-0.038661,-0.070668,-0.0065707,0.25843,0.081876,0.020198,0.11233
0.016187,-0.060047,-0.11025,0.029251,0.058418,-0.18089,0.18208,0.14056,-0.035588,0.010692,-0.19691,-0.13119,0.0036441,-0.043381,-0.12271,0.02014,0.011375,-0.047642,-0.069894,0.036012,0.23062,0.2229,0.018819,0.044395
0.016935,-0.061367,-0.11929,0.036457,0.047245,-0.21716,0.16193,0.14922,-0.039893,0.01161,-0.18703,-0.13735,0.0033092,-0.043688,-0.12276,0.01901,0.014241,-0.052618,-0.071579,0.066316,0.19062,0.3498,0.023775,-0.021337
0.016477,-0.05613,-0.12483,0.041036,0.037015,-0.22977,0.13816,0.15528,-0.046384,0.0096624,-0.17832,-0.14055,0.0048806,-0.04275,-0.12258,0.016265,0.014801,-0.048061,-0.075073,0.083646,0.13818,0.42549,0.035457,-0.086271
0.014405,-0.045591,-0.12563,0.039472,0.031358,-0.22855,0.11357,0.15929,-0.052767,0.0035709,-0.17173,-0.14395,0.0076334,-0.039336,-0.11673,0.012468,0.011974,-0.036028,-0.076522,0.090392,0.079375,0.43954,0.050443,-0.15738
0.010626,-0.032986,-0.12318,0.032887,0.030635,-0.23214,0.09054,0.16278,-0.05603,-0.0064134,-0.1671,-0.148,0.0092975,-0.03266,-0.10304,0.0087713,0.0067305,-0.023931,-0.071936,0.090874,0.020583,0.40473,0.063105,-0.23817
0.0058393,-0.022044,-0.12045,0.025542,0.032284,-0.2548,0.070486,0.16669,-0.054782,-0.018009,-0.16422,-0.15109,0.0077193,-0.023097,-0.084829,0.006154,0.0011801,-0.018081,-0.060446,0.090009,-0.03712,0.34004,0.068807,-0.32143
0.0014677,-0.015724,-0.11932,0.020883,0.032917,-0.29536,0.05464,0.17049,-0.050678,-0.027484,-0.1635,-0.1518,0.0026357,-0.012606,-0.068313,0.0046096,-0.0027551,-0.01891,-0.045479,0.091802,-0.097669,0.25618,0.066367,-0.39104
-0.0011783,-0.015242,-0.11891,0.018753,0.030536,-0.33603,0.044791,0.17292,-0.047724,-0.031313,-0.16575,-0.1508,-0.0038879,-0.0040087,-0.057996,0.0031123,-0.0040924,-0.021761,-0.033112,0.097991,-0.16409,0.15374,0.058095,-0.43276
-0.0018462,-0.019464,-0.11635,0.016217,0.025515,-0.35201,0.042711,0.17368,-0.049723,-0.028071,-0.17111,-0.15094,-0.0088233,0.00073406,-0.053845,0.0004931,-0.0028184,-0.021867,-0.028784,0.10763,-0.23282,0.031679,0.047684,-0.44531
-0.0014845,-0.025115,-0.10955,0.011039,0.020046,-0.32544,0.048406,0.17452,-0.0576,-0.019392,-0.17844,-0.15536,-0.010304,0.0018769,-0.052191,-0.0034633,0.0002625,-0.018605,-0.034567,0.11804,-0.29445,-0.10463,0.037671,-0.44202
-0.0014301,-0.028089,-0.099454,0.0042893,0.016737,-0.25514,0.05893,0.17837,-0.068618,-0.0092602,-0.18594,-0.1653,-0.0087806,0.0015619,-0.048936,-0.0076328,0.0035152,-0.015305,-0.048601,0.12668,-0.3411,-0.24294,0.028163,-0.44017
-0.0024221,-0.025453,-0.089768,-0.00056167,0.017314,-0.15654,0.069346,0.18722,-0.078136,-0.0019891,-0.19229,-0.17914,-0.0063314,0.0019851,-0.042324,-0.010264,0.0046593,-0.015327,-0.066701,0.13239,-0.37443,-0.36956,0.017296,-0.44638
-0.0043362,-0.017003,-0.083878,-0.0012197,0.021971,-0.053168,0.075533,0.20037,-0.082617,-4.2803e-005,-0.19717,-0.19327,-0.004917,0.0037562,-0.033681,-0.010301,0.0016961,-0.018502,-0.084657,0.13524,-0.407,-0.474,0.0028086,-0.45012
-0.006743,-0.0052603,-0.081752,0.00074786,0.029357,0.034869,0.076609,0.21447,-0.081653,-0.0029293,-0.20045,-0.20388,-0.0052309,0.0060143,-0.026257,-0.008308,-0.0056412,-0.02121,-0.099543,0.13514,-0.45485,-0.5486,-0.016207,-0.43153
-0.009567,0.0061755,-0.079646,0.00092154,0.037027,0.098595,0.074738,0.22545,-0.077652,-0.0077461,-0.20099,-0.20837,-0.0070403,0.0080738,-0.023164,-0.0062345,-0.015085,-0.019687,-0.10951,0.13053,-0.52638,-0.58575,-0.038114,-0.3774
-0.013106,0.01478,-0.073126,-0.0040593,0.042252,0.14062,0.072393,0.23088,-0.073656,-0.011057,-0.19645,-0.20552,-0.010294,0.010731,-0.025393,-0.00607,-0.022781,-0.013129,-0.11293,0.11854,-0.6154,-0.5772,-0.058634,-0.29203
-0.017434,0.020176,-0.060845,-0.013385,0.043099,0.16926,0.069622,0.23097,-0.071087,-0.011075,-0.18486,-0.19472,-0.015499,0.01566,-0.030817,-0.0083415,-0.025719,-0.0038061,-0.10838,0.096741,-0.70265,-0.51702,-0.072224,-0.1939
-0.021883,0.023486,-0.045698,-0.022776,0.039409,0.19079,0.064128,0.22783,-0.068969,-0.0088692,-0.16671,-0.17545,-0.022778,0.023364,-0.035065,-0.011615,-0.023897,0.0054462,-0.095583,0.065632,-0.76467,-0.40517,-0.074739,-0.10111
-0.025233,0.02575,-0.032273,-0.028359,0.032968,0.20486,0.054305,0.22369,-0.064943,-0.0077574,-0.14576,-0.14745,-0.030663,0.031887,-0.034279,-0.013512,-0.020353,0.013514,-0.076743,0.030056,-0.78423,-0.24836,-0.066054,-0.018382
-0.026482,0.026951,-0.022926,-0.030012,0.026501,0.20572,0.042275,0.21939,-0.057148,-0.011095,-0.12732,-0.11149,-0.036255,0.037919,-0.028153,-0.012551,-0.018831,0.020846,-0.056387,-0.0016542,-0.75718,-0.059085,-0.05075,0.063429
-0.025498,0.026415,-0.016025,-0.031041,0.021923,0.1879,0.033499,0.21435,-0.045678,-0.019915,-0.11503,-0.070049,-0.03713,0.039543,-0.020704,-0.0093675,-0.02089,0.027429,-0.039558,-0.021081,-0.69287,0.14398,-0.035768,0.15516
-0.022988,0.024011,-0.0079666,-0.03462,0.019074,0.15205,0.03259,0.2077,-0.032784,-0.032174,-0.10817,-0.027423,-0.033438,0.03799,-0.017596,-0.0062104,-0.024822,0.031441,-0.029368,-0.024112,-0.60861,0.33404,-0.026172,0.25541
-0.019905,0.020818,0.0029324,-0.040528,0.016004,0.10656,0.038894,0.19957,-0.021769,-0.044263,-0.10175,0.010766,-0.028114,0.036477,-0.021783,-0.0049928,-0.027257,0.030331,-0.025716,-0.013645,-0.52114,0.47733,-0.021998,0.34662
-0.016962,0.018625,0.014245,-0.04535,0.01074,0.063589,0.046162,0.19158,-0.015224,-0.053596,-0.089588,0.038513,-0.024683,0.037044,-0.031146,-0.0054682,-0.026066,0.023423,-0.026001,0.0015818,-0.43942,0.54269,-0.01876,0.40416
-0.014664,0.018835,0.021091,-0.045877,0.0031861,0.032082,0.047145,0.18601,-0.013588,-0.06013,-0.068232,0.050779,-0.024441,0.038457,-0.040327,-0.0051695,-0.022068,0.013454,-0.027009,0.011802,-0.36262,0.51724,-0.011419,0.41068
-0.013643,0.021866,0.020402,-0.042405,-0.0044276,0.012404,0.039253,0.18427,-0.014882,-0.065647,-0.039217,0.045278,-0.025557,0.037456,-0.045265,-0.0013884,-0.018185,0.0053749,-0.026345,0.011674,-0.28473,0.41689,0.0013408,0.3653
-0.014671,0.027393,0.014227,-0.038785,-0.0090649,-0.0036153,0.026181,0.18591,-0.015836,-0.071648,-0.0079536,0.024154,-0.024942,0.032454,-0.046276,0.0062283,-0.016956,0.0033014,-0.022513,0.0025782,-0.20234,0.28024,0.01616,0.28298
-0.018094,0.03481,0.0091568,-0.039217,-0.0092713,-0.027027,0.014046,0.18877,-0.013771,-0.077913,0.019693,-0.0056825,-0.021217,0.026183,-0.046863,0.014492,-0.018679,0.0081466,-0.01417,-0.0097545,-0.11978,0.14625,0.028284,0.18788
-0.023163,0.043157,0.011946,-0.044793,-0.0065393,-0.063837,0.0057749,0.19038,-0.0081292,-0.082864,0.040557,-0.034641,-0.01607,0.024415,-0.049419,0.017899,-0.021746,0.017701,0.00016857,-0.020114,-0.047347,0.031504,0.036197,0.10709
-0.028053,0.050689,0.024521,-0.052844,-0.0045089,-0.10971,-0.00092391,0.18936,-0.00074525,-0.085029,0.054975,-0.054622,-0.012785,0.031327,-0.052028,0.011518,-0.024586,0.028606,0.021314,-0.02706,0.0062637,-0.073861,0.043333,0.067198
-0.030837,0.054992,0.04222,-0.059436,-0.0065357,-0.15083,-0.010195,0.18572,0.005265,-0.084012,0.06525,-0.063013,-0.013317,0.045271,-0.049552,-0.0063087,-0.027121,0.038204,0.048068,-0.03213,0.040672,-0.18642,0.054989,0.091073
-0.030784,0.05418,0.056857,-0.06253,-0.013402,-0.17094,-0.022795,0.17987,0.0073112,-0.080246,0.073586,-0.06368,-0.016591,0.058763,-0.038218,-0.032996,-0.03025,0.04491,0.076661,-0.036399,0.063913,-0.30166,0.072851,0.19195
-0.028921,0.04838,0.062541,-0.063046,-0.022764,-0.16055,-0.034357,0.17133,0.0048545,-0.074313,0.081088,-0.063784,-0.019544,0.063191,-0.019608,-0.062802,-0.033948,0.047637,0.10182,-0.038183,0.085626,-0.38308,0.091932,0.36626
-0.027305,0.039997,0.059878,-0.063276,-0.030571,-0.12279,-0.039154,0.15886,-0.00012408,-0.066844,0.087903,-0.068321,-0.019929,0.054879,-0.00043028,-0.089236,-0.0362,0.045705,0.11914,-0.034343,0.10937,-0.3804,0.10296,0.59111
-0.02747,0.03213,0.055206,-0.064501,-0.033385,-0.071636,-0.035967,0.14221,-0.003994,-0.058928,0.093432,-0.076307,-0.018345,0.037863,0.011966,-0.10756,-0.034258,0.039661,0.12729,-0.023882,0.13088,-0.2646,0.09873,0.83065
-0.029222,0.026296,0.055296,-0.066041,-0.030125,-0.023159,-0.030406,0.12421,-0.0034055,-0.051952,0.096109,-0.081557,-0.017641,0.021174,0.014824,-0.11636,-0.027324,0.031798,0.12864,-0.0101,0.14353,-0.052327,0.079568,1.0494
-0.03066,0.021517,0.061703,-0.066285,-0.02242,0.014404,-0.031083,0.11076,0.0025726,-0.046384,0.093565,-0.077589,-0.020186,0.012581,0.011918,-0.11748,-0.018024,0.024995,0.12773,0.0010724,0.14588,0.19994,0.053583,1.2247
-0.029434,0.015758,0.069446,-0.064391,-0.013603,0.044541,-0.042642,0.10791,0.011367,-0.040525,0.084167,-0.062893,-0.025407,0.013405,0.010819,-0.11452,-0.010836,0.020373,0.12841,0.0051533,0.14425,0.42733,0.031581,1.3516
-0.024353,0.0084984,0.071271,-0.061056,-0.006938,0.077015,-0.061687,0.11754,0.017916,-0.030976,0.069371,-0.042471,-0.029809,0.018178,0.017616,-0.11059,-0.0085352,0.016073,0.13149,0.0017137,0.14827,0.58964,0.020428,1.4376
-0.016267,0.0019973,0.064039,-0.057943,-0.003952,0.1172,-0.079355,0.13488,0.017704,-0.015221,0.054634,-0.024506,-0.029656,0.019205,0.032924,-0.10661,-0.0098767,0.0089342,0.13453,-0.0069418,0.16351,0.68337,0.019522,1.4942
-0.0076821,-0.0001632,0.051831,-0.056545,-0.0037327,0.15907,-0.088556,0.14984,0.010084,0.0053924,0.047095,-0.01492,-0.024168,0.012424,0.05186,-0.10117,-0.010872,-0.0019207,0.13405,-0.019531,0.18785,0.72927,0.022359,1.53
-0.0014104,0.0037761,0.043053,-0.057441,-0.0037402,0.1883,-0.089804,0.1517,-0.00060592,0.024916,0.050962,-0.014053,-0.016526,0.00014536,0.067734,-0.091904,-0.0086769,-0.013009,0.12865,-0.038005,0.21423,0.7504,0.021486,1.5494
0.00093729,0.011582,0.043885,-0.060155,-0.0018127,0.19329,-0.090637,0.13404,-0.0075182,0.035394,0.064081,-0.017767,-0.011662,-0.011178,0.07664,-0.07728,-0.0044353,-0.018424,0.12078,-0.065728,0.23696,0.75855,0.013258,1.5535
-0.00025172,0.017847,0.053482,-0.063348,0.0019528,0.17505,-0.099058,0.097214,-0.0060532,0.031325,0.078816,-0.021526,-0.012465,-0.01607,0.079707,-0.057696,-0.0021702,-0.014652,0.11579,-0.10315,0.25603,0.75473,-0.0003815,1.5404
-0.0029051,0.017429,0.064782,-0.065186,0.0049576,0.14732,-0.11655,0.047564,0.0025753,0.013073,0.086946,-0.02382,-0.01741,-0.013949,0.081636,-0.03527,-0.0045133,-0.0041289,0.1187,-0.14505,0.27608,0.73627,-0.013637,1.5045
-0.0045071,0.0090254,0.070009,-0.064018,0.0039082,0.12679,-0.13658,-0.0054158,0.011998,-0.012884,0.084858,-0.026272,-0.021595,-0.0089982,0.086929,-0.012763,-0.009312,0.0058992,0.13078,-0.18211,0.30136,0.70076,-0.020688,1.4377
-0.0035966,-0.0037215,0.066236,-0.059347,-0.0026304,0.12192,-0.14974,-0.052231,0.015435,-0.036794,0.075032,-0.030867,-0.020446,-0.0065672,0.096727,0.0075286,-0.010681,0.0085939,0.14823,-0.20546,0.33093,0.6448,-0.019296,1.3333
-0.00065158,-0.014438,0.056757,-0.052459,-0.01302,0.12945,-0.15112,-0.085948,0.010957,-0.049793,0.063024,-0.037084,-0.01314,-0.0092327,0.10842,0.024289,-0.0040583,0.0025603,0.16377,-0.21057,0.35789,0.5628,-0.012229,1.1929
0.0022754,-0.018058,0.047816,-0.046001,-0.023748,0.14062,-0.14386,-0.10393,0.0029908,-0.047401,0.052938,-0.04138,-0.0030449,-0.015479,0.11788,0.037039,0.009099,-0.0074612,0.1703,-0.19779,0.37306,0.45005,-0.0056697,1.0296
0.0030934,-0.013988,0.043847,-0.04244,-0.032087,0.15022,-0.13642,-0.10839,-0.001272,-0.031085,0.045201,-0.039175,0.005062,-0.02148,0.12225,0.045666,0.021459,-0.014716,0.16455,-0.17034,0.37074,0.30761,-0.0055251,0.86601
0.0014148,-0.0063141,0.044976,-0.042422,-0.038018,0.16033,-0.13637,-0.10515,0.002298,-0.0075122,0.037918,-0.027447,0.0085913,-0.024095,0.1213,0.050025,0.02518,-0.015868,0.14879,-0.13244,0.35257,0.14315,-0.013973,0.72548
-0.00086252,-0.00093632,0.048044,-0.044273,-0.04389,0.17594,-0.14591,-0.10044,0.011467,0.014357,0.02971,-0.0060262,0.0086138,-0.022731,0.11684,0.049878,0.018167,-0.013347,0.12961,-0.089112,0.3271,-0.034452,-0.028657,0.6237
-0.00083687,-0.0016018,0.049555,-0.045107,-0.052193,0.19726,-0.16177,-0.097462,0.019511,0.027408,0.02106,0.02278,0.0082321,-0.019185,0.11117,0.045261,0.0058368,-0.012956,0.11442,-0.046546,0.30499,-0.22109,-0.04513,0.56394
0.0030256,-0.0075733,0.047987,-0.042733,-0.063294,0.21569,-0.17838,-0.095108,0.0206,0.029928,0.013293,0.055245,0.0095386,-0.016251,0.1059,0.037037,-0.0032604,-0.018915,0.10741,-0.011039,0.29257,-0.41656,-0.060656,0.53804
0.0093326,-0.014514,0.044126,-0.037004,-0.074834,0.21643,-0.19089,-0.090037,0.014217,0.026355,0.0069639,0.087028,0.01187,-0.016361,0.10151,0.02718,-0.0042979,-0.030394,0.10735,0.013524,0.28763,-0.61581,-0.076261,0.53082
0.014518,-0.017812,0.039878,-0.029774,-0.08308,0.18537,-0.19655,-0.080721,0.0051946,0.024209,0.001765,0.11385,0.012687,-0.020813,0.097529,0.018259,0.00029625,-0.042147,0.10862,0.027518,0.2804,-0.80001,-0.095349,0.52406
0.015531,-0.015788,0.036883,-0.023662,-0.085131,0.11523,-0.19484,-0.069932,-0.00021414,0.028718,-0.0020496,0.13259,0.01004,-0.029337,0.092848,0.012158,0.0035006,-0.048513,0.10497,0.034601,0.25951,-0.93808,-0.12006,0.49889
0.012296,-0.010468,0.035844,-0.020487,-0.080489,0.0081545,-0.18757,-0.06328,0.0012792,0.038767,-0.0028227,0.14276,0.0043802,-0.039739,0.086395,0.008772,-1.7406e-005,-0.047452,0.093589,0.038502,0.2197,-1.0015,-0.14848,0.43817
0.007812,-0.0057071,0.03665,-0.020244,-0.071167,-0.12517,-0.17866,-0.064819,0.0085435,0.047348,0.0011184,0.14711,-0.0017257,-0.048065,0.078132,0.00584,-0.0095826,-0.041524,0.076748,0.040552,0.16654,-0.98303,-0.17493,0.33085
0.0057334,-0.0045105,0.038833,-0.021119,-0.060456,-0.26816,-0.17252,-0.073549,0.017935,0.046476,0.0088924,0.15009,-0.0054909,-0.049946,0.0699,0.00040906,-0.019682,-0.035403,0.059908,0.040293,0.11509,-0.90532,-0.19317,0.17763
0.0074959,-0.0076575,0.041808,-0.020554,-0.051191,-0.40185,-0.17121,-0.084051,0.026226,0.032946,0.016327,0.1547,-0.0057363,-0.043111,0.065107,-0.0088226,-0.025051,-0.032314,0.047873,0.038262,0.082612,-0.81019,-0.19994,-0.0061331
0.011463,-0.014137,0.044706,-0.016853,-0.044495,-0.50895,-0.17252,-0.090779,0.031997,0.010401,0.018831,0.15979,-0.0032897,-0.029647,0.066859,-0.020035,-0.024753,-0.032365,0.041824,0.03763,0.079605,-0.73554,-0.19657,-0.19419
0.014711,-0.02226,0.04601,-0.010392,-0.039644,-0.57806,-0.1712,-0.092159,0.035047,-0.013896,0.016003,0.16028,8.268e-005,-0.016011,0.07551,-0.029043,-0.021731,-0.033738,0.039268,0.042409,0.10404,-0.69566,-0.18791,-0.35953
0.015712,-0.030226,0.04356,-0.0034401,-0.035039,-0.60667,-0.16294,-0.090837,0.035352,-0.034767,0.013653,0.15058,0.0031608,-0.0098835,0.087528,-0.032018,-0.018911,-0.035069,0.036552,0.053594,0.14261,-0.67929,-0.18011,-0.48547
0.015447,-0.036184,0.035328,0.0014925,-0.029619,-0.60136,-0.14799,-0.090143,0.033028,-0.052387,0.020468,0.12875,0.0060147,-0.015385,0.09692,-0.028254,-0.016111,-0.036591,0.031697,0.067102,0.17831,-0.66557,-0.17824,-0.57088
0.016038,-0.038699,0.02072,0.0036591,-0.023743,-0.57488,-0.13123,-0.090451,0.029056,-0.070417,0.041247,0.098097,0.0095775,-0.029997,0.098557,-0.020807,-0.010851,-0.039225,0.025414,0.075987,0.19996,-0.64429,-0.18482,-0.62764
0.018354,-0.037875,0.001473,0.0047082,-0.018933,-0.54131,-0.1185,-0.089107,0.025371,-0.090845,0.072117,0.065023,0.014504,-0.045893,0.091124,-0.014364,-0.0019582,-0.043051,0.019889,0.075322,0.20773,-0.62373,-0.19891,-0.67423
0.020935,-0.036008,-0.018755,0.0072252,-0.016705,-0.5115,-0.11251,-0.083988,0.023664,-0.11033,0.10203,0.035062,0.020236,-0.055224,0.077574,-0.011749,0.0080444,-0.047031,0.016717,0.065433,0.21096,-0.61964,-0.2158,-0.73185
0.021295,-0.036394,-0.036058,0.012328,-0.017436,-0.49035,-0.11153,-0.077021,0.023973,-0.1215,0.11967,0.010602,0.025038,-0.055584,0.062816,-0.011572,0.014465,-0.05025,0.015741,0.050607,0.21996,-0.63499,-0.22806,-0.82412
0.018339,-0.040534,-0.048132,0.01848,-0.020209,-0.47668,-0.11169,-0.073941,0.024772,-0.11835,0.12034,-0.0080626,0.027076,-0.051311,0.050459,-0.00872,0.014586,-0.053039,0.015459,0.034707,0.23726,-0.64799,-0.22802,-0.97483
0.013548,-0.045949,-0.05501,0.022676,-0.023743,-0.46553,-0.11059,-0.080121,0.024831,-0.10156,0.10756,-0.020011,0.02582,-0.049408,0.041028,0.0025579,0.010387,-0.05636,0.014315,0.018041,0.25481,-0.61995,-0.21132,-1.198
0.0097442,-0.046995,-0.058234,0.022995,-0.027531,-0.45196,-0.10893,-0.096117,0.025059,-0.079643,0.088774,-0.022658,0.022659,-0.053287,0.032752,0.024884,0.0071265,-0.059817,0.011754,-0.001476,0.25903,-0.51921,-0.17958,-1.4827
0.0085691,-0.038815,-0.059242,0.020201,-0.032096,-0.43456,-0.10944,-0.11692,0.028177,-0.065271,0.069582,-0.013881,0.020059,-0.059525,0.023969,0.055534,0.009028,-0.060474,0.0084792,-0.024151,0.2402,-0.34407,-0.14021,-1.7858
0.0090808,-0.021756,-0.058236,0.017002,-0.038087,-0.41686,-0.11427,-0.13558,0.036073,-0.069236,0.051403,0.0046995,0.019715,-0.060439,0.015071,0.086971,0.016012,-0.054317,0.0061038,-0.045664,0.19903,-0.12784,-0.10287,-2.0437
0.00885,-0.0026634,-0.054357,0.015797,-0.045119,-0.40526,-0.12334,-0.14808,0.047139,-0.095613,0.033597,0.026963,0.021125,-0.050456,0.0084805,0.10985,0.024323,-0.039751,0.0065724,-0.05867,0.14586,0.078802,-0.074322,-2.2027
0.0065077,0.0085175,-0.046938,0.017044,-0.051631,-0.4043,-0.13435,-0.15545,0.056362,-0.1401,0.016693,0.045538,0.021921,-0.03114,0.00687,0.11699,0.030191,-0.020265,0.011401,-0.057743,0.093066,0.23614,-0.054727,-2.248
0.0032521,0.0049442,-0.03685,0.019562,-0.056127,-0.41237,-0.14389,-0.16166,0.058614,-0.1918,0.0028981,0.056667,0.01992,-0.010898,0.011154,0.10649,0.03299,-0.0035534,0.020713,-0.043427,0.046774,0.33546,-0.038059,-2.2115
0.0017972,-0.012315,-0.026773,0.022103,-0.058722,-0.42125,-0.14864,-0.16954,0.052573,-0.23747,-0.0064509,0.062455,0.015308,0.00028744,0.019707,0.082524,0.035125,0.0029269,0.03247,-0.021976,0.0037374,0.39795,-0.016486,-2.1484
0.0037641,-0.0344,-0.01991,0.024422,-0.061352,-0.42059,-0.14658,-0.17829,0.041852,-0.26689,-0.013206,0.068508,0.01103,-0.0029371,0.029121,0.053529,0.039138,-0.0029642,0.042739,-0.0012199,-0.044794,0.455,0.014204,-2.0996
0.0081063,-0.049978,-0.0178,0.026904,-0.066168,-0.40433,-0.1384,-0.18422,0.032136,-0.27703,-0.021452,0.079091,0.010827,-0.018388,0.035776,0.028527,0.045037,-0.0161,0.047435,0.013868,-0.1059,0.52515,0.05192,-2.067
0.01217,-0.052381,-0.018928,0.029512,-0.073458,-0.37449,-0.12838,-0.18377,0.026594,-0.27277,-0.033852,0.093998,0.01642,-0.03807,0.037307,0.01343,0.050391,-0.026976,0.044835,0.022599,-0.18,0.60357,0.090117,-2.0179
0.014329,-0.043679,-0.019621,0.031491,-0.081193,-0.33914,-0.12356,-0.17577,0.023405,-0.2628,-0.048963,0.10943,0.026157,-0.052744,0.033562,0.0090766,0.052931,-0.027731,0.037051,0.026718,-0.261,0.66919,0.1226,-1.9122
0.015464,-0.032779,-0.017097,0.032269,-0.086907,-0.30633,-0.13007,-0.16144,0.017469,-0.25224,-0.06235,0.12136,0.036252,-0.056486,0.026878,0.011866,0.053039,-0.017302,0.029027,0.027688,-0.33999,0.70118,0.14763,-1.7306
0.017667,-0.02882,-0.012381,0.032413,-0.090215,-0.27911,-0.14869,-0.1427,0.0048119,-0.23664,-0.07038,0.12807,0.043465,-0.049244,0.02129,0.016341,0.053683,-0.0021445,0.025329,0.025691,-0.40889,0.69116,0.1683,-1.4815
0.021443,-0.034672,-0.010325,0.033271,-0.093308,-0.25551,-0.17291,-0.12081,-0.014046,-0.20194,-0.072888,0.12994,0.046877,-0.036673,0.020382,0.018052,0.057808,0.0081228,0.0269,0.020775,-0.46157,0.64389,0.18949,-1.1864
0.024427,-0.045349,-0.016037,0.035315,-0.098554,-0.23242,-0.19225,-0.096789,-0.034466,-0.13159,-0.072191,0.12778,0.04741,-0.027267,0.02454,0.015012,0.06553,0.0072879,0.030312,0.014566,-0.49352,0.56974,0.2137,-0.86033
0.023322,-0.052433,-0.030358,0.036851,-0.10534,-0.20867,-0.19919,-0.072896,-0.051185,-0.017399,-0.069892,0.12193,0.04596,-0.027623,0.02969,0.0072569,0.073636,-0.0032281,0.030287,0.010645,-0.50205,0.47815,0.23911,-0.50423
0.017449,-0.050896,-0.048333,0.034766,-0.10955,-0.18324,-0.19462,-0.053412,-0.06174,0.13259,-0.065238,0.113,0.042261,-0.038108,0.029371,-0.0045588,0.077858,-0.01556,0.023668,0.013064,-0.48801,0.37701,0.26074,-0.11529
0.010357,-0.042848,-0.062428,0.027118,-0.1068,-0.1507,-0.18696,-0.043483,-0.066994,0.29406,-0.056975,0.10286,0.035681,-0.051979,0.019543,-0.01997,0.07598,-0.021232,0.011785,0.023993,-0.45702,0.27477,0.27349,0.29685
0.0074375,-0.035334,-0.067993,0.015362,-0.096815,-0.099796,-0.18516,-0.046646,-0.06882,0.43468,-0.046682,0.094001,0.027067,-0.059572,0.0026223,-0.038158,0.069252,-0.017354,-0.00063987,0.042051,-0.41809,0.17903,0.27491,0.70263
0.011304,-0.034272,-0.066364,0.004002,-0.084616,-0.019501,-0.19119,-0.062896,-0.067594,0.52662,-0.03971,0.087669,0.019498,-0.055324,-0.013154,-0.056824,0.061162,-0.0084833,-0.0090739,0.062427,-0.37958,0.090796,0.26604,1.0606
0.019124,-0.039722,-0.062985,-0.0023976,-0.076833,0.090358,-0.19837,-0.088664,-0.062072,0.5571,-0.042137,0.082661,0.016792,-0.042352,-0.019443,-0.07208,0.054849,-0.002755,-0.012299,0.07899,-0.34535,0.0009296,0.25046,1.3346
0.024628,-0.04635,-0.062477,-0.0024434,-0.075942,0.21294,-0.19722,-0.11848,-0.05169,0.5326,-0.056289,0.07628,0.02071,-0.03041,-0.014423,-0.080153,0.051324,-0.0053865,-0.012625,0.08757,-0.31421,-0.1044,0.23239,1.5084
0.023284,-0.048352,-0.065143,0.0013672,-0.07769,0.3199,-0.18385,-0.14686,-0.038794,0.47555,-0.078949,0.066768,0.029213,-0.028222,-0.0046526,-0.079856,0.049623,-0.014741,-0.013339,0.088739,-0.28302,-0.23134,0.21492,1.5887
0.0161,-0.044442,-0.067786,0.0050073,-0.07435,0.38684,-0.16366,-0.16931,-0.028233,0.41521,-0.10382,0.054892,0.0374,-0.036369,-0.00014135,-0.073702,0.048174,-0.023947,-0.015805,0.08831,-0.25056,-0.36964,0.199,1.5977
0.008634,-0.03869,-0.06745,0.0061959,-0.061308,0.40838,-0.14736,-0.18242,-0.024182,0.37663,-0.12573,0.043206,0.040576,-0.04688,-0.006487,-0.066435,0.045918,-0.026476,-0.018731,0.094754,-0.21871,-0.49709,0.18335,1.5612
0.0061413,-0.03679,-0.064189,0.0056784,-0.041313,0.40132,-0.14276,-0.18406,-0.026774,0.37189,-0.14263,0.033846,0.037202,-0.050136,-0.020686,-0.061966,0.042459,-0.021015,-0.019891,0.11473,-0.1904,-0.59465,0.16541,1.4994
0.0092602,-0.041134,-0.060402,0.0055861,-0.02267,0.39318,-0.14959,-0.17426,-0.031539,0.39724,-0.15398,0.026974,0.029576,-0.043203,-0.034149,-0.061122,0.037776,-0.01184,-0.018394,0.14927,-0.16683,-0.65922,0.14289,1.4217
0.013998,-0.048808,-0.057945,0.0067343,-0.012926,0.4039,-0.16129,-0.15615,-0.032351,0.43704,-0.15789,0.021072,0.02192,-0.032311,-0.040131,-0.061836,0.032249,-0.0048446,-0.015278,0.19285,-0.1472,-0.70216,0.11522,1.3276
0.015689,-0.053898,-0.056251,0.0076292,-0.013427,0.43347,-0.1714,-0.13585,-0.025546,0.47285,-0.15029,0.014358,0.017469,-0.027342,-0.038959,-0.061237,0.026946,-0.0027125,-0.012018,0.23527,-0.13123,-0.73538,0.08405,1.2114
0.013048,-0.051933,-0.053302,0.0061249,-0.019167,0.46324,-0.17827,-0.12058,-0.011919,0.49267,-0.12709,0.0058241,0.016709,-0.033152,-0.036681,-0.057648,0.023368,-0.0029629,-0.0086114,0.26486,-0.12158,-0.7589,0.05221,1.0688
0.0086822,-0.042828,-0.048161,0.0019452,-0.023599,0.46905,-0.18429,-0.11577,0.0048438,0.49576,-0.087203,-0.0045827,0.017789,-0.045248,-0.038788,-0.050965,0.022382,4.6355e-005,-0.0032539,0.27131,-0.12299,-0.76268,0.021629,0.90324
0.0060525,-0.030263,-0.042249,-0.0026103,-0.023985,0.43682,-0.19138,-0.12272,0.021643,0.49042,-0.033466,-0.015844,0.018365,-0.053332,-0.045026,-0.041658,0.023246,0.011036,0.0059136,0.24828,-0.13813,-0.74072,-0.0083157,0.72687
0.0061209,-0.01848,-0.038116,-0.004623,-0.022816,0.371,-0.19801,-0.13819,0.038221,0.48658,0.028601,-0.025229,0.017254,-0.049433,-0.049899,-0.02971,0.024081,0.03059,0.018479,0.19648,-0.16349,-0.70231,-0.040594,0.5577
0.0068207,-0.009425,-0.037119,-0.0032954,-0.024586,0.29186,-0.20104,-0.15605,0.056357,0.48793,0.092494,-0.02793,0.01473,-0.033757,-0.048039,-0.014502,0.023822,0.054672,0.030898,0.12638,-0.18973,-0.66705,-0.078068,0.41333
0.0054478,-0.0024983,-0.038442,-0.00074135,-0.031167,0.22457,-0.20011,-0.16994,0.077059,0.48884,0.15102,-0.018429,0.011661,-0.013791,-0.039204,0.0044871,0.023877,0.076811,0.037982,0.057677,-0.20691,-0.64685,-0.12017,0.30599
0.0012984,0.0032966,-0.040324,5.9389e-006,-0.039804,0.18681,-0.19949,-0.17562,0.098509,0.47815,0.19589,0.0062778,0.0085719,0.0018684,-0.0284,0.02689,0.027465,0.09142,0.035844,0.01292,-0.21114,-0.63216,-0.16124,0.24082
-0.003987,0.007247,-0.041995,-0.0021626,-0.045155,0.18154,-0.20481,-0.17209,0.11665,0.44752,0.21888,0.043734,0.005533,0.0094393,-0.021409,0.051067,0.036582,0.096293,0.024335,0.0066257,-0.2071,-0.59738,-0.19226,0.21669
-0.0083502,0.0072357,-0.0442,-0.0055298,-0.043361,0.19837,-0.2175,-0.16132,0.12779,0.3982,0.21559,0.086112,0.002772,0.011043,-0.020088,0.074181,0.049116,0.092956,0.0074157,0.036215,-0.20411,-0.52223,-0.20568,0.22782
-0.01129,0.0024763,-0.047793,-0.0074576,-0.034756,0.22228,-0.23275,-0.14705,0.13084,0.34089,0.18942,0.12405,0.0010917,0.010966,-0.021612,0.092682,0.059023,0.084902,-0.0087946,0.081833,-0.20832,-0.41024,-0.20018,0.26556
-0.013935,-0.003937,-0.051984,-0.0071751,-0.023297,0.24392,-0.2435,-0.13313,0.12734,0.28762,0.15186,0.1517,0.0013861,0.011183,-0.021791,0.10331,0.060044,0.07518,-0.019156,0.1168,-0.21682,-0.28686,-0.18188,0.3205
-0.017423,-0.0056794,-0.0542,-0.0066416,-0.013508,0.26513,-0.24722,-0.12212,0.11965,0.24093,0.11722,0.1692,0.0035396,0.010314,-0.019027,0.10454,0.05019,0.065232,-0.022029,0.12247,-0.21838,-0.17837,-0.16067,0.38418
-0.021485,0.002523,-0.051901,-0.0085888,-0.0073838,0.29574,-0.24914,-0.11429,0.10916,0.18892,0.094479,0.18058,0.0058189,0.0066237,-0.015365,0.097693,0.033327,0.055676,-0.019764,0.097415,-0.20027,-0.090249,-0.14404,0.44853
-0.024667,0.020083,-0.044715,-0.01365,-0.0033832,0.34442,-0.25882,-0.10786,0.095989,0.11161,0.082416,0.18916,0.0056289,0.0017143,-0.014209,0.086835,0.016506,0.047864,-0.016948,0.05496,-0.15642,-0.0042683,-0.1328,0.50301
-0.025809,0.039562,-0.034951,-0.019414,0.0021697,0.41069,-0.28249,-0.10027,0.080204,-0.0044827,0.072059,0.19433,0.0013076,0.00082367,-0.0172,0.076942,0.0052254,0.044191,-0.017547,0.011975,-0.091186,0.10272,-0.12179,0.53316
-0.025124,0.0512,-0.026003,-0.022389,0.012598,0.48427,-0.31777,-0.090402,0.062931,-0.15369,0.055177,0.19273,-0.0064553,0.0088615,-0.022955,0.071325,0.00033386,0.046386,-0.022708,-0.021692,-0.016364,0.23357,-0.10478,0.52553
-0.023851,0.049997,-0.020048,-0.021037,0.02908,0.5518,-0.35479,-0.080176,0.046424,-0.31088,0.032137,0.1826,-0.014873,0.025567,-0.028268,0.069975,-0.0013852,0.053299,-0.030492,-0.045399,0.055701,0.35899,-0.079609,0.47802
-0.023003,0.0397,-0.016898,-0.017025,0.050535,0.60473,-0.38244,-0.074141,0.033095,-0.44507,0.012623,0.16758,-0.020942,0.044493,-0.030301,0.070092,-0.0040141,0.060574,-0.037505,-0.061569,0.11789,0.42821,-0.04979,0.40669
-0.022603,0.030087,-0.014746,-0.013539,0.074824,0.64159,-0.39462,-0.076841,0.024479,-0.53792,0.0082952,0.15592,-0.023485,0.057369,-0.028014,0.068426,-0.0095515,0.063116,-0.041221,-0.068364,0.16925,0.39537,-0.02156,0.33938
-0.022116,0.029349,-0.011933,-0.01233,0.10009,0.66373,-0.39199,-0.089417,0.020785,-0.59374,0.023245,0.15525,-0.023719,0.060384,-0.022233,0.063686,-0.01725,0.058569,-0.041461,-0.05854,0.21153,0.24634,0.00073156,0.29737
-0.021392,0.037689,-0.0081899,-0.012283,0.12511,0.66971,-0.37949,-0.10807,0.020955,-0.63418,0.050074,0.16663,-0.023969,0.05679,-0.01485,0.057266,-0.025033,0.048909,-0.040195,-0.025659,0.24515,0.012177,0.017412,0.28029
-0.020934,0.047501,-0.0045046,-0.010789,0.14858,0.65474,-0.36251,-0.12583,0.022857,-0.68234,0.074764,0.18281,-0.025731,0.053282,-0.0078512,0.051865,-0.031264,0.038778,-0.039957,0.028046,0.26809,-0.23671,0.032625,0.27057
-0.021153,0.050059,-0.0019882,-0.006475,0.16803,0.61603,-0.34512,-0.13668,0.023625,-0.7483,0.08613,0.19269,-0.028735,0.053339,-0.0025687,0.049236,-0.035442,0.03198,-0.04203,0.089387,0.2782,-0.41361,0.050965,0.25685
-0.021538,0.043064,-0.00081838,-0.00059848,0.17985,0.55835,-0.3305,-0.13883,0.020504,-0.82595,0.082078,0.1892,-0.031666,0.053803,0.00062055,0.048849,-0.037767,0.02905,-0.045684,0.14006,0.27639,-0.44777,0.074249,0.25466
-0.020909,0.032627,-6.7232e-005,0.004204,0.18075,0.4939,-0.32158,-0.13483,0.012158,-0.90068,0.068075,0.17452,-0.03368,0.04815,0.00201,0.048416,-0.038496,0.027723,-0.049039,0.16659,0.2672,-0.31378,0.10052,0.30028
-0.018797,0.028065,0.0016264,0.0064744,0.17013,0.43562,-0.32014,-0.1286,-0.00036213,-0.95997,0.050262,0.1585,-0.035303,0.033643,0.001844,0.045731,-0.037848,0.025586,-0.050979,0.16737,0.2558,-0.045186,0.12557,0.41649
-0.016603,0.034105,0.0052308,0.0071246,0.15136,0.38976,-0.32498,-0.12218,-0.014,-0.99792,0.029952,0.15116,-0.037969,0.015578,-0.00018027,0.040342,-0.036408,0.022473,-0.052592,0.15211,0.24402,0.27615,0.14558,0.57858
-0.017035,0.04719,0.011001,0.0079114,0.13085,0.3546,-0.33123,-0.11487,-0.025504,-1.0118,0.0043137,0.15488,-0.042771,0.0042244,-0.0044932,0.033819,-0.035433,0.020531,-0.056676,0.13482,0.22877,0.55331,0.15926,0.71524
-0.021854,0.058805,0.018742,0.0086087,0.11484,0.32589,-0.33212,-0.1051,-0.033403,-0.99599,-0.028102,0.16242,-0.04955,0.0067306,-0.010407,0.028583,-0.036598,0.021947,-0.065301,0.12527,0.20469,0.71618,0.16819,0.75152
-0.029743,0.062589,0.028164,0.0058266,0.10613,0.30363,-0.3225,-0.092709,-0.038494,-0.94059,-0.062653,0.16201,-0.056963,0.021059,-0.015186,0.026279,-0.041191,0.026265,-0.077306,0.12435,0.16882,0.75129,0.17548,0.66288
-0.036475,0.058994,0.038826,-0.0048655,0.10285,0.29304,-0.3013,-0.0794,-0.042398,-0.8374,-0.089368,0.1455,-0.063248,0.037436,-0.014739,0.026848,-0.049169,0.029684,-0.088279,0.12542,0.12334,0.70351,0.18372,0.49532
-0.037732,0.053831,0.049732,-0.024939,0.10045,0.2986,-0.27158,-0.066857,-0.045495,-0.6891,-0.098688,0.1131,-0.066957,0.046145,-0.0060134,0.028721,-0.058605,0.027266,-0.093835,0.11988,0.074232,0.64831,0.1935,0.3333
-0.032489,0.052565,0.059181,-0.05048,0.095119,0.31673,-0.23795,-0.054787,-0.046233,-0.51427,-0.087517,0.071965,-0.067285,0.044935,0.01048,0.029677,-0.066068,0.016627,-0.093887,0.1033,0.027144,0.65025,0.20346,0.24106
-0.024046,0.055582,0.065419,-0.073775,0.086312,0.3347,-0.20397,-0.040983,-0.042608,-0.34284,-0.060933,0.030602,-0.064113,0.039845,0.030185,0.0276,-0.068091,0.00024025,-0.093952,0.078712,-0.015621,0.73116,0.21162,0.22513
-0.017613,0.058286,0.067812,-0.087976,0.076401,0.33792,-0.17102,-0.023533,-0.034525,-0.20387,-0.028762,-0.005931,-0.058043,0.039184,0.046877,0.020843,-0.063213,-0.015844,-0.10148,0.055309,-0.054479,0.86482,0.21711,0.2462
