2.1801e-010,1.4914e-009,-7.2349e-010,1.8155e-009,-2.9133e-010,1.1981e-009,2.9499e-009,-8.2381e-010,-1.3505e-011,3.3763e-010,3.3242e-009,-4.8426e-010,5.0355e-010,-3.1448e-010,2.537e-009,7.0034e-010,-9.2414e-010,1.7923e-009,-2.6046e-010,1.3023e-009,1.3679e-009,-5.923e-010,-7.0806e-010,1.5415e-009
5.654e-009,4.1513e-008,-1.9213e-008,4.9933e-008,-8.2973e-009,3.2822e-008,8.1852e-008,-2.2962e-008,-1.0309e-010,9.3569e-009,9.1918e-008,-1.3235e-008,1.3664e-008,-8.8676e-009,6.9915e-008,1.9557e-008,-2.5271e-008,4.9714e-008,-7.2668e-009,3.5705e-008,3.7576e-008,-1.7012e-008,-1.9871e-008,4.2964e-008
7.1275e-008,5.6129e-007,-2.483e-007,6.676e-007,-1.1466e-007,4.3705e-007,1.1043e-006,-3.1119e-007,2.605e-009,1.2631e-007,1.2352e-006,-1.7561e-007,1.803e-007,-1.2142e-007,9.3669e-007,2.6577e-007,-3.3595e-007,6.7094e-007,-9.8404e-008,4.7563e-007,5.0132e-007,-2.3688e-007,-2.7161e-007,5.8209e-007
5.8197e-007,4.9119e-006,-2.0819e-006,5.7806e-006,-1.0244e-006,3.7685e-006,9.6504e-006,-2.732e-006,6.0703e-008,1.1064e-006,1.0746e-005,-1.5064e-006,1.5416e-006,-1.0755e-006,8.1281e-006,2.3421e-006,-2.8927e-006,5.8707e-006,-8.6124e-007,4.1008e-006,4.3272e-006,-2.1305e-006,-2.4094e-006,5.1073e-006
3.4594e-006,3.1272e-005,-1.2738e-005,3.6432e-005,-6.6516e-006,2.3652e-005,6.1399e-005,-1.746e-005,6.4773e-007,7.0649e-006,6.8023e-005,-9.381e-006,9.6022e-006,-6.9261e-006,5.1341e-005,1.5049e-005,-1.8135e-005,3.7436e-005,-5.4714e-006,2.5717e-005,2.7155e-005,-1.391e-005,-1.5594e-005,3.2616e-005
1.5946e-005,0.00015436,-6.0641e-005,0.00017806,-3.3451e-005,0.00011513,0.00030301,-8.6545e-005,4.5921e-006,3.503e-005,0.00033376,-4.514e-005,4.6437e-005,-3.4553e-005,0.00025149,7.5154e-005,-8.8196e-005,0.00018537,-2.6851e-005,0.00012497,0.00013198,-7.0223e-005,-7.847e-005,0.00016153
5.9239e-005,0.0006146,-0.00023383,0.00070202,-0.00013555,0.00045217,0.0012066,-0.00034602,2.4282e-005,0.00014024,0.0013202,-0.00017429,0.00018145,-0.00013891,0.0009937,0.00030361,-0.00034615,0.00074146,-0.0001057,0.00048945,0.00051668,-0.0002851,-0.00031947,0.00064529
0.00018182,0.0020275,-0.00075034,0.0022921,-0.00045452,0.0014714,0.0039803,-0.0011456,0.00010141,0.0004652,0.0043215,-0.00055307,0.00058863,-0.0004621,0.0032513,0.0010196,-0.0011258,0.00246,-0.00034179,0.0015859,0.0016723,-0.00095527,-0.0010809,0.002135
0.00046823,0.0056466,-0.0020418,0.006312,-0.0012844,0.0040419,0.011081,-0.0031982,0.00034598,0.001302,0.011921,-0.0014635,0.0016161,-0.0012959,0.0089716,0.0029023,-0.0030908,0.0068951,-0.00092087,0.0043294,0.0045566,-0.0026889,-0.0030975,0.0059593
0.0010195,0.013457,-0.0047721,0.014848,-0.0030978,0.0094966,0.026376,-0.0076246,0.00098554,0.0031128,0.028061,-0.00325,0.0038091,-0.0031042,0.021144,0.0071044,-0.007256,0.016539,-0.0020799,0.010084,0.010584,-0.006433,-0.007621,0.014214
0.0018752,0.027704,-0.0096558,0.030089,-0.0064274,0.019257,0.054161,-0.015651,0.0023769,0.0064112,0.056832,-0.0060404,0.0077883,-0.0064102,0.04292,0.015118,-0.014696,0.034241,-0.0039246,0.020208,0.021129,-0.01317,-0.016256,0.029229
0.0028758,0.049584,-0.016961,0.052773,-0.011513,0.033888,0.096501,-0.027789,0.004895,0.011432,0.099468,-0.009227,0.013924,-0.011481,0.075391,0.028203,-0.025821,0.061493,-0.0060694,0.035004,0.036419,-0.023114,-0.030258,0.052092
0.0035362,0.077411,-0.02578,0.080185,-0.017775,0.051859,0.1496,-0.042699,0.0086407,0.01768,0.15055,-0.010966,0.02189,-0.017896,0.11471,0.046429,-0.039448,0.095932,-0.0072625,0.05245,0.054253,-0.034624,-0.049324,0.080627
0.0030834,0.10549,-0.033463,0.10519,-0.023437,0.068888,0.20181,-0.056538,0.013064,0.023675,0.19634,-0.0082514,0.03039,-0.024315,0.15065,0.067832,-0.052377,0.12969,-0.0054002,0.067719,0.069658,-0.043648,-0.070476,0.10824
0.00079999,0.12519,-0.035895,0.11803,-0.025801,0.078883,0.23628,-0.063767,0.016817,0.027298,0.21863,0.0019111,0.037385,-0.028814,0.16918,0.088476,-0.060251,0.15084,0.0016549,0.074503,0.076537,-0.044762,-0.088078,0.12538
-0.0033773,0.12878,-0.029055,0.11117,-0.022435,0.076712,0.23916,-0.059716,0.018216,0.026811,0.20437,0.020418,0.040921,-0.029873,0.15929,0.10389,-0.059806,0.14894,0.014527,0.068056,0.07113,-0.034108,-0.09579,0.12416
-0.0083679,0.11421,-0.011542,0.084793,-0.012882,0.061506,0.209,-0.04371,0.016338,0.022032,0.15612,0.044302,0.040189,-0.027475,0.12082,0.11136,-0.051311,0.12226,0.030974,0.048222,0.055192,-0.012848,-0.090022,0.10386
-0.012107,0.087686,0.013382,0.048695,0.00024604,0.038119,0.16033,-0.020441,0.012119,0.014732,0.094592,0.067011,0.036148,-0.023435,0.067075,0.11167,-0.03924,0.081568,0.046097,0.01993,0.036048,0.011654,-0.07291,0.073162
-0.012618,0.06126,0.038115,0.017845,0.011998,0.015047,0.11645,0.002063,0.008416,0.0076806,0.048518,0.081436,0.031185,-0.020392,0.018616,0.10869,-0.029975,0.045732,0.054792,-0.00985,0.022444,0.029023,-0.052348,0.046173
-0.0095486,0.046282,0.054261,0.0034303,0.017782,-0.00045701,0.09463,0.017108,0.0084926,0.0028249,0.036319,0.084193,0.027877,-0.019974,-0.0092377,0.10682,-0.027609,0.030257,0.055244,-0.036731,0.018619,0.032427,-0.038064,0.033754
-0.0050097,0.046719,0.057848,0.0055493,0.016518,-0.0068304,0.094377,0.023388,0.013682,-6.6941e-005,0.052856,0.078045,0.027531,-0.021519,-0.01626,0.10795,-0.030909,0.036181,0.050787,-0.061267,0.02124,0.023961,-0.035701,0.036177
-0.0027147,0.057177,0.052644,0.013476,0.011782,-0.0086816,0.098692,0.025143,0.022059,-0.0031374,0.072815,0.070117,0.029375,-0.022466,-0.016444,0.11033,-0.034184,0.0487,0.047993,-0.086716,0.022182,0.013907,-0.042944,0.043214
-0.0055325,0.067113,0.048386,0.013911,0.0095169,-0.012543,0.088269,0.028023,0.02952,-0.0086869,0.069817,0.066763,0.030903,-0.020253,-0.026277,0.11046,-0.031832,0.048281,0.051749,-0.11398,0.015302,0.013171,-0.051023,0.042276
-0.01306,0.068102,0.054156,0.0010086,0.01351,-0.021026,0.057482,0.033969,0.032745,-0.017335,0.036673,0.068933,0.029293,-0.014226,-0.051302,0.10641,-0.02305,0.026543,0.061075,-0.13855,0.0015749,0.024261,-0.05112,0.028473
-0.021251,0.05881,0.071381,-0.019809,0.022093,-0.030248,0.018748,0.039505,0.031686,-0.027553,-0.0099619,0.071866,0.023209,-0.0061007,-0.08206,0.09964,-0.012627,-0.0061747,0.069602,-0.15285,-0.012013,0.038671,-0.041156,0.0083638
-0.024836,0.044368,0.092135,-0.037167,0.029118,-0.033075,-0.0083951,0.039081,0.029355,-0.036807,-0.044539,0.069433,0.013972,0.0012221,-0.10278,0.093722,-0.0068665,-0.028793,0.070927,-0.15249,-0.018965,0.043964,-0.027511,-0.0057356
-0.021004,0.031354,0.10482,-0.043388,0.028929,-0.02583,-0.013798,0.030667,0.028946,-0.043199,-0.054232,0.059436,0.0051652,0.0054579,-0.10513,0.090973,-0.0080489,-0.027066,0.06452,-0.14066,-0.019293,0.035335,-0.019858,-0.0060355
-0.011528,0.022772,0.10318,-0.040202,0.021458,-0.012751,-0.0044168,0.018558,0.030818,-0.046251,-0.048445,0.04538,0.00048204,0.0062078,-0.095116,0.090153,-0.012346,-0.0057808,0.056724,-0.12601,-0.019452,0.02149,-0.022887,0.0045523
-0.0015684,0.016769,0.091361,-0.036122,0.012918,-0.003857,0.0028678,0.010649,0.032116,-0.046473,-0.048474,0.033397,0.00090194,0.0053387,-0.087272,0.087431,-0.013198,0.015283,0.055424,-0.1154,-0.02614,0.018674,-0.031644,0.015229
0.0040026,0.0094068,0.080523,-0.038507,0.011082,-0.0073388,-0.0040504,0.012215,0.029463,-0.044513,-0.067433,0.02733,0.0032831,0.0065483,-0.091907,0.07979,-0.0071938,0.018207,0.062863,-0.10763,-0.039663,0.037034,-0.034667,0.016154
0.0038462,-0.0014121,0.079703,-0.047655,0.018854,-0.022596,-0.023739,0.021531,0.022326,-0.040936,-0.098815,0.026352,0.0020098,0.013906,-0.10666,0.067777,0.0028675,0.0015246,0.073233,-0.094494,-0.053082,0.071007,-0.022745,0.0055876
0.00050603,-0.014176,0.088637,-0.057645,0.031658,-0.040135,-0.045256,0.031216,0.013962,-0.036779,-0.12344,0.026904,-0.0068392,0.029192,-0.11944,0.055084,0.010559,-0.020393,0.077568,-0.068685,-0.058062,0.10259,0.0036886,-0.010147
-0.0020821,-0.025251,0.098632,-0.062254,0.041058,-0.049033,-0.059605,0.034318,0.0090009,-0.033997,-0.12748,0.026699,-0.021789,0.049161,-0.1193,0.045386,0.011686,-0.031902,0.071643,-0.03204,-0.052155,0.11511,0.034679,-0.022751
-0.0015595,-0.031957,0.10044,-0.060107,0.041614,-0.046028,-0.067202,0.029999,0.0097181,-0.034758,-0.11475,0.026911,-0.036091,0.065381,-0.10558,0.039343,0.0080441,-0.030467,0.059563,0.0034468,-0.04096,0.10578,0.058325,-0.028207
0.0018016,-0.034531,0.092005,-0.054835,0.035079,-0.038385,-0.075214,0.024002,0.014148,-0.039645,-0.10278,0.030607,-0.04232,0.068582,-0.087654,0.03439,0.0056706,-0.027407,0.049671,0.023352,-0.03336,0.08613,0.069571,-0.028346
0.0062918,-0.035479,0.079356,-0.051109,0.028332,-0.037597,-0.08898,0.023581,0.017542,-0.046177,-0.10718,0.03901,-0.03815,0.055677,-0.076768,0.027333,0.0092939,-0.03508,0.046747,0.021354,-0.034262,0.070957,0.073044,-0.027695
0.010516,-0.037093,0.070517,-0.05084,0.027039,-0.049013,-0.10675,0.031379,0.015853,-0.049426,-0.12893,0.048992,-0.028474,0.033843,-0.077507,0.01729,0.018111,-0.053637,0.047994,0.0039998,-0.041262,0.066267,0.077948,-0.029468
0.013956,-0.039383,0.068485,-0.052749,0.030705,-0.066412,-0.12238,0.043429,0.008425,-0.045069,-0.15507,0.054051,-0.021685,0.016847,-0.085727,0.0064202,0.026663,-0.070479,0.04653,-0.014204,-0.047724,0.066989,0.089791,-0.034118
0.016287,-0.040312,0.069729,-0.054703,0.033467,-0.076701,-0.13199,0.052767,-0.0019573,-0.032907,-0.17068,0.04816,-0.022996,0.015029,-0.093519,-0.0019883,0.029794,-0.07273,0.038653,-0.021504,-0.048934,0.065016,0.10612,-0.040645
0.016833,-0.038242,0.068867,-0.055809,0.029694,-0.071054,-0.13735,0.055208,-0.011258,-0.01787,-0.17062,0.029784,-0.030483,0.02694,-0.096006,-0.0061918,0.027084,-0.060244,0.027491,-0.016948,-0.045597,0.05827,0.11955,-0.048291
0.015174,-0.034463,0.064233,-0.056328,0.019268,-0.052883,-0.14281,0.052284,-0.016675,-0.0070472,-0.16129,0.0032942,-0.037296,0.040631,-0.09425,-0.0071905,0.022875,-0.04631,0.019384,-0.0097137,-0.042035,0.051543,0.12493,-0.056728
0.012274,-0.033286,0.058655,-0.056217,0.0078687,-0.035501,-0.14999,0.049148,-0.017754,-0.0045856,-0.1528,-0.023158,-0.038027,0.044515,-0.092699,-0.0077797,0.022247,-0.045432,0.016823,-0.010674,-0.041546,0.049309,0.12383,-0.065133
0.010499,-0.039007,0.055093,-0.054481,0.002194,-0.031294,-0.15607,0.049812,-0.01594,-0.0084868,-0.1499,-0.04213,-0.033456,0.038496,-0.094226,-0.01068,0.02683,-0.060043,0.015264,-0.023135,-0.043657,0.049412,0.12269,-0.071848
0.011899,-0.051874,0.052285,-0.050213,0.0044932,-0.041693,-0.15726,0.054096,-0.013536,-0.012092,-0.14985,-0.051153,-0.029478,0.034803,-0.097193,-0.01742,0.03409,-0.078766,0.0072484,-0.039858,-0.045522,0.045163,0.12656,-0.075448
0.016144,-0.06665,0.045534,-0.044095,0.011151,-0.056436,-0.15326,0.058602,-0.012978,-0.0092104,-0.1474,-0.054285,-0.031432,0.046935,-0.096628,-0.028489,0.040214,-0.087463,-0.010213,-0.048272,-0.045365,0.033682,0.1346,-0.076191
0.020318,-0.0757,0.032184,-0.038462,0.016211,-0.062346,-0.14773,0.060176,-0.016411,0.0012958,-0.14082,-0.059851,-0.039199,0.076401,-0.08808,-0.043898,0.043523,-0.082205,-0.032428,-0.039497,-0.044086,0.020833,0.1413,-0.076177
0.021246,-0.074727,0.01602,-0.035624,0.016358,-0.053696,-0.1446,0.058308,-0.024994,0.015133,-0.1329,-0.075372,-0.047426,0.10959,-0.070881,-0.063092,0.045264,-0.07195,-0.051275,-0.014375,-0.043496,0.016255,0.14196,-0.077824
0.018468,-0.066498,0.0053109,-0.035935,0.012912,-0.03551,-0.14434,0.054472,-0.037798,0.026394,-0.12684,-0.10235,-0.050325,0.12805,-0.04851,-0.084296,0.047494,-0.068971,-0.062705,0.017464,-0.043425,0.022816,0.13703,-0.081923
0.014906,-0.058993,0.0054449,-0.037427,0.0094362,-0.017975,-0.14429,0.049687,-0.051154,0.032103,-0.12208,-0.13395,-0.046374,0.12303,-0.026278,-0.1044,0.050496,-0.076732,-0.069952,0.044045,-0.041196,0.031671,0.1312,-0.086982
0.014221,-0.059018,0.012976,-0.037277,0.0076755,-0.007913,-0.14224,0.043196,-0.059678,0.033829,-0.11461,-0.15716,-0.038847,0.10124,-0.0083876,-0.12026,0.052346,-0.086822,-0.079246,0.057984,-0.034346,0.029269,0.12842,-0.090373
0.017099,-0.066543,0.017284,-0.033795,0.0058733,-0.0048541,-0.13905,0.033765,-0.059098,0.035617,-0.10137,-0.15879,-0.032346,0.077369,0.0036297,-0.13084,0.050927,-0.087459,-0.092453,0.059415,-0.023868,0.010436,0.12813,-0.090287
0.020115,-0.074886,0.0091665,-0.027343,0.0010137,-0.0039685,-0.1374,0.022216,-0.049276,0.040519,-0.083943,-0.13218,-0.029131,0.061067,0.010613,-0.13831,0.046278,-0.075057,-0.10431,0.054011,-0.014383,-0.015334,0.12629,-0.086973
0.018687,-0.076921,-0.011099,-0.019761,-0.0073954,-0.0015534,-0.13816,0.012382,-0.034931,0.048579,-0.067466,-0.081081,-0.028588,0.050929,0.014585,-0.14677,0.040959,-0.057804,-0.10743,0.048568,-0.010548,-0.031388,0.12013,-0.082428
0.011649,-0.07196,-0.033718,-0.01304,-0.015961,0.0026801,-0.13871,0.0091402,-0.022963,0.057344,-0.055941,-0.018402,-0.029536,0.039932,0.017846,-0.15919,0.038057,-0.048162,-0.10019,0.04748,-0.012827,-0.028806,0.11152,-0.078845
0.0030524,-0.066917,-0.047734,-0.0082773,-0.020141,0.007853,-0.13527,0.014986,-0.01796,0.063857,-0.048618,0.039645,-0.032199,0.025322,0.022657,-0.17483,0.038693,-0.051655,-0.089558,0.051723,-0.016672,-0.01463,0.10537,-0.076899
-0.00090794,-0.07025,-0.050439,-0.0053412,-0.018687,0.014825,-0.12691,0.028125,-0.019309,0.066503,-0.041188,0.080848,-0.037411,0.012081,0.030939,-0.18965,0.041293,-0.062467,-0.085405,0.059832,-0.016125,-0.0053612,0.10457,-0.075025
0.0026928,-0.083802,-0.049381,-0.0031001,-0.015435,0.025488,-0.11683,0.043826,-0.022282,0.065765,-0.030546,0.10175,-0.043995,0.00676,0.043457,-0.19961,0.043219,-0.069544,-0.091455,0.069416,-0.0087695,-0.011759,0.10646,-0.070287
0.010746,-0.099969,-0.055221,3.9666e-005,-0.016304,0.03885,-0.10938,0.057884,-0.022239,0.063899,-0.018212,0.1074,-0.047657,0.0091488,0.058806,-0.20456,0.043226,-0.066992,-0.10166,0.078264,0.0023429,-0.029362,0.10453,-0.060487
0.016713,-0.10718,-0.072027,0.0053775,-0.0239,0.048838,-0.10584,0.069187,-0.018466,0.063915,-0.0088269,0.10667,-0.043452,0.011662,0.073319,-0.2094,0.042531,-0.058946,-0.10592,0.08497,0.011438,-0.043636,0.094018,-0.046192
0.016243,-0.09916,-0.093826,0.013111,-0.034727,0.047799,-0.10344,0.079144,-0.01449,0.068274,-0.005156,0.1064,-0.030128,0.0076996,0.082737,-0.22096,0.043589,-0.054781,-0.099929,0.089292,0.014873,-0.044492,0.076207,-0.03112
0.010556,-0.079976,-0.11033,0.021923,-0.041889,0.03378,-0.098486,0.088652,-0.01482,0.077815,-0.0046222,0.10806,-0.012236,-7.3926e-005,0.085108,-0.24238,0.047733,-0.059763,-0.089826,0.092194,0.013764,-0.035904,0.057544,-0.020275
0.004559,-0.060426,-0.11616,0.029464,-0.041112,0.014695,-0.090346,0.095603,-0.021052,0.091346,-0.00097312,0.10857,0.0025564,-0.0014096,0.082905,-0.26912,0.053758,-0.070143,-0.086687,0.095355,0.012257,-0.031363,0.044517,-0.016904
0.0018424,-0.049377,-0.11495,0.033703,-0.034581,0.0041807,-0.081863,0.095601,-0.030523,0.10607,0.010357,0.10395,0.0091154,0.010295,0.082241,-0.28987,0.058562,-0.076923,-0.09588,0.10025,0.013367,-0.039883,0.038982,-0.020445
0.0016701,-0.047893,-0.11472,0.034347,-0.028918,0.011396,-0.075862,0.085673,-0.038331,0.11852,0.028243,0.092847,0.0086027,0.028473,0.088891,-0.29252,0.059222,-0.074151,-0.11133,0.10737,0.016412,-0.056595,0.037776,-0.027044
0.00081264,-0.050939,-0.11951,0.033205,-0.029087,0.033267,-0.07157,0.06779,-0.04081,0.12561,0.04689,0.077224,0.0068624,0.036541,0.10363,-0.27126,0.054811,-0.063721,-0.12042,0.1161,0.018337,-0.067412,0.036219,-0.032234
-0.0020512,-0.053889,-0.12585,0.033009,-0.033966,0.056417,-0.065034,0.04876,-0.037818,0.12542,0.060704,0.060239,0.0088001,0.022529,0.12067,-0.23012,0.046789,-0.052684,-0.1153,0.12519,0.017369,-0.06324,0.03178,-0.033719
-0.0042765,-0.056743,-0.12717,0.035439,-0.037785,0.067714,-0.053315,0.035959,-0.032588,0.11792,0.06831,0.04331,0.013924,-0.0083031,0.13117,-0.18035,0.038021,-0.046508,-0.099965,0.13351,0.015144,-0.049593,0.024759,-0.032218
-0.00185,-0.062086,-0.12166,0.039944,-0.036047,0.064563,-0.038041,0.032036,-0.029675,0.10506,0.072305,0.025039,0.01728,-0.0359,0.1297,-0.13385,0.031308,-0.045125,-0.086601,0.14032,0.015045,-0.041807,0.016346,-0.030064
0.0061076,-0.06991,-0.11498,0.044435,-0.0302,0.056149,-0.024296,0.032883,-0.032376,0.090111,0.07575,0.002934,0.014966,-0.042159,0.11864,-0.097217,0.028239,-0.04497,-0.084621,0.14543,0.018335,-0.050199,0.0068945,-0.028999
0.015824,-0.075847,-0.11492,0.047347,-0.02654,0.054857,-0.015615,0.030667,-0.040869,0.076159,0.079377,-0.023571,0.008889,-0.027095,0.10656,-0.070312,0.028663,-0.043754,-0.092762,0.14915,0.022196,-0.069588,-0.0036084,-0.028973
0.02213,-0.07533,-0.12325,0.049225,-0.030377,0.065718,-0.01006,0.019633,-0.051831,0.06463,0.082196,-0.051492,0.0059071,-0.0090834,0.10139,-0.049342,0.030821,-0.042302,-0.10144,0.15225,0.022066,-0.083633,-0.013901,-0.028612
0.023213,-0.069203,-0.13338,0.052287,-0.040991,0.082987,-0.0015512,0.00017359,-0.059927,0.055059,0.084214,-0.075689,0.011662,-0.0083427,0.10418,-0.031306,0.032169,-0.04167,-0.10254,0.15556,0.016387,-0.080122,-0.021196,-0.026593
0.021928,-0.064033,-0.13665,0.058214,-0.05202,0.096011,0.014484,-0.02175,-0.06075,0.046358,0.087741,-0.092354,0.024662,-0.028728,0.10874,-0.016216,0.030727,-0.039549,-0.096772,0.15917,0.008984,-0.062662,-0.023305,-0.022696
0.022315,-0.065778,-0.13121,0.06621,-0.05671,0.09817,0.036389,-0.038968,-0.05369,0.03842,0.095496,-0.10175,0.036331,-0.054738,0.10762,-0.005992,0.026324,-0.031176,-0.091621,0.16169,0.0061749,-0.047581,-0.021132,-0.017815
0.025043,-0.072966,-0.12448,0.073258,-0.05309,0.090753,0.056878,-0.047567,-0.04265,0.032436,0.10744,-0.10788,0.037522,-0.066288,0.099065,-0.001753,0.020843,-0.014912,-0.092569,0.1605,0.010805,-0.049017,-0.018645,-0.013178
0.026673,-0.076945,-0.12624,0.076476,-0.044687,0.079474,0.068212,-0.04826,-0.033698,0.029463,0.11985,-0.11519,0.025997,-0.057005,0.088426,-0.0020576,0.017045,0.0033081,-0.096891,0.15313,0.01886,-0.066408,-0.019816,-0.0095117
0.02364,-0.069971,-0.13868,0.075433,-0.036944,0.068522,0.067099,-0.044442,-0.031016,0.028568,0.12792,-0.12513,0.0083345,-0.038766,0.082724,-0.0033872,0.01662,0.012641,-0.096486,0.13921,0.022399,-0.086029,-0.025321,-0.0067199
0.016809,-0.053561,-0.15341,0.072278,-0.033247,0.058508,0.055294,-0.039368,-0.034138,0.026544,0.12963,-0.13546,-0.0053864,-0.02895,0.083804,-0.0022368,0.018815,0.0064562,-0.086723,0.12125,0.01665,-0.094542,-0.032364,-0.0041802
0.01164,-0.038417,-0.15862,0.069622,-0.033955,0.049388,0.036552,-0.034979,-0.038644,0.019888,0.12712,-0.14278,-0.0093979,-0.033664,0.086924,0.0027836,0.020744,-0.010002,-0.072002,0.10346,0.0048151,-0.091125,-0.03798,-0.0012868
0.01337,-0.035076,-0.14993,0.068255,-0.038123,0.043568,0.014043,-0.032782,-0.039667,0.0075968,0.12444,-0.14609,-0.0058373,-0.043546,0.086358,0.010129,0.019246,-0.021466,-0.062046,0.089285,-0.0041319,-0.086606,-0.042552,0.0022213
0.021789,-0.043774,-0.13475,0.066815,-0.044958,0.044445,-0.0091104,-0.035044,-0.035305,-0.0075948,0.12386,-0.14812,-0.0015622,-0.045565,0.082277,0.016162,0.013018,-0.014018,-0.062384,0.079352,-0.0029966,-0.091099,-0.04983,0.0063261
0.030856,-0.053448,-0.12569,0.063492,-0.053218,0.051429,-0.027851,-0.044444,-0.027283,-0.020798,0.12422,-0.15317,-0.0017771,-0.037977,0.081481,0.017206,0.0035005,0.013117,-0.068553,0.071408,0.0074441,-0.10291,-0.06319,0.010947
0.033775,-0.051427,-0.12913,0.057882,-0.059879,0.057541,-0.035724,-0.062133,-0.018781,-0.02832,0.12277,-0.16337,-0.006437,-0.032702,0.090525,0.01178,-0.0060485,0.045844,-0.070005,0.0623,0.019157,-0.10983,-0.081776,0.015905
0.028865,-0.035082,-0.13963,0.051191,-0.060813,0.053849,-0.029124,-0.085973,-0.011731,-0.030233,0.11845,-0.17666,-0.012037,-0.042535,0.10778,0.001709,-0.012577,0.065683,-0.060102,0.050395,0.023684,-0.10147,-0.1005,0.020591
0.02071,-0.014493,-0.1453,0.044861,-0.053937,0.037745,-0.011506,-0.11084,-0.0059436,-0.030192,0.11335,-0.18837,-0.015994,-0.066391,0.12277,-0.0087743,-0.014914,0.063955,-0.042487,0.036595,0.018841,-0.080122,-0.11413,0.023804
0.015584,-0.0034182,-0.13888,0.039284,-0.041941,0.016903,0.0076423,-0.1311,-0.00040833,-0.032635,0.11099,-0.195,-0.018805,-0.08806,0.12447,-0.015661,-0.014046,0.047776,-0.027639,0.023321,0.0095125,-0.059325,-0.1215,0.024296
0.015557,-0.0068721,-0.12418,0.033963,-0.031221,0.0038441,0.019734,-0.14354,0.0049176,-0.039524,0.11306,-0.19721,-0.022189,-0.090484,0.11116,-0.017807,-0.012059,0.033154,-0.023025,0.012484,0.002521,-0.051672,-0.12581,0.021904
0.016794,-0.016806,-0.11213,0.028682,-0.027014,0.005,0.024322,-0.14856,0.0086927,-0.04903,0.11752,-0.19953,-0.026009,-0.071894,0.092421,-0.017532,-0.010708,0.031611,-0.026393,0.0041982,0.00082506,-0.057848,-0.13082,0.018307
0.013447,-0.019752,-0.11043,0.024181,-0.028796,0.014301,0.029588,-0.14894,0.0094469,-0.057085,0.11994,-0.20706,-0.027923,-0.048012,0.081102,-0.018517,-0.010618,0.041873,-0.028514,-0.0028428,0.0022695,-0.067446,-0.13685,0.016431
0.0032802,-0.0090504,-0.11657,0.021471,-0.030402,0.017959,0.044749,-0.14748,0.0072008,-0.060492,0.11686,-0.22165,-0.026348,-0.038035,0.082384,-0.02264,-0.011437,0.05302,-0.022352,-0.0099203,0.0032011,-0.070053,-0.14066,0.018583
-0.010262,0.0097975,-0.1205,0.020579,-0.025254,0.00682,0.0709,-0.14541,0.0039019,-0.059158,0.10833,-0.24,-0.023208,-0.047779,0.090136,-0.028469,-0.012495,0.055172,-0.0095827,-0.017226,0.0026519,-0.065132,-0.13917,0.024677
-0.021215,0.02526,-0.11378,0.020169,-0.012258,-0.014831,0.098895,-0.14259,0.0022656,-0.055796,0.097698,-0.25504,-0.022728,-0.065893,0.093537,-0.032798,-0.013354,0.047789,0.0016561,-0.024116,0.0028772,-0.061041,-0.13296,0.032089
-0.026249,0.030915,-0.096715,0.018513,0.0029255,-0.032472,0.11667,-0.13883,0.0039615,-0.053469,0.088874,-0.25965,-0.026791,-0.076103,0.087264,-0.033805,-0.014018,0.0389,0.0051355,-0.030262,0.0062629,-0.065013,-0.12588,0.037486
-0.026972,0.0306,-0.077206,0.014774,0.012495,-0.034105,0.11953,-0.13479,0.0085509,-0.053189,0.083522,-0.25057,-0.031523,-0.073075,0.075469,-0.032837,-0.014949,0.037274,0.0026132,-0.036392,0.012353,-0.074938,-0.12137,0.039222
-0.027569,0.032869,-0.06312,0.0092749,0.013004,-0.021182,0.11389,-0.1315,0.013931,-0.053683,0.080213,-0.23032,-0.029375,-0.06657,0.066216,-0.032961,-0.017045,0.04541,0.0019284,-0.043785,0.018246,-0.081427,-0.11955,0.038418
-0.03047,0.040871,-0.055693,0.0027,0.0080874,-0.007615,0.11112,-0.12927,0.017892,-0.053534,0.075839,-0.2056,-0.015689,-0.0704,0.062446,-0.035571,-0.021421,0.059238,0.0095058,-0.052968,0.021712,-0.077624,-0.11835,0.037895
-0.034327,0.048333,-0.049703,-0.0045779,0.0051896,-0.0075201,0.11723,-0.12726,0.019604,-0.053552,0.06775,-0.18298,0.0061227,-0.087545,0.058658,-0.038381,-0.028784,0.073314,0.024886,-0.062933,0.023436,-0.066269,-0.11715,0.039937
-0.035998,0.046086,-0.039547,-0.012057,0.0093371,-0.02265,0.12825,-0.1244,0.019975,-0.056759,0.054957,-0.1643,0.026096,-0.10608,0.046483,-0.03705,-0.038546,0.085276,0.042273,-0.07177,0.025863,-0.056652,-0.11844,0.04476
-0.034191,0.032652,-0.025067,-0.018165,0.01931,-0.040865,0.13517,-0.12087,0.020727,-0.065415,0.03806,-0.14508,0.035334,-0.1097,0.023467,-0.029324,-0.048368,0.095178,0.056741,-0.078185,0.029957,-0.054865,-0.12521,0.050759
-0.031016,0.017848,-0.011842,-0.02047,0.029137,-0.04703,0.13325,-0.11887,0.023024,-0.077573,0.018766,-0.11776,0.033247,-0.092612,-0.0036628,-0.017941,-0.054889,0.10151,0.068305,-0.082468,0.033576,-0.057747,-0.13633,0.056038
-0.029957,0.014951,-0.0061559,-0.017727,0.033124,-0.036502,0.12642,-0.12164,0.02675,-0.086798,-0.00025932,-0.077703,0.027888,-0.064587,-0.024377,-0.0093189,-0.055572,0.099705,0.079917,-0.085935,0.033502,-0.056933,-0.1455,0.059747
-0.032484,0.028441,-0.0095883,-0.012152,0.02992,-0.019135,0.12257,-0.1314,0.030885,-0.08632,-0.015508,-0.027921,0.028913,-0.042063,-0.03314,-0.0087354,-0.050578,0.086177,0.092275,-0.089362,0.029119,-0.048714,-0.14576,0.062156
-0.036768,0.049246,-0.017918,-0.0092489,0.022621,-0.010499,0.12478,-0.14755,0.034423,-0.074729,-0.023593,0.021268,0.039322,-0.034215,-0.033495,-0.016002,-0.043157,0.064334,0.1018,-0.092025,0.02372,-0.039067,-0.1361,0.063731
-0.039739,0.062609,-0.024641,-0.014267,0.015642,-0.018499,0.12749,-0.16639,0.036948,-0.058126,-0.02313,0.057758,0.053242,-0.037127,-0.034193,-0.025473,-0.037908,0.045395,0.10454,-0.092439,0.02162,-0.038026,-0.12358,0.064311
-0.040353,0.061549,-0.025422,-0.027704,0.011621,-0.037381,0.12179,-0.18243,0.038472,-0.046127,-0.016226,0.074543,0.061452,-0.040481,-0.041651,-0.03052,-0.037873,0.040959,0.10198,-0.090235,0.023693,-0.048614,-0.11807,0.063215
-0.040684,0.053299,-0.019727,-0.043946,0.010726,-0.053851,0.10455,-0.19046,0.038995,-0.044501,-0.0079582,0.073202,0.059469,-0.038919,-0.055662,-0.028615,-0.042529,0.052668,0.10185,-0.087331,0.025986,-0.06173,-0.12381,0.060068
-0.043702,0.052589,-0.0092342,-0.054975,0.012018,-0.058924,0.082307,-0.18746,0.038404,-0.050757,-0.0036885,0.061936,0.050955,-0.036452,-0.071245,-0.022606,-0.048239,0.068731,0.11205,-0.08705,0.023323,-0.063016,-0.13554,0.05545
-0.049904,0.067986,0.0044406,-0.056578,0.014737,-0.054491,0.065634,-0.17339,0.036775,-0.056875,-0.006042,0.050138,0.043844,-0.040225,-0.08355,-0.017215,-0.050911,0.072156,0.13283,-0.091691,0.014791,-0.045931,-0.14307,0.050719
-0.056175,0.093846,0.020317,-0.051838,0.018207,-0.049376,0.059446,-0.15095,0.034558,-0.057073,-0.01395,0.043633,0.043251,-0.051105,-0.090842,-0.014155,-0.04888,0.054821,0.15525,-0.1006,0.0056231,-0.018605,-0.14046,0.047197
-0.058201,0.11488,0.037102,-0.048595,0.021152,-0.049836,0.058663,-0.12418,0.03225,-0.053607,-0.024514,0.043525,0.047717,-0.06147,-0.093895,-0.010401,-0.043847,0.025148,0.16828,-0.11049,0.0030702,0.0025519,-0.13143,0.045427
-0.054309,0.11868,0.052665,-0.0528,0.022018,-0.054174,0.053681,-0.096991,0.029906,-0.055007,-0.03599,0.048372,0.051699,-0.062645,-0.094131,-0.0011037,-0.039268,0.0018998,0.16827,-0.11774,0.0096308,0.0069924,-0.12582,0.045026
-0.047155,0.1048,0.065065,-0.063496,0.020518,-0.056216,0.040274,-0.072078,0.027143,-0.067904,-0.04921,0.057051,0.051177,-0.05405,-0.093126,0.015788,-0.037592,-0.0011221,0.16194,-0.12064,0.01997,-0.0011572,-0.13012,0.045066
-0.041602,0.08323,0.074019,-0.073902,0.01865,-0.053226,0.024035,-0.050888,0.023775,-0.089701,-0.066159,0.069808,0.04684,-0.044204,-0.093149,0.037587,-0.038553,0.013819,0.15984,-0.11972,0.024799,-0.0077576,-0.14102,0.044572
-0.040611,0.065196,0.080931,-0.07762,0.019431,-0.049582,0.014727,-0.03417,0.020301,-0.10894,-0.087067,0.087086,0.042293,-0.04221,-0.0964,0.059248,-0.039667,0.031213,0.16646,-0.11608,0.018568,-0.0021536,-0.14772,0.042844
-0.042842,0.055346,0.087183,-0.074319,0.023935,-0.052272,0.015984,-0.022394,0.017486,-0.11355,-0.10875,0.10777,0.0399,-0.04844,-0.10246,0.077513,-0.038262,0.036114,0.17641,-0.10961,0.0041222,0.013433,-0.14122,0.039564
-0.044115,0.051464,0.092535,-0.069698,0.029524,-0.062969,0.020706,-0.015563,0.015336,-0.10021,-0.12591,0.12879,0.038765,-0.054225,-0.10673,0.092783,-0.033298,0.026201,0.18004,-0.098917,-0.0097925,0.027288,-0.122,0.034784
-0.041378,0.049752,0.09558,-0.069906,0.031595,-0.075145,0.017166,-0.012745,0.01281,-0.076981,-0.13443,0.14668,0.03665,-0.051148,-0.10311,0.10718,-0.02571,0.011542,0.17295,-0.083071,-0.015717,0.030444,-0.099352,0.028814
-0.035582,0.049048,0.095961,-0.075727,0.027847,-0.079697,0.00029633,-0.012151,0.0090671,-0.05715,-0.13414,0.15977,0.03324,-0.04043,-0.089776,0.12111,-0.017437,0.0034058,0.16003,-0.063278,-0.012752,0.025397,-0.083319,0.022064
-0.030901,0.050086,0.095881,-0.082078,0.02113,-0.07378,-0.022744,-0.012079,0.0052313,-0.049656,-0.12876,0.16939,0.030946,-0.032389,-0.073002,0.13201,-0.010232,0.0035054,0.15044,-0.042667,-0.005535,0.022804,-0.076861,0.014956
-0.031078,0.052151,0.09883,-0.083209,0.017682,-0.063999,-0.038495,-0.01201,0.0045117,-0.053689,-0.12327,0.17883,0.032257,-0.03592,-0.064098,0.1365,-0.0050948,0.0037544,0.1488,-0.024133,0.001249,0.029922,-0.075078,0.0080541
-0.036184,0.052177,0.10628,-0.078591,0.021809,-0.060424,-0.039354,-0.012696,0.009705,-0.061216,-0.12077,0.19083,0.036507,-0.04841,-0.070767,0.13381,-0.0023055,-0.004195,0.15116,-0.0081456,0.0069605,0.042749,-0.07126,0.002266
-0.042559,0.047877,0.11554,-0.073743,0.031681,-0.066973,-0.030562,-0.014939,0.019959,-0.064504,-0.12122,0.20494,0.03967,-0.056706,-0.090003,0.12699,-0.0015053,-0.019758,0.14928,0.0073602,0.013917,0.049874,-0.063312,-0.0012841
-0.045763,0.04109,0.12126,-0.075143,0.040349,-0.077441,-0.025349,-0.018118,0.030159,-0.06222,-0.1226,0.21671,0.037729,-0.048985,-0.10937,0.12084,-0.0016487,-0.033695,0.13839,0.024655,0.023007,0.044065,-0.054468,-0.0019525
-0.043822,0.036682,0.11983,-0.083978,0.041354,-0.081095,-0.032669,-0.020047,0.034373,-0.059662,-0.12324,0.21914,0.030441,-0.026368,-0.11642,0.11851,-0.0012177,-0.037118,0.12094,0.043292,0.031255,0.029828,-0.048459,-0.00044567
-0.038136,0.037244,0.11284,-0.094622,0.034037,-0.072509,-0.048909,-0.018578,0.030828,-0.063665,-0.12323,0.20611,0.021791,-0.0027811,-0.10846,0.11982,0.00096732,-0.029918,0.10335,0.059073,0.03421,0.019314,-0.044835,0.0010312
-0.031767,0.039162,0.10618,-0.099296,0.023809,-0.056276,-0.061113,-0.013619,0.02381,-0.076567,-0.12393,0.17611,0.016574,0.0072588,-0.094271,0.12251,0.0047709,-0.020315,0.08983,0.065944,0.030589,0.0208,-0.039515,-7.8993e-005
-0.027069,0.035167,0.10521,-0.094629,0.017342,-0.042305,-0.058464,-0.0075764,0.020229,-0.093699,-0.12608,0.13395,0.016301,0.001528,-0.086073,0.12458,0.0085994,-0.016464,0.079718,0.059554,0.02396,0.031371,-0.029739,-0.0047717
-0.02468,0.021871,0.11005,-0.084231,0.017218,-0.036588,-0.041408,-0.0035724,0.023593,-0.10595,-0.12832,0.089341,0.018248,-0.0084906,-0.088864,0.12558,0.010588,-0.018856,0.070273,0.039949,0.019266,0.041017,-0.017763,-0.01128
-0.024094,0.0048033,0.1152,-0.075196,0.020817,-0.036454,-0.020539,-0.0029179,0.030885,-0.10547,-0.12753,0.052269,0.01837,-0.0087579,-0.096387,0.12566,0.010295,-0.021045,0.061002,0.011645,0.017556,0.043732,-0.0088958,-0.015836
-0.02447,-0.0051709,0.11424,-0.072022,0.02395,-0.034653,-0.0071767,-0.0041256,0.035455,-0.090717,-0.12097,0.027917,0.015094,0.0045326,-0.096929,0.12418,0.0092721,-0.017515,0.054477,-0.018656,0.01453,0.044134,-0.0055201,-0.015169
-0.024635,-0.0018165,0.10554,-0.073444,0.025231,-0.027767,-0.0047552,-0.0043604,0.033365,-0.067716,-0.10868,0.014199,0.010282,0.022641,-0.083467,0.11949,0.0096449,-0.010285,0.052767,-0.044908,0.004845,0.052686,-0.003337,-0.0089881
-0.022791,0.0094909,0.093908,-0.074632,0.026845,-0.020318,-0.0083344,-0.0019014,0.027249,-0.046716,-0.094287,0.0038984,0.0066491,0.033902,-0.059226,0.11042,0.011756,-0.0073065,0.05368,-0.063428,-0.011781,0.074113,0.0057176,-0.00045353
-0.017161,0.015395,0.086524,-0.072115,0.031285,-0.020415,-0.01117,0.0027569,0.023943,-0.036225,-0.083166,-0.009804,0.0045299,0.035,-0.034441,0.097719,0.013169,-0.014206,0.051302,-0.073118,-0.028838,0.10058,0.026009,0.0058508
-0.0077402,0.0065476,0.086594,-0.066649,0.037801,-0.031281,-0.011008,0.0081264,0.02803,-0.038124,-0.079124,-0.02819,0.0014868,0.032536,-0.018123,0.083888,0.010422,-0.027777,0.040855,-0.075003,-0.037802,0.11678,0.053174,0.006975
0.0025306,-0.012942,0.090526,-0.061629,0.042508,-0.047135,-0.010294,0.013852,0.037372,-0.046898,-0.081873,-0.045975,-0.0047926,0.033944,-0.01246,0.071342,0.0023491,-0.037964,0.023243,-0.071771,-0.035244,0.11269,0.076683,0.003356
0.009008,-0.028024,0.091245,-0.059128,0.042181,-0.057659,-0.011466,0.021397,0.044861,-0.053453,-0.08721,-0.055223,-0.013384,0.038037,-0.013963,0.060664,-0.0080491,-0.03668,0.0047525,-0.067156,-0.025672,0.092327,0.088169,-0.0020058
0.0087351,-0.025735,0.084706,-0.057723,0.037811,-0.056886,-0.013325,0.032448,0.044792,-0.050973,-0.089835,-0.051348,-0.020261,0.035754,-0.018667,0.050632,-0.015335,-0.025075,-0.0079818,-0.064607,-0.017442,0.070641,0.088174,-0.0061512
0.0032198,-0.0071252,0.073542,-0.054211,0.034081,-0.04807,-0.012558,0.046643,0.037963,-0.038981,-0.086729,-0.036687,-0.021854,0.020789,-0.025525,0.039935,-0.015919,-0.012389,-0.013086,-0.065486,-0.015598,0.061206,0.085219,-0.0083907
-0.002237,0.01297,0.064447,-0.04729,0.034958,-0.039976,-0.0083169,0.061063,0.030861,-0.023083,-0.078681,-0.018966,-0.018595,-0.0011863,-0.035213,0.028816,-0.01124,-0.0076651,-0.014055,-0.068079,-0.018219,0.06583,0.088023,-0.010442
-0.0026067,0.018343,0.061785,-0.039369,0.03964,-0.03832,-0.0042755,0.072204,0.029777,-0.010871,-0.069046,-0.0058538,-0.014774,-0.015262,-0.047006,0.019037,-0.0067806,-0.012305,-0.015742,-0.068634,-0.019322,0.074776,0.097938,-0.014535
0.0027571,0.0048384,0.063571,-0.034575,0.042942,-0.040712,-0.0053852,0.078624,0.035258,-0.0069883,-0.060962,0.00020518,-0.01461,-0.010498,-0.05827,0.012252,-0.0074983,-0.02022,-0.019949,-0.064074,-0.015054,0.076595,0.10841,-0.021172
0.009684,-0.01712,0.063657,-0.034837,0.040016,-0.039961,-0.012504,0.081707,0.041771,-0.010569,-0.055312,0.00299,-0.018324,0.0092101,-0.067466,0.0084148,-0.013582,-0.024773,-0.024834,-0.054371,-0.0071065,0.068221,0.11182,-0.028373
0.012935,-0.032512,0.057866,-0.037835,0.031036,-0.032337,-0.020748,0.083902,0.042633,-0.016362,-0.050856,0.0087614,-0.022166,0.028026,-0.076786,0.0057398,-0.020373,-0.025284,-0.028197,-0.042593,-0.00043524,0.056495,0.10717,-0.032992
0.010779,-0.034417,0.047949,-0.038784,0.021363,-0.022355,-0.023836,0.086372,0.035633,-0.018235,-0.046115,0.02093,-0.022598,0.03295,-0.090183,0.002166,-0.02257,-0.026805,-0.030727,-0.032582,0.0018955,0.050675,0.10149,-0.033007
0.0062491,-0.027806,0.039449,-0.034386,0.016884,-0.018837,-0.020467,0.088615,0.024536,-0.012518,-0.041161,0.037395,-0.020574,0.026405,-0.10757,-0.003094,-0.018929,-0.033907,-0.03556,-0.026433,0.0013235,0.053621,0.10336,-0.02902
0.0040475,-0.021974,0.035759,-0.025334,0.018737,-0.02568,-0.016296,0.090401,0.015552,0.00065691,-0.037614,0.052478,-0.021506,0.02397,-0.1211,-0.0091945,-0.013231,-0.045162,-0.044581,-0.024099,0.0014552,0.059851,0.11472,-0.023882
0.0061328,-0.020046,0.034558,-0.015339,0.022276,-0.036508,-0.019066,0.093751,0.01227,0.018108,-0.036698,0.061598,-0.030444,0.038777,-0.11893,-0.014445,-0.010766,-0.054018,-0.05562,-0.025346,0.0036242,0.061602,0.12855,-0.020785
0.010144,-0.016235,0.030401,-0.0079371,0.021233,-0.03936,-0.031176,0.10228,0.01343,0.035283,-0.03705,0.064709,-0.046695,0.067309,-0.094927,-0.017166,-0.01372,-0.05502,-0.06401,-0.031821,0.005245,0.056414,0.13494,-0.021265
0.012003,-0.0032571,0.020853,-0.0041276,0.013308,-0.027978,-0.04675,0.11783,0.014986,0.047866,-0.034544,0.065777,-0.063044,0.090568,-0.056266,-0.015841,-0.019745,-0.048855,-0.067383,-0.046631,0.0027531,0.048757,0.13004,-0.024479
0.01004,0.018019,0.0097728,-0.0025947,0.0021744,-0.0091801,-0.056303,0.1373,0.014075,0.053069,-0.02498,0.069043,-0.070798,0.090157,-0.020986,-0.0089342,-0.024797,-0.041029,-0.068763,-0.071166,-0.0040192,0.044556,0.11947,-0.028079
0.0066652,0.036895,0.0041272,-0.0015947,-0.0058068,0.0015677,-0.054982,0.15299,0.01119,0.050754,-0.0079867,0.075403,-0.066629,0.064686,-0.0057277,0.0046465,-0.027184,-0.035738,-0.074094,-0.10176,-0.010784,0.044581,0.11293,-0.029872
0.0060898,0.041381,0.0073456,-0.00029789,-0.0070529,-0.0063652,-0.046835,0.15696,0.0089271,0.043903,0.011209,0.081882,-0.055301,0.031435,-0.01298,0.024227,-0.028719,-0.031578,-0.085843,-0.1295,-0.01242,0.043626,0.1151,-0.029041
0.010375,0.028957,0.015927,0.0014497,-0.0035189,-0.028004,-0.041033,0.14627,0.0089398,0.037553,0.024377,0.0844,-0.045798,0.011954,-0.028672,0.046288,-0.031938,-0.023757,-0.098919,-0.14423,-0.0077686,0.036309,0.12159,-0.026248
0.017596,0.0090898,0.022825,0.0040191,-0.00052511,-0.044967,-0.043391,0.12505,0.010145,0.036025,0.026074,0.081216,-0.044007,0.014906,-0.032859,0.065129,-0.036459,-0.01044,-0.10374,-0.14026,-0.0007672,0.023389,0.1236,-0.022817
0.023757,-0.0051602,0.024237,0.0080932,-0.0019653,-0.039674,-0.050871,0.10163,0.0097429,0.039986,0.018269,0.074194,-0.048118,0.031324,-0.015174,0.0755,-0.038554,0.0037745,-0.094657,-0.11978,0.0033107,0.011835,0.11674,-0.019722
0.026511,-0.0085739,0.02282,0.013809,-0.0073309,-0.0097155,-0.054195,0.083213,0.0058627,0.045778,0.0096525,0.067123,-0.050528,0.045292,0.017534,0.075611,-0.034726,0.011435,-0.076096,-0.091512,0.0028105,0.0082117,0.10506,-0.017039
0.027065,-0.0074512,0.023919,0.020174,-0.012921,0.029884,-0.046325,0.071957,-0.00078283,0.048155,0.0094589,0.062831,-0.044452,0.048915,0.047486,0.068241,-0.025782,0.009477,-0.060103,-0.065588,0.00092678,0.012005,0.096605,-0.014073
0.028482,-0.012185,0.028635,0.025749,-0.015573,0.058186,-0.029242,0.065209,-0.0077376,0.044767,0.020389,0.061589,-0.029599,0.047609,0.060525,0.058986,-0.017025,0.002499,-0.056654,-0.048242,0.00204,0.015878,0.095299,-0.01002
0.032074,-0.026085,0.031172,0.030018,-0.015189,0.063522,-0.012915,0.058937,-0.013172,0.038854,0.036459,0.061782,-0.012305,0.052059,0.056546,0.052856,-0.013824,-0.0017548,-0.065345,-0.039557,0.0069652,0.012992,0.097493,-0.0047564
0.035477,-0.041325,0.023933,0.033871,-0.014015,0.049857,-0.0072991,0.051216,-0.017388,0.037603,0.047841,0.061778,-0.00040635,0.066015,0.047491,0.051684,-0.016596,-0.00031708,-0.076329,-0.035059,0.012051,0.0042078,0.096558,0.00074534
0.034468,-0.045955,0.0059571,0.038465,-0.014039,0.030592,-0.014398,0.043191,-0.021988,0.046951,0.048951,0.061089,0.0026102,0.08212,0.045645,0.053997,-0.020201,0.0019876,-0.079935,-0.029415,0.013127,-0.0022085,0.090287,0.0047811
0.027028,-0.035259,-0.013766,0.043557,-0.015467,0.017051,-0.027262,0.037488,-0.027535,0.066557,0.043154,0.060019,-0.00051104,0.089084,0.053036,0.057078,-0.018706,-0.002019,-0.075979,-0.019669,0.010229,0.0015674,0.083067,0.0060045
0.015898,-0.01669,-0.022328,0.047181,-0.017576,0.012068,-0.036453,0.036106,-0.032113,0.088808,0.040171,0.058581,-0.0038312,0.0823,0.060942,0.059431,-0.011208,-0.013288,-0.073781,-0.0064317,0.0080377,0.01502,0.080544,0.0045161
0.0070481,-0.0037946,-0.013712,0.047296,-0.020382,0.012465,-0.037874,0.039594,-0.032433,0.10292,0.048312,0.056138,-0.0030676,0.067342,0.058791,0.061897,-0.0030489,-0.023874,-0.082625,0.0070303,0.011251,0.029043,0.082646,0.0019659
0.005141,-0.0048274,0.0053229,0.043929,-0.024712,0.015371,-0.034914,0.047563,-0.026803,0.10161,0.067833,0.052208,0.0018187,0.053702,0.043499,0.066884,-0.0010007,-0.023662,-0.10178,0.016901,0.019458,0.03363,0.082783,0.00034448
0.0098557,-0.016402,0.020151,0.039678,-0.030364,0.021031,-0.033477,0.059242,-0.017403,0.085878,0.090688,0.047481,0.0078582,0.045891,0.020806,0.076419,-0.006777,-0.010448,-0.11995,0.021011,0.026936,0.0262,0.074444,0.00035824
0.016268,-0.027481,0.020231,0.037892,-0.034637,0.030221,-0.035181,0.073234,-0.0095945,0.064722,0.10662,0.04371,0.012304,0.040936,-0.0015109,0.090349,-0.01504,0.0065468,-0.12528,0.020124,0.028061,0.01295,0.05842,0.0009123
0.018958,-0.029523,0.0076675,0.040092,-0.033665,0.040871,-0.035541,0.087031,-0.0083803,0.049761,0.11059,0.04231,0.014768,0.033957,-0.020962,0.10578,-0.01797,0.013722,-0.11665,0.017667,0.023189,0.0026326,0.042861,0.00038256
0.016296,-0.023543,-0.005253,0.044942,-0.026074,0.048873,-0.028812,0.097423,-0.01456,0.048126,0.10582,0.042937,0.016747,0.024964,-0.04096,0.11815,-0.012279,0.0047098,-0.10559,0.017869,0.018946,-0.00072789,0.035715,-0.0013966
0.011358,-0.018356,-0.0073061,0.049619,-0.015582,0.052552,-0.014426,0.10194,-0.023692,0.05827,0.10051,0.043566,0.019579,0.019146,-0.064922,0.12348,-0.0021709,-0.01392,-0.10655,0.02332,0.022091,0.0006286,0.037106,-0.0024592
0.0089976,-0.022432,0.0018862,0.052237,-0.00937,0.05533,0.0017197,0.10001,-0.028976,0.0715,0.1012,0.042217,0.023027,0.020366,-0.090895,0.12052,0.0044555,-0.027943,-0.12406,0.033486,0.032529,0.0028699,0.039517,-0.00033395
0.011842,-0.036934,0.012281,0.053103,-0.01275,0.062633,0.012765,0.09259,-0.026097,0.078155,0.1082,0.038786,0.025639,0.025264,-0.1129,0.11148,0.0030025,-0.026879,-0.14843,0.045273,0.042351,0.0056679,0.035773,0.0053364
0.018562,-0.055492,0.013211,0.053815,-0.02438,0.075432,0.017863,0.080547,-0.016368,0.074066,0.11625,0.035217,0.026158,0.025123,-0.12776,0.10073,-0.0040793,-0.011534,-0.16375,0.055221,0.042328,0.012119,0.026684,0.011768
0.025378,-0.069846,0.0030569,0.05528,-0.036455,0.087226,0.023503,0.063655,-0.005632,0.062643,0.11949,0.033738,0.024434,0.014499,-0.14005,0.092248,-0.0099982,0.0082228,-0.16078,0.061604,0.030151,0.023886,0.020378,0.014944
0.02901,-0.075689,-0.010169,0.056641,-0.040265,0.088579,0.037379,0.041728,0.00024419,0.051285,0.11637,0.034799,0.021146,-0.0020431,-0.15932,0.087693,-0.0099151,0.022395,-0.14364,0.064787,0.012833,0.037278,0.023732,0.012979
0.028496,-0.073947,-0.017256,0.056128,-0.032847,0.075878,0.06041,0.016981,-0.00030543,0.04519,0.11072,0.036737,0.017004,-0.012647,-0.19176,0.086201,-0.0048553,0.028051,-0.12504,0.065662,0.00087269,0.045012,0.034509,0.0078247
0.024957,-0.067546,-0.016518,0.052947,-0.01925,0.056212,0.084681,-0.0049856,-0.0039186,0.043648,0.10826,0.037652,0.012484,-0.0087445,-0.23425,0.085831,6.8916e-005,0.029042,-0.11554,0.06373,-0.00059262,0.042301,0.042481,0.0035155
0.020298,-0.057736,-0.01433,0.048409,-0.0085338,0.043085,0.099617,-0.017482,-0.0057253,0.041643,0.11159,0.03787,0.0082477,0.0063582,-0.27674,0.085113,0.00086019,0.029959,-0.11656,0.056759,0.0042655,0.031093,0.038953,0.0024331
0.016232,-0.043644,-0.017573,0.045213,-0.0067987,0.045891,0.10087,-0.017141,-0.0037111,0.034931,0.11785,0.040631,0.0053496,0.019495,-0.31075,0.083434,-0.0020078,0.031122,-0.12232,0.042675,0.006265,0.018001,0.025506,0.0030573
0.013938,-0.024843,-0.02621,0.045502,-0.012914,0.061939,0.093731,-0.0068299,-0.00019415,0.02388,0.12078,0.050019,0.0044978,0.018959,-0.33575,0.080321,-0.005065,0.029437,-0.12688,0.022349,-0.00047364,0.0079013,0.01311,0.001404
0.013743,-0.0035108,-0.033654,0.049354,-0.020158,0.078057,0.088064,0.0058799,0.00071054,0.01278,0.11565,0.06749,0.0048914,0.0046993,-0.35754,0.074802,-0.006129,0.023586,-0.12858,0.00091545,-0.013846,-0.00014936,0.011932,-0.0051365
0.01468,0.016605,-0.034175,0.054875,-0.021983,0.080757,0.089764,0.01397,-0.0028563,0.0056663,0.10302,0.089618,0.0040363,-0.012194,-0.38086,0.065733,-0.0067135,0.017496,-0.12822,-0.01382,-0.026624,-0.010344,0.021384,-0.015167
0.01469,0.033498,-0.029222,0.059631,-0.016935,0.066748,0.096637,0.01587,-0.0086455,0.0028624,0.088635,0.10895,-0.00074854,-0.020179,-0.404,0.052775,-0.010072,0.017843,-0.12446,-0.015238,-0.033662,-0.023512,0.030094,-0.024357
0.012133,0.048745,-0.02588,0.062115,-0.0089074,0.045337,0.10202,0.015909,-0.012174,0.0013948,0.079311,0.11765,-0.010174,-0.01783,-0.42066,0.036914,-0.017021,0.027538,-0.11299,-0.0015769,-0.036485,-0.033702,0.026227,-0.029208
0.0077045,0.065439,-0.029143,0.062183,-0.003152,0.030994,0.10182,0.019947,-0.010454,-0.0014757,0.078171,0.11168,-0.022145,-0.014261,-0.42657,0.020067,-0.024021,0.041696,-0.090977,0.022963,-0.04121,-0.032377,0.0086601,-0.029997
0.0046703,0.083982,-0.036299,0.060495,-0.0018845,0.032236,0.0979,0.030019,-0.0042778,-0.0053052,0.082553,0.092995,-0.033155,-0.019298,-0.42332,0.0043893,-0.025756,0.050681,-0.062403,0.050329,-0.052176,-0.016859,-0.011432,-0.030201
0.0063891,0.10035,-0.039505,0.057782,-0.0031879,0.045588,0.094902,0.04268,0.00268,-0.0069175,0.086113,0.068436,-0.040683,-0.033228,-0.4152,-0.0078275,-0.019917,0.048178,-0.037557,0.072427,-0.067466,0.0052955,-0.020153,-0.033087
0.012851,0.10937,-0.034023,0.054592,-0.0036164,0.058922,0.09471,0.052364,0.0067878,-0.0035676,0.083492,0.04611,-0.044402,-0.046131,-0.40259,-0.013849,-0.0096558,0.036987,-0.025948,0.084249,-0.080325,0.021067,-0.012825,-0.038693
0.019656,0.11046,-0.023544,0.051391,-0.001657,0.060932,0.094681,0.056454,0.0068655,0.0043783,0.074201,0.03134,-0.045273,-0.047244,-0.37965,-0.010917,-0.0013287,0.026857,-0.028605,0.084804,-0.084856,0.022261,0.0025144,-0.043942
0.02114,0.10993,-0.016985,0.048547,0.0011868,0.049083,0.091456,0.0572,0.0044255,0.013671,0.062995,0.024451,-0.04383,-0.035054,-0.33953,0.0020232,0.00040585,0.025886,-0.037142,0.076116,-0.0807,0.011995,0.012804,-0.045563
0.015392,0.11684,-0.019817,0.046034,0.0023858,0.030319,0.085818,0.0587,0.0020994,0.020808,0.056485,0.021537,-0.039681,-0.018373,-0.28263,0.022498,-0.0042949,0.033304,-0.040864,0.061683,-0.072833,0.0012557,0.011318,-0.042941
0.0065413,0.13516,-0.028556,0.043328,0.0012297,0.014951,0.082813,0.061989,0.001777,0.024516,0.058361,0.017567,-0.032648,-0.0077368,-0.21913,0.044732,-0.01169,0.0405,-0.035582,0.045555,-0.067263,-0.0012975,0.0023,-0.038287
0.0017194,0.15952,-0.033825,0.03989,-0.00029942,0.009159,0.086504,0.063324,0.0036848,0.026076,0.066593,0.0097889,-0.023896,-0.0058784,-0.16238,0.062696,-0.018428,0.03957,-0.02615,0.03198,-0.066687,0.0033183,-0.0046372,-0.034172
0.0050417,0.17855,-0.028858,0.035956,0.00062274,0.011652,0.094823,0.057695,0.0066337,0.027641,0.074677,-0.00074799,-0.015246,-0.006558,-0.11865,0.073941,-0.024257,0.031416,-0.020692,0.024742,-0.069413,0.0066714,-0.0041963,-0.030968
0.014012,0.18345,-0.015145,0.032783,0.0049662,0.015988,0.10039,0.044411,0.0089899,0.030237,0.076125,-0.010447,-0.0071083,-0.0023755,-0.082754,0.08084,-0.031054,0.025559,-0.022305,0.02565,-0.071491,0.0021775,0.00019971,-0.026686
0.021796,0.17415,-0.00012263,0.031817,0.010874,0.015742,0.097122,0.029163,0.0097845,0.033014,0.068991,-0.016045,0.002458,0.006789,-0.044263,0.087716,-0.039591,0.031533,-0.02603,0.032931,-0.069596,-0.0080005,0.00083701,-0.019365
0.023367,0.15777,0.010122,0.033349,0.015217,0.008585,0.08614,0.020042,0.0094152,0.034075,0.057082,-0.016861,0.015783,0.013474,0.0015441,0.096037,-0.04763,0.049742,-0.023592,0.041096,-0.062613,-0.015228,-0.0061722,-0.0097347
0.0198,0.14127,0.015597,0.035887,0.016096,-0.0028205,0.074848,0.020714,0.0094464,0.032136,0.046969,-0.014777,0.032088,0.010793,0.048098,0.10193,-0.051441,0.070312,-0.011022,0.04326,-0.051871,-0.0134,-0.01731,-0.0016191
0.016722,0.1254,0.020282,0.037062,0.01399,-0.012699,0.069782,0.027029,0.011393,0.027881,0.043183,-0.012335,0.04616,0.00060247,0.082924,0.098459,-0.049186,0.081022,0.0079619,0.034962,-0.04087,-0.0054803,-0.025704,0.00040851
0.01851,0.10569,0.026228,0.035475,0.010749,-0.01539,0.07041,0.030453,0.015178,0.024019,0.045303,-0.010821,0.051452,-0.0069741,0.099044,0.08103,-0.042648,0.077012,0.025426,0.016872,-0.034551,-0.00088991,-0.02813,-0.0057177
0.023912,0.078997,0.030735,0.031942,0.0077556,-0.0085428,0.070271,0.025487,0.018581,0.023722,0.049038,-0.0099986,0.045559,-0.0027686,0.10171,0.051315,-0.03549,0.063662,0.035741,-0.0059501,-0.037346,-0.0062926,-0.027688,-0.017952
0.027373,0.048897,0.02976,0.028939,0.005148,0.0050295,0.06433,0.014468,0.01852,0.028226,0.050003,-0.0093324,0.033121,0.012298,0.10408,0.016565,-0.029806,0.050777,0.039089,-0.02804,-0.050156,-0.018998,-0.029783,-0.031337
0.024723,0.024183,0.023637,0.028571,0.0026584,0.018204,0.05489,0.0054677,0.013505,0.035363,0.046883,-0.0091151,0.022954,0.027293,0.11589,-0.015005,-0.024518,0.044255,0.039513,-0.047671,-0.068397,-0.02959,-0.036054,-0.041022
0.017557,0.011821,0.018327,0.030703,0.00082077,0.023487,0.049636,0.0052786,0.005243,0.040602,0.041569,-0.010196,0.021418,0.030907,0.13581,-0.038782,-0.017245,0.042892,0.040339,-0.067501,-0.083666,-0.031132,-0.042827,-0.044926
0.011862,0.011106,0.020013,0.032852,0.00098072,0.018079,0.05348,0.013818,-0.0022287,0.040326,0.036767,-0.012685,0.027688,0.021692,0.15435,-0.054774,-0.0076477,0.04204,0.041657,-0.090798,-0.088919,-0.025702,-0.045613,-0.04441
0.012103,0.01472,0.028273,0.032015,0.0039635,0.0063093,0.062488,0.024684,-0.0054937,0.034898,0.033646,-0.015224,0.035053,0.0091864,0.16402,-0.065017,0.0013341,0.03904,0.041711,-0.11636,-0.083422,-0.021771,-0.044637,-0.042829
0.016562,0.015497,0.035374,0.026991,0.0088555,-0.0031625,0.066492,0.030806,-0.004366,0.028676,0.03151,-0.015906,0.03694,0.0048931,0.16648,-0.070335,0.0057881,0.034619,0.039862,-0.13696,-0.073004,-0.025204,-0.04522,-0.043169
0.018701,0.01217,0.033527,0.019345,0.013373,-0.0038643,0.058312,0.029723,-0.0018292,0.026476,0.02919,-0.014109,0.032222,0.011689,0.16991,-0.069545,0.004441,0.029811,0.037581,-0.14363,-0.064817,-0.033093,-0.052283,-0.046288
0.013525,0.0085756,0.023527,0.012252,0.01566,0.0034198,0.040734,0.024013,-0.00127,0.029239,0.026285,-0.011437,0.025393,0.021596,0.17971,-0.061481,-5.6196e-005,0.023177,0.03648,-0.13287,-0.061015,-0.036685,-0.064643,-0.050701
0.0029095,0.0076616,0.015788,0.0082019,0.015756,0.011606,0.024262,0.017456,-0.0034686,0.03281,0.023027,-0.010617,0.022098,0.023729,0.19221,-0.0475,-0.0034779,0.012361,0.035862,-0.11077,-0.057171,-0.030415,-0.075255,-0.053776
-0.0054698,0.0070675,0.021509,0.0073853,0.015215,0.013793,0.017649,0.011392,-0.0061017,0.031315,0.019382,-0.013151,0.024452,0.014602,0.19804,-0.031858,-0.0036771,-0.0016534,0.032873,-0.090161,-0.04712,-0.017821,-0.077648,-0.053491
-0.0050589,0.0013625,0.041485,0.0078992,0.015187,0.0095869,0.020282,0.0048428,-0.0062223,0.022622,0.014808,-0.01779,0.030041,0.0010879,0.19159,-0.019523,-0.0019841,-0.013082,0.025598,-0.082289,-0.029754,-0.0082412,-0.072236,-0.049602
0.0030445,-0.011177,0.063425,0.0073917,0.014985,0.0053402,0.023642,-0.0024247,-0.0033993,0.011272,0.0090929,-0.021279,0.034583,-0.0063939,0.17696,-0.013344,-0.0011837,-0.015669,0.016063,-0.089656,-0.011139,-0.0074291,-0.066048,-0.043568
0.010244,-0.024663,0.07144,0.0047023,0.012754,0.007794,0.020117,-0.0078603,-0.0005352,0.006071,0.0031891,-0.020891,0.035116,-0.0035541,0.1644,-0.01295,-0.0023594,-0.0092815,0.0097639,-0.10546,0.0003527,-0.011401,-0.065807,-0.037387
0.0077073,-0.029586,0.059943,0.00033855,0.0077378,0.016913,0.010354,-0.0077533,-0.0014732,0.013729,-0.0011616,-0.016683,0.031082,0.0043726,0.16079,-0.015961,-0.0038553,-0.0018495,0.011485,-0.11974,0.0015004,-0.0097919,-0.071074,-0.032232
-0.0054392,-0.021689,0.039323,-0.0042237,0.0017995,0.024836,0.0020307,-0.00099224,-0.0074529,0.033119,-0.0027949,-0.011586,0.023535,0.0082195,0.16375,-0.020145,-0.0031965,-0.0035873,0.020998,-0.12682,-0.0028126,0.0042282,-0.074359,-0.027921
-0.020411,-0.0070955,0.027596,-0.0075628,-0.00162,0.022398,0.0016174,0.0091149,-0.015587,0.054549,-0.0020218,-0.0091959,0.014361,0.0035253,0.16493,-0.024602,0.00032255,-0.018079,0.032791,-0.12793,-0.0040425,0.026815,-0.068386,-0.023549
-0.025527,0.0019892,0.034935,-0.0089017,-0.00043795,0.0075139,0.0075563,0.017231,-0.020823,0.065097,-6.9122e-005,-0.011024,0.0063956,-0.0061001,0.15896,-0.029412,0.0051955,-0.038499,0.04053,-0.12785,0.0023393,0.045922,-0.053563,-0.018626
-0.015864,-0.0022178,0.054802,-0.0082071,0.0039683,-0.012407,0.011621,0.020568,-0.019854,0.056929,0.0022296,-0.015448,0.0032237,-0.013431,0.14883,-0.03471,0.0096977,-0.052897,0.042466,-0.12916,0.013176,0.051245,-0.038339,-0.01363
0.0025105,-0.015973,0.069736,-0.0061557,0.0076846,-0.026535,0.006873,0.021255,-0.013735,0.033141,0.004903,-0.019232,0.0073007,-0.014685,0.14258,-0.040478,0.01387,-0.054058,0.042858,-0.12972,0.021273,0.04267,-0.031965,-0.0093955
0.017498,-0.027092,0.066603,-0.0040979,0.0075697,-0.029813,-0.0058493,0.024106,-0.0070673,0.0067056,0.0079307,-0.020364,0.017262,-0.011979,0.14508,-0.047186,0.019145,-0.045046,0.047926,-0.12473,0.022593,0.029765,-0.036559,-0.0058973
0.02078,-0.025587,0.047594,-0.0037405,0.0039,-0.026748,-0.01925,0.031822,-0.0044103,-0.0076896,0.01022,-0.019769,0.027298,-0.0093999,0.1532,-0.056238,0.02605,-0.035577,0.05991,-0.11082,0.019931,0.023123,-0.046033,-0.001608
0.013968,-0.012169,0.027394,-0.0063344,-0.00022823,-0.026206,-0.02704,0.042086,-0.0068681,-0.0039066,0.010082,-0.020351,0.03043,-0.0077155,0.15919,-0.069157,0.032807,-0.032942,0.074692,-0.088229,0.019621,0.025542,-0.052616,0.0057564
0.0059742,0.0029379,0.019762,-0.011716,-0.0022383,-0.032076,-0.029847,0.049246,-0.011552,0.010727,0.0070579,-0.024099,0.023826,-0.0037906,0.15829,-0.085781,0.036741,-0.036071,0.085217,-0.059836,0.024763,0.030707,-0.054244,0.017505
0.0044623,0.0092865,0.026237,-0.017973,-0.0028943,-0.038804,-0.033689,0.048943,-0.01421,0.020339,0.0030509,-0.029809,0.011602,0.0048453,0.15292,-0.10305,0.037189,-0.037917,0.087606,-0.029327,0.031812,0.029906,-0.055427,0.032579
0.0093542,0.0047135,0.03688,-0.022218,-0.0056812,-0.036374,-0.042839,0.041498,-0.012753,0.012476,0.00097516,-0.033579,0.0020214,0.015844,0.14927,-0.11585,0.036546,-0.03319,0.084366,-0.0007006,0.033923,0.020235,-0.06101,0.047696
0.014061,-0.0044316,0.041114,-0.022147,-0.013096,-0.02035,-0.05453,0.031216,-0.0087769,-0.011837,0.0017491,-0.031911,0.00089692,0.023571,0.15032,-0.11978,0.037804,-0.023584,0.08183,0.020952,0.027704,0.0070374,-0.069638,0.05909
0.01267,-0.010562,0.037468,-0.017406,-0.023334,0.0024834,-0.061019,0.022626,-0.0059547,-0.038278,0.0026449,-0.024847,0.0067455,0.025173,0.15248,-0.11399,0.040846,-0.015633,0.084376,0.029821,0.016647,-0.0008202,-0.074048,0.064685
0.0059029,-0.011965,0.033113,-0.009842,-0.030764,0.018578,-0.057,0.017206,-0.0067921,-0.050031,-0.00079203,-0.016334,0.012125,0.024511,0.14946,-0.10184,0.041652,-0.013861,0.090797,0.022315,0.0077998,0.0021581,-0.068193,0.065158
0.00024295,-0.01305,0.034916,-0.002458,-0.030217,0.018523,-0.045003,0.013293,-0.010508,-0.040708,-0.010467,-0.011284,0.010154,0.028902,0.1392,-0.08881,0.035979,-0.016399,0.095971,0.00082497,0.0049829,0.015147,-0.053844,0.063136
0.001406,-0.018331,0.041932,0.0023183,-0.021492,0.0046882,-0.033392,0.0086794,-0.013756,-0.018809,-0.023031,-0.011687,0.00047704,0.041202,0.12678,-0.07903,0.024374,-0.01739,0.095828,-0.025289,0.005305,0.033425,-0.03947,0.061203
0.0086911,-0.026852,0.046902,0.0039752,-0.01006,-0.011232,-0.028916,0.0031135,-0.013456,-0.00033649,-0.031707,-0.015068,-0.010665,0.055288,0.12023,-0.073037,0.013287,-0.013413,0.090757,-0.043321,0.0024981,0.052374,-0.031998,0.060206
0.015632,-0.032778,0.0444,0.003999,-0.0031193,-0.018374,-0.031027,-0.0015617,-0.0092843,0.003814,-0.031575,-0.016638,-0.016197,0.060342,0.12324,-0.068149,0.010338,-0.0071575,0.084464,-0.043338,-0.006188,0.068679,-0.029708,0.059103
0.016138,-0.031248,0.036539,0.0045933,-0.0041793,-0.015292,-0.033343,-0.0033725,-0.0038015,-0.0049958,-0.023861,-0.0133,-0.014444,0.050596,0.13193,-0.060943,0.017506,-0.0045236,0.079991,-0.022454,-0.016435,0.07861,-0.023928,0.056294
0.010123,-0.023286,0.030319,0.0069066,-0.010594,-0.0095455,-0.030525,-0.0021388,-0.00028912,-0.016608,-0.015348,-0.0060901,-0.010118,0.03131,0.1387,-0.049804,0.028624,-0.0080841,0.077199,0.015452,-0.020404,0.077209,-0.0084806,0.051197
0.0033353,-0.014747,0.030012,0.010146,-0.015929,-0.0094359,-0.023729,0.00041595,-0.00026344,-0.021788,-0.013184,0.00095443,-0.009379,0.014817,0.13923,-0.035759,0.03409,-0.013602,0.07418,0.063333,-0.014182,0.061311,0.012449,0.044772
0.0018182,-0.010545,0.033104,0.012405,-0.015032,-0.016171,-0.019374,0.0021951,-0.0026799,-0.019117,-0.019363,0.004357,-0.013786,0.0099861,0.136,-0.021398,0.029062,-0.013293,0.07071,0.11432,-0.0019533,0.034302,0.026621,0.038686
0.0064245,-0.010117,0.034004,0.012608,-0.0076647,-0.023666,-0.022649,0.0022531,-0.0051699,-0.013846,-0.029425,0.00398,-0.018835,0.014979,0.13513,-0.0090795,0.017869,-0.0028473,0.06963,0.16244,0.0073054,0.0070674,0.025063,0.034015
0.01248,-0.0086215,0.030973,0.011808,0.001929,-0.02542,-0.032191,0.00099694,-0.0059182,-0.01141,-0.036314,0.0027307,-0.018301,0.020099,0.14016,0.00011068,0.010466,0.014504,0.074252,0.2016,0.0076897,-0.0078725,0.01183,0.03065
0.014538,-0.0024322,0.028206,0.012449,0.0086566,-0.021139,-0.040986,-0.00075574,-0.0045656,-0.012522,-0.036033,0.0037598,-0.010152,0.017832,0.14897,0.0062022,0.013849,0.030718,0.084228,0.22547,0.001441,-0.0053722,0.002135,0.027799
0.011398,0.0067911,0.030567,0.016053,0.010221,-0.016543,-0.042473,-0.0026672,-0.0017794,-0.013929,-0.030493,0.0078348,0.0014163,0.010235,0.15675,0.0096066,0.025989,0.039734,0.094341,0.22946,-0.0035169,0.0080452,0.0094145,0.024936
0.0066222,0.013539,0.036895,0.021469,0.0081308,-0.017012,-0.036011,-0.0049095,0.001573,-0.012767,-0.02551,0.013081,0.0094176,0.0065857,0.16144,0.010711,0.037621,0.041791,0.098131,0.21324,-0.0011789,0.019191,0.03282,0.022294
0.0044401,0.013793,0.039771,0.025578,0.0059283,-0.0219,-0.0269,-0.007651,0.0046774,-0.009417,-0.025986,0.016905,0.0095418,0.013837,0.16609,0.010057,0.040262,0.041416,0.093444,0.18096,0.0070544,0.018848,0.057011,0.020556
0.0053964,0.0088137,0.032794,0.026092,0.0065328,-0.025388,-0.021472,-0.01083,0.0065255,-0.0062173,-0.032397,0.018063,0.0027527,0.029434,0.17559,0.0086463,0.033304,0.041641,0.084724,0.13876,0.014141,0.0088919,0.065098,0.020202
0.0061227,0.0037326,0.018017,0.023867,0.010632,-0.022766,-0.022112,-0.01446,0.006007,-0.0041354,-0.041135,0.017131,-0.00671,0.043611,0.19144,0.0078366,0.023981,0.040724,0.079578,0.091521,0.01454,-0.00041834,0.053264,0.021135
0.0032761,0.0027113,0.0053615,0.02236,0.016679,-0.015372,-0.026449,-0.018838,0.0027428,-0.0014321,-0.047844,0.015442,-0.015312,0.048776,0.21004,0.0088862,0.020538,0.034869,0.08241,0.042218,0.0097234,-0.00039119,0.033767,0.022865
-0.0025406,0.0057519,0.0037992,0.024445,0.021888,-0.0088843,-0.030505,-0.024079,-0.0020745,0.0041608,-0.050539,0.013901,-0.022262,0.046499,0.22635,0.012663,0.024912,0.023939,0.090816,-0.0056776,0.0067395,0.0080884,0.023748,0.024947
-0.0069917,0.010151,0.01273,0.029485,0.023521,-0.006668,-0.032152,-0.029337,-0.0059759,0.012167,-0.050084,0.012752,-0.028268,0.044972,0.23897,0.019798,0.031478,0.013774,0.09799,-0.045683,0.01132,0.01574,0.030331,0.027309
-0.0062277,0.014455,0.022283,0.033563,0.020206,-0.0052815,-0.03177,-0.032818,-0.0068197,0.01866,-0.048364,0.012045,-0.033163,0.049424,0.25121,0.030877,0.032743,0.011953,0.098935,-0.069231,0.022317,0.01384,0.045638,0.030285
-0.00088201,0.020156,0.022636,0.032888,0.013032,0.0027456,-0.030466,-0.033109,-0.0044455,0.019212,-0.046514,0.011868,-0.035384,0.055261,0.26657,0.046041,0.026573,0.020806,0.094823,-0.070582,0.032864,0.0023584,0.055608,0.034401
0.0042253,0.029063,0.013502,0.027318,0.005638,0.021173,-0.028602,-0.030805,-0.00079839,0.012925,-0.044949,0.011993,-0.033806,0.051431,0.28353,0.06406,0.018328,0.034769,0.091718,-0.051956,0.037022,-0.010249,0.053513,0.04005
0.0044953,0.039394,0.0046329,0.020643,0.0025712,0.045097,-0.026369,-0.028633,0.0017331,0.0037391,-0.044523,0.011568,-0.029615,0.031397,0.29529,0.081941,0.016095,0.045201,0.095108,-0.024032,0.035311,-0.01506,0.045269,0.047159
-0.0001834,0.045491,0.006831,0.017236,0.006319,0.064263,-0.025269,-0.029412,0.0022867,-0.0023723,-0.046743,0.0095814,-0.025748,0.0011363,0.29592,0.096178,0.023429,0.048267,0.10534,-0.0003867,0.033736,-0.010718,0.04231,0.054993
-0.0054105,0.042395,0.021965,0.018145,0.014959,0.072115,-0.027971,-0.033406,0.0019537,-0.0020792,-0.052112,0.0058852,-0.024152,-0.024332,0.28709,0.1053,0.036163,0.048122,0.11783,0.010272,0.037447,-0.0040298,0.049965,0.062283
-0.0064265,0.031056,0.041199,0.020323,0.022606,0.072044,-0.035801,-0.037692,0.0022902,0.0026994,-0.058237,0.0017044,-0.023754,-0.033599,0.27844,0.11159,0.045948,0.052092,0.12721,0.0081838,0.045456,-0.0030278,0.062929,0.06772
-0.0023855,0.018503,0.05268,0.019799,0.023041,0.074457,-0.046072,-0.038629,0.003432,0.0064445,-0.060391,-0.0011236,-0.021562,-0.029148,0.28007,0.1197,0.047229,0.062585,0.1312,6.3061e-005,0.051684,-0.0094,0.071568,0.070629
0.0032246,0.011967,0.051291,0.015817,0.014224,0.086829,-0.052437,-0.035485,0.0037332,0.0045791,-0.055138,-0.0016974,-0.016141,-0.025149,0.29354,0.13232,0.041528,0.073814,0.13079,-0.0072074,0.051225,-0.017334,0.071826,0.071421
0.0060928,0.012284,0.041808,0.011975,0.00026791,0.10588,-0.048981,-0.031823,0.0013083,-0.0027707,-0.044179,-0.00099401,-0.0099067,-0.034099,0.30983,0.14621,0.03562,0.07664,0.12739,-0.011166,0.04547,-0.019301,0.068589,0.0715
0.0048898,0.013319,0.033509,0.01313,-0.010974,0.11944,-0.035137,-0.032941,-0.0040647,-0.01069,-0.034442,-0.0012541,-0.0074985,-0.054505,0.3167,0.15245,0.035567,0.066773,0.1206,-0.013398,0.040913,-0.012813,0.069808,0.07256
0.0018066,0.0086421,0.032043,0.020808,-0.013133,0.11685,-0.017079,-0.041351,-0.01057,-0.01295,-0.033255,-0.0042533,-0.011246,-0.071508,0.30914,0.1419,0.04186,0.048385,0.10903,-0.015966,0.042765,-0.0018446,0.07824,0.075641
-0.00021427,-0.00076615,0.035943,0.03131,-0.0055184,0.098424,-0.0038192,-0.054308,-0.015819,-0.0063137,-0.042113,-0.0099122,-0.017941,-0.070502,0.2935,0.11206,0.049436,0.030012,0.093136,-0.019045,0.04971,0.0076916,0.089447,0.080486
-0.00037549,-0.0058472,0.039913,0.038262,0.0068129,0.075373,-0.00068578,-0.065723,-0.018634,0.0073295,-0.054515,-0.01639,-0.020378,-0.051318,0.28154,0.06954,0.051976,0.017323,0.076687,-0.022068,0.055019,0.013294,0.097431,0.085623
-0.00013225,0.0023334,0.040565,0.037382,0.016988,0.060122,-0.0053937,-0.070806,-0.019419,0.022032,-0.060401,-0.021503,-0.012898,-0.029354,0.28023,0.025441,0.046596,0.0099777,0.064527,-0.026297,0.053018,0.016727,0.10109,0.089156
-0.00081497,0.022616,0.038825,0.029391,0.021028,0.05592,-0.010041,-0.069325,-0.018988,0.030983,-0.05403,-0.024243,0.0037202,-0.021982,0.28662,-0.012891,0.035406,0.0048832,0.058566,-0.03498,0.044551,0.020179,0.10425,0.089758
-0.001718,0.041965,0.037398,0.018888,0.019798,0.055253,-0.0075035,-0.064748,-0.017387,0.029914,-0.038925,-0.025234,0.022428,-0.032546,0.29217,-0.046804,0.023475,0.0013098,0.055852,-0.049941,0.036044,0.022505,0.10956,0.087233
-0.00091684,0.045054,0.036837,0.010622,0.017143,0.048208,0.0030367,-0.06049,-0.014099,0.019253,-0.025656,-0.025978,0.035212,-0.047023,0.29159,-0.083565,0.015507,0.0017011,0.051052,-0.067783,0.03291,0.020039,0.11343,0.082316
0.0021111,0.027639,0.034745,0.006557,0.016231,0.032601,0.015942,-0.057061,-0.009351,0.0042449,-0.024103,-0.027688,0.039046,-0.046832,0.28725,-0.12812,0.01375,0.0073062,0.041408,-0.080018,0.03367,0.011367,0.1085,0.075966
0.0051783,0.0015149,0.028859,0.0057875,0.017218,0.016219,0.024242,-0.052681,-0.0048196,-0.0073424,-0.036271,-0.030653,0.037432,-0.026099,0.28524,-0.17657,0.017862,0.014001,0.029643,-0.077924,0.030622,0.00088636,0.09166,0.06877
0.0052471,-0.014454,0.02048,0.0065163,0.017766,0.0092988,0.025463,-0.046273,-0.0025811,-0.009484,-0.0551,-0.034386,0.036517,0.0026309,0.28769,-0.21707,0.025732,0.014012,0.02193,-0.058328,0.016813,-0.0032299,0.069365,0.060934
0.0018255,-0.010204,0.014266,0.007741,0.015462,0.014746,0.023266,-0.039438,-0.0031333,-0.0020848,-0.069763,-0.038103,0.039563,0.019522,0.28968,-0.23753,0.03417,0.0030496,0.022553,-0.025463,-0.0070355,0.0044705,0.053853,0.052855
-0.0017405,0.0066763,0.014192,0.0092855,0.0098666,0.025517,0.023954,-0.035276,-0.0045959,0.0080858,-0.073081,-0.041007,0.044773,0.015024,0.28395,-0.23355,0.039488,-0.013995,0.029983,0.012309,-0.032198,0.021686,0.05294,0.045712
-0.00091902,0.017304,0.019567,0.010863,0.0027793,0.03134,0.031395,-0.035364,-0.0042277,0.01154,-0.06559,-0.04231,0.047932,-0.0022112,0.2685,-0.2106,0.03865,-0.025303,0.037853,0.047532,-0.048863,0.039802,0.062974,0.041394
0.0055855,0.0076682,0.025139,0.011695,-0.002987,0.02781,0.044742,-0.038157,-0.0010399,0.0032327,-0.053888,-0.041402,0.046685,-0.013812,0.24895,-0.17927,0.030974,-0.021587,0.039846,0.076134,-0.054248,0.050839,0.072087,0.04151
0.01395,-0.019819,0.025382,0.011186,-0.005085,0.018931,0.060193,-0.040527,0.0030399,-0.012706,-0.045225,-0.038355,0.042059,-0.0080099,0.2331,-0.14837,0.019101,-0.0046571,0.034142,0.096337,-0.054571,0.053651,0.07107,0.045956
0.01808,-0.049585,0.019001,0.0096814,-0.0025211,0.011235,0.074229,-0.040818,0.00477,-0.025224,-0.042643,-0.034396,0.0361,0.01132,0.22324,-0.12135,0.00787,0.013006,0.023862,0.1067,-0.058954,0.053711,0.061655,0.052136
0.014868,-0.067473,0.0094838,0.0082151,0.0040189,0.0062538,0.08508,-0.040151,0.0025928,-0.024673,-0.043903,-0.031605,0.028786,0.030306,0.21429,-0.097639,0.001297,0.018051,0.013833,0.10618,-0.070518,0.056907,0.05424,0.055854
0.0070472,-0.072777,0.0014598,0.0073988,0.01217,-0.00041683,0.091858,-0.040614,-0.0018058,-0.01073,-0.044351,-0.031634,0.018094,0.03881,0.19982,-0.07625,-0.00018836,0.0071577,0.0071093,0.096021,-0.082537,0.063413,0.057208,0.053776
0.00094111,-0.076715,-0.0033933,0.0067201,0.018449,-0.012537,0.093536,-0.042319,-0.0049038,0.0068956,-0.041066,-0.034223,0.0034718,0.038971,0.17982,-0.057694,0.00013433,-0.010509,0.0041316,0.080555,-0.083108,0.067504,0.068206,0.045964
0.0011387,-0.089538,-0.0069806,0.0051265,0.019759,-0.02661,0.089764,-0.0426,-0.0043962,0.015852,-0.035073,-0.036833,-0.011165,0.041417,0.16195,-0.042952,-0.0018611,-0.021433,0.004218,0.065197,-0.064441,0.063299,0.075928,0.036442
0.0068917,-0.10931,-0.011763,0.0022881,0.015436,-0.033229,0.082648,-0.038478,-0.00098734,0.010561,-0.03019,-0.036115,-0.018913,0.054184,0.15428,-0.03148,-0.0076015,-0.019081,0.0069113,0.053417,-0.029104,0.050707,0.070758,0.030829
0.01326,-0.12335,-0.017582,-0.00092168,0.0083514,-0.026121,0.076717,-0.029964,0.0026997,-0.0041615,-0.029771,-0.030374,-0.01546,0.0754,0.15667,-0.020987,-0.0146,-0.0083322,0.011632,0.046115,0.011525,0.035916,0.053974,0.032389
0.015519,-0.12079,-0.021751,-0.0033594,0.0036426,-0.0099319,0.075827,-0.020697,0.0048605,-0.017887,-0.03405,-0.021198,-0.0037875,0.09588,0.15933,-0.0095108,-0.018568,0.00049274,0.016703,0.044294,0.044678,0.026289,0.036595,0.039402
0.012597,-0.10353,-0.022204,-0.0049251,0.0053512,0.0020076,0.079326,-0.014908,0.0060922,-0.023141,-0.040094,-0.012785,0.0069398,0.10774,0.15095,0.002253,-0.01689,0.0017405,0.019829,0.051748,0.063254,0.024896,0.028983,0.046077
0.0067586,-0.085002,-0.02015,-0.0066452,0.013283,-0.00090041,0.08158,-0.013442,0.0083045,-0.020412,-0.044126,-0.0092625,0.008145,0.11024,0.12888,0.010926,-0.010422,-0.001196,0.020232,0.073446,0.067764,0.029675,0.031313,0.046542
0.00068916,-0.077816,-0.019226,-0.0092098,0.022736,-0.016378,0.076304,-0.012775,0.012221,-0.016105,-0.044196,-0.011913,-0.00133,0.1081,0.10189,0.013095,-0.0022732,-0.0011231,0.020139,0.10949,0.063434,0.036995,0.034122,0.038918
-0.0046186,-0.082694,-0.021903,-0.011522,0.027688,-0.030591,0.062393,-0.0082702,0.016142,-0.016256,-0.04121,-0.018386,-0.014415,0.10563,0.082751,0.0083867,0.0049138,0.0039161,0.023298,0.15002,0.056309,0.044884,0.028285,0.026335
-0.0092529,-0.089159,-0.026959,-0.011112,0.025147,-0.030534,0.045796,0.0011606,0.017259,-0.021824,-0.037945,-0.024435,-0.021914,0.10312,0.077184,0.00013087,0.010499,0.0074831,0.031256,0.17735,0.051346,0.052308,0.014605,0.014208
-0.012484,-0.086669,-0.030855,-0.0064247,0.017262,-0.016249,0.035093,0.011385,0.014163,-0.028918,-0.03716,-0.026774,-0.020226,0.098345,0.079311,-0.0072149,0.015029,0.001147,0.040998,0.1761,0.052155,0.056173,0.0035719,0.0061209
-0.012468,-0.074574,-0.031734,0.0011575,0.0095986,-0.0012756,0.034256,0.0162,0.0080413,-0.032595,-0.040179,-0.024892,-0.013968,0.090342,0.077327,-0.011786,0.018405,-0.015824,0.046871,0.14441,0.060379,0.051103,0.0054262,0.0016174
-0.008417,-0.061026,-0.031792,0.0078015,0.0071367,-0.00057506,0.039049,0.012724,0.0015643,-0.0304,-0.04644,-0.020649,-0.011393,0.080377,0.063935,-0.016025,0.019297,-0.033628,0.045613,0.097196,0.074278,0.034096,0.020114,-0.0025808
-0.0028791,-0.05279,-0.035129,0.010108,0.011249,-0.016997,0.040516,0.0042417,-0.0031478,-0.023192,-0.053812,-0.016303,-0.016889,0.069399,0.042099,-0.024944,0.016591,-0.039657,0.039771,0.057928,0.088577,0.0098343,0.036839,-0.0093385
-0.00099644,-0.047389,-0.042779,0.0077879,0.019706,-0.038781,0.032591,-0.0021264,-0.0053759,-0.013735,-0.059416,-0.012782,-0.027204,0.055442,0.021543,-0.042462,0.011271,-0.029872,0.035772,0.044839,0.097457,-0.01008,0.043698,-0.018747
-0.0064792,-0.036358,-0.04996,0.0035269,0.02896,-0.050267,0.017065,-0.0010143,-0.0050465,-0.0049824,-0.06093,-0.0095312,-0.034366,0.034712,0.0099322,-0.068899,0.0065298,-0.012735,0.037983,0.061937,0.09931,-0.015515,0.038237,-0.028423
-0.017721,-0.016296,-0.049009,0.00011745,0.036313,-0.045712,0.0015729,0.0071623,-0.0019017,0.00086844,-0.058013,-0.005786,-0.032304,0.0058819,0.006899,-0.10142,0.0055659,-0.0014295,0.044374,0.10091,0.099009,-0.0070378,0.028964,-0.035743
-0.028054,0.0043895,-0.036151,-0.0022889,0.040389,-0.033544,-0.0073692,0.017157,0.0039508,0.0027798,-0.052818,-0.0018654,-0.02128,-0.026667,0.0054996,-0.13647,0.0089302,-0.0014568,0.04834,0.15072,0.10461,0.0033443,0.026678,-0.039767
-0.030594,0.011262,-0.016166,-0.0059833,0.040452,-0.027591,-0.009855,0.023793,0.010685,0.0012093,-0.04875,0.00078872,-0.0067988,-0.054125,-0.0014816,-0.17151,0.013914,-0.0055141,0.045393,0.20551,0.12038,0.0021722,0.03417,-0.041236
-0.023705,-0.002568,-0.00016834,-0.012649,0.036122,-0.033964,-0.011878,0.026332,0.014678,-0.0019022,-0.047972,0.0008753,0.0051791,-0.068029,-0.016707,-0.20441,0.016662,-0.00083446,0.038309,0.26441,0.14214,-0.013078,0.044174,-0.041099
-0.012188,-0.028432,0.002366,-0.020538,0.028025,-0.045824,-0.019524,0.028492,0.012721,-0.0040032,-0.049635,-0.0014108,0.012091,-0.064187,-0.038564,-0.2315,0.015206,0.017729,0.035246,0.32494,0.15972,-0.030923,0.047184,-0.039325
-0.0030863,-0.048163,-0.0090797,-0.024971,0.018287,-0.050375,-0.033667,0.034344,0.0048834,-0.0033781,-0.050596,-0.0042587,0.014787,-0.042683,-0.064489,-0.2468,0.010786,0.041258,0.041888,0.37863,0.16515,-0.035809,0.041104,-0.035217
0.0001048,-0.049019,-0.025713,-0.022169,0.009668,-0.040943,-0.049802,0.044054,-0.0049217,-3.4225e-005,-0.048231,-0.0055887,0.014865,-0.0053993,-0.092723,-0.2442,0.0064624,0.053292,0.05474,0.41487,0.1597,-0.02239,0.03311,-0.028697
-0.0004428,-0.033452,-0.036583,-0.013059,0.0036741,-0.022786,-0.062601,0.053428,-0.011716,0.0047785,-0.042824,-0.0047904,0.012714,0.044904,-0.12072,-0.22136,0.0044221,0.043667,0.062316,0.43062,0.15335,-0.00092333,0.03201,-0.021016
-0.0001136,-0.014791,-0.037323,-0.0033962,-0.0005067,-0.0077828,-0.070552,0.057607,-0.013317,0.0099237,-0.037178,-0.0034054,0.008099,0.10218,-0.14317,-0.18234,0.0044,0.017341,0.054007,0.43637,0.1567,0.011472,0.038899,-0.013985
0.0029451,-0.0037775,-0.033159,0.00033099,-0.0049375,-0.0036858,-0.076475,0.055463,-0.011729,0.015265,-0.033729,-0.0041765,0.0019543,0.15447,-0.15362,-0.13673,0.0044193,-0.0094442,0.029298,0.4507,0.17219,0.0056856,0.045622,-0.0084593
0.0057506,0.0005517,-0.033757,-0.0040587,-0.010597,-0.0081084,-0.084002,0.050747,-0.010797,0.021284,-0.031969,-0.0091941,-0.0032803,0.18624,-0.14973,-0.095396,0.0029041,-0.021935,-0.00072387,0.48594,0.1923,-0.012047,0.042773,-0.0036521
0.003477,0.0072525,-0.044482,-0.01277,-0.01615,-0.0122,-0.093841,0.049062,-0.012492,0.027962,-0.028789,-0.01851,-0.0055785,0.18658,-0.13706,-0.065793,0.00016632,-0.017364,-0.02106,0.53603,0.2061,-0.026754,0.029404,0.001915
-0.005496,0.021924,-0.061606,-0.019246,-0.019237,-0.0095773,-0.1034,0.053443,-0.015458,0.034132,-0.021447,-0.030119,-0.0054266,0.15756,-0.12651,-0.04949,-0.0019069,-0.0047715,-0.023368,0.57771,0.20838,-0.02855,0.01472,0.0086909
-0.017406,0.039666,-0.075385,-0.019596,-0.019073,-0.0016887,-0.10971,0.062267,-0.017037,0.037921,-0.010238,-0.041143,-0.0054742,0.11465,-0.12621,-0.042959,-0.0013921,0.0043546,-0.010907,0.58551,0.20304,-0.020607,0.0097051,0.01531
-0.025912,0.049534,-0.078016,-0.015641,-0.017605,0.0049459,-0.11242,0.070938,-0.016436,0.037839,0.0017834,-0.049287,-0.0076168,0.076578,-0.13486,-0.040403,0.0024395,0.0055596,0.0055,0.54935,0.19836,-0.014485,0.016518,0.019646
-0.027241,0.04516,-0.069467,-0.012993,-0.017809,0.0059982,-0.11375,0.075491,-0.015598,0.033643,0.011604,-0.053654,-0.01038,0.051977,-0.14318,-0.036638,0.0091408,0.0030985,0.016305,0.48124,0.19879,-0.018305,0.02589,0.020862
-0.022982,0.029987,-0.056542,-0.015845,-0.020723,0.003526,-0.11591,0.075023,-0.016864,0.026501,0.018611,-0.054653,-0.009632,0.034289,-0.14317,-0.028734,0.017915,0.0038337,0.019426,0.4059,0.20101,-0.029603,0.025302,0.020597
-0.01819,0.011809,-0.046751,-0.022986,-0.02432,0.0032474,-0.11879,0.071352,-0.02001,0.018625,0.024083,-0.053328,-0.0024958,0.010317,-0.13658,-0.016334,0.028088,0.010172,0.019577,0.34315,0.19767,-0.03923,0.010451,0.022049
-0.016904,-0.0069601,-0.042937,-0.028502,-0.025658,0.0082507,-0.12053,0.06686,-0.021998,0.012659,0.028559,-0.050704,0.0091149,-0.024507,-0.1341,-0.0011552,0.038687,0.018528,0.022737,0.29621,0.18461,-0.041413,-0.010685,0.027529
-0.019298,-0.032111,-0.04308,-0.026629,-0.024312,0.015852,-0.1202,0.062714,-0.020086,0.01099,0.030248,-0.047532,0.019007,-0.058174,-0.14531,0.01397,0.047845,0.023576,0.031136,0.25391,0.16436,-0.039257,-0.025014,0.036429
-0.022734,-0.069747,-0.044244,-0.016671,-0.023488,0.020709,-0.11947,0.058736,-0.015297,0.015001,0.026653,-0.044404,0.021301,-0.069962,-0.1685,0.026345,0.053156,0.02309,0.042452,0.20339,0.14248,-0.040241,-0.025974,0.045317
-0.025031,-0.11567,-0.045798,-0.0038369,-0.027234,0.020678,-0.12105,0.054432,-0.012514,0.024445,0.018106,-0.041927,0.015125,-0.048444,-0.19064,0.034678,0.053146,0.01858,0.052545,0.14158,0.12068,-0.046913,-0.01877,0.050159
-0.026335,-0.15379,-0.048608,0.0047331,-0.036092,0.019086,-0.12522,0.04983,-0.016457,0.037138,0.0095003,-0.040587,0.0051176,-0.0039505,-0.19825,0.03981,0.048621,0.012071,0.058514,0.076438,0.094378,-0.053143,-0.014463,0.048943
-0.02781,-0.16668,-0.051842,0.0054156,-0.04542,0.020884,-0.12804,0.04539,-0.026916,0.049203,0.0077717,-0.040264,-0.0027039,0.036409,-0.18944,0.044479,0.042368,0.0034242,0.059762,0.018501,0.057967,-0.050519,-0.018798,0.04272
-0.028962,-0.14912,-0.05201,0.00057175,-0.048494,0.02668,-0.12354,0.041421,-0.037784,0.056055,0.016698,-0.03984,-0.0057951,0.048324,-0.1757,0.052264,0.037109,-0.0085897,0.057399,-0.028398,0.013207,-0.03857,-0.026641,0.034451
-0.026903,-0.11167,-0.046272,-0.0038474,-0.042073,0.031061,-0.10851,0.037877,-0.041372,0.054259,0.033442,-0.037521,-0.0062543,0.028814,-0.17156,0.066252,0.033447,-0.022979,0.05339,-0.069114,-0.027809,-0.027667,-0.02742,0.026867
-0.018835,-0.070934,-0.036755,-0.0033374,-0.029594,0.027463,-0.085957,0.034721,-0.034659,0.043748,0.050173,-0.032043,-0.0077726,-0.0012853,-0.18166,0.087917,0.029812,-0.035379,0.049955,-0.11091,-0.049294,-0.03028,-0.016271,0.021203
-0.005436,-0.035872,-0.03044,0.0017758,-0.018947,0.015022,-0.063955,0.032288,-0.022077,0.028978,0.059782,-0.02403,-0.012047,-0.012639,-0.19732,0.11635,0.024615,-0.041161,0.048435,-0.15522,-0.042992,-0.048338,3.8196e-005,0.017596
0.0084577,-0.003641,-0.033246,0.0072736,-0.016499,0.00047557,-0.050671,0.031041,-0.012176,0.017364,0.061106,-0.016247,-0.018478,0.011905,-0.20525,0.14799,0.018576,-0.039911,0.047519,-0.19451,-0.014011,-0.069502,0.0084342,0.016287
0.017107,0.031661,-0.043462,0.0091697,-0.022362,-0.0071724,-0.049376,0.030868,-0.010837,0.0149,0.059317,-0.012114,-0.02692,0.066838,-0.19993,0.17732,0.014753,-0.036298,0.042395,-0.21611,0.024244,-0.077274,0.0013279,0.018081
0.01841,0.06712,-0.051602,0.0072562,-0.030909,-0.0043081,-0.057068,0.030754,-0.016817,0.021573,0.061184,-0.013271,-0.039514,0.12989,-0.18787,0.19889,0.015939,-0.035769,0.026887,-0.20934,0.061423,-0.066136,-0.016301,0.023447
0.015587,0.089326,-0.048218,0.0050436,-0.035938,0.0047421,-0.067212,0.029361,-0.023354,0.030487,0.069212,-0.018121,-0.058504,0.17764,-0.18051,0.21013,0.021722,-0.039098,-0.001811,-0.1709,0.097103,-0.047113,-0.031357,0.031219
0.014328,0.085847,-0.033094,0.0064037,-0.035861,0.012659,-0.073903,0.026115,-0.024239,0.032415,0.079543,-0.022724,-0.081809,0.19862,-0.18332,0.21308,0.028079,-0.041484,-0.039311,-0.10669,0.13664,-0.037732,-0.034514,0.038475
0.017851,0.058809,-0.016862,0.01211,-0.03435,0.016385,-0.074291,0.021736,-0.018894,0.022975,0.085259,-0.023541,-0.10163,0.19631,-0.19178,0.21334,0.030162,-0.037499,-0.0751,-0.031112,0.18026,-0.045448,-0.028366,0.04216
0.024293,0.026289,-0.01257,0.019385,-0.036074,0.019151,-0.068353,0.017537,-0.012204,0.0066755,0.082141,-0.019809,-0.10929,0.18331,-0.19751,0.21625,0.025943,-0.027008,-0.098772,0.034944,0.21669,-0.060326,-0.024272,0.041286
0.028691,0.0085018,-0.024319,0.0247,-0.041662,0.025267,-0.057548,0.014029,-0.0096969,-0.0060415,0.072026,-0.013537,-0.10298,0.173,-0.19753,0.2228,0.017574,-0.015807,-0.10689,0.067852,0.22854,-0.064082,-0.031162,0.037767
0.027636,0.010845,-0.043325,0.027069,-0.046702,0.033531,-0.044193,0.010162,-0.0127,-0.0069407,0.061096,-0.0071039,-0.091271,0.17357,-0.19728,0.2283,0.0094053,-0.009993,-0.10469,0.047859,0.20568,-0.04687,-0.04709,0.034979
0.02228,0.019745,-0.055261,0.028761,-0.045815,0.036851,-0.031582,0.0041323,-0.017631,0.0031185,0.054879,-0.0005839,-0.087707,0.1855,-0.20441,0.22488,0.0045961,-0.0097085,-0.101,-0.033076,0.15436,-0.01602,-0.06146,0.035085
0.017027,0.015667,-0.052291,0.032794,-0.037931,0.029217,-0.023374,-0.004763,-0.019541,0.014284,0.054347,0.008768,-0.099995,0.20141,-0.22016,0.20605,0.0032998,-0.0089041,-0.10072,-0.1667,0.093538,0.010927,-0.065415,0.037317
0.01527,-0.0084971,-0.039035,0.039652,-0.02765,0.012921,-0.021579,-0.014876,-0.01632,0.014926,0.056192,0.024236,-0.12284,0.20854,-0.23698,0.1698,0.0035719,-0.0017286,-0.10155,-0.33133,0.041216,0.021336,-0.06017,0.038677
0.016251,-0.040596,-0.027506,0.04633,-0.021216,-0.0020933,-0.024653,-0.022909,-0.0099494,0.00033343,0.056438,0.04626,-0.14114,0.19461,-0.24504,0.11828,0.0035101,0.010826,-0.097786,-0.50151,0.0024783,0.016278,-0.055451,0.036455
0.01596,-0.060057,-0.026315,0.048686,-0.020846,-0.0070773,-0.028073,-0.026269,-0.0043231,-0.023762,0.053811,0.070602,-0.14145,0.15572,-0.24085,0.054958,0.0022739,0.021023,-0.087508,-0.65873,-0.030794,0.0059669,-0.060021,0.030447
0.011139,-0.056039,-0.034206,0.045019,-0.02289,-0.0029799,-0.027685,-0.025174,-0.0020987,-0.045253,0.050001,0.089645,-0.12243,0.10123,-0.22974,-0.017836,-0.0007059,0.021527,-0.076218,-0.79603,-0.069497,-0.0016644,-0.073773,0.023023
0.002605,-0.036147,-0.043143,0.037693,-0.021682,0.00032727,-0.023051,-0.022675,-0.0032573,-0.053882,0.047266,0.096184,-0.095321,0.050474,-0.21992,-0.0988,-0.0067828,0.012615,-0.073303,-0.91388,-0.11637,-0.0071392,-0.088794,0.017084
-0.005193,-0.018385,-0.046851,0.031371,-0.015397,-0.0059985,-0.017411,-0.022447,-0.005898,-0.047559,0.046189,0.087426,-0.074299,0.021183,-0.21411,-0.18518,-0.017543,0.0021213,-0.084257,-1.0117,-0.1642,-0.015359,-0.097643,0.013657
-0.0079025,-0.01489,-0.046057,0.029362,-0.0081473,-0.020336,-0.014006,-0.026225,-0.0078325,-0.032714,0.045768,0.066702,-0.064937,0.017334,-0.20735,-0.27018,-0.032746,-0.0020319,-0.10559,-1.0819,-0.2036,-0.027613,-0.10016,0.011037
-0.004811,-0.023022,-0.045802,0.031177,-0.0061094,-0.031465,-0.012301,-0.033029,-0.0075354,-0.019271,0.045234,0.041809,-0.060745,0.026051,-0.19302,-0.34268,-0.048973,0.00063513,-0.12705,-1.1121,-0.23198,-0.039361,-0.10227,0.0059368
0.00089074,-0.031266,-0.048557,0.033256,-0.01132,-0.029535,-0.0081961,-0.040695,-0.0043581,-0.014281,0.045197,0.020866,-0.050537,0.027333,-0.17124,-0.39002,-0.061011,0.003107,-0.13924,-1.0927,-0.25518,-0.045942,-0.10883,-0.0044924
0.0050553,-0.032603,-0.050887,0.032133,-0.019165,-0.016625,0.0016138,-0.048035,0.0012667,-0.01845,0.046736,0.0081469,-0.030034,0.0096988,-0.15105,-0.40269,-0.065414,-0.0016005,-0.14036,-1.0242,-0.28069,-0.04884,-0.11841,-0.021266
0.0058015,-0.031241,-0.047336,0.027329,-0.022151,-0.0062062,0.015286,-0.055519,0.0074649,-0.027208,0.049565,0.0024226,-0.0075133,-0.020905,-0.1438,-0.37858,-0.063199,-0.012923,-0.13643,-0.91978,-0.30978,-0.05439,-0.12537,-0.043418
0.0041962,-0.036074,-0.037372,0.021624,-0.016584,-0.01131,0.02606,-0.064012,0.011182,-0.034825,0.051587,-0.0011387,0.001569,-0.046525,-0.15331,-0.32464,-0.059002,-0.022964,-0.13552,-0.79843,-0.33566,-0.065624,-0.12644,-0.068645
0.0022893,-0.048157,-0.027762,0.018572,-0.0059901,-0.032225,0.027328,-0.073169,0.009689,-0.038424,0.050641,-0.0068236,-0.013371,-0.052495,-0.17196,-0.25477,-0.057134,-0.024488,-0.14111,-0.67617,-0.34912,-0.07643,-0.12429,-0.094104
0.00085833,-0.055694,-0.027216,0.019392,0.001876,-0.055405,0.018048,-0.081381,0.0026064,-0.039317,0.046738,-0.014903,-0.04926,-0.039495,-0.1863,-0.18456,-0.058016,-0.018775,-0.15029,-0.55901,-0.34544,-0.075774,-0.12419,-0.1172
-0.00091952,-0.042509,-0.038046,0.021791,0.0017097,-0.064938,0.0036358,-0.087346,-0.007269,-0.041205,0.042353,-0.021411,-0.090935,-0.022203,-0.18736,-0.12514,-0.058324,-0.015181,-0.15733,-0.44309,-0.3267,-0.059176,-0.12757,-0.13649
-0.0039575,-0.0024376,-0.053046,0.021631,-0.0049352,-0.056231,-0.0082945,-0.091393,-0.015417,-0.046967,0.040238,-0.021447,-0.12148,-0.016334,-0.17683,-0.079545,-0.054788,-0.022237,-0.15878,-0.32135,-0.29814,-0.035999,-0.1302,-0.15228
-0.0078803,0.05399,-0.06101,0.016075,-0.011276,-0.039564,-0.013256,-0.094898,-0.01844,-0.056594,0.040833,-0.013583,-0.13278,-0.026035,-0.16411,-0.043816,-0.048059,-0.038591,-0.15518,-0.19231,-0.26372,-0.023841,-0.12737,-0.16629
-0.011311,0.10696,-0.056084,0.0057197,-0.011301,-0.030534,-0.011651,-0.098324,-0.01609,-0.067717,0.041812,-0.0020157,-0.12835,-0.042567,-0.15778,-0.012367,-0.042817,-0.052796,-0.1484,-0.064937,-0.22543,-0.033651,-0.12065,-0.1801
-0.013297,0.14197,-0.042331,-0.005865,-0.0047922,-0.036362,-0.0061776,-0.10018,-0.010897,-0.077973,0.040207,0.005325,-0.11743,-0.054415,-0.15933,0.016012,-0.043778,-0.052827,-0.13813,0.043984,-0.18628,-0.058991,-0.1182,-0.19341
-0.014074,0.15849,-0.029394,-0.014662,0.0028172,-0.050381,0.0017931,-0.098402,-0.0059206,-0.086945,0.03502,0.0014268,-0.1066,-0.058669,-0.16407,0.035909,-0.051152,-0.036943,-0.12146,0.11864,-0.15252,-0.080231,-0.12713,-0.20369
-0.014232,0.16564,-0.023531,-0.018776,0.0052564,-0.059054,0.013073,-0.092877,-0.0026629,-0.095923,0.027861,-0.015745,-0.09623,-0.063331,-0.16692,0.038502,-0.059835,-0.015975,-0.096674,0.15346,-0.13126,-0.08091,-0.14506,-0.20791
-0.01334,0.17051,-0.022472,-0.019209,0.00051216,-0.05432,0.028318,-0.086434,-0.00079074,-0.10586,0.021255,-0.042611,-0.083393,-0.0794,-0.16651,0.017636,-0.063335,-0.0047747,-0.067224,0.1564,-0.12481,-0.061916,-0.16014,-0.20491
-0.0098497,0.17083,-0.01862,-0.018574,-0.0080458,-0.03975,0.045523,-0.082782,0.00051758,-0.11567,0.016462,-0.07287,-0.067178,-0.11093,-0.16403,-0.026203,-0.059163,-0.010397,-0.041594,0.14381,-0.12739,-0.040504,-0.16071,-0.19625
-0.0027304,0.15877,-0.0070239,-0.019033,-0.014983,-0.025607,0.060483,-0.083289,0.0012115,-0.12263,0.012935,-0.10135,-0.050476,-0.15197,-0.15912,-0.087121,-0.051019,-0.027279,-0.028188,0.1306,-0.128,-0.034821,-0.14602,-0.18466
0.0067509,0.13124,0.009752,-0.021037,-0.017209,-0.018671,0.070098,-0.085833,0.00034577,-0.12437,0.0095953,-0.12577,-0.036958,-0.1916,-0.14846,-0.15856,-0.045902,-0.043148,-0.029294,0.12258,-0.11791,-0.047905,-0.12744,-0.17161
0.015116,0.095982,0.024279,-0.023547,-0.015588,-0.017169,0.075242,-0.087032,-0.0027521,-0.12033,0.0063069,-0.14538,-0.026969,-0.22111,-0.12925,-0.23655,-0.048605,-0.049762,-0.039431,0.11637,-0.096632,-0.065621,-0.11842,-0.15662
0.018878,0.06715,0.03133,-0.025239,-0.012869,-0.01525,0.080053,-0.085687,-0.0074555,-0.11113,0.0039692,-0.15829,-0.016993,-0.23672,-0.10371,-0.3177,-0.058239,-0.048934,-0.049767,0.10589,-0.071405,-0.070086,-0.12221,-0.13899
0.016915,0.054523,0.032142,-0.025671,-0.010495,-0.011349,0.087947,-0.083861,-0.012047,-0.096854,0.0033605,-0.16045,-0.0033643,-0.23766,-0.079311,-0.39366,-0.069478,-0.049286,-0.054915,0.089433,-0.051059,-0.055909,-0.12905,-0.12018
0.010838,0.056424,0.031961,-0.025684,-0.0076131,-0.010879,0.097991,-0.084374,-0.014968,-0.076573,0.0042517,-0.14789,0.013646,-0.22438,-0.063253,-0.44793,-0.077159,-0.057789,-0.05636,0.071554,-0.039682,-0.034228,-0.12561,-0.10387
0.0031625,0.062698,0.034003,-0.026942,-0.0029748,-0.019998,0.1052,-0.087158,-0.015884,-0.050483,0.0059043,-0.12075,0.029664,-0.20024,-0.056233,-0.46019,-0.080176,-0.074112,-0.059891,0.058736,-0.035214,-0.021338,-0.10778,-0.093162
-0.0046863,0.064225,0.036507,-0.030941,0.0026482,-0.037138,0.10473,-0.088274,-0.01557,-0.022707,0.0083542,-0.085719,0.040288,-0.17416,-0.051791,-0.4171,-0.081543,-0.092134,-0.069802,0.053486,-0.033091,-0.023245,-0.084681,-0.087273
-0.012483,0.059672,0.035957,-0.03801,0.0063935,-0.052022,0.09613,-0.082922,-0.014808,-0.0012766,0.012793,-0.054042,0.045448,-0.15913,-0.04231,-0.32239,-0.084982,-0.10581,-0.085218,0.052401,-0.030748,-0.030966,-0.070179,-0.08126
-0.019607,0.053692,0.032633,-0.046857,0.0058529,-0.054423,0.083733,-0.069815,-0.013476,0.0062625,0.020169,-0.035586,0.049872,-0.16494,-0.026137,-0.19802,-0.091252,-0.11309,-0.10145,0.04979,-0.028835,-0.030616,-0.069995,-0.069737
-0.024033,0.049786,0.031847,-0.055004,0.0015992,-0.044286,0.072672,-0.052824,-0.010808,-0.00099504,0.029148,-0.032881,0.059381,-0.19059,-0.0090323,-0.074428,-0.097263,-0.1147,-0.11442,0.043393,-0.02884,-0.017798,-0.076666,-0.051517
-0.023699,0.046079,0.03875,-0.060037,-0.0030582,-0.032442,0.064428,-0.038203,-0.0065846,-0.014706,0.035715,-0.039609,0.076846,-0.22366,0.0013026,0.024177,-0.098313,-0.11035,-0.12373,0.037162,-0.030325,-0.0018868,-0.076911,-0.030904
-0.019225,0.038351,0.051875,-0.060989,-0.0050221,-0.030084,0.056157,-0.02979,-0.0019769,-0.021611,0.035508,-0.045146,0.10168,-0.24826,0.0020902,0.089803,-0.091189,-0.097586,-0.13161,0.039063,-0.030823,0.0039044,-0.064176,-0.014178
-0.014823,0.026232,0.062748,-0.058905,-0.0041597,-0.036911,0.044481,-0.026424,0.0010175,-0.012718,0.027316,-0.042091,0.13283,-0.25519,-0.0029505,0.12992,-0.075648,-0.075043,-0.13961,0.056106,-0.028265,-0.003519,-0.044452,-0.0042714
-0.015432,0.014841,0.063158,-0.056132,-0.003111,-0.040203,0.030018,-0.023736,0.0012231,0.0094243,0.014595,-0.031278,0.17128,-0.24532,-0.0084586,0.158,-0.053745,-0.046317,-0.14651,0.09055,-0.023164,-0.013355,-0.030147,0.0014996
-0.021988,0.0094014,0.053414,-0.05482,-0.0044037,-0.026873,0.018068,-0.01844,-0.00050662,0.031622,0.0031794,-0.020509,0.2185,-0.22412,-0.013309,0.18302,-0.02846,-0.019412,-0.14936,0.13928,-0.018238,-0.011255,-0.028222,0.0085646
-0.02939,0.0087033,0.043036,-0.055767,-0.0078411,0.0024483,0.014482,-0.011141,-0.0018158,0.039348,-0.0032269,-0.018139,0.27186,-0.19378,-0.021283,0.20509,-0.0030845,-0.0010854,-0.14607,0.19538,-0.015991,0.0064444,-0.033898,0.01983
-0.029976,0.0053809,0.042295,-0.058413,-0.010759,0.031157,0.020395,-0.0052686,-0.00080229,0.027772,-0.00589,-0.026576,0.32181,-0.15201,-0.035909,0.21849,0.018704,0.0087137,-0.13658,0.24988,-0.01685,0.028775,-0.035548,0.033015
-0.020245,-0.0061266,0.052419,-0.061713,-0.010736,0.039377,0.030679,-0.0035122,0.0023424,0.0057985,-0.0095332,-0.040581,0.35536,-0.099324,-0.055045,0.21803,0.033326,0.016289,-0.12192,0.29297,-0.019638,0.040476,-0.025632,0.043062
-0.0048918,-0.022017,0.064232,-0.064923,-0.0078933,0.020607,0.037566,-0.0053697,0.0055644,-0.010264,-0.017695,-0.051161,0.36433,-0.047163,-0.071098,0.20315,0.038895,0.027257,-0.1028,0.31562,-0.023578,0.036475,-0.0071536,0.047181
0.0060554,-0.030877,0.067054,-0.067587,-0.0045174,-0.012696,0.036194,-0.0080599,0.0068764,-0.0083876,-0.029161,-0.051429,0.35176,-0.01675,-0.077036,0.17745,0.036759,0.039776,-0.079747,0.31232,-0.029416,0.02637,0.01008,0.047574
0.0052035,-0.024559,0.059334,-0.06904,-0.0026546,-0.039475,0.027307,-0.009563,0.0061962,0.011574,-0.038782,-0.039765,0.33036,-0.026705,-0.072323,0.14559,0.031178,0.045218,-0.054679,0.2837,-0.038377,0.024652,0.019173,0.049246
-0.0058202,-0.0079462,0.050299,-0.068326,-0.0023516,-0.046721,0.0153,-0.010409,0.0053999,0.039997,-0.041946,-0.018592,0.31339,-0.0787,-0.062982,0.11096,0.026744,0.036649,-0.031331,0.23654,-0.050261,0.036303,0.022176,0.05516
-0.017271,0.0029521,0.050642,-0.064905,-0.0022834,-0.037673,0.0041228,-0.012213,0.006599,0.066362,-0.038627,0.0089436,0.30538,-0.1539,-0.055854,0.075762,0.025444,0.017371,-0.013215,0.18016,-0.063179,0.051733,0.026874,0.06356
-0.018975,-0.0055868,0.061345,-0.059491,-0.0017551,-0.025573,-0.0049964,-0.014506,0.01029,0.086446,-0.033431,0.040731,0.30025,-0.22449,-0.052943,0.042479,0.025836,0.00067159,-0.00056994,0.12135,-0.075775,0.055818,0.038017,0.070037
-0.0083867,-0.031893,0.072014,-0.053937,-0.0015734,-0.0205,-0.012531,-0.01352,0.015026,0.10205,-0.031849,0.074452,0.28772,-0.27171,-0.051426,0.014547,0.025031,-0.00032449,0.010461,0.061493,-0.089801,0.042349,0.052002,0.072111
0.0076427,-0.05877,0.070748,-0.04993,-0.0026994,-0.022105,-0.018427,-0.0049463,0.018721,0.11536,-0.036223,0.10534,0.26153,-0.29594,-0.048847,-0.0049384,0.021567,0.01573,0.025006,-0.0016377,-0.10982,0.020334,0.060297,0.071595
0.018575,-0.067518,0.05593,-0.04758,-0.0043115,-0.023675,-0.021604,0.011376,0.020222,0.12511,-0.044745,0.12622,0.22195,-0.31159,-0.047521,-0.015376,0.016462,0.035946,0.045209,-0.069053,-0.13913,0.0065664,0.058161,0.072347
0.018274,-0.054033,0.037997,-0.045304,-0.0038278,-0.021332,-0.021697,0.029378,0.019755,0.12883,-0.053634,0.13085,0.17135,-0.33257,-0.05292,-0.019611,0.011658,0.042774,0.068515,-0.1368,-0.1751,0.01159,0.049911,0.075783
0.0088669,-0.032428,0.029153,-0.041303,0.00061515,-0.017986,-0.02065,0.040028,0.018167,0.12821,-0.059921,0.11838,0.10956,-0.3617,-0.067256,-0.022539,0.0076508,0.027745,0.090236,-0.19656,-0.20837,0.031662,0.045482,0.078903
-0.0021218,-0.022658,0.031168,-0.035346,0.0076226,-0.01858,-0.021768,0.037891,0.016058,0.13103,-0.062473,0.095166,0.035299,-0.39205,-0.084968,-0.0281,0.0029376,-0.0022881,0.10803,-0.24013,-0.22786,0.053005,0.051565,0.07709
-0.0080784,-0.033088,0.033618,-0.029163,0.012866,-0.022969,-0.026687,0.025468,0.01377,0.14644,-0.06131,0.072072,-0.046902,-0.41691,-0.095612,-0.036701,-0.0040729,-0.031416,0.124,-0.26421,-0.22817,0.063358,0.065864,0.068962
-0.0075645,-0.053558,0.02463,-0.024985,0.012531,-0.025089,-0.03337,0.011269,0.012014,0.17831,-0.056959,0.05899,-0.1226,-0.43701,-0.092532,-0.044779,-0.012626,-0.047452,0.1423,-0.27177,-0.21329,0.060235,0.079806,0.058278
-0.0037318,-0.064963,0.0034839,-0.023544,0.0068783,-0.019679,-0.037617,0.0028967,0.012078,0.22294,-0.05088,0.06034,-0.17322,-0.45809,-0.079526,-0.046786,-0.019285,-0.050009,0.16448,-0.26954,-0.19334,0.049782,0.086702,0.050643
-0.00065064,-0.05647,-0.017714,-0.023343,0.00045632,-0.0090905,-0.037095,0.00093778,0.014991,0.27329,-0.046,0.074316,-0.18907,-0.48165,-0.068718,-0.038336,-0.020301,-0.047653,0.18678,-0.26376,-0.17695,0.039361,0.087327,0.048091
-0.00037674,-0.034802,-0.025337,-0.021892,-0.0015271,-0.0022233,-0.034083,-0.0010727,0.020294,0.32428,-0.045779,0.095627,-0.17835,-0.49888,-0.070573,-0.018665,-0.014591,-0.048071,0.20221,-0.25761,-0.16575,0.031719,0.087923,0.047001
-0.0027698,-0.017514,-0.017499,-0.017827,0.0024784,-0.005941,-0.033967,-0.010577,0.02577,0.373,-0.051791,0.11905,-0.16226,-0.49415,-0.084421,0.0088575,-0.0045815,-0.050997,0.20535,-0.25118,-0.15527,0.025246,0.093429,0.041752
-0.0068921,-0.016918,-0.0060109,-0.012106,0.0092256,-0.017661,-0.040582,-0.029088,0.028813,0.41363,-0.061808,0.1412,-0.15864,-0.45473,-0.097985,0.038317,0.0057946,-0.049978,0.19578,-0.24268,-0.14081,0.017959,0.10318,0.030806
-0.011703,-0.029599,-0.0048825,-0.0073329,0.01368,-0.02713,-0.052661,-0.050336,0.028499,0.43393,-0.070453,0.15994,-0.16764,-0.37801,-0.096814,0.063971,0.013977,-0.040158,0.17714,-0.22905,-0.12245,0.0098538,0.11304,0.019188
-0.015508,-0.040903,-0.016606,-0.0058104,0.013398,-0.026137,-0.064909,-0.064776,0.026628,0.41956,-0.072348,0.17321,-0.1724,-0.27041,-0.075929,0.082713,0.01986,-0.023723,0.15323,-0.20564,-0.1049,0.001581,0.12089,0.014523
-0.015773,-0.039611,-0.029799,-0.0078733,0.010362,-0.016591,-0.072877,-0.066332,0.026682,0.36467,-0.065421,0.17902,-0.1548,-0.14133,-0.043946,0.095129,0.024378,-0.0077426,0.12511,-0.16671,-0.092878,-0.0076545,0.12883,0.020018
-0.010712,-0.028682,-0.030629,-0.011676,0.0088335,-0.0086492,-0.077171,-0.055691,0.031378,0.27966,-0.051904,0.17679,-0.11261,0.00019629,-0.016442,0.10482,0.027468,0.0027997,0.092096,-0.10802,-0.087035,-0.019259,0.13969,0.030941
-0.0016357,-0.022019,-0.016836,-0.014495,0.01136,-0.010498,-0.083003,-0.038028,0.040691,0.18772,-0.036542,0.16853,-0.062828,0.1422,-0.004387,0.1165,0.027847,0.0092274,0.055586,-0.03015,-0.084092,-0.031945,0.15211,0.038092
0.0067317,-0.030761,-0.00061175,-0.014554,0.016537,-0.019899,-0.09537,-0.018011,0.051763,0.11156,-0.023689,0.15805,-0.028521,0.26511,-0.0071647,0.13378,0.024962,0.016318,0.021318,0.060209,-0.080456,-0.04042,0.16036,0.035315
0.0093547,-0.052513,0.0024533,-0.012084,0.020302,-0.026026,-0.11421,0.0031743,0.060637,0.060548,-0.015379,0.14832,-0.020991,0.34404,-0.015194,0.15785,0.020968,0.025792,-0.0029274,0.15319,-0.075173,-0.039253,0.16003,0.024292
0.0052897,-0.073747,-0.012394,-0.0089003,0.019361,-0.019912,-0.13394,0.026662,0.06442,0.028405,-0.011152,0.13919,-0.032715,0.36072,-0.018772,0.18712,0.02022,0.03362,-0.012816,0.24091,-0.069289,-0.029354,0.15375,0.012475
-0.00078479,-0.082628,-0.03528,-0.0068122,0.013671,-0.0031826,-0.14779,0.052647,0.062495,0.0020805,-0.008967,0.12763,-0.046118,0.31671,-0.015202,0.21805,0.026164,0.034591,-0.011133,0.32072,-0.06292,-0.02035,0.14997,0.0063814
-0.0020436,-0.079468,-0.051622,-0.0060569,0.0061327,0.013562,-0.15291,0.078767,0.056344,-0.027205,-0.0062025,0.11083,-0.048998,0.23571,-0.0089348,0.24628,0.038308,0.029485,-0.0058175,0.39386,-0.053811,-0.024742,0.15489,0.006534
0.0044914,-0.074723,-0.05579,-0.0050606,0.00020791,0.020904,-0.15187,0.10173,0.048495,-0.060514,-0.00043005,0.089426,-0.042587,0.15043,-0.0061625,0.26777,0.052303,0.02661,-0.0036503,0.46137,-0.039439,-0.04743,0.16506,0.0083499
0.014721,-0.07705,-0.055368,-0.0018951,-0.0022258,0.018996,-0.14939,0.12032,0.041306,-0.096496,0.0097633,0.068096,-0.036459,0.08302,-0.0096036,0.27942,0.063445,0.034735,-0.0052129,0.52221,-0.02054,-0.079693,0.16868,0.0074007
0.020266,-0.083795,-0.062371,0.0036019,-0.0012109,0.015833,-0.14774,0.13659,0.036016,-0.13773,0.023839,0.052625,-0.037049,0.034734,-0.017709,0.27931,0.070615,0.053638,-0.0058431,0.57575,-0.0019524,-0.10402,0.15581,0.0035573
0.015256,-0.083669,-0.080419,0.0088542,0.0023452,0.017682,-0.14517,0.15395,0.032287,-0.19003,0.038847,0.045729,-0.041455,-0.0066868,-0.027596,0.2667,0.07696,0.072124,-0.0016876,0.62561,0.01081,-0.10697,0.12842,0.00018068
0.0013745,-0.068915,-0.10035,0.0098676,0.0074901,0.022118,-0.13863,0.17392,0.028521,-0.25485,0.050212,0.045024,-0.041639,-0.04881,-0.037842,0.24215,0.086488,0.076855,0.0050252,0.67905,0.016349,-0.089487,0.10028,-0.00023807
-0.01322,-0.044659,-0.10824,0.0041948,0.012894,0.021374,-0.12786,0.19458,0.023092,-0.3229,0.05384,0.04475,-0.03355,-0.082057,-0.048482,0.20786,0.099549,0.064507,0.0067215,0.74002,0.018815,-0.065643,0.085897,0.0008447
-0.02019,-0.025816,-0.097933,-0.0066327,0.016151,0.012653,-0.11642,0.21166,0.015923,-0.37658,0.048492,0.039764,-0.021617,-0.084243,-0.059181,0.16785,0.11139,0.04551,-0.0034046,0.80137,0.024279,-0.050575,0.088016,-0.00058788
-0.017196,-0.024222,-0.076443,-0.017279,0.014291,0.0040517,-0.10854,0.22122,0.0091404,-0.40065,0.036868,0.02856,-0.01466,-0.038076,-0.068392,0.12756,0.11536,0.034965,-0.025863,0.84499,0.035311,-0.04806,0.095351,-0.0068429
-0.0089876,-0.038224,-0.057785,-0.021615,0.0059065,0.0085972,-0.10475,0.22126,0.0058094,-0.39248,0.024434,0.013148,-0.018127,0.053986,-0.074726,0.09259,0.108,0.038721,-0.055304,0.85288,0.048915,-0.048754,0.092876,-0.01586
-0.0029389,-0.054523,-0.051602,-0.016601,-0.006729,0.03111,-0.10093,0.21155,0.0072766,-0.36352,0.016518,-0.0035831,-0.030458,0.17043,-0.078765,0.066913,0.091771,0.047823,-0.086267,0.82218,0.059715,-0.040389,0.075403,-0.0229
-0.0031527,-0.060202,-0.056913,-0.0042817,-0.017923,0.060905,-0.091884,0.19245,0.011243,-0.33103,0.015467,-0.020369,-0.046098,0.28588,-0.082767,0.051642,0.073118,0.046886,-0.11815,0.7714,0.065148,-0.020147,0.051899,-0.024873
-0.0078955,-0.053493,-0.065507,0.0095212,-0.021914,0.078802,-0.076146,0.16457,0.012634,-0.30675,0.019751,-0.037743,-0.060447,0.38732,-0.088018,0.045005,0.057882,0.028523,-0.15415,0.73055,0.067547,0.002705,0.036771,-0.023036
-0.011824,-0.043704,-0.070269,0.018861,-0.017097,0.073296,-0.057318,0.12965,0.0071647,-0.2907,0.025567,-0.056038,-0.070757,0.47771,-0.092516,0.043669,0.048123,-2.0496e-005,-0.19512,0.72108,0.071336,0.016543,0.036649,-0.021527
-0.010466,-0.041462,-0.070115,0.021071,-0.0075733,0.05112,-0.040522,0.09136,-0.0051281,-0.2735,0.029646,-0.073439,-0.072696,0.56528,-0.091914,0.044598,0.042572,-0.024231,-0.23509,0.74031,0.078565,0.01999,0.04519,-0.023311
-0.0031904,-0.049138,-0.067897,0.01772,-0.00024365,0.031777,-0.027522,0.054675,-0.019594,-0.24397,0.031052,-0.086272,-0.058275,0.64902,-0.08357,0.046302,0.039351,-0.036109,-0.26361,0.76297,0.087581,0.024693,0.050273,-0.027465
0.0071082,-0.060039,-0.06515,0.012843,0.0005392,0.030336,-0.015404,0.023651,-0.03057,-0.19612,0.030671,-0.091661,-0.019898,0.71361,-0.070048,0.048808,0.037807,-0.040602,-0.27362,0.75875,0.095983,0.044793,0.045848,-0.030209
0.01643,-0.065731,-0.060111,0.010063,-0.0036377,0.04408,-0.00017412,-0.00067155,-0.035962,-0.13134,0.029212,-0.090506,0.041967,0.73833,-0.058204,0.05254,0.037909,-0.048547,-0.2676,0.7125,0.1043,0.08268,0.036564,-0.028486
0.021894,-0.063461,-0.051026,0.010653,-0.0068433,0.055543,0.018304,-0.020393,-0.038657,-0.0556,0.025911,-0.088287,0.11575,0.71228,-0.053673,0.05704,0.038634,-0.063725,-0.25585,0.63199,0.11591,0.12477,0.031123,-0.022694
0.022534,-0.056811,-0.040443,0.013527,-0.0041647,0.049388,0.03505,-0.038573,-0.043246,0.025176,0.019424,-0.092782,0.18574,0.64324,-0.055175,0.060528,0.037775,-0.077531,-0.24838,0.53881,0.13297,0.15198,0.031942,-0.016277
0.019117,-0.050383,-0.03481,0.016618,0.0037884,0.027565,0.043872,-0.056429,-0.050884,0.1075,0.01007,-0.11009,0.24449,0.55354,-0.054065,0.060645,0.033693,-0.07696,-0.24789,0.45137,0.15261,0.15552,0.032256,-0.012855
0.013831,-0.045071,-0.038803,0.018379,0.011232,0.0084955,0.042936,-0.072272,-0.057123,0.18862,0.00096412,-0.14145,0.29918,0.4667,-0.040637,0.055756,0.026989,-0.058079,-0.25019,0.37445,0.16791,0.14378,0.02374,-0.013505
0.0098318,-0.038808,-0.049924,0.018495,0.012142,0.010742,0.03688,-0.083102,-0.055108,0.26215,-0.0036515,-0.18258,0.36421,0.39527,-0.012777,0.045657,0.019919,-0.031494,-0.25108,0.30229,0.17336,0.13409,0.0064352,-0.016256
0.0099757,-0.031059,-0.059482,0.017705,0.0054206,0.036065,0.033542,-0.087485,-0.041617,0.31567,-0.001828,-0.22563,0.44506,0.33744,0.020122,0.030982,0.013895,-0.014198,-0.2524,0.23029,0.16964,0.1375,-0.0099543,-0.017766
0.014812,-0.025251,-0.060007,0.017146,-0.0042059,0.067371,0.038247,-0.087195,-0.020685,0.33395,0.0039757,-0.26213,0.52775,0.28243,0.041864,0.011794,0.0077852,-0.015428,-0.26093,0.16346,0.16286,0.15045,-0.015464,-0.015632
0.021373,-0.025887,-0.052341,0.017643,-0.010206,0.083316,0.050499,-0.086127,-0.0014921,0.30748,0.008344,-0.28522,0.58528,0.21819,0.039828,-0.013295,-0.00085697,-0.029682,-0.28123,0.11386,0.15896,0.15998,-0.010603,-0.0097755
0.024505,-0.033341,-0.045279,0.019236,-0.0094792,0.076106,0.065458,-0.087423,0.0077896,0.24052,0.0070968,-0.2905,0.59739,0.13659,0.013308,-0.046339,-0.012659,-0.042864,-0.30958,0.089926,0.15842,0.15607,-0.0069727,-0.0024203
0.020586,-0.042281,-0.047509,0.021133,-0.0043219,0.056569,0.078215,-0.091297,0.0051398,0.15204,0.00083007,-0.27598,0.56727,0.035627,-0.026534,-0.087892,-0.024763,-0.044982,-0.33509,0.087865,0.15654,0.13902,-0.016162,0.0030242
0.010897,-0.046027,-0.059324,0.022207,0.00017614,0.042775,0.086862,-0.095419,-0.0050696,0.067042,-0.0052198,-0.2421,0.52011,-0.078636,-0.064909,-0.135,-0.032817,-0.037433,-0.34691,0.092823,0.1488,0.11573,-0.0375,0.0035881
0.0013886,-0.042728,-0.072257,0.021815,0.00053645,0.04357,0.092098,-0.097429,-0.016234,0.003572,-0.0050103,-0.19235,0.48391,-0.19054,-0.093271,-0.18093,-0.0351,-0.029059,-0.34112,0.088799,0.13598,0.090331,-0.057172,-0.0016917
-0.0016775,-0.036941,-0.077288,0.020342,-0.0028097,0.052137,0.094744,-0.09734,-0.024175,-0.035779,0.003721,-0.13382,0.46869,-0.27743,-0.11332,-0.2171,-0.034725,-0.026237,-0.32132,0.06872,0.12382,0.059773,-0.060503,-0.010964
0.0030622,-0.034645,-0.073731,0.018958,-0.0068143,0.054348,0.09426,-0.0978,-0.028806,-0.06194,0.017512,-0.076534,0.46189,-0.31935,-0.13269,-0.23603,-0.037438,-0.027187,-0.29395,0.036745,0.11765,0.019192,-0.046115,-0.020201
0.01062,-0.036617,-0.06988,0.018669,-0.0088399,0.042724,0.089858,-0.10213,-0.03257,-0.089093,0.029087,-0.030982,0.44347,-0.31209,-0.15657,-0.23386,-0.046737,-0.025464,-0.26355,0.0021324,0.11713,-0.028746,-0.028206,-0.025335
0.0136,-0.037135,-0.074504,0.019441,-0.0084812,0.022632,0.082722,-0.1119,-0.038031,-0.12416,0.031571,-0.0047361,0.40617,-0.27377,-0.18233,-0.21129,-0.060759,-0.018023,-0.23208,-0.029056,0.11637,-0.070748,-0.024261,-0.024826
0.0083725,-0.029755,-0.087528,0.020178,-0.0070219,0.0059914,0.07653,-0.12601,-0.046811,-0.16358,0.022237,-3.746e-005,0.3623,-0.23763,-0.2012,-0.17295,-0.07381,-0.009056,-0.20077,-0.0575,0.10929,-0.090625,-0.039498,-0.020887
-0.0019245,-0.014536,-0.099437,0.01965,-0.0057899,-7.6621e-005,0.075154,-0.1416,-0.059788,-0.19845,0.0037601,-0.013925,0.33122,-0.23421,-0.20488,-0.12571,-0.08102,-0.0055977,-0.17051,-0.087868,0.095197,-0.081946,-0.062585,-0.018201
-0.010259,0.00080519,-0.10044,0.017538,-0.0052897,0.0015848,0.079467,-0.15576,-0.077035,-0.22279,-0.017391,-0.040609,0.31952,-0.2755,-0.19155,-0.076489,-0.08176,-0.0094307,-0.13935,-0.12393,0.079121,-0.054691,-0.076457,-0.020713
-0.011835,0.0074814,-0.090491,0.014677,-0.0055543,0.0030185,0.08634,-0.16645,-0.096739,-0.23811,-0.03437,-0.074205,0.31246,-0.35284,-0.16701,-0.030614,-0.07892,-0.013653,-0.10068,-0.16643,0.066777,-0.029765,-0.073777,-0.028654
-0.0079266,0.0037102,-0.080027,0.012288,-0.006625,-0.00036906,0.091049,-0.17227,-0.11433,-0.2513,-0.043447,-0.10998,0.28472,-0.44857,-0.14093,0.0089573,-0.075368,-0.0078079,-0.046629,-0.2144,0.058877,-0.025413,-0.062564,-0.038072
-0.0040726,-0.0037386,-0.080221,0.010902,-0.0082069,-0.0067519,0.090999,-0.17185,-0.12359,-0.2688,-0.045831,-0.14395,0.22066,-0.54944,-0.12198,0.041144,-0.071509,0.012717,0.024332,-0.26642,0.050426,-0.045919,-0.057435,-0.043363
-0.0046474,-0.0061515,-0.092166,0.0099741,-0.0090321,-0.012434,0.087364,-0.1638,-0.12002,-0.29202,-0.046792,-0.17222,0.12643,-0.65007,-0.11492,0.065766,-0.066283,0.041501,0.10229,-0.31879,0.035728,-0.080628,-0.065666,-0.041029
-0.0090696,-0.0010391,-0.10568,0.0084963,-0.0072932,-0.017691,0.083173,-0.14736,-0.10415,-0.31761,-0.052474,-0.19163,0.024104,-0.74567,-0.12021,0.083122,-0.060009,0.064948,0.17012,-0.36216,0.01437,-0.1129,-0.08158,-0.031897
-0.013102,0.006329,-0.10905,0.0060121,-0.0024331,-0.026594,0.079839,-0.12298,-0.081939,-0.34149,-0.066292,-0.20119,-0.065642,-0.82455,-0.13472,0.094641,-0.055423,0.072113,0.21588,-0.38221,-0.0076106,-0.13157,-0.093692,-0.020223
-0.013625,0.0093997,-0.10008,0.0030408,0.0033544,-0.040797,0.075674,-0.092056,-0.061513,-0.36285,-0.087287,-0.20287,-0.13699,-0.87065,-0.15245,0.10388,-0.055282,0.062412,0.24397,-0.36771,-0.022687,-0.13673,-0.096379,-0.010592
-0.011983,0.0079137,-0.087606,0.00047185,0.005976,-0.054733,0.067966,-0.056222,-0.048315,-0.38411,-0.11149,-0.20009,-0.19824,-0.87432,-0.16591,0.11638,-0.058847,0.045241,0.27462,-0.3221,-0.028437,-0.13687,-0.094099,-0.0051078
-0.012608,0.0085059,-0.081964,-0.0015234,0.0026544,-0.058899,0.056554,-0.017118,-0.042314,-0.40665,-0.13518,-0.19483,-0.26025,-0.83945,-0.16889,0.13746,-0.061187,0.032646,0.33037,-0.26899,-0.029619,-0.14034,-0.09469,-0.0028767
-0.018434,0.017542,-0.084353,-0.0039705,-0.0051699,-0.049248,0.045112,0.02303,-0.039211,-0.42581,-0.15743,-0.18566,-0.32585,-0.77795,-0.15975,0.16908,-0.056703,0.03162,0.4193,-0.24386,-0.033649,-0.14742,-0.09981,-0.001629
-0.027755,0.033667,-0.085903,-0.0083295,-0.012285,-0.0332,0.038459,0.060678,-0.03439,-0.42984,-0.18007,-0.16865,-0.38927,-0.69608,-0.14269,0.20771,-0.044016,0.04189,0.52786,-0.27467,-0.043405,-0.14818,-0.1031,0.00036883
-0.035672,0.048142,-0.077607,-0.015002,-0.013678,-0.024854,0.038158,0.091391,-0.026307,-0.40494,-0.20536,-0.14062,-0.44352,-0.58767,-0.12498,0.24519,-0.027727,0.059258,0.62865,-0.36427,-0.053763,-0.12779,-0.09796,0.0037578
-0.038639,0.053116,-0.060923,-0.022464,-0.0086815,-0.032401,0.040688,0.11177,-0.016755,-0.34353,-0.2332,-0.10233,-0.487,-0.44402,-0.11157,0.27222,-0.01528,0.079671,0.69663,-0.48879,-0.054932,-0.076575,-0.086259,0.0088133
-0.037572,0.049601,-0.047787,-0.028065,-0.0013713,-0.049351,0.040278,0.12156,-0.0082298,-0.24953,-0.26017,-0.058833,-0.52249,-0.27291,-0.10104,0.28246,-0.01157,0.099715,0.72118,-0.6149,-0.039794,0.00089001,-0.077975,0.016053
-0.036461,0.046731,-0.049186,-0.030112,0.0033345,-0.058771,0.034048,0.12385,-0.00098423,-0.13666,-0.28068,-0.016586,-0.55055,-0.10727,-0.086427,0.27489,-0.01591,0.11426,0.70645,-0.72382,-0.0092436,0.08388,-0.081448,0.025741
-0.037973,0.052497,-0.063196,-0.02955,0.0042511,-0.047864,0.024719,0.12274,0.0075868,-0.020924,-0.28949,0.020591,-0.56504,0.0095312,-0.060288,0.25352,-0.023581,0.11589,0.66298,-0.82271,0.028342,0.14352,-0.09417,0.036893
-0.040517,0.064944,-0.074724,-0.02953,0.0047332,-0.019997,0.01827,0.1201,0.020758,0.086487,-0.28379,0.053711,-0.55627,0.053832,-0.020051,0.22501,-0.029994,0.099106,0.5999,-0.93309,0.062373,0.15733,-0.10421,0.047274
-0.039801,0.072921,-0.068297,-0.032843,0.0088714,0.0070527,0.018677,0.11415,0.039403,0.18025,-0.2642,0.087442,-0.51957,0.042537,0.030568,0.19605,-0.033451,0.066411,0.52393,-1.0644,0.085528,0.12168,-0.10173,0.054974
-0.033412,0.06637,-0.04248,-0.039229,0.016837,0.015458,0.024599,0.10165,0.060654,0.25638,-0.23409,0.12634,-0.46139,0.025183,0.084562,0.17159,-0.034468,0.029801,0.44323,-1.1944,0.095879,0.053451,-0.089259,0.060266
-0.023904,0.046645,-0.012253,-0.04508,0.02412,0.0016019,0.030987,0.081692,0.079444,0.30802,-0.19778,0.171,-0.39722,0.051085,0.13585,0.15427,-0.033243,0.0043615,0.36916,-1.2738,0.095575,-0.020916,-0.080021,0.065721
-0.017256,0.026806,0.0034504,-0.046261,0.025647,-0.022201,0.033799,0.058121,0.091706,0.32733,-0.15807,0.21649,-0.34242,0.13682,0.1812,0.14468,-0.028522,-0.001841,0.31206,-1.2545,0.088531,-0.081776,-0.085078,0.073921
-0.018,0.021059,-0.0019154,-0.041932,0.020891,-0.039326,0.033154,0.037882,0.096769,0.31278,-0.11454,0.25413,-0.30303,0.25915,0.21919,0.14208,-0.019159,0.0071804,0.27455,-1.1215,0.079026,-0.12648,-0.10178,0.084512
-0.025475,0.032754,-0.017008,-0.035949,0.014924,-0.042661,0.032066,0.026631,0.097236,0.27448,-0.063755,0.27532,-0.27331,0.3767,0.24861,0.14514,-0.0063691,0.020233,0.24959,-0.90453,0.071115,-0.16632,-0.11529,0.093382
-0.034542,0.05185,-0.022723,-0.034179,0.014148,-0.038408,0.032412,0.025086,0.09672,0.23037,-0.0019717,0.27506,-0.24116,0.46043,0.26842,0.1522,0.0063582,0.029529,0.22654,-0.66064,0.067722,-0.21348,-0.11251,0.095171
-0.039856,0.063995,-0.0085848,-0.039687,0.020579,-0.037758,0.032506,0.029098,0.097388,0.1942,0.071066,0.25295,-0.19696,0.50832,0.27868,0.16119,0.016288,0.036974,0.20072,-0.44108,0.069317,-0.2688,-0.095102,0.08738
-0.039689,0.06275,0.019224,-0.049981,0.030023,-0.045471,0.028792,0.033158,0.099138,0.16488,0.1496,0.2109,-0.13976,0.5365,0.28034,0.16944,0.024564,0.050074,0.1777,-0.26685,0.073479,-0.31969,-0.07883,0.072675
-0.03614,0.053866,0.044592,-0.058991,0.035838,-0.056217,0.01984,0.034219,0.10061,0.12762,0.22289,0.14993,-0.077461,0.56009,0.27338,0.17423,0.035856,0.071597,0.16804,-0.12847,0.076385,-0.34854,-0.079058,0.057266
-0.032276,0.048345,0.055837,-0.062258,0.034813,-0.061029,0.0084335,0.032767,0.1008,0.068204,0.27989,0.069182,-0.021494,0.58253,0.25563,0.17428,0.054043,0.093662,0.177,-0.0064035,0.075474,-0.34359,-0.096137,0.04652
-0.029426,0.051454,0.054433,-0.06064,0.029733,-0.056419,-0.00051816,0.03079,0.099802,-0.010454,0.31526,-0.030778,0.020192,0.59925,0.22491,0.1713,0.077503,0.10293,0.19833,0.10705,0.071096,-0.30371,-0.11463,0.041334
-0.027039,0.058207,0.051191,-0.059071,0.026386,-0.046984,-0.0042746,0.028969,0.098557,-0.083882,0.33302,-0.14182,0.047713,0.60559,0.18393,0.17001,0.09847,0.092508,0.21789,0.2021,0.06571,-0.23551,-0.11736,0.0382
-0.024434,0.059078,0.054957,-0.061494,0.027907,-0.039612,-0.0045139,0.025748,0.098107,-0.11962,0.34518,-0.2446,0.068517,0.59688,0.14267,0.17557,0.10756,0.068916,0.22356,0.26438,0.061451,-0.14842,-0.10105,0.0327
-0.021918,0.049781,0.065033,-0.066848,0.031722,-0.035988,-0.0052924,0.01885,0.0992,-0.099871,0.36535,-0.3124,0.091479,0.56135,0.11426,0.18994,0.099881,0.046651,0.21266,0.29303,0.058472,-0.053107,-0.078718,0.023308
-0.019977,0.035463,0.073604,-0.070131,0.031864,-0.031408,-0.0087211,0.0075516,0.10204,-0.036008,0.40074,-0.32259,0.11935,0.47918,0.10581,0.20977,0.077626,0.034801,0.19048,0.30713,0.055545,0.036756,-0.066919,0.012261
-0.017922,0.025579,0.07442,-0.06763,0.02452,-0.021094,-0.012672,-0.0064248,0.10584,0.036853,0.44738,-0.2695,0.14497,0.33672,0.11185,0.22798,0.047448,0.028334,0.16221,0.3347,0.052057,0.10499,-0.070258,0.0029892
-0.014187,0.024969,0.068616,-0.061209,0.011838,-0.0072553,-0.012896,-0.02001,0.10837,0.082236,0.49211,-0.16931,0.15496,0.14782,0.11723,0.23844,0.015398,0.012719,0.12664,0.39314,0.049004,0.13921,-0.078135,-0.0033733
-0.0084838,0.030005,0.062574,-0.057248,0.00064545,0.00087377,-0.0076058,-0.0307,0.10638,0.085966,0.52074,-0.051993,0.13935,-0.03952,0.10857,0.24012,-0.015733,-0.021966,0.077694,0.47644,0.047671,0.13961,-0.076397,-0.0091493
-0.0033431,0.033167,0.061138,-0.060895,-0.0027617,-0.0050585,-3.798e-005,-0.037653,0.097382,0.064764,0.527,0.055682,0.10033,-0.16494,0.084934,0.23772,-0.044763,-0.070362,0.012358,0.55799,0.047325,0.12216,-0.061982,-0.017892
-0.0026343,0.030807,0.063592,-0.070921,0.0026997,-0.02386,0.0037102,-0.041393,0.081886,0.054449,0.51613,0.14428,0.05295,-0.19563,0.058247,0.23791,-0.068741,-0.11444,-0.063,0.60552,0.044682,0.11122,-0.045897,-0.030758
-0.007718,0.025932,0.066041,-0.080114,0.012536,-0.04393,-0.00019989,-0.042833,0.064144,0.086333,0.50016,0.22277,0.015989,-0.15404,0.042686,0.24428,-0.08213,-0.13688,-0.1344,0.59702,0.036453,0.1259,-0.04169,-0.044757
-0.014915,0.023404,0.066675,-0.081049,0.02057,-0.051866,-0.0099802,-0.042753,0.050387,0.16745,0.48865,0.30569,-0.00071381,-0.10869,0.04225,0.25475,-0.080072,-0.13303,-0.18922,0.52816,0.023036,0.16994,-0.051149,-0.054526
-0.017483,0.023134,0.067609,-0.072122,0.02351,-0.043419,-0.019811,-0.042152,0.045467,0.27675,0.48184,0.39654,-0.0028773,-0.13109,0.047647,0.26296,-0.062828,-0.1115,-0.22499,0.40972,0.0096383,0.23236,-0.061783,-0.056286
-0.011212,0.01919,0.071239,-0.058554,0.022441,-0.027199,-0.025003,-0.042993,0.050329,0.37855,0.47194,0.48085,-0.007136,-0.24885,0.045093,0.26231,-0.036871,-0.084433,-0.25069,0.2598,0.0029509,0.2968,-0.058839,-0.050683
0.0011588,0.0064975,0.07557,-0.047724,0.020533,-0.017753,-0.025962,-0.048456,0.06209,0.44407,0.45085,0.53464,-0.029009,-0.42757,0.028728,0.24917,-0.011026,-0.058152,-0.28013,0.09693,0.0056765,0.35043,-0.03993,-0.042165
0.011141,-0.011674,0.07449,-0.043211,0.019587,-0.023965,-0.027285,-0.062187,0.076382,0.46706,0.41798,0.5415,-0.073226,-0.59158,0.005328,0.22369,0.0093866,-0.03264,-0.32318,-0.063255,0.013791,0.38575,-0.017539,-0.035432
0.011022,-0.024131,0.063767,-0.042712,0.018678,-0.04257,-0.032953,-0.086679,0.089908,0.46437,0.38144,0.50454,-0.13371,-0.66554,-0.012566,0.18866,0.025406,-0.0085286,-0.3818,-0.20777,0.019515,0.39711,-0.0066666,-0.031974
0.00041259,-0.021361,0.046778,-0.041141,0.015763,-0.061807,-0.042253,-0.12146,0.10139,0.46205,0.352,0.44387,-0.20193,-0.60883,-0.018176,0.14819,0.041907,0.0076712,-0.4524,-0.32461,0.017858,0.37915,-0.0097617,-0.029573
-0.012972,-0.0058318,0.033323,-0.035546,0.010287,-0.071261,-0.050292,-0.16201,0.11077,0.47755,0.33508,0.38242,-0.27528,-0.42738,-0.015867,0.10709,0.062017,0.0067952,-0.53064,-0.40177,0.010919,0.33173,-0.013967,-0.025095
-0.019321,0.0076797,0.03139,-0.027326,0.0041014,-0.069171,-0.052549,-0.20022,0.11786,0.51058,0.32733,0.33208,-0.35794,-0.16633,-0.015893,0.070159,0.083435,-0.014344,-0.61333,-0.42903,0.0057496,0.26658,-0.0036504,-0.018056
-0.0146,0.0037607,0.039299,-0.020206,1.1164e-005,-0.061689,-0.049071,-0.22678,0.12184,0.54798,0.31996,0.2906,-0.45425,0.10547,-0.024184,0.040349,0.099762,-0.048386,-0.69643,-0.40302,0.0073493,0.20635,0.02392,-0.011831
-0.0036564,-0.019597,0.04624,-0.016443,-0.00043862,-0.056236,-0.044449,-0.23477,0.12174,0.5769,0.30511,0.24981,-0.56165,0.31393,-0.037055,0.016574,0.10551,-0.08251,-0.77262,-0.33294,0.013088,0.17237,0.055065,-0.01145
0.0040083,-0.047617,0.041583,-0.014991,0.0021846,-0.055745,-0.043821,-0.22314,0.11738,0.59466,0.27985,0.20581,-0.67067,0.40295,-0.045406,-0.0069371,0.10037,-0.10859,-0.83288,-0.24208,0.013897,0.1687,0.071819,-0.019878
0.0020044,-0.06005,0.02469,-0.013037,0.006129,-0.058364,-0.048818,-0.19796,0.11012,0.60778,0.24527,0.16177,-0.77192,0.35899,-0.043765,-0.038266,0.089149,-0.12827,-0.87221,-0.16153,0.0014736,0.17639,0.068019,-0.035861
-0.0082325,-0.047795,0.0059181,-0.009021,0.0098098,-0.061159,-0.057008,-0.17053,0.10296,0.62242,0.20293,0.12219,-0.86293,0.22269,-0.035286,-0.083379,0.077909,-0.14775,-0.895,-0.11785,-0.024838,0.16561,0.054119,-0.05498
-0.019378,-0.020246,-0.0023481,-0.0041053,0.012208,-0.062976,-0.064719,-0.15284,0.10004,0.63606,0.1526,0.086246,-0.94736,0.072413,-0.028335,-0.14258,0.069706,-0.1681,-0.9149,-0.12218,-0.057689,0.11785,0.046671,-0.072731
-0.024459,0.0029451,0.0036376,-0.00082797,0.012479,-0.06388,-0.069982,-0.15242,0.10519,0.63773,0.09344,0.047906,-1.0263,-0.018418,-0.028582,-0.21042,0.063405,-0.18174,-0.94783,-0.16832,-0.0881,0.041126,0.053121,-0.086858
-0.021702,0.0080154,0.016507,-0.00044789,0.0099964,-0.063161,-0.072831,-0.16913,0.1198,0.61654,0.026893,0.0031811,-1.0901,-0.024077,-0.034462,-0.27895,0.055667,-0.17977,-1.0024,-0.24095,-0.11256,-0.034689,0.066443,-0.097004
-0.014291,-0.003266,0.025392,-0.001598,0.005298,-0.059385,-0.073483,-0.19541,0.14103,0.57064,-0.042041,-0.043453,-1.1197,0.022072,-0.039903,-0.34189,0.043592,-0.16309,-1.0741,-0.32727,-0.13422,-0.079058,0.073859,-0.1023
-0.0063927,-0.018097,0.025896,-0.0014806,0.00072931,-0.052771,-0.071249,-0.21984,0.16168,0.50919,-0.10676,-0.080831,-1.0994,0.057449,-0.04082,-0.39666,0.025688,-0.14571,-1.147,-0.42265,-0.15724,-0.081712,0.070078,-0.099457
0.00017324,-0.025644,0.02286,0.0015834,-0.00072896,-0.046485,-0.065891,-0.23207,0.17262,0.44536,-0.16281,-0.10034,-1.0305,0.037975,-0.038388,-0.44348,0.0013715,-0.14531,-1.2021,-0.52648,-0.17995,-0.057074,0.061818,-0.083547
0.0057881,-0.025807,0.023924,0.0066508,0.0019081,-0.044089,-0.059801,-0.22693,0.16687,0.38545,-0.21042,-0.10395,-0.9348,-0.034397,-0.035916,-0.48309,-0.029061,-0.16905,-1.2262,-0.63361,-0.19394,-0.030063,0.059864,-0.051596
0.010653,-0.026399,0.031015,0.011091,0.0060373,-0.045066,-0.057797,-0.20607,0.14297,0.32202,-0.25398,-0.10294,-0.84214,-0.12386,-0.03303,-0.51512,-0.063111,-0.20726,-1.2177,-0.73065,-0.19054,-0.016352,0.067576,-0.0063719
0.013553,-0.0332,0.038463,0.013103,0.0071168,-0.043615,-0.06352,-0.17671,0.10522,0.23633,-0.29904,-0.10829,-0.77092,-0.19687,-0.023749,-0.5381,-0.09502,-0.24104,-1.1845,-0.80231,-0.16903,-0.013512,0.077796,0.042625
0.013309,-0.043723,0.039185,0.013483,0.0027168,-0.033354,-0.075372,-0.14808,0.060639,0.10962,-0.34916,-0.12189,-0.71642,-0.247,-0.0010948,-0.55004,-0.11742,-0.25664,-1.1377,-0.84304,-0.13885,-0.0090121,0.080932,0.08241
0.010982,-0.050644,0.032021,0.014944,-0.0047354,-0.014199,-0.086332,-0.12724,0.01464,-0.063639,-0.40448,-0.13703,-0.65678,-0.28726,0.035983,-0.54855,-0.1257,-0.25386,-1.0847,-0.86329,-0.11319,0.0035595,0.075374,0.1025
0.0097535,-0.050345,0.022476,0.019482,-0.009598,0.0056443,-0.088821,-0.11589,-0.031343,-0.26957,-0.46219,-0.14736,-0.57238,-0.32192,0.080304,-0.5305,-0.12175,-0.24216,-1.0251,-0.88336,-0.099684,0.014765,0.069209,0.10016
0.011939,-0.046851,0.01636,0.026132,-0.0080649,0.015643,-0.080863,-0.10979,-0.078912,-0.48116,-0.51817,-0.15492,-0.46315,-0.32985,0.12144,-0.49292,-0.11318,-0.22993,-0.95327,-0.91806,-0.096488,0.0040984,0.071508,0.081534
0.016077,-0.046733,0.013461,0.031251,-0.002001,0.012048,-0.067953,-0.10128,-0.12954,-0.67374,-0.56857,-0.1687,-0.34994,-0.27937,0.15342,-0.43574,-0.10775,-0.21796,-0.86456,-0.96438,-0.097046,-0.045461,0.082441,0.058008
0.017478,-0.050576,0.0082846,0.031262,0.0023541,0.0015891,-0.058651,-0.083787,-0.18203,-0.8385,-0.61092,-0.19481,-0.25876,-0.16246,0.1777,-0.36499,-0.10751,-0.20252,-0.76113,-1.0027,-0.098508,-0.13541,0.092755,0.039777
0.012396,-0.050746,-0.0027209,0.025599,-6.8119e-005,-0.004092,-0.05764,-0.055733,-0.23257,-0.98354,-0.64485,-0.22838,-0.20151,-0.015173,0.19828,-0.29312,-0.10785,-0.18307,-0.65302,-1.0109,-0.10503,-0.25112,0.093428,0.03074
0.002099,-0.038877,-0.015351,0.017331,-0.0085508,0.0016474,-0.062479,-0.021545,-0.27711,-1.1209,-0.6721,-0.25569,-0.16897,0.098808,0.21397,-0.23466,-0.10269,-0.16543,-0.55329,-0.98067,-0.12238,-0.37147,0.085492,0.027702
-0.007244,-0.016053,-0.020187,0.010931,-0.017437,0.015339,-0.06676,0.011143,-0.31364,-1.2497,-0.69578,-0.26551,-0.14137,0.13198,0.21594,-0.19924,-0.091075,-0.15664,-0.47096,-0.92139,-0.14912,-0.48001,0.079492,0.024148
-0.0092774,0.0051513,-0.011932,0.0091312,-0.021716,0.027582,-0.066346,0.036137,-0.34259,-1.3496,-0.71889,-0.25945,-0.10598,0.089425,0.19438,-0.18663,-0.078893,-0.15744,-0.4071,-0.85028,-0.17422,-0.56992,0.084471,0.015827
-0.0027795,0.010253,0.0036357,0.011403,-0.021903,0.032135,-0.062539,0.05193,-0.36523,-1.3907,-0.74261,-0.25164,-0.065699,0.027534,0.14885,-0.18784,-0.073637,-0.16061,-0.35695,-0.77711,-0.18497,-0.64187,0.097396,0.0043414
0.0072288,-0.004115,0.012917,0.015033,-0.023332,0.031195,-0.059317,0.061338,-0.38181,-1.3524,-0.76548,-0.25804,-0.031233,0.014869,0.092527,-0.19138,-0.076979,-0.1576,-0.31579,-0.69794,-0.17911,-0.69977,0.10417,-0.0034877
0.013734,-0.026259,0.0061634,0.01747,-0.030488,0.032299,-0.057883,0.068094,-0.39137,-1.2366,-0.78391,-0.28466,-0.0052064,0.085093,0.045017,-0.18992,-0.08237,-0.14668,-0.28327,-0.60323,-0.16966,-0.74842,0.092237,0.00025443
0.013632,-0.039136,-0.01296,0.017834,-0.041957,0.040511,-0.054497,0.073368,-0.39316,-1.0674,-0.79378,-0.32449,0.025896,0.21721,0.019056,-0.18289,-0.080503,-0.13455,-0.26252,-0.49253,-0.17612,-0.79276,0.063062,0.019826
0.010057,-0.035298,-0.029422,0.016665,-0.051092,0.053664,-0.044167,0.075098,-0.38822,-0.87964,-0.79261,-0.36481,0.083647,0.3558,0.012479,-0.17409,-0.068013,-0.12962,-0.25502,-0.38153,-0.20836,-0.83568,0.032484,0.053183
0.0091562,-0.023169,-0.029589,0.014769,-0.051868,0.064816,-0.026558,0.070632,-0.37956,-0.71065,-0.78116,-0.39797,0.18042,0.45278,0.012935,-0.1677,-0.051261,-0.13389,-0.25628,-0.2937,-0.25675,-0.87359,0.017992,0.092335
0.014361,-0.018569,-0.013529,0.0126,-0.044307,0.068848,-0.0078542,0.060359,-0.37076,-0.59682,-0.76376,-0.42673,0.30856,0.49792,0.011303,-0.16642,-0.041243,-0.14147,-0.25664,-0.24241,-0.29807,-0.89375,0.024441,0.1259
0.023338,-0.029383,0.0044654,0.010586,-0.034233,0.06655,0.0039006,0.049166,-0.36404,-0.57128,-0.74678,-0.46108,0.4453,0.51734,0.011392,-0.17224,-0.043831,-0.14468,-0.24702,-0.2184,-0.31294,-0.87755,0.041027,0.14265
0.030211,-0.04792,0.0079911,0.0095788,-0.027661,0.062689,0.0058276,0.044275,-0.35952,-0.65184,-0.73541,-0.51013,0.56831,0.54568,0.026575,-0.18756,-0.054137,-0.14119,-0.2252,-0.19405,-0.30044,-0.80959,0.051743,0.13532
0.030779,-0.058221,-0.0074507,0.010463,-0.025344,0.060769,0.002685,0.050913,-0.35596,-0.82113,-0.73058,-0.57525,0.66755,0.59711,0.066069,-0.2143,-0.060304,-0.13487,-0.19757,-0.14238,-0.27753,-0.68643,0.049243,0.10372
0.025906,-0.051232,-0.031007,0.013102,-0.022815,0.060143,0.002059,0.068957,-0.35204,-1.0154,-0.72824,-0.64816,0.74454,0.65735,0.1236,-0.25104,-0.053585,-0.12985,-0.17508,-0.056876,-0.2641,-0.51842,0.039569,0.055744
0.020239,-0.033233,-0.046374,0.015852,-0.015849,0.058216,0.0067904,0.092886,-0.3471,-1.1404,-0.72251,-0.71354,0.80271,0.69891,0.17938,-0.29091,-0.035873,-0.12443,-0.16638,0.042857,-0.26689,-0.32333,0.034393,0.0046439
0.017853,-0.01959,-0.045763,0.016538,-0.0058901,0.05493,0.012218,0.1149,-0.34075,-1.1153,-0.71091,-0.75445,0.84032,0.70296,0.21412,-0.3225,-0.01815,-0.11159,-0.17291,0.12405,-0.27574,-0.11762,0.03907,-0.037141
0.019028,-0.020211,-0.035402,0.014303,0.00010704,0.054261,0.011285,0.12876,-0.33221,-0.91863,-0.69759,-0.7586,0.85291,0.66862,0.22255,-0.33374,-0.011341,-0.085475,-0.18861,0.16292,-0.27444,0.08789,0.047839,-0.064223
0.020868,-0.030909,-0.028424,0.010644,-0.004373,0.060553,0.0026017,0.13199,-0.32019,-0.60487,-0.69093,-0.72361,0.84074,0.60462,0.21444,-0.31699,-0.017489,-0.04736,-0.20295,0.16052,-0.25527,0.28599,0.049933,-0.080297
0.020667,-0.038705,-0.032589,0.0084661,-0.019072,0.07301,-0.0068667,0.12547,-0.3035,-0.27437,-0.6963,-0.65908,0.81128,0.51498,0.20295,-0.27262,-0.028379,-0.0045593,-0.20433,0.14205,-0.22451,0.46884,0.039824,-0.094046
0.018475,-0.035149,-0.044348,0.0098394,-0.03626,0.084167,-0.0078549,0.11184,-0.28175,-0.016782,-0.70923,-0.5828,0.77247,0.39444,0.19189,-0.20961,-0.032017,0.03654,-0.18187,0.14174,-0.19519,0.6272,0.021632,-0.11176
0.016599,-0.024193,-0.053837,0.01443,-0.046577,0.084839,0.0018928,0.094394,-0.25517,0.1337,-0.71516,-0.51183,0.72316,0.23842,0.17384,-0.14278,-0.020973,0.076144,-0.12631,0.18488,-0.17518,0.75367,0.0041169,-0.13237
0.016978,-0.017163,-0.054868,0.02002,-0.046302,0.071885,0.014434,0.076845,-0.22371,0.20232,-0.69673,-0.45272,0.65163,0.057086,0.14014,-0.08745,0.0039563,0.1193,-0.031913,0.27827,-0.1618,0.84596,-0.0080421,-0.14877
0.019351,-0.020665,-0.05,0.024528,-0.039635,0.051837,0.018503,0.063294,-0.1865,0.24078,-0.64345,-0.39759,0.54552,-0.12114,0.092337,-0.053682,0.036365,0.16825,0.10027,0.4124,-0.14632,0.90546,-0.017912,-0.15407
