-3.3377e-010,2.1396e-009,-7.7751e-010,1.0476e-009,-8.6819e-011,1.9042e-009,2.2091e-009,-4.2638e-010,1.0129e-009,-1.8078e-009,-1.9293e-012,1.4836e-009,-1.5338e-009,8.3539e-010,-5.8207e-009,-5.6143e-010,-3.2219e-010,2.0701e-009,1.4991e-009,-1.1325e-009,2.1029e-010,1.3563e-009,3.4978e-009,5.5371e-010
-9.8098e-009,5.9156e-008,-2.1566e-008,2.8903e-008,-2.7773e-009,5.313e-008,6.0851e-008,-1.1651e-008,2.7951e-008,-4.9708e-008,-3.4657e-010,4.0875e-008,-4.206e-008,2.2761e-008,-1.6033e-007,-1.641e-008,-8.8648e-009,5.7194e-008,4.2077e-008,-3.1287e-008,5.8382e-009,3.6878e-008,9.697e-008,1.5432e-008
-1.399e-007,7.9544e-007,-2.9055e-007,3.8759e-007,-4.2716e-008,7.2038e-007,8.1512e-007,-1.5472e-007,3.751e-007,-6.6416e-007,-8.5575e-009,5.4738e-007,-5.6052e-007,3.0106e-007,-2.1466e-006,-2.3334e-007,-1.1891e-007,7.6797e-007,5.7386e-007,-4.202e-007,7.9208e-008,4.8684e-007,1.3071e-006,2.0939e-007
-1.29e-006,6.9305e-006,-2.5328e-006,3.3656e-006,-4.2176e-007,6.3237e-006,7.0742e-006,-1.3303e-006,3.2613e-006,-5.7442e-006,-1.0798e-007,4.7471e-006,-4.8365e-006,2.5756e-006,-1.8609e-005,-2.1515e-006,-1.0362e-006,6.6764e-006,5.0664e-006,-3.6551e-006,6.9988e-007,4.156e-006,1.1413e-005,1.8429e-006
-8.645e-006,4.3976e-005,-1.6054e-005,2.1269e-005,-3.0093e-006,4.0392e-005,4.4709e-005,-8.3249e-006,2.0648e-005,-3.6142e-005,-8.932e-007,2.9968e-005,-3.037e-005,1.6018e-005,-0.0001174,-1.4462e-005,-6.5931e-006,4.2232e-005,3.2542e-005,-2.3143e-005,4.5277e-006,2.5777e-005,7.2555e-005,1.1826e-005
-4.487e-005,0.00021652,-7.8832e-005,0.00010421,-1.6554e-005,0.00020001,0.00021924,-4.04e-005,0.00010142,-0.00017622,-5.4018e-006,0.00014673,-0.00014786,7.7153e-005,-0.00057413,-7.5548e-005,-3.2638e-005,0.00020708,0.00016202,-0.00011365,2.2853e-005,0.00012369,0.00035781,5.8957e-005
-0.00018767,0.00086054,-0.00031189,0.00041172,-7.311e-005,0.00079863,0.00086775,-0.00015816,0.00040204,-0.00069246,-2.5389e-005,0.00057968,-0.00058048,0.00029939,-0.0022637,-0.00031923,-0.00013075,0.0008186,0.00065049,-0.0004502,9.3619e-005,0.0004773,0.0014239,0.00023759
-0.00064972,0.0028347,-0.0010207,0.0013465,-0.00026643,0.0026402,0.0028464,-0.00051295,0.0013205,-0.0022508,-9.6424e-005,0.0018976,-0.0018867,0.00096095,-0.0073868,-0.0011212,-0.00043508,0.0026782,0.0021624,-0.0014772,0.00031965,0.0015195,0.0046953,0.000795
-0.0018974,0.0078849,-0.0028141,0.0037121,-0.00081689,0.0073605,0.0078823,-0.0014038,0.00366,-0.0061606,-0.00030402,0.0052438,-0.0051692,0.0025985,-0.02031,-0.0033374,-0.0012246,0.0073846,0.0060636,-0.0040892,0.00092663,0.004059,0.013067,0.002251
-0.0047387,0.018764,-0.0066193,0.0087335,-0.0021371,0.017528,0.018668,-0.0032845,0.0086708,-0.014372,-0.00081171,0.012395,-0.012088,0.0059968,-0.047641,-0.0085397,-0.0029515,0.017378,0.014535,-0.0096732,0.0023109,0.0091986,0.031096,0.0054681
-0.010222,0.03856,-0.013396,0.017677,-0.0048194,0.035964,0.038151,-0.0066277,0.017707,-0.028789,-0.0018634,0.025295,-0.024323,0.011917,-0.09609,-0.018983,-0.0061396,0.035191,0.030061,-0.019726,0.0050036,0.017786,0.063838,0.011512
-0.019181,0.068836,-0.023432,0.030906,-0.0094374,0.063908,0.067647,-0.011596,0.031321,-0.049665,-0.0037242,0.044832,-0.042282,0.020511,-0.1673,-0.036944,-0.011064,0.061598,0.053988,-0.034854,0.0094631,0.029347,0.11367,0.021155
-0.031456,0.10711,-0.035442,0.046661,-0.016128,0.098515,0.10431,-0.017631,0.048033,-0.073633,-0.0065498,0.069224,-0.063502,0.030696,-0.25134,-0.063285,-0.017266,0.093262,0.084512,-0.053453,0.015684,0.04103,0.17592,0.034101
-0.04522,0.14541,-0.04614,0.060482,-0.02414,0.13146,0.13975,-0.023268,0.063641,-0.092954,-0.010238,0.093164,-0.082003,0.040078,-0.32395,-0.095758,-0.023197,0.12166,0.11551,-0.071011,0.022791,0.04767,0.23631,0.048364
-0.05709,0.17208,-0.05104,0.066331,-0.03176,0.15081,0.16201,-0.026547,0.072135,-0.097738,-0.014365,0.10907,-0.09,0.045993,-0.35317,-0.12823,-0.026453,0.13535,0.1379,-0.081172,0.028971,0.043871,0.27397,0.060444
-0.063444,0.17736,-0.046595,0.059603,-0.036985,0.14675,0.16129,-0.026037,0.068528,-0.081299,-0.018296,0.11075,-0.082071,0.047425,-0.31604,-0.1521,-0.024851,0.12581,0.14395,-0.078812,0.032033,0.027657,0.27113,0.066654
-0.062469,0.15996,-0.032606,0.040525,-0.03882,0.11832,0.13683,-0.021957,0.05233,-0.045898,-0.021422,0.097535,-0.059567,0.046536,-0.21669,-0.15999,-0.01796,0.093795,0.13228,-0.063642,0.030543,0.0033186,0.22504,0.065116
-0.055536,0.12953,-0.013112,0.015356,-0.038371,0.076133,0.099539,-0.016466,0.029148,-0.0042591,-0.023421,0.075943,-0.031617,0.048153,-0.0913,-0.1499,-0.008023,0.051204,0.10981,-0.041628,0.024896,-0.019382,0.15336,0.057199
-0.046575,0.10187,0.0053959,-0.0063445,-0.03864,0.037454,0.067008,-0.012573,0.0084875,0.026049,-0.024396,0.056536,-0.010643,0.056732,0.008604,-0.1269,0.00075423,0.015351,0.088037,-0.022401,0.017514,-0.030389,0.086755,0.047191
-0.039448,0.088746,0.017664,-0.017236,-0.042613,0.015683,0.052837,-0.012102,-0.0016339,0.033152,-0.024869,0.047522,-0.0045018,0.072566,0.047245,-0.10065,0.0045721,-0.0016882,0.075638,-0.013611,0.011757,-0.025981,0.051046,0.040096
-0.035052,0.089759,0.022768,-0.016788,-0.050615,0.011568,0.057652,-0.014147,0.00014936,0.019231,-0.025674,0.049498,-0.01097,0.09042,0.02827,-0.079658,0.0026106,-0.0011297,0.072801,-0.015994,0.010067,-0.011797,0.050906,0.038797
-0.030477,0.093119,0.024254,-0.0113,-0.05892,0.013379,0.069162,-0.015428,0.0075233,-0.00022488,-0.027744,0.055598,-0.019471,0.10253,-0.0086581,-0.066428,-0.0022212,0.0037915,0.072072,-0.022966,0.012576,0.00070588,0.067585,0.042466
-0.02115,0.085512,0.027103,-0.0090796,-0.06111,0.0064589,0.071951,-0.01265,0.010826,-0.0069579,-0.031682,0.057184,-0.019415,0.10437,-0.017892,-0.056954,-0.0052669,-0.0018752,0.06523,-0.025383,0.017208,0.0021806,0.07339,0.04732
-0.0045349,0.063335,0.033911,-0.01443,-0.051813,-0.015358,0.059516,-0.0052339,0.0038729,0.007047,-0.037193,0.050568,-0.008588,0.09868,0.018382,-0.045116,-0.0035562,-0.023387,0.050336,-0.018037,0.021252,-0.0084345,0.052156,0.049182
0.01746,0.035729,0.043311,-0.025125,-0.030435,-0.045887,0.038694,0.0038358,-0.011736,0.03409,-0.0427,0.03924,0.0055747,0.093771,0.079704,-0.028352,0.0019883,-0.052928,0.032855,-0.0029715,0.023281,-0.024462,0.0098682,0.046145
0.039305,0.016552,0.051776,-0.035106,-0.0021849,-0.073147,0.022835,0.010032,-0.028066,0.05731,-0.045703,0.029937,0.013052,0.096901,0.12811,-0.0099718,0.0074352,-0.076603,0.020071,0.012732,0.023993,-0.037991,-0.032319,0.039594
0.055357,0.012193,0.057015,-0.039731,0.024555,-0.089864,0.01975,0.010812,-0.036885,0.064063,-0.044081,0.026256,0.010424,0.10792,0.14128,0.0037068,0.0091537,-0.08533,0.014164,0.022599,0.025423,-0.046397,-0.055911,0.033079
0.063377,0.016082,0.059854,-0.039042,0.042827,-0.098142,0.025011,0.0077894,-0.035626,0.055332,-0.037753,0.0255,0.003898,0.11885,0.12935,0.0087752,0.0068087,-0.08034,0.010425,0.025199,0.029187,-0.053112,-0.058617,0.029923
0.065483,0.014951,0.06299,-0.036694,0.050555,-0.10449,0.026263,0.0056016,-0.028853,0.043933,-0.029491,0.021264,0.0035223,0.12018,0.12241,0.0069917,0.0035784,-0.069657,0.0020907,0.024172,0.035158,-0.062435,-0.053351,0.031204
0.066004,0.0012445,0.067943,-0.036184,0.050699,-0.11093,0.014399,0.0082087,-0.024478,0.043799,-0.023916,0.0090319,0.014004,0.10866,0.14211,0.0042221,0.0035347,-0.060331,-0.012952,0.024569,0.0415,-0.073808,-0.055484,0.03534
0.068144,-0.019667,0.07325,-0.038076,0.048426,-0.11175,-0.0084701,0.015665,-0.027964,0.059817,-0.024885,-0.010291,0.030602,0.089833,0.18376,0.0056353,0.0084837,-0.054215,-0.029908,0.028985,0.045906,-0.081371,-0.070447,0.039412
0.072045,-0.03421,0.075739,-0.040365,0.047672,-0.099726,-0.03102,0.024127,-0.038918,0.086168,-0.032816,-0.031598,0.043663,0.073158,0.22369,0.011842,0.016807,-0.050282,-0.041164,0.036444,0.046988,-0.079348,-0.091687,0.0412
0.075469,-0.033128,0.073809,-0.040969,0.049435,-0.075769,-0.042426,0.029145,-0.052147,0.11297,-0.043852,-0.049716,0.047304,0.064051,0.24247,0.019006,0.024938,-0.049284,-0.042717,0.04409,0.044863,-0.068104,-0.10864,0.040569
0.076086,-0.02043,0.06961,-0.039595,0.052413,-0.051841,-0.041012,0.029436,-0.06171,0.13397,-0.051756,-0.062449,0.044185,0.059876,0.24152,0.022379,0.029928,-0.054575,-0.037088,0.049527,0.040761,-0.054931,-0.11595,0.039338
0.073224,-0.010602,0.067914,-0.037437,0.054729,-0.042841,-0.034702,0.027887,-0.064642,0.14843,-0.051587,-0.070377,0.04231,0.053093,0.23897,0.02005,0.031042,-0.067884,-0.030576,0.051933,0.036217,-0.048604,-0.11592,0.039868
0.067737,-0.016514,0.072388,-0.035538,0.055129,-0.053936,-0.033752,0.028964,-0.061958,0.15724,-0.042865,-0.074708,0.047296,0.038377,0.25092,0.014046,0.02956,-0.085149,-0.027971,0.05189,0.032412,-0.052411,-0.11383,0.04342
0.060563,-0.038797,0.082315,-0.033767,0.053148,-0.075022,-0.042575,0.03479,-0.057027,0.15887,-0.030034,-0.076023,0.057364,0.017334,0.27699,0.0085011,0.027534,-0.098024,-0.029661,0.051021,0.029742,-0.061637,-0.11245,0.049352
0.05168,-0.065885,0.092483,-0.031284,0.048923,-0.08831,-0.0573,0.043295,-0.053113,0.15028,-0.019691,-0.075013,0.065243,-0.0029747,0.30266,0.0068386,0.026688,-0.10068,-0.033143,0.051857,0.02748,-0.067359,-0.1113,0.055556
0.040557,-0.08418,0.096384,-0.027662,0.043315,-0.083216,-0.070051,0.04995,-0.051788,0.13171,-0.016249,-0.073715,0.064674,-0.015842,0.31406,0.010107,0.027947,-0.095316,-0.036631,0.05722,0.023707,-0.063061,-0.11024,0.059684
0.027486,-0.088948,0.090335,-0.023302,0.038084,-0.065532,-0.075437,0.051494,-0.052696,0.10945,-0.018992,-0.075102,0.055443,-0.019811,0.31006,0.017125,0.031312,-0.090274,-0.040919,0.068508,0.016062,-0.04874,-0.11224,0.060349
0.014181,-0.086517,0.075711,-0.018857,0.035256,-0.052375,-0.073859,0.048433,-0.054172,0.092579,-0.022746,-0.080856,0.042938,-0.018911,0.30078,0.025691,0.035817,-0.091904,-0.048046,0.083781,0.003438,-0.029955,-0.12137,0.057641
0.0027523,-0.086722,0.058097,-0.014564,0.035613,-0.056938,-0.069868,0.044304,-0.054172,0.085944,-0.021862,-0.089393,0.033466,-0.018842,0.29622,0.033832,0.039747,-0.097881,-0.058621,0.097655,-0.012383,-0.013483,-0.13812,0.052838
-0.0060374,-0.093269,0.044178,-0.010312,0.037576,-0.076444,-0.067937,0.042578,-0.051307,0.086166,-0.014602,-0.09639,0.029876,-0.022849,0.29687,0.040588,0.041422,-0.09893,-0.070701,0.104,-0.026833,-0.003249,-0.15705,0.047575
-0.013416,-0.10093,0.038229,-0.0062666,0.037952,-0.094147,-0.069401,0.043994,-0.045746,0.084928,-0.0044115,-0.097779,0.030818,-0.030463,0.29512,0.046261,0.040288,-0.087915,-0.08116,0.099975,-0.035076,0.0010082,-0.17013,0.042967
-0.021293,-0.10161,0.039898,-0.003098,0.034497,-0.093824,-0.072471,0.046516,-0.039445,0.076853,0.0031476,-0.092802,0.033153,-0.039289,0.28426,0.052092,0.037459,-0.067844,-0.087966,0.088257,-0.035489,0.0024989,-0.17299,0.039113
-0.030144,-0.092988,0.04433,-0.0013765,0.0282,-0.074032,-0.074479,0.047622,-0.035174,0.064533,0.0054446,-0.084534,0.034589,-0.047585,0.26526,0.059394,0.035037,-0.050833,-0.091227,0.075491,-0.031268,0.0052072,-0.16841,0.035214
-0.038185,-0.081638,0.044794,-0.00075844,0.023001,-0.049624,-0.074192,0.046634,-0.034706,0.055737,0.0054548,-0.077476,0.034397,-0.055334,0.24488,0.068541,0.034493,-0.048234,-0.092459,0.067942,-0.028415,0.012157,-0.16354,0.030207
-0.042745,-0.077704,0.036802,4.4321e-005,0.022754,-0.039336,-0.072567,0.045064,-0.037412,0.055347,0.0094358,-0.074318,0.032568,-0.06336,0.22812,0.078515,0.035288,-0.060418,-0.093225,0.06763,-0.031301,0.024478,-0.1634,0.023551
-0.042589,-0.086375,0.021403,0.0023276,0.0279,-0.050352,-0.071824,0.044936,-0.040546,0.059792,0.021266,-0.074489,0.029137,-0.071783,0.21337,0.087397,0.03494,-0.075403,-0.094474,0.071676,-0.039348,0.041075,-0.16644,0.015675
-0.038976,-0.10379,0.0051363,0.0063769,0.034832,-0.072855,-0.073825,0.046878,-0.041174,0.059548,0.038326,-0.075332,0.024505,-0.079351,0.19498,0.093423,0.030722,-0.077908,-0.096707,0.074909,-0.047687,0.05887,-0.16621,0.0078014
-0.03446,-0.12077,-0.004038,0.011361,0.038605,-0.088458,-0.078879,0.049698,-0.038252,0.047577,0.052863,-0.07449,0.019946,-0.084219,0.17005,0.095743,0.021932,-0.061417,-0.10019,0.0734,-0.051368,0.073765,-0.15759,0.0012185
-0.030679,-0.13056,-0.0024253,0.016167,0.036667,-0.084663,-0.085631,0.051617,-0.033109,0.025805,0.058134,-0.071384,0.01711,-0.085485,0.1422,0.094471,0.011033,-0.033261,-0.1047,0.06644,-0.049595,0.082272,-0.14177,-0.0035678
-0.027306,-0.13355,0.0063202,0.020256,0.030388,-0.063416,-0.091911,0.051791,-0.027975,0.0035181,0.054232,-0.066943,0.01662,-0.084212,0.11865,0.090382,0.0025672,-0.0086533,-0.10917,0.0562,-0.046323,0.083188,-0.12572,-0.0072977
-0.023082,-0.13518,0.013459,0.023714,0.023334,-0.03794,-0.095974,0.050768,-0.023898,-0.010764,0.048471,-0.062424,0.017247,-0.083081,0.10387,0.084802,0.00026761,0.0012181,-0.11204,0.046041,-0.046716,0.078372,-0.11635,-0.011741
-0.017726,-0.13956,0.011391,0.026632,0.018155,-0.021974,-0.097375,0.04969,-0.019908,-0.016302,0.049743,-0.058605,0.016875,-0.084751,0.096167,0.079636,0.004219,-0.0026135,-0.11224,0.038814,-0.052507,0.071966,-0.11457,-0.018896
-0.012679,-0.14501,-0.00093233,0.028673,0.014966,-0.020613,-0.097025,0.049167,-0.014104,-0.019643,0.061481,-0.055696,0.014672,-0.090051,0.08994,0.076889,0.010256,-0.0086271,-0.11004,0.035788,-0.060309,0.068242,-0.11439,-0.030023
-0.0098644,-0.14554,-0.017732,0.029383,0.012282,-0.029011,-0.096491,0.04879,-0.0056265,-0.02755,0.079062,-0.053367,0.012413,-0.09744,0.080806,0.07742,0.012417,-0.0044294,-0.10691,0.036246,-0.064357,0.069255,-0.10796,-0.044998
-0.0096996,-0.13664,-0.031324,0.028903,0.008981,-0.038133,-0.097061,0.047475,0.0042027,-0.040363,0.093646,-0.05047,0.013403,-0.10435,0.068375,0.079846,0.0070073,0.013845,-0.10442,0.037769,-0.061399,0.073814,-0.092438,-0.062319
-0.010332,-0.12001,-0.037984,0.028227,0.0050659,-0.041831,-0.099196,0.04416,0.012486,-0.052001,0.09899,-0.044925,0.019654,-0.10947,0.054671,0.081004,-0.0046744,0.03957,-0.10303,0.037388,-0.053645,0.078654,-0.072942,-0.079722
-0.008962,-0.10284,-0.03985,0.028627,0.00066021,-0.039903,-0.10263,0.038369,0.016599,-0.056181,0.095574,-0.034543,0.029769,-0.11403,0.040753,0.078361,-0.017166,0.061763,-0.10171,0.033258,-0.047321,0.081132,-0.058832,-0.095101
-0.004165,-0.092536,-0.041676,0.030701,-0.005206,-0.03587,-0.10686,0.030501,0.015933,-0.052616,0.08906,-0.018571,0.039526,-0.12054,0.025384,0.072747,-0.024791,0.073504,-0.098636,0.025849,-0.048037,0.081537,-0.056351,-0.10728
0.00278,-0.091162,-0.04584,0.033909,-0.014209,-0.032192,-0.11137,0.021895,0.012417,-0.047441,0.085093,0.0013437,0.044803,-0.12977,0.0067709,0.068888,-0.025688,0.075754,-0.092362,0.017627,-0.056684,0.083139,-0.063631,-0.11628
0.0087249,-0.094502,-0.05032,0.037012,-0.026781,-0.026925,-0.11555,0.014523,0.0095466,-0.04789,0.085184,0.021913,0.044385,-0.13851,-0.01502,0.072596,-0.022711,0.074403,-0.082881,0.011272,-0.069026,0.089712,-0.072152,-0.123
0.011028,-0.096142,-0.051278,0.039062,-0.040565,-0.014283,-0.1183,0.010192,0.010474,-0.056468,0.086864,0.040221,0.040349,-0.14068,-0.037791,0.086266,-0.020556,0.074253,-0.071847,0.0077806,-0.078985,0.10227,-0.073219,-0.12857
0.0096168,-0.093078,-0.047466,0.040128,-0.051198,0.01137,-0.11817,0.0094624,0.01613,-0.069755,0.08723,0.055179,0.035968,-0.13156,-0.059225,0.10616,-0.021659,0.07559,-0.061858,0.0059819,-0.082745,0.11744,-0.063921,-0.13372
0.0071065,-0.088123,-0.042094,0.041195,-0.055176,0.050931,-0.11413,0.011027,0.024448,-0.082201,0.086162,0.066998,0.033157,-0.11242,-0.078835,0.12395,-0.024432,0.075724,-0.055057,0.0037732,-0.080501,0.12886,-0.047849,-0.13856
0.0068385,-0.087214,-0.040393,0.043325,-0.052517,0.098596,-0.10655,0.012187,0.031361,-0.09083,0.086211,0.075308,0.031606,-0.091263,-0.09784,0.13174,-0.025256,0.073028,-0.051853,-8.5165e-005,-0.07504,0.13074,-0.030759,-0.14273
0.010275,-0.093947,-0.045295,0.046705,-0.046921,0.14395,-0.09736,0.010367,0.033309,-0.096647,0.089474,0.07803,0.02993,-0.07854,-0.11749,0.12718,-0.022249,0.069169,-0.050771,-0.0051342,-0.069097,0.12147,-0.015702,-0.14564
0.01577,-0.10587,-0.055257,0.05034,-0.043264,0.17681,-0.089,0.0046829,0.029775,-0.10223,0.094604,0.072526,0.027373,-0.080268,-0.13801,0.11471,-0.017324,0.067712,-0.049785,-0.0098551,-0.063987,0.10493,-0.0019649,-0.14654
0.019766,-0.11551,-0.066015,0.052641,-0.04455,0.19183,-0.082647,-0.0035726,0.023951,-0.10848,0.096947,0.058146,0.024426,-0.093736,-0.15931,0.10233,-0.014697,0.071081,-0.048211,-0.013019,-0.060201,0.088669,0.012014,-0.14447
0.01962,-0.11541,-0.074256,0.052497,-0.050735,0.19029,-0.077249,-0.011879,0.020662,-0.11371,0.092045,0.037688,0.022072,-0.10936,-0.18227,0.095974,-0.017322,0.079168,-0.047423,-0.0146,-0.058433,0.079792,0.025547,-0.1385
0.015917,-0.10323,-0.079588,0.050018,-0.060002,0.17855,-0.070367,-0.018124,0.022826,-0.1154,0.079603,0.016061,0.020751,-0.1177,-0.20837,0.095803,-0.024546,0.090621,-0.049438,-0.015749,-0.059239,0.08059,0.035959,-0.12851
0.012382,-0.083366,-0.083326,0.046379,-0.070943,0.16485,-0.060393,-0.021721,0.029184,-0.11258,0.064454,-0.0028909,0.020131,-0.11637,-0.2377,0.096844,-0.033019,0.10483,-0.054405,-0.01812,-0.061504,0.086735,0.041887,-0.11581
0.013308,-0.064096,-0.085974,0.042907,-0.083588,0.15612,-0.048351,-0.023565,0.035315,-0.10651,0.053391,-0.018601,0.019735,-0.11146,-0.26723,0.093309,-0.039814,0.122,-0.059346,-0.023127,-0.061779,0.0897,0.045802,-0.10288
0.020374,-0.052505,-0.086505,0.040236,-0.098661,0.15611,-0.037598,-0.025143,0.037252,-0.099615,0.050218,-0.033072,0.019514,-0.1121,-0.29213,0.083228,-0.04471,0.14094,-0.059634,-0.031352,-0.05618,0.082634,0.052611,-0.091987
0.031261,-0.050587,-0.084304,0.038246,-0.11616,0.16484,-0.031408,-0.027648,0.03466,-0.093965,0.052974,-0.047995,0.019639,-0.12258,-0.30957,0.069889,-0.049534,0.15719,-0.052174,-0.042159,-0.043894,0.06594,0.06529,-0.083469
0.041106,-0.054709,-0.081417,0.036783,-0.13471,0.17891,-0.030282,-0.031638,0.030803,-0.090717,0.055611,-0.062456,0.019801,-0.13843,-0.32183,0.059131,-0.055331,0.16405,-0.037627,-0.053611,-0.029065,0.048055,0.081821,-0.07542
0.045697,-0.058347,-0.082033,0.036329,-0.15201,0.19244,-0.03124,-0.0371,0.029361,-0.090483,0.0528,-0.073325,0.018954,-0.14967,-0.33548,0.054768,-0.060249,0.15684,-0.019841,-0.062977,-0.018631,0.039804,0.0967,-0.065286
0.04403,-0.056181,-0.08891,0.037801,-0.16561,0.19869,-0.029832,-0.043517,0.031074,-0.093623,0.044002,-0.077823,0.016051,-0.14866,-0.35647,0.055851,-0.060461,0.13708,-0.0032423,-0.067877,-0.017173,0.045968,0.10581,-0.052268
0.038497,-0.047146,-0.099951,0.041496,-0.17335,0.19234,-0.023373,-0.049887,0.033349,-0.099968,0.033607,-0.075826,0.011226,-0.13609,-0.38517,0.0579,-0.05361,0.11307,0.0094063,-0.06756,-0.022923,0.060749,0.10997,-0.038375
0.032786,-0.034727,-0.10864,0.046123,-0.17367,0.17202,-0.012848,-0.05496,0.033134,-0.10839,0.027245,-0.069889,0.0062241,-0.12043,-0.41512,0.056923,-0.041823,0.095474,0.017317,-0.063441,-0.028597,0.071422,0.11377,-0.026967
0.029256,-0.024346,-0.10875,0.049027,-0.16649,0.14213,-0.0019598,-0.057851,0.030244,-0.11699,0.02745,-0.063233,0.0034507,-0.11157,-0.43688,0.052716,-0.031404,0.090571,0.020675,-0.058367,-0.026755,0.06775,0.12063,-0.019891
0.0277,-0.019368,-0.099514,0.047702,-0.15414,0.11228,0.0058947,-0.058628,0.027885,-0.12384,0.032106,-0.057678,0.0042111,-0.11389,-0.44407,0.048637,-0.028912,0.096012,0.020093,-0.054982,-0.015359,0.049532,0.129,-0.015805
0.026149,-0.018253,-0.086751,0.041539,-0.14113,0.093416,0.010237,-0.058265,0.029825,-0.12766,0.036551,-0.05323,0.0075703,-0.12387,-0.43703,0.048198,-0.03641,0.10248,0.017166,-0.054284,0.0010301,0.026005,0.13329,-0.011406
0.022743,-0.014886,-0.078599,0.03238,-0.13191,0.091545,0.01358,-0.057833,0.036799,-0.12776,0.037224,-0.049206,0.010797,-0.13321,-0.42214,0.051593,-0.049593,0.10042,0.014954,-0.055392,0.01528,0.0078352,0.12864,-0.0047288
0.017059,-0.0022456,-0.079423,0.023367,-0.12763,0.10299,0.018957,-0.05767,0.045428,-0.12351,0.033825,-0.045414,0.01109,-0.13424,-0.40745,0.055263,-0.060442,0.087205,0.01689,-0.056657,0.023268,-0.0011587,0.1151,0.0023795
0.010014,0.022693,-0.086893,0.016945,-0.1248,0.11527,0.027052,-0.057399,0.050563,-0.11457,0.02863,-0.042178,0.0072721,-0.12384,-0.39816,0.054753,-0.062612,0.069156,0.024451,-0.057173,0.026251,-0.0055745,0.0977,0.005019
0.0028224,0.055988,-0.094437,0.013567,-0.1177,0.11464,0.035449,-0.056872,0.048958,-0.10184,0.024071,-0.039413,0.0002584,-0.10424,-0.39457,0.04822,-0.055572,0.05674,0.035706,-0.057457,0.02837,-0.012731,0.082513,-0.0010137
-0.0038327,0.087917,-0.096633,0.011974,-0.10293,0.095818,0.040708,-0.057053,0.041301,-0.088474,0.02083,-0.035977,-0.0078373,-0.081433,-0.39304,0.037547,-0.044463,0.056349,0.046515,-0.05879,0.03201,-0.025569,0.07256,-0.015429
-0.009741,0.10799,-0.092914,0.010583,-0.082521,0.066266,0.041492,-0.059728,0.031376,-0.079137,0.017801,-0.030185,-0.015082,-0.062428,-0.3888,0.026414,-0.035887,0.065121,0.053696,-0.06183,0.035478,-0.040524,0.066784,-0.032832
-0.014628,0.11097,-0.086925,0.0086756,-0.062476,0.040769,0.039957,-0.065985,0.023531,-0.077471,0.013584,-0.021119,-0.02055,-0.052162,-0.37822,0.017367,-0.032979,0.073007,0.057413,-0.065709,0.034996,-0.051424,0.0623,-0.046072
-0.01801,0.10009,-0.082857,0.00645,-0.04777,0.029866,0.040058,-0.074805,0.020518,-0.083323,0.0080519,-0.0095456,-0.024288,-0.050657,-0.35983,0.010464,-0.033491,0.07052,0.060625,-0.068424,0.028925,-0.054958,0.057315,-0.051093
-0.019755,0.085251,-0.0823,0.0041758,-0.038074,0.031431,0.04418,-0.083245,0.02282,-0.092265,0.0028153,0.0024012,-0.026874,-0.052171,-0.33395,0.0042069,-0.03216,0.055915,0.066215,-0.068201,0.020081,-0.052672,0.052146,-0.04954
-0.020706,0.077073,-0.084022,0.0015125,-0.02805,0.032808,0.051084,-0.088397,0.029166,-0.09833,0.00037296,0.012531,-0.029171,-0.047946,-0.30206,-0.00269,-0.025258,0.03605,0.074485,-0.064784,0.013872,-0.048649,0.048019,-0.047122
-0.022534,0.080415,-0.086026,-0.0022276,-0.011978,0.021962,0.057065,-0.089565,0.037453,-0.09818,0.0026289,0.019873,-0.032277,-0.031872,-0.26637,-0.010479,-0.013672,0.020538,0.083166,-0.059701,0.013914,-0.04614,0.045389,-0.04913
-0.026677,0.091772,-0.087392,-0.0071541,0.0114,-0.0019166,0.059268,-0.088713,0.045665,-0.093374,0.0096988,0.025034,-0.03721,-0.0053366,-0.22967,-0.018803,-0.002174,0.014224,0.089519,-0.055376,0.019156,-0.046544,0.043524,-0.056685
-0.033203,0.10227,-0.088254,-0.012265,0.038008,-0.02768,0.058117,-0.088688,0.05262,-0.088755,0.019589,0.029588,-0.044056,0.022915,-0.19481,-0.027271,0.0043531,0.014088,0.092284,-0.053742,0.025136,-0.050748,0.041456,-0.066481
-0.04056,0.10417,-0.088539,-0.016059,0.062025,-0.041971,0.056639,-0.090749,0.058238,-0.088144,0.028811,0.035191,-0.051182,0.042595,-0.164,-0.035324,0.0046462,0.012558,0.091808,-0.055161,0.02812,-0.060129,0.03898,-0.073844
-0.046453,0.096175,-0.087289,-0.017931,0.080555,-0.040763,0.057458,-0.093608,0.062965,-0.090918,0.033625,0.043086,-0.055611,0.049185,-0.13813,-0.041806,0.0017935,0.0039349,0.088825,-0.058199,0.028151,-0.075267,0.036587,-0.076295
-0.049229,0.084039,-0.083492,-0.019108,0.095363,-0.032525,0.06048,-0.094776,0.066671,-0.092376,0.031491,0.054159,-0.054962,0.046896,-0.1167,-0.04532,0.00047483,-0.011397,0.083609,-0.060334,0.028128,-0.093538,0.034588,-0.074797
-0.048821,0.076233,-0.077406,-0.022128,0.1106,-0.030502,0.06351,-0.092903,0.06814,-0.087677,0.022307,0.069137,-0.049819,0.044804,-0.098502,-0.045422,0.0030144,-0.027849,0.07643,-0.059346,0.029957,-0.10874,0.032573,-0.072124
-0.046717,0.078307,-0.070592,-0.02904,0.12888,-0.041254,0.065021,-0.088919,0.06601,-0.076096,0.008922,0.088555,-0.044331,0.049446,-0.082348,-0.043345,0.0074805,-0.039228,0.068521,-0.05475,0.031804,-0.11425,0.029941,-0.070208
-0.044997,0.089805,-0.064193,-0.039645,0.14908,-0.059545,0.066077,-0.085033,0.06057,-0.062069,-0.003621,0.11252,-0.043767,0.06002,-0.067391,-0.041008,0.0093823,-0.043216,0.061989,-0.048411,0.029536,-0.10779,0.026896,-0.068852
-0.044952,0.10523,-0.057056,-0.051166,0.16737,-0.07361,0.069246,-0.082658,0.054524,-0.052104,-0.010339,0.14052,-0.050299,0.069958,-0.052954,-0.038862,0.0055588,-0.042639,0.058313,-0.043665,0.021214,-0.093684,0.024745,-0.06655
-0.046015,0.11755,-0.045944,-0.059747,0.18015,-0.075609,0.075513,-0.081274,0.051387,-0.049904,-0.0092847,0.17141,-0.060415,0.073111,-0.038453,-0.034837,-0.0029512,-0.043102,0.056789,-0.043166,0.010157,-0.08022,0.025045,-0.062198
-0.04583,0.12154,-0.028444,-0.062843,0.18657,-0.067903,0.0824,-0.079191,0.052453,-0.053471,-0.0034398,0.20319,-0.066775,0.069136,-0.023816,-0.026023,-0.011404,-0.048957,0.054782,-0.046824,0.0030816,-0.073901,0.028387,-0.055956
-0.041772,0.11569,-0.006437,-0.060919,0.18888,-0.060099,0.085465,-0.075348,0.055157,-0.056368,0.00031191,0.23241,-0.063789,0.063772,-0.010046,-0.012039,-0.014739,-0.060366,0.050079,-0.05145,0.0045037,-0.074992,0.034002,-0.048731
-0.033255,0.10248,0.013131,-0.057279,0.19075,-0.060184,0.082,-0.070387,0.054843,-0.052229,-0.0047269,0.25376,-0.052678,0.064301,0.00093814,0.0030861,-0.011042,-0.073343,0.043476,-0.052698,0.012486,-0.078108,0.040483,-0.041205
-0.023129,0.087709,0.021793,-0.056054,0.19489,-0.06798,0.073511,-0.066012,0.048865,-0.039187,-0.02029,0.26106,-0.041448,0.074349,0.0075613,0.012853,-0.0024174,-0.08268,0.03901,-0.04805,0.019968,-0.077393,0.046806,-0.033655
-0.016599,0.07839,0.0155,-0.059607,0.20145,-0.076503,0.064562,-0.063317,0.039383,-0.021066,-0.041274,0.25015,-0.039142,0.092153,0.010163,0.01295,0.0070165,-0.085716,0.041034,-0.038616,0.020856,-0.072017,0.052694,-0.026653
-0.017766,0.079392,-0.001436,-0.067065,0.20817,-0.079387,0.059015,-0.061636,0.031967,-0.0045906,-0.058706,0.22236,-0.048693,0.11299,0.011365,0.0047613,0.013957,-0.084123,0.050227,-0.028315,0.015497,-0.067368,0.058214,-0.021604
-0.026155,0.090157,-0.017933,-0.075027,0.21219,-0.077131,0.057112,-0.058964,0.030842,0.0052029,-0.065807,0.18578,-0.064314,0.1329,0.014487,-0.0054478,0.017263,-0.0823,0.062009,-0.021103,0.010492,-0.070818,0.063324,-0.020145
-0.03624,0.10419,-0.022853,-0.079998,0.21216,-0.076384,0.05597,-0.053547,0.034884,0.0080231,-0.062642,0.15216,-0.075795,0.15019,0.021017,-0.011191,0.017366,-0.083634,0.069198,-0.018454,0.012893,-0.08545,0.067897,-0.022714
-0.041006,0.1128,-0.012308,-0.08082,0.20936,-0.083102,0.052803,-0.045313,0.03805,0.007907,-0.055666,0.13054,-0.076291,0.16398,0.029312,-0.010422,0.015118,-0.08783,0.067144,-0.018974,0.023887,-0.10686,0.071993,-0.02778
-0.037131,0.1112,0.0078812,-0.07927,0.20667,-0.09618,0.047685,-0.035972,0.034058,0.010151,-0.052539,0.12196,-0.067291,0.17208,0.035895,-0.0064272,0.011484,-0.091633,0.057222,-0.020105,0.037516,-0.12562,0.075783,-0.032826
-0.027597,0.10208,0.026589,-0.078418,0.20626,-0.10766,0.043296,-0.027837,0.021332,0.018177,-0.056439,0.11921,-0.056907,0.17123,0.038408,-0.0045053,0.0079716,-0.092164,0.04569,-0.020246,0.045425,-0.13348,0.07909,-0.036502
-0.019273,0.093276,0.035389,-0.08012,0.20777,-0.10953,0.042082,-0.022358,0.0040985,0.032353,-0.064439,0.11244,-0.053254,0.16006,0.037632,-0.0074416,0.0065536,-0.089567,0.038731,-0.019518,0.043385,-0.12835,0.081161,-0.039996
-0.017288,0.090884,0.034059,-0.083731,0.20858,-0.10099,0.043668,-0.019469,-0.011049,0.050732,-0.070874,0.096245,-0.058438,0.14181,0.036659,-0.013465,0.0084783,-0.086405,0.037791,-0.018921,0.034027,-0.11468,0.081187,-0.046111
-0.020907,0.093644,0.02952,-0.086971,0.20594,-0.08959,0.045016,-0.018064,-0.019909,0.070215,-0.072389,0.07299,-0.06762,0.12339,0.037903,-0.017942,0.012954,-0.08454,0.039007,-0.019016,0.023886,-0.099555,0.079177,-0.056652
-0.024473,0.093843,0.029498,-0.087962,0.19927,-0.085035,0.04316,-0.017005,-0.022846,0.087102,-0.070225,0.049884,-0.0732,0.11069,0.040748,-0.017022,0.017335,-0.082982,0.036993,-0.01945,0.017799,-0.088289,0.076173,-0.070497
-0.022489,0.084175,0.03638,-0.086482,0.19042,-0.091166,0.037991,-0.015819,-0.023153,0.097491,-0.068233,0.032804,-0.07038,0.10398,0.042112,-0.010297,0.01914,-0.079269,0.029546,-0.019545,0.015626,-0.082679,0.073372,-0.084311
-0.014311,0.064451,0.046141,-0.083476,0.18179,-0.10294,0.032583,-0.014659,-0.023687,0.098518,-0.069009,0.022067,-0.0601,0.098058,0.039429,-0.00088425,0.018291,-0.073264,0.019282,-0.019131,0.013714,-0.082155,0.070907,-0.095476
-0.0043908,0.042028,0.052628,-0.079669,0.17406,-0.1109,0.030824,-0.013723,-0.024941,0.090251,-0.071906,0.013187,-0.047901,0.087528,0.033221,0.0065257,0.017432,-0.069291,0.01105,-0.018713,0.0091375,-0.085531,0.06767,-0.10459
0.0018786,0.025558,0.053054,-0.074979,0.16568,-0.10905,0.03439,-0.012667,-0.025792,0.076568,-0.074369,0.0011772,-0.040157,0.0726,0.026836,0.0079688,0.019818,-0.073645,0.0076094,-0.01888,0.0026207,-0.091442,0.062569,-0.11506
0.0027452,0.01787,0.050031,-0.069332,0.15463,-0.099383,0.041454,-0.010488,-0.025582,0.063465,-0.074725,-0.015695,-0.040287,0.059719,0.023696,0.001595,0.026473,-0.088836,0.0074207,-0.019597,-0.0022689,-0.097875,0.056115,-0.12991
0.0011001,0.01438,0.048939,-0.063714,0.14093,-0.089608,0.047939,-0.0060351,-0.025249,0.05548,-0.073487,-0.035411,-0.046997,0.055908,0.024753,-0.012047,0.035017,-0.10957,0.0063146,-0.020045,-0.0024517,-0.10252,0.050628,-0.14845
0.0013816,0.0081204,0.05336,-0.05988,0.1272,-0.086377,0.05011,0.0010725,-0.026551,0.052962,-0.072205,-0.05434,-0.055253,0.061848,0.028426,-0.030413,0.041108,-0.12468,0.0014572,-0.019162,0.00212,-0.1044,0.048599,-0.16582
0.0055305,-0.0035867,0.062382,-0.058621,0.11675,-0.089912,0.046611,0.0097159,-0.030431,0.052716,-0.071591,-0.069438,-0.05935,0.070294,0.032665,-0.049729,0.04134,-0.12455,-0.0058929,-0.016453,0.0088672,-0.10513,0.050588,-0.17579
0.011613,-0.016874,0.071463,-0.058408,0.11049,-0.094217,0.038848,0.017407,-0.036276,0.051675,-0.071138,-0.078915,-0.056355,0.071653,0.036726,-0.066073,0.035443,-0.1084,-0.011184,-0.01258,0.015139,-0.10767,0.054621,-0.17476
0.015927,-0.025064,0.075663,-0.056251,0.10551,-0.092288,0.029897,0.02152,-0.042761,0.050446,-0.070477,-0.082052,-0.047786,0.061828,0.040915,-0.076613,0.026399,-0.085639,-0.010209,-0.009329,0.02025,-0.11312,0.057683,-0.16369
0.016262,-0.024504,0.072795,-0.050481,0.096712,-0.081882,0.022837,0.020997,-0.049261,0.053366,-0.070535,-0.079622,-0.038318,0.045281,0.04505,-0.080548,0.018619,-0.069501,-0.0025017,-0.0088343,0.025182,-0.11846,0.057875,-0.14674
0.013304,-0.017222,0.064683,-0.042862,0.080404,-0.067428,0.019323,0.017307,-0.056257,0.064612,-0.072746,-0.075041,-0.032296,0.030687,0.04783,-0.079222,0.015422,-0.067677,0.0082688,-0.012248,0.030614,-0.11805,0.05522,-0.12819
0.0093206,-0.0085681,0.056082,-0.037598,0.057015,-0.056867,0.018896,0.013723,-0.064152,0.083405,-0.07686,-0.074551,-0.030611,0.023355,0.048171,-0.075336,0.01728,-0.077079,0.01705,-0.018546,0.035562,-0.10839,0.050616,-0.11013
0.0057895,-0.0025999,0.051888,-0.037616,0.030876,-0.055925,0.019323,0.013225,-0.071638,0.10248,-0.079852,-0.084894,-0.030403,0.021252,0.047125,-0.071793,0.021805,-0.086775,0.02086,-0.02445,0.038141,-0.09204,0.04436,-0.092263
0.0023681,0.00049651,0.054051,-0.041406,0.0072323,-0.063961,0.017937,0.016518,-0.075428,0.11172,-0.077653,-0.10915,-0.027787,0.017791,0.047968,-0.070853,0.025602,-0.086744,0.020148,-0.026001,0.03774,-0.077031,0.036025,-0.073281
-0.0019883,0.0030605,0.06007,-0.043641,-0.01118,-0.074341,0.013414,0.021705,-0.072136,0.10493,-0.068628,-0.14374,-0.02129,0.008393,0.053798,-0.073874,0.026963,-0.075534,0.017361,-0.021132,0.036372,-0.071534,0.025811,-0.052114
-0.007077,0.0065204,0.064413,-0.039499,-0.025433,-0.079202,0.0068784,0.025886,-0.061053,0.084992,-0.055612,-0.17933,-0.013115,-0.0051372,0.064584,-0.081342,0.027516,-0.060969,0.014483,-0.01146,0.037564,-0.077739,0.015621,-0.028318
-0.010729,0.0093477,0.062387,-0.029029,-0.038858,-0.075409,0.0014115,0.027364,-0.045505,0.063347,-0.044277,-0.20581,-0.0072897,-0.015909,0.07653,-0.09278,0.031291,-0.053667,0.011859,-0.0017137,0.043452,-0.08977,0.0082425,-0.001983
-0.010187,0.008309,0.053743,-0.017593,-0.054153,-0.067363,8.2493e-005,0.026699,-0.031315,0.05327,-0.038847,-0.21812,-0.0064657,-0.017391,0.084629,-0.10658,0.041457,-0.058783,0.0089638,0.003135,0.052492,-0.097378,0.0050423,0.026066
-0.0044717,0.0017995,0.042964,-0.011762,-0.071543,-0.06418,0.0038181,0.025863,-0.023237,0.061004,-0.038747,-0.21891,-0.010108,-0.0084485,0.086416,-0.12022,0.057073,-0.072413,0.0056828,0.0010765,0.060014,-0.092777,0.0044705,0.053871
0.0043244,-0.0078709,0.035609,-0.014142,-0.089229,-0.072774,0.010644,0.026373,-0.022027,0.080957,-0.039119,-0.21615,-0.015345,0.0056028,0.083735,-0.13126,0.072659,-0.085052,0.002431,-0.005763,0.06155,-0.075739,0.0031625,0.078645
0.012083,-0.0155,0.033613,-0.021529,-0.10527,-0.091869,0.016842,0.02809,-0.02446,0.099042,-0.034908,-0.21761,-0.01936,0.016233,0.081077,-0.13859,0.081374,-0.088793,-0.00090599,-0.012792,0.056472,-0.053466,-0.0010625,0.098214
0.015307,-0.01673,0.033693,-0.027816,-0.11888,-0.11188,0.019137,0.029638,-0.026255,0.10255,-0.025126,-0.22589,-0.021086,0.016802,0.08198,-0.14304,0.07964,-0.08247,-0.0055788,-0.016046,0.048917,-0.035463,-0.0070647,0.11265
0.013274,-0.01146,0.030506,-0.028907,-0.13006,-0.1213,0.016399,0.029907,-0.025464,0.08961,-0.013786,-0.2373,-0.020993,0.0063896,0.086582,-0.14671,0.069662,-0.07128,-0.012849,-0.014323,0.044895,-0.02704,-0.011259,0.12444
0.0080164,-0.0040253,0.021924,-0.025437,-0.13802,-0.1151,0.0099041,0.029165,-0.023531,0.070714,-0.0067816,-0.24473,-0.019674,-0.0097503,0.092227,-0.15116,0.057927,-0.062172,-0.021932,-0.0090011,0.047606,-0.025879,-0.010857,0.13665
0.0023161,0.00014329,0.011674,-0.02128,-0.14056,-0.098355,0.0023024,0.028781,-0.023286,0.060541,-0.007283,-0.24217,-0.016912,-0.023382,0.096284,-0.15608,0.050871,-0.059182,-0.029315,-0.0021911,0.054644,-0.023988,-0.006535,0.15019
-0.0023778,-0.0013724,0.0067992,-0.019623,-0.1352,-0.082352,-0.0038289,0.029848,-0.025812,0.06613,-0.013291,-0.22807,-0.012145,-0.028303,0.09847,-0.15941,0.050951,-0.06185,-0.030807,0.0049631,0.05956,-0.013675,-0.0020532,0.16277
-0.0062817,-0.0065337,0.012001,-0.020209,-0.1214,-0.076056,-0.0070757,0.032072,-0.029069,0.081051,-0.019164,-0.20572,-0.0056682,-0.024018,0.1006,-0.15886,0.055731,-0.066657,-0.024961,0.012532,0.05684,0.0067166,-0.0011573,0.17057
-0.0098148,-0.011202,0.025708,-0.019924,-0.10199,-0.079813,-0.0075849,0.033967,-0.029494,0.090615,-0.019806,-0.18094,0.00088752,-0.015436,0.1042,-0.1535,0.06014,-0.069303,-0.014766,0.020764,0.046458,0.031458,-0.0045747,0.17134
-0.012083,-0.013101,0.041198,-0.015861,-0.082277,-0.085933,-0.0067793,0.034223,-0.025111,0.083924,-0.014247,-0.15822,0.0055608,-0.008654,0.10831,-0.14405,0.059923,-0.066325,-0.0057388,0.029018,0.034297,0.051492,-0.0097652,0.16652
-0.011074,-0.013838,0.051638,-0.0080073,-0.067545,-0.085143,-0.0065215,0.032986,-0.017358,0.062641,-0.0060007,-0.13769,0.0077636,-0.006092,0.10974,-0.13185,0.053968,-0.056178,-0.0018257,0.035721,0.027915,0.06082,-0.013542,0.16035
-0.005543,-0.017223,0.054634,0.00066116,-0.060563,-0.07343,-0.0080344,0.031883,-0.010049,0.039145,-9.6021e-005,-0.1147,0.009045,-0.0050218,0.10548,-0.11764,0.044382,-0.040268,-0.0027052,0.039398,0.030939,0.060293,-0.015142,0.1569
0.0032758,-0.025474,0.052582,0.0065595,-0.060607,-0.054257,-0.011149,0.032721,-0.0064374,0.026,0.00080486,-0.082991,0.011955,-0.00077306,0.095454,-0.1015,0.034725,-0.023209,-0.0049218,0.039864,0.040521,0.056038,-0.017066,0.15743
0.011992,-0.036678,0.049105,0.0082712,-0.064258,-0.035368,-0.014428,0.035996,-0.0068516,0.026092,-0.0017897,-0.039888,0.017773,0.008296,0.083112,-0.084051,0.027736,-0.010978,-0.0057307,0.038584,0.049753,0.054122,-0.023054,0.16001
0.017406,-0.045633,0.045249,0.007506,-0.067191,-0.02348,-0.016178,0.040474,-0.0087224,0.031689,-0.0037525,0.0099123,0.025062,0.018676,0.073732,-0.067351,0.023813,-0.0071371,-0.0059365,0.037899,0.052922,0.05611,-0.035042,0.16149
0.018915,-0.047261,0.039038,0.0075946,-0.065988,-0.020854,-0.015597,0.044152,-0.008703,0.032457,-0.0018828,0.055406,0.030513,0.024472,0.071703,-0.054276,0.020956,-0.0097908,-0.0089086,0.03959,0.049287,0.059085,-0.051612,0.15972
0.018837,-0.039826,0.028507,0.010783,-0.059388,-0.025417,-0.013188,0.045713,-0.0050487,0.024689,0.0034574,0.085387,0.031566,0.022524,0.078575,-0.046636,0.016041,-0.012241,-0.016605,0.043709,0.042563,0.059566,-0.069057,0.15451
0.02032,-0.025742,0.015003,0.01644,-0.048707,-0.033251,-0.010225,0.045248,0.0014306,0.013696,0.008718,0.095646,0.028617,0.015076,0.092647,-0.043688,0.0066812,-0.0075465,-0.026412,0.048443,0.037044,0.05738,-0.083965,0.14681
0.024531,-0.0099248,0.0033002,0.021534,-0.03728,-0.041153,-0.00793,0.043774,0.0081898,0.0081283,0.010145,0.091749,0.024876,0.0074956,0.10984,-0.042556,-0.0073553,0.0064256,-0.032049,0.051158,0.033907,0.055945,-0.095173,0.13741
0.029389,0.0027861,-0.0017778,0.023005,-0.029009,-0.047706,-0.0071507,0.042171,0.012654,0.012157,0.0068274,0.084859,0.023919,0.0032596,0.1253,-0.040298,-0.023866,0.025583,-0.028137,0.050044,0.030721,0.059075,-0.10376,0.1263
0.030874,0.0095205,0.00082051,0.020193,-0.026495,-0.052789,-0.0084862,0.040572,0.013641,0.022572,0.0012821,0.083678,0.027042,0.001116,0.13545,-0.035845,-0.039183,0.042905,-0.014574,0.045345,0.024087,0.067657,-0.11141,0.11336
0.025991,0.0099958,0.0076319,0.015427,-0.029653,-0.056426,-0.012133,0.038662,0.011795,0.032514,-0.0027999,0.088867,0.032557,-0.0026326,0.13963,-0.030271,-0.049835,0.053505,0.003107,0.039257,0.012758,0.079316,-0.11878,0.099398
0.015376,0.0059957,0.01367,0.012282,-0.035674,-0.058093,-0.017089,0.036424,0.0089812,0.037404,-0.0035845,0.094345,0.037359,-0.0087642,0.14052,-0.025506,-0.05409,0.057307,0.017735,0.034469,-0.001456,0.091006,-0.12497,0.086563
0.0037131,7.5646e-005,0.016421,0.012915,-0.040521,-0.056998,-0.020532,0.034457,0.0070433,0.037423,-0.0023133,0.093997,0.039124,-0.012129,0.1425,-0.022941,-0.052693,0.057679,0.025389,0.032307,-0.015351,0.10156,-0.12817,0.077709
-0.0025357,-0.0059906,0.017326,0.016609,-0.041217,-0.052933,-0.018723,0.0335,0.0066321,0.035053,-0.0018624,0.087791,0.037344,-0.0048437,0.14875,-0.023052,-0.048515,0.057928,0.027113,0.03189,-0.02661,0.11154,-0.12664,0.074937
0.001075,-0.01216,0.019651,0.020715,-0.037539,-0.046649,-0.0095908,0.033622,0.00686,0.031195,-0.0041899,0.082097,0.032918,0.016112,0.15899,-0.025789,-0.045279,0.058899,0.026456,0.03095,-0.034586,0.12069,-0.11926,0.078335
0.014,-0.019643,0.02489,0.023053,-0.031944,-0.039085,0.0047994,0.033902,0.006118,0.024252,-0.009048,0.084246,0.027342,0.043555,0.1699,-0.030708,-0.045882,0.059291,0.025599,0.027649,-0.039327,0.12606,-0.10599,0.085735
0.030694,-0.029101,0.030933,0.023652,-0.027712,-0.030041,0.018383,0.033015,0.0035821,0.012865,-0.014916,0.09631,0.022403,0.062925,0.17793,-0.036512,-0.051065,0.057707,0.023797,0.021828,-0.040521,0.12338,-0.088296,0.093781
0.043918,-0.03893,0.03348,0.024307,-0.026634,-0.017793,0.024521,0.030332,0.00024752,-0.0010534,-0.020899,0.11335,0.020068,0.062583,0.18229,-0.040887,-0.059137,0.054362,0.019262,0.014674,-0.037983,0.11109,-0.069504,0.099706
0.049311,-0.045366,0.029342,0.026523,-0.027995,-0.00053083,0.020471,0.026657,-0.0015152,-0.012614,-0.027501,0.12713,0.021733,0.043722,0.18556,-0.041596,-0.066992,0.051232,0.012113,0.007314,-0.033316,0.093412,-0.053985,0.10269
0.048017,-0.044875,0.018929,0.029896,-0.029616,0.021483,0.0093329,0.023936,0.00021222,-0.017558,-0.03549,0.13173,0.026965,0.020958,0.19141,-0.03841,-0.071955,0.050922,0.0051667,-0.0001129,-0.030534,0.079051,-0.044895,0.10384
0.045471,-0.037274,0.0061635,0.032548,-0.029999,0.045339,-0.002244,0.024014,0.0050309,-0.015601,-0.044207,0.12631,0.033077,0.011751,0.2014,-0.034004,-0.073397,0.055298,0.0017284,-0.0078701,-0.033981,0.075395,-0.041759,0.10491
0.04738,-0.027062,-0.0038395,0.033162,-0.029671,0.067731,-0.0088268,0.027229,0.0099504,-0.010221,-0.051378,0.11361,0.036604,0.022536,0.21361,-0.03235,-0.073137,0.064647,0.0027403,-0.01523,-0.044618,0.082412,-0.040185,0.10659
0.056043,-0.021497,-0.0076365,0.032575,-0.030598,0.08841,-0.0095986,0.031842,0.01122,-0.0053059,-0.05506,0.096263,0.035922,0.043189,0.22418,-0.035327,-0.074347,0.077493,0.00625,-0.020055,-0.058076,0.091444,-0.034777,0.10783
0.06958,-0.026293,-0.0051626,0.033233,-0.03432,0.11142,-0.0078116,0.034803,0.0070552,-0.0022093,-0.056002,0.074719,0.032677,0.05511,0.23035,-0.040311,-0.079617,0.09093,0.0096731,-0.020317,-0.067058,0.090825,-0.023482,0.10661
0.084047,-0.041642,0.00044895,0.036841,-0.040571,0.14211,-0.0071269,0.033566,-0.00082603,-2.9552e-005,-0.057874,0.048234,0.03041,0.046646,0.23254,-0.041167,-0.089286,0.1013,0.012382,-0.016373,-0.066835,0.07465,-0.009713,0.10158
0.096205,-0.061366,0.0047101,0.042348,-0.047533,0.18186,-0.0081999,0.027821,-0.0081203,0.0017542,-0.064564,0.017607,0.03137,0.023043,0.23388,-0.032383,-0.10093,0.10521,0.015853,-0.011569,-0.059202,0.047804,6.2896e-005,0.09321
0.10484,-0.076115,0.0043807,0.046244,-0.053226,0.2247,-0.0083979,0.019965,-0.010667,0.0017101,-0.076545,-0.013186,0.034418,0.0024756,0.23795,-0.013258,-0.11019,0.10072,0.021283,-0.0099703,-0.050936,0.022666,0.0016633,0.083635
0.11037,-0.07889,-0.00049783,0.045169,-0.056636,0.25938,-0.0046615,0.013802,-0.0069392,-0.0020348,-0.089625,-0.038131,0.036122,0.0014847,0.24627,0.01119,-0.11255,0.088495,0.02735,-0.012825,-0.047564,0.009374,-0.0030672,0.075309
0.11404,-0.069369,-0.0064712,0.038793,-0.057781,0.2758,0.0031725,0.012207,0.0014165,-0.0089219,-0.097615,-0.052333,0.034054,0.021928,0.25759,0.03336,-0.10527,0.072188,0.030773,-0.017003,-0.047867,0.007204,-0.0075761,0.069543
0.11751,-0.053983,-0.0089148,0.030543,-0.057214,0.27135,0.011568,0.015296,0.011027,-0.015309,-0.097041,-0.054834,0.029086,0.049885,0.26888,0.047779,-0.088798,0.057478,0.029338,-0.017259,-0.044486,0.0042835,-0.0059808,0.066041
0.12262,-0.041404,-0.0054841,0.025431,-0.055869,0.25263,0.015797,0.020418,0.01877,-0.017344,-0.089983,-0.048999,0.02436,0.066734,0.27718,0.05384,-0.066845,0.049589,0.024364,-0.010676,-0.030659,-0.013445,0.0022559,0.063852
0.13043,-0.036506,0.0017029,0.026465,-0.055272,0.23138,0.013778,0.023999,0.022836,-0.014636,-0.082486,-0.04027,0.021876,0.062937,0.28099,0.054844,-0.04491,0.050321,0.019922,0.00062194,-0.0073037,-0.050645,0.012486,0.063112
0.13985,-0.03718,0.0071777,0.032362,-0.057252,0.21762,0.0080849,0.023914,0.022652,-0.010725,-0.079813,-0.033042,0.020111,0.043912,0.28038,0.054629,-0.027579,0.056544,0.019327,0.011101,0.016189,-0.097498,0.019465,0.066224
0.14744,-0.036396,0.0061565,0.038353,-0.06263,0.21428,0.0043801,0.020683,0.018475,-0.0094878,-0.082588,-0.028992,0.015188,0.024594,0.27603,0.054647,-0.016051,0.06176,0.022251,0.016549,0.02876,-0.13545,0.021873,0.077176
0.14923,-0.027856,-0.0014841,0.039634,-0.069849,0.21642,0.0072929,0.01671,0.011298,-0.011015,-0.087076,-0.027904,0.0046941,0.018098,0.26822,0.053573,-0.0075432,0.060298,0.025301,0.017732,0.026547,-0.14981,0.022534,0.098828
0.14364,-0.010776,-0.010673,0.034917,-0.075259,0.21517,0.016877,0.014323,0.002851,-0.011357,-0.08909,-0.02987,-0.0093967,0.027234,0.25676,0.049336,0.0026069,0.051359,0.025555,0.019637,0.016155,-0.13968,0.024475,0.1296
0.13293,0.0097499,-0.014858,0.027337,-0.075635,0.20376,0.028435,0.014179,-0.00492,-0.0066462,-0.08771,-0.036444,-0.02155,0.044073,0.24197,0.041818,0.017243,0.039652,0.023619,0.02692,0.0093711,-0.11762,0.026961,0.16212
0.12136,0.026596,-0.011148,0.021936,-0.071198,0.18213,0.035942,0.015141,-0.010812,0.0025189,-0.085382,-0.049207,-0.026664,0.056442,0.2258,0.03425,0.034643,0.031737,0.023175,0.039575,0.013717,-0.099163,0.025557,0.1856
0.11144,0.035229,-0.0026229,0.021669,-0.066299,0.15718,0.03643,0.015468,-0.014934,0.01107,-0.084577,-0.066647,-0.023812,0.056063,0.2115,0.032358,0.04902,0.030795,0.027365,0.052638,0.02676,-0.090161,0.016219,0.19163
0.10136,0.035626,0.0042503,0.025164,-0.066586,0.13808,0.031929,0.014152,-0.018217,0.014078,-0.084635,-0.082255,-0.016634,0.043172,0.20169,0.041587,0.054301,0.034148,0.03544,0.060148,0.038748,-0.08207,-0.00046737,0.18003
0.086232,0.030848,0.0050224,0.028099,-0.074575,0.12941,0.027468,0.011375,-0.021268,0.011434,-0.082153,-0.086329,-0.010385,0.02544,0.19602,0.063696,0.04865,0.035696,0.042928,0.059885,0.040976,-0.059199,-0.018879,0.16093
0.062277,0.024341,0.00095215,0.027018,-0.087297,0.12662,0.026869,0.0079605,-0.023719,0.0078422,-0.074661,-0.071138,-0.0084544,0.012579,0.19069,0.094501,0.036293,0.03117,0.045336,0.054919,0.032675,-0.012539,-0.032106,0.15082
0.03053,0.018308,-0.0021136,0.022294,-0.098226,0.11782,0.029787,0.0045736,-0.024667,0.0079898,-0.063811,-0.036115,-0.011133,0.010222,0.18077,0.1243,0.025091,0.021609,0.042088,0.050982,0.020894,0.05088,-0.036543,0.16418
-0.0031576,0.013704,0.0013181,0.017714,-0.10207,0.091163,0.032379,0.0014204,-0.023588,0.011603,-0.0546,0.01072,-0.016872,0.016872,0.16383,0.14142,0.021519,0.012062,0.037099,0.052299,0.014144,0.11099,-0.033549,0.20515
-0.031865,0.010768,0.011801,0.017145,-0.098572,0.043119,0.030854,-0.0014147,-0.020671,0.013283,-0.051013,0.056351,-0.023939,0.025729,0.14192,0.13748,0.02675,0.0068394,0.035368,0.059539,0.015628,0.14808,-0.027356,0.26421
-0.052013,0.009167,0.024457,0.021353,-0.092297,-0.018294,0.024802,-0.0035232,-0.016374,0.0074432,-0.052175,0.088944,-0.03057,0.029957,0.12012,0.11161,0.036617,0.0056402,0.038568,0.071201,0.021606,0.15601,-0.021666,0.32222
-0.064956,0.008042,0.032753,0.027731,-0.088825,-0.077659,0.017512,-0.0041564,-0.011027,-0.0061914,-0.052876,0.10255,-0.034009,0.027525,0.10297,0.07094,0.045131,0.0038847,0.04348,0.086361,0.025397,0.14495,-0.017994,0.35978
-0.074885,0.0067519,0.033227,0.032912,-0.090607,-0.12038,0.01318,-0.0026819,-0.0052106,-0.021551,-0.04825,0.097797,-0.030533,0.022064,0.09163,0.026619,0.048564,-0.00332,0.044631,0.10542,0.022676,0.13212,-0.016551,0.36659
-0.08528,0.0061984,0.027346,0.035597,-0.095659,-0.13891,0.013544,0.00091882,-0.00043207,-0.030584,-0.038328,0.079233,-0.017632,0.019383,0.084155,-0.01226,0.047073,-0.017196,0.038798,0.12767,0.013291,0.12902,-0.01792,0.34557
-0.096965,0.0094271,0.019468,0.036964,-0.099687,-0.13333,0.016767,0.0059151,0.0011518,-0.029246,-0.028139,0.052148,0.0031612,0.022705,0.078256,-0.043117,0.043216,-0.034488,0.027465,0.14795,-0.0011431,0.13562,-0.023333,0.30954
-0.10884,0.020315,0.013209,0.038591,-0.099492,-0.1077,0.019209,0.011069,-0.0016413,-0.020211,-0.023147,0.021169,0.025799,0.03054,0.073645,-0.069828,0.039274,-0.049938,0.015247,0.15638,-0.020396,0.14508,-0.033293,0.27304
-0.11973,0.040729,0.0095117,0.040282,-0.094991,-0.066967,0.018294,0.014989,-0.0073663,-0.010541,-0.024211,-0.0093441,0.042984,0.038557,0.071825,-0.098374,0.035821,-0.059513,0.0059075,0.14295,-0.045621,0.15295,-0.046245,0.24475
-0.12915,0.068165,0.0076475,0.040116,-0.088704,-0.017487,0.014025,0.016454,-0.012203,-0.0066591,-0.026801,-0.034832,0.051093,0.0433,0.073666,-0.13138,0.032352,-0.061942,-0.00037767,0.10437,-0.076045,0.16167,-0.058996,0.22494
-0.13632,0.095922,0.0074021,0.036602,-0.083619,0.030474,0.0083263,0.014803,-0.012569,-0.010542,-0.025275,-0.051491,0.052697,0.044437,0.077285,-0.16543,0.028797,-0.058231,-0.0061472,0.047827,-0.10606,0.17706,-0.068697,0.20857
-0.13917,0.11628,0.0097574,0.030631,-0.081187,0.062859,0.003341,0.010472,-0.0082151,-0.019356,-0.018246,-0.058263,0.054367,0.044075,0.078391,-0.19302,0.026214,-0.050539,-0.013241,-0.01191,-0.12655,0.20127,-0.074502,0.19055
-0.13525,0.12494,0.015245,0.025153,-0.080695,0.067322,0.00035312,0.0053052,-0.0030394,-0.027865,-0.010021,-0.057974,0.06146,0.044595,0.072893,-0.20759,0.02609,-0.041606,-0.0203,-0.06079,-0.13032,0.22956,-0.077396,0.16899
-0.12434,0.12386,0.02193,0.022842,-0.080137,0.041443,-0.00014892,0.0020782,-0.0025233,-0.031571,-0.0066735,-0.056114,0.07417,0.047417,0.05956,-0.20806,0.029085,-0.034479,-0.023724,-0.093356,-0.11733,0.25359,-0.078555,0.14482
-0.11037,0.12041,0.025716,0.023985,-0.077798,-0.0028892,0.0019407,0.0030605,-0.0095482,-0.028931,-0.010364,-0.057748,0.087942,0.0535,0.040575,-0.19975,0.034398,-0.031681,-0.021293,-0.11434,-0.095123,0.26712,-0.077981,0.11935
-0.10005,0.12274,0.02349,0.026523,-0.07354,-0.043815,0.0062132,0.0084432,-0.021885,-0.022051,-0.017196,-0.064845,0.097485,0.064175,0.019809,-0.19116,0.040199,-0.033772,-0.01495,-0.13286,-0.073813,0.2687,-0.074649,0.092714
-0.098493,0.1341,0.016524,0.028032,-0.069018,-0.061055,0.011211,0.015942,-0.033481,-0.015659,-0.020673,-0.076072,0.10074,0.080471,0.00049936,-0.18902,0.044581,-0.038518,-0.0098602,-0.15396,-0.059636,0.25962,-0.067702,0.064597
-0.10519,0.14989,0.010673,0.027628,-0.066673,-0.047237,0.014463,0.022221,-0.038695,-0.01443,-0.01759,-0.088966,0.099723,0.10096,-0.015846,-0.19475,0.046303,-0.041859,-0.010266,-0.17409,-0.052052,0.24087,-0.057354,0.036019
-0.114,0.1602,0.012424,0.026154,-0.06814,-0.01122,0.013661,0.025236,-0.036329,-0.019658,-0.010939,-0.10223,0.098228,0.1203,-0.028916,-0.20421,0.045005,-0.040376,-0.0158,-0.18419,-0.046224,0.21259,-0.044898,0.010138
-0.11772,0.15663,0.023637,0.024788,-0.073113,0.028646,0.0083413,0.025595,-0.030411,-0.027431,-0.0071322,-0.11586,0.098968,0.13071,-0.038549,-0.21006,0.041075,-0.033442,-0.021725,-0.17773,-0.038232,0.17585,-0.032466,-0.0089335
-0.11376,0.13891,0.039414,0.023694,-0.079486,0.056167,0.00064662,0.025691,-0.027151,-0.030286,-0.010122,-0.12902,0.10253,0.1264,-0.044397,-0.20502,0.035442,-0.023361,-0.02308,-0.15722,-0.028645,0.13295,-0.023254,-0.018423
-0.10615,0.11601,0.051237,0.02203,-0.084659,0.065668,-0.0056804,0.027296,-0.030361,-0.02208,-0.017793,-0.13823,0.10826,0.1079,-0.046473,-0.18418,0.029304,-0.013422,-0.019135,-0.13424,-0.022034,0.0846,-0.021671,-0.018586
-0.10184,0.10014,0.053108,0.019116,-0.087079,0.062127,-0.0075469,0.029822,-0.038724,-0.0028511,-0.023797,-0.13813,0.11546,0.082795,-0.045673,-0.14629,0.023716,-0.005542,-0.014154,-0.12305,-0.023484,0.027141,-0.032049,-0.012702
-0.10454,0.097604,0.045823,0.015386,-0.086944,0.054608,-0.0044581,0.030898,-0.046899,0.020152,-0.022953,-0.12519,0.12346,0.061464,-0.043504,-0.094163,0.019105,0.00065396,-0.013759,-0.13277,-0.035045,-0.045002,-0.055747,-0.0054673
-0.11132,0.10365,0.035983,0.012091,-0.085737,0.048934,0.0011877,0.028759,-0.049545,0.036479,-0.015236,-0.10114,0.13075,0.050464,-0.041262,-0.034689,0.01504,0.0067602,-0.020067,-0.16345,-0.054394,-0.13094,-0.088706,-0.0007153
-0.11512,0.10554,0.030702,0.010036,-0.08512,0.045007,0.0056248,0.02418,-0.045199,0.038736,-0.0049707,-0.073068,0.13473,0.048254,-0.039613,0.022363,0.010612,0.013578,-0.02981,-0.20768,-0.075916,-0.21559,-0.12228,0.00040903
-0.11101,0.091904,0.032418,0.0086851,-0.085999,0.039598,0.0060166,0.020015,-0.037088,0.026634,0.0034738,-0.049392,0.1327,0.046685,-0.039089,0.066986,0.0053656,0.019774,-0.036876,-0.25501,-0.093005,-0.27153,-0.14786,-7.7734e-005
-0.10062,0.061117,0.037794,0.0065974,-0.088188,0.031088,0.0020576,0.018708,-0.030378,0.006348,0.009125,-0.034766,0.12352,0.037371,-0.040858,0.092463,0.00014726,0.022219,-0.036881,-0.29527,-0.10022,-0.2726,-0.16218,0.0017831
-0.090709,0.022356,0.0411,0.002867,-0.090617,0.021627,-0.0040318,0.020078,-0.028115,-0.013583,0.013931,-0.027708,0.10846,0.018194,-0.046764,0.097861,-0.0029627,0.017869,-0.02992,-0.31903,-0.094536,-0.21064,-0.16878,0.0095165
-0.087185,-0.011117,0.038888,-0.0018008,-0.091868,0.015036,-0.0089949,0.021477,-0.029104,-0.026582,0.01951,-0.022608,0.090488,-0.005082,-0.058347,0.087692,-0.0019809,0.0062144,-0.019638,-0.31732,-0.075555,-0.10208,-0.17401,0.024006
-0.089877,-0.030895,0.032233,-0.0054543,-0.090901,0.012745,-0.01056,0.020183,-0.029279,-0.030207,0.024991,-0.014076,0.072588,-0.023363,-0.075705,0.068486,0.0031423,-0.0091368,-0.010055,-0.28328,-0.044762,0.021857,-0.1808,0.042759
-0.092613,-0.037814,0.02526,-0.006431,-0.087771,0.011874,-0.0088491,0.015851,-0.025274,-0.025974,0.02835,-7.6443e-005,0.056398,-0.031287,-0.09723,0.044237,0.0097018,-0.020983,-0.0031616,-0.2162,-0.0044756,0.13375,-0.18573,0.060872
-0.088397,-0.039275,0.021695,-0.0046839,-0.083845,0.0076792,-0.0064457,0.010773,-0.017189,-0.017784,0.02958,0.018101,0.042054,-0.031198,-0.12026,0.013743,0.013532,-0.021561,0.0010653,-0.12494,0.04279,0.22233,-0.18224,0.072591
-0.075088,-0.042582,0.022301,-0.0017236,-0.081104,-0.0014416,-0.0070896,0.0077724,-0.008396,-0.0096319,0.031858,0.038006,0.028977,-0.031045,-0.14188,-0.028053,0.011862,-0.0068609,0.0030396,-0.026673,0.094081,0.28916,-0.16706,0.072127
-0.056869,-0.049757,0.02483,0.00068156,-0.080742,-0.010963,-0.013547,0.0076203,-0.0027908,-0.0031117,0.038867,0.057818,0.016725,-0.03825,-0.15922,-0.085152,0.0055691,0.020401,0.0024031,0.059931,0.1453,0.33501,-0.14391,0.053567
-0.040701,-0.057188,0.026021,0.0017812,-0.08208,-0.012669,-0.025573,0.0082813,-0.0019446,0.0040962,0.050786,0.076405,0.0051755,-0.054583,-0.16991,-0.15498,-0.0012688,0.051657,-0.0015543,0.12349,0.1911,0.35123,-0.12101,0.011314
-0.03112,-0.059354,0.023927,0.0019956,-0.082837,-0.0014022,-0.03903,0.0066392,-0.0044334,0.017056,0.063287,0.092476,-0.0059665,-0.075762,-0.17301,-0.22614,-0.0045324,0.077349,-0.0085495,0.16496,0.22606,0.32637,-0.10443,-0.057548
-0.027669,-0.05329,0.019017,0.0020623,-0.08076,0.019273,-0.047043,0.0012416,-0.0075484,0.03941,0.071122,0.1045,-0.01775,-0.095271,-0.17033,-0.28156,-0.0034554,0.092759,-0.016544,0.19533,0.24668,0.26277,-0.093629,-0.14943
-0.026482,-0.040759,0.013587,0.002255,-0.075344,0.037888,-0.043352,-0.0062479,-0.0095913,0.068756,0.073056,0.1119,-0.031968,-0.10873,-0.16638,-0.30603,-0.0012166,0.10053,-0.022387,0.2277,0.25264,0.18599,-0.082936,-0.25175
-0.023964,-0.02724,0.010187,0.0024774,-0.068196,0.042864,-0.026561,-0.012121,-0.010732,0.09567,0.073112,0.11609,-0.050324,-0.11555,-0.16614,-0.29357,-0.0019547,0.10774,-0.023357,0.26919,0.24642,0.13403,-0.067526,-0.34479
-0.019206,-0.018843,0.010176,0.0029193,-0.061738,0.03161,-0.0025867,-0.01338,-0.011986,0.10841,0.07651,0.11992,-0.073253,-0.11763,-0.17176,-0.25027,-0.0066788,0.11956,-0.018442,0.318,0.23168,0.13091,-0.048057,-0.40835
-0.01347,-0.019099,0.013235,0.0042935,-0.057356,0.013296,0.017286,-0.0099646,-0.013651,0.10067,0.084098,0.12525,-0.099296,-0.11717,-0.18106,-0.19038,-0.011796,0.1346,-0.0085108,0.36642,0.21175,0.16539,-0.029875,-0.43002
-0.0079184,-0.027319,0.017812,0.0072041,-0.054489,0.0022035,0.022842,-0.0046766,-0.014821,0.076596,0.090924,0.13094,-0.12561,-0.11557,-0.18958,-0.12846,-0.011848,0.14546,0.0045097,0.4065,0.18931,0.19412,-0.017891,-0.41031
-0.0021581,-0.039239,0.02196,0.01129,-0.051162,0.0063379,0.012125,-0.0009148,-0.014326,0.04874,0.09081,0.13306,-0.14932,-0.1137,-0.19461,-0.072704,-0.004298,0.14435,0.018707,0.43357,0.16695,0.17016,-0.012187,-0.36153
0.0050073,-0.049403,0.023993,0.015168,-0.045324,0.020528,-0.0062424,-0.00011023,-0.011927,0.030107,0.082805,0.12765,-0.16871,-0.11234,-0.1977,-0.023341,0.0077791,0.12918,0.032734,0.44601,0.14732,0.07601,-0.0083189,-0.30112
0.013514,-0.053794,0.022888,0.017414,-0.035988,0.030126,-0.018541,-0.00096161,-0.0084694,0.026179,0.073195,0.11391,-0.18334,-0.11223,-0.20319,0.023689,0.01755,0.10555,0.045569,0.44304,0.13247,-0.06453,-0.0015618,-0.24378
0.020935,-0.051171,0.018583,0.017689,-0.023734,0.022838,-0.016043,-0.00098887,-0.0049527,0.032636,0.070675,0.095176,-0.19337,-0.11397,-0.21398,0.071765,0.019378,0.08322,0.055863,0.42382,0.12262,-0.20503,0.0092839,-0.19643
0.023716,-0.042633,0.012168,0.016952,-0.010632,-0.00082551,-0.0018922,0.0010636,-0.0017163,0.0399,0.078766,0.07693,-0.1989,-0.11836,-0.22857,0.12113,0.012773,0.069836,0.061606,0.38867,0.11584,-0.30994,0.02202,-0.15857
0.019943,-0.030267,0.005615,0.016577,0.00041464,-0.027204,0.011338,0.0041201,0.001254,0.040434,0.092394,0.063477,-0.20012,-0.1268,-0.24241,0.16995,0.0022087,0.066399,0.060691,0.34052,0.10875,-0.37565,0.034408,-0.12634
0.011308,-0.016157,0.00092586,0.01727,0.0070101,-0.039755,0.012021,0.0058896,0.0033001,0.033333,0.10192,0.055707,-0.19776,-0.14087,-0.25253,0.21655,-0.0067135,0.067264,0.052273,0.28416,0.098082,-0.42311,0.046839,-0.097277
0.0024897,-0.002254,-0.00088756,0.018748,0.0089176,-0.031636,-0.00069877,0.0051157,0.0028071,0.023572,0.10123,0.051418,-0.19291,-0.16097,-0.26094,0.26017,-0.011279,0.064077,0.03803,0.22316,0.081768,-0.47116,0.061316,-0.072371
-0.0017493,0.0094887,-0.00018239,0.020267,0.0088666,-0.010447,-0.016092,0.0028676,-0.0014966,0.017531,0.09269,0.047535,-0.1861,-0.18486,-0.27342,0.29966,-0.012632,0.050708,0.02209,0.15764,0.059545,-0.51552,0.077827,-0.054556
0.00039184,0.017477,0.0018763,0.021253,0.011378,0.0082822,-0.020822,0.0016685,-0.0086263,0.018469,0.084878,0.042433,-0.17666,-0.20782,-0.29395,0.33212,-0.013475,0.026286,0.0090841,0.085603,0.033056,-0.53227,0.092145,-0.045466
0.0067926,0.021219,0.0042354,0.021394,0.019885,0.012968,-0.0099326,0.0032214,-0.014889,0.024663,0.085019,0.036869,-0.16344,-0.22475,-0.31964,0.35353,-0.015147,-0.0047955,0.0012208,0.007485,0.0058077,-0.50172,0.097997,-0.043426
0.01315,0.021574,0.0063001,0.02034,0.034162,0.0034346,0.0095713,0.0067724,-0.015997,0.030606,0.092953,0.033278,-0.14654,-0.23283,-0.34091,0.36113,-0.016839,-0.035254,-0.003493,-0.07004,-0.017422,-0.43016,0.092206,-0.044672
0.016041,0.01995,0.0074468,0.017743,0.050302,-0.011239,0.025165,0.0096218,-0.010441,0.030028,0.10157,0.034228,-0.12797,-0.23282,-0.34757,0.35524,-0.017236,-0.058248,-0.010031,-0.13489,-0.032164,-0.34937,0.07818,-0.047004
0.015058,0.017102,0.0064577,0.013909,0.063545,-0.021278,0.029024,0.0094162,-0.0012594,0.019174,0.10294,0.04105,-0.10997,-0.22784,-0.33633,0.33863,-0.016436,-0.07027,-0.022396,-0.17511,-0.036534,-0.29413,0.064203,-0.052655
0.012546,0.012778,0.0018668,0.010424,0.071756,-0.023346,0.02305,0.0062755,0.0057228,-0.00099773,0.094724,0.053273,-0.091965,-0.22073,-0.31354,0.31371,-0.015938,-0.072463,-0.039758,-0.1849,-0.032822,-0.27733,0.057569,-0.067238
0.011258,0.0067544,-0.0067074,0.009713,0.076612,-0.021013,0.015189,0.0028933,0.0062116,-0.024759,0.081466,0.068976,-0.069167,-0.21168,-0.29086,0.28022,-0.016749,-0.069583,-0.056151,-0.16657,-0.026873,-0.28396,0.059455,-0.094523
0.011785,0.00032842,-0.017358,0.013337,0.081566,-0.019901,0.01157,0.0024476,0.00093202,-0.044078,0.070433,0.085809,-0.035136,-0.19769,-0.27697,0.23547,-0.017735,-0.06685,-0.064787,-0.12748,-0.025104,-0.28756,0.064832,-0.13064
0.011823,-0.0033633,-0.026181,0.020222,0.088513,-0.022829,0.01204,0.0060275,-0.0047103,-0.052738,0.065913,0.10218,0.013166,-0.17394,-0.27174,0.17722,-0.016186,-0.066332,-0.064018,-0.075592,-0.030887,-0.27377,0.067257,-0.16277
0.007985,-0.00089042,-0.029348,0.026537,0.09623,-0.02881,0.012432,0.011722,-0.0047746,-0.049829,0.066816,0.11798,0.071883,-0.13629,-0.26711,0.10674,-0.010299,-0.065351,-0.059813,-0.018148,-0.042867,-0.25013,0.064158,-0.17485
-0.0011182,0.0090403,-0.025676,0.027893,0.10186,-0.035253,0.010133,0.016131,0.0024879,-0.040229,0.068885,0.13425,0.13171,-0.083836,-0.25348,0.029583,-0.0013118,-0.058427,-0.061869,0.035718,-0.056574,-0.23522,0.058087,-0.15743
-0.012995,0.024181,-0.017714,0.022492,0.10383,-0.040117,0.0069372,0.01701,0.01316,-0.031402,0.06879,0.15174,0.18355,-0.020481,-0.22619,-0.046689,0.0067917,-0.041764,-0.075784,0.072103,-0.068249,-0.23845,0.053362,-0.11506
-0.02236,0.039574,-0.01024,0.012756,0.10336,-0.042121,0.0066492,0.01485,0.020656,-0.028402,0.066272,0.16912,0.22394,0.045351,-0.18713,-0.11588,0.0099458,-0.017159,-0.097681,0.073976,-0.078047,-0.24908,0.051638,-0.065495
-0.024695,0.05013,-0.0069903,0.0038685,0.10318,-0.039993,0.010446,0.012122,0.020757,-0.030483,0.062955,0.18231,0.25572,0.10341,-0.14136,-0.17522,0.006927,0.0077483,-0.11627,0.028184,-0.090101,-0.24369,0.050537,-0.030441
-0.019636,0.053231,-0.0079865,0.00012901,0.10494,-0.032767,0.015054,0.010976,0.01463,-0.03178,0.05982,0.18588,0.28366,0.14599,-0.092562,-0.22484,0.00026717,0.02336,-0.12126,-0.066644,-0.1093,-0.20497,0.046297,-0.023836
-0.011426,0.049731,-0.0095958,0.0019085,0.10795,-0.021376,0.015614,0.011444,0.0075822,-0.025705,0.056249,0.17625,0.30895,0.17179,-0.041747,-0.26548,-0.0054538,0.023675,-0.1113,-0.19745,-0.13718,-0.13531,0.037749,-0.045147
-0.0058783,0.042884,-0.0074464,0.0056588,0.11054,-0.0096494,0.010339,0.011678,0.0048585,-0.0099521,0.051553,0.15465,0.32743,0.18678,0.010215,-0.29682,-0.0065924,0.0098046,-0.094834,-0.34176,-0.17016,-0.054747,0.0281,-0.081737
-0.006176,0.036081,1.0731e-005,0.0069815,0.11247,-0.0029633,0.0023694,0.0099571,0.0080401,0.011466,0.047048,0.12742,0.33304,0.20077,0.059633,-0.31734,-0.0026056,-0.010755,-0.083055,-0.47682,-0.2016,0.014191,0.02333,-0.11784
-0.010831,0.030834,0.010156,0.0042556,0.1158,-0.0050265,-0.0029259,0.0066603,0.01471,0.030644,0.046118,0.10284,0.32333,0.22155,0.10027,-0.32531,0.0039368,-0.028459,-0.081096,-0.58625,-0.22614,0.061598,0.028754,-0.14364
-0.015366,0.026262,0.018179,-9.9466e-005,0.12305,-0.015349,-0.0026053,0.0044622,0.021067,0.040868,0.051829,0.086355,0.30244,0.24998,0.1272,-0.31919,0.0093093,-0.036802,-0.08481,-0.66058,-0.24297,0.094244,0.046196,-0.15881
-0.016171,0.020372,0.02074,-0.0016561,0.13424,-0.02954,0.0014979,0.006477,0.024861,0.040695,0.064236,0.077665,0.27876,0.27979,0.1406,-0.29693,0.011146,-0.035146,-0.085444,-0.6937,-0.25516,0.12729,0.073068,-0.16969
-0.01327,0.01227,0.018304,0.002443,0.1457,-0.042215,0.0047211,0.013764,0.026259,0.034283,0.08004,0.071996,0.25945,0.30241,0.14591,-0.25554,0.009842,-0.027862,-0.077609,-0.68066,-0.26589,0.17196,0.10323,-0.18334
-0.0098446,0.0036488,0.014411,0.01123,0.15217,-0.050145,0.0038388,0.024148,0.026493,0.028186,0.095036,0.064621,0.24588,0.31356,0.14967,-0.19269,0.0079645,-0.020691,-0.063448,-0.62006,-0.27466,0.22902,0.12908,-0.20304
-0.00923,-0.0018271,0.012783,0.020605,0.15078,-0.05339,-0.00024918,0.033376,0.026073,0.027362,0.10715,0.054905,0.23375,0.31703,0.15491,-0.11054,0.0081588,-0.016722,-0.049903,-0.51887,-0.27686,0.29177,0.14441,-0.22726
-0.012099,-0.0011516,0.01482,0.026204,0.14332,-0.054037,-0.0036701,0.037892,0.02429,0.033189,0.11733,0.04643,0.21732,0.32221,0.15991,-0.018697,0.011119,-0.014518,-0.042205,-0.39398,-0.26712,0.35448,0.14714,-0.25108
-0.016105,0.0052228,0.019294,0.02616,0.13492,-0.054116,-0.0033064,0.037274,0.020186,0.044097,0.12761,0.043109,0.19438,0.33716,0.16112,0.0669,0.015149,-0.0094275,-0.039698,-0.26699,-0.24325,0.419,0.14062,-0.26834
-0.017962,0.012754,0.023942,0.021892,0.12997,-0.054418,0.00037033,0.034463,0.013749,0.057268,0.13826,0.044822,0.16806,0.36197,0.15714,0.13028,0.017606,0.0029009,-0.037307,-0.15474,-0.20741,0.49436,0.13199,-0.27362
-0.015998,0.015266,0.027192,0.016763,0.12878,-0.054624,0.0038508,0.033493,0.0061714,0.069645,0.14674,0.046635,0.14426,0.38799,0.14994,0.16322,0.017017,0.02317,-0.030619,-0.062026,-0.16383,0.58969,0.12838,-0.26442
-0.011157,0.0089804,0.028631,0.013915,0.12766,-0.053857,0.0038912,0.03633,-0.00089916,0.078083,0.14958,0.042541,0.127,0.40375,0.14243,0.16908,0.014112,0.04742,-0.019593,0.018007,-0.11563,0.70495,0.13315,-0.24317
-0.0059832,-0.0047813,0.028379,0.01475,0.12238,-0.050885,0.00052637,0.04128,-0.0062601,0.079839,0.14554,0.030542,0.11535,0.40351,0.13524,0.15962,0.011019,0.068841,-0.0078085,0.09644,-0.064161,0.82496,0.14479,-0.21759
-0.0027069,-0.020294,0.026476,0.01864,0.11206,-0.044315,-0.0028342,0.044367,-0.0094779,0.074082,0.13732,0.014606,0.10415,0.39165,0.12595,0.14703,0.0094618,0.081096,0.0013937,0.17968,-0.011168,0.92144,0.15909,-0.1976
-0.0019219,-0.031087,0.023095,0.023577,0.10012,-0.033617,-0.0021431,0.04271,-0.010631,0.063297,0.13014,0.0017506,0.087799,0.37913,0.11172,0.13695,0.0095977,0.081129,0.0078012,0.2651,0.038776,0.96378,0.17233,-0.18941
-0.0025618,-0.033984,0.019204,0.027165,0.091801,-0.020753,0.0042351,0.037138,-0.0099587,0.052703,0.12811,-0.0032409,0.063902,0.37451,0.092751,0.12739,0.010368,0.070197,0.013573,0.34302,0.078816,0.93495,0.18291,-0.1904
-0.0028633,-0.03075,0.016688,0.027611,0.090156,-0.010583,0.014654,0.03175,-0.007764,0.047119,0.13122,-0.00099023,0.034335,0.37633,0.073131,0.11328,0.010756,0.053122,0.019986,0.40247,0.10354,0.84371,0.19047,-0.18904
-0.0015557,-0.026405,0.017368,0.024547,0.093724,-0.0084374,0.025769,0.030614,-0.0045056,0.047251,0.13527,0.0038185,0.003316,0.37321,0.058278,0.092537,0.010595,0.036388,0.025281,0.4364,0.11287,0.72399,0.19399,-0.17095
0.001368,-0.025603,0.021466,0.019344,0.097544,-0.015772,0.034731,0.034316,-0.00088335,0.048477,0.13501,0.0066817,-0.025662,0.35193,0.051008,0.068489,0.010251,0.02568,0.025941,0.44411,0.11259,0.61821,0.19129,-0.12761
0.0046242,-0.029624,0.026841,0.01455,0.096621,-0.027646,0.04015,0.03932,0.0021373,0.043604,0.12781,0.0064959,-0.051753,0.30763,0.049586,0.047488,0.0098485,0.023406,0.020138,0.43106,0.11099,0.55269,0.18054,-0.062107
0.0063816,-0.035874,0.029936,0.012452,0.089311,-0.035323,0.04171,0.040713,0.0033112,0.028021,0.11515,0.0052145,-0.076547,0.24879,0.049268,0.03416,0.0090913,0.027271,0.0097927,0.40701,0.11417,0.52086,0.16224,0.011837
0.0054414,-0.039937,0.028069,0.013541,0.078311,-0.033021,0.039677,0.035993,0.0012297,0.0035827,0.10084,0.0049177,-0.10237,0.19302,0.045906,0.0284,0.0079194,0.031277,-0.00095768,0.38311,0.12343,0.48697,0.13971,0.076541
0.0021551,-0.038645,0.021465,0.015993,0.068702,-0.023227,0.035112,0.026729,-0.0051421,-0.021633,0.087896,0.0055111,-0.13041,0.15678,0.038712,0.026157,0.0070515,0.029432,-0.009468,0.36796,0.13602,0.40896,0.11735,0.11831
-0.001636,-0.032163,0.013369,0.016781,0.064477,-0.015073,0.030131,0.016891,-0.015472,-0.037671,0.07686,0.0052475,-0.15968,0.146,0.030264,0.022847,0.007469,0.020165,-0.016816,0.36418,0.14763,0.26472,0.098231,0.13243
-0.0037356,-0.023972,0.0078968,0.013834,0.065927,-0.016114,0.02707,0.0095618,-0.027247,-0.038259,0.066879,0.0031896,-0.18702,0.1536,0.024248,0.016547,0.0091236,0.0079484,-0.02637,0.36761,0.15436,0.063297,0.082916,0.12354
-0.0029889,-0.018888,0.0071933,0.0077197,0.069636,-0.024566,0.026739,0.0049198,-0.036169,-0.023993,0.057946,0.00074481,-0.20796,0.16521,0.02305,0.0088028,0.010276,9.5803e-005,-0.040214,0.37029,0.15337,-0.1652,0.070102,0.10232
0.00021622,-0.020349,0.010152,0.0015668,0.071027,-0.029801,0.027471,0.00092049,-0.038214,-0.0013642,0.051757,0.00044085,-0.21836,0.1689,0.026931,0.0030373,0.0085078,0.00060578,-0.057038,0.36589,0.14319,-0.39088,0.058262,0.080281
0.0047627,-0.028497,0.01378,-0.00089705,0.067597,-0.021873,0.02636,-0.0043637,-0.032342,0.02129,0.050131,0.0030854,-0.21621,0.16247,0.034761,0.0021447,0.0027827,0.0060372,-0.073523,0.35369,0.12453,-0.59901,0.046873,0.064509
0.010097,-0.040146,0.015979,0.0021022,0.060464,-0.0020008,0.021933,-0.010981,-0.02179,0.03792,0.052626,0.0062992,-0.20288,0.15362,0.044864,0.0069525,-0.0053142,0.0073731,-0.087582,0.33795,0.10107,-0.78913,0.03661,0.054201
0.016638,-0.050763,0.017205,0.0090287,0.053167,0.016147,0.015731,-0.017207,-0.012422,0.046352,0.055949,0.0062015,-0.18284,0.15276,0.054869,0.016154,-0.012502,-0.0030707,-0.10005,0.32328,0.078635,-0.96337,0.028823,0.041147
0.024794,-0.057321,0.019509,0.015908,0.04885,0.016822,0.01106,-0.021011,-0.0088969,0.046933,0.056003,0.00087819,-0.16164,0.16337,0.061065,0.027177,-0.016261,-0.025238,-0.11318,0.30991,0.061993,-1.1168,0.024815,0.014939
0.033614,-0.060157,0.023958,0.018912,0.048265,-0.0041333,0.009914,-0.021463,-0.011478,0.040098,0.050764,-0.0076606,-0.14328,0.17629,0.05888,0.037052,-0.016693,-0.050919,-0.12766,0.29299,0.051531,-1.2379,0.02516,-0.029193
0.040643,-0.062352,0.029033,0.016866,0.050209,-0.03452,0.011028,-0.019172,-0.016205,0.025296,0.041317,-0.014996,-0.12874,0.17291,0.04536,0.042797,-0.016101,-0.069847,-0.14125,0.26681,0.042643,-1.3165,0.029184,-0.084715
0.043514,-0.066869,0.03162,0.011861,0.053692,-0.054824,0.01101,-0.01584,-0.018459,0.0021461,0.030204,-0.017877,-0.11668,0.13592,0.022285,0.041541,-0.016676,-0.07724,-0.15039,0.23029,0.029248,-1.3493,0.034964,-0.13484
0.041971,-0.073522,0.029644,0.0074716,0.059449,-0.053759,0.0075344,-0.013454,-0.016892,-0.027485,0.018878,-0.016386,-0.10565,0.061172,-0.0029097,0.030974,-0.01843,-0.076574,-0.15291,0.18912,0.0091778,-1.3395,0.040246,-0.16078
0.038351,-0.078282,0.023753,0.0059708,0.069027,-0.037125,0.0015929,-0.01342,-0.014179,-0.058627,0.0067821,-0.012644,-0.095732,-0.037726,-0.020184,0.010406,-0.01931,-0.075543,-0.14944,0.15259,-0.012827,-1.2915,0.044021,-0.1525
0.035834,-0.075777,0.016546,0.0067712,0.082175,-0.02257,-0.0032517,-0.015792,-0.01381,-0.084551,-0.0071291,-0.0075679,-0.088217,-0.13596,-0.022502,-0.018039,-0.017413,-0.078971,-0.14258,0.12761,-0.027094,-1.2068,0.047663,-0.11506
0.035864,-0.063264,0.010335,0.007383,0.095214,-0.025014,-0.0038969,-0.018981,-0.015804,-0.099335,-0.022138,0.00071828,-0.083761,-0.21118,-0.010065,-0.049037,-0.013236,-0.084745,-0.13504,0.11463,-0.024579,-1.0843,0.054462,-0.066125
0.037072,-0.043072,0.0058117,0.0059801,0.10247,-0.045067,-0.00036566,-0.020447,-0.015432,-0.099859,-0.035184,0.014824,-0.080821,-0.25503,0.010177,-0.075168,-0.0097896,-0.086023,-0.12861,0.10865,-0.0018544,-0.92276,0.067481,-0.025906
0.036749,-0.021763,0.0027687,0.0031934,0.099995,-0.069473,0.0040043,-0.018342,-0.0064008,-0.086325,-0.042746,0.034279,-0.075916,-0.27495,0.029485,-0.089186,-0.010374,-0.077587,-0.1242,0.10396,0.03772,-0.72309,0.087134,-0.005306
0.033579,-0.0068748,0.0016115,0.0014351,0.088547,-0.082071,0.0048229,-0.013077,0.014017,-0.061713,-0.043622,0.054003,-0.065478,-0.28612,0.0429,-0.08635,-0.015957,-0.060969,-0.12173,0.098308,0.086331,-0.49257,0.11028,0.00082838
0.029196,-0.0036854,0.0035885,0.0024094,0.073042,-0.075602,-0.00040262,-0.0073944,0.042205,-0.030983,-0.040192,0.067201,-0.047765,-0.30047,0.051129,-0.065652,-0.024468,-0.044101,-0.11965,0.092801,0.13469,-0.25059,0.13151,0.011634
0.027149,-0.01375,0.0092567,0.0052786,0.058988,-0.055377,-0.010602,-0.0045305,0.070054,-4.6658e-005,-0.037025,0.070515,-0.023554,-0.32073,0.057631,-0.029625,-0.032495,-0.03572,-0.11459,0.087692,0.17338,-0.031804,0.14559,0.05019
0.030142,-0.034991,0.016976,0.0073579,0.048859,-0.033441,-0.021709,-0.0057131,0.089859,0.025855,-0.037858,0.066765,0.0043802,-0.34224,0.063835,0.016761,-0.037644,-0.038928,-0.10256,0.077609,0.19311,0.12068,0.14934,0.13038
0.03787,-0.062179,0.023479,0.0067008,0.041365,-0.019224,-0.029083,-0.0091007,0.098484,0.044063,-0.043158,0.062543,0.032161,-0.35836,0.066864,0.067347,-0.039456,-0.048923,-0.081441,0.050761,0.18597,0.17369,0.14196,0.24725
0.047177,-0.087518,0.026367,0.0040022,0.033709,-0.014112,-0.030352,-0.011216,0.098078,0.055262,-0.049937,0.062646,0.055645,-0.36406,0.061802,0.11589,-0.038443,-0.056688,-0.052822,-0.0063893,0.14882,0.12424,0.12453,0.37631
0.054318,-0.1024,0.026113,0.001886,0.024357,-0.012949,-0.026918,-0.0097664,0.093666,0.061919,-0.05387,0.066317,0.071485,-0.35573,0.046517,0.15717,-0.03486,-0.055699,-0.021544,-0.10153,0.086546,0.0063639,0.099585,0.48299
0.057515,-0.10101,0.025353,0.0022741,0.013805,-0.0099008,-0.023044,-0.0054175,0.089905,0.065143,-0.052291,0.068641,0.07861,-0.33041,0.02481,0.18815,-0.028845,-0.046263,0.0070409,-0.23098,0.012109,-0.12301,0.071026,0.53831
0.057912,-0.084247,0.026022,0.0044742,0.0031672,-0.0035145,-0.023017,-0.00096202,0.08913,0.062607,-0.046166,0.0656,0.079299,-0.28734,0.0050524,0.2087,-0.021705,-0.034066,0.029882,-0.38001,-0.058049,-0.21026,0.043716,0.53215
0.058359,-0.060616,0.027233,0.005888,-0.0074464,0.0026482,-0.028402,0.0013152,0.091079,0.049777,-0.039746,0.057912,0.07843,-0.23118,-0.0048429,0.22109,-0.016348,-0.024374,0.04706,-0.52886,-0.11106,-0.22558,0.021882,0.47657
0.061052,-0.041925,0.026198,0.0045897,-0.018989,0.0037274,-0.037418,0.0015968,0.093591,0.024036,-0.038015,0.050036,0.080558,-0.17223,-0.0023076,0.2282,-0.015473,-0.017142,0.06044,-0.66022,-0.14263,-0.16628,0.0070941,0.39692
0.065777,-0.035811,0.021366,0.0011813,-0.032096,-0.0015926,-0.046671,0.002005,0.093609,-0.011469,-0.04352,0.045482,0.086604,-0.12108,0.0087455,0.2311,-0.018787,-0.0074735,0.071774,-0.76325,-0.15682,-0.046969,-0.0024817,0.31642
0.070047,-0.040526,0.014512,-0.0018596,-0.045937,-0.0090252,-0.053525,0.0041774,0.088429,-0.0475,-0.054761,0.043133,0.092993,-0.081135,0.021149,0.22777,-0.022246,0.0090262,0.081912,-0.83173,-0.16117,0.11069,-0.010482,0.2441
0.070971,-0.04657,0.0094796,-0.0025565,-0.058529,-0.011221,-0.057052,0.007382,0.077129,-0.072518,-0.06739,0.038249,0.094518,-0.046297,0.029414,0.21411,-0.020958,0.03109,0.091189,-0.85921,-0.16096,0.2821,-0.019299,0.17346
0.067475,-0.044468,0.0086496,-0.0010854,-0.06814,-0.0031785,-0.057272,0.009076,0.061527,-0.078082,-0.077399,0.027195,0.08893,-0.0078895,0.03271,0.18698,-0.013696,0.051876,0.099839,-0.83652,-0.15669,0.44231,-0.028017,0.091355
0.061192,-0.032593,0.010602,0.00087832,-0.074377,0.013678,-0.054222,0.0074002,0.045744,-0.062317,-0.083858,0.011234,0.079287,0.034003,0.034024,0.14752,-0.0046978,0.064469,0.10761,-0.7556,-0.14614,0.57429,-0.033131,-0.010297
0.055397,-0.018538,0.011306,0.0022597,-0.078129,0.032172,-0.048298,0.0031699,0.034181,-0.029603,-0.089063,-0.0043239,0.071627,0.065295,0.036641,0.10276,-0.00037849,0.067758,0.11313,-0.618,-0.12874,0.67953,-0.031527,-0.12818
0.052827,-0.012816,0.0077022,0.0038056,-0.080707,0.044471,-0.04134,-0.00062031,0.028957,0.012632,-0.096164,-0.014705,0.069659,0.065652,0.040929,0.064153,-0.0033906,0.067121,0.11432,-0.44151,-0.10843,0.77806,-0.023245,-0.25
0.054035,-0.020245,0.00022759,0.0070655,-0.08308,0.047442,-0.036536,-0.0013577,0.028532,0.057422,-0.1065,-0.019413,0.071098,0.024847,0.04385,0.043765,-0.0095027,0.069147,0.1101,-0.25821,-0.092615,0.88994,-0.011771,-0.36183
0.057372,-0.036226,-0.0079686,0.012162,-0.085524,0.043747,-0.036255,0.00097677,0.028516,0.09973,-0.11901,-0.021393,0.069153,-0.045643,0.041381,0.049769,-0.010701,0.075303,0.10212,-0.10269,-0.087962,1.009,-0.0016515,-0.45404
0.060365,-0.050726,-0.014081,0.016765,-0.087472,0.037924,-0.039456,0.0040001,0.024191,0.13537,-0.13193,-0.022499,0.058106,-0.11702,0.031803,0.083262,-0.0022452,0.080502,0.094434,0.0031886,-0.096027,1.0931,0.0045951,-0.52185
0.061371,-0.056149,-0.017845,0.017623,-0.087453,0.031254,-0.041571,0.0052481,0.013117,0.15904,-0.14497,-0.019913,0.038151,-0.16203,0.017284,0.13746,0.012541,0.078093,0.090781,0.05944,-0.11221,1.0863,0.0079574,-0.56207
0.060428,-0.052373,-0.020884,0.013494,-0.083539,0.020431,-0.037823,0.0043564,-0.0037381,0.16403,-0.15962,-0.0074792,0.015196,-0.17425,0.0026063,0.19949,0.024228,0.066859,0.091432,0.08477,-0.1289,0.96098,0.011858,-0.57044
0.059003,-0.045286,-0.024271,0.0067453,-0.074641,0.001502,-0.027538,0.0030848,-0.022893,0.14506,-0.17737,0.018738,-0.0041268,-0.17225,-0.0079254,0.25452,0.024545,0.053686,0.092567,0.10334,-0.14088,0.74594,0.019488,-0.54263
0.058965,-0.04099,-0.027079,0.0019145,-0.061959,-0.024466,-0.015466,0.0033523,-0.040545,0.10298,-0.19776,0.055437,-0.017736,-0.18498,-0.013021,0.29096,0.012784,0.049277,0.089348,0.13043,-0.14924,0.51377,0.031397,-0.47771
0.061374,-0.041043,-0.027495,0.0021998,-0.049175,-0.049393,-0.0084275,0.0053653,-0.054653,0.04766,-0.21804,0.092284,-0.029044,-0.22986,-0.014644,0.30516,-0.0039285,0.060164,0.080553,0.16624,-0.16115,0.33271,0.044774,-0.38062
0.065662,-0.042373,-0.025222,0.0068377,-0.040574,-0.062223,-0.0097912,0.0077147,-0.065645,-0.0041558,-0.23486,0.11773,-0.043096,-0.30051,-0.016093,0.30275,-0.016336,0.083353,0.070732,0.20091,-0.18563,0.21907,0.054667,-0.26139
0.069688,-0.040928,-0.022437,0.011686,-0.038115,-0.056151,-0.016503,0.0092457,-0.075373,-0.03596,-0.24604,0.12618,-0.061758,-0.37291,-0.019672,0.29533,-0.019641,0.10776,0.067574,0.22531,-0.22808,0.12819,0.056393,-0.13166
0.070824,-0.035274,-0.022071,0.012609,-0.039793,-0.033431,-0.021366,0.010653,-0.085012,-0.039575,-0.25071,0.12117,-0.082361,-0.42369,-0.025641,0.29349,-0.01572,0.12132,0.076243,0.23929,-0.28703,-0.007977,0.047838,-0.0016325
0.067588,-0.027261,-0.024999,0.0088228,-0.040884,-0.004057,-0.018752,0.013974,-0.093365,-0.019016,-0.24784,0.11232,-0.10065,-0.44522,-0.032737,0.30046,-0.0099979,0.1185,0.095344,0.25171,-0.35486,-0.22579,0.030549,0.12121
0.060755,-0.02008,-0.029059,0.0034125,-0.037318,0.020638,-0.0089513,0.020261,-0.0969,0.012329,-0.23514,0.10856,-0.11488,-0.44687,-0.039337,0.31083,-0.0063957,0.10302,0.11808,0.27368,-0.42136,-0.49893,0.0090172,0.23182
0.052991,-0.016146,-0.031122,0.00067632,-0.028507,0.034725,0.0024078,0.027704,-0.091815,0.039168,-0.21032,0.11268,-0.12723,-0.44386,-0.044317,0.31525,-0.004721,0.084467,0.13766,0.31116,-0.47774,-0.75274,-0.011518,0.3271
0.047079,-0.016539,-0.030347,0.0026276,-0.017363,0.040134,0.0091342,0.03233,-0.076981,0.051711,-0.17429,0.12065,-0.14149,-0.44487,-0.047514,0.3076,-0.0020007,0.071613,0.15229,0.36237,-0.51915,-0.90998,-0.027576,0.40506
0.043973,-0.021671,-0.02939,0.0075715,-0.0076113,0.043564,0.0092426,0.031099,-0.055766,0.049037,-0.13328,0.12561,-0.15979,-0.44817,-0.05012,0.28879,0.0041722,0.067532,0.16534,0.42068,-0.54546,-0.93332,-0.038744,0.46282
0.042215,-0.031601,-0.032133,0.011743,-0.00078853,0.050578,0.0058629,0.024814,-0.035205,0.037401,-0.097186,0.12296,-0.18131,-0.44701,-0.054695,0.26459,0.013376,0.069449,0.181,0.47928,-0.56069,-0.83796,-0.046835,0.49369
0.039247,-0.045335,-0.039876,0.012393,0.0045669,0.061335,0.0040213,0.018011,-0.022666,0.025211,-0.074114,0.11287,-0.20398,-0.43706,-0.063993,0.24,0.022727,0.072665,0.19963,0.53341,-0.57097,-0.67297,-0.053353,0.48631
0.033563,-0.059987,-0.049602,0.009708,0.011051,0.070972,0.0064883,0.01546,-0.021965,0.017564,-0.065022,0.098955,-0.22663,-0.41862,-0.078565,0.21592,0.029036,0.07486,0.21735,0.57951,-0.58057,-0.49053,-0.057197,0.42907
0.025924,-0.071238,-0.056173,0.006193,0.019748,0.074047,0.012219,0.017973,-0.031522,0.013134,-0.063119,0.084843,-0.24949,-0.39315,-0.094901,0.19127,0.0308,0.07727,0.22984,0.61357,-0.58738,-0.32407,-0.054744,0.31886
0.01866,-0.075361,-0.056608,0.0043779,0.029246,0.069451,0.018173,0.021205,-0.045822,0.0051537,-0.059186,0.071525,-0.27248,-0.35988,-0.10644,0.16811,0.028685,0.082111,0.23645,0.63146,-0.58144,-0.1841,-0.042833,0.16862
0.013716,-0.071552,-0.052558,0.004875,0.03711,0.061779,0.022267,0.01878,-0.059083,-0.013731,-0.048815,0.0573,-0.29393,-0.31747,-0.10777,0.15379,0.024617,0.08888,0.24013,0.63115,-0.54988,-0.067511,-0.02253,0.0064756
0.011205,-0.062779,-0.048622,0.0061966,0.042302,0.057996,0.024667,0.0074005,-0.068358,-0.045603,-0.035458,0.039823,-0.31127,-0.26959,-0.099075,0.15685,0.020505,0.093087,0.24348,0.61456,-0.48709,0.029161,-0.00022329,-0.13527
0.0097261,-0.054407,-0.048071,0.0061324,0.046195,0.061995,0.026666,-0.010313,-0.073814,-0.084738,-0.02652,0.018298,-0.32364,-0.22776,-0.086715,0.17926,0.01755,0.088804,0.24516,0.58668,-0.40285,0.10024,0.015746,-0.23555
0.0080639,-0.051333,-0.049999,0.0033825,0.051275,0.071478,0.028867,-0.027697,-0.07634,-0.12106,-0.025963,-0.0058478,-0.33346,-0.20672,-0.07861,0.21206,0.016298,0.073156,0.24091,0.55269,-0.32026,0.12971,0.020852,-0.29409
0.0065962,-0.055335,-0.0506,-0.0017428,0.058838,0.079677,0.030712,-0.039107,-0.074923,-0.14765,-0.030204,-0.030055,-0.34496,-0.21476,-0.077855,0.23924,0.016898,0.049226,0.22858,0.51577,-0.26217,0.09938,0.017753,-0.32859
0.0070016,-0.064089,-0.047244,-0.0077897,0.067941,0.080431,0.031637,-0.04392,-0.066306,-0.16639,-0.03114,-0.052376,-0.36053,-0.24689,-0.080198,0.24775,0.019035,0.025015,0.21209,0.47748,-0.23487,0.0030615,0.01388,-0.36166
0.010464,-0.072268,-0.041295,-0.013178,0.076495,0.0725,0.032193,-0.046225,-0.047282,-0.18643,-0.023469,-0.072508,-0.37806,-0.28752,-0.078008,0.23609,0.021595,0.0090399,0.20001,0.43994,-0.22236,-0.14175,0.014842,-0.40637
0.016075,-0.073972,-0.036815,-0.016968,0.083215,0.05994,0.033564,-0.050704,-0.017474,-0.21593,-0.009395,-0.091462,-0.39201,-0.32105,-0.067585,0.21485,0.022687,0.0054528,0.1991,0.40669,-0.19715,-0.29413,0.019302,-0.46
0.021094,-0.06506,-0.036402,-0.018991,0.088307,0.048844,0.035877,-0.058438,0.019917,-0.25359,0.0037031,-0.11029,-0.39757,-0.3421,-0.053402,0.19866,0.020515,0.011772,0.20865,0.38083,-0.14019,-0.40504,0.020114,-0.50874
0.023087,-0.044237,-0.038314,-0.019499,0.09227,0.043445,0.037329,-0.066173,0.059889,-0.28762,0.010337,-0.12894,-0.39454,-0.35706,-0.045388,0.19623,0.014715,0.020581,0.22087,0.36166,-0.054246,-0.44004,0.010933,-0.53872
0.022147,-0.012757,-0.037886,-0.018797,0.094355,0.044287,0.03556,-0.06941,0.098086,-0.30382,0.011979,-0.14606,-0.38748,-0.37649,-0.05144,0.20572,0.007023,0.024126,0.22725,0.34329,0.039795,-0.39535,-0.0076329,-0.54487
0.021124,0.026395,-0.032,-0.01718,0.092711,0.048887,0.030235,-0.066382,0.13166,-0.29688,0.015426,-0.16,-0.38194,-0.40498,-0.071447,0.21789,0.00046066,0.018987,0.22511,0.31738,0.11999,-0.29671,-0.027944,-0.53176
0.023357,0.068968,-0.022306,-0.015161,0.086448,0.053483,0.024168,-0.059515,0.15828,-0.27558,0.026144,-0.17013,-0.37986,-0.43705,-0.097571,0.223,-0.0025635,0.0078675,0.2186,0.27831,0.17899,-0.18228,-0.041335,-0.50651
0.029634,0.10955,-0.013984,-0.013651,0.077551,0.054575,0.021391,-0.053412,0.17524,-0.25753,0.04288,-0.17747,-0.37804,-0.46162,-0.12,0.21525,-0.0017292,-0.0026869,0.21327,0.22673,0.22581,-0.081135,-0.044598,-0.46958
0.036921,0.14228,-0.011148,-0.013742,0.070358,0.050071,0.023614,-0.051431,0.18029,-0.25715,0.058359,-0.1841,-0.37059,-0.4706,-0.1331,0.19176,0.0013277,-0.0071048,0.20969,0.16845,0.27413,-0.00040765,-0.041217,-0.41069
0.040117,0.16274,-0.013222,-0.016099,0.068556,0.040197,0.028432,-0.053772,0.17379,-0.27601,0.065165,-0.19187,-0.35337,-0.46438,-0.13735,0.14885,0.0044933,-0.0047024,0.2023,0.10936,0.32897,0.073199,-0.03691,-0.31384
0.035595,0.1702,-0.015723,-0.020377,0.072184,0.027771,0.03127,-0.058262,0.15969,-0.30248,0.061412,-0.20155,-0.32658,-0.45018,-0.13669,0.080735,0.0065512,0.00010706,0.18462,0.050345,0.38333,0.16141,-0.034445,-0.16874
0.023821,0.16834,-0.014603,-0.025221,0.077395,0.017079,0.029504,-0.062607,0.14345,-0.32022,0.051532,-0.21323,-0.29387,-0.43554,-0.13455,-0.017118,0.0073239,0.0011904,0.15632,-0.01341,0.42578,0.28092,-0.032827,0.018562
0.0090358,0.16321,-0.0099684,-0.029034,0.079377,0.011462,0.024926,-0.065948,0.1283,-0.31846,0.042168,-0.22759,-0.25914,-0.42236,-0.13177,-0.14236,0.0068713,-0.0053125,0.1252,-0.087959,0.45007,0.43554,-0.030995,0.22341
-0.003629,0.15957,-0.0056667,-0.031054,0.075972,0.011082,0.022122,-0.068692,0.11312,-0.29655,0.037229,-0.24662,-0.22413,-0.40614,-0.12717,-0.2829,0.0049897,-0.019571,0.10198,-0.17406,0.45764,0.61557,-0.031303,0.41086
-0.011296,0.15816,-0.0053245,-0.031852,0.06896,0.012642,0.024201,-0.07135,0.094431,-0.26038,0.03615,-0.27275,-0.18858,-0.38019,-0.11905,-0.41998,0.0016876,-0.039791,0.091807,-0.26342,0.45261,0.80167,-0.038408,0.54968
-0.014487,0.15601,-0.0087556,-0.032718,0.062089,0.011547,0.029879,-0.073757,0.07073,-0.21493,0.036032,-0.30673,-0.15251,-0.34137,-0.10613,-0.53534,-0.0020716,-0.064728,0.089902,-0.3408,0.43676,0.96984,-0.05422,0.62356
-0.015828,0.14936,-0.012185,-0.034306,0.057751,0.0050879,0.034671,-0.0753,0.04511,-0.15956,0.035009,-0.3459,-0.11801,-0.29297,-0.087925,-0.61785,-0.0045937,-0.094252,0.085179,-0.39086,0.41069,1.0965,-0.074111,0.63372
-0.017776,0.13665,-0.011961,-0.035724,0.055248,-0.0056149,0.034989,-0.075608,0.023253,-0.089978,0.033767,-0.38423,-0.088793,-0.24373,-0.065564,-0.66563,-0.004839,-0.12763,0.069307,-0.40563,0.37929,1.1642,-0.088794,0.59335
-0.021213,0.11959,-0.0081151,-0.035077,0.051992,-0.016293,0.031233,-0.074852,0.008407,-0.0046464,0.034307,-0.41445,-0.067631,-0.20413,-0.042695,-0.68349,-0.00365,-0.1618,0.043761,-0.38824,0.35397,1.1671,-0.090865,0.51964
-0.025562,0.10189,-0.0043804,-0.031282,0.046342,-0.022444,0.027029,-0.073465,-0.0018375,0.089969,0.037567,-0.43051,-0.054115,-0.18246,-0.02522,-0.67863,-0.0033048,-0.19199,0.019041,-0.35114,0.34707,1.1138,-0.080273,0.42879
-0.029705,0.087025,-0.0047131,-0.025644,0.039445,-0.022587,0.025594,-0.071716,-0.013501,0.18,0.042156,-0.42915,-0.044811,-0.18178,-0.01866,-0.65733,-0.0054512,-0.21443,0.0065817,-0.31044,0.36315,1.0238,-0.063732,0.33533
-0.032656,0.076622,-0.0096385,-0.021604,0.034417,-0.019691,0.026868,-0.069635,-0.030457,0.25038,0.04518,-0.40999,-0.03585,-0.19836,-0.024273,-0.62349,-0.0093111,-0.22873,0.0099555,-0.28017,0.39552,0.91803,-0.048673,0.25269
-0.033722,0.069932,-0.015773,-0.02249,0.0336,-0.019595,0.028043,-0.067193,-0.050301,0.29216,0.044336,-0.37489,-0.025657,-0.22217,-0.03695,-0.57796,-0.012154,-0.23749,0.022452,-0.26896,0.43222,0.80967,-0.037351,0.19199
-0.032605,0.064265,-0.018828,-0.028935,0.036297,-0.027044,0.026588,-0.064405,-0.065967,0.306,0.039613,-0.32755,-0.015295,-0.24033,-0.0474,-0.51835,-0.012,-0.2437,0.032786,-0.27974,0.46579,0.70185,-0.026401,0.15894
-0.029776,0.056049,-0.017229,-0.038097,0.03897,-0.041727,0.02246,-0.061268,-0.071873,0.30015,0.033446,-0.27316,-0.0061651,-0.24283,-0.047914,-0.44034,-0.010129,-0.24836,0.033956,-0.31096,0.49715,0.59421,-0.011804,0.15205
-0.02674,0.042321,-0.01312,-0.045444,0.037809,-0.057176,0.017342,-0.057814,-0.069069,0.28512,0.029285,-0.21768,0.0025027,-0.22737,-0.037724,-0.34119,-0.010666,-0.2506,0.027967,-0.35765,0.5301,0.492,0.0058639,0.1643
-0.025535,0.022278,-0.010135,-0.047713,0.031523,-0.063927,0.012025,-0.054489,-0.064606,0.26867,0.029516,-0.16636,0.013478,-0.19972,-0.023661,-0.22436,-0.016918,-0.24977,0.02297,-0.41211,0.56258,0.40802,0.021053,0.18724
-0.027461,-0.0019782,-0.010225,-0.044786,0.022053,-0.055494,0.0051122,-0.052447,-0.065685,0.25381,0.034008,-0.12246,0.028272,-0.16901,-0.01523,-0.1015,-0.027322,-0.2469,0.025821,-0.46501,0.58441,0.35378,0.027987,0.21389
-0.032005,-0.026285,-0.012361,-0.039262,0.012733,-0.033319,-0.005231,-0.053148,-0.073831,0.23945,0.040246,-0.087122,0.043728,-0.14168,-0.01774,0.010406,-0.034855,-0.24341,0.036508,-0.50783,0.58481,0.32659,0.025806,0.23812
-0.036972,-0.046739,-0.01382,-0.034405,0.0056516,-0.0070542,-0.018148,-0.057174,-0.084139,0.22244,0.045059,-0.060528,0.052251,-0.11913,-0.028887,0.095758,-0.031231,-0.23815,0.048592,-0.53665,0.56277,0.3049,0.01915,0.25233
-0.039913,-0.062167,-0.012464,-0.032195,0.00056578,0.010558,-0.029113,-0.06315,-0.089883,0.1996,0.046888,-0.04304,0.046667,-0.10065,-0.041368,0.14642,-0.013154,-0.22571,0.05441,-0.55516,0.52981,0.25793,0.013754,0.24684
-0.03971,-0.074848,-0.0079696,-0.032653,-0.0039096,0.011186,-0.032881,-0.067946,-0.0881,0.16931,0.046944,-0.035038,0.0264,-0.087487,-0.04903,0.16312,0.014323,-0.19881,0.050129,-0.57463,0.5015,0.16297,0.01134,0.21304
-0.0371,-0.088462,-0.0015617,-0.034362,-0.0083532,-0.00401,-0.028304,-0.068413,-0.081319,0.13234,0.0482,-0.035551,-0.00018208,-0.082526,-0.051108,0.15185,0.040287,-0.15363,0.036867,-0.60928,0.48481,0.015314,0.0084559,0.14756
-0.033847,-0.10418,0.0047802,-0.035424,-0.011962,-0.025063,-0.020586,-0.063546,-0.074564,0.091986,0.052741,-0.041265,-0.019891,-0.084598,-0.051025,0.11911,0.054754,-0.0944,0.018078,-0.66803,0.47216,-0.17837,-0.00011742,0.053528
-0.031476,-0.11761,0.0087828,-0.034336,-0.01384,-0.039309,-0.018309,-0.055324,-0.07097,0.053175,0.059507,-0.047379,-0.022792,-0.082984,-0.051339,0.069911,0.054689,-0.033068,-0.0036152,-0.74705,0.4475,-0.41752,-0.017131,-0.062852
-0.030665,-0.11938,0.0082437,-0.030678,-0.014471,-0.03916,-0.026981,-0.047404,-0.070115,0.020891,0.064453,-0.050056,-0.0083578,-0.059457,-0.049994,0.009804,0.044866,0.016271,-0.027441,-0.82804,0.39905,-0.71853,-0.041919,-0.19687
-0.031585,-0.10009,0.0019176,-0.025476,-0.01541,-0.026631,-0.044293,-0.042607,-0.069998,-0.0015026,0.063424,-0.048492,0.014863,0.00084739,-0.04169,-0.052371,0.033298,0.044886,-0.05345,-0.88488,0.32815,-1.1052,-0.073246,-0.34591
-0.034462,-0.056944,-0.0093457,-0.020823,-0.017276,-0.011494,-0.061354,-0.041112,-0.070051,-0.013417,0.055698,-0.044698,0.035694,0.097242,-0.023241,-0.10475,0.025139,0.053776,-0.081317,-0.89581,0.24768,-1.582,-0.11258,-0.5042
-0.039513,0.002391,-0.022401,-0.018611,-0.018353,-0.0039151,-0.069333,-0.040764,-0.071885,-0.017145,0.045289,-0.041163,0.047937,0.2107,0.0021484,-0.1368,0.019724,0.052106,-0.11028,-0.8536,0.17264,-2.1099,-0.16402,-0.65624
-0.04621,0.062034,-0.03325,-0.019076,-0.015894,-0.0063834,-0.066302,-0.039132,-0.07718,-0.016531,0.038606,-0.038537,0.053669,0.31472,0.025807,-0.14459,0.01253,0.05105,-0.13957,-0.76724,0.11179,-2.6066,-0.23038,-0.77621
-0.05269,0.10542,-0.039248,-0.020445,-0.0094317,-0.011053,-0.058573,-0.035589,-0.085141,-0.01437,0.039995,-0.035465,0.060478,0.39289,0.039107,-0.13248,-0.0001171,0.057379,-0.16816,-0.65454,0.066921,-2.977,-0.30875,-0.83724
-0.056198,0.12332,-0.040302,-0.020272,-0.0028075,-0.0054019,-0.055378,-0.031731,-0.092382,-0.0097625,0.048628,-0.030577,0.075511,0.44975,0.038845,-0.10908,-0.017517,0.070872,-0.1936,-0.53191,0.038557,-3.1577,-0.3894,-0.82657
-0.054582,0.11702,-0.038129,-0.017547,-0.0022145,0.017193,-0.061347,-0.029925,-0.095503,0.0022725,0.059319,-0.024458,0.10111,0.50613,0.028255,-0.080458,-0.034805,0.086534,-0.21172,-0.40918,0.031396,-3.1478,-0.45935,-0.75632
-0.047791,0.095169,-0.034466,-0.013713,-0.011212,0.050182,-0.073107,-0.03129,-0.09387,0.027374,0.066658,-0.019403,0.13475,0.58189,0.013601,-0.045926,-0.046339,0.099074,-0.2185,-0.29214,0.053192,-3.0048,-0.50776,-0.66119
-0.038152,0.067212,-0.029967,-0.011547,-0.026984,0.076667,-0.082684,-0.034778,-0.089837,0.065897,0.069066,-0.017003,0.17221,0.6793,4.6084e-005,-5.1666e-005,-0.04953,0.1059,-0.21327,-0.18773,0.10745,-2.8064,-0.52929,-0.58244
-0.029013,0.038845,-0.024626,-0.012818,-0.04161,0.081362,-0.084476,-0.037991,-0.086215,0.10893,0.069409,-0.015921,0.21075,0.77926,-0.0096954,0.060364,-0.046368,0.10678,-0.2005,-0.10501,0.18625,-2.5995,-0.52318,-0.54717
-0.022677,0.011935,-0.019016,-0.016815,-0.0478,0.062587,-0.079691,-0.038844,-0.083462,0.1408,0.071871,-0.012284,0.24979,0.85326,-0.01386,0.13002,-0.041792,0.1015,-0.18798,-0.049495,0.26985,-2.369,-0.48968,-0.55559
-0.01916,-0.012672,-0.014919,-0.021021,-0.04442,0.034107,-0.074703,-0.036641,-0.079312,0.14805,0.078019,-0.0027212,0.28952,0.8817,-0.010121,0.19503,-0.040235,0.088907,-0.18197,-0.01638,0.33482,-2.0483,-0.42778,-0.58393
-0.01676,-0.033256,-0.014602,-0.023189,-0.037045,0.014633,-0.07527,-0.03182,-0.071109,0.12911,0.085629,0.01251,0.32961,0.86544,0.0036108,0.23997,-0.04281,0.068889,-0.18309,0.0097956,0.3656,-1.57,-0.33724,-0.60058
-0.01392,-0.048058,-0.019228,-0.02287,-0.033074,0.013391,-0.08187,-0.024974,-0.058495,0.096579,0.091092,0.029187,0.3693,0.82293,0.026826,0.25732,-0.047021,0.045838,-0.18636,0.046603,0.36221,-0.92733,-0.22406,-0.58438
-0.010824,-0.057189,-0.027584,-0.021183,-0.035688,0.023903,-0.089891,-0.016307,-0.043871,0.069226,0.092897,0.042073,0.40833,0.77662,0.055332,0.25232,-0.049045,0.029781,-0.18583,0.10223,0.33923,-0.2033,-0.10418,-0.53343
-0.0093159,-0.06269,-0.036157,-0.019484,-0.041787,0.031152,-0.093902,-0.0060581,-0.030292,0.058941,0.092827,0.048795,0.44687,0.73919,0.083197,0.23979,-0.046791,0.032621,-0.1802,0.17021,0.31697,0.4586,-0.00031366,-0.4603
-0.011217,-0.06613,-0.04076,-0.018476,-0.04535,0.025665,-0.092011,0.0047485,-0.018935,0.062717,0.093909,0.051476,0.48366,0.70925,0.10638,0.23476,-0.041403,0.060955,-0.17488,0.23462,0.31045,0.93129,0.068924,-0.37878
-0.016508,-0.066398,-0.038926,-0.018488,-0.042934,0.012198,-0.086917,0.014279,-0.0085335,0.065932,0.097407,0.054905,0.51415,0.67754,0.12483,0.24353,-0.036117,0.11031,-0.17844,0.28156,0.32242,1.1785,0.10098,-0.2926
-0.022981,-0.060676,-0.031541,-0.020052,-0.036493,0.0058154,-0.083494,0.020906,0.0029151,0.054087,0.10192,0.06295,0.5311,0.63698,0.1412,0.26065,-0.033574,0.1655,-0.19597,0.30775,0.34413,1.2724,0.11306,-0.19316
-0.027646,-0.048449,-0.022419,-0.023587,-0.031438,0.019247,-0.085305,0.024427,0.016053,0.023437,0.10529,0.076159,0.52855,0.58813,0.15736,0.27273,-0.033872,0.20779,-0.22438,0.32013,0.36263,1.3369,0.13258,-0.065937
-0.028623,-0.03469,-0.015874,-0.02824,-0.032099,0.052423,-0.092605,0.026331,0.029743,-0.01741,0.10702,0.092196,0.50648,0.53687,0.17196,0.26553,-0.034885,0.22478,-0.25301,0.32805,0.36981,1.4563,0.17957,0.10082
-0.025976,-0.028324,-0.014022,-0.031372,-0.038622,0.092197,-0.10267,0.028844,0.042448,-0.054842,0.10863,0.10828,0.47209,0.48794,0.18089,0.22961,-0.034288,0.21683,-0.2694,0.33509,0.36722,1.6178,0.25337,0.31059
-0.021065,-0.036092,-0.016006,-0.029941,-0.047581,0.12106,-0.11168,0.033606,0.053676,-0.079485,0.11143,0.1233,0.43568,0.44105,0.1802,0.16258,-0.031309,0.19585,-0.26607,0.33673,0.36385,1.7316,0.33384,0.55735
-0.01535,-0.056519,-0.019751,-0.02309,-0.055116,0.1269,-0.11675,0.04113,0.063857,-0.090262,0.11462,0.13798,0.40383,0.39232,0.16874,0.069079,-0.026789,0.17752,-0.24402,0.325,0.36834,1.7102,0.39611,0.82611
-0.0098054,-0.07944,-0.024453,-0.013607,-0.059544,0.10692,-0.11723,0.051248,0.072932,-0.091956,0.11572,0.15323,0.37517,0.33899,0.1488,-0.039701,-0.02197,0.17194,-0.21129,0.29532,0.38139,1.5437,0.42741,1.0935
-0.0051087,-0.092348,-0.031153,-0.0064996,-0.061391,0.065172,-0.11468,0.063742,0.079485,-0.0903,0.11343,0.16824,0.34254,0.28226,0.12471,-0.14664,-0.017611,0.17866,-0.17824,0.25009,0.39372,1.3096,0.43334,1.3306
-0.0018325,-0.089102,-0.040642,-0.0054228,-0.061511,0.0085378,-0.11157,0.078294,0.081735,-0.089025,0.1097,0.17984,0.29994,0.22598,0.10089,-0.23091,-0.01435,0.18871,-0.15289,0.19677,0.3914,1.1149,0.43016,1.5092
-6.3514e-005,-0.074283,-0.050884,-0.009828,-0.059567,-0.054883,-0.10957,0.093831,0.079569,-0.089733,0.10858,0.18361,0.24865,0.17302,0.080721,-0.27295,-0.013525,0.1916,-0.13885,0.14281,0.36448,1.0194,0.43082,1.6118
0.001118,-0.059648,-0.057148,-0.01531,-0.054508,-0.11513,-0.10872,0.10828,0.075395,-0.092528,0.11259,0.17607,0.19703,0.12348,0.066205,-0.26118,-0.016975,0.18175,-0.13577,0.091882,0.31316,1.0006,0.43663,1.6388
0.0033538,-0.055372,-0.055524,-0.01696,-0.046494,-0.16087,-0.10809,0.11946,0.07252,-0.09589,0.12006,0.15679,0.15413,0.076571,0.057669,-0.19716,-0.025461,0.16029,-0.14095,0.044313,0.24735,0.98424,0.43971,1.6082
0.0077357,-0.062886,-0.046929,-0.013013,-0.038201,-0.18317,-0.10744,0.12673,0.072292,-0.096573,0.1262,0.12906,0.12219,0.034199,0.053369,-0.096226,-0.037117,0.13144,-0.15056,0.00080394,0.18078,0.9069,0.43218,1.5471
0.013611,-0.074796,-0.037473,-0.0059103,-0.033884,-0.18041,-0.10814,0.13176,0.072767,-0.091131,0.12726,0.098741,0.094397,0.0025544,0.049643,0.01742,-0.047773,0.097436,-0.16031,-0.03415,0.12402,0.76205,0.41319,1.4802
0.018786,-0.081605,-0.034104,-0.00017697,-0.036585,-0.16019,-0.11207,0.13759,0.070475,-0.078774,0.12404,0.071615,0.060044,-0.010475,0.042467,0.11913,-0.053389,0.056691,-0.16644,-0.052487,0.080834,0.59603,0.38863,1.4211
0.021231,-0.079533,-0.038941,0.00099552,-0.045621,-0.13564,-0.11951,0.14628,0.063921,-0.063089,0.1214,0.050544,0.013485,-0.00034306,0.030025,0.19202,-0.052797,0.0068204,-0.16714,-0.046701,0.048774,0.46571,0.36526,1.37
0.020877,-0.07306,-0.047396,-0.0021955,-0.056508,-0.11805,-0.12788,0.15707,0.055549,-0.050481,0.12405,0.034256,-0.039961,0.030564,0.014498,0.23152,-0.048446,-0.050045,-0.1634,-0.014878,0.022395,0.39444,0.34559,1.3176
0.019849,-0.070482,-0.052144,-0.0067109,-0.063693,-0.11096,-0.13325,0.16658,0.05014,-0.046058,0.13242,0.018492,-0.085784,0.073772,0.001163,0.24457,-0.044542,-0.10475,-0.15788,0.037091,-0.0033966,0.35862,0.32722,1.2532
0.020838,-0.076535,-0.049668,-0.0090261,-0.064243,-0.10972,-0.13354,0.17089,0.050908,-0.050231,0.14211,-0.0012132,-0.10888,0.11966,-0.0052174,0.24432,-0.044138,-0.14444,-0.1517,0.09746,-0.031047,0.31077,0.3062,1.173
0.025005,-0.088371,-0.043532,-0.0074499,-0.059771,-0.1065,-0.13056,0.16803,0.056807,-0.05885,0.14753,-0.026991,-0.1031,0.16298,-0.0042857,0.243,-0.047443,-0.16001,-0.14173,0.15292,-0.059253,0.21971,0.28067,1.0848
0.031149,-0.097937,-0.041265,-0.0029722,-0.055062,-0.096482,-0.12864,0.1588,0.063532,-0.06666,0.14633,-0.057909,-0.075181,0.20492,-0.00097236,0.24663,-0.052317,-0.1523,-0.12125,0.19212,-0.083167,0.09987,0.25218,1.0054
0.036699,-0.098408,-0.047437,0.0016333,-0.054372,-0.080559,-0.13078,0.14576,0.067229,-0.071029,0.14094,-0.09111,-0.040245,0.25008,-0.0021445,0.25376,-0.056095,-0.13217,-0.084938,0.20698,-0.096376,0.010767,0.22444,0.95123
0.039562,-0.089266,-0.059158,0.0037259,-0.058193,-0.063053,-0.13579,0.13149,0.067442,-0.07296,0.1361,-0.1235,-0.012374,0.30065,-0.011331,0.25823,-0.057175,-0.11395,-0.034558,0.19269,-0.094437,0.026031,0.20116,0.92791
0.039347,-0.076239,-0.068218,0.0025707,-0.063007,-0.046918,-0.13935,0.11787,0.066651,-0.075015,0.13494,-0.15257,0.0028157,0.35244,-0.025809,0.25376,-0.055579,-0.10689,0.019572,0.1484,-0.078247,0.18916,0.18392,0.92666
0.037234,-0.06667,-0.068193,-8.301e-005,-0.064258,-0.030617,-0.1383,0.10683,0.067163,-0.078399,0.13691,-0.17594,0.0081503,0.39623,-0.038667,0.23718,-0.052675,-0.11037,0.063736,0.078429,-0.054755,0.48197,0.17102,0.9318
0.034943,-0.064184,-0.060237,-0.0010769,-0.060164,-0.0090805,-0.13416,0.10117,0.068601,-0.081818,0.13902,-0.19071,0.0080669,0.42424,-0.044315,0.20893,-0.05055,-0.11613,0.089184,-0.0075466,-0.033886,0.82672,0.15729,0.93452
0.033738,-0.066448,-0.052304,0.0019534,-0.053308,0.02222,-0.13209,0.1041,0.068534,-0.082693,0.13879,-0.19377,0.0013757,0.43696,-0.042825,0.17156,-0.051082,-0.11511,0.097047,-0.096948,-0.023433,1.1236,0.1359,0.94072
0.034061,-0.067169,-0.052362,0.0086729,-0.048683,0.063118,-0.13586,0.11684,0.065434,-0.079207,0.13608,-0.18314,-0.019406,0.44519,-0.039408,0.12844,-0.054761,-0.10396,0.095633,-0.17852,-0.025486,1.3024,0.10164,0.96437
0.035688,-0.060557,-0.061603,0.015927,-0.049723,0.10726,-0.14325,0.13627,0.060815,-0.071246,0.13255,-0.15973,-0.060775,0.46492,-0.039555,0.083943,-0.059849,-0.08656,0.092464,-0.24537,-0.036914,1.3547,0.054205,1.0094
0.037995,-0.045232,-0.073693,0.01976,-0.055537,0.1441,-0.14656,0.15474,0.058249,-0.059862,0.12976,-0.12784,-0.11903,0.50796,-0.044084,0.044421,-0.062906,-0.070344,0.088033,-0.2949,-0.052944,1.3276,-0.00099876,1.0546
0.04007,-0.025165,-0.080607,0.018266,-0.061588,0.16352,-0.13854,0.16334,0.060161,-0.046497,0.12792,-0.09394,-0.17777,0.5743,-0.048345,0.017935,-0.060924,-0.060702,0.076583,-0.32661,-0.070336,1.2827,-0.055381,1.0573
0.040826,-0.007155,-0.079634,0.013117,-0.063278,0.16096,-0.11909,0.1567,0.065618,-0.033119,0.1261,-0.064297,-0.21577,0.65146,-0.046071,0.01163,-0.053709,-0.057521,0.052744,-0.34118,-0.087383,1.2535,-0.10152,0.97497
0.039333,0.0035247,-0.075157,0.0084937,-0.059547,0.14071,-0.096706,0.13631,0.071314,-0.02286,0.1234,-0.042605,-0.22007,0.72094,-0.034503,0.02805,-0.04435,-0.055865,0.017817,-0.34242,-0.10152,1.2308,-0.13626,0.79166
0.03535,0.0064285,-0.07381,0.0081483,-0.053568,0.11478,-0.082922,0.10971,0.07476,-0.019481,0.11954,-0.029027,-0.19403,0.76768,-0.016662,0.063144,-0.036824,-0.049491,-0.019711,-0.34009,-0.10807,1.183,-0.16068,0.5284
0.029658,0.0058823,-0.077831,0.012818,-0.049977,0.096711,-0.08382,0.085959,0.076527,-0.024908,0.1145,-0.020984,-0.15376,0.78663,0.0005531,0.10775,-0.032375,-0.034317,-0.049161,-0.34892,-0.10265,1.0915,-0.17741,0.22858
0.023763,0.0076183,-0.082997,0.019943,-0.050979,0.093137,-0.095246,0.070547,0.079373,-0.036507,0.10792,-0.015085,-0.11568,0.783,0.010363,0.1517,-0.027819,-0.0097073,-0.063172,-0.38163,-0.085487,0.97007,-0.18786,-0.069893
0.018995,0.014669,-0.083035,0.025762,-0.054569,0.098715,-0.10557,0.062943,0.085236,-0.047192,0.099036,-0.0089495,-0.085455,0.76682,0.0089779,0.18772,-0.017697,0.022445,-0.059198,-0.43924,-0.063168,0.85299,-0.19126,-0.35435
0.015609,0.025667,-0.076167,0.028016,-0.056375,0.099329,-0.10385,0.058026,0.093141,-0.049678,0.087413,-0.0018275,-0.057192,0.74607,-0.0041862,0.21272,0.0010667,0.059269,-0.037056,-0.50628,-0.044928,0.76444,-0.18584,-0.63449
0.012695,0.036638,-0.067425,0.02714,-0.053433,0.082569,-0.087155,0.049669,0.10013,-0.042248,0.073668,0.0061754,-0.022884,0.72256,-0.027961,0.2265,0.025766,0.097578,0.003481,-0.55604,-0.036009,0.69432,-0.17087,-0.92156
0.009058,0.04445,-0.064416,0.025261,-0.046575,0.048135,-0.061701,0.033754,0.10423,-0.031005,0.059299,0.015358,0.016869,0.69306,-0.060515,0.22978,0.048756,0.13346,0.061657,-0.564,-0.034072,0.60122,-0.14806,-1.2085
0.0043526,0.048913,-0.070405,0.024121,-0.03933,0.0095631,-0.037376,0.0090764,0.10655,-0.025826,0.045752,0.026856,0.050626,0.65408,-0.09899,0.22361,0.062099,0.16183,0.13203,-0.521,-0.032403,0.44093,-0.12145,-1.4669
-0.00059569,0.052145,-0.081053,0.023776,-0.034473,-0.015028,-0.020259,-0.023287,0.11026,-0.032774,0.033603,0.04169,0.064559,0.6068,-0.13841,0.20979,0.062472,0.17716,0.20215,-0.43702,-0.027264,0.20141,-0.096137,-1.6619
-0.0046351,0.056385,-0.087761,0.022987,-0.031505,-0.016329,-0.0088295,-0.060684,0.1173,-0.049511,0.022682,0.059232,0.054251,0.55807,-0.17156,0.19098,0.052674,0.17527,0.25513,-0.33342,-0.022427,-0.079231,-0.076707,-1.7694
-0.0074836,0.062477,-0.084632,0.020642,-0.027466,-0.00057036,0.0035818,-0.099033,0.12604,-0.06807,0.012906,0.076684,0.029599,0.5165,-0.19099,0.16911,0.039052,0.1554,0.27635,-0.23003,-0.026379,-0.32397,-0.066165,-1.7839
-0.01005,0.069952,-0.072958,0.016707,-0.020207,0.015894,0.022474,-0.13319,0.13197,-0.082606,0.004827,0.090456,0.0085392,0.48613,-0.19252,0.14328,0.027315,0.12095,0.26023,-0.13631,-0.044749,-0.45313,-0.065606,-1.7126
-0.013501,0.077841,-0.05958,0.01191,-0.010862,0.019506,0.047118,-0.15852,0.13138,-0.094661,-0.00083252,0.098609,0.0048735,0.46271,-0.1781,0.10982,0.01998,0.078618,0.21265,-0.051856,-0.075238,-0.42738,-0.074129,-1.5666
-0.018002,0.084994,-0.050879,0.006692,-0.0030027,0.0091694,0.070679,-0.1734,0.12476,-0.11036,-0.0041276,0.10239,0.020163,0.43576,-0.15559,0.065901,0.01674,0.036185,0.1475,0.026515,-0.10979,-0.27374,-0.088491,-1.3596
-0.022441,0.089862,-0.047794,0.00070743,0.00072741,-0.0047271,0.08527,-0.18079,0.11707,-0.13174,-0.0061362,0.10541,0.045722,0.39567,-0.13501,0.014612,0.016425,8.556e-005,0.079855,0.098324,-0.14139,-0.076992,-0.10284,-1.1142
-0.025474,0.090739,-0.04597,-0.0065147,0.0011544,-0.0099942,0.087905,-0.18714,0.11431,-0.15048,-0.0080666,0.11106,0.071929,0.34021,-0.12332,-0.032832,0.018404,-0.026537,0.019676,0.15865,-0.1685,0.063179,-0.10976,-0.86664
-0.026853,0.086935,-0.040488,-0.014458,0.001687,-0.0022471,0.082771,-0.19874,0.119,-0.15118,-0.010277,0.12013,0.096224,0.275,-0.12131,-0.061372,0.022441,-0.044481,-0.030878,0.20225,-0.19287,0.086176,-0.10319,-0.66136
-0.027733,0.080009,-0.030669,-0.021368,0.0048342,0.012997,0.078181,-0.21765,0.12806,-0.12248,-0.012638,0.13052,0.12316,0.20736,-0.12457,-0.061371,0.027763,-0.057382,-0.075965,0.2278,-0.21405,0.0011253,-0.082138,-0.53426
-0.029671,0.073688,-0.020705,-0.025388,0.0096104,0.025862,0.080726,-0.24002,0.13492,-0.067072,-0.016141,0.13909,0.15742,0.1391,-0.12742,-0.036631,0.032685,-0.06897,-0.12198,0.23875,-0.22752,-0.12852,-0.052199,-0.49533
-0.03331,0.072156,-0.015755,-0.026153,0.012497,0.029371,0.091133,-0.25807,0.13427,-0.0017929,-0.023771,0.14397,0.1971,0.065558,-0.1264,-0.004616,0.035281,-0.080079,-0.17333,0.24114,-0.22953,-0.23683,-0.02302,-0.52228
-0.037972,0.077829,-0.017241,-0.025322,0.011088,0.022664,0.10476,-0.26435,0.12586,0.052905,-0.03878,0.14551,0.23369,-0.017283,-0.12088,0.012448,0.034484,-0.087525,-0.23003,0.24142,-0.22401,-0.30496,-0.0030155,-0.56975
-0.042407,0.090088,-0.02156,-0.025452,0.0068096,0.0092716,0.11588,-0.25545,0.11444,0.085855,-0.061171,0.14555,0.25902,-0.10373,-0.11161,-0.0001117,0.030668,-0.086201,-0.28777,0.24574,-0.22369,-0.36893,0.004681,-0.58942
-0.045884,0.1055,-0.023206,-0.028138,0.0039293,-0.0062165,0.12199,-0.23315,0.10578,0.10073,-0.08583,0.14569,0.27302,-0.17702,-0.099821,-0.042244,0.025388,-0.073283,-0.33968,0.25953,-0.24265,-0.4783,0.0017605,-0.55063
-0.04865,0.11903,-0.019249,-0.033034,0.0057322,-0.019866,0.12489,-0.20285,0.10208,0.11087,-0.10507,0.14625,0.28543,-0.2192,-0.088054,-0.10174,0.020654,-0.051363,-0.3787,0.2856,-0.28587,-0.63923,-0.0095231,-0.45297
-0.051526,0.12575,-0.011164,-0.038462,0.011532,-0.028356,0.12798,-0.17076,0.10025,0.1285,-0.11437,0.14633,0.3101,-0.22527,-0.081165,-0.16354,0.018283,-0.027747,-0.39958,0.32127,-0.34514,-0.79031,-0.030005,-0.32724
-0.05517,0.12273,-0.0027275,-0.042846,0.017411,-0.029208,0.13273,-0.14174,0.094523,0.15672,-0.11626,0.14455,0.35628,-0.20922,-0.084765,-0.21811,0.019513,-0.010195,-0.40025,0.35782,-0.40498,-0.83463,-0.062599,-0.22549
-0.059565,0.11071,0.0036009,-0.045639,0.019938,-0.02236,0.13729,-0.1183,0.081314,0.18933,-0.11842,0.14002,0.42324,-0.19501,-0.10086,-0.26319,0.024699,-0.0024162,-0.38259,0.38437,-0.45385,-0.70656,-0.10704,-0.20374
-0.063928,0.094417,0.0082901,-0.04714,0.019242,-0.011667,0.13853,-0.10063,0.062248,0.21659,-0.12689,0.13279,0.50122,-0.19887,-0.12406,-0.29959,0.033,-0.0028529,-0.35222,0.39425,-0.49113,-0.42365,-0.15533,-0.30225
-0.066915,0.080398,0.013213,-0.047794,0.018504,-0.0039899,0.13517,-0.08712,0.042956,0.23168,-0.14059,0.1239,0.57664,-0.21766,-0.14228,-0.32657,0.04228,-0.0073532,-0.31703,0.38896,-0.5248,-0.085382,-0.19311,-0.52979
-0.067114,0.072996,0.019038,-0.047877,0.020491,-0.0054871,0.12926,-0.075243,0.028609,0.23351,-0.15237,0.11494,0.63781,-0.23443,-0.14243,-0.34142,0.049597,-0.013041,-0.28443,0.37611,-0.56282,0.17911,-0.20742,-0.85866
-0.063892,0.071234,0.024411,-0.047755,0.024647,-0.017627,0.12461,-0.062794,0.019997,0.22545,-0.15606,0.10738,0.67794,-0.2373,-0.11719,-0.34272,0.052377,-0.020075,-0.2586,0.36303,-0.60621,0.27629,-0.1956,-1.2337
-0.058252,0.069545,0.027595,-0.048104,0.027649,-0.036275,0.12364,-0.04918,0.013424,0.21236,-0.15275,0.10185,0.69531,-0.23562,-0.067883,-0.33315,0.04976,-0.030312,-0.23954,0.35169,-0.64913,0.18371,-0.16839,-1.5926
-0.052876,0.062399,0.028567,-0.04957,0.026876,-0.054864,0.12544,-0.03592,0.004342,0.19825,-0.15038,0.098055,0.69148,-0.25807,-0.0019701,-0.31846,0.043264,-0.044688,-0.22486,0.33934,-0.68463,-0.060467,-0.14432,-1.8884
-0.050773,0.049246,0.029215,-0.052093,0.023302,-0.069131,0.12677,-0.025739,-0.0086398,0.18567,-0.15651,0.095187,0.66895,-0.33188,0.071875,-0.30324,0.036113,-0.061763,-0.21306,0.32384,-0.71006,-0.39604,-0.1389,-2.1032
-0.05312,0.035329,0.03147,-0.054674,0.020875,-0.079508,0.12479,-0.02062,-0.022956,0.17605,-0.17113,0.092694,0.62927,-0.45901,0.14682,-0.2873,0.031414,-0.078264,-0.20584,0.30829,-0.7278,-0.77453,-0.1561,-2.2461
-0.057986,0.027251,0.035444,-0.056006,0.022847,-0.089295,0.11917,-0.020148,-0.034982,0.17022,-0.18637,0.090588,0.57323,-0.60922,0.21744,-0.26574,0.030239,-0.090656,-0.20736,0.30016,-0.74193,-1.1669,-0.18761,-2.3388
-0.061361,0.026927,0.03954,-0.055495,0.028514,-0.10049,0.11163,-0.021456,-0.043621,0.16821,-0.19334,0.089038,0.50355,-0.7372,0.27795,-0.23263,0.030931,-0.096448,-0.22083,0.30552,-0.75495,-1.5485,-0.21976,-2.3973
-0.06004,0.029308,0.042317,-0.053708,0.033453,-0.11112,0.10373,-0.02096,-0.051054,0.16849,-0.18989,0.087665,0.42842,-0.8115,0.32222,-0.18559,0.030229,-0.094842,-0.24536,0.32379,-0.76771,-1.8828,-0.24244,-2.4226
-0.054088,0.026144,0.043991,-0.051812,0.033089,-0.11652,0.095198,-0.016659,-0.060071,0.16718,-0.18193,0.085344,0.36195,-0.83295,0.34622,-0.12853,0.02557,-0.087028,-0.2756,0.34772,-0.78165,-2.1199,-0.25363,-2.4053
-0.046677,0.012809,0.045957,-0.050482,0.026347,-0.11322,0.084685,-0.0093432,-0.070903,0.15852,-0.17762,0.080852,0.31899,-0.82868,0.35085,-0.07117,0.017046,-0.0762,-0.30474,0.36884,-0.79977,-2.2131,-0.25689,-2.3395
-0.041326,-0.0075507,0.048942,-0.049358,0.016297,-0.10198,0.07222,-0.0019096,-0.080968,0.13724,-0.18012,0.073808,0.30594,-0.82798,0.34194,-0.025572,0.0077082,-0.066827,-0.32827,0.38346,-0.82417,-2.14,-0.25523,-2.2355
-0.039004,-0.026005,0.051904,-0.047606,0.0075759,-0.087559,0.060749,0.0025897,-0.087829,0.10163,-0.18557,0.064994,0.31448,-0.84032,0.32719,-0.00099407,0.0020271,-0.063002,-0.34551,0.39413,-0.85186,-1.9113,-0.24694,-2.1202
-0.037709,-0.034416,0.052981,-0.045072,0.0031955,-0.075734,0.054814,0.0027574,-0.092251,0.054956,-0.18762,0.055669,0.32428,-0.85257,0.3121,0.0010259,0.003483,-0.066557,-0.35803,0.40563,-0.87325,-1.5649,-0.22737,-2.0248
-0.034809,-0.031367,0.051519,-0.04284,0.0033464,-0.070443,0.057074,-0.00053639,-0.097944,0.0031245,-0.18348,0.046516,0.31486,-0.84495,0.29799,-0.011351,0.012688,-0.076154,-0.36681,0.4195,-0.87593,-1.1514,-0.19485,-1.964
-0.029762,-0.022921,0.048945,-0.042416,0.0064482,-0.072871,0.065663,-0.0048306,-0.10798,-0.050111,-0.1758,0.037232,0.27889,-0.80953,0.28316,-0.023202,0.026922,-0.087993,-0.37089,0.43188,-0.85179,-0.72147,-0.15525,-1.9234
-0.024525,-0.01786,0.04738,-0.044083,0.010599,-0.082037,0.074917,-0.0074139,-0.12145,-0.10652,-0.16949,0.027155,0.22695,-0.75513,0.26561,-0.020142,0.04117,-0.097669,-0.36853,0.43643,-0.80216,-0.31872,-0.12025,-1.8602
-0.021338,-0.021231,0.047271,-0.045946,0.01391,-0.095271,0.079126,-0.0066098,-0.1339,-0.17152,-0.16715,0.016242,0.17947,-0.69717,0.2451,0.0038153,0.050153,-0.10209,-0.35946,0.42934,-0.7366,0.025782,-0.1,-1.7203
-0.020238,-0.031147,0.046516,-0.044851,0.014227,-0.10825,0.076276,-0.0025226,-0.1415,-0.24739,-0.16773,0.005343,0.15175,-0.64531,0.22296,0.04287,0.050628,-0.10064,-0.34585,0.41225,-0.66628,0.29975,-0.095618,-1.4617
-0.018968,-0.041013,0.042228,-0.038804,0.0097786,-0.11595,0.068816,0.0030549,-0.14488,-0.32656,-0.16878,-0.0046334,0.1429,-0.60198,0.20045,0.083048,0.043015,-0.09534,-0.33127,0.39088,-0.59718,0.51255,-0.098048,-1.0744
-0.015434,-0.045055,0.033752,-0.028989,0.0010003,-0.11549,0.061122,0.007667,-0.14886,-0.39087,-0.16914,-0.013874,0.13667,-0.57262,0.17731,0.11062,0.031408,-0.089952,-0.31886,0.37126,-0.52865,0.68666,-0.094678,-0.5864
-0.010158,-0.042555,0.02415,-0.019542,-0.0083764,-0.1089,0.05607,0.0097674,-0.15801,-0.41871,-0.16905,-0.023892,0.1128,-0.57478,0.15197,0.11977,0.021511,-0.088105,-0.31006,0.35696,-0.45818,0.83718,-0.078702,-0.055868
-0.0059942,-0.037536,0.018582,-0.014924,-0.013037,-0.10279,0.053517,0.0098546,-0.1721,-0.39553,-0.16823,-0.036377,0.059873,-0.63352,0.12337,0.11467,0.017278,-0.091064,-0.30462,0.34958,-0.38768,0.95176,-0.053918,0.44509
-0.0051171,-0.034613,0.020693,-0.016783,-0.010036,-0.10341,0.05153,0.010166,-0.18551,-0.32097,-0.16466,-0.051555,-0.01886,-0.76339,0.092776,0.10536,0.018255,-0.096609,-0.30134,0.35089,-0.32563,0.98847,-0.031411,0.84851
-0.0062127,-0.035038,0.029834,-0.022756,-0.0016354,-0.11089,0.048748,0.012893,-0.19121,-0.20858,-0.15597,-0.067601,-0.10895,-0.95112,0.063877,0.10094,0.019648,-0.10038,-0.29912,0.36376,-0.28278,0.89841,-0.021353,1.1044
-0.0049446,-0.036498,0.04129,-0.028202,0.006043,-0.11792,0.045678,0.018214,-0.18553,-0.079681,-0.14199,-0.081792,-0.19284,-1.1546,0.040655,0.10503,0.015434,-0.099383,-0.2982,0.39018,-0.26524,0.66044,-0.026856,1.1898
0.0022788,-0.036526,0.0493,-0.029504,0.0079023,-0.11544,0.043971,0.023901,-0.16997,0.043469,-0.12558,-0.092421,-0.25655,-1.3219,0.024514,0.11569,0.0025705,-0.095027,-0.3014,0.42809,-0.27066,0.30422,-0.044387,1.1131
0.014571,-0.035864,0.050618,-0.026369,0.0040463,-0.10086,0.04461,0.027032,-0.14892,0.14231,-0.11029,-0.099601,-0.29246,-1.4173,0.013189,0.12871,-0.016647,-0.092905,-0.31401,0.47041,-0.2903,-0.094518,-0.068951,0.91514
0.026539,-0.038199,0.046207,-0.021414,-0.00069027,-0.081533,0.046739,0.026471,-0.12625,0.20471,-0.097127,-0.10404,-0.29951,-1.4374,0.0027957,0.14113,-0.035798,-0.09868,-0.34127,0.50816,-0.31457,-0.44205,-0.098162,0.66243
0.032387,-0.046424,0.040223,-0.017589,-0.0015065,-0.069515,0.048135,0.023911,-0.10374,0.22749,-0.083553,-0.10505,-0.28291,-1.4063,-0.00831,0.1525,-0.048193,-0.11318,-0.38417,0.53604,-0.33683,-0.65897,-0.13103,0.43219
0.030713,-0.059214,0.037241,-0.015675,0.0018271,-0.071807,0.046925,0.022405,-0.08212,0.21784,-0.066081,-0.10007,-0.2532,-1.3546,-0.017027,0.16377,-0.050606,-0.13096,-0.43649,0.55567,-0.35272,-0.69918,-0.16317,0.29014
0.025717,-0.071627,0.039539,-0.013901,0.0050303,-0.084444,0.043132,0.023599,-0.062769,0.19044,-0.044267,-0.08697,-0.22298,-1.2985,-0.016877,0.17548,-0.044437,-0.14408,-0.48637,0.5736,-0.35716,-0.55258,-0.18436,0.26961
0.023673,-0.079429,0.045895,-0.0098282,0.0038828,-0.095781,0.0388,0.026135,-0.04779,0.1591,-0.022304,-0.067228,-0.20174,-1.232,-0.0028365,0.18671,-0.033977,-0.14819,-0.52206,0.59491,-0.34369,-0.24074,-0.18284,0.36174
0.02772,-0.082923,0.052382,-0.0027569,-0.001211,-0.096002,0.03655,0.026755,-0.038426,0.12807,-0.0064756,-0.046808,-0.19171,-1.1363,0.02355,0.19548,-0.023498,-0.14598,-0.53806,0.61764,-0.30805,0.18563,-0.15407,0.52252
0.035464,-0.086202,0.054634,0.0054237,-0.0051838,-0.084557,0.037696,0.023249,-0.033547,0.090568,-0.00040988,-0.032931,-0.18844,-0.99792,0.052391,0.19954,-0.015383,-0.14473,-0.53663,0.63254,-0.2533,0.64844,-0.10694,0.69324
0.041261,-0.092099,0.050389,0.011562,-0.0028652,-0.069447,0.041355,0.01668,-0.029838,0.03781,-0.0021069,-0.028934,-0.18586,-0.82301,0.068522,0.19706,-0.010149,-0.14994,-0.52318,0.62896,-0.19092,1.0518,-0.060875,0.824
0.040921,-0.09759,0.040941,0.013468,0.0062924,-0.059806,0.04516,0.010864,-0.023563,-0.028393,-0.0052508,-0.031667,-0.18208,-0.6378,0.058055,0.18679,-0.0074674,-0.16022,-0.49919,0.60278,-0.13569,1.3048,-0.034662,0.88902
0.034739,-0.094513,0.030631,0.011128,0.017885,-0.058677,0.046818,0.0093948,-0.012451,-0.091469,-0.0037678,-0.034177,-0.18075,-0.47574,0.015149,0.16786,-0.0066883,-0.1678,-0.4589,0.56051,-0.097484,1.351,-0.034667,0.88828
0.02663,-0.075847,0.024539,0.0061098,0.026845,-0.061713,0.045195,0.012608,0.0034427,-0.13043,0.0039751,-0.031772,-0.18708,-0.36006,-0.054325,0.13951,-0.0062816,-0.16417,-0.39293,0.51676,-0.076804,1.1903,-0.051432,0.83801
0.020731,-0.042522,0.025644,0.00010102,0.03205,-0.061614,0.04032,0.016955,0.021908,-0.13738,0.014409,-0.026239,-0.20209,-0.29292,-0.13416,0.10073,-0.0031545,-0.14626,-0.29649,0.48654,-0.067439,0.8796,-0.067408,0.75794
0.018686,-0.0047591,0.033074,-0.0058526,0.036746,-0.053533,0.032852,0.017347,0.039188,-0.12652,0.021626,-0.024402,-0.2205,-0.2578,-0.20395,0.050027,0.0067247,-0.11831,-0.17548,0.47721,-0.063776,0.50943,-0.070076,0.66318
0.019592,0.023757,0.042447,-0.010872,0.044489,-0.037247,0.023944,0.010732,0.050874,-0.12476,0.021392,-0.032244,-0.23404,-0.23267,-0.24745,-0.013955,0.026082,-0.088314,-0.04524,0.4847,-0.06602,0.1694,-0.06058,0.56459
0.021832,0.034602,0.048179,-0.013544,0.054793,-0.015891,0.015552,-0.0017525,0.053394,-0.15006,0.013485,-0.049763,-0.23747,-0.20449,-0.25888,-0.090693,0.053925,-0.0623,0.077803,0.49585,-0.07884,-0.081098,-0.051658,0.475
0.024605,0.029563,0.046512,-0.012321,0.062949,0.0061892,0.010303,-0.015511,0.045938,-0.19549,0.0012481,-0.071023,-0.23202,-0.17469,-0.24382,-0.17572,0.085056,-0.041358,0.18555,0.49528,-0.10517,-0.2234,-0.056991,0.41443
0.02787,0.018216,0.037633,-0.0069855,0.064291,0.024623,0.010239,-0.025496,0.031617,-0.2332,-0.010672,-0.089,-0.22342,-0.15209,-0.21431,-0.25993,0.11231,-0.023225,0.28155,0.47304,-0.14133,-0.27074,-0.080494,0.40742
0.031356,0.010349,0.025601,0.00038546,0.058666,0.035815,0.015107,-0.02933,0.016428,-0.2361,-0.01871,-0.1007,-0.21657,-0.13979,-0.18127,-0.33178,0.13013,-0.0062788,0.37575,0.42886,-0.17808,-0.25001,-0.11363,0.47101
0.034167,0.0092322,0.015926,0.0064387,0.050566,0.038475,0.021865,-0.028503,0.0060089,-0.19948,-0.021762,-0.1082,-0.21128,-0.12748,-0.14942,-0.38164,0.13687,0.0082618,0.47472,0.37083,-0.20659,-0.18695,-0.14211,0.59982
0.035517,0.010604,0.012091,0.0090473,0.044614,0.03522,0.026389,-0.02698,0.0021482,-0.14507,-0.021299,-0.11543,-0.2029,-0.09691,-0.11754,-0.40596,0.13455,0.018062,0.57491,0.30943,-0.22373,-0.10092,-0.1562,0.75895
0.035697,0.0075197,0.01328,0.0090006,0.0408,0.032082,0.026325,-0.028314,0.0017422,-0.10483,-0.020425,-0.12433,-0.18725,-0.037231,-0.082919,-0.40832,0.12658,0.023456,0.66411,0.25072,-0.23218,-0.0068843,-0.15634,0.8918
0.036031,-0.0031679,0.015038,0.0090067,0.034294,0.035025,0.02274,-0.033255,-0.00075577,-0.098137,-0.022171,-0.13398,-0.16602,0.041772,-0.045908,-0.39673,0.11583,0.029177,0.72968,0.19322,-0.23573,0.082525,-0.15046,0.94063
0.037653,-0.017779,0.012633,0.010735,0.020309,0.045795,0.019019,-0.039504,-0.0090862,-0.12052,-0.027723,-0.14286,-0.1481,0.11058,-0.010701,-0.37934,0.10412,0.04163,0.76687,0.13034,-0.23463,0.15897,-0.14609,0.86891
0.040229,-0.028366,0.0047151,0.012827,-0.00057364,0.060853,0.01789,-0.043809,-0.02238,-0.15128,-0.035662,-0.15128,-0.14511,0.13651,0.017786,-0.36132,0.092954,0.063475,0.78117,0.056112,-0.22542,0.22263,-0.14432,0.67402
0.041923,-0.028687,-0.0056127,0.012143,-0.021856,0.07475,0.01918,-0.044839,-0.035938,-0.17184,-0.043012,-0.1611,-0.16354,0.10519,0.037968,-0.34469,0.083689,0.090242,0.78335,-0.030436,-0.20489,0.28342,-0.14023,0.38572
0.040791,-0.019028,-0.013213,0.0073383,-0.036217,0.084967,0.020283,-0.044575,-0.044864,-0.17959,-0.047632,-0.17312,-0.19892,0.03145,0.053001,-0.32981,0.076761,0.11237,0.78216,-0.12549,-0.17415,0.35579,-0.1287,0.054695
0.0365,-0.0062871,-0.01491,0.0012335,-0.041676,0.093603,0.018848,-0.046911,-0.047574,-0.18758,-0.050081,-0.18489,-0.23618,-0.04843,0.06843,-0.31624,0.070758,0.12162,0.7805,-0.22442,-0.13874,0.44879,-0.1096,-0.26191
0.030922,0.00063622,-0.011802,-0.00075191,-0.043156,0.10425,0.015175,-0.054387,-0.046484,-0.21274,-0.053143,-0.19168,-0.25709,-0.097795,0.087957,-0.3021,0.062866,0.11674,0.77724,-0.32519,-0.10457,0.55721,-0.087888,-0.5131
0.027038,-0.0033184,-0.0081379,0.0048724,-0.047967,0.1173,0.012169,-0.065717,-0.045678,-0.26334,-0.05908,-0.19004,-0.25049,-0.099085,0.11048,-0.28292,0.050824,0.10378,0.77181,-0.42798,-0.073559,0.66042,-0.06866,-0.66357
0.026858,-0.016575,-0.007912,0.01622,-0.059335,0.12871,0.012935,-0.076377,-0.047772,-0.33443,-0.066948,-0.18102,-0.21895,-0.059064,0.1303,-0.25228,0.034829,0.090603,0.76648,-0.53123,-0.042747,0.7314,-0.052395,-0.69899
0.029879,-0.033019,-0.012132,0.027001,-0.073773,0.13363,0.018275,-0.082004,-0.052638,-0.41213,-0.072623,-0.17014,-0.17696,0.0014057,0.14023,-0.20467,0.017511,0.080507,0.76418,-0.62831,-0.0073723,0.75267,-0.034874,-0.62517
0.033272,-0.047112,-0.018797,0.0313,-0.084427,0.13143,0.026282,-0.081807,-0.058669,-0.48053,-0.071944,-0.16401,-0.14128,0.062889,0.13547,-0.13904,0.0017952,0.070359,0.76423,-0.70852,0.03513,0.72985,-0.011834,-0.46045
0.033822,-0.058053,-0.02511,0.028051,-0.087091,0.12677,0.034233,-0.079012,-0.064906,-0.52578,-0.064335,-0.16626,-0.11967,0.11595,0.11624,-0.060371,-0.011466,0.055066,0.76066,-0.76245,0.083765,0.69317,0.016349,-0.2259
0.030327,-0.069991,-0.029682,0.021445,-0.08345,0.12541,0.040906,-0.077922,-0.071727,-0.53639,-0.05353,-0.17568,-0.10601,0.15852,0.087816,0.021729,-0.023901,0.034346,0.74522,-0.78758,0.13588,0.68298,0.044624,0.059408
0.024621,-0.08855,-0.032996,0.01719,-0.079048,0.12889,0.047274,-0.080216,-0.079383,-0.5031,-0.044522,-0.18746,-0.085697,0.18802,0.057933,0.096182,-0.037625,0.01557,0.71331,-0.78991,0.18981,0.72591,0.067933,0.37474
0.020224,-0.11655,-0.036294,0.018119,-0.078381,0.13371,0.055182,-0.083782,-0.086026,-0.42094,-0.039401,-0.19603,-0.047687,0.19804,0.033052,0.1528,-0.052676,0.0095552,0.66801,-0.78039,0.24542,0.81502,0.085908,0.69151
0.019447,-0.15198,-0.040381,0.022772,-0.08174,0.13586,0.065513,-0.084996,-0.087611,-0.29172,-0.03589,-0.19713,0.0055933,0.18328,0.015357,0.18286,-0.06626,0.022236,0.61899,-0.76946,0.30191,0.90692,0.10288,0.97537
0.021238,-0.18913,-0.045412,0.027535,-0.086175,0.13617,0.077546,-0.082117,-0.080364,-0.12347,-0.029869,-0.18833,0.058137,0.1477,0.0023818,0.17881,-0.074592,0.048943,0.57672,-0.76368,0.35552,0.93866,0.12315,1.201
0.021734,-0.22136,-0.05132,0.029826,-0.088846,0.14032,0.089846,-0.076598,-0.063896,0.073736,-0.019356,-0.16892,0.090121,0.10735,-0.010524,0.13524,-0.075827,0.076327,0.54624,-0.76644,0.39969,0.85623,0.14616,1.371
0.01733,-0.2432,-0.057888,0.029463,-0.089206,0.15285,0.10142,-0.071265,-0.042007,0.29134,-0.0060544,-0.14015,0.090016,0.083842,-0.026538,0.051335,-0.071701,0.090936,0.52488,-0.78019,0.42826,0.63981,0.16638,1.5203
0.0078219,-0.25108,-0.064183,0.027594,-0.088378,0.17084,0.1118,-0.06743,-0.019977,0.51973,0.0069619,-0.10584,0.059941,0.092833,-0.04514,-0.066391,-0.066612,0.088165,0.50524,-0.80716,0.43928,0.31306,0.17793,1.6979
-0.0031428,-0.24317,-0.068234,0.024956,-0.087273,0.1843,0.12018,-0.063913,-0.00040776,0.74033,0.018906,-0.072005,0.010979,0.13537,-0.062969,-0.20384,-0.064854,0.074873,0.48108,-0.84688,0.43651,-0.067159,0.1794,1.9323
-0.010801,-0.21975,-0.06791,0.021432,-0.085967,0.18409,0.12476,-0.058835,0.01858,0.92108,0.032363,-0.044485,-0.046572,0.19723,-0.077059,-0.34232,-0.067905,0.063885,0.4516,-0.89317,0.42713,-0.43397,0.17432,2.208
-0.012914,-0.18407,-0.062635,0.017098,-0.084795,0.17049,0.1237,-0.05216,0.040689,1.0241,0.050461,-0.025646,-0.10954,0.25513,-0.087882,-0.46372,-0.073392,0.064672,0.4215,-0.93363,0.41753,-0.73316,0.1674,2.469
-0.011176,-0.14255,-0.054297,0.013237,-0.085256,0.15396,0.11702,-0.046189,0.066251,1.0256,0.072864,-0.012589,-0.18016,0.28549,-0.099649,-0.55527,-0.07615,0.077172,0.39721,-0.95345,0.41004,-0.93336,0.16071,2.6513
-0.0093072,-0.10289,-0.046081,0.011918,-0.088922,0.14629,0.10786,-0.043383,0.089277,0.93303,0.09478,0.001224,-0.25893,0.27198,-0.11736,-0.61235,-0.070712,0.092967,0.38257,-0.94088,0.40288,-1.0214,0.1539,2.7196
-0.0097319,-0.070544,-0.039945,0.01433,-0.095224,0.14986,0.10123,-0.043714,0.10021,0.78606,0.11034,0.021589,-0.33899,0.21043,-0.14251,-0.63913,-0.053985,0.10237,0.37716,-0.89088,0.3931,-0.99256,0.14776,2.6852
-0.011916,-0.045679,-0.035135,0.019519,-0.10084,0.15504,0.10077,-0.044338,0.093068,0.63419,0.11729,0.049399,-0.40654,0.11023,-0.17067,-0.64728,-0.026882,0.10183,0.37789,-0.80492,0.38007,-0.84952,0.14689,2.5944
