5.0741e-010,1.1595e-009,-2.0007e-009,3.0676e-010,7.5185e-009,4.3236e-009,-1.108e-008,4.5898e-009,9.0677e-011,1.7923e-009,-2.9422e-009,-4.0535e-009,-8.6819e-011,1.364e-009,1.9544e-009,-3.5306e-010,-4.3409e-010,2.373e-010,3.6483e-009,9.5887e-010,8.1996e-010,-2.0393e-009,5.157e-009,2.2824e-009
1.4087e-008,3.1964e-008,-5.5433e-008,8.365e-009,2.0827e-007,1.194e-007,-3.0682e-007,1.2803e-007,2.2935e-009,4.9397e-008,-8.0933e-008,-1.1217e-007,-2.4531e-009,3.7515e-008,5.4204e-008,-9.7101e-009,-1.1857e-008,6.5151e-009,1.0067e-007,2.6628e-008,2.2751e-008,-5.6492e-008,1.4225e-007,6.3375e-008
1.9008e-007,4.2839e-007,-7.4689e-007,1.1053e-007,2.8053e-006,1.6032e-006,-4.1305e-006,1.7381e-006,2.7665e-008,6.6189e-007,-1.0819e-006,-1.509e-006,-3.3474e-008,5.0167e-007,7.3054e-007,-1.297e-007,-1.5725e-007,8.7304e-008,1.3507e-006,3.5938e-007,3.0663e-007,-7.6096e-007,1.9077e-006,8.5592e-007
1.6608e-006,3.7187e-006,-6.5204e-006,9.4247e-007,2.448e-005,1.3944e-005,-3.6015e-005,1.5304e-005,2.1062e-007,5.7446e-006,-9.3622e-006,-1.3148e-005,-2.9377e-007,4.3458e-006,6.3739e-006,-1.1209e-006,-1.3492e-006,7.6152e-007,1.1739e-005,3.1404e-006,2.6741e-006,-6.6411e-006,1.6572e-005,7.4916e-006
1.0561e-005,2.3498e-005,-4.1458e-005,5.8261e-006,0.00015555,8.8302e-005,-0.0002286,9.8261e-005,1.1251e-006,3.6299e-005,-5.8946e-005,-8.3405e-005,-1.8625e-006,2.741e-005,4.0457e-005,-7.0431e-006,-8.4159e-006,4.8652e-006,7.4289e-005,1.9969e-005,1.6958e-005,-4.2212e-005,0.00010481,4.7769e-005
5.2075e-005,0.00011516,-0.00020458,2.7806e-005,0.0007669,0.00043376,-0.0011253,0.00049033,4.4025e-006,0.00017791,-0.00028768,-0.00041039,-9.0805e-006,0.00013413,0.000199,-3.4279e-005,-4.0663e-005,2.4286e-005,0.00036479,9.8432e-005,8.3308e-005,-0.00020823,0.00051416,0.00023646
0.00020713,0.00045529,-0.00081512,0.00010653,0.0030517,0.0017192,-0.0044688,0.001979,1.2555e-005,0.00070365,-0.0011318,-0.0016294,-3.5365e-005,0.00052971,0.00078889,-0.0001344,-0.00015828,9.8648e-005,0.001446,0.00039122,0.00032968,-0.00082953,0.0020353,0.00094551
0.00068242,0.0014908,-0.0026934,0.00033624,0.010064,0.0056452,-0.014698,0.0066376,2.3498e-005,0.0023059,-0.0036857,-0.0053603,-0.00011274,0.0017338,0.0025872,-0.00043574,-0.00050956,0.00033519,0.0047517,0.0012872,0.0010787,-0.0027413,0.0066756,0.0031367
0.0018971,0.0041171,-0.0075207,0.00089041,0.028025,0.01564,-0.040782,0.018861,1.0484e-005,0.0063778,-0.010116,-0.014885,-0.00029869,0.0047911,0.0071468,-0.0011896,-0.0013815,0.00097151,0.013189,0.0035699,0.0029696,-0.0076592,0.018479,0.0087985
0.0045089,0.0097129,-0.017988,0.0020045,0.066763,0.037027,-0.096689,0.046049,-0.00012089,0.015084,-0.023701,-0.035357,-0.00066283,0.011326,0.016837,-0.0027687,-0.0031934,0.0024358,0.031339,0.0084521,0.0069583,-0.018348,0.043737,0.021155
0.0092444,0.019738,-0.037209,0.0038746,0.13731,0.075535,-0.19757,0.097627,-0.00058832,0.030782,-0.0478,-0.072496,-0.0012317,0.023112,0.034102,-0.0055386,-0.0063433,0.0053344,0.064338,0.017225,0.013962,-0.038079,0.089302,0.044032
0.016442,0.034711,-0.067017,0.006487,0.2452,0.13336,-0.34971,0.18113,-0.0017526,0.054499,-0.083376,-0.12909,-0.0018934,0.04095,0.059625,-0.009562,-0.010868,0.010268,0.11483,0.03035,0.023985,-0.069001,0.15815,0.079894
0.02543,0.052869,-0.10555,0.0095021,0.38127,0.20377,-0.53706,0.29581,-0.0040244,0.08391,-0.12591,-0.20027,-0.0023184,0.063165,0.090004,-0.01425,-0.016043,0.017424,0.17879,0.046262,0.034945,-0.10984,0.24341,0.12695
0.034173,0.069493,-0.14572,0.012373,0.51604,0.26792,-0.71393,0.42711,-0.0076186,0.11224,-0.16411,-0.27088,-0.0019973,0.084808,0.11672,-0.01825,-0.02026,0.026053,0.24304,0.060746,0.041956,-0.15447,0.32512,0.17717
0.039711,0.078077,-0.17661,0.014745,0.60573,0.29829,-0.81558,0.54739,-0.012247,0.12982,-0.18305,-0.31896,-0.00046028,0.098806,0.12841,-0.019877,-0.021515,0.034176,0.2881,0.067972,0.038097,-0.19311,0.37456,0.21752
0.03954,0.07358,-0.18844,0.016858,0.61204,0.27035,-0.78935,0.62589,-0.016998,0.12861,-0.17181,-0.32623,0.0024038,0.099363,0.11678,-0.018073,-0.018494,0.038954,0.29724,0.063383,0.017153,-0.21685,0.36748,0.23545
0.033274,0.056187,-0.17879,0.019505,0.52641,0.17729,-0.63119,0.64445,-0.020674,0.10755,-0.13171,-0.29024,0.0061564,0.085954,0.082807,-0.01336,-0.011691,0.037903,0.26755,0.047042,-0.022509,-0.22292,0.29982,0.22607
0.023377,0.032702,-0.15553,0.023316,0.38105,0.037787,-0.40007,0.60914,-0.022604,0.074691,-0.078286,-0.22893,0.0099494,0.064916,0.038513,-0.0079612,-0.0036465,0.030519,0.21491,0.024846,-0.075075,-0.21691,0.1943,0.19596
0.014088,0.013598,-0.13314,0.027865,0.23404,-0.11101,-0.19123,0.54792,-0.02355,0.043413,-0.033656,-0.17164,0.012946,0.046587,0.001045,-0.004669,0.0021814,0.019237,0.1669,0.0058379,-0.12766,-0.20924,0.090087,0.15963
0.0089279,0.0068103,-0.1237,0.031539,0.13441,-0.23307,-0.079015,0.49364,-0.025999,0.024371,-0.012788,-0.14048,0.014698,0.039113,-0.017918,-0.0050095,0.0034176,0.008719,0.14635,-0.0032905,-0.16472,-0.20776,0.019886,0.12987
0.0084648,0.012429,-0.12876,0.032672,0.091403,-0.31304,-0.068458,0.46365,-0.033372,0.018659,-0.013606,-0.13561,0.015193,0.043125,-0.019851,-0.0080344,0.00031725,0.0033959,0.15644,-0.0027116,-0.17477,-0.21222,-0.009683,0.10887
0.010071,0.022549,-0.13867,0.03127,0.07255,-0.36178,-0.094904,0.45103,-0.048314,0.017705,-0.019151,-0.13678,0.01462,0.051543,-0.017601,-0.010873,-0.0043403,0.0046816,0.17921,0.00080424,-0.15608,-0.2153,-0.019045,0.08714
0.010006,0.026923,-0.14022,0.029679,0.033199,-0.40402,-0.075541,0.43432,-0.071023,0.010387,-0.010889,-0.12107,0.013256,0.055059,-0.024926,-0.010857,-0.0070388,0.0099384,0.18942,-0.0007771,-0.11792,-0.20987,-0.036728,0.051573
0.0062757,0.020365,-0.12701,0.03118,-0.04585,-0.4581,0.026222,0.39726,-0.098732,-0.0080914,0.017242,-0.082915,0.011673,0.049138,-0.045722,-0.0076345,-0.0057267,0.014344,0.17332,-0.010377,-0.076112,-0.19618,-0.075961,-0.0039822
2.9412e-005,0.0061885,-0.10384,0.037267,-0.14365,-0.52321,0.1754,0.34185,-0.12679,-0.032662,0.055393,-0.039657,0.010937,0.036929,-0.071944,-0.003462,-0.00085273,0.014594,0.13759,-0.023657,-0.044931,-0.18247,-0.1262,-0.074591
-0.0055862,-0.0069484,-0.081902,0.045937,-0.21865,-0.58216,0.29911,0.28472,-0.15073,-0.052888,0.08725,-0.018061,0.012228,0.025788,-0.091704,-0.0012808,0.0053806,0.011623,0.10154,-0.032984,-0.029673,-0.17818,-0.16575,-0.15006
-0.0080891,-0.012043,-0.068844,0.052789,-0.24413,-0.61462,0.34938,0.24163,-0.16791,-0.061468,0.10361,-0.03354,0.015796,0.020596,-0.10001,-0.0020886,0.010754,0.0099635,0.080133,-0.034096,-0.024441,-0.1857,-0.18291,-0.22536
-0.0075986,-0.0088351,-0.062604,0.054366,-0.2284,-0.60896,0.34111,0.21515,-0.17789,-0.05955,0.10824,-0.079726,0.020121,0.019768,-0.1024,-0.003893,0.01433,0.013977,0.072501,-0.029616,-0.016715,-0.19798,-0.18596,-0.30584
-0.0065027,-0.0031629,-0.05403,0.051,-0.20395,-0.56511,0.33493,0.19583,-0.18146,-0.054839,0.11191,-0.13597,0.022378,0.017319,-0.10862,-0.0032973,0.016487,0.0239,0.065247,-0.026354,0.0039941,-0.20443,-0.1937,-0.4018
-0.0072916,-0.0017315,-0.03562,0.046603,-0.19811,-0.4905,0.38313,0.17357,-0.17942,-0.054773,0.12139,-0.1842,0.020333,0.0088342,-0.1229,0.0014981,0.017999,0.035058,0.046177,-0.028974,0.039021,-0.19976,-0.21633,-0.51544
-0.01049,-0.0069962,-0.0084033,0.045434,-0.21289,-0.39574,0.48758,0.14629,-0.17202,-0.060896,0.13399,-0.21951,0.014304,-0.0042141,-0.14018,0.0088492,0.019185,0.041071,0.015377,-0.035866,0.079647,-0.18809,-0.24542,-0.62996
-0.0144,-0.016089,0.018966,0.048497,-0.23008,-0.29323,0.60383,0.11718,-0.15931,-0.068755,0.14209,-0.2464,0.0073861,-0.015671,-0.15154,0.014694,0.019752,0.038473,-0.01603,-0.040915,0.11276,-0.17866,-0.26194,-0.70968
-0.016723,-0.023882,0.037649,0.05261,-0.23334,-0.19597,0.68294,0.084867,-0.14188,-0.072485,0.14216,-0.26738,0.0033776,-0.020132,-0.15322,0.015749,0.019226,0.029018,-0.037202,-0.039321,0.12877,-0.17695,-0.25406,-0.71332
-0.016563,-0.027022,0.045737,0.052872,-0.22416,-0.11307,0.71086,0.038574,-0.12106,-0.069603,0.13896,-0.27661,0.0039091,-0.017598,-0.15033,0.012259,0.017376,0.017966,-0.047766,-0.031988,0.12627,-0.17898,-0.22778,-0.61447
-0.015127,-0.02576,0.049001,0.046452,-0.21737,-0.043715,0.71198,-0.034305,-0.098675,-0.062256,0.14113,-0.26497,0.0071105,-0.013306,-0.15186,0.0079497,0.014319,0.010097,-0.057505,-0.02449,0.11092,-0.17359,-0.20094,-0.41869
-0.014659,-0.022844,0.055316,0.034741,-0.22308,0.024533,0.71876,-0.13439,-0.07645,-0.054823,0.15294,-0.23032,0.0090059,-0.013188,-0.162,0.0071688,0.01047,0.0068877,-0.076538,-0.021846,0.090605,-0.1508,-0.18715,-0.16626
-0.016619,-0.021132,0.068219,0.022417,-0.23465,0.1091,0.73892,-0.24396,-0.055843,-0.050646,0.17042,-0.18157,0.006566,-0.019117,-0.1761,0.011559,0.0065778,0.00679,-0.10559,-0.024167,0.070934,-0.10952,-0.18469,0.083139
-0.02065,-0.021925,0.085185,0.014415,-0.23495,0.22081,0.74977,-0.33593,-0.038217,-0.050499,0.18534,-0.13213,-2.4505e-006,-0.027926,-0.18475,0.018998,0.0037464,0.0076098,-0.13532,-0.027124,0.053792,-0.059193,-0.17982,0.27776
-0.025091,-0.024753,0.10138,0.013109,-0.21449,0.35593,0.72152,-0.392,-0.02512,-0.053199,0.19272,-0.089419,-0.0074615,-0.034558,-0.18208,0.025607,0.0030786,0.0083698,-0.15472,-0.026498,0.03851,-0.01488,-0.15989,0.39759
-0.028444,-0.028091,0.11479,0.017387,-0.18328,0.49754,0.64541,-0.41485,-0.01812,-0.056969,0.19454,-0.05063,-0.011937,-0.036292,-0.17037,0.029013,0.0049167,0.0091677,-0.16067,-0.022249,0.023654,0.01003,-0.12375,0.4593
-0.030441,-0.030264,0.1279,0.023776,-0.16487,0.62443,0.54142,-0.42444,-0.018008,-0.060277,0.19658,-0.0085518,-0.011566,-0.034511,-0.15747,0.0301,0.0082492,0.0098482,-0.15993,-0.018264,0.0081848,0.008725,-0.080929,0.49831
-0.031789,-0.030187,0.14475,0.028505,-0.17772,0.71999,0.44154,-0.44207,-0.023794,-0.062021,0.20181,0.039356,-0.0075013,-0.033018,-0.14965,0.031883,0.011017,0.0093695,-0.16259,-0.018257,-0.0078127,-0.01796,-0.042084,0.54063
-0.032916,-0.027882,0.16646,0.029217,-0.2205,0.7754,0.36641,-0.47599,-0.032312,-0.061676,0.20709,0.087951,-0.0028049,-0.034798,-0.14662,0.036638,0.011382,0.006636,-0.17333,-0.021907,-0.022437,-0.062597,-0.010495,0.58512
-0.033038,-0.024535,0.18941,0.025625,-0.27315,0.78778,0.3157,-0.51925,-0.039128,-0.059623,0.20591,0.12981,-0.00034272,-0.039999,-0.14272,0.043881,0.009052,0.0017595,-0.18831,-0.02495,-0.031944,-0.11208,0.01825,0.60926
-0.030634,-0.021903,0.20754,0.019103,-0.31109,0.75831,0.27706,-0.55928,-0.04052,-0.057144,0.19438,0.16238,-0.0012276,-0.046458,-0.13235,0.050865,0.0055262,-0.0037757,-0.19967,-0.022997,-0.032371,-0.14809,0.04979,0.5919
-0.025096,-0.021248,0.21685,0.011701,-0.31898,0.69342,0.24119,-0.58885,-0.035366,-0.055594,0.1746,0.18895,-0.0046343,-0.051817,-0.11462,0.055016,0.00297,-0.0083008,-0.20303,-0.015416,-0.022439,-0.1488,0.084857,0.53342
-0.018043,-0.022516,0.21829,0.0051235,-0.29332,0.60654,0.20818,-0.60908,-0.025573,-0.055141,0.1527,0.21282,-0.0086887,-0.055226,-0.093443,0.056059,0.0026943,-0.011265,-0.20106,-0.0057306,-0.0055069,-0.09299,0.11899,0.45644
-0.012828,-0.024426,0.21692,0.00010158,-0.23527,0.51568,0.18169,-0.6241,-0.014574,-0.054204,0.13367,0.23204,-0.011587,-0.057346,-0.073783,0.055986,0.0045538,-0.01334,-0.20058,0.0015534,0.011761,0.034395,0.14716,0.38822
-0.012269,-0.025401,0.21831,-0.0036932,-0.144,0.43552,0.16032,-0.6344,-0.0049028,-0.050388,0.11793,0.24146,-0.012347,-0.059013,-0.058012,0.057,0.007644,-0.015359,-0.20625,0.0045714,0.023924,0.23791,0.16794,0.34102
-0.016361,-0.024575,0.22478,-0.0072586,-0.018697,0.36886,0.13645,-0.6358,0.0034084,-0.04245,0.1024,0.24069,-0.011087,-0.060032,-0.045254,0.059372,0.011356,-0.01736,-0.21669,0.0049454,0.031417,0.51021,0.18303,0.30701
-0.02202,-0.022086,0.23425,-0.011615,0.133,0.30525,0.10329,-0.62443,0.012508,-0.031691,0.084319,0.2391,-0.0089391,-0.059315,-0.033481,0.061182,0.015563,-0.01874,-0.22599,0.0055061,0.041516,0.83274,0.19301,0.27008
-0.025297,-0.018619,0.24196,-0.017187,0.29027,0.22986,0.061997,-0.60189,0.024889,-0.021388,0.064102,0.25115,-0.0075326,-0.056266,-0.021686,0.060152,0.019799,-0.019193,-0.22877,0.0074078,0.064204,1.1765,0.19391,0.22203
-0.024359,-0.01481,0.24372,-0.023522,0.42512,0.13725,0.020784,-0.57512,0.041586,-0.014428,0.044507,0.28526,-0.0080336,-0.052086,-0.01012,0.055874,0.022613,-0.019193,-0.22449,0.0093667,0.10518,1.5023,0.17848,0.16908
-0.020733,-0.011145,0.23854,-0.029557,0.51605,0.039716,-0.012833,-0.55101,0.06169,-0.010925,0.027492,0.33643,-0.010165,-0.049595,0.001,0.050353,0.022243,-0.019384,-0.2176,0.0094183,0.16028,1.7642,0.14165,0.12508
-0.017826,-0.0082611,0.22917,-0.034386,0.55861,-0.037068,-0.038355,-0.53088,0.083223,-0.0078042,0.012035,0.39054,-0.012075,-0.051389,0.012395,0.046348,0.01833,-0.019591,-0.21411,0.0071791,0.21484,1.9184,0.086066,0.1
-0.018021,-0.007019,0.22033,-0.03811,0.56401,-0.068956,-0.06071,-0.51011,0.10428,-0.00094545,-0.004886,0.43678,-0.011588,-0.057644,0.025156,0.045037,0.012964,-0.018732,-0.21735,0.0043687,0.24843,1.9372,0.023316,0.094603
-0.020866,-0.0079613,0.21592,-0.04206,0.54723,-0.048617,-0.082784,-0.48351,0.12339,0.0116,-0.025145,0.4768,-0.0082033,-0.065516,0.039578,0.045161,0.0096759,-0.015936,-0.22605,0.0032506,0.24312,1.8211,-0.030342,0.10413
-0.023714,-0.010554,0.21681,-0.048002,0.51452,0.0095045,-0.10038,-0.45172,0.13923,0.027723,-0.047208,0.52152,-0.0042229,-0.070915,0.05504,0.044431,0.010849,-0.011724,-0.23548,0.0046587,0.19127,1.5996,-0.061399,0.12506
-0.024005,-0.013074,0.22033,-0.056659,0.46046,0.077472,-0.10529,-0.42313,0.15049,0.042232,-0.066945,0.57846,-0.003693,-0.07151,0.071259,0.041835,0.015758,-0.0078456,-0.24051,0.0074898,0.099395,1.3188,-0.065428,0.15765
-0.021076,-0.013528,0.22189,-0.066645,0.37655,0.12888,-0.093734,-0.40885,0.15693,0.050067,-0.080785,0.64158,-0.0095408,-0.068479,0.089471,0.03865,0.02107,-0.0056986,-0.23839,0.0099746,-0.014446,1.023,-0.048835,0.20274
-0.016169,-0.010974,0.2177,-0.074895,0.26367,0.15028,-0.071596,-0.41421,0.16076,0.049499,-0.088416,0.69389,-0.020958,-0.065377,0.11189,0.037222,0.023488,-0.0048747,-0.23,0.011357,-0.1288,0.73988,-0.024963,0.25765
-0.011039,-0.0061126,0.20692,-0.078589,0.1381,0.14304,-0.051227,-0.43274,0.16688,0.043036,-0.09269,0.72104,-0.033202,-0.064898,0.13953,0.038628,0.022257,-0.0034233,-0.21916,0.012409,-0.22832,0.48018,-0.0064252,0.3155
-0.0066438,-0.00061082,0.19184,-0.07728,0.025671,0.11747,-0.042539,-0.44776,0.18079,0.035497,-0.097032,0.72371,-0.040277,-0.066329,0.17035,0.041424,0.019378,0.00022842,-0.21048,0.014467,-0.30867,0.24554,0.0021079,0.36772
-0.0028989,0.0041993,0.17619,-0.073505,-0.051943,0.085701,-0.046656,-0.44149,0.20502,0.030776,-0.10278,0.71675,-0.038754,-0.066069,0.19957,0.042622,0.017524,0.0055,-0.20704,0.01808,-0.37352,0.038219,0.0060561,0.40649
0.00073606,0.008044,0.16269,-0.071214,-0.089352,0.058118,-0.057388,-0.40632,0.23668,0.029721,-0.10876,0.71513,-0.03006,-0.060931,0.22222,0.040024,0.017645,0.0098221,-0.20882,0.022513,-0.42626,-0.13649,0.015963,0.42534
0.0046306,0.01127,0.15157,-0.073124,-0.099389,0.042577,-0.068163,-0.3507,0.26846,0.03047,-0.11316,0.71874,-0.019624,-0.051253,0.2361,0.033886,0.018376,0.010723,-0.21285,0.026392,-0.46354,-0.27447,0.038183,0.42018
0.0087643,0.013868,0.14111,-0.078971,-0.10395,0.043224,-0.077436,-0.29494,0.29276,0.030632,-0.11569,0.71006,-0.01344,-0.040885,0.24281,0.026548,0.017536,0.0079626,-0.21493,0.028721,-0.47704,-0.37763,0.067942,0.39249
0.01276,0.015089,0.12941,-0.085893,-0.12054,0.057698,-0.088171,-0.25918,0.3059,0.029243,-0.11797,0.66816,-0.014354,-0.033869,0.24651,0.020485,0.014155,0.0037515,-0.2121,0.029398,-0.46174,-0.45365,0.090915,0.35229
0.015959,0.014124,0.11616,-0.090471,-0.15389,0.075675,-0.10328,-0.25126,0.30933,0.02692,-0.12187,0.58825,-0.020543,-0.030802,0.25135,0.016479,0.0092108,0.00084679,-0.2044,0.02902,-0.42222,-0.51061,0.09355,0.31534
0.017638,0.011106,0.10276,-0.090805,-0.19773,0.082404,-0.12239,-0.26302,0.30719,0.024397,-0.12774,0.49046,-0.027114,-0.028306,0.25935,0.013292,0.0046661,0.00020311,-0.19471,0.028447,-0.36843,-0.5516,0.075078,0.29339
0.017492,0.0073223,0.090998,-0.087324,-0.24359,0.066747,-0.14279,-0.27723,0.30281,0.021194,-0.13416,0.4092,-0.02962,-0.022275,0.26966,0.0088312,0.0018777,0.00018933,-0.18672,0.028558,-0.30253,-0.57388,0.051619,0.28437
0.01607,0.0043683,0.081395,-0.082157,-0.28896,0.028154,-0.16279,-0.2796,0.29752,0.015936,-0.13956,0.37006,-0.026985,-0.012024,0.2793,0.0016936,0.00072682,-0.0020543,-0.18244,0.030121,-0.20948,-0.57306,0.04801,0.27303
0.01458,0.0030322,0.072677,-0.077807,-0.33803,-0.02333,-0.1835,-0.26678,0.29218,0.0081385,-0.14382,0.37104,-0.021793,-0.0015041,0.28485,-0.0080336,-8.8495e-005,-0.0083472,-0.18077,0.033521,-0.064592,-0.54854,0.082448,0.24391
0.01397,0.0029934,0.06284,-0.075927,-0.39579,-0.074497,-0.20752,-0.24522,0.2891,-0.00031519,-0.14816,0.38253,-0.017895,0.0036998,0.28438,-0.018936,-0.0021413,-0.018138,-0.17815,0.038353,0.14229,-0.5059,0.1549,0.19563
0.014017,0.003469,0.0508,-0.076596,-0.46141,-0.11781,-0.23636,-0.22329,0.29131,-0.0056762,-0.15319,0.36601,-0.017367,0.0010878,0.27879,-0.028939,-0.0064494,-0.029026,-0.1708,0.043335,0.38393,-0.45528,0.24725,0.14097
0.013433,0.0039531,0.037148,-0.078289,-0.52729,-0.15435,-0.26916,-0.20414,0.29945,-0.0047109,-0.15704,0.29766,-0.019233,-0.0064432,0.27158,-0.036038,-0.013,-0.038511,-0.15681,0.046884,0.59708,-0.40734,0.33371,0.088997
0.011146,0.0042095,0.023278,-0.07865,-0.58436,-0.18891,-0.30338,-0.18433,0.30924,0.0029072,-0.15555,0.17989,-0.020802,-0.012738,0.26679,-0.039033,-0.020594,-0.045501,-0.13701,0.048092,0.71425,-0.36982,0.39231,0.024168
0.00771,0.0036941,0.0097478,-0.075873,-0.62839,-0.2223,-0.33614,-0.1578,0.31278,0.014163,-0.14502,0.034399,-0.020196,-0.013129,0.26611,-0.038288,-0.027138,-0.05053,-0.11412,0.047311,0.70585,-0.34588,0.40917,-0.095467
0.0054386,0.0014036,-0.0044541,-0.069941,-0.66138,-0.24821,-0.36496,-0.12024,0.30344,0.024571,-0.12535,-0.11504,-0.017741,-0.0077304,0.26735,-0.036071,-0.030576,-0.054788,-0.091279,0.045787,0.59983,-0.33421,0.375,-0.31326
0.0068122,-0.00327,-0.020795,-0.062778,-0.68703,-0.25757,-0.38829,-0.070519,0.28057,0.030893,-0.10109,-0.25407,-0.015144,-0.00064972,0.26577,-0.035872,-0.030246,-0.058973,-0.07081,0.044582,0.4609,-0.32994,0.28094,-0.63933
0.012238,-0.0093923,-0.039139,-0.057005,-0.70494,-0.2466,-0.40667,-0.0095317,0.25031,0.032785,-0.079257,-0.37501,-0.01354,0.0038398,0.25755,-0.040634,-0.027701,-0.062905,-0.053855,0.043697,0.34414,-0.32628,0.12048,-1.0355
0.019029,-0.014465,-0.056808,-0.054092,-0.7095,-0.22159,-0.42449,0.060479,0.22198,0.032556,-0.065177,-0.46594,-0.012466,0.0045745,0.24284,-0.050894,-0.026034,-0.066013,-0.040455,0.042144,0.26056,-0.31685,-0.1028,-1.4345
0.022755,-0.016073,-0.070075,-0.05332,-0.69511,-0.19655,-0.45066,0.13494,0.20279,0.033639,-0.059435,-0.50659,-0.010706,0.0034968,0.22559,-0.06423,-0.027796,-0.068042,-0.029664,0.038901,0.18199,-0.29838,-0.36854,-1.7794
0.020325,-0.013976,-0.077157,-0.05237,-0.66308,-0.18598,-0.49679,0.20591,0.19464,0.038915,-0.057956,-0.48021,-0.0079504,0.0029257,0.21034,-0.076605,-0.032938,-0.069204,-0.0197,0.033924,0.078946,-0.27255,-0.6409,-2.0499
0.012619,-0.010616,-0.080105,-0.04907,-0.62388,-0.19834,-0.57267,0.26327,0.19407,0.049606,-0.055104,-0.39392,-0.0053733,0.0031082,0.19852,-0.08473,-0.038575,-0.069713,-0.0084586,0.028382,-0.044202,-0.24526,-0.87795,-2.2556
0.0044466,-0.0092406,-0.083641,-0.042919,-0.59199,-0.23401,-0.68053,0.29834,0.19432,0.064833,-0.047481,-0.28789,-0.0044745,0.0024011,0.18758,-0.087769,-0.04101,-0.069268,0.005603,0.023952,-0.14919,-0.2233,-1.0438,-2.4029
0.0014348,-0.011099,-0.091671,-0.035314,-0.57712,-0.28754,-0.81012,0.30726,0.18746,0.081787,-0.035873,-0.21925,-0.0054017,-0.00047888,0.17363,-0.08734,-0.038581,-0.067186,0.02272,0.021762,-0.19847,-0.20998,-1.1173,-2.4685
0.0059073,-0.014286,-0.10441,-0.028456,-0.57837,-0.35093,-0.93745,0.29183,0.16639,0.096605,-0.024328,-0.22742,-0.0066132,-0.0047859,0.15532,-0.086122,-0.033011,-0.063172,0.041889,0.021783,-0.19182,-0.20276,-1.0959,-2.4042
0.014959,-0.015431,-0.11868,-0.023949,-0.58578,-0.41566,-1.0294,0.25777,0.12707,0.10587,-0.017434,-0.3057,-0.0063678,-0.008486,0.1353,-0.086268,-0.028073,-0.058034,0.061787,0.023017,-0.17045,-0.19493,-0.99544,-2.1705
0.022512,-0.012798,-0.13117,-0.022102,-0.58733,-0.47368,-1.0552,0.21223,0.071011,0.10812,-0.017859,-0.40268,-0.0045999,-0.010506,0.11807,-0.088557,-0.026645,-0.053522,0.081776,0.024207,-0.18396,-0.1805,-0.84575,-1.7727
0.023946,-0.0079485,-0.1415,-0.022209,-0.57565,-0.51868,-1,0.16208,0.0062774,0.1044,-0.025538,-0.45445,-0.0032342,-0.011927,0.10619,-0.092413,-0.028555,-0.051182,0.10211,0.024501,-0.24933,-0.15885,-0.68164,-1.2693
0.019612,-0.004416,-0.15233,-0.023277,-0.54961,-0.54765,-0.87508,0.11277,-0.05478,0.097356,-0.038433,-0.42456,-0.0044711,-0.014745,0.098253,-0.096368,-0.030962,-0.051056,0.12319,0.02369,-0.33824,-0.13565,-0.52856,-0.74831
0.014248,-0.0046302,-0.16619,-0.024435,-0.51105,-0.5608,-0.71356,0.066855,-0.10084,0.089405,-0.053848,-0.32289,-0.0085727,-0.019531,0.090414,-0.098701,-0.03084,-0.051377,0.14449,0.022025,-0.40297,-0.11914,-0.39064,-0.28735
0.0128,-0.007954,-0.18216,-0.024872,-0.46119,-0.55906,-0.55472,0.022523,-0.12708,0.081395,-0.069383,-0.19305,-0.013234,-0.024609,0.079832,-0.098153,-0.02745,-0.049708,0.1643,0.019882,-0.41691,-0.11432,-0.2504,0.074371
0.016256,-0.011567,-0.19553,-0.023707,-0.40094,-0.54039,-0.4237,-0.026215,-0.13714,0.072652,-0.08342,-0.082179,-0.015192,-0.02778,0.066812,-0.094603,-0.022798,-0.044788,0.18039,0.017473,-0.39391,-0.11941,-0.084133,0.33977
0.021067,-0.013193,-0.20123,-0.020303,-0.33453,-0.49886,-0.3215,-0.086825,-0.14001,0.062331,-0.09536,-0.017642,-0.012719,-0.028805,0.053779,-0.08925,-0.019923,-0.037616,0.19129,0.014628,-0.37102,-0.12725,0.11545,0.53632
0.022471,-0.013004,-0.198,-0.014925,-0.27184,-0.42839,-0.23217,-0.16406,-0.14423,0.050785,-0.10559,-0.0032867,-0.0069476,-0.029929,0.042264,-0.084008,-0.020549,-0.030801,0.19706,0.010732,-0.37208,-0.13016,0.32592,0.69184
0.018575,-0.012991,-0.18994,-0.0090513,-0.22501,-0.32902,-0.14094,-0.25686,-0.1535,0.039739,-0.11483,-0.029485,-0.0011007,-0.033712,0.030906,-0.080382,-0.023975,-0.026579,0.19932,0.0049497,-0.38583,-0.12451,0.50306,0.8169
0.011572,-0.014672,-0.18379,-0.0047423,-0.20011,-0.21044,-0.048298,-0.35819,-0.1665,0.031133,-0.12292,-0.082558,0.0015744,-0.040325,0.016417,-0.078662,-0.027803,-0.025122,0.20033,-0.0031699,-0.37779,-0.11155,0.60651,0.90051
0.0053298,-0.017539,-0.18417,-0.0033344,-0.19042,-0.08903,0.03145,-0.45742,-0.18006,0.025678,-0.12791,-0.14658,-0.00044446,-0.047145,-0.0033908,-0.078066,-0.029667,-0.024585,0.20186,-0.012972,-0.32445,-0.09438,0.62496,0.91877
0.0019528,-0.019729,-0.19042,-0.0044647,-0.17801,0.020119,0.084864,-0.54335,-0.19234,0.022443,-0.12671,-0.20237,-0.0064753,-0.051144,-0.027313,-0.077617,-0.028585,-0.02288,0.2045,-0.022518,-0.23885,-0.074353,0.58253,0.8518
0.00059018,-0.020027,-0.19744,-0.0063483,-0.14444,0.11032,0.1136,-0.60677,-0.2032,0.019895,-0.11736,-0.23127,-0.014277,-0.05164,-0.051257,-0.076836,-0.025208,-0.019593,0.20753,-0.029423,-0.1644,-0.050201,0.5215,0.70098
-0.00070913,-0.018993,-0.19969,-0.0071737,-0.083439,0.18437,0.13524,-0.64209,-0.21217,0.017483,-0.10139,-0.22367,-0.021147,-0.050586,-0.071051,-0.075568,-0.021188,-0.016292,0.20986,-0.032424,-0.14188,-0.020808,0.47469,0.49751
-0.0023508,-0.018091,-0.19535,-0.0064542,-0.0064758,0.24937,0.17016,-0.6487,-0.21679,0.016282,-0.08412,-0.18398,-0.025001,-0.050155,-0.085138,-0.073277,-0.01827,-0.0149,0.21118,-0.032557,-0.17733,0.011062,0.4474,0.29648
-0.0026189,-0.017895,-0.18762,-0.0051624,0.063342,0.30968,0.22611,-0.63165,-0.21358,0.017918,-0.072097,-0.12604,-0.025246,-0.050227,-0.095038,-0.068841,-0.017555,-0.015681,0.21267,-0.03281,-0.23751,0.037838,0.42043,0.15775
0.00027748,-0.017452,-0.18238,-0.0045674,0.10419,0.36333,0.29376,-0.60083,-0.20128,0.022483,-0.069177,-0.062196,-0.023112,-0.048478,-0.10361,-0.061449,-0.019042,-0.01678,0.21639,-0.036197,-0.27589,0.050579,0.36904,0.12262
0.0057773,-0.015579,-0.18407,-0.0048777,0.1059,0.40301,0.3558,-0.56857,-0.18347,0.0272,-0.074274,0.003921,-0.021051,-0.04301,-0.11287,-0.052008,-0.021569,-0.015845,0.2234,-0.043564,-0.26695,0.044626,0.28198,0.1974
0.010837,-0.01271,-0.19265,-0.0049562,0.071463,0.41934,0.40057,-0.5467,-0.16778,0.027238,-0.082379,0.07508,-0.021217,-0.034698,-0.12313,-0.043589,-0.023323,-0.012222,0.23199,-0.052874,-0.22068,0.023288,0.16731,0.35204
0.012447,-0.011155,-0.20363,-0.0033508,0.011624,0.40362,0.42803,-0.54466,-0.16173,0.018417,-0.087949,0.15319,-0.023941,-0.026714,-0.13371,-0.04,-0.022855,-0.0075649,0.23774,-0.060708,-0.16676,-0.0032885,0.043791,0.53441
0.010423,-0.013203,-0.21126,0.0003192,-0.060141,0.35014,0.44449,-0.56874,-0.16802,-0.00012803,-0.088003,0.23699,-0.027426,-0.021625,-0.14402,-0.043205,-0.02006,-0.0042002,0.23608,-0.064881,-0.12392,-0.023255,-0.071967,0.69368
0.0077264,-0.018727,-0.21233,0.0048645,-0.1276,0.25941,0.45282,-0.62111,-0.18265,-0.025424,-0.082942,0.32863,-0.029078,-0.01909,-0.15404,-0.051501,-0.01634,-0.0027528,0.22587,-0.066084,-0.081099,-0.028629,-0.17152,0.80211
0.0078778,-0.02465,-0.20821,0.0083042,-0.16963,0.14205,0.44857,-0.69707,-0.19707,-0.052825,-0.075193,0.44152,-0.027476,-0.016611,-0.16389,-0.060066,-0.013629,-0.0014356,0.21097,-0.067149,-0.0063358,-0.017867,-0.25075,0.86405
0.01182,-0.027009,-0.20355,0.009223,-0.16328,0.019328,0.42549,-0.78193,-0.20281,-0.079173,-0.067362,0.59775,-0.023317,-0.012629,-0.17333,-0.063702,-0.012929,0.0021199,0.19805,-0.070551,0.125,0.0052786,-0.30236,0.90648
0.017072,-0.024013,-0.2027,0.0076579,-0.094781,-0.083356,0.38484,-0.85058,-0.19562,-0.10443,-0.061269,0.81153,-0.018549,-0.0086946,-0.18164,-0.059925,-0.013495,0.0081239,0.19163,-0.076285,0.3065,0.034762,-0.31371,0.95542
0.019883,-0.017584,-0.20643,0.0050195,0.028734,-0.14851,0.33912,-0.87298,-0.17675,-0.1305,-0.057956,1.0695,-0.01456,-0.0082028,-0.18787,-0.050261,-0.013441,0.013721,0.19028,-0.081985,0.50068,0.064898,-0.2732,1.0123
0.018366,-0.01211,-0.21134,0.0032998,0.17854,-0.17621,0.30638,-0.82445,-0.15121,-0.15847,-0.057938,1.3247,-0.011125,-0.012648,-0.19117,-0.039003,-0.011295,0.015116,0.18739,-0.085134,0.6616,0.091856,-0.18069,1.0466
0.013824,-0.01138,-0.21237,0.0041006,0.31968,-0.18295,0.29962,-0.69592,-0.12446,-0.18658,-0.061336,1.5126,-0.0070299,-0.01907,-0.19093,-0.030466,-0.0072373,0.011013,0.1763,-0.085361,0.76131,0.11443,-0.053445,1.01
0.0092783,-0.01598,-0.20648,0.0078468,0.4329,-0.18906,0.31946,-0.49864,-0.09943,-0.21072,-0.068119,1.5791,-0.0015903,-0.021557,-0.18706,-0.02662,-0.0029535,0.0041659,0.15606,-0.084696,0.8004,0.13419,0.076939,0.8651
0.0067879,-0.022973,-0.19477,0.01343,0.52588,-0.20377,0.3548,-0.26081,-0.0753,-0.22666,-0.078491,1.5026,0.0045725,-0.015928,-0.18028,-0.026413,-0.00026676,-0.00066042,0.13276,-0.08553,0.79827,0.15426,0.17484,0.60784
0.0060372,-0.027957,-0.18154,0.018598,0.62302,-0.21972,0.38924,-0.018269,-0.048648,-0.23209,-0.09272,1.2945,0.010356,-0.0034936,-0.17206,-0.026823,0.00026427,-0.00069299,0.11529,-0.088126,0.77504,0.17643,0.21215,0.27086
0.0052691,-0.028041,-0.17111,0.021262,0.74139,-0.22102,0.40795,0.19635,-0.016245,-0.22705,-0.10978,0.98466,0.015755,0.0096769,-0.16404,-0.024699,-0.00038057,0.0024899,0.10859,-0.090021,0.74162,0.19819,0.17612,-0.091111
0.0033223,-0.023753,-0.16495,0.021157,0.87295,-0.19718,0.40115,0.36251,0.021999,-0.21304,-0.12553,0.60584,0.022478,0.017658,-0.15729,-0.018356,-0.00064529,0.0044898,0.10998,-0.087981,0.70303,0.21259,0.072564,-0.42115
0.00063475,-0.018637,-0.16118,0.020573,0.98879,-0.15041,0.36509,0.47645,0.061808,-0.19222,-0.13248,0.1928,0.032748,0.019591,-0.15194,-0.0082925,0.00035823,0.0022046,0.11133,-0.080901,0.66652,0.21217,-0.074573,-0.67258
-0.0016509,-0.016784,-0.15642,0.023079,1.0622,-0.090434,0.30281,0.55058,0.096089,-0.16751,-0.12296,-0.20824,0.047216,0.020326,-0.14769,0.0031242,0.0024047,-0.0032102,0.10533,-0.071167,0.64199,0.19463,-0.2274,-0.81212
-0.0032819,-0.019925,-0.14817,0.030732,1.0901,-0.022713,0.22486,0.60712,0.11855,-0.14272,-0.09437,-0.53528,0.063876,0.026239,-0.1445,0.012837,0.0047446,-0.0072513,0.090681,-0.063219,0.63211,0.16528,-0.34328,-0.82133
-0.0052781,-0.026121,-0.13583,0.041913,1.0946,0.057888,0.14768,0.66722,0.12713,-0.12175,-0.052731,-0.72431,0.079079,0.039922,-0.14272,0.018689,0.0070047,-0.0060041,0.07233,-0.060403,0.62285,0.13365,-0.38867,-0.70233
-0.0085837,-0.0311,-0.12012,0.051897,1.1016,0.16134,0.087948,0.7403,0.12491,-0.10662,-0.010929,-0.73695,0.08986,0.058288,-0.14235,0.020651,0.0094922,0.00047155,0.057077,-0.062562,0.58791,0.10634,-0.35248,-0.48503
-0.012482,-0.031388,-0.10207,0.056131,1.1172,0.28962,0.054892,0.81969,0.11763,-0.096152,0.018265,-0.58274,0.095664,0.075388,-0.14233,0.020861,0.01267,0.0082698,0.048531,-0.066189,0.50825,0.082147,-0.25092,-0.22661
-0.014729,-0.02691,-0.082886,0.053699,1.1219,0.4284,0.045902,0.88827,0.10966,-0.086682,0.029811,-0.31889,0.098124,0.08701,-0.14087,0.022257,0.016422,0.012962,0.0453,-0.066957,0.3922,0.05399,-0.11941,0.0023766
-0.013632,-0.020977,-0.064467,0.047997,1.0872,0.55116,0.049135,0.93116,0.10105,-0.074791,0.029048,-0.027429,0.099339,0.09289,-0.13686,0.026559,0.019903,0.012998,0.043219,-0.062672,0.2769,0.016061,0.0046852,0.14084
-0.01011,-0.017597,-0.049391,0.043958,1.0009,0.6325,0.051569,0.94716,0.088008,-0.059909,0.027324,0.21354,0.10026,0.095098,-0.13108,0.03298,0.02216,0.010304,0.039102,-0.054548,0.20579,-0.030096,0.097493,0.15702
-0.0074292,-0.018275,-0.039643,0.044172,0.87809,0.66049,0.046312,0.95052,0.066408,-0.044539,0.034002,0.34734,0.10049,0.094941,-0.12593,0.038695,0.022881,0.0079583,0.032831,-0.046072,0.19746,-0.076185,0.15284,0.055516
-0.0084345,-0.020965,-0.035011,0.047201,0.75022,0.63943,0.033623,0.96133,0.03586,-0.0319,0.050919,0.34217,0.099273,0.091836,-0.12368,0.040753,0.022481,0.007426,0.026618,-0.040494,0.23081,-0.11404,0.17444,-0.13033
-0.012658,-0.022017,-0.032804,0.049363,0.64238,0.58325,0.015779,0.99131,0.0012324,-0.023127,0.073015,0.19082,0.096536,0.085135,-0.12467,0.038078,0.021432,0.0078288,0.022758,-0.038776,0.25936,-0.14261,0.16493,-0.35462
-0.016165,-0.019347,-0.029502,0.048144,0.55951,0.50666,-0.008423,1.0355,-0.029574,-0.016581,0.093655,-0.084718,0.092964,0.076589,-0.12722,0.032154,0.019589,0.0075196,0.022003,-0.039343,0.24412,-0.16862,0.12207,-0.57506
-0.014684,-0.014033,-0.023022,0.044218,0.49072,0.42063,-0.043563,1.0761,-0.050196,-0.0098309,0.10966,-0.42923,0.089283,0.070416,-0.12935,0.026049,0.016366,0.0060841,0.02347,-0.039552,0.17912,-0.20031,0.045252,-0.76301
-0.0075023,-0.0090621,-0.013601,0.040527,0.4253,0.33304,-0.091604,1.0959,-0.059501,-0.0023102,0.12213,-0.76515,0.085684,0.070377,-0.13065,0.022604,0.011713,0.0048033,0.025481,-0.037674,0.090581,-0.23984,-0.05508,-0.90506
0.0013029,-0.0065987,-0.0026048,0.039646,0.36461,0.25039,-0.14606,1.0913,-0.061815,0.0039776,0.13351,-1.0232,0.081939,0.076304,-0.13248,0.02298,0.0068421,0.0053518,0.026274,-0.033924,0.012941,-0.28125,-0.15532,-0.99773
0.0056144,-0.0063902,0.0093937,0.041882,0.32084,0.17694,-0.19313,1.0753,-0.06355,0.0064805,0.14439,-1.1776,0.077915,0.083203,-0.13638,0.026253,0.003709,0.0081844,0.024266,-0.029908,-0.03663,-0.31582,-0.22825,-1.04
0.0019169,-0.0066676,0.023282,0.045535,0.30678,0.11215,-0.22031,1.0675,-0.068651,0.0049663,0.15356,-1.2591,0.073797,0.083864,-0.14235,0.030065,0.0034711,0.012132,0.018312,-0.027071,-0.065179,-0.3399,-0.25779,-1.0296
-0.007902,-0.0063837,0.040192,0.048594,0.32738,0.049848,-0.2256,1.08,-0.076088,0.0024822,0.16064,-1.3325,0.069801,0.073114,-0.14857,0.031939,0.0053365,0.015378,0.0083203,-0.02543,-0.090251,-0.35817,-0.24758,-0.96545
-0.017849,-0.0064163,0.059699,0.050118,0.37891,-0.018924,-0.21865,1.1075,-0.081066,0.0033446,0.16825,-1.452,0.065866,0.050821,-0.15294,0.030734,0.0070682,0.016735,-0.0041174,-0.023593,-0.12108,-0.37964,-0.21613,-0.85492
-0.02217,-0.0085322,0.079274,0.050228,0.45217,-0.1012,-0.21184,1.1302,-0.079122,0.0097855,0.18093,-1.6249,0.061822,0.022004,-0.15468,0.027592,0.0068708,0.016112,-0.01589,-0.019971,-0.15207,-0.40991,-0.18262,-0.7182
-0.019352,-0.013218,0.095645,0.049212,0.5333,-0.19876,-0.20871,1.1266,-0.070374,0.02008,0.20132,-1.8084,0.057846,-0.0055794,-0.1545,0.025696,0.0049727,0.014095,-0.023665,-0.01412,-0.17213,-0.44661,-0.15455,-0.58376
-0.012817,-0.018597,0.1069,0.04697,0.60176,-0.30719,-0.20028,1.0866,-0.061212,0.029675,0.2271,-1.9363,0.054545,-0.024769,-0.15307,0.028606,0.0033893,0.011364,-0.025715,-0.0071165,-0.17836,-0.48154,-0.12663,-0.47628
-0.0080465,-0.021556,0.11362,0.043388,0.63212,-0.41625,-0.17361,1.0175,-0.062154,0.034327,0.2516,-1.9539,0.052359,-0.031665,-0.14965,0.037938,0.0040464,0.0085704,-0.023025,-0.00076368,-0.18014,-0.50692,-0.090799,-0.40507
-0.0085143,-0.020092,0.11812,0.039068,0.60445,-0.51056,-0.12587,0.93833,-0.082699,0.032828,0.26807,-1.8401,0.050807,-0.026604,-0.14224,0.051956,0.0070025,0.006513,-0.018724,0.0035939,-0.19037,-0.52023,-0.047548,-0.36161
-0.013478,-0.014797,0.12255,0.035418,0.51827,-0.5725,-0.071486,0.86867,-0.12566,0.027548,0.274,-1.6087,0.048476,-0.013161,-0.12949,0.066246,0.010399,0.0060581,-0.016033,0.005685,-0.21321,-0.52406,-0.0087188,-0.3282
-0.019004,-0.0083148,0.12729,0.033764,0.39778,-0.58915,-0.034852,0.81958,-0.18417,0.022918,0.27224,-1.2994,0.043936,0.0042774,-0.11253,0.076175,0.012102,0.0075883,-0.01605,0.0060735,-0.24017,-0.52238,0.010678,-0.29068
-0.021094,-0.0034145,0.1307,0.034216,0.27991,-0.56057,-0.033204,0.79124,-0.24362,0.023212,0.26818,-0.96668,0.036827,0.023018,-0.095003,0.079373,0.011424,0.01048,-0.01701,0.0055689,-0.25747,-0.51774,0.0042005,-0.24597
-0.018413,-0.0013172,0.13031,0.035336,0.19114,-0.50298,-0.062978,0.77667,-0.28841,0.030852,0.26552,-0.66981,0.028109,0.043057,-0.080871,0.076497,0.0093677,0.013253,-0.015733,0.0048854,-0.25727,-0.51167,-0.020865,-0.20013
-0.01269,-0.0013816,0.12461,0.035023,0.13017,-0.44138,-0.10104,0.76696,-0.31003,0.045538,0.26404,-0.4584,0.019273,0.06594,-0.071856,0.070035,0.0073356,0.014428,-0.010353,0.0046143,-0.24256,-0.50682,-0.049062,-0.16081
-0.0069036,-0.0019202,0.11426,0.031943,0.071058,-0.39496,-0.12051,0.75403,-0.31164,0.064031,0.26073,-0.35554,0.011335,0.092417,-0.066433,0.062509,0.0057601,0.013444,-0.0022927,0.0051379,-0.22278,-0.50716,-0.067953,-0.13147
-0.0029966,-0.0011806,0.102,0.026387,-0.014518,-0.36591,-0.10929,0.73137,-0.30564,0.080697,0.25265,-0.34584,0.0045252,0.1208,-0.061227,0.055588,0.0040323,0.010896,0.0042381,0.0063201,-0.20548,-0.51494,-0.075641,-0.11114
-0.00098741,0.0021406,0.091404,0.019962,-0.13256,-0.3409,-0.0774,0.6953,-0.3057,0.089168,0.23886,-0.37813,-0.0011711,0.14723,-0.05357,0.050304,0.0016936,0.0080218,0.0051201,0.0073497,-0.19178,-0.52734,-0.079396,-0.097918
0.00011796,0.0087169,0.085146,0.014419,-0.25829,-0.30398,-0.048015,0.64825,-0.31831,0.084956,0.22001,-0.38478,-0.0053919,0.16736,-0.043134,0.047398,-0.00049799,0.0059685,-0.00046786,0.0072182,-0.17817,-0.53674,-0.088191,-0.091686
0.00083049,0.018346,0.083697,0.010617,-0.34902,-0.24961,-0.039706,0.60188,-0.33966,0.067827,0.19653,-0.30935,-0.0075215,0.178,-0.031479,0.046985,-0.00089325,0.0054063,-0.0091047,0.0056901,-0.1613,-0.53536,-0.10635,-0.094444
0.00067404,0.029663,0.085219,0.0083138,-0.36695,-0.18502,-0.053535,0.57525,-0.35921,0.042283,0.16784,-0.12931,-0.0075673,0.17747,-0.020206,0.048014,0.0015294,0.0065316,-0.015433,0.0039076,-0.14032,-0.52075,-0.13285,-0.10992
-0.00092228,0.040292,0.086605,0.0067603,-0.29471,-0.12204,-0.073975,0.58611,-0.36662,0.015476,0.13368,0.1364,-0.0069241,0.16542,-0.0094982,0.048606,0.0059497,0.0091473,-0.016092,0.0038517,-0.11539,-0.497,-0.16453,-0.14416
-0.0034202,0.047739,0.085069,0.0053858,-0.1358,-0.068353,-0.081651,0.63888,-0.35648,-0.0063485,0.096204,0.4376,-0.0080629,0.14289,0.0016715,0.04749,0.010103,0.012647,-0.012192,0.0068655,-0.085723,-0.47045,-0.19838,-0.20543
-0.0050742,0.050667,0.079392,0.0039292,0.093565,-0.027609,-0.06737,0.71754,-0.3288,-0.020603,0.060618,0.71548,-0.013032,0.11318,0.013999,0.045246,0.012057,0.016094,-0.0082876,0.012427,-0.050599,-0.44361,-0.23045,-0.30002
-0.0042201,0.049706,0.070213,0.002052,0.3691,-0.0067842,-0.037244,0.79006,-0.28675,-0.028597,0.032844,0.92725,-0.021767,0.082124,0.026529,0.043874,0.011784,0.018608,-0.0086968,0.018295,-0.013199,-0.4126,-0.2544,-0.4238
-0.00078525,0.047185,0.059416,-0.00092112,0.6553,-0.019942,-0.0064477,0.82384,-0.23531,-0.033493,0.015591,1.0607,-0.031616,0.056688,0.036889,0.044765,0.011076,0.019877,-0.014224,0.022029,0.017088,-0.36991,-0.26307,-0.55522
0.0034402,0.045934,0.049133,-0.005598,0.90267,-0.080567,0.012296,0.80297,-0.18174,-0.037895,0.0058587,1.1311,-0.038762,0.041872,0.042976,0.046979,0.011891,0.020311,-0.021948,0.022681,0.028099,-0.30965,-0.25309,-0.65754
0.0060997,0.047811,0.040965,-0.011708,1.0569,-0.18706,0.016551,0.73642,-0.13618,-0.043025,-0.0038139,1.1614,-0.040721,0.038001,0.044672,0.047682,0.014652,0.020637,-0.02796,0.02134,0.013334,-0.2307,-0.22733,-0.69249
0.0060391,0.052699,0.035674,-0.017781,1.081,-0.31541,0.013525,0.65108,-0.10949,-0.049713,-0.02083,1.1589,-0.0381,0.040618,0.044087,0.044582,0.017995,0.021306,-0.030383,0.02022,-0.020873,-0.13645,-0.19082,-0.63813
0.0040787,0.058394,0.033204,-0.021915,0.97657,-0.42868,0.012981,0.57437,-0.10876,-0.059573,-0.04776,1.1055,-0.034106,0.043441,0.044116,0.038126,0.020104,0.022372,-0.030012,0.021133,-0.056455,-0.033043,-0.1427,-0.49895
0.002261,0.06155,0.032844,-0.023121,0.78567,-0.49805,0.019965,0.51811,-0.13332,-0.074395,-0.080673,0.96911,-0.032006,0.042374,0.046468,0.031298,0.020342,0.023958,-0.028422,0.024519,-0.074289,0.071201,-0.072323,-0.30174
0.0023146,0.059422,0.033485,-0.021986,0.56747,-0.51887,0.032534,0.47427,-0.17433,-0.093559,-0.11179,0.72998,-0.03248,0.037693,0.050704,0.027139,0.019701,0.026707,-0.025896,0.029523,-0.067516,0.16556,0.034128,-0.081129
0.0045472,0.051668,0.034078,-0.019897,0.36537,-0.50901,0.045105,0.42481,-0.21835,-0.11164,-0.13469,0.40102,-0.033101,0.032921,0.054863,0.026283,0.019715,0.031507,-0.021477,0.034717,-0.047021,0.23865,0.17962,0.13371
0.0078365,0.040996,0.034153,-0.017519,0.18818,-0.49176,0.053922,0.35762,-0.25228,-0.11908,-0.14852,0.025967,-0.030531,0.031505,0.056952,0.026676,0.020913,0.038466,-0.014976,0.038799,-0.033542,0.28308,0.34666,0.323
0.010508,0.031861,0.03404,-0.014101,0.018517,-0.47867,0.060268,0.27648,-0.26661,-0.10669,-0.15844,-0.34406,-0.023672,0.034009,0.056102,0.02554,0.022212,0.046066,-0.0085008,0.040938,-0.041506,0.30007,0.50236,0.47254
0.011419,0.027697,0.034429,-0.0084598,-0.16138,-0.4659,0.069388,0.19793,-0.256,-0.071707,-0.17206,-0.67685,-0.015015,0.037857,0.052743,0.021531,0.021798,0.051486,-0.005394,0.040962,-0.067155,0.29922,0.61666,0.57137
0.01064,0.028596,0.03546,-0.00076326,-0.35007,-0.44458,0.086485,0.13767,-0.21847,-0.020634,-0.19426,-0.96651,-0.0088427,0.039475,0.048072,0.015216,0.018692,0.052135,-0.0071927,0.039536,-0.091147,0.29221,0.68049,0.61789
0.0094252,0.031383,0.036096,0.0067726,-0.52968,-0.41331,0.11303,0.09725,-0.15496,0.033459,-0.22409,-1.216,-0.0077249,0.036858,0.043448,0.0079265,0.013627,0.047336,-0.01148,0.038171,-0.094436,0.28469,0.7095,0.63131
0.0094484,0.032226,0.034505,0.011247,-0.68531,-0.38058,0.14587,0.061633,-0.069924,0.077944,-0.25571,-1.411,-0.010323,0.030598,0.039983,0.00062522,0.0084944,0.038834,-0.012983,0.038704,-0.074966,0.27311,0.73073,0.65629
0.011622,0.029724,0.029393,0.011459,-0.81999,-0.35586,0.17934,0.010192,0.02782,0.10696,-0.28243,-1.5095,-0.012482,0.022997,0.038223,-0.0059936,0.0048821,0.029749,-0.0073237,0.042226,-0.051132,0.24915,0.76334,0.74942
0.01517,0.025841,0.021307,0.0091184,-0.94957,-0.33899,0.20838,-0.066899,0.12553,0.12271,-0.30078,-1.4619,-0.010655,0.016435,0.037846,-0.010713,0.002994,0.022798,0.0056538,0.048097,-0.048022,0.20813,0.80844,0.94865
0.017741,0.023869,0.012708,0.0076436,-1.0824,-0.31849,0.23065,-0.1593,0.2091,0.13131,-0.31128,-1.249,-0.0046349,0.012392,0.037651,-0.011863,0.0018225,0.01908,0.021752,0.053913,-0.076478,0.15437,0.85405,1.2421
0.016806,0.025269,0.0065383,0.0095042,-1.2044,-0.28054,0.24678,-0.24163,0.26716,0.13709,-0.31591,-0.91212,0.0027009,0.011457,0.036176,-0.0087974,0.00030192,0.018073,0.035439,0.056782,-0.12162,0.099856,0.88793,1.5594
0.011602,0.028237,0.0042973,0.014409,-1.2858,-0.22094,0.2598,-0.28939,0.2952,0.13992,-0.31471,-0.54856,0.0081701,0.013648,0.032703,-0.0034476,-0.001673,0.018514,0.0434,0.055234,-0.15102,0.058124,0.90598,1.7974
0.0041481,0.029235,0.0051954,0.01983,-1.3046,-0.14958,0.27481,-0.29338,0.29744,0.13692,-0.30514,-0.2729,0.01086,0.0184,0.027848,1.0469e-005,-0.003244,0.019299,0.045879,0.050391,-0.13794,0.038565,0.91028,1.8719
-0.0016641,0.026044,0.0071527,0.023215,-1.265,-0.083893,0.29875,-0.26175,0.28505,0.12619,-0.28502,-0.16362,0.012197,0.024338,0.023016,-0.0022493,-0.0034683,0.019901,0.0453,0.045397,-0.082814,0.044245,0.90136,1.7625
-0.0025535,0.019577,0.0087961,0.023844,-1.1935,-0.03622,0.33914,-0.20909,0.27116,0.10893,-0.25632,-0.22736,0.013749,0.029484,0.018988,-0.010769,-0.0021551,0.020311,0.043891,0.043348,-0.017076,0.072238,0.87381,1.5219
0.0018468,0.013003,0.01062,0.022835,-1.1148,-0.0047979,0.40077,-0.14274,0.26489,0.088746,-0.226,-0.40084,0.015139,0.032082,0.014822,-0.022111,9.1136e-005,0.020817,0.042445,0.045186,0.014762,0.11415,0.81981,1.2422
0.0086251,0.0091628,0.014133,0.021678,-1.0297,0.025449,0.48171,-0.05862,0.26779,0.069954,-0.20234,-0.58861,0.014189,0.031447,0.0082434,-0.031174,0.0025009,0.021753,0.040787,0.049186,-0.017375,0.15683,0.73744,1.0014
0.013514,0.0086165,0.019677,0.020922,-0.915,0.07324,0.57158,0.050098,0.27463,0.056858,-0.18966,-0.71401,0.0090865,0.028055,-0.0025176,-0.034652,0.0046844,0.023187,0.038881,0.052422,-0.11093,0.18563,0.63702,0.83053
0.013678,0.0098237,0.025014,0.020218,-0.74638,0.14937,0.65437,0.1797,0.27788,0.05403,-0.18574,-0.75485,0.0003597,0.022836,-0.0169,-0.032807,0.0065688,0.024634,0.03726,0.053045,-0.23423,0.1911,0.54147,0.72099
0.0093296,0.010903,0.0263,0.019386,-0.52526,0.25091,0.71505,0.31059,0.27224,0.065585,-0.18417,-0.7449,-0.0092695,0.016442,-0.031839,-0.02832,0.0079706,0.025081,0.036576,0.051512,-0.34844,0.17548,0.48099,0.66041
0.0031452,0.011199,0.020958,0.019156,-0.28667,0.36457,0.74659,0.41569,0.25619,0.092524,-0.17965,-0.74329,-0.016989,0.0092361,-0.04362,-0.023613,0.0084599,0.023548,0.037072,0.049846,-0.43149,0.15259,0.48369,0.65868
-0.0018128,0.011383,0.010078,0.02066,-0.082523,0.47604,0.75271,0.47605,0.2301,0.13012,-0.1717,-0.79217,-0.021909,0.0018415,-0.050313,-0.019206,0.0077681,0.019944,0.038704,0.049675,-0.48706,0.13867,0.56347,0.73905
-0.0039836,0.012339,-0.0018295,0.024142,0.045503,0.57818,0.74514,0.49118,0.19379,0.16859,-0.16399,-0.88937,-0.025193,-0.0046151,-0.052713,-0.014379,0.0062699,0.015561,0.041587,0.050753,-0.53337,0.13958,0.70859,0.90404
-0.0037725,0.014091,-0.0096965,0.028249,0.083085,0.67215,0.73672,0.47576,0.14707,0.19772,-0.16062,-0.99171,-0.028449,-0.0091425,-0.053,-0.009084,0.0048881,0.01267,0.0459,0.051157,-0.58232,0.14492,0.87792,1.1138
-0.0026454,0.015762,-0.011145,0.030759,0.041469,0.76093,0.73447,0.44604,0.093485,0.21231,-0.16291,-1.0446,-0.032225,-0.011954,-0.052372,-0.0049225,0.0043792,0.013282,0.051002,0.048862,-0.62567,0.13546,1.0127,1.3056
-0.0018628,0.016446,-0.0076743,0.030217,-0.055538,0.84144,0.73578,0.40723,0.043567,0.21356,-0.16944,-1.0161,-0.03616,-0.014835,-0.049934,-0.0041127,0.0046757,0.017815,0.054767,0.043352,-0.63856,0.099527,1.0635,1.4426
-0.0018234,0.016049,-0.003151,0.027002,-0.18184,0.90302,0.72915,0.35193,0.012958,0.20505,-0.17825,-0.91418,-0.040486,-0.020159,-0.043975,-0.0074472,0.0049694,0.024562,0.054451,0.036063,-0.59605,0.045261,1.019,1.5474
-0.0022492,0.015293,-0.0010761,0.022828,-0.31072,0.93485,0.69914,0.27036,0.014425,0.18728,-0.18887,-0.77659,-0.047111,-0.029146,-0.034489,-0.01323,0.0044822,0.030386,0.049057,0.029511,-0.48937,-0.0022424,0.91616,1.6816
-0.00276,0.014929,-0.0026207,0.019188,-0.41386,0.93669,0.63331,0.16371,0.04839,0.156,-0.20194,-0.64534,-0.058841,-0.040782,-0.024459,-0.0182,0.0031847,0.032354,0.041292,0.025822,-0.33044,-0.018037,0.8196,1.8816
-0.0032571,0.014945,-0.0063569,0.016274,-0.46673,0.92261,0.52843,0.049794,0.099099,0.10643,-0.2175,-0.54294,-0.077177,-0.052376,-0.01842,-0.019563,0.0018112,0.02944,0.036795,0.025566,-0.14405,0.0044704,0.78193,2.1049
-0.0038713,0.014555,-0.0092911,0.013454,-0.45966,0.91199,0.39282,-0.043791,0.14046,0.039521,-0.2337,-0.46493,-0.10061,-0.061388,-0.019203,-0.016325,0.0012395,0.023301,0.040356,0.027452,0.044589,0.048851,0.8097,2.2416
-0.0046271,0.013047,-0.0084085,0.010731,-0.40425,0.91324,0.24317,-0.094559,0.14891,-0.035548,-0.24691,-0.38898,-0.125,-0.067083,-0.025517,-0.0089878,0.0018635,0.017575,0.051785,0.028968,0.21807,0.08837,0.85961,2.1908
-0.00516,0.010704,-0.0022398,0.0095187,-0.32509,0.91401,0.097478,-0.097836,0.11553,-0.1053,-0.25248,-0.29159,-0.14581,-0.070702,-0.03239,0.0016428,0.003445,0.015944,0.065146,0.027717,0.36846,0.10574,0.86601,1.9455
-0.0047524,0.008885,0.0079681,0.011604,-0.23962,0.8887,-0.031961,-0.068487,0.050155,-0.15904,-0.24515,-0.16167,-0.16029,-0.074076,-0.034203,0.015013,0.0053766,0.020001,0.072594,0.022852,0.49506,0.10412,0.77842,1.6094
-0.0027307,0.0090434,0.018235,0.017056,-0.14259,0.82003,-0.14086,-0.030445,-0.024536,-0.19344,-0.21964,-0.0058643,-0.16796,-0.077937,-0.028055,0.030083,0.0069807,0.028179,0.070116,0.015761,0.60117,0.10131,0.58253,1.3265
0.00099323,0.011466,0.023643,0.023173,-0.010458,0.71844,-0.22984,-0.0013144,-0.084457,-0.2115,-0.17275,0.15433,-0.1695,-0.081342,-0.01515,0.044261,0.0076693,0.036459,0.060437,0.0093994,0.68992,0.11314,0.29382,1.1715
0.0056147,0.014861,0.021412,0.025895,0.17471,0.62221,-0.29935,0.017138,-0.11403,-0.21783,-0.10693,0.29131,-0.16534,-0.082675,0.00039077,0.053635,0.0070981,0.040448,0.050578,0.0064759,0.75811,0.1403,-0.064348,1.0894
0.0096713,0.017278,0.013198,0.022849,0.40064,0.57526,-0.34766,0.03589,-0.10981,-0.21454,-0.032543,0.38305,-0.15567,-0.081274,0.014019,0.055005,0.0054024,0.03759,0.046109,0.007653,0.79047,0.16888,-0.47689,0.93171
0.011771,0.017616,0.0044806,0.01546,0.62177,0.59803,-0.37376,0.065593,-0.077821,-0.2006,0.034067,0.42359,-0.14137,-0.078232,0.022803,0.048342,0.0033001,0.028284,0.047051,0.011044,0.76037,0.18272,-0.93449,0.56247
0.011354,0.016452,0.00094452,0.0080981,0.78386,0.67274,-0.3817,0.10386,-0.028303,-0.1738,0.077138,0.42715,-0.1248,-0.075651,0.026097,0.037419,0.0017751,0.015454,0.048706,0.013423,0.64139,0.17639,-1.4167,-0.046107
0.0089267,0.01543,0.0044069,0.0047644,0.85881,0.7539,-0.38081,0.13329,0.0287,-0.13293,0.088851,0.42232,-0.10889,-0.074978,0.025057,0.027605,0.0014537,0.0030591,0.046293,0.012277,0.42568,0.15815,-1.8769,-0.79722
0.0056043,0.015808,0.011591,0.0060231,0.86267,0.79491,-0.37976,0.13227,0.08556,-0.078782,0.072312,0.43826,-0.09544,-0.07587,0.021703,0.022192,0.0022279,-0.0055656,0.039,0.007249,0.13688,0.14162,-2.2426,-1.5345
0.0023977,0.017427,0.016824,0.0087795,0.842,0.77086,-0.37927,0.090561,0.13815,-0.014511,0.038228,0.49057,-0.083933,-0.076579,0.018076,0.020047,0.0035743,-0.0088393,0.030083,0.00010913,-0.17433,0.13404,-2.4362,-2.131
-0.00011138,0.018999,0.016418,0.0090397,0.8389,0.68325,-0.37115,0.017632,0.18659,0.053837,-0.0015851,0.57549,-0.072403,-0.075566,0.015697,0.016432,0.005324,-0.0072362,0.023478,-0.0064551,-0.45222,0.13103,-2.407,-2.5359
-0.0015166,0.019347,0.011119,0.0052433,0.86205,0.54875,-0.34651,-0.062265,0.23493,0.11709,-0.038444,0.67516,-0.05964,-0.072959,0.015387,0.0062611,0.0080637,-0.0027697,0.020336,-0.010268,-0.66148,0.1216,-2.1591,-2.7576
-0.0012622,0.018432,0.0048193,-0.00062847,0.8852,0.38586,-0.30696,-0.124,0.28819,0.16458,-0.066289,0.76943,-0.046817,-0.070609,0.017412,-0.012898,0.012566,0.0021206,0.018376,-0.010546,-0.79818,0.098473,-1.7584,-2.8159
0.0011057,0.017292,0.0010292,-0.0049084,0.87236,0.21067,-0.26775,-0.15386,0.34713,0.18807,-0.078998,0.84514,-0.037047,-0.070672,0.021681,-0.04031,0.018591,0.0058086,0.01398,-0.0080729,-0.87954,0.065298,-1.3101,-2.7138
0.0051556,0.017033,0.00029787,-0.0052491,0.80799,0.040965,-0.248,-0.15255,0.40408,0.18585,-0.070292,0.89739,-0.033309,-0.073945,0.027758,-0.073905,0.02418,0.0081765,0.0047504,-0.0048396,-0.92329,0.035177,-0.91248,-2.4535
0.009146,0.017815,0.00050932,-0.0021942,0.70871,-0.10162,-0.25487,-0.12951,0.44415,0.16378,-0.0378,0.92364,-0.036748,-0.079358,0.034778,-0.11233,0.026345,0.010291,-0.0094059,-0.003196,-0.93537,0.021939,-0.61049,-2.0743
0.010814,0.018675,-0.00075479,0.0017491,0.6092,-0.19792,-0.27613,-0.095193,0.45268,0.132,0.012565,0.91729,-0.046877,-0.084965,0.041705,-0.15529,0.022931,0.013248,-0.026717,-0.0046113,-0.91503,0.030917,-0.37629,-1.6702
0.0090919,0.018237,-0.0041669,0.004375,0.53573,-0.24231,-0.28951,-0.057035,0.42485,0.099321,0.067578,0.86684,-0.063122,-0.089418,0.048189,-0.20242,0.014338,0.017085,-0.044422,-0.0085591,-0.86846,0.055832,-0.13219,-1.3625
0.0052684,0.015727,-0.0085195,0.0053186,0.4883,-0.24753,-0.28245,-0.019647,0.37007,0.069479,0.11442,0.76153,-0.085599,-0.092529,0.055391,-0.2523,0.0036946,0.020678,-0.059503,-0.012462,-0.81346,0.083608,0.19566,-1.2389
0.0022494,0.011553,-0.012103,0.0058132,0.44308,-0.23713,-0.26506,0.013481,0.3071,0.041724,0.14975,0.59911,-0.11372,-0.094511,0.065634,-0.30284,-0.0048147,0.02276,-0.069595,-0.013196,-0.76729,0.10323,0.62519,-1.3018
0.0021943,0.007152,-0.014011,0.0073046,0.36985,-0.23098,-0.2643,0.038787,0.25263,0.014591,0.18204,0.38955,-0.14376,-0.094799,0.080526,-0.35205,-0.008388,0.023173,-0.074196,-0.0094017,-0.72805,0.11233,1.1009,-1.4605
0.0045147,0.0042675,-0.014287,0.010333,0.24938,-0.23529,-0.30344,0.051609,0.21173,-0.010918,0.22405,0.15181,-0.16816,-0.091767,0.09881,-0.39732,-0.0071261,0.023218,-0.075269,-0.0028028,-0.66921,0.11738,1.5216,-1.577
0.0062042,0.0040596,-0.013184,0.01445,0.079482,-0.24414,-0.38435,0.045177,0.17735,-0.031461,0.28071,-0.093006,-0.17837,-0.083748,0.11609,-0.433,-0.003621,0.024763,-0.076122,0.0027717,-0.5567,0.12812,1.7948,-1.5391
0.0044675,0.0064615,-0.010528,0.018827,-0.1293,-0.24792,-0.48706,0.011639,0.13876,-0.044129,0.34239,-0.32566,-0.1696,-0.070545,0.1273,-0.449,-0.00098848,0.028861,-0.078862,0.0041546,-0.37749,0.15069,1.8834,-1.3203
-0.00061488,0.010067,-0.0058395,0.022751,-0.35957,-0.23888,-0.58527,-0.052852,0.091797,-0.048657,0.38988,-0.52523,-0.14388,-0.054164,0.13026,-0.43329,-0.00079353,0.035016,-0.082539,0.0012157,-0.15649,0.18402,1.8167,-0.99417
-0.0059028,0.012678,0.0010126,0.025674,-0.58789,-0.20931,-0.66232,-0.14107,0.042602,-0.04676,0.40784,-0.66171,-0.10879,-0.038268,0.1273,-0.37877,-0.0023099,0.04154,-0.083989,-0.0031493,0.053349,0.2211,1.6635,-0.6936
-0.0078256,0.01236,0.0092901,0.027136,-0.78352,-0.14808,-0.71418,-0.2323,0.00244,-0.039489,0.39644,-0.69538,-0.072894,-0.026782,0.12317,-0.29009,-0.0035279,0.046448,-0.081057,-0.0053949,0.2019,0.25347,1.4862,-0.53665
-0.005495,0.0085485,0.017419,0.026908,-0.91286,-0.044643,-0.73975,-0.29987,-0.021204,-0.025781,0.37217,-0.59186,-0.042108,-0.022441,0.12104,-0.185,-0.0030449,0.048057,-0.075261,-0.003998,0.27172,0.27564,1.3061,-0.55952
-0.0014229,0.0025356,0.023534,0.025251,-0.95294,0.098486,-0.73166,-0.32622,-0.029617,-0.0042684,0.3572,-0.34902,-0.01954,-0.025793,0.11998,-0.087854,-0.0013606,0.045125,-0.071068,-0.00017783,0.28599,0.28687,1.1,-0.69433
0.00082202,-0.0030823,0.026207,0.022835,-0.90626,0.25542,-0.67873,-0.31483,-0.030397,0.023114,0.36553,-0.015791,-0.0081061,-0.034809,0.11615,-0.018827,-0.00057451,0.037038,-0.071953,0.0037132,0.29012,0.29011,0.82709,-0.80531
-0.00020698,-0.0057901,0.025041,0.020233,-0.80466,0.38152,-0.57787,-0.28886,-0.030679,0.049564,0.39576,0.31931,-0.011907,-0.045343,0.10653,0.014293,-0.0027054,0.024485,-0.076752,0.0064037,0.32114,0.28901,0.46703,-0.76228
-0.0028025,-0.0045578,0.020859,0.017466,-0.69606,0.435,-0.44267,-0.27633,-0.032309,0.066397,0.43473,0.57283,-0.033674,-0.052633,0.091797,0.016903,-0.0079027,0.010093,-0.07997,0.0084356,0.38569,0.28492,0.042857,-0.50707
-0.0040714,-0.00038425,0.01535,0.014219,-0.62111,0.40236,-0.29865,-0.29263,-0.032554,0.06883,0.46758,0.71799,-0.069913,-0.053485,0.075685,0.001663,-0.013925,-0.0020276,-0.076235,0.010973,0.46042,0.27574,-0.38586,-0.074238
-0.0028725,0.0043152,0.01028,0.010651,-0.595,0.30865,-0.16866,-0.33379,-0.028559,0.059698,0.48601,0.80243,-0.10857,-0.047931,0.061852,-0.019135,-0.017331,-0.0082426,-0.065071,0.014179,0.51327,0.25744,-0.75315,0.44138
-0.00088378,0.0070048,0.006768,0.00795,-0.60549,0.2036,-0.061666,-0.38443,-0.020856,0.047427,0.4897,0.91146,-0.13268,-0.039038,0.051114,-0.038056,-0.015604,-0.0077412,-0.051589,0.01695,0.53036,0.22774,-1.0169,0.94322
-0.00092199,0.0062101,0.0052241,0.0077799,-0.62557,0.13256,0.025004,-0.43262,-0.012939,0.039504,0.48219,1.0987,-0.12851,-0.030701,0.041443,-0.052614,-0.0087921,-0.0033455,-0.042282,0.018263,0.5295,0.18982,-1.1677,1.3771
-0.0042808,0.0020576,0.0059977,0.010863,-0.62971,0.1121,0.093281,-0.47857,-0.0080434,0.036946,0.46667,1.3374,-0.092381,-0.024943,0.030309,-0.063108,0.00036449,0.00022748,-0.039678,0.018636,0.54924,0.15285,-1.2129,1.7368
-0.0095781,-0.0038837,0.0099991,0.015952,-0.60371,0.12592,0.13488,-0.53112,-0.0066571,0.034669,0.44556,1.5342,-0.031461,-0.020825,0.016994,-0.070691,0.007854,-0.00040939,-0.04069,0.020029,0.61874,0.12801,-1.1551,2.0377
-0.013919,-0.009275,0.018307,0.0204,-0.54676,0.14102,0.13488,-0.59699,-0.0070117,0.027455,0.42264,1.5973,0.041552,-0.0158,0.0029948,-0.0764,0.010524,-0.0050447,-0.040028,0.024094,0.72873,0.12175,-0.98889,2.2837
-0.01502,-0.011988,0.030685,0.022108,-0.47038,0.13027,0.085521,-0.67332,-0.0075973,0.015955,0.40412,1.5063,0.11505,-0.0082583,-0.0093205,-0.080688,0.0077604,-0.010346,-0.035247,0.030352,0.82618,0.13081,-0.72099,2.4536
-0.012447,-0.011103,0.044305,0.021219,-0.39808,0.0848,-0.0026566,-0.75021,-0.0088708,0.0069785,0.39601,1.3264,0.1817,0.0010047,-0.018241,-0.083583,0.0018273,-0.012649,-0.028561,0.03605,0.84076,0.14296,-0.39556,2.5109
-0.0073888,-0.007416,0.05435,0.019918,-0.36277,0.010214,-0.10309,-0.81984,-0.012446,0.0075894,0.4,1.1572,0.23744,0.0095338,-0.023267,-0.086355,-0.0034016,-0.010746,-0.023829,0.037974,0.72816,0.14374,-0.096768,2.4264
-0.0018172,-0.0029989,0.056803,0.020363,-0.39683,-0.086827,-0.18724,-0.88342,-0.018804,0.018471,0.41148,1.062,0.27951,0.015211,-0.024827,-0.094359,-0.0047258,-0.0064962,-0.021926,0.034784,0.50121,0.12466,0.082555,2.1981
0.0021239,0.00010058,0.051534,0.022568,-0.51501,-0.20828,-0.2387,-0.9496,-0.026133,0.032917,0.4219,1.0352,0.30658,0.017426,-0.023982,-0.11815,-0.0016133,-0.0029712,-0.019334,0.028025,0.2263,0.087454,0.087337,1.8581
0.0025971,0.0011862,0.042981,0.024267,-0.6997,-0.36218,-0.2566,-1.0263,-0.031771,0.04266,0.4233,1.0295,0.32081,0.01635,-0.022436,-0.16954,0.0034733,-0.0019482,-0.011537,0.021106,-0.01328,0.041748,-0.071782,1.4647
-0.0010412,0.0012477,0.037339,0.023001,-0.90087,-0.55028,-0.24849,-1.1133,-0.035049,0.045321,0.41145,1.0115,0.32808,0.01133,-0.022451,-0.25287,0.006846,-0.0028799,0.0020312,0.017101,-0.16158,-0.0015452,-0.32951,1.0842
-0.0072093,0.0019966,0.038144,0.018562,-1.0556,-0.75678,-0.22217,-1.2025,-0.038802,0.046593,0.3859,0.99074,0.334,0.00041304,-0.026236,-0.35744,0.0063026,-0.0040268,0.016462,0.017004,-0.21244,-0.035934,-0.60609,0.76628
-0.012177,0.0043733,0.043761,0.01346,-1.1177,-0.94856,-0.18447,-1.2829,-0.047906,0.055043,0.34837,0.99872,0.33775,-0.018065,-0.035073,-0.45797,0.0026764,-0.0044766,0.025013,0.019554,-0.19789,-0.060551,-0.8461,0.52624
-0.012118,0.0077585,0.048907,0.010861,-1.0792,-1.0886,-0.14598,-1.346,-0.065886,0.074107,0.30196,1.0449,0.32936,-0.043094,-0.048882,-0.5253,-0.0011398,-0.0051009,0.02465,0.022511,-0.15558,-0.077261,-1.0307,0.344
-0.0061361,0.010516,0.04901,0.011821,-0.9693,-1.1543,-0.12264,-1.3857,-0.092304,0.098342,0.25139,1.0961,0.29426,-0.070167,-0.066589,-0.54071,-0.0029412,-0.0075879,0.018269,0.024242,-0.10157,-0.087144,-1.1634,0.18481
0.0022873,0.011352,0.043774,0.014355,-0.83228,-1.1481,-0.12872,-1.396,-0.12279,0.1171,0.20249,1.1023,0.22325,-0.093227,-0.086804,-0.50373,-0.003279,-0.012493,0.011526,0.024433,-0.027011,-0.089488,-1.2478,0.029784
0.0072687,0.01032,0.037061,0.015222,-0.70046,-1.0942,-0.166,-1.3728,-0.15113,0.12217,0.15965,1.045,0.12072,-0.10808,-0.10809,-0.42785,-0.0048325,-0.018151,0.007339,0.023522,0.082503,-0.083478,-1.2791,-0.107
0.0049467,0.0086859,0.033378,0.012808,-0.58165,-1.0247,-0.22033,-1.3205,-0.17154,0.11282,0.12282,0.96129,0.0049553,-0.11447,-0.12854,-0.32822,-0.0095199,-0.02154,0.0034171,0.021571,0.22307,-0.070212,-1.2515,-0.19142
-0.0031409,0.0078693,0.034116,0.0084463,-0.46743,-0.96406,-0.2712,-1.2596,-0.17971,0.094091,0.087388,0.91846,-0.099205,-0.11502,-0.14536,-0.21146,-0.016063,-0.020484,-0.0047627,0.017771,0.36334,-0.052732,-1.1713,-0.20511
-0.010838,0.0084333,0.036696,0.0050104,-0.35164,-0.92223,-0.30734,-1.2215,-0.17323,0.070814,0.048157,0.95879,-0.16938,-0.11181,-0.15517,-0.075251,-0.020555,-0.015399,-0.018398,0.011204,0.45679,-0.034058,-1.0634,-0.17431
-0.012063,0.0098937,0.037072,0.0041625,-0.24145,-0.89654,-0.33434,-1.2298,-0.15225,0.043227,0.0045337,1.0611,-0.18965,-0.10366,-0.15532,0.083031,-0.019828,-0.0090912,-0.032726,0.0022519,0.46614,-0.015407,-0.96583,-0.16298
-0.0056566,0.011332,0.033143,0.0048422,-0.15153,-0.87903,-0.36668,-1.2794,-0.12026,0.0086593,-0.037837,1.1501,-0.14892,-0.086723,-0.14536,0.25678,-0.014606,-0.0046946,-0.040158,-0.006785,0.38362,0.0034288,-0.91738,-0.22925
0.0037526,0.012135,0.026076,0.0043465,-0.088579,-0.8622,-0.41141,-1.3319,-0.083752,-0.032256,-0.070966,1.1446,-0.03901,-0.058035,-0.12783,0.42774,-0.0092788,-0.0033424,-0.036557,-0.012772,0.23528,0.021793,-0.94337,-0.37791
0.0096792,0.012237,0.018716,0.00089901,-0.042709,-0.8406,-0.4586,-1.3366,-0.049841,-0.071043,-0.090829,1.0064,0.14213,-0.019219,-0.10755,0.57275,-0.0081472,-0.0034181,-0.024897,-0.013921,0.068832,0.036395,-1.0455,-0.54996
0.0091058,0.011893,0.012932,-0.0047119,0.0051512,-0.81001,-0.48762,-1.2648,-0.023667,-0.094032,-0.10062,0.75517,0.38233,0.023132,-0.09005,0.67457,-0.01139,-0.0019972,-0.012819,-0.01125,-0.066248,0.042257,-1.1998,-0.66312
0.0045935,0.011421,0.008435,-0.0098361,0.066925,-0.76684,-0.48298,-1.131,-0.007992,-0.091661,-0.1083,0.44512,0.64934,0.061001,-0.079725,0.72931,-0.01455,0.0026729,-0.0062115,-0.0078884,-0.13627,0.03612,-1.3652,-0.67417
0.0014886,0.01125,0.0038836,-0.012191,0.13915,-0.70937,-0.44474,-0.9824,-0.006029,-0.06756,-0.12119,0.12909,0.8947,0.089756,-0.078611,0.74614,-0.012292,0.0096673,-0.0046148,-0.0066425,-0.1325,0.019468,-1.5013,-0.61329
0.0029482,0.011977,-0.0012244,-0.011517,0.2125,-0.63937,-0.38461,-0.86456,-0.02485,-0.039507,-0.14278,-0.16147,1.0684,0.11037,-0.085891,0.74046,-0.0032322,0.016091,-0.0025034,-0.0078434,-0.071178,-0.0016887,-1.5841,-0.56069
0.0073365,0.014038,-0.0059007,-0.0093366,0.29052,-0.5623,-0.31313,-0.78901,-0.075063,-0.030143,-0.17428,-0.41092,1.1374,0.12737,-0.098098,0.72596,0.0084695,0.019402,0.0049756,-0.0094188,0.013745,-0.020466,-1.6097,-0.58316
0.010162,0.017038,-0.0087728,-0.0073656,0.39783,-0.48484,-0.23176,-0.73029,-0.16498,-0.053468,-0.21806,-0.60364,1.0969,0.14445,-0.10985,0.71043,0.016258,0.01938,0.017321,-0.0091326,0.083185,-0.033371,-1.5835,-0.68139
0.0084742,0.019509,-0.0095795,-0.0062205,0.56538,-0.41099,-0.13751,-0.65278,-0.29283,-0.10683,-0.27816,-0.72116,0.96893,0.16168,-0.11512,0.69734,0.016341,0.01804,0.02936,-0.0069091,0.10727,-0.041738,-1.5061,-0.79024
0.0035312,0.019723,-0.0094058,-0.0054575,0.80197,-0.33948,-0.03398,-0.54353,-0.44347,-0.17397,-0.35615,-0.76066,0.79064,0.17649,-0.10884,0.69043,0.010414,0.017607,0.036401,-0.004988,0.076281,-0.049421,-1.3703,-0.83049
-0.00059961,0.017193,-0.0094714,-0.0045331,1.0762,-0.26485,0.064749,-0.42277,-0.59384,-0.23621,-0.44605,-0.75965,0.59987,0.18719,-0.088718,0.69662,0.0038015,0.018409,0.038747,-0.005657,0.002914,-0.059044,-1.1735,-0.76864
-0.0009433,0.013453,-0.0098264,-0.0035052,1.3274,-0.18248,0.14331,-0.32449,-0.72399,-0.28295,-0.53433,-0.79944,0.42619,0.19537,-0.056475,0.72375,0.00092702,0.018668,0.041244,-0.0086785,-0.085475,-0.07011,-0.9317,-0.6377
0.0017243,0.011083,-0.0093383,-0.0028147,1.5002,-0.094157,0.1992,-0.2657,-0.82568,-0.31419,-0.60668,-0.9724,0.28856,0.20455,-0.017813,0.77428,0.0021754,0.016452,0.048398,-0.010996,-0.15969,-0.080175,-0.67694,-0.50664
0.0038241,0.011537,-0.0069713,-0.0025727,1.5772,-0.0096802,0.24691,-0.2314,-0.90209,-0.33506,-0.65715,-1.3269,0.19564,0.21622,0.019382,0.83995,0.0045253,0.011989,0.059817,-0.009267,-0.19902,-0.087285,-0.43707,-0.42814
0.0024532,0.013733,-0.0030694,-0.0022478,1.5847,0.05834,0.30594,-0.187,-0.95943,-0.34846,-0.69187,-1.8268,0.14419,0.22671,0.048265,0.90329,0.0047876,0.0080364,0.070371,-0.0030403,-0.19485,-0.090995,-0.21416,-0.40762
-0.0018788,0.014932,0.00058082,-0.0011256,1.5674,0.10343,0.38183,-0.10591,-0.99873,-0.35222,-0.72374,-2.3574,0.1161,0.22819,0.066154,0.94687,0.0022039,0.0076937,0.074907,0.0044583,-0.14945,-0.091115,0.015576,-0.4134
-0.0056411,0.013262,0.0019353,0.00096202,1.5538,0.13065,0.45756,0.011047,-1.0153,-0.3422,-0.76174,-2.7799,0.079761,0.2134,0.075569,0.965,-0.0016776,0.011459,0.073088,0.0089056,-0.074713,-0.085975,0.27659,-0.41204
-0.005285,0.0094628,0.00010142,0.0034429,1.5387,0.15228,0.5037,0.1379,-1.0065,-0.31702,-0.80334,-2.9979,0.0012662,0.18083,0.082182,0.96872,-0.0050523,0.016296,0.069883,0.008659,0.0081445,-0.072567,0.56429,-0.39671
-0.00017974,0.0060459,-0.0040667,0.0056027,1.493,0.17533,0.49907,0.24178,-0.9804,-0.2798,-0.83585,-2.9926,-0.1368,0.13644,0.090773,0.97914,-0.0074056,0.017864,0.071273,0.0062451,0.071749,-0.048898,0.83807,-0.38912
0.0068648,0.0045944,-0.0084175,0.0073936,1.3898,0.19058,0.4447,0.30072,-0.95531,-0.23574,-0.84551,-2.8074,-0.31996,0.090667,0.10194,1.0128,-0.0091615,0.014202,0.079092,0.0060121,0.092215,-0.016499,1.0453,-0.42105
0.011642,0.003995,-0.010505,0.0095802,1.2229,0.17392,0.36042,0.30987,-0.95006,-0.18881,-0.82677,-2.5028,-0.50282,0.053067,0.11196,1.0701,-0.010318,0.0075764,0.08955,0.0099541,0.061625,0.01935,1.157,-0.51513
0.011347,0.0016126,-0.0085647,0.012947,1.0071,0.10216,0.26967,0.27779,-0.97025,-0.14133,-0.78453,-2.1211,-0.6301,0.028055,0.11582,1.135,-0.0099572,0.0026396,0.096555,0.015564,-0.0066157,0.051955,1.1852,-0.67741
0.0061204,-0.0035761,-0.0021747,0.017256,0.76644,-0.026979,0.18751,0.22092,-1.0018,-0.096374,-0.72854,-1.6852,-0.66671,0.014237,0.11102,1.1862,-0.0072897,0.0023296,0.096751,0.017849,-0.086589,0.076138,1.1698,-0.89905
-0.00141,-0.0091146,0.007492,0.021031,0.52289,-0.18587,0.12138,0.16049,-1.0172,-0.059862,-0.66513,-1.2216,-0.61743,0.0069651,0.099275,1.2101,-0.0029737,0.0052166,0.091896,0.01381,-0.15802,0.089525,1.147,-1.1581
-0.0078682,-0.010721,0.01799,0.02259,0.29598,-0.32702,0.07996,0.11871,-0.98995,-0.039004,-0.59319,-0.77615,-0.52234,0.0018283,0.084991,1.2038,0.00096745,0.0068726,0.08677,0.0053244,-0.21891,0.091952,1.129,-1.4189
-0.010923,-0.0062671,0.026602,0.021521,0.10772,-0.40553,0.077215,0.11046,-0.9099,-0.037548,-0.5069,-0.40379,-0.43104,-0.003213,0.072265,1.1698,0.0027613,0.0041566,0.084738,-0.0022461,-0.28088,0.084546,1.107,-1.6361
-0.010234,0.0016848,0.031684,0.019205,-0.016801,-0.39846,0.12436,0.13367,-0.78859,-0.051938,-0.40198,-0.14425,-0.37388,-0.007842,0.062954,1.1078,0.0024044,-0.00158,0.08485,-0.004486,-0.35089,0.069822,1.0704,-1.7687
-0.007274,0.0074894,0.033549,0.017717,-0.058127,-0.30926,0.21611,0.16702,-0.65368,-0.072171,-0.27977,-0.0072033,-0.34973,-0.010713,0.057114,1.0152,0.0014452,-0.0055459,0.082842,-0.0013993,-0.41683,0.05222,1.0209,-1.7996
-0.0042685,0.0070392,0.034108,0.017975,-0.015188,-0.1588,0.325,0.17976,-0.53547,-0.087199,-0.14636,0.02,-0.33657,-0.010701,0.0548,0.89467,0.0011995,-0.0040304,0.075004,0.0031028,-0.45252,0.037272,0.96978,-1.7453
-0.0028432,0.0012487,0.035384,0.018843,0.087737,0.026398,0.41165,0.14793,-0.45242,-0.090651,-0.0088811,-0.044252,-0.31362,-0.0072825,0.057123,0.76092,0.0012552,0.0018118,0.06168,0.0050173,-0.43969,0.028823,0.9257,-1.6461
-0.0031674,-0.0048652,0.038001,0.018174,0.20626,0.21969,0.44489,0.064933,-0.40218,-0.082314,0.12698,-0.17895,-0.27693,-0.00027826,0.065468,0.63679,-0.00012594,0.0065844,0.047679,0.0037565,-0.38729,0.026201,0.8874,-1.541
-0.0041671,-0.0067295,0.040957,0.014963,0.29186,0.3952,0.41734,-0.060887,-0.36161,-0.064568,0.25617,-0.34489,-0.23781,0.010314,0.079732,0.53954,-0.0040672,0.0052481,0.03932,0.0022405,-0.32898,0.024308,0.84964,-1.4454
-0.0046672,-0.0042064,0.04295,0.010617,0.31073,0.53199,0.34631,-0.21674,-0.29589,-0.03737,0.37242,-0.47035,-0.20892,0.023964,0.097428,0.46958,-0.0095922,-0.002534,0.040278,0.003742,-0.29847,0.017599,0.81365,-1.3478
-0.004557,-0.0013792,0.044085,0.0080193,0.25612,0.62442,0.26159,-0.39269,-0.1735,0.0033032,0.46879,-0.46271,-0.19201,0.039055,0.11461,0.41289,-0.014185,-0.012309,0.048935,0.0085333,-0.30339,0.0053006,0.78842,-1.225
-0.0049468,-0.0024567,0.046292,0.0090379,0.14747,0.69081,0.19023,-0.5798,0.018891,0.061684,0.54168,-0.24899,-0.17746,0.05289,0.12787,0.35657,-0.015923,-0.018979,0.058688,0.013351,-0.32048,-0.0064229,0.7798,-1.0616
-0.0070751,-0.0077325,0.051826,0.012702,0.016492,0.76784,0.14695,-0.76443,0.26812,0.13587,0.59477,0.18075,-0.15423,0.062674,0.13572,0.30348,-0.015106,-0.021193,0.060731,0.014043,-0.31633,-0.0076064,0.77859,-0.85498
-0.010855,-0.013355,0.061062,0.015791,-0.11225,0.88792,0.13204,-0.92867,0.53745,0.21411,0.63854,0.7602,-0.12015,0.066971,0.13838,0.27118,-0.013775,-0.021903,0.047618,0.0090427,-0.27524,0.0092043,0.76215,-0.60379
-0.014419,-0.014945,0.071608,0.015481,-0.23369,1.0526,0.13406,-1.0592,0.78015,0.27726,0.68415,1.3759,-0.083385,0.066526,0.13658,0.27374,-0.013633,-0.024786,0.01588,0.00082901,-0.21029,0.044278,0.71103,-0.29559
-0.01529,-0.011517,0.079804,0.01175,-0.35866,1.2226,0.13519,-1.1561,0.9579,0.30651,0.73588,1.9195,-0.055089,0.063648,0.13058,0.30174,-0.014424,-0.030149,-0.033154,-0.0056752,-0.14962,0.091075,0.6256,0.086952
-0.012415,-0.006062,0.083507,0.0073478,-0.49688,1.3357,0.11936,-1.2303,1.0546,0.29187,0.7881,2.3296,-0.040529,0.060505,0.12039,0.31969,-0.014332,-0.034259,-0.094278,-0.0064243,-0.11233,0.14079,0.52552,0.53909
-0.007365,-0.0025292,0.083754,0.005247,-0.64095,1.3425,0.081789,-1.2905,1.0789,0.23641,0.8293,2.6011,-0.036108,0.05772,0.10671,0.28687,-0.011898,-0.032649,-0.16042,-0.00087632,-0.095891,0.18685,0.43018,1.0082
-0.0035026,-0.0023133,0.083733,0.0058178,-0.76663,1.2373,0.034642,-1.3306,1.054,0.1545,0.84988,2.7645,-0.033652,0.054437,0.091588,0.18697,-0.0074909,-0.024164,-0.22485,0.0077682,-0.084395,0.22579,0.33726,1.3992
-0.0035371,-0.0035348,0.085874,0.0063207,-0.85137,1.063,0.0025498,-1.3334,1.0024,0.065876,0.84753,2.8549,-0.027189,0.049738,0.078071,0.042633,-0.0029289,-0.011987,-0.28264,0.014705,-0.066782,0.25485,0.22076,1.6189
-0.0073574,-0.0034537,0.089619,0.0032814,-0.89522,0.8871,0.0078752,-1.2871,0.93511,-0.010814,0.82648,2.8919,-0.016517,0.044015,0.068885,-0.098497,0.00023832,-0.00090918,-0.33091,0.016568,-0.046593,0.27001,0.051976,1.6334
-0.012007,-0.0013157,0.091937,-0.0043124,-0.92268,0.76625,0.054679,-1.2029,0.85232,-0.062363,0.79246,2.8781,-0.0057516,0.038839,0.065105,-0.19683,0.0019894,0.0064092,-0.36788,0.013448,-0.034882,0.2676,-0.17488,1.4922
-0.013985,0.0012219,0.090139,-0.013871,-0.95881,0.71969,0.12367,-1.1144,0.75371,-0.082624,0.74831,2.8134,0.00064885,0.035338,0.065684,-0.24794,0.0034744,0.010789,-0.39169,0.0086375,-0.03517,0.24889,-0.43705,1.2937
-0.012058,0.0022756,0.084415,-0.021199,-0.99813,0.72581,0.18332,-1.0565,0.65026,-0.072314,0.69401,2.7104,0.00070935,0.032608,0.068248,-0.28347,0.0056039,0.014647,-0.40015,0.0063163,-0.036468,0.22305,-0.70375,1.1159
-0.008189,0.0020618,0.077753,-0.023894,-0.9962,0.73981,0.20949,-1.0421,0.56684,-0.037785,0.63007,2.5995,-0.004912,0.027887,0.070727,-0.3466,0.0081389,0.019126,-0.39199,0.0087334,-0.021595,0.20468,-0.96377,0.96594
-0.0057473,0.0028564,0.073326,-0.023158,-0.89925,0.71961,0.199,-1.0533,0.5317,0.010979,0.56049,2.5149,-0.014369,0.018705,0.072777,-0.46199,0.010151,0.023087,-0.36883,0.01487,0.017169,0.20611,-1.2324,0.79356
-0.0064946,0.0065783,0.071835,-0.022499,-0.69389,0.64617,0.1671,-1.0568,0.55876,0.062951,0.49191,2.469,-0.025804,0.0053163,0.075908,-0.6222,0.011224,0.02464,-0.33635,0.021479,0.069971,0.22994,-1.5279,0.56141
-0.0089918,0.012423,0.071272,-0.024602,-0.43631,0.53016,0.1324,-1.0282,0.63458,0.10861,0.42998,2.4355,-0.037495,-0.0087574,0.082013,-0.79702,0.012074,0.023319,-0.30313,0.025552,0.11645,0.26747,-1.8373,0.31364
-0.0098564,0.016977,0.069224,-0.029212,-0.23077,0.40464,0.10251,-0.96705,0.72045,0.1417,0.37617,2.3577,-0.04748,-0.018808,0.091321,-0.95434,0.013952,0.020559,-0.27758,0.026151,0.14181,0.30459,-2.1021,0.18102
-0.0067956,0.016887,0.065328,-0.033818,-0.16584,0.30951,0.071857,-0.89073,0.77027,0.15973,0.32806,2.1847,-0.05349,-0.022118,0.1015,-1.0754,0.017468,0.018181,-0.26438,0.024181,0.1483,0.33038,-2.2413,0.30708
-0.00075623,0.011746,0.061403,-0.036275,-0.25269,0.27466,0.031679,-0.81572,0.75431,0.16366,0.28261,1.9101,-0.05342,-0.019749,0.109,-1.1563,0.021961,0.016636,-0.26274,0.020693,0.15307,0.34211,-2.1953,0.74387
0.0046985,0.004653,0.05917,-0.036793,-0.41262,0.30853,-0.018297,-0.74319,0.67404,0.15661,0.23941,1.5822,-0.046161,-0.015608,0.11183,-1.2007,0.025922,0.014902,-0.26743,0.015658,0.17569,0.34339,-1.9595,1.3947
0.0062505,-2.5725e-005,0.057981,-0.037481,-0.52509,0.39527,-0.067528,-0.66156,0.55868,0.14195,0.20102,1.2727,-0.032528,-0.013685,0.11151,-1.2137,0.02801,0.012005,-0.27157,0.0086099,0.22644,0.33834,-1.5835,2.0519
0.0034831,0.00017704,0.055113,-0.040045,-0.50296,0.50078,-0.10339,-0.56252,0.44586,0.12094,0.17047,1.0253,-0.01595,-0.015745,0.11232,-1.2016,0.027812,0.0084044,-0.26951,0.00042693,0.3047,0.32761,-1.1405,2.5092
-0.00085198,0.0042981,0.048569,-0.043973,-0.34301,0.5846,-0.12258,-0.45585,0.35918,0.091354,0.14847,0.82427,-0.0022679,-0.021018,0.11809,-1.1736,0.02586,0.0056749,-0.25842,-0.0059382,0.40676,0.3094,-0.69098,2.6748
-0.0030503,0.0090747,0.039664,-0.04695,-0.12132,0.61275,-0.13478,-0.36933,0.2974,0.048729,0.13277,0.60968,0.0020957,-0.027607,0.12913,-1.1397,0.023106,0.0048435,-0.2385,-0.0071381,0.53377,0.28367,-0.26411,2.6058
-0.0012245,0.01159,0.032572,-0.047083,0.056081,0.5672,-0.15534,-0.33242,0.24136,-0.0094019,0.12,0.32866,-0.0066402,-0.033976,0.14182,-1.1055,0.020287,0.0052287,-0.21263,-0.002387,0.69045,0.25429,0.13776,2.443
0.0035537,0.011226,0.030794,-0.044749,0.11,0.4494,-0.19289,-0.35525,0.17242,-0.078522,0.1081,-0.018843,-0.026778,-0.039297,0.15125,-1.0675,0.017582,0.0051173,-0.18581,0.005139,0.87359,0.22677,0.52287,2.2945
0.0083848,0.0095144,0.033597,-0.042327,0.019362,0.27754,-0.24158,-0.41834,0.088695,-0.14527,0.096817,-0.37636,-0.051093,-0.042831,0.15462,-1.0161,0.014648,0.0036329,-0.16394,0.010268,1.0596,0.20349,0.89439,2.1534
0.010752,0.0083008,0.035866,-0.04208,-0.18115,0.079367,-0.2833,-0.48058,0.0075381,-0.19118,0.08581,-0.67112,-0.070474,-0.043531,0.15253,-0.94335,0.01101,0.0017918,-0.1516,0.0099129,1.2033,0.18164,1.2414,1.9095
0.01001,0.0079153,0.031928,-0.044101,-0.424,-0.11713,-0.2975,-0.50041,-0.046597,-0.20077,0.07204,-0.86439,-0.079306,-0.040613,0.14734,-0.85029,0.0065953,0.0014806,-0.14957,0.0057522,1.2516,0.1561,1.5368,1.441
0.0072594,0.0068985,0.020401,-0.046111,-0.63575,-0.29211,-0.27195,-0.45636,-0.059615,-0.16907,0.048962,-0.97155,-0.078856,-0.034643,0.14032,-0.74706,0.0020978,0.0032349,-0.15347,0.0028692,1.1671,0.1248,1.7428,0.71494
0.0041141,0.0034305,0.005985,-0.045192,-0.7596,-0.43859,-0.20811,-0.35511,-0.038117,-0.10413,0.0088182,-1.0389,-0.076036,-0.027927,0.13046,-0.64653,-0.0011829,0.0050789,-0.1551,0.0052229,0.94457,0.091324,1.8274,-0.17746
0.0015866,-0.0027976,-0.003555,-0.039998,-0.77038,-0.56134,-0.11941,-0.22424,-0.0057382,-0.023137,-0.053091,-1.0999,-0.078382,-0.023502,0.11596,-0.55674,-0.0020633,0.0038163,-0.14594,0.011832,0.61365,0.062306,1.7859,-1.0676
-0.0001225,-0.0098749,-0.0030973,-0.031743,-0.67839,-0.67021,-0.024606,-0.096844,0.011513,0.054739,-0.13497,-1.1492,-0.089019,-0.023305,0.097119,-0.47792,-0.00033627,-0.0021935,-0.12067,0.017198,0.22635,0.042268,1.6547,-1.7898
-0.001084,-0.014789,0.0057664,-0.023417,-0.51781,-0.77088,0.059584,0.0017926,0.00082202,0.11445,-0.22832,-1.1546,-0.10527,-0.026882,0.077585,-0.4051,0.0029031,-0.011307,-0.078421,0.015864,-0.15954,0.030917,1.503,-2.2303
-0.0011205,-0.01557,0.015478,-0.017976,-0.32322,-0.8579,0.12289,0.059887,-0.031091,0.14786,-0.32127,-1.094,-0.12161,-0.031694,0.062635,-0.33282,0.0058112,-0.01962,-0.021643,0.0072974,-0.49398,0.025107,1.4012,-2.3199
0.00010006,-0.012803,0.017669,-0.016783,-0.10914,-0.91456,0.16145,0.078301,-0.064367,0.15379,-0.40304,-0.98564,-0.1341,-0.034832,0.055886,-0.25782,0.006879,-0.023929,0.045637,-0.0031683,-0.74368,0.02281,1.3869,-2.009
0.0024808,-0.0092744,0.008977,-0.019186,0.13064,-0.92069,0.17469,0.06694,-0.080008,0.13728,-0.46708,-0.88616,-0.14284,-0.034902,0.057181,-0.1794,0.0057459,-0.023978,0.11834,-0.0082245,-0.89899,0.024568,1.4527,-1.2757
0.0051061,-0.0079131,-0.0067668,-0.023243,0.40124,-0.86503,0.16276,0.040219,-0.071491,0.10858,-0.51143,-0.85926,-0.15053,-0.03271,0.063395,-0.10007,0.0031905,-0.021972,0.18983,-0.0040962,-0.97717,0.031015,1.5645,-0.18046
0.0066168,-0.009513,-0.021661,-0.026983,0.68032,-0.75532,0.12708,0.010954,-0.046133,0.08122,-0.53748,-0.93877,-0.15905,-0.030356,0.071141,-0.028351,0.00046419,-0.0199,0.25229,0.0068721,-1.0154,0.03964,1.6927,1.0857
0.0061871,-0.012041,-0.029809,-0.029379,0.9128,-0.61928,0.073537,-0.016458,-0.01616,0.068214,-0.54839,-1.1095,-0.1671,-0.029517,0.078827,0.019169,-0.001394,-0.017302,0.29944,0.018459,-1.0505,0.04516,1.8284,2.227
0.0042525,-0.01222,-0.031665,-0.030508,1.0376,-0.49429,0.014437,-0.048949,0.012794,0.0775,-0.54788,-1.3141,-0.17097,-0.030302,0.086431,0.022123,-0.0018308,-0.011738,0.32997,0.025446,-1.0949,0.044069,1.973,2.9601
0.0022148,-0.0083408,-0.033162,-0.030915,1.0294,-0.41048,-0.034444,-0.098841,0.046152,0.10879,-0.53878,-1.4772,-0.16777,-0.031514,0.093819,-0.030453,-0.00077098,-0.0016776,0.34848,0.026978,-1.1271,0.039192,2.1158,3.1575
0.0012483,-0.0021167,-0.040254,-0.030763,0.92158,-0.37755,-0.060687,-0.17048,0.094085,0.15397,-0.52151,-1.5357,-0.15823,-0.031991,0.099717,-0.12449,0.0013175,0.010904,0.36225,0.025941,-1.1094,0.039226,2.2249,2.916
0.0012599,0.0020699,-0.053276,-0.029505,0.78902,-0.38369,-0.060755,-0.2493,0.15972,0.20123,-0.49374,-1.4656,-0.14681,-0.0318,0.10249,-0.21587,0.0032995,0.020867,0.37577,0.025502,-1.0222,0.052599,2.2638,2.4924
0.0010367,0.00027801,-0.065892,-0.026461,0.70073,-0.40699,-0.039295,-0.30448,0.232,0.24065,-0.45271,-1.3007,-0.13889,-0.032223,0.1017,-0.2459,0.0036218,0.023319,0.3874,0.026167,-0.88937,0.080335,2.2167,2.1426
-0.00047476,-0.0077538,-0.069744,-0.021833,0.67773,-0.42933,-0.0027095,-0.30677,0.28965,0.26829,-0.39893,-1.1338,-0.13731,-0.03455,0.098637,-0.1727,0.0011641,0.017347,0.39096,0.02583,-0.77009,0.1139,2.0972,1.9737
-0.002966,-0.017829,-0.061121,-0.017174,0.68977,-0.44124,0.047241,-0.24922,0.3135,0.28629,-0.33802,-1.0906,-0.14096,-0.038772,0.0951,0.00062177,-0.0038332,0.0068615,0.38057,0.022371,-0.72179,0.13979,1.9301,1.9046
-0.0048565,-0.023843,-0.044184,-0.014591,0.69206,-0.4348,0.11416,-0.15324,0.29762,0.29888,-0.27802,-1.2782,-0.14626,-0.043385,0.091827,0.22278,-0.0097115,-0.0023413,0.35455,0.016146,-0.76267,0.14696,1.7241,1.7548
-0.0046575,-0.021974,-0.028057,-0.015092,0.67039,-0.3947,0.20213,-0.052743,0.25083,0.30708,-0.22354,-1.728,-0.1504,-0.046547,0.088208,0.42222,-0.014543,-0.0069516,0.31617,0.010067,-0.86322,0.13117,1.4623,1.3857
-0.0023292,-0.013418,-0.020285,-0.01742,0.65624,-0.30131,0.31052,0.032616,0.18872,0.30589,-0.17158,-2.3635,-0.15379,-0.047607,0.083507,0.54886,-0.01763,-0.0083767,0.27212,0.00727,-0.97127,0.093786,1.1204,0.79478
0.00064378,-0.0036024,-0.022045,-0.01862,0.69838,-0.14864,0.43357,0.11368,0.12361,0.28682,-0.11357,-3.0184,-0.15966,-0.047676,0.078109,0.60021,-0.019951,-0.011122,0.23156,0.0084925,-1.0471,0.037832,0.6938,0.10306
0.0024542,0.0015549,-0.028814,-0.016165,0.81452,0.036862,0.56383,0.22366,0.06064,0.24402,-0.042629,-3.5035,-0.17124,-0.048647,0.073344,0.61229,-0.023038,-0.018883,0.20597,0.011397,-1.0788,-0.033884,0.20738,-0.539
0.0022555,-0.00039622,-0.035312,-0.010049,0.9637,0.19768,0.69425,0.39156,0.0017025,0.17956,0.039462,-3.6928,-0.18845,-0.051408,0.070115,0.62272,-0.027309,-0.03172,0.2069,0.012322,-1.0706,-0.11686,-0.3022,-1.0487
0.00042839,-0.0070964,-0.040036,-0.0030656,1.0641,0.27317,0.81482,0.6177,-0.048336,0.10339,0.12182,-3.5829,-0.20685,-0.054645,0.06795,0.63524,-0.031511,-0.046531,0.23991,0.0089591,-1.0198,-0.20207,-0.81414,-1.4409
-0.0020913,-0.01342,-0.045525,0.0011153,1.0454,0.23711,0.90645,0.8694,-0.079958,0.027946,0.19119,-3.2919,-0.21969,-0.055217,0.065571,0.61401,-0.033926,-0.06008,0.29773,0.0018805,-0.91065,-0.27672,-1.3328,-1.7791
-0.0044517,-0.015216,-0.054651,0.00057614,0.8971,0.11496,0.9396,1.0981,-0.083921,-0.037878,0.24078,-2.9935,-0.22202,-0.049943,0.062362,0.51182,-0.034214,-0.071755,0.35959,-0.0060812,-0.72921,-0.32982,-1.8693,-2.097
-0.0058486,-0.012017,-0.066811,-0.0035766,0.67658,-0.035282,0.88304,1.2636,-0.058564,-0.090191,0.27452,-2.8219,-0.21385,-0.037654,0.059021,0.30923,-0.034094,-0.083725,0.40058,-0.011936,-0.48686,-0.35871,-2.4137,-2.3574
-0.0052377,-0.0069375,-0.077645,-0.0082168,0.47066,-0.1648,0.71977,1.3498,-0.013225,-0.12653,0.30374,-2.8003,-0.20017,-0.02015,0.056657,0.033179,-0.036109,-0.098568,0.4065,-0.01457,-0.22716,-0.37123,-2.9269,-2.4807
-0.0016712,-0.0041328,-0.082405,-0.010519,0.33765,-0.26391,0.46069,1.3663,0.035178,-0.14212,0.33959,-2.8371,-0.18765,-0.001446,0.055337,-0.25868,-0.041486,-0.11657,0.38281,-0.015404,-0.0086039,-0.38122,-3.3617,-2.4157
0.0046288,-0.005809,-0.079788,-0.0097236,0.27156,-0.35494,0.14629,1.3412,0.069986,-0.13135,0.38648,-2.7922,-0.18032,0.014252,0.053773,-0.51364,-0.048929,-0.13494,0.34972,-0.017383,0.12445,-0.40037,-3.6945,-2.1929
0.011516,-0.010865,-0.072862,-0.0071978,0.21283,-0.45509,-0.1655,1.3127,0.081895,-0.094023,0.44066,-2.5706,-0.1774,0.024542,0.050567,-0.71087,-0.055281,-0.14953,0.32626,-0.022902,0.162,-0.43204,-3.9351,-1.9163
0.015694,-0.015901,-0.066558,-0.0051262,0.096264,-0.54387,-0.41919,1.3213,0.071419,-0.040081,0.49313,-2.1814,-0.1746,0.029474,0.045675,-0.86029,-0.057452,-0.15753,0.31639,-0.031897,0.12893,-0.47044,-4.1043,-1.6979
0.014944,-0.017621,-0.064174,-0.0050731,-0.099695,-0.56644,-0.57947,1.4013,0.046264,0.013882,0.53389,-1.7232,-0.16785,0.030462,0.040513,-0.97874,-0.054164,-0.15921,0.30831,-0.041327,0.070985,-0.50471,-4.1985,-1.5841
0.010116,-0.014858,-0.065813,-0.007337,-0.33742,-0.47262,-0.63965,1.5694,0.015837,0.055028,0.55473,-1.3117,-0.15627,0.028331,0.036563,-1.0661,-0.046489,-0.15745,0.28681,-0.046687,0.037808,-0.52419,-4.1789,-1.5282
0.0049552,-0.0089666,-0.069524,-0.011143,-0.54757,-0.25831,-0.6191,1.8168,-0.014266,0.082775,0.55017,-1.0034,-0.14229,0.022151,0.033971,-1.1011,-0.037168,-0.15564,0.24716,-0.04492,0.069687,-0.52233,-4.0003,-1.4273
0.0034656,-0.0026514,-0.073524,-0.015189,-0.67682,0.026779,-0.55207,2.1088,-0.045579,0.10672,0.51765,-0.77042,-0.12885,0.0099791,0.031534,-1.0581,-0.029311,-0.15525,0.19858,-0.036867,0.18693,-0.49845,-3.6588,-1.1971
0.0067426,0.0016982,-0.077302,-0.01819,-0.71969,0.31252,-0.47248,2.3959,-0.086339,0.13489,0.45847,-0.53684,-0.11619,-0.0089831,0.027936,-0.92873,-0.025073,-0.15466,0.15561,-0.027209,0.38095,-0.45799,-3.216,-0.83403
0.011959,0.0030427,-0.081006,-0.01934,-0.71249,0.55438,-0.40036,2.6317,-0.1468,0.16302,0.37908,-0.24291,-0.101,-0.032643,0.02276,-0.73112,-0.024713,-0.15002,0.12695,-0.021514,0.61243,-0.4111,-2.7753,-0.42595
0.014577,0.0017059,-0.08432,-0.018669,-0.69739,0.75395,-0.33571,2.7894,-0.23162,0.1761,0.29145,0.11462,-0.078668,-0.05643,0.016194,-0.50261,-0.026375,-0.13772,0.11201,-0.022343,0.82387,-0.36933,-2.4253,-0.11018
0.012089,-0.0012484,-0.086355,-0.017076,-0.68741,0.9401,-0.26341,2.8698,-0.3334,0.16185,0.21116,0.49021,-0.046663,-0.075877,0.007906,-0.28466,-0.026864,-0.1172,0.10666,-0.027504,0.96528,-0.34047,-2.1934,-0.0063623
0.006134,-0.0046694,-0.086713,-0.015837,-0.6606,1.1323,-0.1675,2.898,-0.43212,0.12445,0.15317,0.82955,-0.0062343,-0.089442,-0.0034271,-0.11256,-0.023259,-0.092151,0.10993,-0.031961,1.0186,-0.32441,-2.0401,-0.1627
0.0011009,-0.0076864,-0.086427,-0.01579,-0.58639,1.3207,-0.047028,2.9099,-0.50297,0.084768,0.12738,1.1055,0.038985,-0.099171,-0.019196,-0.013306,-0.014561,-0.068925,0.12355,-0.031872,1.0032,-0.31264,-1.8898,-0.54043
0.00033584,-0.0098411,-0.08745,-0.016717,-0.46022,1.4794,0.076645,2.9358,-0.52911,0.06568,0.13626,1.3267,0.086092,-0.10853,-0.039383,-0.0056509,-0.002327,-0.052801,0.14465,-0.027302,0.95789,-0.29303,-1.6682,-1.038
0.003241,-0.011131,-0.090836,-0.017444,-0.31552,1.594,0.16672,2.9871,-0.51164,0.074469,0.17595,1.5238,0.13455,-0.11911,-0.062123,-0.094894,0.010204,-0.044467,0.16031,-0.021436,0.91214,-0.25712,-1.3213,-1.5376
0.0058305,-0.011973,-0.095226,-0.016632,-0.20168,1.6759,0.18906,3.054,-0.46955,0.097469,0.23935,1.7333,0.18413,-0.12908,-0.084982,-0.26432,0.019866,-0.039578,0.15149,-0.017334,0.87081,-0.20544,-0.81802,-1.9485
0.0043131,-0.013001,-0.097229,-0.013726,-0.14621,1.7479,0.13125,3.1143,-0.429,0.11134,0.31805,1.9915,0.2303,-0.13481,-0.10695,-0.4736,0.024935,-0.032237,0.10504,-0.015466,0.82157,-0.14723,-0.15605,-2.2307
-0.0014198,-0.014721,-0.093693,-0.0094072,-0.13401,1.8199,0.011564,3.1479,-0.40855,0.10096,0.40152,2.3338,0.26124,-0.13453,-0.12942,-0.6726,0.025227,-0.020132,0.023853,-0.014253,0.75653,-0.09486,0.62248,-2.3887
-0.0074838,-0.017206,-0.084146,-0.0051991,-0.12272,1.881,-0.12741,3.1486,-0.40987,0.069003,0.47527,2.788,0.26061,-0.1309,-0.15521,-0.82621,0.021171,-0.0073641,-0.073883,-0.012675,0.68623,-0.056838,1.4234,-2.4473
-0.009183,-0.020058,-0.071433,-0.0024904,-0.081693,1.9164,-0.23723,3.1258,-0.41875,0.030897,0.52192,3.3631,0.21633,-0.13005,-0.18638,-0.93309,0.012948,-0.0024105,-0.16621,-0.011995,0.63272,-0.033938,2.1237,-2.4217
-0.0049494,-0.022647,-0.060043,-0.0015869,-0.02087,1.9297,-0.28478,3.0947,-0.41418,0.0015085,0.52728,4.0427,0.13048,-0.13752,-0.22216,-1.0222,0.00057718,-0.01238,-0.241,-0.014661,0.60865,-0.02032,2.6239,-2.3047
0.002329,-0.024429,-0.053415,-0.0014497,0.016848,1.9431,-0.26527,3.0644,-0.37841,-0.014292,0.48823,4.7907,0.022606,-0.15393,-0.25863,-1.1274,-0.015205,-0.037774,-0.30179,-0.021504,0.60269,-0.0080435,2.8973,-2.0756
0.0076295,-0.025106,-0.052138,-0.00037335,-0.0053787,1.9718,-0.20092,3.0317,-0.30258,-0.020903,0.41552,5.5598,-0.077423,-0.17372,-0.29005,-1.2589,-0.032289,-0.071664,-0.36276,-0.030204,0.58626,0.0084045,2.9963,-1.7283
0.0076512,-0.024629,-0.054056,0.0027582,-0.080189,1.9979,-0.12635,2.9847,-0.18702,-0.024809,0.32692,6.291,-0.14399,-0.18823,-0.31139,-1.3956,-0.047612,-0.10379,-0.4375,-0.036826,0.53705,0.030132,3.0076,-1.2967
0.0029288,-0.023181,-0.055811,0.0074975,-0.15103,1.9731,-0.069377,2.9141,-0.038566,-0.029179,0.23385,6.9036,-0.1686,-0.19094,-0.32058,-1.504,-0.05854,-0.12634,-0.5291,-0.039155,0.45941,0.054713,2.9892,-0.85722
-0.0032981,-0.02128,-0.054639,0.011944,-0.1454,1.8528,-0.038885,2.8205,0.13316,-0.034288,0.13144,7.2985,-0.16213,-0.18137,-0.31931,-1.5685,-0.064163,-0.13733,-0.62626,-0.03875,0.38383,0.078566,2.9382,-0.5015
-0.0080229,-0.019789,-0.049455,0.014016,-0.021488,1.6317,-0.026808,2.7131,0.32064,-0.040713,0.00099252,7.392,-0.14503,-0.16484,-0.31169,-1.6058,-0.06552,-0.13973,-0.70634,-0.039742,0.34584,0.099216,2.8121,-0.2953
-0.010425,-0.019586,-0.040971,0.013009,0.20452,1.3466,-0.021467,2.5998,0.52362,-0.049927,-0.17509,7.169,-0.13276,-0.14834,-0.30134,-1.65,-0.064611,-0.13781,-0.74349,-0.045363,0.36163,0.11652,2.5817,-0.25015
-0.011403,-0.020914,-0.031012,0.010207,0.46542,1.0449,-0.020925,2.4793,0.75049,-0.061246,-0.39638,6.7116,-0.12728,-0.13576,-0.28879,-1.721,-0.063035,-0.1339,-0.71917,-0.05518,0.41988,0.13258,2.27,-0.32732
-0.011767,-0.022935,-0.021382,0.0079969,0.67397,0.7482,-0.03494,2.3417,1.0116,-0.06959,-0.63807,6.1651,-0.12049,-0.12599,-0.2712,-1.8041,-0.061259,-0.12751,-0.63102,-0.065283,0.49406,0.15052,1.9482,-0.46924
-0.011311,-0.024099,-0.012809,0.0081687,0.75673,0.44516,-0.073605,2.1777,1.3058,-0.06856,-0.86026,5.6531,-0.10546,-0.11496,-0.24493,-1.8602,-0.058894,-0.11669,-0.49551,-0.071088,0.56193,0.17259,1.6944,-0.63354
-0.0096528,-0.023296,-0.004592,0.010765,0.67631,0.11877,-0.13253,1.988,1.609,-0.057412,-1.0264,5.2022,-0.08511,-0.099927,-0.20933,-1.8577,-0.05551,-0.099889,-0.3413,-0.07041,0.61464,0.19839,1.5492,-0.80558
-0.0075959,-0.020924,0.004698,0.014314,0.44013,-0.22237,-0.18839,1.784,1.8775,-0.044953,-1.1181,4.74,-0.070539,-0.082217,-0.16883,-1.8,-0.051205,-0.07724,-0.19627,-0.064585,0.64928,0.22431,1.4983,-0.9851
-0.0070743,-0.018818,0.015871,0.017059,0.098427,-0.54057,-0.2106,1.58,2.0673,-0.044698,-1.139,4.172,-0.070356,-0.066446,-0.13128,-1.7226,-0.046489,-0.050962,-0.075967,-0.057176,0.65574,0.24446,1.4887,-1.1643
-0.0093991,-0.018868,0.028147,0.018055,-0.26962,-0.79688,-0.18148,1.3824,2.1575,-0.063717,-1.107,3.475,-0.081081,-0.057003,-0.10356,-1.6619,-0.041705,-0.02512,0.018574,-0.051554,0.61418,0.25274,1.4595,-1.3187
-0.013598,-0.021387,0.039409,0.01738,-0.58336,-0.98226,-0.10949,1.1871,2.1581,-0.094773,-1.0446,2.7276,-0.08806,-0.054888,-0.087646,-1.6221,-0.036544,-0.0048338,0.09282,-0.049033,0.50856,0.24526,1.3674,-1.4158
-0.016859,-0.024668,0.047558,0.01565,-0.79514,-1.1223,-0.02532,0.98451,2.0957,-0.11991,-0.97246,2.0551,-0.077342,-0.057349,-0.080174,-1.5676,-0.030106,0.0052433,0.14796,-0.048478,0.34556,0.22217,1.1967,-1.43
-0.016992,-0.026242,0.05196,0.013516,-0.914,-1.253,0.036353,0.76784,1.9884,-0.12369,-0.90741,1.5392,-0.04888,-0.060239,-0.07585,-1.4493,-0.021447,0.0027945,0.17707,-0.047291,0.16057,0.18826,0.95617,-1.3485
-0.014602,-0.024836,0.053902,0.011522,-1.0004,-1.3933,0.055937,0.53719,1.8333,-0.10493,-0.8605,1.1679,-0.019252,-0.060844,-0.072101,-1.2411,-0.010153,-0.011019,0.17147,-0.043062,0.0024672,0.15202,0.66982,-1.1646
-0.012683,-0.021419,0.055826,0.010139,-1.1308,-1.5399,0.036272,0.29697,1.6155,-0.075893,-0.8334,0.86197,-0.010393,-0.05897,-0.071358,-0.96013,0.003552,-0.032053,0.13082,-0.035037,-0.093377,0.12271,0.36533,-0.87248
-0.013821,-0.018502,0.05995,0.0096774,-1.353,-1.6862,-0.004409,0.051491,1.3302,-0.049298,-0.8155,0.54323,-0.032798,-0.055904,-0.079229,-0.65437,0.019221,-0.054897,0.066882,-0.02461,-0.12384,0.10647,0.061839,-0.47394
-0.017592,-0.018308,0.067178,0.010102,-1.6622,-1.8416,-0.046,-0.19626,0.99641,-0.024796,-0.78658,0.18145,-0.076869,-0.052666,-0.099911,-0.36998,0.036713,-0.074203,-0.0030531,-0.014447,-0.11472,0.10323,-0.23761,0.0055831
-0.020711,-0.021266,0.076797,0.010944,-2.0139,-2.0284,-0.075897,-0.44188,0.65018,0.011816,-0.7267,-0.21186,-0.11983,-0.049097,-0.13214,-0.1249,0.056241,-0.084379,-0.067324,-0.0066457,-0.099101,0.10668,-0.54286,0.50928
-0.01992,-0.025846,0.086984,0.011422,-2.3576,-2.2583,-0.089262,-0.67658,0.32843,0.074768,-0.62816,-0.61989,-0.14282,-0.044198,-0.16854,0.093121,0.077773,-0.078397,-0.1254,-0.0011684,-0.095223,0.10794,-0.86241,0.96239
-0.014998,-0.029654,0.095811,0.010654,-2.6635,-2.5113,-0.083375,-0.88737,0.059904,0.16176,-0.50125,-1.0417,-0.14421,-0.036951,-0.19869,0.30574,0.10026,-0.048085,-0.18307,0.0040928,-0.10106,0.10067,-1.1874,1.3016
-0.0091348,-0.030848,0.10228,0.007924,-2.9173,-2.7379,-0.053104,-1.0605,-0.1308,0.25006,-0.36913,-1.4801,-0.13872,-0.026841,-0.21413,0.51919,0.12147,0.012545,-0.24271,0.011398,-0.10749,0.083921,-1.4875,1.4997
-0.0062977,-0.02903,0.10687,0.0030885,-3.094,-2.8856,0.0080797,-1.1855,-0.21862,0.31,-0.25497,-1.9178,-0.14371,-0.013951,-0.21194,0.71539,0.13869,0.10233,-0.29847,0.020793,-0.11612,0.060815,-1.7223,1.5679
-0.0078766,-0.025245,0.11107,-0.0030066,-3.1419,-2.927,0.10285,-1.2568,-0.18811,0.32521,-0.17018,-2.318,-0.16461,0.0010053,-0.19507,0.86565,0.15,0.21026,-0.34135,0.029414,-0.14358,0.034414,-1.8611,1.5374
-0.011484,-0.021277,0.11607,-0.0085876,-3.0023,-2.8706,0.22573,-1.2737,-0.055725,0.30291,-0.11149,-2.6517,-0.19153,0.016601,-0.16955,0.95712,0.15492,0.31799,-0.36874,0.033409,-0.20619,0.0050723,-1.8934,1.4389
-0.012872,-0.018657,0.12145,-0.011928,-2.6565,-2.7499,0.36401,-1.2391,0.11832,0.26622,-0.067542,-2.9248,-0.20866,0.030861,-0.14075,1.0123,0.15429,0.40696,-0.38848,0.03116,-0.29648,-0.028053,-1.8248,1.2968
-0.0093555,-0.017839,0.12499,-0.012827,-2.1635,-2.6027,0.50349,-1.1579,0.24985,0.23592,-0.028794,-3.1712,-0.20752,0.041886,-0.11132,1.0862,0.14927,0.46513,-0.41259,0.025077,-0.3724,-0.062662,-1.6682,1.1402
-0.0020032,-0.017975,0.1241,-0.0133,-1.6493,-2.4575,0.63467,-1.0347,0.27714,0.21752,0.0067102,-3.4155,-0.19245,0.048658,-0.082171,1.2396,0.14056,0.48905,-0.44562,0.020164,-0.37209,-0.090705,-1.4422,1.0126
0.0050224,-0.017518,0.11798,-0.016428,-1.2476,-2.33,0.75408,-0.87256,0.20143,0.20314,0.034614,-3.641,-0.17448,0.051437,-0.055065,1.5044,0.12824,0.48043,-0.47847,0.020219,-0.24782,-0.10098,-1.1808,0.96331
0.0073849,-0.015339,0.10879,-0.023866,-1.0277,-2.2243,0.86001,-0.67546,0.087376,0.18408,0.04967,-3.7975,-0.1599,0.051532,-0.034306,1.8617,0.11226,0.44131,-0.49366,0.024629,0.003355,-0.085838,-0.93772,1.021
0.0035901,-0.011638,0.10074,-0.034041,-0.96165,-2.1339,0.94637,-0.45455,0.019347,0.16085,0.050034,-3.846,-0.14341,0.050828,-0.025426,2.2469,0.093037,0.37236,-0.47812,0.028419,0.33372,-0.046787,-0.77012,1.1678
-0.0039666,-0.0078895,0.097446,-0.042884,-0.95122,-2.0428,1.0008,-0.23585,0.045443,0.14163,0.037483,-3.8011,-0.11119,0.051567,-0.031559,2.5782,0.071722,0.27569,-0.43318,0.025627,0.66799,0.0055953,-0.70384,1.3386
-0.010518,-0.0057823,0.099471,-0.046857,-0.89483,-1.9311,1.0096,-0.060731,0.15126,0.13173,0.014609,-3.7307,-0.051003,0.056252,-0.050368,2.7894,0.050199,0.15848,-0.37403,0.013471,0.93929,0.057567,-0.70762,1.4526
-0.011924,-0.0059126,0.1039,-0.045845,-0.74634,-1.7849,0.967,0.026448,0.28005,0.1251,-0.017815,-3.7138,0.038271,0.067041,-0.074216,2.8512,0.030791,0.033119,-0.32021,-0.0056839,1.1142,0.099229,-0.70443,1.4592
-0.0072026,-0.0072613,0.10623,-0.043319,-0.5284,-1.6024,0.88181,0.00070386,0.37755,0.10639,-0.061045,-3.7878,0.14353,0.084344,-0.093717,2.772,0.015828,-0.08699,-0.28487,-0.025713,1.1937,0.12738,-0.62077,1.3677
0.00096946,-0.0079123,0.10316,-0.043515,-0.29919,-1.3911,0.77603,-0.12418,0.4229,0.061757,-0.11623,-3.9275,0.24195,0.10547,-0.10205,2.5851,0.0070547,-0.19199,-0.2702,-0.04016,1.1967,0.14288,-0.43921,1.2354
0.0080727,-0.0065109,0.094534,-0.047959,-0.10333,-1.1564,0.67614,-0.2944,0.42429,-0.010902,-0.18163,-4.0647,0.31026,0.12481,-0.097042,2.3328,0.0050699,-0.2762,-0.26956,-0.045336,1.1432,0.14596,-0.21068,1.1228
0.010698,-0.0033862,0.082997,-0.054331,0.055877,-0.89465,0.60155,-0.43809,0.39206,-0.10051,-0.25101,-4.1251,0.33441,0.13622,-0.080276,2.0517,0.0091317,-0.33458,-0.27194,-0.041497,1.0497,0.13421,-0.013438,1.0456
0.0087025,-0.00048321,0.072116,-0.058586,0.20692,-0.599,0.55668,-0.4999,0.32027,-0.19041,-0.31436,-4.0575,0.31542,0.1364,-0.055029,1.7648,0.017528,-0.3596,-0.26478,-0.032054,0.9349,0.10507,0.10932,0.96158
0.0050891,-6.3371e-005,0.064139,-0.058419,0.37668,-0.27553,0.53029,-0.46743,0.19502,-0.26801,-0.36121,-3.8467,0.26821,0.12666,-0.0255,1.478,0.028318,-0.34343,-0.23525,-0.021656,0.82286,0.060207,0.18142,0.80219
0.0036723,-0.0029946,0.058838,-0.055146,0.56219,0.043838,0.50176,-0.37363,0.018605,-0.32955,-0.38569,-3.5178,0.21368,0.11159,0.0023478,1.1838,0.039951,-0.28466,-0.17304,-0.014098,0.73586,0.0075099,0.26925,0.52651
0.0061903,-0.0078202,0.053953,-0.052496,0.72977,0.30678,0.45165,-0.27528,-0.17785,-0.37792,-0.39069,-3.137,0.16853,0.095419,0.020288,0.87092,0.051362,-0.19349,-0.075659,-0.010758,0.68247,-0.041261,0.42417,0.15676
0.011043,-0.011405,0.046848,-0.053465,0.84104,0.46582,0.37245,-0.22249,-0.34884,-0.41723,-0.38781,-2.7974,0.13988,0.0791,0.019831,0.53556,0.061593,-0.089771,0.04686,-0.010279,0.6542,-0.07545,0.6435,-0.22897
0.014645,-0.010942,0.03632,-0.057807,0.88408,0.50848,0.27491,-0.23767,-0.46482,-0.44888,-0.39143,-2.5789,0.12827,0.060693,-0.0035404,0.1883,0.069364,0.0057414,0.17288,-0.0098594,0.63745,-0.089592,0.88328,-0.53769
0.014331,-0.0060444,0.02347,-0.062107,0.88436,0.471,0.18563,-0.31268,-0.53132,-0.4713,-0.40915,-2.4983,0.13487,0.038812,-0.046842,-0.14614,0.073111,0.079852,0.27716,-0.0075702,0.63063,-0.084574,1.1077,-0.70446
0.010409,0.00062595,0.011088,-0.062243,0.88532,0.42337,0.13499,-0.42077,-0.58018,-0.48249,-0.4347,-2.487,0.16383,0.016254,-0.099944,-0.43549,0.071682,0.12867,0.34197,-0.0040269,0.64814,-0.066484,1.326,-0.7109
0.0056816,0.0048737,0.0019553,-0.056349,0.91332,0.43223,0.14019,-0.53332,-0.64198,-0.48263,-0.44927,-2.4256,0.21514,0.00047157,-0.15015,-0.64955,0.06543,0.15279,0.36409,-0.0017954,0.70188,-0.044862,1.5802,-0.57893
0.0029035,0.0037567,-0.0027565,-0.04612,0.95453,0.52346,0.19317,-0.63347,-0.72424,-0.47506,-0.43214,-2.2226,0.27462,4.829e-005,-0.18798,-0.77048,0.056952,0.15259,0.35307,-0.0026531,0.77369,-0.030857,1.894,-0.35741
0.0025266,-0.0022877,-0.0039012,-0.035595,0.96349,0.66711,0.2621,-0.72326,-0.8127,-0.4646,-0.37402,-1.8812,0.31426,0.019502,-0.21012,-0.80148,0.050619,0.12934,0.32184,-0.0049659,0.80603,-0.034355,2.2312,-0.11572
0.0027705,-0.0095638,-0.003428,-0.028411,0.89696,0.79372,0.30691,-0.82261,-0.8902,-0.4544,-0.28403,-1.4992,0.30899,0.056141,-0.2181,-0.77029,0.050627,0.090903,0.27587,-0.0038503,0.72816,-0.059779,2.5058,0.060565
0.0018465,-0.013498,-0.0030345,-0.025572,0.74583,0.83194,0.29949,-0.95876,-0.95249,-0.44331,-0.18474,-1.1985,0.25919,0.10115,-0.21468,-0.72288,0.058392,0.054506,0.20753,0.0053927,0.50533,-0.10253,2.6397,0.085673
5.6385e-005,-0.011676,-0.0035453,-0.025359,0.53953,0.74588,0.23611,-1.1477,-1.0063,-0.42594,-0.098844,-1.036,0.19847,0.14399,-0.20134,-0.70693,0.071102,0.041258,0.099237,0.023128,0.17363,-0.14945,2.6217,-0.095067
-0.00040767,-0.0054404,-0.0053294,-0.025283,0.32106,0.55244,0.13546,-1.3763,-1.0538,-0.39595,-0.037164,-0.96579,0.17497,0.17722,-0.17878,-0.75184,0.082929,0.065131,-0.065987,0.044133,-0.17201,-0.18468,2.5173,-0.47388
0.0021686,0.0010158,-0.0090091,-0.024353,0.11643,0.31172,0.025919,-1.5992,-1.0807,-0.3505,0.0033565,-0.87683,0.21806,0.19885,-0.14899,-0.85674,0.08863,0.12551,-0.29135,0.060672,-0.43476,-0.19808,2.4211,-0.97064
0.0068743,0.0034617,-0.015486,-0.023705,-0.074808,0.098161,-0.068599,-1.7583,-1.061,-0.2923,0.031429,-0.67436,0.31746,0.21151,-0.11624,-0.99404,0.08712,0.20986,-0.55729,0.067657,-0.57762,-0.1905,2.3914,-1.4532
0.010554,0.00042944,-0.025123,-0.025114,-0.26257,-0.031837,-0.13669,-1.8176,-0.97355,-0.22759,0.050933,-0.33905,0.43368,0.21969,-0.085725,-1.126,0.082095,0.30389,-0.82239,0.065832,-0.64236,-0.17183,2.4198,-1.7775
0.010566,-0.0058759,-0.036922,-0.028827,-0.44316,-0.061117,-0.1801,-1.7914,-0.81628,-0.16184,0.057466,0.075154,0.53137,0.22685,-0.061023,-1.2226,0.078851,0.40015,-1.036,0.060548,-0.71012,-0.1531,2.4536,-1.8302
0.0073481,-0.011193,-0.048646,-0.032806,-0.59484,-0.014374,-0.20932,-1.7428,-0.60615,-0.097288,0.044522,0.49204,0.6061,0.23385,-0.042537,-1.2698,0.079722,0.49803,-1.1579,0.057358,-0.83409,-0.13878,2.4479,-1.5619
0.0042258,-0.012249,-0.057963,-0.034131,-0.69607,0.056758,-0.23661,-1.7489,-0.36864,-0.034665,0.013172,0.8652,0.68046,0.23904,-0.028006,-1.2646,0.082053,0.59709,-1.1759,0.058123,-0.99748,-0.12518,2.3983,-1.0052
0.0044692,-0.0090988,-0.063658,-0.031309,-0.7461,0.098379,-0.26763,-1.8539,-0.12869,0.022856,-0.023781,1.1921,0.77373,0.23952,-0.014249,-1.2024,0.080746,0.69172,-1.1096,0.060563,-1.1286,-0.10585,2.3325,-0.27349
0.0082297,-0.0050515,-0.065863,-0.025406,-0.7647,0.077917,-0.29503,-2.0418,0.089744,0.068354,-0.047046,1.4888,0.87416,0.233,0.0014389,-1.0685,0.073304,0.77302,-0.99958,0.061099,-1.1582,-0.079159,2.274,0.47056
0.012211,-0.0042033,-0.065229,-0.019025,-0.77032,-0.0033196,-0.29911,-2.2484,0.26038,0.095263,-0.041046,1.7559,0.94107,0.21893,0.020932,-0.83951,0.062818,0.83564,-0.88622,0.058216,-1.073,-0.051494,2.2178,1.0757
0.012493,-0.0083796,-0.062008,-0.014198,-0.75972,-0.11369,-0.25866,-2.4016,0.3576,0.10421,-0.00092134,1.967,0.93635,0.19853,0.045315,-0.49781,0.055857,0.88206,-0.79257,0.053539,-0.9232,-0.03356,2.1396,1.4689
0.0080736,-0.015768,-0.056184,-0.011142,-0.71312,-0.20841,-0.16773,-2.4626,0.36841,0.10602,0.068088,2.0864,0.85744,0.17383,0.074438,-0.053205,0.056804,0.91929,-0.72042,0.049992,-0.78555,-0.03301,2.0298,1.6876
0.0020181,-0.022245,-0.04867,-0.0088397,-0.62313,-0.2512,-0.046445,-2.4404,0.30363,0.11638,0.15621,2.0978,0.74134,0.14659,0.10608,0.44142,0.06352,0.95074,-0.65975,0.048878,-0.71212,-0.049582,1.9167,1.8474
-0.00088475,-0.02432,-0.042352,-0.0065962,-0.51903,-0.22891,0.064262,-2.3746,0.19621,0.14471,0.25359,2.0203,0.63481,0.11816,0.13592,0.89454,0.068299,0.97058,-0.60244,0.048354,-0.7052,-0.076385,1.8544,2.0581
0.0019555,-0.021453,-0.041499,-0.0049055,-0.45829,-0.15227,0.12284,-2.3077,0.084931,0.18548,0.35046,1.9031,0.55597,0.089941,0.15922,1.2079,0.063446,0.96538,-0.55006,0.044443,-0.73,-0.10571,1.8808,2.3403
0.0086985,-0.016068,-0.049329,-0.0048126,-0.48557,-0.043983,0.10848,-2.2662,-0.0039971,0.21965,0.43564,1.8033,0.48039,0.063666,0.17374,1.3244,0.046721,0.9209,-0.51172,0.0337,-0.74789,-0.13421,1.9787,2.6031
0.014446,-0.011461,-0.065298,-0.0065475,-0.59143,0.076926,0.027503,-2.2624,-0.063006,0.22637,0.49789,1.7632,0.36392,0.040709,0.18173,1.2649,0.022137,0.82799,-0.49617,0.015484,-0.74215,-0.16354,2.0719,2.7001
0.015145,-0.0093313,-0.084426,-0.0088708,-0.70724,0.20401,-0.099545,-2.303,-0.094122,0.19676,0.53131,1.7965,0.18313,0.020989,0.18905,1.1247,-0.0042234,0.68435,-0.50489,-0.0077276,-0.72134,-0.19674,2.0622,2.5273
0.010818,-0.0088061,-0.099776,-0.0097886,-0.74421,0.3406,-0.25829,-2.3929,-0.096786,0.13954,0.5404,1.8865,-0.040145,0.0028866,0.20148,1.0262,-0.029364,0.49385,-0.53036,-0.032004,-0.7053,-0.23424,1.8811,2.098
0.0054061,-0.0075312,-0.10679,-0.0079753,-0.64859,0.48886,-0.45023,-2.5272,-0.066421,0.074556,0.53939,1.9958,-0.25001,-0.015214,0.22084,1.0533,-0.054996,0.26764,-0.55879,-0.054279,-0.70881,-0.27322,1.5183,1.546
0.003364,-0.0038631,-0.10644,-0.0036665,-0.43187,0.64016,-0.68339,-2.6839,-0.0049754,0.019434,0.54466,2.0816,-0.39326,-0.032802,0.24384,1.2113,-0.084562,0.027145,-0.57468,-0.073667,-0.73306,-0.31062,1.0085,1.0608
0.0059414,0.0015776,-0.10467,0.0016313,-0.15595,0.77548,-0.95271,-2.827,0.069654,-0.02023,0.56523,2.1122,-0.45199,-0.046513,0.26503,1.4365,-0.11876,-0.19616,-0.56548,-0.091054,-0.76541,-0.34654,0.38791,0.79417
0.010389,0.0062,-0.10828,0.0062376,0.112,0.87624,-1.2286,-2.9235,0.12931,-0.050307,0.59838,2.0752,-0.44769,-0.051732,0.28137,1.6434,-0.1537,-0.36914,-0.52572,-0.10755,-0.78342,-0.38446,-0.34144,0.78947
0.012738,0.0074172,-0.12004,0.0092917,0.33995,0.93774,-1.4646,-2.9596,0.15596,-0.078915,0.63361,1.9748,-0.417,-0.045504,0.29472,1.7749,-0.18308,-0.47193,-0.45942,-0.12319,-0.76059,-0.42732,-1.2108,0.96457
0.011535,0.004835,-0.13672,0.011002,0.54056,0.97386,-1.6198,-2.9431,0.16035,-0.10693,0.6614,1.8224,-0.38134,-0.028633,0.31007,1.82,-0.20227,-0.50981,-0.37914,-0.13676,-0.67401,-0.47243,-2.2426,1.1501
0.0090188,0.00088018,-0.15135,0.012156,0.74945,1.0077,-1.6771,-2.8886,0.18095,-0.12596,0.68013,1.629,-0.33475,-0.0056324,0.33098,1.7979,-0.21078,-0.51191,-0.30071,-0.14672,-0.51254,-0.50961,-3.396,1.1646
0.0086548,-0.00085264,-0.1582,0.013354,0.9931,1.0537,-1.6457,-2.799,0.26028,-0.12463,0.69635,1.4062,-0.25691,0.017065,0.356,1.7314,-0.21136,-0.51483,-0.23592,-0.15209,-0.28128,-0.52533,-4.5399,0.89706
0.011491,0.0015378,-0.15654,0.014505,1.2685,1.1046,-1.5469,-2.6601,0.41467,-0.097204,0.71928,1.1728,-0.13721,0.033336,0.37926,1.6347,-0.20718,-0.54161,-0.18771,-0.15276,0.00096378,-0.51093,-5.478,0.35968
0.015007,0.006452,-0.15062,0.014848,1.5442,1.1336,-1.3984,-2.4559,0.61969,-0.047315,0.75395,0.95585,0.010979,0.039171,0.39464,1.5202,-0.19974,-0.59048,-0.15088,-0.1491,0.3098,-0.46961,-6.022,-0.31489
0.015685,0.0097233,-0.14604,0.013484,1.7773,1.1114,-1.2092,-2.1926,0.82156,0.015403,0.79729,0.77909,0.15655,0.033943,0.40003,1.4069,-0.18905,-0.64117,-0.11762,-0.14176,0.62273,-0.41648,-6.0775,-0.93855
0.012764,0.007825,-0.14575,0.010078,1.9348,1.0254,-0.98832,-1.9115,0.96578,0.081743,0.83842,0.64514,0.27057,0.021061,0.39838,1.3162,-0.17541,-0.67325,-0.083358,-0.13205,0.92062,-0.37053,-5.7007,-1.3634
0.009321,0.0008256,-0.14849,0.0052786,2.0087,0.88726,-0.75648,-1.6782,1.0231,0.14628,0.86172,0.52615,0.34353,0.0073401,0.39489,1.2549,-0.16055,-0.68171,-0.048518,-0.12225,1.184,-0.34299,-5.0872,-1.552
0.0094122,-0.0074824,-0.15068,0.00052492,2.0206,0.72218,-0.54676,-1.5511,0.99694,0.20523,0.85167,0.37494,0.38745,0.00041761,0.3932,1.2046,-0.14721,-0.67847,-0.015235,-0.11515,1.3902,-0.32987,-4.4929,-1.5746
0.013995,-0.012577,-0.14971,-0.0027203,2.0127,0.55044,-0.39105,-1.5496,0.91192,0.25217,0.79872,0.15229,0.42323,0.0049107,0.39359,1.1302,-0.13732,-0.67987,0.018068,-0.11258,1.5172,-0.31409,-4.1181,-1.5349
0.019702,-0.012865,-0.14582,-0.0038285,2.0308,0.37527,-0.301,-1.6431,0.79352,0.27696,0.7052,-0.14873,0.46356,0.019532,0.39433,1.0025,-0.13063,-0.69159,0.059795,-0.11375,1.5525,-0.27618,-4.0168,-1.4759
0.021816,-0.010828,-0.14126,-0.0033503,2.1047,0.1872,-0.25834,-1.7668,0.65416,0.27048,0.58814,-0.50011,0.50312,0.037452,0.39411,0.81741,-0.12495,-0.70353,0.12316,-0.11509,1.5023,-0.20625,-4.0828,-1.3415
0.018611,-0.010629,-0.13794,-0.0025704,2.2361,-0.019655,-0.22373,-1.8551,0.49203,0.23171,0.47537,-0.85938,0.5215,0.05012,0.39326,0.59489,-0.11781,-0.69802,0.21959,-0.11192,1.395,-0.10937,-4.1237,-1.025
0.012856,-0.014325,-0.13563,-0.0025633,2.3992,-0.23381,-0.15983,-1.8715,0.30052,0.17119,0.3946,-1.1959,0.49595,0.052117,0.39263,0.36243,-0.10828,-0.66415,0.35096,-0.10134,1.2776,-0.0012963,-3.9754,-0.47204
0.0090401,-0.020088,-0.13221,-0.0034059,2.5534,-0.42717,-0.05343,-1.8171,0.079717,0.10712,0.36063,-1.5018,0.41601,0.0437,0.39153,0.13904,-0.097568,-0.60635,0.50539,-0.084299,1.2063,0.10109,-3.5863,0.24474
0.0090903,-0.024006,-0.12547,-0.0040869,2.6611,-0.56998,0.077856,-1.7172,-0.15805,0.056297,0.36872,-1.781,0.2918,0.029498,0.387,-0.065854,-0.088085,-0.54121,0.65971,-0.065299,1.2317,0.18723,-3.0212,0.94203
0.010752,-0.023698,-0.11493,-0.0031515,2.703,-0.64806,0.1983,-1.5956,-0.39126,0.026004,0.39886,-2.0313,0.15107,0.014733,0.37518,-0.24126,-0.081717,-0.48597,0.78849,-0.050001,1.3775,0.2535,-2.3933,1.4266
0.010077,-0.020375,-0.10223,0.00036664,2.6848,-0.66909,0.27614,-1.4579,-0.59766,0.012247,0.42844,-2.2395,0.02607,0.0020473,0.35389,-0.36655,-0.078458,-0.44796,0.87518,-0.042095,1.6195,0.29861,-1.7838,1.6076
0.0054271,-0.017528,-0.090224,0.0063284,2.633,-0.65439,0.29907,-1.2914,-0.76205,0.0046153,0.4443,-2.3973,-0.062997,-0.0089514,0.32436,-0.41951,-0.076225,-0.42245,0.91904,-0.041499,1.8748,0.31978,-1.2071,1.5376
-0.00092183,-0.017584,-0.081465,0.013539,2.5809,-0.62433,0.27325,-1.0814,-0.87919,-0.0065521,0.44639,-2.5212,-0.11811,-0.019754,0.29082,-0.39752,-0.071878,-0.39875,0.93317,-0.044778,2.0199,0.31423,-0.63797,1.3578
-0.0049683,-0.019737,-0.077064,0.020376,2.5498,-0.58919,0.20936,-0.83171,-0.95182,-0.025992,0.44163,-2.6541,-0.16058,-0.030724,0.25815,-0.33446,-0.062764,-0.36871,0.93498,-0.047227,1.9389,0.28472,-0.066752,1.1951
-0.0046338,-0.02091,-0.076416,0.025568,2.5355,-0.55091,0.1093,-0.57216,-0.98712,-0.05438,0.43441,-2.8359,-0.21643,-0.040466,0.22943,-0.29523,-0.047909,-0.33122,0.9353,-0.045094,1.5856,0.24351,0.47102,1.093
-0.0013513,-0.01882,-0.077659,0.028652,2.5098,-0.51126,-0.034011,-0.34995,-0.99451,-0.091899,0.42163,-3.0603,-0.29908,-0.046986,0.20452,-0.34548,-0.028236,-0.2908,0.93383,-0.036697,1.0224,0.20943,0.91268,1.0217
0.0016416,-0.014195,-0.07857,0.029935,2.4389,-0.47749,-0.22367,-0.20822,-0.98468,-0.14023,0.39542,-3.2506,-0.40084,-0.049437,0.18059,-0.5141,-0.0058098,-0.25277,0.92343,-0.022304,0.40535,0.19854,1.2156,0.94366
0.0022867,-0.010165,-0.077458,0.030111,2.3081,-0.46054,-0.4446,-0.16594,-0.96799,-0.20067,0.34982,-3.2805,-0.49832,-0.049056,0.15369,-0.77499,0.017263,-0.21924,0.89916,-0.0035044,-0.084749,0.21462,1.3913,0.86925
0.00098354,-0.0095191,-0.073621,0.029907,2.1352,-0.46823,-0.66244,-0.21051,-0.95167,-0.27001,0.28468,-3.0374,-0.56733,-0.048827,0.12042,-1.0639,0.039457,-0.18791,0.86486,0.017182,-0.33028,0.24655,1.4988,0.85226
-0.00076342,-0.012441,-0.067097,0.029932,1.9633,-0.49983,-0.83846,-0.30567,-0.93772,-0.33859,0.20368,-2.4954,-0.59642,-0.052289,0.078818,-1.3205,0.05962,-0.15283,0.83236,0.036529,-0.33031,0.27528,1.6036,0.93473
-0.0024996,-0.016676,-0.057933,0.030606,1.8338,-0.54592,-0.94962,-0.4083,-0.92462,-0.39358,0.10969,-1.7507,-0.59051,-0.062149,0.028588,-1.5268,0.076404,-0.10565,0.8147,0.051233,-0.18819,0.28591,1.7353,1.0969
-0.0053135,-0.019687,-0.04573,0.031986,1.759,-0.59243,-0.99736,-0.48421,-0.91299,-0.42612,0.0029458,-0.99182,-0.56383,-0.079142,-0.029087,-1.7115,0.088255,-0.036516,0.81895,0.059208,-0.044674,0.27668,1.8736,1.2624
-0.01018,-0.020611,-0.030145,0.03353,1.7118,-0.6247,-0.99833,-0.51662,-0.91109,-0.43715,-0.11562,-0.41351,-0.52941,-0.10143,-0.091639,-1.9166,0.094352,0.063904,0.8432,0.060878,-0.0039982,0.25886,1.9721,1.3581
-0.016078,-0.020278,-0.012115,0.034207,1.6394,-0.62973,-0.96583,-0.50741,-0.93484,-0.43663,-0.23974,-0.12225,-0.49314,-0.12487,-0.1552,-2.1508,0.095784,0.2004,0.87848,0.059252,-0.099155,0.24758,2.0002,1.3766
-0.020134,-0.019648,0.005412,0.03319,1.4932,-0.59745,-0.89865,-0.47381,-1.0003,-0.43582,-0.35798,-0.089756,-0.45581,-0.14442,-0.21494,-2.3664,0.095615,0.36758,0.9132,0.058263,-0.3079,0.25006,1.9711,1.3857
-0.019994,-0.018532,0.01845,0.03075,1.2564,-0.52306,-0.78728,-0.44209,-1.1129,-0.43832,-0.4601,-0.18359,-0.4193,-0.15656,-0.26579,-2.4791,0.097151,0.54592,0.93736,0.060246,-0.59141,0.25916,1.9342,1.4739
-0.01623,-0.016009,0.024468,0.028448,0.95365,-0.41005,-0.63144,-0.43831,-1.2608,-0.43747,-0.5444,-0.25425,-0.3905,-0.16147,-0.30339,-2.4162,0.10139,0.70357,0.94561,0.064356,-0.91707,0.2568,1.9341,1.6732
-0.012354,-0.012018,0.02452,0.028084,0.63891,-0.27113,-0.45238,-0.47716,-1.4186,-0.42283,-0.61792,-0.22019,-0.37879,-0.16349,-0.32482,-2.1587,0.10571,0.80588,0.93867,0.067219,-1.2512,0.22563,1.9664,1.9245
-0.012157,-0.0082748,0.022966,0.030025,0.36761,-0.12529,-0.28775,-0.55332,-1.5587,-0.39078,-0.68756,-0.096247,-0.38873,-0.16891,-0.32898,-1.7494,0.10531,0.82953,0.92228,0.065404,-1.5426,0.16151,1.9671,2.1103
-0.016622,-0.0072929,0.024591,0.032448,0.17017,0.0076325,-0.17138,-0.64116,-1.6649,-0.34993,-0.74893,0.045365,-0.4135,-0.1816,-0.31688,-1.2654,0.096498,0.77357,0.9031,0.057855,-1.7268,0.078354,1.8483,2.1294
-0.02313,-0.01021,0.031295,0.032556,0.041457,0.11106,-0.11294,-0.70448,-1.7376,-0.31608,-0.78381,0.14156,-0.43438,-0.19925,-0.2918,-0.78105,0.079569,0.65998,0.8831,0.04644,-1.7596,0.0013278,1.561,1.9539
-0.027644,-0.015486,0.041196,0.029045,-0.048631,0.17256,-0.092531,-0.71206,-1.7892,-0.3003,-0.77089,0.17699,-0.42739,-0.21265,-0.25938,-0.34604,0.058644,0.52175,0.85655,0.034336,-1.653,-0.048066,1.1374,1.6298
-0.027906,-0.019847,0.050919,0.023696,-0.13184,0.18325,-0.073701,-0.65077,-1.8327,-0.30035,-0.70315,0.17022,-0.37336,-0.20951,-0.22699,0.01478,0.038613,0.38573,0.81341,0.023729,-1.4789,-0.065533,0.67892,1.2311
-0.024911,-0.020816,0.059,0.020342,-0.22146,0.14001,-0.025752,-0.52975,-1.8721,-0.30326,-0.59828,0.132,-0.26555,-0.18079,-0.20208,0.29289,0.02149,0.26167,0.748,0.014717,-1.329,-0.066771,0.29706,0.80817
-0.021607,-0.018659,0.067211,0.021738,-0.30696,0.051319,0.058917,-0.37457,-1.9009,-0.2973,-0.4929,0.043119,-0.11144,-0.12605,-0.18988,0.49485,0.0051935,0.14498,0.66657,0.0061086,-1.2596,-0.077147,0.049458,0.37201
-0.020246,-0.016074,0.078569,0.026904,-0.36259,-0.057686,0.16129,-0.21562,-1.9087,-0.283,-0.42355,-0.1241,0.069825,-0.054678,-0.19165,0.64865,-0.01418,0.030193,0.58633,-0.0028982,-1.2635,-0.11513,-0.081062,-0.087097
-0.020785,-0.01592,0.093937,0.031412,-0.35936,-0.14816,0.24583,-0.076078,-1.8911,-0.27338,-0.40793,-0.36201,0.25022,0.017534,-0.20464,0.80369,-0.038365,-0.076838,0.52487,-0.011747,-1.2889,-0.18096,-0.15373,-0.57208
-0.021482,-0.018922,0.11052,0.030684,-0.2722,-0.18103,0.27754,0.035932,-1.8563,-0.28257,-0.43919,-0.60697,0.39381,0.073987,-0.22403,1.0129,-0.064397,-0.15875,0.48812,-0.018904,-1.2871,-0.2581,-0.21527,-1.0712
-0.020767,-0.023181,0.12384,0.023639,-0.084582,-0.1353,0.2379,0.12883,-1.8236,-0.31263,-0.49606,-0.76662,0.45915,0.10221,-0.24565,1.3035,-0.085563,-0.19863,0.46778,-0.022813,-1.2476,-0.32522,-0.26976,-1.5719
-0.018522,-0.025698,0.13141,0.013617,0.2016,-0.020176,0.13406,0.22256,-1.813,-0.34963,-0.5594,-0.77551,0.40893,0.096527,-0.26748,1.6584,-0.095164,-0.19339,0.45248,-0.02228,-1.1936,-0.36911,-0.29315,-2.0754
-0.015798,-0.024562,0.13475,0.0056998,0.55055,0.12724,-0.0021602,0.33887,-1.8313,-0.37281,-0.62269,-0.63297,0.22845,0.058947,-0.2894,2.0249,-0.090283,-0.15655,0.44385,-0.016108,-1.1488,-0.38928,-0.2713,-2.5918
-0.013606,-0.020153,0.13784,0.0026608,0.88533,0.25753,-0.1257,0.49071,-1.8609,-0.36947,-0.69015,-0.39392,-0.056121,-0.00093338,-0.31175,2.3434,-0.073023,-0.10792,0.46192,-0.0029219,-1.1076,-0.393,-0.2226,-3.1177
-0.012149,-0.014669,0.14337,0.0029447,1.1063,0.32936,-0.1968,0.67544,-1.8618,-0.34363,-0.76639,-0.1252,-0.37429,-0.067102,-0.33473,2.5741,-0.048722,-0.059363,0.53126,0.017942,-1.0394,-0.38716,-0.18496,-3.6138
-0.011091,-0.010539,0.15016,0.0023038,1.1362,0.32452,-0.19897,0.8752,-1.7878,-0.31241,-0.84678,0.13186,-0.63265,-0.12052,-0.35902,2.6989,-0.022909,-0.00898,0.6566,0.044926,-0.92058,-0.37464,-0.18325,-4.0053
-0.010297,-0.008894,0.15402,-0.0024108,0.96753,0.2523,-0.14693,1.0648,-1.6114,-0.29349,-0.91537,0.36356,-0.7545,-0.14482,-0.38664,2.705,0.00078137,0.052381,0.80868,0.073671,-0.76596,-0.35663,-0.21131,-4.2098
-0.010053,-0.0090475,0.15119,-0.0106,0.67755,0.14385,-0.077982,1.2238,-1.343,-0.29386,-0.95036,0.55806,-0.71543,-0.13225,-0.41995,2.5752,0.020741,0.1292,0.93599,0.0985,-0.6277,-0.33633,-0.24675,-4.1789
-0.010516,-0.0092268,0.14149,-0.01861,0.39354,0.040219,-0.030075,1.3475,-1.0297,-0.30755,-0.9326,0.68478,-0.55146,-0.086268,-0.45874,2.3045,0.036291,0.2149,0.99746,0.11524,-0.56072,-0.31874,-0.28335,-3.9324
-0.011133,-0.0080038,0.12868,-0.023008,0.22785,-0.021991,-0.018327,1.4519,-0.7329,-0.32212,-0.85287,0.7032,-0.33248,-0.018844,-0.49741,1.9339,0.04675,0.29561,0.9914,0.12318,-0.58173,-0.30635,-0.34718,-3.5666
-0.010856,-0.0053683,0.11797,-0.023507,0.22457,-0.023173,-0.025318,1.5684,-0.49477,-0.32724,-0.71581,0.59361,-0.11805,0.056084,-0.52522,1.5667,0.051418,0.35906,0.95679,0.12443,-0.65682,-0.29601,-0.47693,-3.2285
-0.0090998,-0.0025766,0.11284,-0.023048,0.3513,0.032625,-0.012511,1.7303,-0.31781,-0.31856,-0.54003,0.3803,0.074162,0.12842,-0.53057,1.3387,0.050177,0.4005,0.94381,0.12128,-0.72912,-0.28092,-0.68208,-3.06
-0.0064536,-0.00083161,0.11331,-0.025173,0.53515,0.12028,0.053883,1.957,-0.16954,-0.29562,-0.35374,0.12677,0.26603,0.19295,-0.50698,1.3511,0.043925,0.42152,0.97591,0.11388,-0.7648,-0.25681,-0.91482,-3.1351
-0.0042805,6.3135e-005,0.11647,-0.031129,0.71085,0.20535,0.18014,2.2434,-0.01015,-0.25794,-0.18616,-0.088833,0.48664,0.24563,-0.45692,1.6083,0.034359,0.42502,1.0331,0.10062,-0.77924,-0.22589,-1.0828,-3.4197
-0.0034491,0.0017195,0.11858,-0.03918,0.84688,0.26017,0.34137,2.5617,0.17747,-0.20415,-0.05763,-0.19331,0.73659,0.27945,-0.39074,2.0076,0.023167,0.41147,1.0681,0.080652,-0.82077,-0.19427,-1.0978,-3.7819
-0.0034365,0.0056084,0.11702,-0.046422,0.93972,0.27644,0.49907,2.8741,0.37689,-0.13497,0.02609,-0.12138,0.97701,0.28476,-0.32151,2.3906,0.01111,0.37834,1.0411,0.056176,-0.9238,-0.16467,-0.92717,-4.0545
-0.0027772,0.011283,0.11126,-0.05117,0.99359,0.26744,0.62579,3.1483,0.55359,-0.056716,0.0716,0.18218,1.1506,0.25525,-0.2591,2.6227,-0.0024411,0.3215,0.94529,0.031883,-1.0697,-0.13157,-0.61328,-4.119
-0.00051048,0.01621,0.10254,-0.053752,1.0082,0.25883,0.71794,3.3657,0.68309,0.01898,0.089522,0.73776,1.2162,0.19468,-0.20707,2.6499,-0.01902,0.23676,0.80573,0.011935,-1.189,-0.084094,-0.25003,-3.961
0.0027803,0.017683,0.092674,-0.055295,0.98097,0.27335,0.78829,3.5194,0.76909,0.080232,0.087108,1.4876,1.1694,0.11809,-0.16379,2.5026,-0.039629,0.12243,0.65755,-0.0027068,-1.2063,-0.015216,0.063858,-3.663
0.0054051,0.015209,0.082779,-0.056058,0.91196,0.3186,0.84708,3.6062,0.838,0.12118,0.067944,2.2757,1.0361,0.044712,-0.12632,2.2566,-0.063109,-0.016171,0.52357,-0.013957,-1.095,0.070605,0.26443,-3.3394
0.0060977,0.011075,0.072769,-0.055082,0.80187,0.38532,0.88951,3.6218,0.91578,0.14481,0.038035,2.8942,0.85009,-0.012858,-0.094333,1.9859,-0.085717,-0.16285,0.40695,-0.023587,-0.89946,0.158,0.33585,-3.0612
0.0051538,0.008402,0.062006,-0.051417,0.64643,0.45629,0.90045,3.564,1.0067,0.16024,0.010949,3.1927,0.63702,-0.054774,-0.071363,1.7358,-0.10287,-0.29248,0.29896,-0.030674,-0.70672,0.22948,0.30135,-2.8206
0.0040681,0.0084265,0.050476,-0.04555,0.44098,0.51853,0.8706,3.4388,1.0901,0.17649,0.0049819,3.1787,0.41594,-0.090029,-0.062741,1.5199,-0.11251,-0.38182,0.19076,-0.032394,-0.58713,0.27553,0.20821,-2.557
0.0040486,0.0096046,0.039406,-0.03946,0.19777,0.56944,0.80827,3.2634,1.1362,0.19734,0.032754,3.0231,0.21079,-0.12523,-0.071596,1.3274,-0.11775,-0.42457,0.0802,-0.027688,-0.55,0.29837,0.11821,-2.218
0.0048815,0.0094056,0.030593,-0.035173,-0.040828,0.61305,0.73559,3.0592,1.1271,0.22068,0.091498,2.9487,0.054153,-0.15514,-0.095521,1.1284,-0.12648,-0.43997,-0.027235,-0.020165,-0.54764,0.30743,0.099243,-1.8069
0.0052425,0.0069699,0.025018,-0.033113,-0.21468,0.65145,0.67296,2.8421,1.0694,0.24188,0.16303,3.0715,-0.024113,-0.16314,-0.12625,0.87974,-0.14722,-0.4662,-0.11918,-0.016908,-0.52383,0.31106,0.2071,-1.3831
0.0041131,0.0039399,0.022072,-0.031785,-0.28405,0.68109,0.62578,2.6149,0.99189,0.25789,0.22495,3.3189,-0.014205,-0.13187,-0.15292,0.53853,-0.18391,-0.54023,-0.17775,-0.023601,-0.46671,0.31146,0.45645,-1.0216
0.0018944,0.0026514,0.02021,-0.029072,-0.26517,0.69834,0.58441,2.3707,0.931,0.2686,0.26551,3.492,0.066326,-0.056407,-0.16728,0.088225,-0.23303,-0.67629,-0.18441,-0.040082,-0.42041,0.30599,0.79843,-0.76678
0.00014794,0.003623,0.018342,-0.02402,-0.22826,0.70847,0.53531,2.1011,0.91311,0.27461,0.29149,3.4254,0.18184,0.049945,-0.16774,-0.43818,-0.28558,-0.85728,-0.12963,-0.060374,-0.44353,0.29235,1.1292,-0.61248
0.00022973,0.0050279,0.016451,-0.017666,-0.25084,0.72704,0.47246,1.8058,0.93961,0.27406,0.3234,3.1162,0.29681,0.16118,-0.15989,-0.95664,-0.33228,-1.0446,-0.022372,-0.07733,-0.54792,0.27246,1.337,-0.51629
0.0021174,0.0047609,0.014706,-0.012293,-0.35902,0.76844,0.39992,1.4959,0.98242,0.26223,0.38169,2.7194,0.38998,0.25143,-0.1528,-1.3618,-0.36818,-1.1991,0.10906,-0.087788,-0.67238,0.25161,1.3641,-0.42797
0.0044993,0.002949,0.012083,-0.0098256,-0.50451,0.82907,0.32683,1.1922,0.99469,0.2351,0.47274,2.4164,0.4579,0.3065,-0.15347,-1.575,-0.39327,-1.2988,0.22865,-0.093663,-0.72005,0.23409,1.2417,-0.3108
0.0059954,0.0021874,0.0062224,-0.010589,-0.59817,0.88062,0.26205,0.92138,0.93493,0.19426,0.58302,2.2718,0.50966,0.32728,-0.1626,-1.583,-0.40889,-1.3428,0.31053,-0.098205,-0.63467,0.21917,1.0694,-0.14822
0.0063649,0.005047,-0.004884,-0.013222,-0.57497,0.8829,0.21341,0.7107,0.79245,0.14877,0.684,2.1948,0.55784,0.32468,-0.17417,-1.4429,-0.41373,-1.3433,0.35107,-0.10119,-0.45373,0.20119,0.94952,0.056965
0.0066311,0.011213,-0.020788,-0.015621,-0.43891,0.81083,0.18863,0.58034,0.59649,0.11139,0.74477,2.0312,0.60862,0.31052,-0.17915,-1.2521,-0.40321,-1.3124,0.36709,-0.097936,-0.2898,0.17379,0.92441,0.28362
0.0080637,0.017122,-0.038167,-0.016169,-0.25413,0.67737,0.19251,0.53434,0.40002,0.091658,0.74612,1.7024,0.65375,0.29051,-0.17087,-1.1045,-0.37323,-1.2551,0.3824,-0.083389,-0.24916,0.13529,0.95886,0.49551
0.01095,0.018663,-0.052775,-0.014514,-0.093733,0.53499,0.22045,0.55531,0.24792,0.091065,0.69019,1.2708,0.6701,0.26277,-0.14877,-1.0576,-0.32501,-1.1712,0.4131,-0.057705,-0.34981,0.091251,0.97762,0.65268
0.0142,0.014605,-0.062208,-0.011586,0.0090134,0.45207,0.2556,0.60983,0.15268,0.1042,0.60092,0.88271,0.63144,0.22213,-0.11816,-1.1258,-0.26643,-1.0612,0.4609,-0.027875,-0.50515,0.052063,0.9223,0.72934
0.016061,0.0077153,-0.067131,-0.0089108,0.067838,0.47695,0.27662,0.66539,0.095533,0.12449,0.51424,0.64282,0.52877,0.16675,-0.086183,-1.2908,-0.20802,-0.9311,0.51578,-0.0033431,-0.58709,0.027028,0.78206,0.7265
0.015334,0.0025698,-0.070023,-0.0076337,0.10779,0.61046,0.2734,0.70903,0.049453,0.14911,0.46118,0.52551,0.38474,0.10283,-0.056948,-1.5153,-0.15673,-0.79295,0.562,0.011043,-0.51904,0.018681,0.58105,0.66855
0.012184,0.001956,-0.072751,-0.0077579,0.12178,0.80224,0.25844,0.75291,0.0017454,0.17892,0.45205,0.38952,0.24715,0.043638,-0.029257,-1.7526,-0.11265,-0.66119,0.58155,0.018646,-0.32631,0.021214,0.346,0.58674
0.0080655,0.0048722,-0.075193,-0.0081068,0.059077,0.97254,0.26169,0.81946,-0.044128,0.21423,0.47145,0.075088,0.16096,0.0028057,0.0012074,-1.9579,-0.071332,-0.54742,0.55496,0.027827,-0.1089,0.024074,0.091753,0.50438
0.0049672,0.0076552,-0.075936,-0.0071314,-0.1432,1.0471,0.31001,0.91501,-0.086674,0.25133,0.48854,-0.49569,0.13713,-0.014355,0.037019,-2.1064,-0.029598,-0.45616,0.46405,0.044434,0.035384,0.018344,-0.16102,0.43593
0.0044621,0.0070925,-0.074159,-0.0040728,-0.51129,0.98749,0.40568,1.0123,-0.14307,0.28395,0.47767,-1.2817,0.14239,-0.015303,0.075459,-2.2113,0.010788,-0.38301,0.30006,0.06639,0.07425,0.0016758,-0.35985,0.39619
0.006986,0.0028566,-0.070897,0.00041574,-1.0085,0.80235,0.52126,1.0587,-0.24333,0.30833,0.4358,-2.1551,0.11955,-0.016573,0.10953,-2.3247,0.044757,-0.31653,0.073686,0.085159,0.04565,-0.02129,-0.42401,0.40427
0.01154,-0.0026094,-0.068625,0.0047786,-1.5524,0.53824,0.6153,1.0083,-0.40267,0.32691,0.38443,-2.961,0.024418,-0.033598,0.13318,-2.5073,0.069237,-0.24361,-0.18145,0.092947,0.011293,-0.042771,-0.29113,0.47345
0.015944,-0.0063437,-0.069617,0.0078516,-2.0619,0.256,0.65673,0.85611,-0.59624,0.34637,0.35373,-3.5611,-0.14691,-0.070822,0.14665,-2.7796,0.086987,-0.15593,-0.41802,0.08946,0.0047647,-0.05677,0.021933,0.59534
0.01773,-0.0071141,-0.074418,0.0098042,-2.4995,0.0062886,0.63963,0.6484,-0.76216,0.37153,0.36023,-3.8543,-0.35773,-0.11906,0.15739,-3.0878,0.10528,-0.053854,-0.59432,0.082378,0.015932,-0.061508,0.3956,0.73735
0.015479,-0.0057746,-0.081524,0.011795,-2.8794,-0.18604,0.57952,0.45991,-0.83609,0.40054,0.39433,-3.7937,-0.5538,-0.16183,0.17536,-3.3137,0.13053,0.054701,-0.69302,0.081079,0.016352,-0.058046,0.65415,0.8617
0.0099274,-0.0037497,-0.088424,0.014571,-3.2422,-0.32415,0.49865,0.35236,-0.79207,0.42572,0.42633,-3.4118,-0.69075,-0.18579,0.20606,-3.3329,0.16334,0.15927,-0.72774,0.088908,-0.0035296,-0.046779,0.66654,0.95203
0.0039214,-0.0014098,-0.093281,0.017339,-3.6175,-0.42983,0.41566,0.34423,-0.65689,0.43953,0.42571,-2.8368,-0.74897,-0.18768,0.24686,-3.0865,0.19798,0.25149,-0.73323,0.10038,-0.018506,-0.0249,0.44142,1.0232
0.00085334,0.001947,-0.096118,0.018125,-4.0036,-0.52796,0.34736,0.41263,-0.48624,0.44023,0.37853,-2.2682,-0.73248,-0.17362,0.2893,-2.6195,0.22595,0.32627,-0.74507,0.10541,0.016035,0.013055,0.15006,1.1024
0.0023647,0.0065733,-0.098714,0.015484,-4.3692,-0.63212,0.31578,0.52331,-0.32291,0.43228,0.29092,-1.9038,-0.65985,-0.1528,0.32535,-2.0592,0.24049,0.38028,-0.78105,0.096679,0.13348,0.071834,0.04979,1.1971
0.0069971,0.011007,-0.10319,0.010083,-4.6715,-0.73814,0.34582,0.66178,-0.1718,0.4213,0.17873,-1.8494,-0.5563,-0.1315,0.35234,-1.5457,0.23886,0.41124,-0.83457,0.074161,0.3338,0.15142,0.34346,1.2792
0.01109,0.012735,-0.1102,0.0046388,-4.8725,-0.8284,0.44806,0.83873,-0.010853,0.40791,0.054115,-2.0711,-0.44954,-0.11178,0.37277,-1.1605,0.22184,0.42035,-0.88279,0.043558,0.5823,0.24483,1.0569,1.3028
0.011542,0.010472,-0.1181,0.0021222,-4.9503,-0.88374,0.59812,1.0656,0.17558,0.38599,-0.079639,-2.4229,-0.36601,-0.094656,0.39004,-0.8972,0.19252,0.41544,-0.90293,0.010908,0.82572,0.339,2.0123,1.2447
0.0083361,0.0058574,-0.1237,0.0037211,-4.9041,-0.8946,0.73366,1.3238,0.37342,0.34709,-0.22279,-2.7362,-0.32518,-0.083562,0.40452,-0.68693,0.15552,0.40994,-0.88615,-0.021597,1.0139,0.41861,2.9204,1.133
0.0046247,0.0026019,-0.12432,0.008228,-4.7571,-0.86367,0.77985,1.5595,0.54737,0.28777,-0.37076,-2.9076,-0.3333,-0.084289,0.41365,-0.45605,0.11685,0.41547,-0.84011,-0.055295,1.1166,0.47089,3.5353,1.0399
0.0040728,0.0034619,-0.11969,0.013214,-4.551,-0.79968,0.69105,1.7121,0.67206,0.21414,-0.51164,-2.9315,-0.38116,-0.10117,0.41567,-0.17501,0.082927,0.4321,-0.77988,-0.091332,1.1301,0.48952,3.7752,1.0392
0.007605,0.0076967,-0.11232,0.016783,-4.3313,-0.70971,0.47988,1.7564,0.75513,0.13984,-0.63214,-2.8633,-0.44799,-0.13289,0.41309,0.13018,0.058604,0.4443,-0.71495,-0.12749,1.0722,0.47565,3.7356,1.1561
0.012462,0.011483,-0.10623,0.018401,-4.1269,-0.59835,0.21096,1.7209,0.82968,0.078262,-0.72585,-2.7563,-0.51011,-0.17164,0.412,0.40422,0.045274,0.42732,-0.64245,-0.15857,0.96918,0.43592,3.5945,1.3445
