1.5242e-010,1.0862e-009,3.4091e-009,-5.5757e-010,9.3957e-010,1.6264e-009,-6.8876e-010,2.7647e-009,1.6766e-009,-1.9486e-010,-1.8695e-009,1.8618e-009,-1.1402e-009,1.1132e-009,6.3667e-011,1.9411e-008,-3.4149e-010,-1.1383e-010,1.7229e-009,-4.0323e-010,4.0323e-010,1.2676e-009,-9.2028e-010,-1.8734e-009
3.9957e-009,3.0116e-008,9.4078e-008,-1.5535e-008,2.5512e-008,4.4592e-008,-1.916e-008,7.6592e-008,4.6222e-008,-5.1493e-009,-5.1703e-008,5.1398e-008,-3.331e-008,3.0538e-008,2.1336e-009,5.375e-007,-9.3015e-009,-3.1339e-009,4.6166e-008,-1.1062e-008,1.0957e-008,3.4877e-008,-2.5492e-008,-5.1721e-008
5.0797e-008,4.0593e-007,1.2618e-006,-2.1011e-007,3.3633e-007,5.9428e-007,-2.5932e-007,1.0316e-006,6.1983e-007,-6.5904e-008,-6.944e-007,6.9028e-007,-4.7324e-007,4.0674e-007,3.4243e-008,7.2366e-006,-1.2325e-007,-4.2267e-008,5.9867e-007,-1.4768e-007,1.4477e-007,4.6649e-007,-3.4362e-007,-6.9405e-007
4.171e-007,3.5437e-006,1.0956e-005,-1.8375e-006,2.8676e-006,5.1289e-006,-2.2759e-006,9.0008e-006,5.3872e-006,-5.4374e-007,-6.0323e-006,6.0093e-006,-4.3568e-006,3.5032e-006,3.5221e-007,6.3114e-005,-1.0587e-006,-3.7306e-007,5.0007e-006,-1.2787e-006,1.2391e-006,4.0409e-006,-3.0034e-006,-6.0307e-006
2.4858e-006,2.2519e-005,6.9225e-005,-1.1675e-005,1.7772e-005,3.2217e-005,-1.4564e-005,5.7178e-005,3.4116e-005,-3.2461e-006,-3.8085e-005,3.8119e-005,-2.9221e-005,2.1921e-005,2.6175e-006,0.00040077,-6.6281e-006,-2.4301e-006,3.0202e-005,-8.0716e-006,7.7219e-006,2.5479e-005,-1.9139e-005,-3.8135e-005
1.1455e-005,0.00011098,0.00033903,-5.7412e-005,8.5295e-005,0.00015694,-7.2459e-005,0.0002818,0.00016776,-1.491e-005,-0.00018611,0.00018776,-0.00015216,0.00010612,1.5009e-005,0.0019743,-3.2234e-005,-1.2495e-005,0.00014027,-3.9584e-005,3.7331e-005,0.00012459,-9.4769e-005,-0.00018697
4.2457e-005,0.00044119,0.0013386,-0.00022719,0.00032973,0.00061661,-0.0002918,0.0011208,0.00066658,-5.464e-005,-0.00073185,0.00074713,-0.00064018,0.00041311,6.9206e-005,0.0078485,-0.00012672,-5.2971e-005,0.00051987,-0.00015692,0.00014564,0.00049149,-0.0003795,-0.00073929
0.00012997,0.0014526,0.0043737,-0.00074253,0.0010542,0.0020063,-0.00097783,0.0036949,0.0021984,-0.00016317,-0.0023761,0.0024668,-0.0022355,0.0013264,0.00026387,0.025856,-0.00041364,-0.00019092,0.001573,-0.0005164,0.00047073,0.001606,-0.0012627,-0.0024203
0.00033487,0.0040347,0.012043,-0.0020402,0.0028393,0.0055061,-0.0027821,0.010284,0.0061334,-0.00040072,-0.0064802,0.0068862,-0.0066032,0.0035724,0.00084868,0.071914,-0.0011426,-0.00059823,0.0039358,-0.0014373,0.0012839,0.0044276,-0.0035591,-0.006682
0.0007362,0.0095756,0.028299,-0.0047699,0.0065266,0.012908,-0.0068243,0.02449,0.014677,-0.00080496,-0.015015,0.016473,-0.016727,0.0081552,0.0023363,0.17111,-0.0027076,-0.0016566,0.0081752,-0.0034278,0.0029927,0.010433,-0.0086186,-0.015756
0.0013948,0.019588,0.057207,-0.009559,0.012919,0.026066,-0.014606,0.050351,0.030425,-0.0012798,-0.029738,0.034088,-0.036691,0.015855,0.0055644,0.35154,-0.0055569,-0.0041013,0.013987,-0.007068,0.0060134,0.021199,-0.018122,-0.032003
0.0022936,0.034719,0.099926,-0.016471,0.02215,0.045552,-0.027547,0.089906,0.055023,-0.0014255,-0.05038,0.061413,-0.070137,0.026207,0.011558,0.62744,-0.00994,-0.0091488,0.019145,-0.012665,0.010468,0.037339,-0.03335,-0.056271
0.0032879,0.05342,0.15087,-0.024357,0.032984,0.068939,-0.04617,0.13982,0.087203,-0.00040774,-0.072534,0.09667,-0.1172,0.036407,0.021063,0.9763,-0.015549,-0.018476,0.019155,-0.019751,0.015809,0.057128,-0.054057,-0.085759
0.0041182,0.07124,0.19601,-0.030642,0.042673,0.08999,-0.069309,0.18941,0.1214,0.0029599,-0.087042,0.1331,-0.17108,0.041214,0.033834,1.326,-0.021276,-0.033858,0.0088777,-0.02671,0.02067,0.075807,-0.077592,-0.11297
0.004513,0.081881,0.2166,-0.032117,0.047868,0.1002,-0.093916,0.22286,0.14847,0.0097729,-0.082795,0.16009,-0.21679,0.034857,0.048136,1.5715,-0.025382,-0.056344,-0.013674,-0.030979,0.023236,0.08674,-0.099216,-0.12758
0.0043558,0.080287,0.19873,-0.026732,0.046431,0.092934,-0.11588,0.22671,0.15919,0.020291,-0.052873,0.16771,-0.23462,0.014738,0.061108,1.6251,-0.026188,-0.085078,-0.04343,-0.030016,0.022172,0.084607,-0.11403,-0.12142
0.0038383,0.06621,0.14372,-0.015385,0.039016,0.068051,-0.13158,0.19885,0.14886,0.033269,-0.00069918,0.15272,-0.20827,-0.015233,0.070305,1.4751,-0.023022,-0.11632,-0.068005,-0.022721,0.017591,0.069041,-0.11973,-0.094134
0.0035004,0.045565,0.071125,-0.0022274,0.029052,0.033574,-0.13942,0.15274,0.11996,0.045915,0.058891,0.12184,-0.13411,-0.044772,0.075794,1.2064,-0.016803,-0.14343,-0.073428,-0.010464,0.011298,0.045929,-0.11818,-0.054942
0.0040785,0.027703,0.009525,0.0072906,0.020707,0.0020543,-0.14033,0.11163,0.080325,0.054862,0.10644,0.088912,-0.025698,-0.0623,0.081247,0.95531,-0.009749,-0.15845,-0.053476,0.0031121,0.0059037,0.024673,-0.11441,-0.017967
0.0061349,0.019783,-0.020846,0.009689,0.016053,-0.016779,-0.13714,0.094739,0.037948,0.057893,0.12936,0.066811,0.089844,-0.062584,0.092688,0.81817,-0.0042563,-0.15502,-0.015743,0.013671,0.0032478,0.012664,-0.11321,0.0066243
0.0095753,0.022138,-0.021263,0.0057131,0.013602,-0.022089,-0.13315,0.10459,-0.0035311,0.055448,0.1302,0.059367,0.18202,-0.051456,0.11504,0.78203,-0.0016422,-0.13131,0.021748,0.01833,0.0032968,0.010858,-0.11584,0.019116
0.013344,0.028397,-0.012644,-0.00027729,0.0095224,-0.021869,-0.13069,0.12518,-0.044407,0.050737,0.12477,0.059657,0.22778,-0.042958,0.14875,0.73807,-0.0016201,-0.091332,0.042485,0.017123,0.004407,0.014013,-0.11947,0.028662
0.015684,0.030542,-0.019042,-0.0034625,0.00080547,-0.026403,-0.13037,0.1335,-0.083606,0.047955,0.13063,0.056296,0.21756,-0.049548,0.18923,0.57514,-0.0028355,-0.043386,0.043072,0.012904,0.0047634,0.01548,-0.11995,0.044265
0.015088,0.024976,-0.049276,-0.0018035,-0.011946,-0.040167,-0.1309,0.11613,-0.1135,0.049456,0.15445,0.042848,0.15615,-0.071911,0.23015,0.27925,-0.0039567,0.0038737,0.034431,0.0098271,0.0037627,0.012537,-0.11554,0.065721
0.011506,0.014732,-0.091661,0.0031852,-0.024167,-0.0586,-0.12976,0.078211,-0.12082,0.053809,0.18804,0.02262,0.06133,-0.096393,0.2683,-0.047334,-0.0044018,0.045678,0.030925,0.011335,0.0021537,0.0077143,-0.10826,0.082654
0.0068633,0.0062161,-0.12578,0.0085019,-0.029636,-0.07218,-0.12422,0.038141,-0.095009,0.056368,0.2159,0.0048394,-0.037487,-0.10296,0.30565,-0.26808,-0.0041718,0.083057,0.036753,0.018733,0.00090774,0.0052019,-0.10193,0.083047
0.0041553,0.0035711,-0.14056,0.012443,-0.023849,-0.074175,-0.11275,0.012706,-0.038184,0.052294,0.22772,-0.0042966,-0.10352,-0.078543,0.34655,-0.32698,-0.003108,0.12087,0.042219,0.030881,-6.1608e-006,0.0059806,-0.098566,0.064042
0.0054505,0.0055486,-0.1426,0.015506,-0.0064571,-0.065549,-0.095794,0.0050964,0.031583,0.040031,0.22543,-0.0076798,-0.1041,-0.02615,0.39166,-0.29696,-0.0004555,0.16268,0.033696,0.044869,-0.0016885,0.0064846,-0.096599,0.035401
0.010191,0.0072247,-0.14819,0.018828,0.018252,-0.053295,-0.07573,0.0049442,0.088066,0.022677,0.21959,-0.014946,-0.028125,0.036876,0.43386,-0.32013,0.004639,0.20569,0.0079901,0.057182,-0.0051217,0.0021103,-0.092387,0.012258
0.015297,0.0045119,-0.16708,0.022071,0.042669,-0.044261,-0.055642,-0.00089291,0.11136,0.0061735,0.2192,-0.03373,0.10113,0.089902,0.46022,-0.49312,0.011937,0.23926,-0.023031,0.064866,-0.0099009,-0.0079074,-0.083443,0.0033421
0.017277,-0.0027175,-0.1934,0.023201,0.058294,-0.040079,-0.037876,-0.016851,0.099051,-0.0042832,0.22427,-0.062284,0.23085,0.12114,0.45929,-0.7966,0.019243,0.2492,-0.042852,0.066394,-0.014202,-0.019138,-0.07045,0.0049062
0.014846,-0.011271,-0.21162,0.020588,0.058644,-0.037253,-0.023258,-0.036121,0.065994,-0.0069181,0.22697,-0.090036,0.30457,0.1327,0.42813,-1.1239,0.022861,0.22581,-0.046349,0.061966,-0.016159,-0.025592,-0.056373,0.0054701
0.00994,-0.017769,-0.21133,0.015305,0.041881,-0.031596,-0.011354,-0.048236,0.033042,-0.0033644,0.21947,-0.10565,0.29544,0.13636,0.37381,-1.3742,0.019458,0.17072,-0.045778,0.053116,-0.01549,-0.024943,-0.043711,-0.0030746
0.0061985,-0.021084,-0.19682,0.011086,0.012017,-0.022593,-0.0012502,-0.049361,0.0132,0.0034377,0.20092,-0.10555,0.22372,0.1446,0.30815,-1.5233,0.0082251,0.097405,-0.059676,0.041762,-0.013904,-0.020361,-0.032424,-0.017832
0.0060625,-0.022181,-0.18299,0.011575,-0.022368,-0.013922,0.0079346,-0.046313,0.0052479,0.011237,0.17806,-0.095681,0.14365,0.16344,0.24019,-1.6151,-0.0082471,0.024282,-0.093733,0.02925,-0.013866,-0.017337,-0.0203,-0.027168
0.0088309,-0.022238,-0.18187,0.017268,-0.051843,-0.010143,0.017078,-0.051464,-0.0013666,0.018718,0.15974,-0.085443,0.10677,0.19064,0.17196,-1.6971,-0.025233,-0.03543,-0.13092,0.016067,-0.016677,-0.018715,-0.0052671,-0.020492
0.011268,-0.021367,-0.19272,0.025029,-0.070454,-0.012847,0.027173,-0.073427,-0.015429,0.024389,0.15071,-0.079572,0.12715,0.21824,0.10002,-1.7678,-0.038568,-0.079967,-0.1407,0.0024671,-0.021402,-0.022734,0.012362,0.0030446
0.01027,-0.019139,-0.20398,0.030754,-0.078065,-0.01959,0.039081,-0.11131,-0.036184,0.025932,0.14964,-0.075264,0.17372,0.23658,0.020495,-1.7862,-0.046902,-0.1171,-0.10073,-0.010608,-0.025458,-0.025691,0.029577,0.034065
0.0053979,-0.016015,-0.20462,0.032796,-0.079149,-0.026187,0.053063,-0.15649,-0.054872,0.021237,0.15157,-0.066608,0.19487,0.23757,-0.066597,-1.7248,-0.051889,-0.15593,-0.013449,-0.021316,-0.026398,-0.026166,0.042545,0.060345
-0.00077832,-0.013875,-0.19381,0.033021,-0.078985,-0.030078,0.068712,-0.19952,-0.063256,0.01041,0.15175,-0.051737,0.15649,0.21742,-0.15618,-1.6068,-0.056309,-0.19923,0.095106,-0.027907,-0.023568,-0.026425,0.049304,0.075286
-0.0047747,-0.014868,-0.18041,0.034626,-0.08004,-0.031914,0.085532,-0.23605,-0.060895,-0.003298,0.14734,-0.035862,0.065564,0.17862,-0.23952,-1.4897,-0.06174,-0.24212,0.19251,-0.030235,-0.018547,-0.029665,0.05141,0.080514
-0.0049806,-0.019607,-0.17382,0.038922,-0.081057,-0.03433,0.10363,-0.26763,-0.054631,-0.014957,0.13684,-0.027533,-0.036769,0.13016,-0.30653,-1.415,-0.067629,-0.27731,0.25911,-0.030319,-0.014165,-0.036183,0.0534,0.081448
-0.0028362,-0.026435,-0.17517,0.044216,-0.079144,-0.039239,0.12363,-0.29793,-0.051391,-0.021059,0.11925,-0.031756,-0.10538,0.084407,-0.34825,-1.3765,-0.072264,-0.30141,0.29559,-0.031073,-0.012853,-0.042541,0.060442,0.080793
-0.0014772,-0.03255,-0.1767,0.047839,-0.072854,-0.045937,0.14564,-0.32849,-0.051815,-0.021936,0.094408,-0.046266,-0.12118,0.05089,-0.35996,-1.3386,-0.074447,-0.31644,0.31639,-0.033913,-0.015348,-0.044676,0.075634,0.076063
-0.0030622,-0.036103,-0.16915,0.049207,-0.06371,-0.051433,0.16819,-0.35761,-0.051181,-0.021628,0.064219,-0.063984,-0.10029,0.030263,-0.34435,-1.2839,-0.074221,-0.32595,0.33664,-0.037185,-0.020436,-0.041783,0.098597,0.062998
-0.0070951,-0.037503,-0.14966,0.050729,-0.055149,-0.052556,0.18827,-0.3825,-0.046476,-0.02528,0.032692,-0.079044,-0.078846,0.013117,-0.31248,-1.2368,-0.072074,-0.33009,0.36279,-0.036978,-0.025739,-0.037055,0.12601,0.041267
-0.011143,-0.038824,-0.12328,0.055408,-0.050064,-0.04813,0.20279,-0.4019,-0.041872,-0.03599,0.0040213,-0.090929,-0.087301,-0.014312,-0.28017,-1.2379,-0.067626,-0.32478,0.39093,-0.029953,-0.029004,-0.034547,0.1535,0.017268
-0.013192,-0.041761,-0.097697,0.063329,-0.049042,-0.039631,0.21056,-0.41663,-0.046036,-0.053227,-0.019906,-0.10365,-0.1331,-0.060384,-0.26013,-1.2915,-0.05925,-0.30583,0.41004,-0.016003,-0.029163,-0.035282,0.17753,0.0019084
-0.013408,-0.045866,-0.076673,0.070587,-0.050558,-0.029956,0.21314,-0.42795,-0.062981,-0.073602,-0.040261,-0.12166,-0.20091,-0.12065,-0.2547,-1.3419,-0.045166,-0.27347,0.40615,0.0014116,-0.02667,-0.036405,0.19634,0.0056616
-0.013676,-0.048612,-0.058248,0.072135,-0.052573,-0.021347,0.21399,-0.4361,-0.085353,-0.093039,-0.059444,-0.14663,-0.26575,-0.17824,-0.25451,-1.3058,-0.025099,-0.23282,0.36587,0.017542,-0.023055,-0.034072,0.20982,0.034582
-0.015422,-0.047352,-0.038455,0.066263,-0.053972,-0.014032,0.21647,-0.44068,-0.097605,-0.10867,-0.078321,-0.17749,-0.30709,-0.21241,-0.24541,-1.1379,-0.0010839,-0.18978,0.28084,0.029325,-0.020073,-0.02724,0.21894,0.08877
-0.017916,-0.041587,-0.016244,0.056571,-0.054692,-0.006518,0.22201,-0.44223,-0.087209,-0.11929,-0.095148,-0.21247,-0.31525,-0.20979,-0.21894,-0.87132,0.023277,-0.14649,0.15306,0.036674,-0.018922,-0.018815,0.22547,0.16207
-0.018821,-0.033618,0.0052723,0.049288,-0.054811,0.0028313,0.22973,-0.44258,-0.053864,-0.12454,-0.10731,-0.25004,-0.29012,-0.17128,-0.17856,-0.59677,0.044574,-0.10077,-0.0022547,0.041307,-0.019844,-0.013299,0.2318,0.24185
-0.016549,-0.026941,0.022045,0.048059,-0.053802,0.014289,0.23739,-0.443,-0.0078669,-0.12362,-0.11427,-0.28762,-0.23764,-0.1108,-0.13644,-0.39751,0.06118,-0.049806,-0.16069,0.044508,-0.022149,-0.013218,0.24066,0.31025
-0.012161,-0.023726,0.033306,0.050846,-0.050869,0.026519,0.24317,-0.44155,0.041185,-0.11492,-0.11905,-0.31979,-0.16826,-0.047368,-0.10321,-0.29421,0.073764,0.0059362,-0.29961,0.045969,-0.024574,-0.017368,0.25428,0.34929
-0.008893,-0.023547,0.042609,0.051881,-0.046145,0.037686,0.24674,-0.43285,0.094678,-0.09675,-0.12656,-0.33888,-0.096531,0.0036864,-0.079201,-0.2437,0.084592,0.062822,-0.41,0.044575,-0.025841,-0.022011,0.27339,0.34948
-0.0096092,-0.024415,0.054879,0.04702,-0.041558,0.046836,0.24931,-0.41137,0.16389,-0.068905,-0.14026,-0.33851,-0.038256,0.035622,-0.054772,-0.18643,0.096136,0.11784,-0.50037,0.040083,-0.025291,-0.023615,0.29684,0.31666
-0.014461,-0.025034,0.072419,0.037622,-0.040329,0.054342,0.25246,-0.37581,0.25731,-0.03409,-0.1599,-0.31805,-0.004155,0.049753,-0.019676,-0.096693,0.10973,0.1719,-0.58855,0.033856,-0.023261,-0.020923,0.32194,0.27043
-0.020834,-0.026052,0.093585,0.029334,-0.045158,0.061144,0.25668,-0.33074,0.36695,0.00189,-0.18237,-0.28433,0.0065941,0.051794,0.026604,0.0075074,0.12496,0.22874,-0.68603,0.027954,-0.02088,-0.015141,0.34564,0.23302
-0.025521,-0.029019,0.11507,0.026882,-0.056268,0.067671,0.26076,-0.28369,0.46599,0.031654,-0.20483,-0.24906,0.0073072,0.048295,0.072573,0.097558,0.14005,0.29026,-0.78582,0.023592,-0.01926,-0.0086547,0.36535,0.21535
-0.027093,-0.034065,0.13526,0.029721,-0.070726,0.073595,0.26242,-0.24016,0.52076,0.049081,-0.22712,-0.2231,0.016819,0.044897,0.10262,0.17359,0.1531,0.35321,-0.86351,0.020614,-0.018587,-0.0034774,0.37913,0.21098
-0.026456,-0.038705,0.15538,0.032584,-0.083594,0.078585,0.25997,-0.20097,0.50883,0.052108,-0.25121,-0.21088,0.048126,0.045988,0.10831,0.2703,0.16338,0.41138,-0.89178,0.018546,-0.017886,-0.00034824,0.38512,0.20314
-0.025441,-0.039297,0.17727,0.030389,-0.09028,0.083129,0.25349,-0.16446,0.43016,0.043815,-0.27791,-0.20815,0.10013,0.054489,0.093399,0.42313,0.17171,0.46165,-0.85882,0.018049,-0.015764,0.0012772,0.38096,0.17932
-0.025029,-0.034155,0.20031,0.022892,-0.088692,0.088328,0.24471,-0.13109,0.30481,0.030849,-0.30408,-0.20429,0.15828,0.071199,0.068559,0.6271,0.17949,0.50797,-0.77778,0.021054,-0.011593,0.0026117,0.36401,0.14153
-0.024827,-0.025516,0.22062,0.014742,-0.080112,0.094689,0.23564,-0.1058,0.16087,0.019807,-0.32317,-0.18801,0.20385,0.09431,0.041111,0.8278,0.18715,0.55854,-0.68113,0.029043,-0.0060497,0.004741,0.33229,0.10369
-0.023937,-0.01831,0.23375,0.011002,-0.06855,0.1011,0.22711,-0.095537,0.022393,0.013708,-0.32959,-0.1533,0.22525,0.12007,0.0091682,0.95598,0.19317,0.61801,-0.60463,0.040815,-0.00049868,0.008062,0.28564,0.07853
-0.022064,-0.016459,0.23861,0.012376,-0.059136,0.10519,0.21859,-0.10399,-0.095405,0.01092,-0.32321,-0.10253,0.22399,0.1448,-0.034652,0.97839,0.19467,0.68205,-0.57273,0.051848,0.0042151,0.012218,0.22629,0.065284
-0.019759,-0.019772,0.2391,0.014553,-0.056313,0.10497,0.20924,-0.12817,-0.18425,0.0074041,-0.31025,-0.044872,0.21161,0.16723,-0.093738,0.9231,0.18933,0.73977,-0.59399,0.056209,0.0083632,0.016506,0.15841,0.048307
-0.017829,-0.024138,0.24161,0.012117,-0.062352,0.10022,0.19904,-0.15978,-0.23967,0.00073097,-0.29916,0.0087065,0.20103,0.1893,-0.16117,0.85931,0.17701,0.78198,-0.66508,0.049903,0.012702,0.020427,0.086871,0.0075453
-0.016741,-0.024906,0.25039,0.0032644,-0.076546,0.092494,0.18881,-0.18951,-0.2611,-0.0071119,-0.29464,0.050667,0.19884,0.21433,-0.22244,0.84942,0.15996,0.80691,-0.77459,0.033328,0.017286,0.023912,0.016061,-0.067409
-0.016534,-0.020574,0.26442,-0.0089835,-0.095419,0.083586,0.17899,-0.21057,-0.25452,-0.010389,-0.29458,0.079438,0.2036,0.24305,-0.26476,0.91254,0.14131,0.81725,-0.8998,0.011234,0.02104,0.027022,-0.050524,-0.16975
-0.017004,-0.013671,0.27838,-0.019878,-0.11416,0.0741,0.16859,-0.21922,-0.23332,-0.0034648,-0.29256,0.098433,0.20994,0.27031,-0.28478,1.025,0.1232,0.81086,-1.0002,-0.0094667,0.022627,0.029368,-0.10974,-0.27844
-0.017701,-0.0082519,0.28674,-0.027171,-0.12884,0.0633,0.15557,-0.21376,-0.21476,0.014898,-0.28366,0.11323,0.21404,0.28536,-0.2884,1.1495,0.10596,0.77553,-1.0187,-0.022246,0.021727,0.029802,-0.15796,-0.36834
-0.017806,-0.006387,0.28767,-0.03253,-0.1381,0.050204,0.13848,-0.19464,-0.21323,0.039913,-0.2687,0.12929,0.21573,0.27672,-0.28418,1.2621,0.088772,0.69527,-0.89865,-0.022394,0.019319,0.026759,-0.19094,-0.42091
-0.016421,-0.0067384,0.28368,-0.039136,-0.14297,0.034629,0.11763,-0.16576,-0.23465,0.06304,-0.25317,0.15125,0.21641,0.23905,-0.27738,1.3516,0.070907,0.56525,-0.61134,-0.0074516,0.01655,0.019095,-0.20486,-0.43099
-0.013389,-0.0062847,0.27915,-0.048123,-0.14453,0.017167,0.094454,-0.13418,-0.27488,0.076626,-0.24213,0.18271,0.21532,0.17724,-0.27044,1.4014,0.052617,0.40283,-0.17696,0.022164,0.013406,0.0068461,-0.1979,-0.40847
-0.0099035,-0.0033908,0.27687,-0.057341,-0.14121,-0.001644,0.069474,-0.10617,-0.32189,0.077846,-0.23574,0.22518,0.20813,0.10415,-0.26819,1.3794,0.035068,0.24351,0.33635,0.061877,0.0087148,-0.0085898,-0.17128,-0.37492
-0.0080247,0.00064761,0.27656,-0.063445,-0.12809,-0.021801,0.041166,-0.081659,-0.36011,0.06958,-0.22925,0.27576,0.18948,0.033112,-0.28079,1.2579,0.019766,0.12265,0.83837,0.10235,0.0017168,-0.024886,-0.12886,-0.35545
-0.0091059,0.0028985,0.27576,-0.065161,-0.099613,-0.043284,0.0073686,-0.052243,-0.37562,0.057992,-0.2174,0.32553,0.15699,-0.029564,-0.31901,1.0486,0.0079398,0.055815,1.2535,0.13165,-0.0063283,-0.039412,-0.075655,-0.36747
-0.012403,0.0016042,0.27207,-0.064646,-0.053993,-0.065077,-0.03174,-0.0061272,-0.36204,0.048637,-0.19919,0.36126,0.11349,-0.08667,-0.38462,0.81783,1.31e-005,0.032278,1.5477,0.14035,-0.012241,-0.049695,-0.016552,-0.41094
-0.01523,-0.0020975,0.26463,-0.065839,0.0036359,-0.085028,-0.071956,0.062831,-0.32536,0.043548,-0.17892,0.37153,0.065473,-0.14551,-0.46453,0.65778,-0.0049157,0.025377,1.7327,0.12689,-0.012887,-0.053725,0.043643,-0.46646
-0.014763,-0.0050301,0.25411,-0.071377,0.062018,-0.10108,-0.10676,0.14911,-0.28403,0.040836,-0.16294,0.35462,0.019534,-0.21067,-0.53572,0.62801,-0.0093103,0.010735,1.8472,0.098844,-0.0073497,-0.050373,0.099118,-0.50447
-0.010089,-0.0045505,0.24187,-0.080679,0.10807,-0.11294,-0.13138,0.23776,-0.26137,0.036642,-0.15529,0.32256,-0.019904,-0.27981,-0.57859,0.71336,-0.016556,-0.02108,1.9308,0.068554,0.0025946,-0.039967,0.14231,-0.50146
-0.0028508,-0.00055616,0.22907,-0.090529,0.13192,-0.12267,-0.14579,0.31333,-0.27257,0.028,-0.15572,0.29681,-0.049908,-0.34506,-0.58904,0.83443,-0.029247,-0.064192,2.0049,0.045688,0.013941,-0.024632,0.1652,-0.45362
0.0039277,0.0046646,0.21629,-0.097439,0.12982,-0.13327,-0.15413,0.36807,-0.31407,0.014822,-0.16127,0.2962,-0.067135,-0.39771,-0.57941,0.905,-0.04726,-0.10574,2.0695,0.032212,0.024411,-0.0078763,0.16283,-0.37879
0.0077644,0.0083502,0.20329,-0.099902,0.10414,-0.1463,-0.16114,0.40313,-0.36341,-7.5617e-005,-0.16921,0.3246,-0.067884,-0.43191,-0.56774,0.89161,-0.067163,-0.13456,2.1138,0.023215,0.033206,0.0066666,0.13743,-0.30569
0.0079344,0.0091813,0.18911,-0.099055,0.061814,-0.16015,-0.16911,0.42307,-0.39102,-0.012756,-0.17837,0.36769,-0.051113,-0.44529,-0.56417,0.82932,-0.083836,-0.14526,2.1297,0.012284,0.040322,0.016717,0.099944,-0.25741
0.0054272,0.0077486,0.17261,-0.097524,0.012423,-0.17037,-0.1777,0.42929,-0.3762,-0.020568,-0.18813,0.40269,-0.021735,-0.43801,-0.56526,0.78548,-0.093537,-0.13836,2.1173,-0.0033545,0.045596,0.022144,0.067183,-0.23975
0.002147,0.0056185,0.15365,-0.097416,-0.033646,-0.17176,-0.18622,0.41876,-0.31666,-0.023661,-0.19664,0.41464,0.009782,-0.41305,-0.55998,0.80551,-0.096269,-0.11963,2.0801,-0.021887,0.048684,0.024595,0.055056,-0.24058
8.5884e-005,0.0041366,0.13401,-0.098818,-0.067875,-0.16074,-0.19549,0.38798,-0.2265,-0.024759,-0.20034,0.40645,0.032576,-0.37781,-0.54137,0.88447,-0.095667,-0.099228,2.0148,-0.040012,0.049865,0.026232,0.07166,-0.23881
0.0006919,0.0039098,0.1169,-0.099836,-0.086748,-0.13664,-0.20725,0.3378,-0.12669,-0.027481,-0.1954,0.39403,0.041823,-0.34396,-0.51396,0.98022,-0.09649,-0.08891,1.9065,-0.056623,0.050452,0.028383,0.11426,-0.21628
0.0043004,0.0049129,0.10488,-0.098154,-0.093459,-0.10173,-0.22181,0.27414,-0.036452,-0.034354,-0.17962,0.39008,0.041296,-0.32306,-0.49108,1.0472,-0.10161,-0.096999,1.7344,-0.073705,0.051889,0.030793,0.1719,-0.16622
0.0097672,0.0066043,0.097529,-0.093036,-0.096057,-0.06037,-0.23668,0.20436,0.029993,-0.045621,-0.15328,0.39042,0.039819,-0.31958,-0.48517,1.0581,-0.11069,-0.12395,1.4873,-0.094123,0.054094,0.031728,0.23154,-0.095116
0.014808,0.0078554,0.091117,-0.086199,-0.10213,-0.018038,-0.24769,0.1334,0.063814,-0.059219,-0.11844,0.3753,0.04432,-0.32672,-0.49886,1.001,-0.12124,-0.16245,1.1768,-0.11867,0.054664,0.028773,0.28347,-0.018706
0.017247,0.0071969,0.080885,-0.080745,-0.11323,0.019633,-0.25173,0.063558,0.063674,-0.07161,-0.078074,0.3255,0.054586,-0.32993,-0.5232,0.86678,-0.13073,-0.20253,0.83852,-0.14493,0.050102,0.019963,0.32297,0.045857
0.016474,0.0037974,0.064415,-0.07886,-0.12313,0.048114,-0.24857,-0.0020146,0.03952,-0.079014,-0.035773,0.23975,0.062996,-0.31682,-0.54351,0.64855,-0.13793,-0.23773,0.51871,-0.1686,0.03845,0.0048148,0.34887,0.089113
0.013885,-0.0013814,0.043225,-0.080106,-0.12186,0.065298,-0.24055,-0.055938,0.012719,-0.078745,0.0038915,0.13871,0.058614,-0.28656,-0.54746,0.3541,-0.14252,-0.2673,0.25251,-0.1858,0.021279,-0.015213,0.36148,0.11647
0.011736,-0.0055444,0.021244,-0.081775,-0.10256,0.072158,-0.23095,-0.087169,0.0083352,-0.070269,0.035567,0.051745,0.032637,-0.25135,-0.53036,0.015004,-0.14397,-0.29337,0.048406,-0.19461,0.0033031,-0.03711,0.36181,0.14957
0.011272,-0.0057905,0.0015873,-0.081069,-0.066275,0.07205,-0.22267,-0.085962,0.042721,-0.055348,0.054596,-0.0024587,-0.017462,-0.22863,-0.49505,-0.32351,-0.14098,-0.31676,-0.11171,-0.19528,-0.010274,-0.057392,0.35159,0.21907
0.011768,-0.0015541,-0.015471,-0.07726,-0.020836,0.068741,-0.21808,-0.049866,0.11532,-0.036884,0.0592,-0.02611,-0.086303,-0.22999,-0.44851,-0.62559,-0.13242,-0.33594,-0.25723,-0.18936,-0.016693,-0.073343,0.33229,0.34964
0.011401,0.0044085,-0.031685,-0.071999,0.024965,0.064284,-0.21905,0.013768,0.2108,-0.017082,0.051884,-0.036551,-0.16195,-0.25506,-0.39792,-0.8784,-0.11891,-0.34988,-0.40871,-0.17883,-0.016727,-0.083792,0.30355,0.5431
0.0091795,0.0077519,-0.048283,-0.067609,0.066882,0.058054,-0.22618,0.091084,0.30838,0.0034343,0.038893,-0.051292,-0.23031,-0.29377,-0.34837,-1.083,-0.10336,-0.36113,-0.56607,-0.16564,-0.01334,-0.089185,0.2632,0.76865
0.0060957,0.0058657,-0.064327,-0.06497,0.10573,0.047597,-0.23761,0.16915,0.38948,0.024455,0.027873,-0.076869,-0.28119,-0.33367,-0.30201,-1.2347,-0.089937,-0.37555,-0.71197,-0.15156,-0.0092957,-0.091043,0.21031,0.96733
0.0043621,-1.0942e-005,-0.077528,-0.062929,0.14268,0.03079,-0.24905,0.24264,0.4385,0.043825,0.024945,-0.10899,-0.31265,-0.36548,-0.25812,-1.317,-0.081718,-0.39839,-0.82671,-0.138,-0.0056359,-0.091052,0.14935,1.0719
0.0053943,-0.0058451,-0.086572,-0.059651,0.17394,0.0079673,-0.25603,0.31473,0.44085,0.056436,0.03263,-0.14071,-0.32974,-0.38347,-0.21343,-1.3206,-0.079104,-0.43039,-0.90337,-0.12596,-0.0018714,-0.090053,0.090501,1.0343
0.0084414,-0.0081981,-0.092561,-0.054568,0.1904,-0.017323,-0.257,0.39107,0.38644,0.05642,0.049372,-0.16953,-0.33772,-0.38264,-0.16335,-1.2663,-0.080051,-0.46764,-0.95292,-0.11597,0.0028271,-0.087368,0.043432,0.8489
0.011199,-0.0069306,-0.098209,-0.049122,0.18343,-0.039503,-0.25462,0.4708,0.27971,0.041426,0.07058,-0.19794,-0.33536,-0.35778,-0.10394,-1.2029,-0.082043,-0.50477,-0.99681,-0.10833,0.008732,-0.081056,0.0078378,0.55839
0.011871,-0.0048079,-0.10568,-0.0457,0.1528,-0.053545,-0.25359,0.54209,0.14658,0.015356,0.090513,-0.22933,-0.31599,-0.30651,-0.034066,-1.1726,-0.084232,-0.53841,-1.0533,-0.10348,0.015522,-0.069374,-0.031092,0.23898
0.01076,-0.0044994,-0.11523,-0.045778,0.11007,-0.057497,-0.25651,0.58723,0.027239,-0.013346,0.10416,-0.26498,-0.27802,-0.23387,0.043681,-1.1715,-0.08805,-0.56795,-1.1278,-0.1023,0.022661,-0.052772,-0.096052,-0.029267
0.0099009,-0.0059351,-0.12579,-0.048792,0.074073,-0.053444,-0.26135,0.59535,-0.045068,-0.037068,0.10843,-0.30453,-0.23682,-0.15306,0.12409,-1.1467,-0.095824,-0.59347,-1.213,-0.10583,0.029539,-0.034898,-0.20196,-0.19275
0.011085,-0.0066063,-0.13668,-0.052429,0.061236,-0.046243,-0.26307,0.57343,-0.064493,-0.053879,0.10238,-0.34751,-0.22487,-0.080219,0.20176,-1.0411,-0.10852,-0.61368,-1.2972,-0.1145,0.035335,-0.021351,-0.34175,-0.24084
0.014146,-0.0044921,-0.14847,-0.053838,0.077521,-0.040713,-0.25809,0.54628,-0.054992,-0.067832,0.086993,-0.39283,-0.27371,-0.026046,0.27301,-0.85236,-0.12448,-0.62544,-1.3735,-0.12734,0.039093,-0.016547,-0.48509,-0.20164
0.017073,-0.00066034,-0.16196,-0.050886,0.11765,-0.03891,-0.24789,0.54314,-0.051657,-0.08452,0.064915,-0.4372,-0.38722,0.0095627,0.33587,-0.65321,-0.14009,-0.62483,-1.4426,-0.14193,0.040264,-0.020726,-0.59302,-0.12147
0.017783,0.0011728,-0.17628,-0.042942,0.17176,-0.03908,-0.23834,0.5797,-0.076165,-0.10561,0.040264,-0.47669,-0.52645,0.035925,0.38875,-0.5491,-0.15201,-0.60827,-1.5073,-0.15521,0.03929,-0.029371,-0.63977,-0.040591
0.015893,-0.0020838,-0.18834,-0.031193,0.23392,-0.036938,-0.23513,0.64862,-0.12643,-0.12681,0.017925,-0.5126,-0.62248,0.064353,0.42989,-0.6021,-0.15902,-0.57386,-1.5638,-0.16483,0.037546,-0.035565,-0.62729,0.021888
0.012931,-0.009808,-0.19449,-0.018445,0.30588,-0.028526,-0.23909,0.72601,-0.18708,-0.1407,0.0017975,-0.55636,-0.61353,0.10083,0.45871,-0.78034,-0.1622,-0.52361,-1.5991,-0.1697,0.036553,-0.033609,-0.58297,0.067674
0.010988,-0.01774,-0.19344,-0.0081492,0.3929,-0.012948,-0.24532,0.78901,-0.24828,-0.1419,-0.0073386,-0.62534,-0.48325,0.14355,0.47814,-0.9731,-0.16354,-0.46635,-1.5957,-0.16952,0.037092,-0.02144,-0.54329,0.10679
0.011145,-0.021299,-0.18794,-0.0027625,0.49534,0.0067506,-0.24659,0.8305,-0.31389,-0.13064,-0.012523,-0.72847,-0.27322,0.18588,0.49491,-1.0598,-0.16395,-0.41848,-1.5435,-0.16393,0.038965,-0.00066807,-0.53551,0.14274
0.012979,-0.019223,-0.18343,-0.0022813,0.60276,0.025319,-0.23829,0.85971,-0.39178,-0.11249,-0.01853,-0.85167,-0.060033,0.22127,0.51611,-0.98112,-0.16265,-0.39928,-1.448,-0.15241,0.041429,0.02495,-0.56945,0.16526
0.015242,-0.014305,-0.1845,-0.0041635,0.69599,0.038705,-0.22109,0.88937,-0.47736,-0.094985,-0.027853,-0.95759,0.087571,0.24615,0.54395,-0.76302,-0.15811,-0.42155,-1.3296,-0.13541,0.043726,0.051005,-0.64173,0.15461
0.016796,-0.010694,-0.19165,-0.0050363,0.75624,0.046874,-0.19989,0.92167,-0.54768,-0.08369,-0.037764,-1.0046,0.143,0.25971,0.573,-0.48523,-0.14986,-0.48305,-1.2115,-0.11546,0.045148,0.073227,-0.74525,0.094137
0.017004,-0.010301,-0.20106,-0.0030822,0.77459,0.0539,-0.1803,0.94584,-0.57304,-0.080061,-0.041259,-0.97282,0.12727,0.2626,0.5933,-0.22397,-0.13987,-0.56567,-1.1062,-0.096592,0.044777,0.088126,-0.87443,-0.017613
0.015618,-0.011502,-0.20748,0.0007957,0.75512,0.064973,-0.16547,0.94957,-0.53658,-0.081713,-0.031715,-0.87611,0.087211,0.25668,0.59735,-0.01171,-0.13202,-0.64409,-1.0084,-0.081821,0.041477,0.094074,-1.0228,-0.163
0.012746,-0.011114,-0.20823,0.0040553,0.70973,0.082397,-0.15477,0.9337,-0.44552,-0.084332,-0.0079377,-0.7479,0.065334,0.24545,0.58579,0.1649,-0.12988,-0.6982,-0.90093,-0.070604,0.034453,0.092247,-1.1773,-0.31222
0.0091069,-0.0076336,-0.20516,0.0049428,0.64957,0.10359,-0.14456,0.91606,-0.32633,-0.083854,0.024217,-0.61238,0.080936,0.23347,0.56687,0.33847,-0.13403,-0.72087,-0.76925,-0.059046,0.023994,0.08613,-1.317,-0.43649
0.0061091,-0.0027566,-0.20315,0.0041133,0.5799,0.12272,-0.13035,0.91994,-0.20983,-0.077742,0.054606,-0.4664,0.1288,0.2237,0.55021,0.53299,-0.14075,-0.71636,-0.61408,-0.04338,0.011712,0.079326,-1.4178,-0.51921
0.0052338,0.00011984,-0.20627,0.0039633,0.50182,0.1346,-0.1093,0.95613,-0.11863,-0.065004,0.07345,-0.2898,0.1885,0.21468,0.53984,0.75592,-0.1437,-0.69301,-0.45412,-0.024035,-6.5913e-005,0.073198,-1.4598,-0.55881
0.0069547,-0.0010231,-0.21449,0.0062669,0.41767,0.13792,-0.082211,1.0137,-0.06324,-0.045504,0.074505,-0.075286,0.2341,0.20071,0.53212,1.0111,-0.13798,-0.65735,-0.31748,-0.0064142,-0.0093297,0.0665,-1.4325,-0.56302
0.010148,-0.0049117,-0.22352,0.010307,0.33412,0.1351,-0.05363,1.0672,-0.044327,-0.019707,0.055607,0.15086,0.24063,0.17596,0.51954,1.3145,-0.12389,-0.61415,-0.22833,0.0030016,-0.015124,0.05744,-1.3345,-0.54008
0.012736,-0.0078729,-0.22787,0.013307,0.25977,0.12945,-0.029524,1.094,-0.055244,0.010488,0.018291,0.33944,0.19004,0.13966,0.49682,1.6929,-0.10731,-0.56988,-0.19689,0.0022539,-0.017552,0.046202,-1.1719,-0.49372
0.013239,-0.0067762,-0.22479,0.012875,0.19957,0.1222,-0.013614,1.0882,-0.083106,0.040494,-0.031572,0.45371,0.07895,0.097809,0.4643,2.1583,-0.095795,-0.53384,-0.21708,-0.0038041,-0.017248,0.035379,-0.95603,-0.4241
0.011933,-0.0016205,-0.21612,0.0092688,0.15136,0.11198,-0.004898,1.0598,-0.11146,0.063155,-0.08258,0.49826,-0.0755,0.059511,0.42719,2.6777,-0.092956,-0.51407,-0.2707,-0.0069686,-0.014883,0.027779,-0.70378,-0.33235
0.010563,0.0042715,-0.20686,0.0053502,0.10789,0.096913,0.0014529,1.0223,-0.12625,0.071527,-0.11884,0.51424,-0.23823,0.030804,0.39248,3.1642,-0.095421,-0.51127,-0.33496,-0.0021743,-0.011079,0.023765,-0.43506,-0.22361
0.010747,0.0065776,-0.2015,0.0042066,0.062456,0.077277,0.010225,0.97964,-0.1216,0.063269,-0.12524,0.54446,-0.36926,0.011157,0.36674,3.5091,-0.095018,-0.51682,-0.39041,0.0086811,-0.006674,0.020794,-0.16888,-0.10645
0.012452,0.0030566,-0.20108,0.0065532,0.013489,0.056248,0.022404,0.92325,-0.10015,0.043471,-0.095244,0.59924,-0.44034,-0.0043959,0.35511,3.6398,-0.084385,-0.51719,-0.42777,0.019016,-0.0029006,0.015638,0.081122,0.009318
0.013947,-0.0048438,-0.2029,0.010284,-0.034945,0.038196,0.034743,0.83971,-0.067244,0.022972,-0.036296,0.65329,-0.4445,-0.019714,0.3601,3.5652,-0.061505,-0.50152,-0.451,0.023823,-0.0011457,0.0071536,0.30769,0.11342
0.013369,-0.012923,-0.20291,0.012542,-0.076308,0.025955,0.043025,0.72241,-0.025259,0.012421,0.031927,0.67426,-0.39317,-0.033836,0.37927,3.3708,-0.029806,-0.46616,-0.47284,0.024134,-0.0022552,-0.0029179,0.50667,0.19407
0.010594,-0.016955,-0.19875,0.012343,-0.10536,0.019231,0.046075,0.57791,0.025862,0.016037,0.086379,0.65532,-0.30587,-0.042467,0.40357,3.1614,0.0054307,-0.41356,-0.50187,0.025695,-0.0057637,-0.011586,0.67267,0.2379
0.0076548,-0.015266,-0.19135,0.011311,-0.12026,0.015209,0.04693,0.42393,0.082481,0.029733,0.11177,0.62216,-0.20222,-0.043033,0.41964,2.9895,0.040594,-0.34787,-0.52719,0.033416,-0.0096112,-0.016823,0.79777,0.23361
0.0071493,-0.0094939,-0.18403,0.011976,-0.12281,0.010676,0.050261,0.28196,0.1336,0.045044,0.10719,0.61093,-0.10129,-0.038343,0.4167,2.8219,0.074259,-0.27225,-0.51297,0.047028,-0.010791,-0.01836,0.87484,0.17858
0.0098403,-0.003188,-0.17993,0.015408,-0.11775,0.004029,0.058629,0.16972,0.16615,0.055519,0.084532,0.64003,-0.023707,-0.035183,0.39405,2.5688,0.10529,-0.18978,-0.41253,0.061987,-0.0069008,-0.016907,0.90198,0.083427
0.013567,0.00058921,-0.17966,0.020509,-0.11136,-0.0041683,0.071059,0.096496,0.17615,0.060272,0.060507,0.70145,0.011887,-0.038935,0.36336,2.1539,0.13161,-0.10567,-0.19821,0.074362,0.0021034,-0.013244,0.88397,-0.029457
0.014648,0.00096347,-0.18065,0.025521,-0.10907,-0.012273,0.084939,0.061683,0.17505,0.062025,0.047858,0.77555,-3.6777e-005,-0.048932,0.34276,1.573,0.15149,-0.026916,0.11207,0.084729,0.01318,-0.008341,0.82939,-0.13326
0.010825,-0.000745,-0.1786,0.030028,-0.11278,-0.019314,0.098889,0.055745,0.18323,0.062019,0.050969,0.85093,-0.04212,-0.058628,0.34603,0.90493,0.16614,0.04166,0.45435,0.097335,0.021444,-0.004003,0.74642,-0.20497
0.0033154,-0.0024099,-0.17015,0.035303,-0.11952,-0.026022,0.11344,0.063464,0.2147,0.05701,0.067267,0.9298,-0.077678,-0.060449,0.37431,0.27403,0.18026,0.10197,0.75069,0.1157,0.023133,-0.0026507,0.64115,-0.2301
-0.0038917,-0.0026692,-0.15494,0.04259,-0.12349,-0.034284,0.12883,0.068962,0.26586,0.041549,0.091734,1.0173,-0.070046,-0.051275,0.41605,-0.20381,0.19928,0.16369,0.95518,0.13912,0.018472,-0.0058233,0.51915,-0.20411
-0.007069,-0.0015734,-0.13569,0.0511,-0.12079,-0.045404,0.14256,0.06073,0.31829,0.013615,0.12051,1.1102,-0.0053813,-0.034174,0.45474,-0.45948,0.22539,0.24043,1.0811,0.16329,0.012139,-0.012698,0.38773,-0.13381
-0.0056181,-9.7179e-005,-0.11629,0.057921,-0.11349,-0.058608,0.14991,0.034147,0.35263,-0.021726,0.15146,1.1987,0.099355,-0.015383,0.47867,-0.48488,0.25596,0.34401,1.1881,0.18386,0.010389,-0.020325,0.25555,-0.039842
-0.0023685,0.00082876,-0.099274,0.060148,-0.1096,-0.071141,0.14767,-0.0096248,0.36087,-0.054465,0.18263,1.2783,0.21111,0.00057829,0.48608,-0.33225,0.28602,0.48118,1.3393,0.1993,0.016553,-0.025732,0.12965,0.044473
-0.0010836,0.00093112,-0.084622,0.05739,-0.11809,-0.080037,0.13801,-0.066867,0.34688,-0.07617,0.21113,1.3565,0.30687,0.013476,0.4832,-0.10502,0.31241,0.65427,1.5603,0.21045,0.028291,-0.028131,0.012785,0.083822
-0.0033296,0.00053593,-0.07071,0.052294,-0.14241,-0.084174,0.12846,-0.13383,0.3169,-0.08534,0.2341,1.4444,0.38893,0.025671,0.47788,0.067153,0.33569,0.86229,1.8294,0.21831,0.038989,-0.029195,-0.096015,0.059961
-0.00732,0.00015292,-0.056533,0.048531,-0.17711,-0.084881,0.12726,-0.2072,0.2712,-0.086967,0.25105,1.5398,0.47523,0.037865,0.47379,0.076201,0.35813,1.0979,2.101,0.22284,0.042479,-0.031155,-0.19813,-0.012964
-0.0095728,0.00019646,-0.043179,0.047939,-0.21029,-0.084724,0.13749,-0.28361,0.20572,-0.0869,0.26545,1.6181,0.57292,0.046171,0.469,-0.10883,0.37963,1.3401,2.3377,0.22396,0.037441,-0.034541,-0.29232,-0.091851
-0.0078482,0.0010048,-0.033253,0.04925,-0.23023,-0.08567,0.15487,-0.36007,0.12142,-0.086307,0.28353,1.6423,0.65984,0.043371,0.45888,-0.41682,0.39579,1.5504,2.5237,0.2231,0.027996,-0.037645,-0.3745,-0.13037
-0.0029197,0.002914,-0.028703,0.0494,-0.23169,-0.08827,0.17108,-0.4353,0.030595,-0.081335,0.3109,1.583,0.69366,0.023932,0.44079,-0.71139,0.40025,1.6804,2.6552,0.22271,0.020119,-0.038112,-0.4398,-0.11179
0.0021158,0.0061084,-0.028907,0.046232,-0.21767,-0.092192,0.18012,-0.5097,-0.047555,-0.068004,0.34884,1.4346,0.64451,-0.01077,0.41695,-0.87854,0.38948,1.6938,2.7269,0.22417,0.016922,-0.035072,-0.48443,-0.063892
0.0042346,0.0103,-0.030575,0.040408,-0.19614,-0.096999,0.18255,-0.5822,-0.099241,-0.047372,0.39296,1.2175,0.52389,-0.05107,0.39352,-0.90818,0.36603,1.5902,2.7315,0.22643,0.016624,-0.029904,-0.50568,-0.041523
0.0026165,0.01459,-0.029439,0.035103,-0.17427,-0.10204,0.18449,-0.6458,-0.12517,-0.025679,0.43515,0.96762,0.38237,-0.082995,0.37651,-0.90697,0.33746,1.4127,2.6745,0.22736,0.014585,-0.025144,-0.50128,-0.086697
-0.0010402,0.017772,-0.022344,0.033853,-0.15447,-0.10576,0.19227,-0.6865,-0.13818,-0.0090956,0.46785,0.72371,0.27402,-0.095257,0.36745,-1.0267,0.31164,1.2291,2.582,0.22663,0.0073951,-0.022716,-0.47008,-0.19537
-0.0040555,0.01893,-0.0083382,0.038198,-0.13449,-0.1058,0.2072,-0.68878,-0.15154,0.0020157,0.48789,0.51765,0.21535,-0.084648,0.36196,-1.3563,0.29207,1.0957,2.4872,0.22648,-0.0044115,-0.022917,-0.41489,-0.31676
-0.0048441,0.017932,0.011513,0.046672,-0.11074,-0.10066,0.22423,-0.6455,-0.16816,0.01375,0.4979,0.36829,0.17387,-0.05627,0.35268,-1.855,0.27635,1.0288,2.401,0.22886,-0.016934,-0.024576,-0.34468,-0.38697
-0.0039548,0.015493,0.03488,0.055642,-0.082092,-0.091576,0.23535,-0.5647,-0.17951,0.033399,0.5041,0.2766,0.098276,-0.018744,0.33453,-2.3729,0.25863,1.0032,2.2935,0.23121,-0.025874,-0.025697,-0.27346,-0.37245
-0.0033778,0.012867,0.058751,0.061331,-0.051247,-0.082668,0.23491,-0.46717,-0.17372,0.063016,0.51204,0.22486,-0.033941,0.021976,0.3084,-2.7411,0.23372,0.97875,2.1067,0.22564,-0.029338,-0.023966,-0.21513,-0.29151
-0.0047568,0.01139,0.07987,0.061776,-0.022933,-0.078285,0.22296,-0.37518,-0.14509,0.097609,0.52283,0.18451,-0.19171,0.065806,0.28015,-2.8656,0.20001,0.93247,1.7938,0.20358,-0.028525,-0.017256,-0.17743,-0.19967
-0.0079573,0.012003,0.095472,0.05767,-0.00076103,-0.079636,0.2047,-0.30054,-0.097013,0.12935,0.53208,0.13151,-0.31029,0.11682,0.25564,-2.765,0.15964,0.8707,1.3544,0.16273,-0.026331,-0.0046095,-0.15926,-0.15171
-0.011151,0.014777,0.10439,0.051725,0.014601,-0.083567,0.18705,-0.24113,-0.037735,0.15359,0.5325,0.060359,-0.33955,0.17823,0.236,-2.5366,0.11656,0.81434,0.83906,0.11041,-0.025368,0.012524,-0.15311,-0.16879
-0.012355,0.018592,0.10781,0.046962,0.02442,-0.08477,0.17484,-0.18822,0.025479,0.17113,0.518,-0.013938,-0.28042,0.24755,0.21694,-2.2842,0.074369,0.7734,0.31935,0.059845,-0.026866,0.02994,-0.15024,-0.23229
-0.011146,0.021389,0.10883,0.044946,0.029153,-0.07955,0.16934,-0.13775,0.088137,0.1851,0.4868,-0.068403,-0.18034,0.31499,0.19289,-2.0577,0.035312,0.73552,-0.15293,0.022277,-0.030792,0.042114,-0.14505,-0.30322
-0.0090472,0.021262,0.11075,0.045009,0.026967,-0.067894,0.16902,-0.095557,0.14574,0.19624,0.44123,-0.09023,-0.094617,0.36596,0.16191,-1.8375,0.00061641,0.67843,-0.56867,0.00094442,-0.036573,0.044869,-0.13591,-0.34872
-0.0082136,0.017917,0.11508,0.044952,0.015881,-0.052277,0.17153,-0.071956,0.19077,0.20149,0.38496,-0.087727,-0.048513,0.3865,0.12702,-1.5641,-0.02875,0.59366,-0.95409,-0.00853,-0.043683,0.03739,-0.12345,-0.35559
-0.0095331,0.013389,0.1208,0.04271,-0.0012763,-0.034769,0.1748,-0.070932,0.2138,0.19721,0.32014,-0.08739,-0.030448,0.36923,0.092444,-1.1885,-0.051786,0.4985,-1.344,-0.01278,-0.051894,0.022063,-0.10872,-0.32597
-0.011876,0.011085,0.12544,0.037814,-0.013174,-0.015452,0.17722,-0.084214,0.20852,0.18346,0.24712,-0.12075,-0.016381,0.31728,0.058266,-0.71387,-0.067864,0.42472,-1.7565,-0.01556,-0.061372,0.0024501,-0.092741,-0.26479
-0.013236,0.013509,0.12711,0.031625,-0.0019321,0.0065228,0.17727,-0.096303,0.17699,0.16486,0.16702,-0.2101,0.0016932,0.24367,0.018806,-0.20763,-0.077293,0.39414,-2.1839,-0.0169,-0.072635,-0.018691,-0.076986,-0.17256
-0.012743,0.020279,0.12608,0.026267,0.048647,0.030786,0.17383,-0.096569,0.1308,0.14704,0.084687,-0.36053,0.0096174,0.16591,-0.03306,0.21936,-0.081379,0.40268,-2.6005,-0.016112,-0.086138,-0.0397,-0.063413,-0.048866
-0.01159,0.028095,0.12447,0.023184,0.14319,0.055097,0.16688,-0.087845,0.087482,0.13235,0.0093741,-0.56009,-0.010849,0.098163,-0.098627,0.45646,-0.081774,0.42572,-2.978,-0.014877,-0.10142,-0.058898,-0.053361,0.098917
-0.011868,0.032854,0.12444,0.022374,0.27015,0.07697,0.15797,-0.083701,0.06462,0.11884,-0.048506,-0.78643,-0.061058,0.045771,-0.16932,0.4399,-0.07955,0.43808,-3.2987,-0.017484,-0.11633,-0.073773,-0.04635,0.25046
-0.014267,0.032332,0.12638,0.022662,0.40616,0.095704,0.14942,-0.096577,0.074776,0.10307,-0.082654,-1.0163,-0.12289,0.0058485,-0.23011,0.1814,-0.074776,0.42948,-3.5605,-0.0286,-0.12731,-0.081768,-0.04012,0.37541
-0.016902,0.027409,0.12842,0.022516,0.52661,0.11241,0.14304,-0.12716,0.12256,0.083288,-0.094956,-1.2338,-0.17526,-0.026507,-0.26893,-0.23538,-0.067166,0.4026,-3.7718,-0.051185,-0.13078,-0.082001,-0.032096,0.44326
-0.016626,0.021072,0.12788,0.020693,0.61502,0.12782,0.13921,-0.16438,0.20314,0.059253,-0.095479,-1.4333,-0.21135,-0.051358,-0.28552,-0.68988,-0.05762,0.35815,-3.9403,-0.086297,-0.12501,-0.076044,-0.021047,0.43644
-0.011859,0.016241,0.12327,0.016535,0.66539,0.14031,0.13736,-0.19586,0.30164,0.029102,-0.097886,-1.6142,-0.23941,-0.06206,-0.29291,-1.074,-0.049611,0.28359,-4.0637,-0.1341,-0.11079,-0.066623,-0.0075603,0.3625
-0.0043628,0.014246,0.11531,0.010171,0.67768,0.14648,0.1371,-0.21908,0.39448,-0.01257,-0.11237,-1.7727,-0.2679,-0.049874,-0.30977,-1.3296,-0.048956,0.15859,-4.1304,-0.19419,-0.090425,-0.055286,0.0067727,0.25944
0.0018598,0.014902,0.10613,0.0027309,0.65199,0.14424,0.13889,-0.24305,0.45447,-0.071854,-0.13982,-1.8967,-0.29178,-0.011003,-0.34833,-1.4549,-0.061261,-0.026148,-4.1299,-0.26449,-0.06603,-0.04128,0.020342,0.18712
0.0037386,0.017584,0.097484,-0.003783,0.58708,0.13552,0.14339,-0.27882,0.45993,-0.14906,-0.17063,-1.9703,-0.29465,0.049823,-0.40611,-1.4818,-0.088065,-0.25299,-4.0684,-0.34001,-0.038784,-0.022857,0.03165,0.20205
0.0015856,0.021943,0.089578,-0.0073915,0.48388,0.12586,0.15029,-0.32779,0.4043,-0.23425,-0.18948,-1.9878,-0.26499,0.12173,-0.46689,-1.4453,-0.12434,-0.47968,-3.9702,-0.41278,-0.0098831,0.00010313,0.03895,0.32475
-0.0013691,0.027559,0.081473,-0.0075074,0.34952,0.12109,0.15785,-0.37855,0.30071,-0.30976,-0.18425,-1.9629,-0.21053,0.19335,-0.50989,-1.3708,-0.15981,-0.66035,-3.8619,-0.47348,0.017983,0.024685,0.040715,0.52021
-0.0018534,0.033091,0.072481,-0.0056908,0.1971,0.12366,0.16383,-0.41571,0.17807,-0.35891,-0.15418,-1.926,-0.15669,0.2569,-0.52026,-1.2831,-0.18422,-0.77001,-3.7442,-0.51306,0.04057,0.046191,0.037504,0.70898
0.00083968,0.036191,0.063085,-0.0048561,0.040644,0.13183,0.16704,-0.43284,0.070531,-0.37463,-0.11226,-1.9053,-0.12997,0.30834,-0.49398,-1.2208,-0.19305,-0.8146,-3.5763,-0.52357,0.054121,0.061022,0.033857,0.8075
0.004755,0.034739,0.054515,-0.0072178,-0.1107,0.14162,0.16779,-0.43848,0.0066878,-0.36106,-0.079562,-1.9049,-0.14033,0.34551,-0.43523,-1.2311,-0.18964,-0.81951,-3.2914,-0.4987,0.057996,0.068613,0.037791,0.77354
0.0074116,0.028658,0.047594,-0.012501,-0.25401,0.14978,0.16674,-0.45022,0.0037706,-0.32735,-0.07426,-1.8958,-0.17647,0.36702,-0.35039,-1.3395,-0.18155,-0.80695,-2.8392,-0.43561,0.055493,0.070799,0.056857,0.62614
0.007878,0.020698,0.042157,-0.017935,-0.38845,0.15511,0.16289,-0.4822,0.067314,-0.2792,-0.102,-1.8306,-0.21629,0.37292,-0.2446,-1.5205,-0.17405,-0.78,-2.2282,-0.33826,0.051856,0.069507,0.092761,0.42781
0.0069324,0.015164,0.037622,-0.020148,-0.50916,0.15808,0.15287,-0.53649,0.1922,-0.21594,-0.15354,-1.6722,-0.24216,0.36507,-0.12332,-1.6993,-0.16605,-0.7249,-1.5334,-0.21972,0.05094,0.065227,0.13853,0.24433
0.0056623,0.015159,0.033923,-0.017513,-0.60471,0.15968,0.13232,-0.6043,0.36202,-0.13553,-0.21093,-1.4205,-0.24913,0.34551,0.0042727,-1.7928,-0.15207,-0.62788,-0.86109,-0.10038,0.053186,0.057806,0.181,0.1126
0.0043879,0.020344,0.031599,-0.01117,-0.66089,0.16089,0.098939,-0.67428,0.54858,-0.04285,-0.25772,-1.116,-0.24162,0.31424,0.1254,-1.7619,-0.12844,-0.49137,-0.292,-0.00098623,0.056352,0.048568,0.20758,0.035648
0.0030682,0.027061,0.030804,-0.0040745,-0.66866,0.16263,0.05465,-0.73996,0.71663,0.046635,-0.28638,-0.81976,-0.22389,0.2697,0.22923,-1.6331,-0.098361,-0.33644,0.15486,0.065854,0.057948,0.041199,0.21302,-0.00047531
0.0023655,0.030931,0.030369,0.0010323,-0.63059,0.16561,0.005278,-0.8011,0.83543,0.11191,-0.29899,-0.58258,-0.19324,0.21299,0.31393,-1.4734,-0.070994,-0.19061,0.51422,0.10021,0.057037,0.039866,0.20183,-0.0091735
0.0036461,0.029999,0.028193,0.0031921,-0.56094,0.16977,-0.042243,-0.85988,0.89133,0.13674,-0.30272,-0.42402,-0.14124,0.15278,0.38849,-1.3429,-0.05504,-0.071838,0.83297,0.11231,0.053978,0.045808,0.18516,0.00010411
0.0074738,0.025915,0.022907,0.0033937,-0.47881,0.17403,-0.083216,-0.9172,0.89211,0.11751,-0.30466,-0.33291,-0.061297,0.10509,0.46597,-1.2634,-0.052149,0.018576,1.131,0.11502,0.048889,0.055498,0.17487,0.015523
0.012166,0.022217,0.015341,0.003514,-0.39876,0.17664,-0.11689,-0.97215,0.85791,0.063306,-0.30984,-0.28408,0.042966,0.085834,0.55181,-1.2258,-0.055616,0.090307,1.3945,0.117,0.040829,0.062465,0.1785,0.021863
0.014369,0.021192,0.0082221,0.0049464,-0.32572,0.17581,-0.14569,-1.0236,0.80503,-0.010613,-0.32199,-0.25521,0.15453,0.10021,0.63601,-1.2176,-0.055384,0.15184,1.6003,0.1209,0.028787,0.061761,0.19723,0.01163
0.01168,0.022004,0.0041031,0.0078044,-0.25794,0.16953,-0.17303,-1.0709,0.73478,-0.089521,-0.34383,-0.23141,0.24766,0.13735,0.69591,-1.237,-0.045212,0.20228,1.7437,0.12605,0.013473,0.053633,0.22674,-0.0023566
0.0050579,0.021672,0.0032264,0.011076,-0.19604,0.15492,-0.20129,-1.1133,0.63642,-0.16134,-0.37517,-0.19903,0.29894,0.17546,0.70861,-1.2808,-0.026387,0.23252,1.8424,0.1321,-0.0021293,0.043344,0.25924,0.0099314
-0.0014584,0.017946,0.0032794,0.01352,-0.15014,0.1283,-0.23116,-1.1494,0.50119,-0.21493,-0.41024,-0.14056,0.29959,0.19496,0.66468,-1.3252,-0.005556,0.23327,1.9158,0.13976,-0.01445,0.037197,0.28627,0.072979
-0.0037805,0.011531,0.0014124,0.014703,-0.13822,0.087238,-0.26202,-1.1795,0.33551,-0.23965,-0.43772,-0.040322,0.26198,0.1906,0.57312,-1.3259,0.010967,0.20304,1.9632,0.14929,-0.02198,0.037831,0.3017,0.18019
-0.00098809,0.0056863,-0.0031445,0.015452,-0.17466,0.033822,-0.29246,-1.2076,0.16284,-0.22941,-0.44544,0.1013,0.21529,0.17395,0.45392,-1.2464,0.021627,0.15065,1.9642,0.15906,-0.02642,0.042392,0.30484,0.28941
0.0041418,0.0036128,-0.0081699,0.017308,-0.25715,-0.023818,-0.32055,-1.2422,0.014207,-0.18861,-0.42678,0.25771,0.19115,0.16466,0.3237,-1.086,0.029652,0.092161,1.903,0.16654,-0.031085,0.044816,0.30161,0.34771
0.007694,0.005882,-0.010144,0.021214,-0.36238,-0.074086,-0.34395,-1.2906,-0.084055,-0.13343,-0.38421,0.38055,0.20691,0.17701,0.1851,-0.88127,0.039317,0.045039,1.7915,0.1707,-0.037809,0.0403,0.30224,0.32759
0.0078448,0.010079,-0.0071983,0.026383,-0.45582,-0.10798,-0.36056,-1.3519,-0.11688,-0.084444,-0.32671,0.41747,0.25695,0.21078,0.027846,-0.67414,0.051929,0.023128,1.6686,0.17311,-0.045179,0.028671,0.31572,0.24524
0.0058725,0.012842,-0.00084961,0.030383,-0.50982,-0.12446,-0.36954,-1.413,-0.081516,-0.054399,-0.26333,0.33235,0.31822,0.25175,-0.15876,-0.47771,0.064753,0.033542,1.5746,0.17646,-0.04978,0.014468,0.34403,0.14505
0.0043106,0.012484,0.0049174,0.030681,-0.51762,-0.13073,-0.3721,-1.4512,0.011084,-0.040444,-0.19809,0.11661,0.36616,0.28019,-0.37127,-0.27025,0.073415,0.075333,1.5243,0.18191,-0.049372,0.0040695,0.38021,0.062836
0.0042906,0.010015,0.0064555,0.026669,-0.49375,-0.1368,-0.37129,-1.4436,0.13222,-0.027681,-0.13001,-0.20972,0.38989,0.28077,-0.58604,-0.023678,0.075537,0.1396,1.5012,0.18803,-0.045045,0.0019644,0.41213,-0.0014749
0.0046632,0.0078741,0.0028874,0.020501,-0.46153,-0.1483,-0.37097,-1.3765,0.23491,-0.0021143,-0.057462,-0.60201,0.39581,0.2482,-0.7671,0.26101,0.072457,0.21126,1.4775,0.19216,-0.040227,0.008466,0.42982,-0.079212
0.0035272,0.0076554,-0.0036058,0.015846,-0.43752,-0.16331,-0.37465,-1.2512,0.26627,0.037132,0.018046,-0.99582,0.39817,0.18664,-0.88325,0.54458,0.067635,0.27246,1.4396,0.19264,-0.037443,0.019952,0.43113,-0.20156
0.00040844,0.0088016,-0.0095548,0.015323,-0.42389,-0.17552,-0.38479,-1.0849,0.19247,0.076413,0.092141,-1.3158,0.40498,0.10508,-0.92355,0.77461,0.063026,0.30684,1.3945,0.18936,-0.035891,0.03123,0.4219,-0.3695
-0.0031493,0.0093035,-0.012418,0.018652,-0.41205,-0.18059,-0.40238,-0.90813,0.022028,0.098445,0.1613,-1.4944,0.41068,0.012648,-0.9014,0.92193,0.056568,0.30301,1.3555,0.18214,-0.032271,0.038566,0.41043,-0.55155
-0.0050867,0.0076483,-0.011638,0.023101,-0.39232,-0.18028,-0.42634,-0.75788,-0.19207,0.096646,0.2257,-1.4991,0.40057,-0.08351,-0.84532,0.99726,0.043173,0.25676,1.3228,0.16899,-0.024262,0.04159,0.40065,-0.71098
-0.0048251,0.0042569,-0.0081912,0.025878,-0.3616,-0.18091,-0.45285,-0.66695,-0.37778,0.080999,0.28792,-1.3521,0.36192,-0.17791,-0.78338,1.0372,0.018907,0.17238,1.2806,0.1469,-0.013454,0.042948,0.38924,-0.8375
-0.0037441,0.0011745,-0.0034831,0.026355,-0.3245,-0.18798,-0.47575,-0.65032,-0.48214,0.070449,0.34877,-1.1258,0.29203,-0.26566,-0.73173,1.0758,-0.014758,0.063549,1.2134,0.11511,-0.0049723,0.045902,0.36875,-0.95401
-0.0036933,0.00031163,0.0014109,0.026137,-0.28969,-0.20179,-0.48871,-0.69598,-0.49589,0.078076,0.40449,-0.90642,0.198,-0.34253,-0.69342,1.1273,-0.050225,-0.047632,1.1231,0.078137,-0.0039746,0.051564,0.33428,-1.0909
-0.005014,0.0017676,0.0058771,0.027027,-0.26521,-0.21742,-0.48858,-0.76834,-0.44825,0.10134,0.44876,-0.74396,0.091017,-0.40608,-0.66543,1.1874,-0.077748,-0.13565,1.0283,0.045165,-0.011975,0.057904,0.28854,-1.25
-0.0060026,0.0036875,0.0096673,0.028928,-0.2554,-0.22846,-0.47731,-0.82581,-0.37953,0.12517,0.47793,-0.62027,-0.016957,-0.45608,-0.64617,1.2444,-0.091484,-0.18097,0.9453,0.025259,-0.025969,0.061469,0.24148,-1.3908
-0.004385,0.0038079,0.012946,0.02981,-0.25925,-0.23092,-0.46047,-0.84325,-0.31619,0.13479,0.49463,-0.45975,-0.10991,-0.49268,-0.6368,1.2821,-0.093072,-0.1795,0.86945,0.021785,-0.040732,0.060578,0.20468,-1.4546
0.00046994,0.0014197,0.016343,0.027807,-0.27003,-0.22455,-0.44274,-0.82416,-0.2672,0.12701,0.50614,-0.18122,-0.16214,-0.51289,-0.63656,1.2734,-0.089741,-0.14515,0.77879,0.030378,-0.052015,0.057346,0.18432,-1.408
0.00654,-0.001896,0.020588,0.023329,-0.2773,-0.21171,-0.42379,-0.79389,-0.23859,0.111,0.51868,0.24032,-0.13921,-0.50865,-0.638,1.1818,-0.08824,-0.10192,0.6582,0.042183,-0.058059,0.056627,0.17738,-1.2705
0.010263,-0.0033909,0.025695,0.018959,-0.272,-0.19593,-0.39825,-0.77946,-0.24503,0.098811,0.53256,0.74322,-0.011285,-0.46968,-0.62833,0.98348,-0.089357,-0.069382,0.52193,0.049833,-0.05886,0.062415,0.17323,-1.1019
0.0089484,-0.0012311,0.030297,0.017036,-0.25251,-0.18143,-0.36053,-0.79157,-0.3022,0.094995,0.54261,1.2024,0.22628,-0.39048,-0.5971,0.70341,-0.087499,-0.051799,0.41032,0.051491,-0.054733,0.074431,0.15981,-0.95838
0.0026841,0.0041232,0.031958,0.017221,-0.22685,-0.17259,-0.31063,-0.82145,-0.4057,0.094068,0.54297,1.4941,0.53818,-0.27648,-0.54412,0.43475,-0.075763,-0.038941,0.35965,0.050177,-0.045965,0.087614,0.13119,-0.85502
-0.0056201,0.010261,0.028633,0.01654,-0.20784,-0.17206,-0.25613,-0.85163,-0.52066,0.087117,0.53196,1.563,0.85368,-0.14361,-0.48046,0.31296,-0.052362,-0.017584,0.36966,0.049692,-0.033724,0.094965,0.092426,-0.76188
-0.011962,0.014481,0.020443,0.012155,-0.20357,-0.17785,-0.20776,-0.86882,-0.59935,0.070441,0.51259,1.451,1.0928,-0.010565,-0.42104,0.44488,-0.023126,0.015739,0.39773,0.051043,-0.020811,0.091635,0.059004,-0.63568
-0.013498,0.015422,0.010353,0.0044018,-0.21051,-0.18222,-0.17199,-0.8678,-0.61783,0.04838,0.48885,1.2737,1.2017,0.1104,-0.37438,0.83187,0.0018749,0.050701,0.38666,0.052217,-0.010898,0.077446,0.050545,-0.45639
-0.0098979,0.013582,0.0029461,-0.0028337,-0.21547,-0.17483,-0.14645,-0.84597,-0.60026,0.028693,0.46155,1.161,1.1773,0.21639,-0.3379,1.342,0.014599,0.069957,0.30435,0.050729,-0.0064805,0.056529,0.081885,-0.23752
-0.0031722,0.010718,0.0017865,-0.0051059,-0.20545,-0.14888,-0.12219,-0.79774,-0.60598,0.015795,0.42746,1.1997,1.0632,0.30785,-0.30234,1.7619,0.013015,0.060037,0.16402,0.045939,-0.0071426,0.035037,0.15661,-0.0050239
0.003684,0.0088203,0.0070479,-0.0013513,-0.17744,-0.10601,-0.090987,-0.71737,-0.68515,0.0082645,0.38196,1.4037,0.9204,0.37993,-0.26163,1.908,1.5403e-005,0.017496,0.011016,0.03886,-0.0096232,0.018799,0.26694,0.23081
0.0083121,0.0092963,0.015101,0.0046825,-0.14015,-0.055649,-0.051679,-0.60844,-0.83809,0.0020948,0.3226,1.7206,0.78897,0.42033,-0.21965,1.7291,-0.020879,-0.053048,-0.11063,0.030105,-0.0097411,0.011975,0.3994,0.48091
0.010009,0.012431,0.020545,0.0070136,-0.1065,-0.00886,-0.010544,-0.48993,-1.0124,-0.0044422,0.25051,2.0614,0.66875,0.41754,-0.18802,1.3324,-0.048595,-0.14531,-0.18455,0.01858,-0.0048445,0.016295,0.54137,0.75462
0.0096995,0.017074,0.019488,0.002107,-0.083618,0.028408,0.024223,-0.39007,-1.1394,-0.0091183,0.16944,2.3358,0.53206,0.37279,-0.17638,0.90948,-0.083741,-0.25597,-0.22412,0.0026487,0.0047292,0.030182,0.68332,1.0323
0.0089851,0.020833,0.01192,-0.0081158,-0.069027,0.057329,0.048902,-0.32995,-1.1775,-0.0078654,0.084204,2.483,0.35876,0.30457,-0.18252,0.60809,-0.12544,-0.3846,-0.25411,-0.017271,0.015819,0.048062,0.81641,1.2636
0.0089247,0.021166,0.0015521,-0.017449,-0.055438,0.082077,0.066262,-0.30896,-1.123,0.0028964,8.486e-005,2.4906,0.16525,0.24018,-0.19054,0.44013,-0.16952,-0.53027,-0.28969,-0.037518,0.023853,0.061235,0.93006,1.3979
0.0093719,0.017111,-0.006812,-0.019913,-0.039079,0.10364,0.082176,-0.30428,-0.98241,0.026857,-0.077225,2.3991,0.0025113,0.20015,-0.17884,0.29144,-0.21015,-0.68815,-0.32676,-0.053021,0.02471,0.061137,1.0145,1.4218
0.0093554,0.010421,-0.010524,-0.01411,-0.023716,0.11729,0.10049,-0.28581,-0.73492,0.070013,-0.14259,2.2835,-0.077291,0.1877,-0.13287,0.028055,-0.24317,-0.84825,-0.34542,-0.060846,0.016381,0.043817,1.0678,1.3696
0.0081793,0.0048514,-0.010641,-0.0041356,-0.017171,0.11607,0.12076,-0.23585,-0.32853,0.13982,-0.19393,2.2152,-0.059889,0.19109,-0.054226,-0.38134,-0.26762,-0.99633,-0.32008,-0.062235,-6.8418e-005,0.012691,1.1014,1.2971
0.0062577,0.0036651,-0.010675,0.0034972,-0.02408,0.097166,0.14007,-0.15905,0.27829,0.23895,-0.23478,2.2213,0.018269,0.19513,0.03939,-0.8221,-0.2838,-1.1162,-0.23087,-0.061153,-0.020647,-0.02286,1.1365,1.2417
0.0048323,0.0071365,-0.013538,0.0044597,-0.041569,0.065468,0.15638,-0.076069,1.0592,0.35766,-0.27443,2.2664,0.094545,0.19166,0.12274,-1.1062,-0.29004,-1.1929,-0.074537,-0.060488,-0.0399,-0.052701,1.1926,1.2042
0.0046963,0.012201,-0.01908,-0.00063214,-0.061191,0.031281,0.16968,-0.007173,1.8965,0.47296,-0.32437,2.2727,0.12251,0.18132,0.1745,-1.1084,-0.28184,-1.2148,0.12718,-0.059329,-0.053251,-0.071628,1.2742,1.1662
0.0050789,0.014749,-0.024101,-0.0070197,-0.074717,0.0040987,0.18011,0.040896,2.6165,0.55865,-0.39214,2.168,0.098695,0.16849,0.18557,-0.86245,-0.25514,-1.1762,0.32734,-0.053802,-0.059017,-0.081579,1.3666,1.1221
0.0039237,0.012769,-0.024759,-0.0092117,-0.078507,-0.012327,0.18584,0.07503,3.0663,0.60127,-0.47574,1.9297,0.054796,0.1566,0.16089,-0.54496,-0.21094,-1.0776,0.46631,-0.040905,-0.058753,-0.088853,1.4416,1.091
-0.00034506,0.0077031,-0.019395,-0.0044454,-0.073443,-0.019903,0.18358,0.10402,3.1805,0.60926,-0.56177,1.5942,0.026297,0.14817,0.11521,-0.35702,-0.15712,-0.92731,0.49338,-0.02222,-0.055525,-0.098436,1.4703,1.096
-0.0069546,0.0029372,-0.0095918,0.0059524,-0.061815,-0.022,0.17192,0.12531,2.9988,0.60651,-0.62911,1.2283,0.02618,0.14685,0.06556,-0.39079,-0.10521,-0.74154,0.38543,-0.0046175,-0.051248,-0.10964,1.4343,1.1319
-0.012624,0.00089852,0.0011752,0.017738,-0.044853,-0.019526,0.15424,0.12144,2.6301,0.61366,-0.65701,0.8875,0.043457,0.15601,0.02361,-0.57398,-0.064307,-0.54345,0.15154,0.0024506,-0.045107,-0.11621,1.3302,1.1561
-0.013693,0.0013807,0.0099559,0.026312,-0.02302,-0.010919,0.13778,0.070299,2.1938,0.63164,-0.63448,0.59304,0.060601,0.17285,-0.0088241,-0.72437,-0.036724,-0.35784,-0.17638,-0.0088905,-0.034423,-0.11068,1.1667,1.1169
-0.0090958,0.0024417,0.015808,0.029045,0.0020714,0.0043464,0.1291,-0.036669,1.7741,0.64144,-0.56639,0.3407,0.067615,0.1842,-0.039044,-0.66783,-0.018199,-0.20312,-0.55643,-0.041692,-0.017378,-0.089991,0.9585,0.99634
-0.0016913,0.002732,0.019387,0.026261,0.026862,0.022714,0.12949,-0.18003,1.4067,0.62091,-0.47274,0.12552,0.058355,0.17049,-0.077624,-0.33568,-0.0018502,-0.08559,-0.94277,-0.092878,0.0045799,-0.058227,0.71759,0.82919
0.0034648,0.0028515,0.021445,0.02066,0.047444,0.0375,0.13444,-0.31218,1.0912,0.56455,-0.38073,-0.045182,0.01729,0.11735,-0.13055,0.21675,0.017648,-0.0010794,-1.2847,-0.15354,0.026733,-0.024598,0.44876,0.67797
0.0028304,0.0044571,0.021825,0.015635,0.062181,0.04346,0.13768,-0.37443,0.81307,0.48945,-0.31319,-0.16431,-0.082421,0.025969,-0.19417,0.86637,0.042385,0.056429,-1.5281,-0.21033,0.04366,0.0018997,0.15085,0.58494
-0.0028329,0.0081568,0.019874,0.013412,0.072798,0.040904,0.13643,-0.32396,0.55812,0.42225,-0.28001,-0.2505,-0.25972,-0.086951,-0.25643,1.5004,0.071919,0.086924,-1.6247,-0.24789,0.05243,0.017496,-0.17425,0.54162
-0.0089463,0.012426,0.015652,0.013995,0.08274,0.035433,0.13329,-0.15664,0.318,0.3784,-0.27705,-0.35939,-0.49971,-0.20047,-0.30345,2.0598,0.1045,0.085853,-1.5468,-0.25262,0.053987,0.024867,-0.51011,0.50097
-0.010615,0.014712,0.010596,0.015605,0.094147,0.033377,0.13346,0.088024,0.089139,0.35137,-0.29245,-0.56313,-0.74734,-0.30255,-0.32693,2.5282,0.13749,0.055285,-1.2957,-0.21712,0.051826,0.029974,-0.82196,0.4193
-0.0063754,0.013685,0.0068848,0.01638,0.10606,0.036924,0.1399,0.34436,-0.12804,0.32024,-0.31489,-0.90604,-0.93307,-0.39408,-0.32731,2.8945,0.16753,0.014008,-0.89923,-0.14378,0.04925,0.037189,-1.0677,0.28962
0.00080765,0.010432,0.0061044,0.016133,0.11546,0.043198,0.15068,0.55148,-0.32723,0.26785,-0.33789,-1.3656,-1.0138,-0.48081,-0.3112,3.1325,0.19145,-0.006573,-0.40268,-0.045505,0.047464,0.046518,-1.2195,0.13837
0.0060085,0.0074312,0.0084727,0.016691,0.12021,0.047724,0.16069,0.68021,-0.49421,0.19372,-0.35818,-1.8469,-0.99637,-0.56149,-0.28609,3.2186,0.20766,0.017203,0.13923,0.057243,0.045742,0.054789,-1.2805,-0.0085843
0.0061701,0.0063219,0.013283,0.020331,0.12142,0.048693,0.16598,0.74054,-0.60957,0.11204,-0.37152,-2.2187,-0.92371,-0.62384,-0.25678,3.1698,0.21657,0.078869,0.66712,0.14274,0.042913,0.059167,-1.2812,-0.15796
0.0022096,0.0066153,0.019897,0.027442,0.12299,0.047914,0.16685,0.76654,-0.65801,0.038943,-0.37133,-2.371,-0.83517,-0.65263,-0.22593,3.0568,0.21884,0.13764,1.1243,0.19532,0.038416,0.059469,-1.2553,-0.3507
-0.0021018,0.0065632,0.028061,0.035421,0.1287,0.047885,0.16719,0.79049,-0.63995,-0.018212,-0.35175,-2.2648,-0.73484,-0.64303,-0.19721,2.9674,0.21295,0.14062,1.4714,0.21065,0.031949,0.057137,-1.2123,-0.63248
-0.0033078,0.0052436,0.03713,0.040001,0.1389,0.048273,0.17082,0.82418,-0.57652,-0.061216,-0.31222,-1.9461,-0.5946,-0.60713,-0.17745,2.9425,0.19494,0.057978,1.7019,0.1966,0.022433,0.052183,-1.1305,-1.0173
-0.00082535,0.003734,0.045193,0.038217,0.1497,0.045659,0.17817,0.85829,-0.50179,-0.093778,-0.25898,-1.5232,-0.38775,-0.56725,-0.175,2.9371,0.16202,-0.094531,1.8479,0.16889,0.0079524,0.041588,-0.97865,-1.4704
0.0029777,0.004129,0.049547,0.030709,0.15523,0.036963,0.18603,0.87683,-0.44527,-0.11583,-0.20165,-1.1225,-0.12333,-0.54108,-0.19495,2.8471,0.11758,-0.2626,1.9645,0.14383,-0.012644,0.021344,-0.74911,-1.9175
0.0048817,0.0072858,0.04866,0.02147,0.1514,0.023185,0.19022,0.87262,-0.41623,-0.12473,-0.14802,-0.84511,0.14933,-0.53034,-0.23446,2.5875,0.073217,-0.38396,2.1005,0.13179,-0.037637,-0.0093675,-0.47656,-2.27
0.0031642,0.011486,0.044033,0.015149,0.13836,0.0095531,0.18848,0.85179,-0.40166,-0.12012,-0.10115,-0.74377,0.36997,-0.52147,-0.28163,2.1612,0.04416,-0.41896,2.2724,0.13458,-0.062017,-0.045818,-0.22491,-2.4504
-0.0015742,0.01343,0.039853,0.01393,0.11984,0.0015926,0.18115,0.82521,-0.37984,-0.10533,-0.060701,-0.81993,0.50616,-0.49642,-0.31946,1.6625,0.040572,-0.3609,2.4572,0.1475,-0.079803,-0.079818,-0.051683,-2.4126
-0.007331,0.010832,0.04008,0.016312,0.099867,0.00057662,0.16974,0.79658,-0.33982,-0.083436,-0.026183,-1.0361,0.56974,-0.44454,-0.33309,1.2128,0.06095,-0.22481,2.6091,0.16386,-0.087731,-0.10479,0.023651,-2.1561
-0.012169,0.0044024,0.04507,0.018556,0.079556,0.0025669,0.15543,0.7582,-0.29201,-0.053626,0.0012063,-1.3333,0.59843,-0.36714,-0.31651,0.88314,0.093334,-0.031275,2.6889,0.17884,-0.08737,-0.11942,0.024828,-1.7317
-0.014916,-0.0025068,0.050751,0.017564,0.056207,0.0019847,0.13957,0.69804,-0.2623,-0.014013,0.019522,-1.6483,0.6194,-0.27389,-0.27492,0.66608,0.12391,0.19893,2.688,0.19071,-0.083615,-0.12652,-0.0032385,-1.2312
-0.014886,-0.0062755,0.051473,0.013026,0.025475,-0.0035107,0.1254,0.61161,-0.2742,0.030242,0.028131,-1.928,0.62586,-0.17646,-0.22118,0.51173,0.14643,0.43862,2.6332,0.19958,-0.080456,-0.12823,-0.024612,-0.75632
-0.011513,-0.0054325,0.044547,0.0073704,-0.015054,-0.011243,0.11848,0.50854,-0.33219,0.062741,0.028592,-2.1391,0.58619,-0.085175,-0.16816,0.38561,0.16493,0.65006,2.5725,0.20547,-0.077419,-0.12222,-0.028844,-0.37912
-0.0047733,-0.001255,0.032787,0.003724,-0.063432,-0.016351,0.12401,0.40883,-0.41786,0.063296,0.023813,-2.269,0.4778,-0.0091433,-0.1213,0.29181,0.18806,0.79454,2.5497,0.20763,-0.069801,-0.10281,-0.026224,-0.11658
0.0038352,0.0036325,0.022778,0.0035075,-0.1137,-0.016471,0.14265,0.33238,-0.50049,0.023638,0.016882,-2.3185,0.31644,0.043313,-0.075983,0.2446,0.2202,0.85157,2.5823,0.20555,-0.052718,-0.066471,-0.031116,0.062455
0.011013,0.0072209,0.020081,0.0054667,-0.15873,-0.013838,0.16856,0.28996,-0.55398,-0.042016,0.010817,-2.2908,0.15555,0.066879,-0.021442,0.22458,0.25704,0.83076,2.6556,0.20053,-0.025744,-0.017037,-0.048671,0.20174
0.013046,0.0090222,0.025087,0.0067858,-0.19367,-0.012828,0.19208,0.28136,-0.56912,-0.10298,0.0086202,-2.1859,0.053909,0.06307,0.051101,0.16918,0.28866,0.76309,2.7335,0.19583,0.0057134,0.034271,-0.073077,0.31968
0.0083096,0.0095338,0.032763,0.0053256,-0.21795,-0.0153,0.20561,0.29968,-0.55491,-0.13231,0.012012,-2.0058,0.035757,0.042046,0.14117,0.010956,0.30634,0.67674,2.7774,0.19445,0.033389,0.074578,-0.094356,0.39764
-0.0010311,0.0092239,0.036399,0.0011705,-0.23501,-0.018257,0.20832,0.3364,-0.53036,-0.1254,0.018477,-1.7653,0.073832,0.019937,0.23741,-0.27115,0.30659,0.57752,2.7619,0.19559,0.050982,0.096533,-0.10548,0.40247
-0.0098801,0.0082185,0.032305,-0.003698,-0.25013,-0.016281,0.20588,0.3828,-0.51341,-0.10163,0.01889,-1.4968,0.10729,0.012696,0.32265,-0.63424,0.28947,0.45117,2.6786,0.19266,0.056954,0.10147,-0.1047,0.32361
-0.013413,0.0068868,0.021894,-0.0071689,-0.26779,-0.006802,0.20533,0.42827,-0.51379,-0.087806,-0.0010254,-1.241,0.080202,0.029833,0.38236,-1.0002,0.25457,0.28497,2.5286,0.17532,0.053527,0.096445,-0.094207,0.19395
-0.010366,0.006415,0.009871,-0.0085768,-0.28965,0.0065561,0.20944,0.45962,-0.53194,-0.097831,-0.054387,-1.0285,-0.027089,0.071002,0.41143,-1.3,0.2001,0.089038,2.3129,0.13535,0.043394,0.087983,-0.078693,0.077712
-0.0038215,0.0083676,0.00040593,-0.0087737,-0.31367,0.01578,0.21488,0.46472,-0.56255,-0.12523,-0.14494,-0.86538,-0.19216,0.12642,0.41552,-1.494,0.12702,-0.10244,2.027,0.07282,0.027324,0.077491,-0.065603,0.035646
0.0012433,0.013279,-0.0055344,-0.008894,-0.33462,0.014172,0.21533,0.43901,-0.59884,-0.15265,-0.26222,-0.73605,-0.36741,0.18057,0.40699,-1.5604,0.044089,-0.25118,1.6645,-0.0019606,0.0044421,0.061553,-0.065158,0.094359
0.0017539,0.019493,-0.009862,-0.0092133,-0.34584,0.0012324,0.20662,0.38977,-0.63488,-0.1677,-0.3837,-0.61947,-0.50328,0.21801,0.39854,-1.4809,-0.032393,-0.33854,1.2237,-0.072767,-0.025591,0.036065,-0.087995,0.24055
-0.0012803,0.023594,-0.014893,-0.0092091,-0.3422,-0.017338,0.18972,0.33357,-0.66583,-0.17059,-0.48298,-0.50576,-0.5649,0.22956,0.39823,-1.2505,-0.086005,-0.3734,0.7109,-0.12563,-0.060766,0.00050335,-0.14072,0.43902
-0.0038769,0.022549,-0.021126,-0.0085218,-0.32293,-0.034328,0.16992,0.28778,-0.6876,-0.16916,-0.53964,-0.39921,-0.54114,0.21649,0.40836,-0.90666,-0.10988,-0.37975,0.13616,-0.15561,-0.096726,-0.040899,-0.22243,0.65604
-0.0024877,0.016112,-0.027027,-0.0075552,-0.29288,-0.046233,0.15333,0.26184,-0.69759,-0.16912,-0.54567,-0.30687,-0.45027,0.19002,0.42804,-0.54323,-0.11083,-0.37728,-0.49427,-0.16784,-0.12825,-0.081438,-0.32514,0.87085
0.0030848,0.0074745,-0.030582,-0.0069672,-0.2608,-0.054636,0.14392,0.25422,-0.69615,-0.17027,-0.50681,-0.22486,-0.34031,0.16562,0.45714,-0.28139,-0.10397,-0.37173,-1.1823,-0.1729,-0.15101,-0.11553,-0.43783,1.073
0.0095698,0.0013287,-0.030963,-0.0066808,-0.23513,-0.06304,0.14258,0.25673,-0.687,-0.17117,-0.43928,-0.13564,-0.27576,0.15479,0.49872,-0.21186,-0.10164,-0.36015,-1.9307,-0.1804,-0.16266,-0.14099,-0.55115,1.2561
0.012907,0.00053947,-0.028952,-0.0056949,-0.21996,-0.072573,0.14791,0.26162,-0.6754,-0.17519,-0.36409,-0.019021,-0.30815,0.15929,0.55777,-0.35189,-0.10519,-0.34183,-2.7243,-0.19541,-0.16342,-0.15889,-0.65912,1.4175
0.011481,0.0039577,-0.026126,-0.0030982,-0.21378,-0.080723,0.15721,0.26589,-0.66458,-0.1899,-0.30014,0.13249,-0.44464,0.17156,0.63701,-0.64948,-0.10572,-0.32264,-3.5101,-0.21914,-0.15604,-0.17177,-0.75721,1.561
0.0072829,0.0072087,-0.023842,0.00074973,-0.21183,-0.08409,0.16729,0.27042,-0.65334,-0.21948,-0.25774,0.30663,-0.63824,0.18056,0.73292,-1.0251,-0.092827,-0.30991,-4.1929,-0.25121,-0.14483,-0.18159,-0.83897,1.6926
0.0040663,0.0060238,-0.022841,0.0042676,-0.20975,-0.082147,0.17536,0.27652,-0.63723,-0.25833,-0.23496,0.47748,-0.81204,0.17863,0.83519,-1.4112,-0.064007,-0.30522,-4.6578,-0.2899,-0.13352,-0.18856,-0.89461,1.8055
0.0040682,-0.00041398,-0.023384,0.0060866,-0.20528,-0.078085,0.18044,0.28418,-0.61277,-0.29306,-0.21965,0.61986,-0.90312,0.16433,0.93055,-1.76,-0.027399,-0.30376,-4.8138,-0.32911,-0.12263,-0.19082,-0.9132,1.8668
0.006036,-0.0087834,-0.025369,0.006457,-0.19632,-0.075737,0.18436,0.29335,-0.58134,-0.31197,-0.19704,0.72218,-0.89469,0.14021,1.0083,-2.0276,0.0037353,-0.30026,-4.6371,-0.35548,-0.10826,-0.18483,-0.88713,1.8242
0.0062869,-0.014208,-0.028158,0.0070687,-0.1778,-0.075585,0.19086,0.306,-0.54887,-0.31314,-0.15896,0.79131,-0.81362,0.1087,1.0639,-2.1671,0.019932,-0.29425,-4.1859,-0.35077,-0.083754,-0.16625,-0.81603,1.6388
0.0019988,-0.014075,-0.030519,0.0092977,-0.14119,-0.073827,0.20286,0.3257,-0.52143,-0.30349,-0.10824,0.84852,-0.70021,0.070366,1.0989,-2.1482,0.020962,-0.28868,-3.5752,-0.30078,-0.043565,-0.13153,-0.70802,1.3261
-0.0060123,-0.010015,-0.031108,0.012613,-0.078899,-0.065627,0.21962,0.35481,-0.50044,-0.28953,-0.055081,0.91955,-0.57893,0.025886,1.1187,-1.9868,0.014323,-0.28375,-2.9254,-0.20637,0.013163,-0.07979,-0.57839,0.96993
-0.013459,-0.0064578,-0.029279,0.014904,0.0091292,-0.049651,0.23637,0.39176,-0.48202,-0.26901,-0.0082155,1.0227,-0.45426,-0.021111,1.1308,-1.7504,0.0089236,-0.27338,-2.3184,-0.08783,0.081983,-0.013935,-0.44694,0.69134
-0.015726,-0.0070067,-0.025481,0.014618,0.11225,-0.029741,0.24751,0.43143,-0.46134,-0.23193,0.03169,1.1591,-0.32869,-0.064101,1.1442,-1.5226,0.0092154,-0.2485,-1.7852,0.022365,0.15563,0.059815,-0.33492,0.58227
-0.011496,-0.011669,-0.020754,0.012692,0.21355,-0.012261,0.25099,0.46809,-0.43778,-0.17094,0.071055,1.3098,-0.21878,-0.097207,1.1672,-1.3525,0.01378,-0.20392,-1.3256,0.095686,0.22732,0.13383,-0.26114,0.64851
-0.0039011,-0.017163,-0.015742,0.012222,0.29979,-0.0015544,0.25048,0.49779,-0.41554,-0.091887,0.11621,1.4428,-0.14961,-0.11891,1.2028,-1.2284,0.018403,-0.1421,-0.93755,0.12223,0.29211,0.20119,-0.2367,0.80211
0.0017384,-0.019846,-0.010178,0.015884,0.36969,0.0025378,0.2532,0.51811,-0.39859,-0.014707,0.16699,1.5288,-0.13284,-0.132,1.2445,-1.1006,0.020395,-0.07075,-0.62669,0.1141,0.34593,0.25687,-0.25988,0.9125
0.0017479,-0.018637,-0.0033817,0.023311,0.43345,0.0033703,0.26495,0.52645,-0.38457,0.03761,0.21724,1.5575,-0.15238,-0.13946,1.2746,-0.93023,0.020726,0.0023327,-0.3945,0.095542,0.38414,0.2975,-0.31486,0.88313
-0.0035146,-0.015487,0.0047511,0.030842,0.50286,0.0042108,0.28624,0.52007,-0.3639,0.05372,0.26164,1.5439,-0.17458,-0.14031,1.2709,-0.72316,0.022871,0.072213,-0.22181,0.087136,0.40198,0.32101,-0.37757,0.70294
-0.01038,-0.013316,0.013308,0.034006,0.57919,0.0062626,0.31245,0.49919,-0.3261,0.040914,0.30188,1.5188,-0.17516,-0.12979,1.2167,-0.52127,0.030025,0.13633,-0.071196,0.095073,0.39723,0.32673,-0.42696,0.44056
-0.014792,-0.013537,0.020972,0.030731,0.64808,0.0094546,0.33758,0.47064,-0.2682,0.019132,0.34581,1.5062,-0.15778,-0.10432,1.1089,-0.36342,0.043141,0.19381,0.089133,0.11171,0.3726,0.31597,-0.4545,0.19077
-0.014978,-0.015348,0.027052,0.022686,0.68566,0.014439,0.35825,0.44743,-0.19766,0.007043,0.39918,1.5028,-0.14781,-0.066906,0.95785,-0.25498,0.060998,0.24713,0.26114,0.12495,0.33537,0.29178,-0.46387,0.014392
-0.01199,-0.017044,0.031866,0.013857,0.67175,0.023098,0.3746,0.44264,-0.12738,0.010903,0.4577,1.4729,-0.16912,-0.027759,0.78042,-0.17344,0.081575,0.30405,0.41685,0.12821,0.2939,0.25755,-0.45953,-0.088098
-0.0082117,-0.017722,0.036093,0.0077838,0.60138,0.036656,0.38799,0.46133,-0.067402,0.02366,0.50701,1.3667,-0.22733,0.0010199,0.5921,-0.10258,0.10317,0.37554,0.52518,0.12407,0.25329,0.21526,-0.43296,-0.15846
-0.0054394,-0.017711,0.03989,0.0057234,0.4878,0.053271,0.39818,0.49646,-0.021106,0.033066,0.5321,1.1518,-0.31288,0.012709,0.40452,-0.061214,0.12453,0.46877,0.58268,0.12036,0.21358,0.16534,-0.3599,-0.24039
-0.0040951,-0.017665,0.042845,0.0068569,0.35659,0.067899,0.40287,0.53255,0.011228,0.031038,0.52875,0.83982,-0.41497,0.0095205,0.22908,-0.098711,0.14443,0.58008,0.62018,0.12317,0.17179,0.10882,-0.21438,-0.35058
-0.0038491,-0.017673,0.044948,0.0097499,0.23531,0.075234,0.39995,0.55431,0.026415,0.017105,0.50696,0.48727,-0.52635,-0.00016958,0.081038,-0.26037,0.16159,0.69433,0.67905,0.13253,0.12606,0.050161,0.0082551,-0.47839
-0.0046618,-0.017424,0.047473,0.013446,0.14403,0.073614,0.38996,0.55445,0.017476,-0.0049817,0.48292,0.16855,-0.63261,-0.0086005,-0.022725,-0.55096,0.1752,0.79235,0.77855,0.14336,0.078703,-0.0022142,0.2772,-0.6052
-0.007057,-0.017043,0.052579,0.017344,0.090061,0.066577,0.3763,0.53591,-0.019916,-0.032632,0.46583,-0.064679,-0.70157,-0.014342,-0.073098,-0.92381,0.18525,0.86091,0.90342,0.14992,0.0358,-0.039193,0.53373,-0.72071
-0.011334,-0.017358,0.061607,0.020451,0.06773,0.060604,0.36269,0.50854,-0.079601,-0.06634,0.4506,-0.21095,-0.69337,-0.023058,-0.078899,-1.2992,0.19221,0.898,1.0209,0.14997,0.0038553,-0.0561,0.71812,-0.82185
-0.016565,-0.019058,0.073514,0.021206,0.062948,0.06074,0.35037,0.48368,-0.14435,-0.10695,0.42336,-0.31428,-0.59086,-0.042997,-0.068539,-1.5951,0.19599,0.91034,1.1104,0.14552,-0.013884,-0.055715,0.79902,-0.89984
-0.020554,-0.021616,0.085081,0.018403,0.060783,0.06747,0.33706,0.4698,-0.19508,-0.15179,0.37541,-0.43017,-0.42409,-0.078147,-0.078926,-1.7507,0.19549,0.90678,1.1777,0.14025,-0.018865,-0.046421,0.78666,-0.93311
-0.021147,-0.023333,0.09304,0.012467,0.052579,0.077103,0.31829,0.47002,-0.22302,-0.19401,0.31425,-0.58564,-0.26019,-0.12326,-0.13655,-1.7384,0.18906,0.89297,1.246,0.13588,-0.015845,-0.036662,0.72314,-0.89794
-0.017942,-0.022693,0.09651,0.0057411,0.038617,0.084985,0.28963,0.48123,-0.2344,-0.22632,0.26228,-0.76076,-0.15841,-0.16401,-0.24234,-1.5711,0.17577,0.8701,1.3333,0.13075,-0.010208,-0.030068,0.65787,-0.79054
-0.012854,-0.019762,0.09761,0.0011836,0.024831,0.088808,0.24839,0.49492,-0.24323,-0.24596,0.24373,-0.90303,-0.12467,-0.18291,-0.37045,-1.3061,0.15637,0.83618,1.4403,0.12156,-0.0060041,-0.025064,0.62371,-0.6409
-0.0087891,-0.016137,0.099571,0.00021951,0.016374,0.089617,0.19473,0.50067,-0.25808,-0.25666,0.26967,-0.96302,-0.10576,-0.16858,-0.48264,-1.036,0.13303,0.78744,1.5543,0.10684,-0.005583,-0.018918,0.6259,-0.50287
-0.0073521,-0.013435,0.10382,0.001426,0.013391,0.090285,0.1325,0.49158,-0.2744,-0.26543,0.33178,-0.92635,-0.03258,-0.12313,-0.54958,-0.85519,0.10805,0.71964,1.6595,0.089164,-0.010084,-0.012319,0.64646,-0.42336
-0.0075433,-0.011849,0.10849,0.0012693,0.012213,0.093097,0.069422,0.46877,-0.27923,-0.27675,0.4085,-0.82269,0.12038,-0.063088,-0.56617,-0.8081,0.082541,0.63014,1.7393,0.074008,-0.019628,-0.010187,0.65847,-0.41195
-0.0067082,-0.010301,0.10979,-0.0034127,0.010163,0.098296,0.01502,0.44126,-0.2645,-0.28854,0.47774,-0.70917,0.30674,-0.01258,-0.55195,-0.8505,0.056109,0.52051,1.7706,0.065971,-0.032864,-0.017865,0.64141,-0.43441
-0.003051,-0.0079969,0.10517,-0.012935,0.0088572,0.1042,-0.023721,0.42069,-0.23756,-0.29319,0.5268,-0.64121,0.43351,0.0074324,-0.53782,-0.85983,0.027695,0.39721,1.7239,0.065435,-0.046583,-0.036006,0.59038,-0.43668
0.0024723,-0.0056771,0.095745,-0.024221,0.012709,0.10828,-0.046964,0.41431,-0.21972,-0.28309,0.55435,-0.64822,0.41974,-0.012439,-0.5482,-0.70303,-0.0030783,0.26875,1.5782,0.068368,-0.056256,-0.058707,0.51578,-0.38303
0.0066487,-0.0050792,0.086025,-0.03274,0.024398,0.10841,-0.062925,0.42155,-0.23365,-0.25676,0.56582,-0.72564,0.24494,-0.068437,-0.59003,-0.32548,-0.035075,0.14067,1.3429,0.06937,-0.057627,-0.076734,0.43514,-0.28101
0.0065887,-0.007051,0.081039,-0.035594,0.042227,0.1038,-0.083182,0.43628,-0.28942,-0.22107,0.56757,-0.84488,-0.042424,-0.14827,-0.65375,0.20042,-0.065849,0.013012,1.0634,0.065331,-0.048615,-0.083402,0.36252,-0.17519
0.0021965,-0.010238,0.083049,-0.033463,0.062299,0.095321,-0.11492,0.45252,-0.37989,-0.18816,0.5641,-0.97385,-0.35301,-0.2373,-0.72303,0.70826,-0.092701,-0.11688,0.79921,0.056742,-0.030568,-0.078537,0.30134,-0.11476
-0.003626,-0.011815,0.090116,-0.029975,0.083298,0.085075,-0.15576,0.46852,-0.48772,-0.16892,0.55826,-1.096,-0.59524,-0.322,-0.7853,1.0369,-0.1139,-0.24776,0.58592,0.045994,-0.00822,-0.067644,0.24437,-0.1176
-0.0072305,-0.0097476,0.097381,-0.029045,0.10874,0.074713,-0.19555,0.48641,-0.59677,-0.16734,0.55233,-1.2169,-0.70225,-0.39017,-0.83619,1.1299,-0.12943,-0.37002,0.41447,0.03459,0.011859,-0.057303,0.17931,-0.15461
-0.0069803,-0.0045473,0.10002,-0.032234,0.14391,0.063449,-0.22383,0.50861,-0.6977,-0.17908,0.548,-1.353,-0.64405,-0.43062,-0.87675,1.0661,-0.14091,-0.46762,0.24557,0.021767,0.024007,-0.050621,0.095701,-0.16339
-0.0041946,0.0010411,0.095974,-0.03806,0.19019,0.047368,-0.23749,0.53473,-0.78435,-0.19482,0.54559,-1.512,-0.43307,-0.435,-0.90797,1.0002,-0.15088,-0.52586,0.048673,0.0053425,0.026316,-0.046037,-0.011332,-0.082219
-0.0016391,0.0040922,0.086989,-0.043529,0.24214,0.021535,-0.24251,0.56155,-0.84714,-0.20581,0.54391,-1.6758,-0.12609,-0.40084,-0.92789,1.058,-0.16172,-0.53911,-0.16998,-0.016451,0.021827,-0.03978,-0.1415,0.1144
-0.0010688,0.0035136,0.077322,-0.046438,0.2904,-0.015708,-0.24898,0.58566,-0.87291,-0.20824,0.54133,-1.8019,0.18557,-0.33292,-0.93368,1.2627,-0.17469,-0.5135,-0.37582,-0.043754,0.016765,-0.029425,-0.29219,0.39653
-0.002001,0.00048351,0.070956,-0.046661,0.32778,-0.059248,-0.26364,0.60597,-0.85438,-0.2041,0.53683,-1.8403,0.40513,-0.24105,-0.92624,1.5393,-0.18965,-0.46358,-0.54236,-0.074938,0.016352,-0.015655,-0.46095,0.6856
-0.0025909,-0.0027285,0.06882,-0.045697,0.35304,-0.097902,-0.28569,0.62404,-0.8014,-0.19858,0.52964,-1.754,0.47091,-0.13623,-0.91249,1.787,-0.20559,-0.40685,-0.67929,-0.10688,0.020949,-0.001334,-0.64598,0.88559
-0.0015376,-0.0043618,0.067872,-0.045234,0.36898,-0.12002,-0.30839,0.64249,-0.74251,-0.1963,0.51773,-1.5277,0.38513,-0.028704,-0.90257,1.9576,-0.22147,-0.35952,-0.82296,-0.13525,0.025589,0.010615,-0.84455,0.92576
0.00081325,-0.0039907,0.063008,-0.046016,0.37719,-0.12063,-0.324,0.66287,-0.71155,-0.19861,0.49684,-1.1607,0.2099,0.070906,-0.90317,2.0828,-0.2368,-0.33428,-0.99595,-0.15527,0.023592,0.018427,-1.0496,0.79336
0.0030134,-0.0022984,0.050885,-0.047673,0.37486,-0.10481,-0.32777,0.68464,-0.72737,-0.20358,0.46232,-0.65662,0.03041,0.15011,-0.91186,2.2357,-0.25119,-0.33782,-1.174,-0.16356,0.0115,0.021061,-1.2457,0.53705
0.0039167,-0.00033642,0.033056,-0.049206,0.35696,-0.084204,-0.31871,0.70528,-0.7816,-0.20803,0.41293,-0.024811,-0.091257,0.1969,-0.9168,2.4629,-0.2633,-0.3677,-1.2944,-0.16018,-0.0087373,0.017229,-1.4058,0.23672
0.0034915,0.0010897,0.015758,-0.049471,0.32198,-0.068871,-0.29814,0.72105,-0.84382,-0.21,0.35388,0.7027,-0.14235,0.2062,-0.90262,2.7414,-0.27016,-0.41109,-1.3025,-0.14909,-0.032077,0.0054755,-1.4945,-0.042568
0.0024039,0.0016632,0.0060336,-0.047459,0.27582,-0.060722,-0.26877,0.72799,-0.87962,-0.20992,0.29556,1.4546,-0.15278,0.18537,-0.85856,2.9916,-0.26823,-0.44918,-1.1995,-0.13607,-0.054952,-0.014406,-1.4805,-0.28214
0.0010595,0.0015147,0.0068065,-0.042634,0.22988,-0.053616,-0.23537,0.72308,-0.86709,-0.2097,0.24808,2.1272,-0.16653,0.15241,-0.78385,3.1303,-0.25602,-0.46722,-1.0504,-0.12536,-0.077811,-0.039951,-1.3561,-0.50548
-0.00074043,0.0010333,0.014719,-0.035467,0.19437,-0.039943,-0.20532,0.70571,-0.80003,-0.21033,0.2152,2.6216,-0.21437,0.12603,-0.6874,3.1236,-0.23675,-0.46432,-0.94588,-0.118,-0.10338,-0.066271,-1.1538,-0.74356
-0.0031643,0.00061573,0.022548,-0.027716,0.17211,-0.017963,-0.18687,0.6786,-0.67878,-0.20976,0.19242,2.8926,-0.30389,0.11404,-0.58327,3.0033,-0.2188,-0.4555,-0.94986,-0.11348,-0.13252,-0.08818,-0.94419,-0.9987
-0.005524,0.00048336,0.024344,-0.02181,0.15757,0.0064809,-0.1852,0.64732,-0.50116,-0.20308,0.17088,2.9723,-0.42543,0.10947,-0.48543,2.8413,-0.21294,-0.46292,-1.0699,-0.11286,-0.1618,-0.10258,-0.80914,-1.2368
-0.0063306,0.00071504,0.01921,-0.019371,0.14196,0.025247,-0.19904,0.61789,-0.2653,-0.18578,0.14388,2.9476,-0.56166,0.097831,-0.40484,2.707,-0.22753,-0.50193,-1.2675,-0.11997,-0.18529,-0.10905,-0.79957,-1.4146
-0.0044177,0.0014566,0.010886,-0.019937,0.12017,0.035313,-0.22115,0.59364,0.015548,-0.15865,0.11069,2.9053,-0.69119,0.069815,-0.34875,2.6336,-0.26443,-0.57187,-1.4902,-0.13867,-0.19867,-0.1082,-0.90433,-1.5197
-0.00014169,0.0029956,0.0038639,-0.021165,0.094322,0.041434,-0.24264,0.57359,0.29939,-0.13083,0.074767,2.8846,-0.78765,0.028904,-0.32049,2.6084,-0.31827,-0.65844,-1.698,-0.16857,-0.20181,-0.099355,-1.053,-1.5904
0.0045845,0.0054252,-0.00040062,-0.020707,0.071541,0.051424,-0.25806,0.55387,0.51918,-0.11751,0.038867,2.8722,-0.82215,-0.012265,-0.31835,2.5795,-0.37944,-0.74514,-1.8664,-0.20353,-0.19748,-0.080045,-1.1546,-1.6989
0.007651,0.0080913,-0.0040975,-0.018372,0.058343,0.068156,-0.26712,0.53146,0.60989,-0.13172,0.001981,2.8394,-0.77369,-0.043054,-0.33434,2.4723,-0.43872,-0.82455,-1.975,-0.23512,-0.18781,-0.048143,-1.1485,-1.909
0.0083616,0.0094806,-0.010396,-0.016611,0.056296,0.085539,-0.27206,0.50763,0.5471,-0.17481,-0.038868,2.7835,-0.64257,-0.063364,-0.35499,2.2131,-0.49068,-0.9007,-1.9991,-0.25866,-0.1726,-0.0051978,-1.0327,-2.2355
0.0077823,0.0080208,-0.020228,-0.018577,0.062095,0.092403,-0.27379,0.48784,0.37277,-0.23251,-0.084028,2.7359,-0.45589,-0.082053,-0.36519,1.7619,-0.53382,-0.98185,-1.9151,-0.27634,-0.15139,0.041886,-0.85192,-2.6302
0.0074213,0.0034003,-0.031342,-0.025148,0.071252,0.081383,-0.27074,0.47799,0.18559,-0.28139,-0.12877,2.7299,-0.25758,-0.10682,-0.354,1.1465,-0.56802,-1.0705,-1.7155,-0.29446,-0.12716,0.08262,-0.65753,-2.997
0.0074734,-0.0027356,-0.040105,-0.033405,0.081808,0.055567,-0.26163,0.47941,0.092768,-0.30304,-0.16594,2.7614,-0.086648,-0.13461,-0.31917,0.47393,-0.59159,-1.1585,-1.4203,-0.31701,-0.10738,0.10752,-0.47155,-3.2272
0.0064299,-0.0075969,-0.044116,-0.038127,0.094938,0.027493,-0.24922,0.48667,0.14782,-0.2964,-0.19164,2.7824,0.042381,-0.15106,-0.26734,-0.10072,-0.60026,-1.2301,-1.0758,-0.34098,-0.10013,0.11279,-0.28034,-3.2401
0.0026535,-0.0091848,-0.043383,-0.035393,0.11243,0.011275,-0.24068,0.48987,0.31505,-0.27865,-0.20874,2.7357,0.14252,-0.13975,-0.2099,-0.44516,-0.5888,-1.2674,-0.73943,-0.35722,-0.10795,0.10229,-0.058684,-3.0152
-0.0034454,-0.0078099,-0.03956,-0.025539,0.13371,0.01388,-0.24336,0.47993,0.49054,-0.27277,-0.22486,2.6033,0.23749,-0.093892,-0.15669,-0.52055,-0.55375,-1.2534,-0.46214,-0.35585,-0.12448,0.085793,0.19864,-2.6052
-0.0088226,-0.0057918,-0.034548,-0.013094,0.1551,0.031729,-0.25924,0.45305,0.57173,-0.29081,-0.24633,2.4236,0.33781,-0.021725,-0.11139,-0.40394,-0.49535,-1.1729,-0.27883,-0.33153,-0.1371,0.074556,0.46327,-2.1184
-0.0097228,-0.005453,-0.029888,-0.0037103,0.17188,0.054336,-0.28291,0.41157,0.52845,-0.3256,-0.27335,2.2626,0.43005,0.057928,-0.071005,-0.24238,-0.41758,-1.0138,-0.2122,-0.28524,-0.13398,0.0766,0.6861,-1.6691
-0.0046931,-0.007098,-0.027072,-0.00045482,0.18116,0.071563,-0.30508,0.36136,0.42135,-0.3574,-0.29998,2.1631,0.49034,0.12594,-0.0291,-0.16851,-0.32694,-0.77467,-0.28239,-0.22245,-0.11021,0.093804,0.82435,-1.3226
0.0039313,-0.0088125,-0.02766,-0.0022804,0.18333,0.079144,-0.31886,0.3084,0.35098,-0.36932,-0.31827,2.1144,0.51206,0.17142,0.019618,-0.23696,-0.23125,-0.47393,-0.50728,-0.15042,-0.069088,0.12173,0.86276,-1.0685
0.011515,-0.0083492,-0.032489,-0.0056069,0.18113,0.079295,-0.32365,0.25702,0.37688,-0.35831,-0.32226,2.0662,0.52278,0.19359,0.076128,-0.42309,-0.13903,-0.15241,-0.88321,-0.076585,-0.019063,0.15194,0.81608,-0.84838
0.014446,-0.0054331,-0.040554,-0.0074543,0.17774,0.077104,-0.32382,0.21033,0.47344,-0.33254,-0.30913,1.971,0.5713,0.19756,0.13685,-0.67454,-0.058883,0.13756,-1.3547,-0.0080414,0.030218,0.17563,0.71461,-0.61765
0.01253,-0.0023055,-0.04894,-0.0075117,0.1753,0.076127,-0.324,0.17163,0.5603,-0.2989,-0.27834,1.8167,0.69118,0.1888,0.19599,-0.9636,0.0018561,0.35239,-1.8013,0.049299,0.070023,0.1871,0.58419,-0.38938
0.0085648,-0.0018339,-0.054438,-0.0076781,0.17491,0.076384,-0.32539,0.1447,0.58068,-0.25306,-0.23222,1.6266,0.86995,0.17053,0.2488,-1.293,0.039054,0.47363,-2.0687,0.091871,0.093269,0.18572,0.43371,-0.2178
0.0056893,-0.0047757,-0.055845,-0.0098284,0.17727,0.075656,-0.32611,0.13253,0.55721,-0.18218,-0.17881,1.4318,1.0528,0.14517,0.29416,-1.6536,0.052878,0.50906,-2.0436,0.11885,0.096178,0.17556,0.25766,-0.1317
0.0049727,-0.0087302,-0.055088,-0.013914,0.18303,0.072386,-0.3245,0.13539,0.57366,-0.078287,-0.13362,1.2458,1.1809,0.1173,0.33488,-1.9812,0.046959,0.47855,-1.7298,0.13092,0.081364,0.16297,0.052392,-0.078829
0.0052414,-0.0099629,-0.056013,-0.017988,0.19237,0.067564,-0.3217,0.14995,0.69748,0.050308,-0.11534,1.0625,1.2351,0.095021,0.37565,-2.1606,0.025958,0.39748,-1.2657,0.12827,0.059672,0.15339,-0.16425,0.059524
0.0049418,-0.0067023,-0.061522,-0.019948,0.20414,0.064113,-0.32081,0.17038,0.91262,0.18044,-0.13531,0.8729,1.2465,0.087841,0.41939,-2.0867,-0.0066826,0.27116,-0.85673,0.11013,0.047446,0.14909,-0.34578,0.38427
0.0040377,-0.0010168,-0.071112,-0.019361,0.21578,0.064477,-0.32352,0.19061,1.1245,0.28812,-0.18744,0.68068,1.266,0.10233,0.46408,-1.7345,-0.049088,0.10341,-0.65371,0.076512,0.059259,0.14879,-0.43318,0.89157
0.0041186,0.0025654,-0.080783,-0.017739,0.22435,0.068588,-0.32766,0.20645,1.2343,0.36328,-0.24778,0.49964,1.3181,0.13796,0.50237,-1.1792,-0.099334,-0.091443,-0.65941,0.030991,0.10042,0.14919,-0.38947,1.4609
0.0067159,0.00071576,-0.08563,-0.017062,0.22828,0.074001,-0.32805,0.21614,1.2183,0.41314,-0.28726,0.33857,1.3786,0.18584,0.52496,-0.54785,-0.15356,-0.28635,-0.73113,-0.018675,0.16439,0.14694,-0.23044,1.9366
0.011494,-0.0058357,-0.083451,-0.017859,0.2284,0.078022,-0.3202,0.21939,1.1443,0.45225,-0.29015,0.19131,1.3928,0.23137,0.52611,0.056681,-0.20576,-0.4525,-0.68265,-0.063307,0.23639,0.13993,-0.025191,2.2407
0.016038,-0.012755,-0.076758,-0.018557,0.2274,0.07995,-0.30337,0.21637,1.1145,0.48903,-0.26493,0.043539,1.3176,0.25973,0.50781,0.59235,-0.24967,-0.57399,-0.41469,-0.096801,0.29961,0.12683,0.14153,2.4277
0.017508,-0.015545,-0.071486,-0.016778,0.22781,0.081441,-0.28044,0.2074,1.1849,0.52046,-0.23842,-0.11156,1.1505,0.26165,0.47927,1.0457,-0.28125,-0.65287,0.018306,-0.11865,0.33949,0.10598,0.22299,2.6365
0.014832,-0.013047,-0.07309,-0.011606,0.22991,0.084721,-0.25495,0.19369,1.3268,0.53845,-0.23649,-0.26676,0.92584,0.23668,0.45149,1.3682,-0.29973,-0.69997,0.44968,-0.13209,0.34471,0.07485,0.24129,2.9789
0.0096677,-0.0080486,-0.082788,-0.0049099,0.23139,0.090225,-0.22808,0.17779,1.4526,0.54042,-0.2649,-0.4118,0.69002,0.19243,0.43066,1.4543,-0.30625,-0.72013,0.71484,-0.13937,0.30816,0.031243,0.26962,3.452
0.0053353,-0.0046668,-0.096816,-0.00046237,0.22903,0.095715,-0.19829,0.16293,1.4747,0.53373,-0.30448,-0.55074,0.48028,0.14034,0.41514,1.199,-0.30155,-0.70534,0.7529,-0.13826,0.23024,-0.024068,0.3773,3.9367
0.0044732,-0.0049413,-0.10927,-0.0013245,0.22117,0.097646,-0.16353,0.15142,1.3497,0.53005,-0.32362,-0.70592,0.32182,0.09054,0.39846,0.59851,-0.28489,-0.64163,0.62656,-0.1237,0.1233,-0.085229,0.57871,4.2756
0.007116,-0.0076124,-0.11627,-0.0074573,0.2089,0.093731,-0.12363,0.14343,1.0867,0.53566,-0.29862,-0.90154,0.23324,0.048405,0.37582,-0.19615,-0.25543,-0.52312,0.45664,-0.093534,0.011779,-0.14167,0.82499,4.364
0.010656,-0.009845,-0.1182,-0.015453,0.19486,0.084782,-0.080528,0.13707,0.73092,0.54667,-0.22741,-1.1416,0.22383,0.014454,0.34901,-0.9337,-0.21493,-0.36061,0.32889,-0.053787,-0.075353,-0.18154,1.0423,4.191
0.011799,-0.0099807,-0.11834,-0.020696,0.18083,0.074438,-0.036603,0.13001,0.34752,0.55338,-0.12832,-1.404,0.28056,-0.013043,0.32579,-1.3998,-0.16924,-0.17768,0.24261,-0.018177,-0.11707,-0.19669,1.1831,3.8153
0.0091363,-0.0087146,-0.11949,-0.020387,0.16608,0.066862,0.0067229,0.12103,0.0087423,0.54932,-0.027567,-1.6572,0.36164,-0.034936,0.31453,-1.5381,-0.1266,0.0015326,0.13061,-0.0012044,-0.10986,-0.18646,1.2498,3.3115
0.0043615,-0.0079081,-0.12169,-0.015219,0.14816,0.063807,0.048418,0.11051,-0.22379,0.53646,0.053845,-1.8819,0.41233,-0.049851,0.3184,-1.4617,-0.093684,0.16269,-0.075184,-0.00941,-0.067495,-0.15794,1.2759,2.7374
0.0010845,-0.0086055,-0.12276,-0.0085505,0.12536,0.063029,0.085829,0.099616,-0.32537,0.52193,0.10574,-2.0742,0.39732,-0.055605,0.33311,-1.3472,-0.071804,0.30283,-0.38604,-0.037238,-0.011352,-0.12259,1.2875,2.1431
0.0020291,-0.010373,-0.12079,-0.003841,0.098997,0.059346,0.1136,0.089034,-0.32551,0.50935,0.12689,-2.2268,0.32398,-0.052186,0.34916,-1.2946,-0.056386,0.42502,-0.74531,-0.070478,0.041874,-0.090898,1.2822,1.5987
0.0067735,-0.012411,-0.116,-0.0023223,0.073375,0.048022,0.12519,0.078395,-0.29445,0.49278,0.1218,-2.3096,0.23481,-0.043759,0.35642,-1.2612,-0.040064,0.53262,-1.0631,-0.09445,0.0869,-0.067887,1.2414,1.2005
0.011891,-0.014881,-0.11023,-0.0025532,0.053304,0.028371,0.11631,0.066462,-0.29891,0.45902,0.10048,-2.2761,0.17393,-0.037559,0.34845,-1.113,-0.017321,0.62743,-1.2656,-0.1009,0.12796,-0.051612,1.1594,1.035
0.013479,-0.018736,-0.10487,-0.0019756,0.040936,0.0049128,0.08791,0.051707,-0.35726,0.3969,0.078998,-2.0977,0.15594,-0.039759,0.32535,-0.74216,0.012534,0.71035,-1.3254,-0.089437,0.17153,-0.035381,1.0595,1.1202
0.010102,-0.024113,-0.099527,0.00089964,0.034165,-0.015041,0.046617,0.032827,-0.43029,0.30653,0.075506,-1.7964,0.16334,-0.051004,0.29483,-0.15557,0.045858,0.78095,-1.2594,-0.064171,0.21957,-0.012654,0.98095,1.3692
0.003819,-0.029187,-0.092834,0.0053862,0.027854,-0.025784,0.0028071,0.0092516,-0.45623,0.20125,0.1003,-1.442,0.17211,-0.065091,0.27063,0.52682,0.077822,0.8354,-1.1053,-0.029747,0.26729,0.017865,0.95043,1.6136
-0.001495,-0.03108,-0.084543,0.0093299,0.017201,-0.026343,-0.032441,-0.018165,-0.4013,0.10091,0.14664,-1.1105,0.17979,-0.072409,0.26728,1.1455,0.10558,0.86593,-0.89537,0.0098434,0.30526,0.049881,0.96407,1.6791
-0.0031163,-0.028344,-0.076662,0.010937,0.0010155,-0.020114,-0.050029,-0.046583,-0.2846,0.021433,0.1915,-0.83623,0.20914,-0.066266,0.29235,1.5808,0.12924,0.86491,-0.64349,0.049757,0.32349,0.071737,0.99561,1.4701
-0.0013783,-0.022684,-0.072164,0.010237,-0.017388,-0.011778,-0.044722,-0.07157,-0.15965,-0.031722,0.20882,-0.59911,0.28439,-0.047775,0.34011,1.7848,0.15057,0.83207,-0.347,0.083021,0.31505,0.072406,1.0197,1.0057
0.00084378,-0.018066,-0.072177,0.0090722,-0.032516,-0.0044931,-0.01613,-0.088878,-0.072256,-0.062386,0.18686,-0.3573,0.40225,-0.02573,0.39183,1.7667,0.1712,0.77958,0.00048229,0.10202,0.27825,0.047784,1.028,0.38544
0.00044924,-0.017762,-0.074207,0.0096699,-0.040838,0.00035179,0.031544,-0.09686,-0.031501,-0.076949,0.13611,-0.094277,0.5242,-0.011435,0.42413,1.5676,0.1922,0.73014,0.39377,0.10239,0.21706,0.0031695,1.0257,-0.28503
-0.00365,-0.021816,-0.073276,0.012895,-0.04385,0.0013907,0.091328,-0.097756,-0.014082,-0.078172,0.081337,0.16272,0.59715,-0.012129,0.42072,1.2502,0.21515,0.70839,0.80633,0.086404,0.13995,-0.049782,1.0164,-0.95102
-0.0099171,-0.027092,-0.065409,0.017513,-0.047574,-0.0037171,0.15623,-0.096538,0.0090116,-0.064399,0.044162,0.36728,0.58535,-0.027607,0.37981,0.89688,0.24303,0.73019,1.192,0.063056,0.057453,-0.099392,0.99302,-1.6074
-0.015362,-0.029774,-0.050743,0.021067,-0.058359,-0.016695,0.22118,-0.097723,0.051082,-0.034017,0.030343,0.49399,0.48876,-0.052086,0.31202,0.59158,0.27917,0.79544,1.4993,0.044219,-0.020704,-0.139,0.94345,-2.2489
-0.017473,-0.028157,-0.033589,0.021777,-0.077687,-0.035662,0.28286,-0.10235,0.11005,0.0093662,0.03092,0.55316,0.33616,-0.079338,0.23117,0.38439,0.3245,0.88731,1.6918,0.039124,-0.087516,-0.16747,0.86343,-2.8228
-0.015644,-0.023548,-0.019227,0.020093,-0.099848,-0.053971,0.33771,-0.10747,0.18292,0.055911,0.033879,0.56695,0.16245,-0.1068,0.14557,0.26535,0.37517,0.97824,1.7625,0.050301,-0.139,-0.18577,0.76323,-3.2335
-0.011415,-0.018877,-0.0099356,0.018588,-0.11467,-0.062912,0.38082,-0.10872,0.27451,0.093831,0.034433,0.53447,-0.010112,-0.13538,0.056468,0.17895,0.42311,1.0411,1.7335,0.073055,-0.17347,-0.19353,0.66317,-3.3981
-0.007545,-0.016504,-0.0035317,0.02005,-0.11387,-0.0568,0.40752,-0.10407,0.39043,0.11573,0.035201,0.42594,-0.17417,-0.16542,-0.036323,0.077179,0.45967,1.0619,1.6413,0.098433,-0.191,-0.18872,0.58413,-3.3101
-0.0064597,-0.017028,0.0043304,0.025061,-0.096759,-0.036648,0.41719,-0.096101,0.52354,0.12221,0.038498,0.21751,-0.32649,-0.19225,-0.12767,-0.029533,0.4803,1.0485,1.5198,0.1178,-0.19363,-0.17061,0.54088,-3.0551
-0.0088768,-0.019721,0.016025,0.031035,-0.07114,-0.0095738,0.41604,-0.090867,0.65083,0.12029,0.040499,-0.064714,-0.45773,-0.20572,-0.20584,-0.068998,0.48684,1.0287,1.3918,0.1266,-0.18552,-0.1428,0.53824,-2.7638
-0.013424,-0.023666,0.029512,0.033785,-0.048594,0.015471,0.41528,-0.094305,0.74665,0.11818,0.034094,-0.33604,-0.55338,-0.19487,-0.25812,0.039812,0.48595,1.036,1.2704,0.12565,-0.17187,-0.11296,0.56522,-2.5385
-0.017593,-0.028291,0.039766,0.030699,-0.037413,0.032352,0.42506,-0.1087,0.80057,0.12018,0.017352,-0.49572,-0.60446,-0.15488,-0.27884,0.31681,0.4845,1.089,1.1639,0.1195,-0.15678,-0.089242,0.58781,-2.4088
-0.01948,-0.032888,0.043011,0.023042,-0.038102,0.039763,0.44789,-0.13164,0.82291,0.12526,-0.0019173,-0.49012,-0.61742,-0.091452,-0.27346,0.68905,0.48518,1.1773,1.0759,0.11304,-0.14148,-0.075832,0.55135,-2.3432
-0.019064,-0.035984,0.04029,0.015327,-0.044397,0.040084,0.47695,-0.15798,0.83279,0.12962,-0.011559,-0.34641,-0.61344,-0.018894,-0.25615,1.0231,0.4852,1.2645,0.99942,0.10844,-0.12464,-0.071179,0.40238,-2.2964
-0.017939,-0.035737,0.037362,0.012001,-0.048632,0.036863,0.50109,-0.18306,0.84117,0.13107,-0.0064695,-0.15025,-0.6161,0.04701,-0.243,1.1976,0.47863,1.3081,0.91707,0.10396,-0.10464,-0.070034,0.12331,-2.2451
-0.017684,-0.031438,0.040849,0.014048,-0.04722,0.032919,0.51291,-0.20479,0.8453,0.13182,0.0044624,0.013132,-0.6361,0.096664,-0.24567,1.1652,0.46064,1.2833,0.80967,0.095455,-0.082017,-0.067641,-0.2455,-2.186
-0.018304,-0.024773,0.05357,0.018339,-0.042362,0.029755,0.51392,-0.22342,0.83884,0.13742,0.0029849,0.108,-0.66366,0.12958,-0.26885,0.96336,0.43065,1.1952,0.67178,0.079488,-0.060169,-0.063176,-0.62016,-2.1067
-0.018233,-0.019266,0.072627,0.020278,-0.039309,0.027697,0.51243,-0.2397,0.82599,0.15264,-0.025506,0.15392,-0.67389,0.15111,-0.3113,0.67686,0.3925,1.0715,0.51992,0.055907,-0.044099,-0.060395,-0.92167,-1.9697
-0.015994,-0.017848,0.091611,0.017485,-0.041972,0.026115,0.51611,-0.25342,0.82402,0.17738,-0.081479,0.19256,-0.64104,0.16615,-0.36827,0.3815,0.35201,0.94369,0.38459,0.028367,-0.038393,-0.065358,-1.1243,-1.7313
-0.011935,-0.020434,0.10509,0.011386,-0.050474,0.023628,0.52493,-0.26384,0.85183,0.20604,-0.15229,0.24883,-0.55224,0.17497,-0.43311,0.10669,0.31403,0.82921,0.28944,0.0026352,-0.045688,-0.08258,-1.2638,-1.3799
-0.0082599,-0.023789,0.11193,0.0055483,-0.062071,0.018581,0.53055,-0.27105,0.91604,0.23074,-0.22386,0.31652,-0.41271,0.17375,-0.49789,-0.16663,0.281,0.72705,0.23289,-0.015921,-0.065687,-0.11156,-1.3955,-0.95658
-0.0071054,-0.024135,0.11517,0.0024308,-0.07377,0.0098936,0.52242,-0.27659,1.0079,0.24577,-0.29306,0.37206,-0.24128,0.1585,-0.55379,-0.47788,0.25376,0.62641,0.18667,-0.023965,-0.094335,-0.14553,-1.5352,-0.53285
-0.0083962,-0.020361,0.11893,0.0014725,-0.083777,-0.0020388,0.4961,-0.28196,1.1113,0.24905,-0.37046,0.39595,-0.061597,0.12852,-0.59226,-0.84693,0.23346,0.52004,0.1136,-0.020311,-0.12369,-0.17353,-1.634,-0.16188
-0.0095938,-0.014968,0.12498,-1.733e-005,-0.09062,-0.014858,0.45697,-0.28612,1.2093,0.23959,-0.47156,0.38053,0.1042,0.087263,-0.60699,-1.244,0.22295,0.4129,-0.0069867,-0.0053758,-0.14389,-0.1852,-1.6138,0.15565
-0.0077927,-0.011817,0.13169,-0.0042995,-0.091555,-0.024625,0.41662,-0.28459,1.2801,0.2139,-0.60404,0.32126,0.23697,0.041305,-0.59596,-1.5872,0.22625,0.32173,-0.16236,0.01883,-0.14751,-0.17608,-1.4368,0.45828
-0.0023573,-0.012699,0.13573,-0.011417,-0.082893,-0.027299,0.3847,-0.27199,1.2882,0.16581,-0.76151,0.20669,0.31997,-0.00050925,-0.56254,-1.7761,0.24633,0.26767,-0.30768,0.047931,-0.13419,-0.15018,-1.1541,0.77093
0.0043277,-0.015853,0.13493,-0.01959,-0.062979,-0.021019,0.3627,-0.24688,1.1895,0.091079,-0.92749,0.022157,0.34057,-0.02762,-0.51505,-1.748,0.2824,0.26709,-0.38388,0.074883,-0.11177,-0.11794,-0.89075,1.0564
0.0087376,-0.017716,0.13007,-0.027039,-0.035416,-0.0080607,0.34405,-0.21504,0.95686,-0.0071009,-1.0849,-0.23347,0.29465,-0.029806,-0.46471,-1.5278,0.32883,0.3255,-0.34347,0.091686,-0.092178,-0.090833,-0.77426,1.215
0.0090312,-0.016177,0.12421,-0.033316,-0.0089437,0.0051864,0.31991,-0.18828,0.61279,-0.11716,-1.2221,-0.53327,0.18969,-0.0019304,-0.4222,-1.234,0.37687,0.43705,-0.1739,0.093112,-0.084303,-0.076158,-0.859,1.1414
0.0062913,-0.01225,0.12051,-0.039021,0.0072302,0.011143,0.28545,-0.17861,0.23686,-0.22451,-1.3325,-0.82521,0.04253,0.050984,-0.39388,-1.0285,0.41886,0.58901,0.089723,0.080289,-0.089078,-0.075179,-1.0985,0.80166
0.0032165,-0.00875,0.11999,-0.044535,0.0097364,0.0057373,0.24162,-0.19171,-0.067583,-0.31898,-1.4099,-1.0534,-0.1273,0.11333,-0.37878,-1.036,0.45221,0.7682,0.36943,0.061112,-0.1002,-0.08495,-1.3804,0.27715
0.0017076,-0.0074098,0.12112,-0.049288,0.0038736,-0.0082156,0.19154,-0.22411,-0.23159,-0.39781,-1.4479,-1.1843,-0.30342,0.16593,-0.36831,-1.2806,0.48041,0.96518,0.56952,0.046317,-0.10954,-0.10115,-1.5918,-0.25766
0.0016702,-0.0072784,0.12122,-0.052332,8.6002e-005,-0.021921,0.13573,-0.26586,-0.26186,-0.46185,-1.4449,-1.2219,-0.47288,0.19706,-0.34974,-1.6817,0.51009,1.1738,0.61597,0.043347,-0.11256,-0.11924,-1.6686,-0.61283
0.0019248,-0.0058472,0.11841,-0.053543,0.0063175,-0.025961,0.071096,-0.30658,-0.23223,-0.50879,-1.4091,-1.2047,-0.62206,0.20916,-0.31292,-2.1079,0.54591,1.3872,0.49244,0.052276,-0.10977,-0.13393,-1.6043,-0.67073
0.0019289,-0.0016867,0.11277,-0.054066,0.022137,-0.01668,-0.0048096,-0.34064,-0.23044,-0.53054,-1.3573,-1.1902,-0.73387,0.21491,-0.25723,-2.4479,0.58701,1.5931,0.251,0.066836,-0.10417,-0.13926,-1.4266,-0.43482
0.0023494,0.0039668,0.10577,-0.055482,0.039326,0.0010787,-0.087823,-0.36841,-0.30081,-0.51746,-1.3045,-1.2324,-0.79078,0.22508,-0.1941,-2.6522,0.62736,1.7734,-0.013527,0.079658,-0.098051,-0.13142,-1.1715,-0.016844
0.0039697,0.0081166,0.098817,-0.058449,0.048334,0.017087,-0.1652,-0.39374,-0.42496,-0.46599,-1.2529,-1.3629,-0.78231,0.238,-0.14232,-2.7231,0.65907,1.9065,-0.21316,0.08747,-0.092149,-0.11272,-0.87197,0.42433
0.0063332,0.0084938,0.092151,-0.062151,0.045177,0.022407,-0.22029,-0.42019,-0.54985,-0.38269,-1.1891,-1.5789,-0.7113,0.24018,-0.1175,-2.6782,0.67569,1.972,-0.31025,0.092101,-0.086848,-0.092689,-0.55822,0.75555
0.0078083,0.0053851,0.084966,-0.06507,0.033246,0.014637,-0.24125,-0.44869,-0.63412,-0.28084,-1.0937,-1.8428,-0.59507,0.2182,-0.12216,-2.5248,0.67307,1.955,-0.32696,0.096877,-0.082882,-0.083341,-0.25689,0.91718
0.0071468,0.001308,0.07638,-0.066303,0.019123,-0.0018961,-0.22764,-0.47765,-0.67286,-0.17247,-0.95698,-2.097,-0.46237,0.17148,-0.14311,-2.2701,0.64835,1.8507,-0.31675,0.10201,-0.07991,-0.090737,0.017018,0.92849
0.0048706,-0.0010133,0.066269,-0.066154,0.0066942,-0.020385,-0.19059,-0.50432,-0.68548,-0.062635,-0.789,-2.2874,-0.34884,0.11423,-0.15873,-1.95,0.59966,1.6679,-0.32093,0.10335,-0.074546,-0.10905,0.26752,0.85871
0.0029004,-0.00060883,0.055327,-0.065494,-0.0050982,-0.036279,-0.14689,-0.52607,-0.68594,0.049378,-0.61554,-2.3853,-0.29096,0.064166,-0.15126,-1.6413,0.52792,1.4307,-0.34258,0.095533,-0.060992,-0.12285,0.5134,0.78737
0.002677,0.001309,0.044548,-0.06464,-0.019246,-0.048844,-0.11164,-0.54063,-0.66808,0.16362,-0.46361,-2.3946,-0.3155,0.027943,-0.11567,-1.4332,0.43914,1.1747,-0.35432,0.076761,-0.035326,-0.11733,0.77226,0.77594
0.0036903,0.0025317,0.034801,-0.062954,-0.035707,-0.059172,-0.09389,-0.54599,-0.62076,0.2739,-0.34646,-2.3404,-0.42485,-0.0034481,-0.0593,-1.3743,0.34417,0.93594,-0.32998,0.050746,-0.00050963,-0.089453,1.045,0.85735
0.0040228,0.001558,0.026789,-0.059562,-0.049341,-0.067365,-0.09653,-0.54047,-0.55584,0.36846,-0.25869,-2.2509,-0.58677,-0.044544,0.0062911,-1.4367,0.25457,0.73637,-0.27365,0.024344,0.032609,-0.051349,1.3135,1.0347
0.0024843,-0.0014278,0.021143,-0.054451,-0.052726,-0.07178,-0.11803,-0.52358,-0.51754,0.43641,-0.18371,-2.1432,-0.73993,-0.09944,0.073911,-1.5331,0.17712,0.5751,-0.22465,0.0028742,0.050402,-0.022408,1.5536,1.2791
0.00021214,-0.0048062,0.018212,-0.048796,-0.041387,-0.070747,-0.15381,-0.49683,-0.55722,0.47477,-0.10707,-2.0232,-0.81872,-0.15442,0.14288,-1.5772,0.11131,0.43159,-0.2372,-0.01316,0.044677,-0.015334,1.7506,1.5274
-1.7293e-005,-0.0066403,0.017612,-0.044194,-0.017039,-0.064702,-0.19695,-0.46412,-0.69003,0.49011,-0.025692,-1.8931,-0.78473,-0.18623,0.21415,-1.5433,0.051893,0.27923,-0.35178,-0.027947,0.017992,-0.02636,1.904,1.6952
0.0036288,-0.0058759,0.01799,-0.04155,0.013544,-0.056465,-0.23985,-0.43091,-0.87,0.49355,0.052678,-1.759,-0.64504,-0.17937,0.28382,-1.4772,-0.005697,0.10014,-0.57922,-0.04772,-0.018014,-0.037374,2.018,1.7107
0.0098548,-0.0029493,0.01743,-0.040629,0.042671,-0.049343,-0.27731,-0.4025,-1.0094,0.49266,0.1181,-1.6309,-0.44536,-0.13804,0.34157,-1.4511,-0.061597,-0.10758,-0.90689,-0.077982,-0.049905,-0.029023,2.0865,1.5585
0.01457,0.00047183,0.014336,-0.040545,0.06542,-0.044764,-0.30919,-0.38184,-1.0336,0.48643,0.16769,-1.5193,-0.24501,-0.08354,0.37531,-1.4982,-0.11207,-0.33114,-1.3194,-0.12231,-0.069668,0.0045116,2.0865,1.3011
0.013746,0.0024376,0.0081753,-0.040544,0.080414,-0.041406,-0.33974,-0.36804,-0.93315,0.46666,0.2084,-1.4318,-0.092195,-0.040412,0.37789,-1.5822,-0.15281,-0.54688,-1.8158,-0.1828,-0.076624,0.049949,1.9877,1.0555
0.0066223,0.0018263,-0.0004635,-0.040375,0.088073,-0.036325,-0.37319,-0.35631,-0.77253,0.42462,0.25176,-1.3726,-0.013257,-0.022962,0.35004,-1.6252,-0.18141,-0.72244,-2.4067,-0.26119,-0.073606,0.082893,1.7738,0.93421
-0.0033113,-0.0010117,-0.010497,-0.040131,0.088671,-0.026948,-0.40886,-0.33978,-0.64827,0.35837,0.3051,-1.3413,-0.01441,-0.031624,0.29803,-1.5754,-0.19713,-0.8208,-3.0905,-0.35924,-0.061928,0.083717,1.4602,0.99017
-0.010383,-0.0044566,-0.021135,-0.040011,0.082051,-0.012437,-0.44058,-0.3127,-0.6244,0.27571,0.36632,-1.3291,-0.085486,-0.058886,0.22938,-1.4594,-0.19956,-0.81314,-3.8219,-0.47717,-0.040306,0.049914,1.0974,1.2006
-0.010378,-0.0065371,-0.032198,-0.040249,0.068816,0.0061072,-0.46151,-0.27391,-0.69192,0.19081,0.42586,-1.3162,-0.20015,-0.097007,0.15151,-1.3766,-0.18901,-0.69937,-4.497,-0.60963,-0.0087069,-0.00365,0.75207,1.4959
-0.0031478,-0.0060009,-0.043753,-0.041004,0.051207,0.026076,-0.47076,-0.2288,-0.77949,0.11676,0.47396,-1.2773,-0.31815,-0.14064,0.074072,-1.4332,-0.16884,-0.52205,-4.9733,-0.74071,0.02714,-0.055847,0.47743,1.8035
0.0074847,-0.002943,-0.0554,-0.041961,0.032299,0.043662,-0.47547,-0.18848,-0.8047,0.058777,0.50719,-1.1944,-0.39779,-0.18446,0.011006,-1.6578,-0.14717,-0.35665,-5.1209,-0.84193,0.056135,-0.09256,0.28905,2.0703
0.016234,0.0012537,-0.065862,-0.041948,0.013924,0.054057,-0.48568,-0.16568,-0.72728,0.012723,0.52957,-1.0695,-0.41624,-0.22112,-0.022365,-1.9627,-0.13471,-0.27633,-4.8793,-0.87799,0.068475,-0.11211,0.16325,2.2569
0.019405,0.0045156,-0.073346,-0.039229,-0.0047677,0.052249,-0.5056,-0.16847,-0.56826,-0.030395,0.54852,-0.9246,-0.3834,-0.24377,-0.017328,-2.1845,-0.13935,-0.31218,-4.2848,-0.8209,0.063838,-0.12004,0.059215,2.3245
0.016586,0.0049279,-0.076506,-0.032702,-0.026555,0.034928,-0.52879,-0.19518,-0.38727,-0.077313,0.5694,-0.7859,-0.33507,-0.25128,0.020721,-2.187,-0.16129,-0.43873,-3.4505,-0.66635,0.053896,-0.11952,-0.049937,2.2372
0.010274,0.001606,-0.075361,-0.023183,-0.053498,0.0028884,-0.54209,-0.23367,-0.24084,-0.12806,0.59322,-0.66297,-0.30687,-0.25033,0.072215,-1.9584,-0.19296,-0.59717,-2.5113,-0.44168,0.055858,-0.10674,-0.16016,1.9829
0.0040892,-0.0046646,-0.071499,-0.013533,-0.084395,-0.037771,-0.53558,-0.26672,-0.15376,-0.1772,0.61803,-0.54012,-0.30685,-0.2506,0.11272,-1.6307,-0.22397,-0.73854,-1.5726,-0.19797,0.081002,-0.075176,-0.24633,1.5896
0.00084162,-0.011428,-0.067433,-0.0071582,-0.11442,-0.077171,-0.51042,-0.28105,-0.11937,-0.21905,0.64158,-0.38794,-0.30771,-0.256,0.12612,-1.3976,-0.2473,-0.85236,-0.69244,0.01107,0.12649,-0.024464,-0.29144,1.1167
0.0014325,-0.015538,-0.065579,-0.0058348,-0.13736,-0.10582,-0.47765,-0.27465,-0.12054,-0.25218,0.66267,-0.18673,-0.26481,-0.2594,0.11258,-1.3822,-0.26211,-0.95914,0.0985,0.15115,0.17647,0.035211,-0.31146,0.62343
0.0048486,-0.014919,-0.067468,-0.0085435,-0.1489,-0.11925,-0.4489,-0.25707,-0.14881,-0.27944,0.6805,0.056519,-0.14695,-0.24682,0.085759,-1.5477,-0.27181,-1.0774,0.76941,0.21754,0.21154,0.087677,-0.35449,0.13996
0.0089699,-0.010074,-0.07346,-0.012212,-0.14874,-0.12012,-0.42703,-0.24243,-0.20643,-0.3039,0.69384,0.31035,0.040659,-0.20889,0.061632,-1.7195,-0.2798,-1.1979,1.2836,0.22881,0.2197,0.12082,-0.47219,-0.33515
0.011717,-0.004127,-0.082803,-0.013743,-0.14028,-0.11614,-0.40478,-0.23972,-0.29309,-0.32502,0.70146,0.53721,0.2548,-0.15093,0.047288,-1.7069,-0.28671,-1.2885,1.6196,0.21137,0.2018,0.13369,-0.68323,-0.80923
0.012062,-0.00095241,-0.093829,-0.011777,-0.12828,-0.115,-0.37265,-0.24759,-0.39287,-0.33853,0.70337,0.7133,0.43265,-0.092422,0.037453,-1.4362,-0.29055,-1.3249,1.7946,0.18628,0.16925,0.13504,-0.95533,-1.2637
0.010486,-0.0025046,-0.10436,-0.0070806,-0.11626,-0.11959,-0.32885,-0.25705,-0.47521,-0.34034,0.70131,0.83654,0.51864,-0.05493,0.020196,-0.99789,-0.28903,-1.3167,1.8615,0.16511,0.13709,0.13543,-1.219,-1.6425
0.0086232,-0.0073292,-0.11245,-0.0016538,-0.10521,-0.12688,-0.28243,-0.25954,-0.51115,-0.33091,0.69756,0.92036,0.48732,-0.046714,-0.013537,-0.57616,-0.28154,-1.3047,1.8791,0.15284,0.11721,0.14013,-1.4031,-1.8733
0.0081943,-0.011595,-0.11733,0.0025323,-0.094367,-0.13104,-0.24703,-0.25365,-0.49289,-0.31602,0.69303,0.98136,0.35395,-0.056282,-0.063941,-0.31721,-0.26994,-1.3332,1.8791,0.15158,0.11491,0.14841,-1.4679,-1.9082
0.0098068,-0.012038,-0.11983,0.0043652,-0.083004,-0.12849,-0.23081,-0.2455,-0.44186,-0.30364,0.6867,1.0305,0.16904,-0.060456,-0.12366,-0.23637,-0.25799,-1.4205,1.8595,0.16103,0.12868,0.15832,-1.415,-1.7596
0.012407,-0.0085306,-0.12182,0.0038187,-0.071975,-0.12113,-0.2313,-0.2431,-0.39861,-0.29918,0.67699,1.0717,-0.0021421,-0.041301,-0.18421,-0.22831,-0.25026,-1.5542,1.8046,0.17742,0.15207,0.17113,-1.2706,-1.5033
0.013886,-0.0041383,-0.12474,0.001783,-0.063739,-0.11556,-0.23869,-0.24981,-0.40064,-0.30303,0.66407,1.1048,-0.10829,0.0010437,-0.2417,-0.16156,-0.25055,-1.7083,1.7085,0.19443,0.17638,0.19061,-1.0604,-1.2419
0.012555,-0.0025352,-0.12842,-0.00035968,-0.060788,-0.1189,-0.24394,-0.26201,-0.46202,-0.31143,0.65086,1.1311,-0.13531,0.049395,-0.29736,0.023134,-0.25989,-1.863,1.5778,0.20676,0.19342,0.21788,-0.79409,-1.0492
0.0085233,-0.0049286,-0.13113,-0.0013792,-0.063478,-0.13418,-0.24422,-0.27214,-0.56694,-0.31926,0.64166,1.1555,-0.11008,0.082991,-0.35257,0.28571,-0.27504,-2.0089,1.4176,0.2134,0.19748,0.24709,-0.47118,-0.93172
0.0038919,-0.0091391,-0.13126,-0.00085864,-0.068783,-0.15806,-0.24209,-0.2741,-0.67991,-0.32226,0.63946,1.1887,-0.080316,0.092184,-0.40259,0.54279,-0.28918,-2.1373,1.2227,0.21692,0.18579,0.26651,-0.10081,-0.84106
0.0014583,-0.011638,-0.12922,0.00057459,-0.071097,-0.18217,-0.24094,-0.26668,-0.76501,-0.3177,0.644,1.245,-0.082291,0.082844,-0.43447,0.75142,-0.29545,-2.2335,0.99191,0.21911,0.15774,0.26481,0.28195,-0.73231
0.0027427,-0.010714,-0.12788,0.001745,-0.06502,-0.19696,-0.24164,-0.25339,-0.8023,-0.30423,0.65227,1.3356,-0.11819,0.068239,-0.43205,0.94706,-0.29159,-2.2864,0.75229,0.21714,0.11412,0.2379,0.61896,-0.62278
0.0067901,-0.0078929,-0.1308,0.0018738,-0.048703,-0.19603,-0.24306,-0.23998,-0.79317,-0.28219,0.6608,1.4619,-0.15893,0.056579,-0.386,1.2038,-0.28225,-2.3052,0.56405,0.20441,0.057727,0.19124,0.85223,-0.59781
0.010762,-0.0063255,-0.13932,0.0012183,-0.025547,-0.17879,-0.24418,-0.23184,-0.75387,-0.25429,0.66803,1.6103,-0.16934,0.045141,-0.30276,1.5513,-0.27637,-2.3227,0.49077,0.17619,-0.0055668,0.13643,0.95326,-0.74903
0.012012,-0.0076565,-0.15079,0.00083674,-0.0026705,-0.15022,-0.24473,-0.2327,-0.70391,-0.22562,0.67471,1.7575,-0.13538,0.025054,-0.20557,1.919,-0.28063,-2.3737,0.55584,0.13545,-0.067228,0.085046,0.93795,-1.0911
0.010107,-0.010358,-0.15986,0.0016526,0.013404,-0.11816,-0.244,-0.2441,-0.65661,-0.20191,0.6822,1.8816,-0.072139,-0.0088058,-0.12513,2.1605,-0.29339,-2.4629,0.72476,0.093718,-0.11916,0.044359,0.85545,-1.5306
0.0071934,-0.011176,-0.16213,0.0036215,0.021043,-0.089295,-0.24048,-0.26529,-0.61609,-0.18707,0.68993,1.9728,-0.0084874,-0.052044,-0.08421,2.1472,-0.30395,-2.5504,0.93367,0.065754,-0.1579,0.016848,0.75686,-1.9224
0.0063218,-0.0083968,-0.15759,0.0057162,0.024329,-0.066397,-0.23415,-0.29359,-0.57958,-0.18147,0.69427,2.0341,0.036655,-0.093423,-0.085156,1.8663,-0.29837,-2.5717,1.1425,0.061683,-0.18653,0.0022419,0.66437,-2.1748
0.0090128,-0.0038548,-0.15092,0.0067443,0.02916,-0.04817,-0.2293,-0.32574,-0.54184,-0.18244,0.68994,2.073,0.065952,-0.12223,-0.10827,1.4504,-0.26813,-2.48,1.3662,0.081919,-0.21205,-0.00095203,0.56153,-2.3144
0.013986,-0.0016723,-0.14802,0.006346,0.037257,-0.031864,-0.23365,-0.35982,-0.49916,-0.18612,0.67347,2.0908,0.095787,-0.13314,-0.12252,1.1158,-0.21571,-2.2767,1.6536,0.11781,-0.24001,0.0040808,0.41036,-2.4534
0.018064,-0.0047234,-0.15141,0.0054241,0.04327,-0.016608,-0.25221,-0.39606,-0.45192,-0.1889,0.64656,2.0813,0.13934,-0.12536,-0.10234,1.0476,-0.15344,-2.0075,2.0302,0.15662,-0.2705,0.011368,0.1824,-2.68
0.018489,-0.011958,-0.15814,0.0057223,0.038485,-0.0049291,-0.28019,-0.43528,-0.40522,-0.18726,0.61674,2.04,0.19717,-0.099018,-0.040947,1.3072,-0.096765,-1.7285,2.4543,0.18711,-0.29851,0.013171,-0.11837,-2.9644
0.01478,-0.019005,-0.16201,0.0088299,0.019383,-0.0012529,-0.30207,-0.47571,-0.36645,-0.17691,0.59412,1.9751,0.26148,-0.054351,0.047089,1.8149,-0.056663,-1.4718,2.8252,0.20296,-0.31788,0.004122,-0.45514,-3.1584
0.0087605,-0.021578,-0.15843,0.015183,-0.005609,-0.0085325,-0.29989,-0.51093,-0.33972,-0.15319,0.58545,1.9089,0.32577,0.0051623,0.13419,2.4082,-0.035746,-1.2381,3.0402,0.20356,-0.32501,-0.014058,-0.77789,-3.0936
0.0029701,-0.018773,-0.14788,0.02359,-0.017723,-0.025659,-0.26605,-0.53162,-0.31982,-0.11326,0.58874,1.8649,0.38765,0.069778,0.19351,2.9273,-0.029445,-1.0168,3.058,0.19313,-0.31972,-0.031743,-1.0473,-2.7014
-0.0010566,-0.013552,-0.13523,0.03159,0.0014983,-0.047658,-0.21063,-0.53084,-0.29072,-0.058675,0.59222,1.8521,0.44327,0.12566,0.21062,3.2741,-0.030265,-0.81107,2.9199,0.17902,-0.30358,-0.036917,-1.2466,-2.0661
-0.0033259,-0.0102,-0.1255,0.036594,0.057216,-0.068422,-0.15683,-0.50952,-0.23239,0.0041379,0.57908,1.8583,0.48367,0.16217,0.18769,3.4205,-0.031995,-0.64266,2.7174,0.16876,-0.27852,-0.024241,-1.3779,-1.3767
-0.0046495,-0.011026,-0.12,0.037328,0.13549,-0.083777,-0.12694,-0.47802,-0.1333,0.066541,0.53615,1.8608,0.5024,0.17847,0.13923,3.381,-0.031954,-0.53401,2.5321,0.16659,-0.24724,-0.00085272,-1.449,-0.82179
-0.0056204,-0.014934,-0.11583,0.034712,0.20953,-0.092666,-0.12879,-0.45228,-8.9015e-005,0.1218,0.46147,1.8434,0.50984,0.18284,0.082205,3.181,-0.031144,-0.4855,2.3937,0.17084,-0.21423,0.016746,-1.4652,-0.50405
-0.0062456,-0.0187,-0.10917,0.031418,0.25423,-0.096043,-0.15223,-0.44667,0.1439,0.16765,0.36635,1.8057,0.53818,0.18449,0.026127,2.8441,-0.033011,-0.47039,2.2803,0.17455,-0.18519,0.013759,-1.4306,-0.42353
-0.006306,-0.019619,-0.099076,0.030161,0.25913,-0.095087,-0.17712,-0.46771,0.27188,0.20574,0.27028,1.7587,0.62524,0.18422,-0.031055,2.3985,-0.041351,-0.45205,2.1529,0.16962,-0.1643,-0.011635,-1.356,-0.52175
-0.0058107,-0.017396,-0.088243,0.031787,0.2315,-0.090601,-0.18635,-0.51191,0.3694,0.23863,0.19145,1.7101,0.78514,0.17184,-0.098517,1.8881,-0.057769,-0.40764,1.9964,0.15232,-0.15136,-0.045675,-1.2635,-0.74015
-0.0050465,-0.014078,-0.080221,0.034673,0.18864,-0.08389,-0.17438,-0.56785,0.44052,0.26696,0.13857,1.6553,0.98906,0.13291,-0.18224,1.3712,-0.079559,-0.33752,1.8367,0.12646,-0.14141,-0.067627,-1.1816,-1.0496
-0.0043265,-0.012378,-0.075675,0.036061,0.14605,-0.077515,-0.14703,-0.62102,0.49999,0.28862,0.10839,1.5812,1.1748,0.059341,-0.27642,0.90741,-0.099395,-0.25419,1.7261,0.10176,-0.1275,-0.063357,-1.1321,-1.4395
-0.003854,-0.01372,-0.071291,0.034376,0.10984,-0.074194,-0.11517,-0.65888,0.55887,0.29986,0.089932,1.4768,1.281,-0.044087,-0.36405,0.53972,-0.10771,-0.16306,1.7083,0.088395,-0.1045,-0.033805,-1.1181,-1.8848
-0.0038394,-0.017277,-0.062396,0.030625,0.077324,-0.074069,-0.088322,-0.67484,0.61693,0.29742,0.071959,1.3429,1.2822,-0.16132,-0.42735,0.28629,-0.096991,-0.053407,1.787,0.091176,-0.071439,0.0073211,-1.1207,-2.3208
-0.0046014,-0.020559,-0.046963,0.027642,0.043313,-0.072819,-0.072185,-0.66971,0.66827,0.28039,0.048998,1.1901,1.1992,-0.27203,-0.46038,0.14497,-0.065467,0.094417,1.9183,0.10714,-0.031174,0.043573,-1.1071,-2.646
-0.0063994,-0.021181,-0.027397,0.027808,0.0061894,-0.063124,-0.069202,-0.65008,0.71356,0.25133,0.022594,1.0304,1.0816,-0.35818,-0.47299,0.10357,-0.017826,0.29534,2.0326,0.12797,0.011171,0.064944,-1.0448,-2.7529
-0.0091253,-0.018649,-0.0085903,0.03125,-0.030459,-0.039373,-0.079043,-0.62398,0.76475,0.21621,-0.0018958,0.87106,0.97511,-0.40686,-0.48222,0.14315,0.037593,0.5535,2.0733,0.14528,0.049464,0.069707,-0.91446,-2.5716
-0.012197,-0.01488,0.0058754,0.035996,-0.060804,-0.0023478,-0.097429,-0.59622,0.83452,0.18282,-0.020137,0.71467,0.89821,-0.41081,-0.49802,0.22953,0.092853,0.86658,2.0267,0.15502,0.076976,0.059515,-0.71473,-2.1013
-0.014784,-0.012842,0.015962,0.039781,-0.081248,0.040046,-0.1152,-0.56665,0.91833,0.15769,-0.032191,0.56461,0.83605,-0.36963,-0.51596,0.30317,0.14256,1.2298,1.9206,0.15795,0.086954,0.033897,-0.46004,-1.4112
-0.016164,-0.014149,0.024082,0.041685,-0.093009,0.077008,-0.12064,-0.53291,0.9864,0.14299,-0.04285,0.42769,0.75189,-0.29214,-0.52319,0.28683,0.18272,1.6287,1.7898,0.15602,0.074464,-0.010244,-0.17222,-0.6115
-0.015992,-0.017497,0.032136,0.042195,-0.10135,0.10106,-0.10541,-0.49531,0.99722,0.13515,-0.059298,0.31105,0.60753,-0.19626,-0.51189,0.12201,0.2083,2.024,1.6329,0.14766,0.03922,-0.073985,0.12856,0.18691
-0.014493,-0.019445,0.039816,0.041953,-0.11235,0.11163,-0.070164,-0.45966,0.9257,0.12656,-0.087542,0.21651,0.385,-0.10344,-0.48691,-0.17967,0.21313,2.3483,1.3949,0.12633,-0.012287,-0.15136,0.42925,0.9006
-0.012626,-0.017166,0.045796,0.040729,-0.1294,0.11377,-0.024876,-0.43477,0.78463,0.10954,-0.12922,0.13834,0.10162,-0.02893,-0.4601,-0.50679,0.19398,2.527,0.99558,0.084402,-0.067324,-0.22906,0.72303,1.4781
-0.011955,-0.010922,0.050389,0.037755,-0.15169,0.11362,0.017537,-0.42637,0.62094,0.08029,-0.18011,0.067058,-0.18999,0.025953,-0.43675,-0.67718,0.15607,2.5177,0.38637,0.020131,-0.11064,-0.29155,1.0025,1.8908
-0.013841,-0.0040441,0.056628,0.032981,-0.17554,0.11455,0.049895,-0.43259,0.48772,0.040382,-0.23124,-0.0045511,-0.4211,0.073426,-0.40816,-0.52959,0.11444,2.3391,-0.40441,-0.057805,-0.13,-0.32811,1.2524,2.1292
-0.018174,-0.00025558,0.068208,0.027772,-0.1977,0.11643,0.074622,-0.44505,0.41234,-0.004871,-0.27256,-0.078638,-0.53706,0.13042,-0.35881,-0.032223,0.087692,2.0652,-1.273,-0.13276,-0.12084,-0.33655,1.4491,2.2107
-0.02271,-0.00063542,0.085983,0.024104,-0.21836,0.11738,0.09935,-0.45493,0.3842,-0.050051,-0.29797,-0.15464,-0.52098,0.20738,-0.28309,0.66775,0.086829,1.7843,-2.089,-0.18899,-0.088054,-0.32203,1.5703,2.1841
-0.02408,-0.0029255,0.10637,0.022926,-0.24161,0.11572,0.12809,-0.45894,0.36946,-0.092991,-0.30919,-0.2333,-0.39615,0.30242,-0.19652,1.3074,0.10727,1.5546,-2.7565,-0.22086,-0.043942,-0.29279,1.609,2.1134
-0.020254,-0.0038163,0.12354,0.023229,-0.27286,0.11054,0.15614,-0.46014,0.33889,-0.13599,-0.31584,-0.31766,-0.20885,0.40374,-0.13027,1.6624,0.13116,1.3875,-3.2445,-0.23522,-0.0037265,-0.25666,1.5808,2.0382
-0.012582,-0.0021167,0.13375,0.022797,-0.31492,0.10173,0.17398,-0.46344,0.28639,-0.1841,-0.33064,-0.41,-0.0074834,0.49656,-0.11174,1.693,0.13945,1.2682,-3.5704,-0.24486,0.019687,-0.22033,1.5183,1.9394
-0.0053719,0.00012122,0.13814,0.020008,-0.36548,0.090295,0.17734,-0.4699,0.22639,-0.24118,-0.36185,-0.50847,0.16749,0.56799,-0.14571,1.5671,0.12521,1.1905,-3.7603,-0.25807,0.019837,-0.19007,1.4525,1.7472
-0.0029092,-0.00041064,0.14148,0.015117,-0.41794,0.079125,0.17449,-0.47501,0.17674,-0.30526,-0.40727,-0.60747,0.28343,0.60687,-0.21021,1.5274,0.097738,1.1706,-3.8214,-0.27258,-0.0014013,-0.17154,1.3979,1.3983
-0.0062009,-0.0049504,0.14816,0.0098885,-0.46465,0.072795,0.18352,-0.47195,0.14451,-0.36595,-0.45458,-0.70212,0.31747,0.60172,-0.26933,1.6935,0.074382,1.2291,-3.7503,-0.27863,-0.034665,-0.16788,1.3483,0.90908
-0.012242,-0.011008,0.1587,0.0059557,-0.50013,0.075523,0.22071,-0.45669,0.12588,-0.40596,-0.48859,-0.79228,0.26719,0.54233,-0.29293,1.9591,0.066676,1.3583,-3.56,-0.268,-0.066598,-0.17778,1.2867,0.40585
-0.016491,-0.013937,0.16967,0.0033463,-0.52209,0.088329,0.2885,-0.43026,0.11696,-0.40708,-0.50163,-0.88205,0.16032,0.42672,-0.26951,2.0782,0.072169,1.5077,-3.2918,-0.24097,-0.085008,-0.19579,1.1969,0.082786
-0.01639,-0.010507,0.17669,0.00045397,-0.53009,0.10755,0.37226,-0.39654,0.12276,-0.35842,-0.49978,-0.97476,0.046812,0.26841,-0.20584,1.8777,0.078076,1.6043,-2.9919,-0.20494,-0.083706,-0.21532,1.0673,0.1069
-0.012915,-0.0015678,0.17761,-0.004549,-0.52409,0.12593,0.4478,-0.35826,0.15504,-0.26251,-0.50015,-1.0683,-0.029759,0.096584,-0.11696,1.416,0.072901,1.593,-2.6678,-0.16627,-0.0647,-0.23181,0.88602,0.53207
-0.0090923,0.0083429,0.17338,-0.012059,-0.5047,0.13529,0.49404,-0.31514,0.22129,-0.13542,-0.5205,-1.1552,-0.061948,-0.054132,-0.015894,0.94188,0.055726,1.4653,-2.2675,-0.12334,-0.036457,-0.24333,0.63873,1.2741
-0.007175,0.014145,0.16655,-0.020525,-0.47515,0.12905,0.50211,-0.26616,0.3152,-0.00081857,-0.56814,-1.228,-0.082739,-0.15871,0.090467,0.67855,0.035511,1.2558,-1.7087,-0.068144,-0.0090541,-0.24845,0.31658,2.1528
-0.0071458,0.013733,0.15926,-0.027494,-0.44259,0.10366,0.47668,-0.21367,0.41694,0.11854,-0.63603,-1.2853,-0.13643,-0.21135,0.199,0.61963,0.021921,1.0101,-0.95139,0.0038054,0.011049,-0.24392,-0.067768,2.9649
-0.0075527,0.0093072,0.15256,-0.031369,-0.41634,0.059709,0.43099,-0.16514,0.50282,0.20671,-0.70845,-1.3324,-0.23782,-0.22301,0.30615,0.52129,0.016434,0.75114,-0.058504,0.083936,0.02372,-0.22515,-0.4713,3.5438
-0.0073337,0.0056549,0.14711,-0.032506,-0.40338,0.0034373,0.38053,-0.13015,0.55639,0.25527,-0.77135,-1.377,-0.35393,-0.20945,0.40596,0.10835,0.011679,0.46988,0.80483,0.15117,0.034094,-0.18943,-0.8323,3.7922
-0.0065959,0.0067074,0.14375,-0.03283,-0.40384,-0.052488,0.33814,-0.11416,0.57348,0.26092,-0.81945,-1.4234,-0.42433,-0.17971,0.49109,-0.67954,-0.00091479,0.14427,1.4477,0.18434,0.04883,-0.13907,-1.0998,3.692
-0.0057933,0.012817,0.14298,-0.034346,-0.41013,-0.091053,0.31075,-0.11398,0.55951,0.22411,-0.85545,-1.4695,-0.40378,-0.13391,0.55481,-1.6135,-0.022568,-0.22854,1.7587,0.1775,0.07207,-0.081232,-1.2613,3.3043
-0.0046239,0.020601,0.14367,-0.037763,-0.41107,-0.096687,0.29673,-0.11878,0.52298,0.1511,-0.88384,-1.5098,-0.29227,-0.070819,0.59225,-2.3362,-0.045487,-0.61091,1.7693,0.14534,0.10322,-0.024135,-1.3466,2.7479
-0.0021854,0.025361,0.14286,-0.042275,-0.39829,-0.062266,0.28494,-0.11643,0.4702,0.056865,-0.90544,-1.5405,-0.12991,0.0029835,0.60077,-2.619,-0.059237,-0.92863,1.6289,0.11307,0.1373,0.0273,-1.4042,2.1524
0.0016589,0.024325,0.13739,-0.046495,-0.37072,0.0071775,0.25782,-0.10086,0.40404,-0.036105,-0.91733,-1.5629,0.034905,0.071258,0.58091,-2.5019,-0.058973,-1.0983,1.5121,0.098412,0.16748,0.072945,-1.4681,1.5984
0.0053495,0.018453,0.12635,-0.04959,-0.33421,0.096922,0.19941,-0.075176,0.32584,-0.10552,-0.91635,-1.5824,0.17474,0.11607,0.53805,-2.2186,-0.048148,-1.0643,1.5231,0.10014,0.18833,0.11513,-1.5426,1.085
0.0065244,0.011639,0.11208,-0.051634,-0.29693,0.18973,0.10491,-0.048468,0.2384,-0.1401,-0.9014,-1.6047,0.28681,0.12915,0.48331,-1.9944,-0.033951,-0.82719,1.6632,0.10263,0.19849,0.15475,-1.6176,0.55785
0.0042054,0.0080359,0.098516,-0.053032,-0.26434,0.27289,-0.014149,-0.028897,0.1478,-0.14578,-0.87175,-1.6312,0.37383,0.11716,0.43183,-1.9029,-0.020564,-0.45109,1.8726,0.092176,0.20104,0.18906,-1.6993,-0.017649
0.00014454,0.0094653,0.088037,-0.053802,-0.23706,0.34067,-0.13353,-0.018108,0.062645,-0.14173,-0.82401,-1.6583,0.42518,0.09629,0.39825,-1.8885,-0.006821,-0.043394,2.1011,0.070623,0.20143,0.21285,-1.8242,-0.5928
-0.0022578,0.014654,0.079648,-0.053545,-0.21284,0.3919,-0.22751,-0.010437,-0.0088029,-0.14789,-0.75308,-1.6789,0.4183,0.080142,0.3914,-1.8997,0.010016,0.28634,2.3446,0.054922,0.20382,0.22182,-2.039,-1.0406
-0.00075934,0.020512,0.07021,-0.052088,-0.19022,0.42597,-0.28124,0.0034782,-0.061895,-0.17227,-0.65794,-1.686,0.3387,0.070082,0.4108,-1.9855,0.028819,0.4711,2.6213,0.06327,0.20851,0.2156,-2.3563,-1.2346
0.0036989,0.024248,0.057783,-0.049986,-0.17105,0.44129,-0.29662,0.031917,-0.096831,-0.20714,-0.54755,-1.6756,0.19841,0.055413,0.4464,-2.2596,0.043344,0.51205,2.9162,0.10007,0.2121,0.19845,-2.7236,-1.1449
0.0076767,0.024752,0.044022,-0.048143,-0.15998,0.43721,-0.28846,0.079143,-0.11683,-0.23622,-0.43944,-1.6481,0.034537,0.023232,0.48168,-2.7696,0.046561,0.46924,3.1503,0.15197,0.21062,0.17732,-3.0342,-0.87604
0.0080714,0.022596,0.033321,-0.046832,-0.16132,0.41672,-0.27371,0.14491,-0.12489,-0.24721,-0.34982,-1.6079,-0.11196,-0.029349,0.49914,-3.4005,0.036334,0.4209,3.2056,0.19713,0.20296,0.15881,-3.1795,-0.61289
0.0045619,0.019107,0.029301,-0.045194,-0.17544,0.38679,-0.26136,0.22507,-0.12224,-0.23997,-0.28224,-1.562,-0.21912,-0.089695,0.4875,-3.9071,0.016989,0.41477,2.9912,0.21912,0.19206,0.14672,-3.105,-0.51149
-0.00044402,0.015503,0.031647,-0.041976,-0.19675,0.35503,-0.24918,0.312,-0.11033,-0.22476,-0.22464,-1.5171,-0.28989,-0.13529,0.44837,-4.0526,-0.0046051,0.44117,2.4982,0.21448,0.18303,0.14149,-2.8344,-0.61244
-0.0040691,0.012625,0.036023,-0.037034,-0.21477,0.32516,-0.22906,0.39526,-0.094387,-0.21277,-0.15857,-1.4785,-0.33841,-0.14707,0.39871,-3.7457,-0.024607,0.44388,1.8026,0.19002,0.17985,0.1413,-2.4461,-0.83353
-0.005171,0.011127,0.037094,-0.032103,-0.21811,0.29498,-0.19613,0.46327,-0.084437,-0.2066,-0.073233,-1.4479,-0.37054,-0.12163,0.36517,-3.0752,-0.044252,0.35986,1.0167,0.15482,0.18317,0.14356,-2.0272,-1.0381
-0.0045557,0.011576,0.032101,-0.029833,-0.19929,0.2586,-0.15479,0.50647,-0.091129,-0.19791,0.027612,-1.4245,-0.37563,-0.073793,0.37064,-2.2338,-0.066613,0.16106,0.22906,0.11469,0.19034,0.14544,-1.6389,-1.1233
-0.0033858,0.014202,0.022143,-0.031663,-0.15744,0.21146,-0.11664,0.52008,-0.1184,-0.17371,0.13159,-1.4058,-0.33544,-0.028042,0.41947,-1.4022,-0.091086,-0.1264,-0.52357,0.072526,0.19682,0.14343,-1.3114,-1.0689
-0.001684,0.018457,0.010468,-0.03634,-0.097108,0.1543,-0.09176,0.50515,-0.15865,-0.12646,0.23069,-1.3889,-0.2413,-0.0044734,0.4912,-0.67998,-0.11048,-0.43278,-1.2387,0.031768,0.19755,0.13296,-1.0581,-0.92414
0.0015133,0.022868,-0.00049983,-0.040519,-0.02424,0.093147,-0.079755,0.46706,-0.1952,-0.061029,0.32855,-1.3714,-0.10589,-0.0090148,0.54873,-0.090786,-0.11335,-0.67351,-1.9074,-0.0023226,0.18815,0.10982,-0.88521,-0.7577
0.006652,0.025468,-0.010859,-0.041062,0.057064,0.035254,-0.067599,0.4131,-0.21166,0.0060697,0.4346,-1.3501,0.038492,-0.033854,0.55725,0.37059,-0.090364,-0.77878,-2.4897,-0.025756,0.16641,0.073186,-0.78678,-0.61427
0.012494,0.024762,-0.022521,-0.037132,0.14385,-0.015852,-0.036461,0.35078,-0.20216,0.054832,0.55015,-1.3215,0.15314,-0.066453,0.50239,0.7051,-0.040351,-0.71339,-2.9285,-0.040597,0.13429,0.028508,-0.73285,-0.50172
0.01657,0.020697,-0.036963,-0.030376,0.23047,-0.062769,0.027181,0.28711,-0.17512,0.072177,0.65984,-1.2824,0.20934,-0.099465,0.39635,0.9123,0.027682,-0.48536,-3.1915,-0.05666,0.099118,-0.012657,-0.67095,-0.40545
0.016898,0.014976,-0.053388,-0.023256,0.30596,-0.11243,0.12409,0.22801,-0.14741,0.058589,0.73783,-1.232,0.19979,-0.13422,0.26928,1.0115,0.098277,-0.14434,-3.3048,-0.087649,0.072069,-0.036736,-0.54704,-0.3087
0.013446,0.010257,-0.068669,-0.017179,0.35654,-0.17149,0.24344,0.1769,-0.13239,0.027291,0.76498,-1.1733,0.1405,-0.17639,0.1528,1.0494,0.15701,0.23139,-3.3492,-0.14356,0.063529,-0.034384,-0.33439,-0.20397
0.0081497,0.0085278,-0.078993,-0.012005,0.37222,-0.24208,0.37069,0.13293,-0.13041,-0.0031892,0.74335,-1.1115,0.061785,-0.22885,0.065941,1.083,0.19745,0.56022,-3.4125,-0.22382,0.077553,-0.0051577,-0.050054,-0.095095
0.0035689,0.0096962,-0.082031,-0.0070297,0.35201,-0.32036,0.49505,0.090995,-0.12888,-0.018401,0.69575,-1.051,-0.008965,-0.28784,0.010034,1.1524,0.22321,0.78888,-3.5272,-0.31502,0.10893,0.042253,0.25283,0.0038456
0.0013102,0.011591,-0.078311,-0.0021345,0.30267,-0.39845,0.61049,0.044621,-0.11313,-0.013891,0.65055,-0.99239,-0.065323,-0.34487,-0.027798,1.2657,0.24353,0.91508,-3.6357,-0.39402,0.14524,0.094242,0.51229,0.07121
0.0013238,0.011656,-0.071148,0.0020623,0.23204,-0.46811,0.71021,-0.0089319,-0.080774,0.0049792,0.62345,-0.93332,-0.12946,-0.39086,-0.066334,1.4015,0.26524,0.98621,-3.6091,-0.43515,0.17298,0.13829,0.68797,0.085845
0.0023869,0.0091862,-0.065256,0.0050026,0.14342,-0.52377,0.78032,-0.064753,-0.048764,0.02787,0.60944,-0.8713,-0.23987,-0.41823,-0.1211,1.5214,0.28686,1.0707,-3.3159,-0.4193,0.18431,0.16747,0.77932,0.041065
