5.5371e-010,8.6626e-010,-9.4343e-010,-5.2091e-011,-2.1801e-010,1.3987e-009,4.721e-009,3.4535e-010,1.2174e-009,2.1396e-009,2.2361e-009,-6.849e-010,1.7557e-010,7.505e-010,-3.7062e-009,3.6078e-010,3.3377e-010,-3.8181e-009,9.5713e-009,1.5917e-009,-1.2984e-009,7.4278e-010,-1.0746e-009,3.1062e-010
1.5097e-008,2.41e-008,-2.6468e-008,-1.5745e-009,-6.1865e-009,3.8598e-008,1.3061e-007,9.3001e-009,3.3421e-008,5.8704e-008,6.1594e-008,-1.8799e-008,4.7397e-009,2.0631e-008,-1.0245e-007,9.7767e-009,9.3506e-009,-1.0626e-007,2.6726e-007,4.4462e-008,-3.4669e-008,2.0503e-008,-2.9819e-008,8.5758e-009
2e-007,3.2598e-007,-3.6147e-007,-2.2999e-008,-8.5207e-008,5.1791e-007,1.7566e-006,1.216e-007,4.4566e-007,7.8234e-007,8.2428e-007,-2.5065e-007,6.1957e-008,2.7568e-007,-1.3774e-006,1.29e-007,1.2753e-007,-1.439e-006,3.6321e-006,6.0418e-007,-4.4739e-007,2.7518e-007,-4.0287e-007,1.1528e-007
1.7153e-006,2.8558e-006,-3.2022e-006,-2.1648e-007,-7.5876e-007,4.5021e-006,1.5301e-005,1.028e-006,3.8455e-006,6.746e-006,7.1388e-006,-2.1625e-006,5.2219e-007,2.3857e-006,-1.2e-005,1.1046e-006,1.1279e-006,-1.2637e-005,3.2011e-005,5.3216e-006,-3.7114e-006,2.3929e-006,-3.5315e-006,1.0053e-006
1.0704e-005,1.8211e-005,-2.0685e-005,-1.4767e-006,-4.9096e-006,2.8496e-005,9.7016e-005,6.3135e-006,2.4131e-005,4.2294e-005,4.4963e-005,-1.3568e-005,3.1871e-006,1.5027e-005,-7.6145e-005,6.9032e-006,7.2707e-006,-8.0891e-005,0.00020571,3.4154e-005,-2.219e-005,1.5154e-005,-2.2579e-005,6.3946e-006
5.1777e-005,9.0061e-005,-0.00010384,-7.7824e-006,-2.4592e-005,0.00013993,0.00047706,2.9989e-005,0.00011733,0.00020538,0.00021937,-6.5956e-005,1.4996e-005,7.3413e-005,-0.00037501,3.3561e-005,3.6387e-005,-0.00040225,0.0010272,0.00017021,-0.00010152,7.4481e-005,-0.00011221,3.1616e-005
0.00020196,0.00035924,-0.00042159,-3.2981e-005,-9.9188e-005,0.00055455,0.0018924,0.00011449,0.00045977,0.00080325,0.0008621,-0.00025835,5.652e-005,0.00028935,-0.0014913,0.0001321,0.00014703,-0.0016169,0.0041479,0.00068546,-0.00036757,0.0002956,-0.0004511,0.00012644
0.00065227,0.0011866,-0.0014222,-0.00011546,-0.00033076,0.001821,0.0062175,0.00036019,0.0014909,0.0025972,0.0028007,-0.00083714,0.00017498,0.00094478,-0.0049178,0.0004325,0.00049238,-0.0053971,0.013916,0.0022912,-0.0010712,0.000973,-0.0015069,0.00042018
0.0017767,0.0033055,-0.0040638,-0.00034018,-0.00092892,0.0050471,0.017233,0.00094896,0.0040755,0.0070674,0.0076556,-0.0022856,0.00045246,0.0026032,-0.013703,0.0012002,0.0013914,-0.015248,0.039537,0.0064789,-0.002515,0.002707,-0.0042633,0.0011827
0.0041348,0.0078659,-0.0099777,-0.00085465,-0.0022261,0.011959,0.040813,0.0021133,0.0095148,0.016385,0.017819,-0.0053262,0.00098747,0.006132,-0.032694,0.0028605,0.0033585,-0.036971,0.096485,0.015714,-0.0046414,0.0064523,-0.01036,0.0028598
0.0082957,0.016128,-0.021277,-0.001846,-0.0045938,0.024438,0.083311,0.0039887,0.019145,0.032609,0.035567,-0.01069,0.0018287,0.012457,-0.06743,0.0059077,0.0069777,-0.077732,0.20434,0.033017,-0.0061169,0.013306,-0.021851,0.0060019
0.014428,0.028643,-0.039738,-0.0034406,-0.0082121,0.043287,0.14731,0.0063407,0.033392,0.055902,0.061045,-0.018587,0.0028735,0.02194,-0.12099,0.010624,0.012517,-0.14279,0.37849,0.060522,-0.0031866,0.023897,-0.040322,0.011017
0.021809,0.044143,-0.065438,-0.0055203,-0.012761,0.066567,0.22598,0.008304,0.050636,0.082438,0.089844,-0.028108,0.0038032,0.033554,-0.18956,0.016649,0.019342,-0.23048,0.61654,0.097235,0.01067,0.037533,-0.065517,0.017786
0.028638,0.058948,-0.095586,-0.0075323,-0.017265,0.088658,0.29997,0.0084082,0.066767,0.10374,0.11219,-0.037066,0.0041564,0.044452,-0.25977,0.022633,0.025466,-0.3283,0.88692,0.13726,0.042833,0.051639,-0.094303,0.025361
0.032571,0.067845,-0.12468,-0.0084532,-0.020379,0.10148,0.34192,0.0051247,0.076359,0.10926,0.11587,-0.042816,0.0035654,0.050603,-0.31138,0.026354,0.027742,-0.41448,1.1306,0.1704,0.096847,0.062206,-0.12114,0.03205
0.031948,0.06665,-0.14662,-0.0070626,-0.021164,0.098231,0.32944,-0.0021709,0.075395,0.091987,0.092959,-0.043879,0.0020254,0.048672,-0.32662,0.025562,0.023009,-0.46664,1.2824,0.18601,0.16683,0.065465,-0.14054,0.036069
0.027032,0.055159,-0.15793,-0.0025323,-0.019935,0.077903,0.2606,-0.012384,0.06402,0.0542,0.046741,-0.041314,-3.5096e-005,0.038252,-0.30171,0.019338,0.0097893,-0.47388,1.304,0.17878,0.23527,0.060048,-0.15042,0.036493
0.020247,0.038189,-0.16005,0.0049206,-0.018469,0.047223,0.16013,-0.022743,0.04711,0.0085748,-0.0068369,-0.038417,-0.0019999,0.022851,-0.25196,0.0091926,-0.010451,-0.44374,1.2073,0.15258,0.2781,0.048145,-0.1538,0.033937
0.014892,0.023232,-0.15857,0.013757,-0.019042,0.017731,0.068473,-0.029949,0.031696,-0.02747,-0.046274,-0.038333,-0.0034608,0.0084771,-0.2044,-0.0011134,-0.033517,-0.39702,1.0477,0.1191,0.27644,0.03456,-0.15695,0.030374
0.013012,0.015784,-0.15953,0.021583,-0.022614,-0.00089914,0.018055,-0.031785,0.022789,-0.041455,-0.057034,-0.04103,-0.0044237,0.00030911,-0.18077,-0.0074788,-0.054292,-0.35265,0.88771,0.091269,0.22849,0.023974,-0.1647,0.028072
0.014003,0.01573,-0.16532,0.026332,-0.027384,-0.0067275,0.012769,-0.028066,0.020751,-0.032819,-0.040882,-0.042226,-0.0051406,-0.00038733,-0.18269,-0.0083399,-0.069067,-0.31404,0.75472,0.075762,0.15261,0.018273,-0.17652,0.02826
0.015169,0.017817,-0.17332,0.027551,-0.028983,-0.0060081,0.027151,-0.020196,0.022344,-0.011901,-0.014539,-0.035789,-0.0057581,0.0032234,-0.1912,-0.0066561,-0.076885,-0.26897,0.62798,0.070144,0.077664,0.015861,-0.18684,0.030428
0.013944,0.016074,-0.17842,0.026908,-0.022671,-0.0076768,0.027093,-0.0097969,0.024381,0.0082482,0.0020254,-0.018323,-0.0061561,0.0061402,-0.18241,-0.0091742,-0.079171,-0.20447,0.46563,0.066671,0.025939,0.013404,-0.18989,0.032743
0.0099679,0.0085691,-0.17727,0.027322,-0.0063407,-0.016209,-0.0037177,0.0023072,0.026504,0.020558,-0.001091,0.0075838,-0.0061235,0.0053113,-0.147,-0.022705,-0.078233,-0.12374,0.25106,0.059512,0.00078779,0.0084777,-0.18497,0.033316
0.0052267,-0.0015307,-0.17083,0.031095,0.017655,-0.028587,-0.052901,0.015824,0.030426,0.02633,-0.018973,0.034348,-0.005627,0.0016282,-0.097562,-0.04939,-0.075906,-0.048934,0.018806,0.049289,-0.012034,0.00099942,-0.1772,0.031519
0.0020746,-0.0093475,-0.16292,0.038309,0.043231,-0.0375,-0.092433,0.029846,0.03646,0.030363,-0.038654,0.054125,-0.0048581,-0.0014577,-0.057437,-0.084153,-0.07305,-0.0048574,-0.16403,0.041422,-0.03075,-0.00746,-0.17268,0.028533
0.00091535,-0.012821,-0.15649,0.046801,0.063506,-0.037539,-0.10362,0.042251,0.04108,0.034198,-0.050684,0.063553,-0.0040737,-0.0014556,-0.040786,-0.11647,-0.069648,0.0034793,-0.24722,0.04028,-0.062902,-0.015454,-0.17231,0.026818
-0.00030211,-0.014128,-0.15082,0.053913,0.074064,-0.028912,-0.092165,0.050595,0.038589,0.034029,-0.055352,0.064653,-0.0035409,0.0006191,-0.041216,-0.13572,-0.064909,-0.00063582,-0.23687,0.04472,-0.10123,-0.0227,-0.17017,0.028728
-0.0042019,-0.016841,-0.14215,0.058641,0.074553,-0.016029,-0.081204,0.053857,0.026055,0.024786,-0.059101,0.061417,-0.0037179,0.00097814,-0.038445,-0.13674,-0.057321,0.019536,-0.19208,0.048954,-0.13224,-0.02957,-0.15835,0.03497
-0.011343,-0.021849,-0.12715,0.062281,0.067941,-0.0032143,-0.09001,0.053212,0.0071566,0.0058739,-0.065842,0.055469,-0.0053481,-0.0035112,-0.016381,-0.12193,-0.04516,0.086939,-0.18098,0.047693,-0.14889,-0.035876,-0.13413,0.043745
-0.019246,-0.026179,-0.10593,0.066847,0.05834,0.0080007,-0.11828,0.05073,-0.0090489,-0.017288,-0.072003,0.044934,-0.0090604,-0.012261,0.02373,-0.098788,-0.027604,0.19351,-0.23175,0.040681,-0.15594,-0.040492,-0.10303,0.051278
-0.024102,-0.025923,-0.082078,0.072627,0.048973,0.017902,-0.14924,0.046942,-0.014225,-0.037346,-0.069798,0.027587,-0.014622,-0.021098,0.066134,-0.074763,-0.0056529,0.30749,-0.317,0.032605,-0.16421,-0.042348,-0.074701,0.053745
-0.023819,-0.020416,-0.059828,0.077256,0.041281,0.025942,-0.1668,0.039693,-0.0070491,-0.050555,-0.055019,0.0052272,-0.020589,-0.025603,0.095605,-0.05318,0.018147,0.39904,-0.38188,0.028649,-0.18007,-0.041782,-0.055372,0.049623
-0.019815,-0.013531,-0.040877,0.077504,0.035121,0.029925,-0.17003,0.025844,0.0055759,-0.058375,-0.031585,-0.015034,-0.024936,-0.024711,0.11052,-0.032794,0.041115,0.46265,-0.39215,0.029752,-0.20013,-0.040731,-0.043438,0.040875
-0.015979,-0.010741,-0.023658,0.072346,0.029459,0.02811,-0.17189,0.0046879,0.013716,-0.063857,-0.0085708,-0.024197,-0.026312,-0.021331,0.12276,-0.010708,0.061598,0.51798,-0.36464,0.031529,-0.21566,-0.041317,-0.03193,0.031884
-0.015594,-0.014557,-0.0054642,0.06441,0.023116,0.021804,-0.18524,-0.020033,0.012117,-0.066767,0.0072318,-0.01688,-0.024859,-0.019439,0.14581,0.01395,0.078533,0.58933,-0.35885,0.027406,-0.22169,-0.043958,-0.01521,0.026647
-0.018754,-0.022433,0.014664,0.058096,0.015455,0.01522,-0.21028,-0.041846,0.0044379,-0.062593,0.01619,0.005549,-0.021864,-0.020391,0.18261,0.038522,0.089763,0.68132,-0.43783,0.012986,-0.22194,-0.04675,0.0062901,0.026226
-0.022373,-0.028906,0.034904,0.055783,0.0068703,0.012224,-0.23493,-0.0562,0.00079082,-0.046643,0.023977,0.036517,-0.01868,-0.021915,0.22363,0.058529,0.091146,0.77049,-0.62787,-0.011913,-0.22521,-0.046792,0.027333,0.028462
-0.022799,-0.029995,0.052372,0.055652,-0.0012676,0.01296,-0.24672,-0.064383,0.010604,-0.019282,0.035326,0.068735,-0.016028,-0.020702,0.25556,0.071073,0.078145,0.81873,-0.90357,-0.044646,-0.23691,-0.04245,0.043474,0.030164
-0.018878,-0.026091,0.065984,0.053458,-0.0074655,0.013703,-0.24406,-0.073217,0.036204,0.012834,0.049617,0.097703,-0.014224,-0.01604,0.27209,0.077145,0.049249,0.79733,-1.2056,-0.082637,-0.2537,-0.034721,0.055547,0.029862
-0.01304,-0.021155,0.077923,0.046933,-0.011337,0.010253,-0.23671,-0.090208,0.0715,0.040945,0.062268,0.12187,-0.013739,-0.01094,0.27748,0.080958,0.0084475,0.70373,-1.4758,-0.12493,-0.26548,-0.026553,0.068989,0.028786
-0.0095395,-0.0193,0.092432,0.038721,-0.014207,0.0017571,-0.23612,-0.11752,0.10598,0.06009,0.070057,0.14057,-0.015127,-0.0095636,0.28127,0.086821,-0.035703,0.56053,-1.6863,-0.17118,-0.2623,-0.020699,0.088907,0.02932
-0.011235,-0.021758,0.11295,0.034701,-0.018297,-0.0084992,-0.24543,-0.14922,0.13045,0.07146,0.074808,0.15265,-0.018198,-0.013337,0.28988,0.096098,-0.074163,0.40052,-1.845,-0.21957,-0.23985,-0.017792,0.11561,0.032484
-0.017402,-0.026477,0.13984,0.038726,-0.024845,-0.015947,-0.25813,-0.17403,0.14061,0.079356,0.081731,0.15727,-0.021428,-0.019388,0.3024,0.10668,-0.10181,0.24972,-1.9786,-0.26603,-0.20008,-0.016102,0.14458,0.036754
-0.024201,-0.030136,0.17033,0.048365,-0.032648,-0.018501,-0.26534,-0.18167,0.13695,0.085865,0.094034,0.15512,-0.02258,-0.022813,0.31307,0.11532,-0.11918,0.11857,-2.1066,-0.30595,-0.14843,-0.013093,0.17056,0.039143
-0.027419,-0.030562,0.20013,0.055791,-0.038462,-0.017918,-0.26393,-0.16842,0.12257,0.088246,0.10905,0.14755,-0.020289,-0.02071,0.3171,0.12079,-0.13083,0.0032418,-2.2243,-0.33699,-0.092035,-0.0075172,0.19177,0.037394
-0.025409,-0.027749,0.22559,0.053513,-0.039273,-0.017847,-0.258,-0.13835,0.10117,0.081225,0.11966,0.13315,-0.015198,-0.014436,0.31467,0.125,-0.14212,-0.10799,-2.3046,-0.3602,-0.040382,-0.00051577,0.21042,0.031345
-0.020133,-0.023186,0.24491,0.040257,-0.034763,-0.020595,-0.2536,-0.099739,0.076188,0.061747,0.1197,0.1049,-0.0095066,-0.0082487,0.31027,0.13123,-0.15667,-0.22811,-2.3142,-0.37807,-0.0057942,0.0050351,0.22956,0.022559
-0.015659,-0.01857,0.25843,0.022012,-0.027896,-0.025505,-0.25255,-0.059703,0.050373,0.03171,0.10858,0.051635,-0.0053103,-0.0058588,0.30904,0.14072,-0.17532,-0.36586,-2.2302,-0.39081,0.00014233,0.0064178,0.24943,0.012973
-0.015292,-0.015028,0.26823,0.0073807,-0.02306,-0.030048,-0.25119,-0.020834,0.024902,-0.003561,0.091235,-0.036057,-0.003305,-0.008015,0.31322,0.15076,-0.19612,-0.52054,-2.0476,-0.39414,-0.026267,0.0028749,0.26707,0.0038981
-0.019388,-0.013068,0.27724,0.0012232,-0.023191,-0.03228,-0.24421,0.018159,-0.0014483,-0.0392,0.073983,-0.15927,-0.0030067,-0.012959,0.32133,0.15617,-0.21463,-0.67809,-1.7743,-0.38125,-0.075507,-0.0038959,0.2793,-0.0040971
-0.02524,-0.012744,0.28773,0.0017266,-0.028188,-0.032432,-0.22916,0.058998,-0.031747,-0.073124,0.060492,-0.30854,-0.0040329,-0.018697,0.32998,0.15315,-0.22483,-0.81232,-1.4239,-0.34804,-0.12732,-0.010851,0.28601,-0.010951
-0.028924,-0.013556,0.29964,0.0027721,-0.035666,-0.03248,-0.20738,0.10045,-0.068356,-0.10478,0.051174,-0.46733,-0.0068696,-0.024491,0.33633,0.14275,-0.22134,-0.89405,-1.0127,-0.29795,-0.16126,-0.015502,0.29057,-0.017191
-0.027766,-0.014277,0.31019,-0.0010162,-0.043075,-0.034384,-0.18143,0.13737,-0.10991,-0.13208,0.045721,-0.61822,-0.012121,-0.030126,0.33939,0.13095,-0.20233,-0.90556,-0.56477,-0.24231,-0.16848,-0.017258,0.297,-0.024181
-0.021847,-0.013277,0.31549,-0.010823,-0.049222,-0.038578,-0.15261,0.16259,-0.15054,-0.15011,0.045471,-0.74724,-0.018929,-0.034036,0.33943,0.12504,-0.17148,-0.85168,-0.11405,-0.19546,-0.15581,-0.017283,0.30656,-0.033759
-0.013768,-0.0095263,0.3138,-0.023943,-0.05409,-0.04377,-0.12112,0.1702,-0.18271,-0.15365,0.052982,-0.84459,-0.024292,-0.032723,0.33638,0.12875,-0.13696,-0.75946,0.3019,-0.16752,-0.13883,-0.017098,0.3171,-0.046896
-0.0070127,-0.0036268,0.30762,-0.036562,-0.057645,-0.047971,-0.088212,0.15842,-0.20199,-0.14151,0.069504,-0.90387,-0.024305,-0.022655,0.32879,0.13957,-0.10757,-0.66519,0.65696,-0.15964,-0.1293,-0.017113,0.3253,-0.062238
-0.0040067,0.0021413,0.30263,-0.0463,-0.05915,-0.04984,-0.057294,0.13087,-0.20985,-0.11876,0.093334,-0.92253,-0.016573,-0.003322,0.31438,0.1501,-0.08833,-0.59645,0.94849,-0.16465,-0.12672,-0.016322,0.32963,-0.076013
-0.0049931,0.0051892,0.30355,-0.052924,-0.05775,-0.049451,-0.032233,0.095564,-0.21187,-0.094432,0.12091,-0.90409,-0.0019382,0.021273,0.2917,0.1523,-0.078381,-0.55978,1.1948,-0.17203,-0.11997,-0.013345,0.33103,-0.084002
-0.0082631,0.0046132,0.31021,-0.05769,-0.053633,-0.048092,-0.014212,0.061966,-0.21252,-0.075971,0.14928,-0.85887,0.015806,0.044214,0.26178,0.14194,-0.072136,-0.54038,1.4174,-0.17337,-0.096386,-0.0078504,0.33115,-0.084441
-0.011445,0.0022516,0.31735,-0.062437,-0.048417,-0.047297,-0.00027316,0.037323,-0.211,-0.064761,0.17682,-0.80076,0.03188,0.05932,0.22837,0.12055,-0.062435,-0.51182,1.6203,-0.16468,-0.050046,-0.0010423,0.33017,-0.079628
-0.012941,0.0017284,0.31864,-0.06886,-0.044236,-0.047718,0.014834,0.024064,-0.20228,-0.056153,0.20111,-0.74065,0.042732,0.064175,0.19656,0.094367,-0.043326,-0.44915,1.784,-0.14519,0.017105,0.0052075,0.32659,-0.074678
-0.012586,0.0059282,0.3118,-0.077698,-0.042293,-0.048601,0.03496,0.01997,-0.18264,-0.043711,0.21636,-0.6809,0.047219,0.060593,0.17073,0.071361,-0.011386,-0.33906,1.879,-0.11503,0.1003,0.0097822,0.31909,-0.074105
-0.011184,0.014706,0.30018,-0.087952,-0.042188,-0.048319,0.060116,0.021034,-0.15506,-0.024057,0.21399,-0.6154,0.046489,0.05271,0.15272,0.057718,0.033804,-0.18449,1.8886,-0.074471,0.19644,0.013028,0.30826,-0.078757
-0.0094324,0.024641,0.28965,-0.097005,-0.042585,-0.045725,0.087216,0.024868,-0.12897,0.0014302,0.18745,-0.53577,0.043098,0.0445,0.1411,0.055046,0.089103,-0.003787,1.8219,-0.025307,0.30267,0.016205,0.29635,-0.085468
-0.0072105,0.031161,0.28335,-0.10226,-0.042518,-0.041352,0.11313,0.031952,-0.11397,0.028692,0.13768,-0.43953,0.039912,0.038347,0.13168,0.059124,0.14746,0.17508,1.706,0.027787,0.41078,0.020316,0.28518,-0.089666
-0.0038882,0.031519,0.27908,-0.10345,-0.042137,-0.037321,0.13736,0.043769,-0.11264,0.054064,0.07433,-0.33436,0.039056,0.034996,0.11931,0.061187,0.19919,0.32393,1.5666,0.07822,0.50419,0.025405,0.27449,-0.088832
0.00062065,0.026434,0.27154,-0.1035,-0.042303,-0.035755,0.16224,0.05967,-0.11905,0.074988,0.01076,-0.23521,0.041106,0.034104,0.10046,0.052198,0.2355,0.42441,1.4133,0.12072,0.5631,0.030809,0.26251,-0.084071
0.005097,0.019245,0.25714,-0.1067,-0.043533,-0.036842,0.19059,0.075488,-0.12505,0.087878,-0.043627,-0.1563,0.044925,0.034673,0.075181,0.028659,0.25256,0.47413,1.2441,0.15419,0.57542,0.035845,0.24819,-0.078735
0.0074651,0.013388,0.23703,-0.11509,-0.045366,-0.038326,0.22292,0.085322,-0.12898,0.086089,-0.088005,-0.10339,0.048427,0.035288,0.047279,-0.0036101,0.25327,0.4851,1.0625,0.18149,0.54515,0.040061,0.23267,-0.075503
0.0063388,0.010251,0.2158,-0.12611,-0.046732,-0.037201,0.25626,0.085048,-0.13886,0.061417,-0.12816,-0.071306,0.050006,0.034497,0.021946,-0.031379,0.24474,0.47519,0.88808,0.20594,0.49062,0.042892,0.21834,-0.074505
0.0024658,0.0089418,0.19737,-0.1339,-0.046891,-0.032398,0.28555,0.074726,-0.16648,0.0093586,-0.16977,-0.047797,0.049655,0.031426,0.0024335,-0.04195,0.23336,0.45762,0.74753,0.22755,0.43302,0.043326,0.20634,-0.073922
-0.0012798,0.0078103,0.18208,-0.13357,-0.045985,-0.026098,0.30643,0.058306,-0.21658,-0.065759,-0.21217,-0.020686,0.048841,0.026241,-0.011832,-0.032627,0.22094,0.43538,0.65078,0.24227,0.38375,0.040328,0.19495,-0.072225
-0.0016573,0.0061497,0.16732,-0.12508,-0.044604,-0.022238,0.3176,0.041438,-0.28011,-0.15047,-0.24721,0.016201,0.049112,0.020016,-0.024121,-0.0148,0.20522,0.40372,0.5736,0.24511,0.33981,0.033878,0.18081,-0.069787
0.0025751,0.0046504,0.15069,-0.11344,-0.04278,-0.023278,0.32134,0.029265,-0.33702,-0.22778,-0.2636,0.06129,0.050479,0.014042,-0.037279,-0.0086459,0.1836,0.35829,0.46484,0.23441,0.29005,0.025606,0.16198,-0.068435
0.0094828,0.0045114,0.13236,-0.10495,-0.039472,-0.027981,0.32193,0.025224,-0.36613,-0.28471,-0.25362,0.10791,0.050944,0.0091367,-0.05143,-0.031136,0.15689,0.30217,0.27672,0.2137,0.22645,0.018137,0.13991,-0.069604
0.015012,0.0062952,0.11439,-0.10263,-0.033262,-0.032225,0.32333,0.030437,-0.35418,-0.31633,-0.21786,0.14956,0.047736,0.0054945,-0.064545,-0.085374,0.12966,0.24626,-0.0028408,0.18964,0.15135,0.013405,0.11841,-0.073066
0.015702,0.0095322,0.097991,-0.10451,-0.023869,-0.032239,0.32732,0.043119,-0.29846,-0.32372,-0.16553,0.18517,0.039443,0.0030771,-0.075118,-0.15879,0.10729,0.20273,-0.33933,0.16786,0.076031,0.011327,0.1003,-0.077469
0.011201,0.013091,0.081639,-0.10591,-0.013155,-0.027469,0.33311,0.058532,-0.20402,-0.30896,-0.11064,0.22154,0.027491,0.0020038,-0.084111,-0.23129,0.092788,0.17669,-0.66956,0.15016,0.013003,0.010126,0.084749,-0.081886
0.0047277,0.015642,0.062231,-0.10343,-0.0045129,-0.020685,0.33813,0.070533,-0.081162,-0.27229,-0.066184,0.27079,0.015732,0.0024132,-0.09413,-0.28733,0.086146,0.1629,-0.93496,0.13498,-0.031121,0.0081225,0.067906,-0.086524
0.0010331,0.015859,0.038235,-0.097096,-0.00078443,-0.015406,0.33942,0.074657,0.053696,-0.21384,-0.03902,0.3428,0.0082473,0.0038927,-0.10675,-0.32345,0.086367,0.15048,-1.1081,0.12014,-0.057323,0.0054038,0.046283,-0.09174
0.003167,0.012706,0.011878,-0.08944,-0.0021925,-0.012986,0.33507,0.070662,0.17704,-0.13763,-0.02758,0.43643,0.0067707,0.005147,-0.1209,-0.34706,0.093555,0.13248,-1.1973,0.10524,-0.070565,0.0037706,0.02012,-0.096518
0.010301,0.0061604,-0.011916,-0.082827,-0.0059198,-0.011788,0.32502,0.062054,0.26276,-0.05306,-0.023385,0.53578,0.009517,0.0044825,-0.13419,-0.36876,0.10882,0.11402,-1.2319,0.091674,-0.074963,0.0049845,-0.0062346,-0.098308
0.018204,-0.0020861,-0.029168,-0.077862,-0.0077595,-0.0088157,0.3112,0.052318,0.29269,0.028026,-0.015841,0.61584,0.012321,0.00091562,-0.1458,-0.39447,0.1323,0.11368,-1.2386,0.081021,-0.071728,0.0090008,-0.027265,-0.094794
0.022096,-0.0089832,-0.040034,-0.073883,-0.0046471,-0.0021479,0.29659,0.040728,0.26638,0.09643,0.0018045,0.65559,0.011371,-0.0050023,-0.15782,-0.42209,0.16188,0.15767,-1.2253,0.073724,-0.060694,0.013936,-0.040149,-0.086001
0.019845,-0.011858,-0.048742,-0.070391,0.0037215,0.0078578,0.28362,0.021672,0.20104,0.14835,0.028356,0.64994,0.0056324,-0.011438,-0.17333,-0.44312,0.19429,0.26995,-1.179,0.069626,-0.043206,0.017813,-0.046499,-0.07461
0.013217,-0.010382,-0.060291,-0.067576,0.015114,0.019213,0.27277,-0.011178,0.12072,0.1839,0.054947,0.61174,-0.0027534,-0.016486,-0.19274,-0.44683,0.22775,0.46254,-1.0781,0.06953,-0.023386,0.02032,-0.050846,-0.064013
0.0063654,-0.0069589,-0.076668,-0.065507,0.026278,0.029797,0.26235,-0.058756,0.042831,0.20363,0.070048,0.56192,-0.010293,-0.019359,-0.21226,-0.42506,0.26318,0.72959,-0.91401,0.075696,-0.0065257,0.022746,-0.057383,-0.055877
0.0028652,-0.0049332,-0.095707,-0.063287,0.034469,0.038334,0.24979,-0.11353,-0.026628,0.20679,0.066727,0.51572,-0.014642,-0.020608,-0.22609,-0.37691,0.30238,1.0465,-0.7073,0.090028,0.0041305,0.026076,-0.067603,-0.049443
0.00361,-0.0060349,-0.11338,-0.0595,0.03824,0.044356,0.23356,-0.16231,-0.086525,0.19273,0.047899,0.47605,-0.015776,-0.021345,-0.23095,-0.31225,0.34453,1.3749,-0.50834,0.11124,0.0096183,0.029179,-0.080352,-0.043075
0.0069691,-0.0093484,-0.1274,-0.053726,0.037682,0.047764,0.21429,-0.19294,-0.13117,0.16343,0.026073,0.43935,-0.015088,-0.022284,-0.2288,-0.25115,0.38437,1.6712,-0.37548,0.13381,0.014504,0.029095,-0.093694,-0.036333
0.01065,-0.012674,-0.13895,-0.047427,0.034571,0.048728,0.19427,-0.20007,-0.14939,0.12374,0.017338,0.40845,-0.013529,-0.02341,-0.22563,-0.21647,0.41419,1.897,-0.34235,0.15035,0.023368,0.023472,-0.10673,-0.030511
0.013417,-0.014839,-0.15128,-0.04294,0.032184,0.047957,0.17579,-0.18601,-0.13461,0.079068,0.033012,0.40138,-0.010741,-0.024356,-0.22711,-0.22143,0.42815,2.0255,-0.39554,0.15606,0.036925,0.013083,-0.12008,-0.027209
0.015293,-0.016606,-0.16653,-0.041261,0.034136,0.046741,0.15974,-0.15719,-0.096266,0.032903,0.074041,0.44807,-0.0060557,-0.024935,-0.23485,-0.2598,0.42535,2.0441,-0.4807,0.15169,0.050798,0.0020079,-0.13503,-0.026558
0.016494,-0.019363,-0.18371,-0.040754,0.042262,0.046286,0.14559,-0.11999,-0.059452,-0.012884,0.13141,0.57673,-0.00025719,-0.025265,-0.24587,-0.30722,0.4093,1.9524,-0.53444,0.14253,0.058277,-0.0049147,-0.15236,-0.026939
0.016536,-0.023104,-0.19943,-0.038292,0.054975,0.046792,0.13246,-0.079171,-0.049927,-0.055167,0.19182,0.79868,0.0039302,-0.025531,-0.25531,-0.33519,0.38463,1.7621,-0.51926,0.13428,0.05544,-0.0054045,-0.17167,-0.026421
0.014599,-0.026007,-0.21056,-0.031978,0.0679,0.047252,0.12009,-0.039137,-0.075317,-0.087372,0.24442,1.0996,0.0035949,-0.025719,-0.25982,-0.32851,0.35438,1.4986,-0.43555,0.12932,0.044919,-0.0011187,-0.19126,-0.02436
0.010786,-0.026214,-0.21648,-0.022954,0.07697,0.046423,0.10864,-0.0051343,-0.11859,-0.10105,0.28447,1.4397,-0.0016411,-0.025583,-0.25931,-0.29291,0.31992,1.2023,-0.30474,0.12621,0.03517,0.0039436,-0.20846,-0.021532
0.0068853,-0.024025,-0.21921,-0.01451,0.0817,0.044191,0.09789,0.017893,-0.15033,-0.090697,0.31231,1.7608,-0.0084706,-0.024768,-0.25618,-0.24668,0.2826,0.92153,-0.14261,0.12197,0.035242,0.0065461,-0.22056,-0.018779
0.005576,-0.022104,-0.22158,-0.0092522,0.085648,0.041874,0.086762,0.028312,-0.15043,-0.058052,0.32971,1.9988,-0.011805,-0.022934,-0.25347,-0.20395,0.24422,0.69593,0.0508,0.11415,0.048445,0.0062045,-0.22613,-0.015748
0.008503,-0.023211,-0.22519,-0.0069672,0.09329,0.040826,0.073955,0.029721,-0.12215,-0.012017,0.33711,2.102,-0.0086041,-0.019888,-0.25305,-0.16453,0.20529,0.5375,0.27666,0.10065,0.069407,0.0045838,-0.22611,-0.011206
0.014755,-0.027497,-0.22978,-0.0051138,0.10595,0.040478,0.059093,0.029433,-0.087586,0.035884,0.3333,2.0519,-0.00057392,-0.015818,-0.25498,-0.11947,0.16284,0.424,0.51611,0.07822,0.086767,0.0031715,-0.22364,-0.0047013
0.021105,-0.03201,-0.23387,-0.0013039,0.12055,0.037862,0.043076,0.03416,-0.069473,0.07706,0.31699,1.8772,0.0066869,-0.01151,-0.25766,-0.066549,0.1114,0.31335,0.72782,0.042254,0.089835,0.0015384,-0.22228,0.0022192
0.023996,-0.033094,-0.23605,0.0046711,0.13252,0.029582,0.027101,0.045983,-0.074294,0.10845,0.28811,1.6488,0.0077202,-0.0082234,-0.25873,-0.019848,0.04744,0.17234,0.87118,-0.010349,0.074823,-0.0021896,-0.22374,0.0067225
0.021857,-0.029627,-0.2358,0.011006,0.14005,0.014805,0.011263,0.061414,-0.089399,0.13114,0.24754,1.4509,0.0013538,-0.0070249,-0.25628,-0.0026453,-0.026131,-0.00072428,0.93457,-0.077493,0.046686,-0.0091532,-0.22716,0.0069379
0.016107,-0.024183,-0.23377,0.015631,0.14562,-0.0034478,-0.005757,0.07378,-0.09435,0.14733,0.1959,1.3412,-0.0083267,-0.0079417,-0.2501,-0.028358,-0.099902,-0.17722,0.94104,-0.1509,0.015712,-0.018,-0.23058,0.003671
0.010161,-0.021022,-0.23164,0.017542,0.1532,-0.020221,-0.025325,0.076841,-0.075936,0.15865,0.13259,1.3222,-0.014985,-0.0097076,-0.24213,-0.086701,-0.16338,-0.3222,0.92357,-0.21947,-0.0085506,-0.025333,-0.23341,-0.00015125
0.0072163,-0.022614,-0.23165,0.016606,0.16381,-0.032338,-0.046973,0.067353,-0.035425,0.16659,0.056174,1.3432,-0.014663,-0.010614,-0.23568,-0.1491,-0.2115,-0.42113,0.89132,-0.27441,-0.022007,-0.028165,-0.23726,-0.0019283
0.0083315,-0.027686,-0.23561,0.012777,0.1739,-0.04066,-0.06786,0.0458,0.015206,0.17331,-0.034119,1.3325,-0.0084447,-0.01004,-0.23335,-0.19106,-0.24658,-0.48683,0.81717,-0.31195,-0.026747,-0.026344,-0.24434,-0.0014792
0.011976,-0.032392,-0.24372,0.0062537,0.1779,-0.048812,-0.084392,0.015895,0.062471,0.18089,-0.13615,1.2409,-0.0012636,-0.0093853,-0.23499,-0.21359,-0.27401,-0.54245,0.65825,-0.33164,-0.028108,-0.022858,-0.25474,-0.00078899
0.015179,-0.033427,-0.25396,-0.0013375,0.17239,-0.059537,-0.09477,-0.016422,0.098173,0.18884,-0.24301,1.0694,0.0019619,-0.011321,-0.2373,-0.24511,-0.29606,-0.59792,0.39193,-0.33279,-0.030676,-0.021678,-0.26546,-0.0016403
0.015405,-0.03033,-0.26297,-0.0064559,0.15798,-0.072061,-0.1003,-0.044372,0.12047,0.19242,-0.34274,0.86499,-0.00030034,-0.017633,-0.23568,-0.32011,-0.30964,-0.64233,0.03834,-0.31349,-0.035978,-0.024871,-0.27228,-0.0034435
0.011984,-0.025132,-0.26812,-0.0053822,0.13749,-0.082893,-0.10429,-0.062193,0.13158,0.18396,-0.42077,0.69098,-0.0057788,-0.027367,-0.22727,-0.44973,-0.30994,-0.65842,-0.34583,-0.27364,-0.042825,-0.031235,-0.27299,-0.0034645
0.0064005,-0.020055,-0.26937,0.0026653,0.1132,-0.089159,-0.10947,-0.067003,0.13599,0.15717,-0.46554,0.58983,-0.010825,-0.03706,-0.21292,-0.6066,-0.29588,-0.64356,-0.6927,-0.21878,-0.049174,-0.037395,-0.26912,0.00061647
0.0014058,-0.015673,-0.26931,0.01391,0.086389,-0.091178,-0.11624,-0.059744,0.14016,0.11206,-0.47487,0.56288,-0.013379,-0.043177,-0.19659,-0.73635,-0.27166,-0.6155,-0.94598,-0.15963,-0.053638,-0.040341,-0.26466,0.0081752
-0.00047311,-0.011299,-0.2712,0.022036,0.059342,-0.09177,-0.12313,-0.044623,0.15179,0.056661,-0.45914,0.57589,-0.014097,-0.044829,-0.18255,-0.78869,-0.24321,-0.59742,-1.0686,-0.10607,-0.055656,-0.039417,-0.26301,0.01562
0.0016922,-0.0069396,-0.27648,0.022771,0.036617,-0.093115,-0.12885,-0.02734,0.17691,0.0041228,-0.43781,0.58408,-0.015151,-0.044417,-0.1725,-0.74677,-0.21347,-0.59755,-1.0402,-0.060145,-0.054865,-0.036461,-0.26479,0.019117
0.0066519,-0.004479,-0.28372,0.017302,0.022744,-0.094402,-0.13397,-0.01302,0.21602,-0.033592,-0.42996,0.55875,-0.018139,-0.045594,-0.16481,-0.63472,-0.18151,-0.60428,-0.85884,-0.014786,-0.05085,-0.034326,-0.2681,0.017774
0.01156,-0.006528,-0.28964,0.011436,0.01772,-0.092706,-0.14066,-0.0046409,0.26304,-0.05184,-0.44415,0.49904,-0.023001,-0.050398,-0.15616,-0.49942,-0.1463,-0.60186,-0.55058,0.039411,-0.043806,-0.035038,-0.27047,0.014459
0.01354,-0.013832,-0.29125,0.011047,0.015052,-0.08619,-0.15077,-0.0023167,0.30906,-0.055513,-0.47435,0.424,-0.028538,-0.058055,-0.14407,-0.38051,-0.11076,-0.59088,-0.17654,0.10447,-0.035374,-0.038757,-0.27064,0.013468
0.011401,-0.023836,-0.28748,0.017596,0.0056801,-0.076256,-0.16405,-0.0035168,0.34932,-0.055851,-0.50517,0.35368,-0.033623,-0.066277,-0.12849,-0.29036,-0.081689,-0.59248,0.17862,0.17093,-0.02848,-0.043887,-0.26892,0.017003
0.0063582,-0.032094,-0.27938,0.027408,-0.014542,-0.066243,-0.17815,-0.0043168,0.38814,-0.0636,-0.52279,0.29365,-0.037794,-0.073435,-0.11125,-0.21658,-0.065325,-0.63162,0.44033,0.22374,-0.025794,-0.048001,-0.26625,0.023463
0.0011261,-0.035486,-0.26915,0.035008,-0.040325,-0.057795,-0.1902,-0.0014967,0.43748,-0.082547,-0.52395,0.23276,-0.040866,-0.079372,-0.094307,-0.14128,-0.062936,-0.71504,0.58176,0.25363,-0.027861,-0.049063,-0.26331,0.028983
-0.002064,-0.034392,-0.2591,0.037375,-0.060165,-0.048665,-0.19888,0.0053558,0.50845,-0.10731,-0.51647,0.15226,-0.042273,-0.084276,-0.078305,-0.058916,-0.070566,-0.82484,0.63825,0.26445,-0.032569,-0.046499,-0.26013,0.030869
-0.0030385,-0.031915,-0.25089,0.035621,-0.065275,-0.034669,-0.20517,0.013079,0.60074,-0.12666,-0.51173,0.037264,-0.041084,-0.087188,-0.062563,0.022809,-0.082754,-0.93346,0.68385,0.26995,-0.036711,-0.041706,-0.25609,0.02999
-0.0035657,-0.031006,-0.2451,0.033234,-0.056748,-0.014505,-0.21151,0.016357,0.69672,-0.13008,-0.5153,-0.11764,-0.036737,-0.086058,-0.046341,0.097887,-0.096368,-1.0254,0.78355,0.28256,-0.03857,-0.037565,-0.25016,0.030153
-0.0056401,-0.032215,-0.24082,0.033118,-0.044665,0.0069859,-0.2201,0.010669,0.76526,-0.11354,-0.52343,-0.30926,-0.029676,-0.079455,-0.030109,0.17694,-0.11117,-1.1055,0.95419,0.30342,-0.039377,-0.036931,-0.24104,0.035017
-0.0096395,-0.033931,-0.23559,0.03618,-0.039906,0.020735,-0.23154,-0.0052563,0.77493,-0.081094,-0.52764,-0.52754,-0.021108,-0.068151,-0.015645,0.28556,-0.12756,-1.1878,1.1611,0.32199,-0.042247,-0.040811,-0.22785,0.045093
-0.013958,-0.034433,-0.22625,0.04209,-0.045848,0.019736,-0.24468,-0.029397,0.71033,-0.042035,-0.52271,-0.75405,-0.012062,-0.054864,-0.0048649,0.4444,-0.14459,-1.2765,1.3494,0.32478,-0.049319,-0.047462,-0.21097,0.057155
-0.016396,-0.033476,-0.21068,0.050546,-0.056934,0.004796,-0.25736,-0.058794,0.58229,-0.0056973,-0.51086,-0.95977,-0.0027558,-0.042381,0.0016343,0.64663,-0.16054,-1.3577,1.4814,0.30564,-0.059522,-0.053275,-0.19238,0.066407
-0.016001,-0.031964,-0.18939,0.061221,-0.064685,-0.015162,-0.26763,-0.092128,0.42521,0.022774,-0.49845,-1.1089,0.0069754,-0.031959,0.0050442,0.85322,-0.17473,-1.4083,1.5517,0.26921,-0.068998,-0.055038,-0.17499,0.069644
-0.013696,-0.030459,-0.16563,0.072551,-0.065184,-0.028817,-0.27446,-0.12991,0.2818,0.043569,-0.48874,-1.172,0.016626,-0.023514,0.0074918,1.0134,-0.18805,-1.4125,1.5733,0.22605,-0.074008,-0.051977,-0.16096,0.067124
-0.011198,-0.028355,-0.14362,0.081253,-0.061353,-0.029769,-0.27781,-0.17178,0.18336,0.059968,-0.47772,-1.1425,0.024578,-0.0171,0.01064,1.097,-0.20098,-1.3708,1.5538,0.18491,-0.073999,-0.046009,-0.15038,0.061993
-0.0093863,-0.024534,-0.12591,0.083964,-0.058683,-0.019739,-0.27798,-0.21323,0.13711,0.074234,-0.45735,-1.0447,0.029018,-0.013753,0.014878,1.1159,-0.21154,-1.2956,1.4877,0.14901,-0.072251,-0.040029,-0.14118,0.057938
-0.0077351,-0.018588,-0.11204,0.080003,-0.059149,-0.0055595,-0.27491,-0.24525,0.12787,0.0842,-0.42349,-0.92543,0.029478,-0.014494,0.019498,1.1169,-0.21577,-1.2011,1.3693,0.11832,-0.073501,-0.035696,-0.13054,0.056857
-0.005323,-0.011209,-0.099381,0.072586,-0.059157,0.0069362,-0.26777,-0.25816,0.13198,0.08297,-0.38131,-0.83288,0.027438,-0.018411,0.023329,1.1516,-0.21119,-1.0981,1.208,0.093807,-0.080344,-0.032535,-0.11678,0.058105
-0.0023153,-0.0034616,-0.085623,0.066851,-0.053162,0.016704,-0.25546,-0.24738,0.13326,0.062569,-0.34297,-0.79678,0.025172,-0.022033,0.025174,1.2435,-0.19992,-0.99662,1.0275,0.078893,-0.091169,-0.028987,-0.10037,0.05958
-0.000304,0.0039547,-0.070641,0.066008,-0.039216,0.026155,-0.23759,-0.2167,0.12994,0.019767,-0.31932,-0.82211,0.023802,-0.021199,0.024136,1.3763,-0.18802,-0.90897,0.84815,0.076652,-0.10115,-0.024272,-0.083513,0.059649
-0.0010045,0.010523,-0.056303,0.068912,-0.021334,0.036759,-0.21543,-0.17663,0.12915,-0.039669,-0.31238,-0.89849,0.022407,-0.014262,0.020355,1.5071,-0.18071,-0.84536,0.6725,0.086342,-0.10552,-0.019289,-0.068676,0.05835
-0.0044796,0.015143,-0.044396,0.071361,-0.0067696,0.046239,-0.19199,-0.13845,0.13499,-0.10171,-0.31486,-1.015,0.019073,-0.0039691,0.016075,1.5962,-0.17738,-0.80427,0.49436,0.10306,-0.10291,-0.015802,-0.057091,0.057047
-0.0086468,0.016045,-0.03459,0.070048,-0.00087218,0.050074,-0.17093,-0.10839,0.14057,-0.15013,-0.31663,-1.1672,0.012899,0.003736,0.015782,1.6296,-0.17101,-0.76755,0.32608,0.12091,-0.096336,-0.01482,-0.048069,0.057006
-0.010713,0.012002,-0.024311,0.065626,-0.0038937,0.045683,-0.15499,-0.085267,0.13035,-0.17438,-0.3124,-1.3505,0.0050193,0.0033169,0.024177,1.6229,-0.15322,-0.70944,0.2177,0.13625,-0.091443,-0.015753,-0.039332,0.058251
-0.0093917,0.0038723,-0.01072,0.062084,-0.011928,0.035166,-0.14465,-0.062897,0.089991,-0.17443,-0.30433,-1.548,-0.002286,-0.0068925,0.042459,1.6078,-0.12149,-0.61574,0.2424,0.14786,-0.092993,-0.017085,-0.028136,0.059712
-0.0059812,-0.0051649,0.0068468,0.062997,-0.020466,0.024025,-0.1381,-0.034878,0.015197,-0.15954,-0.29803,-1.7245,-0.0074728,-0.023662,0.065651,1.6126,-0.082804,-0.49843,0.45077,0.15417,-0.10197,-0.01775,-0.012668,0.060394
-0.0033244,-0.011316,0.02607,0.068037,-0.027233,0.017125,-0.13245,0.0011405,-0.087073,-0.14211,-0.29601,-1.8356,-0.010814,-0.040681,0.083913,1.6509,-0.050817,-0.39224,0.82696,0.15107,-0.11505,-0.017777,0.0069176,0.060303
-0.0035394,-0.012604,0.043173,0.072911,-0.032247,0.015531,-0.12531,0.041928,-0.2042,-0.13082,-0.29454,-1.8476,-0.013773,-0.051778,0.0881,1.7184,-0.03867,-0.3339,1.2836,0.13335,-0.12689,-0.017634,0.028434,0.060086
-0.0064479,-0.009988,0.055568,0.072767,-0.035831,0.01671,-0.11583,0.080212,-0.3237,-0.12685,-0.28647,-1.7547,-0.017417,-0.053588,0.076124,1.7975,-0.052651,-0.33946,1.7043,0.098815,-0.13373,-0.017138,0.048758,0.0598
-0.0099726,-0.0062029,0.063504,0.066087,-0.036981,0.017394,-0.10456,0.10815,-0.43364,-0.12473,-0.26778,-1.5815,-0.021378,-0.04657,0.055199,1.8629,-0.090761,-0.39696,2.0049,0.051481,-0.13598,-0.015295,0.065528,0.058262
-0.012012,-0.0033732,0.069571,0.055776,-0.03377,0.016226,-0.092744,0.12098,-0.51907,-0.11628,-0.2422,-1.3679,-0.024189,-0.034318,0.037709,1.8895,-0.14584,-0.4786,2.1689,0.00035803,-0.13787,-0.011409,0.078295,0.054035
-0.012053,-0.0015101,0.076661,0.046729,-0.025249,0.014032,-0.081464,0.11904,-0.56122,-0.09495,-0.22022,-1.1478,-0.024464,-0.021734,0.033275,1.8602,-0.20954,-0.56041,2.2338,-0.045352,-0.1442,-0.0063109,0.08824,0.047336
-0.011154,0.00090374,0.086069,0.042116,-0.01282,0.012019,-0.071427,0.10727,-0.54446,-0.058291,-0.21268,-0.93531,-0.021769,-0.012729,0.042779,1.7733,-0.2737,-0.63267,2.245,-0.080846,-0.15621,-0.0021861,0.096722,0.040817
-0.010527,0.0050208,0.097026,0.041436,0.00052158,0.0099813,-0.0629,0.092614,-0.46809,-0.0080709,-0.22332,-0.72863,-0.016597,-0.0082957,0.058744,1.6419,-0.32924,-0.69493,2.2155,-0.10656,-0.16939,-0.00078286,0.10395,0.037913
-0.010261,0.010354,0.10758,0.041565,0.012739,0.0063006,-0.055524,0.080972,-0.35304,0.051287,-0.24535,-0.52592,-0.0098578,-0.0059913,0.071554,1.4852,-0.3655,-0.74459,2.1247,-0.12528,-0.17487,-0.0015433,0.10907,0.039776
-0.0094653,0.015276,0.11585,0.039473,0.025134,-0.00026954,-0.047965,0.075508,-0.23565,0.11453,-0.26412,-0.33892,-0.0026624,-0.0014947,0.07651,1.3172,-0.37266,-0.77327,1.9482,-0.13874,-0.1637,-0.0015962,0.11162,0.043609
-0.0076219,0.01858,0.12082,0.034232,0.042525,-0.0086431,-0.037999,0.07689,-0.15031,0.1766,-0.26401,-0.19202,0.0033985,0.008244,0.076337,1.1413,-0.34654,-0.7751,1.6889,-0.1469,-0.1314,0.0020066,0.11284,0.044398
-0.005615,0.020388,0.12256,0.026999,0.070744,-0.015023,-0.023547,0.084463,-0.11238,0.23277,-0.23509,-0.10653,0.0060927,0.022209,0.077641,0.95713,-0.29178,-0.75699,1.3773,-0.14982,-0.080332,0.0095617,0.1154,0.039031
-0.0052231,0.021496,0.12233,0.019552,0.11274,-0.014716,-0.0043212,0.096998,-0.11348,0.27853,-0.17601,-0.083109,0.0032009,0.035127,0.084709,0.77123,-0.2201,-0.73699,1.0414,-0.14972,-0.018865,0.017918,0.12147,0.029293
-0.0074059,0.022048,0.12235,0.012969,0.16554,-0.0051664,0.017124,0.11257,-0.13175,0.31021,-0.092626,-0.097814,-0.0061019,0.040575,0.095872,0.59978,-0.1438,-0.72761,0.67559,-0.15008,0.041731,0.022503,0.1307,0.020827
-0.011036,0.021177,0.12507,0.0074204,0.21978,0.011772,0.036147,0.12839,-0.14806,0.32622,0.0054629,-0.11683,-0.020106,0.035555,0.10522,0.45841,-0.068762,-0.71729,0.24091,-0.15216,0.091065,0.020663,0.14014,0.018613
-0.013407,0.018178,0.13156,0.0028122,0.26259,0.030075,0.048537,0.14155,-0.15563,0.32794,0.10807,-0.11964,-0.034694,0.023237,0.10782,0.34691,0.0078579,-0.66785,-0.29829,-0.15216,0.12279,0.013683,0.1462,0.022759
-0.012226,0.01397,0.14014,-0.00069549,0.28252,0.042582,0.053249,0.15047,-0.15756,0.31929,0.20606,-0.11304,-0.044883,0.011667,0.10394,0.24377,0.093334,-0.53419,-0.9262,-0.14218,0.13629,0.0059535,0.14716,0.028322
-0.0074058,0.011086,0.14655,-0.0028537,0.27473,0.04513,0.053299,0.15599,-0.15742,0.3046,0.29206,-0.12485,-0.046948,0.0091451,0.09859,0.11779,0.19129,-0.29374,-1.5552,-0.11556,0.13645,0.0020462,0.14407,0.02938
-0.0011565,0.011818,0.14629,-0.0038731,0.24353,0.039056,0.053942,0.16079,-0.15342,0.28611,0.36071,-0.18219,-0.039909,0.019446,0.096875,-0.051803,0.29566,0.035649,-2.0523,-0.072799,0.13099,0.0039202,0.13941,0.023819
0.0036253,0.016136,0.1379,-0.0046294,0.20064,0.030178,0.059289,0.16767,-0.14123,0.26274,0.40891,-0.2905,-0.025713,0.04002,0.099041,-0.2635,0.39137,0.40258,-2.3004,-0.023441,0.12633,0.010139,0.13494,0.014723
0.0053278,0.021454,0.12456,-0.0061776,0.15961,0.024835,0.069793,0.17783,-0.12139,0.23126,0.43576,-0.42859,-0.0081877,0.064008,0.099364,-0.49902,0.46137,0.74826,-2.2559,0.018253,0.12393,0.017305,0.13059,0.0073544
0.0045008,0.02468,0.11233,-0.0089484,0.12933,0.025832,0.082453,0.19045,-0.1022,0.18931,0.44258,-0.56214,0.0086207,0.08424,0.090122,-0.73872,0.49534,1.0338,-1.9701,0.040982,0.11946,0.022419,0.12519,0.0045954
0.0032086,0.024762,0.106,-0.012346,0.11055,0.031303,0.093455,0.20372,-0.093992,0.13826,0.43343,-0.66441,0.021967,0.096452,0.067774,-0.97115,0.49366,1.2517,-1.5626,0.041945,0.10583,0.024521,0.11799,0.0048915
0.0035376,0.023384,0.1056,-0.015147,0.0976,0.037165,0.10106,0.21608,-0.099263,0.083937,0.41544,-0.729,0.031189,0.1001,0.036615,-1.1884,0.46435,1.4181,-1.162,0.026442,0.078478,0.024703,0.10949,0.0042513
0.0062994,0.023159,0.10654,-0.016408,0.083652,0.040969,0.1064,0.22666,-0.10836,0.034398,0.39799,-0.76728,0.037455,0.097102,0.0069371,-1.3753,0.41605,1.5544,-0.85062,0.0026308,0.039528,0.02474,0.10084,0.00020608
0.010603,0.025053,0.10325,-0.016162,0.065523,0.043836,0.11171,0.23463,-0.10562,-0.0037886,0.38997,-0.79543,0.042709,0.089988,-0.011206,-1.508,0.35356,1.6712,-0.64163,-0.023741,-0.0019639,0.025461,0.092902,-0.0059102
0.014381,0.027544,0.093637,-0.01534,0.04453,0.048975,0.11784,0.23855,-0.081551,-0.028353,0.39607,-0.82305,0.048569,0.080766,-0.014248,-1.5682,0.27962,1.7638,-0.49852,-0.05051,-0.033905,0.026086,0.085829,-0.010236
0.015521,0.028296,0.080648,-0.014972,0.023607,0.058278,0.12351,0.23675,-0.04093,-0.041282,0.41459,-0.85141,0.056002,0.070772,-0.0069367,-1.5615,0.20063,1.8197,-0.38107,-0.076431,-0.046978,0.025052,0.079482,-0.0098352
0.013029,0.026693,0.06981,-0.015316,0.0041208,0.070208,0.12733,0.22877,4.83e-005,-0.046188,0.43844,-0.8792,0.06585,0.060945,0.001379,-1.5221,0.1292,1.8312,-0.28583,-0.098641,-0.039268,0.021658,0.073876,-0.0051775
0.0076243,0.024667,0.064767,-0.015615,-0.014465,0.080935,0.13046,0.21646,0.024931,-0.045295,0.45871,-0.90697,0.079309,0.051856,0.003101,-1.4951,0.079063,1.8053,-0.2561,-0.1137,-0.017565,0.017073,0.069029,0.00040307
0.001425,0.024904,0.064526,-0.014652,-0.032287,0.087642,0.13722,0.20334,0.027261,-0.038447,0.46866,-0.93407,0.097201,0.043365,-0.0032186,-1.5089,0.055031,1.7614,-0.35751,-0.12143,0.0051216,0.013644,0.064469,0.003553
-0.0031099,0.028116,0.064532,-0.011659,-0.047409,0.090843,0.15207,0.19222,0.012203,-0.024658,0.46599,-0.95219,0.11803,0.034327,-0.013202,-1.5585,0.046479,1.7171,-0.63848,-0.12738,0.014948,0.012931,0.059201,0.0034142
-0.0043445,0.032052,0.060497,-0.0068623,-0.057416,0.0934,0.1751,0.18308,-0.010149,-0.0044911,0.45314,-0.94594,0.13653,0.022997,-0.020746,-1.6127,0.031715,1.6697,-1.1016,-0.1406,0.003456,0.014193,0.052381,0.0017117
-0.0020679,0.03338,0.051683,-0.0013306,-0.063062,0.097042,0.19981,0.17319,-0.032696,0.019051,0.43654,-0.90661,0.14482,0.0082242,-0.022385,-1.6386,-0.008242,1.5908,-1.7013,-0.1681,-0.028198,0.014891,0.044112,0.00062103
0.002685,0.030788,0.041004,0.0036503,-0.06989,0.099695,0.21577,0.15996,-0.05365,0.041749,0.42527,-0.85142,0.13681,-0.0091866,-0.018821,-1.6229,-0.076181,1.4413,-2.3629,-0.21097,-0.069663,0.012997,0.035481,0.00055529
0.0082793,0.02637,0.03215,0.0071386,-0.085114,0.096437,0.21457,0.14396,-0.072728,0.060044,0.42906,-0.83032,0.11308,-0.026049,-0.013251,-1.5756,-0.15596,1.2016,-3.0087,-0.2659,-0.10707,0.0090601,0.02776,-9.7517e-005
0.01312,0.023869,0.026507,0.0087457,-0.11172,0.083653,0.19466,0.12894,-0.086594,0.071663,0.45517,-0.90773,0.082401,-0.037942,-0.0086205,-1.5174,-0.2229,0.8946,-3.5751,-0.33048,-0.13108,0.0059727,0.021498,-0.0031698
0.016054,0.025259,0.022603,0.0086196,-0.14504,0.062897,0.16144,0.11826,-0.089029,0.074924,0.50531,-1.1251,0.057772,-0.04149,-0.0062434,-1.4631,-0.25949,0.58195,-4.0196,-0.40662,-0.14207,0.0063493,0.016323,-0.0086165
0.016593,0.028832,0.018375,0.0074525,-0.1754,0.040936,0.12282,0.11059,-0.076031,0.068529,0.57426,-1.4676,0.048915,-0.036327,-0.006425,-1.4152,-0.2649,0.33266,-4.3208,-0.49766,-0.14857,0.0097547,0.011519,-0.014095
0.014991,0.030668,0.013837,0.0064851,-0.1949,0.02562,0.08433,0.099086,-0.050775,0.053323,0.65173,-1.8605,0.056469,-0.025349,-0.0097328,-1.3679,-0.25217,0.18539,-4.477,-0.6009,-0.15961,0.012408,0.0067606,-0.016622
0.012093,0.02822,0.011417,0.0071926,-0.20257,0.02074,0.047521,0.075653,-0.023159,0.03484,0.72655,-2.1996,0.072054,-0.012956,-0.017186,-1.3146,-0.23648,0.1328,-4.5031,-0.70252,-0.17705,0.0099449,0.0023388,-0.014873
0.0088849,0.022731,0.013552,0.010502,-0.20368,0.02388,0.012417,0.037443,-0.0033938,0.023336,0.79097,-2.4006,0.084056,-0.0024949,-0.029003,-1.2516,-0.22412,0.13879,-4.4235,-0.78063,-0.19376,0.0010846,-0.0011679,-0.01018
0.0059931,0.018162,0.019856,0.015943,-0.20414,0.028677,-0.019294,-0.0099523,0.0057456,0.029231,0.84262,-2.4353,0.08478,0.0053584,-0.043223,-1.1769,-0.20956,0.17338,-4.2607,-0.81533,-0.1996,-0.010889,-0.0033642,-0.0054704
0.0035085,0.017586,0.026751,0.021482,-0.20546,0.02942,-0.043779,-0.055531,0.0123,0.056054,0.88353,-2.3343,0.074001,0.012261,-0.055834,-1.0894,-0.18132,0.2359,-4.0244,-0.79835,-0.18998,-0.020189,-0.0042274,-0.0030968
0.001299,0.02037,0.030104,0.024461,-0.20462,0.024473,-0.057908,-0.089869,0.031986,0.096297,0.91708,-2.1558,0.057204,0.020402,-0.06278,-0.99157,-0.13093,0.34849,-3.707,-0.73456,-0.17013,-0.022554,-0.0040047,-0.0032704
-0.00052806,0.022762,0.028524,0.023196,-0.19813,0.016561,-0.062545,-0.11034,0.080881,0.13431,0.94522,-1.9435,0.040855,0.03073,-0.062424,-0.89294,-0.058504,0.52696,-3.2913,-0.63511,-0.15112,-0.01807,-0.0031081,-0.0041735
-0.0015243,0.021306,0.024237,0.018149,-0.18607,0.010635,-0.062796,-0.12047,0.1681,0.1549,0.96724,-1.6996,0.028613,0.04243,-0.056497,-0.80855,0.027667,0.755,-2.7686,-0.50921,-0.14132,-0.010676,-0.002187,-0.0034495
-0.0013082,0.015941,0.020721,0.011822,-0.17228,0.011398,-0.064529,-0.12452,0.29109,0.15141,0.98055,-1.3933,0.020595,0.053723,-0.048618,-0.75028,0.11567,0.9837,-2.1585,-0.36244,-0.14015,-0.0049483,-0.0022099,0.00014369
-8.4936e-005,0.010023,0.01936,0.007419,-0.16097,0.021749,-0.069954,-0.12257,0.43398,0.12717,0.98243,-0.99625,0.014966,0.062989,-0.041453,-0.71645,0.19462,1.1567,-1.5184,-0.20278,-0.13951,-0.0028174,-0.00421,0.0060203
0.0012822,0.0073945,0.01829,0.0071817,-0.15336,0.041981,-0.076115,-0.11058,0.569,0.089958,0.97124,-0.5228,0.0097967,0.069304,-0.034704,-0.68845,0.25682,1.2404,-0.93082,-0.046924,-0.13098,-0.002677,-0.0086294,0.012267
0.0017995,0.0092212,0.014518,0.01142,-0.14698,0.069244,-0.077569,-0.085138,0.66181,0.044967,0.94647,-0.0425,0.0038928,0.072286,-0.025521,-0.6393,0.29771,1.2368,-0.4704,0.081715,-0.11262,-0.0012745,-0.014713,0.016841
0.001061,0.013266,0.0072731,0.018645,-0.13778,0.09772,-0.070945,-0.048261,0.68139,-0.0075121,0.90793,0.34741,-0.003162,0.071934,-0.011063,-0.54918,0.31518,1.1707,-0.16571,0.16471,-0.089777,0.0033864,-0.020616,0.018665
-0.00042766,0.015937,-0.00059342,0.026464,-0.12249,0.12054,-0.057494,-0.0079752,0.61218,-0.068246,0.85563,0.5757,-0.010982,0.068935,0.0087027,-0.41741,0.30986,1.0648,0.019275,0.20149,-0.069848,0.010463,-0.024425,0.018061
-0.0015783,0.015131,-0.0045283,0.032592,-0.099634,0.1333,-0.041715,0.025849,0.46301,-0.13366,0.79101,0.64082,-0.018264,0.065025,0.030015,-0.2624,0.28576,0.92324,0.1675,0.21181,-0.056206,0.017075,-0.025486,0.016377
-0.0014607,0.011556,-0.0018514,0.035561,-0.069497,0.13696,-0.027653,0.046646,0.2667,-0.19464,0.71886,0.61276,-0.023149,0.062514,0.046856,-0.10999,0.25,0.73522,0.36109,0.22389,-0.046559,0.020613,-0.024986,0.01508
4.3219e-005,0.0078101,0.0060925,0.035046,-0.034386,0.13738,-0.01636,0.053198,0.069254,-0.24093,0.64712,0.59004,-0.024366,0.062756,0.054036,0.02089,0.21055,0.49299,0.63277,0.25582,-0.036481,0.020611,-0.025169,0.014827
0.0020762,0.006301,0.014958,0.031877,0.00054033,0.14089,-0.0065648,0.047641,-0.086682,-0.26685,0.58343,0.64162,-0.022491,0.06468,0.049951,0.12575,0.17281,0.20776,0.94934,0.30431,-0.024183,0.01875,-0.027661,0.01509
0.0032417,0.0077058,0.020619,0.027756,0.027379,0.14901,0.0026129,0.032089,-0.17603,-0.27309,0.5298,0.77422,-0.020115,0.064976,0.037535,0.21191,0.13743,-0.089649,1.2389,0.34915,-0.01186,0.017137,-0.032166,0.014565
0.0024303,0.010876,0.021947,0.024612,0.037917,0.15676,0.0099107,0.0071504,-0.19706,-0.26341,0.47965,0.94446,-0.020358,0.060381,0.023004,0.28962,0.10127,-0.3632,1.4418,0.3696,-0.002659,0.016402,-0.036575,0.012152
-0.00040623,0.013897,0.021112,0.023744,0.027849,0.15632,0.012972,-0.026721,-0.16815,-0.24032,0.42089,1.1004,-0.024563,0.05049,0.013073,0.36411,0.061228,-0.58901,1.549,0.35972,0.003414,0.015241,-0.038437,0.0077974
-0.0040211,0.015359,0.021498,0.025126,5.788e-005,0.1434,0.011053,-0.067002,-0.11897,-0.20448,0.34379,1.2177,-0.030926,0.038607,0.011954,0.43289,0.01821,-0.76326,1.5999,0.33125,0.010516,0.01181,-0.036661,0.0025986
-0.0064323,0.015032,0.025018,0.027304,-0.035775,0.12081,0.0065342,-0.10855,-0.080271,-0.15838,0.24843,1.3046,-0.035347,0.029573,0.019497,0.48819,-0.022221,-0.89773,1.647,0.30326,0.023914,0.005813,-0.03218,-0.0018996
-0.0060438,0.013701,0.030754,0.028053,-0.067622,0.0964,0.0035096,-0.14545,-0.074966,-0.10993,0.14521,1.3808,-0.034108,0.026095,0.031378,0.52164,-0.053233,-1.0097,1.7174,0.28823,0.0457,-0.00053503,-0.027146,-0.0046245
-0.0026666,0.012446,0.035658,0.025516,-0.087053,0.077158,0.0046183,-0.17369,-0.11169,-0.071187,0.047503,1.4539,-0.026528,0.026692,0.041394,0.5283,-0.071651,-1.1149,1.8003,0.28574,0.073082,-0.0036273,-0.023368,-0.0053735
0.0022417,0.011899,0.036622,0.019224,-0.092927,0.064643,0.0089599,-0.19252,-0.18249,-0.052149,-0.038693,1.515,-0.015586,0.027113,0.044806,0.50879,-0.080216,-1.2254,1.8655,0.28734,0.10041,-0.00092424,-0.021179,-0.0044618
0.006337,0.011912,0.032501,0.010468,-0.090608,0.0552,0.012927,-0.20377,-0.26633,-0.054403,-0.11983,1.5533,-0.0059923,0.024131,0.040897,0.46905,-0.085066,-1.348,1.8916,0.28657,0.12277,0.007185,-0.01945,-0.0021135
0.0077259,0.011805,0.024854,0.001794,-0.087587,0.04399,0.013059,-0.21019,-0.3386,-0.07033,-0.21068,1.5703,-0.0010412,0.018412,0.033149,0.41791,-0.090398,-1.4788,1.8764,0.28453,0.138,0.017656,-0.016562,0.0016797
0.0060893,0.010961,0.017017,-0.0041476,-0.088737,0.028705,0.0082649,-0.21419,-0.38298,-0.088696,-0.32412,1.5785,-0.00048157,0.013905,0.026805,0.36352,-0.094823,-1.5986,1.8235,0.28672,0.14592,0.027003,-0.011576,0.0066404
0.0029092,0.009354,0.012099,-0.0058665,-0.094383,0.0098717,-0.00042266,-0.21774,-0.39932,-0.10221,-0.46287,1.5845,-0.00084568,0.014234,0.025387,0.31044,-0.092556,-1.6754,1.724,0.29545,0.14645,0.033611,-0.0048663,0.011632
0.00060119,0.0076358,0.011127,-0.0037872,-0.10204,-0.011611,-0.011958,-0.22254,-0.40201,-0.11114,-0.61921,1.5747,0.0021077,0.019281,0.028626,0.25917,-0.078378,-1.6775,1.5551,0.30585,0.13878,0.038248,0.0020298,0.014872
0.00096727,0.0067521,0.012518,-7.1492e-005,-0.10983,-0.03645,-0.026933,-0.22979,-0.40898,-0.12075,-0.78137,1.5181,0.010592,0.025031,0.03332,0.208,-0.052146,-1.5899,1.3038,0.30969,0.12253,0.042484,0.0071429,0.015077
0.0038633,0.007369,0.013199,0.0024855,-0.11851,-0.066142,-0.047062,-0.23935,-0.42837,-0.13544,-0.93967,1.3876,0.023468,0.026903,0.036331,0.15551,-0.019324,-1.4202,0.99546,0.30316,0.099451,0.04666,0.0090019,0.012674
0.0070305,0.0094926,0.010634,0.0019752,-0.1303,-0.10031,-0.072962,-0.24926,-0.45249,-0.15467,-1.0863,1.1828,0.03708,0.023662,0.037208,0.10141,0.012363,-1.1909,0.69982,0.29104,0.073892,0.049419,0.0073534,0.0098733
0.0074659,0.012468,0.0043614,-0.0015241,-0.14581,-0.13521,-0.10231,-0.25617,-0.46448,-0.17367,-1.2097,0.93607,0.047462,0.018436,0.038198,0.045401,0.036915,-0.92481,0.50436,0.28287,0.051484,0.049286,0.0033376,0.0092276
0.00364,0.015279,-0.003906,-0.0059837,-0.1619,-0.16527,-0.13006,-0.2565,-0.45289,-0.18753,-1.2915,0.69579,0.052409,0.015921,0.041751,-0.014269,0.051714,-0.63834,0.46974,0.28446,0.037058,0.046687,-0.0010324,0.011699
-0.002988,0.016942,-0.011521,-0.0086949,-0.1729,-0.18652,-0.15053,-0.24783,-0.42268,-0.19502,-1.3116,0.49909,0.052192,0.01822,0.047856,-0.080668,0.056716,-0.34673,0.59798,0.29251,0.03316,0.044255,-0.0039059,0.015881
-0.0085076,0.016855,-0.016432,-0.0080428,-0.17449,-0.19874,-0.15981,-0.22961,-0.39314,-0.19908,-1.2612,0.35239,0.048734,0.023,0.053708,-0.15621,0.053259,-0.073034,0.83352,0.29722,0.039748,0.044848,-0.0046132,0.01917
-0.0090819,0.015039,-0.017971,-0.0045834,-0.16711,-0.20452,-0.15698,-0.20336,-0.38382,-0.20419,-1.1538,0.23296,0.043997,0.025542,0.056025,-0.24074,0.043988,0.15289,1.0937,0.29041,0.054625,0.048977,-0.0040383,0.019971
-0.0037401,0.012199,-0.016645,-0.00058608,-0.15593,-0.20611,-0.14392,-0.17241,-0.39957,-0.21293,-1.024,0.10986,0.038715,0.022804,0.053846,-0.3315,0.03308,0.30891,1.3062,0.27182,0.074086,0.054043,-0.0040482,0.018999
0.0047297,0.0094936,-0.013508,0.0017271,-0.14727,-0.20325,-0.12424,-0.14124,-0.42666,-0.22437,-0.91234,-0.029542,0.032207,0.015875,0.049263,-0.42507,0.024916,0.39729,1.4317,0.24809,0.09378,0.05621,-0.0062619,0.018472
0.011601,0.0080082,-0.0097295,0.0019708,-0.14425,-0.19377,-0.10196,-0.11423,-0.44156,-0.23503,-0.84728,-0.1647,0.023267,0.0087667,0.045467,-0.5193,0.021178,0.44683,1.4634,0.22576,0.10993,0.053324,-0.010896,0.01991
0.01342,0.0081685,-0.006428,0.0020032,-0.1453,-0.17625,-0.08012,-0.094057,-0.42394,-0.24109,-0.83391,-0.25024,0.011389,0.0048231,0.043958,-0.61381,0.018957,0.49549,1.4134,0.20503,0.12054,0.046334,-0.016418,0.022673
0.010182,0.0094823,-0.0043565,0.0045396,-0.14628,-0.15202,-0.059803,-0.080344,-0.36349,-0.24009,-0.8577,-0.24548,-0.0024969,0.0040768,0.04337,-0.70892,0.012664,0.5654,1.2997,0.17976,0.12572,0.038122,-0.020263,0.024729
0.0049338,0.010819,-0.0033022,0.010974,-0.14386,-0.12453,-0.040067,-0.069845,-0.25942,-0.23097,-0.89711,-0.14834,-0.016253,0.0037827,0.040752,-0.80511,-0.00072555,0.65001,1.1418,0.1434,0.12661,0.03103,-0.020201,0.024999
0.0013568,0.011058,-0.0017487,0.020084,-0.13723,-0.096768,-0.019437,-0.058341,-0.11963,-0.21325,-0.93489,-0.0080451,-0.027482,0.0013526,0.034044,-0.90362,-0.017307,0.72312,0.96411,0.095535,0.12362,0.025417,-0.015508,0.024891
0.0012973,0.0096628,0.0024538,0.028643,-0.12685,-0.069516,0.0018609,-0.043433,0.035158,-0.18683,-0.9609,0.099614,-0.034584,-0.0032058,0.02373,-1.0073,-0.027216,0.76216,0.79823,0.043497,0.1158,0.020407,-0.0072048,0.027227
0.003955,0.0068461,0.01045,0.033488,-0.11239,-0.042176,0.020693,-0.026455,0.16725,-0.15322,-0.96816,0.12454,-0.037336,-0.0075685,0.012708,-1.1201,-0.021132,0.76706,0.67742,-0.0017098,0.10208,0.015731,0.0027079,0.033241
0.0069144,0.0033534,0.020966,0.033516,-0.092555,-0.015599,0.032271,-0.012197,0.22946,-0.1174,-0.94871,0.08488,-0.036793,-0.0096347,0.0048595,-1.2442,0.0025807,0.76163,0.62365,-0.031592,0.083586,0.01258,0.012367,0.040461
0.0079348,0.00016806,0.030545,0.030201,-0.067093,0.0060027,0.033372,-0.0065559,0.18864,-0.087788,-0.89438,0.060452,-0.034628,-0.0097499,0.0034725,-1.3792,0.036096,0.77849,0.63432,-0.043875,0.064721,0.012519,0.020649,0.043878
0.0062592,-0.0016692,0.035629,0.026433,-0.038985,0.016369,0.025091,-0.013661,0.053062,-0.072846,-0.80154,0.13152,-0.032237,-0.0104,0.01023,-1.5234,0.0674,0.83992,0.67964,-0.042019,0.051404,0.015593,0.026936,0.039885
0.0028841,-0.0012339,0.034959,0.024633,-0.013945,0.011237,0.012825,-0.034306,-0.11882,-0.075443,-0.67482,0.30543,-0.030072,-0.013614,0.024842,-1.6766,0.088408,0.94679,0.71579,-0.032121,0.047429,0.019685,0.030586,0.029692
-9.75e-005,0.0018922,0.030253,0.025442,0.002888,-0.0080125,0.0033996,-0.066436,-0.2416,-0.088949,-0.5265,0.49337,-0.027694,-0.018553,0.045147,-1.841,0.099395,1.0796,0.70776,-0.019811,0.051714,0.021983,0.030896,0.019001
-0.00069271,0.007089,0.02451,0.027666,0.010408,-0.034203,0.0017541,-0.10679,-0.2482,-0.098847,-0.37203,0.56634,-0.024791,-0.021777,0.067651,-2.0144,0.1066,1.2076,0.64683,-0.0085426,0.058893,0.021277,0.027756,0.013825
0.001751,0.012516,0.019442,0.029268,0.012061,-0.058111,0.009745,-0.15206,-0.12778,-0.089947,-0.22483,0.45485,-0.022635,-0.020266,0.088472,-2.1807,0.11569,1.3014,0.54983,0.00080824,0.063007,0.018889,0.022299,0.015854
0.0059108,0.01578,0.014339,0.028704,0.01286,-0.07339,0.027386,-0.19866,0.070633,-0.054646,-0.09265,0.21507,-0.024732,-0.014664,0.1045,-2.3062,0.12698,1.3436,0.44114,0.0094495,0.061472,0.017242,0.016673,0.021377
0.0090464,0.015319,0.0073857,0.025883,0.015383,-0.079165,0.054298,-0.24181,0.27185,0.0036331,0.024099,0.0052767,-0.035527,-0.0096421,0.11429,-2.3505,0.13613,1.3359,0.33254,0.019354,0.056223,0.017383,0.012894,0.024744
0.0086895,0.011575,-0.0018782,0.022299,0.018041,-0.078826,0.089119,-0.27571,0.42159,0.07404,0.13177,-0.014587,-0.057446,-0.010539,0.11837,-2.2885,0.13926,1.2987,0.21784,0.031467,0.051358,0.01784,0.011743,0.023343
0.0044472,0.0069038,-0.011287,0.020273,0.016825,-0.076592,0.12727,-0.29538,0.51401,0.14539,0.24009,0.21293,-0.088253,-0.018788,0.1186,-2.1287,0.13765,1.2609,0.085731,0.044672,0.049475,0.016,0.012787,0.019719
-0.001488,0.0040428,-0.017188,0.021588,0.0088551,-0.074753,0.16013,-0.29909,0.58222,0.21054,0.3559,0.60914,-0.12111,-0.03,0.11696,-1.9135,0.13811,1.2445,-0.062658,0.056819,0.049841,0.010821,0.015528,0.019033
-0.0057281,0.0042244,-0.016998,0.026269,-0.0051031,-0.073362,0.17817,-0.28897,0.6621,0.26495,0.47687,1.0142,-0.14801,-0.036698,0.11426,-1.6978,0.1489,1.2525,-0.20951,0.067448,0.049666,0.0043562,0.020449,0.024244
-0.0060855,0.0064584,-0.011,0.032292,-0.020827,-0.071768,0.17691,-0.26884,0.7577,0.30234,0.58993,1.2848,-0.16447,-0.033815,0.10968,-1.5186,0.17416,1.2705,-0.33491,0.079687,0.046983,0.00056857,0.028666,0.033284
-0.0031647,0.0085879,-0.001961,0.036605,-0.032984,-0.069991,0.16103,-0.24059,0.83317,0.3134,0.67733,1.3658,-0.17221,-0.022599,0.10155,-1.3797,0.21088,1.2793,-0.43725,0.098698,0.042267,0.0023128,0.04024,0.04063
0.00011756,0.0091437,0.0069246,0.036916,-0.037815,-0.068578,0.14219,-0.20257,0.83544,0.29012,0.72751,1.2977,-0.17771,-0.0096743,0.089221,-1.2594,0.24975,1.2714,-0.53904,0.12687,0.037346,0.0089728,0.052751,0.041701
0.00073608,0.0083159,0.014038,0.03312,-0.034604,-0.067297,0.13132,-0.15169,0.73086,0.23231,0.74321,1.171,-0.18768,-0.001941,0.074556,-1.1365,0.27902,1.2541,-0.6694,0.15941,0.032746,0.016692,0.061919,0.036251
-0.002196,0.0072753,0.019858,0.027335,-0.025461,-0.064263,0.13066,-0.088224,0.53132,0.14965,0.7405,1.0668,-0.20465,-0.0013828,0.061638,-1.0101,0.28891,1.238,-0.83512,0.18471,0.026234,0.020981,0.064341,0.028048
-0.0068005,0.0067478,0.025903,0.022487,-0.013953,-0.056752,0.13221,-0.019105,0.2942,0.056695,0.73884,1.0203,-0.22566,-0.0038809,0.054501,-0.89911,0.27456,1.2201,-1.0048,0.19008,0.014247,0.019662,0.06031,0.021495
-0.0098133,0.0064536,0.033108,0.02041,-0.003398,-0.043421,0.1239,0.043162,0.097404,-0.035124,0.74937,1.0181,-0.24442,-0.0027814,0.054314,-0.82169,0.23681,1.1759,-1.1225,0.16913,-0.0048271,0.014018,0.054111,0.01831
-0.0088808,0.0059723,0.040853,0.020738,0.004427,-0.026258,0.098556,0.086054,0.0035884,-0.1215,0.76992,1.0207,-0.25508,0.0058498,0.058247,-0.77201,0.18071,1.0711,-1.1453,0.12508,-0.028514,0.0075679,0.051095,0.016923
-0.0041201,0.0058861,0.047215,0.021325,0.0097142,-0.010473,0.05861,0.10344,0.031651,-0.202,0.78954,0.99335,-0.25503,0.020483,0.061165,-0.71513,0.11283,0.88328,-1.0763,0.067725,-0.051521,0.0036343,0.053661,0.014675
0.0020744,0.0076021,0.050192,0.019849,0.014108,-0.0018101,0.013379,0.098616,0.1482,-0.27399,0.79826,0.93041,-0.24538,0.035768,0.059088,-0.60481,0.038611,0.61836,-0.96649,0.0068117,-0.069666,0.003466,0.059488,0.010532
0.0067137,0.011707,0.049111,0.015474,0.019583,-0.0027768,-0.027589,0.082012,0.28234,-0.33057,0.79387,0.85946,-0.22983,0.046781,0.051923,-0.41247,-0.038906,0.3091,-0.87906,-0.05254,-0.083092,0.0059535,0.063615,0.0058988
0.0081326,0.016581,0.045274,0.0094449,0.027371,-0.010366,-0.058846,0.065286,0.35714,-0.36545,0.78106,0.82224,-0.21309,0.0522,0.043421,-0.14626,-0.11801,-0.0013829,-0.84024,-0.10924,-0.095693,0.0087126,0.062666,0.0030347
0.0068295,0.019126,0.041373,0.0042519,0.03759,-0.017219,-0.077983,0.055504,0.32437,-0.37949,0.76476,0.84062,-0.19979,0.054033,0.038442,0.15397,-0.19572,-0.2781,-0.81453,-0.1618,-0.11089,0.0095799,0.057567,0.0027141
0.0047644,0.017418,0.039941,0.0019261,0.049683,-0.015896,-0.082109,0.052777,0.18653,-0.38141,0.74426,0.8911,-0.19375,0.054639,0.039574,0.44341,-0.26568,-0.50283,-0.72613,-0.2048,-0.1273,0.0076654,0.052455,0.003334
0.0037765,0.012818,0.041839,0.0026515,0.063235,-0.0035601,-0.067312,0.052212,-0.0046381,-0.38012,0.71334,0.91094,-0.19696,0.05404,0.045574,0.70348,-0.31893,-0.67252,-0.5128,-0.22967,-0.13836,0.0036346,0.050857,0.0022184
0.0043614,0.0091874,0.045817,0.0046344,0.078369,0.016204,-0.032966,0.048403,-0.17343,-0.375,0.66559,0.83902,-0.20876,0.049966,0.052594,0.95598,-0.34777,-0.79492,-0.17163,-0.22959,-0.13659,-0.00071554,0.052606,-0.0021182
0.0056578,0.0094946,0.049405,0.0053417,0.095302,0.035817,0.013214,0.039415,-0.25677,-0.35343,0.59923,0.66595,-0.22564,0.040422,0.057121,1.2492,-0.35064,-0.88721,0.23872,-0.20471,-0.1193,-0.0033916,0.054158,-0.0087786
0.0064546,0.012915,0.05037,0.0032556,0.11339,0.048608,0.055639,0.027923,-0.23293,-0.29925,0.51669,0.4542,-0.24262,0.026197,0.058379,1.6239,-0.33451,-0.97466,0.64,-0.16379,-0.090818,-0.0033239,0.051769,-0.015327
0.0062224,0.015418,0.047689,-0.0010942,0.13047,0.052518,0.078688,0.019086,-0.12746,-0.20618,0.41938,0.30764,-0.25572,0.010756,0.058573,2.0808,-0.31264,-1.0825,0.98549,-0.12084,-0.059353,-0.0011052,0.044556,-0.019787
0.0052854,0.013632,0.04157,-0.0055916,0.14323,0.049943,0.076659,0.016786,0.0053486,-0.085399,0.30381,0.30747,-0.26406,-0.0026546,0.061067,2.5751,-0.29847,-1.2214,1.2796,-0.088842,-0.03096,0.0012538,0.034808,-0.021996
0.0041567,0.0084448,0.032975,-0.0081849,0.14841,0.044274,0.057607,0.020716,0.11235,0.038581,0.16457,0.46035,-0.27001,-0.014223,0.068124,3.0407,-0.29948,-1.3768,1.5536,-0.07401,-0.0055507,0.0016388,0.025714,-0.023268
0.0028872,0.0046815,0.023252,-0.0085118,0.14431,0.036386,0.037341,0.026147,0.16499,0.14018,0.002948,0.69657,-0.27711,-0.028055,0.079858,3.4285,-0.31429,-1.5143,1.8243,-0.073602,0.021927,-0.00056829,0.018889,-0.024918
0.0011915,0.0067925,0.013978,-0.0082231,0.13155,0.024173,0.028026,0.026439,0.16474,0.20357,-0.16654,0.91842,-0.28666,-0.048924,0.094792,3.7278,-0.33473,-1.6025,2.0736,-0.078206,0.056374,-0.0038286,0.013872,-0.027093
-0.00080322,0.014393,0.0065786,-0.0096608,0.11297,0.0053577,0.030455,0.01656,0.13189,0.22548,-0.3194,1.0613,-0.29499,-0.077419,0.11095,3.955,-0.35092,-1.637,2.2653,-0.077007,0.097814,-0.0053759,0.00952,-0.02881
-0.0021435,0.02196,0.0016039,-0.013835,0.092868,-0.019238,0.035809,-0.0046889,0.088731,0.21104,-0.43379,1.1239,-0.29286,-0.1072,0.12615,4.1191,-0.35655,-1.6475,2.3795,-0.063318,0.14061,-0.0031284,0.0054464,-0.028905
-0.0016839,0.023328,-0.001783,-0.01929,0.075693,-0.04506,0.034579,-0.035062,0.047776,0.16906,-0.50286,1.1528,-0.26817,-0.12688,0.13732,4.1979,-0.35164,-1.6805,2.4267,-0.037653,0.17665,0.0028757,0.0020873,-0.026902
0.00065798,0.017155,-0.0053378,-0.022881,0.064762,-0.066447,0.024535,-0.071166,0.0090289,0.11102,-0.53597,1.2009,-0.21145,-0.12578,0.13984,4.1479,-0.34214,-1.7687,2.4271,-0.0070036,0.19947,0.010591,-0.000237,-0.023203
0.0033198,0.0084489,-0.010356,-0.021974,0.061215,-0.080102,0.011202,-0.1105,-0.036058,0.051814,-0.54681,1.2953,-0.12229,-0.10019,0.12839,3.9445,-0.33696,-1.9113,2.3748,0.019026,0.20652,0.017396,-0.0018189,-0.01875
0.0040371,0.0046419,-0.016457,-0.016395,0.063833,-0.086497,0.0014351,-0.15144,-0.098202,0.0077191,-0.53876,1.4322,-0.013026,-0.056072,0.099402,3.6178,-0.34386,-2.0769,2.2234,0.032982,0.1989,0.021594,-0.002981,-0.014587
0.0016862,0.009459,-0.021669,-0.0085329,0.069965,-0.088445,-0.003342,-0.19128,-0.18387,-0.0099174,-0.50125,1.59,0.093601,-0.006582,0.054159,3.2511,-0.36568,-2.2258,1.9146,0.032642,0.18022,0.022882,-0.0033045,-0.011476
-0.002634,0.019791,-0.023834,-0.0014931,0.077131,-0.088736,-0.0080216,-0.22473,-0.29006,-0.00084969,-0.4218,1.7423,0.17347,0.033968,0.00032821,2.9371,-0.39854,-2.3325,1.4297,0.020995,0.15578,0.021784,-0.0018944,-0.0094914
-0.0063892,0.028154,-0.022174,0.0031142,0.084246,-0.089157,-0.018561,-0.24495,-0.40224,0.024357,-0.30361,1.8599,0.21265,0.056244,-0.04932,2.7249,-0.43318,-2.395,0.82437,0.0036452,0.13144,0.018897,0.0013861,-0.007791
-0.0076451,0.028614,-0.017769,0.005869,0.091653,-0.091209,-0.036003,-0.24743,-0.49777,0.05245,-0.17194,1.9109,0.21447,0.05876,-0.081175,2.5967,-0.4592,-2.426,0.21674,-0.014408,0.1112,0.014712,0.0051385,-0.0050218
-0.0065221,0.021279,-0.012753,0.008234,0.1001,-0.096744,-0.055426,-0.23379,-0.55403,0.077707,-0.061239,1.8706,0.19692,0.046539,-0.086554,2.4925,-0.47016,-2.4389,-0.2628,-0.030557,0.094074,0.0099046,0.0072389,-0.00047592
-0.0047816,0.011863,-0.0090973,0.010678,0.10967,-0.10694,-0.070481,-0.21233,-0.55655,0.10604,0.0077993,1.7394,0.18142,0.027201,-0.066269,2.3606,-0.46645,-2.4403,-0.52651,-0.044153,0.073135,0.0054644,0.0066357,0.0048
-0.0040404,0.0069837,-0.0078633,0.012208,0.11965,-0.12023,-0.078795,-0.19395,-0.50097,0.14965,0.04193,1.5539,0.18065,0.0073656,-0.031109,2.1939,-0.45388,-2.4336,-0.5572,-0.054775,0.039181,0.0022964,0.0043121,0.0081721
-0.0043722,0.0091461,-0.0090757,0.011843,0.12912,-0.13171,-0.082939,-0.18588,-0.38812,0.21645,0.067514,1.3725,0.19354,-0.0086056,0.0030867,2.025,-0.43881,-2.4255,-0.40314,-0.060995,-0.01196,0.00066744,0.0023595,0.0072054
-0.0045751,0.01527,-0.011769,0.010452,0.13761,-0.13539,-0.086184,-0.18759,-0.21898,0.3024,0.10718,1.243,0.21013,-0.017694,0.023836,1.8916,-0.4232,-2.4278,-0.15493,-0.060827,-0.073526,0.0001434,0.0021124,0.0017497
-0.0036988,0.019502,-0.014049,0.010759,0.14508,-0.12814,-0.087533,-0.19173,0.001939,0.39158,0.16075,1.17,0.22101,-0.017066,0.028991,1.8018,-0.40305,-2.4483,0.080244,-0.053383,-0.12853,0.00017357,0.0033155,-0.0057587
-0.0022277,0.01772,-0.013533,0.01503,0.1514,-0.11188,-0.081491,-0.18972,0.25358,0.46293,0.20651,1.1122,0.22337,-0.0045524,0.027292,1.7256,-0.37127,-2.4793,0.20467,-0.040041,-0.15782,0.00074183,0.0051419,-0.012605
-0.0017378,0.010193,-0.0084481,0.022372,0.15602,-0.091919,-0.063538,-0.17778,0.4868,0.49872,0.22101,1.0101,0.21936,0.01923,0.03152,1.6154,-0.32282,-2.495,0.15942,-0.023808,-0.15031,0.0023696,0.0077936,-0.019058
-0.003386,0.00076375,0.0011371,0.02845,0.15833,-0.072576,-0.03646,-0.15935,0.63072,0.49074,0.19986,0.82581,0.21018,0.049125,0.048817,1.4328,-0.2584,-2.4624,-0.049398,-0.007279,-0.10843,0.0054118,0.012719,-0.029523
-0.0067165,-0.0062717,0.013064,0.028455,0.15839,-0.053887,-0.011048,-0.14196,0.62304,0.44293,0.16191,0.56497,0.19254,0.076385,0.075364,1.1662,-0.18442,-2.3609,-0.34638,0.0090097,-0.0452,0.0093674,0.021039,-0.049886
-0.0099331,-0.0089907,0.024354,0.021195,0.15733,-0.032198,0.00077042,-0.13108,0.44983,0.37034,0.13433,0.26511,0.16144,0.092652,0.099488,0.83194,-0.10946,-2.1958,-0.61798,0.026377,0.02403,0.012987,0.031897,-0.082519
-0.011385,-0.0084928,0.033181,0.010752,0.15704,-0.0040756,-0.0045793,-0.12547,0.16585,0.29397,0.13252,-0.034526,0.11625,0.094589,0.11054,0.46793,-0.040003,-1.9933,-0.76845,0.046316,0.088682,0.015175,0.042721,-0.12287
-0.010909,-0.0074373,0.039888,0.0039302,0.15917,0.029886,-0.018343,-0.11768,-0.12589,0.23226,0.15157,-0.31553,0.063607,0.085676,0.10626,0.12572,0.021683,-1.7807,-0.76749,0.069028,0.14411,0.015827,0.051386,-0.16073
-0.0098662,-0.0079134,0.046097,0.0052332,0.16421,0.064544,-0.025132,-0.099158,-0.32855,0.19262,0.17451,-0.57724,0.013579,0.07347,0.092884,-0.1402,0.07644,-1.5646,-0.65832,0.093276,0.1876,0.015736,0.058041,-0.18575
-0.0099185,-0.01013,0.05267,0.013342,0.17097,0.093154,-0.014444,-0.066077,-0.40495,0.1688,0.1877,-0.8161,-0.028094,0.064002,0.078531,-0.29001,0.12503,-1.3283,-0.52304,0.11696,0.21417,0.015606,0.064517,-0.19349
-0.011697,-0.012504,0.058472,0.022067,0.177,0.11116,0.011094,-0.021266,-0.39145,0.14698,0.1891,-1.0124,-0.064729,0.057358,0.066075,-0.31868,0.16549,-1.0493,-0.43216,0.13711,0.2167,0.015144,0.071742,-0.18747
-0.014458,-0.01282,0.061283,0.025125,0.17956,0.1179,0.037604,0.028871,-0.36161,0.11689,0.18401,-1.1416,-0.10605,0.047794,0.05162,-0.26511,0.19311,-0.72552,-0.41185,0.14942,0.19059,0.013232,0.077956,-0.17611
-0.016837,-0.0097067,0.060244,0.020958,0.17685,0.11555,0.050624,0.079324,-0.3676,0.079525,0.17495,-1.2034,-0.16008,0.02842,0.029335,-0.19976,0.20298,-0.3888,-0.44296,0.14913,0.1388,0.009097,0.079994,-0.16675
-0.017867,-0.00369,0.057661,0.013697,0.16864,0.10696,0.046015,0.12879,-0.40528,0.044915,0.15729,-1.2387,-0.22601,-0.0029358,-0.0020713,-0.1948,0.19332,-0.093547,-0.48088,0.13422,0.072595,0.0033952,0.076821,-0.16122
-0.017375,0.0027649,0.058224,0.009524,0.156,0.094433,0.032373,0.17763,-0.42925,0.022325,0.12505,-1.3161,-0.29335,-0.040977,-0.037016,-0.29513,0.16713,0.11257,-0.47705,0.10926,0.0067179,-0.0019323,0.071826,-0.15579
-0.015678,0.0064034,0.065823,0.01149,0.14008,0.080149,0.023193,0.22418,-0.40237,0.011741,0.080467,-1.491,-0.34762,-0.075319,-0.066589,-0.50757,0.13117,0.21584,-0.39355,0.085534,-0.047546,-0.0050313,0.071134,-0.145
-0.013154,0.0050777,0.080316,0.017122,0.12106,0.066879,0.025228,0.26369,-0.33532,0.0045762,0.036815,-1.7706,-0.37775,-0.096367,-0.084802,-0.80966,0.093121,0.24352,-0.21368,0.075211,-0.086321,-0.0055541,0.078866,-0.12613
-0.010214,-0.00070526,0.096994,0.020767,0.098141,0.057763,0.032245,0.29141,-0.28101,-0.0072636,0.010427,-2.1153,-0.38042,-0.10069,-0.092531,-1.1643,0.05869,0.24719,0.049536,0.082586,-0.11159,-0.0048346,0.093469,-0.10117
-0.0075179,-0.0077361,0.10959,0.018563,0.070729,0.054936,0.028822,0.30707,-0.28871,-0.0227,0.0086102,-2.474,-0.35949,-0.092482,-0.096459,-1.5252,0.030221,0.27412,0.35417,0.099338,-0.12621,-0.0046487,0.10864,-0.075104
-0.0059192,-0.011879,0.11477,0.011627,0.04001,0.058215,0.0011796,0.31607,-0.35879,-0.031604,0.02435,-2.8249,-0.32216,-0.080436,-0.10422,-1.8347,0.0069169,0.34481,0.6478,0.10865,-0.1302,-0.0056997,0.11831,-0.052438
-0.0059187,-0.010691,0.11463,0.0046894,0.0093258,0.065118,-0.052702,0.32598,-0.43875,-0.023798,0.04275,-3.1826,-0.27524,-0.072512,-0.11929,-2.0268,-0.013991,0.44899,0.89703,0.095912,-0.12133,-0.0072168,0.12143,-0.034535
-0.0071229,-0.0051058,0.115,0.001513,-0.017175,0.072292,-0.1201,0.34114,-0.4656,0.0012715,0.05327,-3.5678,-0.22318,-0.071888,-0.13884,-2.0471,-0.035846,0.55992,1.1062,0.057761,-0.099139,-0.0079944,0.1223,-0.019688
-0.0083914,0.001131,0.12074,0.0013873,-0.036822,0.077232,-0.17885,0.36008,-0.41848,0.032951,0.056443,-3.9662,-0.16836,-0.076321,-0.15556,-1.8823,-0.06126,0.65551,1.306,0.0022937,-0.068004,-0.0078192,0.12628,-0.0053455
-0.0087603,0.0040303,0.13152,-3.772e-005,-0.049935,0.079081,-0.20721,0.37749,-0.33646,0.057137,0.059056,-4.3167,-0.1124,-0.080627,-0.16217,-1.575,-0.091129,0.73147,1.5181,-0.059005,-0.036402,-0.0078374,0.13472,0.0095739
-0.0083732,0.0021451,0.14166,-0.0063936,-0.059415,0.07822,-0.19278,0.38849,-0.28649,0.066369,0.062888,-4.5411,-0.057581,-0.080174,-0.15585,-1.2077,-0.12435,0.79791,1.7259,-0.12,-0.012669,-0.0094167,0.14376,0.024139
-0.0084556,-0.0024817,0.14416,-0.016871,-0.068749,0.075353,-0.137,0.39108,-0.30911,0.06378,0.058667,-4.5934,-0.0073222,-0.073082,-0.13978,-0.86215,-0.15857,0.86392,1.8806,-0.1817,-0.00072573,-0.012534,0.1479,0.036757
-0.010154,-0.0059308,0.13596,-0.026707,-0.0799,0.070961,-0.053667,0.38515,-0.38748,0.058487,0.032423,-4.4876,0.034507,-0.060099,-0.12067,-0.58328,-0.19157,0.92393,1.9411,-0.24657,0.0011932,-0.01529,0.14489,0.046949
-0.013176,-0.0053275,0.12025,-0.031465,-0.092507,0.065326,0.037019,0.37018,-0.46299,0.057436,-0.020271,-4.2827,0.065268,-0.042887,-0.10379,-0.37235,-0.22237,0.95854,1.9134,-0.3122,-0.0013353,-0.015215,0.1377,0.055913
-0.015542,-0.00079717,0.10419,-0.031099,-0.10469,0.058723,0.11656,0.34506,-0.48093,0.060838,-0.085039,-4.0424,0.085063,-0.022372,-0.089119,-0.21062,-0.25106,0.95012,1.85,-0.37118,-0.0017869,-0.011397,0.13179,0.065549
-0.014921,0.0049927,0.094001,-0.03,-0.11466,0.051373,0.17477,0.3105,-0.42635,0.063981,-0.13419,-3.8012,0.096884,0.0015048,-0.071944,-0.088317,-0.27743,0.89978,1.8051,-0.41739,0.0054205,-0.0055595,0.13061,0.077067
-0.010606,0.0091402,0.091239,-0.03302,-0.12195,0.043319,0.21179,0.27166,-0.32342,0.062341,-0.14442,-3.5637,0.10509,0.028642,-0.047805,-0.01303,-0.2997,0.83037,1.7821,-0.45168,0.024031,-0.00099614,0.13318,0.090467
-0.0044602,0.010624,0.092809,-0.041167,-0.12746,0.034672,0.23464,0.2376,-0.20567,0.054954,-0.11338,-3.3273,0.1132,0.057424,-0.017917,0.0064868,-0.31441,0.77191,1.7202,-0.48046,0.054896,-6.8049e-005,0.13558,0.10514
0.00016611,0.01052,0.094115,-0.050868,-0.13228,0.026324,0.25076,0.2172,-0.087471,0.043992,-0.061924,-3.1032,0.12253,0.084484,0.0098543,-0.019166,-0.31773,0.74168,1.5366,-0.50748,0.094453,-0.0023374,0.13448,0.12067
0.0008496,0.010407,0.092475,-0.057276,-0.13613,0.020482,0.26286,0.21478,0.039152,0.032525,-0.020573,-2.9157,0.13267,0.10592,0.026067,-0.058249,-0.3068,0.73557,1.1917,-0.52679,0.13408,-0.0050102,0.12928,0.13695
-0.0020652,0.010625,0.088223,-0.058429,-0.13649,0.020215,0.2687,0.22884,0.18459,0.02339,-0.011119,-2.7807,0.14323,0.11908,0.027134,-0.078083,-0.28035,0.73619,0.72474,-0.52479,0.1619,-0.0054362,0.12154,0.15374
-0.0057472,0.010012,0.083235,-0.056532,-0.12929,0.027857,0.26544,0.25464,0.34109,0.019677,-0.037464,-2.6878,0.15531,0.12353,0.018797,-0.068039,-0.23874,0.72788,0.22952,-0.49086,0.16705,-0.003544,0.11285,0.17064
-0.0070683,0.0071771,0.078695,-0.055488,-0.11113,0.043299,0.25463,0.28781,0.48058,0.024866,-0.090495,-2.6006,0.17141,0.12071,0.012202,-0.042884,-0.18442,0.70353,-0.20893,-0.4282,0.14416,-0.0019925,0.10368,0.18788
-0.0048606,0.0019688,0.074115,-0.05724,-0.081655,0.063555,0.24339,0.32593,0.57012,0.041054,-0.15955,-2.4768,0.19398,0.11256,0.015316,-0.022562,-0.12323,0.65917,-0.56553,-0.35498,0.095759,-0.0037577,0.09401,0.20719
-0.00039098,-0.0042403,0.068132,-0.060301,-0.044188,0.084194,0.24021,0.36715,0.5893,0.066424,-0.23866,-2.2918,0.22357,0.10047,0.026698,-0.0068147,-0.064689,0.58686,-0.87578,-0.29401,0.031524,-0.0092308,0.084392,0.23127
0.00414,-0.0095434,0.059997,-0.061542,-0.0036383,0.10172,0.24838,0.40832,0.53603,0.094716,-0.32279,-2.0468,0.25821,0.085061,0.036848,0.03148,-0.01924,0.47896,-1.1909,-0.25869,-0.034581,-0.015511,0.075956,0.26137
0.0074979,-0.012684,0.050336,-0.059241,0.036847,0.11518,0.26197,0.44478,0.42155,0.1179,-0.4004,-1.7586,0.29411,0.066719,0.036006,0.12631,0.0076305,0.3438,-1.5288,-0.24585,-0.087919,-0.018697,0.069155,0.29475
0.0099264,-0.013424,0.040704,-0.054537,0.077695,0.12586,0.26809,0.47214,0.26481,0.13007,-0.45266,-1.4405,0.327,0.046336,0.021838,0.28672,0.020631,0.21709,-1.8606,-0.24025,-0.1167,-0.01722,0.062929,0.32415
0.011995,-0.012127,0.032553,-0.050168,0.12106,0.1356,0.25465,0.48818,0.091986,0.12929,-0.46275,-1.0902,0.35289,0.025633,0.00074085,0.47859,0.03431,0.15221,-2.1393,-0.22641,-0.11502,-0.013182,0.055578,0.34063
0.013211,-0.0093319,0.026566,-0.047991,0.16639,0.145,0.21879,0.49283,-0.063793,0.11618,-0.42798,-0.69608,0.3684,0.0070775,-0.017818,0.63562,0.065303,0.18977,-2.3413,-0.19843,-0.084665,-0.010411,0.046772,0.33816
0.012019,-0.0058211,0.022734,-0.047598,0.20726,0.15299,0.17021,0.48664,-0.17058,0.091229,-0.36346,-0.25441,0.37142,-0.0065485,-0.02862,0.69413,0.12138,0.32739,-2.4859,-0.16167,-0.034359,-0.010976,0.038613,0.31695
0.0073287,-0.0027955,0.020804,-0.047058,0.23325,0.15751,0.1264,0.46959,-0.21293,0.053861,-0.29266,0.21606,0.36286,-0.012835,-0.033388,0.63009,0.19513,0.51448,-2.6183,-0.1272,0.023702,-0.013366,0.034364,0.28319
6.1211e-005,-0.0015322,0.020572,-0.044733,0.23643,0.15647,0.10231,0.44155,-0.20253,0.0041046,-0.23168,0.67787,0.3482,-0.010616,-0.037083,0.47519,0.26761,0.67928,-2.7716,-0.10427,0.078442,-0.013985,0.03566,0.24564
-0.0069416,-0.0025265,0.021745,-0.040436,0.21763,0.14832,0.10094,0.40368,-0.17194,-0.055046,-0.17927,1.0989,0.33662,-0.0007336,-0.041666,0.3024,0.32007,0.77038,-2.9417,-0.095827,0.12282,-0.010482,0.040602,0.21147
-0.01082,-0.0049377,0.023625,-0.035191,0.18704,0.13228,0.11133,0.35893,-0.15305,-0.11716,-0.12003,1.4808,0.33631,0.01374,-0.043101,0.18945,0.34537,0.78365,-3.0896,-0.098181,0.15362,-0.0037797,0.044537,0.18395
-0.010825,-0.0070687,0.025003,-0.030313,0.15768,0.10882,0.11565,0.31072,-0.15613,-0.17459,-0.037206,1.8672,0.3483,0.028168,-0.034092,0.18079,0.35121,0.75764,-3.1703,-0.10344,0.16927,0.0030068,0.04303,0.16276
-0.008773,-0.0076294,0.024513,-0.026838,0.13675,0.08037,0.10071,0.26107,-0.16672,-0.2219,0.074974,2.3163,0.36354,0.037792,-0.010005,0.26862,0.3534,0.74383,-3.163,-0.10292,0.16875,0.0074914,0.034725,0.14563
-0.0073237,-0.0066888,0.021298,-0.02553,0.12171,0.051427,0.065897,0.21072,-0.16257,-0.25849,0.20782,2.8491,0.3668,0.039456,0.027082,0.40188,0.36525,0.77436,-3.0831,-0.090662,0.15291,0.0098226,0.021926,0.13007
-0.0075432,-0.0054539,0.015521,-0.026816,0.10443,0.027272,0.022622,0.16152,-0.13569,-0.2889,0.344,3.4103,0.34603,0.032883,0.069216,0.51639,0.39092,0.84745,-2.9708,-0.065922,0.1268,0.0117,0.0086188,0.11445
-0.0079056,-0.0051155,0.0082375,-0.030292,0.079512,0.011758,-0.013823,0.11878,-0.10009,-0.32062,0.46688,3.879,0.30067,0.020911,0.10709,0.56763,0.42629,0.93486,-2.8671,-0.033537,0.099749,0.013863,-0.0024583,0.098759
-0.0057204,-0.0058579,0.00055759,-0.034341,0.049479,0.0057387,-0.033253,0.090335,-0.078503,-0.35959,0.56684,4.1321,0.24269,0.0083875,0.13434,0.54784,0.46447,1.0013,-2.7949,-0.0012575,0.081773,0.014884,-0.011549,0.084922
0.00016322,-0.0068984,-0.0073095,-0.036734,0.022428,0.0074604,-0.034132,0.081649,-0.079655,-0.40479,0.64234,4.1236,0.18927,9.9527e-005,0.14867,0.48011,0.49999,1.0213,-2.7534,0.024631,0.078319,0.012732,-0.021277,0.076168
0.0077648,-0.0074016,-0.016255,-0.036149,0.0046139,0.014551,-0.02025,0.090206,-0.084711,-0.44455,0.69749,3.9188,0.15257,-0.0012944,0.14998,0.39703,0.52882,0.98586,-2.7224,0.042637,0.087505,0.0075676,-0.034227,0.074975
0.013057,-0.0073309,-0.027284,-0.033311,-0.0051419,0.025666,0.0053538,0.10448,-0.05367,-0.45804,0.73878,3.6543,0.13416,0.0038672,0.1384,0.31955,0.54629,0.89821,-2.67,0.05614,0.10212,0.0027339,-0.050399,0.080532
0.013016,-0.0074715,-0.039972,-0.030425,-0.014398,0.040047,0.043703,0.10964,0.053365,-0.42286,0.77261,3.449,0.12747,0.01308,0.11443,0.24916,0.54691,0.76531,-2.5598,0.070517,0.1148,0.0024549,-0.066337,0.087632
0.0081298,-0.0086887,-0.051712,-0.029117,-0.030846,0.055283,0.098069,0.096725,0.25425,-0.32595,0.80361,3.3345,0.1251,0.023472,0.081096,0.17486,0.52753,0.59161,-2.3603,0.089659,0.12223,0.0080171,-0.076709,0.088372
0.0021994,-0.011134,-0.058751,-0.028694,-0.056822,0.06558,0.1692,0.068327,0.53404,-0.17154,0.83371,3.2573,0.12426,0.033044,0.045428,0.086215,0.49124,0.37956,-2.0588,0.11423,0.12523,0.01603,-0.077546,0.075984
-0.00049122,-0.014025,-0.05858,-0.02653,-0.089148,0.062851,0.25182,0.036061,0.84807,0.018832,0.86231,3.1477,0.12629,0.04035,0.017025,-0.018387,0.44779,0.13715,-1.6745,0.14219,0.12548,0.020819,-0.069073,0.04833
0.0016593,-0.016073,-0.051962,-0.020483,-0.12344,0.040722,0.33497,0.011401,1.1349,0.21427,0.88733,2.9952,0.13202,0.043214,0.0037231,-0.1331,0.40941,-0.11312,-1.2571,0.17046,0.12222,0.019292,-0.056071,0.0087705
0.0066275,-0.016172,-0.042878,-0.01128,-0.15809,-0.001101,0.40589,-0.0030706,1.3342,0.3854,0.90634,2.8627,0.13819,0.038314,0.0072277,-0.25196,0.38495,-0.33211,-0.86513,0.19651,0.11225,0.014107,-0.045203,-0.035877
0.01066,-0.013954,-0.03619,-0.0025701,-0.19419,-0.055365,0.45476,-0.015176,1.405,0.51221,0.91687,2.83,0.13865,0.022871,0.02203,-0.37488,0.37671,-0.47361,-0.53231,0.21926,0.092924,0.01201,-0.040989,-0.078528
0.011248,-0.010035,-0.034595,0.0016516,-0.2323,-0.1101,0.47788,-0.03655,1.3399,0.58603,0.91579,2.9164,0.12941,-0.0023994,0.038678,-0.50778,0.38172,-0.50209,-0.24498,0.23922,0.065575,0.018254,-0.043246,-0.11405
0.0087008,-0.0058607,-0.037134,0.00018707,-0.26986,-0.1541,0.4779,-0.073605,1.1676,0.60785,0.8992,3.0518,0.11255,-0.031701,0.049184,-0.65771,0.39517,-0.40725,0.049344,0.25782,0.036043,0.031618,-0.047935,-0.13974
0.0052516,-0.0031176,-0.040338,-0.00438,-0.30206,-0.1817,0.46149,-0.12332,0.94054,0.58576,0.86416,3.1218,0.095472,-0.056049,0.050674,-0.82662,0.41275,-0.20554,0.40344,0.27607,0.011875,0.044422,-0.050726,-0.1548
0.0028663,-0.0028566,-0.041136,-0.0078185,-0.32521,-0.19408,0.4358,-0.17656,0.71121,0.53317,0.81163,3.0487,0.085818,-0.067994,0.0448,-1.0066,0.43024,0.071319,0.82802,0.2935,-0.0015868,0.048029,-0.050473,-0.15998
0.0018342,-0.0048268,-0.039322,-0.0077593,-0.33916,-0.19683,0.40588,-0.22535,0.511,0.46629,0.74846,2.8409,0.086358,-0.065891,0.033894,-1.1775,0.44252,0.3905,1.2775,0.30838,-0.0032211,0.039611,-0.049859,-0.15742
0.0012112,-0.0076186,-0.03776,-0.0055641,-0.34687,-0.19604,0.37442,-0.26757,0.34368,0.39967,0.68625,2.5756,0.093723,-0.054374,0.017462,-1.3095,0.44455,0.72393,1.6772,0.31963,0.0049066,0.024626,-0.052862,-0.1503
0.00031468,-0.0096882,-0.04023,-0.0049052,-0.35197,-0.19522,0.34345,-0.30588,0.19614,0.34117,0.63676,2.3351,0.10161,-0.040715,-0.0078138,-1.3722,0.43456,1.0444,1.973,0.32872,0.020162,0.012801,-0.061295,-0.14172
-0.00040129,-0.010504,-0.048463,-0.0082988,-0.35643,-0.19465,0.3158,-0.3427,0.055308,0.28921,0.6063,2.153,0.10536,-0.030071,-0.044529,-1.3503,0.41637,1.3207,2.1662,0.33946,0.04096,0.010769,-0.073281,-0.1334
9.1233e-005,-0.010778,-0.060536,-0.014688,-0.35976,-0.1925,0.29448,-0.37632,-0.083035,0.23499,0.59223,2.0059,0.10427,-0.023392,-0.090587,-1.259,0.39757,1.5213,2.3069,0.35519,0.066026,0.017308,-0.08471,-0.1253
0.0021432,-0.011502,-0.071755,-0.020246,-0.35885,-0.18652,0.28007,-0.4011,-0.21866,0.16848,0.58334,1.8467,0.10026,-0.019086,-0.1383,-1.1448,0.38378,1.6258,2.4521,0.3751,0.092267,0.024936,-0.09218,-0.11651
0.0048937,-0.012734,-0.077504,-0.021623,-0.34797,-0.17524,0.26887,-0.4111,-0.35589,0.084833,0.56417,1.6419,0.09485,-0.016077,-0.17752,-1.0651,0.37316,1.6352,2.6215,0.3934,0.11361,0.026246,-0.094919,-0.10669
0.0070131,-0.013436,-0.07617,-0.018632,-0.31917,-0.15841,0.25455,-0.40352,-0.50419,-0.012816,0.52097,1.3872,0.087382,-0.014959,-0.2004,-1.0549,0.35638,1.5702,2.788,0.40236,0.12239,0.019557,-0.094463,-0.096875
0.0079293,-0.012641,-0.070181,-0.013952,-0.26497,-0.13692,0.23274,-0.37956,-0.66672,-0.11532,0.44726,1.0987,0.075852,-0.016327,-0.20463,-1.1027,0.32301,1.4578,2.9061,0.39752,0.11285,0.0093887,-0.092938,-0.088899
0.0082961,-0.01075,-0.064485,-0.010353,-0.18344,-0.11232,0.20492,-0.34325,-0.82748,-0.21273,0.34669,0.80064,0.059379,-0.018591,-0.19323,-1.1576,0.2698,1.317,2.9531,0.38088,0.084425,0.0019773,-0.091769,-0.084062
0.0092952,-0.009392,-0.063525,-0.0082643,-0.083039,-0.086131,0.17787,-0.29994,-0.95191,-0.2993,0.23173,0.52139,0.039845,-0.018215,-0.1719,-1.1643,0.20408,1.1525,2.9453,0.35962,0.042474,0.00011533,-0.091679,-0.082238
0.011516,-0.0097387,-0.068804,-0.006048,0.016913,-0.059119,0.15862,-0.25569,-1.0044,-0.37543,0.11851,0.29259,0.021147,-0.012739,-0.14618,-1.1008,0.13902,0.9591,2.9169,0.34137,-0.0039743,0.0016151,-0.093331,-0.082119
0.014443,-0.01094,-0.078611,-0.0024882,0.092767,-0.030954,0.14894,-0.21646,-0.97012,-0.44526,0.020174,0.14237,0.0065197,-0.0037673,-0.11979,-0.98979,0.084297,0.72962,2.8813,0.32973,-0.046201,0.0020548,-0.097438,-0.082255
0.016865,-0.010576,-0.089843,0.0012182,0.12783,-0.00058154,0.14417,-0.18628,-0.86201,-0.51162,-0.057526,0.08245,-0.0039488,0.003239,-0.09452,-0.87569,0.039736,0.46016,2.8132,0.32308,-0.079054,-0.0012134,-0.10407,-0.081863
0.017689,-0.0070884,-0.1003,0.0021436,0.12183,0.032939,0.13713,-0.16464,-0.70788,-0.57167,-0.1159,0.10178,-0.013629,0.0026651,-0.070822,-0.78985,-0.0024774,0.15271,2.6688,0.31695,-0.10189,-0.0073016,-0.11207,-0.080753
0.016498,-0.0019112,-0.10971,-0.001625,0.09185,0.069698,0.12338,-0.14569,-0.52923,-0.61695,-0.15936,0.17675,-0.027104,-0.0070559,-0.048519,-0.73453,-0.048731,-0.1809,2.4247,0.30763,-0.11724,-0.013192,-0.11954,-0.07866
0.013695,0.0011112,-0.11894,-0.0088991,0.063092,0.1087,0.10344,-0.12089,-0.33215,-0.63851,-0.192,0.2907,-0.046837,-0.022165,-0.027566,-0.69743,-0.095694,-0.51362,2.101,0.29427,-0.12849,-0.016417,-0.12516,-0.074878
0.010374,-0.0010677,-0.12851,-0.016032,0.054698,0.14799,0.080315,-0.084234,-0.11869,-0.63434,-0.21815,0.44345,-0.070982,-0.035964,-0.0087445,-0.67762,-0.1302,-0.80232,1.7442,0.27873,-0.13813,-0.016601,-0.12916,-0.068752
0.0079653,-0.0077197,-0.13775,-0.019666,0.06985,0.18484,0.055428,-0.036487,0.093471,-0.61317,-0.2459,0.63864,-0.093781,-0.042584,0.0060304,-0.69297,-0.13802,-0.99818,1.3858,0.26358,-0.14716,-0.015077,-0.13277,-0.060584
0.0074926,-0.014628,-0.14515,-0.019001,0.096458,0.2159,0.026776,0.014918,0.26437,-0.59077,-0.28855,0.85861,-0.10832,-0.039352,0.014229,-0.75905,-0.11468,-1.0668,1.0147,0.25011,-0.1555,-0.01361,-0.1366,-0.05193
0.0086532,-0.017706,-0.14934,-0.015634,0.11731,0.23798,-0.0095824,0.060376,0.34882,-0.57983,-0.3597,1.052,-0.11014,-0.026984,0.014045,-0.86013,-0.069744,-1.0063,0.5888,0.23726,-0.16274,-0.013453,-0.13947,-0.044701
0.0095155,-0.016657,-0.14962,-0.011526,0.12202,0.2496,-0.057034,0.093655,0.32683,-0.57979,-0.46336,1.1515,-0.099723,-0.0088593,0.0059547,-0.94423,-0.021207,-0.84988,0.078537,0.22214,-0.16869,-0.015089,-0.13901,-0.039695
0.007581,-0.015098,-0.14585,-0.0073172,0.11263,0.25264,-0.11786,0.11436,0.22366,-0.57378,-0.58657,1.1136,-0.082768,0.0094514,-0.0064934,-0.95249,0.015325,-0.65026,-0.49626,0.20157,-0.17362,-0.01826,-0.13357,-0.035915
0.0018421,-0.016835,-0.13829,-0.0025728,0.10031,0.25268,-0.19462,0.12593,0.10312,-0.53549,-0.70196,0.94924,-0.067943,0.020803,-0.017389,-0.86021,0.033922,-0.45649,-1.0667,0.17385,-0.17803,-0.022038,-0.12404,-0.031457
-0.0057927,-0.021819,-0.12773,0.0026625,0.097236,0.25691,-0.2903,0.13149,0.037788,-0.44222,-0.78049,0.72008,-0.063056,0.018402,-0.020738,-0.69349,0.037113,-0.29823,-1.5505,0.13953,-0.18231,-0.025176,-0.11375,-0.0253
-0.011265,-0.025814,-0.11589,0.006982,0.11035,0.27021,-0.4045,0.13142,0.076259,-0.28691,-0.80613,0.49775,-0.071276,-0.0010129,-0.013402,-0.50671,0.028778,-0.18521,-1.891,0.10078,-0.18637,-0.026823,-0.10657,-0.018346
-0.01115,-0.024305,-0.10515,0.0085849,0.14007,0.29193,-0.52724,0.12447,0.22682,-0.082391,-0.78211,0.31723,-0.089344,-0.034696,0.0028794,-0.34117,0.0087559,-0.11631,-2.0704,0.060162,-0.18956,-0.027175,-0.10456,-0.01265
-0.0053452,-0.017016,-0.097464,0.0072382,0.18238,0.31531,-0.63612,0.11098,0.4625,0.1435,-0.72455,0.15975,-0.10899,-0.074371,0.021915,-0.20109,-0.025473,-0.086599,-2.0932,0.019836,-0.19111,-0.027387,-0.10688,-0.0094805
0.002618,-0.0086475,-0.093143,0.0051913,0.23066,0.33042,-0.70216,0.094586,0.7374,0.35887,-0.64975,-0.020671,-0.12112,-0.10987,0.036267,-0.065028,-0.072016,-0.086481,-1.9668,-0.017966,-0.19062,-0.028688,-0.11048,-0.0080219
0.008007,-0.0049911,-0.090572,0.0058596,0.27614,0.32871,-0.70315,0.080652,1.001,0.53882,-0.56552,-0.24768,-0.12042,-0.13367,0.041689,0.082803,-0.12021,-0.097785,-1.7032,-0.050255,-0.18849,-0.031437,-0.11174,-0.0060302
0.0080775,-0.0079969,-0.087274,0.011155,0.30927,0.30691,-0.63671,0.07318,1.2062,0.6715,-0.4729,-0.49038,-0.10752,-0.14346,0.039967,0.23314,-0.15458,-0.096394,-1.3394,-0.073809,-0.18578,-0.034946,-0.1081,-0.001922
0.0035106,-0.014378,-0.081498,0.019686,0.32415,0.26836,-0.52378,0.073684,1.3151,0.75737,-0.37471,-0.67629,-0.087263,-0.14153,0.038,0.36038,-0.16522,-0.064206,-0.95158,-0.087245,-0.18379,-0.038126,-0.098702,0.0035879
-0.0027493,-0.018965,-0.07302,0.027456,0.32408,0.22169,-0.39995,0.083693,1.3112,0.80326,-0.28179,-0.7424,-0.064576,-0.13198,0.043496,0.44591,-0.15609,-0.0022557,-0.63681,-0.092934,-0.18341,-0.040205,-0.084488,0.0078288
-0.0079013,-0.019498,-0.062615,0.030676,0.3227,0.1778,-0.30092,0.10814,1.2105,0.81573,-0.21067,-0.68561,-0.041043,-0.11801,0.060257,0.4898,-0.14326,0.067393,-0.46846,-0.096508,-0.18469,-0.040854,-0.067671,0.0082466
-0.010871,-0.018299,-0.050882,0.028516,0.33682,0.14643,-0.25227,0.15477,1.0629,0.79763,-0.17433,-0.57203,-0.014697,-0.10051,0.086525,0.50001,-0.14342,0.11545,-0.4589,-0.10351,-0.18665,-0.039824,-0.050902,0.0044185
-0.012157,-0.019392,-0.037711,0.023654,0.37384,0.13318,-0.26823,0.22782,0.93081,0.74922,-0.17428,-0.49407,0.017237,-0.078401,0.11741,0.47557,-0.16163,0.1259,-0.56092,-0.11563,-0.18762,-0.036868,-0.036148,-0.0016831
-0.012677,-0.024069,-0.022894,0.020157,0.42324,0.13814,-0.35507,0.32013,0.85408,0.67201,-0.20048,-0.50456,0.055299,-0.050195,0.14912,0.40725,-0.18839,0.10727,-0.70856,-0.13,-0.18592,-0.032284,-0.023725,-0.0073114
-0.012878,-0.029305,-0.0071739,0.020418,0.46026,0.15665,-0.51091,0.4116,0.82329,0.57173,-0.23865,-0.57615,0.096991,-0.015993,0.18132,0.29973,-0.20865,0.085135,-0.86484,-0.14253,-0.18081,-0.027521,-0.012171,-0.011006
-0.01268,-0.03053,0.0075003,0.023586,0.46123,0.18212,-0.71918,0.47785,0.78515,0.45796,-0.27874,-0.61779,0.13842,0.021125,0.21581,0.19222,-0.21493,0.08121,-1.0389,-0.15277,-0.17311,-0.024857,0.00074022,-0.013417
-0.01186,-0.026007,0.018964,0.026663,0.41966,0.20927,-0.94279,0.50472,0.6813,0.3409,-0.31774,-0.53907,0.17631,0.055482,0.25304,0.15032,-0.2136,0.095558,-1.2625,-0.16589,-0.16492,-0.025932,0.016337,-0.0164
-0.010322,-0.018583,0.026268,0.027204,0.35065,0.2356,-1.1293,0.49782,0.49451,0.22777,-0.3561,-0.31796,0.20832,0.081287,0.29,0.22682,-0.21916,0.1064,-1.5484,-0.18958,-0.15848,-0.030244,0.033895,-0.02134
-0.0081793,-0.013198,0.030277,0.025172,0.27977,0.26006,-1.2303,0.47892,0.26637,0.12116,-0.3919,-0.024358,0.23188,0.095852,0.32146,0.4208,-0.24166,0.088626,-1.8672,-0.22793,-0.1547,-0.035101,0.05088,-0.028134
-0.0058772,-0.012604,0.032989,0.022425,0.22531,0.28034,-1.2245,0.47124,0.070626,0.020149,-0.41848,0.21722,0.24373,0.10113,0.3434,0.67026,-0.27802,0.037196,-2.1576,-0.27725,-0.15248,-0.037442,0.064481,-0.035521
-0.0043325,-0.015315,0.036285,0.020496,0.188,0.29149,-1.1291,0.48446,-0.038781,-0.076611,-0.42711,0.30006,0.24184,0.10191,0.35549,0.88695,-0.31424,-0.022884,-2.3599,-0.32728,-0.14939,-0.036199,0.073403,-0.042246
-0.0046893,-0.017502,0.04122,0.01899,0.15555,0.28784,-0.98987,0.51067,-0.064545,-0.16779,-0.41193,0.19352,0.22851,0.10171,0.36051,1.0072,-0.33602,-0.048833,-2.4465,-0.36713,-0.14341,-0.033129,0.078672,-0.047958
-0.007509,-0.016788,0.048195,0.016247,0.11678,0.2668,-0.85637,0.53317,-0.059493,-0.2477,-0.37299,-0.050377,0.21117,0.099543,0.36159,1.0204,-0.33872,-0.006708,-2.4318,-0.39173,-0.13441,-0.031213,0.082961,-0.053168
-0.011935,-0.014286,0.057394,0.011569,0.071991,0.231,-0.75852,0.53998,-0.083701,-0.30716,-0.31573,-0.34218,0.1988,0.090468,0.3598,0.95739,-0.32888,0.10672,-2.3612,-0.40435,-0.12429,-0.031885,0.088935,-0.058501
-0.015777,-0.013141,0.068788,0.0066293,0.03066,0.18653,-0.69789,0.5307,-0.16089,-0.33691,-0.24847,-0.61637,0.19563,0.069694,0.35417,0.85546,-0.31714,0.26274,-2.2891,-0.4136,-0.11542,-0.033548,0.097728,-0.064044
-0.016843,-0.01519,0.081749,0.0043133,-0.00071102,0.13835,-0.65611,0.51274,-0.26762,-0.33218,-0.18043,-0.86499,0.19739,0.037023,0.34327,0.73108,-0.3093,0.4203,-2.2571,-0.42721,-0.10877,-0.032865,0.10843,-0.069432
-0.014617,-0.019015,0.094976,0.0058756,-0.028492,0.086906,-0.6108,0.49212,-0.35938,-0.29583,-0.12056,-1.1226,0.19416,-0.0020869,0.32669,0.57957,-0.30251,0.55063,-2.2763,-0.44657,-0.10315,-0.027831,0.11887,-0.074547
-0.010774,-0.02114,0.10709,0.0091798,-0.069616,0.029093,-0.54768,0.4682,-0.40772,-0.238,-0.076143,-1.4188,0.17836,-0.039653,0.3051,0.39444,-0.28873,0.64834,-2.3227,-0.46555,-0.096301,-0.019881,0.12705,-0.08014
-0.007895,-0.019089,0.11742,0.010005,-0.13815,-0.03731,-0.46338,0.43664,-0.41748,-0.17223,-0.050189,-1.7366,0.1516,-0.069901,0.27994,0.18474,-0.26116,0.72279,-2.3494,-0.47417,-0.086927,-0.012973,0.13253,-0.087715
-0.0073603,-0.013452,0.12613,0.0054948,-0.23187,-0.10955,-0.36176,0.39695,-0.41369,-0.1103,-0.039174,-2.0099,0.12417,-0.091904,0.25398,-0.023888,-0.21829,0.78133,-2.3136,-0.4647,-0.075812,-0.010278,0.13661,-0.098613
-0.0083138,-0.0071764,0.13358,-0.003372,-0.33039,-0.17973,-0.24908,0.35666,-0.41483,-0.058723,-0.033981,-2.1602,0.10683,-0.10854,0.2323,-0.20019,-0.16324,0.82215,-2.2038,-0.43595,-0.06514,-0.011433,0.14141,-0.11297
-0.0086305,-0.0029997,0.1396,-0.012645,-0.40668,-0.23874,-0.13186,0.32762,-0.41784,-0.01857,-0.024635,-2.1453,0.10143,-0.12328,0.22151,-0.31635,-0.10043,0.84448,-2.0447,-0.39259,-0.056667,-0.012994,0.14817,-0.12933
-0.0069452,-0.0014938,0.14366,-0.018844,-0.44329,-0.28097,-0.017138,0.31716,-0.40658,0.012066,-0.0057777,-1.9842,0.098622,-0.13755,0.22582,-0.34786,-0.033169,0.86492,-1.8734,-0.34011,-0.050502,-0.011806,0.15603,-0.14524
-0.003776,-0.0013891,0.14566,-0.021808,-0.44127,-0.30657,0.087151,0.32121,-0.37406,0.035271,0.021746,-1.7424,0.085193,-0.15032,0.24159,-0.27028,0.036151,0.92035,-1.7036,-0.27951,-0.04553,-0.0081585,0.16243,-0.15852
-0.0007204,-0.001514,0.14638,-0.024367,-0.41631,-0.3203,0.17302,0.32492,-0.33748,0.05216,0.05481,-1.4941,0.055375,-0.15909,0.25523,-0.063848,0.10442,1.0473,-1.5093,-0.20675,-0.040845,-0.0056113,0.16479,-0.1682
0.0013099,-0.0021929,0.14688,-0.029342,-0.38667,-0.32857,0.2345,0.31033,-0.33283,0.063765,0.09384,-1.2891,0.016575,-0.16103,0.24757,0.2722,0.16684,1.2494,-1.2475,-0.11849,-0.036567,-0.0074385,0.16254,-0.17483
0.0028807,-0.0046558,0.1473,-0.036826,-0.36248,-0.33679,0.26964,0.26576,-0.39262,0.072679,0.14454,-1.1491,-0.015866,-0.15369,0.20339,0.70642,0.21779,1.4792,-0.90435,-0.019767,-0.03319,-0.013045,0.15768,-0.17979
0.0050038,-0.0091416,0.14656,-0.044267,-0.34337,-0.34771,0.28108,0.19122,-0.52276,0.083626,0.2129,-1.0849,-0.03113,-0.13599,0.11987,1.1771,0.25278,1.6533,-0.52427,0.073188,-0.030265,-0.017973,0.15344,-0.18444
0.0074698,-0.01378,0.14357,-0.049036,-0.32383,-0.36026,0.27479,0.09716,-0.69406,0.1021,0.29746,-1.1129,-0.032536,-0.10973,0.0083062,1.6121,0.27017,1.6958,-0.1927,0.13932,-0.026046,-0.017803,0.15193,-0.18938
0.0085401,-0.01562,0.13879,-0.050908,-0.30047,-0.36908,0.25772,-0.0016837,-0.85324,0.13187,0.38634,-1.2502,-0.036272,-0.080519,-0.11166,1.9545,0.2717,1.5833,0.019791,0.16497,-0.018746,-0.012366,0.15261,-0.19451
0.00662,-0.013031,0.13432,-0.052161,-0.27523,-0.36571,0.23557,-0.093376,-0.94659,0.17328,0.4629,-1.4925,-0.060035,-0.056316,-0.22061,2.1781,0.26179,1.3592,0.10955,0.15352,-0.008332,-0.0061214,0.15275,-0.19947
0.0023345,-0.0072949,0.13192,-0.055432,-0.25321,-0.34251,0.21207,-0.17314,-0.94356,0.22342,0.51606,-1.7985,-0.11049,-0.043671,-0.30504,2.286,0.24619,1.1086,0.14579,0.12464,0.002938,-0.0041101,0.1494,-0.20417
-0.0012728,-0.0018088,0.13069,-0.061407,-0.23825,-0.29795,0.18974,-0.24322,-0.84933,0.27776,0.54603,-2.1001,-0.17905,-0.043915,-0.35814,2.2976,0.23027,0.90834,0.22389,0.10293,0.011934,-0.0072178,0.14124,-0.2089
-0.0010216,0.00049625,0.127,-0.068304,-0.2301,-0.23954,0.17104,-0.30895,-0.7014,0.33141,0.55972,-2.335,-0.24842,-0.052469,-0.3784,2.2378,0.2175,0.7858,0.40092,0.10322,0.016913,-0.011366,0.12905,-0.21393
0.0035287,-0.00065125,0.11736,-0.073306,-0.22532,-0.18159,0.15847,-0.37344,-0.55237,0.37892,0.55945,-2.4745,-0.30364,-0.062165,-0.36929,2.1316,0.20846,0.71045,0.66058,0.12264,0.018703,-0.011605,0.11486,-0.21896
0.0093016,-0.0028864,0.10197,-0.074564,-0.22032,-0.13799,0.1532,-0.4343,-0.44689,0.41348,0.53536,-2.5249,-0.33896,-0.068081,-0.3402,2.0026,0.20093,0.61974,0.93003,0.14416,0.019867,-0.0073258,0.10064,-0.22289
0.011953,-0.003335,0.085433,-0.0723,-0.21395,-0.11495,0.15338,-0.48465,-0.40377,0.42716,0.46958,-2.5038,-0.35684,-0.070016,-0.30598,1.8702,0.19119,0.45924,1.1315,0.14852,0.022645,-0.0035183,0.087586,-0.22433
0.0093434,-0.00098698,0.073478,-0.068481,-0.20809,-0.10872,0.15397,-0.51795,-0.4122,0.4134,0.35,-2.415,-0.36225,-0.070806,-0.28258,1.7455,0.17626,0.21149,1.229,0.12596,0.027428,-0.0066426,0.075997,-0.22252
0.0033123,0.0026281,0.068252,-0.065556,-0.20621,-0.11021,0.14876,-0.53324,-0.44375,0.37009,0.18277,-2.2473,-0.35876,-0.072448,-0.28028,1.6303,0.15615,-0.099765,1.2406,0.080489,0.032893,-0.01871,0.065407,-0.21797
-0.001712,0.0048901,0.066496,-0.065026,-0.21125,-0.11261,0.13376,-0.53654,-0.47231,0.30103,-0.0067073,-1.9947,-0.34921,-0.073876,-0.29912,1.5222,0.13482,-0.42601,1.2133,0.025469,0.037482,-0.034972,0.054754,-0.21238
-0.002059,0.0043331,0.062413,-0.066572,-0.22373,-0.11591,0.10949,-0.53691,-0.48927,0.21451,-0.18504,-1.6748,-0.33845,-0.072438,-0.32992,1.4194,0.11909,-0.71695,1.1859,-0.024825,0.040821,-0.047352,0.042828,-0.20769
0.0025319,0.0017937,0.052842,-0.068168,-0.2404,-0.12484,0.080919,-0.53983,-0.50438,0.12019,-0.32565,-1.3245,-0.33362,-0.067473,-0.36029,1.3214,0.11557,-0.93731,1.1644,-0.061665,0.043891,-0.0506,0.029185,-0.20489
0.0088302,-0.00041959,0.040138,-0.067225,-0.25389,-0.14245,0.055191,-0.54305,-0.5331,0.026658,-0.41696,-0.97801,-0.34033,-0.062243,-0.38141,1.2254,0.12717,-1.0733,1.1258,-0.083255,0.047905,-0.045836,0.015097,-0.20337
0.012404,-0.00054921,0.030219,-0.062253,-0.25422,-0.16523,0.038991,-0.53828,-0.58046,-0.059277,-0.461,-0.65013,-0.35766,-0.061997,-0.39137,1.1242,0.15113,-1.1309,1.0416,-0.09227,0.052964,-0.038718,0.0035602,-0.20135
0.010523,0.001148,0.027585,-0.054022,-0.23279,-0.18419,0.036973,-0.51761,-0.63322,-0.13235,-0.46715,-0.34497,-0.37636,-0.069548,-0.39375,1.0113,0.17986,-1.129,0.90237,-0.092839,0.057743,-0.034293,-0.0022028,-0.19708
0.0038279,0.0027162,0.031647,-0.045402,-0.18781,-0.19125,0.051296,-0.4796,-0.66533,-0.1894,-0.44767,-0.079173,-0.38219,-0.082089,-0.39381,0.88729,0.20416,-1.0907,0.72718,-0.08916,0.06053,-0.033249,-0.0010783,-0.19015
-0.0040887,0.0022617,0.037263,-0.039838,-0.12768,-0.18564,0.081293,-0.43106,-0.65162,-0.23078,-0.41689,0.1077,-0.36258,-0.092093,-0.39493,0.759,0.21698,-1.0339,0.55034,-0.085485,0.060726,-0.032475,0.0044732,-0.18189
-0.0088112,-0.00041144,0.038582,-0.039361,-0.069156,-0.17469,0.12285,-0.38365,-0.57912,-0.26062,-0.39087,0.17365,-0.31265,-0.091819,-0.39704,0.62983,0.21575,-0.9673,0.3959,-0.085855,0.059443,-0.028766,0.0092534,-0.17469
-0.007722,-0.0036984,0.032745,-0.043413,-0.029807,-0.16799,0.1685,-0.34857,-0.4477,-0.28399,-0.38413,0.11151,-0.23813,-0.078208,-0.39684,0.48833,0.20243,-0.89274,0.25823,-0.092744,0.058611,-0.021921,0.0082767,-0.17052
-0.0015847,-0.0056109,0.020735,-0.049203,-0.018663,-0.16953,0.20955,-0.33282,-0.26091,-0.30186,-0.40467,-0.031339,-0.15416,-0.054819,-0.38958,0.30865,0.18196,-0.81471,0.10466,-0.10548,0.059384,-0.014622,-0.00013281,-0.16975
0.0059836,-0.0053587,0.0054943,-0.05336,-0.031165,-0.1739,0.23996,-0.33817,-0.016528,-0.30752,-0.45133,-0.17288,-0.080591,-0.029689,-0.37177,0.065021,0.16001,-0.74611,-0.099476,-0.12015,0.061295,-0.0097585,-0.013428,-0.17087
0.010975,-0.0037186,-0.01052,-0.053815,-0.052108,-0.17021,0.25946,-0.36158,0.29168,-0.28855,-0.51657,-0.24326,-0.034831,-0.010667,-0.34408,-0.25145,0.14096,-0.70254,-0.36063,-0.13168,0.062934,-0.0080032,-0.026911,-0.17132
0.011742,-0.0020897,-0.026357,-0.050783,-0.064756,-0.15085,0.27288,-0.39578,0.6583,-0.23456,-0.5925,-0.22178,-0.024438,-0.0010419,-0.31234,-0.62943,0.12651,-0.68593,-0.64531,-0.13695,0.063463,-0.0077203,-0.03729,-0.16869
0.0099052,-0.0013845,-0.041985,-0.046282,-0.059881,-0.11852,0.28531,-0.42999,1.0479,-0.14611,-0.67559,-0.13706,-0.042964,0.0021974,-0.28497,-1.0505,0.11507,-0.67071,-0.89845,-0.13667,0.063478,-0.006793,-0.045024,-0.16169
0.0085808,-0.0018639,-0.057179,-0.04259,-0.038753,-0.085717,0.29638,-0.45227,1.3927,-0.038087,-0.76649,-0.036405,-0.072169,0.006685,-0.26759,-1.5052,0.10249,-0.60895,-1.0804,-0.13464,0.064393,-0.0043459,-0.053655,-0.15057
0.009365,-0.0038067,-0.070966,-0.040672,-0.0089272,-0.066779,0.2982,-0.45363,1.617,0.065681,-0.86594,0.045059,-0.090676,0.020504,-0.25804,-1.9941,0.084148,-0.45794,-1.1952,-0.1351,0.067001,-0.00091823,-0.066657,-0.13684
0.010809,-0.0078808,-0.081817,-0.039632,0.022923,-0.068261,0.27936,-0.43209,1.6775,0.14351,-0.97011,0.091622,-0.084766,0.047679,-0.2463,-2.5106,0.057696,-0.21471,-1.2882,-0.14031,0.070721,0.0025728,-0.084239,-0.12261
0.0099221,-0.014432,-0.088254,-0.037488,0.055316,-0.085076,0.23255,-0.39384,1.59,0.18546,-1.0687,0.094359,-0.054962,0.085753,-0.22063,-3.0231,0.02479,0.068843,-1.413,-0.15,0.074419,0.0057207,-0.10254,-0.10937
0.0054342,-0.022284,-0.089525,-0.032701,0.09067,-0.10511,0.16087,-0.34988,1.4188,0.19548,-1.1464,0.042244,-0.014537,0.12688,-0.17639,-3.4747,-0.0093914,0.30605,-1.5912,-0.16266,0.078131,0.0085822,-0.11592,-0.096999
-0.00032753,-0.02854,-0.08618,-0.025344,0.13046,-0.11842,0.078445,-0.30988,1.2297,0.18583,-1.1863,-0.067554,0.01845,0.16184,-0.12136,-3.8079,-0.038687,0.42178,-1.7928,-0.17664,0.084046,0.011137,-0.12068,-0.083354
-0.0030165,-0.030145,-0.080247,-0.017132,0.17123,-0.12362,0.0048902,-0.2773,1.0416,0.16864,-1.1755,-0.21064,0.029867,0.18466,-0.072855,-3.9955,-0.058809,0.3959,-1.9507,-0.18996,0.095575,0.013135,-0.11774,-0.065414
-0.00017048,-0.026243,-0.07469,-0.010306,0.2043,-0.12696,-0.04333,-0.24905,0.8168,0.15067,-1.1094,-0.33355,0.01386,0.1949,-0.047845,-4.0517,-0.068547,0.27492,-1.9959,-0.19908,0.11497,0.014499,-0.11224,-0.041427
0.0060805,-0.019262,-0.072144,-0.0061882,0.21897,-0.13581,-0.060267,-0.22013,0.50388,0.13366,-0.99468,-0.38222,-0.027969,0.19651,-0.052761,-4.0138,-0.068787,0.14473,-1.8928,-0.19873,0.14119,0.01561,-0.11032,-0.012768
0.010209,-0.013517,-0.073651,-0.0044131,0.20677,-0.15274,-0.053328,-0.18979,0.10056,0.11803,-0.84792,-0.344,-0.089343,0.19437,-0.079965,-3.9101,-0.060636,0.083498,-1.6528,-0.1841,0.16964,0.016871,-0.11516,0.016078
0.007672,-0.012178,-0.078326,-0.0033924,0.16521,-0.1748,-0.040355,-0.16455,-0.31539,0.10541,-0.68992,-0.26778,-0.16075,0.19126,-0.1133,-3.7407,-0.044481,0.12527,-1.3241,-0.15411,0.19407,0.017935,-0.12501,0.039734
-0.0011742,-0.015013,-0.084292,-0.0016826,0.10012,-0.1978,-0.041926,-0.15541,-0.62033,0.097625,-0.53915,-0.23946,-0.22943,0.18722,-0.13835,-3.4877,-0.020641,0.25481,-0.96779,-0.11309,0.20913,0.017633,-0.13459,0.054846
-0.011036,-0.01875,-0.090135,0.00076213,0.026006,-0.22094,-0.071822,-0.17089,-0.725,0.093357,-0.40778,-0.32508,-0.28058,0.18129,-0.14984,-3.1437,0.0094909,0.43153,-0.63599,-0.068996,0.212,0.015047,-0.13896,0.061503
-0.015663,-0.01982,-0.095759,0.0024625,-0.037011,-0.24766,-0.13009,-0.2105,-0.6408,0.086469,-0.30216,-0.52175,-0.30174,0.17368,-0.15156,-2.7349,0.04337,0.62203,-0.36162,-0.028923,0.20222,0.010814,-0.13715,0.06214
-0.012609,-0.017213,-0.10206,0.0016104,-0.070411,-0.28254,-0.2029,-0.26366,-0.47763,0.068733,-0.22543,-0.75348,-0.28861,0.16638,-0.15013,-2.3157,0.078549,0.81874,-0.16069,0.0044745,0.18049,0.0071413,-0.1328,0.059066
-0.0048981,-0.01315,-0.10995,-0.0023007,-0.066514,-0.32735,-0.27033,-0.31508,-0.37022,0.035894,-0.17853,-0.91642,-0.248,0.16188,-0.14878,-1.9407,0.11385,1.0352,-0.039101,0.033038,0.14814,0.0060546,-0.13129,0.052948
0.0016003,-0.011071,-0.11958,-0.0077749,-0.034191,-0.37969,-0.31828,-0.35362,-0.38644,-0.007474,-0.15803,-0.94212,-0.19483,0.16119,-0.14584,-1.6352,0.14885,1.2851,0.0053372,0.059824,0.10783,0.0073393,-0.13559,0.04357
0.0028147,-0.012703,-0.13033,-0.012233,0.0043375,-0.43501,-0.34702,-0.37866,-0.48657,-0.048642,-0.15363,-0.8356,-0.1445,0.16294,-0.138,-1.3866,0.18166,1.562,-0.010576,0.085679,0.064603,0.008351,-0.14405,0.031888
-0.00066809,-0.016665,-0.1412,-0.013868,0.025908,-0.48963,-0.36952,-0.39954,-0.56313,-0.073369,-0.14986,-0.66547,-0.10573,0.16401,-0.12404,-1.1611,0.20737,1.8348,-0.046613,0.10884,0.025461,0.0063415,-0.15195,0.021
-0.0046318,-0.019718,-0.15128,-0.01285,0.021243,-0.54208,-0.3997,-0.42785,-0.52723,-0.074227,-0.13345,-0.51765,-0.07831,0.16106,-0.10514,-0.92836,0.21925,2.0608,-0.040291,0.12786,-0.003292,0.0013683,-0.15542,0.014652
-0.0050174,-0.019519,-0.1599,-0.010807,0.0019586,-0.59125,-0.43827,-0.4673,-0.37336,-0.054861,-0.10274,-0.44719,-0.05649,0.15177,-0.082309,-0.67615,0.21298,2.2066,0.07425,0.14493,-0.019588,-0.0031489,-0.15446,0.014422
-0.0012326,-0.016488,-0.16692,-0.0090234,-0.0063186,-0.63268,-0.46749,-0.5082,-0.17541,-0.027334,-0.072314,-0.45833,-0.03467,0.13518,-0.054388,-0.40674,0.19078,2.2601,0.33594,0.16618,-0.027199,-0.0032312,-0.15252,0.018365
0.0036004,-0.013255,-0.17278,-0.0070907,0.018884,-0.65583,-0.46045,-0.53077,-0.024278,-0.0047332,-0.068003,-0.51909,-0.011065,0.11161,-0.019549,-0.12753,0.16135,2.2256,0.73412,0.1978,-0.03354,0.0017783,-0.15341,0.022768
0.0054008,-0.012288,-0.17823,-0.0033988,0.081173,-0.64531,-0.39998,-0.51619,0.038075,0.0058015,-0.11356,-0.59259,0.012781,0.082753,0.020791,0.15137,0.13448,2.1055,1.2117,0.24067,-0.044717,0.0079571,-0.15819,0.025796
0.0024797,-0.013835,-0.18354,0.0028304,0.16252,-0.58613,-0.29328,-0.45817,0.036889,0.005428,-0.21587,-0.66029,0.035646,0.051947,0.05969,0.41206,0.11356,1.8867,1.6954,0.28743,-0.061349,0.0097224,-0.16481,0.029849
-0.0031443,-0.015914,-0.18777,0.0098573,0.23566,-0.4705,-0.17047,-0.36719,0.028721,0.00088479,-0.35778,-0.72387,0.060412,0.023978,0.086791,0.62889,0.092172,1.5471,2.1342,0.32484,-0.078425,0.0045719,-0.17039,0.04044
-0.007275,-0.016188,-0.18913,0.013916,0.28261,-0.3019,-0.066617,-0.26417,0.049349,-0.00053136,-0.50378,-0.79111,0.094814,0.0035646,0.093561,0.78281,0.058677,1.0828,2.519,0.34031,-0.089386,-0.0046417,-0.1738,0.06236
-0.0065221,-0.013926,-0.18648,0.011863,0.30536,-0.093792,1.1638e-005,-0.16792,0.090573,0.0050125,-0.6169,-0.86177,0.14755,-0.007208,0.077593,0.87982,0.006533,0.53347,2.8708,0.3289,-0.09123,-0.0121,-0.1761,0.096181
-0.00049783,-0.01037,-0.18095,0.0039247,0.32144,0.13567,0.037231,-0.085432,0.11956,0.016457,-0.67747,-0.92556,0.22092,-0.011042,0.042926,0.95029,-0.05739,-0.017153,3.2083,0.29622,-0.086633,-0.014009,-0.1788,0.13761
0.0081309,-0.0074325,-0.17602,-0.0058862,0.34849,0.3687,0.068706,-0.011741,0.11592,0.028688,-0.6925,-0.97122,0.30419,-0.015245,-0.0029529,1.0192,-0.11384,-0.47569,3.5195,0.2553,-0.081656,-0.011729,-0.1819,0.17969
0.015457,-0.0061766,-0.17529,-0.012238,0.39051,0.58958,0.11279,0.061408,0.090585,0.034633,-0.68911,-0.99525,0.37337,-0.028492,-0.052374,1.0687,-0.14216,-0.78677,3.759,0.21943,-0.081242,-0.010312,-0.1839,0.21584
0.018634,-0.0064693,-0.17958,-0.011944,0.43593,0.78327,0.16773,0.1358,0.072273,0.027906,-0.69574,-1.0001,0.40028,-0.056017,-0.098893,1.0325,-0.13376,-0.95974,3.8707,0.19552,-0.086233,-0.013978,-0.18357,0.24175
0.017286,-0.0078484,-0.18562,-0.005653,0.4677,0.93489,0.21512,0.2038,0.078955,0.0054556,-0.72373,-0.98214,0.36769,-0.096299,-0.13756,0.83884,-0.097852,-1.0528,3.8183,0.18209,-0.093912,-0.022719,-0.18161,0.25567
0.013389,-0.010363,-0.18785,0.0034057,0.47624,1.0324,0.23808,0.25403,0.10262,-0.030787,-0.76177,-0.92105,0.28137,-0.1416,-0.16594,0.47537,-0.054923,-1.1269,3.6011,0.17284,-0.10092,-0.032904,-0.18015,0.25791
0.0098686,-0.014323,-0.18238,0.012244,0.46538,1.071,0.23796,0.27988,0.11978,-0.074449,-0.78688,-0.78214,0.16969,-0.18202,-0.18616,0.019852,-0.022785,-1.2046,3.2479,0.16249,-0.10567,-0.040916,-0.18071,0.25036
0.0087764,-0.019248,-0.16988,0.01995,0.44858,1.055,0.23501,0.28331,0.11486,-0.11774,-0.78299,-0.53424,0.069404,-0.21023,-0.20526,-0.39425,-0.0057672,-1.266,2.7998,0.15057,-0.1085,-0.046155,-0.18251,0.23596
0.010086,-0.023344,-0.15506,0.027223,0.44007,0.99403,0.25201,0.27072,0.09323,-0.15546,-0.75242,-0.17307,0.0060342,-0.2238,-0.23178,-0.65292,0.0052369,-1.2767,2.2979,0.14053,-0.1102,-0.050734,-0.18309,0.21791
0.01187,-0.024454,-0.14319,0.034596,0.448,0.89652,0.29493,0.24516,0.07357,-0.18741,-0.71209,0.26463,-0.017597,-0.22454,-0.26923,-0.71713,0.022979,-1.2206,1.7868,0.13567,-0.11085,-0.056522,-0.18064,0.19868
0.011781,-0.021897,-0.13637,0.041378,0.4725,0.76543,0.34689,0.20226,0.069209,-0.21741,-0.6785,0.706,-0.017334,-0.21661,-0.31129,-0.61774,0.05282,-1.1059,1.3255,0.13572,-0.10999,-0.062704,-0.17567,0.17949
0.0088233,-0.017497,-0.13264,0.046284,0.50696,0.60044,0.38037,0.13404,0.077217,-0.2497,-0.65481,1.0655,-0.012366,-0.20547,-0.3432,-0.40633,0.089001,-0.9462,0.98853,0.13685,-0.10759,-0.06624,-0.17031,0.16063
0.0040891,-0.014597,-0.12836,0.048794,0.54025,0.40465,0.37702,0.038208,0.084128,-0.28551,-0.6302,1.2778,-0.011156,-0.19763,-0.3494,-0.11672,0.12013,-0.7416,0.84607,0.13466,-0.10451,-0.064687,-0.16595,0.14248
-0.00013529,-0.015589,-0.12151,0.049653,0.5601,0.19001,0.33878,-0.074312,0.080615,-0.32243,-0.59103,1.3262,-0.0087867,-0.19929,-0.32242,0.22637,0.13837,-0.48522,0.92685,0.12733,-0.10188,-0.058634,-0.16174,0.12626
-0.0021332,-0.019974,-0.11288,0.050022,0.55806,-0.023025,0.28242,-0.18013,0.070254,-0.35693,-0.53301,1.2515,0.0044469,-0.21317,-0.26661,0.57066,0.14481,-0.18925,1.1867,0.11636,-0.10032,-0.051522,-0.15543,0.11395
-0.0019026,-0.024643,-0.1045,0.05041,0.53472,-0.21141,0.22408,-0.25298,0.065071,-0.38732,-0.46404,1.1337,0.032475,-0.23508,-0.19485,0.82555,0.14729,0.098927,1.5087,0.10471,-0.099801,-0.047146,-0.14585,0.10722
-0.00079672,-0.026302,-0.097,0.050667,0.50055,-0.35659,0.16797,-0.27665,0.073855,-0.4143,-0.39636,1.0499,0.070277,-0.25393,-0.12119,0.90683,0.1536,0.3144,1.7443,0.094734,-0.10022,-0.047129,-0.13413,0.10593
-0.00018337,-0.024081,-0.088661,0.050953,0.46973,-0.44847,0.10794,-0.25319,0.095099,-0.43819,-0.33599,1.0317,0.10949,-0.25688,-0.055295,0.80611,0.16542,0.417,1.782,0.087518,-0.10173,-0.050339,-0.12245,0.10749
-0.00047792,-0.02013,-0.076934,0.052312,0.45052,-0.48541,0.038612,-0.20126,0.1204,-0.45527,-0.27876,1.0492,0.14609,-0.23698,-0.0016502,0.61869,0.1774,0.421,1.6045,0.083704,-0.10409,-0.054252,-0.11141,0.1077
-0.0013384,-0.017723,-0.060922,0.055852,0.4398,-0.47226,-0.03538,-0.14575,0.14357,-0.457,-0.21525,1.0377,0.18247,-0.19796,0.037686,0.49263,0.18096,0.38277,1.3005,0.084107,-0.10539,-0.056632,-0.099003,0.10297
-0.0025072,-0.018514,-0.042412,0.0612,0.427,-0.41878,-0.10012,-0.10508,0.16605,-0.43398,-0.13884,0.953,0.22261,-0.15216,0.060407,0.53115,0.16964,0.35431,1.0179,0.088964,-0.10159,-0.056182,-0.082626,0.092545
-0.0041659,-0.021337,-0.024537,0.06603,0.40447,-0.33848,-0.14163,-0.083838,0.19381,-0.38282,-0.04961,0.81606,0.26574,-0.11234,0.063759,0.72552,0.14247,0.34331,0.88131,0.096482,-0.087842,-0.05229,-0.062297,0.078871
-0.0063823,-0.023511,-0.0093845,0.067579,0.37505,-0.24621,-0.15489,-0.074306,0.22969,-0.31104,0.04815,0.71117,0.30498,-0.083056,0.0464,0.97203,0.10389,0.31568,0.92346,0.10244,-0.061425,-0.044973,-0.041832,0.065617
-0.0084234,-0.023345,0.0032335,0.064979,0.34977,-0.15416,-0.14529,-0.06489,0.26876,-0.23576,0.15049,0.73319,0.33201,-0.057712,0.010301,1.1561,0.06117,0.23787,1.0711,0.10193,-0.024716,-0.035489,-0.026315,0.05464
-0.0089909,-0.021488,0.014824,0.060164,0.33736,-0.068193,-0.1228,-0.049346,0.301,-0.17592,0.25495,0.91974,0.34305,-0.023845,-0.03879,1.2332,0.021239,0.11952,1.1958,0.092232,0.014109,-0.026703,-0.017856,0.04437
-0.007436,-0.019904,0.026138,0.056308,0.3347,0.012111,-0.094386,-0.031019,0.31851,-0.14225,0.35748,1.2187,0.34051,0.026879,-0.092516,1.2448,-0.011407,0.016027,1.1954,0.074902,0.043723,-0.021978,-0.013475,0.031048
-0.0048001,-0.019631,0.036066,0.055107,0.32622,0.088548,-0.060252,-0.020028,0.32059,-0.13147,0.44933,1.5165,0.3292,0.090815,-0.14208,1.2689,-0.035183,-0.013581,1.0537,0.055186,0.054926,-0.022772,-0.0072599,0.011799
-0.0034702,-0.019594,0.042659,0.055425,0.29242,0.15798,-0.014822,-0.025878,0.31297,-0.12896,0.51859,1.7078,0.31145,0.1523,-0.18073,1.3529,-0.050937,0.041937,0.84024,0.039097,0.045762,-0.026899,0.00495,-0.013036
-0.0054805,-0.017762,0.04541,0.054542,0.22044,0.21036,0.049865,-0.050645,0.30236,-0.11857,0.55605,1.7542,0.28598,0.19182,-0.20547,1.4831,-0.061457,0.129,0.65411,0.029778,0.023206,-0.029486,0.022442,-0.040161
-0.010822,-0.013515,0.046682,0.050793,0.10964,0.23462,0.14042,-0.087182,0.2915,-0.093462,0.56058,1.6922,0.25152,0.19694,-0.21687,1.6029,-0.071227,0.16169,0.55415,0.02533,-0.00015439,-0.026444,0.040767,-0.065588
-0.017223,-0.0088238,0.05075,0.045102,-0.029582,0.22922,0.25837,-0.12349,0.27842,-0.06068,0.5392,1.5882,0.21091,0.16894,-0.21629,1.6534,-0.085695,0.078998,0.52262,0.019382,-0.012862,-0.017703,0.055974,-0.086742
-0.021641,-0.0068925,0.060986,0.040031,-0.18025,0.209,0.39697,-0.15027,0.25966,-0.036135,0.50189,1.482,0.17115,0.12059,-0.20194,1.6055,-0.10915,-0.1152,0.48418,0.0042708,-0.0106,-0.0072752,0.068066,-0.1029
-0.022303,-0.0093319,0.077369,0.037329,-0.32269,0.20116,0.54052,-0.16648,0.23401,-0.033634,0.45611,1.3648,0.13843,0.067505,-0.16722,1.4688,-0.14167,-0.3558,0.36147,-0.024706,0.0023794,0.00014368,0.080675,-0.11442
-0.019754,-0.014468,0.09639,0.036306,-0.43759,0.231,0.66873,-0.17878,0.20362,-0.055819,0.40558,1.2042,0.11257,0.019733,-0.10383,1.2851,-0.17726,-0.55683,0.1266,-0.066234,0.017145,0.0031087,0.09749,-0.12228
-0.016247,-0.01845,0.11356,0.034477,-0.50995,0.30696,0.76502,-0.19536,0.17193,-0.093725,0.35321,0.99002,0.085899,-0.02038,-0.0089519,1.1139,-0.20568,-0.65883,-0.1846,-0.11299,0.026226,0.0043793,0.11878,-0.12824
-0.014045,-0.018289,0.12655,0.029809,-0.53404,0.41574,0.82369,-0.21864,0.14078,-0.13518,0.30378,0.7582,0.048242,-0.053232,0.10833,1.0099,-0.21795,-0.65444,-0.49942,-0.155,0.027633,0.0080719,0.14106,-0.13458
-0.013919,-0.014154,0.13652,0.022474,-0.51635,0.53141,0.85014,-0.24258,0.10907,-0.17541,0.26231,0.57085,-0.005575,-0.075326,0.22709,0.99623,-0.21245,-0.58245,-0.75166,-0.18444,0.024452,0.015713,0.15984,-0.14248
-0.014842,-0.0088762,0.14655,0.014636,-0.47305,0.63143,0.85374,-0.25691,0.074012,-0.22115,0.22927,0.47295,-0.071274,-0.077599,0.32239,1.0466,-0.19688,-0.50006,-0.91015,-0.19896,0.021279,0.024839,0.17294,-0.15002
-0.014992,-0.0051726,0.15853,0.0085834,-0.42224,0.70766,0.83952,-0.25478,0.033475,-0.28451,0.19769,0.46345,-0.13667,-0.050982,0.37673,1.0931,-0.18431,-0.45215,-0.97661,-0.20134,0.020818,0.031296,0.18142,-0.15213
-0.013304,-0.0031852,0.17119,0.0049553,-0.37548,0.76515,0.80618,-0.23783,-0.012293,-0.37088,0.1563,0.5046,-0.1876,0.0051066,0.38746,1.0626,-0.18549,-0.4526,-0.96277,-0.19611,0.02293,0.032911,0.1878,-0.14382
-0.010407,-0.00067114,0.18085,0.0025253,-0.33413,0.81141,0.75263,-0.2146,-0.060624,-0.46987,0.097605,0.55738,-0.21409,0.078632,0.3652,0.91822,-0.20296,-0.48369,-0.8704,-0.18608,0.025908,0.031075,0.19351,-0.12466
-0.0081957,0.0043494,0.18437,-0.00048034,-0.29265,0.84578,0.6865,-0.19383,-0.1076,-0.55677,0.024793,0.60948,-0.21357,0.14928,0.32511,0.67574,-0.23067,-0.51,-0.69174,-0.17169,0.028106,0.028976,0.19791,-0.10064
-0.0082479,0.011077,0.18167,-0.0048637,-0.2461,0.85708,0.62573,-0.17847,-0.1493,-0.60369,-0.04772,0.67223,-0.19081,0.19858,0.27772,0.38144,-0.25859,-0.49781,-0.42616,-0.15324,0.028596,0.028397,0.19937,-0.081409
-0.010262,0.016136,0.17597,-0.01005,-0.1963,0.83021,0.58983,-0.16515,-0.1825,-0.59302,-0.1008,0.75477,-0.15597,0.21875,0.22614,0.073298,-0.27784,-0.42954,-0.093723,-0.13329,0.02708,0.0282,0.19715,-0.074591
-0.011887,0.016561,0.17159,-0.014959,-0.15252,0.75594,0.58717,-0.14881,-0.20472,-0.52445,-0.11977,0.84419,-0.12204,0.21423,0.17073,-0.24008,-0.28285,-0.30705,0.26922,-0.11611,0.023901,0.025764,0.19224,-0.081594
-0.010338,0.012866,0.17114,-0.019172,-0.12571,0.63689,0.60857,-0.1279,-0.21412,-0.41188,-0.10079,0.91277,-0.10138,0.19603,0.11628,-0.56532,-0.2703,-0.14505,0.62728,-0.10428,0.020304,0.01983,0.18678,-0.097778
-0.0047083,0.0091838,0.17423,-0.02329,-0.11992,0.48672,0.63293,-0.10492,-0.20961,-0.27432,-0.051739,0.94406,-0.10183,0.17375,0.074734,-0.8921,-0.23823,0.037756,0.95592,-0.09563,0.018196,0.012023,0.18266,-0.11607
0.0029182,0.010007,0.17812,-0.028269,-0.12632,0.32466,0.64038,-0.08193,-0.19088,-0.12781,0.012307,0.94995,-0.12354,0.15098,0.060287,-1.1781,-0.1875,0.22237,1.2307,-0.083936,0.019,0.0057563,0.18061,-0.13055
0.0086906,0.016244,0.1795,-0.034439,-0.12505,0.16961,0.62322,-0.055519,-0.15869,0.016728,0.076555,0.95904,-0.15878,0.1262,0.08031,-1.3701,-0.12443,0.3872,1.4069,-0.063611,0.022409,0.0036319,0.17993,-0.13747
0.0097833,0.024087,0.17603,-0.041163,-0.095644,0.036783,0.58747,-0.016725,-0.11524,0.15089,0.13396,0.98473,-0.19539,0.096779,0.12886,-1.4441,-0.061049,0.50671,1.4167,-0.03438,0.026403,0.0056361,0.17889,-0.13445
0.0065342,0.027832,0.16696,-0.047389,-0.030804,-0.062923,0.54613,0.042659,-0.064755,0.26618,0.18892,1.003,-0.22229,0.062666,0.18806,-1.4272,-0.010396,0.55829,1.2001,-0.001827,0.028889,0.0095135,0.1753,-0.11995
0.0020827,0.024336,0.15321,-0.052504,0.056071,-0.12285,0.5112,0.12193,-0.01389,0.35537,0.25403,0.96268,-0.23357,0.027212,0.23679,-1.379,0.020443,0.53649,0.75432,0.026746,0.029587,0.012728,0.16745,-0.0942
-0.00026665,0.015407,0.13707,-0.056701,0.13645,-0.14147,0.49022,0.20861,0.028941,0.41678,0.34042,0.82294,-0.22952,-0.0043825,0.26101,-1.3472,0.034211,0.46354,0.16302,0.047372,0.030322,0.014215,0.15525,-0.060114
0.0002746,0.0062382,0.12156,-0.060541,0.18338,-0.12419,0.48721,0.28441,0.055658,0.45695,0.44729,0.58759,-0.21525,-0.027497,0.25917,-1.3386,0.040449,0.38328,-0.4245,0.060923,0.033282,0.014558,0.14086,-0.022235
0.0015844,0.0014092,0.10925,-0.064184,0.18812,-0.084409,0.50388,0.33662,0.061512,0.48776,0.55897,0.30892,-0.19885,-0.039821,0.24017,-1.3304,0.047454,0.33727,-0.85657,0.070161,0.038849,0.014738,0.12796,0.016205
0.00085851,0.0018139,0.10093,-0.067075,0.16414,-0.041277,0.53805,0.36652,0.04722,0.519,0.65362,0.058672,-0.18953,-0.0416,0.2163,-1.3076,0.055696,0.33701,-1.0466,0.075686,0.045108,0.014806,0.11972,0.055477
-0.0025554,0.0048353,0.0951,-0.068417,0.13499,-0.013773,0.58088,0.38812,0.018485,0.55195,0.71842,-0.10974,-0.19457,-0.034446,0.1965,-1.2829,0.058161,0.35339,-1.003,0.0749,0.049559,0.013749,0.11654,0.098332
-0.006306,0.007169,0.088835,-0.067994,0.11562,-0.013073,0.61687,0.41818,-0.017278,0.57932,0.75937,-0.18002,-0.21463,-0.019637,0.18393,-1.2728,0.047291,0.33366,-0.807,0.064842,0.051363,0.010622,0.11551,0.14612
-0.0069997,0.0076122,0.079643,-0.066506,0.10222,-0.037143,0.6289,0.46539,-0.05515,0.59184,0.79675,-0.16474,-0.24058,0.0026041,0.17779,-1.251,0.022485,0.23568,-0.56009,0.045844,0.05195,0.0057629,0.11226,0.19543
-0.0032876,0.0075094,0.067042,-0.064971,0.078914,-0.070862,0.60616,0.52715,-0.095039,0.58602,0.84848,-0.084849,-0.25658,0.031874,0.17669,-1.1331,-0.0082304,0.055203,-0.33397,0.022325,0.053376,0.00083344,0.10409,0.2385
0.0026286,0.0088037,0.052875,-0.06363,0.035118,-0.092228,0.54987,0.5957,-0.14063,0.56651,0.91434,0.042415,-0.25043,0.065065,0.18048,-0.82663,-0.03359,-0.17343,-0.15103,1.1767e-006,0.056085,-0.0024325,0.092031,0.26771
0.0064335,0.011705,0.040202,-0.061415,-0.021693,-0.08201,0.4732,0.6669,-0.19589,0.54105,0.97416,0.20019,-0.22494,0.094932,0.18986,-0.31845,-0.046728,-0.40127,0.001249,-0.017803,0.058297,-0.0036074,0.080324,0.28033
0.0049441,0.014133,0.031538,-0.056663,-0.069107,-0.032611,0.39528,0.74318,-0.26176,0.51272,1.0022,0.3638,-0.20034,0.112,0.20487,0.27659,-0.048733,-0.59226,0.13651,-0.03151,0.057675,-0.0037257,0.073563,0.27979
-0.0014349,0.0134,0.027432,-0.048702,-0.086538,0.047448,0.33267,0.82737,-0.33502,0.47681,0.9867,0.50179,-0.20293,0.10948,0.22427,0.76214,-0.045767,-0.73196,0.23951,-0.043574,0.053718,-0.0040777,0.073439,0.27216
-0.0089259,0.0085868,0.026123,-0.038996,-0.071728,0.13503,0.29227,0.91363,-0.40962,0.42536,0.93918,0.58871,-0.24673,0.087909,0.24609,0.98179,-0.043091,-0.81381,0.2593,-0.055768,0.048629,-0.0048582,0.077349,0.26106
-0.012978,0.0015498,0.024459,-0.0307,-0.043452,0.1994,0.26888,0.98464,-0.47887,0.35563,0.887,0.61873,-0.32205,0.055548,0.26846,0.92422,-0.041474,-0.82156,0.13177,-0.067933,0.045818,-0.0050103,0.07978,0.24536
-0.011217,-0.0043217,0.019697,-0.026719,-0.028543,0.21246,0.24861,1.0191,-0.53739,0.27483,0.85497,0.60762,-0.40135,0.023535,0.28979,0.72422,-0.038651,-0.73083,-0.18092,-0.078826,0.047367,-0.0033509,0.075602,0.22166
-0.00467,-0.0065191,0.011144,-0.027694,-0.043918,0.15879,0.21645,1.0045,-0.58235,0.19632,0.84995,0.58177,-0.45811,-0.00092676,0.30813,0.5538,-0.033625,-0.53454,-0.65961,-0.087802,0.052572,0.00024006,0.063148,0.18923
0.0032875,-0.0050285,0.00043976,-0.031519,-0.087417,0.041118,0.16409,0.94479,-0.61428,0.13006,0.85831,0.56373,-0.48369,-0.018249,0.32084,0.4903,-0.029387,-0.27152,-1.2288,-0.095869,0.058673,0.0047464,0.045147,0.15291
0.0091932,-0.0019491,-0.0099838,-0.034856,-0.14298,-0.12152,0.092763,0.85737,-0.63723,0.074805,0.85608,0.56423,-0.48839,-0.034352,0.32566,0.46925,-0.031651,-0.028388,-1.7904,-0.1057,0.06299,0.0089681,0.026895,0.12121
0.011281,0.00035493,-0.019236,-0.035436,-0.19401,-0.30229,0.0088911,0.76258,-0.65764,0.018644,0.82312,0.58275,-0.48694,-0.054921,0.32279,0.35889,-0.045111,0.096532,-2.2678,-0.12091,0.064709,0.012343,0.012798,0.10112
0.0098395,0.00092979,-0.029055,-0.03334,-0.23356,-0.47695,-0.084157,0.67416,-0.68187,-0.052476,0.75226,0.61101,-0.48228,-0.08103,0.31635,0.089682,-0.070682,0.047026,-2.6302,-0.14467,0.065089,0.014801,0.0034901,0.093888
0.0063968,0.00049286,-0.04229,-0.030313,-0.26476,-0.62996,-0.19063,0.59697,-0.71321,-0.14463,0.64967,0.6349,-0.46253,-0.10943,0.31327,-0.27327,-0.10569,-0.15762,-2.8825,-0.17758,0.066145,0.016063,-0.0045308,0.095148
0.0026361,0.00040876,-0.059685,-0.027892,-0.29406,-0.75373,-0.31766,0.53053,-0.7503,-0.2515,0.52907,0.63608,-0.41309,-0.1363,0.31932,-0.57607,-0.14605,-0.435,-3.0346,-0.21541,0.068879,0.015507,-0.016375,0.099033
-0.00021623,0.0015073,-0.077725,-0.026044,-0.32506,-0.8437,-0.46332,0.47255,-0.78743,-0.35802,0.40519,0.59724,-0.33149,-0.16019,0.33454,-0.69907,-0.18806,-0.68911,-3.0801,-0.24882,0.072265,0.012945,-0.034878,0.10248
-0.0014666,0.0036652,-0.089913,-0.0234,-0.35755,-0.89515,-0.60731,0.41886,-0.81627,-0.4483,0.29077,0.51167,-0.2306,-0.18109,0.35132,-0.65153,-0.22892,-0.86141,-2.9981,-0.26653,0.073719,0.0094209,-0.057984,0.10636
-0.00084265,0.0061251,-0.091077,-0.018689,-0.39019,-0.90511,-0.71424,0.36236,-0.82766,-0.51173,0.19781,0.3917,-0.12728,-0.19715,0.35724,-0.55932,-0.26656,-0.94934,-2.7756,-0.26118,0.070856,0.0068426,-0.079332,0.11304
0.0015258,0.0079338,-0.081527,-0.011961,-0.42167,-0.87715,-0.75074,0.29514,-0.81301,-0.54382,0.14013,0.26922,-0.028561,-0.20302,0.34125,-0.55921,-0.30027,-0.98643,-2.4252,-0.23418,0.063462,0.0064966,-0.091949,0.12321
0.0050692,0.0081696,-0.067653,-0.0046056,-0.4484,-0.82337,-0.70577,0.21445,-0.76614,-0.543,0.13259,0.18535,0.070505,-0.1928,0.29917,-0.6904,-0.33138,-1.0069,-1.9869,-0.19593,0.054185,0.007832,-0.0927,0.13481
0.0088614,0.0061995,-0.058229,0.0016673,-0.4622,-0.75963,-0.59956,0.12721,-0.68572,-0.5075,0.18453,0.17308,0.17467,-0.16575,0.23499,-0.87022,-0.36265,-1.0243,-1.5145,-0.16046,0.047059,0.0088466,-0.084464,0.1447
0.011861,0.0021997,-0.059041,0.0059139,-0.45244,-0.69687,-0.47328,0.04735,-0.57707,-0.43507,0.28998,0.23991,0.27466,-0.12944,0.15713,-0.9665,-0.39571,-1.0364,-1.061,-0.13815,0.044549,0.0078099,-0.074356,0.15079
0.013177,-0.0024521,-0.069738,0.0083482,-0.4131,-0.63506,-0.36559,-0.013339,-0.45102,-0.32573,0.42228,0.35837,0.34724,-0.096909,0.073228,-0.89959,-0.42856,-1.0414,-0.66775,-0.1312,0.045259,0.004636,-0.069009,0.15264
0.012278,-0.0056455,-0.0849,0.010017,-0.34915,-0.56511,-0.29197,-0.053596,-0.31923,-0.18517,0.53995,0.46956,0.37197,-0.078911,-0.01279,-0.69123,-0.45552,-1.0465,-0.35598,-0.13433,0.044359,0.00054353,-0.070133,0.15007
0.0092105,-0.0059532,-0.098154,0.012159,-0.27617,-0.47794,-0.24065,-0.082645,-0.18855,-0.026465,0.60355,0.50169,0.3509,-0.077023,-0.099674,-0.43213,-0.4706,-1.0583,-0.11738,-0.1391,0.036853,-0.0035361,-0.073579,0.14186
0.0049054,-0.0039349,-0.10615,0.015545,-0.21258,-0.37416,-0.18705,-0.11145,-0.058913,0.13119,0.59407,0.39861,0.31259,-0.082984,-0.18611,-0.21066,-0.47139,-1.0682,0.08664,-0.13829,0.021447,-0.0079568,-0.072792,0.12591
0.0012945,-0.0019488,-0.10983,0.01993,-0.16982,-0.26777,-0.11552,-0.14316,0.073203,0.26671,0.52065,0.14647,0.29479,-0.084823,-0.26967,-0.06899,-0.46,-1.0502,0.30538,-0.12791,0.002041,-0.013516,-0.064337,0.10115
0.00076647,-0.0022614,-0.11273,0.023888,-0.14775,-0.18152,-0.032808,-0.1715,0.20773,0.3632,0.41225,-0.21645,0.3187,-0.075156,-0.34857,-0.013781,-0.44014,-0.97815,0.56222,-0.10697,-0.014444,-0.019563,-0.051409,0.069204
0.0047943,-0.0049455,-0.11812,0.025429,-0.13744,-0.13706,0.035339,-0.18858,0.33607,0.41361,0.29975,-0.61465,0.37558,-0.055594,-0.42343,-0.051736,-0.41335,-0.84953,0.82653,-0.076833,-0.022396,-0.023197,-0.042575,0.034334
0.012425,-0.0075467,-0.127,0.023374,-0.12808,-0.14521,0.060815,-0.19454,0.44236,0.42309,0.20162,-0.96857,0.43583,-0.034611,-0.49588,-0.20065,-0.37826,-0.69407,1.0239,-0.040965,-0.020899,-0.020836,-0.046437,0.0017336
