-2.4502e-010,7.6208e-010,4.4934e-009,3.0676e-010,-1.91e-010,7.8523e-010,4.613e-009,-9.1256e-010,-1.9486e-010,5.9616e-010,8.7398e-010,2.5795e-009,-4.3024e-010,1.6766e-009,5.7358e-009,-2.8959e-009,-6.4246e-010,4.8811e-010,3.8258e-009,-5.022e-009,5.267e-010,1.1171e-009,5.2226e-009,5.867e-009
-6.8519e-009,2.104e-008,1.2401e-007,8.473e-009,-5.2549e-009,2.1541e-008,1.274e-007,-2.5638e-008,-5.3885e-009,1.6127e-008,2.4452e-008,7.1076e-008,-1.2279e-008,4.6943e-008,1.59e-007,-8.1448e-008,-1.7661e-008,1.345e-008,1.0581e-007,-1.3892e-007,1.4701e-008,3.0927e-008,1.4425e-007,1.6185e-007
-9.3017e-008,2.8229e-007,1.6636e-006,1.1368e-007,-7.0317e-008,2.873e-007,1.7098e-006,-3.5118e-007,-7.248e-008,2.1185e-007,3.3312e-007,9.517e-007,-1.706e-007,6.3998e-007,2.1431e-006,-1.117e-006,-2.3596e-007,1.7995e-007,1.4223e-006,-1.8681e-006,1.9937e-007,4.1626e-007,1.9365e-006,2.1697e-006
-8.1642e-007,2.4521e-006,1.4453e-005,9.8685e-007,-6.0952e-007,2.4823e-006,1.4858e-005,-3.1262e-006,-6.3206e-007,1.8004e-006,2.9447e-006,8.25e-006,-1.5378e-006,5.6611e-006,1.8713e-005,-9.9569e-006,-2.0413e-006,1.5574e-006,1.2379e-005,-1.6269e-005,1.75e-006,3.6291e-006,1.6833e-005,1.883e-005
-5.2051e-006,1.5496e-005,9.1399e-005,6.2279e-006,-3.8451e-006,1.5616e-005,9.3957e-005,-2.034e-005,-4.0189e-006,1.1124e-005,1.8989e-005,5.2036e-005,-1.0113e-005,3.6528e-005,0.00011896,-6.49e-005,-1.2852e-005,9.7974e-006,7.8408e-005,-0.00010313,1.1176e-005,2.3036e-005,0.00010649,0.00011888
-2.5671e-005,7.5895e-005,0.00044823,3.0434e-005,-1.8797e-005,7.6208e-005,0.00046063,-0.00010314,-1.9868e-005,5.3236e-005,9.5209e-005,0.00025444,-5.1705e-005,0.00018324,0.00058672,-0.00032988,-6.2735e-005,4.7733e-005,0.00038502,-0.00050693,5.533e-005,0.00011345,0.00052232,0.0005817
-0.00010182,0.00029959,0.0017732,0.00011974,-7.4008e-005,0.0003001,0.0018212,-0.00042433,-7.9527e-005,0.00020522,0.00038626,0.0010032,-0.00021389,0.00074372,0.0023354,-0.0013619,-0.00024697,0.00018733,0.0015246,-0.0020098,0.0002209,0.00045093,0.0020659,0.002294
-0.00033329,0.00097837,0.0058097,0.00038929,-0.00024064,0.00097914,0.0059617,-0.0014562,-0.000265,0.0006542,0.0013028,0.0032744,-0.00073521,0.0025089,0.007704,-0.004697,-0.00080504,0.00060806,0.004998,-0.0065986,0.00073031,0.0014856,0.0067651,0.0074846
-0.00091624,0.0026913,0.016058,0.0010645,-0.00065698,0.002696,0.016459,-0.0042522,-0.00075017,0.0017562,0.0037242,0.0090124,-0.0021393,0.0071703,0.021458,-0.013813,-0.002213,0.001663,0.013816,-0.018271,0.002037,0.0041334,0.018678,0.02057
-0.0021407,0.0063139,0.037927,0.0024776,-0.0015211,0.0063455,0.038817,-0.010725,-0.0018316,0.0040204,0.0091522,0.021186,-0.0053369,0.017604,0.051134,-0.035194,-0.0051963,0.0038835,0.03262,-0.043213,0.0048569,0.0098413,0.044034,0.048213
-0.004282,0.012735,0.077221,0.0049447,-0.0029993,0.012879,0.078888,-0.023631,-0.0039027,0.0079158,0.019544,0.042908,-0.011508,0.037498,0.10523,-0.078676,-0.010512,0.0078186,0.066349,-0.088045,0.0099906,0.020239,0.089391,0.097146
-0.0073545,0.022179,0.13625,0.0084863,-0.0050229,0.02266,0.13887,-0.0459,-0.0073224,0.01347,0.036564,0.075249,-0.021521,0.06978,0.18814,-0.15597,-0.018412,0.013666,0.11686,-0.15528,0.017834,0.036167,0.157,0.16894
-0.010828,0.033364,0.20872,0.012493,-0.0070511,0.034626,0.21214,-0.07914,-0.012181,0.01984,0.060327,0.11446,-0.034837,0.11391,0.29327,-0.27682,-0.027959,0.020854,0.17851,-0.23735,0.027704,0.056343,0.23882,0.25354
-0.01355,0.043184,0.27722,0.015605,-0.008014,0.045883,0.28072,-0.12182,-0.018055,0.025251,0.088303,0.15071,-0.048313,0.16328,0.39894,-0.44388,-0.036709,0.027933,0.23606,-0.31343,0.037453,0.076554,0.31361,0.3266
-0.014133,0.047624,0.31749,0.016084,-0.0066717,0.052442,0.31986,-0.16818,-0.023933,0.027631,0.11545,0.17065,-0.055891,0.20501,0.4732,-0.64916,-0.041325,0.033135,0.26856,-0.35449,0.043924,0.090537,0.35239,0.35642
-0.01175,0.043959,0.31047,0.01266,-0.0023924,0.051206,0.31038,-0.20917,-0.028455,0.02582,0.13616,0.16411,-0.050245,0.22357,0.48895,-0.87508,-0.039211,0.035462,0.25983,-0.33733,0.044424,0.092848,0.33302,0.32072
-0.0068845,0.033016,0.2559,0.0054071,0.0040829,0.042208,0.25251,-0.23555,-0.030459,0.020588,0.14734,0.13151,-0.026555,0.2076,0.44209,-1.1006,-0.030308,0.035604,0.21024,-0.26099,0.038494,0.082389,0.2565,0.22451
-0.0013592,0.019626,0.17699,-0.004025,0.010585,0.029359,0.17045,-0.24193,-0.029593,0.014536,0.15043,0.085979,0.013156,0.15615,0.35912,-1.3091,-0.017685,0.035789,0.14045,-0.15289,0.028705,0.063996,0.15239,0.10452
0.0026035,0.010266,0.10947,-0.013117,0.014553,0.018596,0.10099,-0.22956,-0.026583,0.010617,0.15044,0.047105,0.058109,0.080016,0.28477,-1.4926,-0.0060811,0.038353,0.081417,-0.056435,0.019553,0.04625,0.065141,0.01212
0.0037824,0.0090463,0.079754,-0.019709,0.014693,0.014261,0.071099,-0.20592,-0.022884,0.010147,0.1522,0.028873,0.091828,-0.0031984,0.25458,-1.6488,0.0009152,0.043924,0.055093,-0.0050402,0.014933,0.036338,0.027323,-0.017556
0.0027834,0.014977,0.08755,-0.022899,0.012001,0.016226,0.080171,-0.1813,-0.01982,0.011863,0.1564,0.030519,0.09981,-0.077463,0.27155,-1.774,0.0030758,0.050701,0.059365,-0.00052426,0.015894,0.03549,0.038184,0.011534
0.0015775,0.022869,0.10714,-0.023092,0.0091481,0.020166,0.10141,-0.16421,-0.017768,0.012952,0.15896,0.037711,0.077678,-0.13458,0.30551,-1.8572,0.0033637,0.055543,0.069898,-0.013268,0.020366,0.038581,0.065147,0.060306
0.0020277,0.027444,0.10768,-0.021471,0.0084387,0.021044,0.10255,-0.15835,-0.016055,0.011392,0.15455,0.033837,0.034081,-0.1747,0.31716,-1.8804,0.0054591,0.056111,0.059049,-0.005748,0.02499,0.038416,0.068761,0.08418
0.0045199,0.027363,0.076793,-0.019541,0.009944,0.017148,0.070052,-0.1622,-0.013726,0.007729,0.14165,0.012646,-0.014611,-0.20196,0.2882,-1.8254,0.010977,0.052343,0.017635,0.038422,0.027411,0.031334,0.03217,0.065568
0.0077491,0.025746,0.028128,-0.019005,0.011463,0.011424,0.017253,-0.17106,-0.010644,0.0046729,0.1247,-0.01798,-0.05467,-0.21958,0.23355,-1.679,0.018636,0.046141,-0.038028,0.10326,0.027147,0.019623,-0.028461,0.023207
0.0097868,0.026707,-0.01275,-0.021494,0.010469,0.0089903,-0.029503,-0.1796,-0.0079231,0.0046414,0.11137,-0.043825,-0.082716,-0.22797,0.18675,-1.4345,0.02588,0.039751,-0.079716,0.15568,0.024636,0.0089666,-0.080322,-0.0082573
0.0095633,0.031027,-0.031267,-0.02768,0.0063797,0.012931,-0.053859,-0.18372,-0.0072339,0.0071742,0.10731,-0.056499,-0.10436,-0.22582,0.17223,-1.091,0.031284,0.034398,-0.090085,0.17345,0.019891,0.0033938,-0.10215,-0.0095908
0.007646,0.035004,-0.035163,-0.036188,0.0010676,0.021853,-0.061268,-0.18109,-0.0094832,0.0084927,0.11305,-0.059289,-0.12482,-0.2118,0.18808,-0.65655,0.035512,0.030234,-0.075586,0.16169,0.012449,0.0021736,-0.099812,0.0082015
0.0058111,0.033687,-0.045006,-0.043475,-0.0028653,0.031092,-0.070324,-0.17085,-0.014005,0.0039255,0.12531,-0.062239,-0.13994,-0.18523,0.21185,-0.1579,0.040107,0.027186,-0.059257,0.14502,0.0027024,0.0010694,-0.097144,0.017023
0.0058018,0.025645,-0.07372,-0.045446,-0.0044799,0.036314,-0.093205,-0.15314,-0.018915,-0.008336,0.14062,-0.071843,-0.13683,-0.1461,0.22077,0.35347,0.045471,0.025442,-0.060622,0.14422,-0.0070744,-0.0035791,-0.11245,-0.00098786
0.0081716,0.014801,-0.11437,-0.040028,-0.0053216,0.036417,-0.12411,-0.1286,-0.022178,-0.024881,0.15673,-0.085115,-0.10499,-0.096318,0.20745,0.8113,0.050063,0.024895,-0.080462,0.15946,-0.013626,-0.011714,-0.14271,-0.037072
0.011946,0.007427,-0.14695,-0.028752,-0.0079127,0.033599,-0.14592,-0.098205,-0.022319,-0.037993,0.17007,-0.093038,-0.048979,-0.041603,0.17938,1.1623,0.051524,0.024325,-0.10281,0.174,-0.015208,-0.019867,-0.1687,-0.063664
0.015256,0.0067768,-0.15693,-0.015927,-0.013319,0.031073,-0.14758,-0.06301,-0.018288,-0.039462,0.1724,-0.08948,0.009422,0.0085235,0.14738,1.394,0.048657,0.021568,-0.11084,0.17279,-0.013401,-0.024202,-0.17428,-0.057228
0.016499,0.01016,-0.14817,-0.0059299,-0.020014,0.030677,-0.13515,-0.023948,-0.0091122,-0.024994,0.15187,-0.077084,0.043044,0.044593,0.11669,1.5359,0.04249,0.014972,-0.10174,0.15733,-0.012259,-0.023437,-0.16089,-0.015239
0.015311,0.011191,-0.13879,-0.00067973,-0.025018,0.03222,-0.12616,0.018658,0.0056621,0.0033597,0.10009,-0.065202,0.036503,0.063267,0.08803,1.6283,0.035634,0.0049147,-0.087851,0.14322,-0.015163,-0.019424,-0.14469,0.045301
0.012756,0.0053611,-0.14489,0.00084965,-0.02621,0.034479,-0.13339,0.065435,0.024705,0.037941,0.020676,-0.062404,-0.0052714,0.070767,0.063763,1.6798,0.030598,-0.0062026,-0.084591,0.1442,-0.022022,-0.015458,-0.14085,0.10249
0.010612,-0.0058925,-0.1673,0.0010524,-0.023796,0.036431,-0.15367,0.11743,0.044094,0.068748,-0.068158,-0.070425,-0.063732,0.079876,0.0492,1.6561,0.028355,-0.015733,-0.096969,0.15862,-0.029346,-0.014114,-0.15089,0.14239
0.010233,-0.016181,-0.1928,0.0016425,-0.019815,0.037574,-0.17195,0.17416,0.058381,0.087498,-0.14081,-0.084113,-0.12187,0.1018,0.046199,1.5151,0.027988,-0.022838,-0.11654,0.17086,-0.033269,-0.016253,-0.16407,0.16101
0.011729,-0.019367,-0.20719,0.0027889,-0.016397,0.037514,-0.17589,0.23098,0.063441,0.090707,-0.1774,-0.096183,-0.17415,0.13866,0.046483,1.2613,0.02738,-0.028939,-0.13027,0.16539,-0.032934,-0.021362,-0.16992,0.15941
0.01403,-0.014543,-0.20768,0.003748,-0.014416,0.035728,-0.16706,0.27813,0.059144,0.080626,-0.17414,-0.10206,-0.22354,0.18206,0.033724,0.96784,0.024396,-0.036134,-0.13226,0.14004,-0.031297,-0.028329,-0.16841,0.14086
0.015721,-0.0066468,-0.20363,0.004004,-0.01355,0.031967,-0.15859,0.30359,0.049576,0.06368,-0.14399,-0.10132,-0.27065,0.21793,-0.0052399,0.73846,0.018038,-0.045004,-0.12777,0.10654,-0.032603,-0.0358,-0.16853,0.11329
0.016016,-0.0023201,-0.20647,0.0037992,-0.013326,0.026783,-0.16236,0.29964,0.040326,0.04709,-0.10786,-0.096129,-0.30719,0.23319,-0.06958,0.63582,0.0091459,-0.053791,-0.12706,0.079493,-0.038655,-0.042182,-0.17778,0.090909
0.015164,-0.0045962,-0.21882,0.0038194,-0.013914,0.021368,-0.17832,0.26898,0.034823,0.035367,-0.082816,-0.089027,-0.32062,0.21923,-0.14419,0.63998,0.00029904,-0.059631,-0.13549,0.064442,-0.047058,-0.045879,-0.19369,0.08867
0.014112,-0.010788,-0.23259,0.0046297,-0.015881,0.016657,-0.19522,0.22561,0.032585,0.028732,-0.075065,-0.081988,-0.30498,0.17197,-0.21063,0.67715,-0.005277,-0.06067,-0.14925,0.055724,-0.052971,-0.046001,-0.20558,0.11157
0.013754,-0.015156,-0.23687,0.0064716,-0.019288,0.012549,-0.20142,0.18814,0.030705,0.02444,-0.080849,-0.076259,-0.26649,0.091656,-0.25982,0.69687,-0.0054604,-0.057254,-0.15965,0.04444,-0.052931,-0.042998,-0.20459,0.14877
0.014315,-0.013955,-0.22759,0.0094297,-0.023155,0.0081584,-0.19494,0.16957,0.027072,0.019896,-0.09249,-0.072107,-0.21814,-0.014832,-0.29597,0.72922,-0.00069909,-0.051428,-0.1614,0.028055,-0.047573,-0.038416,-0.19189,0.17991
0.015196,-0.0086118,-0.21059,0.013524,-0.025937,0.0029386,-0.18411,0.17057,0.02245,0.014939,-0.10425,-0.068503,-0.16874,-0.13163,-0.3297,0.86824,0.005869,-0.045512,-0.15679,0.012749,-0.04102,-0.033694,-0.17771,0.18979
0.015313,-0.0044514,-0.19605,0.01845,-0.02672,-0.0024683,-0.17895,0.1814,0.019573,0.011353,-0.1144,-0.063722,-0.11757,-0.23612,-0.36828,1.192,0.0099659,-0.04113,-0.1527,0.0072564,-0.037506,-0.028978,-0.17234,0.17862
0.013755,-0.0061411,-0.19021,0.023234,-0.026132,-0.0066627,-0.18224,0.19084,0.02024,0.010271,-0.12365,-0.057036,-0.059983,-0.30771,-0.41214,1.6856,0.0085477,-0.039225,-0.15381,0.014633,-0.038169,-0.023189,-0.17761,0.1586
0.010479,-0.013683,-0.19165,0.026375,-0.026175,-0.0089242,-0.18787,0.19517,0.023176,0.010237,-0.13284,-0.050078,0.0018108,-0.33819,-0.45999,2.2306,0.0014807,-0.040453,-0.1587,0.029443,-0.040669,-0.015554,-0.18608,0.13977
0.0066221,-0.022295,-0.19424,0.026719,-0.028847,-0.010197,-0.18733,0.20005,0.024778,0.0081707,-0.14197,-0.046119,0.053459,-0.33552,-0.51586,2.6719,-0.0085509,-0.045096,-0.16231,0.042242,-0.041836,-0.0072837,-0.18792,0.11833
0.0040539,-0.026268,-0.19301,0.024596,-0.034279,-0.012426,-0.17748,0.21461,0.022177,0.0025112,-0.15089,-0.047254,0.074196,-0.31744,-0.58966,2.9065,-0.017714,-0.052425,-0.16171,0.046773,-0.040828,-0.0016324,-0.179,0.078318
0.0042181,-0.023599,-0.18722,0.022238,-0.039482,-0.016646,-0.16282,0.24299,0.015895,-0.0046547,-0.16001,-0.051803,0.0488,-0.29937,-0.68928,2.9318,-0.023042,-0.060337,-0.15943,0.043657,-0.039914,-0.0018566,-0.16334,0.0052407
0.0069331,-0.01758,-0.17889,0.022821,-0.038741,-0.021582,-0.15103,0.28057,0.0096217,-0.0090042,-0.1699,-0.05458,-0.023589,-0.28621,-0.81034,2.8252,-0.023544,-0.066067,-0.16079,0.038218,-0.042132,-0.0086276,-0.14871,-0.10029
0.010129,-0.014063,-0.16949,0.028466,-0.026013,-0.02431,-0.14647,0.31712,0.0071773,-0.0079957,-0.18007,-0.050349,-0.12897,-0.27361,-0.93235,2.6825,-0.020084,-0.067736,-0.16792,0.035259,-0.047888,-0.019271,-0.13975,-0.22048
0.010979,-0.01667,-0.1587,0.038568,0.0014254,-0.022636,-0.14709,0.34373,0.0092439,-0.0037044,-0.18846,-0.037822,-0.24407,-0.25534,-1.0252,2.5648,-0.014565,-0.065584,-0.1762,0.03555,-0.053595,-0.029764,-0.1344,-0.3309
0.0077873,-0.023895,-0.14605,0.049857,0.040008,-0.01726,-0.14666,0.3575,0.012746,-0.0014735,-0.19251,-0.020859,-0.34308,-0.22897,-1.062,2.4837,-0.0091445,-0.061825,-0.17706,0.036427,-0.05374,-0.037872,-0.12608,-0.41432
0.0012815,-0.03042,-0.13283,0.05845,0.079722,-0.011842,-0.13958,0.36117,0.013481,-0.0053122,-0.19125,-0.0058177,-0.40349,-0.19501,-1.0302,2.4174,-0.0057168,-0.059087,-0.16488,0.035006,-0.044938,-0.044582,-0.10919,-0.46743
-0.0057412,-0.031467,-0.12156,0.06252,0.10772,-0.010828,-0.12418,0.35929,0.0097584,-0.01427,-0.1866,0.0027071,-0.41263,-0.15291,-0.93482,2.3327,-0.0054708,-0.058562,-0.14187,0.030671,-0.028775,-0.052426,-0.083163,-0.49744
-0.010216,-0.026613,-0.11325,0.063533,0.11429,-0.016726,-0.10263,0.35467,0.0038664,-0.023298,-0.18256,0.0043654,-0.37453,-0.10022,-0.79495,2.1963,-0.0084764,-0.059195,-0.11655,0.024934,-0.011181,-0.062215,-0.052362,-0.51411
-0.010787,-0.020024,-0.10546,0.065006,0.097995,-0.028755,-0.078357,0.34765,8.4712e-005,-0.027915,-0.18257,0.0021699,-0.31185,-0.037483,-0.63581,1.9818,-0.013613,-0.058482,-0.096899,0.019481,0.0013086,-0.071355,-0.022536,-0.52454
-0.0085855,-0.017077,-0.093604,0.069679,0.066538,-0.043525,-0.053656,0.33707,0.00099149,-0.028363,-0.18723,-0.00034367,-0.25749,0.026682,-0.48244,1.679,-0.01916,-0.054255,-0.084363,0.014652,0.0056787,-0.075538,0.0029001,-0.53311
-0.0063505,-0.020221,-0.07495,0.077355,0.032815,-0.056927,-0.029033,0.32134,0.0053468,-0.029396,-0.19405,-0.0012271,-0.23707,0.077346,-0.35545,1.307,-0.023833,-0.046181,-0.073822,0.0096823,0.0040151,-0.07245,0.023954,-0.54361
-0.0065757,-0.027358,-0.051585,0.085114,0.0082953,-0.065923,-0.004315,0.29864,0.0094063,-0.035979,-0.19962,-0.00014314,-0.25302,0.10291,-0.26823,0.91396,-0.027491,-0.035962,-0.059237,0.0040775,0.0015609,-0.064123,0.042241,-0.55957
-0.0099222,-0.033811,-0.029588,0.089616,-0.0020791,-0.069527,0.01996,0.2675,0.010413,-0.048951,-0.20228,0.002777,-0.28203,0.10517,-0.22468,0.55705,-0.030894,-0.026154,-0.039577,-0.0013774,0.002853,-0.05565,0.058355,-0.58194
-0.014864,-0.036046,-0.014751,0.089514,-0.0006312,-0.069024,0.04222,0.22855,0.009042,-0.064519,-0.20303,0.0074801,-0.28828,0.10049,-0.21851,0.27407,-0.034688,-0.018488,-0.019559,-0.0048043,0.0087824,-0.051319,0.070781,-0.60695
-0.018718,-0.034046,-0.0083712,0.086039,0.0063966,-0.06756,0.060886,0.18619,0.00857,-0.077668,-0.20421,0.013409,-0.24212,0.10976,-0.23589,0.069089,-0.038515,-0.012877,-0.00477,-0.0041226,0.016508,-0.051506,0.077109,-0.62663
-0.019363,-0.030601,-0.0065011,0.08154,0.013333,-0.068979,0.075782,0.14812,0.01157,-0.085962,-0.20698,0.018946,-0.12959,0.14471,-0.26161,-0.076048,-0.041062,-0.0077703,0.0040668,0.0022834,0.021909,-0.053003,0.076245,-0.63253
-0.016566,-0.028423,-0.0030734,0.077497,0.017583,-0.075944,0.088593,0.12143,0.01726,-0.090211,-0.21018,0.022176,0.05212,0.20121,-0.2857,-0.17874,-0.041015,-0.001534,0.012281,0.01542,0.022468,-0.052277,0.069633,-0.62077
-0.012089,-0.027773,0.0058706,0.07377,0.019177,-0.088137,0.10175,0.10766,0.022037,-0.091867,-0.21121,0.022695,0.30427,0.26415,-0.30645,-0.24735,-0.038065,0.006207,0.026866,0.035665,0.018425,-0.048648,0.060548,-0.59601
-0.008561,-0.026649,0.020176,0.06951,0.018835,-0.10193,0.11646,0.1008,0.02276,-0.090299,-0.20839,0.022605,0.62676,0.31878,-0.32763,-0.29806,-0.033066,0.014289,0.050589,0.062597,0.011687,-0.044639,0.052209,-0.57205
-0.0079138,-0.023268,0.03686,0.064578,0.016699,-0.11233,0.13145,0.090504,0.019795,-0.083007,-0.20251,0.025193,1.0047,0.35892,-0.35241,-0.37748,-0.027238,0.020995,0.079721,0.09509,0.0038091,-0.043483,0.046367,-0.56713
-0.010451,-0.018434,0.05295,0.059944,0.012599,-0.11627,0.14353,0.068524,0.016916,-0.068628,-0.1964,0.031968,1.394,0.38641,-0.37919,-0.5594,-0.021153,0.025517,0.10689,0.13215,-0.0049724,-0.046211,0.043388,-0.59358
-0.015044,-0.01548,0.067323,0.056747,0.0069484,-0.11485,0.14963,0.033514,0.017996,-0.049532,-0.19289,0.040654,1.7252,0.40442,-0.4034,-0.90364,-0.014443,0.028693,0.12603,0.17405,-0.014833,-0.050813,0.04334,-0.64593
-0.020093,-0.017636,0.080493,0.055097,0.00093312,-0.11246,0.14885,-0.0094229,0.023354,-0.031087,-0.19286,0.046361,1.9335,0.41182,-0.42357,-1.4024,-0.0065247,0.032328,0.13511,0.22228,-0.02457,-0.05384,0.046694,-0.69527
-0.024434,-0.025047,0.09337,0.053975,-0.0043147,-0.11339,0.14301,-0.053454,0.029076,-0.017972,-0.19465,0.04551,1.9983,0.40349,-0.44559,-1.9582,0.0023604,0.037535,0.1355,0.27737,-0.030934,-0.05274,0.053716,-0.69785
-0.027609,-0.03413,0.10653,0.052423,-0.0086274,-0.11838,0.13524,-0.094501,0.030087,-0.010966,-0.19505,0.039334,1.9603,0.37544,-0.47955,-2.4185,0.010804,0.043423,0.12972,0.33569,-0.030274,-0.047106,0.063162,-0.61712
-0.029609,-0.03996,0.12037,0.050732,-0.012748,-0.12424,0.12786,-0.1316,0.024449,-0.0072548,-0.191,0.033688,1.8974,0.32964,-0.52965,-2.6522,0.017014,0.04732,0.12053,0.38814,-0.021612,-0.038449,0.071903,-0.44733
-0.03057,-0.0398,0.13519,0.050179,-0.017315,-0.12677,0.12122,-0.1636,0.015153,-0.0038849,-0.18112,0.034801,1.8681,0.27434,-0.58486,-2.619,0.02004,0.046578,0.1115,0.42292,-0.0086656,-0.029443,0.076603,-0.22149
-0.03076,-0.034912,0.15064,0.051283,-0.021939,-0.1244,0.11425,-0.1864,0.0078096,-0.00088969,-0.16625,0.044226,1.8637,0.22061,-0.61908,-2.3891,0.020297,0.04065,0.1069,0.43126,0.0013052,-0.023414,0.076699,0.0051109
-0.030699,-0.029339,0.16505,0.052264,-0.025331,-0.1193,0.10606,-0.19463,0.0061291,-0.00099066,-0.1491,0.057261,1.808,0.1783,-0.60332,-2.1036,0.018893,0.031761,0.10977,0.41191,0.0015982,-0.023749,0.07632,0.18666
-0.031038,-0.026813,0.17583,0.049529,-0.02642,-0.11492,0.097092,-0.18712,0.0090309,-0.0062435,-0.13294,0.066418,1.6118,0.15409,-0.52322,-1.9045,0.016537,0.02351,0.11934,0.37094,-0.0096756,-0.032551,0.083026,0.31147
-0.032092,-0.028306,0.18139,0.040282,-0.025362,-0.11239,0.088956,-0.1715,0.011726,-0.015103,-0.12,0.06726,1.2441,0.15132,-0.38959,-1.8736,0.013278,0.0184,0.13095,0.31719,-0.028544,-0.048902,0.10351,0.40089
-0.03337,-0.031891,0.1829,0.025169,-0.02346,-0.10899,0.083092,-0.16308,0.0096983,-0.023006,-0.11015,0.061817,0.76567,0.16958,-0.23451,-2.009,0.0094129,0.016233,0.13957,0.25752,-0.048422,-0.068349,0.13892,0.48413
-0.033674,-0.034579,0.18392,0.008491,-0.021965,-0.10034,0.07971,-0.17761,0.0021514,-0.026092,-0.10101,0.056833,0.29746,0.20338,-0.095286,-2.2398,0.0064364,0.014676,0.14426,0.19595,-0.065187,-0.084953,0.18314,0.57042
-0.031925,-0.034485,0.18778,-0.0045906,-0.020792,-0.084177,0.077914,-0.2225,-0.0077767,-0.024544,-0.089574,0.058392,-0.055562,0.2414,0.002904,-2.4638,0.0065522,0.011449,0.14943,0.13626,-0.079776,-0.095084,0.22548,0.64266
-0.028193,-0.031824,0.19473,-0.011734,-0.018279,-0.062678,0.076889,-0.29212,-0.015754,-0.022303,-0.074451,0.067367,-0.26658,0.26853,0.055099,-2.588,0.010701,0.0062885,0.16101,0.084049,-0.095717,-0.099986,0.25589,0.67749
-0.024034,-0.028412,0.20151,-0.014982,-0.012321,-0.041326,0.076932,-0.37017,-0.019347,-0.023394,-0.057129,0.0791,-0.38983,0.27092,0.072703,-2.559,0.016897,0.0010252,0.18067,0.044557,-0.11335,-0.10442,0.26913,0.67277
-0.021609,-0.026366,0.20414,-0.018902,-0.0021581,-0.025532,0.079247,-0.43698,-0.019084,-0.028264,-0.041119,0.087074,-0.50667,0.24129,0.073418,-2.3768,0.020902,-0.002161,0.20321,0.017864,-0.1258,-0.1118,0.26538,0.65585
-0.022058,-0.026876,0.20164,-0.026844,0.010485,-0.017708,0.084495,-0.47775,-0.01728,-0.03353,-0.029479,0.087315,-0.66265,0.18103,0.07306,-2.0894,0.019285,-0.0026663,0.21979,-0.0034411,-0.12104,-0.11964,0.24779,0.66242
-0.024419,-0.02961,0.19723,-0.038397,0.021809,-0.01675,0.09134,-0.4879,-0.016214,-0.03527,-0.022555,0.080302,-0.84526,0.097967,0.082859,-1.7699,0.012442,-0.0018456,0.22446,-0.030225,-0.089615,-0.11965,0.22006,0.70279
-0.026132,-0.032905,0.19589,-0.049976,0.027809,-0.01968,0.096436,-0.4745,-0.017138,-0.032721,-0.017718,0.069664,-1.0128,0.0016505,0.10994,-1.4849,0.0047871,-0.0016368,0.21841,-0.068704,-0.032811,-0.10303,0.1866,0.74531
-0.024946,-0.034606,0.19998,-0.057853,0.026512,-0.023753,0.096258,-0.45332,-0.020264,-0.029039,-0.011295,0.059412,-1.1393,-0.1,0.15713,-1.2683,0.0015643,-0.0028342,0.20845,-0.11519,0.035448,-0.067297,0.15473,0.73296
-0.02073,-0.033227,0.20689,-0.061039,0.019133,-0.027441,0.089633,-0.44218,-0.024961,-0.028602,-0.0011524,0.051874,-1.2324,-0.20096,0.22145,-1.1145,0.0047723,-0.0046357,0.20117,-0.15894,0.095166,-0.018889,0.13548,0.621
-0.015597,-0.028829,0.21073,-0.061796,0.0093258,-0.030057,0.079016,-0.45198,-0.029776,-0.033451,0.012104,0.047287,-1.3113,-0.29522,0.29409,-0.99105,0.011551,-0.0057584,0.19792,-0.19108,0.13151,0.030766,0.14017,0.40566
-0.01213,-0.023062,0.20676,-0.063678,0.00096184,-0.030822,0.069283,-0.47931,-0.032738,-0.041993,0.026102,0.044577,-1.373,-0.37571,0.36412,-0.86201,0.016335,-0.0058933,0.19466,-0.2121,0.14315,0.072773,0.17375,0.12215
-0.011163,-0.018198,0.19504,-0.068921,-0.0040752,-0.028375,0.064673,-0.50579,-0.032374,-0.050712,0.038873,0.04244,-1.384,-0.43575,0.42401,-0.70565,0.014911,-0.0060422,0.18634,-0.23099,0.14204,0.10592,0.22959,-0.18256
-0.011085,-0.015679,0.1802,-0.07726,-0.0065057,-0.021195,0.066043,-0.50673,-0.028942,-0.056905,0.050396,0.040189,-1.3068,-0.47202,0.47252,-0.51752,0.007152,-0.0074733,0.17157,-0.25699,0.14487,0.13554,0.2907,-0.47697
-0.0092936,-0.015153,0.16767,-0.086801,-0.008286,-0.0086781,0.070447,-0.46565,-0.024689,-0.059974,0.062425,0.038186,-1.1339,-0.48651,0.51253,-0.30189,-0.0034635,-0.010385,0.15379,-0.29126,0.16219,0.16734,0.33777,-0.7505
-0.0045131,-0.014755,0.1595,-0.095823,-0.01045,0.0078355,0.073242,-0.38573,-0.022514,-0.060624,0.077021,0.037664,-0.8983,-0.48532,0.54632,-0.060142,-0.012659,-0.013563,0.13833,-0.32609,0.19215,0.20149,0.35896,-0.99781
0.0020476,-0.012526,0.15318,-0.1038,-0.012088,0.024874,0.070958,-0.28972,-0.023868,-0.059485,0.095116,0.039858,-0.64934,-0.47502,0.57318,0.21634,-0.018077,-0.015268,0.12825,-0.35211,0.22239,0.23139,0.35471,-1.2017
0.0076468,-0.0080001,0.14412,-0.11095,-0.011473,0.037906,0.062834,-0.2069,-0.027618,-0.056831,0.11606,0.044789,-0.42036,-0.45913,0.5915,0.54582,-0.020055,-0.014486,0.12249,-0.36684,0.23792,0.24781,0.33473,-1.3323
0.010122,-0.0027765,0.12978,-0.11701,-0.0083597,0.043354,0.050324,-0.15512,-0.030938,-0.053409,0.1381,0.050585,-0.21557,-0.43739,0.60263,0.94733,-0.02047,-0.011469,0.11734,-0.37701,0.22926,0.24466,0.31028,-1.3627
0.0093247,0.0004765,0.11188,-0.12076,-0.0051872,0.040479,0.035713,-0.13032,-0.031616,-0.050859,0.15892,0.054098,-0.024192,-0.40825,0.61156,1.4237,-0.020967,-0.007325,0.10952,-0.3929,0.19617,0.22241,0.28787,-1.2855
0.0068412,-5.2824e-005,0.095177,-0.12092,-0.005607,0.031915,0.021298,-0.11079,-0.029882,-0.050634,0.17602,0.052687,0.15695,-0.37233,0.62315,1.9419,-0.02189,-0.0032427,0.098155,-0.42019,0.14579,0.1873,0.26852,-1.1153
0.0045876,-0.0038479,0.083946,-0.11747,-0.011202,0.022366,0.009398,-0.073046,-0.028182,-0.052245,0.18705,0.04598,0.3155,-0.33406,0.63759,2.4254,-0.02237,-5.3787e-005,0.084356,-0.45633,0.087748,0.14786,0.25107,-0.88043
0.0036529,-0.0082086,0.078965,-0.11213,-0.01924,0.016176,0.0022153,-0.0077647,-0.029028,-0.052844,0.19078,0.036214,0.43483,-0.29995,0.65039,2.7697,-0.021227,0.0017169,0.0693,-0.4939,0.030142,0.1113,0.23522,-0.61142
0.0041981,-0.010003,0.077238,-0.10725,-0.023877,0.015276,0.00079857,0.075497,-0.032691,-0.049207,0.18818,0.026718,0.50946,-0.27437,0.65764,2.8848,-0.018068,0.001658,0.052894,-0.52668,-0.022034,0.081538,0.22132,-0.33836
0.0060164,-0.007764,0.074337,-0.10409,-0.020378,0.01875,0.0038353,0.15707,-0.036741,-0.040761,0.18271,0.019568,0.54836,-0.25566,0.66175,2.739,-0.013977,-0.00051363,0.034209,-0.55257,-0.066279,0.059074,0.20816,-0.092328
0.0088529,-0.0025452,0.067336,-0.10219,-0.0090325,0.024115,0.0078428,0.22163,-0.037947,-0.030908,0.17863,0.01417,0.56402,-0.23541,0.6715,2.377,-0.01136,-0.0047566,0.013122,-0.5714,-0.1015,0.041831,0.19254,0.096335
0.012167,0.0030785,0.056131,-0.10048,0.0046835,0.029274,0.0092917,0.26717,-0.035028,-0.025014,0.17838,0.0079117,0.55938,-0.20222,0.6951,1.8952,-0.012879,-0.010596,-0.0084942,-0.58097,-0.12741,0.026446,0.17209,0.20689
0.014896,0.0069806,0.042521,-0.098886,0.014158,0.03378,0.007108,0.30268,-0.029889,-0.026325,0.18097,-0.0015982,0.52424,-0.14844,0.7317,1.391,-0.019976,-0.017253,-0.027289,-0.57655,-0.14433,0.0097468,0.14902,0.23841
0.015892,0.008752,0.028237,-0.098728,0.016654,0.038633,0.0031593,0.33828,-0.026162,-0.033059,0.18318,-0.014405,0.44269,-0.075895,0.76911,0.92253,-0.031911,-0.023883,-0.040439,-0.55478,-0.1528,-0.0098292,0.13032,0.21235
0.014871,0.0092793,0.013776,-0.10112,0.015068,0.044922,-2.2054e-005,0.37708,-0.026176,-0.039191,0.18271,-0.027863,0.30491,0.0034688,0.79032,0.50403,-0.046017,-0.02973,-0.047644,-0.51826,-0.15319,-0.031401,0.12301,0.16442
0.012926,0.0092101,-0.0010695,-0.10495,0.014976,0.052436,-0.0022712,0.41509,-0.028951,-0.03855,0.18071,-0.038339,0.11634,0.073566,0.78431,0.1309,-0.059064,-0.0342,-0.051536,-0.47558,-0.14575,-0.051922,0.12774,0.13096
0.011819,0.0079091,-0.015752,-0.10681,0.019601,0.059424,-0.0065131,0.4479,-0.031049,-0.029163,0.18088,-0.043646,-0.098887,0.12359,0.75276,-0.19616,-0.068795,-0.03702,-0.056073,-0.43605,-0.13133,-0.067533,0.1368,0.13788
0.012466,0.0040293,-0.02821,-0.10331,0.027148,0.063816,-0.016105,0.4767,-0.029621,-0.014576,0.18589,-0.04441,-0.30177,0.15443,0.70751,-0.47121,-0.074614,-0.038482,-0.06399,-0.40318,-0.11211,-0.075324,0.13915,0.19583
0.013979,-0.0027595,-0.035807,-0.094121,0.032717,0.064989,-0.03106,0.50787,-0.024978,-0.0012697,0.19432,-0.043467,-0.45031,0.17711,0.66143,-0.70156,-0.077197,-0.03945,-0.075101,-0.37283,-0.091413,-0.074593,0.12842,0.29924
0.014341,-0.010555,-0.037367,-0.0826,0.032904,0.064487,-0.046825,0.54669,-0.020317,0.0057577,0.20114,-0.043986,-0.51661,0.20379,0.61989,-0.91689,-0.077554,-0.040787,-0.086696,-0.33781,-0.072571,-0.067088,0.10698,0.42662
0.012285,-0.01586,-0.034623,-0.073242,0.028844,0.064764,-0.057166,0.59177,-0.018803,0.005962,0.20182,-0.047781,-0.49972,0.23805,0.57863,-1.1503,-0.07633,-0.042389,-0.095781,-0.29495,-0.057476,-0.056262,0.081941,0.54377
0.0086998,-0.015816,-0.031676,-0.067991,0.025058,0.066751,-0.05895,0.63618,-0.020653,0.0028235,0.19611,-0.05484,-0.42388,0.27201,0.52843,-1.4037,-0.07364,-0.042664,-0.10151,-0.24862,-0.046101,-0.045989,0.056795,0.61475
0.0061432,-0.010307,-0.032646,-0.064907,0.025288,0.068315,-0.054668,0.67421,-0.022954,0.00075855,0.18817,-0.063879,-0.3213,0.29243,0.46187,-1.6325,-0.069206,-0.039265,-0.10589,-0.20783,-0.03717,-0.039235,0.026695,0.62178
0.0066893,-0.0022195,-0.039166,-0.06052,0.029146,0.065283,-0.050448,0.70689,-0.022377,0.0019642,0.18263,-0.073112,-0.21231,0.29047,0.3776,-1.7697,-0.062573,-0.030926,-0.1121,-0.17949,-0.029248,-0.037085,-0.017577,0.5846
0.0099725,0.0044032,-0.049579,-0.053675,0.032435,0.054585,-0.051224,0.73959,-0.018212,0.0055165,0.1803,-0.08074,-0.099815,0.26679,0.28053,-1.7762,-0.053411,-0.019012,-0.12149,-0.1637,-0.021264,-0.038479,-0.079934,0.56277
0.013254,0.0069303,-0.060431,-0.04711,0.030599,0.03708,-0.057226,0.77293,-0.012809,0.0090424,0.17755,-0.085369,0.017174,0.22806,0.17949,-1.6749,-0.041996,-0.0072487,-0.13177,-0.15425,-0.012274,-0.040855,-0.15244,0.63037
0.013617,0.0056017,-0.069077,-0.045063,0.022081,0.017619,-0.064606,0.79581,-0.0090338,0.011246,0.16979,-0.086618,0.12524,0.1788,0.084291,-1.5383,-0.029641,0.00056073,-0.138,-0.14319,-0.0011211,-0.04153,-0.21853,0.83213
0.010475,0.0029998,-0.075385,-0.049017,0.0088144,0.0020905,-0.069341,0.78964,-0.0073391,0.013064,0.15603,-0.085565,0.19369,0.11693,0.0028101,-1.4379,-0.018512,0.0032229,-0.1361,-0.12491,0.013234,-0.039147,-0.26411,1.1486
0.0061982,0.0021395,-0.081197,-0.055563,-0.0060938,-0.0062631,-0.070757,0.7431,-0.0054342,0.016568,0.14026,-0.084328,0.19361,0.037661,-0.061726,-1.3973,-0.010598,0.0030002,-0.12621,-0.097029,0.030732,-0.03426,-0.28773,1.4985
0.0042424,0.0045865,-0.088076,-0.05847,-0.020897,-0.0083527,-0.071655,0.6659,-0.00094499,0.022756,0.12876,-0.08464,0.12296,-0.057761,-0.11242,-1.3899,-0.0063077,0.0038065,-0.11316,-0.058627,0.04948,-0.028558,-0.30129,1.7813
0.0063475,0.0097238,-0.095277,-0.053287,-0.0355,-0.0075217,-0.075202,0.58773,0.0056434,0.030376,0.12557,-0.086411,0.013789,-0.15693,-0.15748,-1.3806,-0.0038448,0.0081962,-0.1033,-0.0090878,0.066188,-0.02319,-0.32098,1.9335
0.011168,0.015371,-0.099836,-0.040563,-0.049477,-0.0062959,-0.081578,0.53936,0.010884,0.037063,0.12997,-0.08763,-0.087917,-0.24034,-0.20512,-1.3724,-0.00012805,0.015631,-0.10012,0.050899,0.07788,-0.017488,-0.35593,1.9562
0.015481,0.019159,-0.098961,-0.02523,-0.060157,-0.004494,-0.087385,0.52864,0.011443,0.041941,0.13756,-0.085883,-0.15331,-0.29165,-0.25647,-1.4165,0.0071113,0.02332,-0.10204,0.11742,0.083877,-0.0092695,-0.40353,1.8937
0.016875,0.019789,-0.092883,-0.012965,-0.063167,-0.00024858,-0.088299,0.5309,0.0074361,0.047333,0.14349,-0.080279,-0.1858,-0.30534,-0.30065,-1.5724,0.017553,0.028626,-0.10436,0.18306,0.086581,0.0032493,-0.45413,1.7826
0.015577,0.017522,-0.08563,-0.0066532,-0.055515,0.0071837,-0.082664,0.50387,0.0027067,0.057733,0.14511,-0.072133,-0.20744,-0.28577,-0.31648,-1.8534,0.028328,0.030833,-0.10353,0.23918,0.090185,0.019302,-0.49963,1.613
0.01389,0.013735,-0.082637,-0.0053582,-0.038721,0.01557,-0.073068,0.4176,0.0016209,0.076458,0.14241,-0.06393,-0.23055,-0.23997,-0.28155,-2.2015,0.03604,0.030922,-0.10017,0.27904,0.097881,0.03493,-0.53827,1.3365
0.013866,0.009927,-0.086692,-0.0058916,-0.019058,0.020716,-0.064736,0.27685,0.00537,0.10255,0.1366,-0.057665,-0.2423,-0.17214,-0.18496,-2.5134,0.039271,0.030028,-0.098307,0.29929,0.10934,0.04458,-0.57238,0.91341
0.015407,0.0068919,-0.095438,-0.0052776,-0.004168,0.019653,-0.062134,0.11817,0.011228,0.1305,0.1287,-0.054024,-0.21716,-0.085454,-0.036709,-2.6954,0.039549,0.028311,-0.10145,0.29963,0.12045,0.043947,-0.60338,0.3611
0.016578,0.0046435,-0.10274,-0.0024363,0.0016111,0.013274,-0.066473,-0.016077,0.015307,0.15317,0.11922,-0.052748,-0.1454,0.011863,0.13213,-2.7048,0.039927,0.025266,-0.10916,0.2819,0.12587,0.032211,-0.63058,-0.23666
0.015793,0.0030544,-0.10333,0.0015398,-0.00033116,0.0059879,-0.07583,-0.10625,0.015995,0.16554,0.10884,-0.05326,-0.050686,0.10397,0.27976,-2.5516,0.042393,0.020885,-0.11705,0.25037,0.12286,0.012392,-0.65568,-0.76696
0.013759,0.0025334,-0.09711,0.0042771,-0.0045794,0.002473,-0.087408,-0.16459,0.014786,0.16658,0.098834,-0.054612,0.020003,0.17326,0.36992,-2.2733,0.04634,0.01629,-0.12016,0.21238,0.11365,-0.009982,-0.68771,-1.1419
0.013129,0.003964,-0.089673,0.0036694,-0.006053,0.0041546,-0.099798,-0.21953,0.014029,0.15809,0.090581,-0.055027,0.02572,0.21062,0.38628,-1.9093,0.049409,0.013146,-0.11667,0.1773,0.10431,-0.028791,-0.74053,-1.3309
0.016014,0.007806,-0.08811,-0.00059924,-0.0034723,0.0083327,-0.11337,-0.28986,0.014206,0.1421,0.08444,-0.052226,-0.044313,0.22084,0.33784,-1.4965,0.049867,0.012455,-0.10898,0.15292,0.10077,-0.03894,-0.82118,-1.3536
0.021607,0.013154,-0.095358,-0.0064596,0.00071704,0.010679,-0.12861,-0.37075,0.0136,0.11953,0.079215,-0.045001,-0.16925,0.21809,0.25319,-1.0764,0.048322,0.013939,-0.10137,0.14121,0.10489,-0.037514,-0.91681,-1.249
0.026341,0.017783,-0.1076,-0.010464,0.003486,0.0089505,-0.14408,-0.4418,0.010499,0.091186,0.072912,-0.03488,-0.31442,0.21526,0.1664,-0.69154,0.047252,0.016533,-0.096701,0.13725,0.11357,-0.024582,-0.99258,-1.0507
0.026739,0.019451,-0.11698,-0.010011,0.0043676,0.0047984,-0.15594,-0.48817,0.0053714,0.05974,0.064379,-0.025951,-0.45091,0.21644,0.10201,-0.36287,0.048839,0.019381,-0.094926,0.13277,0.12156,-0.0033611,-1.0066,-0.78548
0.022554,0.01756,-0.11747,-0.005215,0.0057526,0.0022498,-0.15961,-0.51572,0.00059792,0.030335,0.054438,-0.022269,-0.56345,0.21869,0.066189,-0.064624,0.053138,0.022317,-0.09406,0.12228,0.12552,0.02076,-0.935,-0.4879
0.017268,0.013823,-0.10935,0.001155,0.010232,0.0043202,-0.15246,-0.54726,-0.0019086,0.00867,0.045433,-0.024682,-0.64751,0.21977,0.04859,0.2737,0.058139,0.025444,-0.092218,0.10703,0.12605,0.04227,-0.78996,-0.20838
0.015309,0.011301,-0.098524,0.0057306,0.017608,0.010625,-0.13555,-0.60428,-0.0025617,-0.0021476,0.039415,-0.029906,-0.70529,0.22347,0.033344,0.72605,0.061482,0.028418,-0.088689,0.093631,0.12605,0.057614,-0.61643,-0.0027758
0.018287,0.012454,-0.091722,0.0069037,0.024418,0.017772,-0.11324,-0.69013,-0.0034314,-0.0033712,0.036394,-0.032986,-0.74549,0.23675,0.01234,1.3091,0.062147,0.030313,-0.083548,0.088479,0.1272,0.066063,-0.46719,0.090715
0.023557,0.017605,-0.091447,0.0055325,0.02643,0.021862,-0.091006,-0.78817,-0.0058313,0.00054678,0.034067,-0.031207,-0.78293,0.26155,-0.007825,1.9444,0.060671,0.030245,-0.076895,0.092483,0.12783,0.069042,-0.37242,0.067821
0.026384,0.024806,-0.094774,0.0036556,0.021853,0.020898,-0.072896,-0.8748,-0.0088499,0.0051149,0.029263,-0.026069,-0.83229,0.28922,-0.01009,2.476,0.058017,0.028123,-0.068831,0.10019,0.12407,0.068895,-0.32482,-0.045215
0.023819,0.031029,-0.096461,0.0027274,0.012493,0.015447,-0.060231,-0.93552,-0.010424,0.0083588,0.019987,-0.021548,-0.89781,0.30361,0.020239,2.7433,0.054401,0.024715,-0.060005,0.10379,0.1134,0.068311,-0.29056,-0.21003
0.016957,0.033812,-0.093364,0.0030944,0.0020751,0.0076337,-0.05194,-0.97139,-0.0097108,0.010841,0.0065995,-0.020249,-0.96792,0.29097,0.082934,2.666,0.049236,0.020991,-0.051645,0.098572,0.097598,0.070659,-0.23768,-0.3933
0.0097873,0.032381,-0.086488,0.0048372,-0.006547,-0.000276,-0.046077,-0.99271,-0.0080551,0.013587,-0.0085009,-0.020959,-1.0216,0.24897,0.15962,2.2902,0.042085,0.017434,-0.044582,0.085662,0.082776,0.080156,-0.16073,-0.57073
0.0058692,0.02785,-0.079422,0.0085143,-0.012909,-0.0066969,-0.041397,-1.0075,-0.0073704,0.016182,-0.022212,-0.019756,-1.0424,0.18801,0.22257,1.763,0.033539,0.013978,-0.038141,0.070308,0.076392,0.10071,-0.084224,-0.72052
0.0057823,0.022564,-0.075039,0.014575,-0.018273,-0.010954,-0.038009,-1.0146,-0.0076528,0.016926,-0.032108,-0.013559,-1.0283,0.12433,0.24984,1.2545,0.025117,0.010521,-0.030256,0.057721,0.083195,0.13346,-0.043037,-0.81859
0.0073472,0.018939,-0.07337,0.02202,-0.023912,-0.013359,-0.036797,-1.0059,-0.0064346,0.014687,-0.037207,-0.0028567,-0.9898,0.070578,0.23677,0.87555,0.018292,0.0073673,-0.019141,0.04985,0.10246,0.17477,-0.055132,-0.84422
0.008005,0.01828,-0.072108,0.028169,-0.03001,-0.015155,-0.037999,-0.97384,-0.0010914,0.010356,-0.03798,0.008722,-0.93757,0.030328,0.19694,0.64347,0.013565,0.0050989,-0.0051775,0.045136,0.12777,0.21634,-0.10595,-0.79162
0.0069919,0.020098,-0.068754,0.030525,-0.035816,-0.017828,-0.039984,-0.91624,0.0080474,0.0061911,-0.035732,0.01733,-0.87265,-0.0011015,0.15315,0.50816,0.010376,0.0040565,0.0087065,0.040566,0.14931,0.24817,-0.15464,-0.67532
0.0054606,0.022371,-0.062315,0.029352,-0.040278,-0.021655,-0.039255,-0.8366,0.016837,0.0035429,-0.031568,0.021568,-0.78764,-0.0321,0.12531,0.40959,0.0078282,0.0040023,0.018706,0.033828,0.15761,0.26267,-0.15687,-0.52234
0.0047663,0.02276,-0.053319,0.028317,-0.042226,-0.024392,-0.032078,-0.74036,0.019819,0.0012595,-0.025415,0.022698,-0.67881,-0.070668,0.12281,0.31984,0.0054923,0.0042697,0.022659,0.024135,0.1473,0.2576,-0.089036,-0.35687
0.0047515,0.020121,-0.042673,0.031979,-0.040022,-0.021536,-0.016908,-0.632,0.014239,-0.0034172,-0.015968,0.022704,-0.55892,-0.12265,0.14421,0.24387,0.0036394,0.0041457,0.021532,0.011994,0.11923,0.2361,0.040438,-0.19059
0.0036785,0.015347,-0.030797,0.041888,-0.031404,-0.0087181,0.0040829,-0.51538,0.0024215,-0.011942,-0.0021698,0.022373,-0.45921,-0.191,0.1816,0.1916,0.0028621,0.0030629,0.018864,-0.00097528,0.079941,0.20422,0.19739,-0.026721
-0.00015078,0.010859,-0.017895,0.054725,-0.013992,0.015083,0.025759,-0.39564,-0.009246,-0.022033,0.014262,0.02118,-0.41691,-0.27419,0.22453,0.15486,0.003547,0.00055892,0.01867,-0.011891,0.038409,0.1677,0.34046,0.12805
-0.0065491,0.0090515,-0.0048222,0.064368,0.013816,0.045978,0.042863,-0.27976,-0.013949,-0.02805,0.027201,0.018757,-0.45514,-0.36437,0.2611,0.11141,0.0056146,-0.0036359,0.023275,-0.017035,0.0018447,0.12998,0.44064,0.2574
-0.013006,0.010717,0.0066599,0.066377,0.052163,0.076822,0.053041,-0.17443,-0.0082465,-0.024294,0.027505,0.01619,-0.56842,-0.44825,0.27772,0.04715,0.008526,-0.0091511,0.032355,-0.013583,-0.027128,0.092349,0.4917,0.34335
-0.016138,0.014574,0.014833,0.061227,0.099374,0.10124,0.057822,-0.082842,0.0061368,-0.0090436,0.0077817,0.015695,-0.72418,-0.51282,0.26121,-0.031397,0.011315,-0.014514,0.043588,-0.0017923,-0.050221,0.055559,0.50735,0.38239
-0.014046,0.018155,0.019399,0.0537,0.15156,0.11716,0.060855,-0.003561,0.023257,0.013541,-0.031985,0.018887,-0.8799,-0.5537,0.20437,-0.11146,0.012618,-0.017337,0.054406,0.01437,-0.070628,0.021392,0.50837,0.39426
-0.0078704,0.019353,0.021877,0.049131,0.20218,0.12707,0.064922,0.067435,0.035887,0.035058,-0.082036,0.025195,-1.0037,-0.57982,0.11192,-0.20259,0.010983,-0.015395,0.063773,0.029387,-0.089816,-0.0071896,0.50825,0.41229
-0.0013813,0.01755,0.024377,0.049672,0.24247,0.1351,0.070159,0.13327,0.038933,0.047145,-0.1263,0.031827,-1.0831,-0.60904,0.0011728,-0.34853,0.0056579,-0.0079788,0.072946,0.039828,-0.1064,-0.027493,0.50665,0.46049
0.001273,0.013693,0.02766,0.053382,0.26355,0.14307,0.074798,0.19438,0.031739,0.04586,-0.15037,0.035319,-1.1158,-0.65568,-0.1049,-0.60332,-0.0025724,0.003478,0.084691,0.046506,-0.11775,-0.039055,0.4941,0.53526
-0.0017846,0.0095142,0.030264,0.056381,0.25987,0.14908,0.077559,0.24986,0.018192,0.033629,-0.14923,0.033553,-1.0917,-0.7176,-0.18881,-0.98438,-0.011337,0.015967,0.10129,0.053126,-0.12265,-0.044436,0.46359,0.60748
-0.0088903,0.0065757,0.029723,0.055949,0.23207,0.1495,0.079507,0.30046,0.0045169,0.017683,-0.12948,0.026894,-0.98469,-0.77238,-0.24608,-1.4381,-0.017896,0.02617,0.12248,0.062499,-0.12251,-0.047899,0.41961,0.6445
-0.015864,0.005681,0.025074,0.052203,0.18697,0.14275,0.083785,0.34999,-0.0041233,0.0059961,-0.10462,0.017867,-0.76571,-0.78636,-0.28368,-1.848,-0.020967,0.031465,0.14473,0.073586,-0.11989,-0.052646,0.37712,0.63484
-0.018681,0.006721,0.018575,0.04756,0.13459,0.13144,0.093537,0.40335,-0.0062464,0.0031632,-0.086657,0.0097577,-0.43016,-0.7314,-0.31161,-2.086,-0.021691,0.030242,0.16236,0.081998,-0.11574,-0.058664,0.35113,0.59585
-0.015999,0.0087936,0.015018,0.044934,0.083854,0.12094,0.10972,0.46285,-0.0042911,0.0085874,-0.079769,0.0050504,-0.017129,-0.59972,-0.33555,-2.0785,-0.022702,0.021877,0.1701,0.083457,-0.10815,-0.063021,0.3453,0.5588
-0.0098853,0.010551,0.018858,0.046114,0.039792,0.11534,0.13042,0.52599,-0.0023738,0.01781,-0.079907,0.0045326,0.39855,-0.40839,-0.35716,-1.8513,-0.025862,0.0069658,0.16556,0.077236,-0.094268,-0.062626,0.34919,0.54427
-0.0043689,0.010858,0.031184,0.051059,0.0033612,0.11409,0.15194,0.58702,-0.0032167,0.025778,-0.079784,0.0073954,0.74114,-0.19237,-0.38039,-1.5258,-0.030531,-0.012246,0.15028,0.066764,-0.074082,-0.057301,0.34654,0.54817
-0.0029123,0.0095868,0.048738,0.057983,-0.026769,0.1122,0.17057,0.64067,-0.0064793,0.02974,-0.074837,0.012041,0.97464,0.009787,-0.41542,-1.266,-0.033954,-0.031981,0.129,0.057215,-0.052576,-0.050573,0.32785,0.54884
-0.0064449,0.0079654,0.06573,0.06396,-0.052248,0.10388,0.18381,0.68485,-0.0095893,0.030005,-0.065758,0.01694,1.1226,0.1706,-0.47338,-1.1959,-0.033586,-0.048131,0.1076,0.052263,-0.037799,-0.047367,0.29696,0.52751
-0.013044,0.0078816,0.077244,0.066024,-0.074053,0.086852,0.19066,0.72011,-0.010166,0.028558,-0.056424,0.021021,1.2546,0.28287,-0.5551,-1.3291,-0.029383,-0.058073,0.090771,0.052451,-0.035746,-0.050462,0.26642,0.48379
-0.019251,0.010367,0.081931,0.062678,-0.092547,0.064022,0.19147,0.7469,-0.0079316,0.027009,-0.049711,0.023586,1.4483,0.35954,-0.64449,-1.5536,-0.024014,-0.06177,0.080502,0.055884,-0.046035,-0.058686,0.24583,0.43396
-0.022142,0.014427,0.082262,0.055084,-0.10798,0.04141,0.18777,0.76355,-0.0046117,0.025534,-0.044921,0.024259,1.7497,0.42364,-0.71521,-1.6903,-0.020725,-0.061205,0.075669,0.060111,-0.06202,-0.068275,0.23308,0.39491
-0.02099,0.017443,0.08228,0.046816,-0.12086,0.024291,0.18216,0.76638,-0.0021713,0.023327,-0.038648,0.023332,2.1497,0.49235,-0.74736,-1.5977,-0.02064,-0.058536,0.073064,0.06364,-0.075373,-0.076014,0.21531,0.36897
-0.017582,0.017141,0.08452,0.04175,-0.13191,0.014581,0.17752,0.75095,-0.00113,0.019796,-0.027934,0.022244,2.5859,0.56432,-0.74126,-1.2568,-0.021841,-0.054512,0.069395,0.066368,-0.081401,-0.081273,0.17828,0.3424
-0.01495,0.01357,0.088312,0.041263,-0.14155,0.011084,0.17574,0.71273,-0.00044466,0.015309,-0.012923,0.023374,2.9646,0.6195,-0.71667,-0.77571,-0.021042,-0.048397,0.063321,0.069184,-0.080891,-0.085241,0.11606,0.29754
-0.015226,0.0092486,0.090678,0.042967,-0.14909,0.011604,0.17674,0.64715,0.0011371,0.010951,0.0029479,0.028662,3.192,0.63377,-0.69838,-0.30789,-0.016437,-0.03931,0.056258,0.073259,-0.077482,-0.088411,0.033556,0.22707
-0.018053,0.0071628,0.089093,0.042374,-0.15245,0.014671,0.17874,0.55114,0.0037005,0.0076507,0.015052,0.037768,3.2051,0.59906,-0.69997,0.055075,-0.0092858,-0.027582,0.051272,0.079368,-0.073468,-0.088998,-0.059065,0.13865
-0.020822,0.0082691,0.083906,0.036495,-0.14887,0.01956,0.18006,0.42703,0.0060893,0.0054844,0.020184,0.047376,2.9925,0.53325,-0.71759,0.33193,-0.0028387,-0.014871,0.050691,0.087387,-0.067921,-0.083944,-0.15405,0.04804
-0.020689,0.010783,0.078406,0.026503,-0.13671,0.025256,0.18077,0.28601,0.0070813,0.0036422,0.017966,0.052806,2.5981,0.46994,-0.73579,0.60551,0.00045999,-0.0030147,0.054204,0.096227,-0.058392,-0.071661,-0.24921,-0.030759
-0.016846,0.011962,0.076409,0.017073,-0.11712,0.029975,0.18272,0.14669,0.0065323,0.0010244,0.010523,0.051244,2.1058,0.43392,-0.73729,0.92437,0.0010853,0.0071585,0.058995,0.10435,-0.043925,-0.053912,-0.34433,-0.089104
-0.011145,0.010768,0.079266,0.01272,-0.09414,0.031975,0.1876,0.027243,0.0053416,-0.0029393,0.0010989,0.044202,1.61,0.42123,-0.70865,1.2406,0.0019927,0.015909,0.061826,0.11064,-0.026183,-0.035068,-0.43493,-0.1196
-0.0065432,0.008932,0.084723,0.014117,-0.072735,0.03086,0.19472,-0.064141,0.0043714,-0.0077122,-0.0073928,0.03691,1.184,0.40097,-0.64134,1.4421,0.005982,0.023571,0.061344,0.11497,-0.0078295,-0.019374,-0.50902,-0.11175
-0.0047659,0.00935,0.088516,0.017473,-0.056026,0.028,0.20066,-0.13281,0.0035552,-0.011675,-0.013293,0.03464,0.86044,0.33877,-0.53336,1.4562,0.013155,0.029561,0.058683,0.11798,0.0096311,-0.0085833,-0.54992,-0.055378
-0.0052071,0.013255,0.087348,0.017522,-0.043763,0.025617,0.20126,-0.19163,0.002198,-0.012887,-0.016412,0.038663,0.63293,0.22431,-0.39391,1.3373,0.020713,0.032465,0.055966,0.12038,0.025924,-0.0018536,-0.543,0.04873
-0.005874,0.018791,0.080842,0.011625,-0.033179,0.025401,0.1944,-0.24988,0.00013555,-0.010344,-0.017571,0.045202,0.47556,0.081053,-0.24638,1.2606,0.02529,0.031175,0.054148,0.12237,0.039815,0.0023646,-0.48219,0.18015
-0.0052243,0.022407,0.071151,0.0015894,-0.021401,0.027819,0.18113,-0.30636,-0.0016064,-0.0050627,-0.017585,0.048512,0.36641,-0.048851,-0.12227,1.4185,0.025772,0.025998,0.052176,0.12395,0.047317,0.0044209,-0.37293,0.30247
-0.0031017,0.021892,0.060938,-0.0081232,-0.0074538,0.032387,0.16462,-0.35238,-0.0016006,-0.00021656,-0.016158,0.04571,0.29924,-0.13179,-0.045745,1.894,0.024131,0.018736,0.048165,0.12561,0.042987,0.0032384,-0.23066,0.37982
-0.00015522,0.018314,0.051688,-0.014113,0.0074651,0.038201,0.14808,-0.38125,0.00034793,-1.4463e-005,-0.011462,0.039348,0.27487,-0.16076,-0.019173,2.607,0.023613,0.01172,0.041424,0.12865,0.023958,-0.0023253,-0.07569,0.39561
0.0032104,0.015042,0.043551,-0.016475,0.021125,0.044074,0.13358,-0.39524,0.002421,-0.0077612,-0.0010305,0.035451,0.27997,-0.15257,-0.021815,3.3678,0.026004,0.0067261,0.03335,0.13449,-0.0067204,-0.012087,0.073924,0.35883
0.0069944,0.014663,0.036298,-0.01804,0.031495,0.048442,0.12215,-0.40409,0.0019587,-0.024112,0.016289,0.038558,0.27194,-0.13039,-0.02485,3.9952,0.030464,0.0046178,0.026189,0.1434,-0.040844,-0.024438,0.20897,0.29282
0.010793,0.016607,0.029986,-0.021341,0.037245,0.049728,0.11434,-0.41733,-0.0021903,-0.046419,0.038556,0.047804,0.18732,-0.10794,-0.011735,4.4075,0.034835,0.0056972,0.020645,0.1538,-0.069886,-0.037369,0.33115,0.21534
0.013277,0.017728,0.024678,-0.026088,0.037817,0.047306,0.10996,-0.43835,-0.0082482,-0.069449,0.060625,0.057234,-0.025042,-0.086708,0.012074,4.63,0.037958,0.010058,0.014507,0.16294,-0.090109,-0.049346,0.44813,0.12702
0.012995,0.015375,0.019903,-0.02935,0.033692,0.042273,0.1075,-0.46536,-0.012506,-0.087164,0.076229,0.060076,-0.36537,-0.063729,0.027206,4.7293,0.040625,0.017404,0.0038787,0.16857,-0.10368,-0.059165,0.56338,0.018659
0.0099609,0.010155,0.014947,-0.028179,0.026752,0.036962,0.10422,-0.49673,-0.012098,-0.094914,0.08122,0.053621,-0.76635,-0.039269,0.018389,4.7429,0.044289,0.02662,-0.013608,0.17036,-0.11491,-0.065218,0.66816,-0.10837
0.0063142,0.0057046,0.0099315,-0.022258,0.019894,0.033189,0.097616,-0.53369,-0.0072522,-0.091332,0.075971,0.041094,-1.1146,-0.016853,-0.013248,4.6604,0.048948,0.035812,-0.036087,0.16986,-0.12518,-0.065315,0.74278,-0.22727
0.0050018,0.00554,0.0063725,-0.014187,0.015528,0.030533,0.087095,-0.577,-0.0010885,-0.079205,0.065288,0.029327,-1.3013,0.0019638,-0.052898,4.4604,0.052498,0.043095,-0.057716,0.16912,-0.13111,-0.057605,0.76826,-0.29325
0.0073955,0.0098122,0.0060839,-0.0072277,0.013899,0.026219,0.074263,-0.62149,0.0028228,-0.064691,0.055798,0.024081,-1.2712,0.02018,-0.085462,4.1572,0.052357,0.047499,-0.072113,0.16904,-0.12776,-0.041973,0.73989,-0.27248
0.011985,0.015003,0.0090555,-0.0026328,0.012861,0.016961,0.061335,-0.65551,0.0030697,-0.054844,0.052357,0.026295,-1.042,0.041232,-0.10681,3.8068,0.047843,0.049125,-0.076442,0.16901,-0.11388,-0.020775,0.67189,-0.17269
0.015459,0.016947,0.012411,0.0009598,0.0096801,0.0013989,0.04912,-0.66761,0.0010846,-0.054433,0.05571,0.031699,-0.68553,0.062404,-0.12402,3.4691,0.040985,0.048429,-0.072909,0.16792,-0.094491,0.0015836,0.58926,-0.049686
0.015301,0.014458,0.011945,0.00556,0.0035023,-0.018814,0.036516,-0.65498,-0.00042857,-0.063797,0.062764,0.033899,-0.28702,0.073554,-0.14666,3.1641,0.034943,0.045493,-0.066455,0.16572,-0.078351,0.019835,0.51377,0.0204
0.011642,0.010234,0.0053231,0.011246,-0.0037518,-0.040098,0.022014,-0.62557,0.00018248,-0.079104,0.069104,0.028847,0.089429,0.064133,-0.1783,2.8662,0.031502,0.040172,-0.060662,0.16382,-0.072553,0.029174,0.45606,-0.012608
0.0068249,0.0082295,-0.005815,0.015542,-0.009,-0.059289,0.0056436,-0.59151,0.0023465,-0.094826,0.071886,0.017635,0.41371,0.03324,-0.21482,2.5419,0.02995,0.033002,-0.055412,0.164,-0.07866,0.02654,0.41914,-0.14032
0.0032697,0.0099398,-0.01691,0.015496,-0.01072,-0.075333,-0.010637,-0.55931,0.0039939,-0.10661,0.07113,0.0056506,0.68399,-0.0059911,-0.24804,2.1929,0.028244,0.02568,-0.048225,0.16665,-0.09317,0.011856,0.40688,-0.30138
0.001681,0.013055,-0.023934,0.010631,-0.010288,-0.089157,-0.02448,-0.52552,0.003382,-0.1125,0.068729,-0.0014287,0.91557,-0.031913,-0.26903,1.8637,0.02517,0.020237,-0.037821,0.17004,-0.1111,-0.01119,0.42645,-0.42232
0.0011049,0.013658,-0.026228,0.0040606,-0.010733,-0.10206,-0.034958,-0.48099,0.0005265,-0.11206,0.066275,-0.0018862,1.1323,-0.026037,-0.26844,1.6015,0.021418,0.017446,-0.02649,0.17147,-0.12918,-0.035818,0.48031,-0.46422
0.00046875,0.0098976,-0.026277,0.00063604,-0.014077,-0.11406,-0.042694,-0.41893,-0.0027789,-0.1047,0.063569,0.00083097,1.3562,0.017299,-0.23685,1.4054,0.01869,0.016069,-0.018969,0.16927,-0.14623,-0.054793,0.55635,-0.442
-0.00011403,0.0037736,-0.026851,0.0035786,-0.019682,-0.12331,-0.048195,-0.33938,-0.0042914,-0.089419,0.058878,0.001006,1.5895,0.089002,-0.1687,1.208,0.017937,0.01396,-0.018809,0.16398,-0.16153,-0.064026,0.62921,-0.40489
0.00042048,-0.00047372,-0.028379,0.012272,-0.024905,-0.127,-0.050291,-0.24688,-0.0030233,-0.066327,0.050401,-0.0046734,1.7935,0.17064,-0.068438,0.91186,0.018505,0.010168,-0.025471,0.15758,-0.17352,-0.064755,0.67647,-0.39645
0.0026595,0.00016744,-0.029043,0.022852,-0.0272,-0.12271,-0.04665,-0.14572,-0.00010859,-0.038505,0.037534,-0.014593,1.8838,0.24239,0.047772,0.45139,0.018898,0.0060423,-0.034704,0.15145,-0.18045,-0.062405,0.69801,-0.42584
0.0056617,0.0051901,-0.027291,0.030921,-0.025657,-0.1097,-0.036258,-0.038769,0.001851,-0.011949,0.021038,-0.023985,1.7598,0.28891,0.15904,-0.16304,0.018194,0.0041473,-0.041801,0.14499,-0.18198,-0.062597,0.72004,-0.46937
0.0074668,0.011233,-0.024074,0.034225,-0.020841,-0.08941,-0.021617,0.068364,0.00061036,0.007113,0.0024378,-0.029334,1.3631,0.30153,0.25192,-0.85301,0.016665,0.0059606,-0.044909,0.13624,-0.18005,-0.067243,0.77641,-0.49565
0.0067901,0.014868,-0.022442,0.033436,-0.01355,-0.065143,-0.0083446,0.16282,-0.003987,0.015773,-0.016474,-0.03135,0.73166,0.27796,0.32793,-1.5235,0.015128,0.010554,-0.045667,0.124,-0.17784,-0.073892,0.87969,-0.49079
0.004317,0.015098,-0.024869,0.030891,-0.0040331,-0.041132,-0.00215,0.2262,-0.0097041,0.01597,-0.033734,-0.033809,0.0087613,0.22117,0.39936,-2.12,0.013919,0.015487,-0.046899,0.1095,-0.17803,-0.078889,1.0056,-0.46504
0.0023023,0.013686,-0.030969,0.028648,0.0074969,-0.021291,-0.0054612,0.24359,-0.013371,0.012587,-0.047384,-0.039437,-0.61359,0.13819,0.47653,-2.6531,0.012629,0.018944,-0.049552,0.095959,-0.18138,-0.081565,1.1051,-0.44053
0.0027074,0.01342,-0.037843,0.027391,0.019683,-0.0081255,-0.016337,0.21353,-0.013056,0.009538,-0.056206,-0.046833,-0.99207,0.0388,0.55768,-3.177,0.010756,0.020954,-0.051476,0.086353,-0.18674,-0.085582,1.1371,-0.43433
0.0054424,0.015885,-0.042569,0.02672,0.029525,-0.0022478,-0.030247,0.15069,-0.0092855,0.0070441,-0.060562,-0.051392,-1.1129,-0.066077,0.63054,-3.7435,0.0084039,0.022626,-0.048947,0.081151,-0.19161,-0.096049,1.0952,-0.4494
0.0082297,0.020442,-0.044239,0.026132,0.03339,-0.0026097,-0.042948,0.078616,-0.0044023,0.0023413,-0.062323,-0.049367,-1.1008,-0.16612,0.68397,-4.3614,0.0062149,0.024416,-0.039573,0.077906,-0.19302,-0.11491,1.0091,-0.47515
0.008226,0.024902,-0.043556,0.025667,0.029062,-0.0071491,-0.052098,0.018461,-0.00068205,-0.0068748,-0.06353,-0.041226,-1.1427,-0.25295,0.71896,-4.9881,0.0046979,0.025423,-0.024296,0.072933,-0.18845,-0.1389,0.92106,-0.49111
0.0040763,0.027132,-0.040777,0.025706,0.017459,-0.013401,-0.056834,-0.017089,0.0012678,-0.019238,-0.064744,-0.031176,-1.3671,-0.3204,0.74875,-5.5487,0.0038116,0.024461,-0.0070817,0.063669,-0.17721,-0.16218,0.85545,-0.47037
-0.0032057,0.026324,-0.034602,0.026343,0.0027058,-0.018902,-0.056553,-0.021029,0.0027053,-0.029376,-0.064639,-0.023339,-1.7535,-0.36326,0.78815,-5.9675,0.0032798,0.021666,0.0073296,0.049983,-0.16168,-0.18127,0.80701,-0.38625
-0.011077,0.023138,-0.023582,0.027038,-0.009703,-0.021561,-0.050634,0.013581,0.0056807,-0.030501,-0.06133,-0.018225,-2.1324,-0.37543,0.84178,-6.1876,0.0031703,0.01874,0.01598,0.033809,-0.1474,-0.19776,0.75257,-0.2259
-0.017162,0.018922,-0.0086404,0.026914,-0.015693,-0.020164,-0.039448,0.092341,0.011707,-0.017609,-0.054294,-0.01274,-2.28,-0.34964,0.9016,-6.1708,0.0039089,0.017427,0.018922,0.01774,-0.14095,-0.21608,0.67393,-0.0056513
-0.020405,0.014767,0.006283,0.025405,-0.014684,-0.014788,-0.025332,0.20866,0.021057,0.011085,-0.045141,-0.0036378,-2.0509,-0.28118,0.95478,-5.8878,0.005599,0.017743,0.018493,0.0036673,-0.14622,-0.23804,0.57159,0.22469
-0.020958,0.011104,0.016814,0.02272,-0.0096468,-0.0066927,-0.01208,0.33301,0.03281,0.0547,-0.03662,0.0089141,-1.4673,-0.17461,0.99384,-5.3178,0.0074535,0.017854,0.017323,-0.0079085,-0.16106,-0.25916,0.45909,0.39787
-0.019291,0.0079262,0.021847,0.01975,-0.0050984,0.002461,-0.0030691,0.41695,0.045274,0.11051,-0.030928,0.021043,-0.70914,-0.048744,1.0196,-4.4707,0.008189,0.015792,0.01657,-0.017824,-0.17699,-0.26996,0.34489,0.45982
-0.015596,0.0051909,0.024663,0.017515,-0.0043498,0.011504,0.00031556,0.41648,0.056474,0.17353,-0.028846,0.028418,-0.015004,0.066627,1.0355,-3.4243,0.0072238,0.011314,0.015699,-0.027607,-0.18266,-0.26148,0.21838,0.39602
-0.010063,0.0029558,0.02989,0.016507,-0.00779,0.020002,-0.0015507,0.32103,0.064701,0.23536,-0.030152,0.030025,0.44101,0.14359,1.0405,-2.3417,0.0055248,0.0060541,0.01394,-0.038498,-0.16968,-0.23071,0.052792,0.23649
-0.0036257,0.0012082,0.038782,0.016325,-0.01321,0.027652,-0.0081734,0.16453,0.069102,0.28465,-0.034346,0.028991,0.62084,0.17164,1.0281,-1.4377,0.005082,0.0019465,0.012161,-0.050604,-0.13702,-0.18218,-0.17535,0.037668
0.0018548,-0.00025756,0.047242,0.015854,-0.01769,0.033558,-0.020004,0.0061061,0.069982,0.31054,-0.040609,0.029793,0.60703,0.16409,0.99288,-0.88967,0.0072322,-0.00036041,0.013328,-0.062803,-0.091251,-0.12514,-0.46266,-0.14479
0.0044687,-0.0016409,0.048706,0.013975,-0.019539,0.036388,-0.037465,-0.10789,0.068485,0.30773,-0.047135,0.034517,0.52462,0.14855,0.93662,-0.7387,0.011226,-0.00154,0.020752,-0.073574,-0.042046,-0.068979,-0.7676,-0.27571
0.0036238,-0.0027526,0.039566,0.010417,-0.018969,0.035549,-0.058779,-0.17146,0.065757,0.27987,-0.050998,0.04153,0.46075,0.14705,0.86646,-0.84858,0.014373,-0.002305,0.035228,-0.082168,0.0037197,-0.020041,-1.0215,-0.34601
0.00066593,-0.0028933,0.022401,0.0061352,-0.017352,0.032257,-0.079125,-0.21477,0.062228,0.2383,-0.049306,0.047527,0.43237,0.16085,0.7861,-0.96557,0.013828,-0.0024473,0.053477,-0.089139,0.045058,0.019125,-1.1592,-0.36901
-0.0019704,-0.0012525,0.0042421,0.0027809,-0.016008,0.029123,-0.092792,-0.27289,0.057684,0.19651,-0.040938,0.050717,0.40896,0.17252,0.68854,-0.85108,0.0086529,-0.0012858,0.06949,-0.095813,0.084867,0.048677,-1.1535,-0.37396
-0.0024919,0.0024201,-0.0084582,0.0015033,-0.015614,0.028027,-0.097101,-0.3551,0.052033,0.16369,-0.027307,0.052093,0.35748,0.16378,0.55914,-0.4036,0.00055454,0.0011925,0.078157,-0.10331,0.12468,0.069977,-1.0324,-0.39746
-0.000886,0.007436,-0.013737,0.0020053,-0.016459,0.027859,-0.094739,-0.44025,0.045957,0.14132,-0.011404,0.053839,0.26935,0.13372,0.38833,0.30972,-0.007283,0.0041056,0.078627,-0.11205,0.16079,0.084401,-0.8666,-0.4702
0.0015229,0.012423,-0.013873,0.0027247,-0.018918,0.024312,-0.092132,-0.49948,0.040654,0.124,0.003933,0.056729,0.15536,0.10136,0.18348,1.1233,-0.01236,0.0068652,0.074928,-0.12208,0.18536,0.092571,-0.73125,-0.60153
0.003605,0.016013,-0.011934,0.0021174,-0.023387,0.012576,-0.094738,-0.52356,0.036793,0.1035,0.016931,0.059179,0.025726,0.089796,-0.031095,1.8809,-0.014379,0.010418,0.073418,-0.13346,0.19182,0.094119,-0.66571,-0.77157
0.0054808,0.017457,-0.0087968,-1.8232e-005,-0.02965,-0.0086743,-0.10298,-0.52999,0.033673,0.073004,0.026403,0.058734,-0.11833,0.10571,-0.22733,2.499,-0.015061,0.016783,0.07884,-0.14608,0.18028,0.08829,-0.65801,-0.93991
0.0080174,0.016818,-0.0033824,-0.0023753,-0.036332,-0.035052,-0.11208,-0.54526,0.029542,0.030111,0.030985,0.054417,-0.27319,0.13231,-0.38952,2.9534,-0.016532,0.026855,0.091516,-0.15905,0.15828,0.075387,-0.66414,-1.0682
0.011317,0.014857,0.0045946,-0.0033264,-0.041114,-0.058069,-0.11597,-0.58072,0.022987,-0.021989,0.029578,0.047732,-0.41693,0.14223,-0.52051,3.2317,-0.019599,0.038532,0.10718,-0.1704,0.13646,0.058226,-0.64723,-1.1419
0.013918,0.012808,0.012614,-0.0024171,-0.041632,-0.06983,-0.112,-0.62456,0.014287,-0.07495,0.022989,0.04161,-0.50876,0.11941,-0.63367,3.3147,-0.023226,0.047287,0.11921,-0.17798,0.12269,0.042349,-0.60596,-1.176
0.013836,0.012076,0.016484,-0.00082325,-0.036479,-0.067615,-0.10294,-0.65556,0.0055724,-0.1176,0.015025,0.038492,-0.50614,0.07159,-0.73857,3.2088,-0.025531,0.049124,0.12187,-0.18076,0.11949,0.034316,-0.57124,-1.202
0.010668,0.013682,0.013786,-0.00038487,-0.025734,-0.055085,-0.094908,-0.66389,-0.00039112,-0.14018,0.011178,0.039146,-0.38412,0.023246,-0.83248,2.9869,-0.025457,0.043451,0.1127,-0.17939,0.12624,0.038892,-0.57611,-1.2467
0.0066617,0.017534,0.0063104,-0.0021007,-0.010979,-0.039345,-0.092995,-0.65896,-0.0018524,-0.13899,0.015192,0.042763,-0.14203,-0.0041846,-0.9032,2.778,-0.023733,0.033349,0.093287,-0.17557,0.14311,0.05693,-0.62581,-1.3196
0.0053432,0.022034,-0.001053,-0.0053607,0.0049551,-0.02618,-0.098069,-0.65811,0.0010515,-0.11872,0.026074,0.047652,0.19944,-0.0078286,-0.93826,2.6964,-0.022348,0.023084,0.06812,-0.17068,0.17238,0.085314,-0.69361,-1.4132
0.0085562,0.024644,-0.0042004,-0.0084246,0.018508,-0.017009,-0.10662,-0.66804,0.0067016,-0.090298,0.038389,0.051849,0.59672,-0.0023911,-0.93125,2.7626,-0.022966,0.015193,0.04246,-0.16494,0.21498,0.11874,-0.74428,-1.5111
0.014455,0.023383,-0.0029897,-0.0095506,0.026323,-0.0095318,-0.11342,-0.67664,0.013178,-0.065147,0.0461,0.05363,0.97413,-0.004821,-0.88093,2.8874,-0.025603,0.0096789,0.020454,-0.15788,0.26544,0.15174,-0.76359,-1.5949
0.018446,0.018353,-0.00080081,-0.0077978,0.026517,-0.0011099,-0.11478,-0.66242,0.019231,-0.049483,0.047113,0.052261,1.2256,-0.018302,-0.78715,2.9376,-0.028737,0.005649,0.004292,-0.14949,0.31025,0.1797,-0.76819,-1.6452
0.016602,0.012089,-0.00091184,-0.003078,0.019583,0.0081716,-0.11026,-0.61262,0.024406,-0.042507,0.044796,0.048728,1.2501,-0.028659,-0.6501,2.8331,-0.030747,0.0033559,-0.0056544,-0.14094,0.33288,0.19898,-0.78898,-1.6418
0.0088515,0.0082014,-0.0031089,0.004172,0.008117,0.015263,-0.102,-0.53466,0.028438,-0.039254,0.045101,0.0455,1.0154,-0.015365,-0.47451,2.598,-0.031386,0.0044574,-0.010436,-0.13426,0.3228,0.20741,-0.84429,-1.5661
-0.00071549,0.0090443,-0.003734,0.013123,-0.0046573,0.016796,-0.092572,-0.45229,0.030646,-0.035303,0.051632,0.044866,0.60622,0.032094,-0.27385,2.3302,-0.03186,0.010272,-0.012338,-0.13121,0.28234,0.20557,-0.92539,-1.4054
-0.0067567,0.013987,0.00082594,0.02239,-0.016572,0.012283,-0.083091,-0.39087,0.029987,-0.029483,0.062731,0.046771,0.20739,0.10497,-0.069137,2.1223,-0.033373,0.019897,-0.014532,-0.13212,0.22563,0.19766,-1.0036,-1.1548
-0.0064998,0.019619,0.010387,0.030029,-0.027116,0.0051428,-0.072749,-0.36295,0.0258,-0.023085,0.072916,0.048112,0.010185,0.1793,0.11758,2.0026,-0.035542,0.030181,-0.019892,-0.13557,0.16992,0.18998,-1.0486,-0.81561
-0.001463,0.021956,0.020365,0.034098,-0.036604,0.00061199,-0.059974,-0.36314,0.018588,-0.017372,0.077283,0.044586,0.097078,0.22975,0.26978,1.9384,-0.036346,0.037748,-0.029085,-0.13898,0.12504,0.18697,-1.0421,-0.39565
0.0041647,0.019262,0.024875,0.033639,-0.044884,0.0020917,-0.044223,-0.37348,0.010068,-0.012264,0.075105,0.034,0.38627,0.24394,0.37807,1.8863,-0.033928,0.041318,-0.039357,-0.13985,0.088506,0.18728,-0.97856,0.083649
0.0069756,0.013505,0.02091,0.029347,-0.050946,0.0086714,-0.027096,-0.3748,0.002242,-0.0071883,0.069759,0.018353,0.68245,0.22895,0.43759,1.8368,-0.028645,0.042366,-0.045527,-0.13701,0.049606,0.18364,-0.86064,0.57758
0.0067164,0.0092018,0.010188,0.023317,-0.053889,0.015635,-0.012054,-0.35799,-0.0038406,-0.0025243,0.065448,0.0027673,0.80153,0.20744,0.44638,1.8131,-0.023316,0.043599,-0.043133,-0.13099,-0.00082438,0.16739,-0.69854,1.0195
0.0057492,0.010226,-0.0024884,0.017934,-0.054242,0.017519,-0.0029414,-0.32983,-0.0086364,0.00047084,0.063748,-0.0080402,0.68094,0.20639,0.40828,1.8273,-0.021122,0.046537,-0.031531,-0.12334,-0.062256,0.13497,-0.51453,1.3431
0.0063522,0.016767,-0.012644,0.014634,-0.054162,0.01153,-0.0022303,-0.30916,-0.01349,0.0013812,0.06287,-0.012891,0.39959,0.24426,0.3374,1.839,-0.022843,0.050091,-0.014377,-0.11521,-0.12368,0.091273,-0.34447,1.5187
0.0084382,0.024783,-0.018505,0.013407,-0.055954,-0.00096677,-0.0099334,-0.31281,-0.019315,0.001955,0.059853,-0.014436,0.10405,0.32182,0.25796,1.7576,-0.025951,0.051135,0.0030913,-0.1063,-0.17036,0.047336,-0.22844,1.575
0.0097537,0.028628,-0.020913,0.013264,-0.060028,-0.015645,-0.023634,-0.33724,-0.025654,0.0051081,0.053484,-0.016683,-0.092972,0.41997,0.19583,1.4928,-0.026574,0.046584,0.017679,-0.095238,-0.19302,0.01401,-0.19233,1.585
0.0082375,0.025065,-0.021562,0.013235,-0.064189,-0.028064,-0.039423,-0.34873,-0.03088,0.012097,0.045412,-0.022192,-0.16476,0.50581,0.16638,1.0176,-0.022791,0.035468,0.029585,-0.081227,-0.19314,-0.0036609,-0.23197,1.6167
0.0041801,0.015662,-0.021375,0.013151,-0.065253,-0.036168,-0.053182,-0.29318,-0.033412,0.020556,0.0388,-0.031283,-0.14863,0.54543,0.16762,0.39526,-0.016429,0.019622,0.040355,-0.065709,-0.18102,-0.0076985,-0.31098,1.6846
3.6235e-005,0.0056196,-0.020088,0.013743,-0.061965,-0.040912,-0.06169,-0.12456,-0.033004,0.025688,0.035961,-0.043366,-0.08931,0.51901,0.18486,-0.25181,-0.011728,0.0025648,0.04957,-0.05234,-0.16873,-0.0041985,-0.37477,1.7421
-0.0019529,-4.9618e-005,-0.016822,0.016154,-0.056751,-0.044767,-0.063336,0.16443,-0.03111,0.024103,0.036924,-0.058451,-0.0069263,0.43098,0.20399,-0.8107,-0.01191,-0.012581,0.053752,-0.044824,-0.16293,0.00085478,-0.37304,1.7257
-0.0019703,4.3454e-005,-0.01086,0.021197,-0.054433,-0.049231,-0.05849,0.53145,-0.030022,0.017215,0.039757,-0.076964,0.08798,0.30886,0.22305,-1.2376,-0.016531,-0.024658,0.048968,-0.04406,-0.16237,0.0039343,-0.27952,1.6174
-0.0023917,0.003319,-0.0022256,0.028687,-0.058494,-0.053075,-0.049608,0.90308,-0.031332,0.011209,0.041957,-0.098137,0.16164,0.18937,0.25319,-1.5686,-0.02188,-0.034461,0.035015,-0.046963,-0.16111,0.0038044,-0.10027,1.4716
-0.0052284,0.0059683,0.0079138,0.037061,-0.067804,-0.052634,-0.040946,1.2111,-0.034799,0.01336,0.041717,-0.11897,0.15183,0.098641,0.30848,-1.8792,-0.024097,-0.043313,0.01727,-0.048218,-0.15459,0.00030514,0.13189,1.3816
-0.0097569,0.0061727,0.017178,0.043593,-0.076771,-0.044164,-0.03752,1.4218,-0.038456,0.027356,0.038446,-0.13537,0.0033729,0.038368,0.39288,-2.2239,-0.022373,-0.051579,0.0040063,-0.043911,-0.14353,-0.0062677,0.3736,1.4089
-0.012818,0.0049936,0.02273,0.045414,-0.079198,-0.026804,-0.043251,1.5396,-0.039935,0.05095,0.032715,-0.14488,-0.28736,-0.012585,0.49455,-2.5981,-0.019499,-0.058418,0.00090785,-0.034331,-0.13292,-0.014881,0.58941,1.5329
-0.011688,0.0044712,0.02292,0.04113,-0.072877,-0.0040386,-0.058878,1.5884,-0.038141,0.077282,0.02601,-0.14848,-0.66237,-0.081557,0.59135,-2.9418,-0.01929,-0.062886,0.0070939,-0.023751,-0.12699,-0.023464,0.76274,1.6637
-0.0067975,0.0050965,0.0188,0.032127,-0.061035,0.017604,-0.080915,1.5882,-0.034123,0.098548,0.020335,-0.14964,-1.0384,-0.18149,0.66269,-3.1736,-0.023151,-0.065099,0.015987,-0.017314,-0.12441,-0.02944,0.89332,1.7101
-0.0015431,0.0052501,0.013895,0.022328,-0.049364,0.032015,-0.10274,1.5473,-0.030546,0.10948,0.017537,-0.15136,-1.3583,-0.30071,0.69924,-3.2293,-0.028837,-0.066101,0.020477,-0.01739,-0.11803,-0.030923,0.98443,1.6506
0.00078168,0.0031135,0.011731,0.016072,-0.041269,0.036825,-0.11773,1.4699,-0.030095,0.10891,0.018475,-0.15343,-1.6146,-0.41022,0.70479,-3.0823,-0.032504,-0.066385,0.018348,-0.022073,-0.099431,-0.027622,1.0319,1.5532
5.7191e-005,-0.00096779,0.012773,0.01527,-0.035544,0.034218,-0.1227,1.3672,-0.033877,0.099262,0.022481,-0.15246,-1.8301,-0.48305,0.6909,-2.7467,-0.032171,-0.064604,0.013672,-0.026752,-0.064859,-0.020549,1.0263,1.5285
-0.00058555,-0.0041786,0.013584,0.018011,-0.028378,0.02863,-0.11968,1.2585,-0.040787,0.084986,0.027555,-0.14425,-2.0203,-0.51166,0.66924,-2.2709,-0.029299,-0.058102,0.013078,-0.027305,-0.017774,-0.010608,0.96735,1.6512
0.0021636,-0.003498,0.0095271,0.019937,-0.017373,0.023112,-0.1145,1.1606,-0.04817,0.070761,0.031135,-0.12661,-2.1735,-0.51131,0.64642,-1.7262,-0.026908,-0.045193,0.019881,-0.022443,0.033999,0.0027895,0.8772,1.9044
0.0084477,0.0014966,-0.00082398,0.017555,-0.0033487,0.01718,-0.11325,1.0769,-0.053294,0.060025,0.03083,-0.10058,-2.2642,-0.50771,0.62288,-1.1878,-0.025983,-0.027279,0.030815,-0.013693,0.08381,0.021643,0.79662,2.1868
0.014776,0.0079405,-0.01344,0.010901,0.011914,0.0078552,-0.11882,0.99797,-0.054684,0.054131,0.024711,-0.069736,-2.2804,-0.51841,0.59472,-0.70626,-0.023784,-0.0086874,0.038103,-0.0035494,0.12949,0.047308,0.76335,2.3734
0.016871,0.011868,-0.021201,0.0033824,0.029361,-0.0070344,-0.1295,0.91267,-0.052603,0.052463,0.011345,-0.038846,-2.2357,-0.5408,0.55642,-0.28632,-0.01615,0.0059429,0.035424,0.0064166,0.17159,0.077716,0.78866,2.3886
0.013215,0.011383,-0.019378,-0.0010693,0.05314,-0.026091,-0.14043,0.82095,-0.048535,0.053559,-0.0098377,-0.012776,-2.1585,-0.55481,0.503,0.10711,-0.0020055,0.014603,0.023162,0.016059,0.20846,0.1063,0.85211,2.243
0.0061282,0.0080224,-0.0097294,-0.0011021,0.08609,-0.044558,-0.14663,0.73586,-0.044208,0.056564,-0.037743,0.0043508,-2.0744,-0.53774,0.4312,0.51062,0.014185,0.018631,0.0086493,0.025816,0.23326,0.12429,0.91921,2.0141
-0.00036799,0.00518,0.00037407,0.0012425,0.12386,-0.057416,-0.14564,0.67431,-0.040894,0.061894,-0.069101,0.01045,-2.0026,-0.48144,0.33985,0.91767,0.024885,0.020603,0.00087404,0.035691,0.2365,0.12555,0.96582,1.7865
-0.0037642,0.0051284,0.0032488,0.002524,0.15383,-0.062785,-0.13825,0.64514,-0.039357,0.07038,-0.099136,0.0069374,-1.965,-0.40067,0.22973,1.2686,0.025341,0.02141,0.0034522,0.045066,0.21271,0.11033,0.98765,1.5972
-0.0044385,0.0073269,-0.0037313,0.00083388,0.16171,-0.062676,-0.12717,0.64429,-0.040154,0.081474,-0.1234,-0.0011192,-1.9907,-0.32701,0.10381,1.4934,0.017862,0.019246,0.011245,0.053281,0.16564,0.084808,0.9885,1.4195
-0.0042589,0.0093814,-0.016955,-0.0028277,0.14165,-0.060441,-0.11474,0.65914,-0.043704,0.092068,-0.1395,-0.0074832,-2.0952,-0.29186,-0.03192,1.5775,0.01047,0.011369,0.013412,0.060127,0.10715,0.056162,0.96248,1.1935
-0.004146,0.0095044,-0.030114,-0.0057033,0.10192,-0.057171,-0.10146,0.67577,-0.049901,0.097275,-0.14733,-0.0092222,-2.2493,-0.30849,-0.16714,1.5923,0.010566,-0.0032196,0.00083887,0.065606,0.05018,0.027238,0.89128,0.87885
-0.0031586,0.0080519,-0.039064,-0.005784,0.060624,-0.05038,-0.086306,0.68213,-0.05771,0.09294,-0.14781,-0.010436,-2.3696,-0.36474,-0.28724,1.6562,0.018713,-0.022971,-0.02756,0.069271,0.0012176,-0.0044376,0.76167,0.49006
3.2576e-005,0.0067886,-0.043981,-0.0035319,0.034223,-0.036355,-0.068624,0.66603,-0.065431,0.078145,-0.1416,-0.022325,-2.3574,-0.43129,-0.37634,1.8477,0.02781,-0.045678,-0.064344,0.069986,-0.04151,-0.042056,0.58595,0.094134
0.0049414,0.0068142,-0.047671,-0.0015059,0.027476,-0.014264,-0.049792,0.61374,-0.071694,0.055806,-0.12929,-0.058845,-2.1672,-0.48055,-0.42368,2.143,0.028463,-0.071015,-0.099169,0.066669,-0.083102,-0.083415,0.40252,-0.22817
0.0088414,0.0073242,-0.052304,-0.002288,0.032303,0.011637,-0.033166,0.51452,-0.076341,0.030874,-0.11286,-0.12998,-1.8537,-0.50305,-0.43075,2.4294,0.016245,-0.10073,-0.1263,0.059594,-0.12497,-0.11938,0.25162,-0.43094
0.0089288,0.0064442,-0.057671,-0.0063452,0.035638,0.03393,-0.021996,0.36976,-0.080233,0.0075058,-0.096535,-0.23592,-1.5483,-0.50957,-0.41448,2.5874,-0.0049929,-0.13575,-0.14863,0.051133,-0.16218,-0.13937,0.14556,-0.5322
0.0052006,0.0032659,-0.062021,-0.011443,0.029219,0.046847,-0.016899,0.19875,-0.083933,-0.012761,-0.085285,-0.36459,-1.372,-0.51737,-0.40309,2.5725,-0.026203,-0.1729,-0.17559,0.044995,-0.18733,-0.1397,0.059887,-0.60695
0.0011273,-0.00097679,-0.063996,-0.014091,0.013619,0.050131,-0.015072,0.033549,-0.086462,-0.030722,-0.081564,-0.49339,-1.3451,-0.53165,-0.42498,2.4334,-0.039863,-0.20496,-0.21711,0.044028,-0.197,-0.12751,-0.045897,-0.74776
0.00099681,-0.0038087,-0.063594,-0.012034,-0.0054261,0.048743,-0.012146,-0.096363,-0.085466,-0.047722,-0.082999,-0.59498,-1.3683,-0.53793,-0.49644,2.2614,-0.044962,-0.225,-0.27783,0.047873,-0.19445,-0.11597,-0.19584,-1.014
0.0059629,-0.0037054,-0.061603,-0.0059639,-0.023658,0.048595,-0.0053494,-0.18009,-0.078896,-0.063938,-0.083425,-0.64588,-1.2938,-0.51313,-0.61463,2.1236,-0.046677,-0.23201,-0.35511,0.052258,-0.18599,-0.11431,-0.38115,-1.3973
0.012412,-0.001569,-0.058557,0.00092736,-0.041602,0.051769,0.0045257,-0.23004,-0.066812,-0.077913,-0.076993,-0.63566,-1.0358,-0.44697,-0.75991,2.0359,-0.051634,-0.23251,-0.44107,0.050993,-0.17466,-0.1209,-0.57214,-1.8228
0.014538,-0.00016009,-0.054508,0.005335,-0.062293,0.055076,0.013907,-0.27138,-0.051611,-0.087299,-0.062297,-0.57229,-0.63417,-0.3556,-0.9057,1.9861,-0.062868,-0.23635,-0.52633,0.039898,-0.15767,-0.12543,-0.74484,-2.188
0.009289,-0.0020066,-0.049701,0.006369,-0.086566,0.053003,0.019195,-0.32409,-0.03637,-0.089988,-0.043244,-0.47952,-0.22112,-0.27435,-1.0301,1.9645,-0.078197,-0.24948,-0.60252,0.02013,-0.13064,-0.11847,-0.89655,-2.4176
-0.00057673,-0.0075737,-0.045195,0.0061348,-0.11072,0.042473,0.019119,-0.39142,-0.02271,-0.084905,-0.026003,-0.38587,0.079369,-0.23318,-1.1241,1.9623,-0.092603,-0.26936,-0.66288,-0.0018061,-0.094832,-0.10013,-1.0377,-2.5048
-0.0082629,-0.015079,-0.042624,0.0077893,-0.12858,0.025511,0.014871,-0.46365,-0.010076,-0.072435,-0.014543,-0.31048,0.24118,-0.23351,-1.1931,1.9425,-0.10214,-0.28691,-0.70156,-0.017961,-0.060172,-0.080381,-1.1711,-2.5132
-0.0083278,-0.021831,-0.043184,0.012648,-0.13573,0.0077722,0.0082787,-0.53327,0.0029982,-0.054786,-0.0082891,-0.25469,0.34817,-0.24532,-1.253,1.8267,-0.10621,-0.29311,-0.71359,-0.024225,-0.040215,-0.070999,-1.2828,-2.5415
-0.0011689,-0.02585,-0.046675,0.018846,-0.13243,-0.0056901,1.567e-005,-0.60781,0.016861,-0.036221,-0.0034854,-0.20521,0.52811,-0.22734,-1.322,1.5295,-0.10695,-0.28509,-0.6962,-0.022873,-0.042395,-0.076126,-1.3548,-2.6709
0.0073246,-0.026628,-0.05128,0.022824,-0.1231,-0.013996,-0.010404,-0.70819,0.029786,-0.022576,0.0032117,-0.14662,0.86508,-0.15514,-1.4099,1.0231,-0.10669,-0.26717,-0.6509,-0.020065,-0.061564,-0.08947,-1.3891,-2.9261
0.010679,-0.024912,-0.054213,0.022441,-0.11368,-0.020727,-0.022894,-0.85212,0.038922,-0.019493,0.011991,-0.073974,1.3525,-0.036017,-1.51,0.37294,-0.1058,-0.24674,-0.58424,-0.020117,-0.082386,-0.099795,-1.4181,-3.2681
0.0070032,-0.022116,-0.05288,0.019046,-0.10873,-0.030965,-0.035081,-1.0346,0.042281,-0.029763,0.020007,0.0036432,1.9061,0.099007,-1.5976,-0.29202,-0.10237,-0.2289,-0.50602,-0.021414,-0.088797,-0.099187,-1.4863,-3.6132
-7.1885e-005,-0.019886,-0.046058,0.016625,-0.11005,-0.047407,-0.04242,-1.2207,0.040149,-0.051226,0.023797,0.070447,2.4093,0.21757,-1.6403,-0.85439,-0.093746,-0.21365,-0.42523,-0.017707,-0.073047,-0.086828,-1.6164,-3.8664
-0.0052484,-0.019828,-0.034556,0.018698,-0.11638,-0.06817,-0.040386,-1.3575,0.034921,-0.076939,0.021709,0.11525,2.7542,0.30418,-1.6164,-1.2646,-0.078666,-0.19727,-0.3463,-0.0039982,-0.037822,-0.065965,-1.7849,-3.9495
-0.0064625,-0.023088,-0.020894,0.025527,-0.12385,-0.087496,-0.027258,-1.3982,0.029709,-0.098143,0.014396,0.13752,2.8639,0.36166,-1.5309,-1.5315,-0.058443,-0.17572,-0.26836,0.018044,0.0088065,-0.038279,-1.9303,-3.8209
-0.00628,-0.029757,-0.0079911,0.033953,-0.1271,-0.098715,-0.0055166,-1.3252,0.026933,-0.10869,0.0034152,0.14457,2.7094,0.39861,-1.416,-1.6651,-0.036595,-0.14765,-0.18842,0.040059,0.060054,-0.0017958,-1.9888,-3.4867
-0.0087052,-0.038469,0.0024431,0.039888,-0.12134,-0.097756,0.019063,-1.158,0.027869,-0.10827,-0.010416,0.14408,2.3295,0.41619,-1.3128,-1.6358,-0.017232,-0.11507,-0.10624,0.052758,0.11303,0.045738,-1.9338,-3.0012
-0.014678,-0.046668,0.010645,0.041283,-0.10488,-0.085332,0.039892,-0.94391,0.033261,-0.10213,-0.027321,0.13966,1.8401,0.40597,-1.2441,-1.4006,-0.0033017,-0.082077,-0.027007,0.052832,0.16636,0.10192,-1.7906,-2.4551
-0.020688,-0.051595,0.017968,0.039164,-0.080482,-0.066586,0.052022,-0.7356,0.044227,-0.097321,-0.047366,0.13263,1.4066,0.35907,-1.1975,-0.97783,0.0043022,-0.052427,0.040783,0.045244,0.21667,0.15867,-1.6174,-1.9481
-0.021893,-0.051552,0.025104,0.036138,-0.054253,-0.048271,0.05339,-0.56813,0.062491,-0.097709,-0.069072,0.127,1.174,0.27714,-1.1328,-0.49706,0.0065484,-0.02737,0.090611,0.039056,0.25805,0.2067,-1.466,-1.5524
-0.016798,-0.046737,0.030965,0.033968,-0.032078,-0.035032,0.044782,-0.44635,0.08941,-0.10137,-0.089263,0.13143,1.1905,0.17537,-1.0096,-0.1609,0.0055193,-0.0049085,0.12211,0.040351,0.28487,0.24121,-1.3497,-1.2835
-0.0090866,-0.039179,0.033478,0.032425,-0.016122,-0.02723,0.029193,-0.34932,0.12417,-0.10229,-0.10438,0.15578,1.3792,0.075849,-0.81683,-0.13199,0.0037409,0.01882,0.14027,0.048049,0.29496,0.26362,-1.2395,-1.0937
-0.004783,-0.03176,0.031848,0.03023,-0.0040005,-0.021925,0.011134,-0.24817,0.16233,-0.095211,-0.11217,0.20546,1.5884,-0.0027145,-0.58455,-0.42903,0.003738,0.046445,0.15026,0.055735,0.29008,0.27789,-1.0889,-0.89707
-0.0071975,-0.026844,0.028261,0.026932,0.0086335,-0.016292,-0.0042231,-0.1262,0.1961,-0.080207,-0.11248,0.27862,1.6908,-0.050844,-0.36911,-0.91926,0.0075007,0.076429,0.15246,0.057421,0.27382,0.28551,-0.86994,-0.61682
-0.014099,-0.025198,0.027186,0.023777,0.024213,-0.010576,-0.012369,0.011954,0.21678,-0.063273,-0.10674,0.36828,1.6632,-0.067408,-0.22274,-1.4181,0.015704,0.10267,0.14278,0.05209,0.24946,0.28424,-0.59676,-0.23249
-0.019583,-0.025764,0.032316,0.022721,0.041321,-0.0079115,-0.011045,0.14727,0.21849,-0.052584,-0.097047,0.46629,1.5865,-0.055338,-0.1663,-1.8162,0.027149,0.11759,0.11849,0.043444,0.21976,0.27194,-0.32025,0.20246
-0.018996,-0.026409,0.043476,0.024524,0.056235,-0.011043,-0.001138,0.26277,0.20096,-0.053099,-0.085832,0.56534,1.567,-0.018888,-0.18088,-2.1267,0.03918,0.11701,0.084423,0.035774,0.18811,0.25109,-0.099068,0.58729
-0.012716,-0.025252,0.056156,0.027724,0.06639,-0.018984,0.013985,0.35589,0.16966,-0.06352,-0.076215,0.65798,1.6392,0.036022,-0.22037,-2.4146,0.049247,0.10364,0.05317,0.030138,0.15889,0.22896,0.034162,0.83424
-0.005659,-0.021826,0.064485,0.029469,0.072562,-0.026986,0.030556,0.43739,0.13301,-0.077606,-0.072084,0.73567,1.7263,0.10081,-0.23553,-2.6735,0.056654,0.086671,0.037789,0.024277,0.13611,0.21277,0.090131,0.92585
-0.0030916,-0.0174,0.0656,0.027548,0.077819,-0.0302,0.046487,0.51915,0.098498,-0.088507,-0.076952,0.79041,1.6894,0.16562,-0.19589,-2.7687,0.063054,0.077953,0.0429,0.015852,0.12137,0.20405,0.11429,0.92876
-0.0063667,-0.014208,0.062,0.021954,0.084343,-0.027774,0.061937,0.60248,0.069739,-0.092741,-0.091897,0.81818,1.4288,0.2232,-0.099145,-2.5131,0.07107,0.087354,0.062486,0.0054915,0.11344,0.19776,0.15996,0.94976
-0.012087,-0.014016,0.059847,0.014772,0.091188,-0.023399,0.078014,0.67734,0.045811,-0.091268,-0.11416,0.82059,0.96533,0.27206,0.033831,-1.8225,0.082054,0.12001,0.087377,-0.0033523,0.10972,0.18713,0.26094,1.0617
-0.01515,-0.016916,0.064247,0.0085765,0.095166,-0.021435,0.094921,0.7323,0.022634,-0.087696,-0.13793,0.8024,0.44424,0.31585,0.17387,-0.81948,0.094919,0.17611,0.11619,-0.0073797,0.10825,0.16982,0.4192,1.2531
-0.012882,-0.021119,0.075066,0.0045782,0.09418,-0.022051,0.11128,0.76593,-0.0048137,-0.085619,-0.15704,0.76695,0.061222,0.35888,0.29945,0.21393,0.10713,0.25207,0.15908,-0.0061612,0.10818,0.1498,0.61184,1.4403
-0.0067969,-0.02395,0.086618,0.0017807,0.089964,-0.020061,0.12533,0.78927,-0.040444,-0.087093,-0.1679,0.71409,-0.041502,0.40113,0.40587,1.0079,0.11692,0.34181,0.22928,-0.0020099,0.10874,0.13329,0.80989,1.5341
-0.00079316,-0.023425,0.091642,-0.0023475,0.087619,-0.0090014,0.13682,0.81806,-0.085544,-0.092639,-0.17035,0.6432,0.1509,0.43638,0.50375,1.4651,0.12461,0.43784,0.32863,0.0025261,0.10786,0.12281,0.99613,1.5103
0.0022381,-0.019409,0.086668,-0.010133,0.09203,0.012874,0.14784,0.86234,-0.13796,-0.10192,-0.16609,0.55838,0.51791,0.4548,0.60924,1.6781,0.13166,0.53232,0.4404,0.0067316,0.10229,0.1149,1.1724,1.4277
0.0023213,-0.013621,0.07468,-0.021874,0.10401,0.039942,0.16151,0.92267,-0.19229,-0.11421,-0.15623,0.47024,0.86003,0.4478,0.73261,1.7948,0.13846,0.61799,0.53733,0.011216,0.089112,0.10336,1.3539,1.3823
0.0014111,-0.0085346,0.06307,-0.03503,0.11935,0.062424,0.17952,0.99499,-0.2413,-0.12859,-0.1404,0.39165,0.98874,0.41176,0.87219,1.8545,0.14326,0.68832,0.59991,0.015588,0.067289,0.084971,1.5553,1.435
0.00090652,-0.0059283,0.058462,-0.045155,0.13154,0.072837,0.20045,1.0778,-0.27843,-0.14426,-0.11798,0.33085,0.80837,0.34873,1.0164,1.7441,0.14323,0.73681,0.62988,0.017093,0.037905,0.062158,1.776,1.5692
0.00028849,-0.0060111,0.062353,-0.048422,0.13609,0.070319,0.22019,1.1737,-0.2999,-0.1608,-0.090371,0.28895,0.35384,0.26437,1.1507,1.3129,0.13684,0.7567,0.64742,0.012059,0.0031022,0.04024,1.9932,1.7082
-0.0018537,-0.0075876,0.070617,-0.04442,0.13296,0.059541,0.23393,1.2821,-0.30528,-0.17784,-0.061862,0.2647,-0.2323,0.16535,1.2638,0.54341,0.12487,0.74277,0.67416,-0.00097819,-0.03502,0.02177,2.1674,1.7715
-0.005639,-0.0090121,0.07684,-0.037216,0.12551,0.045808,0.23837,1.3915,-0.29583,-0.19393,-0.037869,0.26191,-0.7714,0.058116,1.3495,-0.37548,0.10935,0.69472,0.71603,-0.019459,-0.074326,0.0033487,2.2592,1.7224
-0.0089487,-0.0092323,0.076641,-0.033417,0.11712,0.031168,0.23258,1.4776,-0.27202,-0.20559,-0.021624,0.29103,-1.1305,-0.050252,1.4044,-1.1405,0.091611,0.61938,0.75971,-0.038194,-0.1113,-0.021905,2.2505,1.5735
-0.0088693,-0.0082803,0.069929,-0.037982,0.10863,0.014892,0.21773,1.5114,-0.23258,-0.20805,-0.011883,0.36081,-1.2697,-0.1503,1.4262,-1.5163,0.071895,0.52851,0.78425,-0.052836,-0.13961,-0.057923,2.1571,1.3567
-0.0043045,-0.0070201,0.06007,-0.050523,0.098551,-0.0027181,0.19641,1.4738,-0.17647,-0.19803,-0.0035943,0.46604,-1.2323,-0.2294,1.4142,-1.4629,0.050831,0.43247,0.77676,-0.062428,-0.15024,-0.10053,2.0248,1.0914
0.0026647,-0.0064247,0.051252,-0.064995,0.085472,-0.017515,0.1721,1.3657,-0.10702,-0.17682,0.0088276,0.58236,-1.0938,-0.27372,1.371,-1.1196,0.03074,0.33412,0.7392,-0.069061,-0.13405,-0.13796,1.9069,0.7827
0.008023,-0.0068698,0.046093,-0.07344,0.07022,-0.023011,0.14858,1.2097,-0.034581,-0.15088,0.028057,0.67469,-0.91247,-0.27313,1.3035,-0.68028,0.014611,0.22873,0.68287,-0.07544,-0.085972,-0.15712,1.8365,0.44715
0.0087284,-0.007833,0.044673,-0.071357,0.05565,-0.015259,0.12866,1.0407,0.025463,-0.12849,0.052798,0.71416,-0.71784,-0.22696,1.2214,-0.27385,0.0031974,0.11145,0.6177,-0.082811,-0.0086219,-0.15115,1.8107,0.13985
0.0049232,-0.0081434,0.044957,-0.060813,0.044378,0.0032314,0.11277,0.89149,0.059661,-0.11459,0.07966,0.69119,-0.53527,-0.14702,1.1337,0.068043,-0.0067477,-0.012958,0.54648,-0.090807,0.087341,-0.12313,1.7977,-0.046073
-0.00028174,-0.0066656,0.044065,-0.048885,0.036618,0.024324,0.098618,0.77913,0.064481,-0.10753,0.1061,0.61589,-0.41122,-0.055053,1.0476,0.36234,-0.020512,-0.12613,0.46768,-0.098565,0.18696,-0.083599,1.7629,-0.013388
-0.0031721,-0.003103,0.039854,-0.042556,0.030095,0.039414,0.082797,0.69837,0.049475,-0.10066,0.13177,0.50809,-0.4017,0.025183,0.96815,0.6149,-0.040708,-0.2027,0.38195,-0.1055,0.27698,-0.044221,1.694,0.2913
-0.0020327,0.0015253,0.032268,-0.043867,0.02203,0.044724,0.063553,0.62657,0.032536,-0.087725,0.15712,0.38696,-0.52378,0.077492,0.89948,0.80489,-0.063915,-0.22408,0.29539,-0.11112,0.35026,-0.012298,1.6066,0.84378
0.0019205,0.0051259,0.023689,-0.048926,0.011389,0.04252,0.042572,0.53884,0.029801,-0.067806,0.18097,0.26787,-0.71222,0.099014,0.84369,0.90889,-0.082211,-0.19023,0.21718,-0.11487,0.4059,0.010566,1.5244,1.5399
0.0057463,0.0055439,0.017744,-0.051305,-0.00045169,0.037822,0.02413,0.42598,0.046896,-0.045705,0.19967,0.16494,-0.83025,0.098451,0.79951,0.92302,-0.088968,-0.12098,0.15474,-0.11681,0.4455,0.025732,1.4516,2.2241
0.0069825,0.0018665,0.017043,-0.047006,-0.010882,0.034156,0.012131,0.30373,0.077321,-0.027464,0.20922,0.091666,-0.74345,0.087335,0.76269,0.85805,-0.084313,-0.046088,0.11083,-0.11869,0.46922,0.033872,1.3589,2.7352
0.0051645,-0.0048132,0.021324,-0.03715,-0.017826,0.032254,0.0074039,0.20593,0.10834,-0.014804,0.20864,0.055641,-0.41031,0.069533,0.72959,0.72122,-0.075626,0.0091787,0.0835,-0.12382,0.4752,0.033576,1.1982,2.9544
0.0017345,-0.011781,0.027468,-0.026588,-0.020665,0.032206,0.0074314,0.16452,0.12931,-0.0033527,0.20155,0.051578,0.078729,0.03603,0.7013,0.51318,-0.072536,0.033787,0.067042,-0.13492,0.46229,0.022996,0.93674,2.8397
-0.0012789,-0.016094,0.03148,-0.019978,-0.020019,0.035836,0.0085186,0.18948,0.13636,0.013646,0.19391,0.061247,0.54752,-0.030454,0.68378,0.24536,-0.080332,0.031114,0.052506,-0.15157,0.43276,0.0026437,0.58552,2.436
-0.0026259,-0.016093,0.030914,-0.018637,-0.017085,0.045913,0.0083564,0.26205,0.13137,0.039142,0.18985,0.063527,0.835,-0.14253,0.68152,-0.044437,-0.096844,0.011676,0.028845,-0.16971,0.39164,-0.023326,0.201,1.8538
-0.002278,-0.01211,0.025939,-0.020503,-0.013308,0.062397,0.0068562,0.34465,0.11812,0.068884,0.1892,0.048047,0.87961,-0.29467,0.68857,-0.2994,-0.11479,-0.015255,-0.01371,-0.184,0.34296,-0.048507,-0.14321,1.2233
-0.00089238,-0.0060313,0.018445,-0.022694,-0.010335,0.079698,0.0049442,0.39906,0.099906,0.0939,0.18906,0.021442,0.73305,-0.45884,0.68517,-0.4678,-0.12729,-0.045809,-0.07904,-0.19134,0.28692,-0.067251,-0.39583,0.64551
0.00097048,-0.00021885,0.010229,-0.024119,-0.0097393,0.088785,0.0028666,0.40057,0.080207,0.10698,0.18786,0.0007996,0.5067,-0.59404,0.64544,-0.51993,-0.13227,-0.08056,-0.16292,-0.19245,0.22181,-0.077102,-0.55223,0.16693
0.0031102,0.0034612,0.0018175,-0.025922,-0.01228,0.083643,-0.0002717,0.34208,0.063764,0.10785,0.18759,-0.00041538,0.30149,-0.66519,0.55322,-0.4468,-0.13287,-0.12127,-0.25581,-0.19034,0.1501,-0.079212,-0.6483,-0.20918
0.0053162,0.0040836,-0.0073455,-0.029694,-0.017237,0.066992,-0.0054652,0.23126,0.054977,0.10268,0.19181,0.017493,0.17105,-0.65908,0.41472,-0.25604,-0.13447,-0.16875,-0.34893,-0.18714,0.082775,-0.076909,-0.73013,-0.48637
0.00694,0.0016804,-0.017867,-0.035386,-0.02254,0.04985,-0.012499,0.086348,0.053845,0.098469,0.20106,0.041998,0.12679,-0.58658,0.25682,0.015106,-0.14089,-0.22296,-0.43849,-0.18263,0.036486,-0.073796,-0.82206,-0.64549
0.007051,-0.0029024,-0.029515,-0.040883,-0.025813,0.044213,-0.019725,-0.067291,0.053486,0.097006,0.21017,0.059518,0.15514,-0.4698,0.1098,0.27815,-0.1524,-0.28415,-0.52465,-0.17564,0.023284,-0.0727,-0.91549,-0.64767
0.0051864,-0.0082319,-0.040983,-0.043512,-0.025618,0.05403,-0.025054,-0.2025,0.043166,0.093532,0.21086,0.066768,0.21849,-0.32487,-0.01418,0.39968,-0.1663,-0.35285,-0.60681,-0.16678,0.039898,-0.075701,-0.98427,-0.46817
0.001997,-0.012704,-0.050232,-0.041966,-0.022007,0.071543,-0.027133,-0.29886,0.015908,0.081056,0.19766,0.073543,0.24544,-0.15447,-0.1306,0.25998,-0.17882,-0.42831,-0.68055,-0.15928,0.065378,-0.084574,-1.0127,-0.13203
-0.00097062,-0.015138,-0.055135,-0.036903,-0.016062,0.082276,-0.025644,-0.35095,-0.025215,0.056429,0.17226,0.095403,0.14295,0.043863,-0.27199,-0.16274,-0.18697,-0.50628,-0.73953,-0.15661,0.070559,-0.1008,-1.0129,0.28008
-0.0023763,-0.015255,-0.054348,-0.029874,-0.0089459,0.075245,-0.020781,-0.37011,-0.067974,0.023029,0.14238,0.14207,-0.15141,0.26205,-0.46376,-0.75155,-0.18935,-0.57844,-0.78029,-0.15883,0.033983,-0.12502,-1.0195,0.66261
-0.0022072,-0.013691,-0.04824,-0.021845,-0.0012228,0.050842,-0.012886,-0.37749,-0.099029,-0.011907,0.11598,0.2097,-0.60538,0.47377,-0.70322,-1.3038,-0.18603,-0.63457,-0.80467,-0.1612,-0.046174,-0.15648,-1.0654,0.92984
-0.0018846,-0.011488,-0.03935,-0.01289,0.0070948,0.020481,-0.0030108,-0.39274,-0.11253,-0.042626,0.095694,0.28177,-1.0755,0.64355,-0.95594,-1.6542,-0.17798,-0.66669,-0.81696,-0.15716,-0.15185,-0.19321,-1.1622,1.0433
-0.0031234,-0.0094562,-0.031713,-0.0033499,0.015916,-0.0017448,0.0061815,-0.42566,-0.11184,-0.068182,0.077725,0.33778,-1.374,0.74637,-1.1708,-1.7785,-0.1667,-0.67303,-0.81871,-0.14349,-0.25578,-0.23277,-1.2977,1.009
-0.006415,-0.0078567,-0.029037,0.0048583,0.024409,-0.0091867,0.010681,-0.47512,-0.1033,-0.09123,0.055565,0.36424,-1.388,0.78125,-1.303,-1.7938,-0.15397,-0.65899,-0.80707,-0.12347,-0.33522,-0.27289,-1.4515,0.85657
-0.010406,-0.0065906,-0.03267,0.00853,0.030916,-0.0070721,0.0073826,-0.53314,-0.088479,-0.11389,0.024933,0.36127,-1.1624,0.76726,-1.3302,-1.855,-0.14169,-0.63412,-0.77904,-0.10506,-0.37995,-0.31147,-1.6116,0.62112
-0.012762,-0.0055885,-0.040762,0.0054153,0.033743,-0.0081014,-0.0029324,-0.58927,-0.063146,-0.13458,-0.013977,0.34048,-0.87512,0.72612,-1.2555,-2.0352,-0.13141,-0.60659,-0.73774,-0.095289,-0.39151,-0.34587,-1.7769,0.33541
-0.011878,-0.004986,-0.049322,-0.0032778,0.03251,-0.022627,-0.014639,-0.63282,-0.024473,-0.14841,-0.057804,0.31469,-0.70964,0.66781,-1.1001,-2.2886,-0.12369,-0.5783,-0.69346,-0.095431,-0.37706,-0.37262,-1.9457,0.023588
-0.0081224,-0.0049185,-0.054628,-0.012621,0.029081,-0.050731,-0.020063,-0.65404,0.020525,-0.15049,-0.10258,0.28522,-0.71926,0.59209,-0.89275,-2.5236,-0.1176,-0.54375,-0.65706,-0.10075,-0.34375,-0.38819,-2.1056,-0.31102
-0.0036283,-0.0051894,-0.055465,-0.016923,0.027096,-0.081935,-0.014564,-0.64665,0.054872,-0.13908,-0.14476,0.23559,-0.78984,0.50267,-0.66274,-2.7129,-0.11094,-0.4935,-0.63027,-0.1047,-0.2967,-0.39036,-2.2381,-0.69533
-0.00079794,-0.0052335,-0.05379,-0.014014,0.029916,-0.10259,0.0001363,-0.61109,0.062621,-0.11608,-0.18024,0.13757,-0.73445,0.4177,-0.43748,-2.9379,-0.10144,-0.41994,-0.60191,-0.1037,-0.23971,-0.3789,-2.3373,-1.1736
-0.0006317,-0.004556,-0.0534,-0.0072815,0.038137,-0.10549,0.017555,-0.55535,0.043349,-0.084945,-0.20346,-0.031591,-0.44683,0.36303,-0.24168,-3.3239,-0.088171,-0.32208,-0.55446,-0.098493,-0.17572,-0.35467,-2.4261,-1.7657
-0.0021012,-0.0033466,-0.057376,-0.0032508,0.048487,-0.09495,0.031972,-0.49135,0.017917,-0.048124,-0.20881,-0.2702,0.0082884,0.35212,-0.09587,-3.9226,-0.072087,-0.20678,-0.47656,-0.09159,-0.10624,-0.31783,-2.5499,-2.4186
-0.003006,-0.0026562,-0.065899,-0.0062394,0.055234,-0.084062,0.043072,-0.42887,0.018825,-0.0063743,-0.19387,-0.54402,0.43957,0.37132,-0.013396,-4.6435,-0.054765,-0.08622,-0.37182,-0.083757,-0.031362,-0.2675,-2.7463,-2.9957
-0.0016704,-0.0037474,-0.075898,-0.014506,0.053435,-0.086544,0.055239,-0.37202,0.070278,0.039585,-0.16198,-0.79615,0.6708,0.38657,0.0031889,-5.2939,-0.036254,0.026867,-0.25668,-0.073183,0.047847,-0.20421,-3.0078,-3.3266
0.001776,-0.0069394,-0.082982,-0.021452,0.041944,-0.10875,0.071824,-0.32154,0.17144,0.086753,-0.12123,-0.97116,0.66573,0.36848,-0.035568,-5.693,-0.013952,0.12401,-0.14969,-0.057924,0.12531,-0.13401,-3.2615,-3.3008
0.0055036,-0.010919,-0.084477,-0.021175,0.024223,-0.14679,0.089699,-0.28029,0.29466,0.1291,-0.080198,-1.0402,0.53982,0.31519,-0.10724,-5.7696,0.015996,0.20413,-0.060971,-0.038858,0.18832,-0.069991,-3.3842,-2.9434
0.0074161,-0.013363,-0.081401,-0.013665,0.0065493,-0.18946,0.099693,-0.25537,0.39996,0.15939,-0.043578,-1.0122,0.45742,0.25299,-0.18358,-5.5715,0.055503,0.27413,0.010139,-0.019813,0.22174,-0.027821,-3.2474,-2.4166
0.0068107,-0.012668,-0.077761,-0.0049951,-0.0049988,-0.22423,0.093411,-0.25225,0.45612,0.17261,-0.01116,-0.92419,0.50376,0.21424,-0.24012,-5.1947,0.10232,0.34661,0.069273,-0.0042513,0.21695,-0.016204,-2.7733,-1.9364
0.004925,-0.009394,-0.07756,-0.0022309,-0.0068012,-0.2421,0.070878,-0.26382,0.45483,0.16846,0.01931,-0.81621,0.63346,0.21243,-0.26447,-4.7012,0.15118,0.43521,0.11993,0.0085971,0.17949,-0.028652,-1.9723,-1.6579
0.0038756,-0.0059922,-0.081897,-0.0075226,0.0018644,-0.23964,0.042062,-0.26426,0.41035,0.15147,0.048462,-0.70687,0.72691,0.23607,-0.25781,-4.0919,0.19792,0.54906,0.16203,0.024404,0.12867,-0.04397,-0.94622,-1.6062
0.0048357,-0.0047572,-0.088558,-0.016583,0.019772,-0.2186,0.020319,-0.21708,0.34717,0.1285,0.074506,-0.58523,0.69659,0.26513,-0.22817,-3.3485,0.24282,0.6881,0.19637,0.050051,0.087468,-0.037445,0.14374,-1.6961
0.0070168,-0.005743,-0.094333,-0.022737,0.044811,-0.18468,0.012724,-0.096994,0.28509,0.10547,0.095977,-0.42628,0.55214,0.29278,-0.18045,-2.4983,0.29001,0.84152,0.2291,0.088244,0.069143,0.0038666,1.1272,-1.8184
0.0084143,-0.0066559,-0.097872,-0.022712,0.074272,-0.14622,0.015059,0.087299,0.23123,0.08549,0.11473,-0.22072,0.3775,0.33084,-0.11204,-1.6431,0.34257,0.99009,0.27031,0.13479,0.070245,0.072888,1.8717,-1.9205
0.0077489,-0.0050388,-0.10043,-0.018972,0.10455,-0.1121,0.015355,0.28747,0.18199,0.069038,0.13496,0.0021395,0.25165,0.39412,-0.01873,-0.92411,0.3976,1.1124,0.32685,0.18087,0.07536,0.14806,2.3111,-2.0187
0.0058879,-0.00081779,-0.10398,-0.016795,0.1312,-0.08886,0.0029288,0.43675,0.13145,0.05561,0.15761,0.17897,0.18646,0.47928,0.093886,-0.4419,0.44601,1.1925,0.3958,0.21868,0.069718,0.20882,2.451,-2.1432
0.0053476,0.0032396,-0.10876,-0.019077,0.15013,-0.077985,-0.02427,0.48853,0.079519,0.045573,0.17426,0.24722,0.13205,0.55987,0.20403,-0.18321,0.4778,1.2263,0.46451,0.24591,0.049448,0.24914,2.3566,-2.2744
0.0081109,0.003718,-0.11277,-0.023639,0.15931,-0.075322,-0.059129,0.44727,0.034537,0.041341,0.16679,0.18939,0.036392,0.60356,0.28023,-0.0057723,0.48889,1.2223,0.51765,0.26579,0.021655,0.27853,2.1291,-2.3372
0.013573,-0.00057311,-0.11377,-0.025207,0.16008,-0.073611,-0.090949,0.36789,0.0094237,0.047622,0.11523,0.053245,-0.098605,0.59682,0.29769,0.29811,0.48353,1.1969,0.54573,0.2829,-0.0044577,0.31077,1.8749,-2.2638
0.018502,-0.0076812,-0.1116,-0.02,0.15662,-0.066711,-0.11197,0.3204,0.014097,0.070384,0.0098105,-0.072517,-0.21415,0.55418,0.25273,0.88465,0.47031,1.165,0.54886,0.29843,-0.026441,0.35022,1.6717,-2.072
0.019273,-0.014284,-0.10831,-0.008875,0.15396,-0.05273,-0.12011,0.34307,0.048307,0.11404,-0.14079,-0.1155,-0.24457,0.5029,0.16461,1.7528,0.45505,1.1328,0.53418,0.30903,-0.04918,0.38763,1.5456,-1.8805
0.014624,-0.018346,-0.10591,0.0033981,0.15556,-0.034059,-0.11713,0.41798,0.09844,0.1771,-0.31086,-0.069946,-0.17509,0.45551,0.063761,2.7198,0.43684,1.0965,0.5106,0.30979,-0.077129,0.40805,1.4686,-1.8377
0.0066539,-0.020186,-0.10388,0.011746,0.16215,-0.014813,-0.10535,0.48696,0.14018,0.2487,-0.46791,-0.0011195,-0.057977,0.39451,-0.024648,3.5058,0.41052,1.0485,0.48531,0.29889,-0.10617,0.40331,1.3826,-2.0117
-0.00077565,-0.021258,-0.099468,0.014229,0.17212,0.0018864,-0.085947,0.49535,0.14689,0.3094,-0.58474,0.0027879,0.025769,0.28372,-0.09118,3.8863,0.37309,0.98505,0.46364,0.27974,-0.12332,0.37799,1.2354,-2.3303
-0.0048203,-0.022215,-0.090696,0.012863,0.18286,0.014689,-0.059905,0.42932,0.1013,0.33847,-0.6466,-0.10288,0.026976,0.098372,-0.14269,3.8153,0.32836,0.90988,0.45018,0.25922,-0.11521,0.34465,1.0081,-2.6227
-0.0052614,-0.022313,-0.079278,0.011688,0.19167,0.022863,-0.029486,0.31944,0.0056867,0.32482,-0.65122,-0.28418,-0.037787,-0.14969,-0.19637,3.4394,0.28566,0.83106,0.44862,0.24365,-0.0782,0.31364,0.71759,-2.7298
-0.0038161,-0.020581,-0.070248,0.013817,0.19628,0.025037,0.001695,0.21186,-0.11523,0.27484,-0.60523,-0.45153,-0.10495,-0.41244,-0.2725,2.9961,0.25383,0.75448,0.45959,0.23598,-0.02183,0.28684,0.4006,-2.5967
-0.0022157,-0.017305,-0.067963,0.019552,0.19526,0.019492,0.030335,0.1341,-0.22282,0.21065,-0.52118,-0.52283,-0.11875,-0.63177,-0.38767,2.672,0.2358,0.68087,0.47885,0.23587,0.03665,0.2599,0.094694,-2.2769
-0.0010815,-0.014199,-0.071857,0.026546,0.18886,0.0058238,0.055205,0.083373,-0.28235,0.15822,-0.41636,-0.47962,-0.077347,-0.77159,-0.54818,2.5231,0.22799,0.60934,0.49766,0.24164,0.081522,0.22905,-0.16808,-1.8535
-0.00045286,-0.013115,-0.075992,0.031614,0.1796,-0.013768,0.077286,0.042334,-0.28159,0.13279,-0.31087,-0.37734,-0.033887,-0.83191,-0.74504,2.4964,0.22445,0.54402,0.50583,0.25179,0.10468,0.1954,-0.35884,-1.3493
-0.00084816,-0.014634,-0.073296,0.03286,0.17143,-0.035074,0.098049,0.002375,-0.23845,0.13159,-0.22293,-0.30838,-0.052612,-0.83609,-0.95503,2.511,0.2218,0.49654,0.49558,0.26481,0.10594,0.16301,-0.45434,-0.7022
-0.0031934,-0.017827,-0.061121,0.03081,0.16722,-0.054096,0.11729,-0.028964,-0.19136,0.13897,-0.16277,-0.35034,-0.1559,-0.80389,-1.1509,2.5175,0.2204,0.47994,0.4639,0.27789,0.090416,0.13369,-0.45051,0.17588
-0.0074792,-0.021205,-0.043347,0.027929,0.16622,-0.069072,0.13227,-0.041367,-0.17705,0.13936,-0.12919,-0.5355,-0.30363,-0.73302,-1.3159,2.4945,0.2215,0.49777,0.41244,0.28665,0.066963,0.1048,-0.37605,1.3074
-0.011841,-0.023781,-0.02719,0.026945,0.16385,-0.080677,0.1388,-0.039293,-0.20992,0.12793,-0.1119,-0.85193,-0.41839,-0.60391,-1.4534,2.4145,0.22328,0.5376,0.34546,0.28644,0.048161,0.07226,-0.28673,2.5972
-0.013646,-0.025351,-0.017448,0.029137,0.15466,-0.090385,0.13348,-0.043833,-0.27671,0.11136,-0.098335,-1.2597,-0.43341,-0.40236,-1.5802,2.2394,0.2199,0.57574,0.26733,0.27446,0.0487,0.035851,-0.23489,3.8586
-0.011978,-0.026089,-0.013063,0.033659,0.13629,-0.098583,0.11544,-0.075942,-0.34947,0.099997,-0.080544,-1.7008,-0.32445,-0.14099,-1.7094,1.9653,0.2045,0.59079,0.18119,0.25132,0.079951,0.00098894,-0.233,4.8951
-0.0089957,-0.026108,-0.0087051,0.03821,0.1112,-0.10397,0.086705,-0.13755,-0.4062,0.099349,-0.057956,-2.1004,-0.10586,0.13811,-1.8315,1.6691,0.17386,0.5756,0.089172,0.22104,0.14296,-0.025071,-0.24215,5.582
-0.0083694,-0.025376,0.00030164,0.040444,0.084495,-0.10446,0.051041,-0.20949,-0.44311,0.10811,-0.035309,-2.3754,0.19597,0.38112,-1.9126,1.4925,0.13069,0.53758,-0.0063285,0.18963,0.22541,-0.039407,-0.20021,5.903
-0.011934,-0.023799,0.014044,0.03921,0.059792,-0.098554,0.01226,-0.26859,-0.46988,0.12261,-0.018217,-2.4631,0.56069,0.54726,-1.9109,1.554,0.082012,0.48704,-0.10131,0.16298,0.30591,-0.046367,-0.072199,5.9316
-0.017797,-0.021235,0.028167,0.03495,0.036665,-0.086128,-0.026772,-0.30755,-0.4929,0.14169,-0.0097102,-2.3575,0.96555,0.62388,-1.8026,1.854,0.034716,0.42412,-0.19002,0.14433,0.3634,-0.054579,0.11585,5.7799
-0.021967,-0.017585,0.037536,0.029263,0.012089,-0.068569,-0.063852,-0.33878,-0.50121,0.16693,-0.0095046,-2.1249,1.3626,0.62447,-1.5996,2.2534,-0.0081671,0.33645,-0.26626,0.13259,0.38504,-0.070729,0.28813,5.5441
-0.02209,-0.0132,0.040092,0.023981,-0.015612,-0.048778,-0.096173,-0.37956,-0.46697,0.19843,-0.01549,-1.8762,1.6719,0.57538,-1.3459,2.5498,-0.048244,0.21041,-0.32547,0.12233,0.36775,-0.095447,0.36921,5.2711
-0.019593,-0.00938,0.03799,0.020261,-0.044009,-0.031124,-0.11929,-0.43435,-0.36121,0.23145,-0.025593,-1.7055,1.8078,0.50229,-1.0957,2.5929,-0.089464,0.045915,-0.36631,0.10632,0.3146,-0.12454,0.33587,4.9557
-0.018053,-0.0081973,0.035705,0.018123,-0.06761,-0.020711,-0.12764,-0.49251,-0.17407,0.25761,-0.038383,-1.6364,1.7268,0.42344,-0.88678,2.3528,-0.13486,-0.13912,-0.39096,0.079502,0.23109,-0.15388,0.23189,4.5663
-0.019414,-0.011286,0.037128,0.016691,-0.0818,-0.021485,-0.11697,-0.54371,0.074218,0.26959,-0.052105,-1.6147,1.46,0.34869,-0.72597,1.9051,-0.1846,-0.31971,-0.40446,0.041959,0.1251,-0.18306,0.13524,4.086
-0.021949,-0.018307,0.043844,0.015036,-0.086185,-0.033946,-0.087547,-0.59394,0.33869,0.26452,-0.063248,-1.5512,1.102,0.28067,-0.59319,1.3646,-0.23608,-0.48101,-0.41401,-0.0014405,0.0089864,-0.21458,0.10264,3.5412
-0.022101,-0.02651,0.055191,0.01301,-0.084484,-0.054202,-0.045668,-0.66285,0.56843,0.24308,-0.066322,-1.3835,0.76153,0.2158,-0.46044,0.83087,-0.28545,-0.62662,-0.42809,-0.044381,-0.10092,-0.24916,0.13043,2.997
-0.018379,-0.032162,0.069248,0.011323,-0.081295,-0.075613,-0.0019424,-0.76024,0.72782,0.20632,-0.055638,-1.112,0.50509,0.14721,-0.31245,0.37282,-0.32888,-0.77049,-0.45441,-0.082734,-0.18976,-0.28192,0.15684,2.5205
-0.013268,-0.032953,0.083751,0.010664,-0.078741,-0.092277,0.033457,-0.86221,0.80873,0.15418,-0.028263,-0.79011,0.33405,0.070393,-0.15684,0.033228,-0.3631,-0.92019,-0.49602,-0.11564,-0.2509,-0.30314,0.10085,2.1399
-0.011112,-0.029431,0.096713,0.010591,-0.075919,-0.10205,0.055714,-0.91226,0.82759,0.087789,0.013752,-0.48415,0.20735,-0.01125,-0.018804,-0.17982,-0.38557,-1.0666,-0.54737,-0.14368,-0.28794,-0.3037,-0.088521,1.8364
-0.01397,-0.024237,0.10699,0.0094122,-0.071343,-0.10699,0.067145,-0.85391,0.81022,0.012857,0.063345,-0.23718,0.090111,-0.086142,0.075282,-0.31236,-0.39492,-1.1892,-0.59434,-0.16654,-0.30943,-0.28138,-0.40092,1.5741
-0.019539,-0.019839,0.11469,0.0054997,-0.065839,-0.11094,0.074403,-0.67335,0.77452,-0.060228,0.11049,-0.059565,-0.010332,-0.1412,0.11488,-0.46196,-0.39196,-1.2715,-0.62066,-0.18275,-0.32071,-0.24331,-0.76593,1.3401
-0.023234,-0.016815,0.1208,-0.00098982,-0.062972,-0.11632,0.082955,-0.41828,0.72226,-0.12094,0.14501,0.05912,-0.047494,-0.17093,0.11266,-0.73056,-0.38019,-1.3125,-0.61791,-0.19156,-0.32017,-0.20285,-1.0835,1.1541
-0.022413,-0.01415,0.126,-0.0077862,-0.066394,-0.12206,0.092821,-0.1751,0.64488,-0.16437,0.15899,0.13688,0.026025,-0.18127,0.098182,-1.156,-0.36496,-1.324,-0.59202,-0.19474,-0.30346,-0.17287,-1.2671,1.0366
-0.018645,-0.011017,0.12949,-0.012354,-0.076381,-0.12424,0.09883,-0.018628,0.53794,-0.19309,0.14851,0.19741,0.21596,-0.18498,0.10224,-1.6778,-0.35114,-1.3189,-0.56001,-0.19611,-0.27136,-0.1599,-1.2781,0.96824
-0.015906,-0.0080985,0.12939,-0.014535,-0.08871,-0.11831,0.095372,0.029478,0.41188,-0.21316,0.11494,0.27357,0.47231,-0.19259,0.14157,-2.1702,-0.34067,-1.3012,-0.53828,-0.19902,-0.23361,-0.16209,-1.1352,0.88432
-0.016544,-0.0070416,0.12472,-0.017381,-0.097095,-0.1016,0.082084,0.0043704,0.28937,-0.22789,0.065247,0.40132,0.71378,-0.20735,0.21246,-2.521,-0.33195,-1.2676,-0.53134,-0.20433,-0.20438,-0.17147,-0.89388,0.71608
-0.018999,-0.0085899,0.11744,-0.024804,-0.097341,-0.074281,0.065845,-0.035847,0.19,-0.23483,0.01025,0.60001,0.87156,-0.22849,0.29554,-2.69,-0.32162,-1.2175,-0.53028,-0.21088,-0.19318,-0.17838,-0.61119,0.44294
-0.019436,-0.011365,0.11216,-0.037712,-0.089899,-0.038921,0.05691,-0.053153,0.11502,-0.22892,-0.039336,0.85224,0.92122,-0.25867,0.36729,-2.7037,-0.30754,-1.1594,-0.52247,-0.2177,-0.19925,-0.17569,-0.31872,0.10504
-0.01563,-0.0127,0.1131,-0.052156,-0.078807,0.00093066,0.061423,-0.049692,0.045808,-0.20872,-0.077345,1.1034,0.8835,-0.30726,0.41118,-2.5975,-0.29048,-1.1071,-0.50363,-0.22565,-0.21432,-0.16129,-0.022526,-0.2385
-0.0092707,-0.010939,0.12051,-0.061766,-0.068074,0.04185,0.075742,-0.054121,-0.040491,-0.18017,-0.10428,1.2882,0.80008,-0.38454,0.42336,-2.3649,-0.27308,-1.0679,-0.48155,-0.23625,-0.2311,-0.13831,0.27419,-0.56801
-0.0045163,-0.0070864,0.12981,-0.062885,-0.058557,0.08106,0.087288,-0.090558,-0.14935,-0.15402,-0.1256,1.3693,0.70574,-0.49123,0.41242,-1.9646,-0.25697,-1.0352,-0.46788,-0.24878,-0.24965,-0.11321,0.54911,-0.92255
-0.004223,-0.0041978,0.13466,-0.058023,-0.04783,0.1167,0.082188,-0.15712,-0.25907,-0.13906,-0.14751,1.3626,0.61537,-0.613,0.39481,-1.3788,-0.24043,-0.99229,-0.46548,-0.25836,-0.27622,-0.0924,0.76306,-1.3594
-0.0074589,-0.0049093,0.13157,-0.054285,-0.032924,0.1483,0.054841,-0.22908,-0.33201,-0.13658,-0.17354,1.3294,0.52824,-0.72602,0.38803,-0.66919,-0.21902,-0.92565,-0.46317,-0.25741,-0.31609,-0.078675,0.88701,-1.8898
-0.010533,-0.0092369,0.12228,-0.057733,-0.013518,0.17721,0.012673,-0.27988,-0.33942,-0.14055,-0.20404,1.3399,0.4397,-0.81026,0.40324,0.025798,-0.18883,-0.83575,-0.4426,-0.24014,-0.36724,-0.069335,0.92894,-2.4502
-0.010387,-0.014546,0.1119,-0.068382,0.0070131,0.20599,-0.027639,-0.30027,-0.28151,-0.14266,-0.23802,1.4301,0.35014,-0.85962,0.43983,0.55841,-0.15001,-0.73765,-0.39125,-0.20685,-0.42045,-0.057523,0.932,-2.9371
-0.0070914,-0.017666,0.1045,-0.080158,0.023481,0.2364,-0.050192,-0.30097,-0.18793,-0.13787,-0.27473,1.5804,0.26815,-0.88109,0.48535,0.85384,-0.10771,-0.65111,-0.30997,-0.16476,-0.46537,-0.036444,0.94009,-3.2744
-0.0032753,-0.017272,0.10001,-0.085846,0.032187,0.26682,-0.04932,-0.29971,-0.099182,-0.12598,-0.31335,1.7266,0.21025,-0.88447,0.5221,0.94601,-0.069575,-0.58882,-0.20908,-0.12445,-0.49685,-0.0041298,0.959,-3.4539
-0.001328,-0.014557,0.095067,-0.082761,0.033249,0.29145,-0.032051,-0.30546,-0.043265,-0.10871,-0.35155,1.7974,0.19832,-0.87256,0.53765,0.94345,-0.041801,-0.55119,-0.097663,-0.094206,-0.51637,0.034369,0.95005,-3.5156
-0.0011989,-0.011857,0.08646,-0.07439,0.030422,0.30248,-0.012228,-0.31274,-0.023332,-0.08586,-0.38509,1.7521,0.2529,-0.84078,0.53234,0.95646,-0.026581,-0.52956,0.023439,-0.076306,-0.52838,0.06906,0.86694,-3.4892
-0.00076141,-0.010678,0.074121,-0.066961,0.028704,0.29458,-0.001022,-0.30856,-0.021823,-0.054426,-0.40914,1.5993,0.38129,-0.78563,0.5181,1.0409,-0.022521,-0.51329,0.15869,-0.067428,-0.53569,0.090212,0.70686,-3.3553
0.0018753,-0.010878,0.060865,-0.064284,0.031478,0.26848,-0.00085264,-0.28462,-0.014713,-0.011751,-0.4201,1.3863,0.56529,-0.71293,0.50905,1.1908,-0.02699,-0.4948,0.30845,-0.062375,-0.53811,0.093356,0.52944,-3.0652
0.006457,-0.011425,0.049549,-0.065318,0.039028,0.23102,-0.0066273,-0.2446,0.014765,0.039875,-0.4159,1.1707,0.75789,-0.63661,0.51111,1.3673,-0.037852,-0.47048,0.46266,-0.057804,-0.53467,0.080888,0.42115,-2.6029
0.010766,-0.011674,0.040556,-0.066086,0.0492,0.19156,-0.012219,-0.20188,0.06893,0.091203,-0.39491,0.99209,0.8958,-0.568,0.51893,1.5295,-0.053038,-0.43932,0.60369,-0.053204,-0.52617,0.059656,0.42954,-2.0327
0.012461,-0.011803,0.031991,-0.063611,0.059396,0.15729,-0.016214,-0.17056,0.13463,0.12881,-0.35554,0.85697,0.92522,-0.50528,0.52279,1.6409,-0.068832,-0.40181,0.71602,-0.049138,-0.51488,0.03686,0.52167,-1.4852
0.010747,-0.012198,0.022263,-0.058143,0.068235,0.1308,-0.022287,-0.15699,0.18628,0.1415,-0.29798,0.74369,0.82812,-0.43393,0.51914,1.6623,-0.07929,-0.35999,0.79401,-0.045215,-0.50174,0.017598,0.60465,-1.0851
0.0065871,-0.012654,0.012381,-0.052084,0.075627,0.11094,-0.034668,-0.15765,0.19314,0.12649,-0.22711,0.61863,0.6342,-0.33955,0.51546,1.5517,-0.078289,-0.31736,0.84181,-0.040052,-0.48399,0.0054773,0.596,-0.87244
0.0017252,-0.012392,0.0055854,-0.047298,0.081445,0.095404,-0.053481,-0.16363,0.13212,0.091566,-0.15311,0.45402,0.41,-0.2233,0.52441,1.284,-0.063079,-0.27747,0.86688,-0.033045,-0.45632,0.0045912,0.48849,-0.77881
-0.0022829,-0.01082,0.0044565,-0.043719,0.084199,0.08272,-0.074344,-0.16758,0.0024599,0.051525,-0.087541,0.23789,0.22948,-0.10645,0.5514,0.87583,-0.036417,-0.24168,0.87428,-0.025609,-0.41519,0.019693,0.35668,-0.67475
-0.0043596,-0.0081719,0.0081282,-0.040393,0.081169,0.07228,-0.092334,-0.1678,-0.16671,0.020799,-0.036886,-0.026857,0.13948,-0.018722,0.58544,0.39109,-0.0051601,-0.20781,0.86677,-0.019999,-0.36282,0.053135,0.29925,-0.45663
-0.0038432,-0.0053063,0.012269,-0.037424,0.070081,0.063317,-0.10626,-0.16706,-0.32536,0.0064072,0.0012837,-0.33089,0.13641,0.021397,0.60134,-0.083498,0.023857,-0.17082,0.84913,-0.016521,-0.3069,0.10073,0.36371,-0.11139
-0.0006597,-0.0029068,0.012112,-0.036427,0.050969,0.054371,-0.11918,-0.16793,-0.42739,0.0053006,0.035573,-0.66648,0.16569,0.019397,0.57303,-0.479,0.047492,-0.12558,0.83025,-0.012006,-0.25529,0.15073,0.51308,0.28232
0.0043534,-0.00097118,0.0060467,-0.038877,0.026622,0.044,-0.13485,-0.16907,-0.45748,0.007407,0.07263,-1.0272,0.14694,0.00064254,0.49005,-0.77379,0.066658,-0.070265,0.8188,-0.0015843,-0.20892,0.18841,0.65812,0.61165
0.009616,0.00091084,-0.003342,-0.044079,0.0011891,0.032084,-0.15363,-0.16612,-0.44124,0.0019377,0.10978,-1.3976,0.016855,-0.0075023,0.36725,-0.99448,0.083423,-0.0085265,0.81555,0.017375,-0.15865,0.20405,0.72495,0.80115
0.013718,0.0028838,-0.011793,-0.04903,-0.021884,0.020525,-0.17165,-0.15641,-0.42937,-0.017417,0.13475,-1.7421,-0.22984,0.0060514,0.24174,-1.1918,0.097721,0.051022,0.81025,0.042572,-0.089962,0.19889,0.70212,0.84915
0.01636,0.0045646,-0.017338,-0.050542,-0.040993,0.012609,-0.18386,-0.14375,-0.46505,-0.05135,0.13355,-2.005,-0.52628,0.030259,0.15864,-1.4101,0.10678,0.098336,0.78814,0.067907,0.0060189,0.18419,0.6341,0.80977
0.018309,0.0054908,-0.022189,-0.047753,-0.056014,0.011298,-0.18789,-0.13849,-0.55678,-0.097118,0.10084,-2.1311,-0.76298,0.041204,0.15252,-1.6692,0.10785,0.12719,0.74284,0.087612,0.12243,0.17368,0.5756,0.74212
0.020275,0.0057349,-0.030679,-0.042674,-0.067318,0.017332,-0.18536,-0.152,-0.67502,-0.15064,0.04472,-2.0973,-0.8528,0.018279,0.2331,-1.9632,0.10174,0.13932,0.6854,0.099977,0.23569,0.17469,0.55087,0.66876
0.021808,0.0059194,-0.044816,-0.038274,-0.075382,0.028169,-0.17998,-0.1889,-0.77334,-0.20615,-0.018216,-1.9326,-0.79447,-0.044132,0.38131,-2.2696,0.093893,0.14462,0.64081,0.10774,0.31657,0.18429,0.55039,0.57247
0.021484,0.0065174,-0.061333,-0.035847,-0.081275,0.038526,-0.17459,-0.24283,-0.81733,-0.25459,-0.073613,-1.7085,-0.68787,-0.13526,0.5571,-2.5591,0.091736,0.15635,0.6329,0.1153,0.34743,0.19307,0.5588,0.42717
0.018308,0.0071606,-0.073127,-0.034016,-0.087026,0.042578,-0.17015,-0.2991,-0.80077,-0.28471,-0.11743,-1.5008,-0.67934,-0.23417,0.715,-2.7979,0.10012,0.18387,0.66819,0.12535,0.33365,0.19278,0.58052,0.23294
0.012971,0.0067766,-0.074394,-0.030175,-0.094835,0.036943,-0.16705,-0.34243,-0.74082,-0.28859,-0.15483,-1.3493,-0.86467,-0.3172,0.82023,-2.9462,0.11824,0.22724,0.73076,0.13766,0.30057,0.18166,0.63702,0.026001
0.0076014,0.0045809,-0.065466,-0.023075,-0.10535,0.022765,-0.16682,-0.36411,-0.6605,-0.26856,-0.19144,-1.2462,-1.2148,-0.36293,0.85816,-2.9592,0.14019,0.27752,0.79201,0.15004,0.27706,0.1636,0.74094,-0.14172
0.0041568,0.0010216,-0.053283,-0.014339,-0.1165,0.0053915,-0.17184,-0.3634,-0.57408,-0.23886,-0.22482,-1.1617,-1.5811,-0.35603,0.83425,-2.7969,0.15837,0.3228,0.82823,0.1601,0.27711,0.14272,0.87577,-0.23334
0.0029963,-0.0023234,-0.04682,-0.0076789,-0.12435,-0.0084447,-0.1828,-0.34263,-0.48492,-0.2183,-0.24426,-1.0832,-1.7826,-0.29239,0.76645,-2.4419,0.1675,0.35616,0.83328,0.16608,0.29251,0.11888,1.0029,-0.24319
0.0029383,-0.0039696,-0.050864,-0.0064057,-0.12554,-0.01426,-0.19632,-0.30088,-0.39275,-0.21747,-0.23897,-1.0323,-1.7138,-0.18407,0.67605,-1.9153,0.16654,0.38023,0.81876,0.16689,0.30122,0.088397,1.0895,-0.18931
0.0025853,-0.0038384,-0.06297,-0.011068,-0.11963,-0.01187,-0.2054,-0.2327,-0.30091,-0.23031,-0.20744,-1.044,-1.3963,-0.058616,0.5823,-1.278,0.15819,0.40495,0.80309,0.16225,0.28462,0.04906,1.1303,-0.094899
0.0014665,-0.0034041,-0.075886,-0.018892,-0.10926,-0.0045307,-0.20335,-0.13392,-0.21665,-0.23741,-0.15935,-1.1273,-0.9419,0.05065,0.50167,-0.61304,0.1466,0.4397,0.79823,0.15337,0.24072,0.0045641,1.1435,0.022487
-4.9977e-005,-0.0044135,-0.083432,-0.025414,-0.098272,0.0040281,-0.18855,-0.01046,-0.14611,-0.21991,-0.10805,-1.2458,-0.46815,0.11981,0.44878,0.0021774,0.13517,0.48496,0.80241,0.14323,0.18454,-0.036048,1.1448,0.14683
-0.0016391,-0.007253,-0.085156,-0.027233,-0.089399,0.01241,-0.16627,0.11791,-0.090313,-0.17328,-0.060428,-1.3389,-0.04353,0.14474,0.43486,0.51287,0.12521,0.52951,0.80178,0.13564,0.13674,-0.06387,1.1286,0.25467
-0.0034151,-0.010468,-0.086201,-0.02408,-0.083516,0.022217,-0.14584,0.22386,-0.0462,-0.11008,-0.013281,-1.3664,0.2959,0.13859,0.4631,0.88666,0.11577,0.55605,0.77839,0.13309,0.10998,-0.075962,1.0726,0.31607
-0.0053155,-0.011962,-0.09268,-0.018825,-0.080611,0.036324,-0.13487,0.28634,-0.010873,-0.049654,0.040545,-1.3374,0.48954,0.11819,0.52443,1.1057,0.10439,0.55201,0.71967,0.13491,0.10254,-0.076641,0.96135,0.30897
-0.006387,-0.010858,-0.10629,-0.015387,-0.081012,0.05622,-0.13462,0.30269,0.015675,-0.0036402,0.10213,-1.2976,0.43112,0.090145,0.5988,1.1712,0.088588,0.51821,0.62515,0.1374,0.10225,-0.073361,0.80621,0.23515
-0.0052199,-0.0083501,-0.12235,-0.015959,-0.085294,0.080418,-0.14004,0.28969,0.032045,0.030519,0.16209,-1.287,0.026784,0.047618,0.6629,1.1247,0.067348,0.46851,0.50749,0.13605,0.096214,-0.070844,0.64103,0.12148
-0.0014589,-0.0067428,-0.13279,-0.019482,-0.09291,0.10502,-0.14403,0.27196,0.039177,0.063271,0.20621,-1.3047,-0.70673,-0.021193,0.70067,1.0629,0.042047,0.4203,0.38732,0.12841,0.078915,-0.068262,0.49894,0.0029673
0.0032112,-0.0075182,-0.13175,-0.022497,-0.10109,0.12597,-0.14263,0.26521,0.042202,0.10041,0.22626,-1.3109,-1.5978,-0.1217,0.7092,1.115,0.016179,0.38266,0.28419,0.11569,0.054049,-0.061211,0.39178,-0.099997
0.0060282,-0.010153,-0.11975,-0.021781,-0.10552,0.14142,-0.13699,0.26657,0.048214,0.13594,0.22629,-1.2587,-2.3915,-0.24864,0.69597,1.3808,-0.006062,0.3512,0.20846,0.10198,0.030766,-0.046096,0.31044,-0.19129
0.0055108,-0.012689,-0.1035,-0.016853,-0.10256,0.15245,-0.13094,0.2588,0.061713,0.15637,0.21892,-1.1247,-2.8996,-0.39055,0.6691,1.8668,-0.021487,0.31309,0.15904,0.091983,0.018365,-0.023012,0.24343,-0.28729
0.0029377,-0.01348,-0.091565,-0.010469,-0.09149,0.1615,-0.12687,0.22477,0.08153,0.15195,0.21506,-0.91231,-3.1133,-0.5359,0.62726,2.4733,-0.028921,0.25748,0.12737,0.088618,0.022799,0.0047759,0.19408,-0.39295
0.0012747,-0.012531,-0.089043,-0.0066671,-0.074905,0.16948,-0.12363,0.16092,0.10165,0.12461,0.21611,-0.63232,-3.1825,-0.6736,0.55621,3.0478,-0.029237,0.18232,0.10341,0.091908,0.045534,0.033431,0.17924,-0.48545
0.002434,-0.011298,-0.09496,-0.0077855,-0.05715,0.17373,-0.11833,0.079348,0.11518,0.086071,0.21506,-0.28775,-3.2738,-0.78833,0.43459,3.4645,-0.02503,0.092452,0.077684,0.099197,0.083308,0.060466,0.21115,-0.5197
0.0056088,-0.011231,-0.10396,-0.012624,-0.041859,0.16839,-0.11002,-0.0022138,0.11825,0.049156,0.20464,0.11666,-3.4236,-0.85796,0.24595,3.6649,-0.020605,-0.0078607,0.038562,0.10601,0.1279,0.084603,0.28077,-0.45408
0.0084461,-0.012393,-0.11066,-0.017153,-0.030257,0.14738,-0.10138,-0.073791,0.11139,0.020658,0.18452,0.5523,-3.5113,-0.85944,-0.0095178,3.6377,-0.022027,-0.12028,-0.030066,0.10703,0.16691,0.10451,0.35951,-0.28004
0.0098347,-0.013313,-0.11336,-0.017281,-0.02121,0.10799,-0.09684,-0.13898,0.097813,0.0013884,0.16148,0.96216,-3.3746,-0.7808,-0.30983,3.371,-0.036056,-0.25018,-0.14428,0.097331,0.18703,0.11819,0.4189,-0.035358
0.011248,-0.012152,-0.11435,-0.011702,-0.012927,0.052717,-0.098782,-0.20896,0.080615,-0.0088645,0.14321,1.2898,-2.9641,-0.63006,-0.61604,2.8417,-0.067236,-0.39905,-0.30888,0.074101,0.17963,0.12378,0.45138,0.20926
0.015013,-0.0081695,-0.11726,-0.0027712,-0.0052275,-0.011686,-0.10544,-0.29034,0.06115,-0.0081367,0.13239,1.5214,-2.4031,-0.43308,-0.88548,2.0607,-0.11425,-0.55841,-0.5078,0.038436,0.14576,0.12067,0.47383,0.38397
0.021208,-0.0023405,-0.12371,0.0051828,-0.00072355,-0.076994,-0.11241,-0.37739,0.039378,0.0054079,0.12655,1.7006,-1.8991,-0.22112,-1.0874,1.1284,-0.16841,-0.71095,-0.70608,-0.0039952,0.096503,0.10986,0.51064,0.45462
0.026638,0.0033082,-0.13218,0.0088296,-0.0035949,-0.13606,-0.11602,-0.45466,0.015392,0.02866,0.12315,1.8927,-1.5862,-0.016839,-1.213,0.23028,-0.21648,-0.83764,-0.8653,-0.044561,0.047587,0.093186,0.57096,0.43704
0.027402,0.0070805,-0.13946,0.0079311,-0.016102,-0.18395,-0.11539,-0.5076,-0.0095436,0.052391,0.12417,2.1248,-1.4317,0.1716,-1.2735,-0.4486,-0.24725,-0.92524,-0.96292,-0.075235,0.010687,0.072635,0.63899,0.38171
0.022848,0.0086647,-0.14316,0.0051787,-0.035103,-0.21777,-0.11144,-0.53198,-0.033409,0.066131,0.13541,2.3528,-1.2831,0.34564,-1.2881,-0.83011,-0.25761,-0.96851,-1.0019,-0.092229,-0.012763,0.050382,0.68461,0.33869
0.016952,0.0091208,-0.14281,0.0041532,-0.051788,-0.2363,-0.10457,-0.53477,-0.05497,0.064903,0.16104,2.4889,-1.0063,0.50631,-1.2686,-0.98108,-0.25368,-0.96718,-1.0042,-0.09738,-0.030895,0.02933,0.68444,0.32652
0.015332,0.0098844,-0.13916,0.0070976,-0.056153,-0.23976,-0.093806,-0.52648,-0.075185,0.051182,0.19863,2.4692,-0.59006,0.64864,-1.211,-1.0439,-0.24596,-0.92194,-0.99381,-0.09641,-0.053966,0.012906,0.63601,0.32593
0.020283,0.011574,-0.13272,0.014042,-0.043909,-0.22968,-0.078633,-0.51204,-0.097248,0.030048,0.23921,2.305,-0.13261,0.76548,-1.0995,-1.1142,-0.24188,-0.83442,-0.9826,-0.095299,-0.085224,0.0035926,0.55502,0.30061
0.028305,0.013484,-0.12345,0.023486,-0.020696,-0.20849,-0.061504,-0.48826,-0.12492,0.002481,0.2722,2.073,0.2698,0.85716,-0.92048,-1.1691,-0.24177,-0.71179,-0.96831,-0.097218,-0.11669,0.0011607,0.46117,0.22665
0.032567,0.014125,-0.11169,0.033605,0.0003679,-0.17917,-0.048205,-0.45015,-0.15986,-0.035928,0.29114,1.853,0.62222,0.93693,-0.6767,-1.112,-0.24097,-0.5721,-0.94346,-0.10185,-0.13322,0.0022637,0.36614,0.10703
0.028398,0.012374,-0.09921,0.042861,0.0067798,-0.1452,-0.045016,-0.40063,-0.19976,-0.088722,0.29596,1.6691,1.0255,1.0238,-0.39261,-0.89772,-0.2361,-0.44469,-0.90648,-0.10698,-0.12221,0.0021949,0.27299,-0.038212
0.017161,0.0084016,-0.088741,0.049868,-0.0054127,-0.11082,-0.054783,-0.35492,-0.23858,-0.15037,0.29103,1.4854,1.5688,1.1244,-0.10673,-0.62887,-0.22969,-0.36336,-0.86602,-0.11061,-0.082202,-0.0022743,0.18385,-0.19309
0.0052719,0.0036647,-0.0821,0.05327,-0.02989,-0.080678,-0.07499,-0.33469,-0.26958,-0.20455,0.28107,1.2552,2.2157,1.2177,0.14437,-0.52834,-0.22927,-0.35462,-0.83636,-0.11219,-0.024417,-0.011087,0.10546,-0.35528
-0.00079439,-6.0206e-005,-0.078492,0.052284,-0.05567,-0.058602,-0.099144,-0.35503,-0.28909,-0.2321,0.26745,0.97998,2.7889,1.2574,0.341,-0.79106,-0.24157,-0.42722,-0.82879,-0.11208,0.033379,-0.02147,0.045946,-0.52337
0.00064898,-0.0019126,-0.074665,0.047644,-0.075284,-0.045995,-0.11992,-0.41346,-0.29845,-0.22318,0.24635,0.72209,3.0754,1.1971,0.48522,-1.4206,-0.26689,-0.56872,-0.84571,-0.11054,0.075746,-0.030303,0.0064606,-0.67392
0.0056349,-0.002512,-0.067047,0.041921,-0.089047,-0.041491,-0.13145,-0.48923,-0.30216,-0.18369,0.20919,0.5631,2.976,1.0219,0.59323,-2.1809,-0.29825,-0.75111,-0.8804,-0.10696,0.095109,-0.036367,-0.022403,-0.75318
0.0080704,-0.0033633,-0.054207,0.038523,-0.10276,-0.042422,-0.12967,-0.554,-0.30347,-0.13072,0.14567,0.5438,2.5819,0.76483,0.68035,-2.7135,-0.32614,-0.94192,-0.92064,-0.10026,0.091535,-0.040842,-0.054342,-0.6983
0.0045533,-0.0055337,-0.03768,0.039809,-0.12186,-0.047092,-0.11202,-0.58683,-0.30116,-0.08071,0.049081,0.63697,2.1192,0.49119,0.74864,-2.7454,-0.34478,-1.1147,-0.95209,-0.08992,0.069194,-0.046008,-0.095991,-0.4775
-0.0033777,-0.0087023,-0.020616,0.045668,-0.14736,-0.055816,-0.078401,-0.58337,-0.29082,-0.040297,-0.078224,0.77231,1.8013,0.26177,0.78523,-2.2421,-0.35502,-1.2538,-0.9594,-0.077037,0.033572,-0.053388,-0.14099,-0.11993
-0.011041,-0.01145,-0.0055073,0.05367,-0.17652,-0.069723,-0.033209,-0.55422,-0.27013,-0.0068498,-0.22254,0.88955,1.6984,0.10148,0.7721,-1.4004,-0.3618,-1.3522,-0.92719,-0.064546,-0.0089157,-0.062697,-0.17547,0.28937
-0.014613,-0.012582,0.007128,0.060664,-0.20645,-0.088463,0.01401,-0.51519,-0.24381,0.022869,-0.36214,0.97602,1.7142,-0.0032705,0.70012,-0.4978,-0.36861,-1.407,-0.84393,-0.056084,-0.050616,-0.072012,-0.19079,0.64844
-0.013957,-0.012272,0.018286,0.064626,-0.23686,-0.10917,0.051677,-0.47792,-0.22325,0.044855,-0.47538,1.0627,1.6784,-0.07937,0.57734,0.27845,-0.37355,-1.4167,-0.7085,-0.053811,-0.083869,-0.078689,-0.19306,0.88486
-0.012206,-0.011901,0.02901,0.065403,-0.26972,-0.12788,0.072352,-0.44683,-0.22027,0.048637,-0.54916,1.1883,1.4751,-0.13778,0.42607,0.89818,-0.37015,-1.3826,-0.53447,-0.056377,-0.10367,-0.080403,-0.20205,0.97744
-0.012805,-0.012648,0.039365,0.064059,-0.30672,-0.14224,0.077662,-0.42244,-0.2395,0.026336,-0.58311,1.3632,1.1164,-0.16583,0.27172,1.4202,-0.35224,-1.3114,-0.34633,-0.058686,-0.10945,-0.076011,-0.24088,0.94102
-0.01666,-0.014157,0.048561,0.061598,-0.3472,-0.15291,0.077449,-0.40564,-0.27533,-0.018233,-0.58742,1.5591,0.71464,-0.1454,0.13248,1.871,-0.31892,-1.2156,-0.16735,-0.054287,-0.10418,-0.066187,-0.32441,0.79147
-0.021692,-0.01463,0.055797,0.058236,-0.3883,-0.1623,0.082748,-0.3982,-0.31589,-0.06906,-0.57619,1.7298,0.39042,-0.077681,0.016867,2.1829,-0.27572,-1.1098,-0.006847,-0.039317,-0.091924,-0.053666,-0.45296,0.52338
-0.024889,-0.012398,0.060914,0.0537,-0.42665,-0.17184,0.097558,-0.4001,-0.35005,-0.10726,-0.56012,1.8425,0.19269,0.010108,-0.071191,2.24,-0.23084,-1.0036,0.14281,-0.015262,-0.076359,-0.042673,-0.61221,0.12133
-0.024923,-0.0076147,0.06458,0.048063,-0.46005,-0.18056,0.11598,-0.40753,-0.37086,-0.12277,-0.5417,1.8977,0.086829,0.082126,-0.1274,1.9797,-0.18937,-0.89861,0.29595,0.011835,-0.061307,-0.037385,-0.77537,-0.40368
-0.023089,-0.0024901,0.068243,0.042218,-0.48788,-0.18622,0.12716,-0.41481,-0.3725,-0.11901,-0.5143,1.923,0.0062167,0.11922,-0.14915,1.4564,-0.14973,-0.78816,0.45739,0.035604,-0.051466,-0.039902,-0.90509,-0.98446
-0.021888,0.00020758,0.074024,0.037521,-0.51046,-0.18764,0.12404,-0.41825,-0.34404,-0.10725,-0.46551,1.9468,-0.08422,0.12914,-0.1433,0.81691,-0.10532,-0.66182,0.61371,0.053979,-0.05061,-0.048814,-0.9565,-1.5034
-0.022635,-0.00082286,0.084121,0.0349,-0.52797,-0.18535,0.10829,-0.4179,-0.26754,-0.096209,-0.38354,1.9696,-0.16334,0.13374,-0.13027,0.21687,-0.050062,-0.51019,0.73919,0.070504,-0.057316,-0.059461,-0.88509,-1.8365
-0.02423,-0.004527,0.099396,0.034193,-0.53966,-0.17962,0.087614,-0.41487,-0.12515,-0.085905,-0.26468,1.9579,-0.17915,0.14652,-0.13579,-0.24843,0.016091,-0.32869,0.81175,0.090967,-0.06203,-0.066102,-0.66003,-1.9083
-0.024157,-0.0083992,0.11789,0.034235,-0.54377,-0.16767,0.068024,-0.40732,0.0876,-0.070178,-0.11799,1.8675,-0.094466,0.1609,-0.17208,-0.5559,0.085837,-0.12037,0.82521,0.1178,-0.049967,-0.064999,-0.27808,-1.7226
-0.02083,-0.010377,0.13487,0.033566,-0.53822,-0.14394,0.048342,-0.38961,0.35098,-0.044489,0.036639,1.6815,0.085648,0.15805,-0.22283,-0.72336,0.14833,0.10184,0.78853,0.14663,-0.010263,-0.056607,0.22945,-1.3488
-0.015245,-0.010224,0.1454,0.031208,-0.52229,-0.1045,0.021912,-0.35632,0.62114,-0.011583,0.17711,1.4342,0.31926,0.12467,-0.24695,-0.78049,0.19516,0.31513,0.71471,0.16788,0.054182,-0.045375,0.80144,-0.87767
-0.010474,-0.0094219,0.14788,0.026967,-0.49836,-0.052984,-0.016146,-0.3077,0.84231,0.019362,0.29009,1.1951,0.55082,0.064279,-0.20359,-0.76482,0.22416,0.49188,0.61168,0.17248,0.12418,-0.037039,1.3611,-0.3741
-0.0093767,-0.0097865,0.14582,0.021209,-0.47259,-0.0027395,-0.062693,-0.25134,0.96511,0.038166,0.377,1.0203,0.72842,-0.0065419,-0.082356,-0.72565,0.2388,0.61051,0.48447,0.15761,0.17295,-0.035026,1.834,0.14052
-0.012363,-0.011949,0.14542,0.014434,-0.45302,0.02796,-0.10676,-0.1979,0.96196,0.038281,0.45051,0.90776,0.80617,-0.07069,0.083589,-0.70906,0.24462,0.66742,0.34631,0.12858,0.18182,-0.038254,2.1639,0.67046
-0.017036,-0.014835,0.1506,0.0070496,-0.44546,0.026,-0.13573,-0.15425,0.83405,0.017454,0.52392,0.79294,0.7424,-0.12018,0.23313,-0.72692,0.24619,0.68207,0.22575,0.095848,0.15249,-0.041776,2.3277,1.2076
-0.019995,-0.016497,0.15936,-0.00058093,-0.44915,-0.0071513,-0.14216,-0.11917,0.60984,-0.024038,0.60151,0.59655,0.50841,-0.15672,0.3111,-0.74269,0.2466,0.68954,0.15897,0.069454,0.10749,-0.039719,2.3452,1.7044
-0.01932,-0.015608,0.16507,-0.0079981,-0.45525,-0.052754,-0.12614,-0.084675,0.33762,-0.083832,0.67712,0.28843,0.10949,-0.18657,0.2965,-0.69739,0.24868,0.72303,0.16988,0.054303,0.078211,-0.028373,2.2815,2.0822
-0.015741,-0.012443,0.16211,-0.014667,-0.45009,-0.080986,-0.092626,-0.041364,0.074118,-0.15525,0.74178,-0.080931,-0.39748,-0.2162,0.20604,-0.55769,0.2551,0.7964,0.25264,0.048716,0.089375,-0.0073603,2.2293,2.2762
-0.011634,-0.0085787,0.15113,-0.020183,-0.42189,-0.062888,-0.047405,0.016034,-0.13018,-0.2251,0.79352,-0.4078,-0.90868,-0.25091,0.074022,-0.33988,0.26659,0.89753,0.37161,0.046265,0.15018,0.021462,2.2712,2.2863
-0.0088315,-0.005552,0.13914,-0.024489,-0.36734,0.018224,0.0047251,0.086249,-0.24647,-0.27547,0.84075,-0.60174,-1.3062,-0.29368,-0.073622,-0.085236,0.28001,0.99648,0.48019,0.039505,0.256,0.055852,2.4347,2.1947
-0.0071745,-0.0036292,0.13404,-0.027892,-0.29383,0.16136,0.059028,0.16275,-0.27725,-0.29061,0.89634,-0.64287,-1.5053,-0.342,-0.23183,0.18663,0.28941,1.0629,0.54549,0.023863,0.39553,0.093849,2.6704,2.1284
-0.0050337,-0.0017322,0.13806,-0.03085,-0.21574,0.3501,0.10975,0.23729,-0.25317,-0.26508,0.96751,-0.59117,-1.4888,-0.38512,-0.41002,0.49423,0.29029,1.0821,0.56151,0.00016724,0.55476,0.13267,2.8731,2.1864
-0.0012128,0.0013998,0.14574,-0.033696,-0.14699,0.55966,0.15109,0.30358,-0.21588,-0.2076,1.05,-0.54662,-1.3086,-0.40632,-0.61652,0.8583,0.28383,1.0613,0.54381,-0.02534,0.71415,0.1672,2.9406,2.3828
0.0035722,0.0058403,0.14842,-0.036517,-0.094118,0.76415,0.17995,0.35934,-0.19534,-0.13728,1.1314,-0.5918,-1.052,-0.39074,-0.84763,1.2474,0.27705,1.0241,0.51303,-0.043874,0.84407,0.18998,2.8325,2.6484
0.0070314,0.010154,0.14114,-0.039321,-0.053883,0.94086,0.1978,0.40604,-0.19504,-0.074106,1.2003,-0.75312,-0.79299,-0.33373,-1.0874,1.5626,0.27823,0.99764,0.4812,-0.048738,0.90712,0.19366,2.5884,2.8911
0.0071665,0.012492,0.12633,-0.042333,-0.016113,1.072,0.21005,0.44684,-0.19409,-0.029385,1.2544,-0.99739,-0.55937,-0.24315,-1.314,1.6829,0.29117,1.0002,0.44894,-0.039071,0.87127,0.17441,2.2908,3.0678
0.0039867,0.012229,0.11116,-0.046058,0.030485,1.1465,0.22311,0.48436,-0.16356,-0.0019821,1.2992,-1.2573,-0.33282,-0.13455,-1.5059,1.5382,0.31309,1.0342,0.41065,-0.020078,0.72823,0.13415,2.002,3.2088
-0.00043281,0.010704,0.10154,-0.050866,0.093084,1.1628,0.24112,0.51984,-0.085227,0.017922,1.3415,-1.4674,-0.076611,-0.024103,-1.6456,1.1534,0.33745,1.0869,0.35936,0.00055577,0.50508,0.080024,1.7249,3.3793
-0.0035217,0.010333,0.097893,-0.056324,0.17232,1.1307,0.26423,0.55381,0.038618,0.040469,1.3801,-1.5936,0.23431,0.075147,-1.7223,0.64103,0.35847,1.1392,0.28667,0.017386,0.2599,0.02141,1.4171,3.6081
-0.0039622,0.012672,0.096096,-0.060981,0.26276,1.0684,0.28872,0.58678,0.1876,0.068885,1.4048,-1.6454,0.60218,0.15318,-1.7363,0.16066,0.37319,1.175,0.18054,0.029285,0.061743,-0.033393,1.0439,3.8448
-0.0021529,0.017002,0.091715,-0.063146,0.3549,0.99384,0.30837,0.61837,0.33242,0.097924,1.4017,-1.665,1.0151,0.2027,-1.7007,-0.124,0.38011,1.1883,0.02717,0.037393,-0.03544,-0.079035,0.62309,3.9778
0.00073458,0.02065,0.083486,-0.062342,0.43768,0.91528,0.3168,0.64491,0.44362,0.11853,1.3646,-1.6986,1.4568,0.22124,-1.6375,-0.085102,0.37722,1.1835,-0.18125,0.041311,-0.011508,-0.11298,0.22126,3.8979
