-3.8393e-010,4.5339e-010,2.6721e-009,1.7962e-009,-3.1448e-010,4.148e-010,-3.6676e-009,-7.3719e-009,-5.3442e-010,-9.6272e-010,1.9467e-009,1.6968e-008,4.3409e-010,1.0515e-009,-3.5364e-009,-2.4058e-009,8.8941e-010,1.283e-009,2.2554e-009,-9.8916e-009,-1.6187e-009,2.4116e-010,3.2079e-008,8.4021e-009
-1.0567e-008,1.2849e-008,7.4368e-008,4.9743e-008,-8.8329e-009,1.1358e-008,-1.0169e-007,-2.0292e-007,-1.5775e-008,-2.6565e-008,5.2783e-008,4.7007e-007,1.2127e-008,2.9303e-008,-9.7975e-008,-6.6258e-008,2.4041e-008,3.523e-008,6.2131e-008,-2.7206e-007,-4.5193e-008,5.9272e-009,8.8258e-007,2.3034e-007
-1.4115e-007,1.7702e-007,1.0069e-006,6.6973e-007,-1.2085e-007,1.5082e-007,-1.3713e-006,-2.7145e-006,-2.2626e-007,-3.5592e-007,6.9341e-007,6.3318e-006,1.647e-007,3.9696e-007,-1.3197e-006,-8.8701e-007,3.1553e-007,4.7023e-007,8.3136e-007,-3.6345e-006,-6.14e-007,6.8416e-008,1.1798e-005,3.0663e-006
-1.2192e-006,1.5794e-006,8.8377e-006,5.8401e-006,-1.073e-006,1.2932e-006,-1.1982e-005,-2.3509e-005,-2.1008e-006,-3.0843e-006,5.8749e-006,5.5248e-005,1.449e-006,3.4823e-006,-1.1515e-005,-7.6898e-006,2.6783e-006,4.0641e-006,7.1973e-006,-3.1415e-005,-5.4091e-006,4.8425e-007,0.00010207,2.6402e-005
-7.654e-006,1.0255e-005,5.6522e-005,3.7068e-005,-6.9496e-006,8.0418e-006,-7.6261e-005,-0.00014813,-1.4192e-005,-1.9425e-005,3.6036e-005,0.00035095,9.2812e-006,2.2233e-005,-7.315e-005,-4.8519e-005,1.6519e-005,2.5561e-005,4.5298e-005,-0.0001974,-3.4736e-005,2.2614e-006,0.00064226,0.00016521
-3.7219e-005,5.1625e-005,0.00028071,0.00018244,-3.4993e-005,3.86e-005,-0.00037669,-0.00072355,-7.4315e-005,-9.4718e-005,0.00017023,0.001729,4.6123e-005,0.00011007,-0.00036049,-0.00023737,7.8847e-005,0.00012463,0.00022074,-0.00096045,-0.00017329,6.542e-006,0.0031312,0.00080005
-0.00014586,0.00020956,0.0011264,0.00072412,-0.00014254,0.00014853,-0.0015023,-0.0028492,-0.00031373,-0.00037183,0.00064259,0.0068717,0.00018501,0.00043948,-0.0014336,-0.00093659,0.00030274,0.0004899,0.00086599,-0.0037622,-0.00069882,4.8688e-006,0.012299,0.0031169
-0.00047324,0.00070418,0.003751,0.0023795,-0.00048257,0.00046936,-0.0049677,-0.0092864,-0.0010961,-0.0012062,0.0019833,0.022614,0.00061513,0.0014531,-0.0047247,-0.0030597,0.00095915,0.0015937,0.0028064,-0.012174,-0.0023399,-6.5208e-005,0.039952,0.010021
-0.0012957,0.0019951,0.010564,0.0065916,-0.0013845,0.0012358,-0.013876,-0.02551,-0.0032267,-0.0032914,0.005069,0.062748,0.0017273,0.0040529,-0.013145,-0.0084284,0.0025503,0.0043685,0.007645,-0.033119,-0.0066294,-0.00044762,0.10926,0.027045
-0.0030356,0.0048272,0.025509,0.015588,-0.0034152,0.0027286,-0.033178,-0.059815,-0.008103,-0.0076458,0.010764,0.14862,0.0041511,0.0096601,-0.031285,-0.019827,0.0057519,0.010215,0.01771,-0.076625,-0.016109,-0.0018197,0.25465,0.061933
-0.0061486,0.010063,0.053332,0.031727,-0.0073242,0.0050346,-0.068535,-0.1207,-0.017492,-0.015225,0.018817,0.30282,0.0086168,0.019855,-0.064278,-0.040171,0.011059,0.020539,0.035115,-0.15177,-0.033891,-0.0056066,0.50966,0.121
-0.010848,0.018174,0.097209,0.055825,-0.013779,0.0076092,-0.12304,-0.21056,-0.032568,-0.026029,0.02616,0.53271,0.015541,0.035391,-0.1147,-0.070438,0.018107,0.035642,0.059696,-0.2578,-0.062112,-0.014073,0.87885,0.20163
-0.016758,0.028507,0.15518,0.084957,-0.022912,0.0088521,-0.19259,-0.31768,-0.052215,-0.037972,0.025808,0.80819,0.024421,0.054859,-0.1783,-0.10704,0.02499,0.053341,0.086609,-0.37383,-0.099454,-0.029696,1.3038,0.2843
-0.022742,0.03883,0.21754,0.11135,-0.033913,0.0061659,-0.26292,-0.4128,-0.071435,-0.046267,0.0082771,1.0496,0.033414,0.073928,-0.2416,-0.14063,0.028301,0.068381,0.1057,-0.45608,-0.13902,-0.053467,1.6501,0.33215
-0.027159,0.045811,0.26828,0.12431,-0.045018,-0.003054,-0.31232,-0.45678,-0.081499,-0.044166,-0.033383,1.1457,0.039631,0.086319,-0.28494,-0.15862,0.024498,0.073823,0.10475,-0.45169,-0.16865,-0.082524,1.745,0.30557
-0.028541,0.046657,0.29186,0.11552,-0.054084,-0.019583,-0.3214,-0.42034,-0.073108,-0.025184,-0.096889,1.0084,0.040348,0.086734,-0.29185,-0.15166,0.012377,0.064556,0.076572,-0.3284,-0.175,-0.10861,1.466,0.18998
-0.026356,0.041099,0.28247,0.08513,-0.059497,-0.040642,-0.28539,-0.30539,-0.041849,0.014219,-0.16745,0.63984,0.034665,0.07429,-0.26035,-0.12053,-0.0047898,0.041162,0.0259,-0.10361,-0.15015,-0.1194,0.83272,0.019906
-0.021313,0.032183,0.24942,0.043851,-0.060814,-0.059762,-0.22024,-0.15138,0.007387,0.07307,-0.2228,0.16261,0.024474,0.05383,-0.20748,-0.078036,-0.019427,0.011231,-0.029671,0.15178,-0.096935,-0.10345,0.029933,-0.12447
-0.014966,0.024746,0.21318,0.0081053,-0.058668,-0.069139,-0.15576,-0.016609,0.061102,0.14629,-0.24589,-0.22491,0.013792,0.03345,-0.16125,-0.042389,-0.022964,-0.013729,-0.067902,0.34699,-0.028864,-0.057005,-0.67991,-0.15824
-0.0088991,0.022236,0.19305,-0.0097578,-0.05406,-0.063709,-0.11803,0.056769,0.10416,0.22625,-0.23695,-0.35871,0.0065295,0.019446,-0.14318,-0.025422,-0.010769,-0.024483,-0.075412,0.42574,0.036279,0.011553,-1.1104,-0.050159
-0.0040586,0.024186,0.19468,-0.0093276,-0.047715,-0.044514,-0.1132,0.069517,0.12899,0.30381,-0.21452,-0.21677,0.0040648,0.012344,-0.15355,-0.024152,0.014559,-0.019295,-0.057064,0.40236,0.085402,0.083653,-1.2622,0.14514
-0.00064348,0.026618,0.20713,-0.001681,-0.04005,-0.018783,-0.12519,0.06191,0.13972,0.36806,-0.20185,0.05656,0.0043673,0.0073168,-0.17144,-0.0231,0.04419,-0.0043435,-0.033234,0.34826,0.1156,0.13892,-1.3018,0.31429
0.0015731,0.025368,0.21223,-0.00045078,-0.031659,0.0038691,-0.12986,0.081165,0.14696,0.40619,-0.20788,0.23788,0.0034342,-0.001202,-0.17092,-0.0065507,0.06804,0.011018,-0.025851,0.33499,0.13262,0.16544,-1.4186,0.36143
0.0029335,0.019694,0.1991,-0.011425,-0.023648,0.016839,-0.11414,0.14525,0.15652,0.4057,-0.21852,0.16871,-0.001879,-0.01453,-0.1411,0.028737,0.080321,0.020447,-0.043427,0.37752,0.14429,0.16525,-1.6757,0.27831
0.0038681,0.013031,0.17179,-0.029168,-0.017396,0.019794,-0.084609,0.23251,0.16177,0.35976,-0.20707,-0.14639,-0.011641,-0.028653,-0.093897,0.070875,0.081775,0.023579,-0.07674,0.424,0.15454,0.15129,-1.9729,0.15067
0.0049768,0.01011,0.1443,-0.043132,-0.013972,0.017452,-0.058791,0.30464,0.14787,0.27309,-0.15662,-0.55648,-0.02283,-0.037888,-0.053084,0.1025,0.077344,0.024004,-0.10824,0.40023,0.16252,0.13826,-2.1459,0.091512
0.0068526,0.012933,0.12781,-0.047413,-0.013839,0.015003,-0.047789,0.34142,0.10621,0.16377,-0.075505,-0.87691,-0.03152,-0.039944,-0.034344,0.11443,0.071621,0.024734,-0.12683,0.27059,0.16617,0.13373,-2.1057,0.15384
0.0095908,0.019127,0.12154,-0.045376,-0.017019,0.013924,-0.04615,0.35653,0.047338,0.058105,0.0079181,-1.0078,-0.035679,-0.03784,-0.033535,0.11182,0.065896,0.025385,-0.13537,0.063955,0.16588,0.13571,-1.8979,0.2948
0.012427,0.024041,0.11489,-0.045437,-0.023252,0.011546,-0.037506,0.3819,-0.00014374,-0.01993,0.067227,-0.97336,-0.03659,-0.037146,-0.032639,0.10809,0.058766,0.023215,-0.14527,-0.15468,0.16454,0.13731,-1.6433,0.4193
0.01404,0.024556,0.098025,-0.052559,-0.031644,0.0044001,-0.0098765,0.43725,-0.0067775,-0.058767,0.097709,-0.8681,-0.03786,-0.041206,-0.016916,0.11281,0.048961,0.016446,-0.16411,-0.33812,0.16469,0.13388,-1.43,0.46202
0.013521,0.021204,0.07074,-0.063629,-0.040025,-0.0078613,0.033796,0.51336,0.036551,-0.062981,0.11678,-0.76978,-0.042652,-0.048587,0.012671,0.12425,0.037374,0.0064492,-0.18803,-0.48721,0.16629,0.12697,-1.2594,0.43444
0.011274,0.016987,0.041906,-0.070777,-0.044945,-0.02157,0.078928,0.58304,0.11031,-0.048609,0.14531,-0.69312,-0.050996,-0.054685,0.042336,0.13242,0.026513,-0.0031606,-0.20556,-0.63318,0.16752,0.12226,-1.0805,0.39899
0.0089438,0.014418,0.020672,-0.069045,-0.042864,-0.031869,0.11223,0.62655,0.17858,-0.033581,0.18707,-0.61021,-0.058999,-0.055611,0.059566,0.12863,0.018349,-0.0094024,-0.20855,-0.79287,0.16701,0.12359,-0.85655,0.40068
0.0082239,0.013629,0.008085,-0.060996,-0.03196,-0.036541,0.13184,0.64598,0.21307,-0.029433,0.22461,-0.50253,-0.060625,-0.05084,0.064535,0.1128,0.012967,-0.011971,-0.19958,-0.94114,0.16399,0.12814,-0.58617,0.42424
0.0094124,0.012984,-0.0033224,-0.054162,-0.01316,-0.037268,0.14627,0.65586,0.21033,-0.038754,0.23456,-0.38999,-0.05106,-0.042816,0.068698,0.092624,0.0092788,-0.012736,-0.189,-1.0261,0.15534,0.12634,-0.26431,0.4163
0.011038,0.011079,-0.022124,-0.054075,0.010468,-0.037263,0.16468,0.66127,0.1891,-0.058164,0.20809,-0.31399,-0.029729,-0.034695,0.083234,0.076842,0.0067644,-0.01349,-0.18482,-1.0123,0.1328,0.10669,0.15917,0.34761
0.01105,0.0079693,-0.049925,-0.059499,0.035451,-0.037635,0.18875,0.64722,0.17125,-0.082989,0.15855,-0.29796,-0.0012605,-0.028717,0.10913,0.069125,0.0061424,-0.014207,-0.18542,-0.91077,0.084913,0.062222,0.75887,0.25163
0.0086833,0.0046697,-0.079835,-0.064011,0.059315,-0.036031,0.21325,0.59118,0.16255,-0.1097,0.11112,-0.32556,0.026082,-0.026315,0.13787,0.067476,0.0081451,-0.013349,-0.18173,-0.77043,0.0043008,-0.0058046,1.5562,0.20095
0.0053649,0.001897,-0.10242,-0.062042,0.080686,-0.028849,0.23302,0.48754,0.14922,-0.13524,0.084864,-0.35444,0.043641,-0.028836,0.16072,0.067997,0.011705,-0.0097321,-0.16648,-0.63824,-0.10502,-0.088845,2.4581,0.24458
0.003764,-0.00044253,-0.11345,-0.053693,0.098426,-0.014912,0.2486,0.36022,0.11194,-0.1553,0.083269,-0.34852,0.045744,-0.037231,0.17663,0.068437,0.013638,-0.0041856,-0.14154,-0.52616,-0.22687,-0.1756,3.2807,0.36652
0.0056992,-0.0026448,-0.1169,-0.044258,0.11105,0.0029467,0.26476,0.25018,0.044733,-0.16452,0.099336,-0.29864,0.031855,-0.050601,0.19142,0.068443,0.010484,0.00043766,-0.1165,-0.41242,-0.34057,-0.25653,3.8477,0.50339
0.010695,-0.0044802,-0.12119,-0.039468,0.11724,0.020045,0.28444,0.1873,-0.037384,-0.15904,0.12773,-0.21767,0.0067652,-0.065358,0.21023,0.067564,0.00098579,0.00086042,-0.10002,-0.27334,-0.4317,-0.32553,4.0838,0.59883
0.016412,-0.0053839,-0.13268,-0.041008,0.11695,0.0339,0.3049,0.17041,-0.10806,-0.13991,0.17104,-0.12175,-0.021216,-0.076579,0.23163,0.064243,-0.013041,-0.0046011,-0.092159,-0.11426,-0.4979,-0.3784,4.0273,0.6365
0.020465,-0.0053855,-0.15208,-0.045993,0.11217,0.046515,0.32038,0.17184,-0.14833,-0.11445,0.23477,-0.018616,-0.043466,-0.081026,0.2493,0.057165,-0.028314,-0.01491,-0.084507,0.029546,-0.54557,-0.41086,3.7592,0.61727
0.021921,-0.0056013,-0.1759,-0.050054,0.10621,0.06269,0.32835,0.16099,-0.15944,-0.094492,0.31733,0.088874,-0.054396,-0.079271,0.25878,0.047121,-0.042793,-0.026663,-0.067497,0.12242,-0.58085,-0.41858,3.325,0.50673
0.021208,-0.0075093,-0.20041,-0.050664,0.10209,0.085625,0.33279,0.12594,-0.16022,-0.091938,0.40627,0.19423,-0.053431,-0.074818,0.26195,0.036578,-0.057173,-0.035684,-0.03809,0.16094,-0.60201,-0.39939,2.7203,0.21616
0.018897,-0.011582,-0.22387,-0.047874,0.10098,0.11344,0.34068,0.075962,-0.1721,-0.11348,0.4852,0.28787,-0.044579,-0.070767,0.26455,0.026733,-0.073945,-0.039049,-0.0013403,0.17982,-0.59858,-0.35549,1.9476,-0.34562
0.014956,-0.01667,-0.24552,-0.042634,0.10162,0.13954,0.35476,0.025998,-0.20363,-0.1566,0.5454,0.36799,-0.033854,-0.066983,0.27003,0.014992,-0.094905,-0.03659,0.034632,0.22589,-0.55679,-0.29281,1.0804,-1.1796
0.0094567,-0.020849,-0.26334,-0.035157,0.10114,0.15658,0.36924,-0.020154,-0.24565,-0.20885,0.59127,0.44865,-0.026055,-0.060456,0.27617,-0.003818,-0.1192,-0.031026,0.065087,0.32291,-0.46744,-0.21809,0.26463,-2.1399
0.0038799,-0.022995,-0.27393,-0.0252,0.096602,0.16092,0.37304,-0.072526,-0.27955,-0.25173,0.63452,0.55203,-0.022758,-0.048567,0.27832,-0.032482,-0.14339,-0.026533,0.090943,0.45678,-0.33208,-0.1364,-0.34989,-2.9714
0.001151,-0.023553,-0.2754,-0.013674,0.086467,0.15441,0.35819,-0.14284,-0.29099,-0.26883,0.68207,0.68776,-0.022385,-0.032171,0.27549,-0.066519,-0.16321,-0.026434,0.11576,0.59155,-0.16564,-0.052031,-0.69364,-3.4287
0.0036332,-0.023818,-0.27042,-0.0034011,0.071311,0.14239,0.32646,-0.23061,-0.27903,-0.25438,0.72807,0.83701,-0.021819,-0.015404,0.27288,-0.094033,-0.17552,-0.031397,0.14104,0.69997,0.0055737,0.027916,-0.81028,-3.4019
0.010616,-0.024557,-0.26574,0.0023408,0.053585,0.12995,0.28887,-0.32071,-0.25505,-0.21726,0.7563,0.95812,-0.018261,-0.002223,0.27765,-0.1016,-0.17892,-0.039259,0.1644,0.7821,0.15099,0.091225,-0.81916,-2.9651
0.017916,-0.025466,-0.26792,0.0024583,0.036539,0.11922,0.25835,-0.39399,-0.23378,-0.17625,0.75039,1.0119,-0.010325,0.0071065,0.29195,-0.082666,-0.17311,-0.046503,0.18192,0.85876,0.24715,0.12354,-0.8445,-2.3239
0.020626,-0.026022,-0.27818,-0.00057541,0.022798,0.10932,0.2414,-0.44036,-0.22418,-0.14871,0.70329,0.98661,0.0017054,0.016065,0.30988,-0.042477,-0.15794,-0.050227,0.19233,0.94962,0.28874,0.11628,-0.96342,-1.7034
0.017022,-0.026619,-0.29117,-0.0021424,0.013192,0.09828,0.23476,-0.46324,-0.22647,-0.13979,0.61956,0.90122,0.01604,0.028142,0.3215,0.0040516,-0.13352,-0.049239,0.19918,1.0562,0.2924,0.074346,-1.1955,-1.2495
0.010155,-0.028465,-0.29891,0.0011901,0.006447,0.08486,0.22917,-0.4729,-0.23602,-0.14032,0.51082,0.78432,0.029646,0.042691,0.32027,0.040274,-0.10135,-0.043811,0.20893,1.1623,0.28866,0.017021,-1.5191,-0.99418
0.0054445,-0.031971,-0.2971,0.009063,-2.0264e-005,0.06908,0.21654,-0.4765,-0.24938,-0.13525,0.38953,0.64756,0.038784,0.054443,0.30745,0.055685,-0.065187,-0.034825,0.22645,1.2463,0.30535,-0.029936,-1.8902,-0.88603
0.0062077,-0.035325,-0.28846,0.017579,-0.0085342,0.051453,0.19526,-0.47374,-0.26684,-0.11649,0.26606,0.47782,0.040058,0.057557,0.28975,0.047927,-0.030504,-0.023354,0.25119,1.2924,0.35234,-0.046868,-2.2565,-0.84668
0.011104,-0.035178,-0.28071,0.022272,-0.019719,0.03217,0.17021,-0.4605,-0.29001,-0.08985,0.14927,0.25562,0.031768,0.05084,0.27325,0.017718,-0.0022362,-0.011,0.27696,1.2929,0.41816,-0.029393,-2.5759,-0.81447
0.015736,-0.029529,-0.28058,0.021482,-0.0321,0.011136,0.14829,-0.43524,-0.31744,-0.070685,0.04769,-0.016726,0.01479,0.039419,0.25919,-0.038433,0.01763,-0.00033555,0.29572,1.246,0.4801,0.011669,-2.8404,-0.75674
0.016793,-0.020345,-0.28887,0.017561,-0.043017,-0.011277,0.13333,-0.40188,-0.34356,-0.071666,-0.031118,-0.30284,-0.0077904,0.031193,0.24518,-0.13015,0.030667,0.0053922,0.30281,1.1569,0.51966,0.058992,-3.0865,-0.6595
0.014754,-0.013095,-0.30023,0.015042,-0.05016,-0.033629,0.12374,-0.36715,-0.36256,-0.092855,-0.082798,-0.54786,-0.032279,0.030997,0.22982,-0.26588,0.040105,0.003427,0.30006,1.0432,0.53173,0.099627,-3.3708,-0.51388
0.012742,-0.012862,-0.30737,0.01726,-0.052616,-0.053688,0.11415,-0.33612,-0.37417,-0.12208,-0.10808,-0.7097,-0.056239,0.037463,0.2156,-0.44028,0.047805,-0.0072081,0.29446,0.93512,0.52202,0.13073,-3.7153,-0.31294
0.012927,-0.02001,-0.30614,0.023973,-0.050831,-0.06947,0.099146,-0.31024,-0.3857,-0.14498,-0.11284,-0.7807,-0.079237,0.045055,0.20705,-0.62627,0.052655,-0.025127,0.29349,0.86343,0.49728,0.15731,-4.0623,-0.058893
0.01424,-0.029358,-0.29778,0.031679,-0.045867,-0.080212,0.076525,-0.28873,-0.40763,-0.15604,-0.10632,-0.78433,-0.10184,0.049104,0.20603,-0.78027,0.051923,-0.046858,0.30031,0.83938,0.45846,0.18524,-4.283,0.22917
0.013653,-0.034018,-0.28721,0.036231,-0.038867,-0.0865,0.048146,-0.27086,-0.4451,-0.16152,-0.098543,-0.7539,-0.12366,0.049186,0.2086,-0.86032,0.04465,-0.067492,0.31252,0.84295,0.40252,0.21567,-4.2473,0.51742
0.0095971,-0.030922,-0.27925,0.035743,-0.031144,-0.089489,0.018367,-0.25647,-0.49195,-0.17235,-0.097454,-0.71461,-0.14206,0.04807,0.20686,-0.84722,0.034201,-0.081327,0.32515,0.832,0.33017,0.24494,-3.9118,0.77235
0.0039281,-0.023279,-0.27573,0.031753,-0.024391,-0.089917,-0.0084966,-0.24454,-0.53184,-0.19332,-0.10707,-0.68326,-0.1531,0.04785,0.19424,-0.75578,0.027523,-0.082797,0.33517,0.76865,0.25151,0.2688,-3.356,0.98058
0.00039076,-0.017738,-0.27516,0.028026,-0.020262,-0.087839,-0.030022,-0.23222,-0.54612,-0.21748,-0.12773,-0.68078,-0.15403,0.047446,0.16998,-0.62921,0.031144,-0.068216,0.34388,0.64361,0.18359,0.28669,-2.7362,1.1591
0.0011051,-0.018681,-0.27448,0.028084,-0.019291,-0.083306,-0.046029,-0.21596,-0.52272,-0.22985,-0.15889,-0.73883,-0.14576,0.044075,0.13939,-0.51992,0.046663,-0.038112,0.35493,0.4794,0.14166,0.30202,-2.1843,1.3457
0.0045781,-0.024667,-0.27131,0.033176,-0.020086,-0.077323,-0.057759,-0.19412,-0.46058,-0.21678,-0.2028,-0.88713,-0.13298,0.037192,0.10977,-0.46708,0.069033,0.0013152,0.3698,0.31043,0.13062,0.31866,-1.7263,1.5727
0.0071704,-0.030132,-0.26524,0.041844,-0.019825,-0.072009,-0.066897,-0.16883,-0.36802,-0.17383,-0.26543,-1.1271,-0.12177,0.030755,0.085599,-0.48145,0.088954,0.039414,0.38448,0.15683,0.14256,0.33683,-1.28,1.842
0.0065039,-0.030676,-0.25743,0.050958,-0.016039,-0.06946,-0.075163,-0.14525,-0.25801,-0.10765,-0.35278,-1.4126,-0.11626,0.031091,0.066247,-0.54315,0.097682,0.06541,0.39054,0.013339,0.16111,0.35174,-0.72965,2.1183
0.0034439,-0.027035,-0.24938,0.057363,-0.0083865,-0.070047,-0.084432,-0.12875,-0.14421,-0.032499,-0.46469,-1.6581,-0.11688,0.041784,0.047465,-0.61203,0.090996,0.073839,0.38035,-0.13909,0.16884,0.35574,-0.020447,2.3477
0.00081435,-0.024155,-0.24146,0.059247,0.0010792,-0.071547,-0.096708,-0.12201,-0.038735,0.034823,-0.59203,-1.7755,-0.12136,0.059961,0.024994,-0.64589,0.070001,0.067642,0.35275,-0.31071,0.15354,0.34182,0.79829,2.4858
0.00027589,-0.026333,-0.23239,0.05688,0.0094915,-0.070013,-0.11344,-0.12392,0.050499,0.079198,-0.7211,-1.7216,-0.12736,0.0774,-0.00231,-0.61923,0.039041,0.056451,0.31471,-0.48944,0.11132,0.30618,1.605,2.516
0.00054998,-0.033025,-0.21991,0.052644,0.015443,-0.061948,-0.13446,-0.13072,0.12437,0.090701,-0.84256,-1.5255,-0.13433,0.085825,-0.031562,-0.53416,0.0029093,0.05064,0.27745,-0.64736,0.0469,0.24899,2.2809,2.4465
-0.0012554,-0.039244,-0.2022,0.050254,0.020189,-0.046262,-0.15749,-0.13832,0.19689,0.068227,-0.957,-1.2771,-0.14307,0.082267,-0.057291,-0.41701,-0.034587,0.054825,0.24977,-0.76053,-0.028484,0.1743,2.7688,2.2944
-0.0065571,-0.040136,-0.17908,0.053104,0.02684,-0.024719,-0.17903,-0.14443,0.29421,0.021867,-1.0706,-1.0812,-0.15372,0.070369,-0.074259,-0.30128,-0.070435,0.065098,0.23335,-0.82497,-0.10135,0.089554,3.0775,2.0757
-0.013494,-0.035474,-0.15219,0.062219,0.038106,-0.0008064,-0.19629,-0.14913,0.44432,-0.029013,-1.1826,-1.0046,-0.16428,0.056932,-0.080223,-0.2056,-0.10189,0.071984,0.2233,-0.85631,-0.16139,0.0046058,3.2423,1.8086
-0.018189,-0.029893,-0.12422,0.074987,0.054124,0.021875,-0.2088,-0.1539,0.65987,-0.063437,-1.2761,-1.0469,-0.17142,0.046785,-0.077365,-0.1205,-0.12682,0.067179,0.21292,-0.87517,-0.20554,-0.070685,3.2812,1.5225
-0.017937,-0.02869,-0.097814,0.085907,0.071746,0.040567,-0.21841,-0.15977,0.92235,-0.069154,-1.321,-1.1524,-0.17309,0.040017,-0.071585,-0.014093,-0.14472,0.049488,0.19839,-0.89164,-0.23769,-0.12956,3.1859,1.2548
-0.013439,-0.03305,-0.074761,0.089434,0.085716,0.053457,-0.22746,-0.16577,1.1785,-0.049238,-1.2902,-1.2456,-0.17046,0.033309,-0.069876,0.14553,-0.15687,0.025883,0.17927,-0.90104,-0.26358,-0.17049,2.9511,1.0331
-0.0081864,-0.039025,-0.055755,0.083345,0.091159,0.059646,-0.23666,-0.16913,1.3545,-0.019876,-1.1783,-1.2656,-0.16724,0.023615,-0.07706,0.36564,-0.16497,0.0069794,0.15536,-0.89193,-0.28448,-0.19664,2.6136,0.85284
-0.0057299,-0.041096,-0.040399,0.070308,0.086127,0.059547,-0.24448,-0.16723,1.3859,-4.7122e-005,-1.0067,-1.1761,-0.16653,0.010886,-0.093708,0.61969,-0.16888,0.00012107,0.12342,-0.85701,-0.29488,-0.21297,2.2646,0.67597
-0.0072825,-0.037031,-0.0274,0.056315,0.072899,0.055362,-0.24862,-0.16003,1.2484,0.00040766,-0.81148,-0.96041,-0.16758,-0.0021834,-0.11636,0.8614,-0.16576,0.0048852,0.077837,-0.79655,-0.28678,-0.22314,2.0188,0.45392
-0.011465,-0.029689,-0.015038,0.046883,0.057103,0.050621,-0.24827,-0.15101,0.97475,-0.013427,-0.6219,-0.61826,-0.16533,-0.012658,-0.13971,1.0528,-0.15201,0.013995,0.015226,-0.71301,-0.25732,-0.22812,1.9536,0.16187
-0.015916,-0.024352,-0.0018819,0.043678,0.044828,0.048395,-0.24502,-0.14506,0.64477,-0.025259,-0.44626,-0.17846,-0.15342,-0.019718,-0.15917,1.185,-0.12668,0.018716,-0.061057,-0.60466,-0.21325,-0.22695,2.0589,-0.18218
-0.019031,-0.024147,0.012618,0.043995,0.039154,0.0492,-0.24152,-0.14427,0.35091,-0.017518,-0.27447,0.28792,-0.12864,-0.025057,-0.17245,1.2765,-0.093899,0.014726,-0.14076,-0.46733,-0.16756,-0.21828,2.2306,-0.52657
-0.020511,-0.027705,0.028226,0.043421,0.038356,0.050396,-0.23906,-0.14432,0.15629,0.019545,-0.094429,0.67797,-0.093574,-0.031476,-0.17964,1.3505,-0.061578,0.0043761,-0.21174,-0.30492,-0.1306,-0.2011,2.3204,-0.81422
-0.020852,-0.030965,0.044729,0.039588,0.037279,0.048033,-0.23635,-0.13458,0.068955,0.084957,0.09198,0.89955,-0.055601,-0.041171,-0.1825,1.4128,-0.037124,-0.0058333,-0.26645,-0.13894,-0.10291,-0.17497,2.2114,-1.0086
-0.020747,-0.031255,0.06277,0.03407,0.031251,0.040025,-0.23082,-0.10293,0.047854,0.17045,0.26544,0.92196,-0.02306,-0.054916,-0.18369,1.4488,-0.023136,-0.010354,-0.30475,-0.0054886,-0.076193,-0.14069,1.875,-1.1033
-0.020936,-0.029782,0.083841,0.030919,0.019789,0.028164,-0.22125,-0.043328,0.036361,0.26605,0.4003,0.79531,-0.0012663,-0.072103,-0.18613,1.4434,-0.016484,-0.0085276,-0.33112,0.063006,-0.041878,-0.10158,1.3711,-1.1176
-0.022126,-0.030217,0.10923,0.033015,0.007123,0.017205,-0.20935,0.038242,0.0014546,0.36366,0.48098,0.61974,0.0093627,-0.090925,-0.1923,1.4037,-0.011456,-0.0049394,-0.34893,0.059766,6.3249e-006,-0.064258,0.79637,-1.0889
-0.024485,-0.034707,0.13864,0.0392,-0.0011225,0.011555,-0.1989,0.12347,-0.047075,0.45736,0.51206,0.48651,0.012676,-0.10843,-0.20337,1.3617,-0.0043577,-0.0064274,-0.35686,0.012083,0.039236,-0.036957,0.22253,-1.0654
-0.02706,-0.041092,0.16963,0.044581,-0.0025571,0.012141,-0.19304,0.18844,-0.068841,0.54234,0.51611,0.43718,0.014872,-0.12097,-0.21882,1.3512,0.0041938,-0.017969,-0.35061,-0.033147,0.062567,-0.025709,-0.32826,-1.0965
-0.028023,-0.044169,0.19831,0.043888,-0.0001005,0.015933,-0.19201,0.21454,-0.026239,0.61385,0.52196,0.4702,0.022594,-0.1254,-0.23689,1.38,0.01096,-0.039821,-0.32845,-0.038711,0.06358,-0.030739,-0.85489,-1.2138
-0.026052,-0.040161,0.22106,0.035296,0.00039885,0.018458,-0.19314,0.19792,0.085042,0.66636,0.55106,0.58083,0.041428,-0.12055,-0.25584,1.4193,0.013942,-0.067125,-0.29588,-0.00061451,0.046985,-0.046175,-1.3283,-1.4098
-0.021825,-0.030439,0.23615,0.021775,-0.0048894,0.017297,-0.19261,0.15157,0.22893,0.69243,0.60877,0.79019,0.074611,-0.10753,-0.27481,1.4235,0.014755,-0.091819,-0.26524,0.051441,0.024185,-0.063746,-1.6723,-1.6293
-0.018051,-0.02093,0.24457,0.0089628,-0.014496,0.013803,-0.18749,0.098096,0.34869,0.68217,0.68394,1.1315,0.12212,-0.088266,-0.29374,1.3616,0.017352,-0.10588,-0.24964,0.076791,0.0043973,-0.077826,-1.7979,-1.7873
-0.017578,-0.017368,0.24965,0.0012714,-0.022933,0.011798,-0.17666,0.057101,0.39901,0.62629,0.75624,1.6045,0.18085,-0.063448,-0.31237,1.2354,0.02435,-0.10449,-0.25541,0.05242,-0.011022,-0.087963,-1.666,-1.8071
-0.02098,-0.020464,0.25558,-0.00084678,-0.025478,0.014373,-0.16087,0.035108,0.36947,0.52301,0.80768,2.1417,0.24642,-0.031817,-0.32931,1.073,0.034496,-0.087867,-0.27795,-0.013477,-0.026847,-0.097199,-1.3248,-1.6614
-0.025796,-0.025365,0.26541,-0.00064932,-0.022308,0.021288,-0.14252,0.024626,0.28627,0.3852,0.83264,2.624,0.31595,0.0081144,-0.34202,0.90694,0.043756,-0.060696,-0.30406,-0.091197,-0.047348,-0.10813,-0.88833,-1.391
-0.028302,-0.026013,0.27927,-0.0023894,-0.01841,0.028935,-0.12552,0.012719,0.19373,0.24054,0.84014,2.9386,0.39019,0.055049,-0.34769,0.75979,0.049087,-0.029681,-0.31908,-0.15249,-0.071101,-0.12033,-0.47217,-1.0886
-0.026443,-0.020472,0.29412,-0.008341,-0.019386,0.0328,-0.11435,-0.0076866,0.12881,0.12106,0.84562,3.0365,0.47362,0.10315,-0.34449,0.64475,0.051338,-0.00052775,-0.31454,-0.18809,-0.091509,-0.13099,-0.13698,-0.85654
-0.021413,-0.012339,0.30536,-0.017634,-0.026775,0.030534,-0.11216,-0.032526,0.10375,0.046646,0.85674,2.9478,0.57218,0.14328,-0.33246,0.57333,0.054396,0.023692,-0.29164,-0.20777,-0.10184,-0.13754,0.11999,-0.75936
-0.016519,-0.0069835,0.30981,-0.027394,-0.036772,0.023368,-0.11863,-0.051076,0.10481,0.013826,0.86351,2.7494,0.68942,0.16663,-0.31384,0.55415,0.061214,0.042049,-0.25917,-0.22604,-0.099921,-0.13918,0.3277,-0.79562
-0.014384,-0.0062919,0.30822,-0.03502,-0.043209,0.014907,-0.12968,-0.05578,0.10525,-0.00059591,0.84239,2.5165,0.82225,0.1684,-0.29279,0.5811,0.07043,0.054065,-0.22772,-0.24708,-0.088717,-0.13624,0.49719,-0.90428
-0.014937,-0.0070134,0.30526,-0.039854,-0.042145,0.0083232,-0.13965,-0.048692,0.083332,-0.021711,0.77386,2.2939,0.95769,0.14926,-0.27419,0.62484,0.076935,0.058701,-0.20417,-0.26096,-0.073119,-0.12835,0.60802,-1.0006
-0.015851,-0.0043092,0.3064,-0.043213,-0.034428,0.0040658,-0.14468,-0.039132,0.034961,-0.056748,0.66107,2.0989,1.0727,0.11447,-0.26177,0.64282,0.0762,0.055097,-0.18949,-0.25262,-0.056326,-0.11406,0.63112,-1.0216
-0.014818,0.003005,0.31371,-0.047073,-0.024638,-0.00027497,-0.1446,-0.035089,-0.025054,-0.088466,0.53386,1.9374,1.1394,0.071778,-0.25626,0.60499,0.068551,0.044292,-0.18059,-0.21468,-0.038693,-0.092105,0.56393,-0.95447
-0.011504,0.010744,0.32387,-0.052583,-0.017813,-0.0080035,-0.14187,-0.036267,-0.072825,-0.087663,0.43188,1.809,1.135,0.029597,-0.25484,0.51445,0.059396,0.030015,-0.17412,-0.15416,-0.019126,-0.062979,0.44997,-0.83528
-0.0075475,0.012991,0.33007,-0.059504,-0.016711,-0.020836,-0.13849,-0.034735,-0.090005,-0.036166,0.37784,1.7,1.0543,-0.0043158,-0.25265,0.40389,0.054941,0.017208,-0.16918,-0.088791,0.002917,-0.028827,0.37206,-0.71981
-0.0047915,0.0076994,0.32699,-0.066725,-0.021298,-0.037712,-0.1339,-0.021927,-0.074532,0.056821,0.36095,1.5755,0.91487,-0.024108,-0.24562,0.30964,0.05699,0.0090349,-0.16716,-0.037222,0.026414,0.0080133,0.42496,-0.64883
-0.003514,-0.001045,0.31466,-0.073172,-0.029951,-0.055574,-0.12551,0.0046595,-0.041024,0.15741,0.3439,1.3876,0.7519,-0.027373,-0.23282,0.24533,0.061412,0.0046786,-0.16926,-0.011014,0.048757,0.046007,0.6759,-0.62917
-0.0022313,-0.0062305,0.29832,-0.078313,-0.040718,-0.071264,-0.11151,0.040496,-0.010403,0.22677,0.28842,1.0969,0.6012,-0.016261,-0.21662,0.19647,0.061626,-3.938e-005,-0.17407,-0.013497,0.066041,0.083614,1.1205,-0.63928
0.00082748,-0.0035872,0.28412,-0.082114,-0.051581,-0.083018,-0.093146,0.078099,0.0047162,0.24354,0.17995,0.6925,0.48122,0.00292,-0.20081,0.13619,0.054118,-0.0093395,-0.17745,-0.044222,0.07367,0.11759,1.6505,-0.65067
0.0059191,0.0053809,0.27442,-0.084882,-0.060191,-0.090657,-0.074483,0.11089,0.0090179,0.21334,0.033488,0.19828,0.38518,0.021953,-0.18831,0.043849,0.041311,-0.023843,-0.17508,-0.10279,0.067934,0.14265,2.064,-0.64669
0.011214,0.015337,0.26651,-0.087331,-0.064198,-0.094783,-0.05966,0.13308,0.021053,0.16082,-0.12115,-0.33231,0.28953,0.033817,-0.18,-0.090464,0.029544,-0.039473,-0.16576,-0.18627,0.048474,0.15374,2.1393,-0.62596
0.013965,0.021706,0.25569,-0.090572,-0.062566,-0.096045,-0.049961,0.13731,0.058743,0.11221,-0.26117,-0.82473,0.17245,0.034972,-0.17524,-0.27253,0.024181,-0.049944,-0.15289,-0.28065,0.019966,0.14939,1.7561,-0.59156
0.012543,0.023609,0.23989,-0.095536,-0.056846,-0.09517,-0.043139,0.11496,0.12323,0.081379,-0.38314,-1.1922,0.029607,0.025785,-0.17297,-0.50472,0.02608,-0.05115,-0.14266,-0.35441,-0.0089744,0.13355,0.99365,-0.53878
0.007789,0.023053,0.22166,-0.10193,-0.050906,-0.09354,-0.035485,0.061225,0.19245,0.066774,-0.50039,-1.3522,-0.12352,0.0093228,-0.1723,-0.77185,0.032039,-0.044205,-0.14025,-0.36466,-0.029717,0.11403,0.12827,-0.45371
0.0026294,0.022093,0.20614,-0.1077,-0.048771,-0.093433,-0.024895,-0.019195,0.22992,0.056836,-0.632,-1.2566,-0.26234,-0.010428,-0.17252,-1.0256,0.038129,-0.034797,-0.14636,-0.27874,-0.03785,0.098888,-0.49314,-0.32416
0.00015369,0.021155,0.19675,-0.10996,-0.051999,-0.097337,-0.012434,-0.1121,0.2041,0.036957,-0.79344,-0.92441,-0.36718,-0.03003,-0.17322,-1.1919,0.042594,-0.029246,-0.15673,-0.10046,-0.034472,0.092942,-0.63796,-0.15288
0.0015321,0.019766,0.19262,-0.10687,-0.058745,-0.10659,-0.0012304,-0.20158,0.10665,-0.006415,-0.9922,-0.45381,-0.4302,-0.047447,-0.17474,-1.2099,0.045958,-0.030063,-0.1648,0.11911,-0.023637,0.096843,-0.31162,0.038919
0.0053218,0.018153,0.18955,-0.099133,-0.065437,-0.1203,0.0062247,-0.27961,-0.041814,-0.083181,-1.2254,0.0067442,-0.45264,-0.062304,-0.17837,-1.0778,0.049059,-0.034224,-0.16586,0.30042,-0.0083452,0.10831,0.26381,0.22128
0.0087185,0.017473,0.18336,-0.089622,-0.069759,-0.13552,0.0101,-0.34845,-0.2015,-0.19538,-1.4767,0.32027,-0.43818,-0.075466,-0.18522,-0.86708,0.051582,-0.03535,-0.15972,0.37735,0.011289,0.12399,0.79965,0.37053
0.0097963,0.018436,0.17246,-0.081378,-0.072406,-0.14877,0.013018,-0.41274,-0.33263,-0.33203,-1.7158,0.422,-0.38986,-0.087917,-0.19414,-0.68418,0.052757,-0.028196,-0.15028,0.33603,0.036216,0.14029,1.1128,0.47788
0.0089354,0.020111,0.15789,-0.075781,-0.07609,-0.15812,0.017995,-0.46775,-0.41262,-0.46814,-1.9055,0.34065,-0.31247,-0.099424,-0.20048,-0.60263,0.053233,-0.012288,-0.1423,0.22221,0.064938,0.15311,1.2043,0.54653
0.0082401,0.020549,0.14135,-0.072354,-0.082657,-0.16435,0.026324,-0.49577,-0.4427,-0.57259,-2.0162,0.16715,-0.21636,-0.10798,-0.19764,-0.61615,0.055654,0.0077398,-0.13788,0.10987,0.091848,0.15757,1.2047,0.58279
0.0094354,0.018689,0.12368,-0.070049,-0.090894,-0.17014,0.036889,-0.47647,-0.44245,-0.62289,-2.0401,-0.0062781,-0.11731,-0.11065,-0.18124,-0.65057,0.062658,0.025114,-0.13514,0.05285,0.10918,0.14896,1.2422,0.59073
0.0121,0.01548,0.10503,-0.068444,-0.097,-0.17741,0.047044,-0.40506,-0.43735,-0.6178,-1.9938,-0.13553,-0.031636,-0.10541,-0.15308,-0.6264,0.073868,0.034955,-0.13019,0.054269,0.11096,0.12489,1.3364,0.57445
0.013886,0.012922,0.086251,-0.067614,-0.097373,-0.18468,0.053961,-0.30324,-0.446,-0.57818,-1.907,-0.23369,0.029784,-0.092455,-0.12137,-0.52264,0.084875,0.036605,-0.12061,0.074201,0.095685,0.087025,1.3854,0.54277
0.01262,0.012061,0.069491,-0.067115,-0.091333,-0.18664,0.055542,-0.21162,-0.47192,-0.53414,-1.8051,-0.34285,0.064495,-0.074066,-0.096296,-0.39168,0.089766,0.032905,-0.10788,0.065868,0.065494,0.040687,1.2427,0.50897
0.0084323,0.012098,0.057241,-0.065572,-0.081481,-0.17723,0.050845,-0.1661,-0.5019,-0.50671,-1.697,-0.4965,0.077512,-0.053284,-0.083578,-0.31548,0.085469,0.027375,-0.096504,0.0098222,0.023174,-0.0081914,0.8187,0.48387
0.0038936,0.011577,0.050568,-0.06168,-0.071504,-0.15422,0.040469,-0.17421,-0.51198,-0.49704,-1.5771,-0.70009,0.078146,-0.032631,-0.080619,-0.3405,0.074234,0.021657,-0.090675,-0.079101,-0.03017,-0.056801,0.14099,0.46875
0.0019297,0.010254,0.048318,-0.055666,-0.06339,-0.12217,0.026872,-0.20939,-0.48072,-0.49025,-1.4354,-0.9358,0.076382,-0.01385,-0.078317,-0.44441,0.061988,0.015176,-0.09112,-0.17221,-0.094506,-0.10695,-0.65591,0.45542
0.0033433,0.0095109,0.048016,-0.04951,-0.056419,-0.090713,0.013894,-0.22889,-0.40473,-0.47004,-1.2682,-1.1761,0.079213,0.0016897,-0.067313,-0.55827,0.053852,0.0070044,-0.094826,-0.25288,-0.16799,-0.16257,-1.3933,0.43382
0.00621,0.010759,0.047593,-0.045347,-0.048514,-0.068853,0.0050919,-0.20343,-0.30708,-0.43162,-1.0812,-1.3883,0.087321,0.012942,-0.044239,-0.62231,0.050635,-0.001928,-0.097652,-0.32531,-0.24453,-0.22449,-1.9233,0.39976
0.0077132,0.013603,0.046376,-0.043451,-0.038423,-0.059359,0.0017317,-0.13735,-0.22952,-0.38305,-0.88508,-1.5277,0.093983,0.019849,-0.013485,-0.62836,0.049194,-0.0084814,-0.09736,-0.40209,-0.31426,-0.28664,-2.1808,0.3557
0.0067045,0.015898,0.044604,-0.041832,-0.026599,-0.057317,0.0022066,-0.064608,-0.20953,-0.33498,-0.69005,-1.537,0.088344,0.023864,0.016541,-0.61809,0.045982,-0.0094103,-0.094313,-0.48581,-0.36704,-0.33722,-2.1972,0.30521
0.0046105,0.01586,0.042173,-0.037983,-0.014092,-0.053966,0.003809,-0.023913,-0.25688,-0.28919,-0.50362,-1.3656,0.062429,0.027241,0.039615,-0.64464,0.040267,-0.0042931,-0.089508,-0.56308,-0.39687,-0.36493,-2.0774,0.24949
0.003881,0.014057,0.037936,-0.0312,-0.00085858,-0.042755,0.0056661,-0.031679,-0.34812,-0.23653,-0.33286,-1.0061,0.017503,0.031218,0.055641,-0.73279,0.034065,0.0032801,-0.082356,-0.61529,-0.40429,-0.36615,-1.9541,0.19308
0.005501,0.013052,0.030305,-0.023234,0.014462,-0.023045,0.010204,-0.072573,-0.44499,-0.16601,-0.18529,-0.51952,-0.035265,0.034685,0.06953,-0.8667,0.029207,0.0075707,-0.070902,-0.63451,-0.39532,-0.34747,-1.936,0.15593
0.0079353,0.01479,0.018681,-0.016666,0.032695,0.00082584,0.021423,-0.11327,-0.52191,-0.076292,-0.064376,-0.022092,-0.080819,0.034875,0.086237,-1.0067,0.02481,0.0044383,-0.054515,-0.62946,-0.37778,-0.32095,-2.0688,0.1789
0.0084773,0.018276,0.0045172,-0.012619,0.051868,0.023576,0.041067,-0.12735,-0.57814,0.021667,0.038813,0.36692,-0.10856,0.029853,0.10613,-1.1137,0.018008,-0.0057957,-0.036163,-0.61692,-0.35706,-0.29541,-2.3212,0.31084
0.0057102,0.020047,-0.0089054,-0.01005,0.067061,0.04253,0.065902,-0.11209,-0.62364,0.11362,0.14942,0.58491,-0.11709,0.020663,0.12453,-1.1622,0.0074408,-0.018475,-0.021297,-0.60766,-0.33381,-0.27007,-2.6001,0.57791
0.00081599,0.017282,-0.018025,-0.0072066,0.07326,0.058215,0.088772,-0.085976,-0.65299,0.19427,0.30005,0.64933,-0.11315,0.011041,0.13568,-1.139,-0.0039332,-0.027495,-0.013669,-0.5995,-0.30473,-0.23573,-2.7864,0.95324
-0.0033725,0.010734,-0.020985,-0.003643,0.069275,0.072421,0.10297,-0.071991,-0.63556,0.27103,0.51073,0.62704,-0.10743,0.0046803,0.13807,-1.0423,-0.0097847,-0.0287,-0.011834,-0.58227,-0.26571,-0.18281,-2.7775,1.351
-0.0045912,0.0046046,-0.018843,-0.00065978,0.059296,0.085955,0.10663,-0.081688,-0.5359,0.3553,0.77055,0.57502,-0.11126,0.0023952,0.13633,-0.88565,-0.0048193,-0.021479,-0.010028,-0.54859,-0.21529,-0.1104,-2.5204,1.6566
-0.0026434,0.0032253,-0.015167,0.00030436,0.050176,0.097867,0.10355,-0.11193,-0.34848,0.44927,1.0371,0.50165,-0.13496,0.0017227,0.13836,-0.7031,0.010914,-0.0079825,-0.0031578,-0.50051,-0.15608,-0.029163,-2.0227,1.7819
0.00091258,0.0074033,-0.014061,-0.00036526,0.0462,0.10622,0.10005,-0.15395,-0.11385,0.54094,1.2588,0.37997,-0.18543,-0.00064862,0.14957,-0.54039,0.031467,0.0087324,0.008586,-0.44727,-0.093346,0.044207,-1.3394,1.7114
0.0042137,0.013723,-0.017727,-0.00029216,0.04556,0.10931,0.10024,-0.20394,0.10242,0.61216,1.4052,0.19721,-0.26137,-0.0057978,0.16884,-0.43252,0.048716,0.025825,0.020109,-0.398,-0.03194,0.096996,-0.54418,1.5109
0.006181,0.017485,-0.025075,0.00285,0.041814,0.10648,0.10373,-0.26442,0.25264,0.65258,1.4834,-0.0088294,-0.34943,-0.011528,0.18922,-0.38302,0.057402,0.040497,0.02695,-0.35616,0.025914,0.12762,0.29632,1.2898
0.0065266,0.016703,-0.032459,0.0089123,0.029445,0.098401,0.10708,-0.33444,0.33527,0.66601,1.5244,-0.165,-0.42627,-0.014121,0.20262,-0.36385,0.05766,0.049502,0.031016,-0.31964,0.080104,0.1447,1.1265,1.1391
0.0053009,0.013671,-0.036196,0.014827,0.0090295,0.087024,0.10754,-0.39761,0.38427,0.66361,1.5517,-0.21969,-0.46837,-0.011193,0.20495,-0.339,0.053557,0.049766,0.040796,-0.28476,0.12982,0.15917,1.8837,1.0833
0.0029401,0.012772,-0.035222,0.016801,-0.012488,0.074964,0.10555,-0.41971,0.43128,0.65052,1.5577,-0.18957,-0.4637,-0.0032301,0.19804,-0.29345,0.049428,0.040313,0.065004,-0.24955,0.17109,0.17566,2.479,1.0762
0.00078577,0.016545,-0.031967,0.013403,-0.026853,0.064298,0.10413,-0.36184,0.47607,0.61943,1.5107,-0.14948,-0.41672,0.0071292,0.18758,-0.2436,0.047167,0.024004,0.10468,-0.21402,0.19726,0.18978,2.8086,1.0413
0.00099453,0.023464,-0.030739,0.006927,-0.030796,0.055347,0.10581,-0.20344,0.49204,0.55765,1.3869,-0.16892,-0.34262,0.01701,0.1789,-0.22103,0.046221,0.0070714,0.1506,-0.1785,0.2029,0.19293,2.804,0.92762
0.0051024,0.029218,-0.034769,0.001823,-0.028366,0.046578,0.10996,0.039463,0.45921,0.46109,1.2001,-0.24853,-0.25628,0.024741,0.17372,-0.24476,0.045401,-0.0041284,0.18863,-0.14254,0.18824,0.18012,2.4943,0.74384
0.012126,0.030209,-0.044047,0.0014314,-0.027437,0.036135,0.11303,0.31457,0.39166,0.34187,1.0015,-0.31373,-0.16563,0.030092,0.1698,-0.3062,0.044333,-0.0072354,0.20907,-0.10564,0.16039,0.15402,2.0263,0.54702
0.018228,0.02623,-0.055463,0.0056207,-0.033402,0.023893,0.11132,0.55532,0.33271,0.2221,0.84705,-0.27312,-0.074498,0.033768,0.1632,-0.37828,0.043303,-0.0056764,0.21244,-0.068555,0.12952,0.12213,1.6114,0.39668
0.019064,0.020263,-0.064959,0.011135,-0.045239,0.012036,0.10407,0.7127,0.32187,0.11967,0.75766,-0.092526,0.0096807,0.036849,0.15138,-0.43839,0.042196,-0.0061944,0.20758,-0.033606,0.10256,0.089914,1.4161,0.30861
0.013398,0.015992,-0.070008,0.014247,-0.056864,0.0032783,0.093961,0.77705,0.36352,0.039031,0.70587,0.17811,0.072857,0.040258,0.135,-0.48439,0.040134,-0.013451,0.20405,-0.0036256,0.079111,0.056658,1.468,0.24294
0.0048807,0.015336,-0.070768,0.013536,-0.062205,-0.0017947,0.084597,0.77539,0.42515,-0.025453,0.63801,0.44551,0.10075,0.044051,0.11753,-0.53175,0.036458,-0.025732,0.20546,0.019269,0.053593,0.017961,1.6426,0.13492
-0.00010745,0.017823,-0.069485,0.010638,-0.05958,-0.0055794,0.077157,0.74683,0.46609,-0.078375,0.5132,0.64315,0.089545,0.046842,0.10287,-0.59803,0.032017,-0.035467,0.20873,0.034017,0.022079,-0.027311,1.7477,-0.056122
0.0027,0.021697,-0.06889,0.0085505,-0.052044,-0.011303,0.069287,0.71459,0.47206,-0.11642,0.32769,0.77023,0.050768,0.046156,0.092748,-0.69045,0.029182,-0.03471,0.20894,0.040227,-0.011569,-0.072215,1.6455,-0.31706
0.011809,0.025309,-0.070689,0.0090767,-0.044044,-0.019706,0.057413,0.6754,0.46667,-0.1327,0.10856,0.87027,0.0050297,0.04009,0.085774,-0.80563,0.0302,-0.021614,0.20474,0.038028,-0.036124,-0.10413,1.3287,-0.59211
0.020779,0.027633,-0.074786,0.011594,-0.037687,-0.027907,0.040518,0.61244,0.4905,-0.12743,-0.11204,0.97489,-0.030774,0.029369,0.078934,-0.93665,0.03522,-0.0026784,0.1996,0.028573,-0.040633,-0.11312,0.90408,-0.82271
0.0231,0.028045,-0.079485,0.014094,-0.031773,-0.032025,0.02197,0.51916,0.56325,-0.11361,-0.31727,1.0649,-0.052443,0.018037,0.07045,-1.0769,0.041838,0.011418,0.19837,0.014479,-0.023575,-0.09971,0.50759,-0.98126
0.017197,0.026233,-0.082616,0.015384,-0.024032,-0.031396,0.0076131,0.41244,0.65768,-0.11086,-0.50521,1.081,-0.067078,0.011708,0.06174,-1.2165,0.046728,0.013415,0.2027,-0.0007561,0.004264,-0.075459,0.2245,-1.0704
0.0074085,0.0226,-0.083163,0.016289,-0.014215,-0.030293,0.0016262,0.32396,0.70681,-0.1323,-0.67419,0.97213,-0.083878,0.014171,0.056715,-1.3376,0.048027,0.0046005,0.20931,-0.014297,0.026482,-0.055748,0.071225,-1.0912
0.00022276,0.01852,-0.082351,0.01871,-0.0051777,-0.034954,0.0036421,0.27808,0.64439,-0.17595,-0.81211,0.73895,-0.10578,0.024644,0.058765,-1.4184,0.046441,-0.0066045,0.21219,-0.025265,0.032701,-0.050031,0.034968,-1.0135
-0.00090682,0.015711,-0.083035,0.023461,-0.0010207,-0.048041,0.0094126,0.27577,0.4557,-0.22801,-0.90094,0.44102,-0.12836,0.037762,0.067825,-1.4435,0.044141,-0.011305,0.20622,-0.034645,0.025963,-0.05677,0.1181,-0.78327
0.0022035,0.014945,-0.087309,0.029121,-0.00388,-0.065354,0.014093,0.2975,0.20413,-0.27469,-0.93042,0.16492,-0.14523,0.046525,0.079974,-1.4136,0.042455,-0.0065478,0.18949,-0.043871,0.019757,-0.066222,0.33893,-0.36964
0.0047684,0.015293,-0.094019,0.033144,-0.012066,-0.078055,0.015066,0.32084,0.0091871,-0.31192,-0.90641,-0.021886,-0.15364,0.046381,0.090041,-1.3426,0.040408,0.0035124,0.16334,-0.053287,0.026983,-0.068243,0.69027,0.1856
0.0034461,0.014866,-0.098541,0.034271,-0.021094,-0.079066,0.012104,0.33613,-0.019677,-0.345,-0.8455,-0.10391,-0.15535,0.037805,0.095181,-1.2455,0.035424,0.011979,0.13139,-0.061607,0.049888,-0.059009,1.1027,0.76367
-0.0011445,0.012556,-0.095711,0.033885,-0.026848,-0.068577,0.0055399,0.34768,0.14404,-0.37923,-0.76228,-0.12329,-0.15306,0.025753,0.096586,-1.1271,0.025657,0.014813,0.099083,-0.066567,0.079102,-0.042147,1.4572,1.2262
-0.0057138,0.0091787,-0.083892,0.034906,-0.028478,-0.054189,-0.0050282,0.36287,0.41366,-0.41037,-0.66186,-0.15939,-0.14695,0.016375,0.0981,-0.98419,0.012015,0.012906,0.073244,-0.066125,0.10217,-0.024434,1.6473,1.4968
-0.0077058,0.0068093,-0.066713,0.03923,-0.02891,-0.045487,-0.019909,0.38165,0.62926,-0.42324,-0.54409,-0.29163,-0.13479,0.01311,0.10307,-0.81869,-0.0018507,0.0096023,0.060492,-0.059441,0.11408,-0.010058,1.6414,1.6036
-0.007431,0.0068596,-0.050673,0.046092,-0.032628,-0.047285,-0.037463,0.39657,0.64822,-0.39971,-0.41344,-0.55893,-0.11522,0.014661,0.11215,-0.6507,-0.011734,0.0067462,0.064109,-0.047206,0.1209,0.0021713,1.4951,1.643
-0.007154,0.0086859,-0.040407,0.052807,-0.042337,-0.056704,-0.053713,0.40078,0.42919,-0.33045,-0.28378,-0.93223,-0.090595,0.016127,0.12363,-0.51606,-0.015654,0.0030804,0.081108,-0.031208,0.13388,0.016996,1.2998,1.6923
-0.0084589,0.010079,-0.035664,0.057009,-0.056785,-0.065985,-0.064536,0.39376,0.052718,-0.22216,-0.17316,-1.3174,-0.066639,0.012477,0.13557,-0.44873,-0.015146,-0.0040365,0.10204,-0.013293,0.159,0.038009,1.1067,1.7417
-0.010703,0.0092047,-0.032561,0.058203,-0.071117,-0.068418,-0.068732,0.37841,-0.33409,-0.09604,-0.094424,-1.5954,-0.04929,0.0019765,0.14735,-0.4613,-0.014082,-0.015871,0.11432,0.0056845,0.19071,0.063617,0.88447,1.7029
-0.011966,0.0062459,-0.027784,0.057385,-0.079441,-0.062558,-0.069009,0.35391,-0.60793,0.021295,-0.050787,-1.6854,-0.041432,-0.012831,0.15909,-0.53985,-0.015857,-0.031292,0.10733,0.026091,0.21434,0.086563,0.53998,1.4872
-0.01123,0.0033128,-0.0217,0.055522,-0.078003,-0.051783,-0.069653,0.31415,-0.73087,0.10853,-0.039075,-1.5968,-0.041841,-0.027155,0.16959,-0.65762,-0.020989,-0.047998,0.076132,0.048526,0.2151,0.097545,-0.010458,1.0861
-0.0093766,0.0027855,-0.017526,0.052677,-0.067196,-0.040257,-0.072776,0.25563,-0.74592,0.15603,-0.054712,-1.4317,-0.046558,-0.037287,0.17534,-0.79495,-0.026838,-0.064154,0.022071,0.072358,0.18696,0.090853,-0.76923,0.58727
-0.0080092,0.0055007,-0.017555,0.048599,-0.051441,-0.029213,-0.076544,0.18777,-0.72231,0.16478,-0.091234,-1.3301,-0.051379,-0.042586,0.17208,-0.94691,-0.029581,-0.078558,-0.049093,0.095276,0.13563,0.068418,-1.6309,0.11539
-0.007491,0.010136,-0.020253,0.043849,-0.037136,-0.016726,-0.077011,0.13364,-0.701,0.13991,-0.1347,-1.3843,-0.054015,-0.044693,0.15842,-1.1106,-0.026907,-0.089511,-0.12974,0.11463,0.074613,0.039319,-2.4183,-0.24826
-0.0064706,0.014063,-0.02112,0.040029,-0.029725,-0.00072022,-0.071905,0.11729,-0.68153,0.084085,-0.16125,-1.5821,-0.055197,-0.045058,0.13839,-1.2635,-0.019474,-0.094207,-0.21214,0.12963,0.017593,0.014578,-2.9603,-0.50088
-0.0035685,0.014923,-0.016466,0.038738,-0.031228,0.018022,-0.062856,0.14631,-0.64988,-0.0040813,-0.14494,-1.8173,-0.058438,-0.043372,0.12026,-1.3547,-0.010206,-0.090084,-0.2893,0.14244,-0.027987,0.00052923,-3.1721,-0.68767
0.0004632,0.011966,-0.0064295,0.040346,-0.0393,0.035942,-0.054063,0.20399,-0.61199,-0.1255,-0.072962,-1.9646,-0.068321,-0.038603,0.11187,-1.3227,-0.0022231,-0.077383,-0.35509,0.15682,-0.062966,-0.0044891,-3.097,-0.84419
0.0025279,0.0065088,0.0056226,0.043808,-0.048255,0.049809,-0.048679,0.25846,-0.59883,-0.2743,0.044051,-1.9647,-0.087795,-0.031774,0.11552,-1.13,0.0028344,-0.060615,-0.4041,0.17553,-0.093785,-0.0074738,-2.8914,-0.96779
-0.00040415,0.001369,0.016573,0.047561,-0.05162,0.059697,-0.046288,0.28228,-0.64014,-0.43555,0.17687,-1.8567,-0.11582,-0.027583,0.1262,-0.79071,0.0048781,-0.047164,-0.43125,0.19865,-0.1272,-0.014127,-2.7596,-1.0386
-0.0081929,-0.00054576,0.026371,0.05044,-0.045061,0.068609,-0.043721,0.26749,-0.73389,-0.58952,0.29571,-1.7361,-0.14705,-0.032521,0.1348,-0.36809,0.0041458,-0.04351,-0.43188,0.22432,-0.16552,-0.023606,-2.8661,-1.0596
-0.016651,0.0020818,0.03739,0.051743,-0.028286,0.078806,-0.038292,0.22589,-0.84045,-0.71886,0.38747,-1.6741,-0.17409,-0.050081,0.13393,0.057303,0.00010973,-0.05153,-0.40352,0.25117,-0.20486,-0.028969,-3.2636,-1.0703
-0.020111,0.0079672,0.051057,0.050776,-0.005053,0.088311,-0.030348,0.17648,-0.90668,-0.81292,0.45849,-1.6613,-0.19111,-0.076561,0.12241,0.42615,-0.0083061,-0.067459,-0.34883,0.2799,-0.23674,-0.022674,-3.8677,-1.1169
-0.015682,0.013732,0.065276,0.046918,0.018568,0.091375,-0.022823,0.13176,-0.89961,-0.86655,0.52133,-1.6178,-0.19652,-0.10132,0.10518,0.71959,-0.021382,-0.084226,-0.27806,0.31248,-0.2515,-0.0020404,-4.4903,-1.2095
-0.0057597,0.015927,0.075432,0.040508,0.036615,0.083168,-0.018347,0.093777,-0.82437,-0.87653,0.57816,-1.4557,-0.1933,-0.11235,0.089022,0.9497,-0.037476,-0.095569,-0.20781,0.34943,-0.24105,0.030282,-4.9178,-1.3079
0.0034247,0.013366,0.078201,0.033592,0.045103,0.064845,-0.01665,0.060642,-0.71677,-0.84122,0.6156,-1.1413,-0.18707,-0.10387,0.077441,1.1351,-0.053313,-0.099195,-0.15547,0.38757,-0.2002,0.070866,-4.995,-1.35
0.0063253,0.0080411,0.074588,0.029249,0.042747,0.044318,-0.014548,0.035618,-0.61988,-0.76432,0.61564,-0.71047,-0.18344,-0.080389,0.06869,1.2843,-0.065649,-0.097095,-0.13172,0.42023,-0.12722,0.12017,-4.6733,-1.2949
0.0022004,0.003756,0.069237,0.029505,0.030762,0.031589,-0.0084226,0.029244,-0.56152,-0.65814,0.57298,-0.2358,-0.18595,-0.053997,0.058117,1.3985,-0.072998,-0.093078,-0.13582,0.44009,-0.025418,0.18208,-4.003,-1.1396
-0.004422,0.0033815,0.066579,0.033461,0.012311,0.032282,0.0029786,0.05228,-0.54405,-0.54029,0.50377,0.21865,-0.19512,-0.036711,0.042632,1.4864,-0.076086,-0.089495,-0.15702,0.44287,0.09467,0.25806,-3.0828,-0.89734
-0.007348,0.0068406,0.067274,0.037484,-0.0081408,0.044738,0.017584,0.10552,-0.5481,-0.4242,0.4382,0.61552,-0.20861,-0.033568,0.023345,1.5718,-0.076765,-0.085471,-0.18103,0.42975,0.21484,0.34108,-2.0102,-0.56258
-0.0035762,0.011423,0.068105,0.037636,-0.025804,0.062888,0.031378,0.17523,-0.54637,-0.31121,0.40271,0.93045,-0.22231,-0.041709,0.0040459,1.6833,-0.076381,-0.077803,-0.19707,0.4074,0.31309,0.41524,-0.86577,-0.10514
0.0044008,0.014126,0.0653,0.032496,-0.037069,0.082049,0.040896,0.23841,-0.52097,-0.19288,0.40472,1.1332,-0.232,-0.055526,-0.013118,1.8312,-0.074867,-0.063698,-0.20087,0.38554,0.37133,0.46254,0.26698,0.49575
0.010618,0.014043,0.058244,0.02413,-0.041122,0.10223,0.045053,0.27426,-0.47582,-0.063535,0.43012,1.1921,-0.23522,-0.072788,-0.030873,1.9915,-0.07113,-0.043268,-0.1925,0.37331,0.38289,0.47185,1.2818,1.2047
0.01031,0.012838,0.050406,0.016479,-0.040635,0.12605,0.045218,0.27396,-0.43563,0.067148,0.45352,1.1005,-0.23237,-0.096018,-0.055821,2.1125,-0.064211,-0.019949,-0.17209,0.3761,0.35467,0.44391,2.0672,1.916
0.0035183,0.01304,0.046762,0.012534,-0.040675,0.15343,0.043589,0.24204,-0.42885,0.17382,0.45291,0.89748,-0.22649,-0.12814,-0.093682,2.1441,-0.054226,0.0014226,-0.13774,0.39391,0.30243,0.38906,2.5608,2.4908
-0.0051277,0.015717,0.049907,0.012472,-0.046051,0.17854,0.040966,0.18917,-0.46289,0.2302,0.41953,0.65544,-0.22199,-0.16709,-0.1446,2.0726,-0.042468,0.017404,-0.087589,0.42206,0.24228,0.32048,2.7971,2.8247
-0.010093,0.019543,0.057878,0.01389,-0.058558,0.19223,0.035521,0.12234,-0.50909,0.22828,0.35879,0.43909,-0.22295,-0.20522,-0.20237,1.936,-0.030803,0.02757,-0.024011,0.45345,0.18403,0.24819,2.9,2.8963
-0.0090301,0.021945,0.065225,0.013628,-0.07593,0.18844,0.023825,0.040123,-0.51144,0.18635,0.28429,0.26872,-0.23179,-0.23464,-0.25818,1.8061,-0.020916,0.033933,0.044283,0.48121,0.12989,0.17712,3.0116,2.7677
-0.0040851,0.021262,0.066419,0.0097215,-0.093315,0.16886,0.0039739,-0.063082,-0.41776,0.13817,0.21036,0.11908,-0.24873,-0.25361,-0.3058,1.7464,-0.013901,0.038869,0.10477,0.50047,0.077868,0.10898,3.2046,2.5414
0.00035674,0.018087,0.059158,0.0023235,-0.10641,0.1418,-0.021226,-0.18737,-0.21448,0.11085,0.14712,-0.045586,-0.27168,-0.26766,-0.34407,1.7721,-0.010187,0.043392,0.14718,0.50865,0.026401,0.044902,3.4451,2.3075
0.0014175,0.014772,0.045509,-0.0066394,-0.11412,0.11618,-0.043867,-0.32047,0.05846,0.10847,0.099422,-0.23062,-0.2966,-0.28382,-0.37518,1.8409,-0.0095426,0.047192,0.16902,0.50496,-0.02292,-0.013145,3.6314,2.1159
-0.00014514,0.013609,0.030369,-0.014624,-0.11883,0.095621,-0.054698,-0.44052,0.32419,0.11343,0.067843,-0.39822,-0.31801,-0.30311,-0.40082,1.8821,-0.010968,0.050147,0.17653,0.48997,-0.065385,-0.062773,3.6748,1.9781
-0.0010088,0.015187,0.018465,-0.01977,-0.12386,0.077623,-0.049175,-0.52741,0.50823,0.10392,0.049605,-0.49052,-0.32994,-0.31788,-0.41983,1.8445,-0.012667,0.053585,0.18051,0.46569,-0.095293,-0.10239,3.5548,1.8827
0.0015505,0.018113,0.011827,-0.021743,-0.12986,0.057932,-0.031456,-0.57401,0.57715,0.073345,0.038656,-0.46681,-0.32726,-0.31668,-0.42901,1.7298,-0.012492,0.059603,0.18991,0.43592,-0.10924,-0.13263,3.3082,1.8084
0.0071449,0.020154,0.0092143,-0.021717,-0.13282,0.035667,-0.012831,-0.58755,0.55454,0.037369,0.026429,-0.32551,-0.3073,-0.29214,-0.42589,1.5867,-0.0089971,0.068553,0.20736,0.40579,-0.10947,-0.15757,2.9711,1.7278
0.012483,0.019836,0.0076029,-0.021488,-0.12549,0.014521,-0.0050753,-0.57961,0.50664,0.024563,0.0053265,-0.099525,-0.27143,-0.24564,-0.41081,1.4721,-0.0026149,0.076814,0.22904,0.38029,-0.10548,-0.18499,2.5313,1.6131
0.014038,0.017391,0.0045158,-0.022217,-0.10172,-0.00080344,-0.013287,-0.5532,0.50702,0.058676,-0.025593,0.16319,-0.22568,-0.18535,-0.3867,1.409,0.0039675,0.077402,0.24816,0.36205,-0.11173,-0.22467,1.9347,1.4487
0.010874,0.014503,-0.00045799,-0.023627,-0.060712,-0.009302,-0.033406,-0.49879,0.59981,0.14506,-0.056997,0.41447,-0.17936,-0.12029,-0.35733,1.3726,0.0068491,0.063965,0.25904,0.35005,-0.14121,-0.28433,1.1393,1.2425
0.0052514,0.013115,-0.0058951,-0.024205,-0.008266,-0.014954,-0.05595,-0.40331,0.77949,0.2689,-0.072726,0.60881,-0.14164,-0.055353,-0.32588,1.3123,0.0030343,0.035741,0.25931,0.34022,-0.19797,-0.36527,0.17314,1.0203
0.00058413,0.014091,-0.010059,-0.022285,0.046071,-0.02331,-0.072678,-0.26489,0.99523,0.40429,-0.060442,0.70245,-0.11754,0.0094911,-0.2945,1.1891,-0.0076689,-0.00035456,0.24954,0.32792,-0.27356,-0.4601,-0.84954,0.79955
-0.0013652,0.016595,-0.012317,-0.017222,0.093829,-0.036424,-0.080953,-0.10024,1.1755,0.52728,-0.022268,0.6606,-0.10628,0.076505,-0.26427,1.001,-0.022348,-0.03267,0.23181,0.31087,-0.35038,-0.55487,-1.7634,0.56022
-0.0015355,0.01865,-0.013358,-0.0098833,0.13115,-0.050666,-0.083038,0.062074,1.2596,0.62572,0.024423,0.47361,-0.1038,0.14648,-0.23462,0.77828,-0.036619,-0.051185,0.20863,0.29034,-0.40987,-0.63412,-2.4138,0.24094
-0.0019908,0.018616,-0.014319,-0.0021601,0.15908,-0.059406,-0.082007,0.19702,1.2225,0.70177,0.059193,0.17052,-0.10779,0.21606,-0.2027,0.55785,-0.047109,-0.052923,0.1829,0.26997,-0.44039,-0.686,-2.7132,-0.22668
-0.00334,0.016614,-0.015881,0.0040791,0.18121,-0.058371,-0.078398,0.29536,1.081,0.7666,0.075021,-0.18403,-0.12127,0.27694,-0.16382,0.35952,-0.053029,-0.042652,0.15811,0.25318,-0.43977,-0.70438,-2.6718,-0.86365
-0.0037957,0.014733,-0.018168,0.0078809,0.20118,-0.049257,-0.070321,0.36441,0.88274,0.82997,0.084476,-0.51227,-0.15043,0.31783,-0.11369,0.18007,-0.055812,-0.028738,0.13784,0.24126,-0.41248,-0.68787,-2.3959,-1.6068
-0.00098692,0.0156,-0.02121,0.009413,0.22166,-0.038742,-0.056236,0.41952,0.68316,0.89003,0.10831,-0.75375,-0.19759,0.32927,-0.051054,0.0056423,-0.057329,-0.017641,0.12456,0.23341,-0.36458,-0.63783,-2.057,-2.318
0.0051052,0.020174,-0.025125,0.0094893,0.24439,-0.033811,-0.037355,0.47464,0.5222,0.9302,0.15499,-0.88615,-0.25492,0.3097,0.021263,-0.17104,-0.058313,-0.011169,0.11857,0.22821,-0.30043,-0.5572,-1.836,-2.8365
0.011072,0.026504,-0.029594,0.0089085,0.27024,-0.03713,-0.017434,0.53833,0.41177,0.92692,0.20958,-0.92521,-0.3054,0.26867,0.097808,-0.34228,-0.058295,-0.0078989,0.11814,0.22462,-0.22238,-0.45075,-1.8572,-3.0443
0.012337,0.030709,-0.033326,0.0081849,0.29832,-0.045823,-0.00035632,0.61401,0.33881,0.86526,0.24372,-0.90604,-0.3325,0.22364,0.1732,-0.48951,-0.05688,-0.0065847,0.12067,0.22156,-0.13224,-0.32542,-2.141,-2.9113
0.0070922,0.029722,-0.034437,0.0078279,0.3254,-0.054068,0.012149,0.70013,0.28101,0.75265,0.23989,-0.8599,-0.33201,0.1908,0.24397,-0.59404,-0.054896,-0.0081018,0.12353,0.2169,-0.03288,-0.18981,-2.5975,-2.504
-0.0016006,0.023756,-0.031812,0.0087262,0.34682,-0.057069,0.020759,0.78889,0.22509,0.61978,0.20911,-0.80137,-0.31678,0.17603,0.30855,-0.6461,-0.054079,-0.014294,0.12365,0.20761,0.070589,-0.053186,-3.068,-1.9608
-0.0077487,0.016358,-0.026245,0.011994,0.35883,-0.053386,0.026839,0.86713,0.17598,0.50562,0.18594,-0.73212,-0.30935,0.17286,0.36612,-0.64827,-0.055456,-0.025207,0.11639,0.19186,0.17049,0.075185,-3.3924,-1.4469
-0.0070946,0.01181,-0.020067,0.01813,0.36043,-0.044481,0.030463,0.92284,0.15065,0.43491,0.20395,-0.65431,-0.32703,0.16937,0.41595,-0.61391,-0.058027,-0.03766,0.095766,0.17131,0.25736,0.18627,-3.4682,-1.1006
-0.00065103,0.011834,-0.01532,0.026134,0.35308,-0.032644,0.029929,0.95419,0.16141,0.40319,0.27183,-0.5796,-0.37012,0.15844,0.45742,-0.56308,-0.059239,-0.046743,0.056904,0.15133,0.32225,0.27222,-3.279,-0.98558
0.0060046,0.01438,-0.012034,0.033525,0.33827,-0.019377,0.023138,0.97298,0.2015,0.38007,0.36943,-0.52404,-0.42169,0.14291,0.49,-0.51624,-0.057059,-0.048983,-9.7395e-005,0.13804,0.3601,0.3287,-2.8887,-1.0708
0.0072304,0.015559,-0.0082829,0.037577,0.31528,-0.0053728,0.009705,0.99745,0.24515,0.32911,0.46525,-0.49181,-0.45835,0.13158,0.51259,-0.48652,-0.051832,-0.044367,-0.068048,0.13418,0.37194,0.35736,-2.4114,-1.25
0.0019014,0.013131,-0.0021723,0.037004,0.28136,0.0084003,-0.0078449,1.0392,0.26359,0.23137,0.53959,-0.46296,-0.46397,0.13017,0.52271,-0.47247,-0.046123,-0.035423,-0.13443,0.13692,0.3645,0.36633,-1.969,-1.398
-0.0057545,0.0085012,0.0059259,0.032815,0.23418,0.019813,-0.0248,1.0958,0.24531,0.097233,0.59457,-0.39986,-0.43738,0.1353,0.51737,-0.45573,-0.042609,-0.024294,-0.18646,0.13956,0.34726,0.36739,-1.6437,-1.4317
-0.0097216,0.0054815,0.012942,0.02765,0.17451,0.025882,-0.036498,1.1562,0.20446,-0.039979,0.6461,-0.27441,-0.39111,0.13669,0.49559,-0.40659,-0.041929,-0.010537,-0.21621,0.13597,0.32878,0.37119,-1.4409,-1.3411
-0.0071209,0.0068783,0.01508,0.024113,0.10707,0.024246,-0.040635,1.2136,0.17003,-0.14327,0.70812,-0.099822,-0.34443,0.12538,0.46115,-0.29612,-0.042445,0.0083235,-0.22305,0.12426,0.31449,0.38332,-1.2847,-1.1713
-0.00040108,0.011915,0.010747,0.023398,0.039203,0.014963,-0.038114,1.2727,0.16388,-0.19084,0.78338,0.057687,-0.31597,0.10067,0.42236,-0.10985,-0.042032,0.033947,-0.21267,0.10723,0.30603,0.40315,-1.0587,-0.9785
0.0048661,0.016702,0.002135,0.025122,-0.021537,0.0014286,-0.03195,1.3422,0.18522,-0.18359,0.86606,0.10186,-0.31827,0.070461,0.38825,0.14313,-0.040092,0.064532,-0.19457,0.089501,0.30133,0.42517,-0.67821,-0.79572
0.0045371,0.017266,-0.0058411,0.028237,-0.06931,-0.010495,-0.025078,1.419,0.21387,-0.13905,0.94968,-0.043645,-0.35407,0.045468,0.36307,0.42925,-0.037885,0.094645,-0.17936,0.073968,0.29505,0.44115,-0.15051,-0.63256
-0.001041,0.012519,-0.0085553,0.032033,-0.10116,-0.015089,-0.01864,1.479,0.22858,-0.078815,1.0309,-0.3864,-0.41443,0.032692,0.34377,0.69892,-0.037022,0.11766,-0.17623,0.06036,0.28012,0.44235,0.42375,-0.49852
-0.0077579,0.004834,-0.0044656,0.036346,-0.11751,-0.0098618,-0.011814,1.4842,0.22436,-0.018959,1.1067,-0.84796,-0.48035,0.032898,0.32278,0.90293,-0.03782,0.12893,-0.18973,0.046498,0.25108,0.42206,0.91503,-0.41676
-0.011245,-0.0018827,0.0042739,0.040954,-0.12183,0.0029953,-0.003013,1.4029,0.21393,0.031605,1.1705,-1.2907,-0.52957,0.042495,0.29431,1.0121,-0.03927,0.12737,-0.21727,0.030749,0.20785,0.3787,1.2526,-0.40837
-0.010025,-0.0047619,0.013751,0.044938,-0.11887,0.018163,0.0087199,1.2256,0.21311,0.067211,1.2147,-1.5757,-0.54637,0.056583,0.25929,1.0314,-0.040697,0.11468,-0.24934,0.013356,0.15693,0.31774,1.468,-0.46175
-0.0059267,-0.0032735,0.021292,0.046826,-0.11195,0.031052,0.023184,0.96735,0.22449,0.08247,1.2384,-1.6203,-0.52865,0.070207,0.22428,0.99889,-0.043333,0.093291,-0.27414,-0.0043027,0.10793,0.25056,1.6579,-0.52379
-0.0020045,0.0011669,0.027255,0.045595,-0.10107,0.041164,0.03948,0.65862,0.23465,0.074245,1.2532,-1.4274,-0.48684,0.0779,0.195,0.96576,-0.050043,0.064881,-0.28423,-0.021441,0.06748,0.18989,1.8948,-0.53423
-0.00015909,0.0063756,0.034244,0.041703,-0.083638,0.05213,0.056691,0.33609,0.2275,0.046534,1.279,-1.0762,-0.43496,0.073822,0.16948,0.96798,-0.063091,0.030576,-0.28049,-0.03866,0.035167,0.14446,2.1592,-0.48356
-0.0003721,0.010386,0.044365,0.037102,-0.057609,0.068125,0.074012,0.040471,0.20117,0.012294,1.3305,-0.68199,-0.38007,0.05396,0.13679,1.008,-0.081798,-0.0075058,-0.26997,-0.056901,0.005331,0.11658,2.354,-0.44439
-0.0016003,0.012023,0.056716,0.033905,-0.024428,0.089596,0.090389,-0.18507,0.17217,-0.011714,1.4044,-0.34966,-0.31738,0.019131,0.083354,1.0609,-0.10212,-0.045024,-0.25942,-0.075549,-0.026579,0.10366,2.3917,-0.539
-0.0029709,0.011285,0.067226,0.032624,0.011455,0.11215,0.10437,-0.30582,0.16235,-0.014713,1.4779,-0.13906,-0.23333,-0.023963,0.0026032,1.1023,-0.11863,-0.075916,-0.25014,-0.091723,-0.05866,0.1016,2.2851,-0.85455
-0.004144,0.0094659,0.071149,0.031491,0.04663,0.12993,0.11472,-0.31564,0.18005,0.0010216,1.5222,-0.054964,-0.11293,-0.065078,-0.098931,1.1344,-0.12751,-0.094808,-0.23914,-0.10194,-0.083173,0.10649,2.1601,-1.3634
-0.0049429,0.0086006,0.066399,0.027702,0.082898,0.14074,0.1213,-0.2515,0.21239,0.021977,1.521,-0.059463,0.0543,-0.094913,-0.20373,1.1896,-0.12846,-0.099953,-0.22551,-0.10522,-0.092743,0.11357,2.176,-1.909
-0.0050846,0.010197,0.055148,0.019822,0.12718,0.1482,0.12524,-0.18494,0.23574,0.0335,1.481,-0.096906,0.27135,-0.10894,-0.29228,1.3058,-0.12454,-0.094717,-0.21597,-0.10498,-0.08658,0.11591,2.4105,-2.2746
-0.0044318,0.014018,0.042488,0.0093834,0.18604,0.1585,0.12781,-0.18906,0.23492,0.030632,1.4253,-0.11858,0.53132,-0.10862,-0.35303,1.494,-0.12032,-0.086401,-0.22332,-0.10782,-0.071028,0.10588,2.8011,-2.294
-0.0033335,0.017988,0.03322,0.00014017,0.25849,0.17419,0.12878,-0.30077,0.21391,0.021101,1.3766,-0.097675,0.81408,-0.10006,-0.38689,1.7239,-0.11958,-0.082768,-0.25795,-0.11934,-0.053943,0.079966,3.1879,-1.9379
-0.00244,0.019528,0.029145,-0.0046681,0.33295,0.19034,0.12583,-0.50463,0.18894,0.017972,1.341,-0.031897,1.0854,-0.091179,-0.40405,1.9395,-0.12357,-0.088024,-0.31846,-0.13997,-0.038162,0.043326,3.4229,-1.3248
-0.0020353,0.017378,0.028616,-0.004899,0.39139,0.19698,0.11612,-0.74882,0.17111,0.027932,1.3045,0.063012,1.3047,-0.088583,-0.41603,2.0915,-0.13029,-0.10033,-0.38959,-0.1642,-0.020305,0.0092405,3.4613,-0.65614
-0.0016157,0.012502,0.028165,-0.003742,0.41815,0.1864,0.099039,-0.97898,0.15503,0.044794,1.2437,0.1631,1.4408,-0.094824,-0.42849,2.1595,-0.13508,-0.11218,-0.44964,-0.18401,0.0036972,-0.0078108,3.3693,-0.11571
-0.00030488,0.0073844,0.024659,-0.005312,0.4074,0.15946,0.078018,-1.1639,0.12396,0.053459,1.1412,0.24549,1.4884,-0.107,-0.43928,2.1503,-0.13252,-0.11358,-0.48196,-0.19415,0.031303,-0.0014742,3.253,0.21127
0.0021566,0.0043451,0.016546,-0.011518,0.36437,0.12578,0.059429,-1.298,0.066206,0.040777,0.9936,0.29605,1.47,-0.11798,-0.44238,2.0787,-0.11892,-0.096612,-0.48128,-0.19484,0.051386,0.021571,3.1734,0.35991
0.0047914,0.0041805,0.0039736,-0.020698,0.30047,0.09742,0.048983,-1.3863,-0.012693,0.0042031,0.80856,0.31534,1.4197,-0.12051,-0.43424,1.952,-0.094085,-0.058973,-0.45054,-0.18994,0.05054,0.045294,3.1143,0.44277
0.0058579,0.0060375,-0.011506,-0.028976,0.22669,0.081087,0.048078,-1.4331,-0.093125,-0.048328,0.59681,0.32084,1.3581,-0.11216,-0.41789,1.7716,-0.061182,-0.0044421,-0.3919,-0.18204,0.023543,0.054352,3.0191,0.5718
0.0041776,0.008369,-0.027185,-0.033039,0.15002,0.074949,0.053,-1.4432,-0.15683,-0.10588,0.36759,0.34275,1.2788,-0.097475,-0.4019,1.5458,-0.024613,0.06022,-0.30134,-0.1693,-0.020333,0.043224,2.853,0.79158
0.00025954,0.010086,-0.03967,-0.032085,0.074351,0.072001,0.057809,-1.4312,-0.20075,-0.16181,0.13115,0.4128,1.1558,-0.084899,-0.39496,1.2973,0.012448,0.12982,-0.17287,-0.14701,-0.060937,0.01778,2.6341,1.0625
-0.0037604,0.011066,-0.046095,-0.027692,0.0032522,0.066552,0.058919,-1.4227,-0.23771,-0.2148,-0.09661,0.55088,0.9691,-0.079981,-0.40004,1.0514,0.048922,0.20322,-0.0090818,-0.11295,-0.079314,-0.011385,2.4095,1.2992
-0.0054398,0.011829,-0.045771,-0.022188,-0.058656,0.058243,0.057829,-1.4395,-0.28477,-0.2646,-0.2949,0.75735,0.7271,-0.07968,-0.41202,0.81572,0.084481,0.28141,0.17212,-0.071869,-0.070249,-0.038033,2.2077,1.4328
-0.003696,0.012811,-0.041085,-0.017117,-0.10692,0.050773,0.059732,-1.4814,-0.35003,-0.3091,-0.44632,1.0153,0.4698,-0.072658,-0.42035,0.56796,0.11737,0.36228,0.34251,-0.034654,-0.046734,-0.064381,2.0117,1.4535
0.00037544,0.013858,-0.036512,-0.012867,-0.13935,0.047436,0.068868,-1.5204,-0.42832,-0.34705,-0.54677,1.2992,0.2516,-0.046096,-0.41475,0.26771,0.14364,0.43647,0.47814,-0.012454,-0.033575,-0.097435,1.7791,1.406
0.0041307,0.014281,-0.035997,-0.0091987,-0.15666,0.047953,0.084332,-1.517,-0.50665,-0.38365,-0.60793,1.5823,0.1166,0.0054166,-0.39008,-0.11367,0.1588,0.48883,0.57247,-0.0098923,-0.054762,-0.14146,1.4839,1.3517
0.0050647,0.01336,-0.040407,-0.0057708,-0.16108,0.049238,0.099945,-1.4469,-0.57286,-0.43136,-0.6495,1.8361,0.082116,0.075278,-0.34761,-0.56572,0.1607,0.50557,0.63743,-0.02252,-0.12278,-0.19342,1.1405,1.3294
0.0024679,0.010904,-0.046958,-0.0021591,-0.15468,0.048649,0.1087,-1.3173,-0.6201,-0.50152,-0.68694,2.029,0.13689,0.14785,-0.29262,-1.0344,0.15118,0.4828,0.69188,-0.040155,-0.23535,-0.24508,0.78728,1.3397
-0.0020321,0.007476,-0.051104,0.0022476,-0.1391,0.046142,0.10837,-1.1605,-0.64633,-0.59199,-0.72446,2.131,0.24985,0.20692,-0.2308,-1.4448,0.13533,0.42994,0.74769,-0.053301,-0.37923,-0.28941,0.44829,1.3528
-0.0054533,0.0041811,-0.049563,0.0078634,-0.11669,0.043357,0.1036,-1.0112,-0.65216,-0.68193,-0.75779,2.1291,0.38167,0.24381,-0.16605,-1.737,0.11877,0.3653,0.80471,-0.057984,-0.53651,-0.32532,0.11197,1.3203
-0.0054084,0.0021623,-0.042362,0.014088,-0.091137,0.041067,0.10249,-0.88635,-0.63968,-0.74065,-0.78287,2.0423,0.49514,0.2601,-0.1006,-1.8958,0.10521,0.30679,0.8573,-0.056179,-0.68928,-0.35684,-0.25299,1.1851
-0.0017511,0.0020705,-0.032667,0.018932,-0.066369,0.038054,0.11052,-0.78125,-0.61202,-0.74579,-0.8017,1.921,0.56385,0.26394,-0.036458,-1.9577,0.095579,0.26405,0.90416,-0.052571,-0.82154,-0.38829,-0.66135,0.89636
0.0032856,0.0037548,-0.024832,0.019878,-0.04446,0.032695,0.12688,-0.68075,-0.57197,-0.69698,-0.82036,1.8259,0.57839,0.26349,0.02379,-1.9949,0.088798,0.23659,0.95079,-0.050667,-0.91995,-0.42011,-1.0931,0.43627
0.0066877,0.0063135,-0.022175,0.015715,-0.024784,0.025406,0.14629,-0.57354,-0.52084,-0.61374,-0.84234,1.7975,0.5472,0.26213,0.07744,-2.0809,0.083003,0.21787,1.0021,-0.050949,-0.97462,-0.44899,-1.5149,-0.15322
0.0068851,0.0085389,-0.025773,0.0079328,-0.0055345,0.018925,0.16416,-0.45761,-0.45992,-0.51891,-0.86422,1.8434,0.48951,0.25812,0.12285,-2.2549,0.076346,0.20103,1.0528,-0.051643,-0.97975,-0.47116,-1.9234,-0.77524
0.0048455,0.0096031,-0.034512,0.00031199,0.013747,0.015665,0.18003,-0.33613,-0.3943,-0.42118,-0.87844,1.9505,0.42328,0.24815,0.15998,-2.4984,0.067388,0.18233,1.0864,-0.050797,-0.93351,-0.48484,-2.367,-1.3266
0.0030564,0.0096075,-0.045858,-0.0033271,0.031297,0.014687,0.19606,-0.21118,-0.33456,-0.31056,-0.8804,2.1129,0.35571,0.23123,0.18973,-2.7385,0.055498,0.16127,1.0858,-0.04789,-0.83802,-0.48928,-2.9166,-1.7632
0.0032,0.0095359,-0.05681,-0.0016537,0.045054,0.011688,0.21228,-0.082813,-0.29213,-0.16998,-0.87294,2.3455,0.28285,0.21015,0.2128,-2.8792,0.041346,0.13907,1.0474,-0.043959,-0.70072,-0.48167,-3.6027,-2.1289
0.0046011,0.01045,-0.064925,0.0033171,0.055555,0.0026765,0.22405,0.046405,-0.27016,0.007052,-0.86352,2.6665,0.19773,0.18957,0.22911,-2.8485,0.027044,0.11793,0.98642,-0.04046,-0.53712,-0.45603,-4.3681,-2.5172
0.0049662,0.012385,-0.069322,0.007753,0.06664,-0.011799,0.2248,0.16688,-0.25805,0.20682,-0.85626,3.0609,0.099972,0.17253,0.23828,-2.6339,0.015472,0.10139,0.92898,-0.037838,-0.37149,-0.40654,-5.0782,-2.9894
0.0028275,0.013845,-0.07115,0.0087566,0.082614,-0.026058,0.21188,0.2627,-0.23714,0.40039,-0.84619,3.4585,-0.00086953,0.15841,0.24056,-2.2888,0.0090161,0.094551,0.89668,-0.034823,-0.23131,-0.33288,-5.5876,-3.5151
-0.00065853,0.012562,-0.07282,0.0062418,0.10401,-0.033425,0.19003,0.31782,-0.19472,0.55844,-0.82107,3.7523,-0.089788,0.14377,0.23724,-1.9052,0.008491,0.1027,0.8951,-0.028951,-0.13552,-0.24275,-5.8132,-3.984
-0.0024832,0.0071813,-0.076023,0.0026166,0.12582,-0.031763,0.16842,0.32346,-0.13441,0.66482,-0.76973,3.8523,-0.15372,0.12568,0.2301,-1.5733,0.012951,0.12841,0.91401,-0.018001,-0.083035,-0.14802,-5.7639,-4.2796
-0.00061478,-0.001344,-0.079887,0.00073122,0.1402,-0.025455,0.15369,0.28213,-0.072145,0.72079,-0.69036,3.7366,-0.18602,0.10466,0.22084,-1.3511,0.020341,0.16884,0.93633,-0.0015061,-0.050841,-0.056865,-5.5112,-4.3515
0.0038174,-0.0099065,-0.081097,0.0018218,0.14186,-0.021902,0.14493,0.20667,-0.019564,0.73959,-0.59213,3.462,-0.18667,0.084778,0.21097,-1.254,0.028334,0.21512,0.94704,0.018535,-0.0059487,0.031881,-5.1348,-4.2332
0.0073186,-0.015087,-0.076525,0.0049757,0.13154,-0.025513,0.13557,0.11552,0.030094,0.73669,-0.48966,3.1262,-0.16102,0.070643,0.20232,-1.2603,0.034753,0.25468,0.93567,0.038172,0.074779,0.12688,-4.6875,-3.9989
0.0073186,-0.015432,-0.066604,0.0082713,0.11478,-0.034437,0.12025,0.026786,0.099029,0.72144,-0.39556,2.8087,-0.12025,0.063539,0.1974,-1.3223,0.037685,0.2754,0.89366,0.052965,0.19037,0.23573,-4.1972,-3.7068
0.0048389,-0.012423,-0.05642,0.010439,0.096792,-0.042728,0.10067,-0.046661,0.20496,0.69352,-0.31704,2.5335,-0.081585,0.060016,0.19874,-1.3798,0.035819,0.26966,0.81291,0.059684,0.31766,0.35608,-3.6853,-3.3767
0.0037234,-0.0093307,-0.052919,0.011655,0.078037,-0.045689,0.084852,-0.099763,0.34077,0.64454,-0.25753,2.2754,-0.064399,0.054279,0.20752,-1.3801,0.02921,0.23621,0.68968,0.05753,0.42831,0.47332,-3.1657,-3.0125
0.0068503,-0.0087891,-0.059887,0.012973,0.054477,-0.043375,0.080587,-0.13485,0.47229,0.56411,-0.21969,1.9976,-0.080322,0.042685,0.22267,-1.3009,0.01986,0.1797,0.5309,0.048418,0.50817,0.56693,-2.6219,-2.6352
0.012869,-0.010966,-0.074692,0.015063,0.022582,-0.039304,0.088791,-0.15875,0.55782,0.44781,-0.20535,1.6869,-0.12283,0.026787,0.24136,-1.1623,0.011232,0.10876,0.35607,0.036288,0.56439,0.62097,-1.9936,-2.2916
0.016841,-0.013744,-0.089791,0.017414,-0.015133,-0.036082,0.10259,-0.17892,0.57433,0.30292,-0.21255,1.3593,-0.16563,0.012406,0.26073,-1.0144,0.0066079,0.033802,0.19111,0.025718,0.61594,0.6315,-1.2092,-2.032
0.014567,-0.014687,-0.098178,0.018635,-0.049184,-0.032444,0.11252,-0.20071,0.52988,0.14795,-0.23416,1.0401,-0.17523,0.0053344,0.27949,-0.90563,0.0072956,-0.03476,0.057072,0.020399,0.67583,0.60692,-0.25827,-1.8792
0.0067095,-0.013128,-0.098512,0.017527,-0.068403,-0.024573,0.11309,-0.2265,0.45378,0.0048497,-0.26156,0.74047,-0.13224,0.0070327,0.29797,-0.85206,0.012049,-0.088437,-0.038478,0.022012,0.73969,0.56212,0.75321,-1.8154
-0.0013005,-0.010679,-0.095695,0.01395,-0.067863,-0.010283,0.1054,-0.25653,0.37432,-0.11118,-0.29163,0.45317,-0.046973,0.013724,0.31665,-0.83417,0.018008,-0.1228,-0.10218,0.029938,0.78904,0.51146,1.6285,-1.7912
-0.0037703,-0.0098267,-0.096422,0.0088483,-0.053229,0.0080503,0.094449,-0.28973,0.30212,-0.19694,-0.33014,0.16639,0.043427,0.019653,0.33457,-0.82118,0.022169,-0.13893,-0.14858,0.041725,0.80527,0.46429,2.1903,-1.7432
0.0003562,-0.011899,-0.10345,0.003554,-0.037729,0.024568,0.084491,-0.3241,0.22998,-0.2573,-0.38652,-0.12082,0.096773,0.021926,0.34905,-0.80115,0.02215,-0.14262,-0.19226,0.053902,0.78267,0.42425,2.4037,-1.6061
0.0067337,-0.016129,-0.11341,-0.00090214,-0.033619,0.033954,0.076681,-0.35673,0.1459,-0.29534,-0.46241,-0.39744,0.092036,0.022973,0.35715,-0.78974,0.016081,-0.14092,-0.24308,0.062748,0.73059,0.39058,2.4116,-1.3237
0.009713,-0.020457,-0.11985,-0.0039807,-0.04447,0.034745,0.070184,-0.38436,0.047038,-0.30541,-0.54341,-0.6525,0.041222,0.028431,0.35768,-0.81039,0.0025565,-0.13794,-0.30524,0.064952,0.6649,0.35974,2.4445,-0.86558
0.0074596,-0.023206,-0.11878,-0.0054787,-0.064048,0.029211,0.06464,-0.40475,-0.055283,-0.27608,-0.60275,-0.88565,-0.021582,0.041841,0.35201,-0.86446,-0.018577,-0.13308,-0.37802,0.058447,0.59666,0.32688,2.667,-0.24978
0.0033217,-0.024137,-0.1119,-0.0055237,-0.082313,0.020383,0.061158,-0.41761,-0.1408,-0.20157,-0.61641,-1.1045,-0.06504,0.060302,0.34303,-0.91736,-0.045209,-0.1235,-0.45686,0.043369,0.52759,0.28768,3.0794,0.44468
0.0022946,-0.024131,-0.10504,-0.0048368,-0.09338,0.0092536,0.06125,-0.42451,-0.19022,-0.092413,-0.57913,-1.3118,-0.080102,0.074832,0.33324,-0.91197,-0.073216,-0.10905,-0.53492,0.022499,0.45462,0.24026,3.5455,1.095
0.0060843,-0.024071,-0.10354,-0.0047816,-0.09898,-0.0053434,0.065385,-0.42764,-0.19331,0.024055,-0.50904,-1.4965,-0.08041,0.075747,0.3236,-0.79853,-0.098559,-0.095642,-0.60599,0.00034173,0.37885,0.18638,3.9141,1.5807
0.011484,-0.02409,-0.10855,-0.0067149,-0.10506,-0.024287,0.072826,-0.42887,-0.1514,0.11524,-0.43639,-1.6385,-0.085873,0.059334,0.31397,-0.56039,-0.11982,-0.093506,-0.66762,-0.019117,0.31055,0.13093,4.1225,1.8349
0.013459,-0.023781,-0.1171,-0.01091,-0.11514,-0.045644,0.082529,-0.42981,-0.074406,0.15912,-0.38491,-1.7243,-0.10471,0.030834,0.30445,-0.22208,-0.13882,-0.11137,-0.7219,-0.034585,0.26589,0.079673,4.2007,1.869
0.0098244,-0.022925,-0.12517,-0.016049,-0.12659,-0.06452,0.093555,-0.43269,0.025092,0.15365,-0.35946,-1.7589,-0.1284,0.0013945,0.29603,0.15972,-0.15843,-0.15109,-0.77301,-0.047745,0.25759,0.036741,4.1888,1.7584
0.003085,-0.021804,-0.13067,-0.02003,-0.13306,-0.075708,0.10422,-0.44072,0.13656,0.11394,-0.34832,-1.7658,-0.14133,-0.018667,0.28976,0.51495,-0.17927,-0.20715,-0.82335,-0.061166,0.28649,0.0031113,4.0624,1.6035
-0.002032,-0.020761,-0.13405,-0.02163,-0.1304,-0.077165,0.11117,-0.457,0.25177,0.060717,-0.33643,-1.7737,-0.13434,-0.025232,0.28524,0.78188,-0.19849,-0.27127,-0.87134,-0.075544,0.34009,-0.023205,3.7455,1.4955
-0.0027049,-0.019576,-0.13668,-0.02154,-0.12066,-0.071609,0.11033,-0.48273,0.36126,0.0087716,-0.31766,-1.8019,-0.11003,-0.020787,0.28008,0.92772,-0.2118,-0.33777,-0.91241,-0.088802,0.39893,-0.045888,3.1974,1.5035
0.00010575,-0.017572,-0.13915,-0.021643,-0.11053,-0.064818,0.099887,-0.51597,0.45203,-0.037539,-0.29666,-1.8515,-0.076845,-0.010701,0.27119,0.96149,-0.21723,-0.40455,-0.94122,-0.098019,0.44637,-0.068855,2.4876,1.6745
0.0033647,-0.014574,-0.14088,-0.022996,-0.10596,-0.061631,0.083032,-0.5518,0.51125,-0.080958,-0.28029,-1.907,-0.039715,0.00059967,0.25694,0.93003,-0.21693,-0.46929,-0.95241,-0.10238,0.4756,-0.095111,1.7771,2.0263
0.0050531,-0.01179,-0.14093,-0.024373,-0.10803,-0.062488,0.067293,-0.58303,0.53459,-0.12464,-0.26776,-1.944,0.0033047,0.010367,0.2384,0.89275,-0.21535,-0.52507,-0.93969,-0.1042,0.49064,-0.12575,1.2186,2.525
0.0054692,-0.011432,-0.13879,-0.02295,-0.11344,-0.063198,0.059872,-0.60013,0.53054,-0.16745,-0.24888,-1.9403,0.055857,0.015761,0.21813,0.88511,-0.21502,-0.5604,-0.89564,-0.10676,0.50229,-0.15885,0.85977,3.0683
0.0058398,-0.014965,-0.13448,-0.016771,-0.11855,-0.058388,0.06199,-0.59028,0.51351,-0.20353,-0.21205,-1.8876,0.11577,0.012916,0.19758,0.89341,-0.21391,-0.56421,-0.81486,-0.111,0.52247,-0.18865,0.63517,3.503
0.0062358,-0.021363,-0.12833,-0.0068696,-0.1229,-0.046216,0.066935,-0.53803,0.48916,-0.22526,-0.15554,-1.7972,0.17308,-0.00098534,0.17539,0.86121,-0.20664,-0.53144,-0.69913,-0.1143,0.55967,-0.20596,0.44651,3.6891
0.0052949,-0.027143,-0.12095,0.0030278,-0.12892,-0.030623,0.064061,-0.43071,0.44613,-0.2272,-0.092239,-1.6965,0.21575,-0.024234,0.14832,0.72674,-0.18874,-0.46413,-0.56002,-0.11273,0.6161,-0.20094,0.25521,3.5766
0.0020485,-0.028621,-0.11343,0.0091637,-0.13869,-0.019039,0.046224,-0.26879,0.36572,-0.20922,-0.043472,-1.6145,0.23804,-0.049689,0.1145,0.4677,-0.16044,-0.36786,-0.41538,-0.10469,0.68561,-0.16799,0.10433,3.2434
-0.0022817,-0.024786,-0.10693,0.010551,-0.15136,-0.017029,0.015007,-0.076034,0.24413,-0.17753,-0.025723,-1.565,0.2445,-0.068631,0.076121,0.12235,-0.12688,-0.24787,-0.28089,-0.092488,0.75261,-0.11084,0.057467,2.8575
-0.0047198,-0.018345,-0.10199,0.0094861,-0.16373,-0.024022,-0.020496,0.099845,0.10665,-0.14331,-0.039481,-1.5371,0.24667,-0.077155,0.039136,-0.22655,-0.094508,-0.10929,-0.16263,-0.080326,0.79366,-0.044596,0.1185,2.5807
-0.0030809,-0.013861,-0.0979,0.0093877,-0.17343,-0.0336,-0.050497,0.20186,-0.0040294,-0.1191,-0.06814,-1.5004,0.25506,-0.08011,0.0097401,-0.49141,-0.066806,0.039363,-0.056655,-0.070762,0.78341,0.0076138,0.20783,2.4753
0.0017792,-0.014348,-0.093152,0.011977,-0.18114,-0.038164,-0.07157,0.18967,-0.060158,-0.11439,-0.087897,-1.4206,0.27219,-0.08918,-0.0095492,-0.61516,-0.042628,0.18416,0.044302,-0.063111,0.70411,0.023234,0.21319,2.4785
0.0062931,-0.019055,-0.086748,0.016272,-0.18954,-0.034184,-0.088369,0.062111,-0.075022,-0.1328,-0.082116,-1.2743,0.29083,-0.11621,-0.021062,-0.58383,-0.018378,0.309,0.14223,-0.055329,0.55487,-0.0097428,0.063844,2.4621
0.006963,-0.024224,-0.079082,0.020061,-0.19959,-0.023898,-0.10881,-0.13978,-0.097232,-0.17204,-0.050903,-1.0547,0.29806,-0.16633,-0.029545,-0.41992,0.0079032,0.40228,0.23059,-0.047281,0.35505,-0.086616,-0.23985,2.3322
0.003136,-0.026098,-0.071443,0.022186,-0.20799,-0.012465,-0.13684,-0.35327,-0.17427,-0.22581,-0.010296,-0.76899,0.28319,-0.23496,-0.038396,-0.17161,0.033987,0.46138,0.29904,-0.041862,0.1388,-0.18727,-0.66284,2.0974
-0.0026803,-0.0237,-0.064448,0.023428,-0.20861,-0.003403,-0.16859,-0.5256,-0.31483,-0.28559,0.017306,-0.43584,0.24496,-0.30974,-0.047833,0.094615,0.054527,0.49125,0.34215,-0.042608,-0.057481,-0.28437,-1.1966,1.8544
-0.0071361,-0.019247,-0.056926,0.025333,-0.19745,0.0037064,-0.19505,-0.63564,-0.48238,-0.34091,0.014598,-0.086438,0.19407,-0.37521,-0.056231,0.30627,0.064936,0.49896,0.36474,-0.050051,-0.20814,-0.35403,-1.8839,1.7029
-0.0088095,-0.016164,-0.046545,0.028428,-0.17707,0.011702,-0.20856,-0.69266,-0.62572,-0.37939,-0.024084,0.23467,0.14841,-0.41768,-0.062893,0.41178,0.064937,0.48912,0.37908,-0.060541,-0.30504,-0.38349,-2.7831,1.6532
-0.0089815,-0.016473,-0.031828,0.031695,-0.15619,0.022408,-0.20815,-0.71726,-0.7194,-0.38911,-0.093196,0.47869,0.12303,-0.42849,-0.069397,0.41366,0.058945,0.46319,0.39551,-0.068968,-0.35524,-0.37294,-3.9004,1.5977
-0.0099166,-0.019568,-0.013833,0.033737,-0.14428,0.034548,-0.19943,-0.72212,-0.77869,-0.36376,-0.18058,0.61324,0.12129,-0.40534,-0.078319,0.38011,0.052979,0.42117,0.41397,-0.07291,-0.37287,-0.33212,-5.1471,1.3726
-0.012414,-0.023026,0.0041276,0.034241,-0.14492,0.044547,-0.18976,-0.70643,-0.83743,-0.3079,-0.27219,0.64289,0.13362,-0.35172,-0.090681,0.41253,0.050651,0.36255,0.42386,-0.074182,-0.37116,-0.27485,-6.3512,0.87067
-0.014931,-0.024525,0.01863,0.034106,-0.15343,0.04901,-0.18308,-0.66299,-0.91126,-0.2373,-0.35513,0.61118,0.14553,-0.27485,-0.10453,0.57964,0.051534,0.28585,0.41386,-0.076172,-0.35917,-0.21386,-7.3123,0.13004
-0.015032,-0.023358,0.028401,0.034097,-0.16083,0.046501,-0.1782,-0.58629,-0.98077,-0.17212,-0.4201,0.57673,0.14893,-0.18346,-0.1158,0.86376,0.053106,0.18956,0.38477,-0.079514,-0.34259,-0.1572,-7.864,-0.66241
-0.011802,-0.020639,0.034818,0.033593,-0.16099,0.037536,-0.17169,-0.47314,-1.0097,-0.12622,-0.46412,0.57702,0.14819,-0.086779,-0.12065,1.1651,0.054367,0.07613,0.35486,-0.080517,-0.32547,-0.10652,-7.9177,-1.2594
-0.0070461,-0.01833,0.040366,0.03103,-0.15509,0.02363,-0.16188,-0.31974,-0.98002,-0.099988,-0.49239,0.60792,0.15654,0.0052957,-0.11749,1.3678,0.057716,-0.043415,0.35086,-0.074283,-0.31013,-0.058026,-7.4842,-1.4794
-0.0041554,-0.017901,0.046522,0.025885,-0.14977,0.0067825,-0.15042,-0.12499,-0.91153,-0.082182,-0.51693,0.6379,0.18658,0.082406,-0.10755,1.4204,0.067249,-0.14962,0.38889,-0.059931,-0.29599,-0.0064904,-6.674,-1.2954
-0.0055446,-0.019454,0.052949,0.020202,-0.15075,-0.010375,-0.14021,0.097791,-0.84632,-0.059871,-0.55127,0.64766,0.24363,0.1365,-0.094153,1.3676,0.084897,-0.22207,0.45847,-0.042968,-0.27983,0.049147,-5.6686,-0.83574
-0.0107,-0.02174,0.058558,0.017757,-0.15747,-0.024711,-0.13195,0.31282,-0.81334,-0.028608,-0.60408,0.66029,0.32695,0.16657,-0.081285,1.309,0.1079,-0.25017,0.52319,-0.032175,-0.25822,0.10244,-4.6529,-0.30073
-0.016411,-0.022989,0.063219,0.021036,-0.16343,-0.033672,-0.12289,0.47154,-0.80394,0.005309,-0.67593,0.7306,0.43595,0.18146,-0.07222,1.3228,0.13,-0.23902,0.5406,-0.033231,-0.23007,0.14194,-3.728,0.15025
-0.019038,-0.02204,0.068313,0.028569,-0.16181,-0.036643,-0.10906,0.53972,-0.78,0.032197,-0.76071,0.89555,0.57334,0.19637,-0.068459,1.4165,0.14546,-0.20562,0.48909,-0.044424,-0.1963,0.15929,-2.8594,0.47232
-0.017123,-0.019095,0.075541,0.035239,-0.15129,-0.035228,-0.088987,0.52219,-0.70719,0.049476,-0.84907,1.1261,0.73986,0.22301,-0.069396,1.541,0.15245,-0.16827,0.38286,-0.058185,-0.15663,0.15727,-1.9164,0.72675
-0.012392,-0.015583,0.085115,0.035801,-0.13727,-0.031995,-0.065684,0.46221,-0.58523,0.065912,-0.93018,1.3278,0.92378,0.25976,-0.073054,1.6445,0.15314,-0.13752,0.26287,-0.067222,-0.1069,0.15096,-0.79577,1.0018
-0.0084302,-0.013217,0.095209,0.028868,-0.12756,-0.028774,-0.04523,0.41189,-0.45138,0.09544,-0.99149,1.3999,1.0944,0.2898,-0.077794,1.7102,0.15056,-0.11515,0.16961,-0.070122,-0.041219,0.1591,0.45545,1.3216
-0.0080234,-0.012862,0.10341,0.01796,-0.1266,-0.025966,-0.03319,0.39587,-0.35735,0.14533,-1.0203,1.3129,1.2074,0.29054,-0.084007,1.7452,0.14558,-0.10018,0.1168,-0.071799,0.041381,0.19081,1.6303,1.6099
-0.01115,-0.014043,0.109,0.0086291,-0.13278,-0.023189,-0.031628,0.39792,-0.33994,0.2084,-1.0105,1.1383,1.2221,0.24835,-0.094326,1.7412,0.13672,-0.094574,0.085094,-0.078571,0.13083,0.23727,2.4955,1.736
-0.01509,-0.015363,0.11395,0.0040902,-0.14066,-0.020183,-0.038562,0.38142,-0.40565,0.26565,-0.97212,1.0021,1.1207,0.16793,-0.11166,1.6569,0.123,-0.10257,0.039432,-0.092085,0.20695,0.27558,2.9729,1.6064
-0.016516,-0.015395,0.12134,0.003049,-0.14545,-0.016902,-0.049693,0.325,-0.53341,0.29762,-0.9331,0.99343,0.91784,0.068993,-0.13611,1.4487,0.10712,-0.12374,-0.043838,-0.10711,0.24885,0.28276,3.2108,1.2327
-0.013962,-0.013326,0.1323,0.0014167,-0.14608,-0.012955,-0.060979,0.24225,-0.68544,0.29561,-0.92817,1.1004,0.65576,-0.026987,-0.16328,1.1259,0.095818,-0.14617,-0.16022,-0.11484,0.24731,0.25048,3.469,0.72101
-0.0087923,-0.0090452,0.14405,-0.0038854,-0.14504,-0.007537,-0.070696,0.16966,-0.81682,0.26528,-0.97661,1.2242,0.3865,-0.10937,-0.18572,0.77706,0.097019,-0.14667,-0.28126,-0.10895,0.21096,0.19001,3.8994,0.19802
-0.0040267,-0.0030315,0.15109,-0.012473,-0.14609,-0.00034835,-0.080215,0.13568,-0.88502,0.2209,-1.065,1.2569,0.15284,-0.18064,-0.19705,0.53602,0.11578,-0.099493,-0.37359,-0.089517,0.16106,0.12427,4.4116,-0.26456
-0.0019932,0.0035711,0.14904,-0.021289,-0.15205,0.0073976,-0.093119,0.1391,-0.8644,0.17572,-1.1493,1.1561,-0.023277,-0.24782,-0.19581,0.5073,0.15205,0.011358,-0.41709,-0.062135,0.11813,0.073466,4.7466,-0.66767
-0.0026637,0.0088493,0.13837,-0.027459,-0.16385,0.013278,-0.11262,0.15468,-0.76179,0.1354,-1.1784,0.95763,-0.14046,-0.31145,-0.18607,0.70436,0.20126,0.18382,-0.41043,-0.033444,0.089717,0.044546,4.7042,-1.0426
-0.0038891,0.010643,0.12464,-0.030404,-0.18014,0.015394,-0.13831,0.15832,-0.6183,0.097949,-1.1232,0.72327,-0.20894,-0.36208,-0.17431,1.0416,0.25664,0.39813,-0.36498,-0.0069158,0.068113,0.031293,4.3271,-1.3991
-0.0032224,0.0079242,0.1149,-0.031606,-0.19711,0.013948,-0.16443,0.14785,-0.48682,0.05845,-0.98967,0.47737,-0.23997,-0.38697,-0.16527,1.3805,0.31127,0.62485,-0.29675,0.017785,0.039129,0.02294,3.8814,-1.7155
0.00017767,0.0021486,0.11266,-0.032836,-0.20873,0.01091,-0.18166,0.14203,-0.39504,0.013974,-0.80817,0.1919,-0.23969,-0.38042,-0.16022,1.5959,0.35885,0.83488,-0.22438,0.041937,-0.0050413,0.01349,3.6482,-1.9731
0.0050112,-0.0028782,0.11562,-0.034833,-0.20865,0.0078583,-0.18222,0.16107,-0.32268,-0.034317,-0.60852,-0.16911,-0.20936,-0.34867,-0.15898,1.6258,0.39407,1.006,-0.1712,0.064364,-0.058557,0.0046018,3.7037,-2.1913
0.0089489,-0.0032179,0.11787,-0.037435,-0.19329,0.0040877,-0.16506,0.20778,-0.21553,-0.081992,-0.40209,-0.5884,-0.14964,-0.30522,-0.16351,1.4853,0.41323,1.1237,-0.16343,0.080673,-0.10528,0.0011371,3.87,-2.421
0.010393,0.0022013,0.11489,-0.040398,-0.16428,-0.0028937,-0.13722,0.26537,-0.029722,-0.12302,-0.18384,-0.97421,-0.064608,-0.26122,-0.17953,1.2443,0.41515,1.1786,-0.21974,0.085767,-0.12966,0.004391,3.8644,-2.6974
0.0094963,0.010239,0.10688,-0.043669,-0.12785,-0.01464,-0.10979,0.3116,0.22858,-0.15054,0.05086,-1.1995,0.037808,-0.21924,-0.21402,0.98287,0.40132,1.1651,-0.3374,0.077357,-0.12673,0.0092048,3.5132,-2.9962
0.0077536,0.015342,0.098041,-0.046915,-0.090965,-0.029353,-0.091379,0.33554,0.50181,-0.1568,0.29221,-1.174,0.14926,-0.17505,-0.26974,0.7435,0.3748,1.0831,-0.48731,0.057507,-0.10428,0.0071904,2.8584,-3.2273
0.0066236,0.013472,0.092487,-0.049253,-0.056788,-0.042398,-0.083837,0.34282,0.71993,-0.13378,0.51789,-0.89846,0.26523,-0.12492,-0.3409,0.50546,0.33882,0.94161,-0.62531,0.031213,-0.076584,-0.0069665,2.0929,-3.2688
0.0063787,0.0051801,0.09067,-0.049916,-0.023316,-0.04984,-0.083152,0.3475,0.84674,-0.07573,0.70796,-0.47266,0.38551,-0.07127,-0.41342,0.2013,0.29613,0.75991,-0.71487,0.0035561,-0.055359,-0.031434,1.4053,-3.0105
0.0061259,-0.0046403,0.089135,-0.049292,0.013284,-0.052187,-0.084161,0.3591,0.89574,0.016873,0.85812,-0.055922,0.50856,-0.02229,-0.47048,-0.22898,0.2497,0.56225,-0.74597,-0.022185,-0.044911,-0.058555,0.86363,-2.3866
0.0049463,-0.010205,0.083516,-0.049083,0.052919,-0.05496,-0.08462,0.37595,0.90651,0.13458,0.97879,0.19462,0.62228,0.01357,-0.50021,-0.77933,0.20333,0.36893,-0.73663,-0.044609,-0.044069,-0.080337,0.40825,-1.3961
0.0031149,-0.0088297,0.071953,-0.051054,0.088328,-0.065149,-0.085424,0.38877,0.90798,0.26017,1.0814,0.18584,0.6989,0.033043,-0.50075,-1.3576,0.16096,0.18853,-0.71663,-0.063483,-0.051982,-0.093803,-0.075902,-0.12252
0.0022161,-0.002489,0.056274,-0.055362,0.1078,-0.086029,-0.087572,0.38986,0.90367,0.37467,1.1649,-0.069972,0.70145,0.03931,-0.47935,-1.8237,0.12456,0.017343,-0.70643,-0.079605,-0.072198,-0.10235,-0.68313,1.2605
0.0038722,0.0039501,0.04051,-0.060061,0.10274,-0.11431,-0.089519,0.38014,0.88788,0.46523,1.2147,-0.45353,0.60183,0.038996,-0.44627,-2.0618,0.092712,-0.1529,-0.70711,-0.095147,-0.11166,-0.11241,-1.4512,2.5211
0.0080698,0.0061878,0.028412,-0.062323,0.074711,-0.1419,-0.087875,0.3687,0.86898,0.52994,1.2133,-0.79001,0.40019,0.038031,-0.40782,-2.0394,0.06155,-0.32439,-0.707,-0.11319,-0.17564,-0.12799,-2.3552,3.4482
0.012612,0.0030536,0.021842,-0.060368,0.036226,-0.16096,-0.081034,0.36533,0.86941,0.57579,1.1541,-0.94082,0.13118,0.039293,-0.36364,-1.8148,0.027914,-0.48741,-0.69688,-0.13579,-0.26259,-0.14718,-3.3021,3.9429
0.014432,-0.0033174,0.020591,-0.054501,0.0041486,-0.16845,-0.072361,0.37097,0.89809,0.61075,1.0456,-0.88779,-0.15011,0.042613,-0.31004,-1.4964,-0.0079161,-0.624,-0.67953,-0.16183,-0.36242,-0.16284,-4.1264,4.0624
0.011931,-0.0092832,0.022982,-0.046609,-0.0099332,-0.16702,-0.069763,0.37269,0.92412,0.63568,0.90533,-0.75003,-0.39438,0.045928,-0.24636,-1.1883,-0.042375,-0.71834,-0.66634,-0.18697,-0.45905,-0.16721,-4.6155,3.9812
0.0064519,-0.011955,0.026513,-0.038828,-0.005534,-0.16179,-0.081443,0.3473,0.88457,0.64226,0.75113,-0.71027,-0.57865,0.046482,-0.17867,-0.95623,-0.07166,-0.76644,-0.66601,-0.20629,-0.53586,-0.15766,-4.5868,3.8919
0.0015233,-0.010599,0.028425,-0.0326,0.0085423,-0.15615,-0.11073,0.27352,0.72894,0.61862,0.59604,-0.89378,-0.70705,0.041976,-0.1172,-0.82426,-0.094997,-0.77812,-0.67675,-0.21796,-0.58151,-0.13969,-3.9901,3.9126
0.00029304,-0.0067123,0.026438,-0.028604,0.021647,-0.14984,-0.15351,0.1469,0.46539,0.55812,0.45046,-1.2859,-0.79415,0.031868,-0.069205,-0.78863,-0.1152,-0.77054,-0.68881,-0.22462,-0.59351,-0.1251,-2.9672,4.0551
0.0031436,-0.0030189,0.019595,-0.027074,0.02839,-0.14052,-0.19983,-0.011159,0.1669,0.46434,0.32546,-1.7503,-0.84681,0.018309,-0.032907,-0.83058,-0.13604,-0.75827,-0.69337,-0.23111,-0.57818,-0.12565,-1.8145,4.2594
0.0074617,-0.0019149,0.0086304,-0.027872,0.030431,-0.12704,-0.23826,-0.15713,-0.07236,0.34912,0.23204,-2.1327,-0.86042,0.0057521,0.0022663,-0.92294,-0.1589,-0.74684,-0.68848,-0.24048,-0.54663,-0.14582,-0.85036,4.4521
0.0097739,-0.0040485,-0.0045918,-0.030261,0.032731,-0.1111,-0.26027,-0.24226,-0.19691,0.22649,0.17574,-2.3669,-0.83104,-0.0010411,0.048756,-1.036,-0.18163,-0.73318,-0.67641,-0.25155,-0.50866,-0.1792,-0.2633,4.5853
0.008452,-0.0078125,-0.0183,-0.032953,0.038332,-0.095826,-0.26258,-0.23514,-0.21847,0.10822,0.15148,-2.5005,-0.77055,0.00049302,0.11223,-1.1478,-0.20053,-0.7114,-0.65653,-0.26018,-0.46765,-0.21127,-0.03168,4.6403
0.0047197,-0.010268,-0.031763,-0.034707,0.046083,-0.082671,-0.24695,-0.13777,-0.19294,0.0034183,0.1437,-2.6298,-0.70956,0.0093763,0.18737,-1.2538,-0.21332,-0.67879,-0.62206,-0.26279,-0.4191,-0.22723,0.033525,4.6109
0.0012351,-0.0091874,-0.045152,-0.035089,0.052435,-0.069699,-0.21848,0.014962,-0.17003,-0.080361,0.13285,-2.8055,-0.68391,0.021822,0.26079,-1.369,-0.22032,-0.63781,-0.56463,-0.25895,-0.3531,-0.21959,0.15478,4.4887
-0.00029077,-0.0049072,-0.058455,-0.034584,0.054782,-0.053129,-0.1835,0.17301,-0.16007,-0.13863,0.10401,-2.9924,-0.71475,0.033497,0.31856,-1.5163,-0.22279,-0.59289,-0.48241,-0.25088,-0.2592,-0.1906,0.45184,4.2569
-0.00019764,-0.00048541,-0.070501,-0.033841,0.05316,-0.030885,-0.14744,0.29664,-0.14185,-0.17362,0.052426,-3.1102,-0.79663,0.041895,0.3528,-1.711,-0.22034,-0.54497,-0.38331,-0.2406,-0.13182,-0.14839,0.88847,3.8918
0.00017335,0.00030289,-0.079137,-0.032691,0.049442,-0.0049235,-0.11327,0.3741,-0.096056,-0.1949,-0.016809,-3.1125,-0.90074,0.047583,0.36371,-1.9477,-0.21014,-0.4882,-0.27987,-0.22751,0.024586,-0.10045,1.3248,3.371
0.00037738,-0.0041682,-0.082622,-0.029924,0.045843,0.019995,-0.080783,0.42103,-0.027969,-0.21307,-0.093608,-3.0297,-0.98886,0.053904,0.35727,-2.2006,-0.18928,-0.41265,-0.1805,-0.20871,0.1912,-0.049949,1.6257,2.692
0.00149,-0.011874,-0.08111,-0.024169,0.044768,0.040198,-0.047404,0.46323,0.040567,-0.22935,-0.16869,-2.9429,-1.028,0.065398,0.34165,-2.4327,-0.15828,-0.31211,-0.085057,-0.18178,0.33448,0.0025627,1.7454,1.8966
0.0047318,-0.018368,-0.076919,-0.015246,0.049779,0.056209,-0.010277,0.51598,0.096415,-0.23063,-0.23736,-2.9151,-0.99902,0.085511,0.32506,-2.61,-0.12267,-0.19196,0.011821,-0.14766,0.41384,0.054798,1.7354,1.0847
0.0095679,-0.019964,-0.073235,-0.0048621,0.065434,0.072072,0.031429,0.57482,0.14777,-0.19637,-0.30019,-2.9412,-0.89935,0.11443,0.31502,-2.7108,-0.090557,-0.070019,0.11389,-0.11115,0.3983,0.10046,1.6854,0.39475
0.013458,-0.016411,-0.072232,0.0039672,0.094471,0.091165,0.075411,0.6228,0.21044,-0.11399,-0.3612,-2.9552,-0.7442,0.14799,0.317,-2.7292,-0.067557,0.032267,0.22001,-0.078353,0.28574,0.13184,1.6522,-0.050184
0.013819,-0.010938,-0.074068,0.0084547,0.13384,0.11202,0.11698,0.64622,0.28379,0.0095742,-0.42461,-2.8835,-0.56657,0.17862,0.33177,-2.6685,-0.05278,0.10336,0.32707,-0.052764,0.11207,0.14521,1.6274,-0.20258
0.01041,-0.0076794,-0.077416,0.0075409,0.17331,0.12803,0.15111,0.64499,0.34373,0.1499,-0.49173,-2.6971,-0.41287,0.1984,0.35311,-2.5297,-0.039211,0.14995,0.43493,-0.032734,-0.059378,0.14408,1.5587,-0.11913
0.0057238,-0.0086007,-0.080864,0.0024176,0.19927,0.13167,0.17455,0.63001,0.36216,0.2789,-0.55907,-2.4249,-0.32943,0.2031,0.36899,-2.303,-0.018422,0.19274,0.54735,-0.012327,-0.1662,0.13728,1.3987,0.063793
0.0028378,-0.012385,-0.083882,-0.0041927,0.20212,0.12016,0.18682,0.61204,0.33391,0.37825,-0.61905,-2.1266,-0.34191,0.1952,0.36725,-1.9744,0.013818,0.25248,0.66717,0.014716,-0.17778,0.13354,1.1412,0.19356
0.0027037,-0.015959,-0.086641,-0.0094905,0.18232,0.097885,0.18984,0.5931,0.28416,0.44178,-0.66266,-1.8524,-0.43774,0.18366,0.34278,-1.5479,0.055221,0.33754,0.79,0.050482,-0.1098,0.13698,0.82579,0.16612
0.0035315,-0.017128,-0.089146,-0.011877,0.15032,0.073524,0.18645,0.56807,0.24843,0.46795,-0.68265,-1.6194,-0.56484,0.17997,0.30133,-1.0713,0.099496,0.44354,0.90254,0.091116,-0.013598,0.14676,0.51697,-0.040872
0.0028876,-0.016059,-0.090803,-0.011371,0.12016,0.053897,0.17862,0.5335,0.24389,0.4534,-0.67484,-1.417,-0.65239,0.19218,0.25663,-0.63449,0.1414,0.56468,0.98696,0.12933,0.051931,0.15967,0.27487,-0.37595
0.00042796,-0.014608,-0.091023,-0.0091296,0.10122,0.039466,0.16637,0.49424,0.25841,0.39635,-0.63735,-1.2279,-0.64523,0.21999,0.22254,-0.32843,0.18005,0.70467,1.028,0.15948,0.047441,0.17234,0.13444,-0.74974
-0.0015028,-0.014456,-0.090224,-0.0066113,0.093793,0.024963,0.14817,0.46115,0.26561,0.30642,-0.56973,-1.0464,-0.53283,0.25399,0.20541,-0.18257,0.21786,0.87398,1.0179,0.18136,-0.035708,0.18085,0.09642,-1.0784
-9.8588e-005,-0.015826,-0.089996,-0.0049999,0.091297,0.0046878,0.12288,0.44212,0.24968,0.20876,-0.4741,-0.88125,-0.35494,0.27949,0.20166,-0.13208,0.25631,1.0725,0.95832,0.19947,-0.18233,0.17971,0.12963,-1.3184
0.0049803,-0.017693,-0.09185,-0.005047,0.08663,-0.021767,0.091858,0.435,0.21682,0.13371,-0.35833,-0.74598,-0.17984,0.28274,0.20155,-0.054841,0.29215,1.272,0.86019,0.21843,-0.3682,0.16321,0.18418,-1.4799
0.010873,-0.018851,-0.095487,-0.0070214,0.07749,-0.047923,0.05953,0.42897,0.18516,0.097763,-0.23767,-0.64502,-0.068245,0.25603,0.19585,0.13524,0.31766,1.4159,0.74298,0.23842,-0.57063,0.12983,0.21356,-1.6143
0.013816,-0.018685,-0.098398,-0.010474,0.066921,-0.064354,0.031359,0.41314,0.16519,0.091274,-0.13113,-0.56829,-0.043943,0.19951,0.18068,0.4085,0.32473,1.4447,0.6319,0.25467,-0.77014,0.085963,0.19734,-1.7765
0.012405,-0.017168,-0.097686,-0.014017,0.059483,-0.06526,0.010516,0.3846,0.14948,0.084683,-0.053257,-0.49724,-0.086597,0.11979,0.15768,0.62746,0.30996,1.3298,0.55071,0.26147,-0.9474,0.04463,0.15102,-1.985
0.008808,-0.014605,-0.092858,-0.015688,0.056799,-0.052833,-0.0042408,0.34946,0.11892,0.049286,-0.0065134,-0.41722,-0.14796,0.027474,0.1308,0.65133,0.27701,1.0954,0.51205,0.25696,-1.0826,0.018486,0.11489,-2.2058
0.0068079,-0.011684,-0.087064,-0.014097,0.056251,-0.036225,-0.017548,0.31672,0.057615,-0.023711,0.019136,-0.32572,-0.17958,-0.065039,0.10276,0.4607,0.23474,0.80934,0.51154,0.2445,-1.1595,0.012139,0.12751,-2.3784
0.0084462,-0.0096046,-0.085221,-0.009679,0.053559,-0.025912,-0.033842,0.29128,-0.036582,-0.12031,0.03799,-0.22962,-0.15612,-0.14552,0.07396,0.19711,0.19282,0.55008,0.53104,0.22951,-1.1715,0.019751,0.20157,-2.4679
0.012284,-0.0096335,-0.090244,-0.0048619,0.046649,-0.027448,-0.053911,0.27195,-0.15114,-0.21727,0.057419,-0.1342,-0.08406,-0.20433,0.043968,0.074029,0.15766,0.36948,0.55006,0.21508,-1.1237,0.029821,0.31844,-2.5004
0.014764,-0.012037,-0.10057,-0.0026435,0.037379,-0.038708,-0.07426,0.25514,-0.26368,-0.29899,0.07244,-0.03476,0.0057318,-0.23687,0.013433,0.22249,0.13114,0.27538,0.55753,0.2004,-1.0277,0.033202,0.44333,-2.5473
0.013388,-0.015382,-0.11127,-0.0044498,0.029749,-0.05197,-0.089649,0.23926,-0.34735,-0.3641,0.070461,0.080764,0.07526,-0.24438,-0.015504,0.59361,0.11161,0.2407,0.55567,0.18302,-0.89371,0.028234,0.54791,-2.6629
0.0088999,-0.017258,-0.11799,-0.0090264,0.026385,-0.058795,-0.096685,0.22526,-0.37689,-0.41923,0.042158,0.2203,0.097618,-0.23182,-0.040715,0.99654,0.095969,0.22848,0.55432,0.16233,-0.72504,0.01998,0.6237,-2.8188
0.0046483,-0.016192,-0.12019,-0.013383,0.026549,-0.054204,-0.095766,0.21302,-0.33862,-0.46905,-0.010827,0.37911,0.068523,-0.20402,-0.0619,1.2394,0.080856,0.21401,0.5621,0.14035,-0.5204,0.015488,0.67972,-2.895
0.0037552,-0.013105,-0.12103,-0.015029,0.027493,-0.037874,-0.090263,0.19831,-0.24184,-0.51279,-0.077925,0.54388,0.0072489,-0.16346,-0.080905,1.2582,0.062985,0.19106,0.58178,0.1193,-0.28445,0.019239,0.73045,-2.7422
0.0065405,-0.010773,-0.12396,-0.013562,0.027926,-0.012614,-0.084062,0.17423,-0.1222,-0.54852,-0.1494,0.70596,-0.052363,-0.1119,-0.1002,1.1345,0.039318,0.16319,0.61171,0.098799,-0.039689,0.031438,0.78482,-2.2831
0.010291,-0.011505,-0.12924,-0.010302,0.030308,0.01785,-0.079482,0.13712,-0.028099,-0.57791,-0.22473,0.86971,-0.076189,-0.054914,-0.12091,1.003,0.0079812,0.13183,0.64896,0.07585,0.17109,0.048927,0.84241,-1.5822
0.011448,-0.015092,-0.13351,-0.0065459,0.039532,0.050026,-0.076799,0.091371,0.0059907,-0.6046,-0.31154,1.0444,-0.043036,-0.0045123,-0.14217,0.9368,-0.030271,0.092579,0.68922,0.048173,0.29869,0.067183,0.89602,-0.83362
0.0083506,-0.018967,-0.13253,-0.0022959,0.058659,0.080493,-0.075151,0.048429,-0.018549,-0.62774,-0.41529,1.2245,0.048151,0.023758,-0.16229,0.90702,-0.07123,0.042066,0.72449,0.017556,0.31377,0.082453,0.93762,-0.26934
0.0023549,-0.020533,-0.12476,0.0032897,0.085131,0.10545,-0.073768,0.019612,-0.065551,-0.63858,-0.52894,1.3781,0.17839,0.018798,-0.18064,0.83504,-0.10821,-0.013074,0.74353,-0.010188,0.22918,0.093597,0.96575,-0.039883
-0.003373,-0.019483,-0.11261,0.010309,0.11084,0.121,-0.072663,0.0079582,-0.090074,-0.62592,-0.63273,1.4587,0.31414,-0.018406,-0.19854,0.67455,-0.13481,-0.055664,0.73807,-0.029067,0.1001,0.1029,0.99173,-0.13874
-0.0062276,-0.017918,-0.10073,0.017179,0.12643,0.12424,-0.072488,0.0054302,-0.070527,-0.58669,-0.70616,1.4379,0.41547,-0.073469,-0.21828,0.4445,-0.14789,-0.06911,0.71003,-0.037295,-0.003635,0.11478,1.0396,-0.41258
-0.0057626,-0.018162,-0.093008,0.021492,0.12691,0.11456,-0.073734,-0.0022697,-0.02173,-0.53185,-0.74334,1.3339,0.44608,-0.12524,-0.24089,0.19278,-0.1488,-0.051938,0.67169,-0.038425,-0.037502,0.13236,1.1346,-0.64759
-0.003462,-0.020409,-0.090598,0.021956,0.1143,0.094317,-0.075761,-0.026789,0.021214,-0.48106,-0.75854,1.2107,0.38455,-0.15605,-0.26423,-0.058897,-0.14211,-0.022708,0.63571,-0.038309,-0.0072305,0.15423,1.2836,-0.67958
-0.0012271,-0.022532,-0.091958,0.019573,0.095658,0.068529,-0.076378,-0.070465,0.034231,-0.44984,-0.77578,1.1414,0.23442,-0.15861,-0.28271,-0.32331,-0.1328,-0.0092655,0.6027,-0.040675,0.040152,0.17417,1.4613,-0.46641
-2.2797e-005,-0.022286,-0.094248,0.016885,0.078118,0.043525,-0.072617,-0.12608,0.024366,-0.43997,-0.80944,1.1613,0.026987,-0.13592,-0.28949,-0.59614,-0.12419,-0.029768,0.55824,-0.045048,0.052983,0.18471,1.6177,-0.089068
0.00032588,-0.019788,-0.094678,0.015932,0.064707,0.024627,-0.062615,-0.18225,0.022484,-0.44126,-0.85082,1.2443,-0.18876,-0.095922,-0.28039,-0.79844,-0.11769,-0.080851,0.48474,-0.04836,0.011654,0.18193,1.7059,0.30828
0.00038566,-0.017795,-0.091178,0.016779,0.053807,0.013622,-0.04739,-0.2298,0.056088,-0.44298,-0.872,1.3221,-0.36735,-0.046554,-0.25778,-0.78385,-0.11375,-0.14289,0.37954,-0.048248,-0.062091,0.16744,1.7129,0.59741
0.00035896,-0.01937,-0.082662,0.017896,0.041957,0.0074312,-0.030945,-0.26489,0.12608,-0.44444,-0.8443,1.3331,-0.48773,0.005089,-0.23167,-0.42802,-0.11235,-0.19767,0.26323,-0.044893,-0.12806,0.14558,1.664,0.71919
-1.8676e-005,-0.025005,-0.069286,0.017969,0.027382,-0.00060413,-0.018218,-0.28791,0.2067,-0.4553,-0.75731,1.2656,-0.5585,0.050723,-0.21621,0.26009,-0.11239,-0.24295,0.16917,-0.040128,-0.16165,0.11836,1.5947,0.68924
-0.001078,-0.031854,-0.052647,0.017424,0.011531,-0.016782,-0.012177,-0.30041,0.26705,-0.48485,-0.62395,1.1665,-0.60123,0.080488,-0.22262,1.0992,-0.11137,-0.29172,0.12097,-0.035351,-0.17046,0.082878,1.5106,0.56512
-0.0028888,-0.035841,-0.035417,0.018272,-0.0020949,-0.042516,-0.012239,-0.30338,0.29486,-0.52952,-0.4694,1.1117,-0.62263,0.086967,-0.25241,1.8166,-0.10689,-0.35789,0.11558,-0.030723,-0.18196,0.034118,1.3723,0.40194
-0.0052831,-0.034816,-0.020239,0.022347,-0.01045,-0.072407,-0.015157,-0.29791,0.3025,-0.56962,-0.31473,1.1617,-0.59783,0.071223,-0.29574,2.2054,-0.099712,-0.44234,0.12582,-0.026384,-0.21575,-0.029091,1.1255,0.22217
-0.0079944,-0.03006,-0.0084245,0.029372,-0.012755,-0.096747,-0.017473,-0.2867,0.31208,-0.57931,-0.16949,1.3311,-0.48208,0.045009,-0.33675,2.245,-0.095439,-0.53171,0.1199,-0.024022,-0.26609,-0.1003,0.75708,0.010449
-0.010622,-0.02501,0.00056069,0.036462,-0.010544,-0.10722,-0.017498,-0.27435,0.33412,-0.54295,-0.037429,1.5846,-0.24667,0.025515,-0.36264,2.0951,-0.10226,-0.60991,0.0824,-0.026622,-0.30865,-0.1679,0.33116,-0.27019
-0.012542,-0.022511,0.0083145,0.039608,-0.0063985,-0.10195,-0.015517,-0.26533,0.3588,-0.46505,0.073436,1.8534,0.086359,0.025372,-0.3701,1.964,-0.12525,-0.67049,0.020743,-0.036214,-0.32295,-0.22235,-0.032334,-0.65087
-0.013162,-0.022968,0.015937,0.036231,-0.0025326,-0.086437,-0.012638,-0.26135,0.36663,-0.36554,0.14923,2.0599,0.43868,0.045454,-0.36436,1.952,-0.16149,-0.71888,-0.045595,-0.051752,-0.30888,-0.26206,-0.22768,-1.1288
-0.012538,-0.024688,0.022973,0.027069,-0.00012901,-0.069812,-0.0096347,-0.26031,0.3489,-0.26323,0.18042,2.1421,0.70773,0.076433,-0.35224,1.9901,-0.20056,-0.76415,-0.10205,-0.069477,-0.28297,-0.29236,-0.23285,-1.6491
-0.011791,-0.025662,0.027847,0.015998,0.00053099,-0.059307,-0.0066714,-0.25781,0.32046,-0.1601,0.17384,2.0766,0.81681,0.10782,-0.33535,1.9186,-0.23076,-0.81039,-0.1478,-0.08569,-0.25984,-0.31798,-0.12454,-2.1078
-0.012631,-0.025062,0.029578,0.0077618,-0.00040233,-0.056925,-0.0036266,-0.25014,0.31447,-0.039398,0.15225,1.8926,0.75053,0.13669,-0.30948,1.6367,-0.2465,-0.85655,-0.1913,-0.09938,-0.23739,-0.33543,-0.025891,-2.3834
-0.016066,-0.023406,0.029417,0.0050927,-0.0027301,-0.060041,-0.00031733,-0.23652,0.36296,0.11987,0.13838,1.6644,0.55531,0.16833,-0.27056,1.2015,-0.25104,-0.90408,-0.23949,-0.11209,-0.19945,-0.33259,-0.026134,-2.3915
-0.021319,-0.021692,0.030931,0.0072426,-0.0063775,-0.06459,0.0036062,-0.21916,0.47718,0.32248,0.13577,1.476,0.31029,0.20844,-0.22162,0.7971,-0.2525,-0.96246,-0.29195,-0.12509,-0.13261,-0.29703,-0.13124,-2.137
-0.026024,-0.02057,0.038179,0.010941,-0.011382,-0.0679,0.0086813,-0.20171,0.64098,0.546,0.12455,1.3703,0.092348,0.2539,-0.17402,0.60593,-0.25673,-1.0447,-0.34495,-0.13677,-0.041127,-0.22721,-0.27698,-1.7306
-0.027797,-0.020125,0.053152,0.012969,-0.017685,-0.069339,0.015255,-0.18736,0.81997,0.74816,0.078883,1.3163,-0.044869,0.29101,-0.1412,0.68693,-0.26305,-1.1547,-0.39971,-0.14309,0.053439,-0.13734,-0.38545,-1.3485
-0.025988,-0.0201,0.07434,0.012273,-0.024764,-0.069318,0.023044,-0.17785,0.97844,0.88742,-0.0066136,1.223,-0.075471,0.30343,-0.12956,0.95111,-0.26625,-1.2779,-0.46527,-0.14115,0.12687,-0.051622,-0.41646,-1.1505
-0.022148,-0.020099,0.097565,0.010019,-0.031386,-0.06839,0.031248,-0.17334,1.0924,0.94257,-0.10357,0.99639,2.6185e-005,0.28356,-0.13378,1.2382,-0.26231,-1.3846,-0.55175,-0.13269,0.16788,0.008543,-0.37924,-1.2018
-0.018842,-0.019615,0.11855,0.0077916,-0.035922,-0.067393,0.039243,-0.17266,1.1514,0.91879,-0.16234,0.60456,0.15429,0.23797,-0.14023,1.422,-0.25265,-1.4452,-0.65932,-0.12398,0.18228,0.035516,-0.3089,-1.4476
-0.017806,-0.018159,0.13536,0.0057445,-0.037302,-0.067925,0.047021,-0.17377,1.1523,0.839,-0.14229,0.10579,0.3353,0.18263,-0.13594,1.4657,-0.24298,-1.4469,-0.77288,-0.12175,0.18423,0.037344,-0.24011,-1.7563
-0.018968,-0.015616,0.14905,0.0024357,-0.035991,-0.071929,0.05456,-0.17445,1.0924,0.72948,-0.037608,-0.37969,0.48023,0.13226,-0.11654,1.4065,-0.23841,-1.401,-0.86792,-0.12829,0.18428,0.030507,-0.20233,-2.0017
-0.020917,-0.012578,0.16201,-0.0035535,-0.033968,-0.080214,0.060425,-0.17315,0.97025,0.61036,0.11933,-0.7345,0.54065,0.092515,-0.087781,1.3035,-0.23942,-1.3344,-0.92386,-0.13986,0.18426,0.02949,-0.23085,-2.128
-0.022105,-0.010232,0.17553,-0.011849,-0.033299,-0.091122,0.061134,-0.16919,0.79245,0.49473,0.27743,-0.90239,0.50483,0.060681,-0.060467,1.199,-0.24248,-1.2753,-0.93521,-0.14985,0.18122,0.040194,-0.36752,-2.1587
-0.021649,-0.0096503,0.1884,-0.020154,-0.034213,-0.10072,0.052644,-0.16214,0.58011,0.39191,0.39312,-0.90592,0.40017,0.032848,-0.043053,1.1082,-0.24452,-1.2406,-0.91291,-0.15417,0.17456,0.060143,-0.63563,-2.1549
-0.019275,-0.010933,0.19754,-0.026006,-0.034391,-0.10462,0.033477,-0.15067,0.36568,0.30867,0.44601,-0.81942,0.27248,0.010309,-0.036921,1.0238,-0.24671,-1.2338,-0.87591,-0.1545,0.16894,0.08329,-1.0034,-2.1644
-0.014986,-0.012888,0.20028,-0.028843,-0.030425,-0.10012,0.0070905,-0.13252,0.18045,0.24697,0.43815,-0.72178,0.15728,-0.00034275,-0.036882,0.91841,-0.25367,-1.2503,-0.83936,-0.15662,0.17122,0.10489,-1.3708,-2.2002
-0.0091417,-0.013606,0.19642,-0.030413,-0.020542,-0.087129,-0.018887,-0.10599,0.041167,0.20221,0.38446,-0.66239,0.063758,0.0070731,-0.035585,0.74882,-0.26859,-1.284,-0.80731,-0.16525,0.18548,0.1234,-1.6024,-2.2545
-0.002851,-0.011616,0.18864,-0.033088,-0.006322,-0.067559,-0.036669,-0.072097,-0.053749,0.16607,0.30443,-0.65983,-0.019413,0.032366,-0.028478,0.47284,-0.28852,-1.3302,-0.77323,-0.1795,0.21091,0.13935,-1.5936,-2.3191
0.0020717,-0.0068227,0.18111,-0.037594,0.0082323,-0.043891,-0.042819,-0.035164,-0.11595,0.13309,0.21893,-0.72706,-0.10466,0.068019,-0.016219,0.077148,-0.30458,-1.3822,-0.72652,-0.19242,0.24379,0.15325,-1.3303,-2.3859
0.0040433,-0.00058734,0.17713,-0.042333,0.019663,-0.01828,-0.039833,-0.00068426,-0.15447,0.10557,0.14751,-0.89491,-0.18851,0.10381,-0.0034332,-0.40469,-0.3074,-1.4287,-0.66025,-0.19505,0.28054,0.16429,-0.89892,-2.4294
0.0029154,0.0050728,0.17752,-0.045011,0.027496,0.0071925,-0.033665,0.028095,-0.16964,0.091578,0.10179,-1.2034,-0.2471,0.13296,0.0051344,-0.90354,-0.29359,-1.4522,-0.5756,-0.18213,0.3188,0.17064,-0.4407,-2.4014
0.00026421,0.0085713,0.18055,-0.045147,0.033936,0.029504,-0.029439,0.052133,-0.15793,0.097222,0.077131,-1.6535,-0.24401,0.15492,0.0085883,-1.3517,-0.26782,-1.4316,-0.4814,-0.1554,0.35633,0.17071,-0.078881,-2.26
-0.0017183,0.0094428,0.18329,-0.045069,0.041068,0.044056,-0.028908,0.075314,-0.12127,0.1192,0.050857,-2.1508,-0.14565,0.17317,0.011359,-1.7191,-0.23875,-1.3483,-0.38948,-0.12259,0.38968,0.16441,0.13524,-2.0158
-0.0018519,0.0083509,0.18331,-0.048276,0.048147,0.045571,-0.03132,0.10102,-0.071811,0.14403,-0.0075642,-2.4947,0.059722,0.19044,0.020903,-2.0218,-0.21217,-1.1926,-0.30909,-0.092973,0.41438,0.15368,0.22751,-1.7498
-0.0006393,0.0066192,0.17977,-0.056369,0.051594,0.030764,-0.035979,0.12947,-0.028494,0.15503,-0.11849,-2.4482,0.34476,0.20534,0.042677,-2.2994,-0.18695,-0.96967,-0.24348,-0.072497,0.42617,0.14183,0.26329,-1.5714
0.00061465,0.0056637,0.17348,-0.067199,0.047898,0.0014111,-0.043348,0.15789,-0.010641,0.14198,-0.27839,-1.8662,0.63868,0.21299,0.075583,-2.5783,-0.15707,-0.70286,-0.19065,-0.061227,0.42141,0.132,0.29959,-1.5428
0.0013011,0.0065394,0.16614,-0.07595,0.03691,-0.034637,-0.053465,0.18305,-0.03436,0.10673,-0.46099,-0.80135,0.84782,0.20872,0.11138,-2.8458,-0.11784,-0.43016,-0.14746,-0.054299,0.39646,0.1254,0.35987,-1.6313
0.0020719,0.0095986,0.15936,-0.078488,0.022613,-0.06632,-0.063682,0.20353,-0.11103,0.061358,-0.63274,0.49458,0.89919,0.1916,0.13932,-3.0476,-0.071109,-0.19331,-0.11425,-0.04537,0.34733,0.12041,0.4417,-1.7382
0.0038992,0.014255,0.15379,-0.074378,0.010633,-0.085181,-0.068949,0.22006,-0.24186,0.020734,-0.77161,1.6923,0.78335,0.16436,0.15352,-3.1083,-0.025293,-0.022861,-0.096377,-0.030489,0.27178,0.11315,0.54132,-1.7821
0.0066577,0.019007,0.14872,-0.067192,0.0045465,-0.090305,-0.065448,0.23416,-0.4073,-0.0048932,-0.87568,2.5538,0.56322,0.12963,0.15797,-2.9645,0.0093847,0.072463,-0.10148,-0.010343,0.1734,0.099198,0.66918,-1.7611
0.0088194,0.02192,0.14218,-0.061891,0.0039526,-0.088328,-0.05466,0.24674,-0.56076,-0.012702,-0.95684,3.0331,0.3354,0.085493,0.16536,-2.5966,0.026569,0.10452,-0.13368,0.010127,0.064687,0.075493,0.84252,-1.7318
0.0087292,0.021538,0.13201,-0.061331,0.0056338,-0.087852,-0.043692,0.2579,-0.64022,-0.0046722,-1.026,3.2435,0.16777,0.025042,0.18972,-2.0452,0.026084,0.092955,-0.18859,0.024368,-0.034317,0.041332,1.0616,-1.7203
0.0062353,0.017775,0.11724,-0.064512,0.0065914,-0.092296,-0.040588,0.26759,-0.59916,0.017148,-1.0816,3.3279,0.060361,-0.058381,0.23757,-1.4012,0.011876,0.049761,-0.25258,0.02762,-0.10255,-0.0020266,1.2907,-1.652
0.0029572,0.012163,0.099332,-0.06769,0.006469,-0.096917,-0.047869,0.27596,-0.43898,0.052824,-1.1085,3.3436,-0.039858,-0.16345,0.30334,-0.77381,-0.011929,-0.027726,-0.30769,0.019253,-0.12629,-0.052597,1.4616,-1.3766
0.00079798,0.0070958,0.081921,-0.067233,0.0077083,-0.092543,-0.059597,0.28317,-0.21679,0.10182,-1.0874,3.2503,-0.18475,-0.27726,0.3715,-0.25387,-0.043388,-0.1506,-0.33995,0.0027708,-0.10464,-0.10882,1.5032,-0.78006
0.00015938,0.004446,0.069053,-0.061983,0.013655,-0.072961,-0.064615,0.28911,-0.01706,0.1575,-1.0069,2.996,-0.37975,-0.38018,0.42335,0.10435,-0.081907,-0.32446,-0.3464,-0.016377,-0.049074,-0.16991,1.3817,0.11075
-0.00025747,0.0044613,0.062681,-0.0536,0.026166,-0.039939,-0.053583,0.29383,0.096049,0.20419,-0.8707,2.6081,-0.5859,-0.45672,0.44405,0.27822,-0.12549,-0.53835,-0.33622,-0.033686,0.021738,-0.23538,1.1266,1.1288
-0.0017571,0.0057887,0.061269,-0.045082,0.044285,-0.0020943,-0.024369,0.29829,0.11207,0.22104,-0.69626,2.2021,-0.76235,-0.50397,0.42675,0.26451,-0.16873,-0.76387,-0.32473,-0.047274,0.088417,-0.3041,0.82611,2.0795
-0.0038097,0.0066579,0.060632,-0.038883,0.06461,0.030744,0.01809,0.30451,0.069765,0.19198,-0.50574,1.8989,-0.90433,-0.53042,0.37399,0.080734,-0.2033,-0.96409,-0.32394,-0.057341,0.13556,-0.37365,0.58983,2.8721
-0.004163,0.0063246,0.05661,-0.035881,0.082954,0.052593,0.066664,0.31466,0.021202,0.11553,-0.31477,1.7304,-1.0382,-0.54544,0.29769,-0.21954,-0.22087,-1.106,-0.33564,-0.064127,0.15417,-0.43993,0.49818,3.5558
-0.0010906,0.005604,0.047667,-0.035483,0.096276,0.062104,0.11713,0.32954,-0.0054212,0.0071525,-0.12584,1.622,-1.1794,-0.54878,0.21747,-0.54143,-0.21649,-1.1698,-0.35155,-0.066238,0.14303,-0.49739,0.56399,4.2302
0.004385,0.0060186,0.035481,-0.036296,0.10386,0.059922,0.16933,0.34795,-0.016291,-0.10839,0.068434,1.4669,-1.2978,-0.52972,0.15545,-0.77747,-0.19056,-1.1517,-0.35968,-0.060901,0.10973,-0.53966,0.72748,4.9104
0.0087601,0.0082319,0.023147,-0.036849,0.10721,0.046453,0.22405,0.36727,-0.033051,-0.20991,0.27366,1.223,-1.3295,-0.47753,0.12727,-0.86217,-0.14843,-1.0601,-0.35158,-0.046103,0.07,-0.56104,0.8875,5.4648
0.008968,0.011085,0.01252,-0.036225,0.10881,0.022622,0.27896,0.38505,-0.066152,-0.28891,0.48199,0.94399,-1.2293,-0.39477,0.13348,-0.81079,-0.098085,-0.90795,-0.32562,-0.022965,0.043344,-0.55875,0.95369,5.685
0.005356,0.012134,0.0028367,-0.034577,0.11068,-0.0076739,0.32785,0.40034,-0.10509,-0.34917,0.67062,0.72039,-1.0165,-0.30122,0.15799,-0.7026,-0.047429,-0.70627,-0.28529,0.0035673,0.045264,-0.53517,0.89267,5.4341
0.0017544,0.0094208,-0.0083241,-0.03319,0.11361,-0.037019,0.36405,0.41387,-0.13131,-0.39814,0.8138,0.59005,-0.77206,-0.22435,0.17689,-0.61279,-0.0023981,-0.4633,-0.23558,0.026402,0.079716,-0.4982,0.74347,4.7598
0.0022674,0.0031623,-0.02269,-0.033666,0.11741,-0.057649,0.38536,0.42724,-0.13818,-0.43803,0.90034,0.5006,-0.58723,-0.18332,0.17318,-0.54458,0.033599,-0.19165,-0.18111,0.03941,0.13703,-0.4585,0.59241,3.891
0.0075822,-0.0040059,-0.039507,-0.036452,0.12196,-0.066155,0.39593,0.44159,-0.13778,-0.46351,0.94251,0.35594,-0.50601,-0.17902,0.14721,-0.41949,0.059326,0.082656,-0.12671,0.040155,0.19961,-0.42418,0.52042,3.1247
0.014204,-0.0086014,-0.055677,-0.039782,0.12795,-0.065438,0.40292,0.45655,-0.14894,-0.46707,0.96789,0.10103,-0.50866,-0.19739,0.11509,-0.1376,0.07517,0.31879,-0.07832,0.03085,0.25223,-0.39628,0.55344,2.6828
0.017389,-0.0086573,-0.067568,-0.04026,0.13677,-0.061793,0.41011,0.46988,-0.17908,-0.44631,0.99992,-0.23092,-0.54331,-0.22175,0.096329,0.33918,0.082711,0.47361,-0.042137,0.017211,0.28963,-0.36893,0.64646,2.6249
0.01515,-0.0051199,-0.073045,-0.035084,0.14936,-0.059417,0.41354,0.47811,-0.21709,-0.40649,1.0424,-0.54469,-0.57301,-0.24356,0.10025,0.94789,0.084226,0.52244,-0.022704,0.0058706,0.31602,-0.33508,0.71077,2.8504
0.0097894,-0.0011318,-0.072434,-0.024398,0.16496,-0.057102,0.40333,0.47797,-0.2433,-0.35652,1.08,-0.75213,-0.59744,-0.26366,0.12117,1.5595,0.081819,0.47269,-0.021939,0.0015154,0.33767,-0.29425,0.66546,3.1695
0.0057739,0.00033105,-0.068137,-0.01175,0.18073,-0.049938,0.37102,0.46819,-0.24631,-0.30283,1.0935,-0.82214,-0.63714,-0.28554,0.14408,2.0581,0.076444,0.35795,-0.040167,0.0049977,0.3557,-0.25588,0.48006,3.3939
0.0060118,-0.0013833,-0.063474,-0.0020163,0.19277,-0.034322,0.31722,0.45037,-0.23184,-0.24707,1.0751,-0.77832,-0.70205,-0.30848,0.15436,2.4008,0.06758,0.21503,-0.077522,0.013364,0.3666,-0.23453,0.18434,3.4024
0.0098011,-0.0044088,-0.061507,0.0017805,0.19827,-0.01176,0.25324,0.42853,-0.21702,-0.19023,1.032,-0.66318,-0.77537,-0.32688,0.14338,2.6169,0.054187,0.062006,-0.1333,0.021895,0.37058,-0.23978,-0.15475,3.1621
0.013875,-0.0062506,-0.064178,0.00030948,0.19743,0.011802,0.19498,0.40726,-0.21698,-0.13909,0.97702,-0.51227,-0.82365,-0.33525,0.10779,2.7552,0.036521,-0.10457,-0.2032,0.027051,0.37972,-0.2686,-0.47139,2.7062
0.015188,-0.0060397,-0.071776,-0.002938,0.19387,0.030305,0.15339,0.38969,-0.23584,-0.10856,0.91681,-0.3582,-0.81904,-0.33273,0.04663,2.8293,0.017384,-0.29178,-0.27733,0.028467,0.41627,-0.30658,-0.7354,2.0889
0.012906,-0.0050983,-0.082815,-0.004398,0.19283,0.041766,0.12867,0.37626,-0.26815,-0.11625,0.84893,-0.24469,-0.75283,-0.32252,-0.038758,2.8056,0.0014876,-0.48899,-0.34262,0.028596,0.49842,-0.33735,-0.9715,1.3495
0.0083266,-0.0053285,-0.094497,-0.0028037,0.19819,0.048949,0.11233,0.36494,-0.3067,-0.17213,0.7681,-0.2186,-0.63358,-0.30722,-0.14218,2.6409,-0.0069665,-0.66362,-0.38941,0.030337,0.62277,-0.35227,-1.2565,0.51257
0.0034688,-0.0070205,-0.10385,0.00055232,0.20987,0.056278,0.094755,0.35218,-0.34817,-0.27033,0.67374,-0.29658,-0.47893,-0.28516,-0.25194,2.3338,-0.006675,-0.77861,-0.41746,0.034546,0.75758,-0.35241,-1.6902,-0.37685
-8.5237e-005,-0.0082878,-0.10918,0.0035003,0.22351,0.065655,0.071751,0.33411,-0.39245,-0.38924,0.57122,-0.43834,-0.31183,-0.25136,-0.35519,1.9476,0.00048945,-0.81554,-0.43524,0.039434,0.85471,-0.34208,-2.3449,-1.2188
-0.0014024,-0.0068168,-0.111,0.0049273,0.23262,0.074385,0.045254,0.30751,-0.43854,-0.50002,0.46791,-0.56181,-0.16041,-0.20177,-0.44448,1.5852,0.011767,-0.78196,-0.4508,0.042257,0.87427,-0.32116,-3.2155,-1.8687
-5.9447e-005,-0.0023453,-0.11177,0.0053452,0.23194,0.076607,0.019241,0.27099,-0.48279,-0.57774,0.37103,-0.59789,-0.052241,-0.13624,-0.52029,1.3343,0.026516,-0.69671,-0.45993,0.041769,0.80543,-0.28439,-4.2026,-2.2052
0.0035879,0.0025508,-0.11432,0.005904,0.21994,0.067199,-0.0041029,0.22584,-0.52109,-0.60818,0.29077,-0.54189,0.00024256,-0.05765,-0.58634,1.2231,0.047254,-0.56818,-0.44242,0.0394,0.6695,-0.22867,-5.1447,-2.2154
0.0079374,0.0043167,-0.11982,0.0070504,0.19917,0.045632,-0.024152,0.17617,-0.55164,-0.58721,0.24378,-0.45581,0.013609,0.03081,-0.64174,1.2147,0.077671,-0.38764,-0.37279,0.038365,0.50451,-0.16064,-5.8839,-2.0263
0.010468,0.0014037,-0.12683,0.0081748,0.17468,0.017298,-0.038828,0.12719,-0.57428,-0.51601,0.24833,-0.41723,0.031975,0.12603,-0.67795,1.2408,0.11926,-0.14482,-0.24139,0.041646,0.34423,-0.095514,-6.3246,-1.8446
0.0093045,-0.004287,-0.13222,0.0084837,0.15158,-0.0087541,-0.04348,0.08266,-0.58736,-0.39849,0.31056,-0.45801,0.10693,0.22179,-0.68432,1.2466,0.16959,0.14875,-0.070944,0.050506,0.20679,-0.046216,-6.4513,-1.8356
0.0049946,-0.0088706,-0.13358,0.0080755,0.13313,-0.024629,-0.034348,0.043055,-0.58646,-0.2444,0.41226,-0.54458,0.27214,0.30571,-0.65757,1.2132,0.22383,0.45255,0.086263,0.064356,0.098159,-0.011486,-6.3065,-2.0263
0.00069015,-0.0096296,-0.13115,0.008001,0.11988,-0.028073,-0.013952,0.0062757,-0.56805,-0.075317,0.51377,-0.61332,0.53083,0.36157,-0.60595,1.1446,0.2782,0.71644,0.17292,0.081499,0.022942,0.025893,-5.9554,-2.3006
1.8828e-005,-0.0071102,-0.12783,0.0091367,0.10981,-0.023597,0.0074042,-0.029493,-0.53493,0.074418,0.57433,-0.62529,0.86181,0.37784,-0.54317,1.0339,0.33236,0.91327,0.15883,0.099811,-0.0095331,0.087631,-5.4614,-2.4883
0.0040823,-0.0043835,-0.12684,0.010999,0.099498,-0.019173,0.017045,-0.063302,-0.49708,0.1676,0.57666,-0.5904,1.2319,0.35638,-0.4771,0.84084,0.38845,1.0586,0.058947,0.11704,0.010504,0.1835,-4.8771,-2.4754
0.010204,-0.0042327,-0.12922,0.011847,0.085637,-0.020645,0.008852,-0.091851,-0.4654,0.18198,0.53707,-0.54259,1.5991,0.3133,-0.40339,0.50458,0.44787,1.201,-0.075374,0.13122,0.083296,0.3027,-4.2402,-2.2608
0.013826,-0.0068011,-0.13304,0.010234,0.066677,-0.02796,-0.011629,-0.11282,-0.4431,0.12483,0.49246,-0.49458,1.9052,0.26944,-0.31096,-0.01391,0.50853,1.3889,-0.18569,0.14154,0.193,0.41956,-3.5708,-1.9321
0.012194,-0.0096928,-0.13541,0.0066025,0.043413,-0.036063,-0.030734,-0.12825,-0.4232,0.03213,0.47446,-0.41865,2.0755,0.23704,-0.19503,-0.68794,0.56506,1.6379,-0.23615,0.14922,0.30992,0.50851,-2.8793,-1.6004
0.0067113,-0.010245,-0.13524,0.0032796,0.01817,-0.039584,-0.036548,-0.14475,-0.39534,-0.050036,0.49021,-0.27362,2.0441,0.21298,-0.066571,-1.4146,0.61156,1.9215,-0.22477,0.15714,0.39995,0.55671,-2.1884,-1.3495
0.0018258,-0.0078353,-0.13445,0.0026405,-0.0069033,-0.037283,-0.02738,-0.16961,-0.35633,-0.091034,0.52243,-0.053903,1.7981,0.18441,0.050353,-2.0501,0.64437,2.1869,-0.17241,0.16773,0.43611,0.56601,-1.5546,-1.2248
0.0013766,-0.0042574,-0.13609,0.0050891,-0.031041,-0.032511,-0.012148,-0.2058,-0.31442,-0.091092,0.54539,0.18542,1.4094,0.14173,0.13178,-2.4716,0.66284,2.3851,-0.10152,0.18038,0.40756,0.54531,-1.0589,-1.2401
0.0055487,-0.0020765,-0.1411,0.0088524,-0.05454,-0.029605,-0.0026927,-0.24975,-0.28312,-0.075915,0.54181,0.3541,1.0174,0.087988,0.16747,-2.6302,0.66776,2.4917,-0.021439,0.19057,0.32365,0.50168,-0.75773,-1.3748
0.011002,-0.0025822,-0.14652,0.011883,-0.077334,-0.029763,-0.0044886,-0.29367,-0.26984,-0.075055,0.50891,0.38636,0.76027,0.037042,0.16514,-2.5626,0.65961,2.5098,0.070602,0.19192,0.21093,0.43762,-0.62331,-1.559
0.013838,-0.0050647,-0.14702,0.013998,-0.098051,-0.030297,-0.013236,-0.33087,-0.26981,-0.10039,0.45358,0.28903,0.69473,0.0026305,0.14328,-2.3583,0.63815,2.4573,0.17698,0.18028,0.10226,0.35506,-0.53004,-1.6747
0.012624,-0.007746,-0.13894,0.016999,-0.11475,-0.027809,-0.019583,-0.35983,-0.27028,-0.14004,0.38546,0.14063,0.76399,-0.011626,0.11896,-2.1054,0.60377,2.3512,0.28785,0.15673,0.021313,0.26067,-0.31765,-1.5943
0.0089601,-0.0092716,-0.12342,0.022478,-0.12686,-0.022119,-0.017461,-0.3843,-0.2607,-0.17039,0.31526,0.041527,0.84306,-0.01307,0.099097,-1.8507,0.55902,2.2001,0.38092,0.12715,-0.029381,0.16653,0.098994,-1.2455
0.0055171,-0.0094472,-0.10583,0.029455,-0.1363,-0.01711,-0.008773,-0.40923,-0.23907,-0.17464,0.25666,0.05119,0.83098,-0.012169,0.079594,-1.5989,0.50895,2.0075,0.43441,0.09879,-0.06807,0.085729,0.65434,-0.65527
0.0037411,-0.0088406,-0.091877,0.034421,-0.14652,-0.017654,-0.00059343,-0.43526,-0.20945,-0.15316,0.22469,0.1562,0.72013,-0.013938,0.051121,-1.3475,0.45973,1.7809,0.44458,0.076282,-0.11983,0.026809,1.1603,0.060565
0.0032759,-0.0079169,-0.083536,0.034139,-0.15981,-0.025446,0.0023907,-0.4548,-0.17467,-0.11931,0.22746,0.28792,0.58895,-0.015984,0.0069703,-1.1267,0.41661,1.5363,0.43464,0.059941,-0.19827,-0.0083301,1.4321,0.75759
0.0031495,-0.006599,-0.07827,0.028822,-0.17531,-0.037515,0.0033607,-0.45227,-0.13259,-0.087242,0.25674,0.37272,0.52705,-0.013093,-0.051145,-1.009,0.38225,1.2969,0.44592,0.046992,-0.29662,-0.022401,1.425,1.3309
0.0030467,-0.0045376,-0.072144,0.022653,-0.18952,-0.04855,0.01166,-0.40924,-0.080552,-0.063799,0.28758,0.37764,0.55864,-0.001952,-0.11178,-1.0724,0.35626,1.0859,0.5143,0.034258,-0.39503,-0.019751,1.2755,1.7473
0.0032745,-0.0016778,-0.063851,0.020891,-0.19883,-0.054809,0.034898,-0.31383,-0.023127,-0.050279,0.29085,0.32248,0.6305,0.019327,-0.15749,-1.342,0.33611,0.92063,0.64612,0.020312,-0.47748,-0.0055092,1.2097,2.0303
0.0037546,0.001445,-0.055853,0.025896,-0.20186,-0.056245,0.071206,-0.17101,0.025593,-0.04918,0.25155,0.25679,0.67174,0.055114,-0.17231,-1.7536,0.31908,0.81248,0.81085,0.0060831,-0.54391,0.013421,1.3857,2.2188
0.0035205,0.0038606,-0.05149,0.035381,-0.19972,-0.055511,0.10817,-0.0077826,0.049677,-0.066265,0.17923,0.22415,0.66635,0.11278,-0.14971,-2.1723,0.30432,0.76841,0.95733,-0.0058066,-0.60745,0.028599,1.7865,2.3323
0.0015284,0.0045405,-0.05076,0.044327,-0.19425,-0.05536,0.12975,0.13291,0.04384,-0.10391,0.1023,0.24037,0.66689,0.19597,-0.096446,-2.4556,0.2937,0.79122,1.0437,-0.01236,-0.67992,0.033379,2.2435,2.3611
-0.0020634,0.0027335,-0.048902,0.048821,-0.18634,-0.056887,0.12638,0.21027,0.020006,-0.15215,0.050272,0.2961,0.73263,0.29542,-0.029548,-2.5168,0.29036,0.8747,1.0599,-0.011751,-0.75849,0.027279,2.5634,2.281
-0.0057102,-0.0017471,-0.039514,0.048649,-0.17591,-0.059588,0.10086,0.20746,0.0012984,-0.1879,0.036858,0.37401,0.84935,0.38691,0.032707,-2.3436,0.29551,0.99749,1.0263,-0.004618,-0.82494,0.016878,2.6562,2.0825
-0.0078554,-0.0081801,-0.019752,0.046734,-0.16334,-0.062216,0.066126,0.14281,0.0071897,-0.18653,0.054992,0.46192,0.91058,0.44154,0.080224,-1.9683,0.30584,1.1237,0.97078,0.0057251,-0.85764,0.01106,2.5727,1.795
-0.0085731,-0.014691,0.0069109,0.046268,-0.15058,-0.063092,0.036695,0.060203,0.041354,-0.13788,0.084358,0.55132,0.78753,0.44197,0.11461,-1.4271,0.3141,1.2149,0.9024,0.014861,-0.8459,0.013608,2.4364,1.4893
-0.0096867,-0.018591,0.032917,0.048135,-0.14069,-0.059949,0.019887,0.0023988,0.091717,-0.053882,0.10359,0.62669,0.43307,0.39175,0.14423,-0.75183,0.31345,1.2488,0.80586,0.02013,-0.7959,0.01934,2.3395,1.2467
-0.012996,-0.017634,0.052092,0.050629,-0.13629,-0.05059,0.01252,-0.015158,0.14195,0.038985,0.098817,0.65974,-0.070611,0.30971,0.17472,-0.0016403,0.3025,1.2327,0.66031,0.02289,-0.72501,0.01751,2.2845,1.1052
-0.018205,-0.011709,0.063786,0.051329,-0.13857,-0.034981,0.0044581,-0.011157,0.18407,0.11631,0.066118,0.6183,-0.56475,0.21413,0.20231,0.70719,0.28711,1.1991,0.4672,0.028147,-0.65108,7.5219e-005,2.2056,1.0201
-0.022644,-0.0036739,0.072333,0.04925,-0.14763,-0.017422,-0.014138,-0.021065,0.22136,0.16797,0.010783,0.48578,-0.92366,0.11072,0.21564,1.2219,0.27671,1.1857,0.26193,0.041308,-0.58552,-0.031923,2.0368,0.87746
-0.023271,0.0018295,0.082587,0.045449,-0.16335,-0.0064691,-0.046816,-0.069449,0.2601,0.19752,-0.054355,0.27771,-1.1276,-0.0052715,0.20429,1.4319,0.27784,1.2114,0.096802,0.064197,-0.53369,-0.069151,1.7659,0.56222
-0.019305,0.0012887,0.095578,0.041792,-0.18504,-0.011603,-0.089493,-0.15341,0.29898,0.21217,-0.1123,0.042987,-1.2397,-0.13521,0.16701,1.3513,0.28969,1.2677,0.0076557,0.093304,-0.49935,-0.10117,1.4409,0.039476
-0.013153,-0.0050495,0.10803,0.039259,-0.20978,-0.038346,-0.13373,-0.24856,0.32697,0.21445,-0.14859,-0.15199,-1.315,-0.26494,0.11254,1.1295,0.30482,1.3296,-0.0088892,0.12163,-0.48623,-0.12392,1.1384,-0.61581
-0.0087876,-0.013125,0.11586,0.037365,-0.23101,-0.084904,-0.1719,-0.33006,0.33234,0.20334,-0.15932,-0.24745,-1.3287,-0.3661,0.052604,0.96238,0.31403,1.376,0.011571,0.14265,-0.49375,-0.14128,0.92576,-1.2654
-0.008941,-0.018031,0.11835,0.035097,-0.23944,-0.14231,-0.20086,-0.3902,0.31419,0.18174,-0.15474,-0.21083,-1.1928,-0.41097,-0.0063202,0.95922,0.31112,1.4028,0.032039,0.15342,-0.5097,-0.15961,0.84003,-1.7944
-0.013365,-0.017781,0.11912,0.032281,-0.2267,-0.1975,-0.22228,-0.43908,0.28515,0.16057,-0.15404,-0.046679,-0.84569,-0.38902,-0.064865,1.0699,0.29437,1.4182,0.042532,0.15464,-0.50713,-0.18024,0.88466,-2.1673
-0.019329,-0.014671,0.12326,0.029922,-0.18956,-0.23728,-0.24002,-0.49099,0.2615,0.15345,-0.1733,0.20477,-0.33436,-0.31254,-0.12477,1.137,0.26493,1.4285,0.062361,0.14825,-0.45148,-0.19624,1.0324,-2.4141
-0.02361,-0.012928,0.13324,0.029158,-0.13173,-0.25172,-0.25655,-0.55057,0.24894,0.16614,-0.21432,0.47808,0.18479,-0.20837,-0.18139,1.0361,0.22497,1.4284,0.11587,0.13496,-0.31796,-0.19673,1.2287,-2.5682
-0.024332,-0.014679,0.14728,0.029922,-0.062136,-0.23681,-0.2708,-0.61056,0.23711,0.19078,-0.26245,0.70008,0.53165,-0.10394,-0.22317,0.79146,0.17741,1.4059,0.20464,0.11399,-0.11096,-0.17521,1.3986,-2.6222
-0.021563,-0.017914,0.16135,0.030708,0.0089633,-0.19625,-0.27867,-0.66085,0.20855,0.21136,-0.29469,0.81189,0.60638,-0.018676,-0.24006,0.56541,0.12652,1.3543,0.30147,0.085041,0.12758,-0.13532,1.4608,-2.5405
-0.016821,-0.018402,0.1727,0.029774,0.073266,-0.14136,-0.27593,-0.69828,0.15501,0.21583,-0.29273,0.78951,0.43536,0.035864,-0.23379,0.52803,0.077413,1.2783,0.37088,0.050727,0.3311,-0.088795,1.3495,-2.311
-0.012201,-0.013801,0.18162,0.026618,0.12537,-0.087437,-0.26173,-0.72765,0.087131,0.20414,-0.25292,0.65269,0.13572,0.052857,-0.21956,0.71517,0.033979,1.1883,0.39649,0.017207,0.44108,-0.046885,1.04,-1.9788
-0.0095803,-0.0060991,0.19003,0.022244,0.16198,-0.047252,-0.24058,-0.75413,0.028902,0.18499,-0.18784,0.45416,-0.16095,0.031599,-0.21591,0.99517,-0.0032613,1.0883,0.39025,-0.0079635,0.44316,-0.011736,0.57201,-1.625
-0.0099178,-1.5388e-005,0.19863,0.01792,0.18113,-0.02477,-0.22154,-0.77572,0.00081752,0.16462,-0.12002,0.25153,-0.36546,-0.01651,-0.23035,1.1718,-0.03705,0.97237,0.37633,-0.019547,0.38258,0.025179,0.061998,-1.3105
-0.01276,0.0011931,0.20546,0.013646,0.18272,-0.013837,-0.21437,-0.78381,0.0051802,0.13821,-0.07157,0.077229,-0.44148,-0.065711,-0.25364,1.1345,-0.071051,0.83309,0.36669,-0.017678,0.34373,0.075982,-0.31307,-1.038
-0.016346,-0.0013377,0.20727,0.0079141,0.16953,-0.003355,-0.22444,-0.77135,0.024758,0.092643,-0.055121,-0.073895,-0.3885,-0.085293,-0.26861,0.92868,-0.1073,0.6733,0.35221,-0.008291,0.40061,0.14592,-0.37399,-0.76587
-0.018568,-0.003066,0.20256,-0.00082953,0.14744,0.014422,-0.24913,-0.7409,0.035258,0.018886,-0.069553,-0.23049,-0.23011,-0.058177,-0.26609,0.69302,-0.14552,0.50794,0.31747,-0.00046459,0.56775,0.22768,-0.027962,-0.45736
-0.018286,7.0651e-005,0.19335,-0.012268,0.12387,0.038721,-0.27821,-0.7053,0.021856,-0.076313,-0.10218,-0.41483,-0.016053,0.004921,-0.25299,0.52434,-0.1843,0.35291,0.26356,-0.0019156,0.78483,0.30489,0.65854,-0.11677
-0.015942,0.0084555,0.18443,-0.02363,0.10502,0.062094,-0.2986,-0.6811,-0.011778,-0.16983,-0.13606,-0.62048,0.18254,0.06939,-0.24401,0.39126,-0.22222,0.21228,0.21581,-0.014947,0.9484,0.36181,1.4616,0.21675
-0.012874,0.018977,0.18055,-0.031205,0.093912,0.077335,-0.30134,-0.68162,-0.046838,-0.2343,-0.15871,-0.81503,0.30278,0.099136,-0.24361,0.16756,-0.25765,0.077916,0.20742,-0.035133,0.9727,0.39149,2.0993,0.50424
-0.0099338,0.027992,0.18382,-0.032949,0.090241,0.083305,-0.28676,-0.7151,-0.061363,-0.25409,-0.16761,-0.9644,0.33002,0.081965,-0.23547,-0.24802,-0.28774,-0.057124,0.25304,-0.053735,0.84118,0.3965,2.3808,0.73247
