-6.7526e-011,1.0476e-009,6.0136e-009,7.042e-010,1.1364e-009,1.4528e-009,-5.0741e-010,-1.022e-008,-1.8328e-010,7.5436e-010,-1.9235e-009,3.0232e-009,2.2247e-008,3.1583e-009,-2.0258e-010,1.7844e-008,-6.2104e-009,-1.955e-008,7.1519e-009,8.8555e-010,1.0438e-009,1.5377e-009,1.1582e-008,-1.5953e-008
-1.8621e-009,2.8571e-008,1.6602e-007,1.9591e-008,3.2073e-008,4.0423e-008,-1.4612e-008,-2.8251e-007,-5.0224e-009,2.0687e-008,-5.2872e-008,8.3338e-008,6.1076e-007,8.6472e-008,-4.8532e-009,4.8749e-007,-1.7122e-007,-5.4024e-007,1.9751e-007,2.4178e-008,2.9121e-008,4.2746e-008,3.203e-007,-4.4309e-007
-2.5041e-008,3.7857e-007,2.2284e-006,2.6495e-007,4.4104e-007,5.4738e-007,-2.0474e-007,-3.7965e-006,-6.683e-008,2.7574e-007,-7.0588e-007,1.1167e-006,8.1447e-006,1.1498e-006,-5.4211e-008,6.4656e-006,-2.2942e-006,-7.2575e-006,2.6518e-006,3.2059e-007,3.9502e-007,5.7783e-007,4.3066e-006,-5.9855e-006
-2.1891e-007,3.2468e-006,1.9373e-005,2.3204e-006,3.9375e-006,4.8067e-006,-1.8603e-006,-3.3042e-005,-5.7513e-007,2.3799e-006,-6.0967e-006,9.6889e-006,7.0277e-005,9.8907e-006,-3.662e-007,5.5455e-005,-1.9902e-005,-6.3142e-005,2.3062e-005,2.7506e-006,3.4711e-006,5.0604e-006,3.7506e-005,-5.2395e-005
-1.3994e-006,2.0258e-005,0.00012262,1.4788e-005,2.566e-005,3.0769e-005,-1.2323e-005,-0.00020933,-3.5964e-006,1.4949e-005,-3.8276e-005,6.1186e-005,0.00044091,6.1852e-005,-1.578e-006,0.00034562,-0.00012563,-0.00039987,0.00014603,1.7163e-005,2.2209e-005,3.2272e-005,0.00023781,-0.00033408
-6.9737e-006,9.7984e-005,0.00060197,7.3056e-005,0.00013008,0.00015302,-6.3426e-005,-0.0010285,-1.7402e-005,7.281e-005,-0.00018603,0.00029961,0.0021423,0.00029952,-3.6834e-006,0.0016673,-0.00061473,-0.0019638,0.00071733,8.2997e-005,0.00011024,0.00015968,0.0011697,-0.0016534
-2.82e-005,0.00038217,0.0023847,0.0002909,0.00053385,0.00061513,-0.00026401,-0.0040771,-6.7737e-005,0.000286,-0.00072762,0.0011834,0.0083834,0.001168,3.5428e-006,0.0064744,-0.0024253,-0.0077794,0.0028439,0.00032359,0.00044165,0.00063776,0.0046427,-0.006608
-9.5053e-005,0.0012344,0.007827,0.00095815,0.0018217,0.0020533,-0.00091311,-0.013388,-0.00021765,0.00093018,-0.0023499,0.0038709,0.027115,0.0037649,7.9191e-005,0.020774,-0.0079204,-0.025522,0.0093451,0.0010446,0.0014665,0.0021113,0.015272,-0.021904
-0.00027209,0.0033639,0.021682,0.0026572,0.0052673,0.0058002,-0.0026749,-0.037099,-0.00058764,0.0025509,-0.0063755,0.010682,0.073787,0.010212,0.00043352,0.056085,-0.021804,-0.070622,0.025933,0.0028454,0.0041116,0.005902,0.042412,-0.061359
-0.00066993,0.007837,0.051362,0.0062784,0.013079,0.014056,-0.0067306,-0.087896,-0.0013496,0.005973,-0.014694,0.025191,0.17099,0.023595,0.0016118,0.12906,-0.051245,-0.16694,0.061595,0.0066276,0.0098629,0.014117,0.10078,-0.14723
-0.0014303,0.015756,0.10498,0.01273,0.028152,0.02951,-0.014697,-0.17969,-0.002659,0.01204,-0.028945,0.051229,0.33996,0.046808,0.004681,0.25541,-0.10369,-0.34001,0.12642,0.013327,0.020427,0.029159,0.20679,-0.30554
-0.0026579,0.027501,0.18616,0.022207,0.052831,0.054033,-0.028052,-0.31883,-0.0045211,0.020985,-0.04876,0.090339,0.58179,0.080035,0.01116,0.43748,-0.18147,-0.59953,0.22569,0.023286,0.036733,0.052315,0.36873,-0.55196
-0.0042939,0.04182,0.28718,0.03324,0.086643,0.086624,-0.047031,-0.49255,-0.0066669,0.031628,-0.069773,0.13849,0.85598,0.11792,0.022302,0.65177,-0.27498,-0.91628,0.35194,0.035481,0.057495,0.081752,0.57337,-0.87133
-0.0059836,0.05546,0.38511,0.04224,0.12394,0.12174,-0.069445,-0.66298,-0.0085898,0.041017,-0.083161,0.18449,1.0751,0.14892,0.037528,0.8497,-0.35956,-1.2099,0.48052,0.0472,0.078243,0.11124,0.77851,-1.2037
-0.0070511,0.064091,0.44723,0.04443,0.15341,0.14968,-0.090375,-0.77644,-0.009836,0.045182,-0.078455,0.21283,1.1344,0.15912,0.052493,0.98176,-0.402,-1.3678,0.57528,0.054737,0.092054,0.13129,0.92279,-1.4538
-0.0066966,0.064483,0.44655,0.036325,0.16109,0.1601,-0.10359,-0.78976,-0.01042,0.041091,-0.049433,0.21137,0.9746,0.14012,0.05818,1.0377,-0.37733,-1.2984,0.60566,0.055108,0.09248,0.13328,0.95511,-1.5304
-0.0044141,0.056733,0.38018,0.018536,0.13669,0.14724,-0.10456,-0.69948,-0.010993,0.028824,0.00024856,0.17988,0.63995,0.096054,0.04271,1.074,-0.28718,-0.99445,0.56617,0.047823,0.077412,0.11479,0.86919,-1.3981
-0.00043611,0.044769,0.27648,-0.0033249,0.080033,0.11398,-0.093415,-0.55103,-0.012434,0.012276,0.056513,0.1327,0.28169,0.043527,-0.0035875,1.1958,-0.1654,-0.5567,0.48319,0.035346,0.051216,0.082307,0.71689,-1.106
0.0041207,0.034252,0.18187,-0.021155,0.0029603,0.07115,-0.075768,-0.41415,-0.01503,-0.0026405,0.10171,0.091658,0.081452,0.002129,-0.081753,1.491,-0.06229,-0.14913,0.39985,0.021552,0.022958,0.048582,0.58297,-0.76462
0.0076323,0.029036,0.13286,-0.029261,-0.075649,0.032022,-0.060105,-0.33724,-0.017936,-0.011534,0.12539,0.072493,0.1341,-0.018912,-0.18048,1.9565,-0.014627,0.096652,0.34671,0.0090783,0.0012121,0.025477,0.53214,-0.48155
0.0087652,0.028776,0.13264,-0.028201,-0.13955,0.0053046,-0.053019,-0.31524,-0.019649,-0.01436,0.13126,0.074526,0.37504,-0.027563,-0.2788,2.4764,-0.022685,0.16077,0.32039,-0.0024528,-0.011079,0.017187,0.56566,-0.29927
0.0072509,0.029642,0.15122,-0.024213,-0.18303,-0.0084301,-0.055381,-0.29987,-0.019371,-0.01521,0.13416,0.082069,0.61763,-0.042709,-0.35528,2.8785,-0.052966,0.13432,0.28922,-0.015805,-0.017694,0.018957,0.62287,-0.18385
0.0041244,0.027659,0.15029,-0.024148,-0.21113,-0.014464,-0.062283,-0.2465,-0.018107,-0.018943,0.14863,0.077174,0.68364,-0.078831,-0.39878,3.033,-0.065977,0.13558,0.2233,-0.033452,-0.025152,0.022202,0.6294,-0.071077
0.0012127,0.021919,0.11342,-0.0298,-0.23189,-0.018088,-0.066897,-0.15798,-0.018228,-0.027096,0.17752,0.053644,0.52967,-0.13401,-0.41351,2.9179,-0.047058,0.21077,0.12426,-0.054944,-0.036875,0.021592,0.55423,0.071783
0.00014424,0.015024,0.056752,-0.036531,-0.24678,-0.020283,-0.065441,-0.08477,-0.021443,-0.036281,0.21008,0.020846,0.26923,-0.19138,-0.41425,2.6029,-0.014808,0.30292,0.028253,-0.076436,-0.050449,0.01809,0.42925,0.22293
0.0014703,0.010555,0.012135,-0.037655,-0.2475,-0.018409,-0.059561,-0.078594,-0.026836,-0.040372,0.23077,-0.0055187,0.074151,-0.23241,-0.41428,2.1751,-0.00068121,0.31363,-0.022273,-0.092702,-0.060313,0.015761,0.31614,0.33781
0.0044224,0.009933,-0.0018252,-0.030942,-0.22241,-0.010703,-0.054574,-0.14051,-0.030938,-0.034816,0.23155,-0.017166,0.038778,-0.24986,-0.41465,1.6772,-0.018476,0.19964,-0.01438,-0.099944,-0.063277,0.016009,0.25151,0.39957
0.0074288,0.011446,0.0049046,-0.021405,-0.16763,2.6218e-005,-0.055319,-0.21219,-0.030181,-0.019769,0.21732,-0.019412,0.11845,-0.24928,-0.40277,1.1109,-0.050996,0.015316,0.022662,-0.097266,-0.061633,0.015104,0.21872,0.43602
0.0090521,0.012056,0.0045142,-0.017626,-0.093381,0.0072627,-0.063058,-0.2214,-0.023801,0.00015475,0.20069,-0.02494,0.18458,-0.23932,-0.36185,0.48926,-0.065044,-0.13629,0.038784,-0.086067,-0.06084,0.0075075,0.16919,0.48692
0.0087802,0.010101,-0.023115,-0.02458,-0.019466,0.0055658,-0.075556,-0.14266,-0.014553,0.019001,0.19131,-0.041679,0.13708,-0.22193,-0.28402,-0.12648,-0.040231,-0.19586,0.0002471,-0.068521,-0.063945,-0.0083371,0.070298,0.55734
0.0072349,0.0063803,-0.073666,-0.039188,0.037179,-0.0050456,-0.089533,-0.018956,-0.0064597,0.032902,0.18929,-0.066102,-0.027327,-0.19307,-0.17746,-0.65087,0.014522,-0.19612,-0.088234,-0.046834,-0.068166,-0.027486,-0.065319,0.60787
0.005732,0.0028737,-0.12436,-0.052463,0.072972,-0.01909,-0.10274,0.075325,-0.0016022,0.041388,0.1876,-0.087543,-0.24165,-0.15261,-0.062317,-1.0375,0.070389,-0.22209,-0.19237,-0.023815,-0.067167,-0.041921,-0.19457,0.59584
0.0054893,0.0006317,-0.15516,-0.05637,0.0974,-0.030006,-0.11374,0.097696,0.0010901,0.046138,0.18001,-0.098581,-0.44994,-0.11193,0.040882,-1.3174,0.10368,-0.32327,-0.27732,-0.0036443,-0.057166,-0.046951,-0.28605,0.52916
0.0069287,-0.0010183,-0.16492,-0.04951,0.122,-0.035076,-0.12012,0.071731,0.0040097,0.048692,0.16671,-0.10142,-0.65829,-0.089098,0.12144,-1.571,0.11337,-0.46161,-0.33132,0.0087411,-0.041276,-0.044931,-0.34845,0.47902
0.0094257,-0.0033098,-0.16895,-0.037094,0.14784,-0.036757,-0.11732,0.063913,0.0079526,0.049142,0.15314,-0.10465,-0.90899,-0.094147,0.18016,-1.8579,0.11708,-0.54322,-0.36706,0.0099333,-0.02795,-0.043181,-0.41932,0.53468
0.01163,-0.0062987,-0.18266,-0.025877,0.16258,-0.039629,-0.10026,0.12549,0.011125,0.046636,0.14397,-0.11425,-1.21,-0.11809,0.22284,-2.1679,0.13205,-0.50204,-0.40515,0.00051138,-0.024734,-0.048201,-0.52664,0.73691
0.012227,-0.00848,-0.20781,-0.0189,0.15034,-0.04592,-0.066794,0.25019,0.011131,0.040862,0.13875,-0.12773,-1.4948,-0.13683,0.2525,-2.4363,0.16019,-0.35641,-0.45688,-0.014478,-0.032781,-0.061223,-0.66022,1.0465
0.010778,-0.0082803,-0.23333,-0.014445,0.10674,-0.053482,-0.020527,0.38218,0.0079388,0.032968,0.13312,-0.13674,-1.6562,-0.12789,0.2672,-2.6007,0.18978,-0.18834,-0.51915,-0.027881,-0.046699,-0.078405,-0.77874,1.3725
0.0081632,-0.0060059,-0.24763,-0.0093417,0.046581,-0.057675,0.029548,0.4646,0.0047926,0.025004,0.12371,-0.13504,-1.6263,-0.086075,0.26494,-2.643,0.20954,-0.06817,-0.58047,-0.034271,-0.059389,-0.094678,-0.84422,1.6329
0.0062034,-0.0042331,-0.24939,-0.0028843,-0.0032923,-0.055235,0.072812,0.4871,0.0059731,0.018364,0.11165,-0.12408,-1.4326,-0.025219,0.25033,-2.5836,0.21996,0.0042828,-0.62783,-0.032579,-0.067243,-0.10739,-0.85157,1.7982
0.0065398,-0.005983,-0.24728,0.002409,-0.021322,-0.046881,0.102,0.49485,0.013379,0.012671,0.10121,-0.1113,-1.1815,0.034086,0.23636,-2.4461,0.23136,0.090935,-0.64842,-0.025696,-0.071231,-0.11684,-0.82832,1.8865
0.0093935,-0.012104,-0.25056,0.0035468,-0.0057626,-0.03683,0.11639,0.55408,0.024964,0.0061925,0.095292,-0.10325,-0.98557,0.079032,0.23893,-2.2391,0.2524,0.25276,-0.6284,-0.017485,-0.073666,-0.12412,-0.80919,1.9263
0.013153,-0.020182,-0.26101,0.0003208,0.024845,-0.029986,0.12135,0.70168,0.036313,-0.0023613,0.092199,-0.1006,-0.89468,0.10967,0.26762,-1.9736,0.28115,0.49364,-0.55475,-0.0096546,-0.074372,-0.12887,-0.81223,1.9226
0.015278,-0.026118,-0.27342,-0.0041268,0.04567,-0.029098,0.12477,0.91571,0.043821,-0.012125,0.086723,-0.099129,-0.88149,0.13298,0.3197,-1.692,0.30741,0.75912,-0.42122,-0.00076554,-0.070194,-0.12923,-0.83812,1.8559
0.014035,-0.027239,-0.2825,-0.0058254,0.043287,-0.033703,0.13258,1.1266,0.046822,-0.019951,0.074389,-0.095065,-0.88084,0.15415,0.38123,-1.4681,0.32292,0.98469,-0.23319,0.012221,-0.058195,-0.12375,-0.88838,1.7073
0.0097896,-0.02437,-0.2882,-0.0031052,0.0238,-0.041024,0.14583,1.2606,0.047217,-0.022203,0.054952,-0.089017,-0.84238,0.17384,0.43415,-1.3715,0.32938,1.1454,-0.0065888,0.031559,-0.039276,-0.11307,-0.9789,1.4866
0.0048184,-0.021104,-0.29431,0.002459,0.0060208,-0.047812,0.16098,1.2866,0.047447,-0.017183,0.032295,-0.084851,-0.75614,0.19189,0.46476,-1.4259,0.33669,1.2649,0.2378,0.057524,-0.018581,-0.099592,-1.1307,1.2374
0.0016961,-0.020871,-0.30282,0.0078391,0.0059024,-0.052037,0.17283,1.2342,0.048635,-0.0062926,0.011246,-0.085126,-0.64372,0.21152,0.46904,-1.599,0.3542,1.3832,0.47843,0.088977,-0.0020852,-0.085404,-1.3438,1.0188
0.0014973,-0.024296,-0.31088,0.011174,0.024437,-0.0539,0.17831,1.1721,0.050132,0.0069626,-0.0056192,-0.087945,-0.53616,0.23802,0.45339,-1.8267,0.38337,1.5206,0.69171,0.12446,0.0077691,-0.070382,-1.5796,0.87671
0.0032129,-0.029035,-0.31339,0.012865,0.047448,-0.056016,0.17877,1.1599,0.050317,0.019262,-0.018751,-0.088352,-0.4607,0.27318,0.43163,-2.0469,0.41801,1.668,0.84882,0.16234,0.013738,-0.05223,-1.7719,0.82285
0.0048015,-0.032044,-0.30849,0.014475,0.056173,-0.062542,0.17925,1.2055,0.047761,0.02906,-0.030043,-0.082836,-0.43835,0.31099,0.41947,-2.2132,0.45032,1.8075,0.91855,0.19978,0.021464,-0.028578,-1.8617,0.83068
0.0049584,-0.032091,-0.29997,0.016767,0.040154,-0.076986,0.18527,1.2596,0.042065,0.03621,-0.040965,-0.072626,-0.48055,0.33936,0.42777,-2.29,0.47593,1.9336,0.87922,0.23205,0.035205,0.0005581,-1.8315,0.8474
0.0041147,-0.030336,-0.2941,0.018809,0.0038494,-0.099172,0.19919,1.2495,0.034142,0.040233,-0.052129,-0.062808,-0.57902,0.34653,0.45662,-2.2517,0.49351,2.0524,0.73302,0.25338,0.054981,0.031953,-1.712,0.81629
0.0038588,-0.028805,-0.2943,0.018929,-0.035948,-0.123,0.21876,1.1299,0.025926,0.039217,-0.064096,-0.058197,-0.69859,0.32729,0.49344,-2.0963,0.50039,2.1599,0.51054,0.25936,0.077081,0.060663,-1.5575,0.70046
0.0053163,-0.028548,-0.29851,0.016586,-0.058801,-0.13713,0.23895,0.91344,0.019568,0.030784,-0.077973,-0.059654,-0.7869,0.28502,0.51761,-1.8609,0.49,2.2237,0.25829,0.2489,0.097072,0.082688,-1.4096,0.49854
0.0079225,-0.029306,-0.30151,0.013446,-0.050112,-0.12944,0.25564,0.66158,0.016383,0.014538,-0.094841,-0.063843,-0.80096,0.22916,0.51061,-1.6142,0.45431,2.1904,0.015296,0.22422,0.11265,0.096833,-1.2755,0.24473
0.0097015,-0.03066,-0.29924,0.012624,-0.007376,-0.093656,0.26826,0.44572,0.016126,-0.0062675,-0.11463,-0.066266,-0.73275,0.17051,0.46644,-1.4185,0.38971,2.017,-0.2054,0.18869,0.12424,0.10457,-1.1335,-0.0078576
0.0088805,-0.033011,-0.29131,0.016535,0.058591,-0.034329,0.27939,0.30823,0.017149,-0.02575,-0.13584,-0.064733,-0.61337,0.11655,0.39534,-1.2868,0.30106,1.7034,-0.41618,0.14478,0.13319,0.10829,-0.95679,-0.21222
0.0054752,-0.037043,-0.27992,0.025,0.12772,0.033307,0.29169,0.25017,0.017444,-0.038766,-0.15661,-0.060412,-0.49103,0.068353,0.31806,-1.1706,0.20052,1.3009,-0.63544,0.093637,0.13956,0.10945,-0.73638,-0.34655
0.001421,-0.042231,-0.2672,0.035156,0.17882,0.089145,0.3048,0.24795,0.015872,-0.04413,-0.17606,-0.05596,-0.39947,0.020602,0.25402,-0.99418,0.10217,0.88976,-0.8639,0.036867,0.14128,0.10791,-0.48686,-0.417
-0.0009926,-0.046274,-0.25393,0.043364,0.19818,0.11672,0.31502,0.2792,0.012671,-0.045099,-0.1944,-0.052749,-0.33936,-0.034296,0.21128,-0.71463,0.016495,0.5413,-1.0752,-0.021502,0.13552,0.1025,-0.23536,-0.44473
-0.0011494,-0.046547,-0.24019,0.047738,0.1839,0.10979,0.31807,0.33462,0.0089259,-0.046732,-0.21163,-0.049748,-0.28406,-0.099128,0.18487,-0.36522,-0.052083,0.28845,-1.2278,-0.074951,0.12113,0.09206,-0.0041136,-0.44848
-0.00085473,-0.042497,-0.22637,0.049381,0.14285,0.073761,0.31242,0.40931,0.0054933,-0.052251,-0.22629,-0.044907,-0.20213,-0.16647,0.16343,-0.051459,-0.10415,0.12116,-1.2888,-0.1168,0.10004,0.076147,0.2004,-0.43535
-0.0030223,-0.03665,-0.21282,0.051446,0.082794,0.021882,0.30025,0.48732,0.0022829,-0.061266,-0.2361,-0.03754,-0.07903,-0.22032,0.13857,0.097449,-0.14285,0.0044635,-1.2516,-0.14335,0.076445,0.055217,0.38631,-0.40479
-0.009213,-0.032944,-0.19859,0.056829,0.006279,-0.031217,0.28513,0.53882,-0.0015602,-0.071028,-0.24024,-0.029386,0.075585,-0.24568,0.10976,-0.0098603,-0.17196,-0.096174,-1.1356,-0.15542,0.054181,0.030631,0.56653,-0.36043
-0.017973,-0.033622,-0.18121,0.066229,-0.088261,-0.075213,0.26865,0.53622,-0.0067717,-0.079291,-0.24141,-0.023299,0.23593,-0.24009,0.082167,-0.38765,-0.19477,-0.19848,-0.9713,-0.15715,0.034265,0.0046234,0.74788,-0.31977
-0.025394,-0.037356,-0.15862,0.077846,-0.19926,-0.10683,0.24909,0.47557,-0.013118,-0.08616,-0.24503,-0.020725,0.37456,-0.21776,0.060543,-0.97073,-0.21343,-0.30294,-0.78512,-0.15309,0.014539,-0.020016,0.92592,-0.31415
-0.02763,-0.04029,-0.13151,0.088568,-0.316,-0.12903,0.22365,0.38249,-0.01926,-0.09341,-0.25577,-0.020224,0.47277,-0.20175,0.044854,-1.6387,-0.22846,-0.40332,-0.59422,-0.14556,-0.0081033,-0.040734,1.0875,-0.37895
-0.023553,-0.039104,-0.10376,0.095615,-0.42055,-0.14741,0.19244,0.2939,-0.023484,-0.1021,-0.27395,-0.018369,0.52235,-0.20896,0.030779,-2.2469,-0.23879,-0.4975,-0.41151,-0.13427,-0.034494,-0.056179,1.2183,-0.53927
-0.015635,-0.033524,-0.079777,0.097646,-0.497,-0.16585,0.16071,0.22825,-0.02481,-0.11075,-0.29507,-0.012357,0.52093,-0.23921,0.01373,-2.6551,-0.24301,-0.59055,-0.25156,-0.11783,-0.061505,-0.066586,1.31,-0.79857
-0.0084474,-0.026277,-0.060938,0.095043,-0.53991,-0.18348,0.13703,0.16871,-0.023699,-0.11582,-0.31309,-0.0022545,0.46754,-0.27619,-0.0078337,-2.7557,-0.24105,-0.68947,-0.12961,-0.095913,-0.083369,-0.07317,1.3635,-1.1349
-0.0058846,-0.020814,-0.044487,0.089533,-0.55422,-0.19494,0.12843,0.073962,-0.021778,-0.11411,-0.3251,0.0088178,0.3631,-0.29872,-0.032757,-2.5087,-0.23515,-0.79573,-0.054624,-0.070304,-0.095206,-0.076931,1.3852,-1.5057
-0.0089937,-0.018855,-0.026172,0.083344,-0.54617,-0.19384,0.136,-0.091096,-0.020713,-0.10511,-0.33329,0.016646,0.21593,-0.29291,-0.060443,-1.9705,-0.22923,-0.90175,-0.023461,-0.044372,-0.096121,-0.077847,1.3815,-1.8569
-0.015682,-0.019674,-0.0043378,0.078167,-0.5138,-0.17713,0.15403,-0.32879,-0.021007,-0.091498,-0.34266,0.018563,0.046627,-0.25672,-0.093513,-1.2944,-0.22705,-0.99385,-0.021165,-0.021675,-0.089551,-0.075137,1.3544,-2.1325
-0.022248,-0.021312,0.018328,0.074412,-0.44612,-0.14716,0.17327,-0.60639,-0.02169,-0.077495,-0.35638,0.014973,-0.11426,-0.19635,-0.13694,-0.68527,-0.23037,-1.0586,-0.026562,-0.0048817,-0.080629,-0.068326,1.3021,-2.2817
-0.025606,-0.022338,0.037217,0.071307,-0.33307,-0.10973,0.18569,-0.87781,-0.021171,-0.066399,-0.37264,0.0089066,-0.23737,-0.12063,-0.19387,-0.31821,-0.23844,-1.0882,-0.0186,0.0044101,-0.072659,-0.058175,1.2243,-2.2659
-0.024896,-0.022633,0.050314,0.067896,-0.17878,-0.069627,0.18739,-1.1099,-0.018573,-0.059097,-0.38554,0.004127,-0.3083,-0.038887,-0.26147,-0.2631,-0.24868,-1.0813,0.019035,0.0053618,-0.065364,-0.046653,1.1268,-2.0698
-0.021644,-0.0228,0.060756,0.064171,-0.0072115,-0.027351,0.17835,-1.292,-0.014407,-0.054187,-0.38927,0.00316,-0.33298,0.038028,-0.33035,-0.4579,-0.25796,-1.0416,0.094204,-0.0020715,-0.056005,-0.035908,1.0228,-1.7152
-0.01854,-0.023083,0.075031,0.061331,0.14525,0.020189,0.16007,-1.4232,-0.010001,-0.049208,-0.38229,0.0063763,-0.32841,0.098438,-0.38854,-0.74849,-0.26348,-0.97524,0.20283,-0.016468,-0.042162,-0.026961,0.92703,-1.2674
-0.017599,-0.022919,0.098238,0.060862,0.24613,0.075639,0.1337,-1.4917,-0.0062594,-0.041999,-0.36846,0.012392,-0.30416,0.13457,-0.42763,-0.97005,-0.26289,-0.89047,0.32812,-0.034334,-0.02382,-0.019005,0.8474,-0.8235
-0.018909,-0.021506,0.1303,0.063197,0.28179,0.13713,0.10021,-1.4677,-0.0029408,-0.031571,-0.35443,0.019195,-0.2497,0.14786,-0.44697,-1.0207,-0.25426,-0.79694,0.44576,-0.050664,-0.0033558,-0.0097941,0.77917,-0.48174
-0.020843,-0.018754,0.16602,0.067092,0.26152,0.19746,0.062095,-1.3205,0.00084653,-0.018416,-0.34537,0.025208,-0.14003,0.14885,-0.45328,-0.88695,-0.23633,-0.70443,0.53454,-0.060935,0.016084,0.0029955,0.70656,-0.30344
-0.021601,-0.015682,0.19858,0.070204,0.20885,0.24685,0.024836,-1.0497,0.0054546,-0.0042961,-0.34206,0.029831,0.042617,0.1501,-0.45611,-0.61661,-0.2093,-0.61972,0.58607,-0.06335,0.032147,0.020052,0.61205,-0.29043
-0.020872,-0.013806,0.22341,0.07031,0.14604,0.27703,-0.0035719,-0.705,0.010011,0.0084931,-0.34119,0.033454,0.28826,0.15751,-0.46207,-0.26646,-0.17557,-0.54386,0.60657,-0.059414,0.04361,0.039257,0.48795,-0.39157
-0.020134,-0.014007,0.23978,0.066283,0.081827,0.28379,-0.015456,-0.3766,0.012956,0.018245,-0.33829,0.037089,0.55847,0.16798,-0.47102,0.13627,-0.13955,-0.47247,0.60946,-0.051997,0.049778,0.055909,0.34301,-0.53386
-0.021209,-0.015774,0.24971,0.058369,0.0098901,0.26718,-0.0075969,-0.15312,0.013337,0.024824,-0.33107,0.041727,0.80876,0.17535,-0.47584,0.59834,-0.10609,-0.39948,0.60467,-0.042195,0.050084,0.064662,0.19936,-0.65759
-0.024282,-0.017462,0.25623,0.047953,-0.081942,0.23053,0.01534,-0.073092,0.011671,0.02985,-0.32066,0.047646,1.0165,0.17894,-0.46562,1.1375,-0.078286,-0.322,0.59233,-0.027737,0.044568,0.062481,0.081152,-0.73497
-0.02728,-0.017395,0.26217,0.037093,-0.19833,0.17964,0.040293,-0.10267,0.0096112,0.035887,-0.31006,0.054117,1.1907,0.1861,-0.4306,1.7557,-0.055982,-0.24274,0.56425,-0.0047544,0.034708,0.050915,0.001543,-0.76626
-0.027365,-0.01497,0.26993,0.027824,-0.32806,0.12223,0.049662,-0.15932,0.0087471,0.045085,-0.30118,0.059903,1.3527,0.20572,-0.36705,2.43,-0.036249,-0.16826,0.51025,0.02811,0.023517,0.035891,-0.044291,-0.76379
-0.023378,-0.010958,0.28072,0.021215,-0.44592,0.066819,0.028862,-0.1703,0.0095251,0.058096,-0.29286,0.064428,1.504,0.23844,-0.28008,3.1226,-0.015678,-0.10485,0.42485,0.066621,0.014394,0.024611,-0.076481,-0.73958
-0.01702,-0.0068274,0.29353,0.016597,-0.52317,0.020817,-0.025804,-0.12776,0.011061,0.073701,-0.28145,0.068734,1.609,0.27277,-0.18288,3.7971,0.0069675,-0.055022,0.31155,0.10192,0.0093796,0.021238,-0.11994,-0.70349
-0.011616,-0.0037018,0.30483,0.01175,-0.54019,-0.011436,-0.10386,-0.10046,0.011801,0.08915,-0.26348,0.075234,1.6126,0.29124,-0.092081,4.4225,0.029528,-0.017019,0.18442,0.12536,0.008041,0.024299,-0.1919,-0.66688
-0.0094938,-0.0018094,0.31059,0.0043441,-0.49432,-0.029338,-0.18506,-0.18984,0.010453,0.10104,-0.23789,0.086091,1.482,0.28159,-0.020808,4.9613,0.047386,0.013335,0.065999,0.13367,0.0077603,0.027794,-0.29379,-0.64283
-0.01031,-0.00079309,0.30957,-0.0062061,-0.39942,-0.035225,-0.2499,-0.45692,0.006685,0.10673,-0.20641,0.10124,1.2411,0.24376,0.027146,5.3555,0.055814,0.040023,-0.019643,0.13029,0.0051997,0.025353,-0.41116,-0.64024
-0.011775,-0.00049069,0.30526,-0.018008,-0.27789,-0.032959,-0.28989,-0.86873,0.001409,0.10607,-0.17187,0.11765,0.96741,0.18722,0.05879,5.5319,0.052142,0.064771,-0.057897,0.12173,-0.0019908,0.014417,-0.52105,-0.65784
-0.011987,-0.0013628,0.30384,-0.027972,-0.14912,-0.026882,-0.31088,-1.3013,-0.0033468,0.10253,-0.1363,0.1307,0.75051,0.12228,0.087874,5.4356,0.03654,0.085506,-0.05292,0.112,-0.014171,-0.0026291,-0.60248,-0.6849
-0.011091,-0.0040633,0.30931,-0.034282,-0.020361,-0.021099,-0.32713,-1.5987,-0.005101,0.10233,-0.1004,0.1369,0.64188,0.054104,0.12721,5.0741,0.011282,0.095188,-0.028066,0.099634,-0.029842,-0.020982,-0.64393,-0.70833
-0.010668,-0.0084496,0.31957,-0.038032,0.11432,-0.018632,-0.3509,-1.6512,-0.0021096,0.11117,-0.064539,0.13604,0.63375,-0.01522,0.18134,4.5381,-0.020692,0.081875,-0.014994,0.079881,-0.046703,-0.037333,-0.64381,-0.71822
-0.011522,-0.012943,0.32727,-0.042495,0.26477,-0.020614,-0.38515,-1.4458,0.005393,0.13017,-0.02972,0.13117,0.68158,-0.079472,0.24364,3.9728,-0.056869,0.031462,-0.037371,0.049944,-0.06295,-0.051892,-0.60457,-0.70572
-0.01218,-0.01501,0.32516,-0.050499,0.42993,-0.026483,-0.4242,-1.0614,0.01482,0.15387,0.0025008,0.12624,0.74832,-0.12471,0.2994,3.51,-0.095236,-0.066466,-0.099643,0.012729,-0.078019,-0.067064,-0.52639,-0.65665
-0.009847,-0.01267,0.31161,-0.062044,0.58837,-0.035563,-0.46028,-0.61976,0.022335,0.17246,0.031173,0.1231,0.83209,-0.13497,0.33375,3.204,-0.13343,-0.21144,-0.18739,-0.024125,-0.0923,-0.084256,-0.40659,-0.55119
-0.0032132,-0.0059968,0.29164,-0.074218,0.70355,-0.048501,-0.48981,-0.22497,0.024942,0.17706,0.056758,0.12028,0.95415,-0.10403,0.33992,3.0168,-0.16771,-0.38711,-0.27697,-0.052993,-0.10602,-0.10187,-0.24613,-0.37562
0.005469,0.0025943,0.27267,-0.083544,0.74378,-0.066271,-0.51415,0.074475,0.022051,0.16426,0.08057,0.1144,1.12,-0.043699,0.32296,2.8622,-0.19285,-0.56176,-0.34626,-0.070653,-0.11815,-0.1163,-0.057592,-0.13862
0.011293,0.0096652,0.25874,-0.088815,0.70424,-0.086445,-0.53545,0.28604,0.015266,0.13673,0.10329,0.10323,1.2904,0.019092,0.29576,2.6738,-0.20332,-0.69579,-0.38037,-0.078773,-0.12618,-0.12485,0.13318,0.12368
0.010307,0.012808,0.24832,-0.092068,0.61423,-0.10008,-0.55234,0.44578,0.0065961,0.099856,0.12408,0.087616,1.39,0.055237,0.26915,2.4421,-0.19545,-0.75402,-0.37278,-0.080673,-0.12714,-0.12794,0.29543,0.36296
0.0029666,0.011937,0.23696,-0.096885,0.52208,-0.09379,-0.55993,0.58488,-0.003205,0.057809,0.14126,0.070806,1.3521,0.047531,0.24233,2.1946,-0.16932,-0.71815,-0.32618,-0.077936,-0.11913,-0.1282,0.40676,0.54568
-0.0056551,0.0089087,0.22205,-0.1054,0.46637,-0.05791,-0.55405,0.70918,-0.014594,0.012627,0.15416,0.055646,1.1627,-0.0029767,0.20102,1.9438,-0.12919,-0.59351,-0.25449,-0.070282,-0.1024,-0.12759,0.46199,0.67005
-0.0094509,0.0059174,0.20508,-0.11638,0.45349,0.0043713,-0.53608,0.79878,-0.027546,-0.033389,0.16425,0.042295,0.8731,-0.080634,0.12633,1.6566,-0.08223,-0.40674,-0.18231,-0.058613,-0.079281,-0.12502,0.47145,0.75837
-0.0059531,0.0040228,0.18975,-0.1259,0.45707,0.075018,-0.51417,0.8232,-0.04002,-0.075011,0.17443,0.028448,0.56905,-0.16406,0.0096463,1.2758,-0.036444,-0.19555,-0.13714,-0.047682,-0.053135,-0.11691,0.45087,0.8311
0.0017074,0.0028999,0.17826,-0.13,0.43948,0.12986,-0.49998,0.76107,-0.048378,-0.10465,0.18687,0.011775,0.32031,-0.23391,-0.13666,0.77811,0.0014278,0.0040846,-0.13565,-0.044876,-0.026956,-0.10021,0.41108,0.88647
0.0072562,0.0017304,0.16938,-0.12744,0.37921,0.15287,-0.50291,0.61358,-0.049767,-0.11656,0.2013,-0.0078413,0.14327,-0.27676,-0.28104,0.21193,0.027124,0.16673,-0.17323,-0.055381,-0.0023624,-0.075252,0.35402,0.90499
0.0062227,0.00022111,0.15988,-0.12047,0.2851,0.14543,-0.52521,0.40519,-0.044503,-0.11139,0.21537,-0.028315,-0.0020657,-0.28636,-0.38741,-0.32579,0.039301,0.27959,-0.226,-0.077809,0.020633,-0.045847,0.2756,0.87518
-0.00060012,-0.0011681,0.14733,-0.11328,0.18822,0.12311,-0.5602,0.17208,-0.036259,-0.096934,0.22675,-0.047283,-0.18436,-0.26437,-0.43335,-0.76244,0.039339,0.33942,-0.26631,-0.10453,0.043036,-0.016787,0.17054,0.81568
-0.0079026,-0.0018038,0.13173,-0.10928,0.11929,0.10274,-0.59417,-0.054395,-0.029641,-0.083899,0.23545,-0.06369,-0.46231,-0.22049,-0.42021,-1.1134,0.030624,0.34882,-0.28127,-0.12692,0.065706,0.0089067,0.03486,0.77057
-0.010059,-0.0015329,0.11462,-0.10901,0.088913,0.090485,-0.61142,-0.25841,-0.026973,-0.079537,0.24408,-0.077377,-0.85461,-0.17049,-0.3691,-1.4797,0.017271,0.31444,-0.28066,-0.14114,0.088136,0.030668,-0.13371,0.77858
-0.0053208,-0.00075881,0.097185,-0.11027,0.084721,0.080261,-0.60056,-0.43722,-0.026888,-0.083908,0.25586,-0.087481,-1.3287,-0.13154,-0.30698,-1.9739,0.0025892,0.24685,-0.28832,-0.1496,0.10796,0.048815,-0.33479,0.84172
0.0032123,3.4614e-005,0.079366,-0.1101,0.086228,0.062669,-0.55969,-0.58744,-0.025924,-0.091472,0.27178,-0.092044,-1.8096,-0.11635,-0.25289,-2.63,-0.012002,0.16001,-0.3239,-0.15702,0.12181,0.062631,-0.56278,0.92086
0.010296,0.00075445,0.060461,-0.10721,0.084393,0.035441,-0.4975,-0.69199,-0.021889,-0.096498,0.28921,-0.08998,-2.2051,-0.12865,-0.21244,-3.3673,-0.026894,0.069029,-0.3889,-0.16512,0.12715,0.070007,-0.80497,0.96292
0.012506,0.0017242,0.040321,-0.10281,0.089812,0.0059213,-0.42949,-0.72079,-0.016211,-0.09785,0.30308,-0.083634,-2.4413,-0.16213,-0.18123,-4.0352,-0.042993,-0.012837,-0.46671,-0.17102,0.12408,0.068832,-1.0433,0.93667
0.010408,0.0033308,0.019887,-0.09937,0.12269,-0.015847,-0.37069,-0.64873,-0.013179,-0.099388,0.30875,-0.078791,-2.4932,-0.20309,-0.15216,-4.503,-0.060102,-0.077014,-0.53467,-0.17072,0.11529,0.058648,-1.2596,0.84827
0.007585,0.0056871,0.00087349,-0.098157,0.19263,-0.026128,-0.32897,-0.47987,-0.016436,-0.10593,0.30478,-0.081053,-2.395,-0.23624,-0.12139,-4.7197,-0.076326,-0.12174,-0.57773,-0.1642,0.10423,0.041124,-1.4398,0.72649
0.007652,0.0085656,-0.014817,-0.097813,0.28493,-0.030032,-0.30251,-0.25852,-0.025536,-0.11844,0.29357,-0.09122,-2.2212,-0.25158,-0.091139,-4.7023,-0.08911,-0.15317,-0.59363,-0.15703,0.092729,0.019285,-1.5741,0.59512
0.011609,0.011517,-0.025567,-0.095358,0.36534,-0.035833,-0.2824,-0.055126,-0.035651,-0.13267,0.27969,-0.10391,-2.0459,-0.24958,-0.070127,-4.4722,-0.097189,-0.18408,-0.58764,-0.15654,0.080278,-0.0035016,-1.6538,0.45881
0.0173,0.013971,-0.030569,-0.088834,0.40055,-0.047207,-0.25822,0.067389,-0.041165,-0.14264,0.2671,-0.11122,-1.9071,-0.24087,-0.071307,-4.0084,-0.10177,-0.22844,-0.5631,-0.16592,0.065833,-0.023949,-1.6686,0.31311
0.021083,0.015289,-0.030495,-0.079288,0.37905,-0.060906,-0.22304,0.085528,-0.040513,-0.14601,0.25711,-0.10865,-1.7968,-0.23955,-0.10552,-3.2691,-0.10579,-0.29311,-0.51609,-0.18131,0.05047,-0.038948,-1.6093,0.16472
0.020382,0.014942,-0.02782,-0.070191,0.31672,-0.071359,-0.17564,0.023688,-0.038126,-0.14687,0.24828,-0.098532,-1.6812,-0.25286,-0.17183,-2.2712,-0.11158,-0.37144,-0.43829,-0.19442,0.038094,-0.046112,-1.475,0.038328
0.015415,0.012868,-0.026064,-0.064718,0.24394,-0.076769,-0.11992,-0.066285,-0.041353,-0.15344,0.23822,-0.087938,-1.5328,-0.27416,-0.25042,-1.1535,-0.11897,-0.44442,-0.32555,-0.19858,0.032871,-0.04495,-1.2788,-0.039683
0.009072,0.0097766,-0.028094,-0.063288,0.18504,-0.080277,-0.062734,-0.13948,-0.054416,-0.17229,0.22583,-0.083331,-1.3487,-0.28495,-0.30575,-0.15457,-0.12535,-0.49039,-0.18614,-0.1931,0.035228,-0.037754,-1.0467,-0.066795
0.0050774,0.0069897,-0.034703,-0.063562,0.14568,-0.085346,-0.011241,-0.18222,-0.074318,-0.20353,0.21228,-0.086363,-1.1465,-0.2658,-0.30202,0.49875,-0.12785,-0.49698,-0.042633,-0.18281,0.040139,-0.029072,-0.81071,-0.074016
0.0056204,0.005708,-0.04465,-0.062812,0.11538,-0.090724,0.029817,-0.2113,-0.092333,-0.24014,0.20009,-0.094111,-0.94637,-0.20925,-0.22294,0.71883,-0.12575,-0.46718,0.074909,-0.17361,0.039822,-0.023619,-0.59787,-0.10713
0.0099577,0.0061011,-0.056079,-0.060335,0.079934,-0.090751,0.060362,-0.25249,-0.10006,-0.27139,0.19085,-0.10275,-0.75769,-0.12554,-0.081914,0.6049,-0.12109,-0.41612,0.14206,-0.16787,0.029201,-0.023927,-0.42258,-0.19232
0.014925,0.0069922,-0.067836,-0.057646,0.032075,-0.081138,0.085405,-0.31651,-0.095078,-0.28738,0.18338,-0.11088,-0.57964,-0.03712,0.085351,0.37167,-0.11702,-0.36313,0.15293,-0.16323,0.0097426,-0.029387,-0.28456,-0.31438
0.017075,0.0066069,-0.079447,-0.056354,-0.026628,-0.064434,0.11249,-0.3901,-0.081471,-0.28192,0.17412,-0.11964,-0.41027,0.034119,0.24102,0.21087,-0.11542,-0.32581,0.12472,-0.15528,-0.011527,-0.037303,-0.17226,-0.42731
0.015009,0.0040084,-0.090029,-0.055907,-0.090535,-0.049315,0.14684,-0.44577,-0.065253,-0.25326,0.15958,-0.12993,-0.25254,0.077569,0.36324,0.18866,-0.11563,-0.31818,0.089151,-0.14143,-0.027007,-0.044924,-0.069452,-0.49064
0.010267,7.7361e-005,-0.097699,-0.053569,-0.15407,-0.043774,0.18713,-0.46053,-0.049015,-0.20386,0.13915,-0.13994,-0.11187,0.095962,0.45017,0.25012,-0.11509,-0.34856,0.073762,-0.12291,-0.033343,-0.050681,0.037337,-0.50284
0.0060533,-0.0029841,-0.10056,-0.04684,-0.21119,-0.048396,0.22537,-0.42905,-0.030781,-0.1398,0.11614,-0.14533,0.010197,0.099129,0.50994,0.31462,-0.11073,-0.41319,0.0839,-0.10353,-0.032333,-0.05377,0.1528,-0.50432
0.0047351,-0.0034731,-0.098522,-0.036144,-0.25275,-0.056077,0.25171,-0.36395,-0.0077465,-0.069772,0.095903,-0.1422,0.11974,0.096024,0.54754,0.37546,-0.099819,-0.48901,0.097181,-0.086442,-0.027785,-0.052918,0.27057,-0.54675
0.0060594,-0.0018393,-0.09401,-0.025154,-0.26743,-0.058503,0.26111,-0.28589,0.019061,-0.0027472,0.082472,-0.13019,0.22983,0.091469,0.55985,0.52003,-0.079888,-0.53516,0.075253,-0.071699,-0.021632,-0.046056,0.37662,-0.65265
0.0075711,-0.00049854,-0.090636,-0.018178,-0.24782,-0.053226,0.25704,-0.21218,0.043994,0.054893,0.076087,-0.11315,0.35862,0.088544,0.5408,0.85875,-0.048646,-0.50852,-0.013798,-0.056267,-0.012801,-0.03172,0.45796,-0.79696
0.0069469,-0.001619,-0.090673,-0.016694,-0.19716,-0.044689,0.24933,-0.1509,0.06081,0.10093,0.073444,-0.096895,0.52719,0.092005,0.48944,1.4275,-0.0049212,-0.3866,-0.17571,-0.036397,0.00057036,-0.011081,0.51268,-0.92384
0.0042578,-0.0047109,-0.093592,-0.018069,-0.13033,-0.038458,0.24755,-0.10224,0.067764,0.13632,0.070233,-0.085708,0.75413,0.10764,0.41257,2.1468,0.049845,-0.18216,-0.38368,-0.010277,0.018056,0.011573,0.55503,-0.9834
0.0021058,-0.0064336,-0.096899,-0.017742,-0.066824,-0.034697,0.25481,-0.063684,0.069005,0.16265,0.063897,-0.080139,1.045,0.13727,0.32021,2.8685,0.11093,0.061451,-0.5868,0.021058,0.036019,0.030991,0.61114,-0.9586
0.0033849,-0.0032688,-0.098466,-0.013152,-0.020594,-0.027765,0.26609,-0.034218,0.070958,0.18064,0.054714,-0.077492,1.3827,0.17431,0.21892,3.4684,0.17145,0.29063,-0.72681,0.055004,0.049611,0.044395,0.7068,-0.86459
0.0085947,0.0050365,-0.098319,-0.006071,0.0058106,-0.012811,0.27184,-0.01503,0.076991,0.1912,0.044987,-0.074289,1.7298,0.20509,0.10893,3.9089,0.22463,0.46204,-0.75537,0.089458,0.055752,0.053302,0.85425,-0.72875
0.015167,0.01446,-0.09845,-0.0012529,0.019145,0.0069684,0.26417,-0.0070092,0.085099,0.19797,0.037598,-0.068676,2.047,0.21653,-0.013274,4.2315,0.2655,0.55097,-0.64751,0.1236,0.054526,0.061889,1.0461,-0.57554
0.01951,0.019436,-0.101,-0.0024651,0.02823,0.020173,0.24138,-0.0079078,0.090402,0.20819,0.035159,-0.061063,2.3188,0.20482,-0.14974,4.4984,0.29093,0.54815,-0.41025,0.15659,0.048117,0.07313,1.2588,-0.43011
0.019976,0.017251,-0.10636,-0.0092404,0.037963,0.015648,0.20883,-0.012007,0.089959,0.23007,0.039775,-0.052845,2.5653,0.17836,-0.29687,4.7387,0.29858,0.45597,-0.084612,0.18547,0.038689,0.086107,1.463,-0.33025
0.018054,0.01029,-0.11269,-0.01707,0.048608,-0.0072109,0.17624,-0.013128,0.085574,0.2679,0.05258,-0.044568,2.8289,0.15267,-0.44373,4.936,0.2865,0.29117,0.26221,0.20455,0.027277,0.097024,1.6327,-0.32258
0.016729,0.0040562,-0.11701,-0.020767,0.059019,-0.035709,0.15331,-0.0089279,0.08231,0.31854,0.072726,-0.035179,3.1422,0.1404,-0.57346,5.0499,0.25439,0.089103,0.55583,0.20772,0.014409,0.10303,1.7504,-0.43295
0.01759,0.0026752,-0.11702,-0.018083,0.069273,-0.052137,0.14571,-0.0029139,0.08422,0.37218,0.096746,-0.0229,3.4989,0.1433,-0.66796,5.0375,0.20565,-0.10183,0.73961,0.19247,0.0012961,0.10511,1.8098,-0.63122
0.019426,0.0058138,-0.11269,-0.010701,0.079875,-0.047077,0.15294,-0.002035,0.090928,0.41715,0.11958,-0.0068936,3.8475,0.15105,-0.71593,4.8565,0.14832,-0.23906,0.79463,0.16277,-0.010088,0.10709,1.8174,-0.82627
0.019585,0.0096423,-0.10641,-0.002262,0.0891,-0.026894,0.16884,-0.011187,0.097712,0.4452,0.13728,0.011656,4.1077,0.1476,-0.72088,4.4655,0.093063,-0.30698,0.74387,0.12821,-0.018381,0.1114,1.7922,-0.90844
0.016741,0.010698,-0.10189,0.0043929,0.092352,-0.0090062,0.1848,-0.028876,0.098794,0.45412,0.14935,0.029784,4.1992,0.12086,-0.70303,3.842,0.049048,-0.323,0.63778,0.099481,-0.024287,0.11576,1.7597,-0.81579
0.012392,0.0089369,-0.10205,0.0083686,0.085389,-0.008506,0.19406,-0.047829,0.091224,0.44617,0.15872,0.043987,4.064,0.070402,-0.69134,3.018,0.019818,-0.32178,0.52888,0.082966,-0.030372,0.1143,1.7387,-0.57436
0.0097041,0.0072475,-0.10714,0.0098853,0.068973,-0.026785,0.19468,-0.060517,0.076589,0.42451,0.16859,0.051554,3.6808,0.0086554,-0.70856,2.0965,0.0019371,-0.32848,0.44906,0.078026,-0.038987,0.10259,1.7285,-0.27811
0.010778,0.0081774,-0.11424,0.0091085,0.050384,-0.051034,0.18871,-0.065404,0.059588,0.3909,0.17892,0.051322,3.0729,-0.0449,-0.7596,1.2202,-0.012715,-0.34169,0.40142,0.07843,-0.050066,0.082171,1.7075,-0.020625
0.014853,0.011258,-0.11887,0.0062453,0.039602,-0.064435,0.17814,-0.068774,0.04472,0.3465,0.1855,0.043681,2.3144,-0.073011,-0.83207,0.50141,-0.032388,-0.33825,0.36914,0.07665,-0.060941,0.060233,1.6475,0.16872
0.018935,0.013545,-0.11783,0.0026653,0.042753,-0.058399,0.16106,-0.080335,0.033524,0.29501,0.18319,0.030046,1.5242,-0.067724,-0.9086,-0.036749,-0.061323,-0.29463,0.33442,0.068012,-0.068648,0.044371,1.5347,0.33477
0.020148,0.012698,-0.11146,0.0012908,0.058077,-0.037176,0.13193,-0.10575,0.024266,0.24495,0.17081,0.012071,0.84143,-0.031189,-0.98014,-0.45775,-0.098207,-0.20728,0.29501,0.052392,-0.07283,0.036885,1.3809,0.54681
0.017717,0.009419,-0.10362,0.0050676,0.077813,-0.012166,0.086946,-0.14171,0.014209,0.20791,0.15359,-0.0090067,0.37993,0.029112,-1.0488,-0.84767,-0.13761,-0.097402,0.26812,0.033262,-0.076623,0.033424,1.2157,0.83172
0.013148,0.0067339,-0.098992,0.014476,0.094473,0.0082604,0.030396,-0.17727,0.0026167,0.19268,0.14082,-0.032471,0.18351,0.10579,-1.1182,-1.242,-0.1731,0.00057659,0.27991,0.015494,-0.084515,0.026917,1.0665,1.1455
0.0088321,0.0068627,-0.099663,0.026498,0.10645,0.024619,-0.023977,-0.20022,-0.0079593,0.1988,0.14013,-0.057423,0.20515,0.1926,-1.1812,-1.6051,-0.20023,0.056146,0.34809,0.0033658,-0.09877,0.013116,0.94423,1.406
0.0064165,0.0088733,-0.10347,0.036497,0.11855,0.04363,-0.059311,-0.2039,-0.01341,0.2144,0.15283,-0.081703,0.32519,0.28048,-1.2189,-1.8785,-0.218,0.053852,0.4693,-0.00072864,-0.11727,-0.0068929,0.84562,1.5584
0.0060212,0.0095691,-0.10538,0.041783,0.13729,0.070393,-0.06582,-0.18971,-0.011634,0.22137,0.17381,-0.10144,0.39928,0.35328,-1.2117,-2.0547,-0.22867,-0.0051454,0.61943,0.0030736,-0.13451,-0.02856,0.76786,1.621
0.006466,0.0067979,-0.10081,0.043763,0.16481,0.10276,-0.047112,-0.16449,-0.0050511,0.20497,0.19604,-0.11214,0.31277,0.38953,-1.1545,-2.2074,-0.23612,-0.10718,0.76591,0.012205,-0.14489,-0.047553,0.71811,1.6737
0.0060971,0.0018855,-0.088507,0.046573,0.19606,0.13259,-0.017467,-0.13536,0.00030716,0.16194,0.21563,-0.11106,0.020011,0.37211,-1.0615,-2.448,-0.24385,-0.2311,0.88246,0.022879,-0.14604,-0.061768,0.70764,1.802
0.0037811,-0.0012846,-0.070893,0.053181,0.22106,0.15224,0.0078755,-0.10632,-0.0011807,0.10124,0.23365,-0.099508,-0.44055,0.30133,-0.95485,-2.835,-0.25323,-0.35341,0.95653,0.032216,-0.1398,-0.070779,0.7357,2.0389
-0.00030998,0.00028014,-0.052161,0.06241,0.23037,0.16008,0.021717,-0.078354,-0.0106,0.037383,0.2536,-0.083335,-0.95562,0.20222,-0.84902,-3.3091,-0.2629,-0.45516,0.98609,0.039977,-0.13058,-0.074624,0.78004,2.3499
-0.0046027,0.0060191,-0.035864,0.069658,0.21976,0.16046,0.026487,-0.052136,-0.023609,-0.018268,0.27699,-0.071246,-1.3707,0.11843,-0.74431,-3.7045,-0.26954,-0.52943,0.97236,0.048326,-0.12234,-0.073915,0.80514,2.6659
-0.0070529,0.012447,-0.023729,0.070769,0.19138,0.15861,0.028384,-0.030262,-0.033637,-0.061829,0.30104,-0.072034,-1.5461,0.092888,-0.63587,-3.8348,-0.26963,-0.5844,0.91773,0.059423,-0.11623,-0.070837,0.78234,2.9327
-0.0067002,0.016344,-0.015971,0.065614,0.15151,0.15562,0.030341,-0.016891,-0.036711,-0.0946,0.31994,-0.092528,-1.4223,0.14464,-0.52856,-3.5939,-0.26143,-0.63719,0.83248,0.072713,-0.10992,-0.06891,0.70453,3.136
-0.0046346,0.017363,-0.012061,0.058166,0.10698,0.14821,0.030355,-0.014989,-0.034112,-0.11772,0.32851,-0.13688,-1.0604,0.25594,-0.44142,-3.0067,-0.24587,-0.70044,0.74262,0.084476,-0.099095,-0.070431,0.58336,3.2824
-0.0032966,0.017698,-0.010962,0.053082,0.06272,0.13347,0.026123,-0.023428,-0.030876,-0.12942,0.32506,-0.20617,-0.62503,0.37941,-0.39449,-2.1993,-0.22603,-0.77067,0.6866,0.090357,-0.07994,-0.073473,0.43355,3.3617
-0.0043913,0.019414,-0.010898,0.052018,0.021313,0.11364,0.020797,-0.036414,-0.031516,-0.1272,0.31157,-0.29709,-0.3047,0.46302,-0.38818,-1.3185,-0.20546,-0.82787,0.69524,0.088714,-0.051323,-0.071687,0.2611,3.3276
-0.007154,0.02226,-0.0095448,0.052958,-0.016476,0.096061,0.023718,-0.046076,-0.036451,-0.11226,0.29164,-0.39993,-0.20802,0.47821,-0.39446,-0.45878,-0.1866,-0.84725,0.76573,0.081528,-0.015566,-0.05819,0.066998,3.1219
-0.0087104,0.02404,-0.005126,0.052935,-0.051224,0.087583,0.044838,-0.046743,-0.041838,-0.091226,0.26828,-0.49846,-0.30499,0.43323,-0.37117,0.35421,-0.17005,-0.81447,0.85168,0.071768,0.022543,-0.031085,-0.13774,2.7265
-0.0065162,0.022955,0.0023049,0.051325,-0.084793,0.088152,0.087373,-0.038071,-0.042726,-0.072922,0.24305,-0.57421,-0.45604,0.36336,-0.29071,1.1228,-0.15502,-0.73268,0.88557,0.059743,0.057786,0.0038625,-0.32299,2.2006
-0.00084371,0.019443,0.010742,0.050549,-0.11984,0.08951,0.14491,-0.024744,-0.036946,-0.063105,0.21639,-0.61506,-0.51159,0.30593,-0.16127,1.8198,-0.14031,-0.61711,0.82569,0.042408,0.086495,0.035923,-0.44921,1.6681
0.0050145,0.015766,0.017853,0.053655,-0.15816,0.080952,0.20524,-0.012669,-0.026874,-0.061716,0.18819,-0.62378,-0.41105,0.27801,-0.023016,2.3636,-0.12492,-0.48338,0.69521,0.01704,0.10761,0.055721,-0.4923,1.2574
0.0072529,0.013947,0.023265,0.061218,-0.19851,0.057971,0.25756,-0.004137,-0.017921,-0.064988,0.15759,-0.62024,-0.20966,0.27154,0.078097,2.6482,-0.10811,-0.33969,0.5783,-0.013797,0.12259,0.060486,-0.46466,1.0341
0.0047318,0.014158,0.02948,0.070486,-0.23588,0.026886,0.29742,0.0045978,-0.015017,-0.070112,0.12269,-0.63366,-0.018439,0.2659,0.11921,2.6049,-0.088956,-0.18844,0.56662,-0.041063,0.13444,0.054533,-0.41434,0.97286
4.052e-005,0.015018,0.040177,0.077414,-0.26361,0.0014993,0.32617,0.021324,-0.019518,-0.078022,0.081172,-0.68728,0.089735,0.2458,0.11127,2.2513,-0.06627,-0.033114,0.69004,-0.054025,0.14609,0.045235,-0.39946,0.9837
-0.0025931,0.0152,0.056917,0.079537,-0.27784,-0.005949,0.34655,0.052613,-0.028531,-0.09191,0.032163,-0.78343,0.13053,0.21053,0.086646,1.6912,-0.039114,0.11802,0.88482,-0.047696,0.15889,0.038173,-0.45374,0.9698
-0.00084432,0.01463,0.076929,0.077155,-0.28115,0.0070107,0.35885,0.099024,-0.036929,-0.11317,-0.021902,-0.89833,0.1767,0.17013,0.076415,1.0667,-0.0074381,0.25534,1.0289,-0.026611,0.17166,0.035149,-0.56579,0.87486
0.0037164,0.014191,0.094187,0.072197,-0.28223,0.031395,0.36076,0.15436,-0.040605,-0.13873,-0.075256,-0.99108,0.27532,0.13508,0.095042,0.49732,0.027823,0.37482,1.0226,-0.0012927,0.1813,0.035707,-0.6856,0.69363
0.0068858,0.014528,0.10342,0.06635,-0.291,0.052256,0.3505,0.20963,-0.038834,-0.16214,-0.12125,-1.0232,0.38639,0.109,0.14038,0.045519,0.065519,0.48109,0.85383,0.020021,0.1849,0.039678,-0.75361,0.451
0.0053017,0.015355,0.10404,0.060344,-0.31234,0.057096,0.32999,0.25873,-0.034304,-0.17768,-0.15591,-0.97792,0.39748,0.088767,0.20327,-0.27657,0.10522,0.583,0.5997,0.037539,0.18207,0.047938,-0.7343,0.17493
-0.00074452,0.015927,0.10076,0.054602,-0.3429,0.041715,0.30507,0.30177,-0.030951,-0.18377,-0.17992,-0.86818,0.20661,0.069013,0.2757,-0.47615,0.14721,0.68536,0.36387,0.058747,0.17553,0.060848,-0.63482,-0.11609
-0.0074358,0.016044,0.099965,0.049853,-0.37358,0.010686,0.28245,0.34367,-0.031254,-0.18343,-0.19761,-0.72745,-0.19015,0.045885,0.35217,-0.55657,0.19113,0.78367,0.20402,0.090896,0.16886,0.076341,-0.50012,-0.40975
-0.010351,0.016374,0.10472,0.046575,-0.39557,-0.026459,0.266,0.38959,-0.034883,-0.18152,-0.21338,-0.58921,-0.67534,0.017737,0.42733,-0.5191,0.23427,0.86539,0.10551,0.13344,0.16286,0.089817,-0.38987,-0.69329
-0.0078244,0.017676,0.11232,0.043854,-0.40551,-0.060107,0.25499,0.4408,-0.039542,-0.18116,-0.22843,-0.46773,-1.0711,-0.015355,0.49555,-0.38115,0.27129,0.91598,0.015386,0.17667,0.15331,0.096092,-0.3514,-0.95364
-0.0021334,0.019709,0.11647,0.039403,-0.40608,-0.083892,0.24566,0.49375,-0.043173,-0.18206,-0.24022,-0.35261,-1.2412,-0.050857,0.5535,-0.18775,0.29628,0.92483,-0.10076,0.20766,0.13287,0.091651,-0.40235,-1.1827
0.0023146,0.021041,0.11254,0.031448,-0.4026,-0.095829,0.23455,0.5425,-0.045728,-0.18156,-0.24511,-0.22027,-1.1607,-0.082224,0.60215,-0.0033032,0.30636,0.88859,-0.23034,0.21873,0.096348,0.075513,-0.52889,-1.3801
0.0023121,0.020151,0.10153,0.02098,-0.39893,-0.097986,0.22074,0.58181,-0.049163,-0.17756,-0.24228,-0.053641,-0.9099,-0.099492,0.64456,0.10939,0.30402,0.81189,-0.33191,0.21211,0.045769,0.048681,-0.69637,-1.5487
-0.0018472,0.016978,0.089627,0.011891,-0.39597,-0.09539,0.20549,0.60893,-0.055775,-0.17101,-0.23602,0.14382,-0.60454,-0.093962,0.68103,0.10556,0.29647,0.7061,-0.37391,0.19769,-0.0087214,0.013538,-0.86451,-1.6888
-0.0067537,0.013453,0.083714,0.0081952,-0.39317,-0.094219,0.18977,0.62334,-0.066237,-0.16627,-0.23454,0.34929,-0.32415,-0.065072,0.70669,-0.036656,0.29202,0.58555,-0.35393,0.18598,-0.053414,-0.025921,-1.0001,-1.7973
-0.0085378,0.012308,0.086281,0.010442,-0.39032,-0.099193,0.17234,0.62616,-0.078858,-0.16905,-0.24595,0.53473,-0.089601,-0.024232,0.71461,-0.3142,0.29621,0.46169,-0.28557,0.18169,-0.078143,-0.0637,-1.0841,-1.8749
-0.0057265,0.014901,0.093677,0.014662,-0.38799,-0.11106,0.15018,0.6203,-0.090566,-0.1834,-0.27392,0.6831,0.10542,0.0086735,0.70225,-0.69012,0.31012,0.33917,-0.17475,0.18202,-0.081195,-0.092792,-1.1139,-1.9336
-0.00017889,0.019848,0.098861,0.015201,-0.38641,-0.12582,0.1212,0.61119,-0.09886,-0.20972,-0.31585,0.79538,0.25167,0.015469,0.67602,-1.0842,0.33167,0.21901,-0.015082,0.18007,-0.068908,-0.10794,-1.1003,-1.9973
0.004485,0.023809,0.096382,0.0092836,-0.38502,-0.137,0.086748,0.6064,-0.10335,-0.24514,-0.36451,0.8854,0.31713,-0.0095157,0.65051,-1.3844,0.35817,0.10932,0.19332,0.17022,-0.050807,-0.10849,-1.0609,-2.0884
0.0056438,0.024086,0.085833,-0.00061495,-0.38357,-0.13999,0.051501,0.61305,-0.10586,-0.28553,-0.41206,0.96817,0.28192,-0.055481,0.64333,-1.4919,0.38767,0.035277,0.42587,0.15156,-0.034138,-0.098874,-1.01,-2.2087
0.0034687,0.021036,0.071466,-0.008738,-0.38339,-0.13565,0.020351,0.63388,-0.10911,-0.32736,-0.45329,1.0512,0.1767,-0.10114,0.66878,-1.3804,0.41838,0.037086,0.64034,0.1276,-0.021521,-0.085742,-0.95016,-2.3254
0.00046757,0.018168,0.058672,-0.010747,-0.3866,-0.13018,-0.0052113,0.66484,-0.11483,-0.36795,-0.48601,1.1335,0.079466,-0.12675,0.73247,-1.1288,0.44759,0.15257,0.80515,0.10331,-0.012451,-0.073677,-0.87171,-2.378
-0.00067291,0.019516,0.050215,-0.007167,-0.3928,-0.13095,-0.028197,0.69648,-0.12242,-0.40412,-0.50867,1.2113,0.064301,-0.12418,0.82766,-0.89423,0.47217,0.39494,0.92114,0.082385,-0.0062911,-0.062669,-0.76093,-2.3076
0.0009036,0.026193,0.044948,-0.002758,-0.39557,-0.14112,-0.053593,0.71873,-0.12895,-0.43128,-0.51791,1.2839,0.1433,-0.098738,0.9345,-0.83623,0.49074,0.74252,1.0141,0.06654,-0.0037191,-0.049425,-0.61165,-2.0975
0.0039324,0.034988,0.039547,-0.0025284,-0.38262,-0.15729,-0.0842,0.72604,-0.13048,-0.44406,-0.50905,1.3552,0.25382,-0.063365,1.0246,-1.038,0.50542,1.1484,1.1051,0.056592,-0.0056076,-0.031293,-0.4319,-1.7966
0.0064589,0.040432,0.031538,-0.0078459,-0.34104,-0.17195,-0.11824,0.71901,-0.12399,-0.43849,-0.48,1.4313,0.30573,-0.030784,1.0719,-1.4747,0.52055,1.5608,1.1886,0.053427,-0.01103,-0.0093157,-0.24067,-1.5045
0.0075439,0.03891,0.021161,-0.01573,-0.26537,-0.17895,-0.15064,0.70192,-0.10893,-0.41349,-0.43555,1.5174,0.25137,-0.0095684,1.0661,-2.0386,0.5382,1.9367,1.2397,0.057273,-0.016833,0.012423,-0.059069,-1.3183
0.007723,0.031546,0.01085,-0.021531,-0.16377,-0.17737,-0.17688,0.67817,-0.087504,-0.37029,-0.38776,1.6171,0.12176,-0.0050869,1.0197,-2.5912,0.55387,2.2383,1.2409,0.065846,-0.019511,0.030752,0.096057,-1.2747
0.0080018,0.023358,0.0030759,-0.022459,-0.058364,-0.17104,-0.19605,0.64783,-0.063288,-0.31044,-0.35083,1.7334,0.0022988,-0.021715,0.96285,-3.0024,0.55645,2.4245,1.1997,0.073563,-0.017724,0.047071,0.21176,-1.3271
0.0085774,0.019246,-0.0015518,-0.019136,0.021281,-0.16428,-0.21072,0.60898,-0.038993,-0.23481,-0.33355,1.8678,-0.028448,-0.062423,0.92693,-3.1633,0.53402,2.4517,1.1374,0.073572,-0.013099,0.066996,0.27613,-1.3798
0.0086535,0.020075,-0.0044616,-0.014345,0.049176,-0.15794,-0.22388,0.56161,-0.014753,-0.14507,-0.33471,2.0147,0.053116,-0.12572,0.9277,-2.9939,0.48202,2.2946,1.0592,0.061894,-0.0087019,0.095481,0.28056,-1.3551
0.0075231,0.022198,-0.0076705,-0.01053,0.014416,-0.14886,-0.23561,0.51043,0.011734,-0.046265,-0.34499,2.1555,0.21257,-0.20353,0.95864,-2.469,0.40791,1.9704,0.93768,0.040677,-0.0067935,0.13104,0.22928,-1.244
0.0057176,0.020837,-0.012094,-0.0082517,-0.071585,-0.13294,-0.24247,0.46382,0.043166,0.052687,-0.35348,2.2581,0.39041,-0.28323,0.99797,-1.6585,0.32822,1.5436,0.72753,0.017664,-0.0080906,0.16406,0.14828,-1.102
0.0048641,0.014415,-0.017056,-0.0065615,-0.17628,-0.10892,-0.24027,0.42968,0.080163,0.14234,-0.35347,2.289,0.53661,-0.35308,1.0225,-0.7435,0.2594,1.0992,0.40124,0.0016784,-0.012964,0.18136,0.082707,-0.99242
0.0061626,0.0060664,-0.021276,-0.0044777,-0.25734,-0.07952,-0.22814,0.41106,0.12022,0.2176,-0.34336,2.2335,0.62198,-0.40692,1.0178,0.025435,0.20883,0.70264,-0.025754,-0.0029028,-0.022865,0.17425,0.078754,-0.92725
0.0088932,0.0010197,-0.024296,-0.0020035,-0.28093,-0.049442,-0.21084,0.40493,0.15883,0.27948,-0.32338,2.1098,0.63033,-0.44467,0.97892,0.4251,0.17197,0.3742,-0.50095,0.0012108,-0.039949,0.14411,0.15903,-0.85175
0.010551,0.002178,-0.026968,0.00010647,-0.23838,-0.022286,-0.19742,0.40459,0.19179,0.3314,-0.29222,1.9631,0.55284,-0.46882,0.90619,0.36117,0.13747,0.098087,-0.96403,0.0062685,-0.064834,0.1015,0.30705,-0.68791
0.0087853,0.0077578,-0.030541,0.0013537,-0.15082,0.00085037,-0.19667,0.40359,0.2169,0.37276,-0.24687,1.8404,0.39552,-0.48072,0.80142,-0.08827,0.095914,-0.14482,-1.373,0.0045512,-0.094581,0.059348,0.47201,-0.40074
0.0035503,0.012907,-0.035213,0.002179,-0.056844,0.020362,-0.21222,0.39834,0.23406,0.39623,-0.18532,1.7614,0.18923,-0.47963,0.66961,-0.71529,0.04591,-0.34963,-1.7088,-0.0071794,-0.12312,0.025859,0.59231,-0.033869
-0.0025324,0.013686,-0.039539,0.0036879,0.010529,0.036251,-0.23989,0.3879,0.24426,0.39236,-0.10878,1.7081,-0.017266,-0.46465,0.52248,-1.2835,-0.0059279,-0.48834,-1.9625,-0.026605,-0.14418,0.00202,0.62498,0.31423
-0.0061086,0.0098982,-0.041283,0.0067127,0.042609,0.04737,-0.26893,0.37234,0.2485,0.35871,-0.021025,1.6405,-0.18446,-0.43633,0.37794,-1.6266,-0.049751,-0.53509,-2.1259,-0.048089,-0.15447,-0.015137,0.56543,0.55455
-0.0057751,0.0045884,-0.03904,0.01104,0.055871,0.052278,-0.28642,0.3516,0.24737,0.30549,0.073817,1.5257,-0.30925,-0.39627,0.25348,-1.6927,-0.077566,-0.49106,-2.1956,-0.065914,-0.1546,-0.027409,0.44824,0.66217
-0.0032062,0.0011071,-0.033245,0.01541,0.074095,0.050497,-0.28261,0.32598,0.24124,0.25185,0.17243,1.3572,-0.42674,-0.34549,0.15766,-1.5242,-0.085334,-0.38689,-2.1839,-0.076172,-0.1474,-0.033202,0.32896,0.68077
-0.0017288,0.00057035,-0.025825,0.018263,0.1059,0.042905,-0.25478,0.29705,0.23038,0.21456,0.27102,1.1514,-0.58186,-0.28508,0.086569,-1.2025,-0.072206,-0.26215,-2.1213,-0.076812,-0.13528,-0.029694,0.25646,0.67822
-0.0035659,0.0017059,-0.018899,0.01873,0.13616,0.031349,-0.20801,0.26761,0.2152,0.19768,0.36337,0.92835,-0.79363,-0.21986,0.028222,-0.79565,-0.039335,-0.14066,-2.0433,-0.067064,-0.11904,-0.016578,0.24896,0.69266
-0.0080759,0.0026622,-0.013675,0.017279,0.13872,0.018501,-0.15282,0.24015,0.19642,0.19157,0.44104,0.69767,-1.0424,-0.16212,-0.029179,-0.33479,0.0099173,-0.021112,-1.9717,-0.047543,-0.098551,0.0026962,0.28615,0.71242
-0.012374,0.0027647,-0.010267,0.015641,0.099597,0.0083405,-0.10109,0.21508,0.17547,0.18185,0.49646,0.46094,-1.2892,-0.12986,-0.092322,0.17744,0.068939,0.11332,-1.9058,-0.020897,-0.074122,0.023489,0.32146,0.70138
-0.013653,0.0027175,-0.0082601,0.015955,0.030765,0.0061428,-0.061853,0.19044,0.1545,0.16107,0.52673,0.22464,-1.5071,-0.13771,-0.16449,0.73574,0.12804,0.27811,-1.8272,0.0083096,-0.047055,0.043718,0.30704,0.64278
-0.011215,0.0034832,-0.0073091,0.019506,-0.037579,0.016656,-0.038354,0.16338,0.13583,0.1336,0.53508,0.0072168,-1.6941,-0.18504,-0.24989,1.2939,0.17691,0.47652,-1.7119,0.035333,-0.019007,0.064993,0.21579,0.56108
-0.0067239,0.0051954,-0.0072381,0.025729,-0.079458,0.040875,-0.026977,0.13238,0.12132,0.11082,0.529,-0.16893,-1.8583,-0.25023,-0.35326,1.7434,0.20829,0.69854,-1.539,0.05766,0.0087465,0.089893,0.046208,0.50407
-0.0027814,0.0070841,-0.0077444,0.032271,-0.090798,0.073995,-0.01828,0.098665,0.11201,0.10143,0.51649,-0.29343,-1.9929,-0.29745,-0.47245,1.9333,0.2202,0.92464,-1.2964,0.075967,0.035195,0.11797,-0.19093,0.50289
-0.0011622,0.0082307,-0.0081313,0.036339,-0.087632,0.10707,-9.9615e-005,0.066178,0.10812,0.10517,0.50282,-0.37577,-2.07,-0.29378,-0.59021,1.738,0.21534,1.1288,-0.98482,0.092382,0.05878,0.14426,-0.49029,0.54537
-0.0019363,0.0083029,-0.0074022,0.036618,-0.087821,0.13213,0.037721,0.040637,0.10887,0.11428,0.48927,-0.43677,-2.0615,-0.22646,-0.67593,1.141,0.19822,1.281,-0.6214,0.1073,0.077014,0.16181,-0.85578,0.58457
-0.0037924,0.0076892,-0.0047147,0.03431,-0.093581,0.14712,0.098399,0.028406,0.11187,0.11997,0.47365,-0.49185,-1.9695,-0.10961,-0.70074,0.27315,0.17241,1.3532,-0.23684,0.11762,0.087331,0.166,-1.2839,0.57256
-0.0050742,0.007121,6.4404e-005,0.032287,-0.090281,0.15662,0.1754,0.035292,0.11275,0.11759,0.45191,-0.54172,-1.8359,0.023827,-0.65767,-0.63808,0.13965,1.328,0.13731,0.11846,0.088695,0.15685,-1.7396,0.48992
-0.0048585,0.0071813,0.0060743,0.03272,-0.061353,0.16737,0.25384,0.064781,0.10623,0.10677,0.42065,-0.57874,-1.7196,0.13892,-0.57075,-1.3911,0.10104,1.2066,0.48358,0.10707,0.082606,0.13788,-2.1477,0.34855
-0.0035551,0.0079714,0.011758,0.035038,-0.0046593,0.18216,0.31614,0.11559,0.088638,0.088271,0.37948,-0.60149,-1.6606,0.21388,-0.48371,-1.9217,0.058659,1.0086,0.80254,0.085813,0.072549,0.11295,-2.4147,0.171
-0.0026781,0.0090196,0.015748,0.036094,0.064762,0.19711,0.34944,0.17956,0.060616,0.06197,0.33223,-0.62211,-1.6591,0.24553,-0.43428,-2.3183,0.01602,0.76391,1.0987,0.061476,0.062239,0.084501,-2.4701,-0.03097
-0.003736,0.0095032,0.017853,0.032723,0.1274,0.20467,0.35036,0.24192,0.027469,0.028453,0.2856,-0.6588,-1.6855,0.24451,-0.43219,-2.7244,-0.02309,0.50072,1.3581,0.04131,0.054008,0.05436,-2.3031,-0.25828
-0.0068204,0.0088042,0.01933,0.024717,0.17523,0.19984,0.32472,0.2854,-0.0035691,-0.0080211,0.2457,-0.71995,-1.7098,0.22607,-0.45642,-3.2023,-0.056442,0.23843,1.5371,0.029004,0.048465,0.025717,-1.9671,-0.5075
-0.010038,0.0071352,0.021982,0.01557,0.2166,0.18426,0.2829,0.2974,-0.027588,-0.039379,0.21437,-0.79506,-1.7219,0.20295,-0.47236,-3.6678,-0.084427,-0.012371,1.5762,0.023487,0.045311,0.0034523,-1.5508,-0.75385
-0.010629,0.0056862,0.02656,0.010033,0.26611,0.16471,0.23482,0.27635,-0.044632,-0.05798,0.18807,-0.86096,-1.7259,0.18294,-0.45477,-3.9489,-0.10956,-0.24474,1.4342,0.020896,0.044263,-0.0081343,-1.1375,-0.95403
-0.0072554,0.0059326,0.031777,0.010289,0.32916,0.14773,0.18815,0.23288,-0.058704,-0.062235,0.16027,-0.89839,-1.7183,0.16964,-0.39975,-3.9212,-0.13481,-0.45098,1.1198,0.017573,0.045136,-0.0083347,-0.77689,-1.0713
-0.0015596,0.0084509,0.034994,0.01398,0.39439,0.13492,0.14968,0.18374,-0.074012,-0.058594,0.12587,-0.90543,-1.6773,0.16315,-0.3203,-3.6097,-0.16194,-0.62306,0.69784,0.011701,0.047224,-0.00096904,-0.48428,-1.1058
0.0026706,0.012197,0.034298,0.015911,0.4399,0.12321,0.12672,0.1417,-0.091556,-0.057639,0.084498,-0.89797,-1.5803,0.15942,-0.23276,-3.1781,-0.19099,-0.75746,0.26314,0.0030142,0.049039,0.0078212,-0.25575,-1.1059
0.0024499,0.015017,0.030345,0.012193,0.44725,0.10919,0.12508,0.1083,-0.10871,-0.067049,0.040522,-0.8986,-1.4399,0.14966,-0.14663,-2.8182,-0.22107,-0.85983,-0.1051,-0.0083092,0.049087,0.013232,-0.083075,-1.1497
-0.0017858,0.015159,0.026243,0.0033976,0.41221,0.093267,0.14461,0.074767,-0.12177,-0.086897,0.00010478,-0.92269,-1.3227,0.12216,-0.063666,-2.6273,-0.25173,-0.94509,-0.37877,-0.022334,0.047171,0.014116,0.042356,-1.3037
-0.0063693,0.01266,0.025305,-0.0058843,0.34529,0.079351,0.17658,0.030392,-0.12902,-0.11074,-0.032469,-0.96941,-1.3255,0.06687,0.017131,-2.563,-0.28365,-1.0312,-0.58351,-0.03941,0.044791,0.012552,0.13187,-1.5843
-0.007463,0.0094287,0.02835,-0.010699,0.26421,0.070533,0.20702,-0.028229,-0.13158,-0.13119,-0.056839,-1.0198,-1.5148,-0.019072,0.095645,-2.4974,-0.31801,-1.13,-0.7659,-0.060019,0.043869,0.011556,0.19833,-1.9439
-0.0042951,0.0079295,0.032818,-0.0095592,0.18529,0.065038,0.22523,-0.094479,-0.13165,-0.14526,-0.076287,-1.0415,-1.871,-0.12816,0.17133,-2.3159,-0.35487,-1.2404,-0.94891,-0.084531,0.044737,0.012961,0.24895,-2.2948
0.00044862,0.0094461,0.034555,-0.0054065,0.11901,0.056973,0.23104,-0.15729,-0.13015,-0.15581,-0.096023,-0.99963,-2.2821,-0.24352,0.24584,-1.986,-0.39173,-1.3492,-1.1098,-0.11243,0.045372,0.016746,0.27954,-2.5561
0.0034495,0.013227,0.030895,-0.0031275,0.069837,0.04184,0.23456,-0.20974,-0.12616,-0.16865,-0.12132,-0.8744,-2.5984,-0.34353,0.32318,-1.5572,-0.4236,-1.4386,-1.1995,-0.14104,0.04298,0.021681,0.27844,-2.6975
0.0040074,0.017049,0.022569,-0.0057631,0.037562,0.02202,0.24764,-0.25323,-0.11872,-0.18851,-0.15592,-0.67827,-2.7125,-0.40815,0.40606,-1.1097,-0.44467,-1.4961,-1.1892,-0.16484,0.036761,0.026445,0.23886,-2.7506
0.0044462,0.018684,0.012957,-0.012353,0.018629,0.006844,0.27354,-0.2941,-0.10902,-0.2166,-0.20068,-0.46002,-2.6107,-0.42486,0.49149,-0.69954,-0.45096,-1.5209,-1.1058,-0.17694,0.0293,0.030583,0.16865,-2.7798
0.0072228,0.017236,0.0054348,-0.018843,0.0078303,0.0063473,0.30326,-0.33675,-0.10054,-0.25073,-0.25251,-0.28635,-2.3636,-0.39321,0.56981,-0.33665,-0.44227,-1.5226,-1.0233,-0.17274,0.025068,0.035019,0.087867,-2.8284
0.011688,0.013619,0.0010801,-0.02111,0.00076885,0.023415,0.32191,-0.37981,-0.096882,-0.28669,-0.30481,-0.20694,-2.069,-0.32666,0.62904,0.00076199,-0.42236,-1.5136,-1.0119,-0.1536,0.027058,0.041746,0.015626,-2.8768
0.013971,0.010042,-0.0015169,-0.017811,-0.0045013,0.050733,0.31993,-0.41877,-0.099053,-0.31962,-0.35001,-0.22521,-1.7942,-0.24993,0.66216,0.33654,-0.39713,-1.5009,-1.0862,-0.1274,0.034272,0.052378,-0.042198,-2.845
0.010429,0.008835,-0.0044966,-0.011124,-0.008595,0.075154,0.29983,-0.45173,-0.10492,-0.34499,-0.38335,-0.29753,-1.5559,-0.19083,0.67303,0.67452,-0.37205,-1.4833,-1.1954,-0.10486,0.04191,0.065999,-0.093744,-2.644
0.0014922,0.011123,-0.0087818,-0.0050766,-0.013956,0.086149,0.27317,-0.48229,-0.11113,-0.35953,-0.40535,-0.36361,-1.3416,-0.16862,0.67707,0.99463,-0.35012,-1.4542,-1.2668,-0.093911,0.043694,0.077888,-0.15035,-2.2448
-0.0079137,0.015922,-0.013582,-0.0027408,-0.026359,0.08198,0.25045,-0.51669,-0.1157,-0.36203,-0.42081,-0.38588,-1.1444,-0.185,0.69567,1.2646,-0.33154,-1.4071,-1.2665,-0.095812,0.034323,0.0808,-0.2142,-1.7192
-0.012031,0.020257,-0.017475,-0.0042213,-0.051831,0.069424,0.23273,-0.55803,-0.11862,-0.35337,-0.43454,-0.36823,-0.97861,-0.22381,0.7464,1.4582,-0.31477,-1.3409,-1.2255,-0.10582,0.010756,0.068789,-0.27483,-1.2168
-0.0088819,0.020557,-0.0198,-0.0067218,-0.090762,0.058092,0.21194,-0.60328,-0.12019,-0.33552,-0.4472,-0.34191,-0.86562,-0.26116,0.83397,1.5709,-0.29807,-1.2593,-1.2083,-0.11722,-0.027218,0.041201,-0.3164,-0.88789
-0.0017635,0.014811,-0.020992,-0.0065671,-0.135,0.054041,0.17947,-0.646,-0.11888,-0.31019,-0.45451,-0.33405,-0.80859,-0.27962,0.94697,1.6256,-0.28054,-1.1691,-1.2518,-0.1254,-0.076258,0.0037602,-0.32875,-0.79856
0.0035751,0.0041868,-0.021719,-0.0017555,-0.17205,0.057038,0.13523,-0.68209,-0.11114,-0.2782,-0.45062,-0.34706,-0.78124,-0.27693,1.0625,1.6637,-0.2625,-1.0782,-1.3284,-0.1291,-0.12898,-0.034378,-0.31355,-0.89479
0.003476,-0.0071418,-0.021854,0.006694,-0.19388,0.062451,0.089452,-0.71337,-0.093681,-0.24021,-0.43288,-0.36448,-0.74121,-0.26322,1.1568,1.7245,-0.24536,-0.99613,-1.3669,-0.12907,-0.17532,-0.065511,-0.28259,-1.0421
-0.0012138,-0.014159,-0.020472,0.015458,-0.20251,0.065432,0.055226,-0.74566,-0.066375,-0.19791,-0.40399,-0.37358,-0.6567,-0.25,1.2156,1.8227,-0.23135,-0.93423,-1.3137,-0.12638,-0.20657,-0.086677,-0.25111,-1.1141
-0.0064909,-0.013901,-0.01699,0.021084,-0.20678,0.064193,0.038047,-0.78315,-0.033389,-0.1543,-0.36989,-0.38126,-0.52503,-0.24037,1.2379,1.9387,-0.2229,-0.90221,-1.1804,-0.12225,-0.22011,-0.099407,-0.23138,-1.0672
-0.0086229,-0.0071892,-0.01239,0.02207,-0.21275,0.060577,0.030742,-0.82401,-0.0015705,-0.11293,-0.33553,-0.40892,-0.37067,-0.22858,1.2326,2.0293,-0.22161,-0.90163,-1.038,-0.1189,-0.22133,-0.1071,-0.22888,-0.95104
-0.0066155,0.0019583,-0.0092016,0.01947,-0.21703,0.058188,0.018026,-0.86059,0.022686,-0.076639,-0.30194,-0.47296,-0.22734,-0.20833,1.2098,2.0543,-0.22701,-0.92075,-0.96196,-0.11955,-0.22055,-0.1127,-0.24117,-0.84881
-0.0021392,0.0088269,-0.009933,0.015806,-0.21021,0.059648,-0.012927,-0.88401,0.036104,-0.047016,-0.26677,-0.56942,-0.11983,-0.18154,1.1747,2.0038,-0.23597,-0.93673,-0.97694,-0.12635,-0.22656,-0.11816,-0.25908,-0.79693
0.0022434,0.010781,-0.01505,0.013235,-0.18805,0.064653,-0.063881,-0.88928,0.039409,-0.024744,-0.22728,-0.67528,-0.057017,-0.15926,1.1269,1.9074,-0.24335,-0.92609,-1.0432,-0.13765,-0.24126,-0.12474,-0.27073,-0.74529
0.004686,0.0086184,-0.022257,0.012298,-0.15973,0.069856,-0.12473,-0.87735,0.036406,-0.0097496,-0.18265,-0.76231,-0.035881,-0.1538,1.0654,1.8192,-0.24381,-0.87719,-1.0925,-0.14723,-0.25927,-0.1326,-0.26779,-0.58738
0.0045491,0.005785,-0.027944,0.012012,-0.14404,0.070581,-0.17997,-0.85279,0.032044,-0.00051009,-0.13392,-0.81046,-0.047531,-0.16897,0.99344,1.7841,-0.23364,-0.79551,-1.078,-0.1468,-0.27222,-0.13971,-0.25044,-0.23501
0.0021958,0.0060124,-0.029888,0.011018,-0.15511,0.06336,-0.217,-0.81977,0.030372,0.0069284,-0.082254,-0.81258,-0.078261,-0.19687,0.9188,1.8057,-0.21176,-0.69756,-0.99828,-0.13069,-0.27412,-0.14168,-0.22622,0.31941
-0.0012003,0.0108,-0.029079,0.008827,-0.18936,0.047791,-0.23146,-0.77969,0.033111,0.018572,-0.027708,-0.7727,-0.10755,-0.22347,0.84993,1.8347,-0.17966,-0.59845,-0.88396,-0.099399,-0.26354,-0.13397,-0.20169,0.99743
-0.0038801,0.018239,-0.029015,0.006264,-0.22557,0.026602,-0.22821,-0.73251,0.039369,0.039802,0.02997,-0.70409,-0.11031,-0.23759,0.79081,1.7898,-0.14063,-0.50358,-0.76771,-0.059603,-0.24169,-0.11514,-0.17255,1.6852
-0.0042739,0.023953,-0.032807,0.0048946,-0.23921,0.0040548,-0.21994,-0.68021,0.046613,0.071611,0.089351,-0.62821,-0.067136,-0.23612,0.73939,1.6035,-0.09906,-0.41112,-0.66626,-0.020738,-0.20892,-0.088352,-0.12173,2.2991
-0.0022137,0.023723,-0.040299,0.0059965,-0.21986,-0.016084,-0.22425,-0.62893,0.052321,0.10863,0.14623,-0.57033,0.022734,-0.22266,0.69053,1.2691,-0.059965,-0.32214,-0.58355,0.0095086,-0.16335,-0.059465,-0.03071,2.8193
0.00051001,0.016226,-0.04756,0.009851,-0.17781,-0.031691,-0.25809,-0.58662,0.055261,0.14113,0.19464,-0.54986,0.13616,-0.203,0.6404,0.85948,-0.028509,-0.24774,-0.52068,0.028078,-0.10358,-0.033318,0.102,3.2723
0.0012269,0.0040963,-0.04937,0.015737,-0.13478,-0.042216,-0.32917,-0.55702,0.055549,0.16035,0.22922,-0.57133,0.23478,-0.18266,0.58862,0.50122,-0.0092865,-0.20536,-0.47543,0.036647,-0.033304,-0.011571,0.2498,3.6822
-0.0014027,-0.0075199,-0.042958,0.022393,-0.10668,-0.048032,-0.42793,-0.53434,0.05365,0.16366,0.24712,-0.62472,0.28364,-0.16765,0.53676,0.31445,-0.0054197,-0.2065,-0.43154,0.039682,0.036117,0.0061241,0.36706,4.0302
-0.0059763,-0.014046,-0.030252,0.028454,-0.092201,-0.049925,-0.52721,-0.50355,0.049382,0.15582,0.24842,-0.69618,0.2691,-0.16502,0.48574,0.35111,-0.017749,-0.24672,-0.35479,0.041989,0.088523,0.019325,0.41647,4.2522
-0.0093212,-0.014128,-0.016937,0.032676,-0.07557,-0.048782,-0.59386,-0.4476,0.041992,0.14559,0.23551,-0.77975,0.20623,-0.17981,0.43551,0.57029,-0.044489,-0.30748,-0.2095,0.046804,0.111,0.025779,0.39687,4.2751
-0.009297,-0.010085,-0.0088684,0.034174,-0.03993,-0.045145,-0.60796,-0.35748,0.03124,0.14001,0.21265,-0.87786,0.13269,-0.20931,0.38757,0.86548,-0.081596,-0.36906,0.011361,0.054728,0.10261,0.023554,0.34973,4.0674
-0.0069273,-0.0059897,-0.0083216,0.032897,0.019609,-0.038819,-0.57691,-0.23837,0.018353,0.14057,0.18594,-0.98946,0.092089,-0.24045,0.34696,1.1242,-0.12386,-0.42376,0.26736,0.06349,0.077496,0.014046,0.33528,3.6726
-0.0056675,-0.0048702,-0.012693,0.030052,0.092695,-0.029265,-0.53257,-0.10756,0.0056374,0.14333,0.16276,-1.0973,0.11259,-0.25491,0.3197,1.2795,-0.16636,-0.47779,0.48333,0.068769,0.059135,0.0021679,0.39213,3.2062
-0.0081582,-0.0069792,-0.016668,0.027807,0.16104,-0.01708,-0.51071,0.014259,-0.0052061,0.14232,0.14962,-1.1694,0.18891,-0.24009,0.30547,1.3218,-0.20563,-0.54048,0.59011,0.066171,0.068042,-0.007275,0.50847,2.8175
-0.013309,-0.010113,-0.016402,0.028029,0.20952,-0.0053781,-0.52604,0.11231,-0.014626,0.13332,0.14922,-1.1766,0.27806,-0.19827,0.29117,1.273,-0.23989,-0.61051,0.5658,0.053708,0.11086,-0.013895,0.62665,2.6341
-0.016564,-0.011455,-0.012706,0.03072,0.23321,0.00083513,-0.56114,0.18184,-0.025019,0.11585,0.15841,-1.1136,0.31709,-0.14645,0.25238,1.1546,-0.2683,-0.67174,0.44773,0.033292,0.17821,-0.022244,0.67958,2.715
-0.013514,-0.0095533,-0.010692,0.033518,0.23723,-0.0021266,-0.57834,0.22607,-0.038519,0.092972,0.16908,-1.0055,0.25937,-0.10665,0.16495,0.98191,-0.29009,-0.70281,0.30687,0.010002,0.25253,-0.037304,0.63369,3.0301
-0.0039838,-0.005205,-0.015847,0.033018,0.23179,-0.01293,-0.54661,0.25142,-0.054355,0.069807,0.17175,-0.89219,0.10911,-0.093845,0.020035,0.7887,-0.30427,-0.69275,0.2045,-0.010629,0.31944,-0.058628,0.50835,3.4754
0.0069686,-0.00087209,-0.029289,0.027252,0.22685,-0.024454,-0.46324,0.26455,-0.067962,0.051647,0.15989,-0.80256,-0.072839,-0.10981,-0.16833,0.65112,-0.31032,-0.6502,0.16249,-0.025479,0.37378,-0.078664,0.35908,3.9166
0.012309,0.00089455,-0.045936,0.017478,0.22906,-0.027436,-0.35427,0.27238,-0.072927,0.042231,0.13289,-0.73676,-0.20394,-0.14554,-0.36982,0.67487,-0.30906,-0.59902,0.16518,-0.034842,0.41659,-0.087424,0.2386,4.2424
0.0081878,-0.00093554,-0.057379,0.0077243,0.24104,-0.016176,-0.25415,0.28304,-0.064718,0.042511,0.096233,-0.67042,-0.23595,-0.18757,-0.55438,0.93861,-0.30291,-0.5646,0.18499,-0.041137,0.44788,-0.079946,0.16535,4.4029
-0.0029938,-0.0051939,-0.057653,0.0021859,0.26174,0.008236,-0.18159,0.30473,-0.043793,0.050352,0.059589,-0.57765,-0.19055,-0.22241,-0.70664,1.4291,-0.29519,-0.56131,0.20715,-0.046722,0.46319,-0.060225,0.12189,4.4137
-0.0141,-0.0092398,-0.047715,0.0023315,0.28743,0.039751,-0.13036,0.34232,-0.016037,0.061341,0.033365,-0.45666,-0.14264,-0.23771,-0.8281,2.0202,-0.289,-0.5892,0.23454,-0.052651,0.45793,-0.038108,0.08297,4.3238
-0.018282,-0.010717,-0.035137,0.005946,0.31333,0.072334,-0.080414,0.39424,0.0097806,0.070307,0.024755,-0.34008,-0.15933,-0.22368,-0.92742,2.522,-0.28638,-0.6393,0.27467,-0.058836,0.43476,-0.021669,0.051063,4.1703
-0.013745,-0.0091989,-0.029078,0.0088773,0.33541,0.1034,-0.017143,0.45271,0.025991,0.072887,0.034491,-0.28148,-0.24086,-0.17789,-1.0091,2.7741,-0.28789,-0.70082,0.32694,-0.064576,0.40554,-0.01138,0.071639,3.9503
-0.0047092,-0.0065134,-0.03417,0.0081244,0.35147,0.13276,0.058838,0.50767,0.029231,0.066853,0.056099,-0.32401,-0.31291,-0.1103,-1.0705,2.7234,-0.29258,-0.76425,0.38507,-0.068301,0.38428,-0.00058413,0.21432,3.632
0.0020174,-0.0054144,-0.047744,0.0038251,0.36092,0.15863,0.13833,0.55171,0.021304,0.053206,0.079008,-0.46968,-0.28121,-0.042143,-1.1086,2.4352,-0.29817,-0.82015,0.45149,-0.066907,0.37654,0.018766,0.52931,3.1933
0.0021488,-0.0075174,-0.062262,-0.0013611,0.36358,0.17538,0.21713,0.5825,0.0075093,0.036664,0.094622,-0.66919,-0.10837,0.0044888,-1.1281,2.0356,-0.30153,-0.8574,0.54591,-0.056207,0.37508,0.050397,1.0062,2.6544
-0.0031541,-0.012037,-0.070933,-0.0048036,0.359,0.17563,0.30091,0.60171,-0.0064638,0.024471,0.10174,-0.84269,0.14784,0.020516,-1.1418,1.631,-0.29964,-0.86444,0.6946,-0.033311,0.36672,0.092445,1.563,2.0745
-0.0085714,-0.016275,-0.072254,-0.0061301,0.34684,0.15532,0.39577,0.612,-0.017357,0.023002,0.10731,-0.92185,0.36727,0.015942,-1.1624,1.263,-0.2907,-0.83239,0.90647,0.0004109,0.34478,0.14042,2.0762,1.5122
-0.008898,-0.017471,-0.070336,-0.0072613,0.32761,0.117,0.49478,0.61483,-0.025387,0.03368,0.12152,-0.88812,0.44815,0.011725,-1.1945,0.92421,-0.27466,-0.75741,1.1572,0.038454,0.31596,0.19035,2.4369,0.98492
-0.0029323,-0.014632,-0.07117,-0.010334,0.30264,0.068495,0.57624,0.61046,-0.033011,0.051574,0.15046,-0.78109,0.37524,0.022927,-1.233,0.60906,-0.25309,-0.64075,1.3983,0.071849,0.29484,0.23875,2.601,0.46208
0.0058637,-0.009099,-0.077945,-0.015395,0.27277,0.018271,0.61848,0.59905,-0.042315,0.068973,0.19192,-0.67014,0.22521,0.047084,-1.2706,0.34867,-0.22859,-0.4885,1.5853,0.093853,0.29019,0.27997,2.6027,-0.096967
0.01217,-0.0036128,-0.088921,-0.01989,0.23717,-0.028372,0.61858,0.58114,-0.052907,0.082167,0.23673,-0.60827,0.10887,0.068185,-1.3052,0.19456,-0.20431,-0.3128,1.7031,0.10319,0.295,0.30505,2.5241,-0.69273
0.012737,-0.0006398,-0.099159,-0.020388,0.19374,-0.069559,0.59716,0.55686,-0.061925,0.096005,0.27412,-0.60063,0.097911,0.073469,-1.3397,0.16336,-0.18371,-0.13327,1.7662,0.10343,0.28935,0.3047,2.4417,-1.2643
0.0084837,-0.0010456,-0.1044,-0.015181,0.14114,-0.10441,0.58278,0.52505,-0.066152,0.12151,0.29636,-0.60906,0.19125,0.068816,-1.3756,0.19328,-0.16982,0.02544,1.7949,0.099289,0.25415,0.27517,2.3848,-1.7162
0.0034219,-0.0037939,-0.104,-0.0057322,0.080855,-0.13106,0.58916,0.48378,-0.064459,0.16739,0.30013,-0.58679,0.33969,0.079333,-1.4075,0.1598,-0.16383,0.14195,1.7911,0.093236,0.18466,0.22192,2.3316,-1.9714
0.0015156,-0.0067168,-0.1008,0.0041049,0.017253,-0.14695,0.60541,0.43223,-0.058389,0.23197,0.28582,-0.51481,0.5,0.13416,-1.4235,-0.04775,-0.16357,0.20832,1.7336,0.085091,0.093142,0.15736,2.2404,-2.0124
0.0039488,-0.0078868,-0.098499,0.010512,-0.044426,-0.15071,0.60803,0.37241,-0.050315,0.30239,0.25736,-0.41296,0.67006,0.24751,-1.4146,-0.44059,-0.16343,0.23414,1.5984,0.074424,-0.00091595,0.093778,2.0901,-1.8817
0.0087049,-0.0068442,-0.098849,0.012049,-0.10019,-0.14313,0.58361,0.30906,-0.040798,0.36223,0.22329,-0.32036,0.87847,0.41007,-1.3814,-0.90449,-0.15668,0.23972,1.3855,0.06296,-0.084242,0.036672,1.8975,-1.6526
0.012469,-0.0049422,-0.10092,0.010303,-0.14754,-0.12639,0.54141,0.24801,-0.027647,0.40147,0.19627,-0.26435,1.1432,0.59538,-1.3354,-1.2639,-0.13903,0.24233,1.1275,0.05437,-0.15604,-0.016263,1.7043,-1.398
0.013187,-0.0044902,-0.1027,0.0084877,-0.18389,-0.10281,0.50494,0.19409,-0.0077456,0.4212,0.18851,-0.24341,1.4378,0.77324,-1.2923,-1.3985,-0.11133,0.24587,0.87414,0.051489,-0.22305,-0.069894,1.5457,-1.1752
0.011319,-0.0071523,-0.10314,0.0090795,-0.20547,-0.074702,0.49077,0.15008,0.019791,0.42987,0.20454,-0.23433,1.6925,0.91914,-1.2635,-1.3306,-0.079082,0.24213,0.66696,0.053526,-0.28887,-0.12469,1.4293,-1.0211
0.0090163,-0.012706,-0.10276,0.012255,-0.20886,-0.045466,0.49402,0.11649,0.051801,0.43533,0.237,-0.21276,1.8287,1.0152,-1.2506,-1.2156,-0.049111,0.22179,0.52358,0.055971,-0.34738,-0.17387,1.3374,-0.94111
0.0080625,-0.019148,-0.10224,0.01623,-0.19462,-0.020174,0.49279,0.091532,0.082171,0.43912,0.27034,-0.16674,1.7998,1.0477,-1.2449,-1.2372,-0.025573,0.18465,0.4439,0.053569,-0.38602,-0.20707,1.2461,-0.88785
0.0083358,-0.024117,-0.10074,0.019099,-0.16982,-0.0041708,0.46624,0.07121,0.10494,0.43681,0.2911,-0.093408,1.6131,1.0094,-1.2303,-1.4781,-0.008147,0.13958,0.4287,0.044111,-0.39605,-0.21756,1.1428,-0.75684
0.0080384,-0.026475,-0.095844,0.020567,-0.14661,-0.00022672,0.41004,0.050411,0.11706,0.42248,0.29704,0.013167,1.3266,0.90572,-1.1885,-1.8549,0.0067417,0.094287,0.49241,0.030124,-0.38134,-0.20755,1.0284,-0.42415
0.0054474,-0.02675,-0.085509,0.022085,-0.13655,-0.0065632,0.33701,0.025325,0.11894,0.3928,0.29753,0.16659,1.0269,0.75926,-1.1059,-2.161,0.023086,0.045313,0.65728,0.017245,-0.35832,-0.18753,0.90798,0.17753
0.00064018,-0.026161,-0.070318,0.025318,-0.14452,-0.017577,0.26529,-0.0043468,0.11293,0.34835,0.3044,0.37724,0.80191,0.60446,-0.98015,-2.1842,0.043267,-0.020474,0.93238,0.010663,-0.34682,-0.17045,0.78182,0.99103
-0.0043785,-0.025312,-0.053772,0.030348,-0.16658,-0.026913,0.20633,-0.035706,0.10138,0.29251,0.32126,0.63451,0.71289,0.47301,-0.82019,-1.819,0.068096,-0.11104,1.2944,0.012292,-0.35846,-0.16481,0.64476,1.8307
-0.0073523,-0.023845,-0.039939,0.035288,-0.19324,-0.030693,0.1622,-0.066047,0.085496,0.2302,0.3407,0.89981,0.77521,0.38001,-0.64035,-1.1059,0.098136,-0.21142,1.6866,0.020435,-0.39068,-0.17101,0.48995,2.4591
-0.0077955,-0.021333,-0.030271,0.037753,-0.21577,-0.028855,0.13087,-0.09653,0.065435,0.16691,0.35205,1.1201,0.95457,0.32119,-0.45182,-0.19208,0.13435,-0.27794,2.0407,0.031564,-0.42983,-0.18276,0.30964,2.7012
-0.007465,-0.018326,-0.022394,0.036918,-0.23107,-0.024294,0.11062,-0.13212,0.040949,0.10775,0.35235,1.2557,1.1867,0.28314,-0.26059,0.74153,0.17691,-0.25237,2.3081,0.042373,-0.46008,-0.19176,0.092306,2.5213
-0.0087017,-0.016295,-0.012176,0.034323,-0.24188,-0.020966,0.097777,-0.17666,0.011939,0.056041,0.35016,1.3021,1.4136,0.2575,-0.0748,1.5342,0.22302,-0.090527,2.4829,0.050533,-0.47133,-0.1924,-0.17572,2.0166
-0.012069,-0.016376,0.0024524,0.032592,-0.25289,-0.022227,0.081192,-0.22679,-0.021214,0.012756,0.35821,1.2917,1.6144,0.24761,0.086269,2.064,0.26589,0.21067,2.5996,0.054276,-0.46128,-0.18397,-0.49788,1.3423
-0.015538,-0.018132,0.019131,0.033113,-0.26603,-0.029744,0.04217,-0.2709,-0.057508,-0.022026,0.38132,1.2699,1.8089,0.26255,0.19439,2.2551,0.29656,0.60404,2.7083,0.052109,-0.43219,-0.16974,-0.85,0.62968
-0.016171,-0.019671,0.032383,0.034684,-0.27818,-0.042765,-0.035784,-0.29527,-0.095359,-0.046485,0.41051,1.2635,2.0319,0.30508,0.22963,2.0995,0.30821,1.008,2.8425,0.043649,-0.38609,-0.15385,-1.1739,-0.047766
-0.012917,-0.019185,0.037826,0.034433,-0.28274,-0.057824,-0.15305,-0.2936,-0.13286,-0.056072,0.42875,1.2584,2.3003,0.36438,0.20046,1.6826,0.3003,1.3403,3,0.030932,-0.3227,-0.13799,-1.3945,-0.65581
-0.0079267,-0.016569,0.035989,0.030424,-0.2736,-0.069507,-0.28721,-0.2721,-0.168,-0.046411,0.42326,1.2052,2.6011,0.41998,0.14726,1.174,0.27973,1.5532,3.1468,0.018444,-0.24062,-0.11973,-1.4557,-1.1656
-0.0049592,-0.013599,0.032568,0.023803,-0.24894,-0.072608,-0.40089,-0.24543,-0.19845,-0.01877,0.39391,1.0479,2.9107,0.45332,0.12097,0.76354,0.25779,1.6504,3.2387,0.010904,-0.13999,-0.093815,-1.3551,-1.5456
-0.0061379,-0.012421,0.034648,0.018525,-0.21261,-0.064901,-0.46055,-0.22655,-0.22112,0.016584,0.35135,0.76205,3.2209,0.4572,0.15057,0.56822,0.24464,1.6773,3.2457,0.0099669,-0.024403,-0.05607,-1.154,-1.7846
-0.0099195,-0.013641,0.045707,0.01854,-0.17223,-0.04878,-0.4541,-0.21846,-0.23211,0.043331,0.30767,0.37898,3.5436,0.4364,0.22535,0.57729,0.24458,1.6909,3.1648,0.012606,0.098854,-0.0075825,-0.95513,-1.9152
-0.012236,-0.015707,0.063218,0.024499,-0.13516,-0.030411,-0.39608,-0.21442,-0.22796,0.047794,0.26845,-0.018727,3.8803,0.40046,0.30721,0.67888,0.25507,1.7271,3.0179,0.013063,0.21946,0.043961,-0.85935,-2.0054
-0.0099777,-0.016197,0.080739,0.032682,-0.1048,-0.016658,-0.3181,-0.20554,-0.20774,0.027557,0.2321,-0.3295,4.1851,0.35581,0.36319,0.74973,0.26964,1.7853,2.8402,0.007449,0.32508,0.087504,-0.92527,-2.1173
-0.0038497,-0.013925,0.092822,0.037292,-0.079175,-0.011595,-0.25242,-0.18883,-0.17432,-0.0066871,0.19502,-0.4768,4.359,0.30357,0.391,0.73839,0.28247,1.8368,2.6677,-0.0025391,0.40293,0.11486,-1.1501,-2.2649
0.0019263,-0.010034,0.09891,0.034554,-0.052481,-0.014674,-0.21959,-0.1687,-0.13326,-0.037965,0.15604,-0.44266,4.2956,0.2431,0.41701,0.68166,0.29136,1.8492,2.5268,-0.010144,0.44255,0.12572,-1.4775,-2.4081
0.0029163,-0.0070414,0.10323,0.025428,-0.01866,-0.021345,-0.22544,-0.15155,-0.089816,-0.053664,0.11598,-0.27367,3.952,0.17671,0.47063,0.65309,0.29757,1.8074,2.4237,-0.0085796,0.43944,0.12773,-1.8228,-2.4875
-0.0019464,-0.006584,0.11093,0.014679,0.025233,-0.025305,-0.26506,-0.13897,-0.046482,-0.05211,0.073918,-0.056609,3.3904,0.11072,0.55908,0.69429,0.30329,1.7173,2.3379,0.0030146,0.39791,0.1313,-2.1009,-2.4716
-0.0094882,-0.0078224,0.12357,0.0070333,0.077379,-0.02089,-0.32714,-0.12612,-0.0036356,-0.040627,0.025557,0.12367,2.7507,0.052143,0.66406,0.78173,0.30922,1.5934,2.2238,0.017585,0.33061,0.14298,-2.2483,-2.3768
-0.014834,-0.0080298,0.1376,0.0035647,0.13169,-0.0047613,-0.39561,-0.10645,0.037023,-0.027491,-0.033547,0.22132,2.1678,0.0042689,0.76047,0.84142,0.3143,1.443,2.0289,0.024431,0.25412,0.16209,-2.2355,-2.2503
-0.015199,-0.0050116,0.14698,0.0012848,0.17987,0.022997,-0.4512,-0.078093,0.069525,-0.014775,-0.1027,0.24133,1.6929,-0.035013,0.83789,0.78745,0.31744,1.262,1.7227,0.017122,0.18239,0.18245,-2.0725,-2.1351
-0.011767,0.00069133,0.14779,-0.0038567,0.21413,0.058169,-0.47696,-0.045969,0.084853,0.0022798,-0.17437,0.22029,1.2805,-0.070749,0.90522,0.55906,0.31938,1.0468,1.3193,-0.00084388,0.12198,0.19713,-1.8049,-2.051
-0.0081684,0.0058506,0.14126,-0.013244,0.22991,0.092693,-0.46704,-0.017964,0.07652,0.029599,-0.23869,0.19115,0.85131,-0.10626,0.9763,0.15126,0.32281,0.81193,0.87447,-0.01747,0.07234,0.20254,-1.4994,-1.9988
-0.0070263,0.0070075,0.13298,-0.024317,0.22783,0.11692,-0.43192,0.0011375,0.046358,0.067618,-0.29113,0.1587,0.37788,-0.13959,1.052,-0.35874,0.33043,0.59761,0.45224,-0.020318,0.030729,0.19935,-1.2162,-1.9698
-0.007701,0.0033544,0.12887,-0.032674,0.21378,0.12376,-0.39343,0.012413,0.0053144,0.10924,-0.33662,0.10525,-0.081541,-0.1636,1.1155,-0.80398,0.34271,0.45915,0.083341,-0.0053845,-0.0022453,0.19071,-0.98138,-1.9428
-0.0072437,-0.0024262,0.13111,-0.035631,0.19668,0.11259,-0.37059,0.020207,-0.032314,0.14374,-0.38646,0.021669,-0.43001,-0.16973,1.1436,-0.96787,0.35744,0.44157,-0.25533,0.020125,-0.021243,0.17999,-0.77519,-1.8721
-0.0036176,-0.0061198,0.13694,-0.034263,0.18443,0.089878,-0.36611,0.027076,-0.05722,0.16303,-0.45002,-0.063947,-0.61721,-0.15349,1.1222,-0.68068,0.37162,0.55518,-0.62279,0.043418,-0.020457,0.16923,-0.5481,-1.6961
0.001913,-0.0050856,0.1411,-0.032484,0.18023,0.065265,-0.36431,0.031087,-0.069634,0.16552,-0.52747,-0.089623,-0.68402,-0.11831,1.0524,0.069164,0.3837,0.76697,-1.0709,0.05562,-3.7302e-005,0.15857,-0.25854,-1.3774
0.0056278,6.6604e-005,0.13958,-0.034141,0.18143,0.045487,-0.34261,0.027636,-0.076686,0.15525,-0.60878,0.00073371,-0.72379,-0.074993,0.94506,1.0854,0.39406,1.0124,-1.6083,0.057324,0.031142,0.14609,0.092111,-0.95076
0.0048092,0.0064453,0.13179,-0.040428,0.18198,0.030653,-0.28782,0.013619,-0.085115,0.13814,-0.67885,0.20969,-0.79401,-0.036365,0.81124,2.0304,0.40279,1.2203,-2.196,0.055633,0.05955,0.12834,0.45209,-0.53073
0.00059904,0.011358,0.11991,-0.049274,0.17671,0.015888,-0.20485,-0.010098,-0.095435,0.11872,-0.72429,0.4721,-0.86022,-0.009658,0.65985,2.5872,0.40708,1.3379,-2.7709,0.055623,0.075352,0.10196,0.74559,-0.25466
-0.0026015,0.014022,0.10649,-0.056813,0.16467,-0.0031064,-0.11268,-0.039883,-0.10207,0.099415,-0.7376,0.69312,-0.8262,0.0083676,0.50168,2.6256,0.40111,1.3439,-3.2738,0.054138,0.078601,0.066197,0.91502,-0.1929
-0.00090265,0.015219,0.09277,-0.059791,0.14923,-0.02551,-0.032437,-0.072581,-0.098753,0.081601,-0.71756,0.8146,-0.62724,0.029318,0.35264,2.2674,0.37945,1.2473,-3.6594,0.041933,0.07829,0.024688,0.94994,-0.29344
0.0054642,0.015669,0.078812,-0.057523,0.13497,-0.045976,0.022355,-0.10748,-0.084303,0.066411,-0.66828,0.85793,-0.30585,0.063933,0.22942,1.8074,0.34156,1.0752,-3.8932,0.012541,0.084936,-0.015221,0.88508,-0.40946
0.012063,0.014981,0.064732,-0.052383,0.12377,-0.059777,0.048329,-0.14528,-0.064487,0.054244,-0.59888,0.90562,-0.0040777,0.11112,0.13993,1.5379,0.29356,0.85717,-3.9507,-0.0301,0.10236,-0.0457,0.77282,-0.39423
0.013921,0.012234,0.05127,-0.048492,0.11328,-0.067609,0.049663,-0.18537,-0.049143,0.043823,-0.52313,1.0316,0.12241,0.15352,0.077641,1.5822,0.24522,0.61605,-3.8332,-0.07252,0.12454,-0.062445,0.65187,-0.19444
0.0097363,0.0074435,0.039227,-0.049136,0.098912,-0.07526,0.035774,-0.22407,-0.047547,0.032251,-0.45675,1.2352,0.0012003,0.16466,0.026344,1.8335,0.20438,0.36664,-3.5848,-0.10096,0.13903,-0.066926,0.53216,0.1249
0.0028666,0.0021987,0.028715,-0.054385,0.078392,-0.088089,0.021006,-0.25554,-0.065215,0.016466,-0.41169,1.4344,-0.31842,0.12497,-0.027613,2.0272,0.17291,0.12246,-3.2889,-0.11133,0.13377,-0.06554,0.40027,0.43661
-0.0017175,-0.0013919,0.019397,-0.060592,0.055297,-0.10521,0.023045,-0.2745,-0.10296,-0.005001,-0.39044,1.5279,-0.70221,0.036316,-0.086046,1.8983,0.14728,-0.097241,-3.0346,-0.11152,0.10255,-0.066283,0.23579,0.63914
-0.0017173,-0.0025631,0.011536,-0.062515,0.038647,-0.1189,0.056649,-0.27884,-0.15684,-0.031296,-0.38503,1.4779,-1.0052,-0.075915,-0.14066,1.3327,0.12273,-0.26699,-2.8704,-0.11423,0.046872,-0.074842,0.025559,0.70852
0.00083443,-0.0027028,0.0064698,-0.056879,0.038076,-0.12011,0.12461,-0.2705,-0.21758,-0.059715,-0.38224,1.346,-1.133,-0.17615,-0.18412,0.4307,0.097697,-0.3636,-2.7813,-0.12678,-0.02552,-0.092072,-0.23046,0.68248
0.0019043,-0.0041255,0.0055736,-0.044896,0.057506,-0.10564,0.21293,-0.25448,-0.26998,-0.086416,-0.37159,1.2518,-1.0658,-0.23941,-0.22051,-0.5465,0.074811,-0.37855,-2.707,-0.14633,-0.10369,-0.11396,-0.52001,0.60205
-0.00049831,-0.0077852,0.00854,-0.031787,0.091748,-0.080785,0.29575,-0.23679,-0.29367,-0.10656,-0.34969,1.2849,-0.85324,-0.26539,-0.26555,-1.3134,0.058343,-0.32515,-2.5878,-0.16389,-0.1772,-0.13411,-0.82211,0.46735
-0.0043329,-0.012072,0.012858,-0.023561,0.12882,-0.055596,0.34858,-0.22213,-0.26665,-0.11432,-0.31816,1.4412,-0.59286,-0.27613,-0.33611,-1.7051,0.05043,-0.23345,-2.4021,-0.1727,-0.23947,-0.14758,-1.1113,0.24622
-0.0053999,-0.013984,0.015355,-0.023338,0.15681,-0.038131,0.36112,-0.212,-0.17057,-0.10404,-0.27769,1.6299,-0.39554,-0.2991,-0.43757,-1.7542,0.049313,-0.1347,-2.172,-0.17344,-0.28938,-0.15388,-1.3619,-0.075294
-0.0013308,-0.011773,0.014493,-0.029757,0.17074,-0.030206,0.34087,-0.20365,0.0034326,-0.072961,-0.22465,1.7408,-0.33952,-0.34819,-0.55942,-1.6633,0.05083,-0.044619,-1.9372,-0.17237,-0.32973,-0.157,-1.5521,-0.45007
0.0059676,-0.00667,0.01115,-0.038311,0.17487,-0.028283,0.30572,-0.19061,0.25015,-0.024331,-0.15397,1.7143,-0.42973,-0.41602,-0.68232,-1.6936,0.051725,0.043267,-1.7255,-0.17496,-0.36293,-0.16202,-1.6661,-0.77914
0.011689,-0.0020533,0.007043,-0.044336,0.17908,-0.027489,0.27136,-0.16501,0.54778,0.031463,-0.065719,1.5633,-0.59286,-0.48224,-0.79017,-2.0335,0.051989,0.14913,-1.5407,-0.18101,-0.3873,-0.17054,-1.696,-0.97301
0.01217,-0.00072554,0.0024082,-0.045567,0.19226,-0.02477,0.2422,-0.12092,0.85887,0.079413,0.030931,1.3383,-0.72376,-0.52985,-0.87669,-2.7181,0.054361,0.28841,-1.3708,-0.18495,-0.39765,-0.17863,-1.6463,-1.019
0.0080303,-0.0027507,-0.0045644,-0.042904,0.21725,-0.019222,0.21086,-0.057205,1.1364,0.10543,0.12061,1.0772,-0.7579,-0.55589,-0.94142,-3.6328,0.061543,0.45573,-1.2013,-0.1801,-0.39067,-0.17948,-1.5418,-0.99919
0.0036085,-0.0057306,-0.015782,-0.039346,0.25043,-0.010881,0.16438,0.021792,1.3353,0.10236,0.18988,0.78438,-0.71524,-0.56789,-0.97936,-4.5846,0.073613,0.62269,-1.02,-0.16289,-0.37072,-0.16905,-1.4338,-1.0405
0.0031445,-0.0071046,-0.030662,-0.037966,0.28518,-0.00032639,0.092128,0.1081,1.4255,0.073243,0.23412,0.44982,-0.67697,-0.56957,-0.97494,-5.3879,0.087972,0.75183,-0.81553,-0.13387,-0.35025,-0.14991,-1.3923,-1.2313
0.0070725,-0.0062566,-0.045591,-0.03999,0.31618,0.010425,-0.0094592,0.19333,1.4016,0.030027,0.25808,0.081533,-0.71127,-0.54865,-0.90746,-5.9166,0.10187,0.81814,-0.57924,-0.096121,-0.34285,-0.12951,-1.4817,-1.5639
0.011697,-0.0046267,-0.056209,-0.043883,0.34156,0.017478,-0.13653,0.27133,1.2817,-0.011931,0.27035,-0.28374,-0.81111,-0.47916,-0.76563,-6.1101,0.11515,0.8232,-0.31458,-0.053374,-0.35347,-0.11392,-1.7272,-1.9419
0.012517,-0.0040989,-0.060543,-0.046012,0.36241,0.016809,-0.28041,0.33898,1.0974,-0.040797,0.27671,-0.60056,-0.89853,-0.33892,-0.56017,-5.9533,0.13018,0.79213,-0.044536,-0.0095658,-0.37385,-0.102,-2.0933,-2.2414
0.0082312,-0.0054864,-0.060175,-0.042728,0.38082,0.0075342,-0.43078,0.39531,0.8803,-0.053155,0.27741,-0.84398,-0.89168,-0.13051,-0.32392,-5.4613,0.1486,0.75546,0.19653,0.030562,-0.38744,-0.085442,-2.4929,-2.3799
0.0019132,-0.0084525,-0.058527,-0.032794,0.39854,-0.0061019,-0.57724,0.4399,0.65334,-0.05446,0.26933,-1.0201,-0.7735,0.11053,-0.097896,-4.6819,0.16742,0.72959,0.38732,0.061569,-0.38083,-0.055121,-2.8244,-2.3503
-0.0015675,-0.012427,-0.058,-0.018577,0.41672,-0.016325,-0.70876,0.47223,0.43237,-0.055173,0.24983,-1.1503,-0.59961,0.32873,0.087268,-3.7043,0.17853,0.71043,0.54259,0.078923,-0.35267,-0.008792,-3.0145,-2.209
0.00047168,-0.017083,-0.058616,-0.0050176,0.43595,-0.016466,-0.81191,0.4922,0.23243,-0.065084,0.21854,-1.2475,-0.43982,0.47621,0.22179,-2.6572,0.1733,0.68427,0.71181,0.081268,-0.31321,0.045957,-3.0422,-2.0417
0.0065377,-0.021789,-0.059118,0.0030902,0.45576,-0.0053823,-0.87055,0.50137,0.071739,-0.088986,0.17635,-1.3059,-0.30976,0.53707,0.31277,-1.6877,0.14941,0.64618,0.94581,0.071653,-0.275,0.095907,-2.9318,-1.9302
0.012391,-0.02501,-0.059098,0.0037152,0.47346,0.011587,-0.86947,0.50384,-0.0323,-0.12551,0.12344,-1.3129,-0.15831,0.53266,0.37075,-0.92864,0.11462,0.6102,1.2509,0.056833,-0.24272,0.13024,-2.7292,-1.9293
0.014346,-0.024961,-0.059856,-0.0016056,0.48377,0.025797,-0.80151,0.5055,-0.072737,-0.16879,0.059337,-1.2681,0.075608,0.50429,0.39861,-0.46442,0.083863,0.60272,1.565,0.045092,-0.21079,0.14645,-2.4803,-2.0488
0.011616,-0.02132,-0.063187,-0.0090985,0.48042,0.030198,-0.67371,0.5118,-0.060946,-0.21127,-0.015034,-1.1946,0.38823,0.48586,0.39099,-0.30931,0.07118,0.64453,1.7786,0.043732,-0.17068,0.15038,-2.2209,-2.2398
0.0061516,-0.016253,-0.069445,-0.015035,0.45956,0.022633,-0.50673,0.52498,-0.02553,-0.24606,-0.09485,-1.1301,0.68654,0.48496,0.34329,-0.40697,0.082264,0.73612,1.7929,0.056936,-0.12144,0.15119,-1.9748,-2.3971
0.00072905,-0.013238,-0.076939,-0.01738,0.42309,0.0057638,-0.32591,0.54247,-0.0010528,-0.26837,-0.17119,-1.1075,0.83877,0.48418,0.26123,-0.65834,0.11283,0.85773,1.5786,0.084163,-0.074373,0.15537,-1.7486,-2.3926
-0.0027988,-0.014318,-0.083368,-0.016075,0.37916,-0.015505,-0.14934,0.55786,-0.012209,-0.2762,-0.23385,-1.1334,0.76019,0.45943,0.16219,-0.97108,0.1534,0.98266,1.1942,0.11941,-0.04767,0.16343,-1.5273,-2.134
-0.003906,-0.018256,-0.087908,-0.01235,0.33896,-0.036822,0.018058,0.56407,-0.062316,-0.27056,-0.27595,-1.1777,0.46815,0.40036,0.067482,-1.3054,0.19588,1.0923,0.75373,0.15228,-0.055106,0.17068,-1.2796,-1.6178
-0.0027987,-0.021495,-0.091905,-0.0078977,0.31106,-0.055604,0.1797,0.55677,-0.13299,-0.25508,-0.29759,-1.1814,0.069369,0.31822,-0.0086273,-1.6826,0.23662,1.1811,0.36615,0.17164,-0.097532,0.17062,-0.97946,-0.94438
0.00010224,-0.021269,-0.097405,-0.0043083,0.29707,-0.070558,0.336,0.53603,-0.19574,-0.23477,-0.30642,-1.0851,-0.3031,0.23719,-0.06516,-2.1434,0.27433,1.2488,0.087608,0.17074,-0.16285,0.15897,-0.6326,-0.27988
0.0040915,-0.018022,-0.10485,-0.0026926,0.2913,-0.080651,0.47691,0.50529,-0.22917,-0.21419,-0.31444,-0.86604,-0.5541,0.17788,-0.11296,-2.6814,0.30601,1.2916,-0.086371,0.15109,-0.23309,0.13628,-0.28562,0.21488
0.0079717,-0.01488,-0.11218,-0.0033528,0.28488,-0.084754,0.58523,0.46889,-0.23176,-0.19567,-0.33221,-0.56297,-0.65406,0.14614,-0.1676,-3.2068,0.32598,1.3007,-0.19394,0.12172,-0.29212,0.10782,-0.0039598,0.44985
0.010376,-0.014662,-0.11627,-0.0056661,0.2712,-0.082262,0.64814,0.43019,-0.22208,-0.17889,-0.36364,-0.26474,-0.62739,0.13376,-0.2409,-3.5772,0.32928,1.2727,-0.27338,0.093934,-0.3284,0.080815,0.16951,0.43175
0.010583,-0.017295,-0.11558,-0.0084156,0.249,-0.074048,0.66675,0.39161,-0.22639,-0.16229,-0.404,-0.062876,-0.52332,0.12788,-0.33409,-3.6836,0.31658,1.2199,-0.34844,0.074523,-0.33298,0.06016,0.24465,0.23954
0.0090591,-0.020041,-0.11173,-0.010463,0.22126,-0.06281,0.65548,0.35562,-0.26198,-0.14581,-0.44283,0.0045337,-0.39061,0.11945,-0.43438,-3.5262,0.29527,1.1691,-0.43581,0.062313,-0.29733,0.045373,0.27819,-0.033837
0.0070694,-0.020198,-0.10846,-0.011315,0.19141,-0.052304,0.63216,0.32516,-0.32779,-0.13265,-0.46979,-0.0244,-0.26264,0.10514,-0.5167,-3.2197,0.2746,1.1441,-0.55694,0.050278,-0.21589,0.031086,0.3347,-0.33671
0.0056362,-0.01757,-0.10901,-0.011218,0.16053,-0.045717,0.60688,0.30237,-0.4087,-0.12812,-0.47998,-0.066418,-0.15064,0.083855,-0.55161,-2.9184,0.25836,1.1443,-0.73509,0.031167,-0.093212,0.011081,0.44371,-0.674
0.0048168,-0.014336,-0.11404,-0.01084,0.1276,-0.044083,0.57776,0.28649,-0.48887,-0.1352,-0.47526,-0.056296,-0.044627,0.053949,-0.51769,-2.7171,0.24102,1.1393,-0.97516,0.0021191,0.04965,-0.016961,0.58476,-1.0687
0.003982,-0.012642,-0.12172,-0.010901,0.09217,-0.045737,0.53466,0.27283,-0.56277,-0.14965,-0.46135,0.0081504,0.075435,0.014938,-0.41221,-2.6041,0.21161,1.0868,-1.2433,-0.034839,0.17615,-0.049672,0.70902,-1.4966
0.0027346,-0.01247,-0.1296,-0.011962,0.056041,-0.047323,0.4665,0.25373,-0.6346,-0.15893,-0.44308,0.076723,0.22102,-0.028612,-0.25339,-2.4988,0.16268,0.96244,-1.4672,-0.075631,0.24586,-0.080558,0.77777,-1.8495
0.0014407,-0.011961,-0.13633,-0.014301,0.021978,-0.045946,0.3676,0.22143,-0.7073,-0.14757,-0.4215,0.10437,0.38089,-0.066316,-0.072799,-2.3386,0.097547,0.7777,-1.5655,-0.11695,0.23285,-0.10463,0.78715,-1.9734
0.00079319,-0.0097677,-0.14177,-0.017748,-0.0095427,-0.041244,0.24154,0.17103,-0.77187,-0.10702,-0.39441,0.10572,0.5236,-0.087061,0.096929,-2.1383,0.02932,0.56743,-1.49,-0.15651,0.14133,-0.12112,0.76379,-1.769
0.00092291,-0.0069296,-0.14594,-0.021574,-0.041962,-0.035975,0.10292,0.10258,-0.80781,-0.043518,-0.359,0.15714,0.61598,-0.086887,0.23095,-1.9746,-0.028082,0.35704,-1.2553,-0.19149,0.0082358,-0.13223,0.7403,-1.2805
0.0011242,-0.0062885,-0.14827,-0.024627,-0.080274,-0.034577,-0.024276,0.021691,-0.79595,0.022047,-0.31466,0.3393,0.64155,-0.073345,0.31431,-1.9127,-0.069929,0.13694,-0.93437,-0.2177,-0.11139,-0.13956,0.73333,-0.68991
0.00060562,-0.00997,-0.14806,-0.025782,-0.12613,-0.0406,-0.11397,-0.061836,-0.73383,0.063675,-0.2643,0.66335,0.60216,-0.062369,0.34079,-1.9447,-0.1033,-0.13075,-0.6216,-0.23137,-0.17025,-0.14194,0.73996,-0.19877
-0.00049536,-0.017382,-0.14564,-0.024415,-0.17485,-0.054751,-0.14984,-0.13736,-0.64076,0.063927,-0.21435,1.0394,0.50266,-0.069521,0.31415,-1.9931,-0.13959,-0.47532,-0.38758,-0.2321,-0.15143,-0.13679,0.74968,0.12161
-0.0010073,-0.025578,-0.14269,-0.020569,-0.2178,-0.0749,-0.13507,-0.19807,-0.54784,0.023148,-0.17352,1.3158,0.33673,-0.10164,0.25174,-1.9749,-0.18266,-0.8805,-0.25431,-0.22388,-0.073795,-0.12353,0.75733,0.38995
0.00017084,-0.031456,-0.14097,-0.014761,-0.24873,-0.097701,-0.091741,-0.24441,-0.48007,-0.041541,-0.15045,1.3641,0.093273,-0.15399,0.18394,-1.8651,-0.22276,-1.2816,-0.20443,-0.21257,0.023126,-0.10554,0.76549,0.82243
0.0027534,-0.033638,-0.14071,-0.0076888,-0.26896,-0.12018,-0.048106,-0.28338,-0.44354,-0.10639,-0.15002,1.1539,-0.21719,-0.21321,0.14384,-1.7034,-0.2419,-1.6034,-0.21284,-0.20146,0.10437,-0.088823,0.77767,1.5499
0.0049035,-0.032504,-0.14006,-0.00011316,-0.28659,-0.13979,-0.021959,-0.32299,-0.42577,-0.15342,-0.16986,0.767,-0.54007,-0.26235,0.1501,-1.542,-0.22701,-1.8113,-0.27347,-0.18863,0.15751,-0.078517,0.79235,2.4889
0.0045672,-0.028981,-0.13654,0.0070982,-0.30988,-0.15331,-0.012789,-0.36562,-0.40654,-0.17725,-0.19982,0.34749,-0.78499,-0.2844,0.19562,-1.3896,-0.18024,-1.9326,-0.40114,-0.16847,0.19233,-0.076472,0.80508,3.3742
0.0012148,-0.023808,-0.12931,0.013002,-0.34011,-0.1562,-0.0085572,-0.40574,-0.37004,-0.18347,-0.22605,0.023238,-0.8687,-0.26456,0.25236,-1.2073,-0.11776,-2.0305,-0.61119,-0.13613,0.22594,-0.081779,0.81577,3.9347
-0.0035618,-0.01806,-0.12014,0.016874,-0.36973,-0.14408,-0.00054538,-0.4348,-0.31083,-0.18141,-0.2384,-0.14901,-0.76563,-0.19391,0.29076,-0.95666,-0.057801,-2.1504,-0.89824,-0.091482,0.26744,-0.093069,0.83221,4.0725
-0.00717,-0.013902,-0.11218,0.018636,-0.38718,-0.11584,0.0071793,-0.44965,-0.23318,-0.17774,-0.23611,-0.18715,-0.52769,-0.075987,0.29875,-0.64939,-0.0079364,-2.2839,-1.2341,-0.039502,0.31446,-0.10995,0.86473,3.9112
-0.0079264,-0.013963,-0.10743,0.019034,-0.3845,-0.075868,0.0017746,-0.45744,-0.14793,-0.17488,-0.2275,-0.14478,-0.25577,0.06778,0.28507,-0.33847,0.038013,-2.3773,-1.5849,0.012466,0.36136,-0.13219,0.91609,3.6829
-0.0061849,-0.019265,-0.10498,0.01932,-0.36194,-0.0333,-0.025461,-0.47221,-0.069733,-0.17387,-0.22314,-0.064936,-0.04191,0.20045,0.26532,-0.051934,0.091298,-2.3768,-1.9268,0.057993,0.40845,-0.15787,0.97612,3.5588
-0.0038578,-0.027582,-0.10154,0.020542,-0.3273,0.0016153,-0.069905,-0.50559,-0.013822,-0.17751,-0.22737,0.040836,0.076054,0.28311,0.24456,0.27081,0.1559,-2.2675,-2.2418,0.093132,0.46214,-0.18293,1.0265,3.5633
-0.0028751,-0.034242,-0.093797,0.022935,-0.29185,0.021747,-0.11674,-0.55943,0.0095083,-0.19,-0.23487,0.17934,0.11605,0.29393,0.21344,0.76986,0.22352,-2.0775,-2.4954,0.11631,0.52588,-0.20322,1.0517,3.6248
-0.0038928,-0.03527,-0.080534,0.025895,-0.26634,0.025043,-0.15299,-0.62617,0.00092779,-0.21302,-0.23467,0.34578,0.11376,0.24041,0.16123,1.571,0.28006,-1.8463,-2.6217,0.1281,0.59115,-0.21748,1.0478,3.6959
-0.0061547,-0.030403,-0.063059,0.028592,-0.2588,0.01342,-0.17685,-0.6959,-0.026861,-0.24211,-0.21844,0.5041,0.079958,0.15433,0.092234,2.6726,0.31732,-1.5892,-2.542,0.13159,0.63747,-0.22882,1.0217,3.8172
-0.008375,-0.023305,-0.043802,0.030749,-0.27268,-0.0097244,-0.19579,-0.76329,-0.056511,-0.26704,-0.18597,0.59387,-0.010873,0.07101,0.028178,3.9056,0.33907,-1.29,-2.2146,0.13228,0.64228,-0.24298,0.98432,4.0614
-0.0097952,-0.018647,-0.024577,0.032922,-0.30452,-0.040838,-0.21607,-0.82805,-0.078174,-0.27719,-0.14417,0.55955,-0.19295,0.0068768,-0.0081144,5.0113,0.356,-0.92376,-1.6828,0.13602,0.59366,-0.26475,0.94328,4.413
-0.010637,-0.018489,-0.0059691,0.035922,-0.34249,-0.075403,-0.23455,-0.88963,-0.096698,-0.26813,-0.10131,0.38201,-0.46835,-0.047279,-0.013596,5.7887,0.37423,-0.48939,-1.0778,0.14548,0.49826,-0.29443,0.90297,4.7056
-0.011752,-0.021005,0.01196,0.039788,-0.36878,-0.10651,-0.24081,-0.94208,-0.1263,-0.24428,-0.062576,0.09183,-0.78873,-0.11135,-0.010638,6.2072,0.38774,-0.025165,-0.5659,0.15793,0.38144,-0.32652,0.86944,4.697
-0.013796,-0.022466,0.028687,0.043207,-0.36688,-0.12544,-0.22758,-0.97514,-0.17502,-0.21505,-0.030864,-0.24327,-1.075,-0.19046,-0.030218,6.4017,0.38165,0.39974,-0.26911,0.16671,0.28079,-0.35059,0.85475,4.2382
-0.016504,-0.020609,0.043081,0.044088,-0.33048,-0.12544,-0.19943,-0.98114,-0.23104,-0.18658,-0.010826,-0.54742,-1.2577,-0.26007,-0.085536,6.5551,0.34361,0.70889,-0.2139,0.16606,0.23501,-0.35404,0.87433,3.4034
-0.01858,-0.016413,0.054214,0.041046,-0.26843,-0.10673,-0.17143,-0.96184,-0.26313,-0.15525,-0.010527,-0.76397,-1.3047,-0.27535,-0.15805,6.7581,0.27419,0.8441,-0.33777,0.15581,0.2698,-0.3261,0.93761,2.4687
-0.018458,-0.012975,0.062262,0.034696,-0.20208,-0.078864,-0.15854,-0.92915,-0.23747,-0.10819,-0.037342,-0.86708,-1.215,-0.19979,-0.20808,6.9534,0.18819,0.78635,-0.54123,0.14215,0.38504,-0.26258,1.0385,1.743
-0.015585,-0.012698,0.068599,0.027642,-0.15606,-0.057836,-0.16493,-0.89903,-0.1397,-0.031396,-0.091015,-0.85746,-0.99197,-0.031888,-0.2023,7.0009,0.10701,0.56872,-0.74096,0.13415,0.55022,-0.17024,1.1544,1.3788
-0.011338,-0.015366,0.075035,0.023054,-0.14781,-0.05879,-0.18175,-0.88329,0.01341,0.079684,-0.16071,-0.75291,-0.62529,0.18999,-0.13771,6.8091,0.048183,0.27366,-0.88848,0.13857,0.71365,-0.067704,1.2566,1.3015
-0.008588,-0.018594,0.082919,0.022885,-0.18124,-0.088734,-0.19454,-0.88545,0.18129,0.21438,-0.22994,-0.5856,-0.10677,0.40773,-0.045584,6.423,0.019125,0.0063543,-0.95508,0.15653,0.82263,0.019366,1.3261,1.3039
-0.0098039,-0.019986,0.092831,0.026951,-0.24728,-0.14379,-0.19379,-0.90245,0.32048,0.34999,-0.28587,-0.40674,0.53275,0.57306,0.025221,5.9985,0.016938,-0.15102,-0.91309,0.18337,0.84336,0.068361,1.3634,1.216
-0.014904,-0.018977,0.10484,0.033286,-0.33033,-0.21235,-0.18052,-0.9299,0.4051,0.46181,-0.32513,-0.28664,1.2027,0.66595,0.033326,5.685,0.03197,-0.17932,-0.74086,0.21075,0.76858,0.070296,1.383,1.0126
-0.020688,-0.016917,0.11875,0.039132,-0.41673,-0.28163,-0.16411,-0.96633,0.43468,0.53352,-0.35141,-0.2965,1.7792,0.69241,-0.036769,5.5134,0.051837,-0.12661,-0.44882,0.22939,0.61086,0.034057,1.397,0.78414
-0.022752,-0.015659,0.13385,0.041849,-0.50026,-0.34299,-0.15564,-1.014,0.42718,0.56132,-0.36766,-0.47222,2.1706,0.66905,-0.17037,5.3805,0.064802,-0.068348,-0.098602,0.23185,0.39052,-0.019234,1.4006,0.61973
-0.018797,-0.016085,0.14864,0.039574,-0.58149,-0.39349,-0.16216,-1.0764,0.40485,0.55116,-0.37113,-0.78032,2.3736,0.6093,-0.33118,5.1427,0.062848,-0.050384,0.21073,0.21525,0.13038,-0.068565,1.3742,0.52063
-0.010772,-0.017696,0.16105,0.031934,-0.66115,-0.43354,-0.18548,-1.1545,0.38294,0.51288,-0.35534,-1.1141,2.4721,0.52037,-0.4771,4.7391,0.043945,-0.058621,0.38634,0.18301,-0.13995,-0.10375,1.3002,0.41713
-0.0038769,-0.019248,0.16963,0.020625,-0.73263,-0.46363,-0.22411,-1.2431,0.3663,0.45669,-0.31613,-1.334,2.5724,0.4082,-0.57691,4.2434,0.011836,-0.039174,0.38383,0.14356,-0.37902,-0.12717,1.1815,0.25701
-0.0028416,-0.019564,0.17465,0.0090789,-0.78045,-0.48237,-0.27543,-1.3301,0.3529,0.39334,-0.25429,-1.3344,2.7229,0.28138,-0.62232,3.8028,-0.027412,0.049166,0.21603,0.10564,-0.53968,-0.1461,1.0427,0.066015
-0.008239,-0.017902,0.17809,0.00070309,-0.78796,-0.48707,-0.33571,-1.3987,0.33921,0.33471,-0.17209,-1.0988,2.882,0.14925,-0.63041,3.5184,-0.06991,0.19539,-0.075074,0.072556,-0.58856,-0.1629,0.91297,-0.085189
-0.015824,-0.013986,0.18198,-0.0034206,-0.74981,-0.47603,-0.39812,-1.4339,0.32377,0.2911,-0.068365,-0.70611,2.9586,0.016906,-0.63423,3.3697,-0.11565,0.34254,-0.45354,0.039803,-0.52714,-0.17138,0.80287,-0.17523
-0.019625,-0.0081409,0.18653,-0.0054553,-0.67954,-0.45079,-0.45134,-1.4286,0.30767,0.26545,0.060231,-0.28506,2.8874,-0.11634,-0.66527,3.2415,-0.16556,0.43231,-0.89612,-0.001204,-0.39776,-0.16259,0.69755,-0.29046
-0.016476,-0.0015568,0.18974,-0.0091059,-0.60461,-0.41675,-0.48133,-1.3865,0.29283,0.24944,0.2106,0.0524,2.6751,-0.25246,-0.73666,3.0262,-0.21666,0.44831,-1.3635,-0.055248,-0.26658,-0.13431,0.57239,-0.58121
-0.0084141,0.0038309,0.18917,-0.016344,-0.55093,-0.38139,-0.47711,-1.3186,0.2796,0.22651,0.36511,0.256,2.3837,-0.38813,-0.83678,2.7098,-0.2603,0.42282,-1.7681,-0.11707,-0.19196,-0.095549,0.41889,-1.1449
-0.00097453,0.0062232,0.18448,-0.025378,-0.52783,-0.35096,-0.43798,-1.2365,0.26556,0.18133,0.49387,0.33728,2.073,-0.51244,-0.93713,2.3711,-0.28655,0.40496,-1.9818,-0.17192,-0.19693,-0.061466,0.25874,-1.9318
0.0012643,0.0052078,0.17838,-0.031947,-0.52486,-0.32772,-0.3775,-1.1461,0.24661,0.10939,0.5689,0.33694,1.7612,-0.61123,-1.0092,2.1025,-0.29198,0.4203,-1.8947,-0.20301,-0.2616,-0.042511,0.13432,-2.7503
-0.0017159,0.0023462,0.17489,-0.033125,-0.52219,-0.30959,-0.31971,-1.0486,0.22073,0.019481,0.58059,0.29155,1.4359,-0.67449,-1.0397,1.9256,-0.28438,0.45414,-1.487,-0.20119,-0.33853,-0.036906,0.083878,-3.3611
-0.0055595,0.00039032,0.17608,-0.030322,-0.50589,-0.29257,-0.28832,-0.94478,0.19221,-0.072444,0.54344,0.22325,1.0951,-0.7002,-1.0355,1.7695,-0.27966,0.46663,-0.85606,-0.17035,-0.38069,-0.032925,0.12087,-3.5864
-0.005332,0.0015463,0.18024,-0.028639,-0.4759,-0.27414,-0.29496,-0.83972,0.17328,-0.15281,0.48631,0.14988,0.77128,-0.6919,-1.0159,1.5209,-0.29232,0.42201,-0.16988,-0.12551,-0.3666,-0.019355,0.23123,-3.365
0.00023221,0.0060885,0.18295,-0.032856,-0.44215,-0.25522,-0.33495,-0.74277,0.18075,-0.21578,0.43512,0.093729,0.51022,-0.65279,-1.0005,1.0896,-0.32593,0.30794,0.42098,-0.085403,-0.31059,0.0043478,0.38585,-2.7462
0.007565,0.012373,0.18033,-0.043455,-0.41451,-0.23936,-0.39397,-0.66255,0.2287,-0.26174,0.40091,0.072975,0.32733,-0.58273,-0.9995,0.43662,-0.37046,0.13592,0.84806,-0.063966,-0.25399,0.026513,0.55468,-1.8594
0.011172,0.018098,0.17184,-0.056129,-0.39645,-0.23026,-0.46011,-0.60225,0.32067,-0.29273,0.38004,0.081732,0.18446,-0.48144,-1.0127,-0.44095,-0.40809,-0.068651,1.1211,-0.064988,-0.24137,0.031795,0.71234,-0.8888
0.0082334,0.021657,0.16045,-0.065217,-0.38663,-0.22938,-0.53089,-0.55917,0.44538,-0.31055,0.36266,0.082084,0.012139,-0.35496,-1.0359,-1.5297,-0.4231,-0.27463,1.2699,-0.082035,-0.29225,0.013328,0.83682,-0.04067
0.0011135,0.022564,0.15017,-0.068079,-0.38414,-0.23479,-0.60822,-0.528,0.57771,-0.31923,0.34044,0.025229,-0.24297,-0.21853,-1.0672,-2.7868,-0.40944,-0.44852,1.2891,-0.10342,-0.38288,-0.020605,0.9101,0.51834
-0.0043372,0.020997,0.14318,-0.0667,-0.38993,-0.24099,-0.68587,-0.50421,0.68459,-0.32768,0.30841,-0.1068,-0.5869,-0.0916,-1.1096,-4.1077,-0.37177,-0.55957,1.1359,-0.12015,-0.45102,-0.050214,0.92554,0.73614
-0.0033638,0.01729,0.13857,-0.065372,-0.40259,-0.23928,-0.74196,-0.48413,0.73404,-0.34764,0.26363,-0.27048,-0.9867,0.01237,-1.166,-5.3226,-0.32101,-0.59084,0.77934,-0.13293,-0.42633,-0.055424,0.89679,0.70554
0.0038944,0.012024,0.13357,-0.066731,-0.41358,-0.21931,-0.74663,-0.46292,0.70526,-0.38651,0.20518,-0.37128,-1.4033,0.09289,-1.2333,-6.2536,-0.26835,-0.55063,0.25462,-0.15329,-0.27318,-0.027039,0.85819,0.60344
0.012444,0.0064059,0.12581,-0.069676,-0.40887,-0.17293,-0.68221,-0.43374,0.59664,-0.44072,0.13671,-0.31621,-1.8153,0.15988,-1.2981,-6.8037,-0.2213,-0.47198,-0.32509,-0.19595,-0.02042,0.028766,0.85235,0.56454
0.016263,0.0021554,0.11485,-0.070782,-0.37759,-0.099855,-0.56035,-0.39019,0.42807,-0.49552,0.067247,-0.074732,-2.2148,0.22324,-1.3386,-7.0062,-0.18266,-0.39515,-0.80906,-0.26491,0.24407,0.094082,0.91089,0.58323
0.012806,0.00060193,0.10204,-0.067636,-0.32073,-0.011743,-0.4207,-0.33003,0.23507,-0.53192,0.0071499,0.29697,-2.5851,0.28347,-1.3312,-6.9886,-0.15136,-0.34201,-1.0691,-0.34217,0.41632,0.14755,1.0395,0.52888
0.0046208,0.0017092,0.089257,-0.060992,-0.25176,0.069713,-0.30876,-0.2562,0.056338,-0.53569,-0.038294,0.68837,-2.8888,0.33174,-1.2591,-6.8714,-0.12366,-0.30107,-1.0398,-0.38918,0.43301,0.17246,1.2146,0.2691
-0.0030301,0.004023,0.07787,-0.053966,-0.18772,0.12203,-0.24807,-0.1738,-0.079764,-0.50219,-0.071358,1.0009,-3.078,0.35925,-1.118,-6.6826,-0.094472,-0.23537,-0.7243,-0.36477,0.30662,0.16182,1.39,-0.19839
-0.0063163,0.0057477,0.068576,-0.049299,-0.13819,0.13393,-0.22721,-0.085414,-0.16338,-0.43551,-0.096964,1.1993,-3.1219,0.36686,-0.91836,-6.3557,-0.059279,-0.10892,-0.18104,-0.25113,0.11595,0.11987,1.5099,-0.71685
-0.0052637,0.0060323,0.061693,-0.047336,-0.10099,0.11201,-0.21152,0.010582,-0.2028,-0.34507,-0.11437,1.3125,-3.0273,0.36529,-0.68135,-5.8081,-0.016476,0.087077,0.48974,-0.070905,-0.041616,0.060539,1.5254,-1.0703
-0.0027205,0.0053071,0.057126,-0.046478,-0.067574,0.076261,-0.17009,0.11749,-0.21728,-0.24315,-0.11384,1.3903,-2.8395,0.36482,-0.4311,-5.033,0.030986,0.32675,1.1582,0.11852,-0.10409,0.0027108,1.4136,-1.1298
-0.0012631,0.0044616,0.053881,-0.045375,-0.031951,0.046686,-0.096767,0.23602,-0.22734,-0.14365,-0.082944,1.4555,-2.6245,0.36367,-0.18737,-4.1285,0.076039,0.56497,1.6904,0.25339,-0.071052,-0.037017,1.1948,-0.9293
-0.0010692,0.0038147,0.049933,-0.044553,0.0053171,0.030456,-0.0099936,0.36267,-0.24697,-0.059908,-0.018447,1.4908,-2.4431,0.34636,0.037637,-3.2446,0.11021,0.76267,1.9927,0.29789,0.010439,-0.05144,0.93492,-0.61642
-0.00052281,0.002978,0.043174,-0.045838,0.04139,0.019034,0.066043,0.492,-0.27986,-0.00074979,0.06616,1.4632,-2.3292,0.29549,0.23681,-2.4956,0.12711,0.90305,2.0514,0.26194,0.084103,-0.045545,0.7227,-0.3298
0.0014612,0.0016791,0.032994,-0.050214,0.078472,-0.0027045,0.12172,0.62038,-0.32027,0.032687,0.14477,1.3586,-2.2772,0.20798,0.40341,-1.9072,0.12456,0.98815,1.9373,0.19051,0.11737,-0.032284,0.62571,-0.10736
0.003973,0.00049451,0.021011,-0.056303,0.1261,-0.042972,0.16697,0.7472,-0.3578,0.045716,0.19262,1.1919,-2.2441,0.10244,0.52949,-1.4312,0.10453,1.0217,1.7604,0.13243,0.10886,-0.0232,0.65071,0.10596
0.0049924,0.00048813,0.009894,-0.061045,0.19537,-0.096079,0.21878,0.87254,-0.38374,0.044666,0.20057,0.99022,-2.167,0.01074,0.60977,-1.0092,0.071585,0.99568,1.6032,0.11083,0.073048,-0.020093,0.73693,0.36956
0.0035907,0.0019609,0.0010172,-0.062026,0.29011,-0.14695,0.28407,0.99403,-0.39586,0.031825,0.1798,0.76945,-1.9911,-0.040812,0.64764,-0.63141,0.031432,0.89299,1.4807,0.11539,0.020952,-0.013905,0.79167,0.65947
0.001052,0.003642,-0.0069211,-0.059231,0.40332,-0.18213,0.35391,1.1062,-0.39863,0.0057386,0.15406,0.531,-1.6977,-0.046983,0.65675,-0.35263,-0.0096969,0.70671,1.3566,0.11861,-0.045805,0.0080741,0.74509,0.85473
-0.0003403,0.0034244,-0.016754,-0.054629,0.52228,-0.1969,0.41373,1.2032,-0.39897,-0.03314,0.14499,0.28196,-1.3145,-0.025374,0.65508,-0.25878,-0.04578,0.45836,1.1958,0.10068,-0.12561,0.051879,0.58471,0.80677
0.0003415,0.00025072,-0.029902,-0.050063,0.63784,-0.19194,0.45927,1.2827,-0.40083,-0.077005,0.16017,0.056491,-0.90091,-0.0043162,0.65524,-0.40776,-0.072757,0.19875,1.0067,0.062626,-0.20456,0.11105,0.34561,0.43687
0.0016101,-0.0045668,-0.04427,-0.045586,0.74946,-0.16321,0.5031,1.3467,-0.40262,-0.11151,0.19062,-0.086179,-0.5161,-0.0063922,0.65901,-0.77671,-0.090868,-0.013361,0.83761,0.019623,-0.25498,0.16937,0.069206,-0.20923
0.0010013,-0.0080409,-0.055137,-0.039844,0.86179,-0.095202,0.56537,1.4,-0.3994,-0.12329,0.21819,-0.091734,-0.19009,-0.038368,0.6605,-1.2422,-0.10554,-0.1414,0.73547,-0.016244,-0.24816,0.20977,-0.23095,-0.98302
-0.0022915,-0.007889,-0.058615,-0.031989,0.97669,0.034217,0.65669,1.4466,-0.38753,-0.10837,0.22707,0.050874,0.083986,-0.092003,0.65466,-1.6076,-0.12504,-0.18871,0.71002,-0.04662,-0.17248,0.22269,-0.56628,-1.709
-0.0061645,-0.0045871,-0.054861,-0.023094,1.0884,0.23889,0.76832,1.4874,-0.36777,-0.074436,0.21221,0.29069,0.33311,-0.1523,0.64294,-1.6752,-0.15545,-0.19151,0.73723,-0.081767,-0.044731,0.20885,-0.93901,-2.2602
-0.0070812,-0.0011755,-0.048361,-0.015567,1.1866,0.50986,0.87833,1.5215,-0.34459,-0.035425,0.1798,0.53097,0.57731,-0.20626,0.631,-1.3358,-0.19593,-0.19267,0.79533,-0.12599,0.091821,0.17594,-1.3124,-2.5882
-0.0030567,-0.00080709,-0.045107,-0.011129,1.2633,0.81243,0.96768,1.547,-0.32263,-0.0032999,0.14066,0.67289,0.81301,-0.24731,0.62137,-0.62946,-0.23777,-0.21532,0.89296,-0.16857,0.18123,0.1333,-1.6185,-2.7021
0.0045167,-0.0040938,-0.049037,-0.0093966,1.3178,1.0981,1.0317,1.5635,-0.30388,0.016768,0.10191,0.66163,1.0188,-0.27493,0.60887,0.26222,-0.26814,-0.25338,1.0574,-0.18959,0.175,0.088538,-1.8023,-2.623
0.011827,-0.0085824,-0.060393,-0.0084599,1.3536,1.3244,1.0768,1.5718,-0.2876,0.02576,0.063536,0.50821,1.1785,-0.29171,0.58412,1.0983,-0.27655,-0.28233,1.2921,-0.17572,0.052447,0.047287,-1.8677,-2.3549
0.015506,-0.010848,-0.076726,-0.0068229,1.3716,1.4706,1.106,1.5736,-0.2725,0.027984,0.022773,0.27406,1.3013,-0.30029,0.54252,1.6895,-0.26025,-0.27918,1.5484,-0.13186,-0.16524,0.014357,-1.8849,-1.8907
0.014911,-0.0093821,-0.095023,-0.0047685,1.3652,1.5404,1.1077,1.5692,-0.25848,0.030067,-0.017043,0.028612,1.4224,-0.30105,0.49028,1.9718,-0.22542,-0.23707,1.747,-0.078454,-0.41548,-0.0060084,-1.9512,-1.2469
0.012051,-0.0057562,-0.11304,-0.0038674,1.3239,1.5519,1.0603,1.5573,-0.24621,0.041747,-0.04105,-0.19296,1.5786,-0.29131,0.44152,2.0033,-0.18372,-0.1664,1.8359,-0.036996,-0.6146,-0.011172,-2.1309,-0.49752
0.0095507,-0.0031359,-0.12926,-0.0052574,1.2411,1.5227,0.94865,1.5349,-0.23523,0.074727,-0.027053,-0.40385,1.776,-0.26656,0.40815,1.9023,-0.14635,-0.085055,1.8341,-0.016554,-0.69313,-0.0013623,-2.4164,0.22149
0.0086594,-0.0035521,-0.14239,-0.0084538,1.1217,1.4591,0.7798,1.5003,-0.22287,0.13699,0.041821,-0.64331,1.9778,-0.22401,0.391,1.7823,-0.11887,-0.0058348,1.8153,-0.01164,-0.62882,0.020057,-2.7326,0.74922
0.0089049,-0.0063543,-0.15155,-0.011766,0.98232,1.3573,0.58305,1.4567,-0.20567,0.22539,0.16484,-0.93566,2.1253,-0.16705,0.38017,1.7268,-0.099643,0.071049,1.8409,-0.011044,-0.4563,0.04745,-2.9755,0.96289
0.0092606,-0.0090553,-0.157,-0.01374,0.84601,1.2135,0.39442,1.4132,-0.18241,0.32327,0.32157,-1.2623,2.1823,-0.10749,0.36492,1.7982,-0.082615,0.1569,1.8999,-0.0079345,-0.24544,0.074257,-3.0586,0.83253
0.0093623,-0.009601,-0.1603,-0.014156,0.73445,1.0356,0.23864,1.3826,-0.15581,0.40715,0.48236,-1.5672,2.1684,-0.063108,0.34537,2.0438,-0.062561,0.26522,1.9123,-0.0024335,-0.061918,0.094289,-2.9431,0.43452
0.0095969,-0.0079678,-0.16342,-0.013803,0.66232,0.84635,0.12299,1.3739,-0.1312,0.45916,0.62407,-1.7903,2.1477,-0.050392,0.3361,2.4726,-0.039424,0.39821,1.7941,0.0034012,0.063036,0.10288,-2.6456,-0.084266
0.010271,-0.0058357,-0.16714,-0.013513,0.63384,0.67459,0.04542,1.3856,-0.11275,0.4762,0.73936,-1.9025,2.1748,-0.076447,0.35745,3.023,-0.018751,0.53606,1.5283,0.010949,0.13456,0.097897,-2.228,-0.56868
0.011004,-0.0049254,-0.1704,-0.013513,0.64092,0.53905,0.0062597,1.4046,-0.10038,0.4687,0.8339,-1.9189,2.2344,-0.13475,0.41987,3.5601,-0.0078695,0.63707,1.1819,0.024554,0.17169,0.080227,-1.7755,-0.90525
0.011076,-0.0056443,-0.17129,-0.013532,0.66353,0.43801,0.011242,1.4112,-0.08996,0.4507,0.91542,-1.8839,2.2284,-0.2075,0.51223,3.9262,-0.01051,0.6526,0.85678,0.046248,0.18328,0.053399,-1.3659,-1.0355
0.01026,-0.0071253,-0.16902,-0.01323,0.67492,0.35411,0.064335,1.3908,-0.076712,0.42983,0.98431,-1.8449,2.0309,-0.27277,0.60343,4.0155,-0.023875,0.55196,0.6218,0.072036,0.1632,0.022427,-1.0404,-0.94101
0.0091425,-0.0083235,-0.16496,-0.012401,0.65234,0.27313,0.16024,1.3427,-0.058777,0.40584,1.0326,-1.8305,1.58,-0.31196,0.65726,3.8227,-0.040382,0.34313,0.48216,0.094201,0.1059,-0.0074172,-0.78919,-0.63074
0.0085486,-0.0089841,-0.16187,-0.010927,0.58869,0.20357,0.2863,1.2826,-0.038129,0.37755,1.0502,-1.8422,0.93661,-0.31343,0.65136,3.4313,-0.052762,0.074575,0.40065,0.10745,0.023801,-0.031325,-0.56375,-0.15074
0.0087754,-0.0096675,-0.16176,-0.0088518,0.49745,0.18116,0.43203,1.236,-0.0181,0.35056,1.0327,-1.8574,0.26159,-0.27234,0.5881,2.9558,-0.058619,-0.18644,0.33706,0.11262,-0.052468,-0.045271,-0.31246,0.39547
0.0095239,-0.011019,-0.16438,-0.00664,0.406,0.25232,0.59461,1.2275,0.00026489,0.33732,0.98494,-1.8414,-0.28121,-0.18973,0.49017,2.4788,-0.061201,-0.38731,0.26359,0.11424,-0.092951,-0.046504,-0.018154,0.85122
0.010534,-0.013069,-0.16755,-0.0052212,0.3406,0.44607,0.77158,1.2702,0.019952,0.34861,0.92002,-1.768,-0.62709,-0.074286,0.38466,2.0258,-0.066322,-0.5135,0.15009,0.11446,-0.089473,-0.034393,0.28742,1.0569
0.012023,-0.01515,-0.16902,-0.0054797,0.31286,0.75242,0.94678,1.3612,0.046319,0.38355,0.85492,-1.6429,-0.8437,0.054036,0.28697,1.5837,-0.078338,-0.58584,-0.049143,0.10948,-0.059783,-0.011032,0.54143,0.92611
0.014235,-0.016367,-0.16819,-0.007479,0.31639,1.1207,1.0857,1.4827,0.083158,0.42711,0.80462,-1.5119,-1.0719,0.16366,0.19577,1.1433,-0.09824,-0.63472,-0.3771,0.091846,-0.031109,0.019161,0.68596,0.49567
0.016506,-0.016213,-0.16632,-0.010162,0.33437,1.478,1.1502,1.6068,0.12923,0.45758,0.7758,-1.4396,-1.4207,0.21939,0.1019,0.72908,-0.12448,-0.67247,-0.83379,0.056352,-0.017874,0.050893,0.6968,-0.090727
0.017048,-0.014892,-0.16517,-0.011889,0.35062,1.756,1.1242,1.7017,0.17767,0.45846,0.76268,-1.4643,-1.896,0.19827,0.0034815,0.39079,-0.15476,-0.68681,-1.3568,0.0036909,-0.01277,0.079638,0.58847,-0.65854
0.014088,-0.013235,-0.1653,-0.011339,0.3561,1.9121,1.0282,1.7398,0.21863,0.42624,0.74828,-1.5603,-2.4106,0.10469,-0.084788,0.15918,-0.18684,-0.66103,-1.8534,-0.061382,0.0024784,0.10254,0.39807,-1.0868
0.0075934,-0.012283,-0.16546,-0.0079796,0.34807,1.9374,0.90697,1.7045,0.24362,0.36922,0.71243,-1.6457,-2.8604,-0.026625,-0.1357,-0.0020685,-0.2183,-0.60293,-2.2667,-0.13563,0.037845,0.11845,0.164,-1.3482
-5.6496e-006,-0.012776,-0.16338,-0.0018348,0.32635,1.8517,0.79901,1.5975,0.24857,0.29986,0.64258,-1.6388,-3.1985,-0.14514,-0.1244,-0.20142,-0.24663,-0.5563,-2.6191,-0.22139,0.084892,0.12762,-0.086656,-1.4899
-0.0050079,-0.014805,-0.15721,0.0068777,0.29161,1.6898,0.71245,1.4391,0.23405,0.22715,0.54018,-1.5225,-3.4509,-0.20989,-0.043813,-0.55889,-0.27038,-0.58289,-2.9904,-0.32516,0.12405,0.13165,-0.33889,-1.5846
-0.0048465,-0.017841,-0.14683,0.017615,0.24663,1.485,0.62794,1.262,0.20259,0.1539,0.41777,-1.3615,-3.669,-0.20999,0.089346,-1.1089,-0.29013,-0.72826,-3.441,-0.45091,0.14172,0.13349,-0.58424,-1.6896
6.5223e-005,-0.021096,-0.13407,0.028997,0.19709,1.2571,0.5253,1.0984,0.15546,0.079274,0.28938,-1.251,-3.8669,-0.16662,0.2415,-1.7394,-0.30758,-0.99801,-3.9429,-0.592,0.14183,0.1371,-0.81465,-1.8296
0.0064443,-0.023931,-0.12195,0.03875,0.14887,1.0098,0.40907,0.96684,0.091674,0.0029876,0.16238,-1.2356,-3.9992,-0.11523,0.37703,-2.2297,-0.32275,-1.3607,-4.3706,-0.72646,0.14225,0.1467,-1.018,-1.9946
0.010139,-0.026005,-0.11317,0.044689,0.1038,0.73942,0.30932,0.86573,0.010466,-0.072356,0.03744,-1.2684,-3.9949,-0.080971,0.47214,-2.382,-0.33147,-1.7686,-4.5615,-0.81893,0.16,0.16562,-1.1762,-2.1416
0.0086329,-0.027095,-0.10858,0.046198,0.058036,0.44984,0.25712,0.77673,-0.084209,-0.14192,-0.083873,-1.2467,-3.8181,-0.064836,0.52022,-2.1633,-0.3262,-2.1747,-4.3973,-0.83045,0.19768,0.19516,-1.2681,-2.2099
0.0024217,-0.026899,-0.10644,0.044887,0.0056412,0.16167,0.25714,0.6759,-0.18041,-0.20077,-0.1916,-1.0972,-3.5028,-0.049676,0.52687,-1.7513,-0.30058,-2.5315,-3.8554,-0.73416,0.24137,0.23324,-1.2782,-2.1612
-0.0055319,-0.025135,-0.10308,0.043601,-0.055679,-0.091848,0.28215,0.54602,-0.2591,-0.24571,-0.26738,-0.83614,-3.138,-0.019798,0.49888,-1.4414,-0.25472,-2.7818,-3.006,-0.53108,0.27031,0.27342,-1.2076,-2.0311
-0.011782,-0.021912,-0.094859,0.044414,-0.12225,-0.28123,0.29389,0.38436,-0.29967,-0.27609,-0.29309,-0.5539,-2.8161,0.022478,0.43556,-1.4725,-0.19717,-2.8628,-1.9764,-0.25737,0.27014,0.30547,-1.0778,-1.9462
-0.014489,-0.017948,-0.080364,0.047282,-0.18781,-0.39712,0.2712,0.20326,-0.28767,-0.29399,-0.26201,-0.33635,-2.5826,0.056827,0.32984,-1.8901,-0.14145,-2.7329,-0.90958,0.024379,0.24055,0.31866,-0.92175,-2.0652
-0.014254,-0.014244,-0.061449,0.050551,-0.24899,-0.45392,0.2212,0.024857,-0.22061,-0.30393,-0.18477,-0.19329,-2.4187,0.061208,0.17917,-2.5406,-0.099428,-2.4026,0.066528,0.24925,0.19358,0.30702,-0.76522,-2.4621
-0.013218,-0.011401,-0.042148,0.052804,-0.30696,-0.4775,0.16602,-0.12694,-0.10903,-0.31149,-0.086429,-0.054324,-2.2645,0.030544,-0.0019574,-3.1915,-0.075754,-1.9425,0.86182,0.37834,0.14547,0.27344,-0.61403,-3.0326
-0.013135,-0.0092602,-0.026044,0.054293,-0.36293,-0.48636,0.11923,-0.23435,0.027555,-0.32053,0.003237,0.16689,-2.0658,-0.018056,-0.18018,-3.684,-0.066953,-1.4512,1.4403,0.41478,0.10793,0.22916,-0.45729,-3.514
-0.013935,-0.0073315,-0.013813,0.056594,-0.41173,-0.48052,0.073243,-0.29111,0.16721,-0.32994,0.060792,0.49834,-1.8185,-0.058045,-0.31729,-4.0109,-0.065026,-1.004,1.8226,0.39687,0.083837,0.18784,-0.28599,-3.6319
-0.01393,-0.0056644,-0.0027729,0.06086,-0.44021,-0.44581,0.006641,-0.30404,0.29104,-0.33282,0.076581,0.88864,-1.5811,-0.073284,-0.39199,-4.2715,-0.062748,-0.61898,2.0662,0.37266,0.068644,0.158,-0.11098,-3.2798
-0.011492,-0.0051397,0.011118,0.066403,-0.43314,-0.36901,-0.098262,-0.29032,0.38541,-0.3198,0.055994,1.2519,-1.4412,-0.068023,-0.41238,-4.5544,-0.057369,-0.26729,2.2327,0.37252,0.055818,0.13902,0.036156,-2.594
-0.0067682,-0.0066074,0.03014,0.071009,-0.38264,-0.25183,-0.24426,-0.27126,0.44203,-0.28552,0.014451,1.5336,-1.4489,-0.058757,-0.40728,-4.8419,-0.051292,0.081454,2.3602,0.39705,0.042361,0.12367,0.12226,-1.8577
-0.0019,-0.00955,0.05284,0.072644,-0.2936,-0.11379,-0.42213,-0.26513,0.45815,-0.23353,-0.031579,1.7397,-1.5605,-0.055888,-0.40155,-5.0048,-0.050235,0.41852,2.4605,0.42513,0.031129,0.10463,0.13678,-1.3041
0.00047414,-0.011771,0.074666,0.070931,-0.18149,0.016378,-0.62045,-0.28201,0.4384,-0.17548,-0.073029,1.9114,-1.6382,-0.052333,-0.39491,-4.8822,-0.060222,0.69435,2.5348,0.43299,0.028729,0.079712,0.10079,-0.96943
-0.00085255,-0.01088,0.090838,0.067068,-0.06494,0.11378,-0.82931,-0.32241,0.39619,-0.12423,-0.11124,2.0776,-1.5228,-0.029908,-0.36212,-4.3792,-0.084496,0.85689,2.5894,0.40939,0.040722,0.051938,0.052844,-0.70823
-0.004936,-0.0065286,0.099476,0.06252,0.040411,0.16597,-1.0331,-0.3793,0.35099,-0.085969,-0.15347,2.2336,-1.1357,0.022203,-0.27413,-3.5169,-0.12132,0.89561,2.6333,0.35864,0.067486,0.02563,0.022904,-0.34438
-0.0096413,-0.0012442,0.10292,0.057932,0.12319,0.17347,-1.201,-0.44151,0.32049,-0.057668,-0.204,2.3587,-0.53768,0.094071,-0.12221,-2.4115,-0.16373,0.85142,2.6636,0.29406,0.10337,0.0026986,0.01545,0.17451
-0.013227,0.001315,0.1064,0.05333,0.1743,0.14442,-1.2897,-0.4969,0.31163,-0.032061,-0.25781,2.4456,0.10716,0.15975,0.075341,-1.2159,-0.20203,0.78276,2.6545,0.22999,0.13935,-0.017649,0.014555,0.74439
-0.015119,-0.00056833,0.11493,0.049112,0.18636,0.088307,-1.2636,-0.53512,0.31766,-0.0058035,-0.30197,2.5061,0.64068,0.19676,0.28744,-0.064401,-0.22838,0.71713,2.5681,0.17791,0.16725,-0.036622,0.0048428,1.204
-0.015484,-0.0050063,0.13036,0.046418,0.15694,0.012376,-1.1218,-0.55046,0.32479,0.016233,-0.32374,2.5478,1.0086,0.20346,0.49042,0.95806,-0.24094,0.63051,2.3791,0.14538,0.18298,-0.0542,-0.010239,1.464
-0.014523,-0.0079305,0.15032,0.046141,0.093154,-0.078187,-0.91145,-0.54444,0.32414,0.024094,-0.31905,2.5524,1.27,0.1991,0.67559,1.8255,-0.2452,0.47272,2.097,0.13469,0.18743,-0.069939,-0.0075288,1.5536
-0.012482,-0.0064763,0.16972,0.047465,0.01254,-0.17784,-0.71096,-0.52581,0.31933,0.01021,-0.29494,2.4872,1.5129,0.20657,0.84021,2.567,-0.25102,0.21631,1.7666,0.14049,0.18499,-0.084564,0.04025,1.5612
-0.010272,-0.0013232,0.18388,0.047632,-0.062154,-0.27806,-0.59047,-0.50637,0.32265,-0.025352,-0.26474,2.3439,1.7525,0.23284,0.9756,3.2451,-0.26745,-0.11393,1.4472,0.15028,0.18072,-0.099365,0.14602,1.546
-0.0095532,0.0040759,0.19148,0.043721,-0.11168,-0.36656,-0.57326,-0.49366,0.34243,-0.075636,-0.2407,2.1674,1.9047,0.26333,1.0679,3.912,-0.29808,-0.45574,1.1864,0.15045,0.17785,-0.1129,0.30012,1.5122
-0.011589,0.0065663,0.19528,0.035165,-0.12679,-0.4297,-0.62611,-0.48542,0.37181,-0.13138,-0.22936,2.0425,1.8629,0.27392,1.1124,4.5627,-0.33965,-0.75344,1.005,0.13531,0.17687,-0.11838,0.47481,1.4655
-0.015699,0.0058195,0.19996,0.024746,-0.10876,-0.45772,-0.68648,-0.47066,0.38882,-0.18426,-0.23157,2.0425,1.6128,0.2499,1.1256,5.1219,-0.38425,-0.99215,0.90043,0.11204,0.17663,-0.10566,0.63512,1.4772
-0.019059,0.0041859,0.20847,0.016785,-0.064904,-0.45018,-0.70749,-0.43783,0.36804,-0.22648,-0.24505,2.1826,1.2813,0.19617,1.1385,5.4873,-0.42333,-1.1941,0.85892,0.096016,0.17586,-0.068187,0.75022,1.6747
-0.018586,0.0043562,0.2196,0.013676,-0.0033868,-0.41764,-0.68804,-0.38435,0.29541,-0.24907,-0.26679,2.4129,1.0677,0.13217,1.1736,5.6067,-0.45154,-1.3853,0.8653,0.098935,0.17264,-0.0098537,0.80535,2.1442
-0.013565,0.0072078,0.22871,0.013571,0.069081,-0.37753,-0.6667,-0.31984,0.17645,-0.24346,-0.29458,2.6524,1.1039,0.077004,1.2249,5.5297,-0.46837,-1.5656,0.90333,0.11881,0.1614,0.054331,0.81479,2.8281
-0.0065675,0.011654,0.23136,0.011377,0.14632,-0.34568,-0.68675,-0.25985,0.03403,-0.20651,-0.32804,2.8305,1.3526,0.037057,1.2603,5.3844,-0.47704,-1.7095,0.95184,0.14028,0.13046,0.10558,0.82838,3.5174
-0.0015509,0.016161,0.22695,0.0026134,0.22077,-0.32906,-0.76121,-0.21481,-0.10045,-0.14475,-0.3689,2.9056,1.6272,0.0041344,1.248,5.2897,-0.48126,-1.7928,0.98525,0.14563,0.064826,0.13197,0.91859,3.9664
-0.00063633,0.020125,0.21935,-0.012781,0.28284,-0.32461,-0.86477,-0.1832,-0.19766,-0.072623,-0.41919,2.8601,1.7195,-0.036341,1.1845,5.2668,-0.48178,-1.8173,0.98172,0.12765,-0.044675,0.1347,1.1436,4.0513
-0.0024418,0.02387,0.21388,-0.029784,0.32219,-0.3244,-0.95546,-0.15454,-0.23993,-0.0049554,-0.47739,2.6911,1.5407,-0.094173,1.1012,5.221,-0.47499,-1.8118,0.93275,0.093854,-0.1915,0.12573,1.5044,3.8473
-0.0035112,0.027663,0.21292,-0.041579,0.33033,-0.32255,-1.0053,-0.11974,-0.22889,0.050736,-0.53516,2.4129,1.1727,-0.16754,1.0444,5.0068,-0.45495,-1.8099,0.84519,0.058896,-0.35126,0.11895,1.9275,3.5625
-0.0015126,0.031066,0.21387,-0.044494,0.30362,-0.31836,-1.0143,-0.07964,-0.18801,0.095387,-0.57848,2.0643,0.79886,-0.24359,1.0442,4.5265,-0.41787,-1.8274,0.73331,0.032132,-0.49114,0.1217,2.2965,3.3809
0.0027618,0.033308,0.21128,-0.040858,0.24537,-0.31406,-0.99964,-0.044995,-0.15514,0.13225,-0.59397,1.7005,0.56932,-0.30509,1.098,3.7862,-0.36594,-1.8589,0.60958,0.011437,-0.58464,0.13208,2.5165,3.3442
0.0063972,0.034072,0.20129,-0.037525,0.16615,-0.31084,-0.97444,-0.028424,-0.16437,0.15926,-0.57675,1.3698,0.50233,-0.3391,1.1765,2.8753,-0.30741,-1.8902,0.48577,-0.011502,-0.6205,0.1425,2.5692,3.3632
0.0073081,0.03374,0.18487,-0.040996,0.080912,-0.3077,-0.93708,-0.035675,-0.22626,0.16727,-0.53446,1.0921,0.48599,-0.34306,1.2444,1.901,-0.25252,-1.9121,0.38601,-0.039743,-0.59983,0.14562,2.5154,3.3373
0.0062882,0.032843,0.16716,-0.052735,0.0036308,-0.30462,-0.87945,-0.063281,-0.32062,0.14624,-0.48447,0.86111,0.37297,-0.32516,1.2763,0.93956,-0.20796,-1.9202,0.35822,-0.064681,-0.52692,0.13804,2.4449,3.2652
0.0062144,0.031449,0.15371,-0.068123,-0.058083,-0.30593,-0.80328,-0.10326,-0.41021,0.094395,-0.44629,0.6686,0.095409,-0.29848,1.2608,0.045148,-0.17399,-1.9052,0.46503,-0.071538,-0.40489,0.12029,2.4111,3.2434
0.0091772,0.029262,0.14664,-0.079796,-0.10531,-0.31958,-0.72664,-0.14944,-0.46728,0.02229,-0.43378,0.52506,-0.28168,-0.27243,1.1947,-0.70355,-0.1462,-1.8476,0.74978,-0.052755,-0.24138,0.094602,2.4017,3.3544
0.014244,0.026344,0.14376,-0.082836,-0.14574,-0.3513,-0.67266,-0.19972,-0.49346,-0.052064,-0.45075,0.45201,-0.60424,-0.24745,1.0804,-1.1765,-0.12008,-1.727,1.1976,-0.017557,-0.057044,0.062906,2.3609,3.5532
0.01797,0.023629,0.14081,-0.077988,-0.18873,-0.39839,-0.65051,-0.25352,-0.51627,-0.11373,-0.49093,0.45076,-0.73622,-0.21719,0.92779,-1.2291,-0.094564,-1.5387,1.7236,0.011532,0.11533,0.026228,2.239,3.6633
0.017262,0.022491,0.13469,-0.070693,-0.24088,-0.44899,-0.64612,-0.30875,-0.56476,-0.15914,-0.54106,0.47873,-0.65196,-0.17661,0.757,-0.7913,-0.071633,-1.303,2.2052,0.013635,0.24523,-0.014976,2.0266,3.4949
0.012099,0.023598,0.12499,-0.066895,-0.3043,-0.48857,-0.63177,-0.36243,-0.64358,-0.19608,-0.58576,0.46134,-0.44687,-0.12886,0.59381,0.055196,-0.053015,-1.0578,2.5421,-0.015491,0.32265,-0.060489,1.7506,2.9896
0.005733,0.026041,0.11327,-0.068874,-0.37769,-0.50951,-0.58725,-0.41476,-0.72723,-0.23614,-0.61294,0.33548,-0.25997,-0.083648,0.45857,1.0775,-0.037315,-0.83736,2.7019,-0.060211,0.36479,-0.11025,1.4453,2.2688
0.0021984,0.027644,0.10116,-0.074041,-0.45854,-0.5166,-0.51547,-0.47215,-0.77915,-0.28572,-0.61834,0.089207,-0.16776,-0.047304,0.35671,1.9869,-0.020453,-0.65527,2.7205,-0.095877,0.40547,-0.16391,1.1301,1.551
0.0032024,0.026392,0.089402,-0.07728,-0.54473,-0.524,-0.4405,-0.54516,-0.78,-0.34261,-0.60721,-0.23609,-0.13126,-0.013251,0.27873,2.5756,0.0011579,-0.50139,2.6601,-0.10502,0.47579,-0.21973,0.81199,1.0136
0.0069175,0.021928,0.078377,-0.074798,-0.63492,-0.54563,-0.38994,-0.64185,-0.7422,-0.39992,-0.59194,-0.58232,-0.036409,0.036323,0.20914,2.8063,0.027929,-0.35352,2.5589,-0.086666,0.59054,-0.27328,0.5053,0.71026
0.0095599,0.015928,0.069193,-0.066651,-0.72756,-0.58574,-0.37531,-0.76117,-0.70012,-0.4528,-0.58625,-0.91659,0.2054,0.11573,0.13638,2.795,0.057554,-0.19411,2.4123,-0.052944,0.74645,-0.31758,0.24339,0.59602
0.0083689,0.01097,0.063747,-0.056347,-0.81944,-0.63621,-0.3841,-0.89172,-0.68495,-0.50133,-0.59833,-1.2416,0.57815,0.21868,0.056144,2.702,0.088045,-0.02205,2.193,-0.017759,0.92619,-0.34534,0.069017,0.6112
0.0035786,0.0087118,0.063285,-0.048191,-0.90437,-0.68199,-0.38753,-1.0165,-0.70453,-0.54655,-0.62632,-1.5683,0.96651,0.31439,-0.032175,2.616,0.1201,0.1446,1.8862,0.012452,1.0995,-0.35265,0.0087256,0.73704
