-3.2798e-011,1.0939e-009,6.2452e-009,-7.1384e-011,-3.1081e-009,7.0806e-010,1.6997e-009,-1.2265e-008,2.6431e-010,8.7398e-010,4.5744e-009,2.51e-009,-6.1603e-009,5.2284e-010,4.9525e-009,1.9158e-009,6.5114e-009,2.8656e-008,1.2213e-009,1.364e-009,2.074e-009,1.3447e-009,6.2104e-009,2.4367e-009
-1.026e-009,3.0345e-008,1.7249e-007,-2.0807e-009,-8.5599e-008,1.9886e-008,4.6885e-008,-3.3889e-007,7.1342e-009,2.4047e-008,1.2653e-007,6.8856e-008,-1.6965e-007,1.4622e-008,1.3702e-007,5.2238e-008,1.793e-007,7.9093e-007,3.3076e-008,3.7666e-008,5.7092e-008,3.7275e-008,1.7162e-007,6.6702e-008
-1.5407e-008,4.0925e-007,2.3159e-006,-2.9704e-008,-1.1454e-006,2.7194e-007,6.2826e-007,-4.5519e-006,9.3318e-008,3.2163e-007,1.7016e-006,9.174e-007,-2.2705e-006,1.9865e-007,1.843e-006,6.9168e-007,2.3993e-006,1.0609e-005,4.3462e-007,5.0548e-007,7.6324e-007,5.0232e-007,2.3055e-006,8.864e-007
-1.4828e-007,3.5752e-006,2.0138e-005,-2.7682e-007,-9.9187e-006,2.4129e-006,5.4482e-006,-3.9593e-005,7.8771e-007,2.7861e-006,1.4822e-005,7.908e-006,-1.9675e-005,1.7464e-006,1.6057e-005,5.924e-006,2.0784e-005,9.2136e-005,3.6906e-006,4.3919e-006,6.6003e-006,4.3841e-006,2.0058e-005,7.6161e-006
-1.0293e-006,2.2738e-005,0.00012745,-1.8933e-006,-6.2469e-005,1.5618e-005,3.4359e-005,-0.00025066,4.82e-006,1.7569e-005,9.4003e-005,4.9561e-005,-0.00012406,1.1164e-005,0.00010185,3.6879e-005,0.00013099,0.00058219,2.2759e-005,2.7764e-005,4.1487e-005,2.7853e-005,0.000127,4.7537e-005
-5.497e-006,0.00011218,0.00062556,-1.0128e-005,-0.00030479,7.8608e-005,0.00016786,-0.0012305,2.2765e-005,8.5941e-005,0.00046247,0.00024056,-0.00060646,5.5288e-005,0.00050111,0.00017775,0.00063978,0.0028515,0.00010856,0.00013603,0.00020187,0.00013723,0.00062358,0.00022951
-2.351e-005,0.00044656,0.0024767,-4.4092e-005,-0.001198,0.00032017,0.00066061,-0.0048724,8.6255e-005,0.00033922,0.0018362,0.00094046,-0.0023906,0.00022058,0.0019895,0.0006897,0.0025188,0.011259,0.00041665,0.00053722,0.00079062,0.00054546,0.0024694,0.00089097
-8.2715e-005,0.0014728,0.0081213,-0.00016046,-0.0038932,0.0010843,0.0021495,-0.015978,0.00026893,0.0011095,0.0060413,0.0030396,-0.0078014,0.00072778,0.0065442,0.002211,0.0082044,0.036793,0.0013209,0.0017552,0.0025574,0.0017957,0.0080974,0.0028522
-0.00024389,0.0040989,0.022465,-0.00049752,-0.010649,0.0031126,0.0058866,-0.044192,0.00070192,0.0030637,0.016781,0.0082702,-0.021467,0.0020223,0.018169,0.0059602,0.022514,0.10132,0.0035237,0.0048301,0.0069531,0.0049875,0.022391,0.0076559
-0.00061025,0.0097525,0.053105,-0.0013325,-0.024815,0.0076823,0.013731,-0.10444,0.0015509,0.0072365,0.039879,0.01918,-0.050446,0.0047927,0.043138,0.013673,0.052697,0.23807,0.0080184,0.011331,0.016076,0.01184,0.052883,0.017408
-0.0013056,0.020012,0.10822,-0.0031139,-0.049632,0.016472,0.02748,-0.21271,0.0029193,0.014755,0.081827,0.038229,-0.10212,0.0097686,0.08838,0.026881,0.10605,0.48118,0.015727,0.022829,0.031828,0.024236,0.10758,0.033673
-0.0023944,0.035605,0.19112,-0.0063968,-0.085486,0.030915,0.047309,-0.37534,0.0046899,0.026124,0.14585,0.065793,-0.17895,0.017205,0.15715,0.045417,0.18421,0.84006,0.026825,0.039612,0.05409,0.043018,0.1894,0.055238
-0.0037477,0.05504,0.29307,-0.011612,-0.12662,0.051053,0.069857,-0.57485,0.0064077,0.040273,0.22654,0.097901,-0.27191,0.026212,0.24321,0.065773,0.27608,1.2666,0.040184,0.059042,0.07868,0.066382,0.28886,0.075719
-0.0049267,0.073831,0.38963,-0.018691,-0.16005,0.074416,0.087436,-0.76283,0.0073656,0.054058,0.30689,0.12572,-0.35741,0.034441,0.32763,0.08083,0.35484,1.6402,0.053649,0.07477,0.096973,0.089027,0.38035,0.083251
-0.0052048,0.085515,0.44653,-0.026738,-0.16955,0.095862,0.090018,-0.87191,0.0069635,0.062998,0.36208,0.1387,-0.40362,0.038717,0.38327,0.082323,0.38522,1.7983,0.065497,0.078256,0.09898,0.10347,0.42829,0.064456
-0.003814,0.084777,0.43633,-0.03405,-0.1447,0.10907,0.070074,-0.84905,0.0051689,0.063419,0.37132,0.13091,-0.38654,0.036702,0.38802,0.06568,0.34151,1.6175,0.07629,0.062895,0.079515,0.10375,0.40442,0.012378
-0.00035465,0.071187,0.35739,-0.038706,-0.08999,0.10939,0.027738,-0.69337,0.0027081,0.054958,0.33178,0.10671,-0.30753,0.028739,0.34024,0.034352,0.22704,1.103,0.089297,0.02883,0.043735,0.089683,0.30788,-0.065924
0.0048638,0.050724,0.24066,-0.039564,-0.026328,0.096375,-0.027766,-0.46948,0.00071755,0.041547,0.26427,0.080456,-0.19846,0.018404,0.26466,-0.00024147,0.079864,0.41925,0.10819,-0.01503,0.0069032,0.068183,0.1729,-0.14843
0.010795,0.033045,0.13489,-0.037087,0.018908,0.074379,-0.082681,-0.27748,1.4641e-005,0.029618,0.20332,0.068376,-0.10625,0.010859,0.20059,-0.02462,-0.044405,-0.18327,0.13311,-0.05426,-0.013689,0.049729,0.054,-0.20711
0.015997,0.025517,0.07681,-0.033307,0.028523,0.050269,-0.12698,-0.19276,0.0005552,0.024312,0.17597,0.077183,-0.064012,0.0096787,0.17748,-0.031764,-0.10481,-0.51266,0.15865,-0.07629,-0.010275,0.041454,-0.0053719,-0.22295
0.019126,0.028125,0.067363,-0.030695,0.0068868,0.029822,-0.1604,-0.21733,0.0015782,0.026278,0.18389,0.098263,-0.069016,0.014362,0.19491,-0.025928,-0.099983,-0.55231,0.17714,-0.077223,0.0091332,0.041954,0.00039821,-0.19706
0.019324,0.033486,0.073484,-0.03053,-0.023627,0.01514,-0.19129,-0.28255,0.0023492,0.031616,0.20353,0.11315,-0.085541,0.020563,0.22344,-0.019392,-0.065815,-0.45709,0.18616,-0.063181,0.025967,0.04233,0.037874,-0.14955
0.016407,0.032542,0.055775,-0.031902,-0.039483,0.0047511,-0.22906,-0.30415,0.0028281,0.035088,0.20513,0.10704,-0.072072,0.023174,0.22753,-0.023055,-0.046242,-0.42581,0.19466,-0.045173,0.024967,0.033273,0.061121,-0.10615
0.011037,0.021739,0.00030777,-0.032195,-0.033043,-0.0040979,-0.2762,-0.247,0.0036202,0.034005,0.17595,0.079838,-0.012091,0.020016,0.19277,-0.038157,-0.059978,-0.54945,0.22085,-0.031517,0.0059607,0.012699,0.045709,-0.082384
0.0048819,0.0058392,-0.071705,-0.028884,-0.01602,-0.013044,-0.32644,-0.14681,0.0052682,0.02959,0.12866,0.045375,0.075603,0.013309,0.13532,-0.055896,-0.090021,-0.75672,0.28089,-0.023651,-0.016462,-0.012493,0.0033778,-0.076746
0.00046411,-0.0060751,-0.12408,-0.02143,-0.0069406,-0.021867,-0.36967,-0.072438,0.0076113,0.024896,0.088414,0.019705,0.15378,0.0077106,0.08605,-0.065163,-0.10348,-0.89598,0.3757,-0.018032,-0.025481,-0.032101,-0.033037,-0.077024
0.00022616,-0.0081443,-0.13746,-0.011869,-0.014064,-0.029341,-0.39872,-0.063714,0.0098787,0.021516,0.070645,0.0084544,0.19484,0.0065334,0.063839,-0.061823,-0.083155,-0.87527,0.48679,-0.011584,-0.016222,-0.040837,-0.039619,-0.07287
0.0049525,-0.0024377,-0.12481,-0.0035911,-0.028657,-0.034216,-0.41179,-0.099671,0.011419,0.018312,0.06918,0.0040356,0.19634,0.0091249,0.061497,-0.051772,-0.042816,-0.73661,0.5862,-0.0054399,0.00066309,-0.041879,-0.020169,-0.063599
0.012618,0.003104,-0.11791,0.00087279,-0.03364,-0.035166,-0.40933,-0.12255,0.012309,0.013268,0.064368,-0.005751,0.17403,0.01149,0.055682,-0.045603,-0.013968,-0.6065,0.65425,-0.0038383,0.009009,-0.042768,0.000351,-0.055524
0.018996,0.0015552,-0.13853,0.0014595,-0.018616,-0.030156,-0.39014,-0.091887,0.013213,0.006402,0.042435,-0.02629,0.14357,0.0096376,0.030112,-0.049774,-0.017678,-0.57794,0.69129,-0.0097021,0.0017426,-0.047583,-0.0016402,-0.053003
0.020241,-0.0073073,-0.18087,0.00038511,0.012632,-0.016674,-0.35168,-0.018017,0.014666,0.00059452,0.0077521,-0.052271,0.11047,0.003055,-0.0099369,-0.061649,-0.047525,-0.63563,0.71397,-0.021253,-0.012789,-0.052592,-0.031926,-0.052504
0.015816,-0.017275,-0.21988,0.00030609,0.047913,0.0064614,-0.29517,0.053223,0.016518,-0.00071241,-0.022642,-0.073965,0.076751,-0.0043192,-0.044389,-0.071857,-0.07787,-0.68644,0.73886,-0.032676,-0.01803,-0.049256,-0.081625,-0.045174
0.0092937,-0.021371,-0.23593,0.0022391,0.078614,0.036942,-0.23036,0.085884,0.018061,0.0031722,-0.035943,-0.086749,0.054521,-0.0063919,-0.058415,-0.071233,-0.087891,-0.6559,0.7673,-0.037995,-0.0032625,-0.031778,-0.143,-0.025017
0.0059207,-0.01777,-0.23209,0.0048708,0.10578,0.068709,-0.17429,0.085143,0.018658,0.0090594,-0.035501,-0.09474,0.069712,0.0011249,-0.056036,-0.05652,-0.078612,-0.55549,0.78412,-0.034732,0.027721,-0.0024608,-0.21942,0.0052494
0.0085647,-0.010971,-0.22901,0.0058289,0.13513,0.094645,-0.14341,0.087376,0.018249,0.012097,-0.037097,-0.10582,0.14921,0.017824,-0.055078,-0.031159,-0.068661,-0.46224,0.77079,-0.024674,0.060107,0.02953,-0.31836,0.035971
0.015332,-0.0076104,-0.24416,0.0039222,0.16736,0.11067,-0.14418,0.12292,0.017349,0.0094037,-0.054092,-0.12358,0.30128,0.038725,-0.069673,-0.0019673,-0.075042,-0.43957,0.72071,-0.01186,0.079669,0.054375,-0.4347,0.058139
0.02101,-0.010871,-0.27574,0.0005133,0.19449,0.11793,-0.16924,0.18932,0.016636,0.0020301,-0.085867,-0.14395,0.50561,0.057225,-0.097766,0.024798,-0.097929,-0.48003,0.64335,2.8845e-005,0.082108,0.067126,-0.54225,0.069988
0.021245,-0.018269,-0.30569,-0.0011879,0.20658,0.12096,-0.20181,0.25891,0.016499,-0.0061743,-0.1198,-0.15892,0.7207,0.068803,-0.12494,0.045256,-0.12255,-0.52126,0.55405,0.009111,0.072982,0.068274,-0.60438,0.077233
0.015928,-0.024309,-0.3172,0.0015288,0.20221,0.12285,-0.22492,0.30958,0.016773,-0.011514,-0.14374,-0.16313,0.90179,0.072953,-0.13954,0.05752,-0.13407,-0.51212,0.46,0.015485,0.060015,0.060181,-0.5971,0.087373
0.0089197,-0.025259,-0.3094,0.0086933,0.19204,0.12138,-0.22907,0.34637,0.016726,-0.01276,-0.1566,-0.15701,1.0158,0.072248,-0.14371,0.060779,-0.13015,-0.46065,0.35588,0.020984,0.045825,0.043771,-0.52581,0.10335
0.0045453,-0.021871,-0.29626,0.017397,0.19106,0.10981,-0.21405,0.39345,0.015397,-0.011394,-0.16744,-0.14471,1.0461,0.069507,-0.15023,0.055144,-0.11992,-0.41903,0.23363,0.028783,0.02748,0.018817,-0.42193,0.1218
0.0040785,-0.018107,-0.29243,0.02374,0.2061,0.082348,-0.18526,0.46619,0.0123,-0.010183,-0.1851,-0.12981,0.99105,0.065336,-0.16928,0.042166,-0.11245,-0.42508,0.096849,0.042257,0.0022139,-0.013028,-0.32247,0.13668
0.0052573,-0.017534,-0.30053,0.02557,0.22988,0.040247,-0.14863,0.55214,0.0081224,-0.011381,-0.20893,-0.11336,0.86241,0.057849,-0.19864,0.02501,-0.10705,-0.45987,-0.033907,0.062878,-0.026978,-0.046257,-0.2488,0.14466
0.0048868,-0.020744,-0.31095,0.023956,0.24693,-0.0065856,-0.10792,0.61899,0.0047048,-0.01554,-0.22944,-0.095455,0.68617,0.044611,-0.22639,0.0076543,-0.094696,-0.46162,-0.13121,0.088339,-0.051482,-0.073187,-0.20062,0.1477
0.0018243,-0.025665,-0.31266,0.022374,0.24617,-0.044448,-0.065263,0.64146,0.003928,-0.021225,-0.2378,-0.077461,0.49874,0.025159,-0.24252,-0.0065549,-0.068218,-0.38021,-0.17864,0.11286,-0.062829,-0.088077,-0.167,0.15111
-0.0023761,-0.02984,-0.30338,0.024234,0.22903,-0.064028,-0.02307,0.6217,0.006122,-0.025678,-0.2347,-0.062307,0.33379,0.0021213,-0.2477,-0.015994,-0.030648,-0.22032,-0.18192,0.13022,-0.05885,-0.090046,-0.14261,0.15964
-0.0053729,-0.032274,-0.29007,0.030616,0.20633,-0.065961,0.015527,0.58554,0.009404,-0.026366,-0.23039,-0.052454,0.20475,-0.019887,-0.25119,-0.020759,0.0060345,-0.035242,-0.16485,0.13764,-0.044942,-0.082413,-0.1343,0.17496
-0.006314,-0.033462,-0.28083,0.039772,0.18764,-0.059707,0.048461,0.56009,0.010848,-0.022799,-0.23592,-0.048073,0.09695,-0.0368,-0.26098,-0.021701,0.030032,0.11866,-0.15389,0.1373,-0.02977,-0.069564,-0.15323,0.19635
-0.0062771,-0.034244,-0.27717,0.048567,0.17294,-0.056788,0.077322,0.55392,0.0087864,-0.017359,-0.2537,-0.047376,-0.020249,-0.047277,-0.27639,-0.019397,0.037936,0.22305,-0.16433,0.13405,-0.019426,-0.05454,-0.20067,0.2228
-0.0067761,-0.035039,-0.27387,0.054633,0.15394,-0.063517,0.10803,0.55595,0.0042988,-0.014103,-0.2757,-0.048585,-0.16686,-0.053028,-0.28985,-0.014053,0.035077,0.29952,-0.19784,0.13117,-0.014795,-0.039265,-0.26105,0.25371
-0.0081483,-0.036088,-0.26524,0.057674,0.12324,-0.078185,0.14812,0.55082,0.00043824,-0.01594,-0.29056,-0.051348,-0.331,-0.057141,-0.29536,-0.0064553,0.02888,0.37661,-0.25087,0.12775,-0.013462,-0.026268,-0.3087,0.28737
-0.0095036,-0.037901,-0.25073,0.059203,0.082624,-0.093746,0.20179,0.53424,-0.00028133,-0.022269,-0.29288,-0.056279,-0.47139,-0.061617,-0.29473,0.0010081,0.022102,0.45675,-0.32473,0.12008,-0.013507,-0.019187,-0.32304,0.31893
-0.0101,-0.040927,-0.23454,0.061231,0.04343,-0.10297,0.26642,0.51506,0.0020192,-0.029205,-0.28711,-0.06344,-0.54366,-0.065912,-0.29573,0.0046105,0.011816,0.51339,-0.4283,0.1056,-0.015442,-0.020849,-0.30018,0.3408
-0.010514,-0.04462,-0.22033,0.06505,0.018995,-0.10206,0.33338,0.50475,0.0047208,-0.032565,-0.28297,-0.071581,-0.53054,-0.067632,-0.30453,0.0012187,-0.0059892,0.5174,-0.57175,0.085916,-0.020951,-0.030629,-0.25235,0.34591
-0.012293,-0.047147,-0.20712,0.070849,0.016133,-0.090952,0.39341,0.50653,0.0048742,-0.031351,-0.28735,-0.078826,-0.45205,-0.064907,-0.31977,-0.0093634,-0.031196,0.46556,-0.75728,0.066076,-0.030249,-0.043885,-0.19719,0.33172
-0.0164,-0.046503,-0.19028,0.078017,0.032096,-0.071801,0.44251,0.51429,0.0014354,-0.028748,-0.29924,-0.083753,-0.34885,-0.058604,-0.33392,-0.023695,-0.058418,0.38459,-0.97355,0.050879,-0.040954,-0.054487,-0.14658,0.30136
-0.022019,-0.042277,-0.16643,0.085539,0.058031,-0.047689,0.48388,0.52049,-0.0042587,-0.029644,-0.31158,-0.085584,-0.25431,-0.052428,-0.3399,-0.03662,-0.080376,0.3093,-1.1968,0.041097,-0.049543,-0.058513,-0.10309,0.26127
-0.026893,-0.036329,-0.13688,0.092151,0.084624,-0.022511,0.52387,0.52345,-0.0098497,-0.03658,-0.31742,-0.083482,-0.17919,-0.050494,-0.33688,-0.044542,-0.092483,0.25644,-1.3973,0.032547,-0.053912,-0.056078,-0.064766,0.21739
-0.028901,-0.031508,-0.1066,0.096489,0.10535,-0.00076656,0.56526,0.52672,-0.013667,-0.047446,-0.31497,-0.076227,-0.1197,-0.054131,-0.3301,-0.047442,-0.095126,0.21707,-1.5481,0.018506,-0.054574,-0.050077,-0.031389,0.17323
-0.027474,-0.029431,-0.079909,0.097558,0.11656,0.013992,0.60345,0.5322,-0.015354,-0.056825,-0.3079,-0.063192,-0.077539,-0.060599,-0.3259,-0.047938,-0.092592,0.17151,-1.6338,-0.0063055,-0.053502,-0.043366,-0.0058232,0.13111
-0.023771,-0.029387,-0.057312,0.095372,0.11679,0.021567,0.6293,0.53505,-0.015334,-0.05993,-0.30172,-0.045857,-0.069916,-0.065144,-0.32654,-0.048233,-0.090051,0.11059,-1.6572,-0.042573,-0.051902,-0.037061,0.0101,0.094297
-0.019686,-0.029388,-0.036261,0.091134,0.10752,0.026072,0.63635,0.52628,-0.014119,-0.056076,-0.29977,-0.028111,-0.11841,-0.065065,-0.32944,-0.047698,-0.090619,0.043779,-1.6389,-0.085631,-0.049214,-0.031122,0.019858,0.067193
-0.016713,-0.028295,-0.014406,0.086571,0.094005,0.033605,0.62655,0.50066,-0.012293,-0.049128,-0.30195,-0.014355,-0.22627,-0.06251,-0.33031,-0.043301,-0.093775,-0.011244,-1.6082,-0.12732,-0.044366,-0.026115,0.031661,0.052771
-0.015479,-0.026846,0.0081834,0.0828,0.083858,0.047577,0.60934,0.46257,-0.010893,-0.04477,-0.30604,-0.0065222,-0.3655,-0.063481,-0.32685,-0.032626,-0.095567,-0.045629,-1.5873,-0.1595,-0.038064,-0.024049,0.053257,0.049487
-0.01595,-0.026539,0.02983,0.079712,0.082633,0.06529,0.59476,0.42451,-0.011372,-0.046815,-0.30972,-0.0023388,-0.48652,-0.07352,-0.31987,-0.017003,-0.09056,-0.066416,-1.5789,-0.17751,-0.033709,-0.027317,0.086949,0.050787
-0.017751,-0.027577,0.049724,0.076475,0.089509,0.07906,0.58665,0.40008,-0.01476,-0.055156,-0.31155,0.0035996,-0.54402,-0.093407,-0.31166,-0.0020836,-0.074957,-0.087632,-1.5658,-0.18167,-0.035587,-0.0366,0.12894,0.048049
-0.02024,-0.028126,0.069147,0.072716,0.097255,0.081736,0.58172,0.39752,-0.020726,-0.066493,-0.31067,0.016586,-0.51965,-0.11831,-0.30386,0.0048453,-0.049476,-0.11441,-1.5246,-0.17605,-0.045381,-0.049433,0.17239,0.034684
-0.022525,-0.025925,0.090287,0.069246,0.097468,0.072519,0.57516,0.41807,-0.02749,-0.076818,-0.30626,0.038756,-0.42695,-0.14104,-0.2969,-0.00089886,-0.02011,-0.13495,-1.4429,-0.16542,-0.059824,-0.060558,0.21026,0.0082294
-0.023788,-0.020795,0.11424,0.067599,0.087306,0.058224,0.56739,0.45819,-0.03287,-0.083679,-0.29749,0.068308,-0.29964,-0.1567,-0.29056,-0.018386,0.0042956,-0.12763,-1.3279,-0.15273,-0.071786,-0.064015,0.23559,-0.030645
-0.023833,-0.015484,0.14053,0.068745,0.072023,0.048477,0.56544,0.51192,-0.035645,-0.086844,-0.28391,0.10113,-0.17505,-0.16505,-0.28445,-0.041186,0.016736,-0.077113,-1.1994,-0.13893,-0.074573,-0.056068,0.24146,-0.080314
-0.023317,-0.013676,0.16843,0.072098,0.060895,0.048257,0.57748,0.5718,-0.036172,-0.087506,-0.26569,0.13312,-0.083079,-0.16908,-0.27736,-0.060466,0.01632,0.014,-1.0746,-0.1248,-0.066564,-0.037652,0.22397,-0.1388
-0.02324,-0.016761,0.19804,0.07564,0.059819,0.053462,0.60514,0.63015,-0.035902,-0.087121,-0.2435,0.16133,-0.04136,-0.1714,-0.26663,-0.069181,0.0092728,0.12676,-0.95797,-0.1124,-0.052686,-0.014981,0.18814,-0.2021
-0.023978,-0.022296,0.22946,0.076982,0.066921,0.052989,0.64067,0.68247,-0.036372,-0.08676,-0.21841,0.18357,-0.052273,-0.17173,-0.24888,-0.065029,0.0057094,0.23849,-0.84496,-0.10452,-0.041306,0.0026728,0.15088,-0.26233
-0.024747,-0.025714,0.26068,0.074522,0.074884,0.035946,0.67132,0.73068,-0.03849,-0.086935,-0.19201,0.19777,-0.10034,-0.16745,-0.2221,-0.050827,0.013916,0.33547,-0.73342,-0.10247,-0.038547,0.0076033,0.13523,-0.30884
-0.024144,-0.023879,0.28713,0.068017,0.077679,-0.0010701,0.68704,0.78179,-0.042395,-0.087402,-0.16662,0.20227,-0.15466,-0.15614,-0.18764,-0.032535,0.03556,0.41615,-0.63147,-0.10496,-0.04419,-0.0016972,0.15703,-0.33278
-0.021437,-0.017461,0.30424,0.058499,0.075411,-0.051522,0.68451,0.84019,-0.047573,-0.086859,-0.14507,0.19712,-0.1803,-0.13788,-0.15018,-0.016334,0.064721,0.48362,-0.55306,-0.11004,-0.05234,-0.019191,0.21329,-0.33253
-0.017449,-0.010196,0.31142,0.04782,0.07281,-0.10261,0.66479,0.89866,-0.052925,-0.083132,-0.12985,0.18484,-0.15518,-0.11542,-0.1155,-0.006317,0.091194,0.53507,-0.50534,-0.11898,-0.056439,-0.034928,0.28255,-0.31564
-0.014117,-0.0059161,0.31347,0.038001,0.072983,-0.14232,0.62782,0.93666,-0.056871,-0.074296,-0.12194,0.16927,-0.081942,-0.092522,-0.087678,-0.0035797,0.10589,0.55755,-0.47987,-0.13839,-0.054694,-0.04174,0.33873,-0.29501
-0.01294,-0.0059592,0.3175,0.030415,0.072615,-0.16535,0.57067,0.92988,-0.057744,-0.060202,-0.12004,0.15337,0.013429,-0.072114,-0.067646,-0.0065637,0.10501,0.53419,-0.45618,-0.17746,-0.051539,-0.040215,0.36882,-0.28159
-0.013686,-0.0088808,0.32744,0.025012,0.063546,-0.17452,0.49229,0.86566,-0.054451,-0.043015,-0.12073,0.13759,0.094888,-0.055657,-0.05385,-0.012029,0.090723,0.45691,-0.41486,-0.24074,-0.053894,-0.037912,0.38034,-0.27858
-0.014568,-0.012129,0.341,0.020125,0.039546,-0.17772,0.40055,0.75273,-0.04701,-0.025982,-0.11938,0.1207,0.13193,-0.043683,-0.043852,-0.01621,0.068759,0.33654,-0.34891,-0.3215,-0.065263,-0.04302,0.39276,-0.28149
-0.013846,-0.01386,0.35184,0.013306,0.0020188,-0.18285,0.31346,0.61716,-0.036627,-0.011227,-0.11147,0.10235,0.10824,-0.036407,-0.035479,-0.016079,0.044837,0.2022,-0.26381,-0.40132,-0.082479,-0.057156,0.41979,-0.28416
-0.011424,-0.013528,0.35519,0.0029249,-0.040865,-0.19413,0.25097,0.48695,-0.025377,0.0014471,-0.093959,0.085318,0.021759,-0.033597,-0.027019,-0.010598,0.022329,0.088498,-0.16725,-0.45764,-0.097634,-0.072943,0.45676,-0.28638
-0.0089537,-0.011379,0.352,-0.010546,-0.080909,-0.2115,0.22206,0.37662,-0.015698,0.013563,-0.066222,0.075201,-0.11904,-0.034006,-0.01707,-0.0014109,0.0018754,0.016803,-0.058471,-0.47526,-0.1034,-0.078414,0.48289,-0.29707
-0.0082773,-0.0078899,0.34791,-0.024635,-0.1162,-0.2322,0.21754,0.28242,-0.0098046,0.025687,-0.030178,0.077659,-0.29806,-0.035346,-0.0047081,0.0078491,-0.017689,-0.017561,0.073162,-0.4542,-0.097434,-0.065072,0.47596,-0.33016
-0.0096359,-0.0037255,0.34807,-0.036473,-0.15102,-0.25258,0.21507,0.19046,-0.0088924,0.036186,0.010698,0.094828,-0.49375,-0.035367,0.010123,0.013837,-0.03809,-0.042766,0.23874,-0.40858,-0.082774,-0.033787,0.42785,-0.39506
-0.01134,0.0001565,0.3525,-0.044775,-0.18946,-0.26845,0.19355,0.089931,-0.012343,0.042441,0.053115,0.12311,-0.68349,-0.033416,0.02672,0.016178,-0.060514,-0.091978,0.43719,-0.3574,-0.06483,0.0054538,0.34984,-0.48788
-0.011262,0.0028538,0.35602,-0.050695,-0.22914,-0.27475,0.14585,-0.018668,-0.017579,0.043504,0.095353,0.1534,-0.85015,-0.031104,0.044448,0.01845,-0.084651,-0.17976,0.64923,-0.31391,-0.048073,0.039346,0.26537,-0.58922
-0.0087975,0.0042387,0.35264,-0.056858,-0.26103,-0.26626,0.080509,-0.12527,-0.021184,0.041551,0.13711,0.17367,-0.98658,-0.031231,0.063558,0.026059,-0.10817,-0.28953,0.84246,-0.2811,-0.034935,0.058465,0.19694,-0.67098
-0.0054444,0.0052785,0.34045,-0.06536,-0.27605,-0.24027,0.012109,-0.21861,-0.020989,0.04048,0.17779,0.1731,-1.0932,-0.035428,0.084986,0.041894,-0.12723,-0.38215,0.98444,-0.25522,-0.026633,0.0614,0.15621,-0.70907
-0.0034499,0.007394,0.32284,-0.076254,-0.27214,-0.19947,-0.050519,-0.29378,-0.017737,0.042684,0.21475,0.1464,-1.1693,-0.042056,0.10913,0.062913,-0.13825,-0.42101,1.0564,-0.23308,-0.023865,0.054037,0.14213,-0.69476
-0.0037553,0.011231,0.30535,-0.087652,-0.25565,-0.15207,-0.1083,-0.35368,-0.014831,0.046933,0.24358,0.096714,-1.2054,-0.045804,0.13489,0.080886,-0.14004,-0.39642,1.0605,-0.21585,-0.026071,0.045261,0.14549,-0.63841
-0.005131,0.015906,0.2912,-0.097206,-0.23617,-0.10808,-0.16595,-0.40488,-0.016001,0.04942,0.26104,0.034843,-1.1834,-0.039412,0.16031,0.087807,-0.13452,-0.33182,1.0186,-0.20623,-0.030226,0.041981,0.15527,-0.56298
-0.0052627,0.019458,0.2794,-0.10375,-0.22039,-0.074077,-0.22312,-0.45232,-0.022465,0.047161,0.26847,-0.025724,-1.0846,-0.016663,0.18473,0.082659,-0.12546,-0.26756,0.96211,-0.20208,-0.031247,0.046051,0.16292,-0.4915
-0.0027598,0.020177,0.26662,-0.10789,-0.21052,-0.050628,-0.27184,-0.4969,-0.031822,0.040748,0.27267,-0.076079,-0.90189,0.024727,0.2104,0.074337,-0.11592,-0.23474,0.9179,-0.19345,-0.024728,0.054221,0.1641,-0.43585
0.0017173,0.017748,0.25072,-0.11132,-0.20745,-0.034575,-0.30312,-0.53693,-0.039643,0.033987,0.28247,-0.11715,-0.64581,0.081613,0.24137,0.077532,-0.1067,-0.2386,0.89483,-0.16724,-0.01021,0.060704,0.15848,-0.39374
0.0061134,0.01335,0.23244,-0.11544,-0.21352,-0.023776,-0.31627,-0.57101,-0.042536,0.030758,0.30299,-0.15925,-0.34248,0.146,0.27994,0.10336,-0.097143,-0.26216,0.8786,-0.11662,0.0078127,0.060749,0.14876,-0.35491
0.0086883,0.0088154,0.21412,-0.12036,-0.23043,-0.019432,-0.32178,-0.59987,-0.040254,0.031895,0.33163,-0.2158,-0.025524,0.20771,0.3234,0.15092,-0.087417,-0.28487,0.83882,-0.047645,0.022356,0.053145,0.13899,-0.31199
0.0092406,0.005637,0.19708,-0.12477,-0.25399,-0.023439,-0.33461,-0.62609,-0.035227,0.034814,0.35923,-0.29513,0.2738,0.25821,0.36441,0.20601,-0.080168,-0.29967,0.74687,0.023044,0.028143,0.04021,0.13279,-0.26825
0.0089375,0.0045204,0.1805,-0.12682,-0.27219,-0.033466,-0.36331,-0.65264,-0.03017,0.036133,0.3758,-0.39517,0.53442,0.29406,0.39547,0.24877,-0.079618,-0.31544,0.59504,0.078643,0.024367,0.025404,0.13207,-0.23703
0.0091514,0.0055056,0.16291,-0.12518,-0.27109,-0.041485,-0.40446,-0.68148,-0.025983,0.03486,0.37674,-0.50383,0.74829,0.31771,0.41432,0.26518,-0.088562,-0.34529,0.40503,0.11312,0.014136,0.010512,0.13681,-0.23284
0.010411,0.0081953,0.14465,-0.12003,-0.24517,-0.038721,-0.44693,-0.71291,-0.02169,0.033342,0.36529,-0.60356,0.91577,0.33472,0.42537,0.25457,-0.10552,-0.3927,0.2189,0.13461,0.0015637,-0.0051812,0.14547,-0.25993
0.012199,0.011767,0.12823,-0.11318,-0.20324,-0.023622,-0.4815,-0.74549,-0.016147,0.03518,0.34982,-0.67732,1.0342,0.3486,0.43554,0.22786,-0.12437,-0.44772,0.077505,0.15896,-0.010727,-0.022798,0.15482,-0.30592
0.013491,0.014934,0.11603,-0.1073,-0.16366,-0.0054403,-0.50717,-0.77624,-0.0096348,0.041971,0.33831,-0.71347,1.0873,0.35665,0.44773,0.19845,-0.137,-0.49527,0.00040209,0.19854,-0.021741,-0.040544,0.15938,-0.34534
0.013473,0.016249,0.10708,-0.10467,-0.14157,0.0010931,-0.52862,-0.8014,-0.0037934,0.05169,0.3341,-0.70918,1.0477,0.35053,0.45755,0.17329,-0.13739,-0.52659,-0.019735,0.25459,-0.030463,-0.052457,0.15167,-0.35143
0.012063,0.014808,0.096461,-0.10598,-0.13865,-0.013133,-0.54827,-0.81809,-8.9056e-005,0.060069,0.33523,-0.67192,0.89763,0.32189,0.4566,0.15091,-0.12454,-0.54318,-0.0060621,0.31791,-0.034751,-0.051333,0.12522,-0.30893
0.010099,0.010916,0.07848,-0.11002,-0.14384,-0.043608,-0.56123,-0.82646,0.0015266,0.063808,0.33698,-0.61799,0.65761,0.26966,0.43967,0.12697,-0.10283,-0.55053,0.02006,0.37609,-0.032471,-0.034507,0.079854,-0.21952
0.009079,0.0060925,0.051314,-0.11419,-0.14434,-0.074345,-0.55862,-0.8309,0.0024333,0.062952,0.33523,-0.56707,0.39608,0.20318,0.40982,0.10122,-0.079712,-0.5491,0.049564,0.42144,-0.024087,-0.0080922,0.025531,-0.096591
0.010323,0.002244,0.019133,-0.11574,-0.13712,-0.089016,-0.53658,-0.83873,0.0038717,0.060533,0.32857,-0.53378,0.20322,0.13823,0.37673,0.078799,-0.062314,-0.53241,0.0831,0.45398,-0.014056,0.014503,-0.019503,0.045465
0.013836,0.00049617,-0.010413,-0.11278,-0.13125,-0.082419,-0.50222,-0.85608,0.0056469,0.059793,0.31856,-0.52055,0.13786,0.088321,0.34978,0.064613,-0.054726,-0.49475,0.12115,0.47904,-0.0089656,0.020037,-0.037487,0.19817
0.017741,0.00051238,-0.031465,-0.10506,-0.1397,-0.063302,-0.46996,-0.88352,0.0061927,0.061263,0.30856,-0.51652,0.1855,0.057485,0.33172,0.056486,-0.056945,-0.44131,0.15796,0.50243,-0.013144,0.0042429,-0.022397,0.35653
0.019176,0.00084202,-0.043691,-0.094085,-0.16834,-0.046786,-0.4505,-0.91469,0.0038478,0.06205,0.30199,-0.50412,0.26447,0.039855,0.31814,0.044558,-0.065491,-0.38986,0.18509,0.52704,-0.024931,-0.024406,0.013915,0.51134
0.016423,8.2525e-005,-0.051525,-0.082799,-0.21169,-0.042877,-0.44149,-0.93991,-0.0018138,0.057865,0.3008,-0.46962,0.28288,0.025841,0.30258,0.01878,-0.074917,-0.36016,0.19985,0.55198,-0.036837,-0.049223,0.045908,0.6466
0.010718,-0.002012,-0.0599,-0.074479,-0.25787,-0.050035,-0.42861,-0.95243,-0.0096145,0.046155,0.30439,-0.41092,0.20629,0.0095865,0.28235,-0.021575,-0.079431,-0.35867,0.2091,0.57352,-0.040008,-0.055378,0.047296,0.74763
0.0058923,-0.0043767,-0.070319,-0.071252,-0.29736,-0.05783,-0.39675,-0.95259,-0.017452,0.027897,0.30968,-0.33727,0.083352,-0.0080979,0.2601,-0.065251,-0.074255,-0.37139,0.22321,0.58637,-0.030061,-0.038629,0.0050813,0.81418
0.0056513,-0.0056299,-0.080532,-0.072877,-0.32777,-0.055315,-0.3423,-0.94603,-0.02337,0.0068006,0.31239,-0.26138,0.0075035,-0.022753,0.24049,-0.096626,-0.056727,-0.372,0.24528,0.58539,-0.010108,-0.0069281,-0.073842,0.86476
0.010462,-0.0054271,-0.087687,-0.076738,-0.35148,-0.03822,-0.27646,-0.93712,-0.026333,-0.01321,0.30901,-0.18986,0.044644,-0.031571,0.22582,-0.108,-0.027133,-0.34011,0.26589,0.56813,0.011251,0.02558,-0.16696,0.92433
0.016789,-0.004953,-0.091842,-0.079327,-0.37025,-0.010569,-0.21692,-0.92316,-0.026364,-0.030085,0.29845,-0.11899,0.184,-0.035944,0.21446,-0.1063,0.011001,-0.27574,0.26918,0.53741,0.025527,0.04729,-0.24786,1.0027
0.019664,-0.0059495,-0.096676,-0.078315,-0.38251,0.018524,-0.1752,-0.89469,-0.024106,-0.043763,0.28231,-0.038843,0.35007,-0.039441,0.20312,-0.10831,0.051559,-0.1992,0.24568,0.50165,0.029495,0.054501,-0.29805,1.0818
0.01667,-0.0090077,-0.10685,-0.07377,-0.38534,0.039268,-0.15026,-0.84198,-0.020058,-0.054522,0.2638,0.057482,0.4631,-0.043902,0.19005,-0.12793,0.087477,-0.13692,0.20125,0.4717,0.026414,0.050666,-0.31291,1.1251
0.0099524,-0.012711,-0.12432,-0.06763,-0.37804,0.044281,-0.13312,-0.76259,-0.013979,-0.06131,0.24587,0.16639,0.49729,-0.047735,0.17608,-0.1657,0.11288,-0.10427,0.15427,0.45542,0.022842,0.041629,-0.3003,1.103
0.0043863,-0.014654,-0.14652,-0.061941,-0.36278,0.03034,-0.11766,-0.66383,-0.0049964,-0.061642,0.22985,0.27363,0.49097,-0.047946,0.16311,-0.20885,0.12484,-0.09788,0.12376,0.45412,0.023758,0.031304,-0.27427,1.0162
0.0033916,-0.01364,-0.16769,-0.057331,-0.3414,-0.0003811,-0.10749,-0.55888,0.0074486,-0.053288,0.21518,0.36149,0.50477,-0.043523,0.1517,-0.24128,0.12395,-0.10106,0.11789,0.46361,0.029591,0.020754,-0.24803,0.8964
0.0060791,-0.011046,-0.18234,-0.052871,-0.31207,-0.040111,-0.11245,-0.46039,0.022443,-0.036442,0.20018,0.41844,0.56583,-0.036577,0.14028,-0.25499,0.11369,-0.096709,0.1315,0.47872,0.036935,0.010112,-0.22907,0.78556
0.0083222,-0.0098533,-0.18821,-0.047247,-0.26981,-0.07778,-0.13754,-0.37696,0.037393,-0.014654,0.18302,0.44441,0.64432,-0.03008,0.12626,-0.25401,0.098727,-0.077666,0.15332,0.49681,0.04181,0.00051287,-0.21773,0.71084
0.00682,-0.011972,-0.18716,-0.040124,-0.21136,-0.10381,-0.17391,-0.31374,0.049355,0.0062962,0.16255,0.44875,0.67865,-0.024605,0.10791,-0.24852,0.083096,-0.048517,0.17558,0.51633,0.042722,-0.0061213,-0.20907,0.67388
0.0024169,-0.016255,-0.18368,-0.032574,-0.14045,-0.11458,-0.20032,-0.27409,0.057139,0.021012,0.13871,0.44263,0.62515,-0.017586,0.085551,-0.24489,0.06891,-0.019899,0.19883,0.53188,0.041367,-0.0089898,-0.19686,0.6603
-0.0004657,-0.019222,-0.18209,-0.026344,-0.068329,-0.1131,-0.19528,-0.25891,0.062396,0.027046,0.11278,0.4319,0.49072,-0.0060661,0.061708,-0.24004,0.056315,-0.00046758,0.22956,0.53143,0.040932,-0.009667,-0.1777,0.65757
0.0021209,-0.018031,-0.18425,-0.02269,-0.0083277,-0.105,-0.15129,-0.26407,0.068424,0.025935,0.087522,0.41569,0.32427,0.0096712,0.040507,-0.22418,0.044622,0.0083584,0.2746,0.50049,0.043645,-0.010999,-0.15325,0.66434
0.0098121,-0.01307,-0.18901,-0.021659,0.031697,-0.09347,-0.080626,-0.27975,0.077337,0.022074,0.066685,0.39138,0.17859,0.025341,0.02666,-0.18939,0.033927,0.01267,0.33717,0.43173,0.049389,-0.014443,-0.12929,0.68515
0.017915,-0.0076864,-0.19351,-0.022245,0.053133,-0.077481,-0.0084773,-0.29487,0.087845,0.019979,0.053724,0.36182,0.076402,0.035869,0.024035,-0.13678,0.026123,0.021956,0.41621,0.33254,0.056011,-0.018525,-0.11212,0.71835
0.021374,-0.0052361,-0.19556,-0.023119,0.063276,-0.055062,0.041587,-0.30465,0.095652,0.021447,0.049954,0.33816,0.0068213,0.039794,0.034037,-0.077265,0.024564,0.043085,0.50728,0.22325,0.060634,-0.020274,-0.10463,0.7509
0.01917,-0.0061331,-0.19537,-0.023376,0.067215,-0.028005,0.059381,-0.31544,0.096367,0.024343,0.053217,0.33518,-0.050551,0.040602,0.054635,-0.025536,0.032507,0.075777,0.60248,0.12611,0.060884,-0.01864,-0.10464,0.76545
0.015099,-0.0076671,-0.19543,-0.022902,0.061357,-0.0030349,0.049736,-0.34196,0.088634,0.023948,0.058165,0.36153,-0.099943,0.043364,0.080912,0.0079916,0.051279,0.11259,0.69029,0.053028,0.055501,-0.016579,-0.10658,0.75255
0.014135,-0.0067682,-0.19849,-0.022267,0.034349,0.012352,0.024952,-0.39766,0.074981,0.016212,0.058414,0.41199,-0.12636,0.049377,0.10711,0.021785,0.079228,0.14397,0.75727,0.0014705,0.044572,-0.019293,-0.10571,0.71621
0.01764,-0.0031166,-0.20513,-0.022258,-0.024137,0.015957,-0.0044426,-0.48492,0.059812,0.00079275,0.049443,0.46766,-0.11577,0.053712,0.12886,0.021753,0.11198,0.16512,0.79304,-0.038992,0.029763,-0.029515,-0.10199,0.668
0.021858,0.00036808,-0.21285,-0.023242,-0.11249,0.013304,-0.033637,-0.59232,0.046342,-0.018386,0.030453,0.50482,-0.076667,0.048363,0.14402,0.015526,0.14375,0.17926,0.79587,-0.076113,0.014438,-0.043815,-0.10094,0.61623
0.021211,0.00021084,-0.21748,-0.024693,-0.21238,0.013933,-0.06152,-0.70102,0.034976,-0.03568,0.0040003,0.50709,-0.040304,0.028856,0.15166,0.0069543,0.1691,0.19397,0.77481,-0.10966,0.0030473,-0.053582,-0.11075,0.56036
0.013525,-0.004164,-0.21612,-0.025253,-0.29475,0.02442,-0.08779,-0.79563,0.024161,-0.047618,-0.026143,0.47353,-0.03769,-0.0010918,0.15047,-0.0052428,0.18441,0.21317,0.74605,-0.135,-0.00053737,-0.050618,-0.13668,0.49433
0.0024708,-0.0093883,-0.20922,-0.023523,-0.33407,0.043665,-0.11382,-0.87163,0.012563,-0.055139,-0.057216,0.41812,-0.074002,-0.030988,0.13859,-0.023993,0.18867,0.23168,0.72582,-0.15067,0.0048653,-0.033225,-0.17655,0.41268
-0.0050664,-0.010609,-0.20026,-0.019227,-0.32179,0.06383,-0.146,-0.93429,0.00053599,-0.06241,-0.08818,0.36156,-0.12384,-0.050279,0.11541,-0.048544,0.18347,0.23825,0.7244,-0.16178,0.016656,-0.0079431,-0.22,0.31126
-0.004407,-0.0054728,-0.19346,-0.013881,-0.27033,0.075563,-0.19571,-0.99054,-0.010181,-0.073186,-0.11875,0.32063,-0.15193,-0.0551,0.084059,-0.071831,0.17226,0.2257,0.74459,-0.17608,0.029533,0.014641,-0.25298,0.18256
0.0034191,0.0036926,-0.19117,-0.010159,-0.20452,0.073171,-0.27213,-1.0406,-0.017881,-0.087725,-0.148,0.30087,-0.14076,-0.049738,0.051931,-0.083204,0.15925,0.20001,0.78404,-0.19709,0.038437,0.026882,-0.26499,0.014433
0.012958,0.011346,-0.19284,-0.010063,-0.14666,0.056436,-0.37189,-1.0761,-0.021977,-0.10268,-0.17394,0.29571,-0.1011,-0.04186,0.027897,-0.075176,0.14829,0.18041,0.83787,-0.22178,0.04148,0.028565,-0.25498,-0.20012
0.018914,0.012706,-0.19591,-0.013097,-0.10539,0.029053,-0.47527,-1.086,-0.022923,-0.11377,-0.19447,0.29141,-0.057535,-0.035825,0.017461,-0.049496,0.14199,0.18906,0.89959,-0.24493,0.040748,0.025641,-0.23198,-0.44626
0.019796,0.0071342,-0.19754,-0.016079,-0.075594,-0.0039631,-0.55508,-1.0665,-0.021393,-0.11884,-0.20839,0.27479,-0.024363,-0.029812,0.019357,-0.017878,0.14098,0.23791,0.96084,-0.26571,0.04033,0.024579,-0.20998,-0.67921
0.017685,-0.0015947,-0.196,-0.015178,-0.048172,-0.037891,-0.59406,-1.0265,-0.017674,-0.11881,-0.21569,0.23999,0.0050449,-0.018924,0.026444,0.0037531,0.14346,0.32202,1.0124,-0.28907,0.043153,0.027048,-0.20018,-0.83797
0.015091,-0.0081131,-0.1911,-0.0089341,-0.0211,-0.068845,-0.5977,-0.98363,-0.011774,-0.11628,-0.21667,0.19146,0.045728,-0.0010702,0.030705,0.0041674,0.1453,0.42342,1.047,-0.32019,0.049113,0.029157,-0.20536,-0.87675
0.01241,-0.0090824,-0.18387,0.00017273,-0.0027306,-0.094289,-0.59146,-0.95392,-0.0038936,-0.11332,-0.21144,0.14185,0.09851,0.019942,0.028812,-0.016687,0.14122,0.52135,1.0611,-0.35723,0.055916,0.025556,-0.21949,-0.79338
0.008425,-0.0049855,-0.17602,0.0072658,-0.0052377,-0.11398,-0.60302,-0.94135,0.0053573,-0.11054,-0.20077,0.10578,0.14025,0.036866,0.023968,-0.047655,0.12728,0.60116,1.0537,-0.38975,0.061637,0.014687,-0.23216,-0.63263
0.0028661,0.00084568,-0.16921,0.0089413,-0.034379,-0.1305,-0.64232,-0.93626,0.015161,-0.10755,-0.18777,0.092093,0.13837,0.044657,0.022476,-0.072896,0.1035,0.65732,1.0233,-0.40525,0.066608,0.00070578,-0.23439,-0.46075
-0.0021165,0.0047869,-0.16435,0.0064807,-0.084472,-0.14814,-0.69448,-0.92364,0.024737,-0.10408,-0.17863,0.098747,0.078375,0.044155,0.027677,-0.081364,0.074919,0.69167,0.96629,-0.39822,0.072963,-0.0094024,-0.22227,-0.32934
-0.0034523,0.0050353,-0.16092,0.0055448,-0.14254,-0.17031,-0.73052,-0.89515,0.033301,-0.10032,-0.18062,0.11353,-0.019181,0.0407,0.036203,-0.074019,0.049407,0.71046,0.88077,-0.37387,0.082464,-0.010831,-0.1968,-0.25435
-0.00025012,0.0020843,-0.15708,0.012151,-0.19748,-0.19684,-0.72743,-0.85576,0.039934,-0.096544,-0.19808,0.12034,-0.10753,0.039307,0.039764,-0.064533,0.033135,0.7222,0.77235,-0.3435,0.094722,-0.0038213,-0.16138,-0.22208
0.0047532,-0.0021639,-0.15049,0.027879,-0.24627,-0.22345,-0.68231,-0.81978,0.043842,-0.092343,-0.22896,0.10728,-0.14131,0.040908,0.031203,-0.07213,0.026525,0.73567,0.65619,-0.31601,0.10741,0.0076488,-0.11939,-0.21231
0.0071628,-0.0056023,-0.13941,0.048146,-0.29265,-0.24383,-0.6112,-0.79954,0.045091,-0.086226,-0.26496,0.071455,-0.1009,0.042683,0.010015,-0.10937,0.024088,0.75691,0.5503,-0.2926,0.11799,0.019567,-0.073594,-0.21739
0.0047117,-0.0067247,-0.12356,0.065069,-0.34079,-0.25342,-0.53527,-0.79583,0.045186,-0.075762,-0.29563,0.01801,0.0038436,0.041505,-0.01712,-0.1716,0.018926,0.78657,0.4635,-0.26843,0.12506,0.030312,-0.027281,-0.24365
-0.00065097,-0.0050171,-0.10413,0.072791,-0.39066,-0.25228,-0.46627,-0.79761,0.046734,-0.058222,-0.31385,-0.044397,0.14893,0.036856,-0.041157,-0.23541,0.0089084,0.81986,0.3879,-0.23797,0.12824,0.039924,0.014649,-0.29874
-0.0044087,-0.0011286,-0.083369,0.071164,-0.43871,-0.2453,-0.4023,-0.7909,0.052127,-0.031696,-0.31887,-0.1073,0.3135,0.030634,-0.056911,-0.26946,-0.00039784,0.84963,0.3037,-0.19867,0.12699,0.047745,0.046195,-0.37983
-0.0034443,0.0033006,-0.064,0.065112,-0.48187,-0.23926,-0.33559,-0.76946,0.062132,0.0035965,-0.3152,-0.16274,0.48346,0.02465,-0.065776,-0.2523,0.0011231,0.86995,0.1945,-0.15035,0.12029,0.051548,0.062509,-0.47329
0.0012461,0.0064256,-0.048431,0.060516,-0.5196,-0.23871,-0.26441,-0.73876,0.07543,0.044497,-0.30889,-0.20202,0.64181,0.018711,-0.073228,-0.1859,0.020736,0.87675,0.061677,-0.092934,0.10767,0.049488,0.062465,-0.56399
0.0054956,0.0073735,-0.037836,0.060064,-0.55141,-0.24317,-0.1987,-0.71011,0.089312,0.085334,-0.30414,-0.21681,0.76041,0.011229,-0.083727,-0.09467,0.056678,0.86545,-0.07393,-0.026236,0.090793,0.042887,0.049619,-0.64342
0.0056353,0.0069251,-0.031367,0.062161,-0.57312,-0.24776,-0.15497,-0.69027,0.10072,0.11966,-0.30233,-0.2039,0.8063,0.0013825,-0.097521,-0.010264,0.098033,0.82884,-0.18461,0.047296,0.073572,0.036609,0.030703,-0.7092
0.0015839,0.0069063,-0.026323,0.063243,-0.57694,-0.24717,-0.14524,-0.67513,0.10682,0.1423,-0.30275,-0.16995,0.7612,-0.0097256,-0.11174,0.047028,0.13093,0.75913,-0.25268,0.12029,0.060221,0.035869,0.01252,-0.75763
-0.0032658,0.0085742,-0.01968,0.061122,-0.55714,-0.24007,-0.16932,-0.65249,0.10513,0.15061,-0.30338,-0.13032,0.63808,-0.020317,-0.12423,0.076164,0.1465,0.6538,-0.27825,0.18211,0.052542,0.041898,-0.00077154,-0.77838
-0.0050437,0.011386,-0.010163,0.056618,-0.51672,-0.23099,-0.21604,-0.61139,0.093966,0.14451,-0.30099,-0.10033,0.47909,-0.030287,-0.1364,0.08748,0.14478,0.52007,-0.27282,0.22425,0.048705,0.05033,-0.0082836,-0.75759
-0.002533,0.013414,0.00091861,0.052555,-0.46873,-0.22773,-0.27145,-0.55025,0.0737,0.12619,-0.29141,-0.083966,0.33372,-0.042028,-0.15244,0.087039,0.13219,0.37302,-0.24606,0.24529,0.044681,0.054091,-0.010827,-0.68759
0.0021467,0.013189,0.011136,0.051447,-0.42978,-0.23605,-0.32642,-0.4773,0.047725,0.099996,-0.27125,-0.069143,0.23234,-0.058514,-0.17578,0.067278,0.11498,0.22736,-0.19843,0.25102,0.037321,0.04865,-0.0086245,-0.5753
0.0055436,0.011265,0.019725,0.053944,-0.41027,-0.25533,-0.37777,-0.40412,0.021868,0.07243,-0.24033,-0.034528,0.17354,-0.080186,-0.20593,0.011774,0.0943,0.088849,-0.12606,0.24965,0.026722,0.035462,-0.00032052,-0.44216
0.0055789,0.0099267,0.029042,0.05896,-0.40898,-0.27813,-0.42406,-0.33835,0.0018028,0.050887,-0.20277,0.035534,0.13224,-0.10348,-0.23833,-0.090705,0.066413,-0.047039,-0.032425,0.24631,0.016075,0.020861,0.015855,-0.31553
0.0027306,0.011201,0.042873,0.064839,-0.41614,-0.29391,-0.46164,-0.28205,-0.0099384,0.04092,-0.16514,0.13842,0.079665,-0.12251,-0.26713,-0.23524,0.027746,-0.18757,0.065354,0.2413,0.0091515,0.011442,0.039767,-0.21723
-0.00089201,0.01505,0.06266,0.070241,-0.42168,-0.2936,-0.48555,-0.23544,-0.014994,0.043468,-0.13247,0.25209,8.7784e-005,-0.13261,-0.28868,-0.40147,-0.019686,-0.33214,0.14261,0.233,0.0074075,0.0096376,0.068049,-0.15645
-0.0033938,0.019516,0.08506,0.074233,-0.42148,-0.27228,-0.49385,-0.20052,-0.017225,0.054438,-0.10517,0.34625,-0.1053,-0.13293,-0.30349,-0.56389,-0.067082,-0.46766,0.18133,0.22168,0.008961,0.012811,0.095186,-0.12992
-0.0042546,0.022616,0.10355,0.076073,-0.41644,-0.22885,-0.49032,-0.17896,-0.019297,0.067556,-0.079344,0.39833,-0.22491,-0.12635,-0.3162,-0.70233,-0.1032,-0.57442,0.1804,0.21004,0.010258,0.016156,0.11645,-0.12701
-0.0041842,0.024047,0.11322,0.075373,-0.40646,-0.16474,-0.48196,-0.16585,-0.020583,0.078548,-0.050528,0.40381,-0.34539,-0.11717,-0.33446,-0.80533,-0.12126,-0.63835,0.1534,0.2,0.0091031,0.016718,0.13043,-0.1354
-0.0042393,0.02498,0.11475,0.072614,-0.38591,-0.08379,-0.47381,-0.14619,-0.018054,0.087265,-0.017729,0.37594,-0.45621,-0.10862,-0.36719,-0.86709,-0.12323,-0.66035,0.11599,0.18915,0.0065382,0.015254,0.13926,-0.14411
-0.0051063,0.026301,0.11393,0.06922,-0.34586,0.0067007,-0.46623,-0.10057,-0.0092398,0.095951,0.015494,0.33682,-0.55046,-0.10208,-0.42174,-0.88403,-0.11845,-0.65564,0.073827,0.17125,0.0058746,0.014724,0.14643,-0.14438
-0.0069127,0.02732,0.11693,0.066663,-0.28188,0.095987,-0.45732,-0.017386,0.0052747,0.10537,0.043838,0.30643,-0.62483,-0.097793,-0.49964,-0.85532,-0.11717,-0.64384,0.0201,0.14135,0.0095074,0.017024,0.15404,-0.13039
-0.0093112,0.026461,0.12528,0.065092,-0.20048,0.17278,-0.44735,0.097942,0.021782,0.11257,0.064656,0.29535,-0.67979,-0.095978,-0.59235,-0.78553,-0.12369,-0.63731,-0.056956,0.10141,0.016231,0.020953,0.1617,-0.10078
-0.011542,0.023236,0.13501,0.062757,-0.11748,0.23028,-0.43953,0.22542,0.0356,0.11251,0.080295,0.30301,-0.71831,-0.097318,-0.68054,-0.68464,-0.13342,-0.6358,-0.16433,0.0612,0.021625,0.023152,0.16757,-0.059665
-0.012565,0.019311,0.14053,0.05705,-0.048464,0.26996,-0.43536,0.34355,0.043602,0.10235,0.096423,0.3205,-0.74185,-0.10257,-0.73936,-0.56293,-0.13553,-0.62997,-0.29981,0.032992,0.021547,0.021128,0.17032,-0.014742
-0.011549,0.017273,0.13967,0.04663,0.0021649,0.30063,-0.42904,0.4425,0.045356,0.084273,0.11763,0.33567,-0.74661,-0.11183,-0.7488,-0.4244,-0.11931,-0.61006,-0.45381,0.023908,0.015862,0.015643,0.17017,0.027426
-0.0086022,0.018142,0.13555,0.032974,0.044461,0.33317,-0.40708,0.52691,0.042527,0.064377,0.14393,0.33865,-0.72421,-0.12396,-0.70351,-0.26447,-0.080128,-0.57306,-0.61288,0.031765,0.0089992,0.010294,0.16831,0.065713
-0.0051376,0.020166,0.13359,0.019955,0.095558,0.37446,-0.35475,0.60756,0.037389,0.048402,0.17105,0.32554,-0.66844,-0.13636,-0.61592,-0.074584,-0.022072,-0.52397,-0.76134,0.047379,0.0064833,0.0085859,0.16531,0.1042
-0.003226,0.02036,0.13671,0.011543,0.16682,0.42536,-0.26466,0.69085,0.031568,0.038032,0.19431,0.299,-0.58358,-0.14522,-0.50977,0.1491,0.043683,-0.4716,-0.8825,0.060697,0.010268,0.01106,0.16029,0.14651
-0.0041116,0.017589,0.14284,0.0092376,0.25541,0.48406,-0.14027,0.77589,0.025542,0.030623,0.21289,0.26558,-0.48715,-0.14668,-0.4079,0.39901,0.1034,-0.42236,-0.96351,0.065265,0.01698,0.014999,0.15156,0.18916
-0.0069742,0.014243,0.14675,0.011132,0.34692,0.55147,0.0077571,0.86058,0.018905,0.022128,0.23089,0.23163,-0.40354,-0.13863,-0.32174,0.65586,0.14583,-0.37604,-1.003,0.057792,0.020799,0.016997,0.13837,0.2202
-0.0091426,0.014626,0.14424,0.013289,0.4266,0.6331,0.1685,0.94872,0.011168,0.010418,0.25431,0.20053,-0.35222,-0.12262,-0.24937,0.8949,0.1656,-0.32554,-1.0149,0.034808,0.018588,0.016096,0.12222,0.22617
-0.0079304,0.021146,0.13507,0.012415,0.49026,0.73423,0.33483,1.0498,0.0027081,-0.0034906,0.2864,0.17261,-0.33831,-0.10396,-0.18229,1.0945,0.16395,-0.26015,-1.0216,-0.008492,0.012811,0.014698,0.10663,0.20264
-0.0028406,0.031626,0.12236,0.0078791,0.54572,0.85116,0.50219,1.171,-0.0047525,-0.016524,0.3251,0.1467,-0.35091,-0.089327,-0.11538,1.2427,0.14686,-0.17077,-1.0372,-0.074362,0.0096337,0.016412,0.095259,0.15995
0.0036763,0.040325,0.10979,0.0016985,0.60422,0.96535,0.66483,1.3097,-0.0087772,-0.02538,0.36428,0.12162,-0.36843,-0.082683,-0.0523,1.3379,0.12214,-0.054985,-1.0528,-0.1564,0.013808,0.022747,0.089669,0.11808
0.0077701,0.042167,0.099258,-0.0033788,0.66935,1.0469,0.8137,1.4537,-0.0078457,-0.027699,0.39724,0.096399,-0.3659,-0.082341,-0.0025865,1.3849,0.096676,0.079641,-1.0376,-0.23772,0.024704,0.031523,0.088429,0.093845
0.007073,0.036738,0.090727,-0.0061638,0.73332,1.0678,0.93807,1.5891,-0.0028722,-0.022529,0.41946,0.069906,-0.32113,-0.081747,0.0266,1.3898,0.074912,0.21533,-0.95757,-0.29762,0.036739,0.038363,0.08813,0.089927
0.0027097,0.028683,0.083493,-0.0079557,0.78405,1.0179,1.0293,1.7094,0.0028278,-0.01068,0.42919,0.040801,-0.22063,-0.073873,0.037242,1.3576,0.058156,0.32734,-0.80195,-0.32391,0.043681,0.03993,0.085671,0.094665
-0.0012929,0.024031,0.077023,-0.011425,0.8174,0.91454,1.0844,1.8159,0.0054835,0.0050059,0.42642,0.0083771,-0.066886,-0.056139,0.040291,1.2955,0.044517,0.39033,-0.59617,-0.32216,0.043137,0.036181,0.080124,0.092517
-0.00095121,0.025474,0.070597,-0.01831,0.84417,0.79826,1.1067,1.9106,0.0033677,0.020213,0.41223,-0.026131,0.11562,-0.032052,0.048789,1.2176,0.029396,0.38615,-0.39125,-0.31411,0.037742,0.029967,0.072873,0.07643
0.0045658,0.030486,0.062817,-0.027646,0.88542,0.71575,1.1043,1.9888,-0.0022207,0.030886,0.38899,-0.05823,0.28296,-0.0083542,0.069646,1.1456,0.0069566,0.3104,-0.23436,-0.32488,0.03254,0.024626,0.066095,0.051905
0.012153,0.033759,0.052345,-0.035885,0.9589,0.69805,1.0849,2.0389,-0.0083427,0.035232,0.36036,-0.07943,0.38741,0.0098429,0.10027,1.1023,-0.027398,0.17472,-0.14044,-0.36704,0.031074,0.02177,0.060872,0.029932
0.017038,0.031799,0.039563,-0.0389,1.0666,0.74584,1.0509,2.0509,-0.012883,0.034455,0.32999,-0.078253,0.40097,0.022009,0.13218,1.1007,-0.074487,0.003419,-0.084123,-0.43255,0.033274,0.020903,0.05643,0.015489
0.016335,0.025768,0.027269,-0.034587,1.1925,0.82989,0.99753,2.026,-0.015831,0.031538,0.29966,-0.044399,0.33212,0.031256,0.15828,1.1371,-0.1302,-0.1748,-0.017945,-0.49789,0.036334,0.020669,0.050949,0.0015297
0.01101,0.020271,0.019022,-0.024371,1.3119,0.9073,0.91736,1.9786,-0.018376,0.029057,0.26852,0.024389,0.22285,0.041018,0.17804,1.1945,-0.18658,-0.33593,0.095004,-0.53854,0.037263,0.020211,0.043075,-0.027031
0.0046869,0.019278,0.016141,-0.012611,1.4061,0.94509,0.81012,1.9286,-0.021025,0.027774,0.23486,0.11672,0.12581,0.052498,0.19665,1.2546,-0.2346,-0.46581,0.25564,-0.54282,0.034893,0.019479,0.032775,-0.083593
0.0004766,0.022751,0.016134,-0.0042196,1.4705,0.93815,0.69022,1.8899,-0.022924,0.026909,0.19889,0.20881,0.075743,0.064523,0.21946,1.3093,-0.26723,-0.55878,0.42782,-0.51624,0.030061,0.018662,0.020897,-0.17263
-0.0013063,0.026801,0.014336,-0.0019492,1.5141,0.9108,0.58444,1.8656,-0.023116,0.025412,0.16387,0.2745,0.073405,0.074801,0.24652,1.3629,-0.28134,-0.6116,0.56289,-0.47491,0.024384,0.017743,0.0081172,-0.28948
-0.002561,0.027133,0.007544,-0.0049921,1.55,0.90022,0.5185,1.8519,-0.022289,0.022859,0.134,0.29865,0.089739,0.080541,0.2717,1.4233,-0.27787,-0.61824,0.63414,-0.43394,0.018916,0.016677,-0.0054662,-0.42463
-0.0047277,0.022721,-0.0036079,-0.009756,1.5853,0.9311,0.50108,1.8467,-0.022886,0.019304,0.11055,0.28373,0.083844,0.078024,0.28696,1.4899,-0.26058,-0.57056,0.65731,-0.39934,0.013699,0.015777,-0.019568,-0.56705
-0.0068081,0.016572,-0.015632,-0.012233,1.6179,0.9974,0.51783,1.854,-0.02712,0.014654,0.089526,0.24372,0.021457,0.062743,0.288,1.5468,-0.23399,-0.46517,0.68214,-0.36794,0.0082581,0.015555,-0.032641,-0.70399
-0.0061722,0.013028,-0.025385,-0.01033,1.639,1.0632,0.54129,1.8788,-0.03475,0.0085172,0.063522,0.1898,-0.11391,0.031724,0.27688,1.5682,-0.20163,-0.31126,0.75882,-0.33357,0.0023925,0.016026,-0.041947,-0.82046
-0.0014545,0.014015,-0.032255,-0.0046348,1.6387,1.083,0.54968,1.9184,-0.042925,0.00080812,0.026817,0.12028,-0.31552,-0.01278,0.2599,1.5304,-0.16525,-0.13226,0.90183,-0.29397,-0.0034268,0.016276,-0.045266,-0.90282
0.005344,0.017511,-0.037391,0.0026802,1.6107,1.0283,0.53964,1.9581,-0.048459,-0.0076245,-0.019862,0.024117,-0.54948,-0.061261,0.24314,1.4235,-0.12559,0.041222,1.0768,-0.25323,-0.0083203,0.014964,-0.042969,-0.94602
0.0098257,0.019455,-0.041225,0.0096681,1.5522,0.90307,0.52347,1.9773,-0.050504,-0.015188,-0.06854,-0.1046,-0.75506,-0.099217,0.22933,1.2554,-0.083949,0.18309,1.2205,-0.21905,-0.011684,0.011434,-0.038375,-0.95878
0.0086237,0.01731,-0.042311,0.015628,1.4633,0.73809,0.51471,1.9602,-0.051125,-0.020582,-0.10799,-0.25414,-0.85923,-0.11329,0.21817,1.0469,-0.043244,0.28056,1.2803,-0.19779,-0.013754,0.0063802,-0.035564,-0.96023
0.0022478,0.012122,-0.038885,0.020733,1.3466,0.56946,0.51624,1.9052,-0.053295,-0.023783,-0.12995,-0.39621,-0.81096,-0.097903,0.20853,0.82299,-0.0075062,0.33512,1.2444,-0.19116,-0.015566,0.0013598,-0.036192,-0.96832
-0.0052716,0.0073868,-0.031384,0.025002,1.2083,0.41763,0.52121,1.823,-0.058215,-0.026007,-0.13346,-0.50075,-0.62256,-0.058681,0.19992,0.60529,0.020301,0.35684,1.1437,-0.19618,-0.018241,-0.0024288,-0.038081,-0.98807
-0.0096717,0.0059344,-0.022919,0.027843,1.0592,0.28085,0.52391,1.7268,-0.064339,-0.028568,-0.12473,-0.55256,-0.38847,-0.010847,0.19188,0.40989,0.040426,0.35741,1.0261,-0.20771,-0.022083,-0.0049319,-0.037122,-1.0088
-0.0097481,0.0076933,-0.016842,0.028618,0.91367,0.14555,0.52689,1.6235,-0.068699,-0.031502,-0.11296,-0.55713,-0.25482,0.026364,0.18262,0.24765,0.056421,0.34618,0.92456,-0.22123,-0.026258,-0.0068885,-0.031098,-1.013
-0.0077692,0.010202,-0.013823,0.027519,0.78632,0.0029161,0.53514,1.5129,-0.068972,-0.033052,-0.10524,-0.53199,-0.34286,0.037155,0.16898,0.12486,0.072477,0.32927,0.84353,-0.23463,-0.029475,-0.0088108,-0.022115,-0.98985
-0.0068058,0.011109,-0.011636,0.025723,0.68861,-0.14183,0.5424,1.3955,-0.064441,-0.030421,-0.10373,-0.49182,-0.66766,0.01596,0.14853,0.042363,0.089703,0.30931,0.76708,-0.2485,-0.031239,-0.010464,-0.015275,-0.9429
-0.007572,0.010193,-0.0081506,0.024559,0.62588,-0.27335,0.52578,1.2802,-0.055535,-0.021338,-0.10647,-0.43826,-1.1097,-0.029039,0.12189,-0.0061918,0.10445,0.28485,0.6778,-0.26496,-0.032556,-0.011457,-0.014438,-0.88728
-0.0077662,0.0091361,-0.0044644,0.024488,0.59644,-0.37774,0.45874,1.1852,-0.043108,-0.0055499,-0.11069,-0.3603,-1.47,-0.078102,0.092929,-0.034947,0.11067,0.25122,0.56801,-0.28556,-0.035294,-0.012299,-0.01859,-0.83922
-0.004553,0.0095091,-0.004597,0.024917,0.59184,-0.45124,0.33488,1.1299,-0.028531,0.014449,-0.11574,-0.24244,-1.5832,-0.10847,0.066266,-0.063997,0.10528,0.20495,0.43741,-0.30878,-0.040551,-0.014591,-0.022047,-0.80674
0.0021112,0.011052,-0.01149,0.025042,0.59845,-0.49983,0.18198,1.1238,-0.014101,0.033736,-0.12348,-0.074278,-1.4153,-0.106,0.044045,-0.11519,0.092351,0.15024,0.28576,-0.3291,-0.047431,-0.019797,-0.018623,-0.78732
0.0085075,0.011838,-0.02301,0.024883,0.60116,-0.53198,0.051454,1.162,-0.0025074,0.046265,-0.1362,0.14291,-1.0791,-0.073239,0.024806,-0.20665,0.082482,0.10256,0.11259,-0.33864,-0.053477,-0.0275,-0.0065555,-0.77201
0.0097302,0.010046,-0.032208,0.025492,0.58892,-0.55162,-0.010699,1.2301,0.0049643,0.046863,-0.15373,0.39335,-0.75326,-0.027858,0.0054689,-0.34728,0.086667,0.08517,-0.07445,-0.33147,-0.056552,-0.034883,0.0097559,-0.75098
0.0038134,0.0056108,-0.032327,0.028086,0.55965,-0.55664,0.010509,1.3123,0.0099444,0.033255,-0.17209,0.64803,-0.56327,0.0086839,-0.015371,-0.53213,0.10888,0.11946,-0.25263,-0.30769,-0.056554,-0.038278,0.022598,-0.71685
-0.006159,0.00029849,-0.022414,0.032863,0.52088,-0.5424,0.095453,1.3975,0.016183,0.0072761,-0.18499,0.87087,-0.50915,0.024976,-0.035783,-0.7399,0.14305,0.21535,-0.38992,-0.27421,-0.055339,-0.035776,0.026194,-0.66524
-0.013985,-0.0037337,-0.0083778,0.038497,0.48439,-0.50573,0.20688,1.4764,0.026258,-0.025392,-0.18706,1.0303,-0.48945,0.025979,-0.051915,-0.93397,0.1773,0.36769,-0.4628,-0.24078,-0.054827,-0.028699,0.020371,-0.59437
-0.014932,-0.0055109,0.0018067,0.04273,0.45793,-0.44626,0.30933,1.5362,0.038237,-0.056908,-0.17675,1.1118,-0.39589,0.027042,-0.061161,-1.069,0.20275,0.55942,-0.4728,-0.21377,-0.054997,-0.020588,0.010095,-0.50488
-0.0092534,-0.0056131,0.004741,0.04359,0.43992,-0.36525,0.37519,1.56,0.045523,-0.079565,-0.15702,1.1234,-0.2004,0.040407,-0.064214,-1.1036,0.22015,0.7671,-0.44735,-0.19244,-0.053677,-0.014435,0.001524,-0.39943
-0.001748,-0.0052002,0.0041903,0.040464,0.42094,-0.26503,0.37944,1.5339,0.040877,-0.087684,-0.13346,1.0883,0.032333,0.065084,-0.064206,-1.017,0.23902,0.96446,-0.42299,-0.17079,-0.048465,-0.010537,-0.0022807,-0.28173
0.0021984,-0.0047305,0.0072215,0.034453,0.39022,-0.15063,0.29894,1.4572,0.022046,-0.078584,-0.11126,1.0273,0.20958,0.088143,-0.063738,-0.8225,0.2696,1.1248,-0.42315,-0.14366,-0.039129,-0.006807,-0.0029887,-0.15567
0.00073732,-0.0035703,0.01729,0.027882,0.34113,-0.031946,0.12629,1.3462,-0.0053609,-0.0528,-0.093061,0.9423,0.29235,0.095892,-0.062365,-0.56886,0.31413,1.2264,-0.44672,-0.11198,-0.028349,-0.0012264,-0.0052047,-0.025452
-0.0034624,-0.00078378,0.030511,0.023145,0.27177,0.076745,-0.11107,1.2248,-0.030365,-0.013963,-0.078906,0.81584,0.32493,0.08524,-0.056604,-0.32465,0.36448,1.2632,-0.47442,-0.082468,-0.020076,0.0058213,-0.012893,0.10361
-0.0058858,0.0036969,0.038573,0.021309,0.18184,0.16194,-0.34829,1.1101,-0.043072,0.031518,-0.067859,0.62757,0.39167,0.065821,-0.042411,-0.15036,0.40841,1.2531,-0.48651,-0.061989,-0.016876,0.011416,-0.026587,0.2253
-0.0039946,0.0086421,0.035778,0.021267,0.071227,0.21798,-0.50926,1.004,-0.040575,0.075247,-0.059606,0.37853,0.54217,0.051679,-0.018214,-0.073399,0.43931,1.2354,-0.47879,-0.05136,-0.018486,0.012268,-0.043073,0.33448
0.00094229,0.012271,0.024025,0.02018,-0.057119,0.25075,-0.54779,0.89912,-0.028213,0.10842,-0.054625,0.10364,0.74801,0.050112,0.013574,-0.080942,0.46121,1.2523,-0.46743,-0.044062,-0.022654,0.0072738,-0.057502,0.42925
0.0051775,0.013565,0.011391,0.015367,-0.19281,0.27427,-0.47329,0.79283,-0.01556,0.12405,-0.052814,-0.13936,0.92237,0.057056,0.047334,-0.13471,0.48491,1.3231,-0.48203,-0.030979,-0.027359,-0.0016535,-0.066442,0.51071
0.0055203,0.013049,0.0056868,0.0065292,-0.31827,0.30147,-0.3396,0.69597,-0.010388,0.11926,-0.051915,-0.29973,0.9804,0.062196,0.076548,-0.19631,0.5183,1.4311,-0.5523,-0.0069087,-0.032356,-0.010971,-0.06987,0.5803
0.001586,0.012365,0.0086591,-0.0034325,-0.41586,0.33553,-0.2049,0.62704,-0.014979,0.096401,-0.047311,-0.36258,0.89134,0.058592,0.09633,-0.24552,0.55912,1.5353,-0.6952,0.026731,-0.038766,-0.017754,-0.070675,0.63785
-0.0041949,0.013014,0.015594,-0.010063,-0.47718,0.36813,-0.094441,0.59563,-0.026904,0.062562,-0.033619,-0.35608,0.68899,0.0485,0.10511,-0.28128,0.59597,1.5993,-0.90707,0.064749,-0.047284,-0.021063,-0.071683,0.68464
-0.0084005,0.015254,0.020082,-0.010552,-0.50664,0.38613,0.005398,0.59028,-0.042729,0.026965,-0.0070724,-0.33104,0.44488,0.041103,0.10503,-0.3103,0.61613,1.6174,-1.1638,0.10299,-0.056834,-0.021827,-0.07194,0.73056
-0.008759,0.018036,0.019308,-0.0060608,-0.51589,0.38171,0.12088,0.58245,-0.061023,-0.0027566,0.032848,-0.32723,0.23227,0.044995,0.10096,-0.33642,0.61318,1.6135,-1.4292,0.13994,-0.065011,-0.021984,-0.065043,0.79867
-0.0052692,0.019936,0.015348,-0.0011259,-0.51339,0.35834,0.25875,0.54437,-0.082189,-0.023769,0.083339,-0.35069,0.10384,0.062067,0.098669,-0.35941,0.58802,1.6149,-1.6699,0.17357,-0.070003,-0.023839,-0.041637,0.91923
0.00011851,0.020272,0.012088,-0.00035087,-0.4981,0.32826,0.39697,0.46645,-0.10575,-0.038795,0.13937,-0.37811,0.085386,0.087263,0.10261,-0.38054,0.54354,1.6206,-1.8671,0.19736,-0.072209,-0.029677,0.0043123,1.1125
0.0048183,0.019495,0.011264,-0.0048933,-0.46224,0.30329,0.50431,0.36035,-0.12805,-0.053539,0.19514,-0.38329,0.17636,0.11332,0.11456,-0.40555,0.4792,1.5925,-2.0209,0.2007,-0.073942,-0.040872,0.06887,1.3708
0.0070717,0.018617,0.011302,-0.01158,-0.40027,0.28559,0.56791,0.24688,-0.14303,-0.071985,0.24539,-0.36423,0.352,0.13585,0.13351,-0.43998,0.3912,1.478,-2.1415,0.17513,-0.077088,-0.056145,0.13586,1.6536
0.0067505,0.018259,0.0094296,-0.015409,-0.31593,0.26482,0.60221,0.14041,-0.14573,-0.092514,0.28652,-0.34941,0.57037,0.15497,0.1567,-0.48174,0.2787,1.2475,-2.2347,0.12179,-0.080408,-0.070052,0.18192,1.9035
0.0051247,0.018155,0.0043965,-0.013449,-0.22172,0.22364,0.63168,0.042831,-0.13558,-0.10766,0.31717,-0.37962,0.78691,0.17305,0.18109,-0.51973,0.1499,0.91699,-2.2921,0.053289,-0.078809,-0.073663,0.18743,2.0753
0.0038583,0.017505,-0.0028077,-0.0070471,-0.13181,0.14788,0.66449,-0.050502,-0.11637,-0.10788,0.33796,-0.48059,0.96973,0.19144,0.20433,-0.5416,0.021731,0.54105,-2.2958,-0.012394,-0.065787,-0.058463,0.1479,2.1579
0.0039774,0.01579,-0.010341,-0.00065286,-0.054978,0.035544,0.68239,-0.14109,-0.092397,-0.086841,0.35025,-0.64784,1.1047,0.20884,0.22498,-0.54414,-0.087625,0.18187,-2.2329,-0.061859,-0.038035,-0.021965,0.078931,2.1762
0.0054716,0.013298,-0.016948,0.0016853,0.0070985,-0.10072,0.65535,-0.22442,-0.063838,-0.044515,0.35502,-0.85307,1.188,0.22228,0.24231,-0.53644,-0.16776,-0.11965,-2.11,-0.092464,0.00080781,0.02856,0.011104,2.1704
0.0075979,0.010915,-0.021899,-0.0005993,0.05609,-0.23854,0.567,-0.29579,-0.025492,0.013627,0.35293,-1.0638,1.216,0.22934,0.25598,-0.53249,-0.21982,-0.35274,-1.9539,-0.11034,0.040329,0.077551,-0.023601,2.1692
0.0094037,0.0093841,-0.024036,-0.0042048,0.092256,-0.35533,0.42818,-0.35782,0.029153,0.079773,0.3457,-1.2596,1.1877,0.23002,0.26589,-0.5399,-0.25278,-0.52586,-1.7974,-0.12282,0.068256,0.10804,-0.0071525,2.1726
0.010023,0.0087465,-0.021745,-0.0043814,0.11311,-0.43705,0.26901,-0.42101,0.10103,0.14623,0.3369,-1.4337,1.1163,0.22708,0.27211,-0.55502,-0.2762,-0.65155,-1.6594,-0.13212,0.077432,0.11036,0.05559,2.1565
0.0088094,0.0084524,-0.014466,0.0017277,0.11615,-0.48164,0.11986,-0.49613,0.18131,0.20567,0.33035,-1.5858,1.0379,0.225,0.27501,-0.56885,-0.29539,-0.74083,-1.5361,-0.13543,0.070161,0.087308,0.13958,2.0903
0.0056325,0.0080371,-0.004188,0.013156,0.10273,-0.49597,-0.0011095,-0.58499,0.25446,0.25061,0.32666,-1.7134,0.99956,0.22767,0.27529,-0.57792,-0.31174,-0.80734,-1.4085,-0.12998,0.056549,0.052425,0.2129,1.9562
0.0013454,0.007705,0.0050909,0.025744,0.079599,-0.48902,-0.086369,-0.67754,0.3079,0.2748,0.32122,-1.8111,1.0298,0.23606,0.27398,-0.58965,-0.32573,-0.87023,-1.2603,-0.11754,0.047716,0.022302,0.25319,1.757
-0.0021608,0.0082334,0.010057,0.034692,0.056865,-0.46633,-0.13185,-0.75749,0.34217,0.27694,0.30658,-1.874,1.1134,0.24686,0.27208,-0.61697,-0.33847,-0.94748,-1.09,-0.10364,0.048723,0.0079036,0.25751,1.5112
-0.0028219,0.010216,0.010592,0.037273,0.043721,-0.42927,-0.13606,-0.81195,0.37344,0.26359,0.27864,-1.8986,1.1918,0.25356,0.26998,-0.66651,-0.35013,-1.0431,-0.90847,-0.092265,0.056411,0.010216,0.2395,1.2395
0.00013274,0.013291,0.0095748,0.034015,0.044288,-0.37906,-0.10685,-0.83839,0.42446,0.24751,0.24151,-1.8799,1.1936,0.24959,0.26707,-0.731,-0.35748,-1.1402,-0.72645,-0.081214,0.063487,0.022388,0.2165,0.95466
0.0052634,0.016088,0.0099315,0.02784,0.055666,-0.32171,-0.065252,-0.84529,0.50797,0.24109,0.206,-1.8104,1.0751,0.23201,0.26179,-0.79349,-0.35395,-1.2079,-0.54356,-0.062811,0.065156,0.035983,0.19607,0.65938
0.0095529,0.017022,0.011664,0.021958,0.069182,-0.26921,-0.037117,-0.84751,0.61293,0.24912,0.18175,-1.6849,0.84567,0.20296,0.25225,-0.84159,-0.33327,-1.2197,-0.3502,-0.029498,0.062767,0.046519,0.17195,0.35345
0.010386,0.015372,0.011798,0.018059,0.074553,-0.23529,-0.037011,-0.85958,0.70386,0.26663,0.16894,-1.5112,0.56204,0.16795,0.2372,-0.88134,-0.29387,-1.1684,-0.1395,0.020366,0.06175,0.054756,0.13211,0.044449
0.0074506,0.011791,0.0074359,0.015902,0.065156,-0.22836,-0.059442,-0.89016,0.73572,0.28362,0.15712,-1.3177,0.29935,0.13253,0.21666,-0.9397,-0.24054,-1.0694,0.081807,0.081215,0.066137,0.063853,0.071731,-0.24626
0.0030445,0.0078471,-0.00096486,0.014316,0.041524,-0.24674,-0.087455,-0.93918,0.67706,0.29257,0.13304,-1.1466,0.11524,0.10008,0.19228,-1.0519,-0.1819,-0.9491,0.2935,0.14407,0.074658,0.075497,0.00037085,-0.48717
0.00043347,0.0050103,-0.0092828,0.012596,0.010671,-0.2796,-0.11134,-0.99865,0.52793,0.29245,0.091531,-1.0359,0.026421,0.072218,0.16696,-1.2402,-0.12609,-0.83101,0.47294,0.20177,0.081603,0.08818,-0.062491,-0.64853
0.0014474,0.0038455,-0.012802,0.011181,-0.018711,-0.31282,-0.13879,-1.0565,0.32193,0.2864,0.040437,-0.99644,0.0072677,0.050454,0.1439,-1.4971,-0.077925,-0.7277,0.60775,0.25147,0.081327,0.098381,-0.099548,-0.71588
0.0051192,0.0039573,-0.0098558,0.011273,-0.042121,-0.33599,-0.18521,-1.102,0.11129,0.27625,-0.0047173,-1.0027,0.009031,0.036482,0.12508,-1.7817,-0.039187,-0.64312,0.70037,0.29321,0.072345,0.10293,-0.1055,-0.69795
0.0084315,0.0045396,-0.0027372,0.01393,-0.061997,-0.34606,-0.25273,-1.1295,-0.056551,0.25973,-0.032172,-1.0056,-0.011596,0.030266,0.10998,-2.0314,-0.010807,-0.57926,0.76261,0.32708,0.057886,0.10048,-0.08746,-0.6252
0.0086463,0.0049716,0.004799,0.019456,-0.085195,-0.34647,-0.31897,-1.1397,-0.15793,0.23306,-0.042335,-0.96123,-0.070881,0.028069,0.095592,-2.182,0.0055455,-0.53993,0.80654,0.3519,0.043074,0.091367,-0.057311,-0.54064
0.0054333,0.0050377,0.01089,0.027321,-0.11693,-0.3432,-0.34841,-1.1366,-0.19845,0.196,-0.046933,-0.85935,-0.15567,0.0235,0.078428,-2.1889,0.0078805,-0.52824,0.83973,0.3665,0.031503,0.077029,-0.023737,-0.48677
0.0010846,0.0047997,0.016565,0.036284,-0.15559,-0.34063,-0.31767,-1.1248,-0.20418,0.15372,-0.060442,-0.73022,-0.2395,0.011993,0.05765,-2.041,-0.0043468,-0.5419,0.86751,0.37149,0.023741,0.059749,0.0094387,-0.49205
-0.0014325,0.004419,0.023599,0.044378,-0.19215,-0.33903,-0.23246,-1.1061,-0.20511,0.11307,-0.091052,-0.62457,-0.30325,-0.0048044,0.037049,-1.7662,-0.028787,-0.57202,0.89812,0.36955,0.018151,0.042693,0.039004,-0.56042
-0.0010278,0.0040904,0.031551,0.049056,-0.21467,-0.33441,-0.12125,-1.0806,-0.22031,0.076411,-0.13759,-0.57884,-0.34374,-0.019241,0.023773,-1.4241,-0.060109,-0.60747,0.94377,0.36387,0.012626,0.029144,0.058339,-0.66789
0.00055446,0.003992,0.03715,0.048063,-0.21489,-0.32057,-0.01288,-1.048,-0.25154,0.038989,-0.19298,-0.59049,-0.36626,-0.023469,0.023925,-1.087,-0.091109,-0.64085,1.0154,0.35669,0.0058255,0.020702,0.058973,-0.77073
0.00032922,0.0041387,0.0369,0.04104,-0.19287,-0.2931,0.080963,-1.0103,-0.28706,-0.0074428,-0.24978,-0.62189,-0.37223,-0.016537,0.037925,-0.81421,-0.11432,-0.66993,1.115,0.34951,-0.0023964,0.015734,0.036871,-0.82524
-0.0030664,0.0042593,0.030612,0.030634,-0.15738,-0.25352,0.16365,-0.97265,-0.31212,-0.067661,-0.30308,-0.62998,-0.35655,-0.0064876,0.059316,-0.63132,-0.12366,-0.69265,1.2318,0.34471,-0.01095,0.0099244,-0.0026919,-0.8113
-0.0078058,0.0039247,0.022393,0.021663,-0.12233,-0.21102,0.23741,-0.94298,-0.3196,-0.13865,-0.34968,-0.5987,-0.31675,-0.0048962,0.078458,-0.52766,-0.11591,-0.70064,1.3473,0.3463,-0.017698,-0.00072214,-0.047093,-0.74633
-0.010184,0.0029086,0.017783,0.018223,-0.10146,-0.17966,0.29186,-0.92967,-0.31482,-0.21148,-0.38613,-0.54813,-0.26091,-0.017696,0.088766,-0.47474,-0.091763,-0.67854,1.4441,0.35839,-0.020225,-0.016397,-0.084484,-0.67918
-0.0078414,0.001414,0.019214,0.020653,-0.10431,-0.1719,0.30986,-0.93928,-0.31194,-0.27723,-0.40841,-0.51284,-0.2016,-0.039681,0.091009,-0.45374,-0.055745,-0.61179,1.5122,0.3819,-0.017305,-0.032523,-0.11176,-0.66513
-0.0020741,-0.00016031,0.023751,0.025026,-0.13501,-0.19233,0.28465,-0.97508,-0.32452,-0.33174,-0.41372,-0.50722,-0.13993,-0.057371,0.092432,-0.47124,-0.014863,-0.49772,1.5474,0.41237,-0.010222,-0.042618,-0.13604,-0.73572
0.0029281,-0.0017179,0.025339,0.025996,-0.19376,-0.23639,0.23012,-1.0374,-0.35629,-0.37522,-0.40262,-0.50722,-0.058804,-0.058245,0.10131,-0.55079,0.023445,-0.35045,1.546,0.44086,-0.0026834,-0.043174,-0.16873,-0.88149
0.0034149,-0.0035913,0.019917,0.020935,-0.27879,-0.29502,0.17248,-1.1251,-0.39804,-0.40825,-0.37984,-0.46468,0.060954,-0.039408,0.12085,-0.707,0.052994,-0.19513,1.5019,0.4578,0.001106,-0.036751,-0.21731,-1.0581
-0.00087012,-0.0059341,0.0090913,0.011936,-0.38645,-0.36165,0.13015,-1.2365,-0.43226,-0.42849,-0.35308,-0.34359,0.2119,-0.0094702,0.1468,-0.92374,0.069729,-0.055328,1.4111,0.45733,-0.0010045,-0.030649,-0.28099,-1.211
-0.0065471,-0.0078944,-0.00089878,0.0039597,-0.50908,-0.43565,0.10007,-1.3683,-0.4425,-0.43173,-0.33046,-0.14865,0.34687,0.01709,0.17001,-1.1549,0.07232,0.056751,1.2805,0.43971,-0.0079529,-0.031943,-0.35256,-1.3028
-0.0094397,-0.0076483,-0.0042132,0.00078046,-0.63311,-0.51947,0.063377,-1.5131,-0.42175,-0.4162,-0.31759,0.077571,0.40046,0.028425,0.18197,-1.3476,0.062986,0.14117,1.1297,0.41065,-0.016708,-0.042651,-0.42321,-1.3248
-0.0078679,-0.0037796,-0.00025301,0.0022364,-0.74126,-0.61235,0.004864,-1.6578,-0.37587,-0.38598,-0.31547,0.28634,0.33255,0.020694,0.1792,-1.4687,0.047956,0.20378,0.98255,0.3788,-0.024854,-0.058704,-0.48573,-1.2872
-0.0035977,0.0029309,0.0057666,0.0049789,-0.81979,-0.7065,-0.071356,-1.7861,-0.32142,-0.35022,-0.32036,0.45654,0.15818,-0.0025158,0.16377,-1.5153,0.036048,0.24983,0.85355,0.35244,-0.032204,-0.073389,-0.53426,-1.1985
0.00013282,0.0091091,0.0069175,0.0056771,-0.86664,-0.78958,-0.14365,-1.8839,-0.27961,-0.31834,-0.32694,0.60244,-0.062607,-0.034935,0.14019,-1.5037,0.034745,0.283,0.74056,0.33667,-0.04005,-0.082325,-0.56307,-1.0516
0.0015104,0.010728,-0.00022287,0.0036063,-0.89337,-0.85173,-0.18969,-1.9459,-0.26867,-0.2948,-0.3333,0.75021,-0.26611,-0.072245,0.11128,-1.4499,0.045641,0.30911,0.62953,0.33162,-0.048935,-0.086015,-0.5678,-0.83047
0.0013582,0.006231,-0.01354,0.00048574,-0.91691,-0.8913,-0.20302,-1.9777,-0.29658,-0.27697,-0.34433,0.9053,-0.42073,-0.11323,0.076412,-1.3588,0.062759,0.33858,0.50711,0.33254,-0.057387,-0.088182,-0.54958,-0.52977
0.0018265,-0.0017526,-0.027843,-0.0017979,-0.94524,-0.91458,-0.19596,-1.9925,-0.35644,-0.25705,-0.36979,1.0405,-0.52798,-0.15732,0.033398,-1.2291,0.075806,0.38331,0.36978,0.33213,-0.063164,-0.091756,-0.51852,-0.1718
0.0040753,-0.0078644,-0.039217,-0.0030936,-0.96794,-0.93012,-0.18824,-2.0039,-0.42712,-0.22638,-0.41675,1.1159,-0.59425,-0.20128,-0.017527,-1.0647,0.076609,0.44901,0.22345,0.32432,-0.066016,-0.09621,-0.4924,0.19804
0.0071914,-0.0077963,-0.047391,-0.004736,-0.96089,-0.94255,-0.19277,-2.0195,-0.48089,-0.17982,-0.48165,1.1117,-0.60737,-0.23857,-0.070809,-0.88045,0.064015,0.52846,0.077024,0.30746,-0.069183,-0.098574,-0.48973,0.53566
0.0091792,-0.0014282,-0.054465,-0.0076719,-0.90418,-0.95073,-0.21019,-2.0385,-0.49523,-0.11836,-0.54872,1.0455,-0.54481,-0.26238,-0.11646,-0.6988,0.043483,0.60108,-0.061662,0.2846,-0.077701,-0.096981,-0.52102,0.82329
0.0088518,0.0072243,-0.061822,-0.011041,-0.80095,-0.95108,-0.23401,-2.0549,-0.46309,-0.049391,-0.59764,0.95739,-0.40604,-0.27036,-0.14471,-0.54029,0.021974,0.63994,-0.18464,0.26042,-0.09451,-0.093248,-0.58293,1.0726
0.0067814,0.013132,-0.068434,-0.012662,-0.68198,-0.94247,-0.25909,-2.0624,-0.39506,0.015663,-0.6157,0.87757,-0.2336,-0.26701,-0.15145,-0.4185,0.0025066,0.62271,-0.28234,0.23718,-0.11751,-0.091803,-0.65798,1.3004
0.0046156,0.013786,-0.072066,-0.010909,-0.59024,-0.92821,-0.28456,-2.0588,-0.31191,0.065806,-0.60537,0.80689,-0.095807,-0.26116,-0.14067,-0.34071,-0.017334,0.54053,-0.34819,0.21279,-0.14006,-0.095641,-0.71896,1.4953
0.003679,0.010349,-0.071901,-0.0061387,-0.55511,-0.91395,-0.30975,-2.0473,-0.23221,0.095501,-0.58111,0.72777,-0.040098,-0.25977,-0.12199,-0.31053,-0.042458,0.40055,-0.38788,0.18238,-0.15448,-0.1028,-0.73601,1.6068
0.0042226,0.0058853,-0.069764,-0.00037838,-0.57468,-0.90365,-0.32875,-2.0351,-0.16318,0.10749,-0.55801,0.63407,-0.056278,-0.26257,-0.10491,-0.32779,-0.076134,0.22153,-0.42327,0.14217,-0.15571,-0.10664,-0.68532,1.5716
0.0057147,0.0025945,-0.068618,0.0043072,-0.6195,-0.8972,-0.3299,-2.0286,-0.099945,0.11109,-0.54128,0.54989,-0.083515,-0.2618,-0.093852,-0.38619,-0.11813,0.025902,-0.48294,0.092141,-0.14252,-0.099884,-0.55822,1.3658
0.0074489,0.00049883,-0.069756,0.0072079,-0.65469,-0.89094,-0.30156,-2.0298,-0.0325,0.11625,-0.52497,0.51681,-0.057691,-0.24755,-0.087504,-0.47318,-0.16574,-0.16634,-0.5827,0.03597,-0.11627,-0.079369,-0.36746,1.0434
0.0087115,-0.0016648,-0.071469,0.0089803,-0.66331,-0.87995,-0.23953,-2.0335,0.045802,0.12649,-0.50027,0.55869,0.038968,-0.21503,-0.082502,-0.57452,-0.21535,-0.33889,-0.71122,-0.021314,-0.078964,-0.047789,-0.14597,0.72931
0.0086182,-0.0046346,-0.07063,0.010552,-0.65324,-0.86016,-0.15041,-2.0292,0.13403,0.13584,-0.46558,0.65495,0.16548,-0.16838,-0.078083,-0.68041,-0.26247,-0.47657,-0.83471,-0.075346,-0.03282,-0.011572,0.064957,0.5607
0.0062946,-0.007768,-0.065856,0.012138,-0.64418,-0.82944,-0.049351,-2.0051,0.2254,0.13224,-0.42938,0.74735,0.25425,-0.11874,-0.077728,-0.78736,-0.30049,-0.56362,-0.92009,-0.12273,0.01885,0.022876,0.23412,0.61124
0.0015809,-0.0098102,-0.059287,0.013251,-0.64761,-0.78834,0.045279,-1.9546,0.31184,0.1059,-0.40323,0.77672,0.2591,-0.078546,-0.086452,-0.89322,-0.32067,-0.58611,-0.9603,-0.16034,0.070675,0.051413,0.35537,0.84583
-0.0044387,-0.010336,-0.055158,0.0135,-0.65802,-0.7405,0.11623,-1.8795,0.38695,0.056794,-0.39143,0.72029,0.18165,-0.056122,-0.10613,-0.98911,-0.31499,-0.53792,-0.98179,-0.18556,0.11562,0.071752,0.44885,1.1372
-0.0098582,-0.010376,-0.056186,0.013271,-0.66217,-0.69219,0.14918,-1.7887,0.44542,-0.004135,-0.38641,0.60079,0.061062,-0.053575,-0.13285,-1.0552,-0.28097,-0.425,-1.0266,-0.19797,0.14686,0.081977,0.54608,1.3337
-0.013153,-0.011634,-0.060856,0.013629,-0.65647,-0.65,0.13347,-1.6925,0.48067,-0.061593,-0.37449,0.463,-0.056841,-0.06776,-0.15856,-1.064,-0.22484,-0.26365,-1.1208,-0.20104,0.16025,0.080329,0.66789,1.3361
-0.014089,-0.01501,-0.064093,0.015624,-0.65453,-0.6177,0.063893,-1.5963,0.48443,-0.10565,-0.34701,0.34012,-0.14335,-0.092218,-0.17578,-0.98875,-0.16031,-0.072854,-1.2521,-0.20141,0.15618,0.066961,0.80967,1.1358
-0.013515,-0.019769,-0.060968,0.019581,-0.67688,-0.59489,-0.056002,-1.4989,0.44991,-0.13735,-0.30734,0.2374,-0.18921,-0.11858,-0.18183,-0.81306,-0.10275,0.13356,-1.3716,-0.20544,0.14006,0.045979,0.94415,0.79876
-0.012364,-0.024039,-0.050473,0.024889,-0.73193,-0.57906,-0.21122,-1.3965,0.37706,-0.16559,-0.26762,0.14215,-0.19299,-0.13765,-0.17968,-0.53851,-0.062241,0.34876,-1.4203,-0.21524,0.12078,0.025408,1.0392,0.41486
-0.010996,-0.026197,-0.036254,0.030334,-0.80683,-0.56956,-0.37589,-1.2893,0.27582,-0.19761,-0.23804,0.045265,-0.15196,-0.14135,-0.17514,-0.19049,-0.039803,0.56689,-1.3609,-0.22749,0.10758,0.014275,1.078,0.051548
-0.0095087,-0.025949,-0.023697,0.034712,-0.8778,-0.56945,-0.51842,-1.1854,0.16442,-0.23038,-0.21796,-0.047718,-0.064221,-0.12543,-0.1727,0.1792,-0.029498,0.77378,-1.1975,-0.23643,0.1061,0.018405,1.0661,-0.26286
-0.0084446,-0.024282,-0.015751,0.037423,-0.93088,-0.58238,-0.61049,-1.0969,0.063026,-0.2501,-0.19675,-0.12463,0.062854,-0.091946,-0.17299,0.4986,-0.024933,0.94208,-0.9716,-0.23883,0.11579,0.037628,1.0226,-0.52867
-0.0088072,-0.022434,-0.010889,0.038706,-0.97318,-0.60689,-0.63722,-1.0328,-0.013189,-0.24061,-0.1636,-0.18304,0.20759,-0.049333,-0.17325,0.69705,-0.025562,1.0363,-0.74134,-0.23728,0.13009,0.066111,0.96136,-0.75787
-0.011096,-0.020868,-0.0047917,0.039348,-1.0233,-0.63354,-0.60468,-0.99131,-0.057583,-0.19479,-0.11806,-0.23734,0.33683,-0.0093807,-0.17015,0.73841,-0.038034,1.0271,-0.55695,-0.23892,0.13971,0.095402,0.88052,-0.96702
-0.014359,-0.019141,0.0057418,0.039982,-1.0899,-0.64881,-0.54039,-0.96191,-0.070973,-0.1205,-0.072436,-0.30916,0.41417,0.017817,-0.16274,0.64859,-0.071199,0.90857,-0.44589,-0.25051,0.13716,0.11824,0.76658,-1.177
-0.016543,-0.016704,0.019894,0.040475,-1.1588,-0.64299,-0.48373,-0.93292,-0.058462,-0.037033,-0.044016,-0.41007,0.4101,0.028378,-0.15344,0.51454,-0.12806,0.70814,-0.4103,-0.27321,0.12001,0.13113,0.61114,-1.4062
-0.016201,-0.013803,0.03326,0.039966,-1.2036,-0.61469,-0.46861,-0.90075,-0.027587,0.035212,-0.043189,-0.53109,0.3129,0.026044,-0.14655,0.44528,-0.20051,0.48154,-0.4326,-0.30081,0.091507,0.13476,0.42509,-1.6529
-0.014075,-0.011571,0.041205,0.037649,-1.2085,-0.56706,-0.50611,-0.87215,0.011355,0.084696,-0.066283,-0.64676,0.13874,0.019455,-0.14534,0.51351,-0.27116,0.29204,-0.48314,-0.32297,0.05856,0.13265,0.23799,-1.8808
-0.012821,-0.011157,0.042488,0.033706,-1.1833,-0.4991,-0.57799,-0.85746,0.045266,0.11223,-0.097564,-0.72862,-0.065168,0.016696,-0.1501,0.71517,-0.32151,0.1822,-0.5271,-0.33107,0.028728,0.12898,0.081904,-2.0277
-0.014746,-0.012665,0.040454,0.029568,-1.1528,-0.4013,-0.64632,-0.85961,0.061399,0.12717,-0.1181,-0.75806,-0.23292,0.020295,-0.1587,0.97655,-0.3413,0.15338,-0.53171,-0.32287,0.0075754,0.12666,-0.027924,-2.0426
-0.019461,-0.014928,0.040947,0.027167,-1.1304,-0.26205,-0.67392,-0.86717,0.05318,0.14026,-0.11532,-0.73215,-0.30901,0.025806,-0.16919,1.2056,-0.3327,0.16652,-0.47526,-0.30245,-0.002817,0.12612,-0.10063,-1.9256
-0.023764,-0.016415,0.048496,0.027659,-1.1006,-0.081238,-0.64246,-0.85669,0.024273,0.15801,-0.088339,-0.66332,-0.28125,0.02487,-0.18218,1.3507,-0.30683,0.16613,-0.35623,-0.27571,-0.0041602,0.12538,-0.15999,-1.7396
-0.024204,-0.016533,0.063377,0.030561,-1.0272,0.12136,-0.55674,-0.80308,-0.013566,0.18125,-0.047581,-0.57566,-0.19553,0.01063,-0.20065,1.4257,-0.27534,0.11381,-0.19769,-0.24501,-0.0011988,0.12121,-0.22557,-1.5752
-0.020204,-0.016162,0.081491,0.033927,-0.88451,0.31242,-0.43462,-0.69197,-0.048465,0.20682,-0.010145,-0.49881,-0.13655,-0.01828,-0.22694,1.4868,-0.24319,0.0097063,-0.042046,-0.20735,2.2535e-005,0.11095,-0.29984,-1.4937
-0.014846,-0.016866,0.097056,0.035444,-0.68236,0.46371,-0.29317,-0.52689,-0.076263,0.22996,0.0070413,-0.45877,-0.1808,-0.057803,-0.25948,1.5849,-0.20781,-0.11244,0.064575,-0.15784,-0.005453,0.094121,-0.37029,-1.4881
-0.012385,-0.019379,0.10632,0.0337,-0.46528,0.56883,-0.14234,-0.32789,-0.10157,0.24595,-0.0058145,-0.46774,-0.34922,-0.10215,-0.29212,1.7312,-0.16462,-0.21255,0.092214,-0.095803,-0.019315,0.072926,-0.42299,-1.4937
-0.014547,-0.022664,0.10978,0.028847,-0.28404,0.64433,0.010832,-0.12257,-0.13109,0.25106,-0.046887,-0.51869,-0.5915,-0.148,-0.31744,1.8991,-0.11437,-0.27304,0.040583,-0.028249,-0.03919,0.051364,-0.45486,-1.4385
-0.018869,-0.024406,0.11143,0.022311,-0.16341,0.71424,0.15494,0.065499,-0.16528,0.24349,-0.10339,-0.58973,-0.8135,-0.19592,-0.33163,2.0513,-0.066273,-0.30835,-0.062488,0.032597,-0.059906,0.033419,-0.47422,-1.2943
-0.020615,-0.022643,0.11564,0.015813,-0.091299,0.79138,0.27357,0.22498,-0.19639,0.22398,-0.15801,-0.65632,-0.92855,-0.24834,-0.33726,2.165,-0.034533,-0.35072,-0.17786,0.076076,-0.076274,0.021276,-0.48997,-1.0911
-0.016635,-0.017266,0.1238,0.010367,-0.035774,0.87091,0.35357,0.35725,-0.21492,0.19511,-0.198,-0.70244,-0.89649,-0.30594,-0.34166,2.2353,-0.030883,-0.42645,-0.27708,0.098859,-0.085719,0.014527,-0.4998,-0.88716
-0.0079684,-0.010224,0.13339,0.0058377,0.026331,0.93974,0.39539,0.46936,-0.21863,0.15905,-0.22114,-0.72222,-0.72592,-0.36544,-0.35189,2.2634,-0.0588,-0.54258,-0.35506,0.10515,-0.089125,0.010729,-0.4885,-0.72474
0.00087553,-0.0042626,0.13992,0.0012625,0.092905,0.99005,0.41568,0.56436,-0.21578,0.11507,-0.23421,-0.71176,-0.44755,-0.42015,-0.3703,2.2495,-0.11346,-0.69179,-0.42511,0.10156,-0.089496,0.0069899,-0.43844,-0.60519
0.0051638,-0.0011724,0.14026,-0.0044038,0.14313,1.0221,0.43864,0.63641,-0.21918,0.059381,-0.24528,-0.66003,-0.089858,-0.46239,-0.39361,2.2029,-0.18666,-0.86586,-0.50082,0.091485,-0.089651,0.0016409,-0.34425,-0.49988
0.0031099,-0.0008075,0.13489,-0.011646,0.15829,1.0334,0.48187,0.67439,-0.2365,-0.012007,-0.25583,-0.549,0.3189,-0.48563,-0.41584,2.1602,-0.27202,-1.0623,-0.57995,0.073828,-0.090731,-0.0049746,-0.21995,-0.38099
-0.0032553,-0.0015173,0.1274,-0.020185,0.13812,1.007,0.54647,0.67148,-0.26535,-0.099092,-0.25906,-0.36459,0.7307,-0.48544,-0.43197,2.1844,-0.36614,-1.2785,-0.64453,0.046796,-0.092373,-0.011106,-0.093143,-0.24468
-0.0097399,-0.0015323,0.1219,-0.02915,0.1006,0.91508,0.61734,0.63297,-0.29676,-0.19553,-0.24544,-0.10912,1.0726,-0.45922,-0.43939,2.3346,-0.46551,-1.5035,-0.67814,0.012549,-0.09392,-0.015189,0.0095297,-0.10982
-0.012677,-0.00022231,0.12052,-0.037383,0.068378,0.73896,0.67198,0.57596,-0.323,-0.29009,-0.21043,0.19609,1.278,-0.40623,-0.43661,2.6191,-0.56272,-1.7188,-0.6858,-0.022033,-0.095342,-0.017287,0.075387,0.0014425
-0.010825,0.0016326,0.12248,-0.043773,0.054635,0.49057,0.69099,0.52072,-0.34184,-0.37114,-0.1575,0.52025,1.3362,-0.32818,-0.42129,2.9716,-0.64645,-1.9098,-0.69727,-0.049294,-0.09718,-0.019249,0.10917,0.081635
-0.0055813,0.0026097,0.12515,-0.047705,0.059144,0.21343,0.66455,0.48075,-0.354,-0.43138,-0.094038,0.83525,1.3112,-0.2301,-0.3905,3.2757,-0.70556,-2.0751,-0.74678,-0.06557,-0.099975,-0.023387,0.1263,0.14003
0.0002437,0.0017821,0.12575,-0.049542,0.07484,-0.04084,0.59387,0.45863,-0.35748,-0.47031,-0.02404,1.1185,1.2986,-0.12041,-0.34356,3.4283,-0.73411,-2.2208,-0.8425,-0.072141,-0.104,-0.030667,0.14192,0.19034
0.0041474,-0.00058785,0.12267,-0.050725,0.097029,-0.24317,0.48948,0.44996,-0.3459,-0.49336,0.055772,1.345,1.3441,-0.0096138,-0.28482,3.3985,-0.73299,-2.3429,-0.95089,-0.071615,-0.10943,-0.039932,0.16298,0.23744
0.0051878,-0.0032039,0.11586,-0.053054,0.12718,-0.39954,0.3681,0.45079,-0.31317,-0.50837,0.15281,1.4808,1.3899,0.092527,-0.22332,3.2396,-0.70696,-2.4147,-1.0119,-0.063723,-0.1164,-0.04882,0.18704,0.27509
0.0041973,-0.004564,0.10663,-0.057356,0.16945,-0.53447,0.24813,0.46208,-0.26038,-0.52087,0.27119,1.4937,1.305,0.18014,-0.16837,3.0444,-0.66007,-2.3951,-0.97712,-0.045233,-0.1245,-0.055592,0.2065,0.29489
0.002985,-0.0038998,0.097133,-0.062534,0.22437,-0.6601,0.1439,0.4885,-0.1978,-0.53017,0.40623,1.3805,0.98806,0.25332,-0.1239,2.8816,-0.59339,-2.2559,-0.84205,-0.014598,-0.1323,-0.060151,0.21447,0.29659
0.003104,-0.0016529,0.08938,-0.066007,0.2856,-0.75812,0.061338,0.53386,-0.13922,-0.52833,0.54477,1.1913,0.46343,0.31748,-0.086065,2.7616,-0.50686,-2.0076,-0.64877,0.023109,-0.13778,-0.063314,0.20878,0.28926
0.0049756,0.0007934,0.084009,-0.065529,0.34226,-0.79068,-0.0011658,0.59785,-0.09289,-0.50331,0.67054,1.0258,-0.10934,0.37936,-0.046409,2.6509,-0.40336,-1.7017,-0.45635,0.056329,-0.13977,-0.065119,0.19282,0.28224
0.00786,0.0019519,0.079533,-0.061023,0.38497,-0.73109,-0.046119,0.67608,-0.056405,-0.44514,0.77002,0.99194,-0.53036,0.44129,0.0012027,2.5162,-0.29117,-1.407,-0.30347,0.073317,-0.13912,-0.064172,0.17303,0.27466
0.010528,0.0011103,0.073002,-0.054832,0.41126,-0.58803,-0.069316,0.76223,-0.019673,-0.35178,0.83546,1.1483,-0.69001,0.49742,0.054989,2.3526,-0.1823,-1.1756,-0.19095,0.070071,-0.13828,-0.059131,0.1549,0.25482
0.012009,-0.0013098,0.062151,-0.050006,0.42721,-0.40318,-0.05864,0.84964,0.026705,-0.23094,0.86488,1.4702,-0.63692,0.53529,0.10528,2.1771,-0.087903,-1.022,-0.093526,0.053537,-0.13923,-0.051139,0.13929,0.21247
0.011868,-0.0041107,0.047651,-0.047974,0.44446,-0.22501,-0.0024636,0.93163,0.084238,-0.097137,0.86115,1.8652,-0.5327,0.54301,0.14053,1.9996,-0.013766,-0.92597,0.013993,0.037341,-0.14147,-0.044473,0.1216,0.15543
0.010014,-0.0060965,0.033478,-0.047576,0.47397,-0.081036,0.097777,1.002,0.14552,0.033577,0.83117,2.2277,-0.53072,0.51779,0.15522,1.8064,0.04068,-0.85221,0.13913,0.033191,-0.14196,-0.043804,0.094927,0.11583
0.0064742,-0.0067354,0.024649,-0.046248,0.51942,0.030378,0.22178,1.0564,0.19926,0.14744,0.7845,2.4949,-0.67184,0.46936,0.15407,1.5733,0.079412,-0.77226,0.27336,0.044149,-0.13708,-0.049681,0.055778,0.13702
0.0015219,-0.0063459,0.023736,-0.042297,0.57307,0.12579,0.33865,1.0947,0.237,0.23463,0.73103,2.6626,-0.87204,0.41479,0.14952,1.2939,0.10533,-0.6763,0.40472,0.064035,-0.12485,-0.05625,0.0087841,0.24657
-0.0039677,-0.0058133,0.028867,-0.036339,0.61685,0.2157,0.4252,1.1207,0.25704,0.29061,0.67855,2.7571,-1.0023,0.36772,0.15412,0.99293,0.11786,-0.57224,0.52602,0.08233,-0.10568,-0.0541,-0.033189,0.43277
-0.0084349,-0.0060598,0.034873,-0.030795,0.62897,0.29547,0.48039,1.14,0.26405,0.31891,0.6324,2.7915,-0.99312,0.32992,0.1728,0.71123,0.11446,-0.47702,0.63181,0.090344,-0.081445,-0.036943,-0.054227,0.64291
-0.010175,-0.0074872,0.036729,-0.028063,0.59352,0.35318,0.52306,1.1567,0.26565,0.33303,0.59743,2.7485,-0.884,0.29164,0.19996,0.47729,0.094546,-0.40647,0.71059,0.084563,-0.054287,-0.0071572,-0.042816,0.80779
-0.0082751,-0.0095964,0.032551,-0.028939,0.50783,0.38396,0.57279,1.1711,0.26876,0.35312,0.57965,2.6031,-0.7876,0.24091,0.22306,0.2946,0.062043,-0.36863,0.74315,0.066116,-0.026553,0.024544,0.0031398,0.87882
-0.0032839,-0.011067,0.023924,-0.032394,0.383,0.3963,0.62866,1.18,0.27745,0.39571,0.58452,2.3618,-0.80402,0.17428,0.23005,0.15402,0.023968,-0.36241,0.71129,0.038273,-0.0012448,0.045618,0.076485,0.85353
0.0029279,-0.010502,0.01373,-0.03653,0.23759,0.40538,0.66393,1.1786,0.29225,0.46213,0.61202,2.0801,-0.95262,0.10094,0.21597,0.053618,-0.013969,-0.38051,0.61124,0.0045298,0.018309,0.049747,0.16506,0.77239
0.0080579,-0.0075581,0.0036604,-0.039725,0.08891,0.42116,0.64238,1.1627,0.31073,0.5347,0.6529,1.8377,-1.166,0.037003,0.18506,9.4443e-005,-0.050692,-0.41368,0.46244,-0.031573,0.030066,0.04048,0.25631,0.69029
0.010427,-0.0036298,-0.0064847,-0.041211,-0.051595,0.44278,0.54368,1.1289,0.32873,0.58589,0.6909,1.6903,-1.339,-0.0047593,0.14784,-0.012196,-0.08861,-0.45312,0.30626,-0.065618,0.034742,0.027944,0.3393,0.64393
0.0095833,-0.0012796,-0.017565,-0.041017,-0.17643,0.4635,0.37695,1.076,0.34199,0.5952,0.71151,1.6357,-1.3875,-0.021679,0.11553,-0.020018,-0.12865,-0.49029,0.19471,-0.091906,0.035281,0.021346,0.40452,0.63819
0.0062821,-0.0025585,-0.029521,-0.039663,-0.27687,0.48057,0.17156,1.0058,0.3477,0.5616,0.7118,1.62,-1.2775,-0.019477,0.09525,-0.078781,-0.16608,-0.51648,0.17337,-0.10439,0.034316,0.02291,0.444,0.65795
0.0020661,-0.0074721,-0.040999,-0.037779,-0.34106,0.5007,-0.045592,0.92552,0.34517,0.50217,0.70379,1.5777,-1.017,-0.0046088,0.088379,-0.21846,-0.19145,-0.52417,0.26407,-0.098737,0.031933,0.027344,0.45383,0.691
-0.0012701,-0.013937,-0.050223,-0.035672,-0.35871,0.53707,-0.26573,0.8482,0.33508,0.43851,0.708,1.4732,-0.63545,0.022167,0.092162,-0.40319,-0.19658,-0.50976,0.45447,-0.074498,0.02615,0.026579,0.43725,0.74065
-0.0022923,-0.019331,-0.055952,-0.032913,-0.32976,0.60148,-0.49365,0.79001,0.31779,0.38203,0.74103,1.3157,-0.17341,0.065376,0.10307,-0.53652,-0.18066,-0.47433,0.70148,-0.035931,0.015915,0.015856,0.40501,0.81867
-0.00062922,-0.02228,-0.057687,-0.028395,-0.26922,0.69816,-0.7292,0.76538,0.29244,0.32915,0.80543,1.1437,0.31608,0.12813,0.11954,-0.52021,-0.15067,-0.42074,0.95071,0.0094312,0.0036124,-0.0032106,0.37056,0.92847
0.0025276,-0.023123,-0.05545,-0.021161,-0.20256,0.82296,-0.9539,0.78137,0.25802,0.2684,0.8881,0.99624,0.76916,0.20516,0.14254,-0.32748,-0.11539,-0.34962,1.1637,0.054289,-0.0059457,-0.024362,0.34267,1.0566
0.0047325,-0.022838,-0.049961,-0.011629,-0.15246,0.96628,-1.1362,0.83483,0.21636,0.19216,0.9673,0.8919,1.1251,0.28189,0.17368,-0.033036,-0.077578,-0.25888,1.3375,0.095392,-0.0097716,-0.041525,0.32069,1.1807
0.0037208,-0.021736,-0.043204,-0.0021727,-0.12554,1.1159,-1.2507,0.91335,0.17441,0.10325,1.0231,0.82518,1.3418,0.34099,0.21233,0.22806,-0.031047,-0.14791,1.501,0.13519,-0.010427,-0.053153,0.29613,1.285
-0.00069006,-0.019349,-0.038355,0.0037759,-0.10914,1.2577,-1.2946,0.99917,0.14325,0.012627,1.0448,0.77537,1.3964,0.3721,0.25363,0.34514,0.034785,-0.021557,1.69,0.1798,-0.015296,-0.063094,0.2594,1.3679
-0.0057635,-0.01555,-0.038339,0.0038227,-0.082293,1.3756,-1.2869,1.0739,0.13251,-0.068097,1.0327,0.71865,1.2723,0.37766,0.28894,0.29771,0.12638,0.11245,1.9144,0.23433,-0.031178,-0.077559,0.20621,1.4357
-0.0072736,-0.011529,-0.043785,-0.0015445,-0.034595,1.4514,-1.2541,1.122,0.14307,-0.13262,0.9945,0.63718,0.95294,0.37064,0.30851,0.15449,0.24013,0.25206,2.142,0.29869,-0.058332,-0.10041,0.13942,1.4917
-0.0026808,-0.0093829,-0.052269,-0.0088894,0.020721,1.4673,-1.2137,1.1331,0.16286,-0.1809,0.93942,0.52301,0.44361,0.36555,0.30509,0.010705,0.36298,0.40712,2.3099,0.36682,-0.088945,-0.13007,0.066279,1.534
0.0063051,-0.010501,-0.059958,-0.013829,0.051011,1.4102,-1.169,1.1042,0.1701,-0.21625,0.87367,0.37626,-0.19034,0.36858,0.27678,-0.084396,0.47829,0.59437,2.3577,0.42994,-0.1115,-0.16014,-0.0051679,1.564
0.014224,-0.014305,-0.064602,-0.013797,0.025434,1.2773,-1.114,1.0412,0.1439,-0.2421,0.79827,0.19736,-0.80997,0.3736,0.22825,-0.154,0.57221,0.82224,2.2592,0.48095,-0.11759,-0.18279,-0.06789,1.5926
0.01562,-0.018598,-0.067296,-0.0095896,-0.060856,1.0818,-1.042,0.95983,0.077102,-0.26063,0.70989,-0.022589,-1.2478,0.3666,0.17018,-0.25902,0.63688,1.0772,2.0342,0.5169,-0.10591,-0.19249,-0.11645,1.6332
0.0093115,-0.021306,-0.071345,-0.0045901,-0.17804,0.85433,-0.95009,0.8826,-0.016723,-0.27311,0.60388,-0.30499,-1.3989,0.33581,0.11696,-0.4364,0.66997,1.3239,1.7334,0.53803,-0.080887,-0.18729,-0.14919,1.6842
-0.0004605,-0.022059,-0.079118,-0.0022716,-0.27706,0.63701,-0.84028,0.83156,-0.10734,-0.28052,0.47781,-0.67232,-1.2943,0.28065,0.082211,-0.6619,0.67295,1.5197,1.4104,0.545,-0.04806,-0.16777,-0.17248,1.7174
-0.0072644,-0.022282,-0.089658,-0.0038589,-0.31935,0.4686,-0.71986,0.82003,-0.16193,-0.28376,0.33395,-1.1236,-1.0936,0.21331,0.072938,-0.86357,0.64966,1.6309,1.0995,0.53698,-0.010652,-0.13549,-0.20274,1.6891
-0.0075339,-0.023803,-0.099177,-0.007824,-0.29921,0.36792,-0.60203,0.84717,-0.16134,-0.28312,0.1795,-1.6107,-0.98536,0.15189,0.084463,-0.96899,0.60499,1.6404,0.81138,0.51215,0.030099,-0.092978,-0.26087,1.5687
-0.003128,-0.027221,-0.10403,-0.011406,-0.24171,0.32563,-0.50361,0.89912,-0.10859,-0.27765,0.024571,-2.0351,-1.0624,0.10994,0.099732,-0.94643,0.54349,1.5432,0.54342,0.46983,0.072178,-0.044788,-0.3581,1.3632
0.00081818,-0.03133,-0.1036,-0.012767,-0.17836,0.31194,-0.43807,0.95633,-0.024721,-0.26482,-0.12087,-2.2766,-1.2639,0.089571,0.095377,-0.8126,0.46812,1.3436,0.29422,0.4124,0.11103,0.0020589,-0.48123,1.1175
0.00072562,-0.033937,-0.10087,-0.012018,-0.12089,0.29637,-0.40727,1.0029,0.064768,-0.24131,-0.24999,-2.2457,-1.4287,0.082803,0.053026,-0.61163,0.38117,1.0597,0.068673,0.34548,0.14075,0.039819,-0.58999,0.88924
-0.0023715,-0.033343,-0.10027,-0.010477,-0.054821,0.26558,-0.39871,1.0321,0.14325,-0.20517,-0.36082,-1.9319,-1.4172,0.079105,-0.029767,-0.38986,0.28731,0.73098,-0.1272,0.27654,0.15701,0.062971,-0.63426,0.71941
-0.00428,-0.029424,-0.10485,-0.0091361,0.042618,0.22591,-0.39149,1.0463,0.2075,-0.15861,-0.45637,-1.4205,-1.2061,0.072768,-0.13559,-0.1851,0.19648,0.41428,-0.29436,0.21263,0.15884,0.069991,-0.58471,0.61858
-0.0020542,-0.023646,-0.11462,-0.0079522,0.17648,0.18945,-0.36714,1.051,0.2621,-0.10917,-0.54314,-0.86234,-0.88653,0.0644,-0.23346,-0.028041,0.12303,0.1611,-0.44138,0.15863,0.14791,0.062616,-0.45712,0.57343
0.0029685,-0.018126,-0.12694,-0.0065879,0.32332,0.15719,-0.31682,1.0502,0.31013,-0.06768,-0.62853,-0.40996,-0.57847,0.056319,-0.29247,0.057727,0.080176,-0.0098669,-0.57464,0.11676,0.12664,0.043714,-0.31013,0.55922
0.0064209,-0.014417,-0.13822,-0.0056265,0.44507,0.11557,-0.24033,1.0441,0.34857,-0.043137,-0.71795,-0.15318,-0.34208,0.046829,-0.29549,0.063386,0.073068,-0.12188,-0.68537,0.087614,0.09737,0.016122,-0.21273,0.5443
0.0051656,-0.012802,-0.14575,-0.0066992,0.51579,0.05071,-0.14022,1.0306,0.37159,-0.037633,-0.81259,-0.089051,-0.15889,0.029035,-0.24585,0.0019773,0.09589,-0.21848,-0.74596,0.071893,0.063328,-0.016592,-0.20135,0.488
0.00039614,-0.0125,-0.14903,-0.011058,0.53863,-0.032887,-0.018257,1.0088,0.37749,-0.045055,-0.90839,-0.14115,0.013703,-0.0044161,-0.16401,-0.096864,0.13559,-0.32508,-0.72263,0.070999,0.029868,-0.048923,-0.25715,0.34639
-0.0033973,-0.012542,-0.15001,-0.017871,0.53996,-0.10782,0.1219,0.98037,0.37177,-0.054861,-0.99638,-0.21472,0.17863,-0.054519,-0.077615,-0.20424,0.17949,-0.42454,-0.59868,0.085533,0.0038848,-0.074037,-0.32183,0.094403
-0.0025436,-0.012615,-0.15196,-0.024073,0.54743,-0.14029,0.26925,0.94989,0.36297,-0.058539,-1.0644,-0.25314,0.29215,-0.11266,-0.010796,-0.30758,0.22083,-0.46825,-0.39144,0.11239,-0.008835,-0.086584,-0.34081,-0.24706
0.0025664,-0.013233,-0.15726,-0.026248,0.57137,-0.11491,0.40438,0.92295,0.3549,-0.054271,-1.1,-0.26245,0.3188,-0.16371,0.02214,-0.41126,0.2586,-0.41494,-0.14777,0.14339,-0.0064769,-0.085608,-0.30048,-0.60447
0.0080765,-0.015125,-0.16525,-0.02307,0.60359,-0.046273,0.50617,0.90479,0.34297,-0.046701,-1.095,-0.29244,0.28938,-0.19335,0.017805,-0.5239,0.29341,-0.26671,0.082768,0.16799,0.0079314,-0.074892,-0.23086,-0.8807
0.010304,-0.018361,-0.17188,-0.016168,0.63091,0.032844,0.56229,0.89913,0.31893,-0.042321,-1.0491,-0.39121,0.29764,-0.19503,-0.018013,-0.64663,0.32409,-0.07444,0.27876,0.17926,0.028245,-0.060211,-0.17329,-1.0069
0.0088334,-0.021955,-0.1721,-0.0086789,0.64875,0.096067,0.57637,0.90738,0.28104,-0.043957,-0.97169,-0.5657,0.43018,-0.17247,-0.072295,-0.77399,0.34837,0.090296,0.45754,0.17879,0.048166,-0.045677,-0.14208,-0.98201
0.0062933,-0.024296,-0.16368,-0.0028469,0.66265,0.13852,0.56697,0.92797,0.24157,-0.048165,-0.87873,-0.77341,0.68866,-0.13722,-0.12674,-0.90342,0.36573,0.17439,0.65451,0.17551,0.063517,-0.032057,-0.1134,-0.87075
0.0054018,-0.024129,-0.14941,0.0012405,0.67869,0.16944,0.55941,0.95588,0.22482,-0.047143,-0.78536,-0.94714,0.97477,-0.10331,-0.16149,-1.0391,0.37842,0.16683,0.88583,0.17828,0.072795,-0.018085,-0.050096,-0.75981
0.0063962,-0.021342,-0.13576,0.0049196,0.69414,0.19093,0.57488,0.9824,0.25588,-0.03388,-0.69855,-1.033,1.1543,-0.081678,-0.16151,-1.1822,0.38882,0.095682,1.1247,0.18771,0.076298,-0.003271,0.060204,-0.70524
0.0072374,-0.016998,-0.12861,0.009253,0.69801,0.18513,0.62096,0.9955,0.34657,-0.0073921,-0.61458,-1.0159,1.1499,-0.076274,-0.12322,-1.3179,0.39573,0.0071412,1.3126,0.19428,0.074701,0.010251,0.18705,-0.7072
0.0060359,-0.012676,-0.12931,0.014077,0.68077,0.12483,0.68641,0.98177,0.48651,0.025307,-0.52416,-0.92019,0.98947,-0.082792,-0.056925,-1.4163,0.39383,-0.057298,1.3986,0.18522,0.067897,0.018096,0.27468,-0.72606
0.0030474,-0.0097027,-0.13408,0.018482,0.64395,0.00052785,0.74338,0.93084,0.6435,0.052384,-0.42158,-0.79052,0.77824,-0.090525,0.017724,-1.4536,0.37768,-0.074984,1.376,0.15488,0.054614,0.015595,0.28,-0.72162
0.00030013,-0.0088304,-0.13696,0.021916,0.60098,-0.15998,0.7588,0.84179,0.77253,0.064644,-0.31121,-0.66824,0.62307,-0.087324,0.08101,-1.4381,0.34673,-0.046045,1.2859,0.10986,0.033036,-0.0001087,0.20051,-0.68393
-0.00053257,-0.010401,-0.13382,0.024685,0.56849,-0.29894,0.71257,0.72843,0.82988,0.063393,-0.20564,-0.57681,0.56897,-0.06609,0.12119,-1.4156,0.30659,0.010762,1.1868,0.064162,0.0023331,-0.028747,0.071862,-0.63667
0.00026871,-0.014525,-0.12417,0.027478,0.55515,-0.36098,0.61246,0.6182,0.78807,0.063405,-0.11672,-0.51936,0.58819,-0.029454,0.13618,-1.4433,0.26527,0.06874,1.1152,0.028301,-0.035649,-0.066446,-0.059596,-0.61784
0.00089825,-0.020883,-0.11015,0.030609,0.55619,-0.32747,0.49315,0.54181,0.64725,0.087629,-0.046483,-0.48532,0.61735,0.010754,0.12903,-1.5499,0.22789,0.10794,1.0692,0.001365,-0.075664,-0.10584,-0.16639,-0.65691
-0.00020763,-0.028325,-0.094194,0.033812,0.55668,-0.22811,0.39518,0.51713,0.43769,0.15525,0.014485,-0.46131,0.60701,0.039843,0.10231,-1.7117,0.19489,0.12751,1.0259,-0.027177,-0.11005,-0.13697,-0.25115,-0.76276
-0.0031766,-0.034857,-0.077549,0.036663,0.5402,-0.12201,0.33523,0.53713,0.20988,0.26968,0.079259,-0.44236,0.54902,0.048804,0.056952,-1.8662,0.16534,0.14805,0.9719,-0.067527,-0.1311,-0.14941,-0.33599,-0.9238
-0.0070968,-0.038377,-0.060401,0.039068,0.49717,-0.062981,0.28992,0.57145,0.014341,0.41386,0.15351,-0.43893,0.47008,0.039162,-0.0037257,-1.9512,0.14192,0.20168,0.91949,-0.11966,-0.13365,-0.13549,-0.44151,-1.1126
-0.011184,-0.03783,-0.042803,0.041303,0.42821,-0.072883,0.20905,0.58325,-0.11948,0.55618,0.22991,-0.47518,0.40195,0.020498,-0.069277,-1.9415,0.13251,0.31647,0.89544,-0.17133,-0.11666,-0.093597,-0.57016,-1.2905
-0.0152,-0.03389,-0.025184,0.043662,0.34228,-0.13782,0.052537,0.55113,-0.19309,0.66355,0.29256,-0.57646,0.34962,0.0024779,-0.12268,-1.8572,0.14616,0.50502,0.91446,-0.20527,-0.083561,-0.030049,-0.70169,-1.4134
-0.018736,-0.028606,-0.0081766,0.04616,0.25165,-0.22439,-0.17535,0.48087,-0.23082,0.71429,0.32792,-0.75179,0.27788,-0.012347,-0.14768,-1.7441,0.18637,0.76261,0.96311,-0.20965,-0.041615,0.041713,-0.80041,-1.4439
-0.02051,-0.024209,0.0076978,0.048487,0.16684,-0.30098,-0.42137,0.39807,-0.25915,0.70433,0.33369,-0.98189,0.12771,-0.029315,-0.13851,-1.6439,0.24662,1.0715,1.0076,-0.18432,-0.00061732,0.10459,-0.82966,-1.3667
-0.01896,-0.021954,0.022067,0.050115,0.093614,-0.35016,-0.61405,0.32724,-0.28782,0.64513,0.31918,-1.222,-0.1428,-0.055687,-0.1046,-1.5783,0.31159,1.405,1.0176,-0.13933,0.029208,0.14298,-0.76733,-1.1993
-0.013883,-0.021732,0.034647,0.050378,0.032628,-0.36868,-0.70741,0.2735,-0.30641,0.55608,0.29782,-1.4194,-0.517,-0.093279,-0.065985,-1.5514,0.36346,1.7302,0.98525,-0.088257,0.04024,0.14789,-0.61616,-0.98921
-0.0074244,-0.022531,0.04543,0.048652,-0.01829,-0.36053,-0.70442,0.22114,-0.29846,0.45582,0.27838,-1.5347,-0.90955,-0.13606,-0.041951,-1.5613,0.38915,2.0122,0.92532,-0.041711,0.030502,0.12006,-0.4032,-0.79506
-0.0030514,-0.023219,0.054976,0.044822,-0.059917,-0.33098,-0.64317,0.14933,-0.26151,0.35646,0.26193,-1.5548,-1.2038,-0.17457,-0.040079,-1.607,0.38491,2.2217,0.85986,-0.004674,0.0049205,0.06971,-0.16795,-0.66082
-0.0030975,-0.023081,0.064336,0.03984,-0.087133,-0.2848,-0.55913,0.051043,-0.21595,0.26246,0.24569,-1.4898,-1.3192,-0.20304,-0.05293,-1.6864,0.35607,2.3447,0.80031,0.022276,-0.026558,0.012605,0.054314,-0.59677
-0.0069791,-0.02189,0.074416,0.035734,-0.087324,-0.2269,-0.45648,-0.060979,-0.19361,0.17377,0.22932,-1.3589,-1.2623,-0.22299,-0.063972,-1.7893,0.31326,2.3863,0.73946,0.040476,-0.053505,-0.036167,0.24386,-0.57779
-0.011731,-0.019701,0.085343,0.034568,-0.044827,-0.16217,-0.31262,-0.16536,-0.21322,0.090799,0.21771,-1.1759,-1.1238,-0.24054,-0.058181,-1.8942,0.26725,2.3657,0.65467,0.051721,-0.06969,-0.068012,0.39653,-0.5595
-0.014388,-0.01668,0.096554,0.036791,0.048673,-0.093967,-0.11086,-0.24933,-0.26203,0.017472,0.21763,-0.94569,-1.0191,-0.26047,-0.030175,-1.9709,0.22501,2.3072,0.5173,0.058143,-0.075118,-0.083269,0.51519,-0.50236
-0.014063,-0.013143,0.10764,0.040282,0.18344,-0.023101,0.12901,-0.31593,-0.30034,-0.040124,0.23158,-0.67195,-1.0161,-0.28245,0.014603,-1.9871,0.18824,2.2313,0.30438,0.062244,-0.074429,-0.089046,0.60182,-0.39005
-0.011986,-0.0097248,0.11906,0.041251,0.32971,0.050892,0.35082,-0.37488,-0.28891,-0.07856,0.25435,-0.3674,-1.102,-0.3026,0.064878,-1.9164,0.1541,2.1488,0.011618,0.066042,-0.073188,-0.093876,0.65679,-0.23356
-0.0097687,-0.0073878,0.13178,0.036755,0.44988,0.12713,0.49475,-0.42679,-0.22032,-0.10123,0.27555,-0.056337,-1.2093,-0.31797,0.11014,-1.7459,0.11717,2.0558,-0.33479,0.069582,-0.074705,-0.10248,0.68393,-0.062428
-0.0078174,-0.0069856,0.14614,0.027056,0.52008,0.20211,0.53595,-0.4567,-0.12935,-0.1177,0.28634,0.23552,-1.2724,-0.32935,0.14452,-1.483,0.071766,1.932,-0.6753,0.070028,-0.079044,-0.11367,0.69381,0.089352
-0.005453,-0.0084934,0.161,0.01582,0.54674,0.27132,0.49745,-0.44499,-0.071916,-0.13811,0.28526,0.49551,-1.268,-0.33957,0.16657,-1.1586,0.013894,1.7462,-0.93177,0.062318,-0.083926,-0.12218,0.69972,0.19524
-0.0023956,-0.010511,0.17434,0.0076646,0.56384,0.33209,0.42816,-0.38717,-0.086165,-0.16674,0.27877,0.72918,-1.2109,-0.34929,0.17675,-0.82262,-0.057088,1.4741,-1.039,0.04123,-0.086128,-0.12242,0.70815,0.24379
0.00022726,-0.010765,0.1847,0.0047275,0.6092,0.38436,0.3666,-0.30552,-0.16425,-0.19987,0.2764,0.94869,-1.1226,-0.35472,0.17513,-0.531,-0.13775,1.119,-0.97781,0.0037496,-0.082496,-0.11157,0.71167,0.24239
0.00069991,-0.0076481,0.19216,0.0049608,0.69508,0.42783,0.32061,-0.24146,-0.25644,-0.22947,0.28422,1.1529,-1.0087,-0.34971,0.16072,-0.32821,-0.22128,0.72154,-0.78697,-0.049422,-0.070773,-0.090325,0.69087,0.21622
-0.0012994,-0.0017569,0.19774,0.0036441,0.79522,0.45843,0.27659,-0.23319,-0.30479,-0.24919,0.30134,1.3172,-0.867,-0.33063,0.13231,-0.23175,-0.29965,0.34497,-0.54485,-0.11367,-0.050738,-0.061825,0.6255,0.19919
-0.0036843,0.0040435,0.20183,-0.0029406,0.86019,0.4684,0.22402,-0.29461,-0.28093,-0.25802,0.32107,1.4056,-0.71119,-0.29977,0.089866,-0.2259,-0.36603,0.041842,-0.3301,-0.18133,-0.025277,-0.030321,0.50838,0.21744
-0.0033314,0.0065372,0.20346,-0.014577,0.85108,0.45189,0.16999,-0.40988,-0.20077,-0.25965,0.33455,1.3976,-0.58086,-0.26456,0.035783,-0.26813,-0.41635,-0.1735,-0.18826,-0.24317,-0.00021591,-0.00046796,0.35347,0.27334
0.0010875,0.0047793,0.2014,-0.027318,0.76684,0.41175,0.13079,-0.54575,-0.10761,-0.25939,0.33346,1.3066,-0.52063,-0.2337,-0.024884,-0.30757,-0.44923,-0.32599,-0.12467,-0.2903,0.017854,0.02306,0.19279,0.34219
0.0074193,0.0011722,0.1961,-0.036648,0.6449,0.36083,0.11185,-0.67162,-0.039665,-0.26161,0.31033,1.1743,-0.54646,-0.21336,-0.085291,-0.30928,-0.46531,-0.45377,-0.12223,-0.31639,0.024813,0.036435,0.062828,0.38721
0.011325,-0.00022056,0.19026,-0.040981,0.5358,0.31471,0.097862,-0.77394,-0.0078846,-0.26898,0.25829,1.0437,-0.63098,-0.20624,-0.13865,-0.27319,-0.46701,-0.57729,-0.16395,-0.31987,0.021127,0.038015,-0.012973,0.38407
0.0097252,0.0030545,0.18707,-0.042614,0.47279,0.28007,0.06358,-0.85749,0.0018602,-0.28247,0.17287,0.93445,-0.72308,-0.21267,-0.18003,-0.23626,-0.45884,-0.68953,-0.24004,-0.30503,0.011184,0.029204,-0.036368,0.33681
0.0034852,0.0097603,0.1872,-0.045507,0.45925,0.248,-0.0049245,-0.93594,0.0090247,-0.3015,0.055726,0.84335,-0.78508,-0.2317,-0.2068,-0.25346,-0.44689,-0.77385,-0.33833,-0.281,0.00033496,0.01391,-0.033297,0.27188
-0.003079,0.015993,0.18763,-0.051939,0.4789,0.1982,-0.098883,-1.0195,0.020684,-0.32463,-0.083582,0.76573,-0.81545,-0.26048,-0.21743,-0.36632,-0.43682,-0.83097,-0.43436,-0.25827,-0.0079706,-0.0031682,-0.038798,0.21452
-0.0055624,0.018497,0.18345,-0.060888,0.51403,0.11195,-0.19516,-1.1083,0.029939,-0.35153,-0.2312,0.7156,-0.83961,-0.29292,-0.20965,-0.57738,-0.43101,-0.88959,-0.49763,-0.24391,-0.012778,-0.018204,-0.075913,0.16674
-0.00292,0.017325,0.17176,-0.069262,0.55252,-0.015493,-0.27505,-1.1934,0.02807,-0.38453,-0.37707,0.72032,-0.88057,-0.31964,-0.17999,-0.84611,-0.42741,-0.99011,-0.51233,-0.23823,-0.013953,-0.028803,-0.14186,0.10534
0.0018382,0.015492,0.15431,-0.074583,0.57935,-0.17163,-0.33525,-1.2654,0.016103,-0.42685,-0.52102,0.79089,-0.93691,-0.33051,-0.12581,-1.1069,-0.42127,-1.1556,-0.49295,-0.23495,-0.010357,-0.033582,-0.21113,0.0021345
0.0042077,0.015998,0.13661,-0.076688,0.567,-0.33411,-0.38193,-1.3211,0.0040485,-0.47704,-0.67033,0.89429,-0.98547,-0.3185,-0.048745,-1.2942,-0.40864,-1.3737,-0.47666,-0.22536,-5.4917e-005,-0.031792,-0.25396,-0.15031
0.001843,0.019077,0.12402,-0.077265,0.48138,-0.48295,-0.41615,-1.3661,-0.00078778,-0.52388,-0.82904,0.95679,-1.0019,-0.28265,0.043058,-1.3582,-0.38847,-1.6022,-0.49488,-0.20367,0.017421,-0.023709,-0.25728,-0.32845
-0.003616,0.022162,0.11796,-0.078074,0.30436,-0.60918,-0.42671,-1.4102,-0.0041212,-0.54817,-0.98752,0.90167,-0.97837,-0.22841,0.13606,-1.2641,-0.3616,-1.7912,-0.54752,-0.17023,0.038931,-0.011392,-0.23375,-0.49128
-0.0078725,0.022474,0.11508,-0.079646,0.05461,-0.71578,-0.39817,-1.4593,-0.022626,-0.53366,-1.1222,0.69505,-0.9246,-0.16553,0.21525,-0.98699,-0.32816,-1.903,-0.60369,-0.13057,0.058075,0.0013687,-0.21313,-0.60635
-0.0072753,0.019633,0.10992,-0.081383,-0.21384,-0.81193,-0.32609,-1.5107,-0.070194,-0.48009,-1.2078,0.36565,-0.85671,-0.10534,0.26824,-0.51307,-0.28664,-1.9174,-0.63025,-0.091583,0.068362,0.010512,-0.22389,-0.66789
-0.0015213,0.015825,0.098902,-0.082478,-0.4382,-0.90556,-0.22421,-1.5551,-0.14435,-0.40737,-1.2329,-0.014677,-0.78816,-0.058557,0.28715,0.14986,-0.23628,-1.8278,-0.62383,-0.058255,0.067108,0.013908,-0.27858,-0.69433
0.0061824,0.013526,0.082528,-0.082507,-0.58015,-0.99823,-0.11632,-1.5835,-0.22522,-0.3445,-1.2067,-0.37216,-0.73036,-0.033638,0.26829,0.96451,-0.18059,-1.6363,-0.61684,-0.033346,0.057264,0.012705,-0.37152,-0.71013
0.011446,0.013138,0.064631,-0.08125,-0.64147,-1.0846,-0.019938,-1.5927,-0.28912,-0.30997,-1.1506,-0.66451,-0.69706,-0.035074,0.21164,1.8687,-0.12801,-1.3575,-0.64955,-0.019028,0.045852,0.01067,-0.48628,-0.72844
0.011701,0.012827,0.049612,-0.078332,-0.65291,-1.156,0.063384,-1.585,-0.3262,-0.29875,-1.0832,-0.88976,-0.70172,-0.061247,0.12194,2.789,-0.087765,-1.0239,-0.72968,-0.017578,0.039937,0.01178,-0.60353,-0.74833
0.0077524,0.010611,0.039925,-0.073388,-0.64849,-1.2057,0.14331,-1.5624,-0.34822,-0.28727,-1.0102,-1.0764,-0.74591,-0.10316,0.0099365,3.6491,-0.063754,-0.68425,-0.81365,-0.029287,0.042528,0.017607,-0.70337,-0.76624
0.0029627,0.0065184,0.035271,-0.066731,-0.64599,-1.2331,0.22703,-1.5216,-0.37968,-0.25329,-0.9282,-1.2689,-0.80852,-0.1459,-0.10879,4.366,-0.051428,-0.39287,-0.82694,-0.04927,0.050729,0.026202,-0.76489,-0.78953
0.00084731,0.0027282,0.033392,-0.059747,-0.64479,-1.2425,0.30969,-1.4546,-0.43883,-0.19433,-0.83616,-1.5142,-0.84793,-0.17363,-0.21885,4.8471,-0.0404,-0.19292,-0.71051,-0.066998,0.057255,0.033229,-0.76996,-0.83924
0.0028614,0.0016253,0.031431,-0.054379,-0.63611,-1.2391,0.37703,-1.3562,-0.52284,-0.12943,-0.74226,-1.8444,-0.81897,-0.1763,-0.31091,5.0083,-0.020625,-0.1037,-0.45987,-0.07063,0.054705,0.034752,-0.7137,-0.9392
0.0077822,0.0036978,0.027055,-0.051983,-0.6127,-1.2231,0.4164,-1.2315,-0.60836,-0.083,-0.65924,-2.2564,-0.69589,-0.15462,-0.38385,4.8182,0.012842,-0.11618,-0.13029,-0.053779,0.040393,0.030089,-0.61409,-1.0995
0.012834,0.0071923,0.019136,-0.052513,-0.57114,-1.1895,0.42553,-1.0959,-0.66704,-0.065311,-0.59215,-2.7007,-0.4896,-0.11998,-0.44102,4.3388,0.05965,-0.19628,0.19274,-0.019455,0.018799,0.023055,-0.50957,-1.3056
0.015542,0.0096749,0.0080281,-0.05474,-0.50996,-1.1329,0.41173,-0.96801,-0.68487,-0.066065,-0.53103,-3.0986,-0.25191,-0.088841,-0.4839,3.7212,0.11714,-0.2938,0.4345,0.022247,-0.00037574,0.020648,-0.44048,-1.5202
0.015048,0.0099231,-0.0047118,-0.057322,-0.43064,-1.0539,0.38433,-0.85807,-0.67132,-0.065148,-0.45666,-3.3836,-0.063147,-0.07462,-0.50933,3.1417,0.18244,-0.3559,0.5567,0.060917,-0.0078882,0.029586,-0.42439,-1.6936
0.01223,0.0084928,-0.017264,-0.059747,-0.3422,-0.9607,0.34876,-0.76291,-0.65209,-0.049273,-0.35545,-3.5381,-0.00051191,-0.08096,-0.51304,2.7125,0.25139,-0.34361,0.55733,0.091317,-0.00089546,0.052375,-0.44301,-1.7791
0.0088818,0.0067196,-0.028785,-0.062364,-0.26319,-0.86364,0.30749,-0.66972,-0.65102,-0.019223,-0.23114,-3.5918,-0.092119,-0.099564,-0.49606,2.4316,0.31615,-0.24518,0.45468,0.11315,0.015064,0.085133,-0.45227,-1.747
0.0066063,0.0053324,-0.040056,-0.065522,-0.21481,-0.76861,0.26487,-0.56601,-0.67424,0.017182,-0.10315,-3.5772,-0.2779,-0.11317,-0.46752,2.2104,0.36538,-0.077517,0.2734,0.12612,0.029725,0.11864,-0.41036,-1.5948
0.0060379,0.0040042,-0.052853,-0.068636,-0.20766,-0.67573,0.22872,-0.44806,-0.70766,0.057208,0.0071031,-3.4792,-0.41191,-0.10249,-0.44044,1.9582,0.38876,0.12794,0.042634,0.12582,0.034847,0.14222,-0.30436,-1.3523
0.006635,0.0020874,-0.068297,-0.070037,-0.23202,-0.58525,0.20572,-0.32246,-0.72838,0.10724,0.090612,-3.2291,-0.32727,-0.055156,-0.42436,1.6567,0.38274,0.34676,-0.1987,0.1056,0.029039,0.14848,-0.157,-1.0763
0.0070681,-0.00037356,-0.085391,-0.067807,-0.26106,-0.50373,0.19514,-0.20092,-0.72092,0.17478,0.15475,-2.7568,0.058816,0.026387,-0.42166,1.3711,0.35247,0.57378,-0.4011,0.063508,0.017174,0.13618,-0.0098898,-0.83352
0.006062,-0.0024384,-0.1009,-0.061014,-0.26619,-0.44194,0.18814,-0.093071,-0.68602,0.25699,0.2146,-2.0636,0.66776,0.12172,-0.43096,1.1965,0.30752,0.81448,-0.51491,0.0083706,0.0054043,0.1101,0.10302,-0.67367
0.0033352,-0.0031048,-0.11088,-0.050468,-0.23399,-0.40379,0.17448,-0.0024235,-0.63658,0.33793,0.27986,-1.2537,1.2777,0.19763,-0.45366,1.1929,0.25463,1.0609,-0.50788,-0.041305,-0.0036747,0.078389,0.17246,-0.60746
4.5042e-005,-0.0023761,-0.11283,-0.038505,-0.17279,-0.37628,0.15039,0.072647,-0.58573,0.39769,0.34817,-0.48973,1.6444,0.22152,-0.49643,1.3559,0.19366,1.2736,-0.37916,-0.066514,-0.011624,0.049056,0.21133,-0.60198
-0.0017635,-0.0014982,-0.10734,-0.027969,-0.10535,-0.3322,0.11981,0.1347,-0.53725,0.42494,0.40932,0.099595,1.6495,0.17701,-0.56601,1.6318,0.12035,1.3896,-0.161,-0.058987,-0.020581,0.027534,0.2384,-0.6006
-0.00058672,-0.0020427,-0.09797,-0.021044,-0.055063,-0.24731,0.087551,0.18353,-0.48585,0.42133,0.4554,0.49116,1.3709,0.072666,-0.66054,1.9478,0.033636,1.3553,0.093092,-0.026313,-0.029427,0.015718,0.26264,-0.55713
0.0031672,-0.004588,-0.089706,-0.018528,-0.036601,-0.11992,0.051554,0.21594,-0.42533,0.39466,0.4878,0.76688,1.0206,-0.062725,-0.76535,2.2286,-0.059131,1.16,0.32837,0.013027,-0.033772,0.012222,0.27957,-0.46356
0.00707,-0.008173,-0.086482,-0.019711,-0.055994,0.023707,0.0031026,0.22934,-0.3566,0.34856,0.51546,1.0446,0.7991,-0.19569,-0.85804,2.4035,-0.14399,0.84293,0.50864,0.041222,-0.029999,0.013274,0.27948,-0.35276
0.0082489,-0.011038,-0.089263,-0.022709,-0.11535,0.1444,-0.063827,0.22708,-0.28859,0.27959,0.54667,1.3943,0.77876,-0.30424,-0.9199,2.4224,-0.20836,0.46559,0.62701,0.050938,-0.01955,0.014012,0.25952,-0.27406
0.0056664,-0.01199,-0.095773,-0.025061,-0.21342,0.21591,-0.14212,0.2217,-0.23212,0.18457,0.58188,1.7984,0.89751,-0.38375,-0.94593,2.2831,-0.24909,0.07462,0.70179,0.046554,-0.009095,0.010175,0.23023,-0.25864
0.0012593,-0.011161,-0.10223,-0.024582,-0.3386,0.24311,-0.21023,0.23327,-0.1928,0.070487,0.61342,2.1731,1.0482,-0.43982,-0.94686,2.043,-0.27457,-0.31431,0.75815,0.036735,-0.0058385,-0.00010561,0.21284,-0.29853
-0.0012674,-0.0095067,-0.10608,-0.020439,-0.46064,0.26025,-0.24268,0.28244,-0.16877,-0.043442,0.63207,2.4262,1.1732,-0.47528,-0.94257,1.7863,-0.29916,-0.69778,0.80549,0.024941,-0.011801,-0.01526,0.2294,-0.3537
0.0006707,-0.007711,-0.10786,-0.013972,-0.53219,0.31122,-0.22507,0.3811,-0.15355,-0.13464,0.63471,2.5066,1.2837,-0.48238,-0.95103,1.5595,-0.33407,-1.0521,0.82614,0.005838,-0.022115,-0.030885,0.2913,-0.38109
0.0062399,-0.0057122,-0.11052,-0.0084603,-0.505,0.42524,-0.16235,0.52556,-0.13977,-0.18975,0.62711,2.4214,1.4059,-0.4463,-0.97817,1.3259,-0.38064,-1.3228,0.78588,-0.029483,-0.02909,-0.042096,0.39205,-0.36363
0.011556,-0.0034173,-0.1168,-0.0073973,-0.354,0.60226,-0.075289,0.6965,-0.1201,-0.21049,0.62016,2.2219,1.5224,-0.35682,-1.0124,0.98869,-0.42988,-1.4516,0.66135,-0.084026,-0.028743,-0.046486,0.50871,-0.31806
0.012684,-0.0017468,-0.1265,-0.011983,-0.093285,0.81395,0.010926,0.86617,-0.086239,-0.20859,0.62295,1.9764,1.576,-0.21925,-1.0261,0.47382,-0.46812,-1.4222,0.46485,-0.14938,-0.024171,-0.045769,0.61214,-0.27648
0.0088803,-0.002592,-0.13624,-0.019632,0.22771,1.0175,0.077495,1.0098,-0.029997,-0.19546,0.638,1.7452,1.5287,-0.056794,-0.98564,-0.19031,-0.48496,-1.2821,0.24568,-0.20919,-0.022778,-0.044769,0.68051,-0.25722
0.0032812,-0.0072627,-0.14195,-0.02507,0.5467,1.174,0.11665,1.1146,0.051825,-0.17601,0.6613,1.5653,1.4159,0.097298,-0.86775,-0.86497,-0.47869,-1.1173,0.064386,-0.2492,-0.02968,-0.048079,0.70715,-0.24828
0.00030658,-0.014704,-0.14218,-0.023805,0.81542,1.2635,0.13081,1.182,0.15187,-0.15117,0.68584,1.4466,1.3362,0.21354,-0.67599,-1.3755,-0.45637,-0.99412,-0.042911,-0.26587,-0.043007,-0.056484,0.69765,-0.2165
0.0019836,-0.021397,-0.13942,-0.015611,1.0142,1.2904,0.12967,1.2225,0.25183,-0.12494,0.7055,1.3794,1.3833,0.27886,-0.44539,-1.6092,-0.42854,-0.91545,-0.083814,-0.26705,-0.055196,-0.065566,0.65954,-0.13449
0.00643,-0.023559,-0.1382,-0.0051379,1.1476,1.2777,0.12693,1.2468,0.32963,-0.1076,0.71693,1.3487,1.5787,0.30216,-0.22842,-1.5618,-0.40236,-0.82601,-0.099125,-0.26448,-0.059159,-0.06763,0.59516,-0.0035192
0.0098283,-0.020067,-0.14168,0.0012927,1.2272,1.2532,0.13562,1.2615,0.37027,-0.1106,0.71957,1.3458,1.8592,0.30969,-0.067288,-1.3048,-0.37751,-0.66298,-0.13205,-0.26479,-0.05396,-0.055833,0.50496,0.14577
0.010012,-0.013559,-0.14937,0.00048605,1.2564,1.236,0.16196,1.2694,0.37259,-0.13696,0.71512,1.3673,2.1223,0.33157,0.029877,-0.91546,-0.34809,-0.41143,-0.20154,-0.26585,-0.045147,-0.027972,0.39764,0.27392
0.008287,-0.0085466,-0.15792,-0.0050724,1.2278,1.2314,0.20135,1.2742,0.3474,-0.17557,0.70694,1.4046,2.2839,0.38516,0.090782,-0.43728,-0.30907,-0.12167,-0.29873,-0.26074,-0.039648,0.012212,0.29469,0.35668
0.0078164,-0.0079496,-0.16405,-0.0092363,1.1322,1.2383,0.24149,1.282,0.30911,-0.20551,0.69898,1.4348,2.3064,0.46412,0.15553,0.10061,-0.26255,0.12166,-0.40534,-0.24501,-0.039892,0.056577,0.22048,0.39276
0.010207,-0.010954,-0.16716,-0.0073634,0.97274,1.2619,0.27239,1.2987,0.26778,-0.20815,0.69358,1.4244,2.19,0.54014,0.2453,0.63626,-0.21869,0.25079,-0.5156,-0.22111,-0.04237,0.095595,0.18326,0.39087
0.01367,-0.014013,-0.16953,-0.0003689,0.77147,1.3211,0.29614,1.3236,0.22696,-0.1788,0.68956,1.3447,1.9551,0.57772,0.34818,1.0589,-0.19,0.24726,-0.64178,-0.19676,-0.041715,0.12115,0.16432,0.34951
0.014564,-0.014095,-0.17432,0.0058956,0.56436,1.4413,0.32647,1.348,0.1873,-0.12936,0.68238,1.1844,1.6371,0.5541,0.43382,1.2511,-0.18251,0.13764,-0.79893,-0.17914,-0.036377,0.12847,0.12845,0.24936
0.010854,-0.011314,-0.183,0.0056236,0.38571,1.6347,0.37586,1.3605,0.15132,-0.08046,0.66729,0.94604,1.2916,0.47223,0.48382,1.1589,-0.19003,-0.03371,-0.98185,-0.16976,-0.030531,0.11734,0.051419,0.068721
0.004159,-0.0086805,-0.19431,-0.0017478,0.25152,1.8828,0.4397,1.3562,0.12516,-0.048695,0.64343,0.63097,0.98968,0.35887,0.51031,0.83123,-0.19578,-0.22797,-1.1553,-0.16345,-0.030292,0.092883,-0.056989,-0.18594
-0.0014964,-0.009256,-0.20514,-0.010633,0.15239,2.1321,0.49218,1.342,0.11687,-0.037797,0.61581,0.22976,0.79396,0.24937,0.54506,0.39764,-0.18059,-0.41668,-1.2691,-0.15159,-0.037453,0.064772,-0.15444,-0.45494
-0.0030277,-0.01332,-0.21235,-0.013598,0.061423,2.3109,0.50068,1.3302,0.13316,-0.038954,0.59304,-0.26523,0.73314,0.16932,0.60788,0.0014766,-0.13266,-0.57501,-1.2902,-0.12718,-0.046405,0.044029,-0.19311,-0.62659
-0.00066337,-0.018043,-0.21413,-0.0072791,-0.046464,2.3593,0.44955,1.3273,0.17692,-0.038888,0.58264,-0.83121,0.79504,0.12426,0.68257,-0.25996,-0.053038,-0.67864,-1.2304,-0.088751,-0.047369,0.037976,-0.15123,-0.57276
0.0025934,-0.019895,-0.21024,0.0051223,-0.17657,2.2555,0.35437,1.3263,0.2457,-0.029426,0.58722,-1.3949,0.94338,0.10254,0.72408,-0.35495,0.046108,-0.70935,-1.147,-0.041455,-0.033812,0.046112,-0.044208,-0.20769
0.0036273,-0.017587,-0.20148,0.016794,-0.31038,2.0251,0.25412,1.3105,0.33091,-0.012338,0.60381,-1.8446,1.1406,0.087048,0.69324,-0.3018,0.14843,-0.66051,-1.1116,0.0048995,-0.0082983,0.060101,0.092223,0.45799
0.0015336,-0.012994,-0.18925,0.02298,-0.41877,1.7273,0.18587,1.2672,0.41851,0.0026736,0.62574,-2.0749,1.3566,0.066821,0.5911,-0.14813,0.24122,-0.53326,-1.1653,0.039896,0.017939,0.068538,0.22982,1.3008
-0.0021547,-0.0094281,-0.1755,0.024358,-0.48243,1.4252,0.16121,1.1984,0.49243,0.0044192,0.6447,-2.0384,1.5637,0.041135,0.46364,0.036774,0.31972,-0.32614,-1.2919,0.056972,0.031654,0.063499,0.36113,2.1242
-0.0050476,-0.0089629,-0.16264,0.025389,-0.50366,1.1584,0.16211,1.1193,0.54019,-0.01321,0.65162,-1.7714,1.7314,0.014987,0.37202,0.16547,0.38632,-0.032222,-1.4284,0.05615,0.025704,0.044282,0.48819,2.7443
-0.0056818,-0.011168,-0.15293,0.029565,-0.50033,0.93109,0.15807,1.0459,0.55797,-0.047741,0.63743,-1.3788,1.834,-0.0089704,0.35212,0.15229,0.44585,0.34799,-1.5058,0.043369,0.0028899,0.015922,0.60104,3.0775
-0.0042258,-0.014083,-0.14729,0.036148,-0.48746,0.72383,0.12977,0.98303,0.5513,-0.088554,0.59539,-0.98839,1.8637,-0.035039,0.39486,-0.04864,0.50008,0.78689,-1.4912,0.026501,-0.026838,-0.015767,0.67098,3.1782
-0.0020106,-0.016198,-0.14428,0.041322,-0.462,0.51858,0.081359,0.92361,0.53087,-0.12051,0.52489,-0.69895,1.833,-0.071721,0.46004,-0.41231,0.54452,1.2239,-1.4003,0.010321,-0.053294,-0.04832,0.66902,3.1965
-0.00056839,-0.017552,-0.1404,0.042335,-0.4042,0.31858,0.034136,0.8587,0.50612,-0.12945,0.43391,-0.54857,1.761,-0.12343,0.50809,-0.84871,0.56946,1.5857,-1.2765,-0.0062548,-0.071871,-0.082875,0.59378,3.2773
-0.0008069,-0.019167,-0.13188,0.040484,-0.29564,0.14823,0.0098828,0.78825,0.481,-0.1078,0.33718,-0.51171,1.6585,-0.18288,0.52098,-1.2492,0.56486,1.8212,-1.1558,-0.028688,-0.084529,-0.12122,0.48127,3.4641
-0.0025859,-0.021712,-0.11697,0.040094,-0.1402,0.03318,0.017723,0.72163,0.45412,-0.058073,0.25,-0.52312,1.5297,-0.23064,0.49723,-1.5432,0.52629,1.9252,-1.0492,-0.062134,-0.096249,-0.16291,0.38369,3.6741
-0.0048071,-0.024791,-0.097013,0.044576,0.028495,-0.023582,0.052502,0.6676,0.42175,0.0079943,0.18113,-0.51586,1.3867,-0.24357,0.43198,-1.7261,0.45805,1.9305,-0.9518,-0.10689,-0.11048,-0.20496,0.33317,3.7635
-0.0060672,-0.027347,-0.075276,0.053323,0.16067,-0.050397,0.10162,0.62345,0.38129,0.074904,0.12942,-0.45565,1.2585,-0.20771,0.30772,-1.843,0.37139,1.8744,-0.86571,-0.15713,-0.12697,-0.24401,0.32235,3.6375
-0.0056239,-0.028562,-0.054349,0.062194,0.21719,-0.092392,0.15189,0.57411,0.33315,0.13064,0.086132,-0.35459,1.1734,-0.12762,0.11054,-1.9492,0.2787,1.7684,-0.81032,-0.20365,-0.14278,-0.27817,0.31983,3.3234
-0.0040152,-0.028304,-0.034323,0.066933,0.19209,-0.18367,0.19156,0.50224,0.28124,0.1711,0.040964,-0.25722,1.1253,-0.025832,-0.14022,-2.0795,0.1879,1.5952,-0.80913,-0.23849,-0.15411,-0.30685,0.30689,2.9546
-0.0027174,-0.026902,-0.013309,0.066341,0.11558,-0.32593,0.20936,0.40105,0.23222,0.19847,-0.012896,-0.20919,1.0582,0.067606,-0.3787,-2.2447,0.1006,1.3337,-0.86521,-0.25866,-0.15718,-0.32897,0.30065,2.6786
-0.0029654,-0.024695,0.010099,0.062635,0.035462,-0.48785,0.19571,0.27905,0.19314,0.21489,-0.077766,-0.23047,0.8921,0.12924,-0.51666,-2.4449,0.01471,0.98876,-0.94961,-0.26698,-0.14781,-0.34159,0.34015,2.5625
-0.0046981,-0.021867,0.034643,0.059115,-0.010956,-0.62419,0.14734,0.15407,0.16753,0.21656,-0.15393,-0.31168,0.5824,0.15185,-0.49485,-2.6774,-0.071317,0.60034,-1.0156,-0.2703,-0.12203,-0.34083,0.44454,2.5667
-0.0066375,-0.018593,0.05654,0.057496,-0.015747,-0.70014,0.071628,0.041729,0.15206,0.19377,-0.24212,-0.43148,0.16437,0.14463,-0.32523,-2.9316,-0.15623,0.22505,-1.0284,-0.27616,-0.07911,-0.32472,0.58016,2.5976
-0.0075318,-0.015204,0.072017,0.05707,0.0012006,-0.70533,-0.014465,-0.05283,0.13693,0.13762,-0.34316,-0.57552,-0.25524,0.12519,-0.088787,-3.1789,-0.23685,-0.093673,-0.98745,-0.28951,-0.025178,-0.2957,0.66846,2.5878
-0.0074682,-0.012166,0.080276,0.055988,0.011198,-0.65141,-0.091593,-0.13581,0.11136,0.048636,-0.45523,-0.73778,-0.55887,0.10878,0.11356,-3.373,-0.31034,-0.34355,-0.92247,-0.31058,0.026237,-0.26071,0.63336,2.5346
-0.0079838,-0.0099061,0.084555,0.053232,-0.0015585,-0.55921,-0.14675,-0.21989,0.070753,-0.059904,-0.57184,-0.90522,-0.68507,0.10098,0.22309,-3.4601,-0.37491,-0.53944,-0.87059,-0.33483,0.059509,-0.22831,0.45365,2.4725
-0.010743,-0.0086256,0.0904,0.049602,-0.030751,-0.44708,-0.17772,-0.31779,0.019816,-0.16741,-0.68327,-1.0459,-0.65066,0.097176,0.25269,-3.3917,-0.4285,-0.70464,-0.85251,-0.35505,0.0659,-0.2045,0.18009,2.4172
-0.015871,-0.0081595,0.10233,0.04711,-0.055882,-0.32799,-0.19108,-0.43714,-0.031655,-0.25678,-0.78064,-1.1185,-0.5151,0.087939,0.26347,-3.1343,-0.46678,-0.85333,-0.86696,-0.36475,0.050045,-0.18993,-0.095583,2.339
-0.021414,-0.0079489,0.12114,0.047397,-0.05962,-0.21439,-0.19668,-0.57764,-0.07676,-0.32244,-0.85926,-1.0996,-0.32285,0.066759,0.30988,-2.6822,-0.48312,-0.98479,-0.90406,-0.36099,0.028277,-0.18013,-0.29599,2.1891
-0.0245,-0.0072217,0.14354,0.050332,-0.041608,-0.12323,-0.20281,-0.73077,-0.11597,-0.36916,-0.91829,-1.0029,-0.075599,0.03538,0.39831,-2.0798,-0.47146,-1.0896,-0.96238,-0.34532,0.018872,-0.16875,-0.39742,1.9488
-0.023375,-0.0053973,0.1644,0.053726,-0.020601,-0.074216,-0.21424,-0.88273,-0.15414,-0.40255,-0.95779,-0.87047,0.24282,0.0037133,0.48974,-1.4402,-0.43034,-1.1607,-1.0526,-0.32237,0.030797,-0.15137,-0.42807,1.6483
-0.018742,-0.0024845,0.17998,0.05443,-0.02598,-0.080673,-0.23179,-1.0198,-0.19422,-0.41902,-0.97664,-0.73995,0.61345,-0.015583,0.53903,-0.93221,-0.36552,-1.2022,-1.1841,-0.29741,0.059264,-0.12741,-0.43287,1.3386
-0.013399,0.00088832,0.19011,0.050234,-0.085158,-0.13935,-0.25206,-1.1331,-0.23585,-0.40378,-0.97398,-0.61688,0.95103,-0.01447,0.53426,-0.7204,-0.28894,-1.2292,-1.3456,-0.27453,0.091274,-0.099065,-0.43569,1.0459
-0.010388,0.0039421,0.19781,0.041408,-0.21225,-0.22768,-0.26762,-1.2192,-0.28185,-0.33938,-0.95247,-0.47827,1.1277,0.0060703,0.50349,-0.87837,-0.21444,-1.2596,-1.4972,-0.25603,0.11646,-0.068595,-0.42667,0.75726
-0.010992,0.0063867,0.20663,0.030714,-0.39965,-0.31205,-0.26978,-1.2757,-0.34529,-0.2187,-0.91906,-0.30449,1.0413,0.037781,0.48781,-1.3319,-0.15218,-1.3009,-1.5835,-0.24264,0.1344,-0.036515,-0.37935,0.45065
-0.013972,0.008668,0.21778,0.021643,-0.61371,-0.36269,-0.25389,-1.2967,-0.44561,-0.052968,-0.88059,-0.10945,0.68389,0.072003,0.50798,-1.8807,-0.10489,-1.3419,-1.56,-0.23358,0.15287,-0.0022913,-0.27919,0.13332
-0.016572,0.011548,0.22906,0.015968,-0.79899,-0.36579,-0.22388,-1.2726,-0.59157,0.131,-0.83699,0.060561,0.16388,0.10673,0.55388,-2.2969,-0.067865,-1.3575,-1.4185,-0.22645,0.17937,0.033468,-0.13985,-0.15661
-0.016542,0.015332,0.23652,0.012434,-0.89598,-0.32585,-0.19151,-1.1957,-0.7637,0.30193,-0.77865,0.16075,-0.3356,0.14836,0.60194,-2.4398,-0.032555,-1.3253,-1.1942,-0.21776,0.21379,0.067904,0.0032593,-0.39368
-0.013685,0.019398,0.23743,0.00776,-0.86947,-0.25866,-0.16933,-1.0693,-0.9144,0.43612,-0.69223,0.1849,-0.64186,0.2062,0.64029,-2.3107,0.0083461,-1.2405,-0.94993,-0.20434,0.24857,0.097551,0.11466,-0.61042
-0.0097837,0.022477,0.23212,-0.00068835,-0.73271,-0.18157,-0.16182,-0.91143,-0.99152,0.52367,-0.57239,0.1727,-0.67551,0.28334,0.67728,-2.0136,0.057234,-1.1165,-0.74403,-0.18522,0.27567,0.12153,0.17877,-0.8919
-0.0070074,0.023547,0.22368,-0.012636,-0.54772,-0.10773,-0.16164,-0.75059,-0.96938,0.56756,-0.43028,0.18104,-0.48678,0.37065,0.72764,-1.6573,0.11103,-0.96907,-0.60127,-0.16199,0.29348,0.14301,0.20555,-1.3114
-0.0061017,0.022668,0.21587,-0.024922,-0.39494,-0.045859,-0.15441,-0.61565,-0.86187,0.57922,-0.29059,0.24508,-0.22582,0.44857,0.79213,-1.2735,0.16339,-0.79807,-0.50224,-0.13732,0.30714,0.16681,0.22035,-1.8574
-0.0058884,0.021117,0.21119,-0.033843,-0.32837,-0.0014507,-0.12893,-0.52434,-0.7057,0.57415,-0.17693,0.36262,-0.063771,0.49621,0.85057,-0.81056,0.20789,-0.58683,-0.3999,-0.11258,0.32222,0.19456,0.24608,-2.417
-0.004497,0.020608,0.21014,-0.037931,-0.34742,0.024459,-0.084768,-0.47693,-0.52896,0.56862,-0.095134,0.5117,-0.1096,0.5016,0.87386,-0.19837,0.24052,-0.32243,-0.2536,-0.087092,0.33752,0.22155,0.28962,-2.8365
-0.0012275,0.022085,0.21155,-0.038972,-0.40639,0.038672,-0.031804,-0.45769,-0.33395,0.57572,-0.027334,0.68022,-0.36965,0.4666,0.84262,0.56918,0.26074,-0.020983,-0.058806,-0.059904,0.34391,0.23887,0.34068,-3.0145
0.0026778,0.024917,0.21299,-0.040572,-0.45346,0.056597,0.017477,-0.44326,-0.11046,0.60032,0.057094,0.87611,-0.76971,0.40388,0.7565,1.399,0.27144,0.26595,0.14903,-0.032469,0.33028,0.23956,0.38374,-2.9579
0.0051403,0.027178,0.21126,-0.045554,-0.4672,0.096483,0.056159,-0.41393,0.1341,0.63532,0.17995,1.108,-1.2184,0.3288,0.62925,2.1328,0.27784,0.47323,0.32185,-0.0088182,0.29163,0.22405,0.41458,-2.7618
0.0052675,0.026903,0.20337,-0.05416,-0.46205,0.16872,0.084986,-0.36182,0.35872,0.66307,0.33676,1.3567,-1.6637,0.25215,0.47813,2.6219,0.28551,0.55752,0.43964,0.0081333,0.23284,0.20015,0.44805,-2.542
0.004369,0.023497,0.18835,-0.064183,-0.46328,0.26718,0.10753,-0.2913,0.50615,0.6631,0.49624,1.5696,-2.1046,0.17752,0.31885,2.7914,0.29788,0.51988,0.53407,0.021583,0.16547,0.17754,0.50839,-2.3765
0.0048561,0.018278,0.16873,-0.07258,-0.47869,0.36963,0.12377,-0.21145,0.54111,0.62232,0.61765,1.6884,-2.5549,0.10337,0.16794,2.6574,0.31456,0.40065,0.67423,0.042006,0.10111,0.16133,0.60698,-2.2969
0.0078845,0.013744,0.15005,-0.077262,-0.49522,0.44794,0.12848,-0.1269,0.4762,0.54163,0.67477,1.6895,-2.9975,0.027012,0.044851,2.2995,0.33184,0.25487,0.92095,0.081472,0.046572,0.15018,0.72459,-2.3155
0.011916,0.012035,0.1378,-0.078003,-0.50177,0.48133,0.11617,-0.035686,0.36235,0.43477,0.67045,1.6005,-3.369,-0.052175,-0.033234,1.8133,0.34546,0.12953,1.2809,0.14387,0.0036123,0.1402,0.81479,-2.4466
0.01372,0.013601,0.13373,-0.076205,-0.51286,0.46361,0.088169,0.062615,0.25248,0.3213,0.63315,1.4783,-3.5895,-0.13062,-0.061788,1.2742,0.35346,0.057031,1.6943,0.21845,-0.028312,0.13045,0.8293,-2.6952
0.011161,0.016914,0.13429,-0.073895,-0.5654,0.40042,0.055424,0.15529,0.17077,0.219,0.59927,1.3645,-3.609,-0.19948,-0.054395,0.72207,0.35671,0.060119,2.0657,0.28298,-0.049765,0.12473,0.74729,-3.0252
0.0053542,0.019383,0.13294,-0.072545,-0.68631,0.30107,0.034445,0.21463,0.11328,0.14018,0.59381,1.2582,-3.4317,-0.24528,-0.036154,0.16483,0.35672,0.15332,2.3183,0.31597,-0.061134,0.12775,0.5856,-3.3468
0.00012067,0.01893,0.1246,-0.072297,-0.85663,0.17364,0.039388,0.21303,0.075296,0.091795,0.62114,1.1262,-3.1013,-0.25399,-0.028571,-0.40783,0.35288,0.33322,2.4337,0.31004,-0.063448,0.13954,0.38242,-3.5429
-0.00098601,0.015338,0.1091,-0.071967,-1.0044,0.02779,0.075924,0.14736,0.075469,0.075945,0.66853,0.9406,-2.6675,-0.21856,-0.037634,-1.0043,0.3422,0.56681,2.4547,0.27683,-0.058447,0.15343,0.16937,-3.5239
0.00239,0.010523,0.090876,-0.069837,-1.0372,-0.11973,0.14027,0.053232,0.14999,0.088543,0.71661,0.70886,-2.1686,-0.14614,-0.054146,-1.6084,0.32229,0.79467,2.4545,0.23957,-0.047735,0.15998,-0.043327,-3.2726
0.0071082,0.0074239,0.075655,-0.064771,-0.89586,-0.24604,0.22242,-0.0062679,0.31903,0.11799,0.74836,0.4709,-1.642,-0.058759,-0.064572,-2.1628,0.29469,0.95501,2.4956,0.21861,-0.03245,0.15365,-0.25689,-2.8509
0.0091818,0.0080728,0.066601,-0.056924,-0.59241,-0.33347,0.31032,0.02569,0.555,0.14787,0.75285,0.26946,-1.1426,0.01588,-0.062144,-2.5731,0.26519,1.0151,2.6037,0.21992,-0.014249,0.13639,-0.46056,-2.3689
0.007087,0.012103,0.062864,-0.047643,-0.20878,-0.38352,0.39284,0.16572,0.78395,0.16461,0.72535,0.1219,-0.73792,0.059755,-0.049388,-2.7418,0.2401,0.9868,2.7643,0.23411,0.0035396,0.11539,-0.61814,-1.9376
0.0028724,0.016895,0.060948,-0.03879,0.14597,-0.41993,0.46136,0.38031,0.92436,0.16557,0.6672,0.01729,-0.47432,0.075531,-0.032292,-2.6199,0.22175,0.91412,2.934,0.24545,0.016595,0.097446,-0.67857,-1.6264
0.00022261,0.019448,0.057284,-0.032089,0.39339,-0.47416,0.51072,0.60691,0.93646,0.16049,0.58623,-0.063653,-0.34391,0.083826,-0.013676,-2.2485,0.20708,0.84169,3.0595,0.24324,0.022375,0.085099,-0.60283,-1.4425
0.0013575,0.018633,0.049991,-0.028818,0.52423,-0.56245,0.53972,0.78941,0.845,0.16361,0.49524,-0.12873,-0.28886,0.10657,0.0078443,-1.7579,0.19084,0.78942,3.0972,0.22761,0.022595,0.077582,-0.38677,-1.3337
0.0055323,0.01599,0.039067,-0.029664,0.59491,-0.67252,0.55057,0.9022,0.71878,0.1818,0.40702,-0.17337,-0.24671,0.1478,0.034377,-1.3165,0.17023,0.75034,3.0326,0.20677,0.022484,0.074513,-0.065153,-1.2172
0.010204,0.014316,0.025621,-0.034413,0.68489,-0.77215,0.54722,0.94854,0.62317,0.20813,0.32814,-0.19566,-0.19894,0.18719,0.06695,-1.0546,0.14685,0.70882,2.8917,0.18944,0.026507,0.077808,0.30044,-1.0249
0.013405,0.015203,0.011106,-0.04158,0.8426,-0.83324,0.53301,0.94065,0.58116,0.22672,0.2563,-0.20743,-0.17609,0.19333,0.10894,-1.0079,0.12401,0.65959,2.734,0.1787,0.033806,0.089431,0.6375,-0.74611
