4.9969e-010,7.505e-010,-1.8232e-009,1.7171e-010,2.2438e-009,5.022e-009,-6.4227e-009,-7.3603e-009,-2.2322e-009,-3.5171e-009,-4.4239e-009,6.0214e-009,-3.6638e-009,8.5082e-010,6.9899e-009,-7.0092e-009,3.6464e-010,1.3679e-009,3.2972e-009,-4.1094e-010,-1.418e-009,-5.5757e-010,-4.1654e-009,-5.6432e-009
1.3797e-008,2.0693e-008,-5.0856e-008,4.3475e-009,6.1097e-008,1.389e-007,-1.7755e-007,-2.0341e-007,-6.1962e-008,-9.6817e-008,-1.2229e-007,1.6671e-007,-1.0215e-007,2.3264e-008,1.9334e-007,-1.9221e-007,1.0049e-008,3.7456e-008,9.092e-008,-1.1456e-008,-3.9251e-008,-1.5821e-008,-1.1246e-007,-1.6077e-007
1.8501e-007,2.7743e-007,-6.9033e-007,5.2762e-008,8.0741e-007,1.8674e-006,-2.3859e-006,-2.733e-006,-8.3603e-007,-1.2946e-006,-1.6435e-006,2.2444e-006,-1.3853e-006,3.0916e-007,2.5995e-006,-2.5584e-006,1.3456e-007,4.9848e-007,1.2183e-006,-1.5517e-007,-5.2796e-007,-2.1828e-007,-1.4701e-006,-2.2323e-006
1.605e-006,2.4097e-006,-6.0765e-006,4.0711e-007,6.8965e-006,1.6256e-005,-2.0764e-005,-2.3785e-005,-7.3047e-006,-1.12e-005,-1.4304e-005,1.9576e-005,-1.2177e-005,2.6604e-006,2.2634e-005,-2.2011e-005,1.1662e-006,4.2955e-006,1.0568e-005,-1.3603e-006,-4.5976e-006,-1.9511e-006,-1.2383e-005,-2.0133e-005
1.0123e-005,1.5241e-005,-3.8993e-005,2.2295e-006,4.277e-005,0.00010299,-0.00013154,-0.0001507,-4.6451e-005,-7.0434e-005,-9.0618e-005,0.00012435,-7.7982e-005,1.6665e-005,0.00014343,-0.0001375,7.3515e-006,2.6938e-005,6.6689e-005,-8.6743e-006,-2.9133e-005,-1.2699e-005,-7.5429e-005,-0.0001326
4.9445e-005,7.4792e-005,-0.00019442,9.1304e-006,0.00020504,0.00050586,-0.00064626,-0.0007407,-0.00022903,-0.00034292,-0.00044516,0.00061289,-0.00038779,8.0981e-005,0.00070482,-0.00066416,3.5909e-005,0.00013098,0.00032615,-4.2862e-005,-0.00014313,-6.4122e-005,-0.00035325,-0.0006797
0.00019449,0.00029623,-0.0007838,2.8495e-005,0.00078956,0.0020038,-0.0025617,-0.0029378,-0.00091062,-0.0013436,-0.0017638,0.0024387,-0.0015583,0.00031764,0.0027936,-0.0025777,0.00014135,0.00051364,0.0012857,-0.00017069,-0.00056715,-0.00026131,-0.0013188,-0.0028218
0.00063242,0.00097246,-0.0026248,6.6598e-005,0.002504,0.0065714,-0.0084118,-0.0096554,-0.0029973,-0.0043454,-0.0057868,0.0080445,-0.0051986,0.0010331,0.0091701,-0.0082436,0.00046026,0.0016679,0.0041936,-0.00056235,-0.001861,-0.00088247,-0.0040107,-0.0097461
0.0017308,0.0026953,-0.007443,0.00010466,0.0066468,0.018172,-0.02331,-0.026789,-0.0083162,-0.011799,-0.01601,0.022414,-0.014678,0.00284,0.025391,-0.022087,0.0012625,0.0045682,0.011524,-0.0015609,-0.0051514,-0.0025157,-0.010039,-0.02854
0.004037,0.0063902,-0.018123,4.556e-005,0.014908,0.042914,-0.055229,-0.063577,-0.019691,-0.027178,-0.03783,0.053459,-0.035581,0.0066919,0.060076,-0.050086,0.0029546,0.01069,0.027015,-0.0036965,-0.012185,-0.0061332,-0.020646,-0.071822
0.0080895,0.013078,-0.038283,-0.0003483,0.028338,0.087291,-0.11289,-0.13026,-0.040104,-0.053365,-0.076983,0.11017,-0.074844,0.013657,0.12254,-0.09654,0.0059484,0.021559,0.05446,-0.007532,-0.024843,-0.012902,-0.034164,-0.1568
0.013987,0.023233,-0.070695,-0.0014465,0.045416,0.15369,-0.20023,-0.23176,-0.0705,-0.089126,-0.13555,0.1974,-0.13773,0.024331,0.21662,-0.15778,0.010354,0.037676,0.094796,-0.013269,-0.043886,-0.023547,-0.042357,-0.29876
0.020881,0.035918,-0.11475,-0.0035589,0.060212,0.23456,-0.30899,-0.35925,-0.10683,-0.12502,-0.20669,0.30864,-0.22317,0.038077,0.33261,-0.21587,0.015608,0.057169,0.14245,-0.020244,-0.067276,-0.037369,-0.028482,-0.49809
0.02681,0.048283,-0.16441,-0.0065332,0.062682,0.30953,-0.41475,-0.4855,-0.13835,-0.14216,-0.27193,0.42168,-0.32009,0.05264,0.44307,-0.23901,0.020351,0.075233,0.18379,-0.026707,-0.089295,-0.051515,0.028492,-0.72571
0.02933,0.056169,-0.20869,-0.0093493,0.042817,0.35064,-0.48283,-0.57121,-0.1498,-0.11777,-0.30545,0.50332,-0.40847,0.064709,0.50963,-0.19444,0.022871,0.085464,0.20077,-0.030336,-0.10191,-0.061401,0.14118,-0.91781
0.026875,0.055984,-0.23598,-0.010134,-0.0022084,0.33632,-0.48508,-0.58406,-0.12818,-0.037596,-0.2865,0.52508,-0.46676,0.071475,0.50187,-0.071605,0.022096,0.08315,0.1801,-0.029534,-0.098707,-0.062742,0.29719,-0.99151
0.020087,0.046978,-0.24043,-0.0069272,-0.062333,0.26712,-0.41944,-0.52075,-0.071077,0.090861,-0.2135,0.48247,-0.48246,0.072325,0.41889,0.098753,0.018559,0.068742,0.12325,-0.024795,-0.079639,-0.05443,0.45088,-0.88252
0.011971,0.032262,-0.22628,0.00099794,-0.11605,0.17087,-0.31723,-0.41548,0.0093118,0.23469,-0.10944,0.40381,-0.45901,0.069337,0.29685,0.2477,0.014474,0.04872,0.049248,-0.01896,-0.052915,-0.040243,0.53566,-0.58804
0.0063427,0.017451,-0.20629,0.012139,-0.14086,0.089301,-0.22833,-0.3235,0.091112,0.3481,-0.011186,0.33816,-0.41354,0.065933,0.19193,0.30008,0.012537,0.032312,-0.014157,-0.015697,-0.031599,-0.027494,0.49704,-0.18638
0.005388,0.0075187,-0.194,0.023066,-0.12741,0.052278,-0.19069,-0.28691,0.1548,0.39647,0.05257,0.32668,-0.36645,0.064475,0.14614,0.21849,0.014073,0.025662,-0.047175,-0.016899,-0.025865,-0.022614,0.32873,0.18837
0.0080906,0.0039935,-0.19505,0.030231,-0.087063,0.057408,-0.20539,-0.3066,0.19425,0.37658,0.079398,0.37626,-0.33049,0.064602,0.16,0.027524,0.017942,0.027674,-0.050704,-0.020906,-0.03579,-0.02626,0.085282,0.41076
0.010901,0.004605,-0.20392,0.032219,-0.045718,0.072114,-0.23766,-0.34332,0.21815,0.31753,0.092444,0.45567,-0.30675,0.063627,0.19443,-0.20316,0.021236,0.031055,-0.044715,-0.02323,-0.050199,-0.03159,-0.14312,0.4313
0.01031,0.0055363,-0.20892,0.030802,-0.02669,0.058303,-0.24488,-0.34877,0.24003,0.26027,0.12035,0.51807,-0.28897,0.058559,0.20227,-0.40631,0.021378,0.028159,-0.052488,-0.019643,-0.053197,-0.027593,-0.28115,0.3023
0.0054068,0.0043337,-0.20141,0.029844,-0.034954,0.0010103,-0.20987,-0.30258,0.26478,0.23003,0.17347,0.53292,-0.27023,0.047906,0.16485,-0.5567,0.017989,0.017099,-0.082803,-0.0094578,-0.034312,-0.0057204,-0.3102,0.142
-0.001574,0.0011153,-0.18184,0.032771,-0.054867,-0.081877,-0.15216,-0.22498,0.28293,0.22257,0.23603,0.50285,-0.24585,0.031818,0.10378,-0.66959,0.012964,0.0031031,-0.12447,0.0035992,0.0048074,0.034583,-0.27211,0.059325
-0.0070999,-0.0025758,-0.15799,0.040421,-0.063242,-0.15618,-0.10829,-0.1556,0.27764,0.2136,0.28056,0.45403,-0.21182,0.010943,0.059048,-0.76092,0.0087943,-0.00598,-0.15739,0.013756,0.051777,0.085261,-0.23303,0.089918
-0.0090301,-0.0057727,-0.13758,0.050769,-0.047173,-0.19956,-0.098831,-0.1182,0.23864,0.18224,0.29165,0.41105,-0.16329,-0.014208,0.0535,-0.80936,0.0066799,-0.0061492,-0.17021,0.017105,0.091597,0.13422,-0.23595,0.1861
-0.0080149,-0.0088882,-0.12212,0.060452,-0.012415,-0.2174,-0.11099,-0.10254,0.17102,0.1283,0.27849,0.37849,-0.096397,-0.042231,0.074921,-0.76113,0.0061039,-0.00020672,-0.16898,0.014143,0.1154,0.17172,-0.27682,0.26339
-0.0066398,-0.01272,-0.10716,0.066784,0.02359,-0.23439,-0.11121,-0.077949,0.091555,0.070009,0.26578,0.34321,-0.010889,-0.069108,0.089873,-0.57951,0.0059903,0.0050465,-0.17,0.0091969,0.12388,0.19427,-0.31841,0.26585
-0.0072034,-0.016956,-0.087805,0.06888,0.046913,-0.2712,-0.075325,-0.024007,0.016159,0.026465,0.27237,0.29125,0.091594,-0.088229,0.074474,-0.2957,0.0060489,0.0045537,-0.18389,0.0073906,0.12394,0.20399,-0.3253,0.20217
-0.0099775,-0.019917,-0.063846,0.067549,0.057234,-0.32732,-0.0090441,0.050875,-0.050103,0.0016238,0.2968,0.22183,0.21376,-0.093402,0.033421,-0.010356,0.0068727,-0.0014231,-0.20594,0.011508,0.12227,0.20487,-0.29032,0.1303
-0.013216,-0.01991,-0.039619,0.064516,0.065046,-0.38343,0.058432,0.11891,-0.11165,-0.016513,0.32136,0.14649,0.3664,-0.083139,-0.0083776,0.16465,0.0088105,-0.0086335,-0.22108,0.020816,0.121,0.19921,-0.23401,0.10827
-0.014722,-0.016923,-0.019377,0.06161,0.079962,-0.41839,0.10005,0.1597,-0.17131,-0.042828,0.32892,0.07674,0.56203,-0.062575,-0.030879,0.18061,0.010978,-0.013256,-0.21824,0.03219,0.11799,0.18687,-0.1837,0.15155
-0.013674,-0.013007,-0.0031024,0.060079,0.10141,-0.42399,0.11222,0.17844,-0.22029,-0.081462,0.31637,0.0142,0.80046,-0.040657,-0.035775,0.081626,0.011576,-0.015122,-0.20052,0.042318,0.11044,0.16702,-0.15308,0.22705
-0.011345,-0.010945,0.013142,0.060011,0.11971,-0.40541,0.11427,0.19928,-0.23959,-0.1237,0.29345,-0.047582,1.0585,-0.024116,-0.04051,-0.035574,0.0092381,-0.017097,-0.18209,0.049422,0.098212,0.14061,-0.1379,0.28316
-0.010218,-0.012344,0.032973,0.06017,0.12545,-0.3699,0.12912,0.24182,-0.21314,-0.15744,0.27046,-0.11323,1.2962,-0.012765,-0.057948,-0.097743,0.0040266,-0.021783,-0.17532,0.053708,0.084242,0.11123,-0.12642,0.28877
-0.012126,-0.016715,0.056049,0.058693,0.11811,-0.31705,0.16437,0.30338,-0.14256,-0.17788,0.24823,-0.17913,1.4774,-7.0304e-005,-0.083221,-0.10416,-0.0028648,-0.028946,-0.18017,0.056725,0.072405,0.083669,-0.11156,0.25204
-0.016716,-0.022149,0.078706,0.054578,0.10607,-0.24079,0.20984,0.36277,-0.050628,-0.1895,0.21963,-0.23775,1.5895,0.021183,-0.10055,-0.11092,-0.010215,-0.035909,-0.18518,0.060254,0.064768,0.061388,-0.094065,0.20881
-0.021412,-0.026808,0.098189,0.048928,0.098999,-0.1404,0.25093,0.40028,0.030604,-0.1991,0.1799,-0.28849,1.6436,0.05241,-0.10216,-0.16912,-0.017405,-0.04009,-0.17827,0.065288,0.060451,0.04463,-0.077422,0.19409
-0.023102,-0.029934,0.1162,0.044667,0.099914,-0.029221,0.28316,0.41435,0.079064,-0.20839,0.1347,-0.34366,1.656,0.08691,-0.099616,-0.27242,-0.023973,-0.041016,-0.15703,0.071467,0.056582,0.030559,-0.062134,0.21944
-0.020465,-0.03168,0.13813,0.04457,0.10396,0.068713,0.31409,0.42032,0.094949,-0.21366,0.097528,-0.42206,1.6274,0.11336,-0.11583,-0.35684,-0.028839,-0.040067,-0.12984,0.077193,0.050329,0.015288,-0.044543,0.27042
-0.01519,-0.032207,0.16833,0.048962,0.10392,0.13185,0.35237,0.43412,0.096602,-0.21202,0.079046,-0.53437,1.5414,0.12228,-0.16493,-0.3475,-0.030432,-0.0387,-0.10787,0.080428,0.040581,-0.003514,-0.018162,0.32125
-0.010974,-0.031102,0.2055,0.055046,0.096537,0.15309,0.39585,0.45735,0.10312,-0.20664,0.078255,-0.67212,1.3853,0.11072,-0.23895,-0.20949,-0.027968,-0.037235,-0.096062,0.079817,0.028455,-0.024983,0.026902,0.35208
-0.010849,-0.027759,0.24232,0.058572,0.083971,0.14058,0.43073,0.47712,0.11703,-0.20473,0.083453,-0.81027,1.1739,0.08233,-0.31332,0.037074,-0.022707,-0.035367,-0.090716,0.07548,0.016742,-0.045223,0.10566,0.35641
-0.014869,-0.022342,0.26991,0.056606,0.070181,0.10776,0.44258,0.47938,0.1204,-0.20966,0.081828,-0.92228,0.95185,0.043732,-0.3662,0.34062,-0.017779,-0.033521,-0.084485,0.068948,0.008823,-0.059041,0.23475,0.3365
-0.020094,-0.016313,0.2838,0.04919,0.056987,0.062218,0.42914,0.46233,0.087738,-0.21535,0.069163,-0.99643,0.7693,0.00076293,-0.39412,0.65074,-0.016338,-0.033225,-0.072941,0.062259,0.0075333,-0.062259,0.41996,0.29496
-0.022958,-0.011792,0.28704,0.038737,0.044113,0.0035508,0.40349,0.43817,0.0063515,-0.20903,0.051807,-1.0412,0.64731,-0.043,-0.41132,0.93063,-0.019404,-0.035831,-0.056844,0.056861,0.014161,-0.053565,0.64173,0.23177
-0.022126,-0.010082,0.28791,0.027962,0.032539,-0.0686,0.38518,0.42284,-0.11079,-0.18123,0.04024,-1.0761,0.5625,-0.085466,-0.43478,1.1488,-0.025154,-0.040843,-0.039252,0.053097,0.027737,-0.035167,0.85298,0.14968
-0.019417,-0.010571,0.29441,0.018243,0.026622,-0.1445,0.387,0.42439,-0.22914,-0.13451,0.040427,-1.1161,0.46354,-0.12504,-0.4693,1.2727,-0.030293,-0.045727,-0.021448,0.050566,0.044927,-0.012084,0.9977,0.062162
-0.018027,-0.011034,0.30911,0.0095761,0.031768,-0.20257,0.40823,0.44001,-0.31099,-0.083292,0.049993,-1.1616,0.30693,-0.16083,-0.50516,1.283,-0.032474,-0.04772,-0.0017707,0.048934,0.060836,0.0096515,1.0413,-0.0049449
-0.019621,-0.009238,0.32823,0.0016111,0.049508,-0.21906,0.43837,0.46274,-0.33577,-0.044389,0.061296,-1.2026,0.085153,-0.19339,-0.52868,1.1966,-0.031905,-0.046103,0.022313,0.048417,0.070663,0.02507,0.99033,-0.023405
-0.022842,-0.0046261,0.34489,-0.0055876,0.07516,-0.18255,0.46697,0.48971,-0.30885,-0.025325,0.067646,-1.2301,-0.17188,-0.22419,-0.53506,1.0725,-0.030965,-0.042792,0.051764,0.049557,0.071541,0.031675,0.88332,0.019272
-0.024496,0.0012766,0.35417,-0.011784,0.10111,-0.10201,0.49063,0.52369,-0.2544,-0.019375,0.067217,-1.2461,-0.41891,-0.25324,-0.53212,0.98145,-0.032143,-0.040612,0.085659,0.052573,0.063568,0.029537,0.75946,0.10431
-0.022318,0.0060285,0.35632,-0.017242,0.12321,-0.0015587,0.51223,0.56697,-0.19875,-0.010775,0.062212,-1.2613,-0.62169,-0.27666,-0.53282,0.95936,-0.035843,-0.040803,0.12258,0.056991,0.049409,0.020325,0.62943,0.18086
-0.016889,0.0080169,0.35614,-0.022815,0.14441,0.095006,0.53478,0.61427,-0.15638,0.013981,0.055241,-1.2838,-0.76953,-0.28691,-0.54399,0.97997,-0.039689,-0.042025,0.16141,0.061894,0.032687,0.0062049,0.47418,0.18502
-0.01113,0.0073901,0.35905,-0.029196,0.17211,0.17956,0.55645,0.65237,-0.12722,0.056875,0.046714,-1.3091,-0.87026,-0.27672,-0.56091,0.97409,-0.039923,-0.041703,0.20041,0.066434,0.016227,-0.010505,0.273,0.071281
-0.0079449,0.0055939,0.36689,-0.0362,0.21156,0.26401,0.57136,0.66789,-0.10425,0.10717,0.035313,-1.3209,-0.93734,-0.24427,-0.57152,0.88257,-0.034056,-0.038345,0.23583,0.069968,0.0012958,-0.027016,0.036162,-0.16094
-0.0080519,0.0041672,0.37619,-0.042965,0.26103,0.37047,0.57456,0.65707,-0.083423,0.14845,0.020379,-1.3026,-0.9803,-0.19579,-0.56552,0.70361,-0.022943,-0.032646,0.26248,0.071663,-0.011768,-0.040004,-0.18741,-0.46308
-0.0096768,0.0039418,0.38028,-0.048996,0.31279,0.51332,0.56576,0.62952,-0.067145,0.16867,0.0035406,-1.25,-1.0028,-0.14313,-0.54076,0.49982,-0.010727,-0.026524,0.27674,0.070178,-0.022276,-0.046573,-0.33663,-0.7605
-0.010095,0.0051567,0.37379,-0.054957,0.35821,0.68512,0.54749,0.60236,-0.059751,0.16659,-0.011979,-1.1735,-1.0046,-0.097598,-0.50268,0.36206,-0.0024737,-0.021236,0.27968,0.064141,-0.028671,-0.045935,-0.37914,-0.98961
-0.007616,0.007959,0.35638,-0.06224,0.39208,0.85602,0.51968,0.58871,-0.060337,0.151,-0.023512,-1.0891,-0.9843,-0.06412,-0.45835,0.3573,-0.0010118,-0.016487,0.27738,0.053334,-0.029541,-0.040477,-0.33486,-1.1258
-0.0025244,0.012439,0.33299,-0.07155,0.41289,0.98788,0.47641,0.58875,-0.060485,0.13379,-0.030517,-1.0056,-0.94151,-0.039502,-0.4111,0.49423,-0.0051732,-0.011271,0.27747,0.039521,-0.025483,-0.035105,-0.26412,-1.185
0.0034457,0.018065,0.31042,-0.081817,0.42024,1.0545,0.40948,0.58968,-0.049403,0.12198,-0.034363,-0.92027,-0.8807,-0.015501,-0.35971,0.72289,-0.010727,-0.0053307,0.28434,0.02583,-0.019957,-0.035012,-0.22978,-1.1996
0.0084294,0.023315,0.29279,-0.090615,0.41321,1.0546,0.31711,0.57414,-0.022017,0.11396,-0.036903,-0.82568,-0.81364,0.015536,-0.30255,0.96241,-0.013345,0.00041864,0.29643,0.014798,-0.017804,-0.043227,-0.26085,-1.1913
0.011489,0.026314,0.27941,-0.095929,0.39159,1.009,0.21061,0.53117,0.017242,0.10221,-0.039285,-0.72045,-0.75603,0.055879,-0.24235,1.1384,-0.011439,0.0049434,0.30773,0.0066019,-0.022137,-0.059436,-0.34151,-1.1594
0.012809,0.026239,0.26644,-0.097863,0.35823,0.94267,0.11284,0.46206,0.058313,0.080409,-0.041702,-0.61351,-0.71737,0.10074,-0.18744,1.2117,-0.006898,0.0084617,0.31216,-0.00082828,-0.032195,-0.080584,-0.42959,-1.0948
0.013134,0.024188,0.25073,-0.098772,0.31893,0.86525,0.048136,0.37789,0.093527,0.049491,-0.043573,-0.51667,-0.69115,0.14008,-0.14774,1.1877,-0.0033495,0.012596,0.30775,-0.0096631,-0.044266,-0.10264,-0.48817,-1.0018
0.013025,0.022437,0.23241,-0.10157,0.27914,0.76392,0.030605,0.29133,0.1226,0.018187,-0.043375,-0.43148,-0.65613,0.16265,-0.1283,1.1034,-0.0034291,0.019034,0.29772,-0.019817,-0.055155,-0.12234,-0.50753,-0.90833
0.012505,0.022486,0.21413,-0.10743,0.2403,0.61588,0.05819,0.2094,0.15042,-0.0025495,-0.038331,-0.34196,-0.59229,0.16076,-0.12521,0.99857,-0.0070405,0.027966,0.2879,-0.028704,-0.065055,-0.13817,-0.50413,-0.85083
0.011259,0.023629,0.19815,-0.11474,0.19958,0.41133,0.11567,0.13219,0.17994,-0.0072515,-0.024972,-0.22106,-0.50099,0.13383,-0.12715,0.88891,-0.011656,0.037805,0.28279,-0.033687,-0.076982,-0.15013,-0.5004,-0.84736
0.0091819,0.023511,0.18416,-0.11996,0.15387,0.16979,0.18316,0.057294,0.20702,-4.0109e-005,-0.0010963,-0.048757,-0.41181,0.089351,-0.12199,0.75692,-0.014162,0.046444,0.28273,-0.035234,-0.093114,-0.1588,-0.50266,-0.88126
0.006789,0.020351,0.16993,-0.12001,0.10448,-0.064432,0.2443,-0.014759,0.222,0.0080411,0.032056,0.16942,-0.36677,0.040716,-0.10361,0.56849,-0.012818,0.052819,0.28405,-0.037724,-0.11158,-0.16432,-0.49519,-0.91179
0.0051253,0.014822,0.15372,-0.11436,0.05854,-0.24584,0.2903,-0.079148,0.21683,0.0064825,0.069489,0.39654,-0.39152,0.0025965,-0.073998,0.30276,-0.0081266,0.057304,0.28148,-0.046669,-0.12699,-0.16592,-0.456,-0.90546
0.0051612,0.0097748,0.136,-0.10545,0.025793,-0.35387,0.32006,-0.13061,0.19157,-0.0080758,0.10491,0.57813,-0.47625,-0.014135,-0.03926,-0.027704,-0.0022505,0.060665,0.27105,-0.064304,-0.13458,-0.16238,-0.38277,-0.86354
0.0070601,0.0079663,0.11852,-0.097331,0.013387,-0.40211,0.338,-0.16873,0.1551,-0.030891,0.13426,0.67081,-0.58275,-0.005725,-0.0029106,-0.38233,0.0024372,0.062764,0.25165,-0.087249,-0.13393,-0.15285,-0.3079,-0.82295
0.0098639,0.0097665,0.10183,-0.093352,0.022369,-0.42428,0.35093,-0.19953,0.11966,-0.053965,0.15711,0.66972,-0.67347,0.024088,0.037605,-0.71869,0.004745,0.062412,0.22503,-0.10841,-0.12884,-0.13768,-0.28856,-0.8274
0.011926,0.012886,0.083859,-0.094253,0.047393,-0.44838,0.36442,-0.2317,0.09389,-0.07219,0.17453,0.61588,-0.73922,0.066251,0.088097,-1.0173,0.0051828,0.058633,0.19467,-0.12178,-0.12354,-0.11855,-0.37547,-0.88861
0.011913,0.014285,0.061381,-0.097775,0.07873,-0.4789,0.37971,-0.27058,0.079418,-0.085638,0.1851,0.57489,-0.80307,0.10978,0.15077,-1.2849,0.0053547,0.052074,0.16453,-0.12632,-0.11899,-0.098297,-0.58117,-0.96482
0.0097253,0.012522,0.033185,-0.099932,0.10519,-0.49959,0.39282,-0.31494,0.07201,-0.096695,0.18325,0.59769,-0.89653,0.14503,0.21929,-1.5365,0.0066639,0.044978,0.13796,-0.12598,-0.11314,-0.080556,-0.86933,-0.97157
0.0066649,0.0085676,0.0021079,-0.097351,0.11744,-0.49208,0.39713,-0.35913,0.064749,-0.10555,0.16208,0.68947,-1.0268,0.16622,0.28029,-1.7724,0.0092538,0.039419,0.11652,-0.12607,-0.10466,-0.069185,-1.1721,-0.81792
0.004622,0.0046263,-0.026149,-0.089421,0.11147,-0.45377,0.38782,-0.39839,0.050348,-0.10887,0.11906,0.81004,-1.1606,0.1726,0.32063,-1.9701,0.011982,0.035235,0.099328,-0.12929,-0.096114,-0.067086,-1.4231,-0.44751
0.0048043,0.0022114,-0.046666,-0.078927,0.090455,-0.40115,0.36479,-0.43248,0.022443,-0.10308,0.059852,0.90637,-1.2381,0.16798,0.3348,-2.0952,0.013424,0.029638,0.083189,-0.1343,-0.093142,-0.074632,-1.5845,0.13474
0.0069013,0.00117,-0.058543,-0.070543,0.062809,-0.35767,0.33147,-0.46488,-0.02214,-0.089008,-0.0031649,0.95282,-1.2069,0.15823,0.32695,-2.1197,0.013004,0.019165,0.064335,-0.13745,-0.099803,-0.088793,-1.6544,0.85824
0.0093269,0.00026713,-0.065212,-0.06788,0.036247,-0.33788,0.29066,-0.49855,-0.079321,-0.072915,-0.056831,0.96761,-1.0532,0.14773,0.30658,-2.0351,0.011168,0.0025237,0.040893,-0.13573,-0.11431,-0.10418,-1.6538,1.6031
0.010391,-0.0014477,-0.071778,-0.071009,0.011595,-0.34031,0.24121,-0.5326,-0.13434,-0.062176,-0.093338,0.99353,-0.80911,0.13706,0.28206,-1.8537,0.0084512,-0.018114,0.01449,-0.12861,-0.12908,-0.11593,-1.6056,2.2327
0.0095301,-0.0037816,-0.081693,-0.076309,-0.018444,-0.35276,0.17877,-0.56268,-0.16324,-0.058951,-0.11236,1.0611,-0.53309,0.12382,0.25737,-1.6036,0.0044815,-0.038556,-0.010448,-0.11782,-0.13517,-0.12261,-1.5181,2.6364
0.0076565,-0.0056941,-0.095288,-0.07897,-0.063723,-0.36281,0.10025,-0.58469,-0.14138,-0.057369,-0.11859,1.1669,-0.27842,0.10637,0.23405,-1.3209,-0.0017797,-0.055601,-0.029559,-0.10595,-0.12752,-0.12679,-1.3808,2.7709
0.0063761,-0.006319,-0.11087,-0.076397,-0.12833,-0.36434,0.0083091,-0.59838,-0.056374,-0.04711,-0.11755,1.2839,-0.072099,0.087315,0.21547,-1.0405,-0.010485,-0.069012,-0.041656,-0.095211,-0.1069,-0.13251,-1.1713,2.6808
0.0067167,-0.0057323,-0.12695,-0.069878,-0.20639,-0.35649,-0.087616,-0.60772,0.081095,-0.021128,-0.1133,1.3931,0.082163,0.072936,0.20853,-0.78465,-0.019568,-0.080819,-0.04976,-0.08715,-0.077729,-0.14138,-0.87015,2.4807
0.0083828,-0.0048396,-0.14353,-0.063192,-0.28543,-0.33923,-0.17485,-0.61799,0.2353,0.018004,-0.10906,1.5039,0.18331,0.068293,0.22073,-0.55716,-0.025395,-0.092808,-0.059184,-0.083053,-0.044317,-0.15041,-0.47501,2.2998
0.010076,-0.0046202,-0.1615,-0.059294,-0.3542,-0.31171,-0.24321,-0.63174,0.35563,0.057579,-0.109,1.6449,0.21648,0.071823,0.25479,-0.35008,-0.025414,-0.10463,-0.073922,-0.084548,-0.0090247,-0.15319,-0.009566,2.2185
0.010517,-0.0055255,-0.18096,-0.057866,-0.408,-0.27495,-0.28982,-0.64697,0.39644,0.080505,-0.11865,1.8334,0.16085,0.075,0.30545,-0.16222,-0.020689,-0.1143,-0.09381,-0.093714,0.026526,-0.14387,0.48016,2.2337
0.0092908,-0.0075783,-0.20013,-0.055747,-0.44778,-0.23523,-0.32076,-0.65843,0.3387,0.073797,-0.14316,2.0504,0.020663,0.068691,0.36109,-0.014658,-0.015801,-0.12036,-0.11432,-0.11241,0.059049,-0.12109,0.94039,2.2783
0.0069334,-0.010892,-0.21591,-0.049788,-0.47529,-0.20308,-0.34907,-0.66105,0.20222,0.034953,-0.18478,2.2453,-0.14711,0.051434,0.40874,0.055136,-0.015792,-0.1236,-0.12902,-0.1409,0.082905,-0.089406,1.327,2.2789
0.0044318,-0.015781,-0.22575,-0.039635,-0.49024,-0.18767,-0.38956,-0.65312,0.039472,-0.027191,-0.24168,2.3643,-0.24132,0.031904,0.43881,0.02325,-0.022493,-0.12648,-0.13309,-0.17651,0.092352,-0.057228,1.6151,2.2094
0.002713,-0.022033,-0.22965,-0.028148,-0.49245,-0.19093,-0.45201,-0.63744,-0.089203,-0.09744,-0.3087,2.38,-0.17034,0.021987,0.44648,-0.087987,-0.033258,-0.1309,-0.12606,-0.21336,0.085293,-0.032644,1.7951,2.1023
0.0024505,-0.028039,-0.23062,-0.01929,-0.48615,-0.20665,-0.53522,-0.61997,-0.14738,-0.16226,-0.37897,2.3007,0.08054,0.025386,0.43027,-0.20457,-0.043005,-0.13626,-0.11231,-0.24386,0.065593,-0.019175,1.8642,2.0137
0.0039722,-0.031062,-0.23316,-0.015352,-0.48116,-0.22554,-0.6256,-0.60673,-0.14228,-0.21615,-0.44521,2.1572,0.42172,0.031845,0.39054,-0.23448,-0.047628,-0.13931,-0.099484,-0.26171,0.041965,-0.013718,1.822,1.9721
0.0069633,-0.029144,-0.24054,-0.015676,-0.48855,-0.242,-0.70224,-0.60045,-0.11851,-0.26257,-0.50074,1.9812,0.70464,0.023309,0.32999,-0.12049,-0.04602,-0.13599,-0.095346,-0.2647,0.023952,-0.0079515,1.679,1.9546
0.010151,-0.023319,-0.25251,-0.017486,-0.51406,-0.25708,-0.74709,-0.59878,-0.12824,-0.30877,-0.54106,1.7944,0.81781,-0.011846,0.25556,0.12506,-0.039634,-0.12371,-0.10443,-0.25565,0.017586,0.0071095,1.4668,1.9045
0.011587,-0.017859,-0.26519,-0.017819,-0.5547,-0.27558,-0.75466,-0.59526,-0.19705,-0.35822,-0.56648,1.6078,0.76473,-0.0682,0.17905,0.42767,-0.030782,-0.10282,-0.12576,-0.24072,0.023481,0.035546,1.2372,1.775
0.0098112,-0.017525,-0.27357,-0.015087,-0.60134,-0.30057,-0.73528,-0.58314,-0.30846,-0.40616,-0.58407,1.4272,0.66069,-0.12565,0.11428,0.69266,-0.021449,-0.076683,-0.15284,-0.22589,0.038226,0.073277,1.0437,1.5634
0.0052134,-0.023606,-0.27503,-0.0095926,-0.64472,-0.33018,-0.70938,-0.55983,-0.4167,-0.44154,-0.60623,1.2539,0.64447,-0.16316,0.07176,0.85094,-0.013085,-0.050252,-0.17635,-0.21383,0.057558,0.10966,0.91763,1.3124
0.00032239,-0.032253,-0.27144,-0.0031772,-0.67996,-0.35892,-0.69687,-0.52921,-0.47674,-0.45375,-0.64485,1.0821,0.77045,-0.1723,0.054188,0.88227,-0.0065024,-0.027806,-0.18863,-0.20285,0.078793,0.13362,0.85756,1.0838
-0.0016148,-0.037153,-0.2681,0.001621,-0.70677,-0.38176,-0.70873,-0.49946,-0.46892,-0.43863,-0.70381,0.89999,0.96594,-0.15961,0.055927,0.81073,-0.0012883,-0.010542,-0.18769,-0.18861,0.10103,0.14063,0.84002,0.92561
0.0010859,-0.034763,-0.27009,0.0027491,-0.72685,-0.39689,-0.74617,-0.47758,-0.40282,-0.39919,-0.77507,0.69565,1.0894,-0.13707,0.066715,0.6857,0.0046485,0.0044502,-0.17842,-0.16724,0.12378,0.13596,0.83985,0.85282
0.0072385,-0.027603,-0.27867,-8.9117e-005,-0.74157,-0.40535,-0.8062,-0.46453,-0.30284,-0.34118,-0.84192,0.46622,1.0434,-0.11103,0.076847,0.56185,0.014228,0.022646,-0.16994,-0.13804,0.14594,0.13178,0.8402,0.84754
0.013661,-0.022386,-0.29042,-0.0047969,-0.752,-0.40859,-0.88713,-0.45506,-0.1913,-0.26801,-0.88794,0.2214,0.85168,-0.080473,0.080462,0.48233,0.029066,0.048266,-0.17045,-0.10376,0.16609,0.14006,0.82496,0.87059
0.0176,-0.024275,-0.29971,-0.0077148,-0.76042,-0.40698,-0.98798,-0.4428,-0.082448,-0.18009,-0.90561,-0.020643,0.63907,-0.045118,0.075719,0.46451,0.047677,0.080464,-0.18289,-0.068647,0.18346,0.16602,0.76734,0.87613
0.018655,-0.032253,-0.30266,-0.0058727,-0.77118,-0.40058,-1.1016,-0.42697,0.013101,-0.079036,-0.89823,-0.24184,0.53157,-0.013324,0.063257,0.49235,0.065819,0.11247,-0.20378,-0.035832,0.19782,0.20572,0.63557,0.82511
0.018551,-0.039848,-0.29947,0.00074012,-0.78964,-0.39081,-1.2088,-0.41526,0.084677,0.027192,-0.87452,-0.43102,0.55918,0.00054604,0.045099,0.5238,0.079016,0.13481,-0.22598,-0.0059976,0.2077,0.24834,0.41943,0.69694
0.019031,-0.040681,-0.29388,0.0087676,-0.82005,-0.38129,-1.2811,-0.41999,0.12685,0.12365,-0.841,-0.58565,0.63781,-0.011203,0.02459,0.51512,0.085302,0.14074,-0.243,0.021623,0.20867,0.28071,0.15555,0.49595
0.019917,-0.033919,-0.29019,0.013638,-0.86367,-0.37689,-1.2944,-0.45009,0.14931,0.19396,-0.79889,-0.70945,0.64116,-0.038833,0.0061265,0.44863,0.085952,0.12985,-0.25202,0.047106,0.19418,0.29151,-0.077636,0.24795
0.019212,-0.024849,-0.29056,0.01288,-0.91791,-0.38223,-1.246,-0.50471,0.17832,0.22877,-0.7473,-0.80836,0.50114,-0.058238,-0.0066159,0.34348,0.083776,0.10755,-0.25425,0.068657,0.15948,0.27444,-0.20273,-0.013867
0.015238,-0.020268,-0.29403,0.008053,-0.9761,-0.40059,-1.1612,-0.57304,0.24189,0.23143,-0.68826,-0.88668,0.2575,-0.047669,-0.01331,0.23913,0.080678,0.080998,-0.25304,0.083626,0.10626,0.23037,-0.19611,-0.26531
0.0087649,-0.022965,-0.29775,0.0036898,-1.0277,-0.43336,-1.0817,-0.64,0.34672,0.2169,-0.62715,-0.94469,0.022497,-0.0048778,-0.018113,0.16327,0.076635,0.054981,-0.2517,0.090934,0.044079,0.16818,-0.10809,-0.49782
0.0030014,-0.030082,-0.29894,0.0040122,-1.0597,-0.47906,-1.0412,-0.69336,0.46552,0.20412,-0.56754,-0.97995,-0.10551,0.049949,-0.027474,0.1095,0.070725,0.030911,-0.25234,0.092714,-0.013642,0.10275,-0.029337,-0.71011
0.0012044,-0.036267,-0.29641,0.009967,-1.06,-0.53184,-1.0431,-0.72711,0.54829,0.20619,-0.50602,-0.99348,-0.11014,0.088202,-0.045456,0.042397,0.062855,0.0088958,-0.25573,0.093535,-0.056741,0.049342,-0.025119,-0.8935
0.0039376,-0.038282,-0.29093,0.018816,-1.0232,-0.58101,-1.0589,-0.73967,0.55271,0.22393,-0.43422,-0.99786,-0.059036,0.092291,-0.069821,-0.074613,0.054323,-0.0097293,-0.2616,0.097602,-0.083801,0.016711,-0.087327,-1.0263
0.008444,-0.036956,-0.28456,0.026418,-0.95501,-0.61338,-1.0484,-0.72998,0.47242,0.24637,-0.34822,-1.0194,-0.046254,0.065231,-0.092054,-0.25127,0.04671,-0.022202,-0.26871,0.10603,-0.10187,0.002972,-0.14268,-1.0855
0.010775,-0.035351,-0.27937,0.030285,-0.87157,-0.61841,-0.98825,-0.69556,0.34238,0.25829,-0.25724,-1.0881,-0.12415,0.024546,-0.10166,-0.46333,0.040293,-0.02666,-0.27503,0.11632,-0.12055,-0.0023551,-0.11253,-1.0683
0.0088561,-0.035542,-0.27605,0.031085,-0.79276,-0.5935,-0.88845,-0.63455,0.21707,0.25027,-0.18192,-1.2177,-0.27378,-0.012048,-0.091924,-0.66891,0.033662,-0.024539,-0.2783,0.12444,-0.14471,-0.011229,0.020401,-1.0039
0.0038665,-0.037129,-0.27329,0.031684,-0.73141,-0.54615,-0.78306,-0.54978,0.13754,0.22522,-0.14092,-1.3897,-0.42814,-0.036614,-0.063197,-0.83265,0.024985,-0.020358,-0.27717,0.12797,-0.17076,-0.029776,0.18812,-0.94373
-0.001133,-0.038386,-0.26821,0.034716,-0.6862,-0.49099,-0.70385,-0.45117,0.11039,0.19654,-0.13588,-1.5549,-0.52322,-0.050434,-0.021734,-0.93839,0.013784,-0.018713,-0.27216,0.12815,-0.1889,-0.055816,0.27319,-0.93547
-0.0038929,-0.038334,-0.25803,0.040618,-0.64366,-0.44322,-0.65729,-0.35367,0.11125,0.17884,-0.14808,-1.6568,-0.53742,-0.057109,0.024799,-0.98368,0.0016295,-0.02099,-0.26581,0.12933,-0.18935,-0.082302,0.17727,-0.99915
-0.0045326,-0.037553,-0.24191,0.047474,-0.58852,-0.41213,-0.62259,-0.27175,0.10693,0.1774,-0.15124,-1.6639,-0.49553,-0.057893,0.071884,-0.96551,-0.0088108,-0.024772,-0.26159,0.13623,-0.16842,-0.10314,-0.12513,-1.1217
-0.0047648,-0.037231,-0.2217,0.052596,-0.51515,-0.39795,-0.57077,-0.21358,0.078062,0.18419,-0.13086,-1.5887,-0.44261,-0.053155,0.11974,-0.87384,-0.015488,-0.026496,-0.26204,0.15084,-0.13095,-0.11652,-0.57867,-1.2706
-0.0058549,-0.037723,-0.20085,0.054556,-0.43128,-0.39365,-0.48786,-0.17859,0.026899,0.18359,-0.093861,-1.4808,-0.41234,-0.046357,0.17103,-0.7016,-0.018094,-0.02495,-0.26703,0.1709,-0.088133,-0.12372,-1.0806,-1.4125
-0.0074257,-0.038092,-0.18235,0.054192,-0.35104,-0.39014,-0.38384,-0.15942,-0.031772,0.16386,-0.060117,-1.3988,-0.41285,-0.044497,0.22637,-0.46468,-0.017924,-0.022417,-0.2733,0.191,-0.052585,-0.12561,-1.5254,-1.5243
-0.0081523,-0.036902,-0.16697,0.0539,-0.2832,-0.38227,-0.2819,-0.14655,-0.085951,0.12561,-0.042838,-1.378,-0.43491,-0.053488,0.28061,-0.21437,-0.016847,-0.022434,-0.27582,0.20541,-0.033137,-0.12066,-1.8338,-1.5924
-0.0074161,-0.033358,-0.1532,0.055795,-0.22433,-0.37227,-0.19946,-0.13235,-0.13489,0.081127,-0.034566,-1.4143,-0.46949,-0.07293,0.32284,-0.026819,-0.016244,-0.026322,-0.27048,0.21095,-0.031768,-0.10655,-1.9599,-1.6091
-0.0061135,-0.027855,-0.13872,0.060114,-0.16234,-0.36848,-0.13691,-0.11229,-0.18538,0.045366,-0.011017,-1.4691,-0.51718,-0.095596,0.34097,0.030344,-0.01644,-0.03177,-0.25677,0.208,-0.043617,-0.083676,-1.8896,-1.5729
-0.0058163,-0.021736,-0.12217,0.065065,-0.087077,-0.38003,-0.081192,-0.083665,-0.24124,0.025411,0.050221,-1.4908,-0.58213,-0.11208,0.32873,-0.064055,-0.016728,-0.034834,-0.23846,0.1994,-0.059821,-0.057045,-1.6415,-1.4884
-0.0072063,-0.016659,-0.10414,0.068206,0.0012431,-0.40986,-0.01799,-0.043773,-0.29628,0.016028,0.15146,-1.4381,-0.65839,-0.11596,0.29051,-0.26795,-0.015873,-0.033502,-0.22144,0.18821,-0.071764,-0.03439,-1.2658,-1.3629
-0.0093961,-0.013979,-0.086725,0.068238,0.092995,-0.4506,0.0591,0.010272,-0.33718,0.0033759,0.27161,-1.2947,-0.72352,-0.10478,0.24023,-0.49509,-0.013003,-0.02948,-0.20953,0.17616,-0.074676,-0.021656,-0.83349,-1.1968
-0.010787,-0.014235,-0.072263,0.065809,0.17796,-0.48613,0.14833,0.079961,-0.35365,-0.026838,0.37948,-1.0709,-0.74765,-0.077421,0.19363,-0.66083,-0.0085612,-0.026549,-0.20074,0.16372,-0.068798,-0.019221,-0.41145,-0.98037
-0.010578,-0.016839,-0.061859,0.062805,0.25397,-0.49844,0.24507,0.16347,-0.34733,-0.082612,0.45219,-0.79314,-0.71237,-0.032297,0.15869,-0.72595,-0.0046454,-0.027069,-0.18677,0.1515,-0.05773,-0.021688,-0.037792,-0.70327
-0.0094749,-0.020169,-0.054507,0.060909,0.32758,-0.47588,0.34565,0.255,-0.33172,-0.1634,0.4847,-0.48828,-0.62461,0.030117,0.13085,-0.70994,-0.0040726,-0.029922,-0.1569,0.1413,-0.045347,-0.021278,0.28471,-0.3747
-0.008995,-0.022244,-0.04716,0.060727,0.40675,-0.41809,0.44737,0.34591,-0.32306,-0.26128,0.48558,-0.17043,-0.51394,0.10253,0.097097,-0.66693,-0.0083401,-0.031696,-0.10475,0.13578,-0.033518,-0.012331,0.57222,-0.03419
-0.010109,-0.021725,-0.035894,0.06207,0.4921,-0.33517,0.54752,0.42674,-0.32892,-0.36292,0.46545,0.16121,-0.41485,0.16959,0.046427,-0.64393,-0.015826,-0.029782,-0.034118,0.1365,-0.022035,0.0060702,0.83462,0.26206
-0.012473,-0.018558,-0.017871,0.064771,0.57497,-0.24231,0.64495,0.48955,-0.34324,-0.45112,0.42895,0.512,-0.34716,0.21346,-0.020881,-0.65262,-0.021901,-0.024283,0.039756,0.14202,-0.010275,0.030577,1.0631,0.4747
-0.014822,-0.013751,0.0068284,0.068914,0.64368,-0.15311,0.74248,0.53042,-0.35108,-0.50728,0.37532,0.87616,-0.30821,0.22319,-0.092126,-0.67222,-0.021438,-0.017002,0.095277,0.14758,0.0012394,0.056102,1.2405,0.60862
-0.016029,-0.0085143,0.034688,0.074145,0.6926,-0.074108,0.84567,0.55175,-0.33896,-0.51603,0.30444,1.2286,-0.28073,0.20035,-0.15007,-0.67558,-0.012228,-0.0088565,0.11412,0.14735,0.010825,0.078318,1.3631,0.70909
-0.015835,-0.0035563,0.060223,0.078927,0.72654,-0.0015511,0.95632,0.56318,-0.30253,-0.47104,0.2212,1.5332,-0.24818,0.15652,-0.18389,-0.6534,0.0032458,0.0013336,0.090684,0.13784,0.017008,0.094754,1.454,0.82663
-0.014769,0.00084489,0.078868,0.080915,0.75745,0.078584,1.0658,0.57911,-0.24606,-0.3784,0.1348,1.763,-0.20522,0.10479,-0.19516,-0.61703,0.019197,0.015159,0.036055,0.12013,0.019868,0.10454,1.5525,0.97791
-0.013544,0.0042858,0.089552,0.078521,0.79674,0.18592,1.1554,0.61247,-0.17528,-0.25484,0.054662,1.9185,-0.15675,0.052731,-0.19498,-0.5816,0.030121,0.031665,-0.026362,0.099255,0.021227,0.10775,1.6877,1.1344
-0.01257,0.0060644,0.095194,0.072365,0.84915,0.33585,1.2057,0.66741,-0.090942,-0.12134,-0.012603,2.0263,-0.10884,0.0022135,-0.19536,-0.54828,0.033864,0.046311,-0.07182,0.080968,0.023814,0.10504,1.855,1.2455
-0.011878,0.0058455,0.1006,0.065074,0.91131,0.52792,1.2075,0.73606,0.010505,0.0039655,-0.063378,2.1197,-0.060392,-0.045165,-0.20158,-0.50294,0.031987,0.053409,-0.085894,0.068305,0.030309,0.09747,2.0131,1.2744
-0.011275,0.0045261,0.10907,0.059326,0.97398,0.73982,1.1654,0.80238,0.12927,0.10913,-0.095924,2.2127,-0.0025002,-0.083589,-0.21099,-0.43195,0.027547,0.050277,-0.069982,0.060457,0.04268,0.086067,2.1062,1.2152
-0.010452,0.0041387,0.12011,0.055776,1.0253,0.93381,1.092,0.85156,0.2544,0.18733,-0.11031,2.2891,0.074983,-0.10458,-0.21804,-0.33958,0.022475,0.039542,-0.037376,0.054617,0.061308,0.07102,2.0942,1.0842
-0.009023,0.0064378,0.12989,0.05278,1.0542,1.075,0.99739,0.87863,0.36403,0.23413,-0.10935,2.3129,0.17544,-0.10353,-0.22067,-0.25076,0.016688,0.027559,-0.0026805,0.049098,0.083553,0.051192,1.9737,0.89997
-0.0067146,0.011294,0.13423,0.048242,1.0546,1.1514,0.88593,0.89032,0.43543,0.24675,-0.098476,2.2525,0.29239,-0.08497,-0.22318,-0.19686,0.0092767,0.020199,0.028074,0.045123,0.1028,0.024791,1.7739,0.6762
-0.0037305,0.01655,0.13203,0.04184,1.0297,1.1823,0.76126,0.89904,0.45843,0.22622,-0.083166,2.0994,0.41309,-0.061112,-0.23353,-0.19678,0.00024366,0.019411,0.059896,0.046007,0.10996,-0.0086552,1.5346,0.43219
-0.00092983,0.019804,0.1264,0.035512,0.99337,1.2066,0.63352,0.91385,0.44185,0.17955,-0.065619,1.8709,0.52556,-0.044115,-0.25744,-0.2488,-0.0088421,0.022992,0.10266,0.054626,0.098196,-0.046151,1.2807,0.20425
0.00056718,0.020616,0.12274,0.03169,0.96461,1.2583,0.51933,0.9349,0.40771,0.11869,-0.043592,1.5986,0.6236,-0.038159,-0.29337,-0.33818,-0.015697,0.02718,0.16156,0.071235,0.068562,-0.080676,1.012,0.039462
0.00025644,0.021009,0.12509,0.030952,0.95633,1.3447,0.43244,0.95467,0.37703,0.055846,-0.012619,1.3133,0.70697,-0.037678,-0.33143,-0.45197,-0.018746,0.029525,0.23165,0.092971,0.032068,-0.10334,0.71447,-0.029158
-0.0010758,0.023537,0.13329,0.031299,0.96587,1.4436,0.37267,0.96386,0.35756,-0.0013874,0.03065,1.0387,0.77777,-0.033023,-0.35688,-0.58739,-0.017997,0.029766,0.30044,0.11496,0.005216,-0.10749,0.38158,-0.0074952
-0.0016166,0.028588,0.14332,0.029715,0.97469,1.5201,0.32397,0.95694,0.34192,-0.051344,0.087261,0.79026,0.83712,-0.018824,-0.35635,-0.74724,-0.014991,0.028531,0.35591,0.13198,0.00065664,-0.092474,0.029039,0.055034
0.00022501,0.033491,0.15015,0.024545,0.95908,1.5512,0.26536,0.93438,0.3161,-0.09509,0.15756,0.57675,0.88491,0.0015117,-0.32377,-0.92693,-0.01211,0.025563,0.39339,0.14004,0.019082,-0.064351,-0.31049,0.086121
0.004432,0.0345,0.1511,0.016615,0.90477,1.5387,0.18694,0.90163,0.27114,-0.13178,0.24264,0.39714,0.92128,0.018285,-0.26335,-1.1048,-0.011585,0.019326,0.41646,0.13746,0.048498,-0.033013,-0.60833,0.023974
0.0090131,0.030091,0.14713,0.0083188,0.81483,1.5019,0.098552,0.86733,0.20924,-0.15663,0.34247,0.2372,0.94686,0.022517,-0.1879,-1.2441,-0.014346,0.0084667,0.43203,0.1255,0.072035,-0.007219,-0.85869,-0.15466
0.011163,0.022655,0.1414,0.0017449,0.70579,1.4586,0.023455,0.84177,0.14119,-0.16284,0.45152,0.071392,0.96042,0.011882,-0.11336,-1.3058,-0.019044,-0.0061129,0.44446,0.10789,0.079071,0.009266,-1.078,-0.42382
0.0092882,0.016997,0.13665,-0.0025125,0.59628,1.4113,-0.018338,0.83499,0.078424,-0.14557,0.55658,-0.12695,0.95687,-0.0086132,-0.052253,-1.2644,-0.022087,-0.020441,0.45342,0.089224,0.071709,0.018137,-1.2827,-0.71789
0.004436,0.016773,0.13331,-0.0051692,0.49781,1.3504,-0.024472,0.8536,0.026317,-0.10442,0.6407,-0.37212,0.9299,-0.031018,-0.0095274,-1.1168,-0.01935,-0.028913,0.4562,0.072949,0.062064,0.023657,-1.4618,-0.95775
-7.3321e-005,0.021808,0.12973,-0.0073178,0.41376,1.2695,-0.011351,0.89747,-0.016864,-0.04304,0.69139,-0.65856,0.87945,-0.049955,0.017236,-0.8809,-0.0090582,-0.027291,0.45165,0.060305,0.062674,0.028712,-1.5689,-1.0859
-0.00080072,0.028436,0.1239,-0.0097025,0.34429,1.1757,-0.0012698,0.95907,-0.055729,0.032859,0.70661,-0.96505,0.81742,-0.065,0.034063,-0.58824,0.0061306,-0.015338,0.44188,0.051096,0.077341,0.032606,-1.5435,-1.0965
0.0032716,0.032427,0.11513,-0.012512,0.29011,1.0832,-0.0057043,1.0268,-0.091993,0.11704,0.69288,-1.268,0.76428,-0.07863,0.046173,-0.27633,0.019907,0.0027649,0.43079,0.045498,0.09894,0.031878,-1.351,-1.0443
0.0096914,0.032005,0.10456,-0.01537,0.25106,0.99547,-0.017576,1.0912,-0.12148,0.20314,0.65732,-1.5538,0.73594,-0.092125,0.055825,0.015219,0.026069,0.020571,0.42091,0.045036,0.11504,0.023108,-1.0124,-1.02
0.013953,0.028615,0.094297,-0.017316,0.22235,0.89451,-0.017922,1.1495,-0.13577,0.28472,0.6011,-1.8221,0.73026,-0.10334,0.063241,0.24744,0.022792,0.032666,0.4116,0.051565,0.11627,0.0053262,-0.60269,-1.0993
0.012568,0.025165,0.085984,-0.017055,0.1948,0.75034,0.0089525,1.2061,-0.12704,0.35602,0.52107,-2.0781,0.72616,-0.10846,0.069052,0.38837,0.014037,0.036952,0.39947,0.065053,0.10093,-0.019731,-0.21648,-1.2902
0.0056339,0.023552,0.07986,-0.013766,0.16093,0.54698,0.063844,1.2686,-0.092571,0.41271,0.4183,-2.3203,0.69911,-0.1061,0.075785,0.42437,0.0067523,0.034629,0.38026,0.082309,0.07321,-0.049331,0.073792,-1.5139
-0.0030715,0.023563,0.074835,-0.008091,0.122,0.30364,0.13272,1.3416,-0.03565,0.45182,0.30546,-2.5347,0.64326,-0.099834,0.086929,0.37053,0.0058868,0.028396,0.35058,0.098048,0.037743,-0.081551,0.24112,-1.6372
-0.0086172,0.023758,0.06941,-0.0023388,0.088399,0.072478,0.19673,1.4225,0.037476,0.47058,0.20538,-2.6988,0.58278,-0.096164,0.10417,0.27041,0.011107,0.020562,0.30898,0.10751,-0.0040494,-0.11538,0.29633,-1.5461
-0.0082486,0.02317,0.062693,0.00065988,0.0715,-0.086749,0.2432,1.5003,0.12147,0.46602,0.14071,-2.7928,0.56142,-0.098937,0.12487,0.18045,0.017671,0.012377,0.25676,0.10838,-0.052809,-0.14901,0.26229,-1.2191
-0.0030486,0.022173,0.054757,-0.00056222,0.073109,-0.13692,0.26989,1.5591,0.21243,0.43664,0.122,-2.8111,0.61481,-0.105,0.1419,0.14561,0.020437,0.0045009,0.19875,0.10056,-0.10693,-0.17808,0.15311,-0.7523
0.0031943,0.021889,0.046234,-0.0049565,0.081721,-0.077958,0.28185,1.5842,0.30368,0.38574,0.14265,-2.766,0.74297,-0.1056,0.14656,0.18132,0.017571,-0.0025056,0.14331,0.08443,-0.15954,-0.19584,-0.02763,-0.31543
0.0068466,0.022909,0.037701,-0.0095861,0.07922,0.060179,0.28583,1.5687,0.38041,0.3231,0.18328,-2.6815,0.9011,-0.093611,0.13339,0.27452,0.011151,-0.0084673,0.10022,0.059959,-0.19995,-0.19581,-0.2743,-0.062376
0.0067218,0.024586,0.029518,-0.011617,0.052824,0.23465,0.28684,1.5181,0.41952,0.26243,0.2217,-2.5814,1.0157,-0.071515,0.10404,0.40291,0.004784,-0.014248,0.076671,0.027655,-0.21857,-0.17505,-0.56784,-0.053935
0.0041998,0.025507,0.022201,-0.010078,0.0030378,0.40235,0.28685,1.4475,0.39774,0.21526,0.24217,-2.4771,1.0178,-0.05303,0.067685,0.55704,0.00070673,-0.021655,0.073362,-0.0095424,-0.2116,-0.1359,-0.87598,-0.24326
0.0014883,0.024622,0.01671,-0.0060286,-0.057677,0.52383,0.28378,1.375,0.30386,0.1855,0.24002,-2.3614,0.87599,-0.055895,0.037201,0.7467,-0.0012738,-0.032067,0.083791,-0.045928,-0.18219,-0.085006,-1.1619,-0.5294
-0.00023793,0.02204,0.014087,-0.0012172,-0.11302,0.56602,0.27078,1.3122,0.14642,0.16921,0.22107,-2.2107,0.61307,-0.09012,0.022915,0.98555,-0.0027092,-0.044598,0.097777,-0.075369,-0.13788,-0.030569,-1.3917,-0.83384
-0.0013008,0.018884,0.014596,0.0033802,-0.1509,0.51132,0.23891,1.2599,-0.049566,0.16023,0.19713,-1.9958,0.29817,-0.15015,0.027321,1.2667,-0.0048501,-0.055422,0.10723,-0.094834,-0.087022,0.020204,-1.5353,-1.14
-0.0025491,0.016468,0.017262,0.0078017,-0.16667,0.36951,0.18394,1.2099,-0.25371,0.15714,0.17933,-1.6983,0.018737,-0.2168,0.043924,1.552,-0.0079527,-0.059283,0.11018,-0.10616,-0.036359,0.06249,-1.5669,-1.4697
-0.004183,0.015485,0.020425,0.012139,-0.16199,0.17982,0.11285,1.1522,-0.44001,0.16525,0.17206,-1.3282,-0.15444,-0.2675,0.061064,1.7869,-0.011729,-0.052676,0.11021,-0.11442,0.0094816,0.094347,-1.471,-1.8256
-0.005541,0.015761,0.022942,0.015632,-0.14265,-0.0051988,0.042623,1.0819,-0.58806,0.19117,0.17107,-0.93032,-0.19308,-0.28745,0.068748,1.9322,-0.016,-0.036829,0.11218,-0.12407,0.04784,0.11702,-1.2522,-2.1553
-0.0058616,0.016572,0.024908,0.017007,-0.1171,-0.1466,-0.010393,1.0005,-0.67879,0.23351,0.16777,-0.57371,-0.11674,-0.27435,0.064636,1.987,-0.020758,-0.018434,0.11786,-0.13604,0.078085,0.13484,-0.93888,-2.372
-0.0050535,0.017153,0.027174,0.015848,-0.094462,-0.23765,-0.043423,0.91393,-0.69473,0.27743,0.15736,-0.32353,0.02374,-0.23539,0.055589,1.9799,-0.025815,-0.0072061,0.12501,-0.14793,0.10155,0.15369,-0.57218,-2.4143
-0.0036416,0.017076,0.030066,0.013567,-0.080596,-0.29943,-0.071127,0.82886,-0.63062,0.29863,0.14429,-0.20848,0.17478,-0.18076,0.05363,1.9349,-0.030729,-0.011172,0.13011,-0.15661,0.12045,0.17784,-0.18605,-2.2937
-0.0020543,0.016379,0.032518,0.012661,-0.073716,-0.35703,-0.11584,0.75161,-0.5074,0.27573,0.13968,-0.20517,0.30503,-0.11937,0.068623,1.8402,-0.035242,-0.032124,0.13187,-0.16069,0.13586,0.20679,0.20413,-2.0909
-0.00015275,0.015518,0.032453,0.014612,-0.063473,-0.41653,-0.19163,0.68756,-0.37379,0.20325,0.15226,-0.25239,0.4137,-0.058417,0.10245,1.6506,-0.039656,-0.064006,0.13229,-0.16072,0.14628,0.23477,0.59176,-1.9054
0.0024051,0.015154,0.028157,0.018234,-0.036139,-0.4614,-0.29528,0.63967,-0.28624,0.096522,0.18086,-0.28742,0.51943,-0.0044643,0.14879,1.3303,-0.044469,-0.095595,0.13451,-0.15754,0.14828,0.25408,0.95369,-1.7993
0.0053445,0.015784,0.019623,0.020246,0.016482,-0.46957,-0.41093,0.60561,-0.27665,-0.014861,0.21597,-0.27829,0.63805,0.03719,0.19863,0.90429,-0.049443,-0.11626,0.13995,-0.15088,0.13902,0.26009,1.2317,-1.7757
0.0074652,0.01736,0.0089322,0.017944,0.09066,-0.43464,-0.52252,0.57651,-0.33134,-0.10121,0.24958,-0.22768,0.7638,0.064726,0.24724,0.47103,-0.053105,-0.12132,0.14742,-0.13983,0.11888,0.25424,1.3418,-1.7978
0.0073679,0.019185,-0.00053749,0.011893,0.17208,-0.37197,-0.62184,0.53999,-0.39982,-0.14591,0.28344,-0.14813,0.86565,0.081005,0.29666,0.15698,-0.053518,-0.11344,0.155,-0.12458,0.091805,0.24247,1.2126,-1.8248
0.0046829,0.020307,-0.0056565,0.0061866,0.24443,-0.30546,-0.70545,0.48679,-0.42919,-0.1507,0.32627,-0.034052,0.90144,0.091777,0.35153,0.036691,-0.049896,-0.099232,0.16239,-0.10752,0.063385,0.2306,0.82906,-1.8345
0.00065055,0.020217,-0.0050771,0.0057055,0.29943,-0.24827,-0.76564,0.41628,-0.39855,-0.13174,0.38073,0.13988,0.84184,0.10214,0.41198,0.07824,-0.043528,-0.083736,0.17141,-0.092029,0.038177,0.2206,0.25045,-1.8253
-0.0026314,0.019282,5.9356e-005,0.012313,0.34124,-0.19465,-0.78602,0.33672,-0.32636,-0.10994,0.43261,0.38903,0.69126,0.11438,0.47033,0.16156,-0.036878,-0.067083,0.18402,-0.080052,0.018526,0.21093,-0.41055,-1.8078
-0.0037966,0.018437,0.0067779,0.023055,0.38296,-0.12841,-0.74766,0.26008,-0.2456,-0.10122,0.455,0.68465,0.49344,0.12871,0.51501,0.16421,-0.031405,-0.045936,0.20009,-0.070564,0.0053345,0.20003,-1.0367,-1.7969
-0.003314,0.01829,0.012094,0.031973,0.43783,-0.038336,-0.64097,0.19585,-0.16876,-0.11035,0.42762,0.951,0.31729,0.14505,0.5386,0.054718,-0.026132,-0.018042,0.21708,-0.060501,-0.00061273,0.18927,-1.5509,-1.8057
-0.0030976,0.01842,0.014892,0.034305,0.51079,0.073479,-0.47356,0.14825,-0.07351,-0.12992,0.35631,1.1045,0.22794,0.16319,0.54265,-0.077893,-0.018513,0.014363,0.2319,-0.047436,0.0014715,0.18224,-1.9304,-1.832
-0.0048648,0.017613,0.016429,0.029848,0.59493,0.19528,-0.2686,0.11736,0.077054,-0.1441,0.27497,1.1083,0.25637,0.18088,0.53447,-0.084573,-0.0070393,0.045566,0.24293,-0.03171,0.011072,0.18093,-2.187,-1.8409
-0.0085914,0.015029,0.018916,0.022861,0.67389,0.31425,-0.05727,0.10107,0.29511,-0.13595,0.22512,0.99752,0.38287,0.19296,0.51911,0.13563,0.0068165,0.071037,0.25019,-0.016305,0.02517,0.18253,-2.3328,-1.7622
-0.012379,0.011327,0.023236,0.018599,0.72837,0.42033,0.12777,0.094737,0.54197,-0.09574,0.22768,0.85521,0.54396,0.19413,0.49401,0.55974,0.019319,0.091547,0.25362,-0.0047319,0.038859,0.18029,-2.3601,-1.5171
-0.013871,0.0086401,0.027773,0.019268,0.74371,0.50335,0.25481,0.089148,0.73767,-0.026749,0.26858,0.75477,0.66039,0.18408,0.45185,1.0523,0.027338,0.11285,0.25174,0.0012224,0.047782,0.16827,-2.2501,-1.0695
-0.012016,0.0091416,0.029482,0.022579,0.71528,0.55042,0.29526,0.070425,0.80091,0.054509,0.30943,0.71508,0.67163,0.17,0.38888,1.4503,0.030701,0.14079,0.24245,0.002258,0.050461,0.14607,-2.0002,-0.46404
-0.0077222,0.013185,0.026385,0.023944,0.64957,0.55018,0.23089,0.024431,0.69138,0.12452,0.31429,0.69943,0.55891,0.16268,0.31086,1.6527,0.031768,0.17569,0.22574,0.00064007,0.048348,0.1194,-1.6455,0.18185
-0.0029194,0.018582,0.019328,0.020391,0.56068,0.50207,0.065164,-0.056136,0.42619,0.16269,0.27131,0.65398,0.34638,0.16817,0.23045,1.647,0.032668,0.21054,0.2056,-0.0013953,0.04337,0.09579,-1.2512,0.7366
0.0010179,0.021832,0.0115,0.013012,0.46439,0.42141,-0.16917,-0.16686,0.063708,0.16007,0.19437,0.55068,0.084102,0.18179,0.15818,1.4663,0.033033,0.23458,0.18874,-0.0028031,0.035139,0.078642,-0.87832,1.1241
0.0040207,0.0206,0.0062132,0.0060647,0.37312,0.3337,-0.41504,-0.29288,-0.3282,0.12238,0.10685,0.40146,-0.17313,0.19021,0.095063,1.1315,0.030581,0.23959,0.18013,-0.00405,0.020636,0.064347,-0.54699,1.3521
0.0066445,0.015553,0.0049051,0.0036121,0.29425,0.26114,-0.61061,-0.41575,-0.69508,0.066258,0.02367,0.23929,-0.37916,0.18067,0.033554,0.6427,0.024002,0.22441,0.17887,-0.0067403,-0.0028396,0.044625,-0.22967,1.4797
0.008776,0.010041,0.0068793,0.0064262,0.23172,0.21213,-0.71507,-0.52177,-0.99842,0.010907,-0.05437,0.090341,-0.50104,0.14992,-0.033989,0.034024,0.015112,0.19509,0.17758,-0.012762,-0.033773,0.012313,0.11653,1.553
0.0091992,0.0076764,0.01051,0.011482,0.18816,0.18156,-0.72673,-0.60697,-1.2062,-0.030173,-0.13267,-0.035213,-0.523,0.10593,-0.1071,-0.56564,0.0078687,0.16135,0.16662,-0.023127,-0.065247,-0.033662,0.50038,1.5652
0.0066696,0.0096398,0.014413,0.01422,0.16521,0.16001,-0.6819,-0.67656,-1.2884,-0.053512,-0.21199,-0.12961,-0.45431,0.061792,-0.17655,-0.94111,0.0050172,0.13229,0.14014,-0.036937,-0.088256,-0.087538,0.86976,1.4748
0.0015908,0.013857,0.017547,0.011741,0.16163,0.14238,-0.63265,-0.73983,-1.2276,-0.064568,-0.28516,-0.17255,-0.33435,0.02768,-0.23168,-0.89292,0.0056998,0.11382,0.099561,-0.051222,-0.097491,-0.1403,1.1325,1.2615
-0.0034152,0.016725,0.018668,0.0046196,0.17158,0.12902,-0.6145,-0.8034,-1.0353,-0.072866,-0.3425,-0.13887,-0.22161,0.0073408,-0.26924,-0.3716,0.0066005,0.10846,0.051683,-0.062156,-0.095037,-0.1847,1.2133,0.96642
-0.0049271,0.015975,0.016336,-0.0037299,0.18583,0.1205,-0.62258,-0.86627,-0.75903,-0.086711,-0.37864,-0.028391,-0.16422,0.00013613,-0.29626,0.45966,0.0057085,0.11624,0.0031286,-0.067179,-0.088721,-0.2183,1.1048,0.67849
-0.0012208,0.01227,0.0099066,-0.0094503,0.19607,0.11353,-0.61281,-0.9196,-0.46897,-0.11029,-0.39371,0.11105,-0.17038,0.0041421,-0.32519,1.2961,0.0050304,0.1355,-0.044581,-0.066652,-0.086172,-0.24284,0.8759,0.47546
0.0061873,0.008263,0.00052723,-0.010645,0.19918,0.10273,-0.53055,-0.95177,-0.22965,-0.14376,-0.38936,0.19893,-0.20578,0.016125,-0.36596,1.8595,0.0093752,0.1635,-0.095348,-0.063696,-0.089446,-0.26157,0.63054,0.37085
0.013333,0.006049,-0.0091624,-0.0082399,0.19827,0.086344,-0.34978,-0.95631,-0.074971,-0.18482,-0.3653,0.17671,-0.22784,0.029427,-0.42116,2.0497,0.022053,0.19713,-0.15417,-0.062175,-0.094822,-0.27695,0.44902,0.31055
0.016401,0.0053743,-0.016781,-0.0049161,0.1992,0.069116,-0.096339,-0.93751,-0.0017432,-0.2301,-0.32099,0.062852,-0.23316,0.034684,-0.4867,1.9753,0.041389,0.23419,-0.22186,-0.064233,-0.097977,-0.29078,0.35151,0.22032
0.014129,0.0041938,-0.021968,-0.0030353,0.20558,0.058744,0.16297,-0.90946,0.016651,-0.27575,-0.26042,-0.041781,-0.27548,0.025739,-0.55487,1.8485,0.061361,0.27431,-0.29326,-0.069217,-0.099909,-0.30569,0.30325,0.063015
0.0082469,0.00097372,-0.026448,-0.0030559,0.21604,0.058973,0.35976,-0.8884,0.0089426,-0.31805,-0.19401,-0.015238,-0.43039,0.0062919,-0.61625,1.8308,0.075909,0.31844,-0.36048,-0.074691,-0.10808,-0.3257,0.24937,-0.13933
0.0018631,-0.0035186,-0.032148,-0.0035144,0.2257,0.065717,0.46451,-0.88376,-0.0074696,-0.35429,-0.13455,0.19499,-0.7286,-0.010628,-0.65986,1.9416,0.083156,0.36632,-0.41845,-0.07858,-0.13127,-0.35419,0.15101,-0.32985
-0.0026915,-0.0066954,-0.038946,-0.0024464,0.22949,0.069647,0.49937,-0.89455,-0.025596,-0.38317,-0.089991,0.51993,-1.1134,-0.013158,-0.67495,2.0849,0.085921,0.41315,-0.46847,-0.080648,-0.1722,-0.3903,0.0018453,-0.46025
-0.0049134,-0.0064832,-0.044135,0.00096704,0.22397,0.062574,0.5158,-0.91366,-0.03952,-0.40343,-0.059394,0.80011,-1.4645,-0.003696,-0.65631,2.1527,0.08839,0.44788,-0.51694,-0.082271,-0.22397,-0.4271,-0.17734,-0.51582
-0.0056064,-0.0032985,-0.044211,0.0058863,0.20617,0.041892,0.55639,-0.93615,-0.038017,-0.41107,-0.03554,0.88281,-1.6775,-0.002179,-0.61024,2.1114,0.09216,0.4556,-0.57012,-0.084945,-0.27321,-0.45386,-0.35568,-0.50776
-0.0056909,0.00024037,-0.037582,0.0108,0.17168,0.0099487,0.63015,-0.96427,-0.0075016,-0.39809,-0.011707,0.7174,-1.7375,-0.033611,-0.555,2.0103,0.09514,0.42386,-0.62879,-0.088945,-0.30728,-0.46158,-0.50931,-0.44956
-0.0055253,0.0016274,-0.025922,0.015027,0.11539,-0.02989,0.71675,-1.0052,0.058968,-0.35514,0.013258,0.38148,-1.7254,-0.10762,-0.51265,1.9214,0.09394,0.35008,-0.68621,-0.093174,-0.31999,-0.44807,-0.63204,-0.34465
-0.0051022,0.00065409,-0.013119,0.019238,0.035354,-0.076275,0.79059,-1.0638,0.15545,-0.27772,0.035496,0.02297,-1.7476,-0.20637,-0.4962,1.8765,0.087198,0.24535,-0.73068,-0.096098,-0.31214,-0.41872,-0.73686,-0.19623
-0.004511,-0.0005515,-0.0027926,0.024407,-0.063528,-0.12974,0.84179,-1.1372,0.26565,-0.17142,0.050995,-0.23499,-1.8439,-0.29192,-0.5015,1.8522,0.07679,0.13163,-0.7507,-0.096806,-0.28789,-0.38231,-0.84762,-0.025085
-0.003944,0.00039657,0.0035056,0.030173,-0.16993,-0.19064,0.87856,-1.2157,0.37241,-0.051429,0.059896,-0.35761,-1.949,-0.32835,-0.51024,1.8034,0.066161,0.033397,-0.74002,-0.095365,-0.25081,-0.34506,-0.98463,0.12693
-0.0032655,0.0039387,0.0061961,0.034382,-0.27116,-0.25795,0.91441,-1.2899,0.46684,0.064706,0.066408,-0.39297,-1.938,-0.30229,-0.50232,1.7048,0.0577,-0.03177,-0.7003,-0.09245,-0.20253,-0.30687,-1.1522,0.21563
-0.0018508,0.008247,0.0062603,0.034547,-0.35885,-0.33002,0.95514,-1.3568,0.55029,0.16614,0.074863,-0.41529,-1.7223,-0.22688,-0.46831,1.5598,0.051704,-0.058443,-0.64104,-0.088807,-0.1439,-0.26218,-1.3362,0.22103
0.00079944,0.010929,0.00417,0.030118,-0.43067,-0.40617,0.997,-1.4203,0.6287,0.25293,0.086008,-0.46814,-1.3204,-0.12902,-0.41334,1.3828,0.047545,-0.052168,-0.57713,-0.085117,-0.076491,-0.20435,-1.5117,0.15965
0.0041062,0.011039,0.00012724,0.023387,-0.48734,-0.48719,1.0341,-1.4859,0.70391,0.33211,0.097277,-0.54748,-0.85346,-0.032428,-0.3509,1.1813,0.045355,-0.02377,-0.52489,-0.082245,-0.0030468,-0.13062,-1.653,0.073517
0.0061922,0.0095825,-0.0049754,0.017989,-0.52889,-0.57419,1.0654,-1.5545,0.76829,0.40894,0.1069,-0.62453,-0.47363,0.050103,-0.29263,0.96411,0.046175,0.016659,-0.49723,-0.081402,0.072747,-0.044581,-1.7357,0.0078436
0.0049735,0.0082722,-0.0092368,0.016171,-0.55436,-0.66661,1.0938,-1.6195,0.80561,0.48018,0.11782,-0.67775,-0.2829,0.1129,-0.24189,0.76231,0.050289,0.062579,-0.49869,-0.083809,0.14602,0.044736,-1.7327,-0.0036762
-0.00013762,0.0079361,-0.01065,0.017291,-0.5654,-0.7611,1.1203,-1.67,0.79728,0.53446,0.13693,-0.70451,-0.29463,0.15096,-0.19418,0.63369,0.055597,0.10995,-0.52277,-0.089923,0.21005,0.1266,-1.6138,0.060879
-0.0074118,0.0080678,-0.0083727,0.018923,-0.5694,-0.85185,1.1404,-1.6974,0.73046,0.55898,0.1694,-0.70957,-0.45132,0.15998,-0.14204,0.63287,0.058045,0.15438,-0.5537,-0.098739,0.2568,0.19303,-1.3588,0.21473
-0.013744,0.0077493,-0.0030496,0.019415,-0.57826,-0.93244,1.1453,-1.6999,0.60432,0.54696,0.21237,-0.69039,-0.67034,0.14275,-0.079905,0.76435,0.054183,0.1894,-0.57317,-0.10781,0.2796,0.24167,-0.97817,0.45477
-0.016689,0.0068761,0.0041139,0.019411,-0.60285,-0.99827,1.1272,-1.6851,0.43205,0.50105,0.25421,-0.63784,-0.88041,0.11313,-0.0065593,0.95813,0.043748,0.20771,-0.5691,-0.1142,0.27712,0.27573,-0.52672,0.74518
-0.0159,0.0064912,0.012436,0.020886,-0.64767,-1.0489,1.0822,-1.6677,0.23762,0.43128,0.2813,-0.55079,-1.0327,0.090458,0.074347,1.0942,0.029899,0.20475,-0.54102,-0.11594,0.25547,0.30093,-0.090967,1.0121
-0.012861,0.007966,0.02176,0.024778,-0.70977,-1.0891,1.0093,-1.6656,0.047795,0.35063,0.28782,-0.44536,-1.0954,0.087536,0.155,1.0651,0.0168,0.18197,-0.49818,-0.11321,0.22625,0.32136,0.24674,1.1663
-0.0093486,0.011772,0.031441,0.029683,-0.78204,-1.1284,0.90867,-1.6941,-0.11746,0.27149,0.28085,-0.34478,-1.0476,0.10286,0.22566,0.83563,0.0065738,0.14705,-0.45172,-0.10838,0.20111,0.33692,0.4478,1.1477
-0.0061708,0.016845,0.03976,0.032975,-0.85711,-1.179,0.78132,-1.7611,-0.25167,0.20392,0.27568,-0.25674,-0.88182,0.12459,0.27881,0.45736,-0.0017789,0.11002,-0.40685,-0.10478,0.18629,0.34395,0.53464,0.95961
-0.0031984,0.021043,0.044876,0.033232,-0.92888,-1.2527,0.63195,-1.8629,-0.36146,0.15454,0.28412,-0.16187,-0.6128,0.14248,0.31395,0.030123,-0.010725,0.077674,-0.36157,-0.10468,0.18086,0.33854,0.57397,0.66494
-0.00032927,0.022451,0.046693,0.031529,-0.99178,-1.3575,0.47043,-1.985,-0.4589,0.12512,0.30455,-0.02952,-0.28412,0.15615,0.33922,-0.36288,-0.021444,0.05016,-0.31235,-0.10794,0.17929,0.32014,0.63749,0.34718
0.0018776,0.020686,0.047565,0.030295,-1.0408,-1.4942,0.30992,-2.1071,-0.55145,0.11167,0.32163,0.1486,0.03463,0.1717,0.36783,-0.70042,-0.032458,0.022525,-0.2613,-0.1121,0.17613,0.29249,0.76498,0.068993
0.0026274,0.017275,0.050546,0.030841,-1.0741,-1.6531,0.16249,-2.2115,-0.63613,0.10618,0.31663,0.3373,0.26852,0.19086,0.41043,-1.0188,-0.040758,-0.009724,-0.21739,-0.11405,0.16899,0.26148,0.95069,-0.1366
0.0018686,0.014667,0.056386,0.031939,-1.0966,-1.8149,0.035559,-2.2896,-0.70196,0.10106,0.28116,0.47348,0.37591,0.20464,0.46868,-1.3635,-0.044277,-0.045385,-0.1899,-0.11198,0.15845,0.23157,1.1562,-0.24069
0.0006997,0.014372,0.062151,0.030811,-1.1197,-1.9562,-0.068088,-2.344,-0.73822,0.093841,0.22446,0.51152,0.38704,0.19922,0.53425,-1.7343,-0.043482,-0.076904,-0.17967,-0.10609,0.146,0.20368,1.3369,-0.19237
0.00067581,0.015628,0.063281,0.025611,-1.1568,-2.0589,-0.14783,-2.3844,-0.74185,0.08834,0.16904,0.46263,0.4097,0.16925,0.59376,-2.0677,-0.040803,-0.09496,-0.17637,-0.097549,0.13249,0.17625,1.4635,0.071564
0.0025854,0.015842,0.057664,0.017162,-1.2135,-2.1205,-0.20322,-2.4201,-0.71831,0.09095,0.1376,0.39274,0.57739,0.12518,0.63526,-2.2722,-0.038569,-0.094737,-0.16509,-0.086776,0.11839,0.14838,1.5306,0.57947
0.0057622,0.012799,0.048122,0.0085008,-1.2814,-2.1559,-0.2346,-2.4534,-0.67604,0.10442,0.13981,0.3764,0.95683,0.086412,0.652,-2.2933,-0.037351,-0.079074,-0.13717,-0.072838,0.10514,0.12252,1.5499,1.2791
0.0085053,0.0069692,0.040792,0.0027364,-1.339,-2.1888,-0.24537,-2.4782,-0.61999,0.12379,0.16735,0.44229,1.4758,0.065682,0.64223,-2.1602,-0.036095,-0.056485,-0.096624,-0.054987,0.095524,0.10404,1.5394,2.0389
0.009281,0.0017935,0.04053,0.0010967,-1.3617,-2.2352,-0.24346,-2.4836,-0.5498,0.13786,0.19979,0.55511,1.9364,0.059116,0.60753,-1.978,-0.033785,-0.036233,-0.057168,-0.035037,0.092421,0.097927,1.5134,2.7044
0.0078465,0.0013284,0.047206,0.0025931,-1.3353,-2.2904,-0.24013,-2.4618,-0.46377,0.13536,0.21711,0.64915,2.1244,0.051388,0.55193,-1.8704,-0.031095,-0.024592,-0.032934,-0.018175,0.096715,0.10497,1.4793,3.1748
0.0055333,0.0069675,0.056029,0.0052305,-1.2649,-2.3283,-0.24633,-2.4129,-0.36405,0.11175,0.21104,0.68555,1.9454,0.031115,0.48196,-1.9164,-0.030525,-0.024575,-0.030373,-0.010658,0.1063,0.12034,1.4382,3.4425
0.0044475,0.016047,0.061406,0.0074868,-1.1727,-2.3154,-0.26815,-2.3459,-0.25807,0.071737,0.18877,0.68512,1.4861,0.0017156,0.40558,-2.1228,-0.034777,-0.037841,-0.046619,-0.015529,0.11705,0.13593,1.3887,3.5722
0.0059813,0.023722,0.060836,0.0088587,-1.0849,-2.2312,-0.3039,-2.2717,-0.15437,0.02567,0.16755,0.71003,0.95027,-0.022571,0.32949,-2.4458,-0.044546,-0.065669,-0.073488,-0.029568,0.12506,0.14492,1.3301,3.6402
0.0095733,0.026641,0.05561,0.0093214,-1.0159,-2.0807,-0.34512,-2.1961,-0.056671,-0.017658,0.16454,0.81153,0.51525,-0.031357,0.25678,-2.8321,-0.057368,-0.10739,-0.10248,-0.044266,0.12848,0.14557,1.2638,3.6815
0.012745,0.0253,0.048285,0.0085128,-0.96041,-1.8918,-0.38251,-2.1163,0.039121,-0.056701,0.18825,0.98807,0.22318,-0.029024,0.18802,-3.2397,-0.068485,-0.15788,-0.12731,-0.050691,0.1279,0.14186,1.1955,3.6803
0.012739,0.023059,0.039797,0.0055613,-0.8998,-1.6997,-0.41456,-2.0247,0.14295,-0.097187,0.23622,1.1874,-0.0087188,-0.031316,0.12591,-3.6285,-0.073319,-0.20731,-0.14416,-0.044982,0.12552,0.14079,1.1362,3.6002
0.008798,0.022817,0.02902,-0.00023212,-0.81806,-1.5305,-0.45276,-1.9187,0.26599,-0.14647,0.29885,1.3471,-0.27606,-0.050971,0.079609,-3.9441,-0.070086,-0.2447,-0.15172,-0.030494,0.12381,0.14811,1.102,3.4239
0.0032425,0.02445,0.014918,-0.0084618,-0.71573,-1.3931,-0.51738,-1.8057,0.41696,-0.20655,0.36516,1.4383,-0.57678,-0.086059,0.063427,-4.1262,-0.060939,-0.26343,-0.15153,-0.014994,0.12435,0.1649,1.1093,3.1694
0.00012365,0.025259,-0.0011236,-0.017278,-0.61044,-1.283,-0.62384,-1.7003,0.60036,-0.27126,0.42626,1.479,-0.80124,-0.12154,0.088767,-4.1461,-0.05088,-0.26474,-0.14743,-0.0049907,0.12701,0.18644,1.163,2.879
0.0021519,0.022857,-0.01524,-0.024015,-0.52329,-1.1912,-0.76795,-1.613,0.81435,-0.33023,0.47483,1.5145,-0.82983,-0.14171,0.15392,-4.0382,-0.044997,-0.2565,-0.14316,-0.0014308,0.1294,0.20366,1.2452,2.5917
0.0083289,0.01762,-0.023455,-0.026431,-0.46177,-1.1106,-0.92198,-1.5402,1.0467,-0.37665,0.5031,1.5884,-0.6489,-0.14144,0.23955,-3.8904,-0.0456,-0.24806,-0.13942,0.00019397,0.12721,0.2064,1.3126,2.3252
0.014426,0.012383,-0.024349,-0.023788,-0.41312,-1.0366,-1.0471,-1.4645,1.2708,-0.41274,0.50278,1.7269,-0.37971,-0.12665,0.31485,-3.7863,-0.050994,-0.24515,-0.13307,0.0057452,0.11563,0.18723,1.3111,2.0725
0.01615,0.0097608,-0.019756,-0.017166,-0.35379,-0.96481,-1.1152,-1.3648,1.4476,-0.44782,0.46836,1.9391,-0.1936,-0.10556,0.35186,-3.7422,-0.056662,-0.24825,-0.11955,0.017804,0.091552,0.14439,1.2037,1.8144
0.01246,0.0097237,-0.013086,-0.0089115,-0.26695,-0.8888,-1.124,-1.2303,1.5377,-0.48945,0.40154,2.2172,-0.18655,-0.080386,0.33933,-3.6877,-0.058153,-0.25524,-0.09667,0.034133,0.054988,0.082634,0.99561,1.5325
0.0062516,0.0097465,-0.0069184,-0.0015781,-0.15371,-0.79975,-1.0949,-1.0674,1.5205,-0.53344,0.3127,2.5281,-0.31988,-0.047267,0.28731,-3.5073,-0.053797,-0.26523,-0.066716,0.050105,0.0087722,0.011461,0.7412,1.2191
0.0018859,0.0073616,-0.0018965,0.0031003,-0.029328,-0.686,-1.0555,-0.89521,1.4069,-0.56073,0.2171,2.8058,-0.47207,-0.0026491,0.2194,-3.1131,-0.04549,-0.27993,-0.035632,0.062661,-0.042983,-0.058218,0.52479,0.87928
0.0017255,0.0026653,0.002472,0.0047674,0.091173,-0.53244,-1.0208,-0.73515,1.2368,-0.54489,0.1277,2.9647,-0.54926,0.051469,0.15787,-2.4973,-0.037141,-0.30143,-0.010707,0.072275,-0.096158,-0.11725,0.42522,0.52702
0.0045995,-0.0015846,0.0062048,0.0043407,0.2049,-0.32148,-0.98805,-0.60258,1.0575,-0.46695,0.049073,2.9365,-0.5553,0.10864,0.11124,-1.7331,-0.032096,-0.32882,0.0011759,0.081407,-0.14661,-0.15972,0.48321,0.17781
0.0072816,-0.0023786,0.0080968,0.0033583,0.32072,-0.038438,-0.94623,-0.50515,0.89658,-0.32856,-0.023319,2.7097,-0.56571,0.163,0.071734,-0.93417,-0.031509,-0.35721,-0.0056676,0.091139,-0.18948,-0.18285,0.6882,-0.16103
0.0074392,0.0008236,0.0065379,0.0031383,0.44825,0.3195,-0.88995,-0.44518,0.74936,-0.15429,-0.098302,2.3383,-0.63953,0.21181,0.023646,-0.20839,-0.034611,-0.38052,-0.034616,0.09929,-0.21954,-0.18646,0.98965,-0.49777
0.0054227,0.0054808,0.0011121,0.0041905,0.58646,0.73618,-0.82364,-0.42033,0.59124,0.018951,-0.18253,1.9121,-0.75599,0.25303,-0.043367,0.36956,-0.04014,-0.39559,-0.08463,0.10189,-0.23304,-0.17318,1.324,-0.85709
0.0035222,0.0079652,-0.0065232,0.0061464,0.72168,1.1773,-0.75276,-0.4208,0.40808,0.15888,-0.27699,1.5082,-0.83317,0.28144,-0.12453,0.76444,-0.047291,-0.4036,-0.14859,0.096827,-0.22996,-0.14907,1.6417,-1.2709
0.0036106,0.0064051,-0.013359,0.0081558,0.83532,1.6001,-0.67111,-0.42678,0.22137,0.2501,-0.37804,1.1608,-0.80562,0.28953,-0.19982,0.97879,-0.055351,-0.40731,-0.21441,0.086374,-0.2144,-0.12312,1.919,-1.7606
0.0053582,0.0020277,-0.016848,0.0094575,0.91405,1.9653,-0.55757,-0.41183,0.086368,0.29457,-0.48048,0.86768,-0.68422,0.27364,-0.24355,1.0504,-0.062825,-0.40662,-0.26941,0.07637,-0.19252,-0.10478,2.1514,-2.3168
0.0064984,-0.0019237,-0.016357,0.0098153,0.95458,2.2446,-0.38788,-0.35342,0.059492,0.30242,-0.57855,0.61825,-0.54202,0.23963,-0.23796,1.0432,-0.067502,-0.39696,-0.30506,0.072415,-0.1696,-0.10036,2.3348,-2.8869
0.0047731,-0.0025996,-0.01308,0.0096444,0.96163,2.4206,-0.15334,-0.24436,0.15489,0.28231,-0.6639,0.41301,-0.44334,0.20139,-0.18265,1.0265,-0.067948,-0.37275,-0.31856,0.07611,-0.14869,-0.11084,2.4534,-3.3795
-0.00014839,0.00067744,-0.008568,0.0098009,0.94361,2.4853,0.12812,-0.096447,0.32131,0.23886,-0.72404,0.25916,-0.38762,0.17158,-0.094323,1.0488,-0.065205,-0.33351,-0.31029,0.084215,-0.13181,-0.13229,2.4859,-3.6888
-0.0062921,0.0063941,-0.0032061,0.011098,0.91087,2.4442,0.4183,0.067607,0.45913,0.17695,-0.74589,0.15289,-0.32352,0.15194,0.002848,1.1237,-0.062993,-0.28762,-0.28027,0.091235,-0.12187,-0.15849,2.4289,-3.7324
-0.010703,0.012178,0.0040102,0.013742,0.87669,2.3251,0.67837,0.22923,0.47073,0.10545,-0.72484,0.072077,-0.21918,0.13182,0.08933,1.2385,-0.065884,-0.25034,-0.22759,0.093352,-0.12278,-0.18299,2.3178,-3.4844
-0.011335,0.016216,0.014209,0.017045,0.85744,2.1832,0.88766,0.38517,0.31294,0.034227,-0.67281,-0.010582,-0.11811,0.096751,0.15696,1.3753,-0.07677,-0.23725,-0.15396,0.090768,-0.13654,-0.19911,2.2216,-2.9856
-0.0081345,0.017867,0.02707,0.019728,0.8691,2.0894,1.048,0.54668,0.017356,-0.033484,-0.61691,-0.10685,-0.12146,0.040402,0.20633,1.5262,-0.095502,-0.25738,-0.067356,0.086962,-0.15939,-0.19854,2.2078,-2.3266
-0.0027761,0.017502,0.040442,0.02079,0.92128,2.1064,1.1722,0.72773,-0.33391,-0.10478,-0.58675,-0.20593,-0.30567,-0.029745,0.23837,1.6884,-0.11949,-0.31006,0.018884,0.085722,-0.18064,-0.17173,2.2991,-1.613
0.002448,0.016095,0.05161,0.020338,1.0129,2.262,1.2677,0.9316,-0.65864,-0.19039,-0.59817,-0.28834,-0.64683,-0.09739,0.24796,1.8507,-0.14544,-0.3866,0.092743,0.088295,-0.18608,-0.11157,2.4566,-0.93628
0.0056677,0.014865,0.05922,0.019622,1.1326,2.5386,1.3293,1.1459,-0.91485,-0.29102,-0.64631,-0.34724,-1.0199,-0.1483,0.22561,1.9887,-0.17065,-0.47448,0.15119,0.092652,-0.16476,-0.018972,2.6056,-0.3625
0.0059078,0.014793,0.06426,0.020053,1.2618,2.8816,1.3475,1.3492,-1.1047,-0.38874,-0.71409,-0.39721,-1.2767,-0.17797,0.1661,2.077,-0.19336,-0.5616,0.20239,0.095281,-0.11492,0.094147,2.6866,0.060729
0.0031487,0.015954,0.069271,0.021953,1.3804,3.2207,1.3235,1.5221,-1.245,-0.45317,-0.78901,-0.46387,-1.3389,-0.1903,0.077116,2.109,-0.21215,-0.63872,0.26006,0.094131,-0.045385,0.20765,2.6889,0.29809
-0.0016751,0.017135,0.076429,0.024174,1.4702,3.4884,1.2766,1.6552,-1.3336,-0.46034,-0.87294,-0.56603,-1.2328,-0.18975,-0.019474,2.1012,-0.22551,-0.70012,0.33392,0.090527,0.028339,0.30089,2.6388,0.33352
-0.0067553,0.016426,0.086011,0.025052,1.5195,3.6317,1.2352,1.748,-1.3408,-0.41025,-0.97559,-0.70692,-1.0459,-0.17466,-0.095076,2.0773,-0.23182,-0.74274,0.42335,0.088544,0.090759,0.36058,2.5544,0.18755
-0.0099358,0.012762,0.096366,0.023871,1.5277,3.6194,1.2165,1.8023,-1.2346,-0.32867,-1.0976,-0.87944,-0.84952,-0.13797,-0.12581,2.0429,-0.22995,-0.76481,0.5183,0.092021,0.13185,0.38384,2.4084,-0.072622
-0.0097911,0.0072408,0.10526,0.021436,1.506,3.4505,1.21,1.8184,-1.0178,-0.25041,-1.2201,-1.0761,-0.65448,-0.074587,-0.10127,1.9769,-0.21991,-0.76473,0.60548,0.10127,0.14871,0.37542,2.1378,-0.34614
-0.0066578,0.0027666,0.11153,0.019133,1.473,3.1601,1.1785,1.7975,-0.74573,-0.19674,-1.3127,-1.2917,-0.42618,0.010831,-0.027154,1.8471,-0.20345,-0.74148,0.67456,0.11206,0.14347,0.34205,1.694,-0.53389
-0.0026726,0.0018345,0.11583,0.017406,1.4447,2.8137,1.0781,1.7469,-0.5096,-0.16437,-1.354,-1.518,-0.13438,0.10246,0.077422,1.6396,-0.18387,-0.69624,0.72058,0.11793,0.11988,0.28831,1.093,-0.57807
-0.00049088,0.0041775,0.12017,0.015239,1.4261,2.4853,0.88614,1.6838,-0.39533,-0.134,-1.346,-1.7396,0.21166,0.17967,0.18575,1.3743,-0.16495,-0.63386,0.74291,0.11459,0.080893,0.21614,0.41575,-0.48364
-0.00152,0.0065603,0.12655,0.011248,1.4099,2.2275,0.61898,1.632,-0.44494,-0.090114,-1.3075,-1.9397,0.56771,0.22697,0.27116,1.0928,-0.14913,-0.56205,0.74337,0.10294,0.02837,0.12705,-0.24383,-0.30957
-0.0050593,0.005337,0.13552,0.0053066,1.3854,2.0518,0.33043,1.6131,-0.64224,-0.034898,-1.2501,-2.1114,0.88492,0.24104,0.3156,0.82659,-0.13609,-0.48835,0.72508,0.088445,-0.035595,0.024472,-0.84556,-0.13517
-0.0090313,-0.00022321,0.14541,-0.001046,1.3482,1.9302,0.089573,1.6386,-0.92563,0.014966,-1.1614,-2.2611,1.1348,0.2309,0.31648,0.5743,-0.12294,-0.41685,0.69159,0.077153,-0.1073,-0.084943,-1.4285,-0.019451
-0.011602,-0.0068633,0.1528,-0.005979,1.3048,1.8164,-0.050639,1.7068,-1.2157,0.044488,-1.0108,-2.396,1.3121,0.21194,0.28706,0.30864,-0.10619,-0.34792,0.6458,0.071763,-0.1811,-0.19135,-2.0737,0.025239
-0.012274,-0.0097363,0.15408,-0.0092018,1.2669,1.673,-0.079471,1.805,-1.442,0.054526,-0.77822,-2.5027,1.4245,0.19792,0.24798,0.013432,-0.084077,-0.28135,0.58973,0.070886,-0.25038,-0.28272,-2.8317,0.031109
-0.011687,-0.0063601,0.14768,-0.01234,1.2411,1.4887,-0.036141,1.9161,-1.5602,0.061658,-0.48019,-2.537,1.4827,0.19532,0.21365,-0.27782,-0.057526,-0.21983,0.52639,0.07191,-0.30896,-0.34701,-3.6699,0.045731
-0.01063,0.0013116,0.13545,-0.017347,1.2242,1.2806,0.006838,2.024,-1.557,0.08498,-0.16947,-2.4387,1.4998,0.20246,0.18247,-0.47514,-0.02878,-0.16893,0.46297,0.074503,-0.35194,-0.3757,-4.4767,0.094355
-0.009406,0.0085097,0.1223,-0.024459,1.2069,1.0849,-0.020342,2.1175,-1.4433,0.13226,0.094676,-2.1692,1.4894,0.21268,0.13887,-0.47132,0.00077021,-0.13238,0.4118,0.081241,-0.37548,-0.36745,-5.1189,0.15998
-0.0080163,0.011465,0.11381,-0.031746,1.1812,0.94237,-0.14613,2.1907,-1.238,0.19704,0.28237,-1.7471,1.4597,0.21913,0.066444,-0.20897,0.03151,-0.10655,0.38636,0.094616,-0.37587,-0.32957,-5.5078,0.19696
-0.0066128,0.010038,0.11309,-0.036763,1.1452,0.88141,-0.33841,2.2426,-0.95271,0.26688,0.40669,-1.2555,1.4094,0.21806,-0.037223,0.26686,0.064369,-0.079181,0.39377,0.11333,-0.34916,-0.27571,-5.6313,0.16924
-0.0054503,0.0070759,0.11887,-0.038712,1.0997,0.90292,-0.51937,2.2751,-0.5903,0.33254,0.50535,-0.81076,1.3329,0.20921,-0.15567,0.8084,0.098752,-0.034742,0.4294,0.13166,-0.2922,-0.22008,-5.5323,0.083728
-0.0043594,0.0055037,0.1261,-0.03908,1.042,0.97268,-0.60889,2.2915,-0.16404,0.3885,0.60776,-0.50976,1.2328,0.19369,-0.26238,1.2251,0.13181,0.037319,0.4789,0.14298,-0.20525,-0.17137,-5.2577,-0.0088593
-0.0025577,0.006065,0.12884,-0.040197,0.9642,1.0297,-0.57074,2.2961,0.27751,0.42589,0.71507,-0.3856,1.1258,0.17162,-0.33656,1.3724,0.15981,0.1375,0.52696,0.14446,-0.094672,-0.12994,-4.8191,-0.047859
0.00064019,0.0076047,0.12354,-0.043173,0.85742,1.0117,-0.43091,2.2943,0.64763,0.4283,0.80705,-0.39994,1.0293,0.14136,-0.37376,1.217,0.18014,0.25787,0.56646,0.13869,0.025915,-0.089983,-4.2002,-0.004365
0.0047512,0.009049,0.11084,-0.047114,0.7207,0.88542,-0.25542,2.2929,0.85894,0.3791,0.86544,-0.47308,0.93868,0.10058,-0.38454,0.84008,0.19194,0.38793,0.60089,0.1307,0.13769,-0.045019,-3.4085,0.10286
0.0079083,0.010666,0.09484,-0.050216,0.56531,0.66367,-0.1041,2.2982,0.8847,0.27704,0.89085,-0.52994,0.82001,0.048108,-0.38431,0.37792,0.1951,0.51877,0.63823,0.12298,0.22176,0.0067735,-2.5312,0.22898
0.0080584,0.013265,0.080565,-0.051547,0.41106,0.39419,0.0049736,2.3123,0.79621,0.14617,0.90003,-0.53208,0.63422,-0.0152,-0.38393,-0.059333,0.18917,0.64198,0.68138,0.11296,0.2658,0.061027,-1.7454,0.34142
0.0047039,0.016443,0.071172,-0.051841,0.27689,0.12912,0.094372,2.3297,0.73395,0.028296,0.90926,-0.48039,0.3795,-0.086504,-0.38815,-0.43981,0.17402,0.74575,0.72285,0.095392,0.26967,0.11007,-1.2574,0.44009
-0.00039978,0.018118,0.066648,-0.052688,0.17247,-0.103,0.19395,2.3373,0.81822,-0.039782,0.92152,-0.39571,0.11522,-0.16116,-0.40028,-0.80341,0.15184,0.8142,0.74796,0.067463,0.24686,0.14783,-1.1962,0.54121
-0.0043576,0.016208,0.064458,-0.054933,0.096042,-0.30129,0.30542,2.3199,1.0593,-0.048162,0.92816,-0.2973,-0.061767,-0.23212,-0.42558,-1.2093,0.12795,0.83356,0.74414,0.032205,0.22008,0.17288,-1.5273,0.64073
-0.0052008,0.010841,0.061512,-0.057742,0.039203,-0.47201,0.39607,2.2687,1.3394,-0.017922,0.92072,-0.19405,-0.080787,-0.28924,-0.46816,-1.6783,0.10894,0.80186,0.7098,-0.0027039,0.21174,0.18757,-2.043,0.694
-0.0031903,0.0047017,0.056056,-0.059103,-0.0058598,-0.60453,0.42678,2.1873,1.4898,0.015691,0.90036,-0.087698,0.04329,-0.32046,-0.52417,-2.1684,0.099166,0.73433,0.6566,-0.029732,0.23329,0.19421,-2.4475,0.63683
-0.00034642,0.00087055,0.048399,-0.057312,-0.041527,-0.66787,0.3898,2.0913,1.4124,0.027647,0.87665,0.022215,0.20291,-0.31586,-0.57908,-2.5928,0.098916,0.659,0.6036,-0.045853,0.27871,0.192,-2.4892,0.43676
0.0012526,8.2998e-005,0.040266,-0.05227,-0.065096,-0.63314,0.32347,2.0007,1.1542,0.016688,0.85936,0.13839,0.2558,-0.27342,-0.61424,-2.861,0.1061,0.60418,0.56716,-0.053139,0.32674,0.17747,-2.0699,0.13298
0.00092975,0.00010263,0.033449,-0.04561,-0.073259,-0.50226,0.29071,1.9305,0.87837,-0.00031069,0.85229,0.26725,0.1129,-0.20234,-0.61894,-2.9143,0.11975,0.58577,0.5529,-0.055587,0.35154,0.14833,-1.2736,-0.17312
-0.00043409,-0.0020802,0.028734,-0.039637,-0.067061,-0.3164,0.33792,1.8856,0.7514,-0.0057484,0.85374,0.41471,-0.2035,-0.12074,-0.59822,-2.7388,0.14164,0.60242,0.55463,-0.055234,0.33666,0.10753,-0.30972,-0.37634
-0.0014011,-0.0072572,0.025679,-0.035936,-0.053544,-0.13391,0.46488,1.8621,0.83207,0.0047984,0.86072,0.57671,-0.57206,-0.047901,-0.56909,-2.3595,0.17408,0.6406,0.56028,-0.050771,0.28465,0.063914,0.59174,-0.43321
-0.0011503,-0.013074,0.023165,-0.034631,-0.04264,0.005406,0.6254,1.8538,1.0415,0.021908,0.87079,0.73481,-0.8479,0.004117,-0.54741,-1.828,0.21591,0.68542,0.56042,-0.039432,0.21649,0.02882,1.2731,-0.38331
4.2132e-005,-0.016075,0.020185,-0.034694,-0.041361,0.10072,0.75389,1.8587,1.2293,0.032281,0.88022,0.86636,-0.94988,0.033753,-0.5357,-1.2093,0.26104,0.73024,0.55338,-0.020186,0.161,0.010882,1.6902,-0.30914
0.0011558,-0.01479,0.016332,-0.034868,-0.049535,0.17963,0.79691,1.8782,1.2783,0.028977,0.88237,0.96455,-0.90122,0.046143,-0.52148,-0.57071,0.3014,0.7803,0.54366,0.0045074,0.1399,0.012784,1.8936,-0.26706
0.0011635,-0.010969,0.011776,-0.034404,-0.060354,0.26792,0.7318,1.9113,1.17,0.013921,0.87012,1.0502,-0.79854,0.046236,-0.48737,0.028349,0.33213,0.84914,0.53554,0.029624,0.1571,0.031549,1.9693,-0.24492
-0.00037594,-0.007863,0.0068592,-0.033222,-0.065421,0.36712,0.56791,1.9476,0.97184,-0.0069559,0.84117,1.1591,-0.73548,0.035451,-0.42476,0.54003,0.35423,0.95038,0.52708,0.050307,0.19759,0.061054,1.9776,-0.17786
-0.0031369,-0.0072734,0.0016336,-0.031724,-0.060613,0.45792,0.33723,1.9662,0.77241,-0.029696,0.80109,1.3076,-0.73839,0.014902,-0.34084,0.92654,0.37227,1.0886,0.50902,0.064408,0.23603,0.094127,1.9205,-0.0048372
-0.0062396,-0.0082148,-0.0043206,-0.030643,-0.048893,0.52299,0.081555,1.9432,0.62105,-0.054239,0.76064,1.4635,-0.76023,-0.0086638,-0.25434,1.158,0.38925,1.254,0.46893,0.073298,0.24948,0.12294,1.7546,0.28283
-0.0086824,-0.0083881,-0.011656,-0.030919,-0.039178,0.56475,-0.16025,1.8635,0.51416,-0.08225,0.72967,1.5483,-0.73373,-0.021638,-0.18409,1.2178,0.40323,1.4229,0.39745,0.080653,0.22694,0.13886,1.4373,0.63633
-0.0097584,-0.0068713,-0.02071,-0.033218,-0.043415,0.59994,-0.36315,1.729,0.42348,-0.11433,0.71287,1.4798,-0.63921,-0.010631,-0.13896,1.1135,0.40863,1.5642,0.2929,0.089981,0.17132,0.13375,0.97417,0.98182
-0.0092608,-0.0052424,-0.030984,-0.03704,-0.073991,0.63619,-0.52086,1.5572,0.331,-0.14921,0.71079,1.2289,-0.53102,0.02686,-0.11521,0.88165,0.40029,1.6474,0.16281,0.10221,0.094134,0.10313,0.43434,1.2551
-0.0074372,-0.0059323,-0.041041,-0.040192,-0.14092,0.65407,-0.64186,1.3707,0.24046,-0.18433,0.72356,0.85224,-0.49881,0.077889,-0.10119,0.57338,0.37671,1.65,0.022801,0.11462,0.0076655,0.048875,-0.079369,1.4107
-0.0048239,-0.0094408,-0.048942,-0.039609,-0.24662,0.61446,-0.73886,1.1859,0.16392,-0.21604,0.75231,0.47507,-0.59157,0.12131,-0.084658,0.22991,0.33976,1.5614,-0.10651,0.12197,-0.080509,-0.021178,-0.4843,1.4115
-0.0021164,-0.013327,-0.053025,-0.033489,-0.37864,0.48786,-0.8206,1.009,0.10466,-0.2387,0.79624,0.23116,-0.76407,0.14239,-0.057979,-0.1312,0.29242,1.3851,-0.20521,0.11937,-0.16803,-0.097117,-0.75546,1.2261
-5.9256e-005,-0.014254,-0.05262,-0.023171,-0.50583,0.2822,-0.89321,0.83937,0.054984,-0.24442,0.84854,0.1968,-0.89161,0.14286,-0.019451,-0.50208,0.23721,1.1406,-0.26185,0.10524,-0.25444,-0.17133,-0.91886,0.85298
0.00078731,-0.011324,-0.048373,-0.012875,-0.58549,0.045304,-0.96867,0.67835,0.007708,-0.22534,0.89639,0.35752,-0.84868,0.13775,0.027752,-0.85453,0.17681,0.8609,-0.2801,0.082416,-0.3373,-0.23972,-1.0096,0.35505
0.00040605,-0.007469,-0.042088,-0.0070133,-0.58325,-0.16116,-1.0691,0.53194,-0.034675,-0.17789,0.92655,0.62418,-0.59785,0.14126,0.077322,-1.1282,0.11527,0.58415,-0.27899,0.056174,-0.41041,-0.29889,-1.0332,-0.12991
-0.00050116,-0.0072823,-0.036134,-0.0070666,-0.49649,-0.29691,-1.2173,0.4071,-0.064394,-0.1064,0.93228,0.88425,-0.22438,0.15389,0.12191,-1.2599,0.057434,0.33891,-0.28381,0.030729,-0.46489,-0.34241,-0.96477,-0.42742
-0.00087548,-0.012998,-0.032533,-0.01068,-0.3649,-0.36186,-1.4168,0.30484,-0.081055,-0.022756,0.91523,1.0556,0.11069,0.16211,0.15623,-1.2381,0.0066169,0.13308,-0.3116,0.0068289,-0.49181,-0.36047,-0.78299,-0.40038
-0.0001173,-0.022184,-0.032046,-0.013802,-0.25609,-0.38706,-1.6379,0.21768,-0.09724,0.05872,0.88068,1.1142,0.26831,0.1504,0.18062,-1.1362,-0.037213,-0.044996,-0.36038,-0.017416,-0.48483,-0.34458,-0.50488,-0.017748
0.0012984,-0.02934,-0.03379,-0.013958,-0.23043,-0.40787,-1.824,0.13493,-0.12875,0.12854,0.83064,1.0849,0.21356,0.11451,0.20267,-1.0868,-0.076345,-0.2114,-0.41037,-0.04317,-0.4418,-0.29393,-0.18564,0.62374
0.0020909,-0.03013,-0.035892,-0.011773,-0.30584,-0.44054,-1.9203,0.051401,-0.1776,0.18694,0.76196,1.0097,0.028614,0.063922,0.23409,-1.2091,-0.11189,-0.36845,-0.43716,-0.06807,-0.36549,-0.21819,0.11587,1.3375
0.0012771,-0.024678,-0.037053,-0.0096353,-0.44683,-0.4778,-1.9057,-0.028287,-0.22465,0.24262,0.67175,0.91393,-0.14711,0.011663,0.28308,-1.5441,-0.14124,-0.49873,-0.42773,-0.086791,-0.26347,-0.1337,0.37198,1.9235
-0.000811,-0.017206,-0.037973,-0.0091253,-0.58746,-0.50274,-1.804,-0.094488,-0.24084,0.3055,0.56551,0.79189,-0.20342,-0.038217,0.34664,-2.0464,-0.15933,-0.57764,-0.38774,-0.094881,-0.14716,-0.055267,0.58867,2.2445
-0.0025922,-0.012486,-0.041329,-0.009818,-0.67425,-0.50739,-1.6666,-0.14249,-0.20891,0.37768,0.45972,0.61774,-0.11403,-0.09316,0.40894,-2.6353,-0.16318,-0.59497,-0.3356,-0.09265,-0.029702,0.010988,0.77746,2.2679
-0.0024526,-0.01221,-0.049936,-0.010408,-0.69992,-0.50112,-1.5374,-0.17872,-0.13783,0.44856,0.37502,0.37222,0.069497,-0.1618,0.44845,-3.2534,-0.15594,-0.56737,-0.28918,-0.085593,0.076786,0.069127,0.93004,2.0606
-7.0118e-005,-0.0142,-0.064259,-0.010608,-0.70458,-0.50391,-1.4271,-0.2169,-0.057835,0.49817,0.32407,0.067594,0.26816,-0.24052,0.4502,-3.8821,-0.14651,-0.53037,-0.25583,-0.080664,0.16349,0.12879,1.0245,1.745
0.0033477,-0.014756,-0.081269,-0.011579,-0.74409,-0.53123,-1.3141,-0.26682,-0.00019043,0.50733,0.30335,-0.24511,0.42803,-0.31025,0.41519,-4.5025,-0.14447,-0.51608,-0.23254,-0.081329,0.22563,0.19808,1.0557,1.4418
0.0061072,-0.011847,-0.095757,-0.014372,-0.84933,-0.58314,-1.1697,-0.32537,0.022426,0.46908,0.29592,-0.49167,0.54173,-0.34775,0.36022,-5.0477,-0.15383,-0.5342,-0.21379,-0.085516,0.26158,0.27838,1.0538,1.2234
0.0073525,-0.0065077,-0.10334,-0.01816,-1.0057,-0.64564,-0.98464,-0.37813,0.021062,0.39467,0.28364,-0.60529,0.6358,-0.34248,0.30831,-5.3997,-0.17058,-0.57054,-0.1986,-0.088137,0.2716,0.36343,1.0648,1.1001
0.0074746,-0.0016074,-0.10305,-0.020367,-1.1664,-0.70231,-0.77732,-0.41115,0.019473,0.31003,0.25993,-0.55647,0.74417,-0.30453,0.27604,-5.4408,-0.18588,-0.60214,-0.19078,-0.085985,0.25746,0.44205,1.1079,1.0384
0.0073737,0.0005227,-0.097795,-0.01893,-1.2872,-0.74649,-0.57872,-0.42365,0.036915,0.24412,0.23351,-0.36677,0.88875,-0.25663,0.26565,-5.1171,-0.19236,-0.61494,-0.19351,-0.080755,0.22328,0.50227,1.1504,0.99594
0.0074458,-0.00048088,-0.092415,-0.014578,-1.3547,-0.78445,-0.40992,-0.43091,0.076917,0.2147,0.22028,-0.099555,1.072,-0.21715,0.26557,-4.4592,-0.18867,-0.61036,-0.20463,-0.07753,0.17653,0.53504,1.1294,0.94837
0.0073128,-0.0034301,-0.090975,-0.010837,-1.3884,-0.82801,-0.27134,-0.45487,0.12755,0.21913,0.22965,0.16811,1.2731,-0.18873,0.25759,-3.5447,-0.17874,-0.59854,-0.21742,-0.080014,0.12784,0.53649,1.0047,0.89205
0.0064377,-0.0069951,-0.094854,-0.011437,-1.4164,-0.88398,-0.15069,-0.50952,0.17018,0.23583,0.25584,0.37818,1.4429,-0.16151,0.22588,-2.4423,-0.16698,-0.58705,-0.22584,-0.086659,0.088672,0.50853,0.79753,0.82707
0.0048544,-0.010601,-0.10258,-0.017277,-1.4488,-0.94975,-0.038985,-0.59217,0.18952,0.23668,0.2808,0.51223,1.5043,-0.1268,0.16407,-1.1946,-0.15365,-0.57532,-0.22884,-0.091187,0.067485,0.45772,0.5801,0.74114
0.0032163,-0.014148,-0.11107,-0.02555,-1.4689,-1.0179,0.061186,-0.68656,0.17941,0.20389,0.2862,0.58899,1.3738,-0.087755,0.078781,0.14465,-0.13453,-0.5569,-0.22985,-0.087264,0.066327,0.39256,0.42366,0.61301
0.002159,-0.017219,-0.11733,-0.031783,-1.4499,-1.0843,0.1417,-0.77443,0.14251,0.1413,0.26495,0.64106,1.0046,-0.057277,-0.011392,1.4621,-0.10495,-0.5242,-0.23212,-0.073429,0.079689,0.32054,0.34628,0.43497
0.0016948,-0.018945,-0.11972,-0.033058,-1.3802,-1.1506,0.20071,-0.84627,0.086184,0.072216,0.22314,0.68614,0.43135,-0.045562,-0.081989,2.5853,-0.064585,-0.46986,-0.23398,-0.05408,0.096684,0.24656,0.29862,0.23317
0.0012829,-0.018878,-0.11848,-0.02982,-1.2758,-1.2198,0.24652,-0.90455,0.018284,0.024324,0.1715,0.71175,-0.22086,-0.049269,-0.11292,3.3546,-0.018652,-0.38512,-0.22774,-0.035572,0.10565,0.1738,0.19292,0.062734
0.00049266,-0.017987,-0.11548,-0.024999,-1.1695,-1.29,0.28885,-0.95921,-0.053751,0.011273,0.11417,0.68298,-0.78301,-0.052615,-0.0987,3.7191,0.025338,-0.2605,-0.20268,-0.02076,0.098701,0.10605,-0.050527,-0.026162
-0.00042234,-0.018479,-0.11317,-0.021429,-1.0879,-1.3546,0.32613,-1.0207,-0.12017,0.023313,0.04443,0.56592,-1.1249,-0.039531,-0.052244,3.7774,0.062486,-0.091951,-0.15035,-0.0066868,0.073718,0.049022,-0.47016,-0.029668
-0.00063454,-0.02215,-0.1133,-0.019759,-1.0358,-1.4117,0.34263,-1.096,-0.16671,0.03324,-0.049316,0.34802,-1.2209,-0.0061495,0.0013359,3.7199,0.092672,0.11133,-0.069543,0.012467,0.033262,0.0085466,-1.0554,-0.0079165
0.00051795,-0.028526,-0.11575,-0.018383,-0.99949,-1.4709,0.32007,-1.187,-0.17873,0.013176,-0.17272,0.041459,-1.1488,0.036813,0.038068,3.7076,0.11833,0.32473,0.030493,0.039541,-0.017793,-0.013595,-1.7558,-0.063006
0.0027945,-0.034659,-0.11858,-0.015172,-0.96415,-1.5511,0.25468,-1.2908,-0.15306,-0.049353,-0.31885,-0.32728,-1.0198,0.07282,0.046726,3.7786,0.14016,0.51578,0.13045,0.070507,-0.073477,-0.022891,-2.4934,-0.28876
0.0049753,-0.03716,-0.11935,-0.0094216,-0.92646,-1.665,0.165,-1.3979,-0.10949,-0.14569,-0.47021,-0.72512,-0.89358,0.090882,0.030804,3.8513,0.15484,0.65707,0.20609,0.095879,-0.12638,-0.031126,-3.1749,-0.72189
0.0055855,-0.034956,-0.11696,-0.0024997,-0.89218,-1.8046,0.083178,-1.4922,-0.088969,-0.25186,-0.60609,-1.1052,-0.74767,0.08995,0.00047101,3.8204,0.15702,0.73564,0.23773,0.10649,-0.16795,-0.050845,-3.7059,-1.3206
0.0039364,-0.030237,-0.11266,0.0031629,-0.86227,-1.9401,0.036452,-1.5547,-0.13198,-0.33964,-0.70895,-1.3938,-0.5275,0.074142,-0.037844,3.6632,0.14388,0.75348,0.22021,0.099338,-0.19149,-0.088511,-4.0137,-1.9776
0.00071682,-0.026521,-0.1092,0.0058131,-0.82339,-2.0364,0.032906,-1.5722,-0.24792,-0.38576,-0.76704,-1.4971,-0.23052,0.044975,-0.085333,3.4698,0.11828,0.72141,0.16727,0.079435,-0.19687,-0.1409,-4.0702,-2.5547
-0.0023501,-0.025442,-0.10874,0.0055038,-0.75389,-2.0745,0.060614,-1.5455,-0.3988,-0.37663,-0.77588,-1.3429,0.055979,-0.0015305,-0.14594,3.3732,0.08792,0.65355,0.10589,0.056568,-0.19237,-0.19707,-3.9039,-2.9237
-0.0036138,-0.0253,-0.11115,0.0038973,-0.64079,-2.0616,0.098035,-1.4917,-0.51465,-0.31049,-0.74191,-0.94076,0.20645,-0.070556,-0.21885,3.4377,0.061138,0.56622,0.06255,0.0397,-0.19014,-0.24451,-3.589,-3.0002
-0.0025945,-0.022911,-0.11422,0.0030758,-0.49174,-2.0213,0.1262,-1.4358,-0.53423,-0.19815,-0.68644,-0.41043,0.1605,-0.1615,-0.29637,3.5966,0.042764,0.47865,0.049176,0.032725,-0.19721,-0.27515,-3.2127,-2.7654
-0.00023902,-0.017094,-0.11538,0.0043163,-0.32972,-1.9733,0.13546,-1.397,-0.44234,-0.060695,-0.64315,0.060536,-0.013281,-0.26478,-0.36929,3.6896,0.032828,0.4103,0.058222,0.033794,-0.20908,-0.28809,-2.8369,-2.2733
0.0018885,-0.010407,-0.11337,0.0076155,-0.1749,-1.9209,0.12695,-1.378,-0.2757,0.077848,-0.64501,0.32019,-0.15734,-0.365,-0.43352,3.5669,0.028385,0.3737,0.070086,0.037841,-0.21233,-0.28777,-2.4714,-1.6364
0.0028302,-0.0072909,-0.10831,0.012068,-0.030764,-1.8541,0.11254,-1.3653,-0.094595,0.2007,-0.70559,0.35014,-0.14505,-0.44769,-0.49032,3.1796,0.026308,0.36816,0.067654,0.040141,-0.19528,-0.27998,-2.0753,-0.99238
0.0028274,-0.010232,-0.1004,0.016624,0.11175,-1.7648,0.11444,-1.3396,0.054628,0.30432,-0.80787,0.28119,0.017421,-0.50463,-0.53891,2.5934,0.0248,0.38037,0.04772,0.038707,-0.1583,-0.26832,-1.5862,-0.46007
0.002755,-0.0175,-0.088868,0.020669,0.25538,-1.658,0.16011,-1.2912,0.15669,0.39447,-0.91049,0.30442,0.19558,-0.53469,-0.56914,1.9262,0.023067,0.39244,0.021757,0.03451,-0.11484,-0.25321,-0.964,-0.10615
0.0029281,-0.024567,-0.07244,0.024144,0.38112,-1.5505,0.26935,-1.2279,0.21648,0.47458,-0.96976,0.53566,0.23757,-0.54083,-0.56339,1.2682,0.020297,0.39094,0.0064364,0.029891,-0.081989,-0.23334,-0.22483,0.063745
0.0024657,-0.027827,-0.051163,0.027305,0.45252,-1.4583,0.43776,-1.1712,0.2392,0.53623,-0.96344,0.93138,0.099808,-0.52615,-0.50931,0.64507,0.015337,0.37051,0.011181,0.026561,-0.068453,-0.20849,0.55298,0.089572
-3.8031e-005,-0.027226,-0.027594,0.030347,0.43839,-1.3865,0.62845,-1.1454,0.22503,0.56101,-0.90065,1.3166,-0.11776,-0.49165,-0.41408,0.039825,0.0073267,0.33107,0.031013,0.024606,-0.070021,-0.18172,1.2562,0.032162
-0.0049866,-0.02559,-0.0059341,0.033136,0.33565,-1.3292,0.78234,-1.1651,0.1816,0.53361,-0.81261,1.4996,-0.2543,-0.43666,-0.30722,-0.5614,-0.0035014,0.27447,0.048278,0.023075,-0.07579,-0.15981,1.7811,-0.045789
-0.010771,-0.025606,0.010542,0.035168,0.17316,-1.2769,0.8455,-1.2312,0.13487,0.4554,-0.7326,1.3874,-0.21628,-0.36139,-0.22693,-1.1431,-0.015703,0.20513,0.040996,0.021414,-0.078903,-0.15114,2.0674,-0.090356
-0.014384,-0.027373,0.021657,0.035797,-0.006713,-1.2244,0.79824,-1.3336,0.11955,0.34669,-0.67902,1.0237,-0.04506,-0.27006,-0.19807,-1.6719,-0.027261,0.13345,-0.0073065,0.020318,-0.082148,-0.16175,2.104,-0.066719
-0.013468,-0.028585,0.030159,0.034642,-0.17327,-1.1705,0.66661,-1.4579,0.15298,0.2349,-0.65123,0.5423,0.12428,-0.17267,-0.21747,-2.1247,-0.036343,0.075802,-0.1005,0.021197,-0.094151,-0.19153,1.9087,0.026798
-0.0083056,-0.026894,0.039294,0.031964,-0.31995,-1.1153,0.50719,-1.5896,0.21761,0.13829,-0.6367,0.08754,0.16665,-0.08386,-0.25766,-2.5047,-0.041628,0.047502,-0.22744,0.024862,-0.1205,-0.23284,1.5036,0.15149
-0.0021081,-0.022176,0.050247,0.028728,-0.4569,-1.059,0.3737,-1.716,0.27243,0.058337,-0.62224,-0.23803,0.043372,-0.018105,-0.2864,-2.829,-0.042262,0.053092,-0.36458,0.030874,-0.15794,-0.27284,0.91336,0.24437
0.00089756,-0.016834,0.061737,0.026207,-0.59364,-1.0068,0.28701,-1.8257,0.2868,-0.013748,-0.60161,-0.38289,-0.20045,0.017019,-0.28729,-3.104,-0.037921,0.082513,-0.48341,0.038291,-0.19605,-0.29886,0.18572,0.25866
-0.0016607,-0.014088,0.072076,0.025261,-0.72829,-0.97369,0.22808,-1.9102,0.26728,-0.08306,-0.57759,-0.3375,-0.49299,0.026159,-0.26708,-3.3114,-0.029285,0.11776,-0.5611,0.046943,-0.2239,-0.3038,-0.58428,0.20334
-0.0085829,-0.015727,0.081634,0.02574,-0.85093,-0.9804,0.15831,-1.9668,0.25275,-0.14222,-0.55977,-0.13462,-0.78351,0.025941,-0.24573,-3.418,-0.018555,0.14507,-0.59048,0.057636,-0.23574,-0.28863,-1.257,0.14686
-0.015932,-0.020936,0.093137,0.02646,-0.95489,-1.0406,0.052567,-1.9991,0.28231,-0.17509,-0.56055,0.14496,-1.0445,0.037591,-0.23936,-3.4023,-0.0092589,0.16232,-0.58396,0.070812,-0.23207,-0.26042,-1.6874,0.17389
-0.019879,-0.02683,0.10922,0.025859,-1.0434,-1.1477,-0.078382,-2.0152,0.3643,-0.16941,-0.59019,0.38723,-1.2486,0.07526,-0.25048,-3.2806,-0.0049644,0.17538,-0.56759,0.085002,-0.217,-0.22725,-1.7818,0.32518
-0.01936,-0.030134,0.12942,0.022955,-1.1254,-1.2733,-0.19229,-2.0213,0.4728,-0.12759,-0.65219,0.49265,-1.3635,0.13676,-0.27234,-3.1131,-0.0074409,0.18744,-0.56714,0.096978,-0.1948,-0.19306,-1.5378,0.57008
-0.01645,-0.028908,0.14955,0.017941,-1.2061,-1.381,-0.24348,-2.0169,0.57096,-0.067606,-0.74069,0.43169,-1.3786,0.20327,-0.30087,-2.9845,-0.015597,0.19149,-0.59374,0.10387,-0.16778,-0.15581,-1.0431,0.83629
-0.014233,-0.023373,0.1646,0.012023,-1.2812,-1.4461,-0.21392,-1.9938,0.63725,-0.014364,-0.84204,0.26391,-1.3305,0.24976,-0.34118,-2.9643,-0.026257,0.17282,-0.63812,0.10539,-0.13513,-0.11044,-0.43827,1.0703
-0.014117,-0.015566,0.17266,0.0066293,-1.3408,-1.4675,-0.12478,-1.9408,0.6715,0.011347,-0.94016,0.098438,-1.2847,0.26082,-0.40108,-3.0671,-0.036518,0.11855,-0.67772,0.10387,-0.092362,-0.05477,0.13292,1.2729
-0.014952,-0.0081913,0.1765,0.0025647,-1.3775,-1.4614,-0.020516,-1.8522,0.68059,-0.00042837,-1.0227,0.02027,-1.2743,0.2421,-0.47745,-3.2338,-0.046023,0.025051,-0.69184,0.10192,-0.03194,0.0055335,0.56198,1.4756
-0.014601,-0.0033997,0.18107,-0.00036079,-1.3918,-1.4445,0.061184,-1.7347,0.66356,-0.047935,-1.0843,0.036344,-1.2473,0.21938,-0.54978,-3.3512,-0.057246,-0.1033,-0.67476,0.10001,0.054358,0.057149,0.79592,1.6829
-0.012269,-0.0020621,0.18888,-0.0030775,-1.3892,-1.4191,0.11057,-1.6067,0.61402,-0.11998,-1.126,0.080091,-1.0805,0.22432,-0.58985,-3.3026,-0.073366,-0.26149,-0.63786,0.096209,0.17197,0.085464,0.84523,1.8391
-0.0092538,-0.003748,0.19744,-0.0066426,-1.374,-1.3726,0.14365,-1.49,0.5367,-0.19892,-1.1519,0.067014,-0.66633,0.27435,-0.58216,-3.0252,-0.095316,-0.44865,-0.60035,0.088507,0.3206,0.083442,0.78358,1.8594
-0.0074209,-0.0072155,0.20115,-0.011678,-1.346,-1.2895,0.18211,-1.3974,0.45784,-0.2648,-1.1672,-0.044002,-0.011143,0.35904,-0.53811,-2.5386,-0.12052,-0.66441,-0.57628,0.077347,0.49247,0.056619,0.73273,1.7033
-0.0070393,-0.011062,0.196,-0.018128,-1.3037,-1.1666,0.23412,-1.3243,0.41387,-0.30171,-1.1777,-0.22805,0.73488,0.44234,-0.4908,-1.9277,-0.14458,-0.89976,-0.56784,0.065795,0.6711,0.019899,0.82457,1.4247
-0.0062917,-0.014212,0.18315,-0.025381,-1.2511,-1.0164,0.29128,-1.2522,0.42444,-0.30507,-1.1879,-0.41969,1.3513,0.48137,-0.47283,-1.2933,-0.16459,-1.1321,-0.56879,0.057134,0.83053,-0.012168,1.146,1.1461
-0.0030766,-0.016068,0.16825,-0.032587,-1.1997,-0.85851,0.34086,-1.1624,0.47337,-0.28494,-1.1981,-0.55897,1.6774,0.45185,-0.49405,-0.7046,-0.18138,-1.3314,-0.57362,0.052028,0.9379,-0.034454,1.6926,0.97259
0.0026362,-0.01636,0.15721,-0.039027,-1.1636,-0.70566,0.37911,-1.0516,0.51625,-0.26135,-1.2,-0.62131,1.7056,0.36431,-0.53667,-0.18506,-0.19856,-1.4743,-0.58374,0.047782,0.96342,-0.052585,2.3602,0.91325
0.0083098,-0.01493,0.15194,-0.044383,-1.1494,-0.55934,0.41333,-0.93781,0.51044,-0.25275,-1.1772,-0.61542,1.5699,0.25922,-0.57055,0.26743,-0.21897,-1.5565,-0.60539,0.040278,0.89686,-0.075633,2.9874,0.87733
0.010869,-0.011735,0.14976,-0.048859,-1.1498,-0.41784,0.4527,-0.85142,0.44392,-0.26436,-1.1125,-0.56216,1.4423,0.18264,-0.57477,0.65101,-0.24143,-1.592,-0.64168,0.026958,0.76135,-0.10665,3.4271,0.75092
0.0094521,-0.0071286,0.14626,-0.053088,-1.1465,-0.28959,0.49917,-0.816,0.34036,-0.28484,-0.99873,-0.47827,1.4155,0.15784,-0.54805,0.95066,-0.26043,-1.5999,-0.68604,0.00859,0.61156,-0.13948,3.6108,0.49362
0.0062928,-0.0021175,0.13903,-0.057747,-1.1209,-0.19741,0.5473,-0.83194,0.23869,-0.29381,-0.8458,-0.37699,1.4602,0.17271,-0.50141,1.1561,-0.26944,-1.589,-0.72307,-0.011247,0.51073,-0.16469,3.5717,0.1788
0.0048235,0.0018195,0.12906,-0.062972,-1.0661,-0.16673,0.59119,-0.87388,0.1655,-0.27546,-0.67621,-0.27801,1.4786,0.19225,-0.44263,1.2869,-0.26541,-1.5528,-0.73648,-0.028404,0.49775,-0.17919,3.4198,-0.054253
0.0066878,0.0034717,0.11895,-0.067946,-0.99111,-0.20546,0.62909,-0.90352,0.12197,-0.2287,-0.51242,-0.21117,1.4008,0.1863,-0.36806,1.3963,-0.25139,-1.4799,-0.71804,-0.040654,0.56579,-0.19046,3.2832,-0.10154
0.01038,0.002723,0.11009,-0.071155,-0.9149,-0.2931,0.66014,-0.8893,0.091358,-0.16746,-0.36457,-0.20668,1.2393,0.15078,-0.26846,1.5459,-0.23522,-1.3696,-0.67119,-0.049062,0.66886,-0.21105,3.2444,0.022873
0.012748,0.00075254,0.10143,-0.071425,-0.85291,-0.39094,0.67835,-0.82026,0.055951,-0.11158,-0.2281,-0.2788,1.0609,0.10583,-0.14168,1.7687,-0.22504,-1.241,-0.60689,-0.057486,0.75188,-0.24766,3.2961,0.17746
0.011965,-0.00069822,0.090627,-0.069096,-0.80486,-0.46749,0.67369,-0.70655,0.0078669,-0.075344,-0.092973,-0.41585,0.91031,0.073855,0.0014457,2.0473,-0.22444,-1.1244,-0.5353,-0.070274,0.7816,-0.29396,3.3387,0.16166
0.009214,-0.00051152,0.076466,-0.066237,-0.75067,-0.51897,0.64263,-0.56815,-0.051557,-0.060959,0.043911,-0.58322,0.76202,0.057323,0.1442,2.3235,-0.23042,-1.0427,-0.4588,-0.089208,0.75516,-0.33314,3.2191,-0.17956
0.0075315,0.0011042,0.060219,-0.065393,-0.65768,-0.56723,0.59819,-0.42058,-0.11678,-0.059829,0.17315,-0.73557,0.55109,0.03608,0.2775,2.53,-0.23544,-0.99661,-0.37071,-0.11158,0.6832,-0.34795,2.7982,-0.87189
0.0088737,0.0029559,0.04495,-0.067626,-0.49679,-0.63629,0.56681,-0.26665,-0.1788,-0.059129,0.27827,-0.83044,0.25461,-0.013898,0.40642,2.6234,-0.23251,-0.96705,-0.2602,-0.13105,0.56645,-0.33016,2.0107,-1.7894
0.012121,0.0039029,0.033507,-0.071492,-0.25974,-0.72734,0.5701,-0.098364,-0.22177,-0.048701,0.34676,-0.83862,-0.054985,-0.097673,0.54287,2.6041,-0.21982,-0.93321,-0.12008,-0.14136,0.3901,-0.28304,0.88613,-2.7026
0.013935,0.0036337,0.026849,-0.073991,0.031543,-0.81361,0.60512,0.093592,-0.22423,-0.024873,0.37734,-0.7516,-0.24388,-0.19533,0.69013,2.5176,-0.20204,-0.8912,0.047011,-0.14064,0.1425,-0.21664,-0.47594,-3.3755
0.011798,0.0025262,0.023833,-0.072809,0.33039,-0.85913,0.64082,0.30882,-0.17065,0.0093547,0.37805,-0.5861,-0.21805,-0.27815,0.83311,2.4439,-0.1873,-0.85781,0.22723,-0.13316,-0.15894,-0.14151,-1.9473,-3.6671
0.0065214,0.00086439,0.02226,-0.067933,0.5846,-0.84461,0.63581,0.53106,-0.067839,0.04659,0.35813,-0.38208,-0.0060298,-0.33207,0.94364,2.4739,-0.182,-0.85624,0.39995,-0.12687,-0.46099,-0.065611,-3.3921,-3.5902
0.0019024,-0.0016762,0.020118,-0.061264,0.75985,-0.7783,0.56452,0.73063,0.047976,0.07842,0.32086,-0.18973,0.25267,-0.36665,0.99774,2.6721,-0.18704,-0.89607,0.5458,-0.12816,-0.69783,0.0050614,-4.6577,-3.294
0.0016713,-0.0056561,0.016203,-0.054735,0.85378,-0.6844,0.43187,0.87541,0.12366,0.098612,0.26304,-0.047945,0.40966,-0.40155,0.99224,3.0353,-0.19793,-0.96501,0.65452,-0.13776,-0.82905,0.065346,-5.5661,-2.9753
0.0062958,-0.010943,0.010035,-0.048854,0.89158,-0.58169,0.26674,0.94603,0.11642,0.1047,0.18075,0.034413,0.41725,-0.44292,0.94816,3.4669,-0.20837,-1.0388,0.7288,-0.15057,-0.863,0.11185,-5.9483,-2.7656
0.012416,-0.016205,0.001593,-0.043072,0.90595,-0.47182,0.10266,0.94728,0.018499,0.096797,0.076562,0.080696,0.35506,-0.47239,0.89869,3.7937,-0.21419,-1.0999,0.7819,-0.15956,-0.8469,0.14497,-5.7222,-2.6622
0.015459,-0.019463,-0.0087642,-0.037402,0.91477,-0.34549,-0.037553,0.90788,-0.13786,0.074274,-0.037231,0.12822,0.35454,-0.46011,0.86949,3.8329,-0.2148,-1.1465,0.83022,-0.16043,-0.83154,0.16907,-4.9593,-2.5478
0.013273,-0.019377,-0.020276,-0.033379,0.9117,-0.19671,-0.14334,0.86635,-0.29859,0.033209,-0.14156,0.20065,0.48826,-0.39157,0.86374,3.4808,-0.21127,-1.1847,0.88455,-0.1537,-0.83758,0.18946,-3.8725,-2.2866
0.0077455,-0.016175,-0.032012,-0.03313,0.87573,-0.02909,-0.20912,0.85025,-0.41713,-0.032066,-0.21831,0.29008,0.71567,-0.28485,0.86032,2.7746,-0.20354,-1.2109,0.94465,-0.1431,-0.84778,0.20842,-2.7129,-1.83
0.0031484,-0.011464,-0.043392,-0.037343,0.79245,0.15119,-0.23004,0.86262,-0.47619,-0.12312,-0.25917,0.3613,0.92332,-0.18192,0.82531,1.8818,-0.18939,-1.203,0.99996,-0.13231,-0.82721,0.22378,-1.6438,-1.2566
0.0026912,-0.0070959,-0.054557,-0.044181,0.67167,0.34641,-0.20661,0.88622,-0.49062,-0.23165,-0.27102,0.37477,1.0165,-0.11972,0.73066,1.0196,-0.16647,-1.1324,1.0355,-0.12262,-0.75215,0.23132,-0.69066,-0.72075
0.0061605,-0.0040858,-0.06609,-0.050323,0.54913,0.56782,-0.15217,0.90329,-0.49291,-0.33969,-0.27441,0.31162,0.98206,-0.10429,0.57051,0.35052,-0.13548,-0.9874,1.0394,-0.11322,-0.6252,0.22855,0.19605,-0.35265
0.010425,-0.002435,-0.078125,-0.053206,0.47089,0.82246,-0.092747,0.91497,-0.51311,-0.4277,-0.29437,0.18432,0.87801,-0.10857,0.3672,-0.079786,-0.10146,-0.78779,1.0081,-0.10297,-0.46848,0.21636,1.0275,-0.18902
0.012103,-0.001843,-0.089562,-0.052418,0.46971,1.0972,-0.055614,0.94362,-0.5653,-0.48532,-0.34714,0.02791,0.76998,-0.095372,0.16361,-0.32822,-0.071558,-0.57501,0.94705,-0.091799,-0.30588,0.19761,1.7217,-0.18142
0.010032,-0.0024608,-0.098266,-0.049099,0.54667,1.3559,-0.054538,1.0146,-0.64602,-0.51588,-0.42983,-0.11985,0.67735,-0.045999,0.0047622,-0.4836,-0.050733,-0.38403,0.86816,-0.080568,-0.15117,0.17483,2.1606,-0.26367
0.005694,-0.0048418,-0.10237,-0.044215,0.668,1.5539,-0.083358,1.1324,-0.74181,-0.53031,-0.51995,-0.23563,0.57065,0.028236,-0.081798,-0.59782,-0.038735,-0.21975,0.78577,-0.069827,-0.0099843,0.14986,2.3047,-0.41283
0.0016279,-0.0090883,-0.10184,-0.037588,0.7791,1.661,-0.12285,1.2724,-0.83842,-0.53533,-0.58663,-0.3156,0.41236,0.09898,-0.096292,-0.66704,-0.030748,-0.058795,0.7122,-0.058835,0.11028,0.12536,2.2501,-0.65261
-0.0005298,-0.014078,-0.098986,-0.028625,0.83025,1.6756,-0.15483,1.397,-0.92567,-0.52669,-0.60797,-0.36824,0.19811,0.14531,-0.061585,-0.66452,-0.021116,0.12442,0.65437,-0.045901,0.19499,0.10543,2.1669,-1.0054
-0.0008199,-0.017731,-0.097352,-0.017868,0.80238,1.6223,-0.17252,1.4835,-0.99644,-0.49458,-0.58433,-0.40231,-0.037229,0.16859,-0.0065209,-0.58513,-0.0071881,0.32983,0.61191,-0.029898,0.22784,0.092853,2.1664,-1.4453
-0.00026781,-0.01834,-0.099614,-0.0076206,0.71962,1.5373,-0.18118,1.5398,-1.0429,-0.43666,-0.53892,-0.41872,-0.24757,0.18689,0.050888,-0.45765,0.0095164,0.52615,0.57783,-0.011809,0.20293,0.084835,2.2159,-1.897
0.0003186,-0.015913,-0.10596,-0.00081626,0.63939,1.4532,-0.19167,1.5946,-1.0552,-0.36646,-0.50471,-0.41137,-0.40904,0.21606,0.10933,-0.31726,0.02518,0.67168,0.54207,0.0049558,0.13336,0.071882,2.1772,-2.2773
0.00093664,-0.012264,-0.11407,0.0010358,0.62235,1.3907,-0.2141,1.6686,-1.0253,-0.30788,-0.50564,-0.37536,-0.53135,0.25498,0.17666,-0.16912,0.036567,0.74229,0.49664,0.015995,0.048886,0.04309,1.9338,-2.5343
0.0020246,-0.0096466,-0.12065,-0.00092261,0.69732,1.3579,-0.25567,1.754,-0.95492,-0.27907,-0.54357,-0.31573,-0.64285,0.28653,0.25672,0.018493,0.04256,0.74279,0.43967,0.018369,-0.016499,-0.0049017,1.497,-2.648
0.0036884,-0.0090535,-0.12346,-0.0035355,0.8429,1.3505,-0.32082,1.8195,-0.86034,-0.27944,-0.59918,-0.24951,-0.76545,0.2916,0.34176,0.28251,0.043746,0.69479,0.37653,0.012519,-0.039637,-0.062607,1.0056,-2.6009
0.005307,-0.0096819,-0.12263,-0.003662,0.99897,1.3547,-0.40925,1.8393,-0.76896,-0.29128,-0.64566,-0.19852,-0.89846,0.26298,0.41586,0.62263,0.041272,0.61618,0.31789,0.0022762,-0.017682,-0.11171,0.62995,-2.3637
0.0058629,-0.009967,-0.12072,-0.00010219,1.1025,1.3529,-0.51116,1.8196,-0.70637,-0.29436,-0.66584,-0.17728,-1.019,0.20827,0.46513,0.98601,0.036416,0.51293,0.27643,-0.0071347,0.032375,-0.13665,0.46871,-1.9222
0.0047021,-0.0091337,-0.1215,0.0058592,1.1239,1.3349,-0.60437,1.8001,-0.68162,-0.28032,-0.66172,-0.18491,-1.095,0.14206,0.48517,1.2928,0.031003,0.38852,0.26389,-0.01176,0.083331,-0.13506,0.51334,-1.3251
0.0021107,-0.0077729,-0.12814,0.011464,1.0797,1.3103,-0.6589,1.8266,-0.68139,-0.25455,-0.65068,-0.20741,-1.1024,0.076128,0.47975,1.4815,0.027545,0.25731,0.28824,-0.010426,0.11158,-0.11881,0.68731,-0.69952
-0.00073029,-0.0069783,-0.1413,0.014187,1.0131,1.3109,-0.64965,1.9155,-0.67849,-0.22582,-0.65214,-0.22875,-1.039,0.016116,0.45307,1.54,0.028269,0.1446,0.35016,-0.0043561,0.10841,-0.10459,0.90442,-0.2008
-0.0023796,-0.0070117,-0.15815,0.013012,0.95852,1.3782,-0.57082,2.0403,-0.64952,-0.19554,-0.67453,-0.24213,-0.92779,-0.034713,0.40365,1.5035,0.033565,0.071482,0.43953,0.0042855,0.083005,-0.10192,1.0952,0.072489
-0.0019414,-0.0068633,-0.1732,0.008689,0.91785,1.5419,-0.44244,2.1491,-0.58908,-0.15751,-0.71128,-0.25283,-0.80667,-0.070707,0.3256,1.4296,0.041373,0.039592,0.53497,0.013398,0.055658,-0.10796,1.1988,0.13158
0.00044865,-0.0051096,-0.18104,0.0030931,0.86499,1.8022,-0.30416,2.2007,-0.51034,-0.10773,-0.74784,-0.27093,-0.7082,-0.083884,0.21643,1.3737,0.048353,0.032058,0.60956,0.020927,0.044938,-0.11238,1.1556,0.074928
0.0037207,-0.001191,-0.17975,-0.0017527,0.77412,2.128,-0.19993,2.1904,-0.43264,-0.052722,-0.77351,-0.3009,-0.64075,-0.068957,0.084536,1.3761,0.052101,0.030423,0.6419,0.024628,0.057014,-0.107,0.92396,0.012857
0.0064763,0.0040623,-0.17263,-0.0044958,0.64811,2.4696,-0.16293,2.1457,-0.36729,-0.007216,-0.78884,-0.33711,-0.5849,-0.02834,-0.049701,1.4572,0.05263,0.030935,0.62612,0.022704,0.083918,-0.091803,0.51007,0.0067932
0.0077698,0.0089794,-0.16636,-0.0048894,0.52422,2.7767,-0.2086,2.0978,-0.31253,0.016848,-0.80346,-0.36884,-0.50831,0.027658,-0.16016,1.6099,0.052003,0.044173,0.57337,0.015201,0.11153,-0.073188,-0.019939,0.069795
0.0076389,0.011986,-0.16655,-0.0037973,0.45288,3.0112,-0.3362,2.0535,-0.26032,0.018664,-0.82659,-0.38967,-0.38803,0.085696,-0.22485,1.7936,0.052671,0.079196,0.50263,0.004735,0.13092,-0.057505,-0.55952,0.20996
0.0070502,0.012106,-0.17373,-0.0027634,0.4657,3.1522,-0.53314,1.9892,-0.20675,0.0061003,-0.85797,-0.40266,-0.22372,0.13531,-0.23443,1.9431,0.056069,0.12935,0.42738,-0.0046778,0.14429,-0.04608,-0.99548,0.4562
0.0072203,0.0089278,-0.18311,-0.0032122,0.55642,3.1967,-0.77624,1.8711,-0.15598,-0.014072,-0.88635,-0.41695,-0.034754,0.17161,-0.19662,1.9976,0.062422,0.1751,0.34876,-0.010128,0.16117,-0.035575,-1.2329,0.83002
0.0086883,0.0025654,-0.18854,-0.0055809,0.68794,3.1595,-1.0307,1.6844,-0.11496,-0.042142,-0.89646,-0.43918,0.15129,0.19389,-0.13534,1.9369,0.071336,0.20167,0.26052,-0.011631,0.18839,-0.022293,-1.2092,1.292
0.010795,-0.0060221,-0.18758,-0.0089059,0.81887,3.0678,-1.2526,1.447,-0.085291,-0.081181,-0.87879,-0.46743,0.30662,0.20271,-0.08441,1.7964,0.082054,0.21349,0.16031,-0.01163,0.22177,-0.0062223,-0.91343,1.729
0.01205,-0.014741,-0.18327,-0.011269,0.92978,2.9488,-1.4013,1.1994,-0.061087,-0.12789,-0.83486,-0.49269,0.40491,0.19868,-0.076043,1.645,0.092996,0.22994,0.055395,-0.012616,0.24613,0.0083319,-0.41566,2.0132
0.011238,-0.020868,-0.18141,-0.010959,1.0311,2.8133,-1.4554,0.9792,-0.035113,-0.16988,-0.7745,-0.50572,0.42535,0.18325,-0.12767,1.5428,0.10143,0.26522,-0.044284,-0.014983,0.24349,0.015567,0.11923,2.0925
0.0084248,-0.022499,-0.18551,-0.0075976,1.1495,2.646,-1.4247,0.80185,-0.0068894,-0.19399,-0.70803,-0.50266,0.3664,0.15981,-0.23327,1.5094,0.1043,0.31123,-0.13964,-0.016968,0.20365,0.012348,0.47116,2.0291
0.005008,-0.020021,-0.19397,-0.0023408,1.3032,2.4139,-1.3449,0.66144,0.015861,-0.19795,-0.63943,-0.48431,0.2615,0.13258,-0.36508,1.5291,0.10004,0.34062,-0.24798,-0.01654,0.13024,0.0012699,0.46227,1.9461
0.0026683,-0.016211,-0.20163,0.003036,1.4848,2.0896,-1.2559,0.54792,0.024603,-0.19286,-0.56506,-0.4506,0.17871,0.10391,-0.48624,1.5797,0.089951,0.32892,-0.39108,-0.013507,0.039463,-0.0090309,0.063108,1.925
0.0020716,-0.014515,-0.20387,0.0074765,1.6591,1.6745,-1.1777,0.46296,0.019471,-0.19256,-0.47788,-0.3967,0.19384,0.072752,-0.5672,1.6575,0.077691,0.27687,-0.5727,-0.010112,-0.046877,-0.006936,-0.5663,1.9451
0.0024528,-0.016629,-0.19977,0.011287,1.7751,1.2059,-1.0993,0.41994,0.011426,-0.19978,-0.37347,-0.31641,0.35011,0.037192,-0.59656,1.7726,0.067017,0.21329,-0.76529,-0.0098556,-0.10932,0.016606,-1.1403,1.9187
0.0024571,-0.021337,-0.1916,0.015563,1.785,0.74143,-0.99161,0.42835,0.014051,-0.20265,-0.25417,-0.21162,0.63237,-0.00018976,-0.58063,1.9249,0.059517,0.17584,-0.92146,-0.015599,-0.13619,0.062678,-1.3857,1.7879
0.0014504,-0.025651,-0.18211,0.020948,1.6603,0.3326,-0.83545,0.47795,0.031628,-0.18614,-0.12979,-0.10014,0.97503,-0.028988,-0.53474,2.0873,0.054264,0.1857,-1.0055,-0.028125,-0.12502,0.12269,-1.1729,1.5885
4.6166e-005,-0.02732,-0.17227,0.026857,1.4031,0.0051294,-0.64473,0.53878,0.054104,-0.14761,-0.014913,-0.01311,1.2966,-0.034597,-0.47398,2.2157,0.049677,0.2369,-1.0208,-0.04562,-0.081203,0.1823,-0.56465,1.4196
-0.0006608,-0.026516,-0.16164,0.031842,1.0501,-0.24258,-0.4668,0.57934,0.063866,-0.10153,0.076106,0.019141,1.5345,-0.0082015,-0.40952,2.2768,0.045942,0.30764,-1.0097,-0.063963,-0.015723,0.22916,0.23473,1.3433
-0.00037648,-0.025298,-0.15046,0.034697,0.66577,-0.42588,-0.35644,0.5887,0.049035,-0.067952,0.13538,-0.015326,1.6604,0.044039,-0.35014,2.2658,0.045868,0.38205,-1.0216,-0.077762,0.056278,0.25916,0.98886,1.3092
-7.6691e-005,-0.025518,-0.14062,0.035322,0.32243,-0.55835,-0.34011,0.58385,0.012201,-0.055351,0.16646,-0.10194,1.6761,0.10123,-0.30399,2.2014,0.053374,0.46308,-1.0748,-0.082175,0.11611,0.27657,1.5302,1.1762
-0.0011137,-0.027262,-0.13436,0.034691,0.074073,-0.64563,-0.39606,0.59504,-0.032538,-0.053638,0.18463,-0.208,1.6067,0.13951,-0.27682,2.1064,0.070911,0.56572,-1.1419,-0.075077,0.14333,0.28801,1.8054,0.8204
-0.0038136,-0.029208,-0.13172,0.034182,-0.063668,-0.68992,-0.46631,0.63973,-0.071403,-0.044261,0.21049,-0.30246,1.4973,0.14765,-0.2675,2.0013,0.097977,0.6978,-1.1721,-0.058341,0.12118,0.29571,1.8577,0.24067
-0.0070202,-0.030264,-0.12954,0.034956,-0.11339,-0.69742,-0.49358,0.70506,-0.10148,-0.018333,0.25918,-0.37324,1.4046,0.13392,-0.266,1.9165,0.13185,0.84595,-1.1325,-0.036949,0.045572,0.29608,1.7758,-0.42062
-0.0091578,-0.030542,-0.12331,0.037724,-0.11594,-0.68061,-0.45724,0.75173,-0.13134,0.013475,0.3318,-0.42957,1.3746,0.11803,-0.2571,1.9051,0.16961,0.97989,-1.0345,-0.016062,-0.066973,0.2852,1.6447,-0.95685
-0.0098154,-0.030643,-0.11046,0.042631,-0.10581,-0.65382,-0.38184,0.73516,-0.17184,0.027919,0.41494,-0.48886,1.4095,0.11349,-0.22882,2.0283,0.20923,1.0726,-0.92097,0.002012,-0.17971,0.26565,1.5249,-1.2135
-0.010208,-0.030239,-0.092069,0.04902,-0.10041,-0.62702,-0.31244,0.6277,-0.22518,0.0066771,0.48935,-0.55931,1.4525,0.11476,-0.17996,2.3106,0.24873,1.1202,-0.82648,0.018481,-0.24874,0.24747,1.4577,-1.1614
-0.011904,-0.027863,-0.071525,0.055319,-0.10789,-0.60387,-0.27706,0.42718,-0.28137,-0.050642,0.54147,-0.63226,1.4101,0.099792,-0.12132,2.699,0.28424,1.1452,-0.74319,0.035613,-0.24482,0.24088,1.4754,-0.89122
-0.014983,-0.022543,-0.051466,0.059617,-0.13998,-0.58458,-0.2662,0.15028,-0.32453,-0.12789,0.57011,-0.68965,1.2055,0.046493,-0.069646,3.0671,0.30951,1.1797,-0.62421,0.053184,-0.17138,0.24612,1.5946,-0.54958
-0.01755,-0.015665,-0.031979,0.06087,-0.21204,-0.56957,-0.24484,-0.17915,-0.34332,-0.20496,0.58438,-0.71928,0.82902,-0.049856,-0.038457,3.2758,0.31826,1.2414,-0.42364,0.06707,-0.066254,0.24953,1.7938,-0.26534
-0.017311,-0.010832,-0.011733,0.059799,-0.32738,-0.55975,-0.18446,-0.53528,-0.33713,-0.2694,0.59593,-0.72509,0.34643,-0.17184,-0.032006,3.2527,0.3079,1.3181,-0.14055,0.071566,0.016802,0.23034,1.9996,-0.099417
-0.013876,-0.011258,0.0092855,0.058403,-0.46221,-0.55385,-0.086166,-0.88687,-0.31408,-0.31817,0.61198,-0.72452,-0.13775,-0.29089,-0.046069,3.0298,0.2815,1.3739,0.17082,0.063668,0.036383,0.17375,2.1106,-0.027914
-0.0095442,-0.016815,0.028362,0.058219,-0.57109,-0.54697,0.025517,-1.1929,-0.2837,-0.35087,0.63367,-0.73586,-0.53559,-0.38485,-0.074321,2.7131,0.24599,1.3695,0.43541,0.045675,-0.015817,0.080681,2.0603,0.042693
-0.0075953,-0.023572,0.041684,0.058802,-0.61452,-0.53323,0.13102,-1.406,-0.25122,-0.36385,0.65872,-0.76608,-0.80975,-0.44862,-0.11497,2.4054,0.20777,1.2843,0.60891,0.023822,-0.11459,-0.03279,1.8753,0.23031
-0.0094747,-0.026601,0.047763,0.058005,-0.58818,-0.51071,0.23882,-1.4867,-0.2173,-0.35207,0.68507,-0.80783,-0.97001,-0.49118,-0.17227,2.1427,0.1696,1.1254,0.70426,0.0042188,-0.21988,-0.14487,1.6785,0.61258
-0.01346,-0.023803,0.049554,0.054059,-0.52856,-0.48357,0.37986,-1.4189,-0.18168,-0.31605,0.71237,-0.84666,-1.0468,-0.52362,-0.25159,1.8863,0.13128,0.92142,0.77186,-0.010323,-0.30085,-0.23862,1.6154,1.1729
-0.016171,-0.017493,0.053188,0.047635,-0.48887,-0.45911,0.57636,-1.2186,-0.14569,-0.26506,0.74178,-0.87157,-1.0685,-0.54896,-0.35147,1.5665,0.093533,0.7073,0.85175,-0.020049,-0.34968,-0.30663,1.7485,1.7956
-0.015661,-0.012341,0.064067,0.041886,-0.5043,-0.4425,0.81243,-0.92768,-0.11056,-0.21107,0.77507,-0.88082,-1.0573,-0.56135,-0.45908,1.1361,0.060822,0.51207,0.93981,-0.025503,-0.37903,-0.34898,1.9986,2.3249
-0.01324,-0.011507,0.083271,0.040206,-0.57394,-0.43483,1.0339,-0.59752,-0.073968,-0.15789,0.81396,-0.87995,-1.0337,-0.55356,-0.55295,0.59632,0.040113,0.35469,0.99599,-0.0255,-0.40874,-0.36923,2.1841,2.6551
-0.012263,-0.014267,0.10694,0.043514,-0.67055,-0.43645,1.1812,-0.27106,-0.029784,-0.097003,0.85857,-0.87557,-1.0168,-0.52512,-0.61226,-0.013311,0.036191,0.24686,0.985,-0.018014,-0.45337,-0.37299,2.1357,2.7897
-0.014889,-0.017022,0.12897,0.049344,-0.76572,-0.45181,1.229,0.026997,0.026507,-0.016761,0.9053,-0.87112,-1.0132,-0.48394,-0.62708,-0.6385,0.047627,0.19618,0.91142,-0.0029328,-0.51754,-0.36907,1.8006,2.8234
-0.019838,-0.01651,0.14492,0.0534,-0.84721,-0.48995,1.2034,0.28834,0.090439,0.08085,0.94549,-0.86759,-1.0062,-0.44082,-0.60338,-1.2247,0.067108,0.20489,0.81816,0.016488,-0.59792,-0.36896,1.2602,2.8605
-0.023327,-0.012306,0.15451,0.052253,-0.91736,-0.55939,1.1612,0.5119,0.14638,0.1711,0.96778,-0.86711,-0.96035,-0.40229,-0.5597,-1.7205,0.085959,0.26511,0.75103,0.035341,-0.68587,-0.38157,0.65582,2.9338
-0.022441,-0.0066167,0.16108,0.04516,-0.98019,-0.66174,1.1514,0.69597,0.17448,0.21644,0.96404,-0.87429,-0.84431,-0.36784,-0.51715,-2.082,0.099096,0.35597,0.72169,0.050441,-0.76749,-0.40566,0.090853,2.9847
-0.017831,-0.0020144,0.1688,0.034048,-1.0336,-0.78953,1.1863,0.83773,0.16297,0.19127,0.9357,-0.89275,-0.65917,-0.33349,-0.48769,-2.2874,0.10656,0.44739,0.70061,0.061993,-0.82357,-0.42629,-0.40771,2.9167
-0.013158,0.00056233,0.17961,0.022199,-1.0735,-0.92912,1.2432,0.93961,0.11687,0.10327,0.895,-0.91981,-0.45031,-0.29786,-0.46635,-2.3514,0.11106,0.511,0.64343,0.071828,-0.83403,-0.4207,-0.84646,2.6763
-0.011737,0.0018491,0.19187,0.012692,-1.1032,-1.0642,1.29,1.0147,0.055982,-0.0071759,0.85839,-0.94496,-0.28812,-0.26499,-0.43133,-2.3227,0.11449,0.53222,0.52599,0.080075,-0.78736,-0.37141,-1.1926,2.2977
-0.013483,0.0027762,0.20161,0.0072682,-1.133,-1.1762,1.3098,1.0843,0.0033441,-0.091218,0.83534,-0.95528,-0.22413,-0.24142,-0.3534,-2.2576,0.11647,0.51604,0.35986,0.083874,-0.68906,-0.27783,-1.3476,1.8828
-0.015061,0.0032736,0.20519,0.0057132,-1.1691,-1.2438,1.3077,1.1665,-0.027621,-0.12245,0.82029,-0.94466,-0.25076,-0.23056,-0.21174,-2.1896,0.11574,0.48231,0.18006,0.079779,-0.56147,-0.15748,-1.1989,1.5378
-0.01312,0.0025743,0.20181,0.0058948,-1.1995,-1.2457,1.2962,1.2655,-0.038335,-0.11099,0.79518,-0.91904,-0.2977,-0.22956,-0.0091828,-2.1198,0.11213,0.45294,0.020138,0.067657,-0.43306,-0.035549,-0.70704,1.3135
-0.0075539,0.00051938,0.19398,0.0047025,-1.1911,-1.1699,1.2777,1.3697,-0.040275,-0.090605,0.74274,-0.89271,-0.27575,-0.23194,0.22237,-2.0407,0.10694,0.43907,-0.10471,0.052162,-0.32392,0.06952,0.044653,1.1835
-0.0016921,-0.0016244,0.18592,-0.00027238,-1.1034,-1.0216,1.2388,1.4618,-0.045245,-0.090025,0.66238,-0.87773,-0.13998,-0.23341,0.43234,-1.9728,0.10143,0.43605,-0.1981,0.039982,-0.23776,0.15356,0.88038,1.0661
0.0007627,-0.0017381,0.18092,-0.0092424,-0.90991,-0.82272,1.1618,1.5328,-0.058345,-0.1118,0.57643,-0.87501,0.078097,-0.2351,0.57453,-1.9776,0.09541,0.42876,-0.27372,0.035036,-0.16583,0.22258,1.6182,0.87116
-0.00084531,0.0016573,0.17966,-0.02006,-0.61225,-0.60053,1.0406,1.5869,-0.077621,-0.13448,0.52009,-0.87459,0.30017,-0.24076,0.63036,-2.1247,0.087493,0.40305,-0.34846,0.03578,-0.098387,0.28222,2.1487,0.54771
-0.0035756,0.0082437,0.18039,-0.029667,-0.24044,-0.37452,0.88851,1.6345,-0.09845,-0.13396,0.51965,-0.86482,0.46944,-0.25028,0.6174,-2.4299,0.076792,0.35516,-0.44069,0.036844,-0.033701,0.33069,2.4567,0.11495
-0.0037054,0.015958,0.18074,-0.036121,0.16003,-0.15314,0.73241,1.6784,-0.11781,-0.10465,0.57348,-0.84258,0.59432,-0.25616,0.57676,-2.815,0.064221,0.29339,-0.56806,0.033481,0.02222,0.36114,2.5882,-0.33779
-0.00023689,0.022155,0.17933,-0.039664,0.54387,0.056765,0.60002,1.708,-0.13524,-0.062845,0.65001,-0.81517,0.72203,-0.24697,0.54737,-3.1282,0.052136,0.23226,-0.74002,0.025099,0.063389,0.37013,2.6008,-0.68583
0.0041893,0.025063,0.17621,-0.042077,0.87638,0.23837,0.51181,1.7073,-0.15111,-0.031271,0.70587,-0.79224,0.86459,-0.21558,0.54422,-3.2229,0.042868,0.18443,-0.94815,0.015357,0.090817,0.36331,2.5348,-0.8289
0.0058008,0.024634,0.17197,-0.045009,1.1364,0.36557,0.48139,1.6709,-0.16525,-0.019756,0.71292,-0.77481,0.95412,-0.16497,0.55474,-3.043,0.037788,0.15649,-1.1636,0.0092739,0.1121,0.35266,2.4125,-0.74705
0.0032688,0.022336,0.16662,-0.048694,1.3146,0.41939,0.51889,1.6143,-0.17747,-0.018978,0.67567,-0.7519,0.88564,-0.10656,0.55369,-2.6508,0.037702,0.14958,-1.3473,0.0098628,0.13442,0.34775,2.2447,-0.51802
-0.00094628,0.020082,0.1594,-0.052032,1.4102,0.40667,0.62866,1.5698,-0.18949,-0.0115,0.62721,-0.70824,0.62053,-0.052666,0.52351,-2.1779,0.043503,0.16125,-1.4692,0.016475,0.15799,0.34912,2.0303,-0.27958
-0.0026937,0.019077,0.14962,-0.053801,1.4292,0.36227,0.80061,1.5682,-0.20551,0.011049,0.60681,-0.63698,0.25398,-0.010179,0.46465,-1.7354,0.055409,0.18425,-1.5218,0.025369,0.176,0.34943,1.748,-0.15583
0.00023482,0.019342,0.13742,-0.053852,1.3829,0.32874,1.004,1.6205,-0.23024,0.040323,0.63473,-0.54603,-0.030271,0.019464,0.39026,-1.3546,0.070726,0.20254,-1.5205,0.031644,0.18102,0.34061,1.3599,-0.19378
0.0061594,0.020124,0.1238,-0.053275,1.2889,0.32795,1.1945,1.714,-0.26515,0.05926,0.70099,-0.45239,-0.093151,0.03522,0.3126,-1.0008,0.082328,0.19033,-1.4876,0.031422,0.17157,0.31994,0.83365,-0.35131
0.010882,0.02063,0.10994,-0.053401,1.1723,0.34897,1.3339,1.8237,-0.30614,0.057681,0.77364,-0.36941,0.052159,0.03269,0.23449,-0.64155,0.080482,0.11961,-1.4337,0.02344,0.15302,0.28993,0.17431,-0.5423
0.011071,0.020348,0.096527,-0.054523,1.0655,0.36391,1.4112,1.9314,-0.34462,0.041218,0.81839,-0.29877,0.25797,0.0064526,0.15285,-0.30834,0.058104,-0.025099,-1.35,0.0094749,0.13222,0.25322,-0.55646,-0.70301
0.0067315,0.018865,0.083773,-0.055452,1.0024,0.35927,1.4462,2.037,-0.37201,0.026007,0.81577,-0.23424,0.37405,-0.043095,0.069939,-0.095321,0.01603,-0.2341,-1.2167,-0.0067824,0.1114,0.20892,-1.2479,-0.83068
0.00085741,0.015794,0.071903,-0.054341,1.007,0.35563,1.4725,2.1523,-0.38442,0.024466,0.76616,-0.17307,0.37714,-0.10486,0.00088716,-0.09513,-0.036216,-0.47285,-1.0213,-0.022065,0.087413,0.15483,-1.7708,-0.96786
-0.0031174,0.011257,0.061371,-0.050144,1.0811,0.39709,1.5117,2.2824,-0.38441,0.034896,0.68302,-0.1229,0.38173,-0.15933,-0.030638,-0.32353,-0.085691,-0.69762,-0.77399,-0.035833,0.057092,0.093641,-2.0151,-1.1491
-0.0037296,0.0064663,0.052584,-0.043512,1.201,0.51743,1.5578,2.4086,-0.37831,0.043585,0.58226,-0.095803,0.52394,-0.18709,-0.0060339,-0.69405,-0.12396,-0.87728,-0.50869,-0.050893,0.023674,0.036591,-1.9214,-1.3539
-0.0019139,0.0034367,0.045499,-0.036413,1.328,0.70983,1.5833,2.488,-0.37141,0.0368,0.47509,-0.093457,0.82474,-0.1776,0.075887,-1.0636,-0.15175,-1.006,-0.26909,-0.071623,-0.0024799,-0.00033564,-1.5006,-1.5053
0.00042425,0.0035898,0.039588,-0.030854,1.4292,0.92467,1.5594,2.4709,-0.36465,0.011858,0.3672,-0.097389,1.154,-0.13219,0.19759,-1.3155,-0.17666,-1.0983,-0.088912,-0.10075,-0.010663,-0.0061103,-0.83829,-1.5151
0.0020574,0.0063806,0.034145,-0.027779,1.4949,1.0977,1.474,2.3279,-0.35535,-0.021982,0.2614,-0.075388,1.3226,-0.060581,0.33347,-1.4207,-0.206,-1.1713,0.021653,-0.1369,0.0010714,0.017147,-0.080173,-1.3448
0.0028965,0.0094667,0.028443,-0.026927,1.5403,1.1882,1.3329,2.068,-0.34116,-0.052622,0.15956,-0.0018182,1.2168,0.025343,0.46414,-1.4384,-0.24031,-1.2278,0.075561,-0.17459,0.022511,0.054292,0.6088,-1.0341
0.0033028,0.010588,0.021532,-0.027508,1.5874,1.2001,1.1501,1.7392,-0.32347,-0.075355,0.062323,0.12339,0.86417,0.11558,0.58373,-1.4654,-0.27267,-1.2544,0.096425,-0.20681,0.037429,0.086035,1.1014,-0.67577
0.003386,0.0095023,0.012131,-0.028888,1.6429,1.1749,0.93766,1.4088,-0.30699,-0.094797,-0.032341,0.27255,0.3912,0.20242,0.69615,-1.5727,-0.2937,-1.2337,0.10341,-0.22836,0.035017,0.10007,1.3568,-0.35125
0.0031351,0.0080355,-0.00079794,-0.030693,1.6873,1.1637,0.70419,1.1363,-0.29563,-0.11678,-0.12891,0.40752,-0.06919,0.27926,0.80494,-1.7734,-0.29788,-1.1602,0.10384,-0.23782,0.01748,0.096371,1.4307,-0.073634
0.0030358,0.0081064,-0.016995,-0.032485,1.6866,1.1987,0.45979,0.95029,-0.28795,-0.13761,-0.23181,0.50349,-0.43535,0.34083,0.90591,-2.0306,-0.28645,-1.0476,0.097281,-0.23723,-0.0025242,0.083459,1.4356,0.2204
0.0041396,0.0097043,-0.0344,-0.033589,1.6193,1.2781,0.2167,0.84041,-0.27648,-0.14076,-0.34226,0.5614,-0.66896,0.38499,0.9882,-2.2899,-0.26571,-0.9223,0.085528,-0.23009,-0.012494,0.069798,1.472,0.61913
0.0071479,0.010921,-0.050092,-0.033382,1.4977,1.3722,-0.017174,0.76629,-0.25174,-0.10514,-0.45697,0.6008,-0.74172,0.41444,1.0418,-2.509,-0.24283,-0.80968,0.078234,-0.21932,-0.0098305,0.057609,1.5723,1.1578
0.011322,0.010006,-0.062239,-0.031758,1.3665,1.4426,-0.24443,0.67895,-0.20831,-0.019324,-0.56952,0.64067,-0.63167,0.43583,1.0646,-2.6702,-0.22271,-0.72455,0.088146,-0.2066,-0.0027266,0.04353,1.6913,1.7689
0.014514,0.0072364,-0.071395,-0.029199,1.2784,1.4655,-0.47363,0.54467,-0.14813,0.1093,-0.6729,0.68455,-0.35559,0.45662,1.0634,-2.7782,-0.20714,-0.6704,0.1195,-0.19308,-0.0020269,0.024096,1.7461,2.3007
0.014653,0.0045702,-0.079809,-0.026305,1.2617,1.4493,-0.70387,0.36031,-0.078898,0.25768,-0.76072,0.72113,0.0069942,0.48135,1.0493,-2.8479,-0.19549,-0.64512,0.1601,-0.18016,-0.011622,0.0001442,1.6728,2.5974
0.01152,0.0034527,-0.089143,-0.023151,1.303,1.4351,-0.9119,0.15227,-0.009296,0.40025,-0.82661,0.73778,0.33969,0.5093,1.0312,-2.8867,-0.18562,-0.64634,0.18512,-0.1695,-0.025773,-0.024007,1.4633,2.592
0.0071725,0.0032325,-0.098645,-0.019112,1.3528,1.4773,-1.057,-0.040056,0.054903,0.52181,-0.86416,0.7339,0.553,0.53397,1.0119,-2.8741,-0.17465,-0.67248,0.17078,-0.16193,-0.035149,-0.045439,1.1597,2.3458
0.0045016,0.0020229,-0.10561,-0.013427,1.3518,1.6103,-1.1049,-0.18701,0.11107,0.62069,-0.86938,0.72232,0.63044,0.54463,0.98856,-2.7514,-0.16015,-0.72138,0.10779,-0.15668,-0.035615,-0.066651,0.81794,2.0056
0.005153,-0.00085492,-0.10794,-0.0061519,1.2575,1.8189,-1.0539,-0.28382,0.15717,0.70117,-0.84499,0.71846,0.61465,0.52981,0.95534,-2.4402,-0.1419,-0.78974,0.0048952,-0.15192,-0.031916,-0.094891,0.47445,1.706
0.0085648,-0.0036006,-0.10651,0.0012655,1.0591,2.0344,-0.9413,-0.34936,0.1895,0.76274,-0.80264,0.72722,0.54911,0.48272,0.90536,-1.8919,-0.1231,-0.87452,-0.1177,-0.14648,-0.03363,-0.13748,0.13751,1.4856
0.012748,-0.0034974,-0.10504,0.006452,0.77711,2.163,-0.8231,-0.41067,0.20325,0.79617,-0.7589,0.73914,0.43394,0.40666,0.8328,-1.1444,-0.10954,-0.97337,-0.23731,-0.14129,-0.04774,-0.1973,-0.19426,1.2795
0.015802,8.3852e-005,-0.10736,0.0075938,0.45164,2.1333,-0.74108,-0.48488,0.19517,0.78952,-0.72635,0.7386,0.23823,0.31654,0.73499,-0.3401,-0.10657,-1.082,-0.33293,-0.13886,-0.074458,-0.2718,-0.51057,0.98888
0.016727,0.0044169,-0.11432,0.0050255,0.12825,1.9318,-0.70122,-0.57118,0.16597,0.73876,-0.70564,0.71622,-0.046392,0.23391,0.61534,0.32404,-0.11552,-1.19,-0.38515,-0.14102,-0.10896,-0.35548,-0.78936,0.57304
0.015166,0.0055563,-0.12307,0.001598,-0.15555,1.604,-0.67775,-0.65666,0.12047,0.65359,-0.68555,0.67508,-0.3683,0.17677,0.4858,0.69483,-0.13232,-1.281,-0.37798,-0.14675,-0.14601,-0.44245,-1.0213,0.088632
0.011012,0.0020975,-0.12955,0.0011226,-0.38077,1.2202,-0.63687,-0.72916,0.065687,0.55368,-0.65205,0.62603,-0.63605,0.15029,0.36671,0.74592,-0.1494,-1.339,-0.30608,-0.15213,-0.18248,-0.52672,-1.2365,-0.35251
0.0047428,-0.0031088,-0.13199,0.0056597,-0.55085,0.8341,-0.56093,-0.78638,0.0087423,0.45854,-0.6001,0.57744,-0.78153,0.14494,0.28172,0.5857,-0.15971,-1.3586,-0.18224,-0.1525,-0.21611,-0.60071,-1.5015,-0.66953
-0.001871,-0.0052388,-0.13233,0.01363,-0.68479,0.46274,-0.45791,-0.83519,-0.044283,0.37909,-0.53901,0.52865,-0.80966,0.14367,0.24842,0.38142,-0.16005,-1.3501,-0.035368,-0.14517,-0.24284,-0.6548,-1.8794,-0.87105
-0.0059812,-0.001915,-0.13451,0.020464,-0.80116,0.097082,-0.35469,-0.88494,-0.088693,0.31671,-0.48694,0.47236,-0.79036,0.13346,0.26793,0.25307,-0.15142,-1.3323,0.10384,-0.13039,-0.25669,-0.67988,-2.3731,-1.0416
-0.0053526,0.0043077,-0.14094,0.021653,-0.90359,-0.27156,-0.28368,-0.94255,-0.12175,0.26895,-0.45866,0.40307,-0.80118,0.11283,0.31961,0.21133,-0.13659,-1.3175,0.22074,-0.11002,-0.25267,-0.67163,-2.9003,-1.2745
-0.00035733,0.0078464,-0.15048,0.016044,-0.98001,-0.63484,-0.27176,-1.0138,-0.14353,0.23571,-0.45561,0.32362,-0.87044,0.090306,0.36573,0.17695,-0.11715,-1.2977,0.32344,-0.085763,-0.23013,-0.63315,-3.3271,-1.6103
0.0057322,0.0048353,-0.1594,0.0068337,-1.0169,-0.97157,-0.33357,-1.1073,-0.15696,0.22022,-0.46555,0.24418,-0.96478,0.075479,0.36609,0.055937,-0.092526,-1.2451,0.43148,-0.058691,-0.19338,-0.57333,-3.5498,-2.0287
0.00891,-0.0034871,-0.16447,-0.00056307,-1.015,-1.2638,-0.46669,-1.2342,-0.16626,0.22469,-0.47102,0.17496,-1.022,0.070152,0.29621,-0.19174,-0.06158,-1.1282,0.55487,-0.030469,-0.14895,-0.50211,-3.5726,-2.4861
0.0074917,-0.011745,-0.16545,-0.0021348,-0.98954,-1.5071,-0.64909,-1.4003,-0.17433,0.24516,-0.45995,0.11889,-0.9942,0.066668,0.15903,-0.53701,-0.024993,-0.9338,0.68089,-0.004452,-0.10197,-0.42604,-3.5238,-2.9547
0.0034051,-0.014835,-0.16482,0.0023185,-0.9541,-1.7076,-0.84322,-1.596,-0.18131,0.27084,-0.43105,0.070034,-0.8676,0.054691,-0.017212,-0.91894,0.014145,-0.67713,0.78027,0.015175,-0.054344,-0.34733,-3.592,-3.42
0.00047343,-0.011881,-0.16555,0.0095703,-0.90507,-1.8726,-1.0098,-1.7938,-0.1856,0.28881,-0.39136,0.018306,-0.65812,0.0308,-0.1937,-1.2941,0.052343,-0.39425,0.82815,0.026106,-0.0053084,-0.26666,-3.9176,-3.8467
0.0011582,-0.0064279,-0.16888,0.015498,-0.82803,-2.0073,-1.126,-1.9593,-0.18671,0.28986,-0.34961,-0.043615,-0.40238,0.0027671,-0.33918,-1.6569,0.088509,-0.12072,0.82291,0.030239,0.046767,-0.18655,-4.511,-4.1547
0.0046685,-0.0030536,-0.17399,0.017708,-0.72346,-2.1184,-1.1974,-2.0689,-0.18707,0.27096,-0.31059,-0.11618,-0.15666,-0.015531,-0.44075,-2.0191,0.12459,0.12683,0.78816,0.033261,0.10285,-0.11245,-5.2515,-4.2445
0.0080719,-0.0036053,-0.1794,0.016543,-0.62561,-2.2158,-1.2525,-2.1256,-0.19105,0.23296,-0.27405,-0.19352,0.0079271,-0.015109,-0.50225,-2.371,0.1629,0.35385,0.75749,0.041342,0.16223,-0.050763,-5.9699,-4.0648
0.0092431,-0.0062721,-0.18437,0.014234,-0.58857,-2.3046,-1.323,-2.1587,-0.20153,0.17708,-0.23756,-0.26699,0.032057,-0.00027334,-0.53453,-2.656,0.20219,0.57606,0.75524,0.057321,0.22201,-0.0059165,-6.5548,-3.6678
0.0088073,-0.0078765,-0.18909,0.013121,-0.64368,-2.3719,-1.4221,-2.2091,-0.21694,0.10442,-0.20041,-0.32896,-0.090385,0.012557,-0.54637,-2.7769,0.23631,0.80369,0.78814,0.079248,0.27738,0.020881,-7.0099,-3.2003
0.0092639,-0.0069416,-0.19376,0.014145,-0.76464,-2.3841,-1.5336,-2.307,-0.23119,0.018517,-0.16578,-0.37521,-0.29185,0.0054454,-0.54231,-2.6355,0.25737,1.0335,0.85123,0.10219,0.32367,0.030635,-7.4216,-2.8259
0.012205,-0.0047515,-0.1979,0.016374,-0.87675,-2.3043,-1.6208,-2.455,-0.23671,-0.072624,-0.13987,-0.40582,-0.46335,-0.02842,-0.52634,-2.184,0.26136,1.2505,0.93866,0.12152,0.35978,0.025206,-7.8664,-2.6316
0.016353,-0.0037813,-0.20069,0.017759,-0.90923,-2.1209,-1.6458,-2.6271,-0.22841,-0.15906,-0.12846,-0.42482,-0.52735,-0.079172,-0.50581,-1.4674,0.25141,1.4338,1.0465,0.13508,0.39061,0.0078252,-8.3266,-2.5879
0.018338,-0.0053007,-0.20174,0.016735,-0.84915,-1.8642,-1.5907,-2.7836,-0.20592,-0.23467,-0.13261,-0.43838,-0.49473,-0.1258,-0.49057,-0.63163,0.23545,1.5599,1.164,0.14276,0.42585,-0.014482,-8.679,-2.5883
0.015552,-0.0084293,-0.20121,0.013724,-0.75021,-1.5957,-1.4664,-2.8951,-0.17318,-0.30044,-0.14603,-0.45178,-0.45204,-0.14874,-0.48769,0.11418,0.21973,1.6053,1.2627,0.14487,0.47454,-0.029295,-8.763,-2.5338
0.0084845,-0.011271,-0.19908,0.011343,-0.68811,-1.3736,-1.3081,-2.9623,-0.13617,-0.3608,-0.15625,-0.46674,-0.48177,-0.14064,-0.49619,0.5765,0.20346,1.5518,1.2969,0.14106,0.53826,-0.021163,-8.4792,-2.389
0.00046508,-0.012753,-0.19435,0.0128,-0.70112,-1.2212,-1.1582,-3.0163,-0.10041,-0.41495,-0.15003,-0.4812,-0.58124,-0.10813,-0.50572,0.6613,0.17935,1.3974,1.2226,0.13087,0.60801,0.021696,-7.8499,-2.174
