-1.8714e-010,9.8588e-010,3.8451e-009,1.6264e-009,-1.2946e-009,-2.0856e-009,-4.3853e-009,-1.2805e-008,1.0154e-008,-3.1351e-009,2.2168e-009,-1.7547e-008,-2.3171e-009,1.2598e-009,-4.6014e-009,2.0626e-008,6.7526e-011,8.8169e-010,4.6554e-009,7.1577e-010,-1.4856e-010,1.1557e-009,4.8676e-009,9.1256e-010
-5.0364e-009,2.7155e-008,1.067e-007,4.4704e-008,-3.577e-008,-5.7343e-008,-1.2139e-007,-3.5412e-007,2.7887e-007,-8.8267e-008,6.1755e-008,-4.8481e-007,-6.523e-008,3.5308e-008,-1.2752e-007,5.7025e-007,2.1091e-009,2.4353e-008,1.2857e-007,1.9641e-008,-4.0434e-009,3.168e-008,1.347e-007,2.5148e-008
-6.5861e-008,3.6349e-007,1.4399e-006,5.9718e-007,-4.8073e-007,-7.6579e-007,-1.6333e-006,-4.7612e-006,3.72e-006,-1.2099e-006,8.3723e-007,-6.5108e-006,-8.9514e-007,4.8126e-007,-1.7182e-006,7.6652e-006,3.1672e-008,3.2726e-007,1.726e-006,2.6151e-007,-5.3595e-008,4.2203e-007,1.8124e-006,3.3693e-007
-5.5772e-007,3.1503e-006,1.2588e-005,5.1649e-006,-4.1875e-006,-6.6164e-006,-1.4231e-005,-4.1463e-005,3.2105e-005,-1.0761e-005,7.36e-006,-5.662e-005,-7.9822e-006,4.2499e-006,-1.4996e-005,6.6743e-005,3.0507e-007,2.8507e-006,1.5005e-005,2.2503e-006,-4.6082e-007,3.6398e-006,1.5795e-005,2.924e-006
-3.4387e-006,1.9869e-005,8.0137e-005,3.2504e-005,-2.6576e-005,-4.1555e-005,-9.023e-005,-0.00026288,0.0002014,-6.9825e-005,4.7158e-005,-0.00035834,-5.2023e-005,2.7324e-005,-9.528e-005,0.00042313,2.1204e-006,1.8091e-005,9.4948e-005,1.4059e-005,-2.888e-006,2.2841e-005,0.00010022,1.8473e-005
-1.6456e-005,9.7153e-005,0.00039583,0.00015857,-0.00013098,-0.00020206,-0.00044355,-0.0012928,0.00097816,-0.00035231,0.00023466,-0.0017583,-0.00026426,0.00013624,-0.00046953,0.0020811,1.1338e-005,8.9113e-005,0.00046593,6.7912e-005,-1.405e-005,0.00011111,0.0004933,9.0517e-005
-6.3633e-005,0.00038312,0.0015781,0.00062375,-0.00052165,-0.00079079,-0.0017581,-0.0051299,0.0038234,-0.0014388,0.00094336,-0.0069576,-0.0010896,0.00054785,-0.0018666,0.0082611,4.8538e-005,0.00035441,0.0018444,0.00026364,-5.5161e-005,0.00043583,0.0019594,0.00035779
-0.00020437,0.0012509,0.0052144,0.002031,-0.0017249,-0.0025557,-0.0057679,-0.016866,0.01234,-0.0048879,0.003146,-0.022791,-0.0037497,0.0018234,-0.0061464,0.02718,0.00017084,0.0011684,0.0060472,0.00084371,-0.00017931,0.0014152,0.006449,0.0011712
-0.00055619,0.0034447,0.014549,0.0055748,-0.0048284,-0.0069396,-0.01595,-0.046801,0.033456,-0.014085,0.0088645,-0.062932,-0.010992,0.005113,-0.017072,0.075514,0.00050352,0.0032516,0.016728,0.002264,-0.00049105,0.0038749,0.017917,0.0032333
-0.001302,0.0081032,0.03473,0.013065,-0.011607,-0.016009,-0.037643,-0.11106,0.07705,-0.034932,0.021376,-0.14833,-0.027873,0.012226,-0.040509,0.17954,0.0012583,0.0077375,0.039547,0.0051494,-0.0011457,0.0090614,0.042574,0.0076216
-0.0026527,0.016425,0.071591,0.026362,-0.024228,-0.03157,-0.076438,-0.22744,0.15163,-0.075395,0.044488,-0.30081,-0.061888,0.025107,-0.082814,0.36876,0.0026872,0.015877,0.080616,0.0099815,-0.0022918,0.018257,0.087308,0.015465
-0.0047479,0.028839,0.1282,0.046016,-0.044315,-0.053249,-0.13411,-0.40432,0.25512,-0.14284,0.080294,-0.52698,-0.12149,0.044407,-0.14653,0.65836,0.0049203,0.028228,0.14247,0.016483,-0.0039335,0.031859,0.15542,0.02712
-0.0075228,0.043943,0.20006,0.069552,-0.071604,-0.076326,-0.20332,-0.62588,0.36459,-0.23912,0.12579,-0.79704,-0.21253,0.06747,-0.22459,1.0254,0.0077092,0.043541,0.21875,0.022992,-0.0057543,0.048253,0.2408,0.041091
-0.010618,0.058029,0.27227,0.090722,-0.1031,-0.091238,-0.26497,-0.84423,0.43432,-0.35566,0.17048,-1.0336,-0.33348,0.087146,-0.297,1.3952,0.010235,0.058093,0.29152,0.026467,-0.0070302,0.063353,0.32466,0.053478
-0.013418,0.066094,0.32267,0.10115,-0.13377,-0.086704,-0.2929,-0.99134,0.41182,-0.47215,0.19807,-1.1288,-0.47183,0.093329,-0.33518,1.6571,0.011228,0.06649,0.3356,0.023661,-0.0067879,0.071786,0.37972,0.058897
-0.015236,0.064448,0.33229,0.094549,-0.15902,-0.056205,-0.26669,-1.0133,0.27051,-0.56181,0.19386,-0.99322,-0.60437,0.077972,-0.31535,1.716,0.0095346,0.06422,0.331,0.013244,-0.0042522,0.069713,0.38304,0.053098
-0.015565,0.053529,0.29802,0.071258,-0.17731,-0.004059,-0.18607,-0.90956,0.040627,-0.6018,0.15514,-0.6135,-0.70273,0.041497,-0.23473,1.5525,0.0049069,0.050816,0.277,-0.0024653,0.00060505,0.057768,0.33148,0.036012
-0.014258,0.038667,0.23814,0.039671,-0.19061,0.054421,-0.075958,-0.74724,-0.18879,-0.58277,0.097407,-0.076863,-0.7424,-0.0040275,-0.1189,1.248,-0.0015176,0.031302,0.19722,-0.017784,0.0067713,0.04174,0.24803,0.012937
-0.011564,0.027426,0.18384,0.012324,-0.2015,0.10112,0.025445,-0.62883,-0.31054,-0.51121,0.049272,0.46662,-0.71213,-0.039026,-0.011459,0.94338,-0.0075381,0.014169,0.12859,-0.026522,0.012452,0.029695,0.17124,-0.007747
-0.0080226,0.024753,0.15996,-0.0015181,-0.20882,0.12727,0.090053,-0.62817,-0.26354,-0.40316,0.0359,0.88678,-0.61974,-0.047334,0.050396,0.75124,-0.01096,0.0065211,0.098818,-0.025839,0.015856,0.026972,0.1319,-0.019436
-0.0043099,0.029418,0.16825,-0.0017007,-0.2063,0.14009,0.11841,-0.73846,-0.075655,-0.27491,0.060464,1.1434,-0.49259,-0.027425,0.058257,0.68298,-0.010727,0.0096186,0.10819,-0.01827,0.016109,0.032594,0.13311,-0.021407
-0.0010498,0.034862,0.18677,0.003207,-0.18672,0.15677,0.13772,-0.87615,0.15188,-0.13849,0.097842,1.2882,-0.37167,0.0046166,0.035808,0.65065,-0.0073147,0.018296,0.13021,-0.010122,0.013767,0.040065,0.14978,-0.018852
0.0013957,0.034295,0.18712,0.0025811,-0.1498,0.18872,0.1793,-0.94283,0.31273,-0.004843,0.10815,1.3958,-0.29963,0.02421,0.019645,0.544,-0.002167,0.024952,0.13205,-0.007211,0.010602,0.042187,0.14919,-0.018509
0.0031207,0.026156,0.15659,-0.008359,-0.10674,0.22847,0.25276,-0.89904,0.3658,0.11093,0.063148,1.4841,-0.30484,0.014445,0.032387,0.31958,0.0032435,0.025063,0.099106,-0.011192,0.0087112,0.036205,0.11665,-0.023355
0.0046987,0.015393,0.1072,-0.025578,-0.075534,0.25164,0.33843,-0.79002,0.35158,0.19033,-0.032848,1.4938,-0.38706,-0.02184,0.069269,0.027624,0.0079331,0.019784,0.044029,-0.019271,0.0093882,0.025245,0.065464,-0.030759
0.0068791,0.0092854,0.064407,-0.040258,-0.068022,0.23466,0.40412,-0.70246,0.34285,0.22097,-0.14338,1.347,-0.51267,-0.062985,0.10774,-0.24142,0.011242,0.013705,-0.0063017,-0.027184,0.012333,0.015139,0.023242,-0.035604
0.010017,0.011251,0.045595,-0.0461,-0.077889,0.17488,0.43178,-0.68933,0.37527,0.20817,-0.22174,1.033,-0.62506,-0.081884,0.12984,-0.43648,0.012485,0.010091,-0.033783,-0.03257,0.015696,0.0096133,0.007275,-0.035388
0.013607,0.017912,0.046795,-0.043728,-0.080933,0.095976,0.43049,-0.72714,0.42141,0.17782,-0.23804,0.64208,-0.66704,-0.062058,0.137,-0.5764,0.011086,0.0080569,-0.042032,-0.035825,0.017094,0.0079268,0.010565,-0.032555
0.016384,0.021957,0.048393,-0.038977,-0.050838,0.032746,0.42568,-0.74018,0.43149,0.16589,-0.19199,0.31501,-0.60335,-0.0052697,0.14545,-0.70729,0.0072498,0.0041435,-0.04939,-0.038182,0.015143,0.0065703,0.0099963,-0.031958
0.017103,0.018289,0.033537,-0.037305,0.019113,0.0065582,0.43528,-0.6673,0.39971,0.20021,-0.10508,0.1502,-0.43017,0.073079,0.16868,-0.83482,0.0024545,-0.0035201,-0.070324,-0.039486,0.010593,0.0029854,-0.012018,-0.036001
0.015525,0.0081445,0.0023389,-0.039593,0.10516,0.01121,0.45529,-0.5113,0.38721,0.28651,-0.0026013,0.14615,-0.16832,0.15491,0.20438,-0.90336,-0.00098243,-0.012725,-0.10296,-0.038178,0.0061149,-0.0022048,-0.052477,-0.042153
0.012809,-0.0022333,-0.030115,-0.042661,0.16397,0.020389,0.46685,-0.32995,0.47003,0.40681,0.097761,0.22203,0.15037,0.22733,0.23763,-0.84544,-0.0012843,-0.018887,-0.13311,-0.033477,0.0045982,-0.00618,-0.092195,-0.04523
0.010836,-0.0069339,-0.048717,-0.043253,0.16012,0.0099342,0.4565,-0.18213,0.65235,0.52962,0.18387,0.29003,0.48988,0.28269,0.25575,-0.65425,0.001438,-0.019279,-0.14914,-0.02722,0.0070123,-0.0067852,-0.11415,-0.04216
0.010836,-0.0049954,-0.0519,-0.041323,0.091011,-0.023901,0.42954,-0.080196,0.82559,0.62427,0.24128,0.31364,0.80568,0.31441,0.26001,-0.4085,0.0050512,-0.01557,-0.15255,-0.023008,0.011478,-0.0044786,-0.11821,-0.034698
0.012371,-0.00051768,-0.051958,-0.039758,-0.009807,-0.064555,0.40409,0.010847,0.8229,0.67162,0.25212,0.30862,1.0398,0.31534,0.26371,-0.22463,0.0068064,-0.012112,-0.15499,-0.023063,0.014506,-0.0017929,-0.11941,-0.027609
0.013603,0.0013209,-0.063094,-0.041305,-0.094143,-0.09162,0.39242,0.1329,0.53827,0.66802,0.20426,0.30139,1.1301,0.28172,0.27938,-0.18071,0.0053306,-0.011654,-0.16593,-0.025764,0.013629,-0.0011306,-0.13288,-0.024276
0.012764,-0.0014851,-0.088915,-0.045947,-0.12975,-0.09809,0.38808,0.29489,0.018811,0.62336,0.10155,0.29504,1.0365,0.21884,0.3077,-0.27989,0.0016334,-0.012773,-0.1837,-0.026579,0.0093279,-0.0030074,-0.16037,-0.023989
0.0097151,-0.0068293,-0.12036,-0.051058,-0.11728,-0.093746,0.37094,0.46936,-0.54789,0.5554,-0.03654,0.27522,0.7698,0.14157,0.33744,-0.47906,-0.001715,-0.011637,-0.19829,-0.021988,0.0045882,-0.0061113,-0.19014,-0.023326
0.0062641,-0.011134,-0.14472,-0.053785,-0.082085,-0.093485,0.32473,0.62351,-0.94962,0.48195,-0.18722,0.24131,0.39869,0.067626,0.35533,-0.74466,-0.0025591,-0.0063592,-0.20224,-0.013028,0.0024165,-0.0088011,-0.20888,-0.019919
0.0048343,-0.012731,-0.15665,-0.053175,-0.049712,-0.10263,0.25046,0.75013,-1.0856,0.41345,-0.33716,0.22115,0.025925,0.0082346,0.35614,-1.0768,-0.00061993,0.00050395,-0.19832,-0.0050655,0.0034668,-0.010574,-0.21341,-0.01476
0.006476,-0.012959,-0.16148,-0.05025,-0.025758,-0.11264,0.16381,0.86823,-1.023,0.34943,-0.48319,0.24742,-0.25502,-0.036077,0.34483,-1.4814,0.0027095,0.0040042,-0.19684,-0.0036361,0.0058393,-0.012328,-0.21172,-0.010897
0.0098339,-0.014431,-0.16909,-0.046458,0.0043501,-0.10989,0.080504,0.99551,-0.93489,0.28186,-0.62049,0.3174,-0.39601,-0.071372,0.33096,-1.927,0.0058129,0.0015388,-0.20553,-0.0097186,0.0070926,-0.015373,-0.21403,-0.01011
0.012013,-0.018498,-0.18477,-0.042326,0.058026,-0.088661,0.0047918,1.1229,-0.97009,0.20407,-0.73121,0.37958,-0.40263,-0.10205,0.32153,-2.3362,0.0080173,-0.0044245,-0.22215,-0.018534,0.0064702,-0.020077,-0.22338,-0.011104
0.010776,-0.024245,-0.20531,-0.037544,0.1371,-0.056178,-0.068027,1.2175,-1.1515,0.1191,-0.7874,0.36758,-0.31488,-0.12617,0.31833,-2.6234,0.0094243,-0.0085251,-0.23668,-0.023035,0.0052584,-0.025241,-0.23449,-0.011061
0.0063983,-0.029539,-0.22267,-0.032027,0.22395,-0.026497,-0.13849,1.2523,-1.3704,0.040893,-0.76893,0.25551,-0.17787,-0.13841,0.31972,-2.7423,0.0098982,-0.0076944,-0.24058,-0.019289,0.0051148,-0.028728,-0.24066,-0.0088368
0.0016995,-0.032741,-0.23104,-0.026561,0.29405,-0.0096337,-0.1934,1.2315,-1.4697,-0.013596,-0.68154,0.084968,-0.022105,-0.13723,0.32292,-2.6968,0.0086443,-0.0043692,-0.23412,-0.0093437,0.0061978,-0.029035,-0.24074,-0.0064091
0.00013836,-0.033463,-0.23101,-0.022282,0.33297,-0.0059082,-0.21065,1.1897,-1.3503,-0.035796,-0.55815,-0.063184,0.13907,-0.12909,0.32386,-2.5138,0.0050889,-0.0045002,-0.22522,0.00064261,0.0070024,-0.026669,-0.23961,-0.0068957
0.0033247,-0.03212,-0.22819,-0.019597,0.3434,-0.0092745,-0.1758,1.1622,-1.0258,-0.031746,-0.43984,-0.13083,0.30151,-0.12495,0.31599,-2.2121,0.00015105,-0.012064,-0.22148,0.0052823,0.005966,-0.02411,-0.24255,-0.011006
0.0097781,-0.02927,-0.22841,-0.017766,0.33806,-0.014922,-0.096395,1.1567,-0.6034,-0.018463,-0.35063,-0.12618,0.46341,-0.13197,0.29168,-1.8059,-0.0037032,-0.02518,-0.22345,0.003797,0.0031013,-0.024062,-0.24987,-0.015502
0.015874,-0.025632,-0.23397,-0.015641,0.32632,-0.02335,-0.001532,1.1491,-0.2171,-0.01344,-0.28579,-0.11265,0.62517,-0.14733,0.24714,-1.3337,-0.0041244,-0.037456,-0.22524,-5.8512e-005,-2.5383e-005,-0.027128,-0.25706,-0.015492
0.018306,-0.022486,-0.24331,-0.012844,0.30691,-0.03756,0.073747,1.1078,0.036838,-0.025243,-0.2222,-0.1537,0.7925,-0.1599,0.18752,-0.87145,-0.0009185,-0.043315,-0.2213,-0.00141,-0.0018578,-0.030942,-0.25968,-0.008731
0.016269,-0.021475,-0.25318,-0.010259,0.27237,-0.056949,0.10765,1.023,0.12905,-0.051459,-0.14094,-0.26091,0.97492,-0.15852,0.12658,-0.49927,0.0035034,-0.042399,-0.21261,0.002138,-0.0022586,-0.031837,-0.25756,0.0019409
0.011742,-0.023478,-0.26098,-0.0093977,0.22049,-0.074258,0.10078,0.91554,0.089774,-0.08397,-0.042904,-0.38738,1.1761,-0.14053,0.079384,-0.24525,0.0058731,-0.039213,-0.20622,0.0095052,-0.0023276,-0.028017,-0.25413,0.010417
0.0077418,-0.027506,-0.26558,-0.011226,0.16203,-0.078598,0.070199,0.81959,-0.017857,-0.11614,0.054179,-0.46839,1.3808,-0.1141,0.052366,-0.061712,0.0045691,-0.038686,-0.20903,0.017916,-0.0029539,-0.021566,-0.25227,0.012085
0.005973,-0.030962,-0.26691,-0.015379,0.11813,-0.061915,0.034308,0.75791,-0.12802,-0.14621,0.13259,-0.47279,1.55,-0.092907,0.03853,0.13465,0.00070351,-0.042034,-0.22161,0.025349,-0.0037743,-0.017335,-0.25122,0.0075759
0.0057941,-0.031455,-0.26538,-0.020179,0.10886,-0.023657,-6.083e-005,0.73026,-0.19761,-0.17521,0.18904,-0.42377,1.6317,-0.087497,0.022313,0.38921,-0.0030787,-0.046582,-0.2378,0.031501,-0.0036983,-0.019336,-0.24781,0.0023345
0.0052526,-0.028745,-0.26167,-0.023257,0.14131,0.029411,-0.040559,0.7231,-0.22117,-0.20241,0.2345,-0.37678,1.5859,-0.099465,-0.0087715,0.6712,-0.004911,-0.049219,-0.24982,0.036953,-0.0023997,-0.02754,-0.24035,0.0023456
0.0031654,-0.024972,-0.25677,-0.022445,0.20526,0.087023,-0.10177,0.72775,-0.22786,-0.22272,0.2813,-0.37808,1.41,-0.12183,-0.054374,0.91025,-0.0050775,-0.049705,-0.25422,0.041933,-0.0010651,-0.037746,-0.23097,0.0095358
0.00031477,-0.022773,-0.25158,-0.0168,0.27891,0.13946,-0.19311,0.74868,-0.25735,-0.22846,0.33101,-0.43838,1.1454,-0.14441,-0.10121,1.0751,-0.0054173,-0.050556,-0.25332,0.046147,-0.0014525,-0.044635,-0.22383,0.02059
-0.0013213,-0.022885,-0.24648,-0.0074974,0.34032,0.17952,-0.30994,0.79526,-0.32577,-0.21471,0.37463,-0.53763,0.86031,-0.15982,-0.13304,1.2159,-0.0075468,-0.05389,-0.25183,0.049736,-0.0041374,-0.045463,-0.22094,0.029999
-0.00054861,-0.023528,-0.24125,0.0021004,0.37743,0.20279,-0.43312,0.86644,-0.40548,-0.18411,0.40447,-0.64925,0.61618,-0.16635,-0.14333,1.4217,-0.011582,-0.058681,-0.25203,0.054081,-0.0077712,-0.041523,-0.22003,0.034611
0.0017527,-0.022298,-0.23569,0.0079018,0.39102,0.20747,-0.53775,0.94426,-0.4373,-0.1478,0.42526,-0.7595,0.4412,-0.16661,-0.14056,1.7249,-0.016334,-0.061399,-0.25181,0.061263,-0.010229,-0.036554,-0.21643,0.035843
0.003287,-0.018937,-0.23028,0.00775,0.39009,0.19456,-0.60622,1.0026,-0.37124,-0.1207,0.45279,-0.86806,0.32625,-0.16401,-0.14218,2.0428,-0.020511,-0.059511,-0.24672,0.072288,-0.010614,-0.033762,-0.20743,0.037843
0.0023766,-0.016256,-0.22619,0.0034905,0.38375,0.16757,-0.63816,1.0233,-0.20668,-0.11354,0.50005,-0.97532,0.24358,-0.15994,-0.16149,2.2194,-0.023666,-0.054358,-0.23363,0.085536,-0.010185,-0.033925,-0.19479,0.043496
-0.00050605,-0.018019,-0.22429,0.0003771,0.37488,0.13138,-0.6504,1.0062,-0.00023823,-0.12622,0.56345,-1.0717,0.17176,-0.15353,-0.19757,2.1422,-0.026136,-0.050418,-0.21299,0.096977,-0.011247,-0.035736,-0.18302,0.051956
-0.0031317,-0.025405,-0.22406,0.0035391,0.35933,0.090868,-0.66643,0.96424,0.16788,-0.14689,0.62296,-1.1383,0.1087,-0.14331,-0.2355,1.8383,-0.028277,-0.051423,-0.1883,0.10236,-0.015018,-0.037547,-0.17502,0.059834
-0.0034888,-0.035268,-0.22362,0.013926,0.33016,0.050398,-0.70161,0.91042,0.24566,-0.158,0.65822,-1.1563,0.067634,-0.12879,-0.25667,1.4641,-0.0299,-0.056855,-0.16377,0.099966,-0.020435,-0.038755,-0.16914,0.064677
-0.0015852,-0.042092,-0.22085,0.02719,0.28295,0.014213,-0.754,0.84772,0.24178,-0.14579,0.66747,-1.1157,0.064883,-0.11027,-0.25112,1.1926,-0.030425,-0.062122,-0.14191,0.091785,-0.024994,-0.039779,-0.16036,0.067247
0.0004704,-0.042264,-0.21493,0.036919,0.21838,-0.013589,-0.80672,0.77105,0.21589,-0.1077,0.67241,-1.0177,0.11194,-0.087301,-0.2236,1.0892,-0.029438,-0.062348,-0.12239,0.082269,-0.026833,-0.040995,-0.14454,0.070387
0.00010795,-0.037061,-0.20676,0.039907,0.14071,-0.030618,-0.8394,0.67805,0.23571,-0.053101,0.70253,-0.87338,0.21472,-0.057873,-0.18991,1.0738,-0.027007,-0.056468,-0.10236,0.075461,-0.026189,-0.041876,-0.12201,0.075652
-0.0037526,-0.031617,-0.19778,0.039037,0.054251,-0.038332,-0.83984,0.5782,0.33345,0.0022864,0.77027,-0.70222,0.3727,-0.019988,-0.16745,0.99322,-0.02351,-0.048067,-0.078227,0.072775,-0.025003,-0.041223,-0.097366,0.081178
-0.0099373,-0.030655,-0.18824,0.041068,-0.038336,-0.042229,-0.80757,0.49079,0.49149,0.044285,0.8576,-0.53068,0.57116,0.025009,-0.16678,0.73575,-0.019367,-0.042326,-0.047943,0.073022,-0.025124,-0.038269,-0.075883,0.083028
-0.015838,-0.034626,-0.17659,0.050906,-0.13461,-0.04856,-0.74847,0.43241,0.66312,0.065412,0.92591,-0.38834,0.77067,0.070292,-0.18906,0.29424,-0.015122,-0.041802,-0.01277,0.0744,-0.026738,-0.033634,-0.059737,0.078857
-0.019037,-0.039616,-0.16054,0.067125,-0.22937,-0.05941,-0.66673,0.40343,0.80851,0.065118,0.94259,-0.29984,0.90793,0.10533,-0.22876,-0.25992,-0.011765,-0.044567,0.023032,0.07649,-0.028315,-0.029207,-0.047169,0.070362
-0.018614,-0.041028,-0.13926,0.08257,-0.31351,-0.07037,-0.56198,0.38474,0.91822,0.046824,0.90322,-0.27627,0.91723,0.12142,-0.27805,-0.84982,-0.01065,-0.046047,0.054823,0.080407,-0.028006,-0.026992,-0.03482,0.062156
-0.015503,-0.037692,-0.11467,0.089663,-0.37661,-0.07366,-0.43366,0.34806,1.0092,0.015367,0.83174,-0.31158,0.76494,0.11729,-0.32949,-1.4388,-0.012617,-0.042768,0.080946,0.087067,-0.025242,-0.027807,-0.020777,0.058109
-0.011923,-0.032747,-0.090851,0.086063,-0.41128,-0.064836,-0.28767,0.27315,1.1011,-0.022906,0.75959,-0.38559,0.47419,0.10055,-0.37655,-2.0145,-0.016886,-0.034933,0.10416,0.095279,-0.02127,-0.030858,-0.0055674,0.058547
-0.010242,-0.030622,-0.071746,0.076135,-0.41596,-0.047579,-0.13848,0.16011,1.1928,-0.058288,0.70189,-0.46976,0.119,0.083356,-0.41347,-2.5431,-0.020908,-0.025991,0.12965,0.10162,-0.018327,-0.034442,0.0094264,0.060744
-0.011794,-0.03293,-0.058853,0.067283,-0.39423,-0.032111,-0.0040514,0.029087,1.2588,-0.077096,0.65062,-0.53068,-0.21205,0.075173,-0.43593,-2.9503,-0.021806,-0.019946,0.16089,0.10246,-0.018193,-0.037127,0.024196,0.061949
-0.01617,-0.037001,-0.05036,0.064402,-0.35198,-0.028235,0.1027,-0.091487,1.2648,-0.064668,0.58882,-0.53195,-0.45993,0.07762,-0.44245,-3.1564,-0.018577,-0.018731,0.19669,0.096496,-0.021161,-0.038452,0.040617,0.061903
-0.021435,-0.038295,-0.042285,0.06687,-0.29581,-0.038925,0.1789,-0.17986,1.1894,-0.011383,0.51094,-0.44014,-0.618,0.084688,-0.43545,-3.1305,-0.013211,-0.021526,0.23169,0.085821,-0.025961,-0.038705,0.060708,0.062578
-0.025275,-0.03449,-0.030831,0.070047,-0.23375,-0.059918,0.22982,-0.23066,1.0344,0.081585,0.4293,-0.23903,-0.72053,0.087536,-0.42132,-2.9154,-0.0094456,-0.026106,0.25976,0.074662,-0.03047,-0.038208,0.084338,0.06561
-0.026403,-0.027626,-0.01453,0.069465,-0.17627,-0.085174,0.26242,-0.25547,0.81646,0.20063,0.36027,0.05377,-0.8089,0.079962,-0.4092,-2.5982,-0.0098485,-0.030697,0.27736,0.066737,-0.032717,-0.0369,0.10862,0.070073
-0.025242,-0.022542,0.0050825,0.064161,-0.13436,-0.11251,0.28009,-0.27573,0.55435,0.32383,0.30336,0.38177,-0.90147,0.060988,-0.40873,-2.2576,-0.013564,-0.034726,0.28429,0.063162,-0.031717,-0.034584,0.12969,0.072717
-0.023346,-0.023037,0.024669,0.056885,-0.11423,-0.14376,0.28252,-0.31204,0.26555,0.42904,0.23459,0.66761,-0.98625,0.033962,-0.42661,-1.9331,-0.016755,-0.038109,0.28251,0.062177,-0.027935,-0.031461,0.14555,0.070503
-0.022063,-0.028959,0.041433,0.051739,-0.11232,-0.17944,0.26947,-0.37404,-0.021147,0.50179,0.12325,0.84937,-1.036,0.0042944,-0.46264,-1.6371,-0.015613,-0.040214,0.27502,0.060598,-0.023181,-0.028246,0.15745,0.063185
-0.021591,-0.036382,0.0551,0.05145,-0.11561,-0.21372,0.24431,-0.45461,-0.25435,0.53886,-0.040126,0.91384,-1.03,-0.021992,-0.50745,-1.3872,-0.0095583,-0.039923,0.26634,0.05585,-0.019827,-0.02563,0.16879,0.053696
-0.02125,-0.040396,0.068119,0.056052,-0.10871,-0.23552,0.21369,-0.53168,-0.37313,0.54578,-0.2288,0.90201,-0.96766,-0.03884,-0.54462,-1.2192,-0.0019677,-0.037035,0.26312,0.047324,-0.019534,-0.023656,0.18227,0.045933
-0.020594,-0.038179,0.08381,0.063206,-0.083612,-0.2356,0.18413,-0.57806,-0.34848,0.53008,-0.39285,0.87965,-0.86717,-0.041477,-0.55818,-1.1653,0.0022582,-0.033644,0.27262,0.036387,-0.022152,-0.021751,0.19753,0.04163
-0.020177,-0.030292,0.10373,0.069357,-0.045294,-0.2136,0.15849,-0.57539,-0.22516,0.49504,-0.49229,0.89202,-0.75786,-0.029288,-0.54186,-1.2165,0.00034948,-0.033771,0.2984,0.025189,-0.025681,-0.019507,0.21132,0.038837
-0.02107,-0.01986,0.12625,0.071077,-0.0088911,-0.17874,0.13535,-0.52447,-0.12115,0.43821,-0.52493,0.9352,-0.67106,-0.0084262,-0.50403,-1.2995,-0.0063658,-0.041027,0.33651,0.015067,-0.027597,-0.017395,0.2201,0.033361
-0.023526,-0.010733,0.14762,0.066426,0.0096503,-0.1436,0.11108,-0.44508,-0.16748,0.35634,-0.52692,0.96521,-0.63262,0.0090351,-0.46332,-1.2899,-0.013652,-0.056096,0.37619,0.0056299,-0.026736,-0.016517,0.22318,0.022272
-0.026151,-0.0058601,0.16458,0.056085,0.0029811,-0.11658,0.08258,-0.36534,-0.42109,0.25309,-0.5456,0.93644,-0.65497,0.010776,-0.43661,-1.0548,-0.017604,-0.076358,0.40581,-0.0047697,-0.024233,-0.017458,0.22376,0.0067977
-0.026649,-0.0063361,0.17655,0.04353,-0.024401,-0.099296,0.049341,-0.30786,-0.8155,0.14343,-0.60573,0.83774,-0.72961,-0.0080971,-0.42713,-0.50774,-0.017293,-0.098061,0.42042,-0.017384,-0.0226,-0.019354,0.22689,-0.0079032
-0.023669,-0.01102,0.18556,0.033532,-0.060442,-0.089904,0.014609,-0.28202,-1.1934,0.050066,-0.69482,0.6973,-0.82581,-0.040862,-0.42197,0.34466,-0.014924,-0.11895,0.42469,-0.031543,-0.023587,-0.020306,0.23567,-0.016311
-0.018119,-0.016778,0.19422,0.02935,-0.093429,-0.087913,-0.014192,-0.28602,-1.4033,-0.0071792,-0.77684,0.55468,-0.901,-0.072339,-0.40139,1.3825,-0.013726,-0.13863,0.42886,-0.044727,-0.026697,-0.01894,0.24877,-0.016874
-0.012621,-0.019674,0.20359,0.030361,-0.11771,-0.095128,-0.026882,-0.31381,-1.3917,-0.022154,-0.82119,0.42591,-0.92084,-0.088022,-0.35405,2.397,-0.015523,-0.15639,0.44091,-0.054504,-0.02977,-0.01572,0.26107,-0.013593
-0.0094742,-0.017077,0.21285,0.032098,-0.134,-0.11193,-0.015108,-0.35892,-1.2222,-0.005759,-0.82339,0.29264,-0.87821,-0.083243,-0.28657,3.1654,-0.019776,-0.16902,0.4611,-0.060861,-0.031149,-0.012678,0.26719,-0.013328
-0.0089672,-0.0096139,0.22076,0.029127,-0.14559,-0.13296,0.020958,-0.41209,-1.018,0.020887,-0.80313,0.12376,-0.7987,-0.066197,-0.22036,3.5512,-0.024428,-0.17177,0.48345,-0.066718,-0.031386,-0.011805,0.26513,-0.020783
-0.0095583,-0.0013205,0.22731,0.018932,-0.15419,-0.14699,0.068341,-0.45711,-0.87652,0.038798,-0.78468,-0.091003,-0.72837,-0.05312,-0.17768,3.5764,-0.02744,-0.16243,0.50207,-0.075768,-0.032753,-0.013671,0.25707,-0.035112
-0.0096391,0.0027746,0.23379,0.0039169,-0.15858,-0.14186,0.1044,-0.47272,-0.82509,0.040398,-0.77819,-0.32611,-0.71092,-0.059219,-0.16721,3.4122,-0.027782,-0.14463,0.51679,-0.089221,-0.036912,-0.01763,0.24728,-0.050797
-0.0090262,0.00035006,0.2413,-0.010173,-0.15639,-0.11103,0.10777,-0.4426,-0.83767,0.029904,-0.77695,-0.53676,-0.76718,-0.091184,-0.17939,3.2802,-0.025481,-0.12665,0.53295,-0.10428,-0.042937,-0.023227,0.23882,-0.061934
-0.0086822,-0.0060346,0.24924,-0.018407,-0.14689,-0.057237,0.070824,-0.36717,-0.87968,0.016206,-0.7706,-0.69183,-0.88651,-0.14486,-0.19419,3.3196,-0.021219,-0.11552,0.55567,-0.1159,-0.047648,-0.031087,0.23195,-0.066386
-0.0090987,-0.010397,0.25529,-0.020364,-0.13261,0.0087304,0.0044237,-0.26711,-0.93224,0.0052381,-0.76047,-0.79381,-1.0306,-0.2076,-0.19466,3.5089,-0.016025,-0.1114,0.58344,-0.1205,-0.048147,-0.042064,0.225,-0.066702
-0.009259,-0.0077225,0.25731,-0.020549,-0.11895,0.072398,-0.069132,-0.17391,-0.97947,-0.0018103,-0.76245,-0.86907,-1.1455,-0.26244,-0.17611,3.6944,-0.011086,-0.10746,0.60652,-0.11852,-0.044332,-0.055415,0.21652,-0.067564
-0.007484,0.0020521,0.25529,-0.025134,-0.11188,0.12044,-0.13023,-0.11285,-0.98589,-0.0042141,-0.7939,-0.93848,-1.1758,-0.29199,-0.14513,3.7033,-0.0074295,-0.096066,0.61169,-0.11378,-0.039169,-0.068087,0.2065,-0.072219
-0.0033497,0.013804,0.25167,-0.037341,-0.1147,0.14427,-0.17241,-0.089684,-0.90071,0.002795,-0.85574,-0.99525,-1.0808,-0.28226,-0.11108,3.4595,-0.0054091,-0.076036,0.59022,-0.11017,-0.036423,-0.07635,0.19594,-0.08065
0.001471,0.021086,0.24941,-0.05487,-0.12493,0.14226,-0.20173,-0.089465,-0.69475,0.026452,-0.92505,-1.0098,-0.84955,-0.22727,-0.077937,3.0221,-0.0043895,-0.054385,0.54352,-0.10889,-0.037757,-0.078618,0.18549,-0.09038
0.0045923,0.02096,0.24946,-0.071293,-0.13326,0.12036,-0.22698,-0.086843,-0.39765,0.068261,-0.96607,-0.95823,-0.50947,-0.1336,-0.043089,2.5305,-0.0030248,-0.040703,0.48276,-0.10824,-0.041531,-0.076835,0.17472,-0.098668
0.005282,0.015817,0.24971,-0.080499,-0.12643,0.090318,-0.25021,-0.05972,-0.096703,0.11572,-0.95286,-0.85029,-0.12254,-0.021712,-0.0027372,2.1082,-8.4026e-005,-0.038874,0.42288,-0.1061,-0.044202,-0.074877,0.16278,-0.10421
0.0053451,0.010859,0.24656,-0.080995,-0.093736,0.065011,-0.26567,0.0026134,0.10884,0.14246,-0.88778,-0.73438,0.2371,0.079588,0.041861,1.7998,0.0047171,-0.043398,0.37472,-0.10229,-0.043071,-0.075228,0.14964,-0.10734
0.0074162,0.0096604,0.23774,-0.07689,-0.034012,0.052996,-0.26681,0.10023,0.16553,0.11957,-0.80204,-0.67342,0.51696,0.14489,0.083551,1.5764,0.010434,-0.043548,0.34011,-0.098931,-0.038223,-0.076876,0.13659,-0.10899
0.01221,0.011709,0.22423,-0.074794,0.042522,0.055757,-0.25395,0.2291,0.092697,0.031918,-0.73741,-0.70811,0.71469,0.16458,0.11485,1.3898,0.015265,-0.031794,0.31242,-0.09858,-0.032234,-0.076358,0.12539,-0.10959
0.017469,0.013739,0.20956,-0.078852,0.12011,0.070202,-0.23582,0.38723,-0.038269,-0.11199,-0.72111,-0.83218,0.88204,0.14973,0.13514,1.2234,0.017266,-0.0094166,0.28168,-0.10216,-0.027993,-0.070953,0.11671,-0.10873
0.019761,0.013199,0.19716,-0.087695,0.18764,0.094685,-0.22466,0.57572,-0.15191,-0.28409,-0.75035,-0.99617,1.096,0.12504,0.15318,1.1006,0.015068,0.015021,0.24059,-0.10848,-0.026358,-0.061066,0.10932,-0.10583
0.017505,0.010495,0.18806,-0.095657,0.24519,0.1332,-0.23048,0.79363,-0.20739,-0.45248,-0.7958,-1.1369,1.4091,0.11329,0.18238,1.0557,0.0085226,0.03248,0.18792,-0.11539,-0.025454,-0.049725,0.10072,-0.1013
0.012364,0.0081841,0.18059,-0.097371,0.30079,0.19321,-0.25891,1.0299,-0.20557,-0.59752,-0.82012,-1.2133,1.8072,0.12155,0.23215,1.0956,-0.00078265,0.039685,0.12784,-0.12095,-0.022193,-0.039869,0.088884,-0.097056
0.0077934,0.0082938,0.17238,-0.092066,0.36006,0.2778,-0.31145,1.2588,-0.16969,-0.71702,-0.7985,-1.2246,2.2012,0.13846,0.30157,1.182,-0.0094589,0.040272,0.066923,-0.12356,-0.014879,-0.032072,0.073739,-0.095749
0.0062164,0.010479,0.16247,-0.08411,0.41801,0.37831,-0.38433,1.4439,-0.1218,-0.81787,-0.72839,-1.2005,2.4637,0.14424,0.37959,1.243,-0.013249,0.041179,0.011188,-0.12153,-0.0048059,-0.02466,0.057114,-0.099033
0.0074577,0.012615,0.15195,-0.079433,0.46147,0.47416,-0.46513,1.552,-0.071969,-0.90178,-0.62468,-1.1695,2.4895,0.12557,0.45113,1.2019,-0.0089907,0.048263,-0.03532,-0.11328,0.0045673,-0.015738,0.041348,-0.10609
0.0095982,0.012944,0.1426,-0.080869,0.48094,0.54093,-0.53165,1.5698,-0.021404,-0.95736,-0.50664,-1.1308,2.2472,0.084363,0.50431,1.0064,0.0033629,0.064674,-0.070903,-0.098849,0.010375,-0.0048851,0.027759,-0.11373
0.011024,0.011587,0.13493,-0.086315,0.48108,0.56149,-0.55843,1.5115,0.030702,-0.96523,-0.38683,-1.0501,1.7946,0.034576,0.53452,0.64692,0.020262,0.092118,-0.096496,-0.081056,0.012797,0.0070583,0.016331,-0.11827
0.011546,0.010097,0.12747,-0.091011,0.47931,0.53251,-0.52946,1.4104,0.084869,-0.91209,-0.26843,-0.88261,1.2513,-0.0087531,0.54357,0.15766,0.036458,0.13233,-0.11589,-0.064739,0.015024,0.019462,0.0066914,-0.11776
0.011779,0.0097576,0.11799,-0.091671,0.49238,0.46303,-0.4487,1.2991,0.1435,-0.8026,-0.14959,-0.60899,0.74904,-0.038925,0.53609,-0.39893,0.048333,0.18643,-0.13486,-0.053781,0.020585,0.03268,-0.00078934,-0.11301
0.011878,0.0104,0.10536,-0.088758,0.52186,0.36788,-0.33943,1.1918,0.21206,-0.65922,-0.029089,-0.25788,0.38471,-0.058571,0.51654,-0.95851,0.05631,0.25236,-0.15872,-0.048202,0.030269,0.047105,-0.0050855,-0.10659
0.011214,0.010803,0.090589,-0.085167,0.55112,0.26166,-0.23153,1.0822,0.2962,-0.50997,0.091388,0.10012,0.19374,-0.073375,0.48851,-1.4768,0.064382,0.3231,-0.18946,-0.044005,0.041377,0.061639,-0.005822,-0.10089
0.0092844,0.010114,0.076099,-0.082984,0.55645,0.15634,-0.14541,0.95786,0.3968,-0.37312,0.20796,0.38415,0.1468,-0.085519,0.45615,-1.9328,0.076928,0.38784,-0.22481,-0.036288,0.050018,0.073643,-0.0044848,-0.096828
0.0066632,0.0087744,0.063985,-0.081569,0.52285,0.06082,-0.083996,0.81646,0.5072,-0.25064,0.31493,0.54204,0.16703,-0.092675,0.42533,-2.3116,0.095169,0.43663,-0.2602,-0.023135,0.054422,0.080997,-0.0041453,-0.094062
0.0047719,0.0080645,0.054763,-0.078673,0.45189,-0.020394,-0.037223,0.67068,0.61395,-0.13479,0.40333,0.57485,0.16268,-0.092193,0.40284,-2.5856,0.11599,0.46603,-0.29245,-0.0069289,0.056297,0.084502,-0.0076485,-0.091997
0.0046163,0.0087627,0.047546,-0.07321,0.35712,-0.089985,0.0063363,0.53688,0.69982,-0.022054,0.46038,0.53323,0.067364,-0.085195,0.3937,-2.7164,0.13409,0.48261,-0.32232,0.0080198,0.059079,0.088073,-0.015669,-0.090358
0.0058398,0.010277,0.041254,-0.066716,0.25346,-0.15863,0.050521,0.41922,0.74748,0.077455,0.474,0.48732,-0.12784,-0.076056,0.39832,-2.6835,0.14575,0.50191,-0.35414,0.019227,0.064829,0.096092,-0.026203,-0.088824
0.007131,0.011115,0.035595,-0.061982,0.15064,-0.24051,0.091205,0.30416,0.74478,0.14354,0.44232,0.48627,-0.37026,-0.068025,0.41215,-2.5181,0.15141,0.54209,-0.39299,0.02757,0.072689,0.11004,-0.035843,-0.086378
0.0075689,0.010259,0.03094,-0.060202,0.055182,-0.34429,0.12248,0.17059,0.69208,0.16037,0.38183,0.53067,-0.5777,-0.059813,0.42832,-2.3068,0.15499,0.61485,-0.44153,0.03522,0.080193,0.12747,-0.041727,-0.081321
0.0074862,0.0081708,0.027348,-0.059591,-0.024146,-0.46523,0.14275,0.0067267,0.60798,0.13076,0.3258,0.5751,-0.69089,-0.046964,0.4419,-2.1508,0.16065,0.71751,-0.49824,0.042192,0.085997,0.14426,-0.042755,-0.072087
0.0079612,0.006475,0.023848,-0.057002,-0.075202,-0.5846,0.15594,-0.18087,0.52631,0.078538,0.31068,0.56012,-0.7118,-0.026951,0.45225,-2.106,0.16918,0.8311,-0.55727,0.045247,0.091331,0.15817,-0.039467,-0.058134
0.009522,0.0066027,0.018778,-0.051113,-0.088533,-0.67823,0.1681,-0.37289,0.48097,0.035733,0.35729,0.4533,-0.69888,-0.0031304,0.46161,-2.1482,0.1771,0.92634,-0.60952,0.040625,0.098869,0.17048,-0.033144,-0.040169
0.011478,0.0086117,0.010954,-0.044094,-0.065498,-0.7294,0.18357,-0.55135,0.48564,0.02275,0.45919,0.27233,-0.72183,0.016309,0.47095,-2.1941,0.17881,0.97516,-0.64438,0.028158,0.11019,0.18423,-0.025058,-0.019718
0.012602,0.011182,0.00063748,-0.039918,-0.020539,-0.73801,0.20401,-0.71005,0.52378,0.035723,0.58604,0.076568,-0.8101,0.023699,0.4764,-2.1628,0.1705,0.96184,-0.65252,0.0126,0.12416,0.20082,-0.016301,0.0013564
0.012439,0.012686,-0.010521,-0.040661,0.025598,-0.72006,0.23022,-0.85412,0.56056,0.050525,0.69986,-0.064126,-0.93513,0.017108,0.46979,-2.0306,0.15257,0.88784,-0.62939,0.00035266,0.13758,0.21787,-0.0079837,0.021054
0.011842,0.012288,-0.020461,-0.044132,0.057039,-0.69786,0.26396,-0.99182,0.57103,0.041108,0.77334,-0.10096,-1.039,0.0014885,0.44331,-1.8423,0.12887,0.76837,-0.57803,-0.0057999,0.14725,0.23024,-0.0013036,0.037451
0.012156,0.010199,-0.027761,-0.045159,0.069959,-0.68726,0.30732,-1.1274,0.56269,-0.00089124,0.79926,-0.020857,-1.0832,-0.014392,0.39516,-1.6736,0.10343,0.62382,-0.50912,-0.0091247,0.15173,0.23303,0.0026933,0.049302
0.013869,0.0071497,-0.03203,-0.039633,0.070577,-0.68993,0.36004,-1.2606,0.57092,-0.059686,0.78739,0.15658,-1.0765,-0.022045,0.33201,-1.5812,0.077448,0.47176,-0.43752,-0.016067,0.15171,0.22447,0.0034719,0.056711
0.016094,0.0039316,-0.033577,-0.027935,0.066049,-0.69509,0.41712,-1.3913,0.62665,-0.10695,0.75335,0.3905,-1.0573,-0.015219,0.26624,-1.5751,0.049096,0.32385,-0.37667,-0.030428,0.14906,0.20661,0.0011651,0.061021
0.017334,0.0015149,-0.032954,-0.014848,0.055564,-0.68874,0.46945,-1.5231,0.72087,-0.12292,0.70801,0.63194,-1.0492,0.010616,0.20981,-1.6245,0.01626,0.18729,-0.33403,-0.049784,0.14548,0.18392,-0.0035995,0.063537
0.016747,0.0012867,-0.030866,-0.0060101,0.028349,-0.66346,0.50779,-1.6625,0.7972,-0.11097,0.65325,0.83896,-1.0279,0.059002,0.1686,-1.6819,-0.020508,0.068016,-0.3101,-0.067393,0.14142,0.16096,-0.010075,0.064034
0.0147,0.0045735,-0.028403,-0.0038174,-0.030029,-0.62212,0.52781,-1.8151,0.78325,-0.094489,0.58473,0.9929,-0.9301,0.13124,0.14072,-1.7017,-0.05759,-0.028279,-0.30101,-0.077817,0.13558,0.14064,-0.017709,0.060722
0.01228,0.011401,-0.027072,-0.0060408,-0.12749,-0.5734,0.53266,-1.983,0.63979,-0.098311,0.4979,1.1062,-0.70113,0.22336,0.11936,-1.6489,-0.090832,-0.098103,-0.30232,-0.08115,0.12547,0.12349,-0.026185,0.052271
0.010439,0.019625,-0.028222,-0.0080702,-0.25817,-0.52358,0.53114,-2.1656,0.39085,-0.12866,0.39296,1.2098,-0.34489,0.32392,0.097844,-1.5037,-0.11847,-0.14353,-0.31092,-0.0821,0.10918,0.10813,-0.035181,0.040364
0.0096285,0.025678,-0.032094,-0.0067737,-0.40282,-0.47134,0.5323,-2.3603,0.11193,-0.16668,0.27565,1.3235,0.061541,0.41553,0.073672,-1.2705,-0.14154,-0.17386,-0.32397,-0.084989,0.087368,0.092358,-0.044064,0.03012
0.0099967,0.026818,-0.037306,-0.0028156,-0.53679,-0.40953,0.54018,-2.5616,-0.11393,-0.18025,0.15407,1.4293,0.39986,0.48042,0.048978,-0.98661,-0.16144,-0.20352,-0.33664,-0.089369,0.064092,0.074542,-0.051878,0.027107
0.011582,0.023153,-0.04145,0.00028511,-0.64135,-0.3318,0.55222,-2.7577,-0.23927,-0.14536,0.033735,1.4732,0.56756,0.50754,0.02785,-0.71772,-0.17723,-0.24646,-0.34122,-0.090245,0.045015,0.054615,-0.057789,0.032836
0.014076,0.017642,-0.042669,-0.00062969,-0.71183,-0.23813,0.56236,-2.9288,-0.26608,-0.061841,-0.08597,1.3981,0.5238,0.49686,0.012723,-0.53508,-0.18566,-0.30972,-0.32956,-0.082585,0.033868,0.034246,-0.061738,0.042614
0.016485,0.013914,-0.041091,-0.0055805,-0.75836,-0.13455,0.566,-3.0516,-0.22743,0.046587,-0.2116,1.1816,0.29929,0.45798,0.0025878,-0.48303,-0.18418,-0.38966,-0.29745,-0.065994,0.029743,0.015934,-0.064733,0.048226
0.017337,0.013703,-0.038856,-0.011303,-0.79882,-0.028173,0.56271,-3.1093,-0.15765,0.14655,-0.3514,0.8487,-0.028408,0.40379,-0.0058081,-0.55434,-0.17411,-0.47319,-0.24791,-0.045549,0.027681,0.0014927,-0.068315,0.043933
0.015571,0.015995,-0.038495,-0.013718,-0.8486,0.077614,0.55467,-3.0999,-0.075008,0.21276,-0.50923,0.45061,-0.37316,0.34345,-0.014892,-0.68676,-0.16068,-0.544,-0.19073,-0.028316,0.022403,-0.0090957,-0.073432,0.031063
0.011459,0.018384,-0.040852,-0.010987,-0.91322,0.18289,0.54259,-3.0377,0.014995,0.23778,-0.68004,0.034292,-0.66951,0.27927,-0.023819,-0.78208,-0.1498,-0.59028,-0.13819,-0.018763,0.012233,-0.017619,-0.079587,0.017264
0.0066803,0.019189,-0.044335,-0.0047923,-0.98793,0.28624,0.52336,-2.9452,0.10656,0.22959,-0.8493,-0.36754,-0.88317,0.20911,-0.028541,-0.73902,-0.14413,-0.60988,-0.099386,-0.016802,-6.267e-005,-0.026357,-0.085127,0.010791
0.0033734,0.018436,-0.046271,0.00096933,-1.0633,0.37966,0.49231,-2.8426,0.18645,0.20205,-0.99682,-0.72051,-1.0067,0.13182,-0.024347,-0.48707,-0.14217,-0.6099,-0.076705,-0.01949,-0.010171,-0.03657,-0.088599,0.014387
0.0028377,0.017162,-0.045291,0.0029748,-1.132,0.44796,0.44837,-2.7406,0.23948,0.16668,-1.1029,-0.97166,-1.0501,0.050733,-0.0089525,-0.0089002,-0.14072,-0.60096,-0.066062,-0.02418,-0.016247,-0.047989,-0.090062,0.023624
0.0048248,0.016087,-0.042602,0.00063966,-1.1925,0.47363,0.3972,-2.6402,0.25981,0.13097,-1.1541,-1.0595,-1.032,-0.02749,0.016138,0.65804,-0.13828,-0.59028,-0.060114,-0.030075,-0.020487,-0.059687,-0.091059,0.030731
0.007821,0.015133,-0.040949,-0.0037368,-1.2477,0.444,0.34885,-2.5373,0.25657,0.10107,-1.1477,-0.95104,-0.97218,-0.097458,0.04698,1.4424,-0.13614,-0.57779,-0.051982,-0.037198,-0.02695,-0.071414,-0.093071,0.030435
0.010003,0.014107,-0.042173,-0.006696,-1.2995,0.35636,0.31097,-2.4271,0.24807,0.083152,-1.0915,-0.67441,-0.88581,-0.15877,0.080225,2.2722,-0.13634,-0.55775,-0.03738,-0.044485,-0.037672,-0.083958,-0.095783,0.023093
0.010212,0.013545,-0.045645,-0.0058446,-1.346,0.21939,0.28348,-2.307,0.24922,0.079959,-1.0025,-0.31552,-0.78034,-0.2157,0.11555,3.0994,-0.13874,-0.52427,-0.014723,-0.049459,-0.050618,-0.098064,-0.096924,0.013175
0.0084716,0.01456,-0.049075,-0.0011186,-1.3797,0.051639,0.25939,-2.1779,0.26162,0.08578,-0.89984,0.023905,-0.65701,-0.27321,0.15561,3.9001,-0.14019,-0.47648,0.015724,-0.050062,-0.061295,-0.11297,-0.094142,0.0052401
0.0058823,0.017623,-0.050888,0.005501,-1.391,-0.12152,0.23176,-2.043,0.27327,0.086157,-0.79889,0.27543,-0.51654,-0.33278,0.2035,4.6505,-0.13655,-0.41985,0.05242,-0.046784,-0.066578,-0.12621,-0.087382,0.0011437
0.0039902,0.021493,-0.05181,0.011355,-1.372,-0.27218,0.2007,-1.9074,0.26698,0.065499,-0.70603,0.42497,-0.36496,-0.39106,0.25964,5.3031,-0.12588,-0.36305,0.092499,-0.042659,-0.067311,-0.13505,-0.079427,0.00031921
0.0038797,0.023547,-0.054054,0.014584,-1.3205,-0.37596,0.17406,-1.7745,0.23092,0.01813,-0.61986,0.49699,-0.21545,-0.44179,0.32053,5.7891,-0.10965,-0.31316,0.13172,-0.040701,-0.06737,-0.13833,-0.073735,0.0018245
0.0054431,0.021559,-0.058862,0.01494,-1.2415,-0.41905,0.16042,-1.6432,0.16464,-0.046212,-0.53714,0.52286,-0.085048,-0.47897,0.38029,6.0511,-0.091091,-0.27275,0.16519,-0.040939,-0.070036,-0.13682,-0.071228,0.0055094
0.0073149,0.015578,-0.064846,0.013712,-1.145,-0.40324,0.16012,-1.5073,0.078509,-0.10796,-0.45877,0.5201,0.011898,-0.49863,0.43361,6.0818,-0.072223,-0.24056,0.18905,-0.039836,-0.074939,-0.13178,-0.069014,0.011214
0.0076395,0.0082588,-0.068848,0.013015,-1.041,-0.34541,0.16209,-1.3588,-0.010611,-0.15084,-0.38992,0.49073,0.070099,-0.49883,0.47763,5.9345,-0.052228,-0.2147,0.20226,-0.0329,-0.078304,-0.12346,-0.062579,0.017385
0.0052466,0.0032019,-0.068591,0.014855,-0.93433,-0.27037,0.15005,-1.1923,-0.083178,-0.17227,-0.33336,0.42703,0.097092,-0.47855,0.51139,5.6934,-0.028678,-0.19546,0.20739,-0.018414,-0.076216,-0.11122,-0.049879,0.021218
0.00042707,0.0024942,-0.064641,0.020337,-0.82258,-0.20041,0.11375,-1.0092,-0.11928,-0.18281,-0.28204,0.31306,0.11228,-0.43709,0.53396,5.4258,-0.00055141,-0.18555,0.20927,0.00085035,-0.067965,-0.095431,-0.033797,0.020662
-0.0052521,0.0053612,-0.059815,0.029256,-0.6993,-0.14728,0.056566,-0.81723,-0.10193,-0.19536,-0.21892,0.12589,0.14001,-0.37438,0.54331,5.1547,0.029568,-0.18769,0.21189,0.0194,-0.05655,-0.078857,-0.020568,0.016361
-0.0099257,0.0089596,-0.056582,0.040162,-0.5615,-0.11122,-0.0064403,-0.62724,-0.023961,-0.21351,-0.12676,-0.15031,0.19796,-0.29197,0.53723,4.8675,0.056075,-0.20134,0.21502,0.032827,-0.046119,-0.06574,-0.015191,0.011331
-0.012435,0.01062,-0.054871,0.05084,-0.41535,-0.086417,-0.058276,-0.44831,0.1034,-0.22866,-0.0012423,-0.49572,0.28627,-0.1936,0.51538,4.5461,0.073463,-0.22115,0.21314,0.040577,-0.038811,-0.058795,-0.01757,0.0084092
-0.012657,0.0097239,-0.052267,0.059022,-0.27503,-0.067774,-0.089663,-0.28469,0.24757,-0.22782,0.14311,-0.83282,0.38506,-0.085218,0.4802,4.1876,0.079739,-0.23851,0.19809,0.045578,-0.033806,-0.056876,-0.022598,0.0079329
-0.01111,0.0078118,-0.046342,0.063131,-0.15439,-0.053254,-0.10161,-0.13495,0.36397,-0.20544,0.27946,-1.0388,0.46386,0.025782,0.43566,3.798,0.077646,-0.24554,0.16424,0.051269,-0.029081,-0.055653,-0.024101,0.0080921
-0.0083721,0.0070177,-0.03698,0.062855,-0.057089,-0.040737,-0.10052,0.0063699,0.4166,-0.16949,0.3828,-1.0002,0.49713,0.1311,0.38425,3.3757,0.072875,-0.23889,0.11269,0.058588,-0.023842,-0.050963,-0.019314,0.0077074
-0.0049113,0.0082636,-0.026676,0.059337,0.026419,-0.023745,-0.091905,0.14491,0.39813,-0.13746,0.44116,-0.6815,0.4749,0.22157,0.32466,2.9099,0.070681,-0.22047,0.05107,0.06529,-0.019166,-0.041924,-0.010229,0.008507
-0.0013754,0.01067,-0.018685,0.054796,0.11178,0.0082778,-0.078657,0.28168,0.33501,-0.12575,0.45737,-0.16058,0.40174,0.28694,0.25161,2.3966,0.0734,-0.19419,-0.011278,0.067924,-0.016372,-0.031087,-0.0010137,0.014185
0.0011593,0.012487,-0.014719,0.051599,0.20849,0.063851,-0.064146,0.40991,0.27193,-0.14005,0.44349,0.39941,0.28969,0.31673,0.15827,1.8558,0.080458,-0.16082,-0.069178,0.064735,-0.01497,-0.021609,0.0059564,0.026688
0.0014991,0.01259,-0.014027,0.051144,0.31204,0.14252,-0.054476,0.51639,0.24514,-0.17283,0.41491,0.83102,0.15691,0.30319,0.040021,1.3209,0.090387,-0.11527,-0.12385,0.057187,-0.012463,-0.014149,0.011883,0.043224
-0.00084101,0.011231,-0.014316,0.053228,0.40701,0.23389,-0.055011,0.58828,0.26294,-0.20813,0.38813,1.0459,0.036122,0.24583,-0.10214,0.80442,0.10285,-0.049062,-0.17998,0.049096,-0.0064003,-0.0062755,0.019771,0.057218
-0.0049974,0.0095484,-0.013419,0.05637,0.47852,0.32445,-0.063053,0.62197,0.30613,-0.23012,0.37939,1.0677,-0.018866,0.15495,-0.26052,0.27211,0.11894,0.042876,-0.24053,0.044204,0.0031835,0.0052031,0.031006,0.062908
-0.0090725,0.0084348,-0.010291,0.05895,0.52308,0.40683,-0.064509,0.62802,0.34572,-0.23033,0.40006,0.99505,0.053703,0.050771,-0.42302,-0.34266,0.13976,0.15606,-0.30398,0.044026,0.013314,0.021216,0.04361,0.059732
-0.011425,0.0078256,-0.0049151,0.060362,0.55066,0.4834,-0.040591,0.62807,0.36229,-0.21106,0.44969,0.9242,0.28787,-0.042759,-0.5783,-1.0864,0.16485,0.27629,-0.36584,0.047488,0.020239,0.039365,0.053838,0.052641
-0.011967,0.0070044,0.0022642,0.061318,0.57769,0.56146,0.018364,0.64463,0.35254,-0.18413,0.51382,0.88644,0.65429,-0.10709,-0.72116,-1.9362,0.1921,0.38681,-0.42223,0.052482,0.022441,0.055589,0.059626,0.047965
-0.012222,0.0055427,0.010563,0.063037,0.61745,0.64471,0.10273,0.68992,0.32182,-0.16549,0.57225,0.84293,1.057,-0.13585,-0.85423,-2.799,0.21927,0.47847,-0.47123,0.058087,0.021928,0.06697,0.062596,0.048337
-0.013862,0.0039381,0.018917,0.06599,0.67503,0.72864,0.18635,0.76106,0.27351,-0.16725,0.61414,0.73475,1.3754,-0.13519,-0.98382,-3.5675,0.24561,0.55562,-0.51111,0.065684,0.022698,0.07331,0.066681,0.050845
-0.016886,0.0033191,0.026022,0.069247,0.74808,0.80305,0.24128,0.84391,0.20753,-0.19017,0.64846,0.54515,1.5259,-0.11747,-1.1119,-4.1898,0.27192,0.63316,-0.53821,0.077858,0.027645,0.076421,0.074598,0.049725
-0.019239,0.0044507,0.031147,0.071032,0.82984,0.85795,0.25325,0.92234,0.12887,-0.22073,0.69973,0.32413,1.5003,-0.092826,-1.2302,-4.697,0.29867,0.72626,-0.54822,0.095631,0.03644,0.078072,0.085438,0.041166
-0.01851,0.0069449,0.034997,0.070088,0.91065,0.88673,0.22675,0.98631,0.055219,-0.23614,0.79118,0.15676,1.3526,-0.064194,-1.3223,-5.1656,0.32364,0.83992,-0.5406,0.11607,0.045931,0.078505,0.095669,0.026436
-0.014356,0.0094374,0.039532,0.066717,0.97863,0.8848,0.17802,1.0341,0.012264,-0.21605,0.9281,0.10155,1.1506,-0.028661,-1.3723,-5.6463,0.34134,0.96527,-0.52178,0.13247,0.05255,0.076703,0.10257,0.01127
-0.0093039,0.010649,0.046355,0.062578,1.0226,0.84719,0.12455,1.0694,0.016622,-0.15478,1.0946,0.14774,0.93597,0.016951,-1.3741,-6.1157,0.34497,1.0839,-0.50293,0.13771,0.054687,0.071973,0.10681,0.0024412
-0.0068933,0.01042,0.054866,0.059315,1.0379,0.76946,0.080766,1.0968,0.059782,-0.066021,1.2653,0.22387,0.72466,0.071448,-1.3338,-6.487,0.33013,1.1759,-0.49276,0.12867,0.053392,0.065324,0.11159,0.0041217
-0.0086574,0.0097855,0.062051,0.05716,1.0314,0.65177,0.060722,1.12,0.10872,0.024013,1.4211,0.24924,0.53593,0.12945,-1.2618,-6.6662,0.2977,1.2249,-0.49161,0.1085,0.051289,0.059397,0.11924,0.016116
-0.012755,0.0099737,0.064627,0.054725,1.0197,0.50211,0.080642,1.1421,0.12628,0.091322,1.5559,0.18843,0.41007,0.1857,-1.1641,-6.6094,0.25384,1.219,-0.49197,0.084893,0.05094,0.057035,0.12832,0.034409
-0.015632,0.01128,0.062061,0.050246,1.0202,0.33536,0.1541,1.1657,0.097186,0.12713,1.6726,0.069614,0.38573,0.23909,-1.0394,-6.3429,0.20712,1.1519,-0.48536,0.065195,0.05389,0.059694,0.13423,0.053088
-0.015165,0.012912,0.057736,0.043251,1.041,0.16966,0.28192,1.1923,0.039152,0.14062,1.7731,-0.042613,0.45251,0.2923,-0.88712,-5.9443,0.1645,1.0255,-0.46955,0.052269,0.060652,0.06695,0.13283,0.066387
-0.012262,0.014019,0.056836,0.035208,1.0782,0.02432,0.44658,1.2205,-0.010776,0.15035,1.8566,-0.09551,0.52713,0.34726,-0.71609,-5.5089,0.1286,0.85552,-0.44975,0.043868,0.070957,0.077315,0.12391,0.070093
-0.0094631,0.014866,0.062353,0.028549,1.1212,-0.079176,0.61897,1.2462,-0.024585,0.17149,1.9238,-0.081124,0.48821,0.40138,-0.54607,-5.1208,0.097722,0.6705,-0.43362,0.035702,0.083666,0.08943,0.11152,0.062201
-0.0081598,0.016776,0.0725,0.024868,1.163,-0.11611,0.77463,1.2675,-0.0042994,0.20818,1.981,-0.033151,0.25401,0.44892,-0.39792,-4.8345,0.068144,0.50104,-0.42504,0.025304,0.096465,0.10254,0.10112,0.043123
-0.00741,0.020604,0.081828,0.023794,1.2051,-0.062663,0.90737,1.2886,0.020307,0.25523,2.0355,0.0044953,-0.15521,0.48766,-0.2809,-4.6594,0.03696,0.36351,-0.4223,0.013621,0.10608,0.11599,0.095851,0.015732
-0.005532,0.02512,0.085236,0.023384,1.2539,0.093911,1.0291,1.321,0.014315,0.30523,2.0844,0.010408,-0.62282,0.52463,-0.18897,-4.5537,0.0038313,0.25065,-0.42137,0.0036024,0.1094,0.12862,0.094932,-0.014894
-0.0025549,0.027144,0.081568,0.021548,1.3123,0.34415,1.1557,1.3779,-0.03789,0.35393,2.1083,-0.0046848,-1.0097,0.5741,-0.10987,-4.4376,-0.029071,0.13892,-0.4197,-0.0023269,0.10505,0.13894,0.094821,-0.042533
-0.00059841,0.023918,0.073931,0.017267,1.3723,0.65213,1.29,1.4644,-0.12437,0.39961,2.0782,-0.015667,-1.2415,0.64635,-0.038426,-4.2315,-0.0585,0.0089487,-0.41678,-0.0035884,0.094262,0.146,0.091735,-0.061945
-0.0014934,0.015957,0.066719,0.010777,1.4151,0.96223,1.4165,1.5717,-0.21715,0.43949,1.9743,-0.011119,-1.3439,0.73469,0.019034,-3.9005,-0.08192,-0.13683,-0.41149,-0.0009567,0.080206,0.14998,0.083598,-0.071308
-0.0041318,0.0077142,0.0621,0.0029932,1.4182,1.2146,1.5109,1.6786,-0.2919,0.46883,1.8005,-0.0078023,-1.4029,0.81173,0.054122,-3.4714,-0.098691,-0.275,-0.40002,0.004466,0.066286,0.15142,0.070587,-0.073282
-0.00467,0.0049047,0.058908,-0.0050474,1.3649,1.363,1.557,1.7612,-0.34063,0.48556,1.5826,-0.039302,-1.4852,0.84092,0.070785,-3.0096,-0.11017,-0.38097,-0.37708,0.011435,0.054452,0.14974,0.054718,-0.07338
7.1846e-005,0.010198,0.054515,-0.012355,1.2522,1.3876,1.5566,1.8041,-0.37059,0.4967,1.3505,-0.1274,-1.5828,0.79777,0.089407,-2.5718,-0.11883,-0.45097,-0.33887,0.017992,0.044773,0.14263,0.039109,-0.076143
0.0091416,0.020736,0.047672,-0.018059,1.0922,1.3006,1.5245,1.8062,-0.39441,0.5194,1.1202,-0.25858,-1.6232,0.68617,0.13366,-2.1747,-0.12714,-0.50632,-0.2844,0.021361,0.036272,0.12766,0.027006,-0.081646
0.017519,0.029769,0.039691,-0.021751,0.90744,1.1402,1.4728,1.7771,-0.42054,0.57337,0.88882,-0.38468,-1.5321,0.53682,0.20916,-1.7989,-0.13664,-0.57491,-0.21398,0.019072,0.028106,0.10509,0.02044,-0.085006
0.020076,0.031456,0.03311,-0.023856,0.72209,0.95757,1.3974,1.7301,-0.44927,0.66847,0.64695,-0.44849,-1.2999,0.38741,0.29237,-1.4183,-0.14777,-0.6653,-0.12739,0.01057,0.020071,0.079374,0.018941,-0.079471
0.015915,0.025158,0.029308,-0.025402,0.55355,0.79628,1.2784,1.6749,-0.47304,0.79631,0.39544,-0.41689,-0.99867,0.25857,0.34177,-1.0213,-0.16005,-0.75644,-0.024874,-0.0021618,0.012259,0.057393,0.019385,-0.060855
0.0089973,0.015804,0.027257,-0.02705,0.40841,0.67606,1.0935,1.6177,-0.47812,0.93234,0.15068,-0.29879,-0.73751,0.14404,0.3253,-0.60815,-0.17228,-0.813,0.089612,-0.015611,0.0044929,0.044169,0.01763,-0.030084
0.0043992,0.010018,0.02446,-0.028214,0.28444,0.58685,0.83536,1.564,-0.44736,1.0472,-0.065543,-0.13683,-0.58791,0.023161,0.24419,-0.17718,-0.18278,-0.81391,0.20703,-0.026611,-0.0037292,0.039334,0.011187,0.007733
0.0037554,0.011062,0.019104,-0.027341,0.17627,0.49878,0.52006,1.5219,-0.36751,1.1193,-0.24172,0.019557,-0.53236,-0.11451,0.13472,0.27407,-0.18994,-0.77021,0.31659,-0.033732,-0.012763,0.037294,0.0010232,0.046488
0.0042386,0.016609,0.011596,-0.023442,0.080408,0.38278,0.18332,1.5013,-0.2414,1.1403,-0.38331,0.14086,-0.47589,-0.25346,0.045793,0.72925,-0.19317,-0.71772,0.41163,-0.037492,-0.022404,0.031129,-0.0091007,0.081778
0.0019754,0.020976,0.0042669,-0.017531,-0.0031502,0.2299,-0.13304,1.509,-0.097972,1.1117,-0.50486,0.22755,-0.31515,-0.35994,0.0086573,1.1393,-0.19372,-0.69151,0.49234,-0.039602,-0.03204,0.017193,-0.015448,0.11135
-0.0035456,0.019859,-0.00045288,-0.0124,-0.072015,0.057046,-0.3953,1.5448,0.011287,1.0375,-0.61527,0.3003,-0.017396,-0.40769,0.019905,1.4411,-0.19448,-0.70415,0.56178,-0.041811,-0.041197,-0.0030107,-0.017132,0.13379
-0.0084925,0.013682,-0.0019456,-0.01056,-0.12292,-0.10381,-0.58701,1.6006,0.035866,0.92195,-0.70987,0.37948,0.34925,-0.40001,0.048525,1.6048,-0.1983,-0.74415,0.61826,-0.044776,-0.049856,-0.024652,-0.016636,0.14737
-0.0081787,0.0069952,-0.0019942,-0.012022,-0.15216,-0.22478,-0.71163,1.6637,-0.03988,0.77299,-0.77581,0.46777,0.65949,-0.36871,0.059926,1.6681,-0.20604,-0.79241,0.65124,-0.047424,-0.058163,-0.04304,-0.017546,0.15057
-0.0016817,0.0046158,-0.0036031,-0.014057,-0.15596,-0.29603,-0.78954,1.7199,-0.17558,0.608,-0.80554,0.54557,0.81747,-0.34982,0.039121,1.7214,-0.21558,-0.83939,0.6456,-0.047457,-0.065865,-0.05587,-0.021397,0.14357
0.0068714,0.0078023,-0.0088626,-0.013412,-0.13249,-0.32601,-0.85068,1.7572,-0.28764,0.45256,-0.80594,0.58072,0.81962,-0.35704,-0.0018674,1.8458,-0.22313,-0.88811,0.59202,-0.043184,-0.072171,-0.063127,-0.026331,0.12931
0.011643,0.013512,-0.017371,-0.0091442,-0.084895,-0.33003,-0.92404,1.7671,-0.29584,0.32996,-0.79543,0.54737,0.74366,-0.37555,-0.034597,2.0532,-0.22576,-0.9432,0.49599,-0.035642,-0.076317,-0.06582,-0.028813,0.11261
0.0099884,0.017106,-0.026386,-0.0034829,-0.022645,-0.31783,-1.0268,1.7454,-0.17628,0.24749,-0.79223,0.44441,0.67374,-0.38068,-0.033056,2.2819,-0.22332,-0.99953,0.37882,-0.028984,-0.078362,-0.065315,-0.026925,0.09781
0.0044834,0.01606,-0.032644,0.00016871,0.041295,-0.28973,-1.158,1.6947,0.017172,0.19064,-0.80416,0.30351,0.62585,-0.36339,0.012341,2.4546,-0.21818,-1.0425,0.26965,-0.027987,-0.079394,-0.063674,-0.022341,0.086605
0.00039225,0.011611,-0.034494,0.00036508,0.095992,-0.24325,-1.2998,1.6245,0.18284,0.13163,-0.82822,0.18063,0.53826,-0.33885,0.092753,2.5521,-0.21298,-1.0595,0.19315,-0.033992,-0.080865,-0.06387,-0.019165,0.077768
0.0010306,0.0072471,-0.032722,-0.0009652,0.1363,-0.18301,-1.4267,1.5476,0.23534,0.047744,-0.85836,0.13298,0.33685,-0.33063,0.18887,2.639,-0.20839,-1.0495,0.15958,-0.042638,-0.083626,-0.068815,-0.020622,0.06885
0.0051788,0.0056586,-0.029496,-0.00015509,0.16147,-0.12468,-1.518,1.4744,0.15973,-0.063245,-0.89255,0.19241,0.019431,-0.34629,0.28112,2.8201,-0.20267,-1.0231,0.16173,-0.04596,-0.087527,-0.079575,-0.026527,0.058434
0.0085904,0.0068504,-0.02648,0.0049341,0.17014,-0.089193,-1.5656,1.4069,0.016805,-0.18195,-0.93168,0.35059,-0.31388,-0.36778,0.35549,3.1617,-0.19352,-0.99066,0.1801,-0.037945,-0.091902,-0.094345,-0.033737,0.047158
0.0079208,0.0088039,-0.023809,0.012916,0.1574,-0.091265,-1.5751,1.3384,-0.10366,-0.28128,-0.97182,0.56531,-0.51322,-0.36619,0.40378,3.6417,-0.18039,-0.95365,0.19383,-0.019357,-0.096357,-0.10931,-0.039024,0.036919
0.0034777,0.0096839,-0.020741,0.019918,0.11798,-0.1309,-1.5576,1.2602,-0.14603,-0.34498,-0.99897,0.78361,-0.47479,-0.32723,0.42185,4.1637,-0.16542,-0.90536,0.19233,0.0022671,-0.10102,-0.1209,-0.041607,0.029259
-0.0014177,0.0093927,-0.017105,0.022727,0.05323,-0.19383,-1.5188,1.1698,-0.12156,-0.37763,-0.99398,0.96556,-0.20753,-0.26448,0.40989,4.6201,-0.15199,-0.84108,0.18129,0.017776,-0.10603,-0.12775,-0.043055,0.024528
-0.0035219,0.009193,-0.013966,0.021325,-0.025219,-0.26027,-1.4521,1.0755,-0.089504,-0.39937,-0.94592,1.0926,0.17539,-0.20882,0.37467,4.9528,-0.14219,-0.76636,0.17905,0.022742,-0.11082,-0.13094,-0.044943,0.022333
-0.0023037,0.010078,-0.012785,0.018706,-0.10028,-0.31565,-1.3421,0.99115,-0.10578,-0.43064,-0.86284,1.1572,0.52721,-0.1841,0.32982,5.1703,-0.13519,-0.69498,0.20425,0.01996,-0.1141,-0.13265,-0.046815,0.022353
1.7134e-005,0.01163,-0.013946,0.018304,-0.16008,-0.35618,-1.1773,0.92666,-0.18129,-0.47836,-0.76979,1.1485,0.74627,-0.19038,0.29041,5.3198,-0.12793,-0.63805,0.2616,0.01631,-0.11468,-0.13439,-0.046587,0.024168
0.00066199,0.012394,-0.016214,0.02135,-0.20541,-0.38653,-0.96535,0.88012,-0.27982,-0.53303,-0.69378,1.0506,0.81535,-0.20763,0.26291,5.4434,-0.11729,-0.59454,0.33479,0.016851,-0.11247,-0.13627,-0.042965,0.025989
-0.0014773,0.011221,-0.017684,0.026335,-0.24679,-0.41288,-0.73994,0.83969,-0.35131,-0.57729,-0.64702,0.86026,0.79081,-0.21435,0.23776,5.5491,-0.10223,-0.55195,0.39205,0.021108,-0.10877,-0.13744,-0.037374,0.023752
-0.0054014,0.0081947,-0.017267,0.030753,-0.29284,-0.43725,-0.55195,0.79372,-0.36944,-0.59857,-0.62144,0.6088,0.76282,-0.20355,0.19236,5.6071,-0.08435,-0.49669,0.40183,0.024281,-0.1055,-0.13723,-0.033397,0.012158
-0.0092914,0.0043983,-0.015242,0.033304,-0.33987,-0.45708,-0.44817,0.74186,-0.34414,-0.59662,-0.59845,0.3637,0.81203,-0.18381,0.10547,5.5632,-0.066793,-0.42517,0.34971,0.021818,-0.10403,-0.1357,-0.034129,-0.012405
-0.011975,0.0010032,-0.012433,0.034544,-0.372,-0.46939,-0.44904,0.69862,-0.3048,-0.58168,-0.56552,0.20055,0.97496,-0.16788,-0.025605,5.3618,-0.052739,-0.34689,0.24668,0.013212,-0.10442,-0.13339,-0.039865,-0.049126
-0.01327,-0.0013239,-0.0090063,0.035678,-0.37264,-0.47497,-0.53867,0.68672,-0.27403,-0.56614,-0.52575,0.16047,1.2229,-0.16144,-0.17812,4.9725,-0.044344,-0.27759,0.12431,0.0020732,-0.10545,-0.13065,-0.048124,-0.092449
-0.013308,-0.002301,-0.0042279,0.036981,-0.33812,-0.47868,-0.67286,0.72554,-0.25517,-0.55618,-0.49331,0.22493,1.4633,-0.16171,-0.31396,4.414,-0.042345,-0.22858,0.020453,-0.0069518,-0.10549,-0.12719,-0.055821,-0.13461
-0.011969,-0.0017073,0.0025403,0.037567,-0.28224,-0.48551,-0.79925,0.82266,-0.23996,-0.54853,-0.47932,0.32978,1.5731,-0.16451,-0.40078,3.7593,-0.045882,-0.19963,-0.03586,-0.011397,-0.10335,-0.12248,-0.061576,-0.16923
-0.0091361,0.00051308,0.010699,0.036646,-0.22777,-0.49581,-0.8773,0.97323,-0.22374,-0.53317,-0.48009,0.40965,1.4607,-0.17061,-0.42946,3.1099,-0.052313,-0.17874,-0.032608,-0.011837,-0.098881,-0.11664,-0.066247,-0.19342
-0.0053691,0.0038067,0.018387,0.034773,-0.1912,-0.50349,-0.88788,1.1651,-0.21185,-0.4996,-0.47695,0.43905,1.1215,-0.18488,-0.41533,2.5451,-0.05745,-0.14692,0.026301,-0.01041,-0.093093,-0.11085,-0.071502,-0.2075
-0.0020204,0.00695,0.023727,0.03353,-0.1724,-0.49885,-0.83162,1.3833,-0.2126,-0.44267,-0.44746,0.43853,0.64965,-0.20985,-0.38376,2.0784,-0.056717,-0.084502,0.12775,-0.0088853,-0.087736,-0.10674,-0.077821,-0.21313
-0.00046579,0.0087853,0.026215,0.033803,-0.15703,-0.4741,-0.72218,1.6106,-0.22651,-0.36577,-0.37903,0.44371,0.18639,-0.24109,-0.3521,1.6569,-0.047019,0.023224,0.25598,-0.0078545,-0.08454,-0.10499,-0.083579,-0.21186
-0.0011207,0.0092028,0.026987,0.034421,-0.12967,-0.42834,-0.58161,1.8236,-0.24357,-0.28011,-0.27557,0.46558,-0.16012,-0.26888,-0.322,1.2089,-0.02825,0.18133,0.39543,-0.0070438,-0.084303,-0.10429,-0.085801,-0.20484
-0.0031615,0.0093121,0.027757,0.032767,-0.087651,-0.3691,-0.43859,1.9922,-0.25121,-0.20043,-0.15357,0.47707,-0.36849,-0.28415,-0.28605,0.70307,-0.003374,0.38216,0.53031,-0.0058121,-0.086306,-0.10177,-0.081953,-0.19353
-0.0051329,0.010419,0.029423,0.027036,-0.044981,-0.30979,-0.3248,2.0851,-0.24476,-0.13897,-0.031828,0.43669,-0.49152,-0.28284,-0.24047,0.17272,0.023073,0.6054,0.64436,-0.0033553,-0.088473,-0.094816,-0.071593,-0.18019
-0.0057935,0.012674,0.031535,0.018092,-0.023221,-0.2638,-0.26585,2.0817,-0.23051,-0.10047,0.077608,0.32745,-0.59292,-0.26562,-0.19168,-0.31553,0.047056,0.82264,0.72311,0.00099644,-0.088318,-0.083127,-0.056909,-0.16772
-0.0045397,0.014777,0.032932,0.0091251,-0.035634,-0.23801,-0.26995,1.9828,-0.21953,-0.081283,0.1721,0.17649,-0.68979,-0.23481,-0.15093,-0.72046,0.066428,1.0057,0.75878,0.0070676,-0.084157,-0.069269,-0.041921,-0.15875
-0.0014017,0.015186,0.032864,0.0033335,-0.075856,-0.22869,-0.32288,1.8121,-0.21861,-0.073242,0.25491,0.038662,-0.74938,-0.19243,-0.12263,-1.0625,0.081098,1.1349,0.75474,0.013291,-0.075848,-0.057284,-0.030747,-0.15456
0.0029621,0.013766,0.031594,0.0016765,-0.11901,-0.22276,-0.39517,1.6069,-0.22613,-0.069854,0.32999,-0.041611,-0.73888,-0.14087,-0.097608,-1.4105,0.09235,1.2038,0.72643,0.017313,-0.064649,-0.050257,-0.025841,-0.15432
0.0071762,0.012248,0.030097,0.0025513,-0.13456,-0.20466,-0.45751,1.4009,-0.2343,-0.070289,0.39915,-0.057992,-0.67875,-0.083913,-0.058206,-1.8358,0.102,1.2181,0.6975,0.017802,-0.052385,-0.048569,-0.027114,-0.15509
0.0094153,0.012876,0.029232,0.0033943,-0.10261,-0.16593,-0.49308,1.2109,-0.23345,-0.078264,0.46277,-0.038561,-0.64856,-0.025793,0.0081454,-2.3739,0.11168,1.1899,0.6927,0.016041,-0.040605,-0.05,-0.032379,-0.15309
0.0083799,0.016379,0.029098,0.0025574,-0.023848,-0.11152,-0.49831,1.0351,-0.21397,-0.097027,0.5213,-0.01756,-0.73715,0.031184,0.097369,-3.016,0.12204,1.1319,0.73042,0.015679,-0.030303,-0.051403,-0.038815,-0.14622
0.004467,0.021112,0.029,-7.4268e-005,0.081746,-0.058218,-0.47483,0.86212,-0.16695,-0.12483,0.5749,-0.0088066,-0.9777,0.087465,0.18863,-3.719,0.13211,1.0545,0.81778,0.020509,-0.022205,-0.050611,-0.044517,-0.13644
-2.2231e-005,0.024205,0.027939,-0.003764,0.18551,-0.024891,-0.42338,0.6833,-0.087979,-0.15476,0.6208,-0.0020575,-1.3186,0.14388,0.25627,-4.4063,0.13928,0.96617,0.94943,0.031996,-0.017053,-0.047282,-0.049192,-0.13011
-0.0022552,0.023758,0.02524,-0.0077573,0.26363,-0.020453,-0.34686,0.49926,0.014866,-0.17887,0.65162,0.018979,-1.6493,0.19819,0.28533,-4.959,0.14072,0.87555,1.1099,0.048612,-0.015339,-0.04237,-0.053644,-0.13479
-0.00098174,0.020228,0.020937,-0.01138,0.30682,-0.037683,-0.25726,0.31699,0.11509,-0.19283,0.65756,0.056794,-1.8573,0.24462,0.27936,-5.2282,0.13559,0.79254,1.279,0.067319,-0.016578,-0.036955,-0.058515,-0.15372
0.0024132,0.015917,0.015748,-0.013692,0.3215,-0.057861,-0.17461,0.14277,0.17344,-0.19695,0.63273,0.09687,-1.8778,0.2778,0.25531,-5.0969,0.12684,0.72612,1.4384,0.085677,-0.018897,-0.03148,-0.063242,-0.18127
0.0050291,0.013155,0.010688,-0.013626,0.32222,-0.063465,-0.11336,-0.021593,0.15785,-0.193,0.58122,0.12181,-1.7126,0.29824,0.22997,-4.5756,0.12052,0.68005,1.5778,0.10275,-0.019643,-0.025895,-0.066012,-0.2035
0.0049407,0.012727,0.0065222,-0.010901,0.31957,-0.049862,-0.066942,-0.1766,0.066806,-0.17996,0.5178,0.12726,-1.4202,0.31392,0.20857,-3.8577,0.12262,0.6493,1.696,0.11844,-0.016821,-0.020302,-0.064781,-0.20438
0.0028961,0.013651,0.0033135,-0.0068523,0.31149,-0.027136,-0.0081943,-0.32079,-0.062162,-0.15278,0.46106,0.12418,-1.0917,0.33578,0.18424,-3.263,0.13533,0.6205,1.7966,0.13243,-0.010276,-0.015236,-0.05863,-0.17489
0.001641,0.014201,0.00032552,-0.0040195,0.28478,-0.010542,0.088829,-0.45052,-0.17014,-0.10572,0.42276,0.12624,-0.82169,0.36991,0.14806,-3.0727,0.15539,0.57785,1.8787,0.1441,-0.0015546,-0.011139,-0.048444,-0.11886
0.0033962,0.013161,-0.0036108,-0.0043757,0.22673,-0.0071655,0.22128,-0.56515,-0.21206,-0.037718,0.40034,0.13569,-0.67835,0.41219,0.10086,-3.352,0.17592,0.5122,1.9314,0.15312,0.0074948,-0.0075011,-0.036421,-0.051728
0.0077257,0.010474,-0.0093569,-0.0075082,0.13823,-0.0097928,0.34912,-0.67273,-0.18498,0.044535,0.37843,0.14105,-0.68084,0.44954,0.05712,-3.8965,0.19037,0.42858,1.9371,0.15995,0.016144,-0.0027323,-0.024823,0.0075986
0.011711,0.0070825,-0.016703,-0.01042,0.03675,-0.0033559,0.41711,-0.78989,-0.1273,0.12856,0.33881,0.128,-0.79605,0.46698,0.037815,-4.3552,0.1957,0.34689,1.8841,0.16518,0.024925,0.0046844,-0.014992,0.046533
0.012284,0.0043321,-0.024077,-0.0094125,-0.054718,0.021108,0.39213,-0.93439,-0.088429,0.2021,0.27252,0.09229,-0.95942,0.45589,0.05797,-4.4548,0.19273,0.29336,1.7777,0.1686,0.03436,0.014502,-0.0073663,0.063944
0.0086581,0.0032931,-0.029106,-0.0027305,-0.12434,0.056623,0.28618,-1.1156,-0.092471,0.25934,0.18595,0.042745,-1.1074,0.41869,0.11838,-4.161,0.18408,0.28589,1.6407,0.16908,0.043562,0.024086,-0.0023349,0.067746
0.0028056,0.0042376,-0.029912,0.0080532,-0.17916,0.083217,0.14678,-1.33,-0.12451,0.30295,0.096673,-0.0071484,-1.2001,0.36737,0.20659,-3.6595,0.17197,0.3212,1.4994,0.16557,0.050189,0.02986,-0.00096231,0.067418
-0.0022644,0.0064221,-0.026453,0.018966,-0.23638,0.082004,0.023766,-1.5636,-0.14924,0.34022,0.022017,-0.049715,-1.2249,0.31706,0.30465,-3.1826,0.1576,0.37306,1.3658,0.15854,0.052041,0.029986,-0.0047297,0.067417
-0.0047589,0.0083665,-0.020933,0.026075,-0.30514,0.049749,-0.059614,-1.7998,-0.14411,0.37538,-0.031603,-0.085583,-1.1903,0.27801,0.39726,-2.8262,0.14194,0.40454,1.2306,0.15018,0.049006,0.026047,-0.01435,0.066251
-0.0049651,0.0086524,-0.016764,0.027584,-0.37501,0.0027802,-0.11032,-2.0252,-0.11755,0.40356,-0.070994,-0.11718,-1.1251,0.25033,0.47535,-2.5014,0.1264,0.38829,1.0745,0.14306,0.043591,0.022,-0.028632,0.061102
-0.0042474,0.0068658,-0.016553,0.024285,-0.4214,-0.032641,-0.1467,-2.2321,-0.097152,0.41136,-0.10882,-0.14137,-1.0804,0.22479,0.53557,-2.0419,0.11233,0.3213,0.8868,0.1384,0.039421,0.020999,-0.044429,0.053206
-0.0033936,0.0040196,-0.02045,0.018518,-0.42368,-0.036302,-0.17844,-2.4185,-0.10087,0.38508,-0.15224,-0.14965,-1.1161,0.18981,0.57891,-1.3604,0.1001,0.22382,0.67674,0.13541,0.038815,0.022792,-0.057871,0.048652
-0.001924,0.0020043,-0.026125,0.012775,-0.3808,-0.0050396,-0.20306,-2.5868,-0.11902,0.32171,-0.19612,-0.13589,-1.2602,0.14036,0.60999,-0.51915,0.089039,0.12322,0.46516,0.13221,0.041358,0.024243,-0.065999,0.053399
0.0011168,0.0022996,-0.030527,0.0088848,-0.31241,0.048132,-0.21684,-2.7431,-0.12429,0.23439,-0.22548,-0.10371,-1.4677,0.082647,0.63585,0.32687,0.078694,0.035814,0.26494,0.12773,0.044558,0.022885,-0.067651,0.066807
0.0057891,0.0048178,-0.03223,0.0078155,-0.24626,0.10476,-0.22394,-2.8949,-0.099789,0.1469,-0.22499,-0.066109,-1.6248,0.030018,0.66241,1.0455,0.069893,-0.039095,0.067796,0.12271,0.045955,0.020514,-0.063132,0.079995
0.010669,0.007768,-0.032562,0.0096123,-0.20327,0.15298,-0.23173,-3.0452,-0.058288,0.079694,-0.18811,-0.037294,-1.6189,-0.0075974,0.68955,1.5947,0.064317,-0.10933,-0.14985,0.11922,0.044916,0.023336,-0.053285,0.081738
0.013596,0.0087295,-0.034537,0.013313,-0.19084,0.1926,-0.23769,-3.1872,-0.033935,0.037053,-0.12007,-0.024384,-1.4335,-0.033181,0.70894,1.9993,0.062545,-0.17454,-0.40577,0.11901,0.042742,0.037876,-0.03899,0.068004
0.013117,0.0062228,-0.040253,0.017212,-0.20595,0.23091,-0.22432,-3.3038,-0.053992,0.0052916,-0.033825,-0.025681,-1.1868,-0.063334,0.70756,2.2828,0.062471,-0.22079,-0.69312,0.12186,0.041176,0.06555,-0.021559,0.047298
0.0094372,0.00067566,-0.048728,0.019767,-0.24178,0.27399,-0.17129,-3.3734,-0.11657,-0.036146,0.056255,-0.035502,-1.069,-0.11919,0.67563,2.4319,0.059827,-0.23135,-0.97904,0.12501,0.040699,0.10025,-0.0034216,0.036448
0.0042321,-0.0058656,-0.056018,0.020732,-0.29188,0.32034,-0.076117,-3.3828,-0.19439,-0.098676,0.13849,-0.049517,-1.2142,-0.21435,0.61329,2.4225,0.050493,-0.20487,-1.2215,0.12393,0.040023,0.13116,0.011935,0.049031
-0.00039743,-0.010989,-0.057854,0.021471,-0.35093,0.36087,0.035884,-3.337,-0.25986,-0.17558,0.20442,-0.065407,-1.607,-0.34866,0.53077,2.2667,0.032493,-0.1651,-1.3914,0.11389,0.037104,0.149,0.021176,0.085013
-0.0029714,-0.013188,-0.052982,0.023884,-0.41473,0.38388,0.12385,-3.2607,-0.30726,-0.24636,0.24803,-0.079729,-2.0972,-0.51043,0.4421,2.0244,0.0059574,-0.15246,-1.484,0.091934,0.03071,0.15102,0.022733,0.12986
-0.0030806,-0.012332,-0.044548,0.028549,-0.48071,0.38028,0.1586,-3.1866,-0.35117,-0.29022,0.26581,-0.086411,-2.5037,-0.68168,0.35739,1.7646,-0.028355,-0.2023,-1.5158,0.058299,0.02125,0.14155,0.017566,0.16421
-0.0012507,-0.0093022,-0.038149,0.033684,-0.54674,0.34618,0.14464,-3.1355,-0.40376,-0.29823,0.25721,-0.080509,-2.7129,-0.83932,0.27979,1.5179,-0.06966,-0.32414,-1.5117,0.016924,0.01029,0.12802,0.0084917,0.17678
0.0014034,-0.0053726,-0.037776,0.036058,-0.60734,0.28269,0.12092,-3.1011,-0.45369,-0.27571,0.22321,-0.064755,-2.6949,-0.95207,0.20843,1.2698,-0.11555,-0.49436,-1.4926,-0.025502,-0.00064825,0.11589,-0.0012994,0.17106
0.0035051,-0.0018856,-0.042835,0.033432,-0.65008,0.19509,0.14,-3.0498,-0.46831,-0.2354,0.16295,-0.052372,-2.4466,-0.98136,0.14331,1.0053,-0.15968,-0.66527,-1.4695,-0.061768,-0.01093,0.1061,-0.0094013,0.16124
0.0038011,-0.00014125,-0.04881,0.026606,-0.65787,0.092184,0.2396,-2.9401,-0.41909,-0.18875,0.071187,-0.061819,-1.942,-0.894,0.087119,0.75836,-0.19192,-0.78434,-1.4436,-0.08685,-0.020633,0.09611,-0.014483,0.16154
0.0017068,-0.0010329,-0.051186,0.019262,-0.61905,-0.015354,0.42256,-2.748,-0.30818,-0.14247,-0.059369,-0.10598,-1.151,-0.68288,0.04245,0.61829,-0.2026,-0.81494,-1.4088,-0.099821,-0.029657,0.082964,-0.016168,0.17742
-0.0021906,-0.004318,-0.04934,0.015444,-0.53907,-0.11863,0.65388,-2.485,-0.17147,-0.10119,-0.23051,-0.18363,-0.10831,-0.3806,0.0081409,0.67813,-0.18847,-0.75053,-1.3571,-0.10381,-0.037056,0.065761,-0.015145,0.20408
-0.0061244,-0.0081846,-0.046929,0.016526,-0.44362,-0.2145,0.87394,-2.1925,-0.053126,-0.071115,-0.43066,-0.28024,1.0493,-0.051453,-0.020521,0.96281,-0.15594,-0.61699,-1.2833,-0.10395,-0.041275,0.046118,-0.013409,0.2315
-0.0079111,-0.0099735,-0.048327,0.02006,-0.36829,-0.30634,1.0211,-1.9183,0.029434,-0.059595,-0.63338,-0.3783,2.1293,0.23685,-0.047154,1.389,-0.11818,-0.46012,-1.189,-0.10428,-0.041168,0.026973,-0.013785,0.25025
-0.0062084,-0.0080178,-0.054313,0.02152,-0.34045,-0.39979,1.0552,-1.6905,0.10284,-0.070631,-0.80546,-0.47008,2.982,0.44332,-0.069709,1.7832,-0.087731,-0.32181,-1.0814,-0.10561,-0.036952,0.01104,-0.018338,0.25364
-0.0015162,-0.0032719,-0.061018,0.017636,-0.36617,-0.496,0.97209,-1.5079,0.22315,-0.10124,-0.9207,-0.56284,3.5657,0.56489,-0.08125,1.9449,-0.069744,-0.21632,-0.96861,-0.10548,-0.030255,-0.00010205,-0.026612,0.23638
0.0038279,0.00088755,-0.063267,0.0087768,-0.43105,-0.58808,0.80434,-1.3511,0.43831,-0.14335,-0.97122,-0.67133,3.9267,0.62311,-0.076453,1.7204,-0.060292,-0.12171,-0.85763,-0.10012,-0.023146,-0.0061044,-0.035415,0.19333
0.0068562,0.00096205,-0.059384,-0.0014034,-0.51233,-0.66421,0.6048,-1.2028,0.75162,-0.19058,-0.9693,-0.80167,4.1244,0.64043,-0.058178,1.0603,-0.050479,0.0059126,-0.7565,-0.087077,-0.016843,-0.0075133,-0.040871,0.12115
0.0057992,-0.0039297,-0.053035,-0.0086201,-0.59136,-0.715,0.42353,-1.0601,1.1076,-0.24391,-0.93906,-0.93775,4.1817,0.62598,-0.03736,0.046846,-0.032565,0.20326,-0.6806,-0.066696,-0.01107,-0.0053995,-0.041429,0.02248
0.0014107,-0.011191,-0.050317,-0.010784,-0.65742,-0.73921,0.2899,-0.93107,1.4078,-0.3106,-0.90342,-1.0412,4.1048,0.57922,-0.025108,-1.1111,-0.003671,0.4758,-0.6532,-0.041786,-0.0045419,-0.0010954,-0.039264,-0.091005
-0.0032054,-0.01662,-0.054573,-0.0089624,-0.70415,-0.74295,0.20891,-0.82221,1.5492,-0.39639,-0.87371,-1.0672,3.9365,0.5026,-0.023255,-2.1214,0.034639,0.79554,-0.69488,-0.016067,0.0037682,0.0040183,-0.038652,-0.19996
-0.0044102,-0.017514,-0.063534,-0.0061193,-0.72675,-0.73416,0.16974,-0.73295,1.469,-0.49714,-0.84689,-0.98748,3.7738,0.40835,-0.021846,-2.6894,0.079118,1.1203,-0.80719,0.0072327,0.013504,0.0087737,-0.04247,-0.28351
-0.0004633,-0.014415,-0.071289,-0.0049676,-0.72552,-0.71763,0.15619,-0.66191,1.1766,-0.59734,-0.81026,-0.80623,3.716,0.31312,-0.0064734,-2.6215,0.12688,1.4168,-0.96467,0.025821,0.022748,0.0125,-0.049748,-0.32734
0.0070915,-0.010177,-0.073344,-0.0065974,-0.71181,-0.69493,0.15102,-0.61725,0.75591,-0.67724,-0.75036,-0.55858,3.7863,0.22731,0.030192,-1.9098,0.17516,1.6693,-1.1257,0.038003,0.028963,0.015147,-0.056386,-0.32922
0.014217,-0.0073956,-0.070305,-0.010518,-0.70719,-0.66818,0.13552,-0.617,0.33241,-0.72285,-0.66159,-0.29431,3.9035,0.15065,0.082216,-0.75452,0.21967,1.868,-1.2572,0.04229,0.030462,0.017041,-0.058408,-0.29882
0.016968,-0.006547,-0.067066,-0.015521,-0.73192,-0.64265,0.092562,-0.67511,0.016114,-0.73048,-0.55131,-0.057413,3.9334,0.07799,0.13474,0.502,0.25363,1.9935,-1.3537,0.03743,0.02742,0.018327,-0.055007,-0.25214
0.014081,-0.0062822,-0.068393,-0.020444,-0.79015,-0.62523,0.016868,-0.78466,-0.14865,-0.70217,-0.43942,0.12657,3.7811,0.0093421,0.17506,1.5099,0.26897,2.0149,-1.4352,0.022735,0.021701,0.018499,-0.048928,-0.20355
0.0077224,-0.0052426,-0.074922,-0.024437,-0.86468,-0.61997,-0.074943,-0.91521,-0.19555,-0.6373,-0.35231,0.25104,3.4497,-0.045566,0.20123,2.0536,0.25935,1.9073,-1.523,-0.0015881,0.01559,0.016542,-0.044184,-0.1602
0.0018854,-0.0035235,-0.083056,-0.027003,-0.9274,-0.62553,-0.14759,-1.0295,-0.20137,-0.52981,-0.31283,0.32082,3.0238,-0.072303,0.22126,2.1266,0.22358,1.6754,-1.6155,-0.034125,0.010329,0.011717,-0.043292,-0.12123
-0.00028221,-0.0025185,-0.08866,-0.028055,-0.95804,-0.63666,-0.16817,-1.1072,-0.22787,-0.37651,-0.33048,0.34419,2.6033,-0.062216,0.24441,1.8974,0.16731,1.3614,-1.6838,-0.071848,0.0055372,0.0043987,-0.046268,-0.081393
0.0017261,-0.0035422,-0.09098,-0.027921,-0.95595,-0.64803,-0.13257,-1.155,-0.28282,-0.19081,-0.39672,0.32927,2.2445,-0.020385,0.27231,1.5887,0.10178,1.0281,-1.6919,-0.10987,-7.727e-005,-0.0038979,-0.05166,-0.036204
0.0059472,-0.0066632,-0.093144,-0.027052,-0.93579,-0.65615,-0.075301,-1.1954,-0.32744,-0.0086433,-0.48821,0.28476,1.9508,0.034515,0.29746,1.3449,0.03984,0.72775,-1.6243,-0.14207,-0.0073368,-0.011497,-0.058054,0.014589
0.0096142,-0.010741,-0.098771,-0.025526,-0.91156,-0.65781,-0.050372,-1.2438,-0.32015,0.1232,-0.57645,0.22229,1.7024,0.078351,0.30965,1.1731,-0.008992,0.47938,-1.4982,-0.16298,-0.015676,-0.017784,-0.064446,0.066343
0.010907,-0.014389,-0.1079,-0.022809,-0.88365,-0.64771,-0.094033,-1.2955,-0.25717,0.17289,-0.6384,0.15708,1.4875,0.092836,0.30426,0.98672,-0.041589,0.27025,-1.3489,-0.17021,-0.023338,-0.023503,-0.069493,0.11123
0.0096712,-0.016815,-0.1161,-0.018168,-0.83966,-0.61944,-0.19698,-1.3328,-0.17549,0.14609,-0.66264,0.10559,1.3063,0.073491,0.28567,0.70954,-0.060865,0.076658,-1.2037,-0.16567,-0.028363,-0.029725,-0.071013,0.14125
0.006991,-0.017885,-0.11785,-0.011533,-0.76752,-0.57103,-0.3086,-1.3464,-0.11835,0.086998,-0.64896,0.080853,1.1518,0.02968,0.26388,0.35145,-0.072323,-0.11374,-1.0639,-0.15418,-0.029463,-0.036334,-0.066881,0.15184
0.0042748,-0.017709,-0.11125,-0.0040972,-0.66917,-0.51062,-0.3709,-1.3486,-0.096456,0.053648,-0.604,0.088312,0.99378,-0.023251,0.24844,-0.0030846,-0.079967,-0.2952,-0.91089,-0.14018,-0.026232,-0.041561,-0.056765,0.14533
0.002518,-0.016496,-0.099934,0.0020164,-0.56349,-0.45631,-0.35636,-1.3674,-0.080442,0.082759,-0.53703,0.12555,0.7887,-0.0745,0.24496,-0.2786,-0.084257,-0.45389,-0.72776,-0.12505,-0.018936,-0.043251,-0.043022,0.13261
0.0019971,-0.014902,-0.090432,0.0049759,-0.47683,-0.42771,-0.28127,-1.4255,-0.030207,0.16863,-0.45843,0.18685,0.51044,-0.12365,0.25556,-0.48791,-0.083187,-0.58221,-0.51761,-0.10719,-0.0084373,-0.040978,-0.02953,0.13139
0.0023126,-0.01428,-0.087217,0.0045653,-0.42916,-0.43418,-0.18718,-1.5239,0.066355,0.27094,-0.37991,0.26928,0.17806,-0.17773,0.28021,-0.73583,-0.075261,-0.68337,-0.30418,-0.085052,0.0035937,-0.037143,-0.019101,0.16036
0.0026649,-0.016112,-0.089564,0.0025841,-0.42509,-0.46844,-0.10832,-1.6422,0.17995,0.34476,-0.31385,0.37437,-0.14487,-0.24244,0.31541,-1.1416,-0.061927,-0.76421,-0.1167,-0.060386,0.014709,-0.035831,-0.011488,0.23148
0.0022846,-0.020771,-0.09273,0.0018845,-0.4536,-0.51076,-0.051249,-1.7557,0.26219,0.37007,-0.27068,0.50171,-0.38392,-0.31516,0.35123,-1.7421,-0.047679,-0.82547,0.02642,-0.038521,0.022429,-0.040079,-0.0036795,0.34399
0.00085201,-0.026694,-0.092131,0.0045972,-0.49379,-0.54055,0.0007136,-1.8507,0.2825,0.35954,-0.25533,0.63782,-0.49888,-0.38545,0.37087,-2.4489,-0.037861,-0.86035,0.12216,-0.025095,0.025435,-0.049648,0.0076723,0.4831
-0.0013697,-0.031026,-0.086772,0.01077,-0.52179,-0.54612,0.067436,-1.9261,0.24814,0.34185,-0.26537,0.7502,-0.50701,-0.4413,0.35571,-3.0861,-0.035801,-0.86268,0.17586,-0.0217,0.024229,-0.061104,0.023537,0.62416
-0.0038141,-0.031564,-0.079153,0.018397,-0.51653,-0.525,0.15583,-1.9809,0.19425,0.33654,-0.29189,0.79535,-0.46447,-0.47423,0.29328,-3.473,-0.041169,-0.83602,0.19303,-0.024219,0.020579,-0.070163,0.041544,0.74041
-0.0060736,-0.028502,-0.072175,0.024808,-0.46468,-0.47662,0.259,-2.0029,0.15747,0.34161,-0.32263,0.74023,-0.41838,-0.47818,0.18191,-3.494,-0.050426,-0.79427,0.17894,-0.025531,0.016146,-0.074459,0.057418,0.81207
-0.0081087,-0.024373,-0.06616,0.028366,-0.36511,-0.39652,0.36649,-1.9727,0.15741,0.34195,-0.34551,0.58452,-0.36881,-0.4452,0.028743,-3.1287,-0.058836,-0.75276,0.14461,-0.020631,0.011504,-0.074661,0.067658,0.83361
-0.01002,-0.022043,-0.05876,0.029287,-0.23106,-0.27991,0.47274,-1.8797,0.19774,0.32884,-0.35143,0.36661,-0.27668,-0.36503,-0.15539,-2.4466,-0.062726,-0.71818,0.10982,-0.010104,0.0063643,-0.073284,0.071553,0.81662
-0.011674,-0.022378,-0.047663,0.029117,-0.087598,-0.13294,0.57647,-1.736,0.27765,0.31198,-0.33639,0.14545,-0.11656,-0.23248,-0.35733,-1.5868,-0.060899,-0.68627,0.096771,0.00078696,0.00065551,-0.072345,0.071293,0.78529
-0.012655,-0.023649,-0.033406,0.029459,0.036055,0.019622,0.67396,-1.5726,0.39712,0.3134,-0.30278,-0.031924,0.069599,-0.057216,-0.55673,-0.72411,-0.054753,-0.64884,0.11819,0.0065991,-0.0046874,-0.071687,0.070424,0.76463
-0.012622,-0.023276,-0.019524,0.030909,0.11668,0.14032,0.75485,-1.4196,0.54984,0.34879,-0.25901,-0.15513,0.16979,0.13332,-0.72165,-0.018103,-0.047267,-0.60326,0.17072,0.0061874,-0.0079715,-0.069032,0.071952,0.766
-0.011704,-0.020375,-0.0098043,0.032799,0.14461,0.19779,0.80507,-1.2861,0.71313,0.41273,-0.2162,-0.24927,0.063435,0.30275,-0.81429,0.4429,-0.041313,-0.55573,0.24006,0.0037388,-0.0077015,-0.061438,0.077337,0.77869
-0.010467,-0.016771,-0.0051526,0.033692,0.12515,0.18515,0.81379,-1.1589,0.84815,0.48041,-0.18253,-0.34867,-0.29716,0.42095,-0.80946,0.66687,-0.037979,-0.51662,0.31338,0.0057293,-0.0033385,-0.047009,0.08672,0.77477
-0.0095026,-0.015464,-0.0029621,0.032243,0.073586,0.12372,0.77828,-1.0199,0.91349,0.52422,-0.15815,-0.46628,-0.85114,0.47503,-0.71491,0.72511,-0.035768,-0.49298,0.38731,0.016215,0.0046242,-0.025862,0.099722,0.72653
-0.0091015,-0.01786,0.00047015,0.028066,0.0072882,0.048684,0.70369,-0.86699,0.88242,0.5315,-0.13464,-0.58336,-1.4683,0.46957,-0.57644,0.68037,-0.031419,-0.48538,0.46438,0.033884,0.015001,-7.2319e-005,0.11591,0.626
-0.0093121,-0.022295,0.0067906,0.022285,-0.060634,-0.012158,0.5994,-0.71888,0.75241,0.50966,-0.10048,-0.66767,-2.0285,0.41884,-0.45883,0.53613,-0.022238,-0.49127,0.54231,0.052838,0.026226,0.027069,0.13455,0.49289
-0.010205,-0.025225,0.014661,0.017364,-0.12276,-0.050169,0.47542,-0.59887,0.54327,0.47612,-0.049463,-0.70484,-2.4729,0.33931,-0.41118,0.25511,-0.0086527,-0.51044,0.60846,0.066426,0.036649,0.05198,0.154,0.36431
-0.011871,-0.024084,0.021798,0.015963,-0.17405,-0.070822,0.33986,-0.512,0.28976,0.4433,0.013616,-0.71595,-2.7937,0.24768,-0.43908,-0.16878,0.0049251,-0.54657,0.64722,0.071507,0.045099,0.071621,0.17161,0.27288
-0.014068,-0.019287,0.027784,0.019196,-0.20711,-0.078915,0.19706,-0.43628,0.033757,0.41132,0.074351,-0.74565,-2.9855,0.16247,-0.50283,-0.65611,0.01205,-0.60234,0.6553,0.070325,0.051598,0.084173,0.18443,0.22874
-0.015965,-0.013707,0.034689,0.025452,-0.21075,-0.068806,0.04705,-0.33623,-0.18386,0.3731,0.11625,-0.82966,-3.0198,0.10285,-0.54375,-1.0659,0.0082391,-0.67182,0.65042,0.068824,0.057503,0.089486,0.19057,0.21814
-0.016486,-0.010215,0.044799,0.030936,-0.17442,-0.028576,-0.11114,-0.18797,-0.33449,0.32501,0.12907,-0.96788,-2.8703,0.081627,-0.52104,-1.2844,-0.0054816,-0.73649,0.6626,0.072568,0.064517,0.089153,0.19024,0.2181
-0.015129,-0.009556,0.057755,0.03197,-0.096926,0.046536,-0.27148,0.00447,-0.41344,0.27247,0.11249,-1.1248,-2.56,0.096178,-0.43507,-1.2988,-0.022041,-0.76922,0.71233,0.083045,0.073041,0.086035,0.18577,0.21478
-0.012515,-0.010289,0.070179,0.027542,0.0067637,0.14498,-0.41246,0.21357,-0.4428,0.22595,0.073707,-1.2562,-2.1737,0.12549,-0.3234,-1.1866,-0.031573,-0.74489,0.79239,0.096912,0.081269,0.083236,0.18056,0.21108
-0.01003,-0.010526,0.07846,0.020067,0.10738,0.24397,-0.49676,0.40786,-0.45899,0.19234,0.022338,-1.3396,-1.8136,0.13813,-0.23508,-1.0312,-0.026683,-0.65215,0.86934,0.10859,0.08604,0.082871,0.17735,0.21885
-0.0087623,-0.0096032,0.08213,0.013559,0.17385,0.32592,-0.4848,0.56982,-0.48986,0.17051,-0.032929,-1.3842,-1.5345,0.10807,-0.20209,-0.84476,-0.0065517,-0.49993,0.90509,0.11421,0.08501,0.085171,0.17697,0.24402
-0.0086437,-0.0081709,0.084461,0.010513,0.19058,0.39293,-0.35796,0.69924,-0.53734,0.15447,-0.084515,-1.4146,-1.3168,0.028881,-0.22594,-0.57374,0.022627,-0.3151,0.88275,0.11395,0.078445,0.088423,0.17797,0.27785
-0.0085713,-0.0069476,0.08945,0.010012,0.16835,0.46653,-0.13761,0.80319,-0.57928,0.14009,-0.12533,-1.4451,-1.1009,-0.083289,-0.28448,-0.17761,0.05098,-0.13264,0.81714,0.11108,0.069137,0.08988,0.17754,0.30161
-0.0073804,-0.0056868,0.09789,0.0086337,0.13981,0.57182,0.11534,0.88408,-0.58929,0.12807,-0.15033,-1.4666,-0.84762,-0.19964,-0.34975,0.30157,0.069845,0.01677,0.7429,0.10896,0.060478,0.087289,0.17295,0.30025
-0.0047942,-0.0035054,0.10628,0.0033865,0.14051,0.71751,0.3242,0.93691,-0.55861,0.12086,-0.15993,-1.4562,-0.56752,-0.29477,-0.40309,0.7527,0.075275,0.11595,0.69015,0.10825,0.054236,0.08024,0.16292,0.27334
-0.0015823,-0.00013089,0.10978,-0.0057646,0.18722,0.88678,0.43164,0.95616,-0.50238,0.1175,-0.16187,-1.3974,-0.29683,-0.35783,-0.43949,1.0816,0.068488,0.16365,0.66605,0.10661,0.04974,0.070545,0.14824,0.23434
0.0010687,0.0034269,0.10663,-0.015865,0.2684,1.0456,0.42491,0.94436,-0.44691,0.1123,-0.16779,-1.2921,-0.05038,-0.39167,-0.46328,1.2821,0.053738,0.17054,0.65369,0.10059,0.045023,0.061334,0.13129,0.19896
0.0023406,0.0056556,0.10007,-0.023314,0.35443,1.1621,0.33549,0.91386,-0.41033,0.098895,-0.18562,-1.1551,0.19694,-0.40241,-0.4826,1.415,0.035467,0.15216,0.62562,0.087909,0.038933,0.055363,0.11486,0.17216
0.0021603,0.0060437,0.095829,-0.026526,0.42056,1.2222,0.21472,0.88124,-0.39311,0.075423,-0.21284,-1.0006,0.47989,-0.38899,-0.50706,1.5075,0.016488,0.12311,0.55991,0.068361,0.032539,0.053612,0.10095,0.14453
0.0011133,0.0057045,0.097441,-0.026785,0.46645,1.2338,0.10335,0.86008,-0.38432,0.04589,-0.23637,-0.83769,0.79216,-0.34231,-0.5472,1.4709,-0.0023089,0.094234,0.44884,0.043306,0.028752,0.055053,0.090089,0.10143
0.00015598,0.0063508,0.10335,-0.026911,0.51769,1.2166,0.015586,0.85838,-0.37497,0.016823,-0.24,-0.67846,1.0633,-0.25534,-0.61141,1.1295,-0.021225,0.07251,0.29899,0.014701,0.03043,0.057662,0.081585,0.038395
0.00026096,0.0085484,0.10829,-0.029167,0.60812,1.1903,-0.053624,0.88084,-0.36552,-0.0069657,-0.2145,-0.54738,1.1876,-0.13568,-0.69933,0.35919,-0.040749,0.061408,0.12815,-0.015206,0.038362,0.059814,0.074113,-0.028909
0.0019306,0.010981,0.10757,-0.034113,0.75508,1.1658,-0.10771,0.93124,-0.36183,-0.023522,-0.16347,-0.47598,1.0849,-0.0086773,-0.79683,-0.77106,-0.060689,0.06038,-0.037122,-0.043593,0.050559,0.061006,0.066244,-0.068876
0.0046673,0.011512,0.10069,-0.040894,0.9453,1.144,-0.13308,1.0108,-0.36603,-0.03174,-0.10106,-0.4811,0.75313,0.094186,-0.87896,-1.9771,-0.079671,0.063742,-0.16499,-0.067034,0.063294,0.061476,0.056638,-0.051541
0.0068615,0.0090666,0.091239,-0.048092,1.1408,1.1173,-0.10258,1.1137,-0.37237,-0.029753,-0.043972,-0.5444,0.27821,0.1547,-0.92205,-2.891,-0.095359,0.060656,-0.22699,-0.082342,0.072993,0.061201,0.044171,0.030791
0.0065493,0.004573,0.08362,-0.054249,1.3012,1.0718,0.0049946,1.2253,-0.37197,-0.016553,-0.0033411,-0.61471,-0.19839,0.18059,-0.91829,-3.2583,-0.10563,0.037845,-0.21122,-0.087985,0.077567,0.059215,0.028385,0.15345
0.0028192,0.00015876,0.079525,-0.057998,1.4063,0.992,0.18494,1.3276,-0.36093,0.0045507,0.018694,-0.63707,-0.53523,0.20109,-0.88153,-3.0579,-0.11024,-0.014825,-0.1321,-0.085141,0.076523,0.053892,0.010164,0.26794
-0.0031524,-0.0025259,0.077042,-0.058469,1.4665,0.86814,0.4023,1.4101,-0.34364,0.024986,0.02709,-0.58842,-0.64058,0.24791,-0.83813,-2.4639,-0.11186,-0.097971,-0.027077,-0.077576,0.070392,0.044141,-0.0080297,0.32577
-0.0084725,-0.0032482,0.072787,-0.056085,1.5131,0.70343,0.60736,1.4779,-0.32818,0.035136,0.029543,-0.49169,-0.4952,0.3361,-0.80706,-1.6902,-0.11506,-0.1993,0.060983,-0.0703,0.060545,0.030818,-0.022961,0.30404
-0.010316,-0.0026968,0.064907,-0.052949,1.5773,0.51558,0.7606,1.5501,-0.31882,0.031164,0.032842,-0.39685,-0.14129,0.45799,-0.78355,-0.85048,-0.12383,-0.2966,0.10525,-0.067661,0.04966,0.017389,-0.032221,0.21704
-0.007871,-0.0013704,0.054369,-0.051829,1.6698,0.3287,0.85056,1.648,-0.31277,0.018494,0.041154,-0.3443,0.35155,0.59231,-0.73952,0.056918,-0.13908,-0.36757,0.10473,-0.071795,0.041933,0.0091616,-0.035466,0.10642
-0.0028832,0.00078486,0.043825,-0.053987,1.7754,0.16068,0.89345,1.7801,-0.30379,0.0080871,0.055625,-0.33952,0.91871,0.71726,-0.64327,1.0417,-0.15824,-0.402,0.075118,-0.082129,0.041834,0.011083,-0.034225,0.016305
0.00168,0.0035906,0.035434,-0.057555,1.8618,0.01643,0.91573,1.9352,-0.28873,0.0079354,0.074567,-0.35675,1.509,0.8156,-0.48506,2.0018,-0.17738,-0.40895,0.029118,-0.096037,0.051546,0.025069,-0.030464,-0.030851
0.0038051,0.0057266,0.029628,-0.058255,1.8974,-0.1075,0.93221,2.0883,-0.27068,0.016776,0.094407,-0.36428,2.0682,0.87056,-0.28883,2.7136,-0.19383,-0.41246,-0.036376,-0.11016,0.068916,0.048495,-0.025249,-0.043023
0.0037025,0.0050528,0.025502,-0.052514,1.8663,-0.21197,0.9348,2.2169,-0.25631,0.025575,0.11182,-0.34744,2.5234,0.86249,-0.098976,2.9569,-0.20726,-0.43663,-0.13454,-0.12155,0.08801,0.075146,-0.0188,-0.048848
0.0032085,0.00031671,0.021966,-0.040739,1.7713,-0.28915,0.89974,2.3143,-0.25024,0.025633,0.12631,-0.31165,2.7939,0.77559,0.049474,2.6782,-0.21816,-0.48873,-0.26972,-0.12821,0.10247,0.098445,-0.011753,-0.078323
0.0039138,-0.0071929,0.018403,-0.027908,1.6293,-0.32731,0.80831,2.3919,-0.25158,0.016308,0.14123,-0.26814,2.8305,0.61205,0.15445,2.0514,-0.22577,-0.5522,-0.4231,-0.12888,0.1094,0.11494,-0.0061085,-0.14721
0.0056422,-0.013816,0.014559,-0.020535,1.4624,-0.3215,0.66605,2.4681,-0.25495,0.0056251,0.16164,-0.22041,2.6462,0.39931,0.24432,1.372,-0.22756,-0.5958,-0.55743,-0.12304,0.11061,0.12549,-0.0045336,-0.25251
0.0065821,-0.015859,0.010286,-0.02211,1.2941,-0.27898,0.50567,2.5519,-0.25444,0.0033443,0.18946,-0.16581,2.3067,0.18019,0.34999,0.86001,-0.22139,-0.59379,-0.63773,-0.1114,0.11013,0.13314,-0.0084233,-0.37709
0.0049801,-0.012433,0.0056791,-0.030564,1.1477,-0.21455,0.36962,2.6355,-0.24679,0.012642,0.21929,-0.10905,1.8833,-0.0092487,0.47364,0.52313,-0.20832,-0.5434,-0.65051,-0.096678,0.10992,0.13922,-0.016498,-0.49722
0.00097614,-0.0064007,0.0012535,-0.039881,1.0439,-0.14192,0.28396,2.6994,-0.23198,0.027591,0.23805,-0.071058,1.413,-0.15613,0.58021,0.18618,-0.19337,-0.46672,-0.60485,-0.083545,0.10771,0.14105,-0.025401,-0.58892
-0.0030363,-0.0024099,-0.0024773,-0.044571,0.99424,-0.070289,0.24218,2.7285,-0.21188,0.03832,0.22977,-0.080167,0.90623,-0.26807,0.62025,-0.3394,-0.18283,-0.39533,-0.51607,-0.076728,0.098755,0.13349,-0.031894,-0.63411
-0.0039985,-0.0033625,-0.0059006,-0.043433,0.9937,-0.0081744,0.21163,2.7252,-0.18898,0.039007,0.18288,-0.14961,0.39116,-0.35559,0.56717,-1.0817,-0.17971,-0.34839,-0.38863,-0.077712,0.080319,0.11349,-0.034776,-0.62749
-0.00057821,-0.0081326,-0.010643,-0.039712,1.0198,0.03365,0.15799,2.711,-0.16629,0.031706,0.095974,-0.25941,-0.058886,-0.4182,0.43998,-1.8638,-0.18044,-0.31971,-0.21577,-0.082151,0.054967,0.083976,-0.034957,-0.58154
0.0055598,-0.012464,-0.018531,-0.037828,1.0405,0.047866,0.069331,2.7138,-0.14726,0.023067,-0.021433,-0.35917,-0.35955,-0.44777,0.29439,-2.4145,-0.17543,-0.28301,0.0033507,-0.080544,0.029706,0.053488,-0.03391,-0.52405
0.010755,-0.012457,-0.029771,-0.039606,1.0265,0.041602,-0.038624,2.7508,-0.13505,0.017352,-0.1532,-0.3925,-0.48824,-0.44482,0.18987,-2.5443,-0.1536,-0.21116,0.24588,-0.062912,0.011505,0.031297,-0.032127,-0.48585
0.011974,-0.007893,-0.042069,-0.043038,0.96086,0.039692,-0.13908,2.8164,-0.13111,0.012126,-0.2833,-0.32802,-0.52274,-0.4289,0.15782,-2.2562,-0.10858,-0.095997,0.46606,-0.025245,0.002639,0.021314,-0.029014,-0.48453
0.0090254,-0.0026501,-0.05183,-0.044244,0.83997,0.071337,-0.21842,2.8843,-0.13448,0.00033294,-0.40108,-0.17801,-0.59343,-0.42964,0.19267,-1.7239,-0.043314,0.044618,0.61798,0.026513,-0.0005906,0.019481,-0.024146,-0.51495
0.0045997,-0.0017665,-0.05666,-0.040702,0.66978,0.1472,-0.28835,2.9189,-0.14258,-0.023275,-0.50248,0.0054388,-0.77867,-0.46438,0.26793,-1.172,0.029534,0.1759,0.6836,0.078139,-0.0049496,0.016769,-0.01858,-0.55421
0.0021081,-0.0074243,-0.057072,-0.0331,0.46268,0.24601,-0.37707,2.8908,-0.15277,-0.05682,-0.58731,0.15443,-1.0353,-0.52273,0.3607,-0.75038,0.092034,0.26419,0.68332,0.11397,-0.015549,0.0056269,-0.014951,-0.5782
0.0030857,-0.017056,-0.055907,-0.024655,0.23735,0.32452,-0.50782,2.7873,-0.16294,-0.091167,-0.65518,0.21774,-1.2323,-0.57315,0.46513,-0.48356,0.12831,0.29162,0.66043,0.12473,-0.032763,-0.014971,-0.016189,-0.57788
0.0062332,-0.025111,-0.056045,-0.018791,0.018071,0.34536,-0.68213,2.6138,-0.17035,-0.1144,-0.70333,0.18712,-1.2604,-0.58652,0.58719,-0.30678,0.13115,0.25967,0.65169,0.11131,-0.052678,-0.039476,-0.023787,-0.56421
0.0087296,-0.027086,-0.058417,-0.017108,-0.17045,0.30184,-0.8794,2.3895,-0.17007,-0.11699,-0.72781,0.10388,-1.1196,-0.55668,0.72895,-0.14292,0.10452,0.18249,0.66735,0.082449,-0.070233,-0.060305,-0.036815,-0.5599
0.0085523,-0.02268,-0.061885,-0.018906,-0.31113,0.22137,-1.07,2.1419,-0.15536,-0.09441,-0.72644,0.039199,-0.90469,-0.50148,0.87708,0.039581,0.060439,0.077313,0.6948,0.048524,-0.082478,-0.073081,-0.052308,-0.58636
0.0058568,-0.015683,-0.064763,-0.022149,-0.39846,0.14773,-1.2299,1.904,-0.12112,-0.047163,-0.70042,0.054745,-0.70893,-0.44609,1.0047,0.22011,0.012496,-0.040837,0.71974,0.015947,-0.089736,-0.078594,-0.066767,-0.6565
0.0024913,-0.010899,-0.066427,-0.024827,-0.43423,0.11884,-1.3462,1.711,-0.068264,0.01953,-0.65285,0.16513,-0.54278,-0.40497,1.0848,0.36091,-0.030338,-0.15926,0.74463,-0.014321,-0.094264,-0.080628,-0.077881,-0.77628
0.00038984,-0.010652,-0.067699,-0.025766,-0.41951,0.15662,-1.4153,1.5942,-0.0054484,0.095504,-0.58571,0.32718,-0.34351,-0.3766,1.1048,0.44967,-0.06594,-0.26628,0.78841,-0.044202,-0.097873,-0.082172,-0.08543,-0.94855
0.00033814,-0.01356,-0.069974,-0.024717,-0.3533,0.27006,-1.438,1.5698,0.054149,0.16651,-0.49884,0.46634,-0.0565,-0.35072,1.0732,0.51773,-0.096792,-0.35269,0.86884,-0.074666,-0.10044,-0.083454,-0.090855,-1.17
0.0019152,-0.016255,-0.074083,-0.022165,-0.24263,0.45931,-1.4197,1.6296,0.099569,0.21827,-0.3929,0.52435,0.30356,-0.31665,1.0134,0.62349,-0.12566,-0.41572,0.98447,-0.10364,-0.10031,-0.083013,-0.095818,-1.42
0.0041819,-0.016344,-0.079791,-0.01921,-0.11589,0.70985,-1.3736,1.7403,0.12766,0.24269,-0.27407,0.49451,0.6761,-0.26475,0.95081,0.81543,-0.1525,-0.46093,1.1126,-0.12672,-0.096014,-0.080226,-0.10086,-1.6513
0.0062174,-0.014114,-0.086098,-0.017366,-0.023299,0.98157,-1.3196,1.8572,0.1434,0.24179,-0.15557,0.41892,1.0307,-0.18448,0.89986,1.1019,-0.17439,-0.49842,1.2248,-0.13961,-0.087663,-0.076641,-0.10523,-1.7967
0.0071887,-0.011808,-0.09186,-0.017921,-0.01673,1.2097,-1.2779,1.9445,0.15462,0.22521,-0.052833,0.35122,1.4009,-0.068036,0.85927,1.4498,-0.18775,-0.53468,1.305,-0.14036,-0.077017,-0.074994,-0.10793,-1.795
0.0063993,-0.011444,-0.096254,-0.020965,-0.11888,1.3285,-1.2595,1.9892,0.16543,0.20256,0.025309,0.31527,1.8252,0.0786,0.81592,1.8133,-0.19059,-0.56623,1.3556,-0.13016,-0.06625,-0.077023,-0.10921,-1.6252
0.0037237,-0.013223,-0.098978,-0.02488,-0.30469,1.3088,-1.2627,1.9981,0.17321,0.17681,0.08256,0.29237,2.2481,0.2275,0.75382,2.1711,-0.1833,-0.58111,1.3851,-0.11267,-0.05669,-0.082196,-0.1108,-1.3247
9.4879e-005,-0.015766,-0.10026,-0.02709,-0.51126,1.182,-1.2782,1.9821,0.17157,0.14495,0.13273,0.24461,2.496,0.33552,0.66215,2.5413,-0.16805,-0.56797,1.3916,-0.092406,-0.048554,-0.088342,-0.11478,-0.9764
-0.0027227,-0.017603,-0.10077,-0.025851,-0.67158,1.0282,-1.2994,1.9407,0.15646,0.10533,0.18965,0.15211,2.381,0.3663,0.53904,2.9576,-0.14789,-0.52609,1.3566,-0.073007,-0.041653,-0.093396,-0.12167,-0.66855
-0.0032727,-0.018313,-0.10134,-0.021702,-0.74862,0.9323,-1.3277,1.8627,0.13048,0.064661,0.25681,0.031872,1.8575,0.31248,0.3913,3.4234,-0.12623,-0.46833,1.2541,-0.056272,-0.036086,-0.09662,-0.12962,-0.45193
-0.0016068,-0.018365,-0.1026,-0.017217,-0.7471,0.93557,-1.3666,1.7413,0.10202,0.03689,0.32488,-0.07673,1.0905,0.2004,0.23249,3.8804,-0.10651,-0.41409,1.07,-0.042276,-0.032123,-0.098404,-0.13553,-0.32163
0.00062519,-0.01817,-0.10476,-0.015082,-0.69822,1.0166,-1.408,1.5899,0.080261,0.033626,0.3796,-0.14637,0.35837,0.072492,0.080261,4.2255,-0.091385,-0.3775,0.81296,-0.030466,-0.029459,-0.099221,-0.13735,-0.2342
0.0014484,-0.017575,-0.10767,-0.01616,-0.63286,1.1127,-1.4233,1.4429,0.069924,0.05401,0.41395,-0.18761,-0.13863,-0.039249,-0.048053,4.372,-0.081624,-0.35978,0.51166,-0.020857,-0.026829,-0.098927,-0.13581,-0.14603
0.00013481,-0.016357,-0.11105,-0.019265,-0.56432,1.1635,-1.3707,1.3373,0.069522,0.083407,0.43498,-0.24637,-0.40331,-0.12878,-0.1419,4.3114,-0.075765,-0.35137,0.20054,-0.014381,-0.022671,-0.097059,-0.13398,-0.044986
-0.002323,-0.014974,-0.11473,-0.022747,-0.49001,1.1444,-1.2174,1.2894,0.073593,0.10301,0.45962,-0.37621,-0.59395,-0.21041,-0.203,4.1296,-0.071306,-0.3413,-0.094366,-0.012107,-0.016395,-0.093626,-0.13506,0.045692
-0.0042084,-0.014544,-0.11849,-0.026181,-0.40518,1.0691,-0.96341,1.2843,0.076416,0.10285,0.50243,-0.6049,-0.85193,-0.29961,-0.24466,3.9595,-0.066758,-0.32579,-0.36066,-0.013999,-0.009072,-0.089407,-0.14001,0.090505
-0.0045469,-0.015905,-0.12186,-0.030349,-0.31449,0.96656,-0.64984,1.2868,0.074329,0.087545,0.56483,-0.91512,-1.1624,-0.39749,-0.28234,3.9037,-0.062752,-0.30935,-0.59538,-0.018354,-0.0027634,-0.085349,-0.14694,0.071589
-0.0037065,-0.018722,-0.12419,-0.035521,-0.23228,0.85437,-0.34219,1.2641,0.065737,0.070528,0.63393,-1.2468,-1.3704,-0.49088,-0.32073,3.9825,-0.060945,-0.29838,-0.79735,-0.022486,0.0010258,-0.081643,-0.1526,0.0023389
-0.0027594,-0.021642,-0.12507,-0.039938,-0.17361,0.72962,-0.098848,1.2023,0.050033,0.06229,0.69159,-1.5175,-1.3308,-0.56512,-0.34739,4.1378,-0.061553,-0.29371,-0.96277,-0.0242,0.002419,-0.077484,-0.15483,-0.083459
-0.0024389,-0.023375,-0.12469,-0.040402,-0.14407,0.57935,0.055747,1.1086,0.027104,0.062811,0.7265,-1.6526,-1.0489,-0.6162,-0.34083,4.2807,-0.06182,-0.28859,-1.0865,-0.022892,0.0027673,-0.071901,-0.154,-0.15549
-0.0027354,-0.0236,-0.12378,-0.034802,-0.13559,0.39861,0.13634,1.0004,-0.0022368,0.063807,0.74025,-1.6178,-0.68617,-0.65064,-0.28931,4.3399,-0.057037,-0.27317,-1.1667,-0.019383,0.0031269,-0.064993,-0.15234,-0.20322
-0.0032996,-0.022858,-0.12302,-0.024344,-0.1304,0.20021,0.17904,0.89371,-0.035685,0.057563,0.74413,-1.4401,-0.43188,-0.67357,-0.20629,4.2796,-0.043295,-0.24059,-1.2081,-0.014571,0.0030481,-0.058427,-0.15196,-0.23233
-0.00393,-0.021757,-0.12249,-0.013227,-0.11044,0.009629,0.21518,0.79704,-0.069531,0.043992,0.75063,-1.205,-0.36235,-0.67695,-0.1288,4.0927,-0.019493,-0.18915,-1.2214,-0.0080275,0.00091719,-0.054615,-0.15329,-0.24713
-0.0044984,-0.020525,-0.12168,-0.0057056,-0.067404,-0.14936,0.25557,0.71199,-0.099184,0.030352,0.76715,-1.021,-0.41026,-0.64034,-0.097292,3.7936,0.012995,-0.11906,-1.2182,0.002117,-0.0042857,-0.055126,-0.15501,-0.23692
-0.0045591,-0.019384,-0.11989,-0.0029193,-0.0080076,-0.26713,0.29417,0.63427,-0.11965,0.025042,0.79605,-0.96565,-0.45787,-0.54617,-0.1316,3.4276,0.052015,-0.02815,-1.2064,0.017528,-0.011346,-0.059582,-0.15538,-0.18057
-0.0034449,-0.019055,-0.11674,-0.0021944,0.049404,-0.35039,0.32432,0.55448,-0.1262,0.031537,0.83873,-1.0434,-0.45714,-0.39832,-0.2215,3.08,0.09532,0.088441,-1.1888,0.037275,-0.01697,-0.065912,-0.15362,-0.066186
-0.0011091,-0.020418,-0.11229,0.00052554,0.086173,-0.41378,0.35165,0.46109,-0.11605,0.047119,0.89799,-1.1866,-0.46649,-0.22836,-0.33897,2.8591,0.13929,0.23322,-1.1651,0.056771,-0.018042,-0.07175,-0.15001,0.091664
0.0011349,-0.023437,-0.10687,0.0071277,0.095952,-0.46698,0.39228,0.34725,-0.091067,0.066134,0.97537,-1.3011,-0.58142,-0.082257,-0.46088,2.8445,0.17757,0.3999,-1.1356,0.069564,-0.014438,-0.075834,-0.14508,0.25467
0.0011355,-0.026581,-0.10095,0.015623,0.089363,-0.50631,0.45838,0.21744,-0.059427,0.084078,1.0657,-1.3256,-0.83459,0.0043758,-0.58223,3.0335,0.20233,0.5712,-1.1003,0.071359,-0.01006,-0.07839,-0.13882,0.38368
-0.0022878,-0.027829,-0.095037,0.021715,0.086114,-0.51659,0.54388,0.087185,-0.033311,0.099443,1.155,-1.2611,-1.1594,0.025165,-0.70951,3.331,0.20858,0.72362,-1.0555,0.063426,-0.010875,-0.080417,-0.13076,0.4639
-0.0077892,-0.026647,-0.08968,0.022391,0.09974,-0.48291,0.623,-0.02632,-0.022423,0.11316,1.2257,-1.1534,-1.4428,0.0026355,-0.84242,3.6009,0.1982,0.8369,-0.99139,0.052405,-0.020995,-0.082688,-0.12099,0.51109
-0.011982,-0.025016,-0.085109,0.0186,0.12698,-0.4047,0.66391,-0.11574,-0.027098,0.12724,1.2662,-1.047,-1.6103,-0.030204,-0.96306,3.7475,0.17963,0.90244,-0.89502,0.046059,-0.039545,-0.085325,-0.11067,0.55284
-0.012044,-0.026059,-0.080845,0.014833,0.15073,-0.30201,0.64773,-0.18728,-0.036856,0.14353,1.2759,-0.95227,-1.666,-0.051885,-1.0444,3.7684,0.16264,0.92605,-0.75956,0.048007,-0.060663,-0.088068,-0.10146,0.60039
-0.0083228,-0.031129,-0.075673,0.015813,0.15414,-0.20777,0.57971,-0.25267,-0.037022,0.16248,1.2616,-0.85094,-1.6608,-0.062191,-1.0713,3.7394,0.15214,0.92367,-0.59156,0.05562,-0.076757,-0.090611,-0.094197,0.63474
-0.0044278,-0.037952,-0.068196,0.022855,0.1336,-0.14952,0.48568,-0.31668,-0.019422,0.18144,1.2258,-0.72812,-1.6324,-0.074585,-1.0556,3.7443,0.1463,0.91332,-0.40964,0.06287,-0.082734,-0.092473,-0.087999,0.61952
-0.0043971,-0.041854,-0.057666,0.032764,0.099434,-0.13258,0.39771,-0.37185,0.011097,0.19387,1.1592,-0.59838,-1.5746,-0.099954,-1.0304,3.8047,0.14043,0.90752,-0.23402,0.065679,-0.078307,-0.092621,-0.080819,0.53061
-0.0092788,-0.039395,-0.044467,0.040203,0.064124,-0.13717,0.33916,-0.40594,0.039999,0.19074,1.0447,-0.50127,-1.4567,-0.1353,-1.0273,3.8598,0.13281,0.91018,-0.074761,0.065143,-0.067119,-0.089577,-0.071029,0.37932
-0.016194,-0.031368,-0.029919,0.041736,0.02933,-0.13254,0.31768,-0.41575,0.054051,0.16443,0.8738,-0.47245,-1.2615,-0.16464,-1.0546,3.8068,0.12663,0.91784,0.071901,0.065858,-0.053848,-0.082391,-0.058702,0.2114
-0.02075,-0.022474,-0.015591,0.038362,-0.016079,-0.098333,0.3278,-0.41493,0.051217,0.11302,0.66162,-0.51708,-0.99868,-0.16881,-1.0919,3.5658,0.12626,0.9234,0.21661,0.070972,-0.041703,-0.071801,-0.045477,0.082961
-0.020629,-0.017758,-0.002619,0.034521,-0.085011,-0.037537,0.35795,-0.42832,0.041448,0.042339,0.44835,-0.60677,-0.6858,-0.1354,-1.1047,3.1259,0.13158,0.91938,0.36524,0.078506,-0.031843,-0.060371,-0.033165,0.030661
-0.017174,-0.018815,0.0086144,0.034407,-0.17798,0.028097,0.39643,-0.47683,0.037867,-0.035613,0.28244,-0.69835,-0.32643,-0.063568,-1.0674,2.5455,0.13642,0.89993,0.5115,0.082343,-0.024369,-0.051038,-0.02236,0.055242
-0.0138,-0.022898,0.018407,0.038657,-0.27852,0.075208,0.43403,-0.56394,0.045521,-0.10674,0.19672,-0.75556,0.082238,0.035747,-0.97797,1.9192,0.13336,0.8628,0.63831,0.077139,-0.01934,-0.045024,-0.012202,0.1256
-0.012963,-0.025534,0.027406,0.044156,-0.36271,0.094037,0.46502,-0.67314,0.056245,-0.15952,0.19367,-0.75848,0.51692,0.14124,-0.85709,1.3373,0.12087,0.8116,0.72563,0.062977,-0.016815,-0.040907,-0.0013152,0.1967
-0.014519,-0.024241,0.036182,0.04703,-0.41519,0.090191,0.48915,-0.77662,0.052621,-0.18871,0.24847,-0.70081,0.90898,0.22475,-0.73599,0.85481,0.10601,0.75717,0.75946,0.045818,-0.016243,-0.035881,0.011127,0.22891
-0.016604,-0.020196,0.044916,0.046141,-0.43899,0.074131,0.5141,-0.84873,0.017159,-0.19706,0.32493,-0.58571,1.1717,0.25968,-0.64202,0.47743,0.099563,0.71497,0.73827,0.033371,-0.016302,-0.028284,0.025152,0.19994
-0.017694,-0.016751,0.053457,0.043954,-0.45158,0.050082,0.55519,-0.87646,-0.059693,-0.19461,0.39165,-0.42647,1.2642,0.23431,-0.59021,0.16054,0.10729,0.69793,0.67577,0.02975,-0.015664,-0.019213,0.040542,0.10774
-0.01769,-0.016394,0.061764,0.044032,-0.47092,0.014903,0.62872,-0.86358,-0.17618,-0.19504,0.4296,-0.24772,1.2415,0.1627,-0.58209,-0.17391,0.12489,0.70863,0.59887,0.033085,-0.014083,-0.011685,0.057319,-0.03345
-0.01729,-0.018797,0.070357,0.047417,-0.50285,-0.033602,0.74044,-0.82849,-0.31982,-0.20982,0.4316,-0.079235,1.2412,0.08276,-0.60873,-0.60033,0.141,0.73674,0.53965,0.037672,-0.012696,-0.007973,0.075428,-0.20091
-0.016832,-0.021318,0.080176,0.05122,-0.5395,-0.089115,0.87536,-0.79817,-0.46972,-0.24297,0.39985,0.057573,1.4044,0.037727,-0.65425,-1.1412,0.14581,0.76482,0.52154,0.038572,-0.01318,-0.0074216,0.0938,-0.37298
-0.01609,-0.021203,0.091756,0.050835,-0.56931,-0.13901,0.99714,-0.79974,-0.60015,-0.28919,0.34487,0.16058,1.778,0.050103,-0.69851,-1.7347,0.138,0.77842,0.54535,0.034913,-0.016453,-0.0066705,0.10978,-0.53645
-0.015126,-0.017602,0.1044,0.043955,-0.58949,-0.17477,1.0608,-0.85197,-0.68573,-0.33691,0.28357,0.245,2.2704,0.1061,-0.71984,-2.246,0.12432,0.77246,0.58411,0.029441,-0.021978,-0.0021212,0.11973,-0.68772
-0.014823,-0.012047,0.11632,0.032965,-0.60961,-0.20013,1.0339,-0.95961,-0.70794,-0.37397,0.23299,0.32894,2.6954,0.16391,-0.699,-2.5281,0.11271,0.74886,0.5931,0.025065,-0.028114,0.0074405,0.12081,-0.82673
-0.016041,-0.0073336,0.12591,0.023532,-0.64234,-0.22817,0.91373,-1.1129,-0.66013,-0.39216,0.20135,0.41811,2.8844,0.18274,-0.62434,-2.5016,0.10537,0.70831,0.53204,0.021424,-0.033031,0.020162,0.113,-0.94852
-0.018064,-0.0056907,0.13314,0.020371,-0.68794,-0.26921,0.73076,-1.2921,-0.54853,-0.38849,0.18292,0.50234,2.7953,0.15303,-0.49652,-2.2035,0.097649,0.64487,0.38767,0.014429,-0.035489,0.032691,0.1001,-1.041
-0.018233,-0.0073566,0.13952,0.023535,-0.72613,-0.32064,0.53355,-1.4746,-0.38944,-0.36392,0.16208,0.56603,2.55,0.10558,-0.32995,-1.7717,0.083197,0.54968,0.18294,-0.00063873,-0.035221,0.042427,0.088837,-1.0935
-0.013837,-0.010337,0.14666,0.028127,-0.72434,-0.36822,0.36471,-1.6407,-0.20519,-0.3224,0.12466,0.60292,2.3674,0.091554,-0.14913,-1.3711,0.060445,0.4211,-0.033227,-0.024681,-0.033109,0.048613,0.08623,-1.1094
-0.0049753,-0.011591,0.15456,0.027718,-0.65936,-0.39804,0.24158,-1.7758,-0.020993,-0.27105,0.068017,0.62252,2.4328,0.14673,0.019571,-1.1113,0.034452,0.27176,-0.20969,-0.052559,-0.031191,0.051708,0.096109,-1.1119
0.0043361,-0.0090823,0.16138,0.018889,-0.53711,-0.40857,0.15285,-1.8719,0.13824,-0.21993,0.002229,0.64317,2.7822,0.26566,0.15752,-1.0073,0.012796,0.12488,-0.31692,-0.075368,-0.032116,0.052112,0.11671,-1.1322
0.0084441,-0.0033994,0.16519,0.0036114,-0.39409,-0.41252,0.071463,-1.9277,0.25327,-0.1792,-0.057951,0.67808,3.2777,0.40446,0.25979,-1.0037,-0.00058362,0.001244,-0.35798,-0.086325,-0.037744,0.049623,0.14097,-1.186
0.0043294,0.0024381,0.16598,-0.012143,-0.27611,-0.42699,-0.026101,-1.9492,0.31722,-0.15442,-0.10369,0.72567,3.6889,0.50972,0.3344,-1.0345,-0.0081712,-0.093283,-0.36203,-0.086282,-0.047509,0.04403,0.15987,-1.2565
-0.0056139,0.0051948,0.16601,-0.022428,-0.20745,-0.46043,-0.14709,-1.948,0.33878,-0.1438,-0.13716,0.77125,3.8261,0.55188,0.39563,-1.0658,-0.016139,-0.16963,-0.3654,-0.08437,-0.057995,0.036004,0.16735,-1.3003
-0.014856,0.0041338,0.16795,-0.025154,-0.17333,-0.50714,-0.28321,-1.9371,0.33698,-0.14043,-0.16819,0.79802,3.6361,0.5389,0.45583,-1.088,-0.028775,-0.24547,-0.39166,-0.092343,-0.064702,0.027155,0.16373,-1.2749
-0.017284,0.0019108,0.17241,-0.023206,-0.13092,-0.55305,-0.42178,-1.9254,0.32943,-0.13832,-0.20612,0.79848,3.2043,0.50226,0.52071,-1.0733,-0.04481,-0.33119,-0.44227,-0.11599,-0.065229,0.01904,0.1552,-1.1693
-0.011452,0.0025663,0.17725,-0.022275,-0.043388,-0.58775,-0.55791,-1.915,0.32225,-0.13646,-0.25296,0.77803,2.6778,0.46869,0.59022,-0.94933,-0.058205,-0.42236,-0.5028,-0.14992,-0.061463,0.011983,0.14961,-1.0123
-0.001192,0.0080373,0.1792,-0.027005,0.086885,-0.61319,-0.69894,-1.9021,0.31076,-0.13702,-0.30235,0.74884,2.1776,0.44103,0.66269,-0.62756,-0.062018,-0.5033,-0.55997,-0.18009,-0.05869,0.00486,0.15121,-0.85136
0.0076477,0.016163,0.17652,-0.038004,0.21145,-0.64269,-0.85909,-1.88,0.29077,-0.13914,-0.34411,0.7195,1.7626,0.40168,0.73776,-0.078093,-0.0518,-0.55786,-0.61721,-0.19277,-0.061824,-0.0037947,0.15814,-0.71858
0.011442,0.022108,0.17029,-0.051602,0.26237,-0.69171,-1.0486,-1.8433,0.27039,-0.13501,-0.37112,0.68895,1.4497,0.33306,0.81579,0.61079,-0.02629,-0.57875,-0.6965,-0.18356,-0.071525,-0.014213,0.16433,-0.60996
0.010659,0.022211,0.16328,-0.062356,0.19509,-0.76702,-1.2643,-1.7904,0.26984,-0.11363,-0.38401,0.64931,1.2483,0.23575,0.89466,1.2482,0.013807,-0.5697,-0.82394,-0.15979,-0.083293,-0.024677,0.16413,-0.49492
0.0083583,0.017003,0.15749,-0.066536,0.018449,-0.86156,-1.4856,-1.7254,0.30629,-0.070108,-0.39114,0.59512,1.165,0.12963,0.96768,1.6377,0.066472,-0.54053,-1.009,-0.13516,-0.090387,-0.032399,0.1561,-0.34593
0.0072187,0.010802,0.15251,-0.064292,-0.2082,-0.95749,-1.678,-1.6592,0.37447,-0.012714,-0.40388,0.53089,1.1773,0.038995,1.025,1.6924,0.12709,-0.49989,-1.2333,-0.12125,-0.088375,-0.03545,0.1432,-0.1626
0.0078163,0.0081913,0.14619,-0.059195,-0.40733,-1.0345,-1.802,-1.6076,0.43998,0.039608,-0.43005,0.4696,1.2185,-0.023467,1.0579,1.4845,0.18667,-0.45055,-1.4593,-0.12249,-0.077824,-0.034227,0.12991,0.029326
0.0092411,0.010421,0.13683,-0.055652,-0.52195,-1.0783,-1.8243,-1.5856,0.45467,0.068142,-0.4695,0.42243,1.2036,-0.060192,1.0625,1.1898,0.23245,-0.38913,-1.6515,-0.13727,-0.063264,-0.031194,0.11886,0.20115
0.010812,0.014722,0.12499,-0.05607,-0.53621,-1.0843,-1.7307,-1.5972,0.38678,0.06541,-0.51436,0.38835,1.0826,-0.078996,1.0407,0.96968,0.25255,-0.30926,-1.7957,-0.16215,-0.049485,-0.028983,0.10984,0.34442
0.012886,0.016888,0.11325,-0.059592,-0.46903,-1.0573,-1.5339,-1.63,0.24592,0.037897,-0.55369,0.35391,0.8727,-0.081637,0.99791,0.8781,0.24272,-0.20582,-1.9015,-0.19447,-0.038203,-0.028337,0.10116,0.473
0.016024,0.0147,0.10399,-0.063054,-0.35188,-1.0081,-1.2727,-1.6578,0.08399,-0.0005046,-0.57873,0.30617,0.63559,-0.062339,0.94046,0.85687,0.21046,-0.078488,-1.9866,-0.23114,-0.027531,-0.0276,0.091797,0.60277
0.019641,0.0093179,0.097235,-0.063273,-0.21016,-0.95067,-1.0003,-1.6544,-0.030816,-0.037605,-0.58545,0.24944,0.42014,-0.016688,0.87473,0.80623,0.17283,0.066336,-2.058,-0.26636,-0.014356,-0.024245,0.082152,0.72816
0.021808,0.003819,0.090545,-0.05906,-0.059956,-0.89943,-0.76413,-1.6103,-0.051047,-0.067081,-0.57285,0.21064,0.22502,0.049348,0.80638,0.6625,0.14792,0.2154,-2.1027,-0.29191,0.0025102,-0.017189,0.07326,0.81867
0.020701,0.00059821,0.081244,-0.051717,0.083751,-0.86606,-0.58722,-1.5392,0.025802,-0.086312,-0.53988,0.22532,0.017194,0.1203,0.73842,0.42284,0.14499,0.35036,-2.0944,-0.3008,0.020861,-0.0079575,0.065413,0.84091
0.01646,-2.5949e-005,0.069123,-0.043942,0.20096,-0.85655,-0.46174,-1.4681,0.16073,-0.092893,-0.48452,0.31198,-0.21422,0.18145,0.66845,0.11587,0.15983,0.45109,-2.0089,-0.29096,0.036282,0.00025039,0.057523,0.78909
0.011681,0.0008327,0.057119,-0.038121,0.27256,-0.86941,-0.35941,-1.4185,0.29946,-0.085,-0.40676,0.45429,-0.42598,0.2282,0.58884,-0.23413,0.17882,0.50025,-1.8372,-0.26523,0.044901,0.0047578,0.047492,0.69792
0.0098198,0.0021491,0.049122,-0.035219,0.29526,-0.89774,-0.2528,-1.391,0.40163,-0.065181,-0.31288,0.6069,-0.54739,0.2652,0.49319,-0.60938,0.18888,0.48817,-1.5892,-0.22745,0.045678,0.0050055,0.033134,0.62533
0.012621,0.0037043,0.046575,-0.03484,0.29186,-0.93505,-0.13369,-1.3691,0.45397,-0.042149,-0.21653,0.72312,-0.54414,0.29629,0.38604,-0.9762,0.18635,0.41706,-1.2912,-0.1787,0.040823,0.0023557,0.013269,0.61697
0.01857,0.0055161,0.046806,-0.036058,0.30426,-0.98148,-0.017056,-1.3366,0.46332,-0.026551,-0.13382,0.7846,-0.45942,0.31564,0.28748,-1.282,0.17856,0.303,-0.97977,-0.1178,0.034369,-0.0014594,-0.011167,0.68003
0.023706,0.006972,0.044674,-0.038163,0.36923,-1.0452,0.071346,-1.2941,0.44105,-0.023164,-0.075081,0.81102,-0.39182,0.30936,0.225,-1.4947,0.17711,0.17393,-0.69479,-0.04615,0.030056,-0.005743,-0.036395,0.78599
0.024371,0.0068699,0.036291,-0.040796,0.49148,-1.1365,0.11435,-1.2583,0.39381,-0.026777,-0.039328,0.8425,-0.42713,0.26621,0.21552,-1.6532,0.18849,0.063051,-0.47071,0.027946,0.029734,-0.010964,-0.05636,0.89818
0.019936,0.004452,0.021772,-0.043696,0.63366,-1.2584,0.11617,-1.2424,0.32602,-0.026655,-0.016684,0.90915,-0.5814,0.18744,0.25064,-1.869,0.20904,-0.0012669,-0.32484,0.09045,0.032957,-0.017778,-0.065171,0.99982
0.01347,0.0003564,0.004841,-0.046587,0.73309,-1.3996,0.10053,-1.2348,0.24707,-0.01669,0.0023366,1.0109,-0.79952,0.086919,0.29837,-2.2561,0.22769,-0.0055506,-0.24779,0.12885,0.037715,-0.025987,-0.060456,1.0993
0.0096937,-0.0035883,-0.010165,-0.04935,0.73633,-1.5382,0.096175,-1.1963,0.17321,-0.0024355,0.017575,1.1215,-1.0025,-0.017569,0.32245,-2.8351,0.2336,0.043674,-0.20396,0.1402,0.041845,-0.034307,-0.045314,1.2115
0.011549,-0.0056666,-0.021169,-0.052045,0.62884,-1.6537,0.11989,-1.0826,0.1214,0.0017913,0.017696,1.2112,-1.1392,-0.11298,0.30514,-3.4946,0.22258,0.12292,-0.14674,0.13316,0.044388,-0.040894,-0.027055,1.3344
0.017836,-0.0055566,-0.028828,-0.054372,0.43948,-1.7395,0.1677,-0.87689,0.10133,-0.015936,-0.0118,1.2687,-1.2045,-0.1923,0.25606,-4.0517,0.1977,0.20215,-0.043649,0.12195,0.046157,-0.044031,-0.013359,1.4461
0.023775,-0.0044819,-0.034686,-0.054951,0.21786,-1.807,0.21929,-0.60563,0.11279,-0.055003,-0.076952,1.3072,-1.2242,-0.24996,0.20108,-4.3731,0.16497,0.25734,0.10304,0.11653,0.049122,-0.04251,-0.0087716,1.5227
0.024294,-0.0041573,-0.039224,-0.051459,0.0031658,-1.875,0.25192,-0.32592,0.14924,-0.10213,-0.16917,1.353,-1.233,-0.27911,0.1618,-4.4638,0.12837,0.27822,0.25509,0.11682,0.054924,-0.035783,-0.014131,1.5605
0.017806,-0.0054697,-0.041775,-0.042211,-0.19109,-1.9535,0.25472,-0.09046,0.2016,-0.14213,-0.26926,1.4297,-1.2643,-0.27539,0.1428,-4.4607,0.088337,0.26714,0.36042,0.11503,0.063538,-0.024162,-0.02866,1.5778
0.0076742,-0.0079447,-0.042175,-0.028311,-0.36587,-2.0304,0.23449,0.084366,0.25758,-0.17123,-0.3583,1.549,-1.3475,-0.24343,0.13522,-4.5431,0.043845,0.23084,0.38622,0.10372,0.073059,-0.0091059,-0.05178,1.5941
0.00012784,-0.010273,-0.042126,-0.014373,-0.51214,-2.0746,0.20991,0.22618,0.29887,-0.20175,-0.42707,1.7094,-1.4964,-0.19755,0.13017,-4.8333,-0.0046645,0.17183,0.34144,0.082654,0.080824,0.00679,-0.082154,1.6067
-1.6476e-005,-0.011305,-0.044521,-0.0064158,-0.59869,-2.0536,0.19897,0.38699,0.3029,-0.25316,-0.47793,1.8979,-1.6902,-0.15377,0.12819,-5.3498,-0.054453,0.085797,0.27295,0.059031,0.085096,0.02046,-0.11478,1.589
0.0072271,-0.010692,-0.05109,-0.0078484,-0.58715,-1.9561,0.20842,0.61116,0.2527,-0.33509,-0.5198,2.0886,-1.8697,-0.11971,0.13684,-6.0175,-0.10192,-0.033371,0.23752,0.041596,0.086149,0.02958,-0.13995,1.5154
0.016984,-0.0088534,-0.060557,-0.016527,-0.4643,-1.8052,0.23173,0.91088,0.14957,-0.43444,-0.56169,2.2427,-1.9664,-0.092265,0.16093,-6.6969,-0.14435,-0.18535,0.26889,0.034151,0.086082,0.033642,-0.14691,1.389
0.022935,-0.0065139,-0.069236,-0.025622,-0.26351,-1.6519,0.25506,1.2607,0.018481,-0.51723,-0.60935,2.3191,-1.949,-0.065725,0.19634,-7.2002,-0.18025,-0.35839,0.36197,0.033743,0.087528,0.034067,-0.131,1.2459
0.021683,-0.0043175,-0.073822,-0.028219,-0.053856,-1.5509,0.26502,1.6099,-0.10014,-0.54609,-0.66486,2.2956,-1.8495,-0.041995,0.2333,-7.3086,-0.20855,-0.53127,0.48323,0.034369,0.092034,0.033131,-0.098755,1.1291
0.014899,-0.0027297,-0.074068,-0.022365,0.098117,-1.5322,0.25227,1.9028,-0.16886,-0.50311,-0.72623,2.1887,-1.7383,-0.031558,0.26515,-6.8289,-0.22823,-0.68072,0.59783,0.032372,0.098973,0.032358,-0.066108,1.053
0.0077934,-0.0021057,-0.073033,-0.01253,0.16509,-1.585,0.21073,2.0989,-0.1708,-0.40273,-0.78557,2.0517,-1.6641,-0.042964,0.29324,-5.6944,-0.23918,-0.78994,0.69363,0.028929,0.10556,0.031577,-0.049899,0.98998
0.005196,-0.00267,-0.074655,-0.0061234,0.16585,-1.6656,0.13675,2.1845,-0.11625,-0.28472,-0.82884,1.9456,-1.6083,-0.070862,0.32322,-4.0602,-0.24312,-0.85394,0.78726,0.028211,0.108,0.029459,-0.058332,0.89086
0.0082198,-0.0043177,-0.080673,-0.0077326,0.13952,-1.7243,0.032034,2.1746,-0.03507,-0.19022,-0.84072,1.8983,-1.4975,-0.095467,0.35713,-2.3076,-0.24304,-0.87988,0.91064,0.033628,0.10334,0.025187,-0.087217,0.7218
0.013856,-0.0064096,-0.089367,-0.015655,0.11159,-1.7351,-0.091307,2.1036,0.039413,-0.13632,-0.8136,1.8832,-1.2689,-0.096,0.38931,-0.91836,-0.24086,-0.88254,1.0886,0.045606,0.09097,0.019824,-0.12442,0.48704
0.017526,-0.0078522,-0.097013,-0.023424,0.08116,-1.7066,-0.20966,2.0101,0.086228,-0.10712,-0.75394,1.8373,-0.93427,-0.066863,0.41043,-0.26553,-0.23531,-0.87661,1.3213,0.062178,0.073076,0.015995,-0.15869,0.22113
0.016468,-0.0076156,-0.10068,-0.024928,0.036549,-1.6681,-0.29505,1.9217,0.1042,-0.068448,-0.67934,1.7078,-0.58915,-0.02179,0.4153,-0.44048,-0.2222,-0.86881,1.5805,0.080928,0.053545,0.015786,-0.18601,-0.038749
0.011464,-0.0054877,-0.10015,-0.018928,-0.020865,-1.6405,-0.32758,1.8488,0.10793,0.0038094,-0.60622,1.4934,-0.35703,0.018051,0.40671,-1.2246,-0.19742,-0.85431,1.8206,0.10009,0.036101,0.018408,-0.20914,-0.2744
0.0058614,-0.0025226,-0.09764,-0.0095223,-0.071471,-1.6173,-0.30443,1.7881,0.11468,0.10251,-0.53712,1.2466,-0.31325,0.041183,0.39172,-2.2257,-0.16059,-0.82028,1.9998,0.11817,0.022664,0.019739,-0.23162,-0.48516
0.002937,-0.00065363,-0.095968,-0.0026162,-0.096764,-1.5708,-0.23796,1.7342,0.12978,0.19148,-0.45829,1.036,-0.4465,0.05279,0.37436,-3.0915,-0.11625,-0.7555,2.1005,0.13332,0.012823,0.014567,-0.2517,-0.66956
0.0036402,-0.0014575,-0.096647,-0.0015682,-0.10184,-1.4761,-0.14359,1.6882,0.13983,0.22987,-0.35064,0.89793,-0.68263,0.066069,0.35211,-3.6676,-0.071721,-0.65939,2.1385,0.14382,0.0044898,0.00010613,-0.26108,-0.811
0.00625,-0.0048232,-0.099316,-0.0054023,-0.11377,-1.3302,-0.026645,1.6617,0.12009,0.20019,-0.20615,0.81464,-0.94472,0.087321,0.31964,-4.0124,-0.033004,-0.54258,2.1551,0.14964,-0.0048473,-0.021887,-0.2497,-0.88263
0.0079357,-0.0086257,-0.10255,-0.010514,-0.15191,-1.1476,0.12119,1.6722,0.052885,0.11902,-0.036884,0.73232,-1.1991,0.10938,0.27632,-4.2837,-0.0017465,-0.41721,2.1952,0.15343,-0.016932,-0.046176,-0.21323,-0.86702
0.0069374,-0.0099551,-0.10526,-0.013928,-0.19657,-0.93559,0.31212,1.7346,-0.0546,0.02361,0.13045,0.60064,-1.4564,0.11913,0.23012,-4.5954,0.024827,-0.28374,2.2832,0.15981,-0.032,-0.067407,-0.15844,-0.77239
0.0038152,-0.0072284,-0.10757,-0.015306,-0.1896,-0.67466,0.54602,1.8509,-0.16738,-0.053858,0.2702,0.4016,-1.7366,0.11077,0.19403,-4.945,0.051381,-0.12669,2.4124,0.17273,-0.04857,-0.082951,-0.10307,-0.63083
0.00095747,-0.0016055,-0.11063,-0.016369,-0.074603,-0.32864,0.80027,2.0015,-0.23969,-0.10359,0.37185,0.15049,-2.0365,0.091288,0.17743,-5.2441,0.08117,0.0741,2.552,0.1927,-0.063815,-0.092919,-0.069817,-0.48093
0.0007148,0.0035491,-0.11563,-0.018713,0.15284,0.11886,1.0345,2.1426,-0.24273,-0.1358,0.44287,-0.12292,-2.324,0.072877,0.17946,-5.4045,0.11384,0.32256,2.6664,0.21554,-0.074521,-0.097688,-0.077044,-0.35059
0.0034504,0.0049376,-0.1225,-0.022065,0.42769,0.63131,1.2089,2.2168,-0.18503,-0.16435,0.49975,-0.39238,-2.5615,0.060349,0.18956,-5.4002,0.14518,0.59213,2.7321,0.23378,-0.078357,-0.09571,-0.13031,-0.2539
0.0069593,0.0016662,-0.12945,-0.024322,0.64921,1.1225,1.3036,2.1753,-0.11088,-0.19278,0.55504,-0.64015,-2.7306,0.046894,0.19482,-5.263,0.16868,0.8321,2.7429,0.23996,-0.074858,-0.084117,-0.21855,-0.20146
0.0078988,-0.0041578,-0.13369,-0.02309,0.74273,1.5015,1.3285,2.0049,-0.077733,-0.21418,0.60982,-0.85315,-2.8378,0.023246,0.18885,-5.0332,0.17837,0.99363,2.704,0.23028,-0.065474,-0.061866,-0.31713,-0.20989
0.0044224,-0.0089958,-0.13304,-0.017374,0.70303,1.7296,1.3147,1.7408,-0.12688,-0.22228,0.65571,-1.0209,-2.8994,-0.008151,0.17611,-4.7235,0.17177,1.0582,2.6235,0.20654,-0.052593,-0.032432,-0.3972,-0.29662
-0.0019509,-0.01033,-0.12745,-0.0082434,0.58788,1.844,1.2971,1.4548,-0.2646,-0.22112,0.68348,-1.1388,-2.9204,-0.028018,0.16894,-4.3313,0.15166,1.0475,2.5092,0.17518,-0.038237,-0.003063,-0.43759,-0.46008
-0.0069727,-0.0081252,-0.11921,0.0018042,0.47053,1.9299,1.2963,1.2208,-0.46114,-0.22351,0.69156,-1.2102,-2.8844,-0.010456,0.17914,-3.8828,0.12551,1.0082,2.3694,0.14394,-0.023398,0.019397,-0.43335,-0.66139
-0.0067397,-0.0044026,-0.11144,0.010244,0.38935,2.0606,1.3116,1.0775,-0.66272,-0.24002,0.68867,-1.2412,-2.7595,0.059055,0.20906,-3.4564,0.10226,0.98151,2.213,0.11825,-0.0083913,0.032839,-0.39634,-0.82732
-0.00098042,-0.0015626,-0.10606,0.015814,0.33055,2.2521,1.3255,1.0116,-0.80742,-0.26935,0.68951,-1.233,-2.5129,0.17237,0.24779,-3.151,0.088348,0.98195,2.0472,0.099754,0.0063349,0.040667,-0.34686,-0.88081
0.0062437,-0.00089417,-0.10263,0.018982,0.25023,2.4642,1.3134,0.97071,-0.84096,-0.29883,0.7067,-1.1793,-2.1308,0.30246,0.27513,-3.019,0.08541,0.99714,1.8721,0.08768,0.019939,0.048297,-0.30102,-0.78362
0.0093592,-0.0021993,-0.099071,0.021352,0.11251,2.6409,1.2529,0.89491,-0.73368,-0.31452,0.74426,-1.0746,-1.6392,0.41755,0.27196,-3.02,0.091078,1.0057,1.6799,0.081525,0.031849,0.058376,-0.2617,-0.56246
0.0056053,-0.004395,-0.093718,0.024353,-0.08567,2.755,1.1291,0.74775,-0.4977,-0.31197,0.79611,-0.92525,-1.1183,0.49337,0.23156,-3.0412,0.10209,0.99588,1.46,0.082552,0.042626,0.068826,-0.21913,-0.29807
-0.0026399,-0.0063277,-0.086961,0.028151,-0.31628,2.8174,0.93954,0.52934,-0.19429,-0.29901,0.85026,-0.7503,-0.69713,0.51577,0.16483,-2.9729,0.117,0.97201,1.208,0.092633,0.053852,0.075207,-0.16074,-0.081103
-0.0095728,-0.0072341,-0.081013,0.031672,-0.53942,2.8513,0.69966,0.26972,0.082047,-0.28949,0.8956,-0.56947,-0.51156,0.4767,0.094955,-2.782,0.13636,0.94684,0.93396,0.11155,0.066726,0.075051,-0.082973,0.036791
-0.010457,-0.0068285,-0.077918,0.033843,-0.72263,2.8585,0.44374,0.011254,0.24456,-0.29349,0.92751,-0.38984,-0.63651,0.37305,0.043682,-2.527,0.16055,0.93141,0.6654,0.13534,0.080477,0.070209,0.00387,0.064609
-0.0053115,-0.005271,-0.077422,0.035009,-0.84905,2.8127,0.21631,-0.20955,0.26111,-0.31107,0.9494,-0.20586,-1.0281,0.21266,0.01732,-2.3051,0.18765,0.93117,0.44362,0.15735,0.092219,0.065262,0.081367,0.053913
0.0011359,-0.0031259,-0.076585,0.037106,-0.91564,2.686,0.053029,-0.37441,0.1756,-0.3321,0.9699,-0.015634,-1.5246,0.021791,0.0021846,-2.1778,0.21358,0.94925,0.31157,0.17143,0.098783,0.063677,0.135,0.057339
0.0031458,-0.0012092,-0.071612,0.042148,-0.92809,2.485,-0.038382,-0.48668,0.085392,-0.34077,0.99738,0.16134,-1.9226,-0.15711,-0.026327,-2.1318,0.23438,0.98977,0.29564,0.17466,0.099151,0.065273,0.16318,0.094753
-0.0016589,-0.00025753,-0.060481,0.050154,-0.89677,2.2604,-0.08216,-0.56427,0.086607,-0.3213,1.0344,0.28423,-2.0874,-0.28137,-0.086417,-2.1039,0.2484,1.056,0.38769,0.16785,0.09532,0.067082,0.17673,0.14849
-0.010595,-0.00056661,-0.044252,0.058476,-0.83364,2.0804,-0.11627,-0.62362,0.2232,-0.26328,1.0744,0.31366,-2.0212,-0.32925,-0.17623,-2.0416,0.25624,1.1447,0.53833,0.15384,0.090591,0.066443,0.19012,0.18469
-0.01805,-0.0018606,-0.026081,0.063454,-0.74865,1.9846,-0.16245,-0.66316,0.47121,-0.16553,1.103,0.24125,-1.8384,-0.31042,-0.27379,-1.9484,0.25834,1.2439,0.67007,0.1351,0.08667,0.063239,0.21162,0.1796
-0.019649,-0.0035122,-0.0089457,0.063232,-0.64683,1.9568,-0.20714,-0.659,0.76059,-0.037854,1.1037,0.10222,-1.6629,-0.25664,-0.35073,-1.8798,0.25296,1.337,0.70737,0.1125,0.082263,0.059304,0.23986,0.13125
-0.015267,-0.0049726,0.0059103,0.059291,-0.52831,1.9365,-0.21004,-0.58036,1.0103,0.1005,1.0658,-0.03943,-1.5337,-0.19869,-0.38997,-1.8943,0.23679,1.4105,0.60746,0.085382,0.074632,0.055859,0.26795,0.053325
-0.0087709,-0.0061131,0.0187,0.055218,-0.39229,1.8611,-0.13617,-0.41705,1.1525,0.2256,0.99175,-0.12155,-1.3922,-0.14725,-0.3949,-2.0015,0.20812,1.4583,0.37246,0.052558,0.062798,0.0517,0.29065,-0.037135
-0.0049407,-0.0072352,0.029762,0.053656,-0.24228,1.7072,0.012598,-0.19846,1.1436,0.31528,0.89717,-0.108,-1.1594,-0.091955,-0.38463,-2.1452,0.16987,1.4779,0.036138,0.013549,0.049249,0.043993,0.30865,-0.12566
-0.0060664,-0.0087281,0.038859,0.054162,-0.089813,1.5011,0.19096,0.013635,0.97712,0.35486,0.8036,0.006329,-0.82943,-0.017675,-0.38057,-2.236,0.12925,1.4619,-0.36159,-0.030232,0.038103,0.03094,0.32747,-0.19812
-0.010762,-0.010603,0.045887,0.053979,0.045388,1.2954,0.33416,0.15722,0.70316,0.3406,0.72689,0.20409,-0.49286,0.076859,-0.39503,-2.2087,0.093874,1.3942,-0.79041,-0.074779,0.031059,0.013811,0.35319,-0.23817
-0.015638,-0.012258,0.052,0.051101,0.13871,1.1303,0.39461,0.20537,0.43316,0.28069,0.66941,0.45342,-0.26813,0.17405,-0.429,-2.0653,0.067156,1.2556,-1.2245,-0.11402,0.024979,-0.003481,0.38866,-0.23129
-0.018184,-0.012704,0.059536,0.046784,0.16776,1.0089,0.36521,0.17951,0.30164,0.19352,0.62168,0.7096,-0.20383,0.24898,-0.47757,-1.8725,0.046801,1.0395,-1.6278,-0.142,0.013991,-0.016758,0.432,-0.17331
-0.018405,-0.011157,0.070356,0.045019,0.12298,0.90226,0.27569,0.13236,0.38867,0.10305,0.57233,0.91844,-0.24236,0.286,-0.5353,-1.7148,0.027553,0.76373,-1.9515,-0.15587,-0.0050279,-0.02372,0.47685,-0.074794
-0.018005,-0.0075986,0.084052,0.049163,0.0186,0.7774,0.16915,0.11521,0.65242,0.031364,0.51849,1.0308,-0.27946,0.28579,-0.59562,-1.6326,0.0059644,0.46991,-2.1558,-0.15782,-0.028315,-0.024239,0.51348,0.044764
-0.01817,-0.0028949,0.097939,0.05854,-0.10388,0.62485,0.077785,0.15373,0.93378,-0.0091201,0.46823,1.0244,-0.26601,0.25865,-0.64584,-1.5885,-0.016693,0.20552,-2.239,-0.15426,-0.046654,-0.019214,0.53086,0.169
-0.01822,0.0016126,0.10918,0.068031,-0.18704,0.4663,0.012905,0.24589,1.0486,-0.019515,0.43336,0.91497,-0.25884,0.21281,-0.66522,-1.4853,-0.035429,0.00045909,-2.246,-0.15249,-0.052041,-0.0097143,0.52059,0.29279
-0.016469,0.0047285,0.11726,0.07125,-0.18316,0.33745,-0.029259,0.37628,0.90999,-0.011563,0.41931,0.74357,-0.37189,0.15013,-0.63214,-1.227,-0.045173,-0.14605,-2.2409,-0.15685,-0.044403,0.0025787,0.48163,0.41921
-0.012392,0.0058706,0.12453,0.065005,-0.081515,0.26013,-0.055064,0.53062,0.58794,0.0005702,0.42089,0.54626,-0.66855,0.072298,-0.53825,-0.78114,-0.043852,-0.25813,-2.2638,-0.16688,-0.032597,0.014551,0.42285,0.54827
-0.0078063,0.0052427,0.13419,0.051636,0.081045,0.22495,-0.064524,0.69946,0.2572,0.0081602,0.4271,0.33157,-1.0889,-0.010313,-0.39977,-0.19986,-0.032805,-0.36117,-2.3072,-0.17833,-0.028403,0.022197,0.3603,0.6672
-0.0056154,0.0037958,0.14739,0.037509,0.23603,0.19723,-0.050511,0.87329,0.070678,0.010081,0.42942,0.086055,-1.4765,-0.077867,-0.25595,0.41295,-0.015042,-0.46277,-2.335,-0.18591,-0.038019,0.022963,0.30966,0.75076
-0.0071122,0.0029997,0.16213,0.02877,0.31795,0.14155,-0.0045524,1.039,0.057984,0.0088188,0.42553,-0.19643,-1.6829,-0.11068,-0.15351,0.96199,0.0064144,-0.55161,-2.328,-0.18583,-0.057706,0.01807,0.27803,0.77087
-0.010475,0.0043044,0.17479,0.027421,0.29613,0.046431,0.075306,1.1833,0.12515,0.0051987,0.41561,-0.48929,-1.6646,-0.10124,-0.12608,1.4023,0.028615,-0.6131,-2.3113,-0.17683,-0.076829,0.012346,0.26087,0.70808
-0.012132,0.0083161,0.18297,0.030365,0.18453,-0.06868,0.17936,1.2994,0.147,-0.0026977,0.39635,-0.73726,-1.4942,-0.058531,-0.18163,1.7358,0.047733,-0.64587,-2.3361,-0.1599,-0.085602,0.011039,0.24619,0.55736
-0.009919,0.014149,0.18702,0.031902,0.026216,-0.1682,0.28733,1.3889,0.06933,-0.015567,0.36031,-0.88921,-1.2843,-0.0016548,-0.30425,1.9765,0.058901,-0.66308,-2.4314,-0.13772,-0.081374,0.016008,0.22292,0.32809
-0.0050694,0.019618,0.18915,0.027712,-0.13326,-0.22446,0.37649,1.4543,-0.06203,-0.028421,0.30225,-0.93263,-1.0958,0.050754,-0.46592,2.1258,0.057859,-0.6775,-2.5699,-0.11459,-0.068962,0.024634,0.1875,0.043301
-0.001059,0.022446,0.19122,0.017538,-0.2648,-0.23235,0.43319,1.4911,-0.15826,-0.030951,0.22626,-0.90057,-0.90813,0.086928,-0.63827,2.1863,0.043463,-0.68575,-2.6847,-0.096409,-0.055553,0.032556,0.1445,-0.25783
-0.00036777,0.021756,0.19331,0.0048449,-0.35819,-0.20485,0.46109,1.4853,-0.17049,-0.01341,0.14601,-0.84634,-0.6707,0.10118,-0.7978,2.1998,0.0189,-0.66843,-2.7214,-0.089592,-0.044784,0.037833,0.10206,-0.51792
-0.002278,0.018685,0.19437,-0.0059877,-0.41323,-0.15595,0.48003,1.4234,-0.12439,0.026655,0.076045,-0.80855,-0.38254,0.090125,-0.92622,2.2626,-0.0097816,-0.60804,-2.6795,-0.098494,-0.03458,0.042713,0.066577,-0.66891
-0.0038189,0.015562,0.19386,-0.01269,-0.43132,-0.087545,0.51558,1.3054,-0.084171,0.082444,0.02116,-0.79463,-0.12561,0.051814,-1.0115,2.4858,-0.03707,-0.50917,-2.6027,-0.1224,-0.019908,0.051325,0.040404,-0.65488
-0.0028304,0.01427,0.19258,-0.016161,-0.4145,0.0077755,0.5856,1.1495,-0.088571,0.14201,-0.027459,-0.79062,-0.020058,-0.010773,-1.0514,2.9137,-0.06084,-0.40225,-2.5297,-0.15446,0.0023131,0.065375,0.022838,-0.4626
-3.6238e-005,0.015122,0.19164,-0.019088,-0.36925,0.13102,0.69224,0.98247,-0.12023,0.1946,-0.085975,-0.78127,-0.13751,-0.085805,-1.0548,3.4657,-0.082493,-0.32594,-2.4543,-0.18414,0.030089,0.081812,0.011717,-0.14067
0.0019037,0.01704,0.19101,-0.023532,-0.30747,0.2635,0.82293,0.82045,-0.13129,0.23429,-0.16683,-0.7592,-0.44138,-0.15328,-1.0355,3.9572,-0.10432,-0.30154,-2.3389,-0.20262,0.057132,0.094625,0.0036555,0.21132
0.0012797,0.018707,0.18908,-0.029515,-0.24022,0.37009,0.95773,0.65658,-0.094024,0.25946,-0.27144,-0.71901,-0.79871,-0.19161,-1.0003,4.2022,-0.1263,-0.31928,-2.1697,-0.20773,0.076598,0.099205,-0.0063335,0.48486
-0.00085422,0.019595,0.18418,-0.035493,-0.16759,0.41896,1.0767,0.46608,-0.026493,0.27063,-0.39109,-0.65088,-1.0521,-0.1867,-0.94104,4.1304,-0.14507,-0.34545,-2.0007,-0.20537,0.084919,0.095499,-0.023567,0.6136
-0.0017648,0.020084,0.17627,-0.039977,-0.073417,0.40328,1.1641,0.22773,0.027507,0.27009,-0.51362,-0.54781,-1.1,-0.13807,-0.84069,3.8352,-0.15602,-0.34282,-1.9358,-0.2062,0.083207,0.087435,-0.050226,0.601
0.00015753,0.020846,0.16719,-0.042744,0.068582,0.34697,1.2094,-0.053885,0.040313,0.26352,-0.63008,-0.42231,-0.93557,-0.059023,-0.69005,3.5137,-0.15692,-0.28843,-2.0552,-0.2199,0.075652,0.079441,-0.082354,0.50532
