-5.4599e-010,1.0476e-009,-5.5371e-010,-1.3698e-010,-1.0592e-009,8.0452e-010,-4.0515e-011,5.3442e-010,7.0825e-009,1.6264e-009,-3.3763e-010,6.7526e-011,1.6303e-009,9.9745e-010,1.3987e-009,-7.7751e-010,-1.0669e-009,1.6785e-010,2.1319e-009,1.009e-009,-2.8747e-010,1.2141e-008,3.5711e-009,5.9828e-009
-1.4833e-008,2.8857e-008,-1.51e-008,-3.6232e-009,-2.9015e-008,2.2394e-008,-7.4916e-010,1.5007e-008,1.9505e-007,4.4805e-008,-9.2605e-009,1.6808e-009,4.4302e-008,2.8231e-008,3.8915e-008,-2.0671e-008,-2.9475e-008,4.893e-009,5.841e-008,2.7667e-008,-8.1483e-009,3.3764e-007,9.8549e-008,1.6403e-007
-1.9609e-007,3.8631e-007,-1.9975e-007,-4.6232e-008,-3.8588e-007,3.0286e-007,-5.0352e-009,2.0474e-007,2.6101e-006,5.9996e-007,-1.2332e-007,1.9995e-008,5.8459e-007,3.8989e-007,5.2654e-007,-2.6555e-007,-3.9604e-007,6.9322e-008,7.7799e-007,3.6888e-007,-1.1203e-007,4.5686e-006,1.3215e-006,2.1837e-006
-1.6816e-006,3.3485e-006,-1.7072e-006,-3.7833e-007,-3.3191e-006,2.6511e-006,4.5796e-010,1.8081e-006,2.2608e-005,5.2025e-006,-1.0622e-006,1.4999e-007,4.9897e-006,3.5025e-006,4.6164e-006,-2.1923e-006,-3.448e-006,6.3606e-007,6.712e-006,3.1862e-006,-9.9494e-007,4.0077e-005,1.1471e-005,1.8802e-005
-1.0522e-005,2.1122e-005,-1.0595e-005,-2.2242e-006,-2.075e-005,1.688e-005,2.8736e-007,1.1617e-005,0.00014244,3.2834e-005,-6.6509e-006,7.8352e-007,3.0957e-005,2.3016e-005,2.9476e-005,-1.3044e-005,-2.1861e-005,4.2492e-006,4.2161e-005,2.0041e-005,-6.4095e-006,0.00025623,7.243e-005,0.00011763
-5.1235e-005,0.0001033,-5.0861e-005,-9.9551e-006,-0.00010045,8.3284e-005,2.8367e-006,5.7866e-005,0.00069544,0.00016068,-3.2248e-005,2.9283e-006,0.00014871,0.00011796,0.00014604,-5.9398e-005,-0.00010753,2.2028e-005,0.00020547,9.7804e-005,-3.1885e-005,0.0012724,0.00035443,0.00056954
-0.00020224,0.00040748,-0.00019644,-3.4961e-005,-0.00039157,0.00033115,1.705e-005,0.00023245,0.0027361,0.00063421,-0.00012592,7.396e-006,0.00057512,0.00049091,0.00058403,-0.00021425,-0.00042678,9.2212e-005,0.0008082,0.00038526,-0.00012725,0.0051066,0.0013978,0.0022183
-0.00066567,0.0013309,-0.00062674,-9.72e-005,-0.001262,0.0010893,7.5833e-005,0.00077325,0.0089042,0.002073,-0.00040646,8.0005e-006,0.0018379,0.001705,0.0019357,-0.00062349,-0.001403,0.00032024,0.0026351,0.0012578,-0.00041768,0.017015,0.0045613,0.0071297
-0.0018657,0.0036659,-0.0016825,-0.00020979,-0.0034246,0.0030188,0.00026841,0.0021701,0.024404,0.0057157,-0.0011042,-3.1921e-005,0.0049405,0.0050403,0.0054161,-0.0014697,-0.0038898,0.00094051,0.0072558,0.0034669,-0.0011459,0.047969,0.012541,0.019234
-0.0045259,0.008625,-0.0038505,-0.00031983,-0.0079253,0.0071374,0.00078594,0.005206,0.057024,0.013466,-0.002555,-0.0002315,0.011306,0.012867,0.012959,-0.0027617,-0.0092077,0.0023685,0.017097,0.0081736,-0.0026526,0.11601,0.029418,0.044023
-0.0096307,0.017482,-0.0075821,-0.00018459,-0.015777,0.014516,0.0019513,0.010773,0.1145,0.027349,-0.0050734,-0.00086571,0.022186,0.028676,0.026747,-0.0038806,-0.018755,0.0051668,0.034793,0.016629,-0.0051989,0.2431,0.05938,0.085922
-0.018186,0.030673,-0.012927,0.00078794,-0.027159,0.025515,0.0041815,0.019345,0.1983,0.048142,-0.0086705,-0.0024037,0.037438,0.056234,0.047875,-0.0030546,-0.032989,0.0098344,0.061511,0.02935,-0.008592,0.44443,0.10362,0.14283
-0.030795,0.046645,-0.019161,0.0036114,-0.040519,0.038787,0.0078466,0.030233,0.29603,0.073602,-0.012723,-0.0054015,0.054186,0.097574,0.074453,0.002706,-0.050053,0.016412,0.094742,0.045037,-0.011783,0.71212,0.15651,0.20003
-0.047228,0.061303,-0.024768,0.0095152,-0.052366,0.050809,0.013072,0.041152,0.37853,0.097613,-0.015865,-0.01016,0.066523,0.1503,0.10044,0.016569,-0.065021,0.024084,0.1271,0.059994,-0.012848,1.0025,0.20406,0.229
-0.066219,0.069066,-0.028028,0.019344,-0.058475,0.056792,0.019633,0.048742,0.40815,0.11172,-0.016369,-0.016218,0.067344,0.20574,0.11688,0.039689,-0.071008,0.031123,0.14798,0.069003,-0.0097508,1.2409,0.22796,0.19651
-0.085646,0.065683,-0.028039,0.032723,-0.056311,0.053079,0.027087,0.050253,0.35873,0.10925,-0.013001,-0.022017,0.052004,0.24981,0.11612,0.069023,-0.062524,0.035459,0.14844,0.067827,-0.0017586,1.3503,0.2152,0.083612
-0.103,0.051414,-0.025436,0.047493,-0.047188,0.039805,0.035113,0.045554,0.23632,0.08997,-0.005835,-0.025167,0.021701,0.26755,0.097175,0.097154,-0.039588,0.035741,0.12698,0.056168,0.0093988,1.2934,0.1681,-0.095607
-0.11596,0.032108,-0.022074,0.060033,-0.036231,0.021713,0.043746,0.037921,0.084273,0.061574,0.0036616,-0.023465,-0.016175,0.24975,0.068213,0.11535,-0.0095662,0.032267,0.092008,0.038867,0.019851,1.0994,0.10647,-0.29061
-0.12288,0.016588,-0.019699,0.066673,-0.029543,0.0059009,0.05312,0.032439,-0.037137,0.036035,0.013546,-0.016205,-0.051687,0.19834,0.043179,0.11864,0.015677,0.027028,0.058108,0.023809,0.025744,0.85273,0.057628,-0.43473
-0.12317,0.011346,-0.018584,0.065601,-0.030284,-0.002428,0.062748,0.032659,-0.086705,0.022411,0.022723,-0.0048586,-0.077836,0.12678,0.033422,0.10923,0.026605,0.022622,0.037674,0.017323,0.025924,0.64188,0.039375,-0.48049
-0.11742,0.016162,-0.01741,0.058067,-0.036678,-0.0031471,0.070953,0.037853,-0.068777,0.021223,0.031528,0.0075125,-0.093991,0.054692,0.039878,0.095199,0.022548,0.02072,0.033402,0.020116,0.022858,0.50383,0.048368,-0.42711
-0.10695,0.024177,-0.014678,0.047833,-0.043617,-0.00071953,0.075274,0.043264,-0.028407,0.024922,0.040896,0.017832,-0.10494,-0.00060473,0.052034,0.084468,0.012823,0.021221,0.037333,0.026931,0.020503,0.40368,0.06381,-0.31963
-0.092824,0.026881,-0.010446,0.038965,-0.046408,-0.00032416,0.073993,0.043569,-0.017007,0.024319,0.050795,0.024447,-0.11689,-0.030616,0.055285,0.078719,0.010758,0.022746,0.037293,0.030466,0.020449,0.26676,0.064402,-0.21917
-0.074803,0.020439,-0.0066457,0.033346,-0.043252,-0.0038055,0.067754,0.037004,-0.055045,0.015813,0.059506,0.027435,-0.13387,-0.036661,0.041454,0.072237,0.024386,0.02398,0.025774,0.026683,0.019617,0.038097,0.044954,-0.16603
-0.051228,0.0084315,-0.0053824,0.029681,-0.034336,-0.0088347,0.059694,0.02679,-0.12163,0.0034778,0.064806,0.02779,-0.1568,-0.025258,0.014224,0.057142,0.050614,0.024632,0.0044753,0.01741,0.0119,-0.27764,0.018782,-0.16248
-0.020546,-0.0012327,-0.0066468,0.024798,-0.01908,-0.011747,0.053522,0.018617,-0.17795,-0.0055419,0.066267,0.026486,-0.18387,-0.0014393,-0.014813,0.030879,0.077364,0.025209,-0.018503,0.0082952,-0.0071797,-0.62501,0.0041306,-0.18518
0.016371,-0.0027195,-0.0077571,0.016276,0.004732,-0.011191,0.050817,0.016284,-0.20248,-0.00801,0.066485,0.024295,-0.21,0.035683,-0.035902,-0.00027855,0.092019,0.026007,-0.035686,0.0040301,-0.036613,-0.94296,0.0068678,-0.21275
0.055075,0.0032587,-0.0054994,0.0043582,0.037977,-0.0091662,0.049908,0.019111,-0.20677,-0.007661,0.069648,0.022221,-0.22482,0.092791,-0.04818,-0.024701,0.089666,0.026507,-0.045367,0.0048713,-0.070192,-1.2048,0.014791,-0.24311
0.089123,0.010471,0.00066559,-0.0083317,0.075934,-0.0087061,0.04756,0.023091,-0.21964,-0.011691,0.07816,0.021615,-0.21222,0.17839,-0.058193,-0.033043,0.075089,0.02588,-0.051161,0.007142,-0.1007,-1.4205,0.0082408,-0.28734
0.11382,0.012576,0.0073633,-0.01893,0.10776,-0.010742,0.042183,0.02441,-0.25687,-0.023979,0.090101,0.023436,-0.15459,0.29737,-0.071899,-0.024106,0.057823,0.024084,-0.057498,0.0068064,-0.12424,-1.6044,-0.022749,-0.34942
0.12935,0.0081872,0.0096634,-0.026442,0.12212,-0.013292,0.035693,0.022158,-0.30527,-0.041168,0.099917,0.027271,-0.041259,0.44645,-0.087891,-0.0049224,0.045059,0.022301,-0.065714,0.0027014,-0.14102,-1.7435,-0.069749,-0.41314
0.14054,0.0014554,0.0054255,-0.032021,0.11542,-0.013652,0.032199,0.018217,-0.33476,-0.055087,0.10211,0.031311,0.12374,0.61162,-0.098062,0.014099,0.038135,0.022126,-0.073913,-0.0032928,-0.15232,-1.7964,-0.11256,-0.44939
0.15311,-0.0018838,-0.0021309,-0.03729,0.095576,-0.011251,0.034552,0.015123,-0.32568,-0.059306,0.095098,0.033688,0.31995,0.7687,-0.094711,0.024955,0.034445,0.024171,-0.079744,-0.0088183,-0.15719,-1.7239,-0.13461,-0.43682
0.16936,0.00077174,-0.0062605,-0.042341,0.077163,-0.0082829,0.041755,0.014212,-0.28536,-0.054133,0.082196,0.034049,0.51612,0.88783,-0.077215,0.025301,0.031694,0.027393,-0.082725,-0.013538,-0.1524,-1.5228,-0.13402,-0.37661
0.18652,0.007398,-0.0018431,-0.045351,0.071077,-0.0074858,0.049388,0.015444,-0.23996,-0.045927,0.069057,0.033791,0.6799,0.94212,-0.05229,0.018521,0.030081,0.029723,-0.083987,-0.019073,-0.13566,-1.2335,-0.12229,-0.28839
0.1992,0.013821,0.010309,-0.044254,0.07703,-0.0092865,0.052521,0.018194,-0.21128,-0.041628,0.059765,0.034522,0.78632,0.91825,-0.028231,0.011772,0.030802,0.029382,-0.084363,-0.026535,-0.10865,-0.91445,-0.11357,-0.19179
0.20339,0.017407,0.023717,-0.038968,0.085191,-0.011094,0.048553,0.021508,-0.20057,-0.043378,0.054639,0.036162,0.82223,0.82419,-0.0090013,0.013055,0.033233,0.025752,-0.083351,-0.034217,-0.076475,-0.60721,-0.11436,-0.090928
0.19895,0.018615,0.03106,-0.032029,0.085442,-0.0094974,0.038007,0.023562,-0.193,-0.047699,0.051137,0.036588,0.78727,0.68854,0.0065224,0.02761,0.034257,0.019304,-0.080136,-0.037943,-0.043916,-0.32256,-0.12125,0.024831
0.18887,0.019484,0.029691,-0.026869,0.076173,-0.003444,0.023464,0.021579,-0.17577,-0.049533,0.046693,0.033374,0.6925,0.55014,0.020369,0.054394,0.03067,0.011056,-0.075304,-0.03416,-0.012452,-0.057036,-0.12661,0.16563
0.17666,0.020991,0.023411,-0.025112,0.065139,0.0044108,0.0081908,0.013324,-0.15129,-0.047291,0.040991,0.026082,0.55733,0.44194,0.031334,0.084615,0.022236,0.0022265,-0.071102,-0.023215,0.018736,0.17662,-0.12609,0.32621
0.16424,0.021835,0.019243,-0.025327,0.06207,0.0093644,-0.0046209,-0.00062675,-0.13349,-0.044505,0.036021,0.016987,0.40402,0.37751,0.035295,0.10439,0.012165,-0.0058066,-0.069766,-0.0098966,0.048775,0.33574,-0.12155,0.48483
0.15161,0.019501,0.022084,-0.024475,0.069862,0.0079879,-0.012459,-0.016065,-0.13225,-0.046835,0.034168,0.0095273,0.25101,0.34735,0.029538,0.10137,0.0043045,-0.011681,-0.071598,-0.00046383,0.072729,0.36723,-0.11834,0.61688
0.13771,0.012367,0.031559,-0.02084,0.082052,0.00044625,-0.01466,-0.027166,-0.14193,-0.057194,0.036034,0.0058995,0.1081,0.32659,0.016539,0.071979,-0.00034144,-0.014625,-0.074762,0.0016728,0.084359,0.24793,-0.11999,0.71104
0.12144,0.0010484,0.043227,-0.015766,0.088361,-0.0099114,-0.013529,-0.030109,-0.14491,-0.07313,0.039594,0.0058809,-0.022917,0.28908,0.003261,0.024677,-0.0043738,-0.015024,-0.076919,-0.0017447,0.082361,0.013604,-0.12513,0.77397
0.10219,-0.011827,0.052541,-0.012457,0.083089,-0.019177,-0.013782,-0.025414,-0.12624,-0.088341,0.041164,0.0076644,-0.14221,0.22004,-0.0036481,-0.023514,-0.011229,-0.014303,-0.077007,-0.0053745,0.07423,-0.24926,-0.12883,0.8199
0.080472,-0.022979,0.058023,-0.012753,0.069197,-0.025533,-0.019651,-0.017106,-0.085648,-0.096694,0.037373,0.009608,-0.2447,0.121,-0.0026037,-0.055449,-0.021494,-0.014029,-0.07549,-0.0044899,0.073154,-0.44636,-0.12695,0.8542
0.058389,-0.030072,0.061385,-0.014769,0.055177,-0.029918,-0.031456,-0.0096648,-0.0366,-0.095393,0.02691,0.011237,-0.31778,0.0060573,0.0020845,-0.062548,-0.031855,-0.014909,-0.07319,0.0014223,0.089328,-0.52365,-0.12,0.86511
0.039328,-0.032872,0.065224,-0.013708,0.048053,-0.034436,-0.044757,-0.0055277,0.0052573,-0.085317,0.01121,0.012943,-0.34687,-0.10703,0.0036168,-0.04885,-0.037766,-0.016564,-0.070191,0.0084273,0.12244,-0.48738,-0.11334,0.83084
0.026093,-0.033484,0.070791,-0.0054119,0.048474,-0.040089,-0.053483,-0.0049673,0.032957,-0.06926,-0.006032,0.015242,-0.32571,-0.20514,-0.0026891,-0.028594,-0.037355,-0.018181,-0.065994,0.011334,0.16157,-0.38501,-0.11332,0.73629
0.018536,-0.03535,0.077637,0.01023,0.051248,-0.045766,-0.054871,-0.0076044,0.049245,-0.05029,-0.020166,0.018612,-0.2644,-0.28295,-0.016972,-0.019085,-0.032944,-0.01934,-0.060525,0.0077003,0.19276,-0.26598,-0.12195,0.58622
0.012925,-0.041172,0.084829,0.028829,0.049799,-0.049233,-0.052034,-0.013333,0.059239,-0.031427,-0.027313,0.023849,-0.18855,-0.34048,-0.035649,-0.032622,-0.028896,-0.020216,-0.054694,-0.00047916,0.20795,-0.15341,-0.13407,0.40475
0.0043941,-0.05083,0.091968,0.0443,0.040474,-0.049109,-0.051646,-0.021498,0.063862,-0.015864,-0.02611,0.031943,-0.12864,-0.37843,-0.054047,-0.071103,-0.027899,-0.021107,-0.049822,-0.0085527,0.20826,-0.044734,-0.13947,0.22266
-0.0089893,-0.060907,0.098826,0.052579,0.023892,-0.046049,-0.05848,-0.029521,0.06094,-0.0062716,-0.018788,0.04297,-0.10519,-0.39631,-0.068725,-0.12537,-0.029146,-0.021964,-0.046617,-0.012808,0.19965,0.066803,-0.12902,0.062886
-0.024176,-0.066686,0.10421,0.05342,0.0036396,-0.042189,-0.071356,-0.033197,0.051772,-0.0030736,-0.01069,0.054863,-0.11888,-0.39633,-0.07839,-0.17936,-0.029768,-0.022509,-0.044834,-0.01294,0.1856,0.17341,-0.10079,-0.06488
-0.035582,-0.065528,0.10574,0.049404,-0.015664,-0.039384,-0.083989,-0.029358,0.044754,-0.0034345,-0.007842,0.063652,-0.15231,-0.39042,-0.083534,-0.21732,-0.027781,-0.022782,-0.043905,-0.011617,0.16364,0.25401,-0.0618,-0.15919
-0.040484,-0.059074,0.10132,0.043612,-0.029641,-0.037765,-0.090006,-0.018971,0.050744,-0.0026949,-0.013529,0.065695,-0.1828,-0.40343,-0.085411,-0.2308,-0.023594,-0.023398,-0.043697,-0.011837,0.12863,0.29213,-0.024197,-0.21874
-0.042551,-0.052284,0.091288,0.038055,-0.035078,-0.035757,-0.08792,-0.0076691,0.073801,0.0022035,-0.026118,0.060447,-0.19797,-0.46644,-0.084839,-0.22196,-0.018971,-0.025065,-0.044431,-0.014424,0.079301,0.292,0.0017485,-0.24011
-0.049695,-0.049805,0.078962,0.033631,-0.031162,-0.031435,-0.082011,-0.0025489,0.10637,0.010076,-0.04001,0.051424,-0.20322,-0.6006,-0.081396,-0.20127,-0.015005,-0.027738,-0.045815,-0.017563,0.022156,0.27732,0.013158,-0.22302
-0.067372,-0.052581,0.06872,0.030709,-0.020616,-0.024099,-0.078593,-0.0072731,0.13425,0.016285,-0.049442,0.044242,-0.21564,-0.8008,-0.073706,-0.18083,-0.011448,-0.030261,-0.046403,-0.018437,-0.030898,0.27377,0.015012,-0.17682
-0.093085,-0.057534,0.062876,0.029235,-0.0093444,-0.014872,-0.08091,-0.019311,0.14736,0.016732,-0.052469,0.043008,-0.24839,-1.0318,-0.061101,-0.16746,-0.0079775,-0.031,-0.044084,-0.015494,-0.068992,0.29098,0.01561,-0.12022
-0.1174,-0.060509,0.060185,0.028364,-0.0039347,-0.0060112,-0.086758,-0.031703,0.14677,0.011729,-0.052023,0.047747,-0.29727,-1.2432,-0.045738,-0.15988,-0.0056527,-0.029055,-0.037513,-0.0097134,-0.087667,0.31905,0.020438,-0.072948
-0.1313,-0.059725,0.057434,0.026524,-0.0081424,0.0004412,-0.090503,-0.038178,0.14197,0.0061941,-0.053238,0.054755,-0.34051,-1.3968,-0.033164,-0.15162,-0.00653,-0.025093,-0.027358,-0.004276,-0.089482,0.34104,0.028767,-0.045752
-0.13385,-0.056639,0.05279,0.022471,-0.020767,0.0036632,-0.087629,-0.037739,0.1416,0.0057211,-0.059293,0.059391,-0.35281,-1.4897,-0.03002,-0.13729,-0.01146,-0.021067,-0.016329,-0.003034,-0.080503,0.34875,0.035111,-0.037001
-0.1334,-0.053669,0.047782,0.016563,-0.036528,0.0041437,-0.078213,-0.035231,0.14626,0.011826,-0.069205,0.059093,-0.32391,-1.5563,-0.039842,-0.11746,-0.018303,-0.019001,-0.0079173,-0.0086852,-0.066283,0.34779,0.034069,-0.038153
-0.14101,-0.051362,0.045994,0.010869,-0.049379,0.0030086,-0.066838,-0.037627,0.14952,0.020536,-0.079178,0.054462,-0.26756,-1.646,-0.060083,-0.098623,-0.022762,-0.019729,-0.0046569,-0.021445,-0.050253,0.34873,0.024698,-0.042668
-0.16147,-0.047989,0.049558,0.0076263,-0.055908,0.0012249,-0.059309,-0.048961,0.14497,0.025579,-0.086048,0.047999,-0.21334,-1.7878,-0.083072,-0.088087,-0.021605,-0.022518,-0.0068889,-0.038761,-0.03451,0.35416,0.011231,-0.050433
-0.18939,-0.041944,0.056671,0.0071479,-0.056565,-0.00074144,-0.058798,-0.067639,0.13192,0.023365,-0.089753,0.041814,-0.18657,-1.9651,-0.10055,-0.087628,-0.015512,-0.025749,-0.01256,-0.056211,-0.020913,0.35427,-5.5793e-005,-0.064633
-0.21337,-0.034246,0.062362,0.0070412,-0.054167,-0.0026938,-0.06417,-0.087703,0.11464,0.0155,-0.092926,0.036125,-0.191,-2.118,-0.10827,-0.090599,-0.0088141,-0.028042,-0.018041,-0.069182,-0.010916,0.33496,-0.0050245,-0.085101
-0.22432,-0.028219,0.06185,0.0036115,-0.05113,-0.0042234,-0.071386,-0.10267,0.096915,0.0069024,-0.098346,0.029486,-0.20729,-2.1721,-0.10688,-0.085021,-0.0060254,-0.028928,-0.019653,-0.074464,-0.0045753,0.29059,-0.0037054,-0.10503
-0.22113,-0.026365,0.053624,-0.0055062,-0.047603,-0.0044444,-0.076579,-0.10906,0.078194,0.0015499,-0.10658,0.020243,-0.20873,-2.0796,-0.098928,-0.061158,-0.0080726,-0.028682,-0.015412,-0.071005,-0.00027427,0.22987,0.00088284,-0.11428
-0.20967,-0.027556,0.039954,-0.019536,-0.041846,-0.0022036,-0.078368,-0.10752,0.055239,-0.00028319,-0.1156,0.0079335,-0.18274,-1.8465,-0.085323,-0.018728,-0.011516,-0.027715,-0.0061991,-0.059721,0.0041097,0.17022,0.005427,-0.10622
-0.19692,-0.027614,0.024941,-0.034988,-0.032466,0.0033268,-0.077926,-0.10141,0.027228,-0.0011377,-0.12233,-0.0063747,-0.14178,-1.5322,-0.065316,0.031294,-0.011506,-0.026254,0.004455,-0.042922,0.0095165,0.12594,0.0080251,-0.082326
-0.18573,-0.023043,0.012068,-0.047956,-0.020705,0.012043,-0.077207,-0.094345,-0.0015214,-0.0031354,-0.12461,-0.020775,-0.11502,-1.2207,-0.040177,0.072088,-0.0059326,-0.024601,0.01227,-0.023898,0.015015,0.1005,0.0079666,-0.051026
-0.17408,-0.014344,0.002927,-0.056441,-0.010879,0.022711,-0.077119,-0.08824,-0.024397,-0.0056582,-0.12216,-0.033419,-0.12616,-0.98099,-0.016335,0.09051,0.0027824,-0.023553,0.014924,-0.0065674,0.018665,0.087963,0.0047799,-0.022392
-0.15838,-0.0056013,-0.0027383,-0.060963,-0.0083553,0.033372,-0.077101,-0.082866,-0.038198,-0.0060168,-0.11635,-0.042853,-0.17331,-0.83745,-0.003321,0.0846,0.0096869,-0.024214,0.013765,0.0053141,0.01904,0.080471,-0.0017703,-0.0028542
-0.13737,-0.00064897,-0.006532,-0.063191,-0.016293,0.04219,-0.076083,-0.076793,-0.045792,-0.002222,-0.10926,-0.047862,-0.22593,-0.7619,-0.0065068,0.064114,0.011254,-0.027039,0.013046,0.0095288,0.016115,0.074303,-0.010564,0.0068141
-0.11319,0.00045484,-0.01089,-0.063951,-0.03348,0.048229,-0.073562,-0.06893,-0.052685,0.0049197,-0.10291,-0.047536,-0.24165,-0.68919,-0.020449,0.044011,0.007919,-0.030881,0.016885,0.0065947,0.010992,0.069999,-0.018451,0.010128
-0.089347,0.0011992,-0.018212,-0.062409,-0.054956,0.051688,-0.069757,-0.059591,-0.060599,0.012357,-0.098723,-0.042049,-0.19192,-0.54642,-0.029737,0.03573,0.0032921,-0.033161,0.026048,-0.00033801,0.0050246,0.068438,-0.021548,0.011946
-0.067804,0.0049374,-0.029443,-0.05712,-0.075034,0.0535,-0.064982,-0.050417,-0.064388,0.017388,-0.097389,-0.033649,-0.079734,-0.28291,-0.018625,0.042169,0.0010917,-0.031508,0.037094,-0.0072692,-0.00080183,0.067969,-0.01806,0.01572
-0.047858,0.011454,-0.042897,-0.047946,-0.090474,0.054636,-0.059309,-0.043262,-0.055693,0.019839,-0.098749,-0.026707,0.061766,0.11034,0.017156,0.058799,0.0025242,-0.025795,0.044767,-0.011795,-0.0059203,0.065587,-0.010257,0.02183
-0.027526,0.017143,-0.05468,-0.037052,-0.10149,0.055663,-0.053075,-0.038958,-0.03031,0.02186,-0.10193,-0.026201,0.18799,0.598,0.065972,0.078508,0.0060125,-0.018813,0.045967,-0.014457,-0.0099488,0.060514,-0.0034356,0.027584
-0.0059914,0.018522,-0.061079,-0.02797,-0.11007,0.056788,-0.047564,-0.03691,0.00736,0.025635,-0.10564,-0.035312,0.26641,1.1138,0.10749,0.095767,0.008891,-0.014712,0.042167,-0.017943,-0.01255,0.056221,-0.0021609,0.029239
0.015126,0.015544,-0.061414,-0.023372,-0.11742,0.058159,-0.044646,-0.035738,0.04685,0.031217,-0.10854,-0.053731,0.29062,1.582,0.12639,0.10781,0.009252,-0.016171,0.038295,-0.02473,-0.013451,0.05875,-0.0066729,0.025423
0.032809,0.011593,-0.059071,-0.023382,-0.12277,0.060026,-0.045109,-0.034243,0.07881,0.036462,-0.1095,-0.077803,0.27741,1.9359,0.122,0.11393,0.0066229,-0.022456,0.038883,-0.035,-0.01247,0.072737,-0.012565,0.01972
0.04514,0.010419,-0.059603,-0.02579,-0.12429,0.062556,-0.047067,-0.031743,0.10048,0.039034,-0.10778,-0.10231,0.25052,2.1278,0.10696,0.11513,0.001649,-0.029926,0.044602,-0.046374,-0.0095163,0.098379,-0.0143,0.019837
0.053134,0.013175,-0.067144,-0.027975,-0.12076,0.065525,-0.046265,-0.027586,0.11511,0.038503,-0.10313,-0.12259,0.22212,2.1329,0.096943,0.11436,-0.0043085,-0.034546,0.052015,-0.055502,-0.0046794,0.13128,-0.0098958,0.032971
0.060241,0.018215,-0.081791,-0.028896,-0.11219,0.06828,-0.038665,-0.02059,0.12678,0.036514,-0.09596,-0.13595,0.18416,1.9561,0.10036,0.11564,-0.009359,-0.034462,0.056711,-0.060125,0.0015429,0.16449,-0.0030411,0.060454
0.06975,0.023285,-0.099744,-0.0295,-0.098868,0.070088,-0.02358,-0.0093977,0.13611,0.034893,-0.087326,-0.14188,0.11522,1.6407,0.11551,0.12125,-0.011621,-0.030806,0.057144,-0.060021,0.008026,0.1908,-0.00090993,0.096261
0.082098,0.027402,-0.11587,-0.031285,-0.080507,0.070606,-0.0048058,0.0061919,0.14054,0.03353,-0.078679,-0.14175,-0.0011468,1.2701,0.1355,0.12895,-0.010469,-0.026516,0.055941,-0.056393,0.013043,0.20384,-0.0093489,0.13136
0.094309,0.0305,-0.12661,-0.034342,-0.056906,0.070041,0.011354,0.024026,0.13798,0.030152,-0.071398,-0.1382,-0.15865,0.94813,0.15494,0.13284,-0.0076359,-0.024334,0.057663,-0.050568,0.014586,0.19849,-0.028958,0.16082
0.10212,0.031729,-0.13139,-0.03666,-0.029949,0.068833,0.019873,0.039913,0.12926,0.022288,-0.066492,-0.13442,-0.32362,0.75669,0.17247,0.12835,-0.0066728,-0.025432,0.065038,-0.04328,0.010894,0.17136,-0.054559,0.18766
0.10315,0.028904,-0.13197,-0.035331,-0.0047638,0.06713,0.019894,0.049749,0.11659,0.0096702,-0.064602,-0.1333,-0.44867,0.71296,0.18828,0.11764,-0.010415,-0.029182,0.076849,-0.03503,0.0011039,0.12178,-0.077827,0.21942
0.098524,0.020331,-0.13069,-0.028682,0.011806,0.064504,0.014807,0.052087,0.099946,-0.0051446,-0.065991,-0.13648,-0.49786,0.75606,0.20045,0.10988,-0.018261,-0.033754,0.08904,-0.026843,-0.014045,0.052332,-0.090876,0.25963
0.091708,0.0073186,-0.12892,-0.01755,0.01489,0.060134,0.009708,0.049142,0.076059,-0.01855,-0.070124,-0.14382,-0.46751,0.77949,0.20417,0.11468,-0.025931,-0.037001,0.09774,-0.020385,-0.031716,-0.03162,-0.088805,0.30099
0.085665,-0.005481,-0.12649,-0.0047131,0.0046632,0.053282,0.0081146,0.045201,0.041771,-0.028497,-0.075024,-0.15365,-0.3883,0.69373,0.19443,0.13336,-0.02856,-0.037334,0.10154,-0.01704,-0.047322,-0.12372,-0.070643,0.32657
0.080852,-0.012936,-0.12223,0.0069742,-0.013825,0.04372,0.010087,0.043516,-0.00085921,-0.035693,-0.077353,-0.1636,-0.30579,0.47963,0.16934,0.15573,-0.024841,-0.034417,0.10139,-0.016682,-0.056106,-0.21861,-0.03924,0.31925
0.075771,-0.013324,-0.11519,0.016118,-0.034039,0.031872,0.012739,0.044069,-0.043035,-0.042457,-0.073961,-0.17152,-0.2515,0.19725,0.13139,0.16616,-0.01846,-0.029386,0.098975,-0.017332,-0.055529,-0.31282,-0.00045679,0.2729
0.069387,-0.0097822,-0.10577,0.022819,-0.051816,0.018732,0.012583,0.043979,-0.073534,-0.050322,-0.064328,-0.17594,-0.22388,-0.054658,0.086186,0.15501,-0.015185,-0.024281,0.095262,-0.016306,-0.046966,-0.40362,0.038545,0.19723
0.062944,-0.0078561,-0.096088,0.027414,-0.06658,0.0056444,0.0080967,0.040135,-0.085709,-0.058435,-0.051934,-0.17599,-0.19246,-0.19909,0.04052,0.12663,-0.017882,-0.020865,0.090625,-0.012228,-0.035205,-0.48513,0.071843,0.11267
0.059264,-0.011167,-0.088985,0.029286,-0.079165,-0.0059664,0.00083862,0.031777,-0.081281,-0.063964,-0.042773,-0.17117,-0.122,-0.21957,0.0007742,0.097152,-0.02392,-0.019605,0.085653,-0.006357,-0.025606,-0.54314,0.096982,0.039141
0.059974,-0.018857,-0.086417,0.026941,-0.088534,-0.014931,-0.0055874,0.020904,-0.067776,-0.063987,-0.041387,-0.16123,0.00032076,-0.15401,-0.028107,0.083458,-0.027444,-0.019612,0.081433,-0.0019997,-0.020614,-0.55282,0.11522,-0.013603
0.063242,-0.026799,-0.088166,0.01931,-0.090601,-0.020618,-0.0079776,0.01046,-0.052085,-0.057341,-0.04717,-0.14634,0.15371,-0.054611,-0.043684,0.091765,-0.024639,-0.019622,0.078797,-0.0021149,-0.018143,-0.48474,0.12925,-0.048257
0.064317,-0.031219,-0.092013,0.0070496,-0.080416,-0.023043,-0.0056424,0.0021873,-0.035932,-0.045142,-0.054099,-0.12715,0.29592,0.051708,-0.046689,0.11475,-0.017297,-0.01914,0.077428,-0.0067821,-0.013151,-0.32183,0.13995,-0.075061
0.058779,-0.031402,-0.095234,-0.0073866,-0.055899,-0.022801,-0.00068535,-0.0038979,-0.01694,-0.029955,-0.054606,-0.10471,0.3895,0.17157,-0.040262,0.13921,-0.011517,-0.018736,0.075939,-0.012579,-0.0014645,-0.080216,0.145,-0.10467
0.045902,-0.029341,-0.096231,-0.021039,-0.019905,-0.020954,0.0036702,-0.0083508,0.0063072,-0.014506,-0.04499,-0.080276,0.42404,0.31886,-0.027755,0.15756,-0.012684,-0.019318,0.073041,-0.014674,0.016826,0.18196,0.14089,-0.14375
0.02932,-0.027129,-0.095021,-0.032038,0.021108,-0.018935,0.0053683,-0.01113,0.030364,-0.00093183,-0.028238,-0.055461,0.41986,0.48012,-0.010914,0.17336,-0.021139,-0.021199,0.068729,-0.010308,0.036752,0.38197,0.12686,-0.19435
0.014455,-0.024862,-0.092375,-0.040252,0.060424,-0.018316,0.0047465,-0.011888,0.047934,0.009266,-0.012036,-0.032502,0.412,0.60473,0.0094348,0.19613,-0.032126,-0.023933,0.064309,-0.0010292,0.05102,0.4541,0.1074,-0.25485
0.0048949,-0.021045,-0.088645,-0.046657,0.093441,-0.020267,0.003999,-0.011298,0.052869,0.015103,-0.0034341,-0.014224,0.42651,0.63263,0.03045,0.23001,-0.039689,-0.026954,0.0611,0.0081736,0.053928,0.39155,0.090798,-0.32021
0.00066362,-0.014913,-0.083484,-0.052177,0.11732,-0.024909,0.0055195,-0.011605,0.044734,0.016382,-0.0041849,-0.0032038,0.46508,0.53901,0.045229,0.26636,-0.040902,-0.030076,0.058844,0.012332,0.044129,0.25731,0.084364,-0.38191
-0.00051787,-0.0081711,-0.076653,-0.057038,0.12926,-0.031141,0.010361,-0.015323,0.029258,0.014183,-0.010061,-0.00042885,0.50775,0.35866,0.045001,0.28708,-0.037013,-0.033125,0.055251,0.0099279,0.024728,0.15051,0.090001,-0.42974
-0.00049689,-0.0041991,-0.068936,-0.060966,0.12623,-0.037337,0.017659,-0.023118,0.01483,0.010805,-0.014256,-0.0043944,0.52996,0.16662,0.025235,0.27659,-0.031247,-0.035149,0.047366,0.0036792,0.001167,0.14825,0.10337,-0.45617
0.00097014,-0.0052238,-0.062068,-0.063783,0.1075,-0.042548,0.025139,-0.033075,0.0082599,0.008678,-0.012001,-0.011483,0.52034,0.02672,-0.0091058,0.23267,-0.02591,-0.034478,0.034103,-0.001775,-0.021414,0.26323,0.11717,-0.46045
0.0055566,-0.0099492,-0.057556,-0.065621,0.077783,-0.047167,0.030378,-0.042245,0.012779,0.0088589,-0.0030915,-0.017533,0.48597,-0.052634,-0.044609,0.16766,-0.021475,-0.030158,0.018122,-0.0033062,-0.039718,0.44687,0.12582,-0.44869
0.014335,-0.013929,-0.055465,-0.066561,0.047184,-0.05234,0.032296,-0.049011,0.028464,0.010454,0.0088967,-0.019598,0.44229,-0.12026,-0.067605,0.099219,-0.017808,-0.023526,0.0051921,-0.0011429,-0.052354,0.63128,0.12803,-0.42909
0.026338,-0.012661,-0.05434,-0.066114,0.026468,-0.058502,0.032175,-0.053847,0.05319,0.011697,0.01943,-0.016834,0.39789,-0.23962,-0.073867,0.038514,-0.015476,-0.017982,0.00068633,0.0020317,-0.05912,0.77394,0.12597,-0.40577
0.038797,-0.005032,-0.052386,-0.063248,0.020566,-0.064421,0.033369,-0.057754,0.08272,0.011828,0.025587,-0.010147,0.34805,-0.43524,-0.071902,-0.01515,-0.015377,-0.016469,0.0052459,0.0035936,-0.060439,0.87121,0.12251,-0.37659
0.04854,0.0056615,-0.048846,-0.057121,0.025569,-0.067819,0.039444,-0.060121,0.1106,0.011896,0.027052,-0.0011284,0.28242,-0.66952,-0.076422,-0.070327,-0.017189,-0.018678,0.013084,0.0028764,-0.057189,0.93701,0.11902,-0.33701
0.053288,0.014016,-0.044361,-0.048007,0.032037,-0.067249,0.051641,-0.058493,0.12952,0.0135,0.025662,0.0088875,0.19862,-0.86643,-0.096737,-0.13493,-0.018748,-0.020818,0.015153,0.0010981,-0.050529,0.97398,0.11513,-0.2861
0.052108,0.016395,-0.040076,-0.03754,0.032111,-0.06361,0.067469,-0.05075,0.13457,0.016563,0.024346,0.019067,0.10837,-0.962,-0.12948,-0.21068,-0.017519,-0.018671,0.0056858,-0.00022354,-0.041392,0.96623,0.10983,-0.22895
0.045235,0.013353,-0.036522,-0.027916,0.024543,-0.059827,0.081781,-0.037642,0.12608,0.018497,0.025954,0.028649,0.029791,-0.94322,-0.16183,-0.29391,-0.012925,-0.011411,-0.012742,-0.00078096,-0.03001,0.89818,0.10251,-0.17272
0.033737,0.008717,-0.033421,-0.020626,0.013707,-0.058763,0.08985,-0.023146,0.10957,0.015989,0.032061,0.036339,-0.02648,-0.85008,-0.18269,-0.37985,-0.0070278,-0.0025262,-0.030184,-0.0016769,-0.016256,0.77714,0.093285,-0.1201
0.019121,0.00611,-0.030584,-0.015874,0.0040813,-0.061048,0.090236,-0.012144,0.092141,0.0080582,0.042008,0.040177,-0.064214,-0.74559,-0.19206,-0.46506,-0.0025995,0.0032685,-0.036406,-0.0043354,-0.001031,0.63457,0.082797,-0.066796
0.0027725,0.0058326,-0.028837,-0.013261,-0.0043022,-0.064671,0.085285,-0.0074039,0.077657,-0.002529,0.052872,0.038271,-0.095343,-0.68012,-0.20047,-0.54589,-0.00032819,0.0043879,-0.028865,-0.0091295,0.012298,0.50232,0.07196,-0.0065356
-0.014555,0.004766,-0.029806,-0.013053,-0.015246,-0.066644,0.078969,-0.0083493,0.064638,-0.011118,0.060891,0.030106,-0.12755,-0.67372,-0.21873,-0.61528,0.0019796,0.0038091,-0.015058,-0.014803,0.018002,0.38511,0.06153,0.060363
-0.032605,-0.00054504,-0.034508,-0.016534,-0.031515,-0.065281,0.073952,-0.012272,0.048305,-0.014926,0.063832,0.017584,-0.1583,-0.72027,-0.24669,-0.66248,0.0072208,0.0060726,-0.0070108,-0.019096,0.010395,0.25388,0.051323,0.12269
-0.05061,-0.010271,-0.042017,-0.024656,-0.050698,-0.061188,0.070218,-0.016547,0.025081,-0.015347,0.062722,0.0048579,-0.18082,-0.80005,-0.27131,-0.67723,0.015851,0.012642,-0.01217,-0.020183,-0.012555,0.066577,0.039513,0.16335
-0.06622,-0.020383,-0.049563,-0.035998,-0.065967,-0.056344,0.066074,-0.019932,-0.0040981,-0.016597,0.061465,-0.0033014,-0.19508,-0.8864,-0.27595,-0.65601,0.024869,0.020139,-0.028032,-0.018,-0.046852,-0.19995,0.02303,0.17085
-0.075733,-0.025422,-0.054219,-0.046229,-0.071182,-0.052435,0.060269,-0.022378,-0.034008,-0.021758,0.064323,-0.0038227,-0.21155,-0.94501,-0.25353,-0.606,0.030065,0.023309,-0.044705,-0.014543,-0.08333,-0.53113,-0.00054332,0.14819
-0.076078,-0.022697,-0.05488,-0.05036,-0.065775,-0.050025,0.053266,-0.02421,-0.058245,-0.029747,0.072959,0.0030218,-0.24242,-0.93569,-0.21271,-0.54382,0.029524,0.020004,-0.052952,-0.012729,-0.11161,-0.88123,-0.030739,0.112
-0.067296,-0.01433,-0.052915,-0.046499,-0.055197,-0.049054,0.046762,-0.02573,-0.072542,-0.035956,0.085151,0.013705,-0.2878,-0.82504,-0.17211,-0.4896,0.025209,0.01345,-0.050967,-0.01439,-0.12491,-1.1987,-0.063701,0.08182
-0.053296,-0.0055097,-0.050979,-0.037926,-0.046804,-0.049647,0.042278,-0.027329,-0.076095,-0.036064,0.096096,0.02326,-0.32967,-0.60639,-0.14745,-0.45941,0.021236,0.0095784,-0.044645,-0.018794,-0.12277,-1.4513,-0.094375,0.067764
-0.039806,-0.00061076,-0.050926,-0.031149,-0.0449,-0.052036,0.040237,-0.029435,-0.070784,-0.029629,0.10129,0.027747,-0.34088,-0.31221,-0.14205,-0.4594,0.020457,0.011868,-0.04185,-0.022959,-0.11014,-1.6358,-0.11991,0.065525
-0.030754,-0.00054495,-0.052409,-0.030911,-0.048792,-0.055576,0.040175,-0.031945,-0.059662,-0.020295,0.099032,0.025926,-0.30318,-0.0059601,-0.14734,-0.48412,0.022361,0.018435,-0.045924,-0.023772,-0.093689,-1.7655,-0.14137,0.061788
-0.025831,-0.0032475,-0.053103,-0.036081,-0.054674,-0.058167,0.041442,-0.033722,-0.045912,-0.012522,0.090949,0.019265,-0.22086,0.24595,-0.15175,-0.51924,0.023908,0.023925,-0.05366,-0.020396,-0.077752,-1.8482,-0.16188,0.045009
-0.021152,-0.0062028,-0.050313,-0.040102,-0.05891,-0.057149,0.043411,-0.032993,-0.032392,-0.007912,0.080672,0.010504,-0.11972,0.40533,-0.14938,-0.54725,0.022301,0.024258,-0.058683,-0.014973,-0.062616,-1.8688,-0.18262,0.013375
-0.012416,-0.0083468,-0.042858,-0.035974,-0.05991,-0.051243,0.045025,-0.028674,-0.021263,-0.0044819,0.071743,0.0018911,-0.032449,0.47583,-0.1419,-0.55384,0.017232,0.019832,-0.056823,-0.010913,-0.045943,-1.7904,-0.20001,-0.024596
0.0020742,-0.0098613,-0.032056,-0.0218,-0.057764,-0.041802,0.044535,-0.021494,-0.013548,0.00057368,0.066216,-0.0056726,0.018423,0.48966,-0.13335,-0.53242,0.010952,0.014569,-0.048999,-0.010123,-0.025916,-1.5743,-0.20679,-0.054817
0.020889,-0.010772,-0.021197,-0.0022501,-0.053024,-0.03209,0.040303,-0.013691,-0.009086,0.0074116,0.064474,-0.012111,0.028619,0.47834,-0.12421,-0.4855,0.0065334,0.012216,-0.039833,-0.011521,-0.0033308,-1.2041,-0.19659,-0.062406
0.041562,-0.010307,-0.013747,0.015255,-0.046255,-0.025078,0.032379,-0.0072942,-0.0072078,0.012823,0.065856,-0.016921,0.0074945,0.45052,-0.11037,-0.42301,0.0059551,0.013545,-0.033776,-0.012115,0.019386,-0.69914,-0.16846,-0.033365
0.063161,-0.0077675,-0.011213,0.026256,-0.038552,-0.021603,0.023389,-0.0024772,-0.0076775,0.013107,0.069355,-0.018451,-0.033396,0.39389,-0.087745,-0.3582,0.0093321,0.016713,-0.032147,-0.0097116,0.041585,-0.10898,-0.12817,0.04523
0.086919,-0.0037722,-0.012011,0.031922,-0.031913,-0.020333,0.017368,0.0023482,-0.010992,0.0078789,0.074023,-0.014573,-0.088756,0.29783,-0.05745,-0.30248,0.015335,0.019685,-0.033141,-0.0048664,0.067148,0.49975,-0.085325,0.18278
0.11437,-0.00029127,-0.012208,0.036584,-0.028464,-0.019249,0.016859,0.0085928,-0.017614,0.0011294,0.079179,-0.0043996,-0.15913,0.17451,-0.026502,-0.26069,0.02199,0.021959,-0.03417,-0.00041251,0.10334,1.0526,-0.048345,0.37927
0.14477,0.00075865,-0.0079563,0.042686,-0.028914,-0.017102,0.020432,0.015484,-0.026792,-0.0017013,0.08452,0.010305,-0.24348,0.057119,-0.0032438,-0.22869,0.027235,0.024088,-0.034204,0.00097061,0.15543,1.4704,-0.020583,0.61941
0.17428,-0.00097453,0.0018811,0.047932,-0.03163,-0.013733,0.023033,0.020127,-0.036128,0.0018781,0.089923,0.025298,-0.33223,-0.02571,0.0083028,-0.19507,0.029321,0.026147,-0.034154,-0.00095357,0.22063,1.6792,0.00055131,0.87208
0.1978,-0.0040628,0.014747,0.047211,-0.03342,-0.0094876,0.019511,0.019988,-0.04248,0.0094837,0.094789,0.035743,-0.40773,-0.076089,0.010332,-0.147,0.027383,0.027207,-0.035331,-0.0036984,0.28641,1.6404,0.021248,1.0982
0.21222,-0.0064195,0.025917,0.037448,-0.031648,-0.0047936,0.0088469,0.015734,-0.043602,0.016142,0.097385,0.038601,-0.45283,-0.1268,0.0083258,-0.077843,0.0221,0.026415,-0.037656,-0.0039044,0.33554,1.3877,0.047098,1.2639
0.21832,-0.006587,0.031572,0.020919,-0.026074,-0.00036521,-0.004459,0.011666,-0.039269,0.018668,0.095161,0.03397,-0.46134,-0.20958,0.0065524,0.0079192,0.015762,0.024219,-0.039391,0.00021824,0.35529,1.0405,0.079146,1.3532
0.21985,-0.0041765,0.031242,0.0040608,-0.018929,0.0025844,-0.013427,0.012874,-0.031159,0.018126,0.086432,0.024699,-0.44163,-0.31662,0.0061242,0.095866,0.01126,0.022086,-0.038614,0.0076753,0.34424,0.76389,0.11236,1.3723
0.22055,0.00042014,0.027911,-0.0071557,-0.013124,0.0029264,-0.013945,0.02124,-0.021756,0.018248,0.072387,0.014771,-0.40958,-0.39043,0.006715,0.16867,0.010375,0.020845,-0.035028,0.015439,0.312,0.68545,0.1378,1.3435
0.22138,0.0062598,0.02585,-0.011353,-0.010031,0.00079058,-0.0081224,0.033692,-0.013193,0.021444,0.057471,0.007588,-0.37562,-0.3559,0.0093397,0.21502,0.012575,0.019552,-0.030373,0.020484,0.27203,0.82085,0.14774,1.2918
0.22014,0.011728,0.027926,-0.012079,-0.0085606,-0.0018827,-0.0027751,0.044355,-0.0066306,0.026301,0.047118,0.0048792,-0.33636,-0.17166,0.016837,0.23497,0.015395,0.016371,-0.027018,0.021693,0.23286,1.0651,0.14062,1.233
0.21357,0.014685,0.034312,-0.014414,-0.0061448,-0.0023335,-0.0041546,0.04887,-0.0021312,0.028928,0.044144,0.006379,-0.27771,0.14081,0.031382,0.23889,0.016293,0.0108,-0.026035,0.020454,0.19384,1.2627,0.12226,1.1689
0.20045,0.013499,0.043157,-0.020773,-0.00070993,0.001017,-0.013199,0.04728,0.0012648,0.026845,0.046667,0.010135,-0.18705,0.51401,0.051601,0.24097,0.014612,0.004963,-0.026511,0.019677,0.14775,1.3098,0.10213,1.0919
0.18306,0.0085141,0.052181,-0.029079,0.0079261,0.0072212,-0.025095,0.043177,0.0052754,0.021682,0.049485,0.013421,-0.063694,0.8808,0.072446,0.25143,0.012048,0.0023784,-0.026665,0.021893,0.087776,1.2121,0.087097,0.99502
0.1661,0.0025019,0.059737,-0.034226,0.0181,0.013352,-0.033284,0.040209,0.011651,0.01801,0.047995,0.014107,0.081318,1.2085,0.088316,0.27137,0.011189,0.0051333,-0.025599,0.027641,0.013683,1.0591,0.077622,0.87918
0.15344,-0.00085213,0.06482,-0.031395,0.027453,0.016546,-0.034455,0.039257,0.021044,0.01927,0.041503,0.011881,0.23486,1.4923,0.096777,0.29251,0.013292,0.01206,-0.024012,0.035142,-0.066467,0.93979,0.069198,0.75202
0.1451,0.00036978,0.066714,-0.018989,0.034216,0.015892,-0.030522,0.03869,0.032197,0.024478,0.033302,0.0084248,0.39067,1.7203,0.099662,0.30168,0.017165,0.019662,-0.023281,0.041458,-0.13963,0.87104,0.057826,0.62087
0.13645,0.0046338,0.065133,0.00028765,0.037907,0.012778,-0.02639,0.037026,0.04232,0.0288,0.027663,0.0062037,0.5483,1.8517,0.10087,0.2883,0.020105,0.024911,-0.023922,0.044365,-0.19388,0.79328,0.044823,0.48596
0.12051,0.007869,0.060845,0.020421,0.039354,0.0096796,-0.025737,0.035048,0.048744,0.027627,0.026425,0.0066639,0.70352,1.836,0.10323,0.25173,0.020088,0.027282,-0.024951,0.043745,-0.22392,0.62862,0.036827,0.3399
0.091983,0.0064028,0.055847,0.034616,0.040252,0.0085298,-0.02836,0.035197,0.050684,0.02061,0.027899,0.0092718,0.84046,1.6614,0.10726,0.20444,0.017308,0.028244,-0.024636,0.041596,-0.23336,0.34602,0.040892,0.17393
0.050479,-0.00044561,0.052415,0.038424,0.042364,0.0097954,-0.03093,0.038913,0.049625,0.012115,0.028547,0.01217,0.93464,1.3844,0.1124,0.16784,0.013791,0.029016,-0.021844,0.040676,-0.23247,-0.020182,0.058541,-0.014448
0.0010331,-0.010153,0.051572,0.032147,0.046538,0.01255,-0.03013,0.044721,0.047843,0.0076817,0.025624,0.013796,0.96532,1.1073,0.11852,0.16128,0.011592,0.029069,-0.016812,0.042638,-0.23261,-0.4054,0.083404,-0.21839
-0.048449,-0.019069,0.052424,0.021083,0.052007,0.015159,-0.02541,0.049093,0.046266,0.0095661,0.018626,0.013983,0.92698,0.91552,0.12555,0.18992,0.011287,0.026956,-0.010959,0.046839,-0.24033,-0.76469,0.10408,-0.42521
-0.091031,-0.024804,0.053212,0.01295,0.056649,0.016078,-0.019206,0.049382,0.043621,0.015182,0.0088987,0.013698,0.83122,0.82447,0.13185,0.23969,0.012091,0.022499,-0.0061972,0.050621,-0.25458,-1.0935,0.10994,-0.62297
-0.12357,-0.027042,0.053261,0.013561,0.058378,0.014503,-0.014728,0.046124,0.037722,0.019621,-0.0016014,0.013954,0.69976,0.78051,0.13375,0.28414,0.013198,0.017899,-0.0042523,0.050954,-0.26863,-1.4092,0.095674,-0.80486
-0.14709,-0.026612,0.053895,0.023368,0.056852,0.010693,-0.013314,0.042636,0.027811,0.01988,-0.011149,0.015132,0.55596,0.71395,0.12818,0.29989,0.014756,0.016337,-0.0060263,0.046446,-0.27503,-1.7209,0.062232,-0.96846
-0.16485,-0.024212,0.057161,0.037308,0.054075,0.0058014,-0.013586,0.042381,0.015739,0.017078,-0.018398,0.017293,0.42003,0.59751,0.11634,0.28057,0.017388,0.019284,-0.010978,0.038333,-0.26994,-2.0179,0.014609,-1.1116
-0.17962,-0.020064,0.063283,0.048226,0.053158,0.001225,-0.013012,0.046456,0.0047566,0.014887,-0.022418,0.020806,0.30651,0.46168,0.10472,0.23936,0.020837,0.025076,-0.016962,0.029738,-0.25375,-2.2819,-0.040874,-1.229
-0.19162,-0.014488,0.069258,0.051526,0.055994,-0.0021222,-0.01047,0.053143,-0.0031406,0.015822,-0.023037,0.026274,0.2206,0.35943,0.10141,0.19855,0.023391,0.030227,-0.021171,0.023668,-0.22837,-2.5025,-0.097809,-1.3123
-0.19851,-0.0083426,0.070288,0.047751,0.061743,-0.0040695,-0.0074761,0.059455,-0.0089135,0.018808,-0.021164,0.033655,0.1547,0.31636,0.11021,0.1744,0.023009,0.032287,-0.022005,0.021266,-0.19397,-2.672,-0.14947,-1.3543
-0.19712,-0.0026479,0.063325,0.041452,0.067467,-0.0048637,-0.0069013,0.063057,-0.015573,0.020143,-0.018431,0.041614,0.091212,0.31162,0.12774,0.16851,0.019258,0.031634,-0.020466,0.021611,-0.14838,-2.7665,-0.18848,-1.3518
-0.18614,0.0022407,0.049932,0.037588,0.070476,-0.0047277,-0.010151,0.063171,-0.025281,0.016881,-0.016139,0.048145,0.014005,0.30222,0.14656,0.17162,0.01415,0.030673,-0.019518,0.02311,-0.089355,-2.7348,-0.20755,-1.3078
-0.16807,0.0069246,0.035923,0.03837,0.070421,-0.0038485,-0.015294,0.060349,-0.036865,0.0095952,-0.014298,0.052264,-0.078728,0.26343,0.16191,0.17495,0.010841,0.031377,-0.021494,0.025096,-0.017581,-2.5152,-0.20122,-1.2294
-0.14888,0.012318,0.02769,0.042678,0.069364,-0.0027435,-0.017984,0.055953,-0.045816,0.0021198,-0.011709,0.055279,-0.17218,0.2073,0.17611,0.17902,0.011202,0.033542,-0.025644,0.028151,0.062334,-2.0718,-0.16804,-1.127
-0.13543,0.018668,0.027805,0.04779,0.069864,-0.0023705,-0.014656,0.051856,-0.046731,-0.0013909,-0.0071225,0.060244,-0.24785,0.16595,0.19672,0.19264,0.014365,0.035208,-0.028271,0.032913,0.14339,-1.4237,-0.11257,-1.0161
-0.13194,0.02522,0.033222,0.051502,0.072812,-0.0035597,-0.0054167,0.050083,-0.036304,0.00047714,-0.00050869,0.06975,-0.30158,0.16042,0.22954,0.22346,0.017527,0.034566,-0.025719,0.038652,0.21859,-0.64699,-0.046677,-0.91899
-0.13802,0.030851,0.037515,0.053032,0.076845,-0.0062188,0.0058741,0.051961,-0.014867,0.0057327,0.0066793,0.083774,-0.34975,0.1857,0.27214,0.26854,0.01828,0.03141,-0.017767,0.043215,0.28212,0.14831,0.011166,-0.86263
-0.14943,0.035039,0.035586,0.052708,0.079684,-0.0092552,0.014483,0.057054,0.013918,0.011004,0.01252,0.099406,-0.41565,0.22235,0.31289,0.31273,0.016393,0.026963,-0.0083512,0.04454,0.32873,0.84817,0.040498,-0.86945
-0.16112,0.0382,0.027402,0.051441,0.08007,-0.011532,0.018228,0.062932,0.044285,0.014258,0.016054,0.11271,-0.50633,0.25806,0.33645,0.33662,0.013591,0.022651,-0.002846,0.042332,0.35284,1.3578,0.027445,-0.94477
-0.17003,0.04103,0.018019,0.050527,0.078654,-0.012982,0.018559,0.066473,0.069629,0.015822,0.017911,0.1212,-0.6007,0.29553,0.33185,0.3282,0.011688,0.019259,-0.0042243,0.038184,0.34918,1.6194,-0.026482,-1.0691
-0.17579,0.043495,0.013847,0.051336,0.077262,-0.014628,0.018521,0.066059,0.08388,0.017066,0.019619,0.1249,-0.66104,0.34064,0.29807,0.29021,0.010871,0.017121,-0.011327,0.033982,0.3151,1.6292,-0.102,-1.2026
-0.17916,0.044491,0.01788,0.054384,0.07734,-0.017311,0.019647,0.062899,0.083438,0.018294,0.0222,0.12538,-0.65977,0.38692,0.24425,0.23815,0.0096621,0.016665,-0.020361,0.030215,0.25299,1.4484,-0.17044,-1.3004
-0.18002,0.042668,0.027347,0.058331,0.07888,-0.020399,0.020678,0.060158,0.06911,0.018054,0.025287,0.12384,-0.59972,0.41457,0.18483,0.19034,0.006507,0.018233,-0.027836,0.025999,0.17054,1.1884,-0.20979,-1.3307
-0.17684,0.037808,0.035492,0.060238,0.080505,-0.021985,0.01922,0.060396,0.046388,0.01458,0.027539,0.12003,-0.51095,0.40534,0.1327,0.1564,0.0014682,0.021162,-0.032234,0.020822,0.078275,0.96455,-0.21774,-1.2864
-0.168,0.031576,0.036159,0.057542,0.080476,-0.020638,0.014626,0.063455,0.022917,0.0079432,0.028005,0.11297,-0.4274,0.35703,0.093798,0.13136,-0.00355,0.023339,-0.033508,0.016084,-0.014241,0.8382,-0.21143,-1.1866
-0.15347,0.026846,0.027902,0.0504,0.077799,-0.017086,0.0092779,0.066718,0.0042021,0.00068974,0.027232,0.1026,-0.3627,0.28251,0.065562,0.099146,-0.0062812,0.022287,-0.031785,0.014513,-0.10079,0.7877,-0.21304,-1.0708
-0.13524,0.025954,0.01479,0.042203,0.072742,-0.014053,0.0069773,0.067526,-0.0094515,-0.0038682,0.027052,0.090864,-0.30463,0.19553,0.03967,0.043286,-0.0059972,0.017263,-0.027037,0.01772,-0.17821,0.73381,-0.23181,-0.98874
-0.11602,0.029208,0.0035836,0.037388,0.066559,-0.014164,0.0097908,0.065514,-0.022265,-0.0042985,0.029079,0.080864,-0.23132,0.10021,0.007439,-0.041577,-0.0041919,0.010421,-0.019848,0.024262,-0.24404,0.60399,-0.25697,-0.98462
-0.097726,0.034816,-0.0005335,0.038164,0.0607,-0.01773,0.016096,0.062645,-0.039001,-0.0022722,0.033126,0.074742,-0.13558,-0.003646,-0.034939,-0.14443,-0.0035003,0.0055072,-0.011822,0.030398,-0.29446,0.38612,-0.26707,-1.0759
-0.080933,0.040252,0.0032655,0.042885,0.056012,-0.022386,0.021485,0.060962,-0.06086,-0.0012415,0.036944,0.071977,-0.038455,-0.10571,-0.083878,-0.24185,-0.0057988,0.0047855,-0.0046169,0.033168,-0.32432,0.13012,-0.24742,-1.2358
-0.065752,0.043904,0.011666,0.047461,0.05239,-0.024925,0.02182,0.060306,-0.084538,-0.0037246,0.037673,0.069673,0.017777,-0.17972,-0.12962,-0.30863,-0.011011,0.0068448,0.0015377,0.033011,-0.32941,-0.099395,-0.20091,-1.3942
-0.052862,0.045661,0.019798,0.048532,0.048986,-0.023691,0.016107,0.058371,-0.10491,-0.0095148,0.033931,0.064852,-0.0076986,-0.19862,-0.16036,-0.32885,-0.017409,0.007528,0.007964,0.033324,-0.30882,-0.27423,-0.14384,-1.4671
-0.043426,0.04614,0.024244,0.045732,0.044833,-0.019566,0.0071426,0.053129,-0.11874,-0.016192,0.026906,0.056973,-0.13003,-0.16058,-0.16732,-0.30193,-0.022919,0.0035075,0.015679,0.037179,-0.26548,-0.41147,-0.092016,-1.4043
-0.037858,0.045496,0.024682,0.041396,0.039526,-0.014879,-0.00043295,0.045216,-0.12641,-0.021248,0.019611,0.048579,-0.3272,-0.10239,-0.1487,-0.24158,-0.026326,-0.0045567,0.023252,0.044154,-0.2043,-0.53552,-0.050372,-1.2221
-0.034728,0.043135,0.023527,0.03835,0.033633,-0.011395,-0.0032543,0.037779,-0.13055,-0.023856,0.014961,0.043446,-0.54791,-0.0858,-0.11078,-0.16976,-0.02759,-0.012213,0.026872,0.05025,-0.12971,-0.63378,-0.01435,-0.99546
-0.031164,0.038603,0.02408,0.037858,0.028586,-0.0091564,-0.0014447,0.033698,-0.13363,-0.024898,0.01422,0.043724,-0.73533,-0.16504,-0.065673,-0.10858,-0.027365,-0.014774,0.023247,0.051063,-0.044973,-0.65226,0.02035,-0.80945
-0.024692,0.032676,0.028362,0.039223,0.025967,-0.0070283,0.0015372,0.032766,-0.13657,-0.025544,0.01679,0.048483,-0.8543,-0.35988,-0.026098,-0.073169,-0.026335,-0.011159,0.013042,0.045426,0.045701,-0.53917,0.050685,-0.70384
-0.015042,0.027341,0.035855,0.040852,0.026445,-0.0042525,0.0013496,0.03164,-0.13909,-0.025911,0.021118,0.054807,-0.90617,-0.65231,0.00044228,-0.067114,-0.024858,-0.004661,0.001552,0.036337,0.13402,-0.2977,0.068938,-0.65371
-0.0043208,0.024433,0.043859,0.041515,0.02903,-0.0014684,-0.0040782,0.026819,-0.14055,-0.025026,0.025648,0.060323,-0.92138,-1.0036,0.014797,-0.081646,-0.023056,-3.5528e-005,-0.0045689,0.028517,0.20644,0.0017234,0.071808,-0.59911
0.0046201,0.024124,0.049233,0.040776,0.031369,-0.00019356,-0.012881,0.018005,-0.14001,-0.021973,0.029155,0.064853,-0.93317,-1.3729,0.024426,-0.099245,-0.021106,0.00040026,-0.0021991,0.024893,0.24698,0.26404,0.06616,-0.49663
0.01021,0.024724,0.050426,0.038653,0.031167,-0.0011946,-0.020365,0.0086886,-0.13577,-0.017009,0.030707,0.069843,-0.95004,-1.7208,0.037762,-0.10072,-0.019445,-0.0017449,0.0057276,0.025025,0.24321,0.43238,0.065272,-0.34903
0.012873,0.024067,0.048403,0.035204,0.027821,-0.003283,-0.022196,0.0032851,-0.12597,-0.011535,0.029872,0.076408,-0.94688,-2.0039,0.05876,-0.072922,-0.018689,-0.0029221,0.01232,0.026433,0.19239,0.51836,0.078886,-0.19055
0.013953,0.021215,0.045871,0.030504,0.022929,-0.0038283,-0.01736,0.0032951,-0.11038,-0.0069912,0.027222,0.083953,-0.88216,-2.174,0.085718,-0.013326,-0.019287,-0.0010353,0.011948,0.027145,0.10443,0.5762,0.10614,-0.046802
0.013976,0.016918,0.045393,0.024896,0.019114,-0.00078822,-0.0087168,0.00588,-0.092045,-0.0037738,0.0244,0.090564,-0.72812,-2.1971,0.11469,0.070453,-0.021147,0.0028517,0.0045228,0.02697,0.00012218,0.64601,0.13748,0.090779
0.011879,0.012492,0.047802,0.019074,0.018021,0.0054149,-0.00083329,0.0061099,-0.076421,-0.001239,0.023129,0.094513,-0.49,-2.0801,0.14346,0.16533,-0.023546,0.0057796,-0.0045022,0.026704,-0.094967,0.71606,0.16306,0.25245
0.0059314,0.0083543,0.051987,0.013835,0.019163,0.011899,0.0030645,0.00095619,-0.067896,0.0012267,0.023647,0.095369,-0.20007,-1.8841,0.17141,0.25822,-0.02544,0.0056531,-0.0083216,0.026621,-0.15904,0.7348,0.17992,0.45361
-0.0044398,0.0037586,0.055992,0.0097453,0.020529,0.01538,0.0027329,-0.0082996,-0.066194,0.0031883,0.023996,0.09395,0.10639,-1.7053,0.19504,0.33919,-0.026009,0.0028987,-0.0038864,0.026075,-0.18193,0.65866,0.1919,0.67059
-0.017418,-0.0020054,0.05842,0.0070527,0.020263,0.014618,0.00028144,-0.017073,-0.066069,0.0032981,0.021256,0.09166,0.41014,-1.6274,0.2039,0.40169,-0.025045,-0.00025035,0.0059213,0.024546,-0.16868,0.49317,0.20373,0.85242
-0.029212,-0.0082421,0.059145,0.0058922,0.017816,0.011211,-0.001657,-0.02084,-0.061159,0.00055713,0.014098,0.090038,0.70556,-1.6754,0.18274,0.44134,-0.022937,-0.001823,0.014497,0.022721,-0.13608,0.29406,0.21541,0.95788
-0.035928,-0.012841,0.059084,0.0065353,0.013686,0.0081633,-0.0012813,-0.018052,-0.049112,-0.0045027,0.0045325,0.090541,0.98175,-1.7993,0.12026,0.45512,-0.020339,-0.0015027,0.01625,0.022204,-0.10302,0.13035,0.22188,0.98422
-0.035752,-0.013809,0.059527,0.0093918,0.008385,0.0075813,0.0021505,-0.010518,-0.033658,-0.0099323,-0.002933,0.093986,1.2091,-1.9,0.018054,0.44189,-0.017847,-0.00031908,0.010313,0.023988,-0.079836,0.041457,0.21764,0.96321
-0.030127,-0.010939,0.061538,0.014718,0.0019636,0.0094995,0.008575,-0.0014357,-0.021681,-0.013768,-0.0044769,0.09959,1.3478,-1.88,-0.10776,0.40348,-0.015879,0.00061794,0.00070998,0.027311,-0.063608,0.019995,0.20145,0.93062
-0.023221,-0.0059954,0.065548,0.022253,-0.0053758,0.012571,0.017059,0.0070054,-0.017688,-0.015439,-5.3186e-005,0.1046,1.3724,-1.6896,-0.23429,0.34531,-0.014675,0.00091626,-0.0068339,0.030144,-0.043141,0.027924,0.17693,0.8982
-0.019857,-0.0012004,0.071041,0.031055,-0.012495,0.015612,0.02558,0.014587,-0.020369,-0.015877,0.0061838,0.10551,1.2901,-1.3412,-0.34309,0.27622,-0.014226,0.00068958,-0.0089351,0.030909,-0.01011,0.02814,0.14909,0.85204
-0.022889,0.0025603,0.076469,0.039666,-0.017605,0.018409,0.031539,0.022255,-0.024096,-0.016312,0.0086353,0.10042,1.1346,-0.89302,-0.42623,0.20718,-0.014149,3.3821e-005,-0.0066329,0.029766,0.032161,0.0066147,0.12056,0.77488
-0.031426,0.0061415,0.079811,0.046521,-0.019715,0.02123,0.033333,0.030624,-0.023876,-0.017042,0.0041405,0.090572,0.94153,-0.41781,-0.48373,0.14869,-0.01375,-0.00094846,-0.0042995,0.028265,0.069415,-0.02714,0.090891,0.66848
-0.041072,0.010827,0.079805,0.050455,-0.019892,0.023876,0.031957,0.039121,-0.019332,-0.017398,-0.0059107,0.079436,0.73003,0.020698,-0.51654,0.10694,-0.012446,-0.0016743,-0.0063891,0.027778,0.086326,-0.055523,0.059111,0.5546
-0.04637,0.016636,0.077071,0.051117,-0.020875,0.025462,0.031038,0.046229,-0.014381,-0.016786,-0.016624,0.070066,0.50542,0.3749,-0.52242,0.080527,-0.0103,-0.0010379,-0.01434,0.028259,0.077675,-0.069414,0.026565,0.45531
-0.044206,0.021906,0.074007,0.049139,-0.025074,0.025178,0.034676,0.050317,-0.013215,-0.015537,-0.022761,0.063002,0.279,0.61085,-0.49834,0.060083,-0.0081797,0.0017514,-0.025629,0.028408,0.051918,-0.074528,-0.0027973,0.37311
-0.036017,0.024592,0.073132,0.045862,-0.032606,0.023209,0.044428,0.050309,-0.016356,-0.014602,-0.021677,0.056708,0.08031,0.70829,-0.44617,0.032536,-0.0071922,0.0061692,-0.03546,0.026911,0.024518,-0.086056,-0.024901,0.29115
-0.027079,0.024039,0.075001,0.0426,-0.041129,0.020864,0.057723,0.045863,-0.02019,-0.014512,-0.014354,0.049904,-0.053979,0.66758,-0.37538,-0.01169,-0.007748,0.010404,-0.039842,0.023501,0.0066758,-0.11778,-0.038229,0.19394
-0.02312,0.021584,0.077451,0.03982,-0.04768,0.01978,0.069127,0.037297,-0.020149,-0.01488,-0.0044064,0.043212,-0.10603,0.51653,-0.29961,-0.073091,-0.009014,0.012674,-0.03799,0.018992,-0.0014936,-0.17341,-0.044058,0.089629
-0.026555,0.019437,0.077055,0.036882,-0.050925,0.020886,0.073709,0.025552,-0.014555,-0.015081,0.0039712,0.038276,-0.092128,0.30719,-0.22974,-0.14289,-0.009333,0.012693,-0.03251,0.014518,-0.008411,-0.24448,-0.044109,0.012752
-0.035136,0.018895,0.071714,0.032797,-0.051953,0.023907,0.070121,0.012161,-0.0058968,-0.015238,0.0080698,0.03527,-0.050241,0.1005,-0.16911,-0.20765,-0.0073837,0.011839,-0.027365,0.010857,-0.022007,-0.31409,-0.038167,0.0031696
-0.044052,0.019527,0.062329,0.027555,-0.053108,0.02764,0.061229,-0.0010454,0.0012783,-0.016234,0.0080167,0.031646,-0.0093369,-0.05273,-0.11377,-0.25412,-0.0031949,0.011776,-0.025216,0.0083074,-0.042001,-0.36321,-0.024413,0.077322
-0.049747,0.020016,0.052152,0.022821,-0.056089,0.030709,0.051957,-0.012637,0.0038493,-0.018502,0.0067981,0.02389,0.03137,-0.12341,-0.056835,-0.27055,0.0018113,0.012846,-0.026042,0.0067892,-0.059559,-0.37595,-0.0025169,0.21473
-0.052332,0.019755,0.044378,0.020986,-0.061024,0.032367,0.046,-0.022294,0.0020961,-0.020934,0.0085794,0.010956,0.093757,-0.10407,0.0071979,-0.24541,0.0057933,0.013787,-0.027904,0.0057215,-0.063977,-0.34317,0.023496,0.37019
-0.05472,0.019618,0.039919,0.023007,-0.067065,0.032957,0.043762,-0.030919,-0.0011823,-0.021328,0.01585,-0.0039478,0.1912,-0.0022882,0.080358,-0.16869,0.0077236,0.013087,-0.028945,0.0037653,-0.050632,-0.26493,0.045979,0.50147
-0.059485,0.021107,0.037052,0.026879,-0.073548,0.033776,0.04283,-0.039818,-0.0033432,-0.018211,0.027147,-0.0153,0.30714,0.16552,0.1612,-0.038188,0.0079692,0.010655,-0.028832,-0.0009241,-0.024066,-0.15184,0.058291,0.59032
-0.066414,0.024674,0.033024,0.028516,-0.080344,0.03624,0.040436,-0.049434,-0.003975,-0.012284,0.037352,-0.019547,0.40362,0.37787,0.24548,0.13353,0.0078716,0.0082046,-0.028542,-0.0096353,0.0054591,-0.022751,0.059729,0.64137
-0.072988,0.028831,0.026214,0.024862,-0.087104,0.040769,0.035961,-0.058622,-0.0046713,-0.005905,0.040933,-0.018022,0.45291,0.61278,0.32709,0.31987,0.0087434,0.007972,-0.028955,-0.021899,0.028539,0.10361,0.056256,0.66236
-0.077249,0.030992,0.017214,0.016766,-0.092461,0.046199,0.031595,-0.065226,-0.0068525,-0.00097322,0.03597,-0.015876,0.46253,0.85382,0.39972,0.49201,0.011026,0.010907,-0.029734,-0.035314,0.041288,0.22067,0.055883,0.64528
-0.080172,0.029412,0.0082495,0.0088773,-0.094461,0.050468,0.03066,-0.067663,-0.0097041,0.0026827,0.025741,-0.017861,0.4689,1.093,0.45928,0.63455,0.014084,0.015895,-0.029489,-0.046837,0.045446,0.34138,0.062304,0.56711
-0.085037,0.024571,0.0016567,0.0061596,-0.09217,0.05229,0.034844,-0.066257,-0.010265,0.0067178,0.016328,-0.024534,0.50394,1.3247,0.5053,0.75169,0.016616,0.020586,-0.026888,-0.054586,0.045166,0.49132,0.072185,0.41152
-0.094086,0.018828,-0.001381,0.0096968,-0.086938,0.052519,0.042476,-0.063129,-0.0058286,0.012017,0.012082,-0.031924,0.56446,1.5353,0.53987,0.85746,0.017343,0.02302,-0.021587,-0.058566,0.043716,0.68744,0.078374,0.19368
-0.10547,0.014692,-0.0011718,0.01547,-0.081746,0.053835,0.049313,-0.060544,0.0033676,0.017132,0.012725,-0.034692,0.6122,1.6992,0.56448,0.95742,0.01566,0.022755,-0.014241,-0.059661,0.042354,0.91541,0.076052,-0.034698
-0.11358,0.01319,0.00089465,0.017429,-0.078735,0.058733,0.051463,-0.059001,0.01371,0.019215,0.014479,-0.030021,0.6047,1.7909,0.57776,1.0386,0.012052,0.02077,-0.0058906,-0.057926,0.041244,1.1254,0.066414,-0.20791
-0.1131,0.013639,0.0029549,0.012419,-0.076962,0.067409,0.048415,-0.056699,0.020765,0.016771,0.014047,-0.019317,0.52895,1.8054,0.57675,1.0779,0.0080991,0.018466,0.0025402,-0.051992,0.040672,1.2556,0.055013,-0.28178
-0.10364,0.014775,0.0032149,0.0027625,-0.072605,0.077493,0.04381,-0.050973,0.022782,0.011508,0.011738,-0.0069462,0.4083,1.7671,0.56101,1.062,0.0059044,0.016694,0.010341,-0.040333,0.041215,1.2714,0.046924,-0.25567
-0.090955,0.016083,0.00055986,-0.0057608,-0.061878,0.086021,0.043103,-0.040647,0.021999,0.0072195,0.011003,0.0024422,0.27819,1.7151,0.53502,1.001,0.0070561,0.01549,0.016986,-0.023316,0.042997,1.1928,0.043433,-0.16466
-0.083188,0.018124,-0.004732,-0.0087228,-0.044387,0.091993,0.049516,-0.027365,0.022338,0.0064238,0.01503,0.0059116,0.15482,1.6741,0.50517,0.92147,0.011606,0.014556,0.022291,-0.0040067,0.045133,1.0857,0.042877,-0.049136
-0.084699,0.021724,-0.010642,-0.0064203,-0.024042,0.097176,0.061144,-0.014692,0.025436,0.0078722,0.023705,0.0026997,0.026221,1.6373,0.47212,0.84449,0.017794,0.013933,0.026545,0.013204,0.046145,1.0224,0.043899,0.07307
-0.092015,0.026912,-0.014109,-0.0030097,-0.0065862,0.10433,0.071536,-0.005569,0.028703,0.0075044,0.033638,-0.0062814,-0.12724,1.5753,0.4249,0.767,0.022884,0.01423,0.030227,0.025107,0.04494,1.0363,0.04726,0.21025
-0.095291,0.032608,-0.012801,-0.0024994,0.0043003,0.11435,0.073719,-0.00011392,0.027485,0.0023163,0.040863,-0.019033,-0.30388,1.4646,0.344,0.6633,0.024695,0.016175,0.033399,0.031253,0.041256,1.1044,0.054355,0.37533
-0.084561,0.037314,-0.0068914,-0.0053786,0.009145,0.12488,0.065077,0.0044119,0.019628,-0.0062705,0.04339,-0.032958,-0.4714,1.3051,0.21431,0.50571,0.022809,0.019834,0.035457,0.033442,0.034936,1.1678,0.064285,0.56005
-0.056573,0.040156,0.00071812,-0.0087198,0.011557,0.13176,0.049569,0.01136,0.008221,-0.012769,0.041353,-0.045577,-0.5866,1.1134,0.040303,0.2871,0.018604,0.024147,0.035773,0.033916,0.024628,1.1715,0.072952,0.72855
-0.01744,0.041424,0.0063235,-0.0091702,0.015152,0.13223,0.035417,0.02189,-0.0003174,-0.011713,0.035247,-0.055477,-0.62605,0.90053,-0.14849,0.027442,0.014139,0.027285,0.034756,0.034024,0.0072958,1.092,0.075536,0.83733
0.020719,0.042211,0.0082824,-0.0057698,0.021303,0.1272,0.029652,0.033795,-0.0014726,-0.0020865,0.024812,-0.062872,-0.60076,0.66472,-0.30835,-0.23889,0.010821,0.0277,0.034202,0.034286,-0.020527,0.93731,0.070325,0.86564
0.0468,0.04349,0.0085133,-0.00020118,0.029306,0.12082,0.03333,0.042816,0.0034007,0.011697,0.010157,-0.069171,-0.54335,0.40906,-0.40366,-0.48249,0.0088638,0.025174,0.036243,0.035204,-0.060233,0.72639,0.060524,0.8314
0.056594,0.045326,0.011137,0.0051544,0.038079,0.11744,0.040959,0.045386,0.0081388,0.023079,-0.0061514,-0.075824,-0.48117,0.16773,-0.4264,-0.68871,0.0077787,0.021053,0.041648,0.037433,-0.10902,0.47185,0.05241,0.77923
0.053765,0.046784,0.019052,0.0090665,0.047284,0.11838,0.044587,0.040734,0.0071892,0.028104,-0.01895,-0.083401,-0.41979,0.0067873,-0.39947,-0.85251,0.0071823,0.017433,0.049051,0.040975,-0.15979,0.18069,0.05133,0.74929
0.045932,0.046567,0.03111,0.011563,0.056784,0.12101,0.039505,0.030963,0.00067855,0.027788,-0.023575,-0.091664,-0.34919,-0.013393,-0.36126,-0.96703,0.0070218,0.015817,0.055988,0.044455,-0.20351,-0.1334,0.058532,0.75024
0.039275,0.04389,0.042297,0.012779,0.065492,0.12088,0.027374,0.019404,-0.0054746,0.026541,-0.019908,-0.10028,-0.26306,0.11154,-0.3423,-1.0192,0.0070774,0.01624,0.06084,0.045725,-0.23272,-0.44421,0.070835,0.75565
0.035709,0.038965,0.047009,0.012251,0.07143,0.11539,0.014697,0.0087248,-0.0046466,0.02837,-0.013341,-0.10924,-0.17086,0.31084,-0.34919,-0.99741,0.0065186,0.017472,0.063795,0.043658,-0.24445,-0.72368,0.082844,0.72491
0.033999,0.032762,0.042984,0.0095498,0.073475,0.10609,0.0080801,9.7652e-005,0.0046913,0.034087,-0.010927,-0.11849,-0.091483,0.47373,-0.36524,-0.90522,0.0043454,0.018128,0.065852,0.039461,-0.24061,-0.95921,0.0898,0.63241
0.03281,0.026324,0.032892,0.0054406,0.073177,0.097897,0.0099394,-0.0064437,0.017684,0.041342,-0.015576,-0.12732,-0.035868,0.51615,-0.3649,-0.76749,0.00056478,0.017791,0.066936,0.035985,-0.22605,-1.1585,0.089288,0.485
0.032525,0.020265,0.022391,0.0020462,0.074451,0.095499,0.017502,-0.011265,0.02747,0.046848,-0.023493,-0.13443,0.0037098,0.42869,-0.33112,-0.62353,-0.0030802,0.017292,0.065317,0.035289,-0.20535,-1.3344,0.081323,0.31821
0.034484,0.01484,0.016224,0.001488,0.080774,0.099691,0.025272,-0.014808,0.031189,0.048654,-0.027529,-0.13885,0.047347,0.27011,-0.26528,-0.51073,-0.0039097,0.01796,0.059315,0.036593,-0.1808,-1.4827,0.067556,0.17679
0.039141,0.010356,0.015336,0.0040629,0.092023,0.1064,0.028794,-0.017699,0.032063,0.046912,-0.023675,-0.14077,0.1101,0.11697,-0.18645,-0.45009,-0.00034794,0.020443,0.049848,0.036636,-0.15263,-1.5775,0.050597,0.09316
0.045527,0.0073164,0.016994,0.0076479,0.10384,0.10926,0.027132,-0.020736,0.0357,0.043093,-0.014783,-0.14113,0.18894,0.01546,-0.12271,-0.44241,0.0064716,0.024017,0.041118,0.032324,-0.12122,-1.5913,0.033767,0.074979
0.052722,0.006001,0.017493,0.0090885,0.11043,0.10382,0.022833,-0.024451,0.044181,0.038687,-0.0079843,-0.14024,0.26419,-0.025822,-0.099724,-0.47498,0.013141,0.026949,0.03813,0.02341,-0.089177,-1.5219,0.020797,0.10524
0.061517,0.0059155,0.015139,0.0066465,0.10879,0.090254,0.019842,-0.028644,0.053598,0.034408,-0.0081257,-0.13669,0.31234,-0.0050492,-0.13019,-0.53117,0.016365,0.027682,0.042725,0.01273,-0.061424,-1.3977,0.014928,0.15156
0.074041,0.0058281,0.011267,0.0015788,0.10089,0.072739,0.020867,-0.032555,0.057423,0.030181,-0.013356,-0.12804,0.31805,0.10108,-0.20736,-0.5952,0.015361,0.026029,0.05156,0.0036997,-0.042601,-1.25,0.017615,0.17982
0.091223,0.0045661,0.0088488,-0.0025452,0.09214,0.056147,0.025711,-0.035741,0.052502,0.025616,-0.016953,-0.11293,0.27696,0.32584,-0.30518,-0.65069,0.012187,0.023462,0.058081,-0.002699,-0.033605,-1.0763,0.027737,0.16792
0.11048,0.0018946,0.010069,-0.0024479,0.087425,0.042925,0.031487,-0.038848,0.042049,0.020504,-0.013585,-0.092876,0.19116,0.66584,-0.38703,-0.67836,0.0096885,0.022174,0.057213,-0.0086687,-0.029608,-0.83237,0.042114,0.11544
0.12631,-0.001395,0.014803,0.0022816,0.087895,0.032377,0.034564,-0.04329,0.03284,0.015041,-0.0040957,-0.072004,0.065612,1.0444,-0.42065,-0.65923,0.0089667,0.023506,0.049022,-0.017303,-0.02132,-0.47075,0.057084,0.044692
0.13391,-0.0042723,0.02089,0.0087302,0.090911,0.022417,0.033016,-0.049836,0.029324,0.0097235,0.0055062,-0.054847,-0.089186,1.3298,-0.39283,-0.58414,0.008684,0.026875,0.038381,-0.029234,0.00071085,0.0012005,0.070004,-0.0091093
0.13311,-0.0062689,0.0256,0.012807,0.09277,0.011843,0.027869,-0.057253,0.030061,0.0050506,0.0096177,-0.043897,-0.25153,1.4076,-0.31565,-0.46288,0.0067903,0.030109,0.031016,-0.041229,0.040671,0.49436,0.079629,-0.014985
0.12895,-0.0074216,0.026996,0.012335,0.091799,0.0011477,0.022145,-0.062412,0.029527,0.001266,0.0078145,-0.03883,-0.3884,1.2556,-0.22016,-0.32419,0.0029472,0.031045,0.029274,-0.048096,0.093747,0.87315,0.085416,0.038378
0.1283,-0.0075028,0.02443,0.0085503,0.089484,-0.0084762,0.018359,-0.062121,0.023244,-0.0016689,0.0046489,-0.037686,-0.46559,0.96055,-0.14089,-0.20357,-0.00070134,0.029218,0.030973,-0.04645,0.14649,1.0342,0.086732,0.13814
0.13478,-0.00562,0.018381,0.0047948,0.089164,-0.016523,0.016541,-0.055422,0.011386,-0.0038797,0.0052104,-0.038635,-0.46355,0.65974,-0.099725,-0.12524,-0.001177,0.026303,0.031941,-0.037324,0.18196,0.97147,0.082797,0.2563
0.14627,-0.00096786,0.01023,0.003574,0.093783,-0.023499,0.014574,-0.044512,-0.0021408,-0.0053762,0.010918,-0.040733,-0.38802,0.44834,-0.09784,-0.090513,0.0027633,0.024882,0.029702,-0.025651,0.18785,0.77866,0.073246,0.366
0.15683,0.0058335,0.0021353,0.004608,0.10455,-0.030052,0.010642,-0.033431,-0.013731,-0.006074,0.019172,-0.043324,-0.26708,0.32279,-0.1188,-0.080986,0.0094284,0.026426,0.025119,-0.017122,0.16332,0.58777,0.058527,0.455
0.16148,0.012328,-0.0034204,0.0055465,0.12117,-0.036108,0.0055934,-0.025419,-0.023178,-0.0060408,0.026413,-0.045107,-0.13569,0.19827,-0.13941,-0.074379,0.015366,0.030066,0.02093,-0.014851,0.12017,0.48996,0.039654,0.52956
0.15979,0.015613,-0.0047599,0.0045421,0.14266,-0.041051,0.0028882,-0.020881,-0.033201,-0.0056981,0.031105,-0.044148,-0.01874,-0.019131,-0.14123,-0.060857,0.017854,0.033137,0.01895,-0.018112,0.07697,0.49393,0.017662,0.60858
0.15562,0.014606,-0.002345,0.0021553,0.16733,-0.044709,0.0058956,-0.017431,-0.046334,-0.0056908,0.03391,-0.039031,0.075753,-0.36267,-0.11677,-0.047355,0.016678,0.033104,0.018658,-0.023645,0.049249,0.54388,-0.0065539,0.71246
0.15362,0.011145,0.00085338,0.00075279,0.19166,-0.047895,0.014763,-0.01195,-0.062403,-0.0064293,0.035642,-0.030124,0.15005,-0.78316,-0.068793,-0.047102,0.013964,0.029436,0.018239,-0.028188,0.041883,0.5737,-0.031928,0.85121
0.15575,0.0086595,0.00077067,0.0020103,0.20957,-0.051723,0.025593,-0.0031327,-0.078751,-0.0076333,0.035745,-0.019639,0.20482,-1.1765,-0.0053029,-0.063757,0.012453,0.024044,0.016708,-0.030326,0.048551,0.5539,-0.057082,1.0154
0.16054,0.0093474,-0.005098,0.0049959,0.2138,-0.056299,0.032733,0.0072608,-0.092515,-0.0082496,0.033127,-0.010129,0.23454,-1.4285,0.065317,-0.084133,0.013672,0.019983,0.01487,-0.030609,0.05806,0.5019,-0.080914,1.1737
0.16513,0.012274,-0.015668,0.006763,0.19975,-0.060264,0.03236,0.015282,-0.1025,-0.0068404,0.028296,-0.0024789,0.23588,-1.448,0.13615,-0.086165,0.017253,0.019365,0.014312,-0.030335,0.062396,0.45852,-0.10354,1.2809
0.16768,0.014105,-0.02666,0.0049456,0.16918,-0.061889,0.024564,0.017178,-0.1091,-0.0022067,0.024208,0.0049438,0.22191,-1.1883,0.20067,-0.05561,0.021614,0.021966,0.015692,-0.030227,0.06056,0.45497,-0.12642,1.2948
0.16817,0.011881,-0.033521,-0.00011724,0.13045,-0.060823,0.012572,0.011693,-0.11278,0.006092,0.024494,0.015105,0.2277,-0.67098,0.25144,0.002927,0.025266,0.025449,0.018206,-0.030027,0.056149,0.49337,-0.15092,1.1949
0.16755,0.0053756,-0.034792,-0.0057796,0.094213,-0.058761,0.00017057,0.00085027,-0.11321,0.017541,0.030479,0.029836,0.29808,-0.011947,0.28116,0.070469,0.027739,0.026991,0.020668,-0.029059,0.051883,0.54755,-0.1761,0.98897
0.167,-0.0029563,-0.033205,-0.0096417,0.066897,-0.058219,-0.010396,-0.011179,-0.10972,0.030845,0.039749,0.048003,0.46221,0.58257,0.28627,0.13006,0.029589,0.025176,0.022843,-0.026959,0.04635,0.57699,-0.19765,0.70323
0.16831,-0.010217,-0.033433,-0.011812,0.047001,-0.060441,-0.01861,-0.020226,-0.10252,0.044419,0.047723,0.065833,0.7119,0.88101,0.27061,0.18057,0.031674,0.020881,0.025466,-0.023741,0.035613,0.54369,-0.20917,0.36329
0.17468,-0.015287,-0.038259,-0.014699,0.027035,-0.064447,-0.024464,-0.023875,-0.093158,0.05704,0.050942,0.079229,0.99953,0.742,0.2452,0.23502,0.034351,0.016634,0.028964,-0.019196,0.017622,0.42615,-0.20532,-0.015884
0.18987,-0.019028,-0.046426,-0.020532,-0.00025975,-0.0682,-0.027562,-0.021925,-0.083567,0.068371,0.049314,0.086302,1.2587,0.21296,0.22291,0.30405,0.037184,0.014939,0.032526,-0.012419,-0.0050552,0.22872,-0.1845,-0.42133
0.21562,-0.022551,-0.054016,-0.028962,-0.036274,-0.070835,-0.027695,-0.015758,-0.074922,0.078972,0.045592,0.088137,1.4346,-0.46815,0.21104,0.37946,0.039242,0.016719,0.034827,-0.0023055,-0.026863,-0.016538,-0.14931,-0.8219
0.24892,-0.025537,-0.058002,-0.037033,-0.075731,-0.07374,-0.026301,-0.0075079,-0.067374,0.089656,0.042776,0.087322,1.5057,-0.99126,0.20734,0.43423,0.039596,0.020834,0.035835,0.011096,-0.043803,-0.25896,-0.10474,-1.1573
0.28202,-0.026434,-0.058599,-0.041521,-0.11087,-0.079328,-0.026982,0.00033473,-0.060872,0.10046,0.041818,0.085544,1.4835,-1.1458,0.20338,0.44245,0.037597,0.024826,0.037561,0.025521,-0.056829,-0.44951,-0.055624,-1.3517
0.30585,-0.024287,-0.058238,-0.041428,-0.1369,-0.088554,-0.033759,0.0050887,-0.055965,0.10995,0.041403,0.082286,1.3957,-0.93044,0.19308,0.40409,0.032882,0.026288,0.042465,0.036948,-0.071184,-0.56447,-0.005295,-1.3466
0.31454,-0.020227,-0.058335,-0.038353,-0.1544,-0.09948,-0.04776,0.0044303,-0.053572,0.11543,0.039634,0.0756,1.2655,-0.52541,0.17903,0.35264,0.025434,0.024011,0.050648,0.041682,-0.092305,-0.61918,0.044363,-1.1312
0.3078,-0.016897,-0.057305,-0.0346,-0.16741,-0.10823,-0.06494,-0.0025145,-0.053875,0.11419,0.035887,0.064202,1.1021,-0.15321,0.17037,0.33606,0.015977,0.01841,0.058605,0.038696,-0.12158,-0.66154,0.092035,-0.74906
0.28929,-0.016243,-0.052027,-0.03108,-0.17943,-0.1115,-0.077307,-0.014246,-0.055546,0.10507,0.03122,0.049007,0.90673,0.065093,0.17309,0.38339,0.0064,0.011182,0.061238,0.0304,-0.15495,-0.74581,0.13608,-0.27899
0.26306,-0.017809,-0.04145,-0.027167,-0.19071,-0.10844,-0.077676,-0.027104,-0.056221,0.089384,0.02722,0.032798,0.68535,0.15611,0.18153,0.48281,-0.00043732,0.004498,0.055789,0.02108,-0.1848,-0.9003,0.17388,0.19403
0.23106,-0.019251,-0.02864,-0.022526,-0.19858,-0.10053,-0.064948,-0.036834,-0.053967,0.070434,0.024484,0.018299,0.45664,0.22643,0.18002,0.5892,-0.0019661,5.6024e-005,0.04434,0.014063,-0.20349,-1.1083,0.20146,0.60055
0.19388,-0.018618,-0.018918,-0.018783,-0.20003,-0.090015,-0.04579,-0.040535,-0.048514,0.051925,0.022153,0.006282,0.24798,0.3538,0.15508,0.65534,0.0023027,-0.0016154,0.032514,0.0097594,-0.20631,-1.3143,0.21391,0.89459
0.15316,-0.016182,-0.015511,-0.018867,-0.19406,-0.078223,-0.03077,-0.037619,-0.041318,0.036147,0.018782,-0.0046864,0.083327,0.53124,0.10779,0.66135,0.0097829,-0.0012864,0.025302,0.0060918,-0.1932,-1.4523,0.20708,1.0551
0.11285,-0.014057,-0.016738,-0.024218,-0.18219,-0.065084,-0.027168,-0.029175,-0.034489,0.023226,0.01367,-0.016632,-0.027012,0.69795,0.054371,0.61913,0.015758,-0.00048636,0.023492,0.0009519,-0.16881,-1.4785,0.18009,1.088
0.077646,-0.014018,-0.017464,-0.032469,-0.1671,-0.049405,-0.033635,-0.016479,-0.029491,0.011927,0.0074174,-0.030055,-0.087439,0.81091,0.012726,0.55008,0.016091,-0.00057796,0.023656,-0.0053085,-0.14082,-1.3886,0.13712,1.0279
0.04981,-0.015718,-0.013626,-0.038232,-0.15077,-0.029393,-0.040979,-8.6907e-005,-0.02647,0.0013626,0.0013131,-0.043095,-0.11012,0.8818,-0.014067,0.45777,0.0099958,-0.0020187,0.021552,-0.0094311,-0.11657,-1.2122,0.086687,0.92952
0.02734,-0.017037,-0.0057188,-0.036904,-0.13332,-0.0032912,-0.038908,0.019708,-0.024485,-0.0078108,-0.0037347,-0.052666,-0.10782,0.94689,-0.041819,0.32054,0.00074106,-0.0042863,0.015941,-0.0073174,-0.098781,-0.99504,0.038356,0.84683
0.0053597,-0.016219,0.0018666,-0.028445,-0.11339,0.029514,-0.023881,0.041665,-0.022275,-0.01375,-0.0076652,-0.056568,-0.092821,1.0066,-0.09165,0.11138,-0.0065487,-0.0064596,0.0096735,0.00291,-0.08335,-0.78484,-0.0013404,0.80857
-0.020261,-0.013672,0.0048706,-0.017716,-0.08932,0.067072,-0.0020208,0.063041,-0.019032,-0.015098,-0.010797,-0.054795,-0.080374,1.0013,-0.16933,-0.17167,-0.0086582,-0.0079527,0.0073429,0.019151,-0.061536,-0.62909,-0.030991,0.80747
-0.049868,-0.011643,0.0027481,-0.010837,-0.060603,0.10428,0.015286,0.080548,-0.014705,-0.012554,-0.013154,-0.04906,-0.089615,0.85397,-0.25541,-0.49001,-0.0068765,-0.0088174,0.011677,0.036134,-0.026418,-0.57596,-0.053174,0.81108
-0.079834,-0.012038,-0.0013558,-0.010566,-0.028674,0.13431,0.019802,0.092216,-0.0097399,-0.0089275,-0.014531,-0.041245,-0.13689,0.54654,-0.31562,-0.77692,-0.0063652,-0.0094459,0.02157,0.048088,0.020478,-0.66235,-0.071209,0.7871
-0.10509,-0.014478,-0.0038124,-0.014615,0.0032767,0.15189,0.012348,0.098574,-0.0044701,-0.0075156,-0.015287,-0.032385,-0.22505,0.16163,-0.32379,-0.9693,-0.012612,-0.010046,0.033032,0.051335,0.067804,-0.8866,-0.086403,0.72492
-0.12221,-0.016504,-0.0035618,-0.018213,0.031371,0.15643,0.0016567,0.10203,0.0013853,-0.010068,-0.016843,-0.0231,-0.33853,-0.15083,-0.27949,-1.0374,-0.027524,-0.010427,0.04188,0.045294,0.10058,-1.1858,-0.097732,0.63953
-0.13076,-0.015858,-0.002198,-0.018423,0.052547,0.15264,-0.002683,0.10489,0.0086941,-0.015887,-0.020888,-0.014757,-0.45073,-0.26018,-0.20685,-0.99595,-0.047986,-0.0103,0.045855,0.031849,0.11043,-1.4452,-0.10377,0.55746
-0.13239,-0.012762,-0.0014979,-0.016304,0.065758,0.14802,0.0026152,0.10774,0.018315,-0.022604,-0.027696,-0.0097385,-0.54013,-0.13055,-0.13717,-0.8937,-0.067835,-0.0097458,0.044834,0.014203,0.10254,-1.5479,-0.10482,0.49673
-0.12887,-0.010017,-0.0013263,-0.015214,0.072273,0.14882,0.012946,0.10943,0.030307,-0.027803,-0.035161,-0.010075,-0.60281,0.16823,-0.089307,-0.79063,-0.081666,-0.0093456,0.0397,-0.0038823,0.093583,-1.4379,-0.10313,0.4543
-0.12108,-0.010658,-0.00015399,-0.017189,0.074873,0.15701,0.020657,0.10879,0.043498,-0.030167,-0.039853,-0.015538,-0.65084,0.51545,-0.061983,-0.73281,-0.087812,-0.0097979,0.031456,-0.018538,0.10134,-1.1509,-0.10102,0.40782
-0.10955,-0.015214,0.0025816,-0.020965,0.076378,0.16993,0.02186,0.10628,0.055757,-0.029542,-0.039544,-0.023226,-0.69737,0.81396,-0.040723,-0.73395,-0.088707,-0.011349,0.02144,-0.026613,0.13332,-0.78823,-0.098406,0.32952
-0.095683,-0.021051,0.0050819,-0.023437,0.078295,0.18223,0.019386,0.10402,0.064925,-0.026336,-0.035129,-0.029473,-0.73995,1.0317,-0.011637,-0.76979,-0.08881,-0.013561,0.011895,-0.027007,0.18246,-0.45248,-0.092299,0.20453
-0.08215,-0.024464,0.0044948,-0.022963,0.0803,0.18856,0.019657,0.10408,0.069988,-0.021069,-0.030192,-0.03263,-0.75595,1.1911,0.028613,-0.79012,-0.09166,-0.015597,0.0055295,-0.021676,0.23277,-0.19311,-0.079012,0.044032
-0.071665,-0.023717,-0.00030269,-0.0212,0.080768,0.18547,0.026555,0.10637,0.071862,-0.014389,-0.028515,-0.034109,-0.7145,1.3286,0.071927,-0.74621,-0.097801,-0.016747,0.0037536,-0.015206,0.27032,-0.0010732,-0.057683,-0.11443
-0.065027,-0.020341,-0.0073111,-0.021656,0.077923,0.1722,0.037774,0.10823,0.073238,-0.0072423,-0.031547,-0.03653,-0.59695,1.4591,0.10514,-0.6211,-0.10464,-0.016759,0.0050836,-0.012851,0.29117,0.15343,-0.032377,-0.22182
-0.060261,-0.017616,-0.012841,-0.026286,0.070918,0.15039,0.046692,0.10613,0.077388,-0.0007247,-0.037744,-0.040552,-0.41169,1.5691,0.11831,-0.4433,-0.1082,-0.015832,0.0055809,-0.018158,0.30102,0.28173,-0.010917,-0.24189
-0.053936,-0.017691,-0.014308,-0.033318,0.060289,0.12347,0.047846,0.098396,0.086459,0.0043713,-0.043966,-0.043458,-0.1935,1.6295,0.11024,-0.27215,-0.10588,-0.014457,0.001574,-0.031677,0.3083,0.37235,-0.0011092,-0.17231
-0.043871,-0.019947,-0.01169,-0.038332,0.04766,0.095598,0.04111,0.086647,0.10027,0.0079342,-0.047511,-0.041115,0.011592,1.6129,0.088769,-0.16194,-0.098409,-0.013352,-0.0073913,-0.051351,0.31712,0.41904,-0.0069411,-0.049932
-0.030992,-0.021945,-0.0065819,-0.037666,0.034997,0.070711,0.031059,0.074674,0.11642,0.010479,-0.047325,-0.031734,0.16549,1.5033,0.066229,-0.12842,-0.089581,-0.013412,-0.018004,-0.073911,0.32534,0.44448,-0.027319,0.064203
-0.018515,-0.021875,-0.00042499,-0.031189,0.023802,0.051464,0.022413,0.065606,0.13156,0.012708,-0.044011,-0.018028,0.24957,1.3027,0.052513,-0.14104,-0.083551,-0.015379,-0.025726,-0.096172,0.32784,0.48858,-0.057882,0.11172
-0.0088486,-0.02022,0.005923,-0.022179,0.014545,0.038525,0.015856,0.059689,0.14304,0.015023,-0.039188,-0.0056192,0.2634,1.0364,0.050144,-0.14523,-0.081435,-0.019187,-0.028353,-0.11568,0.32059,0.56844,-0.094322,0.060314
-0.00087504,-0.01921,0.01106,-0.014664,0.0064585,0.030357,0.0079185,0.054474,0.14973,0.017292,-0.034792,0.0010804,0.21471,0.75226,0.05466,-0.097569,-0.080006,-0.023467,-0.027547,-0.1309,0.30217,0.65031,-0.13493,-0.088934
0.0096179,-0.020774,0.012343,-0.010659,-0.0021633,0.023762,-0.0051937,0.047077,0.15185,0.018943,-0.032356,0.0019833,0.10987,0.49862,0.059949,0.010681,-0.073936,-0.025904,-0.027115,-0.14125,0.27287,0.66628,-0.18103,-0.31184
0.026143,-0.024906,0.0073179,-0.0095226,-0.013095,0.015169,-0.023528,0.036452,0.15034,0.019284,-0.032233,0.0008066,-0.047973,0.28626,0.063952,0.15455,-0.060204,-0.024605,-0.02968,-0.1471,0.23405,0.56744,-0.23548,-0.5796
0.047327,-0.029737,-0.0036503,-0.0094967,-0.026976,0.0021912,-0.042854,0.023747,0.14637,0.017837,-0.033177,0.001562,-0.25325,0.060709,0.069661,0.29468,-0.041189,-0.019629,-0.034669,-0.1494,0.18926,0.36933,-0.30012,-0.87262
0.0662,-0.033009,-0.016492,-0.0096183,-0.042459,-0.015425,-0.058134,0.010827,0.14117,0.014541,-0.032921,0.0052897,-0.49101,-0.27959,0.080588,0.39852,-0.023688,-0.01334,-0.039166,-0.14918,0.14509,0.14949,-0.37317,-1.1819
0.074152,-0.033572,-0.026002,-0.010208,-0.056565,-0.036171,-0.067749,-0.0012987,0.13567,0.0097367,-0.029798,0.0098359,-0.73615,-0.81367,0.095177,0.45125,-0.014302,-0.0089893,-0.040576,-0.14739,0.10913,-0.0025602,-0.44763,-1.4998
0.066696,-0.031817,-0.030044,-0.011779,-0.06645,-0.058263,-0.074599,-0.012565,0.12995,0.0040286,-0.024336,0.012526,-0.96053,-1.5183,0.10574,0.455,-0.014706,-0.0084414,-0.038586,-0.14522,0.085229,-0.042446,-0.51165,-1.8084
0.046339,-0.029041,-0.031385,-0.01377,-0.071614,-0.081105,-0.083099,-0.022752,0.12296,-0.0017954,-0.019401,0.012963,-1.1425,-2.2426,0.10313,0.42293,-0.020513,-0.010885,-0.034891,-0.14447,0.070105,0.0091847,-0.55164,-2.0772
0.02025,-0.026483,-0.034982,-0.014521,-0.074874,-0.10548,-0.094907,-0.030829,0.11313,-0.0067615,-0.018432,0.013267,-1.2711,-2.77,0.082855,0.37328,-0.024573,-0.013688,-0.03125,-0.14713,0.05513,0.095365,-0.55752,-2.2729
-0.005147,-0.02474,-0.042949,-0.012582,-0.080988,-0.13241,-0.10738,-0.035813,0.099898,-0.0098215,-0.022947,0.015645,-1.3405,-2.9377,0.047595,0.3247,-0.022039,-0.014728,-0.02784,-0.15404,0.032786,0.1719,-0.52756,-2.3776
-0.027966,-0.023775,-0.052019,-0.0081125,-0.093659,-0.16174,-0.11625,-0.038243,0.084675,-0.010293,-0.031313,0.019712,-1.3423,-2.7342,0.0048206,0.29193,-0.013252,-0.014214,-0.023307,-0.1636,0.0025721,0.23667,-0.46976,-2.4027
-0.050147,-0.023277,-0.056211,-0.0030671,-0.11308,-0.19194,-0.12017,-0.040424,0.070251,-0.0084659,-0.039868,0.022148,-1.2648,-2.3106,-0.036899,0.28212,-0.0025293,-0.014407,-0.016273,-0.17192,-0.028687,0.32068,-0.39816,-2.387
-0.07356,-0.023032,-0.05245,3.4765e-005,-0.13592,-0.22113,-0.12294,-0.044784,0.058902,-0.0058039,-0.04557,0.019143,-1.1049,-1.9035,-0.069488,0.29352,0.0057391,-0.017537,-0.0067829,-0.17493,-0.052271,0.45477,-0.32603,-2.3764
-0.096978,-0.023004,-0.043888,-0.00022573,-0.15784,-0.24816,-0.13128,-0.051875,0.050889,-0.0042649,-0.048068,0.0095947,-0.88516,-1.7221,-0.085326,0.31689,0.010341,-0.023753,0.0035746,-0.17102,-0.063761,0.64165,-0.2601,-2.399
-0.11668,-0.023034,-0.037685,-0.0033185,-0.17633,-0.27261,-0.14975,-0.060144,0.044811,-0.0050024,-0.04955,-0.0035128,-0.65865,-1.8667,-0.078863,0.33858,0.013461,-0.030885,0.012876,-0.16222,-0.064831,0.85214,-0.19969,-2.452
-0.1297,-0.022349,-0.039162,-0.0072338,-0.1918,-0.29384,-0.17689,-0.067837,0.039357,-0.0074438,-0.052515,-0.014603,-0.48896,-2.3059,-0.0511,0.34378,0.018193,-0.036104,0.020269,-0.15286,-0.059999,1.042,-0.14084,-2.5097
-0.1364,-0.019395,-0.047549,-0.0097708,-0.20625,-0.31042,-0.20569,-0.074998,0.034504,-0.0096754,-0.057342,-0.018676,-0.41458,-2.9038,-0.013205,0.32078,0.025782,-0.038009,0.02634,-0.14648,-0.052309,1.1723,-0.081924,-2.5463
-0.13982,-0.012423,-0.056925,-0.0097131,-0.22096,-0.32104,-0.22803,-0.083352,0.030755,-0.010044,-0.061633,-0.013904,-0.42231,-3.4717,0.016225,0.26672,0.034882,-0.037414,0.032216,-0.14354,-0.042119,1.219,-0.026402,-2.5541
-0.14273,-0.00071545,-0.061182,-0.0072569,-0.23525,-0.32616,-0.23972,-0.094094,0.027342,-0.0087362,-0.061898,-0.0021485,-0.45327,-3.8282,0.021151,0.19294,0.043138,-0.036417,0.038258,-0.1415,-0.029274,1.172,0.019483,-2.5437
-0.14528,0.01439,-0.05847,-0.0036669,-0.24716,-0.32835,-0.24259,-0.10605,0.021769,-0.0078774,-0.056278,0.012512,-0.44127,-3.8591,-0.001001,0.12476,0.049425,-0.036783,0.043564,-0.1372,-0.015422,1.0308,0.051819,-2.5255
-0.14525,0.029652,-0.051687,-0.00052324,-0.25492,-0.33046,-0.24236,-0.11643,0.011928,-0.0097993,-0.046219,0.025906,-0.35613,-3.5583,-0.03641,0.09158,0.054747,-0.039048,0.046752,-0.12946,-0.0035593,0.80307,0.072662,-2.4904
-0.14052,0.041486,-0.0454,0.0010256,-0.25803,-0.33309,-0.2443,-0.12372,-0.00093099,-0.014715,-0.035894,0.035227,-0.21933,-3.0294,-0.063257,0.11072,0.061165,-0.042832,0.04733,-0.1198,0.0047082,0.50817,0.089048,-2.4055
-0.13112,0.047956,-0.042449,0.00070629,-0.25712,-0.33392,-0.24976,-0.12968,-0.011663,-0.019812,-0.029844,0.039352,-0.081417,-2.4385,-0.065511,0.17503,0.069897,-0.047594,0.046437,-0.11075,0.011059,0.17936,0.10795,-2.2299
-0.11934,0.04973,-0.042857,-0.00092196,-0.25345,-0.33046,-0.25598,-0.13819,-0.014552,-0.020882,-0.030505,0.038436,0.018073,-1.9435,-0.041521,0.25479,0.080356,-0.052869,0.046242,-0.10318,0.019263,-0.13855,0.13103,-1.941
-0.10796,0.049179,-0.044937,-0.0030125,-0.24857,-0.32386,-0.25883,-0.15167,-0.0081361,-0.015548,-0.037134,0.033352,0.075083,-1.637,-0.0013879,0.31513,0.090906,-0.057814,0.048416,-0.0949,0.031873,-0.39764,0.1532,-1.5524
-0.098708,0.048346,-0.046696,-0.0052016,-0.24436,-0.32039,-0.25619,-0.16854,0.0028385,-0.0055906,-0.046544,0.025218,0.11307,-1.5299,0.043214,0.3379,0.1005,-0.06097,0.052922,-0.081679,0.047918,-0.55888,0.16623,-1.1122
-0.092067,0.047486,-0.046314,-0.0080522,-0.24278,-0.32842,-0.24967,-0.18426,0.010606,0.0037743,-0.054921,0.014917,0.15539,-1.5691,0.0869,0.33237,0.10959,-0.060995,0.058058,-0.060116,0.063746,-0.60324,0.16462,-0.68468
-0.088228,0.045386,-0.042197,-0.0127,-0.24509,-0.35271,-0.24358,-0.19505,0.010394,0.0074664,-0.059604,0.0026987,0.20515,-1.6711,0.1293,0.32636,0.11947,-0.058009,0.061738,-0.030232,0.076219,-0.53679,0.14955,-0.32318
-0.087718,0.041067,-0.033692,-0.019784,-0.25106,-0.39071,-0.24214,-0.20078,0.0041666,0.0043017,-0.060045,-0.011775,0.24832,-1.7569,0.16689,0.34394,0.13068,-0.054075,0.06302,0.004036,0.085366,-0.38688,0.12807,-0.052124
-0.090875,0.035204,-0.022231,-0.028432,-0.25879,-0.4337,-0.24679,-0.20399,-0.0012047,-0.0021646,-0.057697,-0.028628,0.27145,-1.7876,0.18709,0.38624,0.14211,-0.051837,0.062751,0.036824,0.094185,-0.19145,0.10834,0.13508
-0.096788,0.029859,-0.011414,-0.036237,-0.26561,-0.47186,-0.25536,-0.20608,0.00021744,-0.0065341,-0.054962,-0.046619,0.27382,-1.7932,0.17168,0.42956,0.15182,-0.052097,0.062861,0.063427,0.10573,0.011754,0.094571,0.2625
-0.10315,0.026749,-0.0050631,-0.040527,-0.26912,-0.49904,-0.26334,-0.20432,0.0086542,-0.0058487,-0.053613,-0.062686,0.26329,-1.8693,0.10823,0.44149,0.15893,-0.052544,0.064848,0.082451,0.11981,0.19022,0.085146,0.35349
-0.10757,0.025658,-0.0044278,-0.040136,-0.26779,-0.51382,-0.26642,-0.19297,0.018891,-0.001653,-0.053449,-0.072994,0.24399,-2.121,0.00069448,0.40289,0.16496,-0.049212,0.068548,0.095807,0.13197,0.31671,0.074939,0.42077
-0.10939,0.024508,-0.0071316,-0.03635,-0.26092,-0.51698,-0.26261,-0.16793,0.02502,0.0018371,-0.052114,-0.075096,0.21175,-2.5685,-0.12881,0.31962,0.17298,-0.039798,0.072105,0.10684,0.13557,0.37099,0.060023,0.47019
-0.11025,0.021023,-0.0092309,-0.032141,-0.24866,-0.50868,-0.25272,-0.13087,0.025204,0.0016825,-0.046565,-0.069653,0.16314,-3.0788,-0.24786,0.21714,0.18512,-0.02598,0.073182,0.11809,0.12592,0.34834,0.04136,0.51174
-0.11258,0.014496,-0.0087885,-0.030141,-0.23261,-0.4882,-0.23908,-0.088784,0.022362,-0.0013298,-0.03558,-0.060231,0.10829,-3.3875,-0.32525,0.1235,0.20026,-0.012506,0.070518,0.12998,0.10347,0.26952,0.025104,0.56487
-0.11724,0.0061876,-0.0075758,-0.030801,-0.21619,-0.45628,-0.22327,-0.049167,0.020722,-0.0038495,-0.021559,-0.05114,0.07334,-3.2238,-0.34007,0.053623,0.214,-0.0036431,0.064633,0.14097,0.073947,0.17944,0.019448,0.65015
-0.12236,-0.0017738,-0.0090367,-0.032135,-0.20405,-0.41707,-0.20459,-0.014535,0.021895,-0.0034433,-0.0099148,-0.044936,0.088495,-2.4683,-0.28737,0.0044428,0.2213,-0.00012952,0.057175,0.14872,0.045054,0.1273,0.030053,0.77283
-0.12448,-0.0078371,-0.014269,-0.031225,-0.19994,-0.37716,-0.18032,0.018834,0.024159,-0.001004,-0.0058969,-0.04153,0.17136,-1.2416,-0.18184,-0.038228,0.21985,0.00069033,0.049555,0.15133,0.021884,0.13731,0.056765,0.9129
-0.12126,-0.011606,-0.019991,-0.026346,-0.20444,-0.34214,-0.14783,0.056802,0.025147,0.00015372,-0.010848,-0.039463,0.31853,0.13934,-0.05795,-0.087274,0.21166,0.0018397,0.042091,0.14821,0.0040246,0.19168,0.093286,1.0327
-0.1133,-0.013441,-0.020818,-0.018138,-0.2141,-0.31348,-0.10712,0.10125,0.02475,-0.002467,-0.020802,-0.038046,0.5095,1.3093,0.039113,-0.14365,0.2014,0.0038538,0.034374,0.14029,-0.013667,0.24168,0.12968,1.0984
-0.10361,-0.013906,-0.014054,-0.0090882,-0.22307,-0.28847,-0.062035,0.14711,0.025062,-0.0081173,-0.028898,-0.038406,0.71636,2.0154,0.074159,-0.19232,0.19302,0.0048826,0.026276,0.12976,-0.037269,0.24074,0.15621,1.1003
-0.094996,-0.013714,-0.0025582,-0.0018407,-0.22608,-0.26311,-0.018891,0.18509,0.027486,-0.013456,-0.030138,-0.042542,0.91045,2.1981,0.045167,-0.20688,0.18701,0.0035001,0.018436,0.11924,-0.06958,0.17453,0.16659,1.0555
-0.087623,-0.013927,0.0071548,0.0023682,-0.22108,-0.23523,0.016644,0.20797,0.030219,-0.015585,-0.024943,-0.051329,1.0641,1.9652,-0.0096904,-0.16253,0.1804,0.0011722,0.011582,0.11089,-0.10806,0.065845,0.15976,0.99313
-0.07862,-0.015646,0.010018,0.0041419,-0.2094,-0.20523,0.042585,0.21543,0.029078,-0.014588,-0.018621,-0.063202,1.1522,1.497,-0.033393,-0.053417,0.16914,0.0016065,0.0053966,0.10555,-0.1457,-0.046547,0.13974,0.93352
-0.064043,-0.019023,0.0061394,0.00514,-0.1937,-0.17383,0.061479,0.21382,0.021235,-0.013325,-0.016993,-0.074532,1.1591,0.95099,0.0096807,0.094933,0.151,0.0073356,-0.0017916,0.10261,-0.17367,-0.13458,0.11411,0.87837
-0.041684,-0.022492,-3.4967e-005,0.0067891,-0.17527,-0.13951,0.078496,0.21123,0.0082899,-0.014846,-0.02159,-0.081226,1.0887,0.41325,0.1038,0.22903,0.12675,0.016774,-0.011922,0.10042,-0.18409,-0.19189,0.091508,0.81798
-0.012692,-0.023334,-0.0039624,0.009366,-0.15301,-0.098221,0.098051,0.21203,-0.0044877,-0.019865,-0.028237,-0.080308,0.96866,-0.095976,0.18869,0.29055,0.099215,0.024761,-0.025534,0.097286,-0.17222,-0.22583,0.078571,0.74751
0.018979,-0.019598,-0.0044661,0.01193,-0.12499,-0.046059,0.12122,0.21483,-0.012326,-0.026444,-0.030228,-0.070645,0.84326,-0.58578,0.20213,0.24874,0.071133,0.026401,-0.040933,0.092334,-0.13784,-0.2448,0.077403,0.6772
0.048685,-0.011919,-0.0034219,0.013027,-0.091431,0.017194,0.14557,0.21475,-0.01476,-0.031795,-0.023547,-0.052961,0.75339,-1.0557,0.12698,0.12132,0.043626,0.020921,-0.05492,0.085845,-0.085949,-0.25523,0.084601,0.62798
0.07322,-0.0034882,-0.0026853,0.011683,-0.056355,0.086713,0.16722,0.2075,-0.015606,-0.03437,-0.0099683,-0.029689,0.71446,-1.4742,0.0052206,-0.033131,0.016362,0.012211,-0.06451,0.079024,-0.025983,-0.26693,0.092621,0.61607
0.09165,0.0020987,-0.0019166,0.0081169,-0.025977,0.1549,0.18356,0.19198,-0.019219,-0.034506,0.0043786,-0.0047843,0.70603,-1.7818,-0.0923,-0.14885,-0.010872,0.0057016,-0.068439,0.073339,0.030893,-0.29342,0.093101,0.63987
0.10468,0.0034698,0.0003769,0.0037225,-0.0044187,0.21584,0.19466,0.16977,-0.026615,-0.033567,0.013681,0.016914,0.68252,-1.9144,-0.11588,-0.19065,-0.036647,0.0044144,-0.067627,0.069878,0.075507,-0.33879,0.08066,0.68019
0.11345,0.0023226,0.0040159,0.00027939,0.0099537,0.26865,0.20262,0.14291,-0.034923,-0.032852,0.016501,0.031142,0.60241,-1.8382,-0.067192,-0.16966,-0.057874,0.007463,-0.064632,0.069036,0.10333,-0.38056,0.055435,0.71418
0.11879,0.0016967,0.0060833,-0.0012123,0.024208,0.31743,0.20953,0.11229,-0.040306,-0.033259,0.016038,0.036061,0.45974,-1.5755,0.010963,-0.12759,-0.071539,0.011793,-0.062553,0.070658,0.11451,-0.36775,0.023358,0.73217
0.12146,0.0031654,0.0033315,-0.0013031,0.046058,0.36751,0.21567,0.078085,-0.041243,-0.035468,0.01669,0.033341,0.29689,-1.2068,0.071539,-0.10411,-0.076839,0.01508,-0.063781,0.074512,0.1118,-0.24413,-0.0058204,0.74463
0.12264,0.0054286,-0.0040899,-0.0018193,0.078009,0.42101,0.21921,0.041227,-0.039115,-0.03975,0.020097,0.027479,0.1863,-0.84221,0.094103,-0.11288,-0.075807,0.017066,-0.068841,0.080785,0.098685,0.01613,-0.022105,0.77406
0.12374,0.0055526,-0.011566,-0.0045456,0.11513,0.47465,0.2175,0.0043514,-0.036022,-0.045229,0.024067,0.023396,0.18877,-0.57068,0.08786,-0.14225,-0.071715,0.018581,-0.07575,0.090319,0.07925,0.38662,-0.019409,0.83834
0.12555,0.0017413,-0.013283,-0.0097285,0.14846,0.52173,0.20876,-0.029039,-0.032489,-0.049575,0.025109,0.023692,0.3139,-0.41677,0.072575,-0.17458,-0.066546,0.019812,-0.08051,0.10437,0.059006,0.79869,0.0011557,0.93792
0.12732,-0.0048215,-0.0072374,-0.015625,0.1715,0.55683,0.19322,-0.05646,-0.027486,-0.050152,0.02207,0.027354,0.50993,-0.32986,0.060025,-0.20447,-0.059814,0.019842,-0.079004,0.12393,0.044409,1.1772,0.030724,1.0555
0.12707,-0.010669,0.0026167,-0.019683,0.18458,0.57994,0.173,-0.077667,-0.020457,-0.046176,0.017535,0.030915,0.69162,-0.21697,0.051494,-0.2408,-0.049842,0.017799,-0.069581,0.14872,0.040044,1.4762,0.056137,1.167
0.12316,-0.01268,0.0092867,-0.02065,0.19396,0.59674,0.15112,-0.094066,-0.012852,-0.040019,0.015814,0.031431,0.78809,-0.0017656,0.046746,-0.29447,-0.036292,0.014139,-0.054661,0.17632,0.045481,1.6912,0.066555,1.2555
0.11578,-0.010418,0.0083271,-0.019943,0.20655,0.61444,0.13059,-0.10683,-0.0072943,-0.036101,0.019469,0.029294,0.77825,0.32673,0.049111,-0.36593,-0.021496,0.010493,-0.039925,0.20189,0.055198,1.8439,0.059636,1.3178
0.10699,-0.0063214,0.0012412,-0.021033,0.22495,0.63591,0.11393,-0.1155,-0.0051495,-0.037827,0.027505,0.028809,0.69034,0.70749,0.059484,-0.44422,-0.0092754,0.0081654,-0.031161,0.21898,0.062673,1.955,0.042934,1.362
0.098925,-0.0037328,-0.0061638,-0.027099,0.24612,0.65647,0.10299,-0.1185,-0.0050711,-0.044969,0.036559,0.035798,0.5699,1.0473,0.068027,-0.51557,-0.0023706,0.0068698,-0.030671,0.22164,0.065697,2.0283,0.028798,1.3984
0.091662,-0.0044788,-0.0088119,-0.03868,0.26416,0.66625,0.098619,-0.11514,-0.0041849,-0.053707,0.0436,0.053574,0.44307,1.2784,0.057142,-0.57096,-0.00093949,0.0050793,-0.03576,0.20704,0.068198,2.0529,0.025829,1.4327
0.082893,-0.0078803,-0.0062785,-0.053129,0.27455,0.65689,0.10031,-0.10736,-0.00088585,-0.059338,0.047522,0.080009,0.30372,1.3926,0.017156,-0.60501,-0.0034092,0.0016094,-0.040456,0.17714,0.076489,2.0176,0.032938,1.4631
0.069876,-0.011762,-0.0023867,-0.066187,0.27678,0.62779,0.10654,-0.099174,0.0034707,-0.05945,0.048537,0.10803,0.13074,1.4293,-0.039748,-0.61053,-0.0085599,-0.003222,-0.039268,0.13831,0.09291,1.9217,0.040445,1.4841
0.052125,-0.014444,-0.001254,-0.074318,0.27434,0.58717,0.11622,-0.09418,0.0056901,-0.055118,0.04666,0.12962,-0.083113,1.4299,-0.083584,-0.5787,-0.016545,-0.0080395,-0.030284,0.098832,0.11248,1.7751,0.037318,1.4906
0.032379,-0.016096,-0.0035081,-0.076006,0.27281,0.54677,0.13056,-0.092928,0.003683,-0.049512,0.041359,0.14069,-0.31799,1.399,-0.088978,-0.50851,-0.027794,-0.011904,-0.015608,0.065736,0.12593,1.5902,0.018918,1.4812
0.014816,-0.018492,-0.005836,-0.071402,0.27727,0.51449,0.15352,-0.092592,-0.0015246,-0.045407,0.032846,0.14332,-0.54045,1.302,-0.057868,-0.41699,-0.041102,-0.015215,0.0007204,0.042781,0.12689,1.3757,-0.010427,1.4581
0.001936,-0.023467,-0.0038793,-0.061264,0.29009,0.49059,0.18937,-0.089288,-0.0066324,-0.043641,0.023422,0.14347,-0.7302,1.0989,-0.021874,-0.33701,-0.053155,-0.019087,0.015344,0.030517,0.11733,1.1378,-0.041161,1.4249
-0.0072106,-0.03127,0.0042457,-0.046564,0.30974,0.47018,0.23856,-0.081236,-0.0090368,-0.043404,0.016939,0.14609,-0.89441,0.78274,-0.020527,-0.29939,-0.060363,-0.023934,0.026847,0.027819,0.10638,0.88592,-0.064671,1.3855
-0.015921,-0.040024,0.016614,-0.029078,0.33126,0.44935,0.29481,-0.070179,-0.0092262,-0.043597,0.016284,0.15119,-1.0554,0.39012,-0.07254,-0.31094,-0.061491,-0.028801,0.035342,0.033434,0.10318,0.63587,-0.076838,1.3426
-0.02679,-0.046701,0.028988,-0.011956,0.34847,0.42927,0.34659,-0.059972,-0.010364,-0.043883,0.020908,0.15428,-1.2214,-0.020389,-0.16311,-0.34676,-0.058659,-0.032124,0.041462,0.046513,0.10941,0.40597,-0.077108,1.2991
-0.039265,-0.048979,0.037554,0.00096009,0.35697,0.41482,0.38259,-0.053566,-0.015305,-0.044674,0.026681,0.15027,-1.3669,-0.39669,-0.25594,-0.36472,-0.055705,-0.033047,0.045761,0.066184,0.11733,0.20918,-0.065457,1.2569
-0.049696,-0.046678,0.040768,0.0069992,0.35618,0.40956,0.39752,-0.050876,-0.023624,-0.046373,0.028452,0.13752,-1.4416,-0.69967,-0.31755,-0.33262,-0.055294,-0.03198,0.048434,0.090957,0.11487,0.046034,-0.040923,1.216
-0.053686,-0.04172,0.03942,0.0062831,0.34913,0.41167,0.39391,-0.04915,-0.031344,-0.048735,0.023418,0.11888,-1.4025,-0.88378,-0.33318,-0.24818,-0.057228,-0.030006,0.048758,0.11855,0.093653,-0.097321,-0.003182,1.1721
-0.048834,-0.036679,0.035519,0.0015806,0.33998,0.41445,0.37874,-0.045353,-0.033847,-0.050877,0.012761,0.099238,-1.2463,-0.87792,-0.30387,-0.13804,-0.05924,-0.028019,0.044468,0.14616,0.053782,-0.2463,0.044536,1.1161
-0.036031,-0.03307,0.031142,-0.0037057,0.33112,0.41049,0.358,-0.03857,-0.029641,-0.051777,0.0004517,0.082417,-1.016,-0.59794,-0.23359,-0.038349,-0.059322,-0.026554,0.032304,0.17092,0.0022995,-0.43204,0.094048,1.0381
-0.018846,-0.030779,0.027878,-0.0079087,0.32175,0.39571,0.33373,-0.030552,-0.021729,-0.050765,-0.0097549,0.069813,-0.77887,0.0033783,-0.1236,0.027305,-0.057439,-0.026241,0.010496,0.19049,-0.052679,-0.68388,0.13381,0.93534
-0.0018595,-0.028986,0.026682,-0.011976,0.309,0.3704,0.30539,-0.024142,-0.015158,-0.047705,-0.016945,0.061315,-0.59264,0.87897,0.018469,0.057716,-0.055288,-0.027949,-0.01818,0.20379,-0.10676,-1.0204,0.15274,0.82057
0.010941,-0.027534,0.027776,-0.018239,0.2908,0.33763,0.2734,-0.020898,-0.01261,-0.04296,-0.023555,0.056604,-0.48383,1.8681,0.16523,0.067719,-0.054585,-0.032073,-0.045794,0.21165,-0.15903,-1.4399,0.14436,0.72319
0.017164,-0.027303,0.030565,-0.028107,0.26827,0.30128,0.24098,-0.019792,-0.01186,-0.037365,-0.033517,0.055202,-0.44735,2.7407,0.27084,0.073889,-0.055561,-0.037589,-0.063054,0.21675,-0.20736,-1.9131,0.10939,0.67935
0.016452,-0.029155,0.033878,-0.040424,0.24574,0.26511,0.21253,-0.01796,-0.0075991,-0.032186,-0.049253,0.055416,-0.45976,3.2911,0.29427,0.084038,-0.05688,-0.042093,-0.06573,0.22228,-0.24376,-2.3833,0.055764,0.71353
0.010398,-0.032538,0.036618,-0.051591,0.22819,0.23238,0.19041,-0.012966,0.0035777,-0.028771,-0.06944,0.053765,-0.49094,3.4305,0.23016,0.096641,-0.056803,-0.043174,-0.05888,0.23002,-0.25473,-2.7768,-0.0039555,0.82177
0.001778,-0.035311,0.038421,-0.05729,0.21762,0.20496,0.17358,-0.00494,0.019284,-0.02783,-0.089118,0.046012,-0.5083,3.2255,0.12089,0.1077,-0.054456,-0.040122,-0.054713,0.23896,-0.22772,-3.0236,-0.05678,0.96761
-0.0069285,-0.035209,0.039703,-0.054711,0.21136,0.18214,0.15932,0.003005,0.032183,-0.028801,-0.10238,0.029259,-0.47953,2.8592,0.034811,0.11761,-0.050269,-0.034458,-0.064673,0.24595,-0.16054,-3.0812,-0.093031,1.0955
-0.01511,-0.031747,0.040961,-0.044105,0.20368,0.16083,0.14631,0.0064785,0.035188,-0.029976,-0.1061,0.0035676,-0.38227,2.5355,0.022999,0.13222,-0.045575,-0.028841,-0.091194,0.248,-0.067128,-2.9497,-0.10787,1.1552
-0.024527,-0.02681,0.041884,-0.028939,0.18992,0.1377,0.13578,0.002519,0.026691,-0.029591,-0.10217,-0.027971,-0.21883,2.3811,0.086355,0.15761,-0.041923,-0.025316,-0.1255,0.24448,0.025087,-2.6716,-0.10048,1.1237
-0.038043,-0.023358,0.041145,-0.014593,0.16973,0.112,0.12963,-0.0086227,0.011313,-0.027148,-0.096515,-0.060524,-0.023004,2.3996,0.17874,0.19313,-0.040527,-0.024342,-0.15348,0.23727,0.086907,-2.3113,-0.072472,1.0135
-0.057195,-0.02331,0.03723,-0.0060813,0.14676,0.086374,0.12747,-0.023908,-0.004292,-0.023825,-0.095229,-0.089275,0.15142,2.4985,0.24331,0.22819,-0.041826,-0.025128,-0.16545,0.22873,0.10236,-1.9256,-0.027458,0.8634
-0.080444,-0.026351,0.029773,-0.0057385,0.12501,0.064788,0.12559,-0.039735,-0.016501,-0.021469,-0.10078,-0.11095,0.25664,2.5632,0.2525,0.24558,-0.045123,-0.026571,-0.16246,0.219,0.078075,-1.5403,0.028356,0.71929
-0.10366,-0.030479,0.020335,-0.011986,0.10515,0.049204,0.1192,-0.054121,-0.025791,-0.020945,-0.11087,-0.12482,0.27377,2.5264,0.22056,0.23011,-0.048652,-0.027839,-0.15453,0.20533,0.039907,-1.1461,0.08632,0.61367
-0.12265,-0.033628,0.011895,-0.019947,0.084259,0.038208,0.1061,-0.067105,-0.032944,-0.021305,-0.12067,-0.13296,0.21597,2.3908,0.18217,0.17775,-0.050457,-0.028304,-0.15219,0.18385,0.017472,-0.71611,0.13771,0.55407
-0.13576,-0.035015,0.0072489,-0.023834,0.059373,0.028824,0.088428,-0.079277,-0.034524,-0.020588,-0.12641,-0.1393,0.1115,2.1988,0.1592,0.10072,-0.049796,-0.027368,-0.15804,0.15261,0.025663,-0.23376,0.17724,0.52338
-0.14428,-0.035336,0.0073668,-0.019993,0.03158,0.019717,0.070627,-0.090068,-0.022965,-0.017596,-0.12746,-0.14759,-0.018065,1.9846,0.14553,0.02544,-0.047958,-0.024693,-0.16476,0.11313,0.055716,0.28617,0.2049,0.49094
-0.15046,-0.035958,0.010839,-0.0089363,0.0066773,0.012533,0.055196,-0.097611,0.0075175,-0.013085,-0.12555,-0.15907,-0.16629,1.7511,0.12067,-0.016272,-0.047485,-0.020706,-0.16114,0.069257,0.082551,0.79745,0.22429,0.42883
-0.15498,-0.037903,0.014768,0.0049347,-0.0087071,0.009864,0.039967,-0.10039,0.053821,-0.0092235,-0.12256,-0.17144,-0.33291,1.4866,0.075995,0.00013227,-0.050151,-0.016792,-0.14125,0.02439,0.083619,1.2426,0.23902,0.32553
-0.15637,-0.041268,0.01642,0.01587,-0.012529,0.011598,0.019487,-0.099082,0.1024,-0.0077502,-0.11887,-0.17997,-0.50885,1.1999,0.027301,0.080447,-0.055408,-0.014763,-0.10973,-0.020485,0.055738,1.5807,0.25037,0.19062
-0.15277,-0.04529,0.01446,0.020049,-0.009822,0.013058,-0.01033,-0.096612,0.13594,-0.0084316,-0.11365,-0.18016,-0.67099,0.9352,0.0017909,0.20684,-0.060861,-0.01585,-0.079142,-0.066435,0.017757,1.8048,0.25819,0.048858
-0.14429,-0.048859,0.0090534,0.017464,-0.010076,0.006746,-0.048145,-0.096194,0.14396,-0.0092397,-0.10609,-0.17015,-0.79202,0.74936,0.012383,0.34338,-0.064555,-0.019868,-0.061674,-0.1143,-0.0023785,1.9384,0.26329,-0.071912
-0.13357,-0.051108,0.0011094,0.011173,-0.021319,-0.013678,-0.087262,-0.09882,0.12919,-0.0082183,-0.096284,-0.15149,-0.85612,0.66919,0.043584,0.45119,-0.066976,-0.025178,-0.061586,-0.16251,0.013979,2.0152,0.26815,-0.15191
-0.12388,-0.051796,-0.0084534,0.0045948,-0.045177,-0.050385,-0.11999,-0.10228,0.10451,-0.0055002,-0.0848,-0.12797,-0.8661,0.66838,0.062132,0.50663,-0.070748,-0.029534,-0.07385,-0.20678,0.065556,2.0566,0.27506,-0.18477
-0.11659,-0.051309,-0.018858,-0.00096617,-0.076303,-0.10133,-0.14273,-0.10247,0.082631,-0.0037025,-0.071924,-0.10384,-0.83546,0.6867,0.043208,0.51252,-0.078107,-0.031378,-0.089042,-0.242,0.13431,2.0631,0.28371,-0.17733
-0.11051,-0.050329,-0.029281,-0.0066266,-0.10637,-0.16242,-0.15755,-0.095881,0.066839,-0.0062084,-0.057618,-0.082468,-0.77307,0.67699,-0.01014,0.49473,-0.088426,-0.030764,-0.099746,-0.26489,0.19754,2.0232,0.29139,-0.14696
-0.10335,-0.049452,-0.038947,-0.013915,-0.12977,-0.22946,-0.16926,-0.081513,0.049763,-0.014618,-0.042542,-0.065979,-0.67466,0.63925,-0.069768,0.48498,-0.098226,-0.029267,-0.10335,-0.27611,0.23885,1.9296,0.29568,-0.11783
-0.093934,-0.048993,-0.047602,-0.022282,-0.14739,-0.29868,-0.18071,-0.061139,0.020792,-0.027384,-0.029023,-0.055295,-0.52961,0.61149,-0.10354,0.50035,-0.10387,-0.028829,-0.10015,-0.28053,0.25145,1.7885,0.29693,-0.11542
-0.082794,-0.049024,-0.055709,-0.028392,-0.16597,-0.3665,-0.19081,-0.038153,-0.024264,-0.040673,-0.02062,-0.050106,-0.33792,0.62473,-0.096708,0.53286,-0.10465,-0.030335,-0.0899,-0.28584,0.23515,1.6161,0.29706,-0.15858
-0.071053,-0.049428,-0.063742,-0.027962,-0.19384,-0.43031,-0.19678,-0.016026,-0.078919,-0.050597,-0.020078,-0.048856,-0.12247,0.66178,-0.057892,0.55611,-0.10358,-0.033063,-0.070884,-0.30004,0.19271,1.4276,0.29541,-0.25284
-0.059175,-0.049807,-0.071006,-0.018831,-0.23573,-0.49032,-0.19834,0.0027711,-0.12988,-0.054904,-0.027112,-0.049284,0.075564,0.65701,-0.0084155,0.54374,-0.10512,-0.0355,-0.042051,-0.32856,0.12976,1.2298,0.28561,-0.39045
-0.047137,-0.049364,-0.075301,-0.002919,-0.28988,-0.55039,-0.19966,0.017084,-0.16525,-0.052893,-0.037997,-0.049678,0.21687,0.53998,0.033059,0.48595,-0.11172,-0.036863,-0.0056759,-0.37179,0.056838,1.0209,0.25733,-0.55919
-0.03562,-0.04713,-0.074366,0.014443,-0.34903,-0.61598,-0.20706,0.026889,-0.18054,-0.044079,-0.047627,-0.050121,0.2854,0.28752,0.058167,0.39262,-0.1221,-0.03791,0.032588,-0.42426,-0.010458,0.79448,0.20256,-0.75408
-0.026403,-0.042632,-0.068264,0.027366,-0.40408,-0.68925,-0.22435,0.032984,-0.1789,-0.027307,-0.052632,-0.05254,0.29445,-0.058685,0.066204,0.283,-0.13238,-0.040164,0.066423,-0.47589,-0.055722,0.54176,0.12206,-0.98197
-0.020962,-0.036561,-0.060532,0.032557,-0.44765,-0.76465,-0.24977,0.03683,-0.16692,-0.0014282,-0.053092,-0.059066,0.27221,-0.42373,0.058463,0.17263,-0.13905,-0.044156,0.091774,-0.51528,-0.068589,0.25342,0.026927,-1.2537
-0.01853,-0.030692,-0.056489,0.030822,-0.47533,-0.82871,-0.27699,0.040551,-0.15028,0.033024,-0.051457,-0.069695,0.23793,-0.75408,0.037256,0.068835,-0.14122,-0.048357,0.10754,-0.53359,-0.050106,-0.075084,-0.065889,-1.5692
-0.01589,-0.026827,-0.05947,0.026161,-0.48502,-0.86516,-0.29952,0.0468,-0.13193,0.072779,-0.049718,-0.08115,0.18765,-1.0501,0.0095276,-0.023336,-0.14074,-0.050036,0.11416,-0.52724,-0.013467,-0.43379,-0.14094,-1.9088
-0.0096713,-0.025452,-0.067913,0.023201,-0.47583,-0.86252,-0.31487,0.058211,-0.11274,0.11255,-0.047365,-0.088249,0.10153,-1.3512,-0.012016,-0.093808,-0.1404,-0.047542,0.11235,-0.49827,0.02026,-0.79338,-0.18998,-2.2371
0.00078542,-0.025318,-0.075987,0.024547,-0.44835,-0.81981,-0.32584,0.076445,-0.09233,0.14711,-0.042004,-0.08711,-0.032011,-1.687,-0.015537,-0.12907,-0.14204,-0.042062,0.10345,-0.45261,0.029658,-1.116,-0.2134,-2.5185
0.012739,-0.024487,-0.077739,0.029505,-0.40567,-0.74683,-0.33809,0.10129,-0.0694,0.17321,-0.032032,-0.077948,-0.19437,-2.0383,-0.00075917,-0.12336,-0.14585,-0.037136,0.090707,-0.39743,0.0011344,-1.3799,-0.21778,-2.7316
0.022365,-0.022039,-0.071704,0.034766,-0.35327,-0.65951,-0.35601,0.13041,-0.042285,0.19015,-0.018928,-0.065297,-0.33552,-2.3393,0.01676,-0.088856,-0.15114,-0.036126,0.079169,-0.33887,-0.065014,-1.5998,-0.21183,-2.8711
0.027982,-0.018904,-0.062285,0.036589,-0.29676,-0.57311,-0.37962,0.15982,-0.010717,0.19903,-0.0070337,-0.055391,-0.39804,-2.5165,0.01493,-0.053228,-0.15733,-0.039711,0.073365,-0.28081,-0.15349,-1.819,-0.20249,-2.9375
0.031199,-0.016963,-0.056588,0.033183,-0.23852,-0.49677,-0.40451,0.18503,0.022013,0.20154,-0.00094811,-0.052548,-0.35218,-2.5291,-0.016591,-0.043162,-0.16437,-0.045587,0.07451,-0.22487,-0.23958,-2.0703,-0.19217,-2.924
0.035034,-0.017196,-0.059077,0.025861,-0.17609,-0.43117,-0.42482,0.20212,0.048786,0.19915,-0.0026389,-0.057054,-0.21837,-2.3752,-0.063432,-0.065863,-0.17235,-0.05061,0.079877,-0.17143,-0.30013,-2.331,-0.1776,-2.8123
0.040941,-0.018622,-0.068171,0.018255,-0.10451,-0.37,-0.43746,0.20875,0.061546,0.19281,-0.010468,-0.065782,-0.060294,-2.0665,-0.091211,-0.10357,-0.18084,-0.053456,0.085179,-0.12134,-0.32458,-2.5077,-0.151,-2.5839
0.047602,-0.019053,-0.077372,0.014074,-0.021793,-0.3043,-0.44447,0.20498,0.055883,0.18278,-0.020614,-0.074664,0.049176,-1.6075,-0.067176,-0.12616,-0.18881,-0.055369,0.087791,-0.077528,-0.31942,-2.474,-0.10364,-2.2387
0.052554,-0.016946,-0.079935,0.014941,0.066167,-0.22854,-0.45136,0.19354,0.033947,0.16859,-0.029567,-0.080958,0.068017,-1.0105,0.015913,-0.11234,-0.19512,-0.058409,0.087659,-0.045451,-0.3024,-2.1423,-0.030861,-1.8089
0.055076,-0.012534,-0.073399,0.019811,0.14579,-0.14536,-0.46165,0.17899,0.0034243,0.14921,-0.035909,-0.083714,0.0045578,-0.34047,0.13138,-0.063624,-0.19916,-0.062924,0.08491,-0.031684,-0.29012,-1.5263,0.063338,-1.3535
0.057722,-0.0071267,-0.060741,0.026236,0.20238,-0.066073,-0.47144,0.16586,-0.026602,0.12377,-0.040505,-0.082525,-0.09646,0.26328,0.23283,-0.0016523,-0.20115,-0.066759,0.076562,-0.041122,-0.28731,-0.75475,0.16472,-0.93122
0.065294,-0.0013711,-0.04778,0.032375,0.22953,-0.0052325,-0.46874,0.15657,-0.049749,0.092461,-0.045324,-0.076088,-0.19018,0.62987,0.28164,0.04712,-0.20172,-0.067047,0.055955,-0.074213,-0.28573,-0.025997,0.25167,-0.56616
0.082196,0.0056071,-0.039296,0.038044,0.2345,0.027894,-0.43985,0.1508,-0.063778,0.056818,-0.051726,-0.062303,-0.26236,0.65593,0.26912,0.067021,-0.20135,-0.062944,0.016158,-0.12566,-0.27304,0.47016,0.30241,-0.23042
0.11022,0.015075,-0.036789,0.044092,0.23443,0.035314,-0.37923,0.14679,-0.06933,0.018778,-0.059076,-0.040307,-0.33094,0.3907,0.2188,0.058919,-0.1999,-0.056732,-0.045229,-0.18522,-0.24436,0.62613,0.30382,0.13877
0.14799,0.026529,-0.038927,0.050868,0.24483,0.028955,-0.29573,0.14356,-0.067981,-0.020921,-0.064495,-0.013088,-0.41907,0.032025,0.169,0.035445,-0.19669,-0.052136,-0.12406,-0.24025,-0.20723,0.45517,0.25765,0.59169
0.1919,0.036743,-0.04343,0.057281,0.26855,0.022563,-0.20938,0.14207,-0.061426,-0.063668,-0.064235,0.011644,-0.524,-0.18006,0.14938,0.012676,-0.19114,-0.051278,-0.21222,-0.2794,-0.17621,0.082515,0.17976,1.1185
0.23727,0.041436,-0.048463,0.06136,0.29417,0.022875,-0.13986,0.14414,-0.051877,-0.11199,-0.056247,0.023782,-0.61054,-0.10377,0.16763,0.0052012,-0.18341,-0.05297,-0.30231,-0.29652,-0.16205,-0.30708,0.091912,1.6367
0.27923,0.038567,-0.052805,0.061744,0.30582,0.026717,-0.0948,0.15022,-0.042368,-0.1669,-0.042298,0.015606,-0.63571,0.22943,0.21306,0.025445,-0.17463,-0.053888,-0.39008,-0.29351,-0.16453,-0.54702,0.010329,2.0285
0.31313,0.030547,-0.055509,0.058749,0.29712,0.025677,-0.066663,0.15793,-0.035891,-0.22541,-0.027762,-0.013793,-0.58378,0.65663,0.27026,0.082756,-0.16643,-0.051614,-0.47239,-0.28059,-0.17395,-0.55976,-0.061326,2.2065
0.33497,0.023276,-0.05604,0.054118,0.27738,0.013765,-0.040673,0.16273,-0.033546,-0.28047,-0.018624,-0.057437,-0.48076,1.0049,0.32957,0.17848,-0.1601,-0.046837,-0.54332,-0.27274,-0.17927,-0.38479,-0.12944,2.164
0.34204,0.022366,-0.054843,0.049773,0.26455,-0.0083616,-0.0071033,0.1598,-0.03295,-0.32392,-0.017611,-0.1036,-0.376,1.1994,0.38616,0.29902,-0.15588,-0.042739,-0.59308,-0.28337,-0.17546,-0.14464,-0.20015,1.9754
0.33345,0.029289,-0.053352,0.046717,0.2706,-0.035142,0.032037,0.14577,-0.028258,-0.3507,-0.02241,-0.141,-0.30751,1.2834,0.43103,0.4139,-0.15286,-0.042011,-0.61195,-0.31806,-0.16491,0.03344,-0.26968,1.7484
0.31064,0.040298,-0.052876,0.044893,0.29191,-0.060712,0.066945,0.11938,-0.012404,-0.36167,-0.027476,-0.16259,-0.28163,1.3523,0.44507,0.48417,-0.14955,-0.044106,-0.59627,-0.37158,-0.15335,0.090847,-0.32374,1.5611
0.27784,0.048924,-0.053072,0.0438,0.31299,-0.081452,0.090457,0.081776,0.019007,-0.36284,-0.027978,-0.1658,-0.28283,1.4654,0.40438,0.47938,-0.1446,-0.045259,-0.55103,-0.42992,-0.14507,0.057511,-0.34731,1.4286
0.2422,0.050187,-0.051609,0.04302,0.32001,-0.094743,0.10553,0.036863,0.063977,-0.36178,-0.022667,-0.15054,-0.30195,1.6075,0.29499,0.39335,-0.1373,-0.041469,-0.48638,-0.47564,-0.14117,0.0087872,-0.33706,1.3143
0.2127,0.043567,-0.045769,0.042136,0.31206,-0.096564,0.12332,-0.0085074,0.11312,-0.36325,-0.013622,-0.11798,-0.35458,1.723,0.12585,0.24874,-0.12769,-0.032018,-0.411,-0.49384,-0.1409,-0.0024125,-0.30552,1.1714
0.19704,0.032831,-0.035034,0.040349,0.30026,-0.081461,0.15368,-0.046002,0.15308,-0.36678,-0.0036448,-0.071944,-0.47229,1.7825,-0.070752,0.086743,-0.11625,-0.02037,-0.32827,-0.47617,-0.14317,0.016741,-0.27253,0.98025
0.19727,0.023103,-0.022502,0.036567,0.2961,-0.045288,0.19632,-0.069077,0.17352,-0.36704,0.0060584,-0.021162,-0.6742,1.8225,-0.25341,-0.051976,-0.10341,-0.011415,-0.23853,-0.42236,-0.1464,0.017752,-0.25017,0.75699
0.20686,0.017433,-0.013679,0.030169,0.29997,0.012187,0.23992,-0.07628,0.17353,-0.35675,0.016059,0.021143,-0.94343,1.9238,-0.39168,-0.14429,-0.089177,-0.0072148,-0.14449,-0.33958,-0.14734,-0.036836,-0.23337,0.53434
0.21242,0.015217,-0.013133,0.021758,0.30003,0.087328,0.26957,-0.071942,0.1628,-0.33039,0.027223,0.042455,-1.2272,2.1476,-0.47863,-0.19108,-0.073118,-0.0049933,-0.053636,-0.24005,-0.14103,-0.13642,-0.20403,0.33596
0.20054,0.013412,-0.021277,0.012979,0.28201,0.17453,0.27654,-0.063302,0.15562,-0.28704,0.039395,0.038168,-1.4591,2.4799,-0.52766,-0.21163,-0.054886,0.00059488,0.025449,-0.13705,-0.12303,-0.23183,-0.14583,0.16464
0.16589,0.0094373,-0.033656,0.0052596,0.24058,0.26699,0.26293,-0.056029,0.16134,-0.2308,0.051418,0.015163,-1.5867,2.8287,-0.55631,-0.23054,-0.034951,0.012606,0.089825,-0.040588,-0.092603,-0.27925,-0.058374,0.010325
0.11477,0.0034596,-0.043528,-0.0015106,0.18268,0.35518,0.23882,-0.051491,0.17798,-0.16871,0.061978,-0.012013,-1.5862,3.0776,-0.56941,-0.26415,-0.015027,0.028575,0.14515,0.045315,-0.054253,-0.27783,0.039891,-0.133
0.060929,-0.0017164,-0.046223,-0.0091111,0.12108,0.42584,0.21531,-0.04753,0.19426,-0.107,0.070158,-0.030233,-1.4601,3.1575,-0.55433,-0.31251,0.0023605,0.041987,0.20128,0.12183,-0.01648,-0.2696,0.12135,-0.2572
0.016345,-0.0030981,-0.042343,-0.019611,0.065094,0.46488,0.19896,-0.041442,0.19861,-0.048213,0.075388,-0.035323,-1.2246,3.0857,-0.49286,-0.36065,0.0151,0.047484,0.26369,0.19149,0.011715,-0.30514,0.16355,-0.34431
-0.016053,-0.00033231,-0.037408,-0.033531,0.016735,0.46421,0.19081,-0.032248,0.18851,0.0087904,0.077417,-0.032152,-0.89786,2.9462,-0.38128,-0.38892,0.02277,0.045402,0.32796,0.2542,0.024575,-0.40621,0.15843,-0.38023
-0.042237,0.0034689,-0.037864,-0.049035,-0.025887,0.42702,0.18854,-0.020656,0.17291,0.065778,0.07679,-0.027638,-0.49647,2.8253,-0.24292,-0.38753,0.027037,0.041607,0.38189,0.30596,0.021861,-0.55361,0.11217,-0.36669
-0.069973,0.0037709,-0.04613,-0.062734,-0.063248,0.36589,0.18866,-0.0077617,0.16564,0.12145,0.075274,-0.023174,-0.041098,2.7532,-0.12185,-0.36644,0.030796,0.042581,0.41331,0.34108,0.0089393,-0.70348,0.039137,-0.32252
-0.10103,-0.0019387,-0.058347,-0.07138,-0.093436,0.29381,0.18704,0.0052916,0.17487,0.17025,0.075286,-0.013293,0.43473,2.6916,-0.059924,-0.35258,0.036586,0.04992,0.41679,0.35579,-0.0052006,-0.81306,-0.044151,-0.27476
-0.12928,-0.012037,-0.066798,-0.073181,-0.11628,0.21542,0.17879,0.015981,0.19644,0.205,0.07835,0.0083843,0.88103,2.5741,-0.07264,-0.37348,0.045262,0.058963,0.39474,0.35023,-0.011352,-0.85623,-0.12211,-0.2465
-0.14614,-0.021774,-0.065392,-0.068137,-0.13732,0.12643,0.15966,0.019085,0.21582,0.2215,0.08384,0.041691,1.24,2.3645,-0.1412,-0.43657,0.0557,0.062743,0.35347,0.32789,-0.0037768,-0.82451,-0.18159,-0.24963
-0.14846,-0.026715,-0.054089,-0.057743,-0.16605,0.022662,0.12876,0.0077256,0.21727,0.22147,0.089367,0.078133,1.4654,2.0842,-0.22637,-0.5188,0.06557,0.05785,0.29881,0.29373,0.01742,-0.72271,-0.21425,-0.2853
-0.14224,-0.025934,-0.038814,-0.044676,-0.20841,-0.089298,0.090314,-0.022919,0.1937,0.21137,0.092616,0.10672,1.5422,1.7887,-0.29348,-0.57587,0.072645,0.047195,0.23483,0.2527,0.046586,-0.56725,-0.21922,-0.34913
-0.13904,-0.022454,-0.027002,-0.032493,-0.26,-0.18961,0.052135,-0.071725,0.15096,0.19821,0.092977,0.12223,1.4921,1.5156,-0.32995,-0.56701,0.075986,0.037503,0.16522,0.20927,0.07559,-0.38539,-0.20327,-0.43523
-0.1484,-0.020678,-0.02242,-0.02485,-0.30655,-0.2545,0.021238,-0.13077,0.10429,0.18565,0.091462,0.12852,1.3593,1.2519,-0.34385,-0.47913,0.076509,0.033899,0.094732,0.16727,0.098003,-0.20872,-0.1766,-0.53589
-0.17224,-0.022971,-0.02332,-0.024085,-0.33266,-0.27061,-0.00011537,-0.18864,0.069914,0.17355,0.089083,0.13396,1.1876,0.95095,-0.34735,-0.33354,0.076662,0.036297,0.028959,0.12909,0.11188,-0.060597,-0.14667,-0.63876
-0.20545,-0.02814,-0.024984,-0.029938,-0.33228,-0.2434,-0.014854,-0.23573,0.056875,0.16096,0.085469,0.1432,1.0044,0.58459,-0.34085,-0.1713,0.079178,0.040432,-0.026735,0.094825,0.11954,0.053212,-0.11471,-0.72592
-0.24125,-0.032849,-0.024064,-0.039542,-0.3127,-0.19358,-0.027967,-0.26808,0.063462,0.14982,0.079191,0.15285,0.82238,0.18247,-0.311,-0.028821,0.085403,0.042117,-0.067675,0.062162,0.12486,0.14114,-0.077896,-0.77786
-0.27626,-0.034564,-0.020981,-0.049015,-0.28877,-0.14523,-0.042894,-0.28744,0.07935,0.1459,0.069519,0.15454,0.65165,-0.18113,-0.24329,0.077668,0.09416,0.040642,-0.090024,0.02772,0.13034,0.21134,-0.034778,-0.78054
-0.31126,-0.033524,-0.018723,-0.055557,-0.27203,-0.11484,-0.060474,-0.29833,0.091668,0.15586,0.057759,0.14248,0.50667,-0.44689,-0.13783,0.14884,0.10216,0.038398,-0.092106,-0.010883,0.136,0.25934,0.011158,-0.73042
-0.34786,-0.032312,-0.019586,-0.0584,-0.26348,-0.10824,-0.080546,-0.30452,0.091613,0.18226,0.046653,0.11844,0.39855,-0.62781,-0.014868,0.18655,0.10605,0.037569,-0.077098,-0.053448,0.14049,0.27045,0.053204,-0.63428
-0.38489,-0.03365,-0.022802,-0.057879,-0.25535,-0.12448,-0.10353,-0.30721,0.078382,0.22005,0.038275,0.089952,0.32135,-0.81443,0.093596,0.1824,0.10481,0.037485,-0.054585,-0.097095,0.14289,0.23557,0.086546,-0.50492
-0.41806,-0.038378,-0.02485,-0.053681,-0.23962,-0.16089,-0.12977,-0.3053,0.058674,0.25741,0.032431,0.064083,0.24902,-1.1217,0.15894,0.12198,0.10077,0.035338,-0.037779,-0.13769,0.14328,0.16528,0.11146,-0.3573
-0.44283,-0.045084,-0.021875,-0.044156,-0.21571,-0.21449,-0.15734,-0.2969,0.042225,0.28107,0.027267,0.04257,0.15122,-1.6203,0.16627,0.0008108,0.098276,0.029497,-0.036429,-0.17199,0.14184,0.08757,0.13109,-0.20808
-0.45707,-0.051348,-0.012229,-0.027661,-0.19091,-0.28026,-0.18146,-0.2807,0.035816,0.28341,0.021666,0.022713,0.017667,-2.3075,0.11429,-0.16392,0.10075,0.021931,-0.050011,-0.19928,0.13751,0.029281,0.14566,-0.076724
-0.46104,-0.055386,0.0025651,-0.0048958,-0.17368,-0.3497,-0.19703,-0.25685,0.039085,0.26711,0.017146,0.0023893,-0.12966,-3.1323,0.0081459,-0.3383,0.10835,0.017044,-0.067011,-0.22117,0.12809,-0.0028671,0.14906,0.016551
-0.45478,-0.056877,0.018752,0.020037,-0.16592,-0.41252,-0.20255,-0.22727,0.04451,0.24412,0.017112,-0.016298,-0.24834,-4.0431,-0.14642,-0.49036,0.11796,0.017737,-0.072066,-0.23946,0.11188,-0.024824,0.13215,0.057668
-0.43643,-0.056621,0.032369,0.041242,-0.16115,-0.45999,-0.20152,-0.1955,0.041596,0.22885,0.023661,-0.028669,-0.30327,-5.0052,-0.34232,-0.60648,0.12539,0.022422,-0.056286,-0.25315,0.089732,-0.059102,0.091312,0.046434
-0.40382,-0.055603,0.041119,0.054394,-0.15004,-0.48718,-0.19974,-0.16603,0.022795,0.2296,0.034607,-0.032895,-0.28907,-5.9733,-0.56571,-0.69153,0.12825,0.026004,-0.023126,-0.25702,0.065534,-0.11444,0.035322,-0.0017913
-0.35812,-0.054289,0.045133,0.059174,-0.12874,-0.49297,-0.20079,-0.14292,-0.012244,0.24382,0.043698,-0.033623,-0.23038,-6.8521,-0.79224,-0.7543,0.12735,0.024209,0.014575,-0.24338,0.044403,-0.17871,-0.016367,-0.063296
-0.30597,-0.052639,0.046343,0.058648,-0.10294,-0.47943,-0.20409,-0.12839,-0.056331,0.26093,0.044505,-0.039633,-0.16205,-7.4989,-0.9902,-0.79365,0.12571,0.017397,0.043833,-0.20659,0.029881,-0.22986,-0.044296,-0.11688
-0.2572,-0.050652,0.04689,0.056029,-0.084181,-0.45216,-0.20718,-0.12181,-0.097915,0.27054,0.035209,-0.056938,-0.10644,-7.7856,-1.13,-0.79969,0.12613,0.01034,0.059841,-0.14744,0.022133,-0.25365,-0.041636,-0.14904
-0.21946,-0.04886,0.047633,0.051649,-0.081294,-0.4204,-0.20958,-0.11971,-0.12534,0.27008,0.020318,-0.08332,-0.065426,-7.6806,-1.1947,-0.76864,0.12908,0.0080923,0.06748,-0.074236,0.018422,-0.25257,-0.019103,-0.14923
-0.19393,-0.048201,0.047813,0.042925,-0.093486,-0.39403,-0.21403,-0.1171,-0.12962,0.26574,0.0075974,-0.10934,-0.03082,-7.2821,-1.1865,-0.71526,0.13253,0.01161,0.075848,0.0003293,0.015331,-0.24011,0.0023411,-0.10165
-0.17579,-0.049254,0.046148,0.027524,-0.11047,-0.37689,-0.22358,-0.1097,-0.10516,0.26609,0.0024039,-0.12521,-0.0015656,-6.7676,-1.1242,-0.66802,0.13367,0.01699,0.090777,0.064604,0.010935,-0.22812,0.0061647,0.013535
-0.15883,-0.051445,0.042519,0.0068953,-0.1195,-0.36122,-0.23782,-0.096107,-0.050043,0.2742,0.0038989,-0.12777,0.0087072,-6.2874,-1.0342,-0.64816,0.13114,0.018908,0.11087,0.11253,0.0053705,-0.21944,-0.0086688,0.20349
-0.14039,-0.052982,0.038762,-0.013233,-0.11432,-0.32996,-0.25248,-0.078989,0.032267,0.28495,0.0061722,-0.12179,-0.019236,-5.8766,-0.93651,-0.65083,0.12612,0.015138,0.12899,0.14532,-0.0003326,-0.21066,-0.028729,0.44067
-0.12262,-0.05179,0.037678,-0.026289,-0.099912,-0.26898,-0.2632,-0.064328,0.13038,0.28967,0.0032999,-0.11516,-0.092152,-5.4448,-0.83276,-0.6459,0.12149,0.0082505,0.137,0.17007,-0.0059407,-0.19971,-0.038245,0.65744
-0.10951,-0.046824,0.0409,-0.029536,-0.090169,-0.18192,-0.27006,-0.05876,0.22504,0.2834,-0.0058042,-0.11274,-0.19291,-4.8424,-0.70401,-0.59963,0.11995,0.003236,0.13004,0.19665,-0.012811,-0.18974,-0.032372,0.7725
-0.10272,-0.038731,0.047363,-0.025993,-0.10036,-0.094996,-0.27821,-0.066195,0.29482,0.26797,-0.01655,-0.11417,-0.28622,-3.9539,-0.52143,-0.49948,0.12244,0.0033821,0.10844,0.23363,-0.023226,-0.18637,-0.020834,0.73979
-0.099856,-0.029333,0.053796,-0.021829,-0.13893,-0.044591,-0.29351,-0.085505,0.32633,0.24828,-0.022258,-0.11662,-0.33781,-2.7603,-0.26746,-0.36143,0.12786,0.0079753,0.077389,0.2848,-0.038846,-0.19265,-0.019312,0.58672
-0.096368,-0.020349,0.056975,-0.021403,-0.20305,-0.053661,-0.31694,-0.11061,0.32223,0.22574,-0.019125,-0.11856,-0.33206,-1.3483,0.044638,-0.21496,0.13403,0.013482,0.045553,0.3474,-0.059361,-0.20685,-0.036246,0.40775
-0.089169,-0.012418,0.055913,-0.024178,-0.27961,-0.1138,-0.34254,-0.13298,0.29994,0.19571,-0.0087949,-0.12039,-0.27462,0.11536,0.36674,-0.080201,0.13895,0.016734,0.022758,0.41337,-0.082186,-0.22383,-0.066266,0.30888
-0.078682,-0.0051125,0.052202,-0.026015,-0.35073,-0.18781,-0.36054,-0.14539,0.2799,0.15143,0.0030169,-0.12148,-0.17982,1.4192,0.63389,0.042351,0.14165,0.017176,0.016691,0.47344,-0.10339,-0.23663,-0.095352,0.33717
-0.067731,0.0022173,0.048327,-0.023385,-0.40078,-0.2326,-0.36314,-0.14482,0.27094,0.090825,0.010404,-0.11758,-0.056344,2.348,0.79619,0.16183,0.1422,0.016517,0.029269,0.52153,-0.11946,-0.23595,-0.11264,0.4467
-0.05838,0.0095772,0.045582,-0.016547,-0.42169,-0.22639,-0.34845,-0.13338,0.26408,0.019804,0.01081,-0.10202,0.094382,2.7417,0.84562,0.27804,0.14138,0.016637,0.05487,0.55663,-0.12897,-0.21007,-0.11848,0.52922
-0.049484,0.016098,0.04344,-0.00895,-0.41416,-0.17992,-0.3201,-0.1165,0.23972,-0.050899,0.00617,-0.070608,0.26578,2.5708,0.81968,0.37248,0.14005,0.017941,0.082495,0.581,-0.13321,-0.14876,-0.12248,0.48982
-0.0371,0.02051,0.040736,-0.0038018,-0.38445,-0.12375,-0.2838,-0.099531,0.18273,-0.11238,0.0013716,-0.025989,0.43373,1.9887,0.77839,0.4186,0.1387,0.019439,0.10148,0.59659,-0.13522,-0.050812,-0.1345,0.31246
-0.017635,0.021947,0.037285,-0.0013086,-0.33919,-0.082071,-0.2438,-0.08464,0.09348,-0.16186,0.0011682,0.022399,0.56038,1.3053,0.76873,0.40278,0.13718,0.01998,0.10744,0.60302,-0.1378,0.070453,-0.15708,0.066436
0.0086615,0.020617,0.034224,0.00080068,-0.28156,-0.053757,-0.20186,-0.06986,-0.013562,-0.20152,0.0071832,0.062752,0.61594,0.86338,0.79955,0.33821,0.13486,0.019127,0.10442,0.59855,-0.14207,0.19037,-0.18572,-0.14979
0.036742,0.018036,0.032787,0.0043014,-0.21108,-0.014542,-0.15843,-0.05101,-0.12097,-0.23405,0.016577,0.086215,0.60174,0.87075,0.84261,0.26001,0.13118,0.016979,0.10173,0.58284,-0.14786,0.28458,-0.21513,-0.2833
0.059583,0.016592,0.032855,0.0083303,-0.12673,0.062642,-0.11439,-0.024958,-0.21924,-0.25977,0.023358,0.08947,0.55359,1.292,0.85724,0.20566,0.126,0.013528,0.1077,0.55869,-0.1559,0.34175,-0.2446,-0.36298
0.073176,0.018485,0.032834,0.010386,-0.030047,0.186,-0.07148,0.0083008,-0.30884,-0.27813,0.022033,0.073991,0.51945,1.8805,0.81961,0.19524,0.11959,0.0085723,0.12464,0.53157,-0.16934,0.36824,-0.2775,-0.47278
0.080095,0.024437,0.031006,0.0093871,0.074223,0.33834,-0.031053,0.046319,-0.39367,-0.29204,0.011638,0.044213,0.52741,2.3385,0.73572,0.22456,0.11208,0.0022823,0.14766,0.5077,-0.19257,0.38157,-0.31632,-0.68628
0.088661,0.033022,0.026987,0.0073948,0.18016,0.4893,0.0072906,0.086653,-0.47364,-0.3107,-0.0026947,0.0067561,0.56896,2.4972,0.63097,0.27259,0.10317,-0.0043712,0.16731,0.49216,-0.22712,0.39787,-0.35874,-1.0138
0.10781,0.041252,0.02188,0.0078974,0.28268,0.61515,0.045637,0.12844,-0.54349,-0.34733,-0.012287,-0.029418,0.60997,2.3965,0.52764,0.31524,0.092314,-0.010012,0.17398,0.48732,-0.26772,0.42198,-0.39853,-1.3971
0.14116,0.046279,0.017072,0.012169,0.37726,0.71099,0.085913,0.17129,-0.59762,-0.41245,-0.010294,-0.053841,0.61942,2.2185,0.43,0.33537,0.079479,-0.013814,0.162,0.49101,-0.3025,0.44536,-0.42937,-1.7459
0.18463,0.047102,0.012951,0.017494,0.45812,0.78756,0.12777,0.21262,-0.63481,-0.50613,0.0038229,-0.057469,0.59232,2.1377,0.32834,0.32569,0.065573,-0.016121,0.13191,0.49455,-0.31848,0.4512,-0.44732,-1.9823
0.2293,0.045082,0.0087384,0.019403,0.51791,0.85825,0.16829,0.24649,-0.65746,-0.61417,0.02417,-0.036407,0.55027,2.2059,0.21557,0.28652,0.05206,-0.018236,0.090123,0.48305,-0.30943,0.4227,-0.44971,-2.0612
0.2671,0.042895,0.003432,0.016027,0.55111,0.92834,0.20437,0.26599,-0.66604,-0.71101,0.042777,0.0062861,0.52218,2.347,0.099172,0.2231,0.04002,-0.021662,0.045345,0.43995,-0.28056,0.35095,-0.43339,-1.9689
0.29484,0.042768,-0.0031869,0.010276,0.55908,0.99465,0.23618,0.2679,-0.65519,-0.76868,0.054988,0.062241,0.52274,2.4419,-0.0031277,0.14403,0.029532,-0.027431,0.0031098,0.35489,-0.24647,0.24089,-0.39585,-1.7186
0.31383,0.045298,-0.010301,0.00744,0.55172,1.053,0.26918,0.25571,-0.61626,-0.76756,0.061659,0.1217,0.54504,2.4205,-0.079216,0.060724,0.019919,-0.035714,-0.038143,0.23022,-0.22342,0.11322,-0.3393,-1.3602
0.32634,0.049544,-0.016504,0.010181,0.54271,1.1042,0.31301,0.23802,-0.54531,-0.70332,0.066789,0.17684,0.57023,2.2917,-0.13327,-0.01331,0.010531,-0.045582,-0.085688,0.081145,-0.22115,0.00052596,-0.27334,-0.99217
0.33272,0.054009,-0.020362,0.015591,0.54104,1.1528,0.37834,0.22316,-0.44958,-0.58639,0.07313,0.22256,0.58368,2.1061,-0.17938,-0.063918,0.0012973,-0.054949,-0.14565,-0.071511,-0.23915,-0.062933,-0.21194,-0.74887
0.3316,0.057585,-0.020832,0.017218,0.54549,1.1993,0.47412,0.2139,-0.34663,-0.43504,0.079758,0.25536,0.58465,1.9052,-0.22323,-0.079158,-0.0073545,-0.061158,-0.21545,-0.21153,-0.26883,-0.053887,-0.16573,-0.75132
0.32252,0.059856,-0.017764,0.010409,0.54756,1.2371,0.60718,0.20627,-0.25621,-0.26739,0.083435,0.27249,0.58396,1.7025,-0.25037,-0.054538,-0.014852,-0.062326,-0.28214,-0.33382,-0.29882,0.031096,-0.1355,-1.0431
0.30763,0.060897,-0.012489,-0.0037047,0.54036,1.2572,0.78278,0.19316,-0.19091,-0.097736,0.082004,0.27293,0.5942,1.5005,-0.23503,0.00060674,-0.020534,-0.058681,-0.32885,-0.44324,-0.31955,0.17477,-0.11242,-1.556
0.29034,0.061037,-0.0078386,-0.018957,0.52595,1.2571,1.0032,0.16983,-0.15229,0.061379,0.076529,0.25929,0.62087,1.3097,-0.16441,0.060416,-0.023387,-0.052575,-0.34502,-0.54733,-0.32512,0.34524,-0.084912,-2.1352
0.27234,0.060761,-0.0068315,-0.028789,0.51398,1.245,1.2627,0.13744,-0.134,0.19555,0.070543,0.23837,0.65957,1.1413,-0.056774,0.089466,-0.022031,-0.046695,-0.33209,-0.6477,-0.31308,0.50462,-0.046624,-2.6141
0.25184,0.060541,-0.010376,-0.030665,0.5126,1.2322,1.5415,0.10236,-0.12811,0.28893,0.067615,0.2189,0.69857,0.98368,0.045337,0.060068,-0.01533,-0.0417,-0.30056,-0.73545,-0.28407,0.61777,0.00051157,-2.8913
0.22525,0.060435,-0.015787,-0.026772,0.52009,1.2208,1.8047,0.072159,-0.12911,0.33042,0.069629,0.20762,0.72319,0.79453,0.10498,-0.028756,-0.0032597,-0.035416,-0.26112,-0.79299,-0.24187,0.66213,0.049559,-2.9654
0.19076,0.059756,-0.017963,-0.021114,0.5253,1.1994,2.011,0.051422,-0.13359,0.32121,0.076752,0.20643,0.7197,0.52532,0.1203,-0.14458,0.012787,-0.024613,-0.21804,-0.80124,-0.19308,0.63796,0.094445,-2.9123
0.15047,0.05736,-0.013102,-0.016179,0.51718,1.1524,2.1284,0.04008,-0.13803,0.27702,0.08806,0.2129,0.67872,0.16142,0.12842,-0.23531,0.03063,-0.0080591,-0.17006,-0.74934,-0.14537,0.5734,0.13338,-2.8302
0.1089,0.05262,-0.002268,-0.012199,0.49482,1.0771,2.1494,0.035161,-0.1383,0.22192,0.10157,0.22352,0.5989,-0.25946,0.17857,-0.25701,0.048328,0.011837,-0.11694,-0.64202,-0.10449,0.51519,0.16777,-2.7891
0.069429,0.046354,0.008474,-0.0090461,0.46874,0.99434,2.0947,0.034154,-0.13179,0.17724,0.11386,0.23684,0.48959,-0.66877,0.29469,-0.19808,0.064694,0.030438,-0.064499,-0.50068,-0.071714,0.50383,0.19855,-2.809
0.032096,0.040708,0.012201,-0.0081542,0.45186,0.93901,2.0011,0.03706,-0.1194,0.15293,0.12079,0.25365,0.36962,-1.0106,0.45655,-0.083477,0.07899,0.044284,-0.022109,-0.35644,-0.043796,0.54588,0.22365,-2.8652
