-9.6465e-012,7.8137e-010,1.4605e-009,6.6947e-010,-4.148e-010,4.6496e-010,2.2361e-009,7.6208e-010,1.8386e-009,8.2053e-009,6.8047e-009,1.2461e-008,-2.9885e-009,9.8105e-009,6.3088e-010,-7.7751e-010,9.087e-010,8.3539e-010,1.8271e-009,1.0997e-010,2.8882e-009,-3.3377e-010,-9.7044e-010,1.2604e-008
-3.9004e-010,2.1341e-008,4.0698e-008,1.8778e-008,-1.1621e-008,1.276e-008,6.181e-008,2.1155e-008,5.2625e-008,2.2642e-007,1.8882e-007,3.4572e-007,-8.2992e-008,2.736e-007,1.753e-008,-1.8865e-008,2.5311e-008,2.3023e-008,5.0376e-008,3.2357e-009,7.9981e-008,-9.0111e-009,-2.6936e-008,3.4695e-007
-6.7229e-009,2.8322e-007,5.5119e-007,2.5623e-007,-1.585e-007,1.7029e-007,8.3055e-007,2.8558e-007,7.3352e-007,3.0367e-006,2.5482e-006,4.6641e-006,-1.1216e-006,3.7119e-006,2.376e-007,-2.1394e-007,3.4274e-007,3.0831e-007,6.7536e-007,4.6523e-008,1.0768e-006,-1.1804e-007,-3.6379e-007,4.6385e-006
-6.997e-008,2.433e-006,4.8337e-006,2.2661e-006,-1.4028e-006,1.4725e-006,7.2279e-006,2.4978e-006,6.6351e-006,2.637e-005,2.2284e-005,4.0767e-005,-9.8304e-006,3.264e-005,2.0942e-006,-1.4735e-006,3.006e-006,2.6727e-006,5.8651e-006,4.3542e-007,9.3906e-006,-9.9886e-007,-3.1854e-006,4.0121e-005
-5.0792e-007,1.5205e-005,3.0849e-005,1.46e-005,-9.0583e-006,9.2712e-006,4.579e-005,1.5913e-005,4.379e-005,0.00016663,0.00014194,0.00025948,-6.282e-005,0.00020909,1.3501e-005,-6.5401e-006,1.9194e-005,1.6859e-005,3.7086e-005,2.981e-006,5.9626e-005,-6.1314e-006,-2.0327e-005,0.00025227
-2.7826e-006,7.365e-005,0.00015267,7.2999e-005,-4.5487e-005,4.5281e-005,0.00022502,7.8683e-005,0.00022473,0.00081632,0.00070165,0.0012816,-0.00031198,0.0010396,6.789e-005,-1.6413e-005,9.508e-005,8.2447e-005,0.0001819,1.5905e-005,0.00029372,-2.9051e-005,-0.00010073,0.0012282
-1.2095e-005,0.00028758,0.00060944,0.00029465,-0.00018487,0.00017842,0.00089233,0.00031419,0.00093336,0.0032248,0.0028007,0.0051093,-0.0012531,0.0041739,0.00027728,6.938e-006,0.00038012,0.00032521,0.00071996,6.8804e-005,0.0011678,-0.00011032,-0.00040336,0.0048144
-4.3199e-005,0.0009292,0.0020151,0.00098572,-0.0006247,0.00058224,0.0029325,0.0010405,0.0032226,0.010547,0.0092707,0.016885,-0.0041823,0.013893,0.00094561,0.00029885,0.0012595,0.0010625,0.0023607,0.00024784,0.0038486,-0.00034383,-0.0013403,0.015593
-0.00013018,0.0025298,0.0056224,0.0027834,-0.0017887,0.0016022,0.0081373,0.0029123,0.0094284,0.029082,0.025928,0.047127,-0.011825,0.039053,0.0027467,0.0017328,0.0035244,0.0029297,0.0065316,0.00075764,0.010711,-0.00089221,-0.0037655,0.04247
-0.00033802,0.0058758,0.013412,0.006719,-0.0043989,0.0037646,0.019322,0.0069813,0.023697,0.068486,0.062097,0.11256,-0.028728,0.093907,0.0068964,0.0066781,0.0084397,0.0069093,0.015445,0.0019932,0.02551,-0.0019402,-0.0090635,0.098453
-0.0007695,0.011736,0.027607,0.013984,-0.0093798,0.007613,0.039632,0.01447,0.051673,0.13891,0.12857,0.23218,-0.06059,0.19486,0.015132,0.020078,0.017459,0.014069,0.031479,0.0045591,0.052476,-0.0035271,-0.018861,0.19567
-0.0015577,0.02024,0.049324,0.025213,-0.017446,0.013305,0.070666,0.026093,0.098399,0.24386,0.2316,0.41607,-0.1118,0.35068,0.029255,0.049847,0.031395,0.024891,0.055564,0.009136,0.093796,-0.0052746,-0.034118,0.33443
-0.0028346,0.030132,0.076721,0.039433,-0.028382,0.020097,0.10994,0.041086,0.16424,0.37099,0.36434,0.64969,-0.1814,0.54814,0.050114,0.10508,0.049255,0.038404,0.085024,0.016123,0.14612,-0.0061924,-0.053746,0.49069
-0.0046716,0.038519,0.10393,0.05334,-0.040365,0.026112,0.14943,0.056551,0.24039,0.48765,0.50128,0.88397,-0.25964,0.74201,0.076321,0.19105,0.067512,0.051743,0.11239,0.025138,0.19841,-0.004884,-0.073527,0.61305
-0.0070007,0.041739,0.12238,0.061903,-0.049945,0.028862,0.17735,0.067969,0.30755,0.5489,0.60303,1.0448,-0.32803,0.86224,0.10344,0.30212,0.080828,0.060846,0.12707,0.034666,0.23415,-0.00036138,-0.086496,0.64023
-0.0095557,0.037342,0.1248,0.06069,-0.053222,0.02658,0.18353,0.071184,0.34085,0.51904,0.63385,1.0665,-0.36474,0.84409,0.1245,0.41713,0.084537,0.06238,0.12031,0.042237,0.23875,0.0068115,-0.085434,0.53737
-0.011905,0.02609,0.11021,0.049006,-0.047977,0.019703,0.16573,0.064967,0.32111,0.39549,0.58392,0.93301,-0.3534,0.6696,0.13229,0.50251,0.077716,0.055892,0.091215,0.045296,0.20875,0.013893,-0.066651,0.33021
-0.013642,0.012317,0.085871,0.031611,-0.035596,0.011297,0.1323,0.052356,0.24678,0.21651,0.48039,0.69895,-0.28993,0.39266,0.12253,0.52533,0.06458,0.044559,0.049314,0.042453,0.15616,0.016753,-0.03281,0.10734
-0.014692,0.001769,0.064049,0.017079,-0.021185,0.0056383,0.097899,0.039312,0.13837,0.041704,0.37471,0.46481,-0.18284,0.12258,0.096429,0.47097,0.052514,0.03358,0.010576,0.034368,0.10304,0.012096,0.0074492,-0.02251
-0.015533,-0.0019898,0.054756,0.013016,-0.011182,0.0055248,0.074651,0.031198,0.030088,-0.085012,0.31096,0.31697,-0.04718,-0.033106,0.060817,0.35432,0.047493,0.027039,-0.011745,0.023593,0.068157,-0.00022222,0.043399,0.004306
-0.017032,6.8883e-006,0.059518,0.021099,-0.0095565,0.010174,0.064906,0.029509,-0.047741,-0.16279,0.29686,0.27206,0.10263,-0.032928,0.025306,0.21517,0.050067,0.025503,-0.015334,0.013338,0.054934,-0.016765,0.067335,0.16593
-0.019824,0.0030103,0.071031,0.035693,-0.015123,0.015565,0.061419,0.031483,-0.084417,-0.2281,0.30084,0.27012,0.25514,0.07138,-0.0023904,0.098386,0.055184,0.026286,-0.009671,0.0059014,0.050148,-0.03288,0.077536,0.37294
-0.023568,0.0023264,0.079065,0.047526,-0.022149,0.017309,0.054599,0.032981,-0.091577,-0.31833,0.2793,0.22504,0.39906,0.16548,-0.02059,0.030754,0.056318,0.026129,-0.0083307,0.0017962,0.035288,-0.046494,0.077275,0.53223
-0.026753,-0.0029858,0.077812,0.049986,-0.024156,0.013988,0.040476,0.032168,-0.090861,-0.43421,0.21309,0.09396,0.5204,0.13912,-0.034796,0.0097592,0.050745,0.023994,-0.018533,9.8814e-005,0.001897,-0.06032,0.071155,0.60472
-0.027444,-0.0096028,0.068749,0.043343,-0.01832,0.0082093,0.022655,0.030728,-0.096015,-0.53369,0.12325,-0.090505,0.6049,-0.057636,-0.054857,0.01092,0.0416,0.021534,-0.036275,-0.00042177,-0.041541,-0.080223,0.061812,0.61083
-0.024647,-0.013078,0.057283,0.033742,-0.0072021,0.0044083,0.0073428,0.031548,-0.10331,-0.56365,0.053171,-0.25046,0.64524,-0.40198,-0.089213,0.006834,0.03496,0.02098,-0.050835,-0.00038782,-0.076876,-0.11041,0.049141,0.58577
-0.019256,-0.011887,0.046984,0.027981,0.0034468,0.0051848,-0.0030088,0.035165,-0.097247,-0.50277,0.032925,-0.32798,0.64648,-0.82607,-0.13915,-0.016661,0.034413,0.02254,-0.054461,0.00018034,-0.091459,-0.14886,0.03168,0.53246
-0.0137,-0.0087803,0.03699,0.028403,0.0090356,0.0093151,-0.011202,0.038466,-0.065818,-0.379,0.056238,-0.32905,0.62363,-1.2539,-0.19643,-0.057404,0.037804,0.023849,-0.048721,0.0011353,-0.088221,-0.18645,0.00834,0.41867
-0.010371,-0.0082502,0.024535,0.031831,0.0092113,0.013099,-0.021122,0.03706,-0.012094,-0.24752,0.088603,-0.31099,0.59202,-1.6206,-0.24595,-0.10525,0.039003,0.022005,-0.042252,0.0016287,-0.082222,-0.21057,-0.020591,0.21799
-0.010038,-0.012353,0.0092898,0.032882,0.0074619,0.013709,-0.032967,0.029182,0.047274,-0.14973,0.096947,-0.3291,0.55767,-1.8737,-0.27214,-0.15172,0.033233,0.016243,-0.042488,0.00039784,-0.087079,-0.21071,-0.05267,-0.050169
-0.011483,-0.018588,-0.0053738,0.028455,0.0079384,0.011478,-0.043184,0.01748,0.094208,-0.088658,0.073465,-0.39224,0.51502,-1.9716,-0.26545,-0.19249,0.021398,0.0087506,-0.049164,-0.0032355,-0.10328,-0.18285,-0.082274,-0.3245
-0.012608,-0.021657,-0.015618,0.019695,0.012291,0.0091629,-0.049011,0.0069968,0.12085,-0.039277,0.033879,-0.46442,0.4531,-1.8906,-0.22522,-0.22352,0.0097153,0.0028987,-0.055344,-0.0085346,-0.11828,-0.13099,-0.1006,-0.54666
-0.011947,-0.017576,-0.02139,0.010381,0.018919,0.0091457,-0.052374,0.0011706,0.13112,0.019112,-0.0049171,-0.50537,0.36484,-1.6346,-0.15826,-0.23803,0.0048523,0.0005996,-0.054543,-0.013497,-0.11775,-0.066486,-0.098779,-0.70255
-0.0093269,-0.0067774,-0.026992,0.0037586,0.024769,0.011312,-0.058581,-0.00058342,0.13253,0.079107,-0.044656,-0.50897,0.25256,-1.2353,-0.07551,-0.23012,0.008543,0.0011888,-0.047044,-0.016003,-0.097867,-0.0056803,-0.074035,-0.8197
-0.0053816,0.0061151,-0.036971,0.00064037,0.02776,0.013499,-0.070859,-0.0018037,0.12714,0.10964,-0.10419,-0.50489,0.12662,-0.74244,0.010111,-0.2023,0.016023,0.0026076,-0.039672,-0.01515,-0.068316,0.034552,-0.034693,-0.92621
-0.00078254,0.01536,-0.05126,-0.00019321,0.027847,0.0138,-0.086454,-0.0057371,0.11026,0.081969,-0.19936,-0.52595,-0.00066511,-0.21389,0.084305,-0.16895,0.019517,0.0034415,-0.03957,-0.011828,-0.044232,0.043785,0.001375,-1.0152
0.0038833,0.017559,-0.064525,-0.00049062,0.026301,0.012328,-0.098581,-0.012959,0.077111,-0.0065742,-0.3242,-0.57508,-0.12073,0.29018,0.13261,-0.15015,0.013949,0.0037332,-0.047939,-0.0081371,-0.034769,0.02491,0.016252,-1.0522
0.0076874,0.01324,-0.07076,-0.0016225,0.024371,0.010829,-0.10256,-0.021684,0.030143,-0.12953,-0.4514,-0.62281,-0.23006,0.71481,0.14452,-0.15927,0.00039141,0.0039738,-0.059295,-0.0060828,-0.037858,-0.0044947,0.0036928,-1.0186
0.0093622,0.0060127,-0.069008,-0.0046409,0.022682,0.010741,-0.1001,-0.029919,-0.020539,-0.24747,-0.55109,-0.63536,-0.32623,1.0277,0.11915,-0.19411,-0.015304,0.0036592,-0.066476,-0.0064599,-0.044504,-0.020207,-0.026117,-0.94704
0.0082834,0.0003275,-0.064776,-0.010354,0.021597,0.011735,-0.097552,-0.037158,-0.06399,-0.32756,-0.61076,-0.60493,-0.40239,1.237,0.067895,-0.23916,-0.027333,0.0012108,-0.066548,-0.00863,-0.04759,-0.0060372,-0.053531,-0.90979
0.0056421,-0.00076192,-0.065645,-0.0187,0.021639,0.012075,-0.099796,-0.044211,-0.09599,-0.35291,-0.63914,-0.55445,-0.44565,1.3859,0.010468,-0.27739,-0.034235,-0.0044768,-0.062428,-0.011267,-0.047152,0.034555,-0.063536,-0.96793
0.0043191,0.0030805,-0.074902,-0.028061,0.023166,0.010258,-0.10592,-0.051818,-0.12045,-0.32043,-0.6527,-0.51452,-0.44343,1.5136,-0.034246,-0.30181,-0.03931,-0.012445,-0.059348,-0.013449,-0.048314,0.079626,-0.055973,-1.1227
0.0069755,0.0094329,-0.08888,-0.035779,0.025554,0.0063275,-0.11062,-0.059699,-0.14385,-0.23589,-0.65874,-0.49611,-0.39508,1.6068,-0.056446,-0.31719,-0.047119,-0.019816,-0.059892,-0.015223,-0.055005,0.10358,-0.043583,-1.3111
0.01374,0.014401,-0.10024,-0.040035,0.026975,0.0017485,-0.10974,-0.066847,-0.1681,-0.11233,-0.65036,-0.48421,-0.31983,1.5898,-0.057129,-0.33094,-0.05922,-0.02379,-0.062117,-0.017149,-0.065727,0.09532,-0.039569,-1.4482
0.021651,0.014842,-0.10417,-0.041551,0.025475,-0.0017794,-0.10431,-0.072409,-0.18828,0.02967,-0.61605,-0.45633,-0.25124,1.3764,-0.043035,-0.3413,-0.072726,-0.023765,-0.062016,-0.019187,-0.074913,0.065527,-0.045135,-1.4809
0.026663,0.010448,-0.10201,-0.04323,0.020701,-0.0033981,-0.0993,-0.075948,-0.19668,0.16536,-0.55297,-0.40713,-0.21711,0.95166,-0.019988,-0.33397,-0.082717,-0.021712,-0.057558,-0.019941,-0.077853,0.036945,-0.047538,-1.413
0.026708,0.0042171,-0.099454,-0.04767,0.014739,-0.0032826,-0.098642,-0.076884,-0.1891,0.27386,-0.47115,-0.3562,-0.21685,0.41508,0.0098118,-0.29114,-0.086217,-0.020561,-0.050452,-0.017157,-0.074269,0.025243,-0.030361,-1.2886
0.023199,0.00060381,-0.10126,-0.054669,0.011017,-0.0021466,-0.10159,-0.07402,-0.16823,0.34495,-0.38578,-0.33275,-0.21463,-0.062086,0.045505,-0.20691,-0.084241,-0.022116,-0.044281,-0.0093736,-0.067505,0.025877,0.012415,-1.153
0.019704,0.0023455,-0.10723,-0.061192,0.011899,-0.00073921,-0.10381,-0.066192,-0.142,0.37809,-0.30661,-0.35208,-0.15868,-0.34089,0.084075,-0.096663,-0.080338,-0.026195,-0.041063,0.0024962,-0.060757,0.017293,0.069993,-1.0248
0.018991,0.0083172,-0.1127,-0.064101,0.016839,0.00030739,-0.10184,-0.053779,-0.11931,0.37406,-0.23495,-0.40431,-0.017341,-0.40083,0.11995,0.0081857,-0.077245,-0.031357,-0.039511,0.015101,-0.054343,-0.02274,0.12104,-0.89706
0.021038,0.014256,-0.1128,-0.063273,0.022662,0.00047172,-0.096191,-0.039655,-0.10672,0.3274,-0.17021,-0.46385,0.19313,-0.33913,0.14823,0.078033,-0.074859,-0.036151,-0.036375,0.0245,-0.046663,-0.10117,0.14749,-0.75872
0.023576,0.015956,-0.10661,-0.062142,0.025821,-0.00052221,-0.090462,-0.028265,-0.10774,0.22745,-0.11771,-0.50994,0.41163,-0.28557,0.16814,0.10366,-0.071255,-0.039704,-0.029369,0.028708,-0.037725,-0.20599,0.14517,-0.61606
0.024404,0.012393,-0.097763,-0.064948,0.024868,-0.0024815,-0.08745,-0.023064,-0.1238,0.06778,-0.088583,-0.54034,0.5666,-0.30425,0.18297,0.1019,-0.06547,-0.041528,-0.018937,0.028981,-0.031733,-0.31552,0.12378,-0.49487
0.02326,0.0062049,-0.091315,-0.072991,0.021266,-0.0047589,-0.086477,-0.024109,-0.15485,-0.1447,-0.091001,-0.56817,0.61772,-0.36002,0.19611,0.10326,-0.059167,-0.041287,-0.0075721,0.028745,-0.036071,-0.41078,0.097578,-0.42218
0.021646,0.0012499,-0.089623,-0.083182,0.018068,-0.00663,-0.084328,-0.027787,-0.1987,-0.38881,-0.12118,-0.60653,0.57403,-0.36792,0.20661,0.12908,-0.055489,-0.03904,0.002267,0.030969,-0.057079,-0.48021,0.075114,-0.40229
0.021018,-0.00054649,-0.090656,-0.090197,0.017668,-0.0077083,-0.078574,-0.029123,-0.24994,-0.63625,-0.16335,-0.65492,0.47652,-0.27445,0.20807,0.17405,-0.056271,-0.035659,0.009522,0.036016,-0.095501,-0.51454,0.056043,-0.40612
0.021196,-0.00030501,-0.08996,-0.090332,0.020329,-0.0079599,-0.06984,-0.025128,-0.29987,-0.85903,-0.19953,-0.69792,0.36218,-0.09972,0.19216,0.20707,-0.060305,-0.032628,0.014196,0.041626,-0.14451,-0.49941,0.036205,-0.38401
0.020511,-0.00050666,-0.084486,-0.083712,0.024342,-0.0073087,-0.06098,-0.016785,-0.33839,-1.0307,-0.22071,-0.71581,0.241,0.087788,0.15409,0.19054,-0.06429,-0.031101,0.016244,0.044869,-0.1914,-0.4154,0.015256,-0.2947
0.017555,-0.002271,-0.075045,-0.073132,0.027334,-0.0053642,-0.054268,-0.0081967,-0.35735,-1.1238,-0.22984,-0.69751,0.10374,0.23121,0.096039,0.1051,-0.065493,-0.030957,0.015279,0.0444,-0.22204,-0.24844,-0.00052363,-0.13069
0.012895,-0.0041648,-0.065446,-0.060965,0.027616,-0.0017875,-0.04955,-0.003574,-0.35398,-1.1116,-0.23539,-0.64625,-0.050544,0.3232,0.026509,-0.037367,-0.063672,-0.030812,0.0115,0.041231,-0.22626,-0.0037719,-0.0027791,0.078743
0.0090702,-0.0035622,-0.059185,-0.047307,0.024818,0.0028696,-0.044985,-0.004278,-0.33228,-0.97965,-0.2424,-0.57513,-0.19681,0.3937,-0.043451,-0.20071,-0.060767,-0.029109,0.0066206,0.037665,-0.20212,0.2883,0.011248,0.28931
0.008632,0.00076638,-0.056578,-0.031158,0.01975,0.0067238,-0.039376,-0.0080904,-0.30129,-0.74054,-0.24971,-0.49793,-0.29604,0.46823,-0.10392,-0.34489,-0.058996,-0.02536,0.003386,0.035527,-0.15756,0.58145,0.034952,0.47178
0.011624,0.0071918,-0.054741,-0.013289,0.013838,0.0072987,-0.033639,-0.011126,-0.27062,-0.43839,-0.25451,-0.42226,-0.32808,0.54089,-0.14762,-0.44374,-0.059271,-0.020473,0.0037687,0.035185,-0.10791,0.83328,0.05616,0.62691
0.014528,0.012186,-0.050338,0.00243,0.0084596,0.0032197,-0.030081,-0.010806,-0.24562,-0.13412,-0.25776,-0.34868,-0.31475,0.58557,-0.16967,-0.48827,-0.061102,-0.015985,0.0075249,0.035925,-0.069527,1.0226,0.065571,0.77392
0.011703,0.01291,-0.042595,0.011114,0.0043873,-0.004426,-0.030305,-0.0075791,-0.22511,0.12232,-0.26379,-0.27348,-0.30898,0.59003,-0.16764,-0.47634,-0.063505,-0.013029,0.012666,0.036992,-0.051735,1.1516,0.062972,0.92329
-0.0014476,0.0093215,-0.033957,0.010846,0.0015501,-0.012385,-0.033701,-0.004218,-0.2031,0.3148,-0.27432,-0.19132,-0.35485,0.57703,-0.14287,-0.40167,-0.065637,-0.01195,0.017537,0.038203,-0.051511,1.2315,0.056321,1.0576
-0.025575,0.0041508,-0.027912,0.0049001,-0.00069949,-0.017275,-0.037706,-0.0034799,-0.17337,0.46268,-0.28366,-0.09598,-0.44993,0.59151,-0.10155,-0.25437,-0.066609,-0.012659,0.022473,0.039668,-0.05488,1.2632,0.0549,1.1378
-0.056597,0.00082661,-0.026021,-0.00018936,-0.0029185,-0.017908,-0.039406,-0.0061278,-0.1339,0.60086,-0.28139,0.018794,-0.54081,0.66536,-0.0535,-0.034299,-0.065146,-0.014989,0.029267,0.041048,-0.04553,1.2321,0.062511,1.1297
-0.087476,0.0010208,-0.02684,0.0005949,-0.0049742,-0.016044,-0.037176,-0.010771,-0.088342,0.75355,-0.26069,0.15624,-0.5566,0.79019,-0.0083115,0.23408,-0.060005,-0.018451,0.03878,0.041172,-0.016015,1.1223,0.076042,1.0295
-0.11152,0.0036831,-0.027574,0.0070827,-0.0060437,-0.014906,-0.031367,-0.015326,-0.043871,0.9207,-0.22449,0.31256,-0.45503,0.91923,0.028107,0.49964,-0.051152,-0.021746,0.048998,0.038393,0.026023,0.9409,0.089611,0.86634
-0.12538,0.0061733,-0.026794,0.014436,-0.0053139,-0.016593,-0.023941,-0.018639,-0.0070209,1.0841,-0.18325,0.47597,-0.24753,0.99347,0.053416,0.70101,-0.040605,-0.022993,0.05564,0.031381,0.061905,0.7301,0.099691,0.68108
-0.13011,0.0064237,-0.0256,0.01731,-0.0028617,-0.020489,-0.01745,-0.020936,0.020011,1.2237,-0.14652,0.63087,0.011387,0.96981,0.065334,0.79356,-0.031886,-0.021042,0.055201,0.019798,0.074578,0.55255,0.10653,0.49856
-0.12977,0.0043466,-0.026159,0.014058,4.2909e-005,-0.023891,-0.013876,-0.023021,0.040635,1.3297,-0.11714,0.76447,0.25778,0.83241,0.059051,0.77037,-0.028139,-0.016883,0.048025,0.0044536,0.061408,0.45687,0.1114,0.31712
-0.1284,0.0014841,-0.029053,0.007599,0.0015772,-0.024298,-0.013749,-0.025208,0.06229,1.4006,-0.093739,0.86982,0.44786,0.58615,0.029782,0.66398,-0.030149,-0.013618,0.038744,-0.013017,0.037471,0.44813,0.11325,0.12363
-0.12719,-0.00054953,-0.032011,0.0026427,0.00057474,-0.021454,-0.015997,-0.026961,0.092813,1.4356,-0.078516,0.94269,0.56562,0.24412,-0.020558,0.5272,-0.035672,-0.014471,0.033421,-0.030695,0.025977,0.48626,0.10864,-0.078736
-0.12388,-0.0013477,-0.031348,0.0019666,-0.0025653,-0.017532,-0.018681,-0.027376,0.13636,1.4293,-0.080568,0.97637,0.61088,-0.18013,-0.079286,0.40462,-0.040596,-0.020244,0.035387,-0.046907,0.042022,0.51376,0.095025,-0.25393
-0.11507,-0.0016854,-0.024953,0.0048364,-0.0059816,-0.015387,-0.020214,-0.025882,0.19076,1.377,-0.10903,0.96161,0.58413,-0.67423,-0.12788,0.31219,-0.041224,-0.028437,0.042869,-0.060566,0.081241,0.49122,0.073898,-0.34395
-0.09975,-0.0024846,-0.014292,0.0083971,-0.0074839,-0.016352,-0.020174,-0.02255,0.24784,1.2825,-0.16089,0.89452,0.48197,-1.2269,-0.15483,0.23675,-0.03631,-0.034976,0.050252,-0.071155,0.1217,0.41385,0.050591,-0.3024
-0.08117,-0.0039457,-0.0037449,0.010272,-0.0059957,-0.019347,-0.019114,-0.018025,0.29695,1.161,-0.21553,0.78609,0.30413,-1.8274,-0.1667,0.15423,-0.027669,-0.03718,0.052148,-0.07831,0.13771,0.29939,0.030631,-0.12781
-0.065062,-0.0056615,0.0021697,0.0099419,-0.0023321,-0.021964,-0.017613,-0.013387,0.32995,1.0315,-0.24381,0.66319,0.06286,-2.4601,-0.18671,0.052398,-0.019045,-0.035451,0.047389,-0.08125,0.1157,0.16092,0.016006,0.12784
-0.05527,-0.0073939,0.001535,0.0080375,0.0012382,-0.022591,-0.015537,-0.010062,0.34461,0.90775,-0.2267,0.55693,-0.21468,-3.0921,-0.23893,-0.058722,-0.013958,-0.032369,0.040063,-0.078599,0.061335,-0.011507,0.0045317,0.38353
-0.050361,-0.0095119,-0.0041293,0.0047588,0.002381,-0.021829,-0.01218,-0.0094323,0.34428,0.7939,-0.16879,0.48546,-0.49315,-3.6602,-0.32808,-0.15601,-0.013821,-0.030306,0.036801,-0.069047,-0.0061688,-0.24686,-0.0075651,0.57133
-0.044304,-0.012532,-0.01118,-0.00069514,0.00011986,-0.022042,-0.0070578,-0.011974,0.334,0.68879,-0.095113,0.44476,-0.73969,-4.0718,-0.43011,-0.22353,-0.017435,-0.029872,0.04224,-0.052647,-0.066936,-0.57233,-0.022662,0.66835
-0.030971,-0.016255,-0.016104,-0.0090346,-0.0046242,-0.025339,-0.00046695,-0.016388,0.31634,0.5923,-0.033588,0.41503,-0.93199,-4.2295,-0.50149,-0.26637,-0.021991,-0.030429,0.055897,-0.031831,-0.11095,-0.99188,-0.041228,0.69813
-0.0088489,-0.019502,-0.017264,-0.019291,-0.0096584,-0.031541,0.0066697,-0.019731,0.29008,0.50615,0.0028489,0.37739,-1.0604,-4.0721,-0.50198,-0.30533,-0.024783,-0.031656,0.072614,-0.011093,-0.13939,-1.4765,-0.063876,0.70382
0.017907,-0.020889,-0.015362,-0.028536,-0.012797,-0.037763,0.013357,-0.019001,0.25257,0.42879,0.020501,0.32717,-1.1242,-3.6081,-0.4159,-0.35583,-0.024506,-0.034135,0.086051,0.0048237,-0.15771,-1.9674,-0.093254,0.71564
0.042782,-0.020009,-0.012686,-0.033523,-0.012943,-0.040109,0.018845,-0.013325,0.20339,0.35117,0.034214,0.27335,-1.1261,-2.9178,-0.25878,-0.40867,-0.021575,-0.038233,0.092503,0.013208,-0.16729,-2.3887,-0.13285,0.73784
0.061586,-0.017937,-0.011562,-0.03301,-0.010422,-0.036445,0.022635,-0.0049872,0.14599,0.26011,0.053034,0.22665,-1.0666,-2.1153,-0.066867,-0.43015,-0.017603,-0.04261,0.092341,0.01454,-0.16267,-2.6641,-0.1827,0.7622
0.074662,-0.016586,-0.012682,-0.028692,-0.0066228,-0.028294,0.024643,0.0018266,0.08623,0.14797,0.075094,0.18815,-0.944,-1.2932,0.12142,-0.38413,-0.014532,-0.044387,0.088529,0.011681,-0.1359,-2.7385,-0.2353,0.79239
0.085261,-0.017467,-0.014212,-0.023856,-0.0033256,-0.020348,0.025771,0.0038707,0.0295,0.020479,0.094436,0.14877,-0.76022,-0.48363,0.27952,-0.26039,-0.013755,-0.041351,0.084003,0.0077392,-0.083848,-2.5971,-0.27609,0.85383
0.096131,-0.020874,-0.012553,-0.020881,-0.002005,-0.017638,0.028174,0.001068,-0.020681,-0.10479,0.11088,0.098934,-0.52859,0.33648,0.39523,-0.087227,-0.015438,-0.034302,0.080191,0.0042955,-0.011974,-2.2717,-0.28964,0.97658
0.10752,-0.025981,-0.0047459,-0.019749,-0.0032366,-0.022183,0.034284,-0.0037052,-0.061836,-0.20866,0.13224,0.038707,-0.27681,1.2012,0.46467,0.082176,-0.018363,-0.027118,0.077375,0.0013014,0.068507,-1.827,-0.26828,1.1632
0.11804,-0.031485,0.0088364,-0.018786,-0.0063764,-0.03151,0.044739,-0.0070752,-0.090955,-0.28174,0.16694,-0.021198,-0.039191,2.105,0.48655,0.20048,-0.020591,-0.024077,0.075753,-0.0014982,0.14737,-1.3299,-0.21737,1.3687
0.12696,-0.036133,0.023704,-0.01676,-0.0098581,-0.040269,0.056927,-0.0077408,-0.10429,-0.32929,0.21511,-0.067653,0.15908,2.9823,0.46327,0.25153,-0.020761,-0.026583,0.075648,-0.0031209,0.22011,-0.82253,-0.15315,1.5138
0.13555,-0.038874,0.03357,-0.014281,-0.012236,-0.043921,0.066045,-0.0069871,-0.098937,-0.36835,0.26782,-0.094535,0.31437,3.731,0.40701,0.25288,-0.019149,-0.032172,0.076725,-0.0014209,0.28653,-0.31591,-0.09454,1.5253
0.14608,-0.038981,0.03462,-0.013189,-0.013417,-0.041802,0.068568,-0.006883,-0.074974,-0.42072,0.31525,-0.10488,0.44269,4.2616,0.34224,0.23553,-0.017522,-0.036672,0.077495,0.0050943,0.3446,0.19177,-0.054277,1.3783
0.15971,-0.036472,0.028612,-0.014609,-0.015001,-0.037285,0.065498,-0.0080108,-0.036673,-0.50614,0.35594,-0.10484,0.56286,4.5382,0.29792,0.21855,-0.017772,-0.037602,0.076153,0.015065,0.38557,0.69005,-0.034849,1.109
0.17517,-0.032583,0.022135,-0.017614,-0.019093,-0.034995,0.062262,-0.0089277,0.0073629,-0.63696,0.39745,-0.096092,0.67782,4.5884,0.29199,0.19808,-0.020431,-0.035845,0.072158,0.023606,0.39584,1.1453,-0.030635,0.79151
0.18974,-0.029634,0.022161,-0.01983,-0.026303,-0.037333,0.06472,-0.0078483,0.045031,-0.81373,0.44773,-0.074172,0.76946,4.4816,0.31958,0.15807,-0.024369,-0.034306,0.066767,0.024122,0.36592,1.5119,-0.033193,0.49578
0.20164,-0.029965,0.031081,-0.019532,-0.034664,-0.042962,0.074269,-0.0048603,0.063081,-1.0224,0.50516,-0.034086,0.81172,4.293,0.35587,0.092172,-0.027905,-0.035023,0.061532,0.011828,0.29997,1.7538,-0.03552,0.25818
0.21173,-0.034499,0.04511,-0.017309,-0.040756,-0.048188,0.086274,-0.002416,0.051793,-1.2342,0.55718,0.022399,0.79055,4.0724,0.37342,0.017917,-0.030231,-0.037434,0.056024,-0.013063,0.21811,1.8588,-0.033462,0.081594
0.22301,-0.042002,0.057401,-0.015751,-0.042405,-0.049856,0.093408,-0.0034321,0.010885,-1.4095,0.58956,0.084947,0.71407,3.8299,0.36113,-0.028958,-0.031811,-0.039239,0.047309,-0.044484,0.14808,1.8389,-0.025481,-0.0415
0.23795,-0.049723,0.063437,-0.017223,-0.040683,-0.047412,0.091312,-0.0086373,-0.047374,-1.505,0.59838,0.14024,0.60512,3.54,0.32938,-0.016602,-0.033508,-0.038785,0.03242,-0.072693,0.11067,1.7224,-0.012594,-0.10718
0.25574,-0.054994,0.064387,-0.021555,-0.039226,-0.042817,0.081851,-0.015642,-0.10209,-1.4839,0.59413,0.18,0.48411,3.1644,0.29675,0.059897,-0.035417,-0.036639,0.011978,-0.088528,0.10879,1.5476,0.0014415,-0.098757
0.27168,-0.056643,0.065778,-0.025643,-0.041076,-0.0388,0.07136,-0.020734,-0.13461,-1.3305,0.59402,0.20416,0.35716,2.6811,0.26957,0.17021,-0.036598,-0.034912,-0.0085847,-0.087603,0.12766,1.3586,0.011172,-0.0057581
0.2794,-0.055292,0.072688,-0.025533,-0.045631,-0.037038,0.065569,-0.021924,-0.14,-1.0659,0.60845,0.21628,0.21776,2.1058,0.23244,0.26047,-0.03595,-0.035121,-0.022157,-0.072292,0.14544,1.1961,0.012309,0.15506
0.27455,-0.052532,0.085502,-0.019526,-0.048474,-0.03749,0.065591,-0.02052,-0.13046,-0.75557,0.6327,0.21567,0.057614,1.4899,0.15938,0.27774,-0.033293,-0.036654,-0.025449,-0.050329,0.14629,1.0791,0.0045595,0.33586
0.25732,-0.049792,0.099632,-0.0098375,-0.044633,-0.038956,0.068056,-0.019799,-0.12707,-0.49588,0.65028,0.19392,-0.1241,0.89257,0.037634,0.1938,-0.029571,-0.037231,-0.022172,-0.030603,0.1264,0.99226,-0.0083852,0.47617
0.23225,-0.047658,0.10919,-0.0013628,-0.032851,-0.040101,0.068703,-0.021906,-0.14501,-0.37526,0.64487,0.14011,-0.31985,0.34822,-0.11529,0.016982,-0.025945,-0.034868,-0.020664,-0.01835,0.090081,0.89388,-0.022334,0.53178
0.20532,-0.045835,0.11131,0.0016858,-0.017352,-0.040133,0.06593,-0.025765,-0.18342,-0.42628,0.61135,0.050914,-0.51851,-0.14685,-0.25623,-0.21215,-0.022601,-0.029492,-0.027391,-0.012582,0.041196,0.74635,-0.036691,0.49587
0.18078,-0.043462,0.10768,-0.0012503,-0.0054201,-0.038888,0.061466,-0.027878,-0.22719,-0.6001,0.55794,-0.062917,-0.70912,-0.61493,-0.34097,-0.43743,-0.018419,-0.022854,-0.041665,-0.0075512,-0.021266,0.54802,-0.055147,0.40084
0.15959,-0.039493,0.10249,-0.0067804,-0.002416,-0.036579,0.058273,-0.025288,-0.25908,-0.78822,0.49884,-0.17989,-0.88013,-1.0602,-0.35104,-0.60739,-0.011924,-0.01696,-0.056254,0.0024558,-0.09945,0.33748,-0.081793,0.30146
0.14038,-0.033176,0.099052,-0.01016,-0.0079767,-0.033596,0.058131,-0.018094,-0.2721,-0.88436,0.44382,-0.27925,-1.0172,-1.4464,-0.3035,-0.68954,-0.0028173,-0.012532,-0.06359,0.018097,-0.18882,0.16208,-0.11592,0.24874
0.12172,-0.024635,0.098036,-0.0087529,-0.01625,-0.030495,0.060964,-0.0094027,-0.27249,-0.84666,0.39293,-0.35209,-1.1042,-1.7134,-0.23761,-0.67298,0.007227,-0.0087587,-0.062348,0.033414,-0.27471,0.034235,-0.15035,0.2665
0.10374,-0.015204,0.09824,-0.0037338,-0.019863,-0.027974,0.065745,-0.0029333,-0.27211,-0.7151,0.33902,-0.40371,-1.1296,-1.8234,-0.18934,-0.56119,0.015362,-0.0043068,-0.058683,0.03924,-0.33819,-0.085937,-0.17512,0.33993
0.087902,-0.0070155,0.098328,0.001125,-0.014553,-0.026564,0.071302,-0.00049708,-0.27739,-0.57188,0.27527,-0.44582,-1.0917,-1.8048,-0.1724,-0.36404,0.019546,0.0015137,-0.06107,0.029549,-0.36759,-0.26248,-0.18347,0.42149
0.075403,-0.0017974,0.097647,0.0024775,-0.001179,-0.026094,0.076013,-0.0013433,-0.28421,-0.47741,0.20131,-0.48489,-0.9998,-1.757,-0.17725,-0.097332,0.020215,0.0083756,-0.073272,0.0063632,-0.36665,-0.52876,-0.17514,0.45293
0.065556,0.0002969,0.095737,-0.00014471,0.015775,-0.025406,0.077292,-0.0034638,-0.28224,-0.43401,0.12399,-0.51572,-0.86826,-1.8075,-0.18507,0.20979,0.020243,0.015359,-0.091466,-0.020447,-0.35228,-0.84951,-0.15467,0.39427
0.055801,0.00074594,0.091832,-0.0042103,0.031393,-0.022883,0.072427,-0.0052652,-0.26392,-0.40353,0.053188,-0.52499,-0.70889,-2.0479,-0.18349,0.50967,0.023012,0.021484,-0.10767,-0.038634,-0.34343,-1.1318,-0.12717,0.24445
0.043492,0.0013359,0.0855,-0.00627,0.042623,-0.017717,0.060909,-0.0061353,-0.23031,-0.35702,-0.0038121,-0.50172,-0.52759,-2.4885,-0.17296,0.74418,0.030007,0.02589,-0.11604,-0.040817,-0.34922,-1.2789,-0.095733,0.040126
0.028129,0.0025306,0.077939,-0.0044883,0.048565,-0.010966,0.04616,-0.0059189,-0.18962,-0.30745,-0.045751,-0.44693,-0.32765,-3.0592,-0.16249,0.86622,0.039785,0.027876,-0.11637,-0.028774,-0.36491,-1.2481,-0.062147,-0.16821
0.012094,0.0031051,0.072214,0.00030526,0.049606,-0.0052592,0.034285,-0.0044471,-0.15105,-0.29472,-0.077499,-0.37544,-0.11652,-3.649,-0.16209,0.86066,0.049112,0.027214,-0.11243,-0.012077,-0.37723,-1.0718,-0.028732,-0.34768
-0.0010471,0.0015583,0.071434,0.0056759,0.04678,-0.0029943,0.029871,-0.0018772,-0.11967,-0.3397,-0.10755,-0.30857,0.089989,-4.1569,-0.1795,0.74737,0.055301,0.024606,-0.10751,-0.0022105,-0.37364,-0.8307,0.0020154,-0.49905
-0.0096926,-0.0019373,0.075956,0.0096828,0.041684,-0.0043447,0.032009,0.0006947,-0.095987,-0.41334,-0.14408,-0.26261,0.26963,-4.5233,-0.22185,0.56224,0.057834,0.021664,-0.10187,-0.00614,-0.34844,-0.60426,0.029998,-0.64473
-0.016322,-0.0050028,0.08211,0.012202,0.036155,-0.0069091,0.034285,0.0014931,-0.078705,-0.45262,-0.19076,-0.2403,0.4008,-4.7356,-0.2969,0.33087,0.05811,0.020048,-0.094099,-0.023357,-0.30289,-0.43431,0.059014,-0.79785
-0.026661,-0.0047003,0.084031,0.014443,0.031262,-0.0075443,0.029496,-0.00054102,-0.066911,-0.40967,-0.24363,-0.23012,0.47052,-4.8158,-0.40929,0.057061,0.057842,0.020353,-0.084238,-0.047761,-0.24203,-0.32241,0.094195,-0.93864
-0.046148,-5.5147e-005,0.077618,0.017273,0.026378,-0.0049036,0.015598,-0.0044098,-0.059447,-0.28897,-0.29163,-0.21363,0.47952,-4.8034,-0.55298,-0.26433,0.057657,0.021836,-0.074864,-0.072414,-0.17254,-0.2523,0.13658,-1.0198
-0.076156,0.0068033,0.063609,0.020043,0.01967,-0.00038795,-0.0021706,-0.007326,-0.053069,-0.1394,-0.32177,-0.17606,0.44253,-4.7334,-0.70574,-0.62196,0.057033,0.023348,-0.068949,-0.093525,-0.10294,-0.21223,0.1798,-0.99919
-0.11268,0.011977,0.047177,0.021118,0.010102,0.0033981,-0.015067,-0.0067898,-0.042332,-0.010729,-0.32726,-0.11403,0.38365,-4.6089,-0.83089,-0.97379,0.055299,0.02454,-0.066882,-0.11111,-0.04377,-0.19914,0.21286,-0.873
-0.14831,0.012533,0.034195,0.019666,-0.00075948,0.0052189,-0.017551,-0.0028067,-0.022227,0.08368,-0.31329,-0.036236,0.3276,-4.3792,-0.88655,-1.2588,0.052537,0.025989,-0.066008,-0.12659,-0.0047672,-0.20738,0.22766,-0.68258
-0.17596,0.0084163,0.026995,0.016905,-0.0091468,0.0063253,-0.01131,0.0018701,0.0085297,0.16503,-0.29567,0.042478,0.28927,-3.9473,-0.83904,-1.4273,0.049581,0.027999,-0.063321,-0.13995,0.010199,-0.21922,0.22525,-0.48727
-0.19174,0.0021826,0.022975,0.01542,-0.011821,0.0090549,-0.0033695,0.0039591,0.046638,0.25428,-0.2921,0.10885,0.26699,-3.2236,-0.67628,-1.468,0.047384,0.029452,-0.058619,-0.14897,0.006524,-0.21027,0.21533,-0.32692
-0.19554,-0.0029106,0.017101,0.016943,-0.0088752,0.014343,-0.00023306,0.0024977,0.086747,0.34182,-0.31159,0.15548,0.24476,-2.2063,-0.41742,-1.4107,0.046585,0.028324,-0.054854,-0.15102,-0.0032524,-0.16622,0.20911,-0.20457
-0.18993,-0.0048242,0.0062944,0.020656,-0.0039331,0.020642,-0.0033097,-0.00027462,0.12541,0.39229,-0.3493,0.17969,0.20452,-1.0314,-0.11393,-1.3053,0.047666,0.02379,-0.055313,-0.14559,-0.0065836,-0.095038,0.2114,-0.10113
-0.17854,-0.0034772,-0.0078394,0.023812,-0.0012703,0.025311,-0.0092638,-0.00089723,0.16344,0.37956,-0.39015,0.18008,0.14103,0.059866,0.16304,-1.1925,0.051201,0.017884,-0.060405,-0.1354,0.0018387,-0.022027,0.21838,-0.0047262
-0.16527,-0.00030919,-0.020107,0.024359,-0.0022273,0.027078,-0.014176,0.002209,0.20502,0.31679,-0.41756,0.15598,0.067771,0.83707,0.34877,-1.0858,0.057511,0.014629,-0.067226,-0.12511,0.018069,0.028384,0.22225,0.074753
-0.15375,0.0026554,-0.025741,0.023204,-0.0040286,0.027153,-0.017111,0.0073322,0.25475,0.25185,-0.42092,0.11158,0.0079169,1.2084,0.4143,-0.97392,0.065801,0.016897,-0.072215,-0.11904,0.033369,0.048414,0.21848,0.11915
-0.1468,0.0037176,-0.024117,0.023785,-0.0020763,0.027952,-0.019901,0.010976,0.31475,0.23151,-0.39763,0.060844,-0.023275,1.2682,0.38099,-0.83674,0.073752,0.023707,-0.074208,-0.11936,0.041285,0.047275,0.20971,0.1281
-0.14571,0.0022059,-0.019227,0.02897,0.0061741,0.030739,-0.024074,0.010771,0.38347,0.26707,-0.35078,0.026614,-0.029668,1.2234,0.3078,-0.66263,0.078445,0.030697,-0.074914,-0.1257,0.041825,0.038351,0.2035,0.12924
-0.15002,-0.0012244,-0.01666,0.037936,0.018896,0.034474,-0.028608,0.0070966,0.45653,0.33174,-0.28629,0.031277,-0.028695,1.2515,0.25643,-0.45677,0.07827,0.033638,-0.076517,-0.13584,0.040185,0.027657,0.2068,0.15911
-0.15815,-0.0049908,-0.019627,0.046031,0.030888,0.036856,-0.030867,0.0021787,0.52849,0.38977,-0.21165,0.083963,-0.033829,1.3956,0.25698,-0.2395,0.074265,0.031938,-0.078957,-0.14662,0.042298,0.015285,0.22161,0.23021
-0.16846,-0.0076215,-0.027176,0.04815,0.037046,0.036491,-0.029456,-0.002032,0.59433,0.42866,-0.13522,0.17381,-0.041845,1.5734,0.2977,-0.038202,0.069508,0.028886,-0.079734,-0.15479,0.051672,0.0068954,0.24458,0.31482
-0.17988,-0.008715,-0.035744,0.042962,0.035815,0.034122,-0.025685,-0.0049258,0.65013,0.46528,-0.064515,0.27532,-0.038186,1.6777,0.34376,0.12261,0.066791,0.028408,-0.076475,-0.15777,0.069971,0.020882,0.2697,0.36272
-0.19163,-0.0089668,-0.042287,0.034321,0.030428,0.031907,-0.022022,-0.0064638,0.6928,0.52291,-0.0042798,0.36271,-0.016862,1.6752,0.36755,0.22993,0.066502,0.031372,-0.069739,-0.15455,0.099652,0.080489,0.29128,0.34004
-0.20278,-0.0091997,-0.046161,0.028409,0.027393,0.031595,-0.019277,-0.0059537,0.71932,0.60307,0.043293,0.42316,0.0038115,1.6197,0.36503,0.28665,0.066654,0.034867,-0.063158,-0.14611,0.14498,0.19574,0.3054,0.25708
-0.21234,-0.0093667,-0.048455,0.028804,0.033258,0.033292,-0.015661,-0.0021898,0.72658,0.67921,0.075517,0.45998,-0.013236,1.5812,0.34778,0.30856,0.06519,0.035057,-0.060542,-0.13508,0.20962,0.35192,0.30996,0.16195
-0.22005,-0.0085922,-0.050014,0.033526,0.051467,0.035792,-0.0088416,0.004962,0.71211,0.71705,0.086576,0.48496,-0.097709,1.5698,0.3227,0.31367,0.062452,0.030833,-0.062499,-0.12457,0.29284,0.51706,0.30449,0.10617
-0.22676,-0.0062667,-0.050458,0.036568,0.08082,0.037891,0.0010786,0.013342,0.67551,0.70131,0.069582,0.50756,-0.24476,1.5295,0.28117,0.30911,0.061343,0.024886,-0.065636,-0.11676,0.38801,0.66405,0.28988,0.1109
-0.23368,-0.0030701,-0.04908,0.032731,0.11611,0.039347,0.010726,0.019329,0.61951,0.64425,0.023705,0.52967,-0.40903,1.4078,0.20812,0.28511,0.064705,0.021312,-0.065092,-0.11202,0.48502,0.78915,0.2676,0.16035
-0.24073,-0.00082354,-0.046329,0.021922,0.15037,0.040694,0.015708,0.020361,0.5496,0.5703,-0.039083,0.54862,-0.52633,1.2274,0.10065,0.22237,0.072109,0.022077,-0.058103,-0.10899,0.57401,0.91123,0.23812,0.22408
-0.24565,-0.0012487,-0.04392,0.0095473,0.17742,0.042341,0.013926,0.016947,0.47217,0.4937,-0.094852,0.56364,-0.54834,1.0858,-0.023276,0.10919,0.079186,0.02555,-0.045543,-0.10549,0.64703,1.0523,0.19971,0.28611
-0.24506,-0.0047882,-0.04323,0.0027675,0.19341,0.043961,0.007072,0.012341,0.39248,0.41126,-0.11823,0.57854,-0.46668,1.0813,-0.13548,-0.04501,0.080573,0.028251,-0.030416,-0.099826,0.69641,1.215,0.14921,0.35521
-0.23718,-0.010495,-0.043667,0.0055511,0.1969,0.04475,-0.0007015,0.010154,0.31385,0.31574,-0.096469,0.59809,-0.31222,1.2301,-0.2174,-0.21183,0.074292,0.027995,-0.015158,-0.091768,0.71317,1.3737,0.085333,0.4502
-0.22393,-0.01687,-0.04295,0.01612,0.18825,0.044138,-0.005464,0.011959,0.23861,0.2142,-0.036994,0.62184,-0.13385,1.4522,-0.27034,-0.36106,0.063791,0.025565,-0.00043887,-0.082671,0.68919,1.4844,0.012592,0.57594
-0.21045,-0.02267,-0.039272,0.028374,0.16906,0.042148,-0.0053762,0.01671,0.16958,0.13089,0.037625,0.64188,0.026204,1.6347,-0.3065,-0.47816,0.055664,0.02361,0.013733,-0.074577,0.6233,1.5049,-0.057391,0.71314
-0.2018,-0.027011,-0.033276,0.03596,0.14213,0.039098,-0.00085665,0.022022,0.11037,0.089467,0.10392,0.64741,0.14525,1.714,-0.33007,-0.56542,0.054727,0.024026,0.026299,-0.068762,0.5261,1.4136,-0.10945,0.83097
-0.19908,-0.029035,-0.027745,0.036067,0.11144,0.035094,0.006264,0.025945,0.063971,0.090006,0.15084,0.6332,0.21813,1.7051,-0.32697,-0.62485,0.060488,0.026277,0.035117,-0.064655,0.41825,1.2182,-0.13221,0.91077
-0.19801,-0.027917,-0.025102,0.030631,0.081316,0.029998,0.013615,0.02788,0.030581,0.10231,0.18292,0.60535,0.24831,1.6597,-0.27423,-0.63984,0.067879,0.028015,0.038912,-0.059871,0.32141,0.95312,-0.12486,0.95923
-0.19114,-0.023466,-0.025069,0.024533,0.055058,0.023974,0.01897,0.028398,0.006939,0.083248,0.2122,0.57954,0.24223,1.6046,-0.16181,-0.57784,0.071478,0.027241,0.039197,-0.051361,0.24774,0.66473,-0.098467,0.9989
-0.17256,-0.016748,-0.024822,0.022191,0.033822,0.018022,0.021006,0.02855,-0.01176,0.0052784,0.24639,0.57235,0.21039,1.5181,-0.0079329,-0.41884,0.069586,0.024037,0.039865,-0.036894,0.19527,0.39054,-0.070048,1.0435
-0.1418,-0.0098892,-0.021649,0.0246,0.016614,0.0138,0.019964,0.029241,-0.028209,-0.12564,0.28269,0.59092,0.17067,1.3652,0.14581,-0.18786,0.0649,0.020509,0.044347,-0.015944,0.15214,0.13957,-0.052764,1.0795
-0.10443,-0.0049882,-0.015717,0.028505,0.0014915,0.012685,0.017494,0.030799,-0.040181,-0.27489,0.31162,0.62794,0.14716,1.1489,0.25749,0.041565,0.061625,0.019182,0.052768,0.010335,0.10577,-0.11269,-0.048865,1.0701
-0.068818,-0.0028645,-0.010318,0.028209,-0.012913,0.014741,0.015358,0.03274,-0.041089,-0.401,0.32647,0.66509,0.16212,0.92591,0.30914,0.18616,0.061884,0.021211,0.061757,0.039595,0.049916,-0.40775,-0.050552,0.9814
-0.041479,-0.0026345,-0.0092589,0.019147,-0.026605,0.018465,0.013925,0.033939,-0.024434,-0.47786,0.32965,0.68307,0.22519,0.76938,0.31511,0.21066,0.064457,0.025705,0.067242,0.068695,-0.014697,-0.77321,-0.048273,0.80996
-0.02354,-0.0024164,-0.013609,0.0012247,-0.038567,0.021561,0.011919,0.033391,0.010146,-0.50389,0.33046,0.67176,0.32719,0.71565,0.30921,0.15837,0.066499,0.03042,0.067799,0.094032,-0.084637,-1.1979,-0.040061,0.59002
-0.01042,-0.00060211,-0.020573,-0.02024,-0.047798,0.022234,0.0079384,0.031206,0.053391,-0.49634,0.33637,0.63414,0.44285,0.742,0.32085,0.12453,0.066196,0.033205,0.065578,0.11235,-0.15828,-1.6316,-0.034366,0.37465
0.0054288,0.0032292,-0.025347,-0.036957,-0.054194,0.020119,0.0024281,0.029005,0.088932,-0.47826,0.34595,0.58201,0.54154,0.79309,0.35716,0.18771,0.063867,0.033241,0.064015,0.12231,-0.23694,-2.0095,-0.043746,0.20458
0.0303,0.0083069,-0.024338,-0.042311,-0.058646,0.016273,-0.0018987,0.029068,0.10176,-0.46669,0.34967,0.52712,0.60014,0.82787,0.40242,0.35124,0.060917,0.031431,0.064448,0.12591,-0.32259,-2.2813,-0.074109,0.088917
0.065782,0.013413,-0.017245,-0.0353,-0.06235,0.01236,-0.0019083,0.032619,0.087976,-0.46713,0.33788,0.47434,0.61181,0.84416,0.43293,0.54159,0.058183,0.0298,0.064717,0.12844,-0.41478,-2.4208,-0.118,0.011574
0.10794,0.017742,-0.0067816,-0.02096,-0.065893,0.0096984,0.0032709,0.038539,0.058865,-0.47547,0.30867,0.42107,0.58629,0.86325,0.43481,0.6649,0.055504,0.030239,0.06098,0.13593,-0.50901,-2.4134,-0.1575,-0.043203
0.14959,0.021305,0.0032257,-0.0067309,-0.068865,0.0088275,0.011128,0.043731,0.034742,-0.48543,0.26848,0.36202,0.54205,0.89463,0.41188,0.67514,0.052711,0.033239,0.051136,0.15146,-0.59717,-2.2407,-0.17493,-0.068382
0.18439,0.024716,0.0097606,0.0027674,-0.070324,0.0097465,0.017354,0.04509,0.031153,-0.4977,0.22534,0.2943,0.49415,0.91681,0.3791,0.59923,0.050499,0.037346,0.036861,0.173,-0.66931,-1.8881,-0.16396,-0.034309
0.21008,0.028647,0.011605,0.008651,-0.069771,0.012415,0.018923,0.041709,0.046556,-0.52458,0.1814,0.21885,0.4444,0.89121,0.34865,0.50311,0.049865,0.039788,0.022554,0.19473,-0.71607,-1.3757,-0.13368,0.086433
0.22884,0.033339,0.0094833,0.016052,-0.067782,0.016895,0.016131,0.035586,0.061431,-0.58539,0.13203,0.13816,0.37991,0.79404,0.32007,0.43302,0.050606,0.03811,0.012172,0.21134,-0.73086,-0.78451,-0.10313,0.28701
0.24458,0.038459,0.0057602,0.029024,-0.065661,0.022916,0.011945,0.030238,0.051377,-0.69376,0.072109,0.053909,0.28213,0.63575,0.28178,0.38486,0.050806,0.031887,0.0066128,0.22205,-0.71105,-0.24077,-0.090211,0.51183
0.25978,0.043311,0.0036463,0.046188,-0.064331,0.029313,0.009291,0.028231,0.0058468,-0.84434,0.0032938,-0.032238,0.14231,0.45119,0.22191,0.325,0.048412,0.023359,0.0037188,0.23083,-0.65774,0.14436,-0.10145,0.67391
0.27412,0.047226,0.0057406,0.06087,-0.06343,0.03408,0.0086033,0.02951,-0.061644,-1.0085,-0.065107,-0.11539,-0.026007,0.27044,0.1395,0.2382,0.043663,0.016311,0.00072302,0.24269,-0.57435,0.34202,-0.1285,0.69671
0.28581,0.049899,0.012349,0.065895,-0.061565,0.035339,0.0076943,0.031741,-0.12089,-1.1427,-0.12267,-0.18548,-0.18676,0.096155,0.047771,0.15485,0.039705,0.013772,-0.0029738,0.25885,-0.46531,0.42467,-0.15315,0.55512
0.29342,0.051507,0.020758,0.059271,-0.057642,0.032661,0.0039674,0.032305,-0.14563,-1.2052,-0.1656,-0.22999,-0.29593,-0.093617,-0.032077,0.13138,0.040094,0.016092,-0.0049489,0.27519,-0.33574,0.5144,-0.15804,0.28783
0.29622,0.052551,0.02639,0.045983,-0.052142,0.027601,-0.0029606,0.030273,-0.13214,-1.171,-0.19866,-0.24083,-0.32369,-0.32042,-0.08131,0.20161,0.045079,0.020837,-0.0014647,0.28554,-0.19187,0.69412,-0.13702,-0.028452
0.29261,0.053527,0.025402,0.034181,-0.047039,0.022851,-0.010489,0.026793,-0.10103,-1.0392,-0.23,-0.22078,-0.27062,-0.57818,-0.090838,0.34394,0.050287,0.024631,0.0096178,0.28704,-0.040916,0.94666,-0.098695,-0.32637
0.27923,0.054597,0.01702,0.028697,-0.044247,0.0205,-0.014788,0.023722,-0.080945,-0.82989,-0.26454,-0.18461,-0.16702,-0.82447,-0.061636,0.49374,0.049707,0.025531,0.026916,0.28299,0.10983,1.1658,-0.060806,-0.58392
0.25257,0.055429,0.0039783,0.027251,-0.043871,0.020748,-0.013666,0.021816,-0.087306,-0.57465,-0.30215,-0.15347,-0.055596,-0.99668,-0.00074703,0.59008,0.040858,0.024098,0.045936,0.28047,0.25375,1.2272,-0.038795,-0.82424
0.21243,0.055296,-0.0091885,0.022584,-0.043954,0.022142,-0.0082786,0.020177,-0.11328,-0.30576,-0.34151,-0.14564,0.03133,-1.043,0.081766,0.61613,0.027556,0.022423,0.061375,0.28431,0.38404,1.0654,-0.036658,-1.0815
0.16391,0.053401,-0.018713,0.0088787,-0.042139,0.023083,-0.0024352,0.017441,-0.13939,-0.047592,-0.38457,-0.16925,0.084818,-0.94974,0.1719,0.60035,0.017409,0.022077,0.069617,0.29266,0.49196,0.70592,-0.04659,-1.361
0.11532,0.049314,-0.023361,-0.012874,-0.037877,0.023258,-0.00018109,0.013525,-0.15215,0.18542,-0.43658,-0.22078,0.11542,-0.75064,0.24926,0.58165,0.015807,0.0228,0.069793,0.29782,0.56681,0.24303,-0.057298,-1.6238
0.073153,0.043322,-0.024518,-0.034999,-0.033155,0.023648,-0.003432,0.01016,-0.15516,0.38404,-0.50101,-0.28893,0.13805,-0.51505,0.28886,0.57272,0.021479,0.022959,0.063093,0.292,0.6,-0.2091,-0.063893,-1.8058
0.038137,0.036505,-0.024873,-0.048583,-0.030938,0.025118,-0.011081,0.0095485,-0.16339,0.53693,-0.57398,-0.36057,0.15927,-0.3248,0.27022,0.55419,0.027497,0.021188,0.051288,0.27327,0.59165,-0.55729,-0.071094,-1.8522
0.0059066,0.030461,-0.026641,-0.049629,-0.032647,0.026944,-0.019744,0.012343,-0.18736,0.62845,-0.64271,-0.42518,0.17671,-0.25253,0.18981,0.50183,0.026847,0.01761,0.035757,0.24691,0.55452,-0.7484,-0.087411,-1.7416
-0.028288,0.026772,-0.030275,-0.040986,-0.036938,0.026879,-0.025422,0.016876,-0.2225,0.64625,-0.68913,-0.47649,0.18899,-0.34886,0.067256,0.41848,0.017749,0.013561,0.017604,0.221,0.5098,-0.77299,-0.1159,-1.4888
-0.065075,0.026437,-0.03428,-0.028999,-0.040848,0.022993,-0.025276,0.020413,-0.25364,0.59386,-0.69635,-0.51197,0.20523,-0.63545,-0.061806,0.33939,0.0043674,0.010226,-0.0015818,0.20021,0.47541,-0.66249,-0.14997,-1.135
-0.10058,0.02945,-0.036267,-0.018358,-0.042232,0.015736,-0.018974,0.021247,-0.27013,0.49637,-0.65499,-0.53165,0.2443,-1.0967,-0.16401,0.30564,-0.0071976,0.0076112,-0.019234,0.18276,0.45372,-0.47895,-0.17786,-0.74168
-0.13013,0.034615,-0.034734,-0.0097431,-0.041224,0.0082431,-0.0090665,0.019661,-0.2771,0.39042,-0.56726,-0.53656,0.32394,-1.6694,-0.22563,0.33024,-0.013724,0.0048783,-0.032163,0.16317,0.42856,-0.29264,-0.19156,-0.38758
-0.15226,0.039634,-0.030503,-0.0017548,-0.039589,0.0042476,9.9215e-005,0.017042,-0.29204,0.30334,-0.4474,-0.52702,0.44877,-2.2419,-0.25612,0.38765,-0.016403,0.0016307,-0.037575,0.13792,0.37551,-0.15254,-0.19194,-0.15762
-0.16914,0.041614,-0.026674,0.0054784,-0.038854,0.0051886,0.0047849,0.014299,-0.32964,0.23829,-0.31737,-0.50189,0.60638,-2.6751,-0.27477,0.43593,-0.01846,-0.0012747,-0.034047,0.10931,0.27983,-0.066067,-0.18584,-0.11456
-0.18344,0.038134,-0.026747,0.0089477,-0.039162,0.0089715,0.0042724,0.011401,-0.38822,0.17975,-0.19823,-0.45973,0.77302,-2.8475,-0.29086,0.45109,-0.021736,-0.0023634,-0.021852,0.084109,0.14954,-0.0033898,-0.17821,-0.26725
-0.19497,0.028695,-0.031967,0.0050586,-0.039774,0.011559,0.0014247,0.0083867,-0.4497,0.11615,-0.1017,-0.40201,0.92304,-2.705,-0.29379,0.4435,-0.025464,-0.0011108,-0.0026165,0.068376,0.013971,0.075147,-0.1668,-0.56157
-0.20081,0.015778,-0.039848,-0.0067156,-0.040356,0.0101,0.00060777,0.006462,-0.49256,0.059503,-0.02754,-0.33586,1.0353,-2.2864,-0.26206,0.44311,-0.027841,0.0011289,0.021153,0.062726,-0.0916,0.18791,-0.14403,-0.90714
-0.19882,0.0044431,-0.045318,-0.022395,-0.041477,0.0049288,0.0043261,0.0075266,-0.50618,0.042183,0.030794,-0.27347,1.0954,-1.7075,-0.18459,0.4685,-0.028298,0.0019067,0.046185,0.061869,-0.14455,0.31902,-0.10398,-1.223
-0.19104,4.6484e-005,-0.044032,-0.035709,-0.043793,-0.0011739,0.011229,0.012255,-0.49469,0.090918,0.076436,-0.2273,1.0971,-1.1102,-0.076458,0.50764,-0.028129,-0.00036556,0.068357,0.058511,-0.14423,0.43075,-0.048086,-1.4685
-0.18332,0.0051008,-0.035525,-0.042082,-0.046916,-0.0056157,0.01716,0.018671,-0.46857,0.20038,0.10403,-0.20386,1.0449,-0.60308,0.025518,0.52719,-0.029199,-0.0049996,0.083231,0.048371,-0.10751,0.48899,0.014958,-1.6394
-0.18117,0.017451,-0.023682,-0.041119,-0.049297,-0.0079918,0.018381,0.023034,-0.43332,0.33168,0.10429,-0.20023,0.9557,-0.22577,0.086079,0.50135,-0.032312,-0.009439,0.087813,0.032529,-0.056249,0.48198,0.074079,-1.7414
-0.18553,0.03141,-0.013898,-0.035876,-0.049357,-0.0097007,0.014266,0.022683,-0.38602,0.44045,0.074523,-0.20528,0.85505,0.04643,0.09608,0.43523,-0.036843,-0.011148,0.082855,0.015814,-0.0068634,0.42077,0.12082,-1.7725
-0.1922,0.041354,-0.0089676,-0.02999,-0.046786,-0.011806,0.0074307,0.018391,-0.32233,0.51209,0.025211,-0.20373,0.76579,0.26304,0.07786,0.36307,-0.04164,-0.0093729,0.073821,0.0030169,0.032183,0.32582,0.15076,-1.7299
-0.19549,0.04514,-0.0069414,-0.025202,-0.042788,-0.013482,0.0015158,0.013952,-0.24624,0.57394,-0.024364,-0.17965,0.69647,0.44769,0.065323,0.32277,-0.046003,-0.0053955,0.068897,-0.0040775,0.057101,0.21315,0.16203,-1.6306
-0.19279,0.044651,-0.0028154,-0.020993,-0.039104,-0.012739,-0.0012931,0.013136,-0.17254,0.67285,-0.058749,-0.11812,0.63706,0.56816,0.073451,0.32688,-0.049775,-0.0013094,0.074557,-0.0070804,0.065698,0.090268,0.15416,-1.5187
-0.18607,0.043182,0.0071612,-0.016086,-0.036769,-0.0087307,-0.0012132,0.016572,-0.11901,0.83641,-0.076632,-0.0073766,0.56657,0.55008,0.082004,0.35182,-0.052719,0.0014875,0.091556,-0.0093579,0.057881,-0.038546,0.12925,-1.4472
-0.17943,0.042142,0.021976,-0.010265,-0.035699,-0.0032245,-7.9534e-005,0.021258,-0.094732,1.05,-0.089991,0.15624,0.46761,0.3323,0.04824,0.35223,-0.054074,0.0029164,0.11454,-0.014242,0.037738,-0.1654,0.093844,-1.4507
-0.17521,0.040145,0.03607,-0.0050168,-0.035308,0.00048496,0.00010733,0.023103,-0.094713,1.2679,-0.11301,0.36164,0.33787,-0.068164,-0.059429,0.28956,-0.052877,0.0037771,0.13587,-0.024452,0.013159,-0.27712,0.058393,-1.532
-0.17232,0.035194,0.043254,-0.0026189,-0.035404,0.00040488,-0.0017117,0.020282,-0.10495,1.4467,-0.15056,0.58014,0.19094,-0.5277,-0.2323,0.15512,-0.048785,0.0049316,0.1508,-0.042488,-0.0080682,-0.35863,0.033059,-1.6726
-0.16777,0.027602,0.041299,-0.004346,-0.03651,-0.0023103,-0.0051903,0.014549,-0.113,1.5729,-0.19591,0.77206,0.047346,-0.85298,-0.41957,-0.025823,-0.042674,0.0068232,0.1598,-0.07064,-0.022424,-0.39671,0.022587,-1.8525
-0.15978,0.020546,0.033535,-0.0090212,-0.039375,-0.0044585,-0.008689,0.0095421,-0.11486,1.6618,-0.23838,0.90237,-0.076373,-0.86918,-0.55584,-0.20907,-0.03648,0.0094685,0.16629,-0.10973,-0.031045,-0.38142,0.024492,-2.0567
-0.14912,0.017461,0.0262,-0.01305,-0.044222,-0.0039738,-0.010022,0.0077342,-0.11322,1.7334,-0.2727,0.95735,-0.17312,-0.50691,-0.59797,-0.35445,-0.032302,0.012622,0.17196,-0.15721,-0.03595,-0.30696,0.032327,-2.2654
-0.13798,0.018702,0.023694,-0.012302,-0.050418,-0.0021532,-0.0078062,0.0087149,-0.11031,1.7865,-0.30105,0.95156,-0.24409,0.16821,-0.5455,-0.4428,-0.031233,0.015854,0.17408,-0.2065,-0.036043,-0.1758,0.041394,-2.4446
-0.12775,0.020817,0.025527,-0.0049352,-0.056768,-0.0025986,-0.0027831,0.0101,-0.10307,1.7945,-0.32632,0.91918,-0.29545,1.0011,-0.43348,-0.47924,-0.03258,0.018579,0.16734,-0.24882,-0.027246,-0.005204,0.052007,-2.5529
-0.118,0.019371,0.027371,0.0067558,-0.062034,-0.0076385,0.0019836,0.0099743,-0.085201,1.7232,-0.34424,0.89445,-0.33691,1.8346,-0.30678,-0.48416,-0.034043,0.020168,0.14857,-0.27704,-0.0070767,0.17051,0.067548,-2.5633
-0.10746,0.012896,0.025178,0.017229,-0.065192,-0.015538,0.002592,0.0085159,-0.053676,1.5558,-0.34334,0.89328,-0.38073,2.5792,-0.19624,-0.47981,-0.032995,0.020153,0.12009,-0.28902,0.020637,0.30911,0.089288,-2.4807
-0.095549,0.0043336,0.018903,0.021237,-0.06542,-0.021283,-0.0032698,0.0074589,-0.013075,1.3048,-0.31409,0.9072,-0.4367,3.2254,-0.11061,-0.48059,-0.028299,0.018393,0.088697,-0.288,0.045857,0.37994,0.11294,-2.3386
-0.082765,-0.0014143,0.012731,0.017688,-0.0622,-0.020491,-0.014615,0.0081559,0.026215,1.0066,-0.25963,0.91233,-0.5029,3.8009,-0.04358,-0.49058,-0.021482,0.015105,0.061167,-0.27972,0.0581,0.38222,0.13039,-2.1747
-0.069739,-0.0017192,0.011697,0.010754,-0.055832,-0.013094,-0.027428,0.010245,0.054228,0.70472,-0.19788,0.88558,-0.55936,4.3146,0.01461,-0.50602,-0.016214,0.01079,0.040079,-0.26844,0.053545,0.34765,0.13527,-2.0065
-0.056257,0.001507,0.017565,0.0069944,-0.04801,-0.0035084,-0.03679,0.012115,0.066701,0.43482,-0.1517,0.81735,-0.57466,4.7286,0.070294,-0.51847,-0.016131,0.0061192,0.02324,-0.25496,0.037641,0.32171,0.12769,-1.8242
-0.041485,0.0034797,0.027425,0.010479,-0.041619,0.0028944,-0.039554,0.012495,0.065681,0.21683,-0.13411,0.71378,-0.52611,4.9755,0.12548,-0.51577,-0.022293,0.0018113,0.0065183,-0.23784,0.020936,0.33426,0.11386,-1.6033
-0.025129,0.00063862,0.036068,0.019726,-0.039343,0.0040009,-0.036047,0.01145,0.056129,0.05363,-0.14021,0.59023,-0.42112,5.003,0.17892,-0.48238,-0.032141,-0.0015282,-0.012896,-0.21657,0.011403,0.37971,0.10074,-1.3266
-0.0080682,-0.0064047,0.04001,0.028958,-0.04176,0.0023326,-0.029934,0.0098821,0.042031,-0.06678,-0.15198,0.46232,-0.30123,4.8104,0.22621,-0.40264,-0.040849,-0.0035565,-0.035597,-0.19334,0.0093025,0.42152,0.090348,-1.0011
0.0083603,-0.013525,0.039679,0.032709,-0.046515,0.0025907,-0.02624,0.0082799,0.024715,-0.16548,-0.15174,0.34008,-0.22113,4.4537,0.25999,-0.26864,-0.044271,-0.0042713,-0.061488,-0.17187,0.0083505,0.41843,0.078096,-0.66132
0.023649,-0.016607,0.038026,0.030008,-0.049648,0.0076023,-0.028391,0.006256,0.0035338,-0.26217,-0.13364,0.22665,-0.21479,4.015,0.27241,-0.089184,-0.041458,-0.0039829,-0.091405,-0.15414,0.0017363,0.35291,0.056502,-0.35693
0.038406,-0.014779,0.037084,0.024819,-0.048451,0.016056,-0.035873,0.0034111,-0.022463,-0.36254,-0.10491,0.11947,-0.27346,3.5598,0.2592,0.10686,-0.035046,-0.0032172,-0.12671,-0.13834,-0.012142,0.24136,0.021146,-0.1285
0.053141,-0.010668,0.035797,0.022532,-0.043688,0.023701,-0.044218,0.00049286,-0.052995,-0.45108,-0.077893,0.012762,-0.3521,3.1079,0.22209,0.27852,-0.02935,-0.0025786,-0.16713,-0.12018,-0.02867,0.11962,-0.0256,0.017542
0.066849,-0.0077286,0.031218,0.025533,-0.039167,0.026755,-0.047902,-0.00066664,-0.085569,-0.49642,-0.061018,-0.098798,-0.39903,2.6379,0.16747,0.39059,-0.027592,-0.0025617,-0.20913,-0.096873,-0.041064,0.016593,-0.075272,0.11946
0.077148,-0.0072169,0.021944,0.031476,-0.038727,0.024643,-0.044515,0.0012895,-0.11545,-0.46855,-0.055929,-0.2151,-0.38541,2.1194,0.10354,0.43208,-0.030078,-0.0033172,-0.24689,-0.070615,-0.045908,-0.063816,-0.11723,0.24393
0.082206,-0.0074689,0.010421,0.035422,-0.043027,0.020014,-0.03704,0.005608,-0.13714,-0.35782,-0.061351,-0.32681,-0.31371,1.5505,0.039239,0.42328,-0.034322,-0.0044798,-0.27547,-0.04816,-0.046007,-0.14065,-0.14287,0.44787
0.082628,-0.0058624,0.0017043,0.033871,-0.04888,0.016368,-0.031965,0.0094793,-0.14712,-0.18297,-0.077593,-0.41691,-0.20376,0.97561,-0.013934,0.40495,-0.036764,-0.0052321,-0.29381,-0.036425,-0.048926,-0.23912,-0.14837,0.74247
0.08126,-0.0014661,-0.00051812,0.027363,-0.051831,0.0155,-0.034288,0.010049,-0.14622,0.017264,-0.10592,-0.46898,-0.073298,0.47016,-0.041414,0.41426,-0.034902,-0.0046653,-0.30489,-0.037282,-0.062796,-0.3747,-0.1358,1.0865
0.080789,0.0040182,0.0028546,0.019804,-0.049833,0.016806,-0.043355,0.0067192,-0.13947,0.20237,-0.14304,-0.4783,0.069383,0.10212,-0.030499,0.46216,-0.028686,-0.002271,-0.31285,-0.045671,-0.092211,-0.54961,-0.11338,1.4152
0.081326,0.0076445,0.0068587,0.015394,-0.044847,0.018686,-0.053206,0.0016515,-0.13305,0.34524,-0.17669,-0.45749,0.21888,-0.10575,0.020299,0.52659,-0.020496,0.0017403,-0.31883,-0.052661,-0.13606,-0.76006,-0.094436,1.6827
0.080343,0.0074725,0.0064553,0.015733,-0.040935,0.0204,-0.05729,-0.0020291,-0.13049,0.43559,-0.18834,-0.4308,0.36446,-0.19129,0.09503,0.56694,-0.013819,0.006486,-0.31856,-0.05114,-0.18752,-1.0023,-0.09364,1.8823
0.075107,0.0037163,0.00058753,0.019117,-0.040513,0.022547,-0.053587,-0.0027006,-0.13094,0.47354,-0.16299,-0.41966,0.49176,-0.23838,0.16484,0.55085,-0.011281,0.010766,-0.30326,-0.039811,-0.23567,-1.2681,-0.12065,2.0301
0.065349,-0.0018554,-0.0071973,0.022079,-0.042066,0.025851,-0.045771,-0.0011626,-0.13088,0.46294,-0.099355,-0.42978,0.59179,-0.34253,0.20309,0.47638,-0.013124,0.013506,-0.26377,-0.022665,-0.26846,-1.5328,-0.17364,2.1307
0.053737,-0.0072869,-0.012017,0.021677,-0.041372,0.029666,-0.039654,0.00068206,-0.12732,0.41119,-0.012937,-0.45004,0.66495,-0.57482,0.20111,0.375,-0.01707,0.014105,-0.19562,-0.0048246,-0.27671,-1.7483,-0.23701,2.1587
0.043905,-0.011231,-0.011848,0.016949,-0.035261,0.031941,-0.038242,0.0019218,-0.11994,0.33337,0.071124,-0.46456,0.7131,-0.9584,0.17258,0.29377,-0.019723,0.01265,-0.1027,0.011656,-0.25791,-1.853,-0.28613,2.0764
0.038058,-0.012847,-0.0089562,0.009013,-0.024701,0.03087,-0.039648,0.0033829,-0.11077,0.25262,0.13109,-0.46809,0.72786,-1.4618,0.14241,0.26829,-0.018651,0.0099577,0.0026228,0.028926,-0.21773,-1.7998,-0.29809,1.8712
0.036225,-0.011563,-0.0075042,0.00026171,-0.014589,0.026687,-0.039192,0.0063558,-0.1027,0.19222,0.15971,-0.47169,0.69086,-2.0043,0.12885,0.30411,-0.013741,0.0073692,0.1032,0.051086,-0.16781,-1.5849,-0.26348,1.5775
0.037294,-0.0074123,-0.0096739,-0.0067081,-0.010331,0.021801,-0.033325,0.010716,-0.098522,0.16433,0.16714,-0.49314,0.59102,-2.4702,0.13281,0.37778,-0.0069356,0.0062355,0.1835,0.080857,-0.12057,-1.2584,-0.19277,1.2619
0.040319,-0.0016494,-0.013864,-0.010138,-0.013903,0.019001,-0.021981,0.014483,-0.10109,0.16525,0.17474,-0.54022,0.44487,-2.7317,0.14235,0.45508,-0.00071599,0.0072578,0.23551,0.11769,-0.084157,-0.90831,-0.11342,0.98452
0.044813,0.0033781,-0.01641,-0.0099469,-0.022396,0.019351,-0.007966,0.015392,-0.11359,0.18162,0.20372,-0.60136,0.29854,-2.686,0.14672,0.51228,0.0034234,0.010081,0.26104,0.1582,-0.060493,-0.62177,-0.057979,0.77046
0.050304,0.0055671,-0.015035,-0.007935,-0.030007,0.021679,0.0052618,0.013015,-0.13853,0.20136,0.26476,-0.65289,0.20317,-2.3032,0.14622,0.54559,0.0054394,0.013501,0.26902,0.19794,-0.047335,-0.44621,-0.048624,0.61443
0.056257,0.0047249,-0.010765,-0.0068576,-0.03186,0.023986,0.015268,0.0093154,-0.17586,0.21839,0.35351,-0.67791,0.18021,-1.6644,0.1486,0.56414,0.0061181,0.016222,0.26944,0.233,-0.04191,-0.3698,-0.085823,0.5072
0.062685,0.0029876,-0.0066567,-0.0085276,-0.026866,0.025254,0.020932,0.0070125,-0.22153,0.22685,0.45382,-0.68158,0.20452,-0.9614,0.15558,0.57529,0.006194,0.017662,0.26811,0.26081,-0.042992,-0.3316,-0.14773,0.45309
0.070534,0.0032924,-0.0046679,-0.012151,-0.017896,0.025901,0.022102,0.0072231,-0.26839,0.21242,0.54611,-0.69002,0.22074,-0.43543,0.15363,0.57604,0.0059851,0.018182,0.26538,0.28005,-0.05,-0.25533,-0.20158,0.45922
0.080924,0.0069806,-0.0036552,-0.014424,-0.0095423,0.026664,0.019578,0.0085739,-0.30935,0.15271,0.61639,-0.73317,0.18118,-0.26954,0.11999,0.558,0.0055736,0.018585,0.25937,0.29027,-0.060657,-0.089601,-0.22126,0.50899
0.093623,0.012585,-0.00035628,-0.011799,-0.0052959,0.027325,0.015331,0.0086301,-0.34161,0.030636,0.66127,-0.82446,0.075752,-0.48925,0.040979,0.52005,0.0050101,0.019295,0.25027,0.29147,-0.069989,0.16513,-0.20088,0.55166
0.10627,0.016962,0.0075352,-0.0034699,-0.0059238,0.026734,0.012134,0.0063333,-0.36907,-0.14901,0.68759,-0.95186,-0.068564,-0.93732,-0.072219,0.47566,0.0042022,0.019927,0.24194,0.28387,-0.072104,0.45534,-0.1559,0.52573
0.11542,0.017867,0.018964,0.0073826,-0.0096992,0.024035,0.012263,0.0031896,-0.40011,-0.35471,0.70828,-1.0854,-0.21509,-1.3519,-0.18497,0.44636,0.0027512,0.019662,0.23919,0.2683,-0.063476,0.69953,-0.11139,0.40012
0.1187,0.015768,0.029918,0.015444,-0.013893,0.019646,0.016081,0.0020722,-0.44039,-0.54154,0.73714,-1.1933,-0.34657,-1.5099,-0.25826,0.44578,0.00025647,0.01818,0.24317,0.24686,-0.045067,0.82727,-0.085713,0.19587
0.11647,0.013307,0.036335,0.017079,-0.016403,0.014832,0.021806,0.0046557,-0.48395,-0.67394,0.78403,-1.2558,-0.47131,-1.3492,-0.27171,0.468,-0.0028768,0.016381,0.24864,0.22339,-0.021596,0.81337,-0.081146,-0.033677
0.11155,0.012945,0.037064,0.013156,-0.01666,0.010344,0.026901,0.009755,-0.50937,-0.74149,0.85114,-1.267,-0.60311,-0.99075,-0.23362,0.49109,-0.004853,0.01618,0.24577,0.2027,0.0013839,0.69034,-0.087258,-0.24876
0.10739,0.014912,0.034476,0.0085082,-0.015551,0.0057322,0.030037,0.014074,-0.48675,-0.75682,0.93151,-1.2293,-0.73456,-0.65136,-0.1721,0.49386,-0.0030322,0.019256,0.22549,0.18875,0.020484,0.53362,-0.092833,-0.45388
0.10617,0.017261,0.032331,0.0082879,-0.014632,0.00023265,0.031971,0.014777,-0.39434,-0.7395,1.0119,-1.1463,-0.82848,-0.5083,-0.11592,0.47254,0.0042958,0.025564,0.18478,0.18248,0.035809,0.42857,-0.095742,-0.68395
0.10792,0.017902,0.032798,0.014045,-0.015124,-0.0056755,0.034498,0.011714,-0.23506,-0.69933,1.0805,-1.0213,-0.83675,-0.6048,-0.0795,0.44358,0.016061,0.032813,0.12842,0.1811,0.050321,0.43717,-0.10282,-0.95677
0.11095,0.016709,0.035112,0.022623,-0.01719,-0.0099296,0.038369,0.0074112,-0.040326,-0.63125,1.1343,-0.86138,-0.73267,-0.84532,-0.060937,0.43053,0.028158,0.037639,0.066129,0.1794,0.067999,0.57981,-0.12109,-1.2356
0.11277,0.015718,0.036819,0.028695,-0.019822,-0.010515,0.042072,0.0048832,0.14444,-0.52351,1.1824,-0.68205,-0.53268,-1.0634,-0.050706,0.44545,0.035532,0.037926,0.007147,0.17253,0.091686,0.83687,-0.14917,-1.4388
0.1111,0.017184,0.036313,0.028856,-0.021361,-0.0076791,0.042738,0.0051237,0.28432,-0.37142,1.2377,-0.5079,-0.29132,-1.106,-0.04199,0.47956,0.035482,0.034598,-0.043996,0.15841,0.12146,1.1627,-0.17703,-1.4934
0.1047,0.021226,0.034353,0.024025,-0.020384,-0.0043768,0.038616,0.0064084,0.37258,-0.18669,1.306,-0.36662,-0.073105,-0.88738,-0.034973,0.50938,0.029751,0.031269,-0.087883,0.13852,0.15435,1.5008,-0.19404,-1.39
0.094057,0.025234,0.033276,0.018404,-0.016415,-0.0040623,0.031001,0.0059431,0.42845,0.0026048,1.3782,-0.27941,0.0797,-0.40635,-0.033589,0.51297,0.023548,0.031636,-0.12696,0.11648,0.18606,1.7955,-0.1974,-1.193
0.081474,0.025734,0.034779,0.016053,-0.010034,-0.0075118,0.023859,0.0024164,0.47755,0.16044,1.4347,-0.25298,0.16344,0.25667,-0.038746,0.48349,0.0219,0.036413,-0.16174,0.09555,0.21365,1.9986,-0.19312,-0.99715
0.070229,0.02119,0.038365,0.017943,-0.0023465,-0.011569,0.021234,-0.0027166,0.53106,0.25528,1.4581,-0.27772,0.20543,0.95201,-0.04373,0.43107,0.0259,0.042291,-0.18993,0.076532,0.23735,2.0765,-0.18888,-0.86706
0.062931,0.013347,0.041816,0.021765,0.0057338,-0.011174,0.024498,-0.0062973,0.58014,0.2722,1.4443,-0.33266,0.23959,1.4918,-0.035747,0.37299,0.031761,0.044063,-0.20937,0.057329,0.25899,2.0162,-0.18595,-0.80664
0.060171,0.0059369,0.043147,0.024366,0.013808,-0.0031235,0.031612,-0.0060055,0.60847,0.22058,1.4027,-0.39398,0.28122,1.7107,-0.0038015,0.31994,0.033541,0.038511,-0.22185,0.034493,0.27786,1.8269,-0.17787,-0.77758
0.060611,0.0018524,0.042116,0.024545,0.021714,0.011594,0.038852,-0.0023248,0.6102,0.13317,1.3467,-0.44248,0.31558,1.5403,0.051292,0.26775,0.027596,0.027037,-0.2336,0.0057524,0.28753,1.5371,-0.15721,-0.74322
0.06254,0.0012378,0.03992,0.023775,0.029074,0.028774,0.043319,0.0016435,0.59678,0.053999,1.2834,-0.46772,0.30553,1.0551,0.11195,0.19912,0.015431,0.014804,-0.25066,-0.028194,0.27741,1.1884,-0.12357,-0.69622
0.065574,0.0020124,0.037519,0.024317,0.03528,0.04427,0.044118,0.0023968,0.58702,0.017926,1.2098,-0.46949,0.21274,0.44809,0.14986,0.09432,0.0027777,0.0069585,-0.27237,-0.063854,0.23939,0.83077,-0.085233,-0.65022
0.070782,0.00214,0.034422,0.026569,0.040064,0.056648,0.041585,-0.0013983,0.59013,0.030845,1.1188,-0.45803,0.019911,-0.062755,0.14229,-0.054945,-0.0044211,0.0049852,-0.2888,-0.096906,0.17484,0.51803,-0.05269,-0.61193
0.07897,0.0014345,0.029295,0.028248,0.044042,0.067128,0.035915,-0.0079191,0.5972,0.062614,1.0072,-0.45228,-0.25804,-0.34422,0.089288,-0.23544,-0.0040784,0.0061517,-0.28542,-0.12435,0.095764,0.29682,-0.030056,-0.56655
0.088758,0.0013007,0.021911,0.026415,0.048446,0.077262,0.026977,-0.013536,0.58869,0.059576,0.87754,-0.47435,-0.57826,-0.40542,0.018669,-0.41165,0.00092816,0.0063826,-0.25261,-0.14519,0.018222,0.18859,-0.012364,-0.49137
0.096632,0.0028886,0.014476,0.020715,0.053957,0.086762,0.015492,-0.015514,0.55108,-0.027374,0.73486,-0.53985,-0.88531,-0.36537,-0.027918,-0.53652,0.00531,0.0039061,-0.19304,-0.15956,-0.047333,0.17303,0.0088945,-0.38122
0.099551,0.005655,0.010696,0.014785,0.059658,0.093418,0.004,-0.014033,0.48863,-0.21355,0.58185,-0.64917,-1.1279,-0.3562,-0.020768,-0.57033,0.0054297,0.00043629,-0.12166,-0.16764,-0.10126,0.18888,0.037246,-0.25703
0.098116,0.0078418,0.012965,0.014092,0.063282,0.094975,-0.0040854,-0.011978,0.42104,-0.46687,0.41823,-0.78644,-1.2701,-0.43087,0.037883,-0.49951,0.0016249,-0.0010129,-0.058167,-0.17016,-0.15134,0.15998,0.067661,-0.1472
0.097364,0.0083889,0.019899,0.021555,0.062974,0.091007,-0.0070062,-0.012599,0.36961,-0.71903,0.24466,-0.92892,-1.2957,-0.53748,0.11484,-0.3455,-0.0029269,0.00053711,-0.017646,-0.17015,-0.20416,0.034816,0.091073,-0.059875
0.10399,0.0082857,0.02648,0.034564,0.059276,0.083068,-0.0064358,-0.01684,0.34319,-0.89645,0.066204,-1.0607,-1.2096,-0.57034,0.16798,-0.15802,-0.0056077,0.0027583,-0.004675,-0.17357,-0.25885,-0.18688,0.10255,0.025933
0.12181,0.0098391,0.027092,0.046225,0.055496,0.073161,-0.0063973,-0.02248,0.33408,-0.9543,-0.1091,-1.1798,-1.0367,-0.45231,0.1731,0.005099,-0.0069511,0.0019938,-0.013031,-0.18668,-0.30849,-0.46049,0.10545,0.14125
0.14904,0.014373,0.019395,0.050239,0.055785,0.062172,-0.009791,-0.025829,0.32543,-0.89404,-0.27577,-1.2912,-0.81658,-0.18512,0.13595,0.1011,-0.010109,-0.0034146,-0.029005,-0.21065,-0.34694,-0.73099,0.10783,0.29824
0.17932,0.020515,0.0061878,0.045601,0.062156,0.049797,-0.015513,-0.024627,0.30361,-0.75488,-0.43515,-1.3911,-0.58878,0.1646,0.082042,0.11656,-0.017655,-0.011546,-0.035934,-0.23748,-0.37417,-0.9676,0.11497,0.47848
0.20571,0.024844,-0.0062718,0.037256,0.072841,0.035884,-0.018969,-0.019774,0.26628,-0.5862,-0.59371,-1.4553,-0.37635,0.52421,0.034739,0.065611,-0.028589,-0.018423,-0.019239,-0.252,-0.39496,-1.1707,0.12496,0.64782
0.22435,0.024515,-0.01245,0.032105,0.083463,0.021659,-0.015859,-0.014476,0.22167,-0.42101,-0.7554,-1.4447,-0.17649,0.8669,0.00037262,-0.025418,-0.038328,-0.0211,0.028065,-0.24061,-0.41264,-1.3477,0.13169,0.78192
0.23523,0.019623,-0.011399,0.03359,0.090261,0.009479,-0.0060876,-0.01163,0.18162,-0.26924,-0.91349,-1.3265,0.031414,1.2152,-0.029346,-0.13678,-0.041938,-0.019564,0.10106,-0.20125,-0.4248,-1.4816,0.13193,0.87831
0.24036,0.013173,-0.0075718,0.039204,0.092759,0.0013265,0.0055919,-0.01174,0.15545,-0.13349,-1.0479,-1.0998,0.2644,1.5964,-0.063284,-0.26608,-0.038013,-0.016068,0.18305,-0.14691,-0.42606,-1.5233,0.12987,0.94659
0.24119,0.0086305,-0.0078831,0.042747,0.093625,-0.0024057,0.01281,-0.013047,0.14994,-0.030159,-1.1303,-0.80501,0.51711,1.9889,-0.10037,-0.42549,-0.029996,-0.013017,0.25193,-0.098524,-0.41569,-1.4175,0.13477,0.99056
0.23761,0.0072269,-0.016856,0.039251,0.095793,-0.0026098,0.012075,-0.01348,0.17474,0.0070438,-1.1354,-0.50977,0.76115,2.3048,-0.13241,-0.62854,-0.023792,-0.011492,0.29002,-0.071642,-0.40239,-1.1429,0.15348,1.0027
0.22878,0.007353,-0.033148,0.028618,0.099383,-6.6207e-005,0.0050332,-0.012405,0.24556,-0.050681,-1.0535,-0.27617,0.96283,2.4265,-0.15595,-0.87601,-0.023624,-0.011366,0.29163,-0.066726,-0.40028,-0.73587,0.1842,0.97697
0.21436,0.0064728,-0.049961,0.015381,0.1013,0.0053738,-0.0030216,-0.010585,0.37811,-0.19573,-0.89843,-0.13041,1.1031,2.2715,-0.1797,-1.1495,-0.029383,-0.012188,0.26387,-0.07062,-0.41812,-0.27871,0.21646,0.92517
0.19503,0.0036485,-0.059274,0.005227,0.098067,0.013918,-0.0069517,-0.0086964,0.57317,-0.37265,-0.70823,-0.053678,1.1825,1.8401,-0.21825,-1.4153,-0.037355,-0.013519,0.22109,-0.06771,-0.4506,0.14024,0.2371,0.87925
0.17198,0.00028261,-0.057085,0.0011989,0.089417,0.024041,-0.0050143,-0.0061991,0.8035,-0.50276,-0.53428,-0.00068528,1.2079,1.2111,-0.27652,-1.6337,-0.043333,-0.014572,0.17777,-0.051391,-0.47948,0.46793,0.23778,0.87356
0.14633,-0.0015299,-0.046057,0.0022554,0.079318,0.03181,0.00056443,-0.0019218,1.0163,-0.53057,-0.42139,0.066902,1.1783,0.48887,-0.33926,-1.769,-0.045359,-0.014117,0.14426,-0.026669,-0.48417,0.70559,0.21888,0.9224
0.11927,-0.0012903,-0.033702,0.0048178,0.073163,0.0326,0.0057065,0.0042337,1.1552,-0.45666,-0.38701,0.15524,1.0847,-0.25981,-0.37713,-1.7969,-0.04414,-0.011332,0.12594,-0.003021,-0.4536,0.89665,0.18808,1.0119
0.092553,-0.0006701,-0.027468,0.0057815,0.073453,0.024259,0.0075814,0.010398,1.1908,-0.33033,-0.41202,0.23864,0.92652,-1.0359,-0.36716,-1.7105,-0.041472,-0.0069197,0.12387,0.014703,-0.39061,1.0929,0.15558,1.1128
0.06842,-0.0017787,-0.030196,0.0047352,0.077802,0.0091805,0.0065471,0.013908,1.1362,-0.20817,-0.45132,0.28355,0.72578,-1.8839,-0.31252,-1.5264,-0.038657,-0.0031137,0.13497,0.028455,-0.30682,1.3188,0.12951,1.2028
0.048482,-0.004914,-0.038952,0.0039443,0.081129,-0.0066964,0.0057017,0.013667,1.0361,-0.11397,-0.46022,0.27657,0.5204,-2.8303,-0.24558,-1.2865,-0.036316,-0.0021703,0.15264,0.040866,-0.21417,1.5538,0.11392,1.2782
0.032207,-0.0081609,-0.047589,0.0062581,0.08009,-0.017541,0.008432,0.011393,0.93343,-0.033848,-0.42018,0.23432,0.33864,-3.8256,-0.21008,-1.0494,-0.035174,-0.0045973,0.16926,0.048087,-0.12068,1.7436,0.10927,1.3488
0.01655,-0.0093397,-0.050858,0.012499,0.075771,-0.02134,0.015701,0.010251,0.84005,0.051104,-0.34606,0.1883,0.17698,-4.7274,-0.23331,-0.86931,-0.036265,-0.0088213,0.1804,0.040148,-0.032575,1.8366,0.11395,1.4207
-0.0024885,-0.0083719,-0.047262,0.020276,0.072237,-0.020946,0.025021,0.011872,0.7315,0.12708,-0.27021,0.15892,0.0054007,-5.3396,-0.30647,-0.77183,-0.039867,-0.012623,0.18771,0.0099743,0.041783,1.8214,0.12539,1.4842
-0.027183,-0.0076175,-0.039227,0.025295,0.072447,-0.021755,0.031889,0.014468,0.57108,0.14317,-0.21607,0.14072,-0.19915,-5.4919,-0.38595,-0.74179,-0.044289,-0.014892,0.19762,-0.036872,0.092784,1.7401,0.14045,1.5164
-0.056265,-0.0097231,-0.031109,0.024443,0.075413,-0.027816,0.032646,0.014035,0.34292,0.049695,-0.18224,0.11078,-0.41758,-5.121,-0.41579,-0.73315,-0.046255,-0.016026,0.21618,-0.081463,0.11619,1.662,0.15557,1.4959
-0.085459,-0.015026,-0.026518,0.018453,0.077194,-0.039229,0.026708,0.0078444,0.069262,-0.15113,-0.14838,0.051596,-0.58433,-4.3172,-0.35876,-0.69671,-0.043241,-0.016874,0.24411,-0.102,0.11946,1.6327,0.16735,1.4155
-0.11007,-0.021064,-0.026381,0.011931,0.074614,-0.052534,0.016674,-0.0028304,-0.19992,-0.38752,-0.096076,-0.031633,-0.6235,-3.3063,-0.21895,-0.60785,-0.035992,-0.017685,0.27615,-0.087729,0.11997,1.635,0.17316,1.2859
-0.12773,-0.024719,-0.028522,0.010348,0.068069,-0.063511,0.006507,-0.013291,-0.41457,-0.5547,-0.026288,-0.11368,-0.50173,-2.3692,-0.042438,-0.47595,-0.028797,-0.01834,0.30531,-0.045202,0.13353,1.5931,0.17162,1.1273
-0.13933,-0.025007,-0.028977,0.016026,0.060822,-0.070077,-0.00068057,-0.018993,-0.54849,-0.58267,0.040414,-0.16838,-0.25805,-1.7267,0.10593,-0.3313,-0.02684,-0.019384,0.3283,0.0078267,0.16106,1.4202,0.16248,0.95948
-0.14776,-0.023909,-0.024498,0.026181,0.055693,-0.073203,-0.0037578,-0.019083,-0.60478,-0.48396,0.079114,-0.18738,0.012366,-1.4445,0.17816,-0.20137,-0.032525,-0.022224,0.34718,0.055362,0.18472,1.0758,0.14664,0.79909
-0.15564,-0.024508,-0.014932,0.034638,0.05251,-0.075447,-0.0033239,-0.016816,-0.6042,-0.34367,0.077612,-0.18345,0.20988,-1.4079,0.17044,-0.094954,-0.043714,-0.027749,0.36577,0.092443,0.17893,0.58767,0.12647,0.66427
-0.16361,-0.028184,-0.0037564,0.035986,0.048795,-0.078548,-0.00079649,-0.01654,-0.56918,-0.2588,0.042526,-0.17717,0.28122,-1.3882,0.12417,-0.0037348,-0.055313,-0.034708,0.38407,0.12429,0.1292,0.024676,0.10582,0.58028
-0.17035,-0.033378,0.0039429,0.029041,0.042843,-0.082057,0.0023734,-0.019903,-0.51511,-0.27335,-0.0073574,-0.17888,0.23717,-1.1705,0.09813,0.083444,-0.062831,-0.039947,0.39545,0.15774,0.04428,-0.55761,0.088582,0.57563
-0.17373,-0.036917,0.0049202,0.017145,0.035954,-0.083918,0.0051901,-0.024588,-0.451,-0.3578,-0.052558,-0.18028,0.13149,-0.67476,0.12899,0.16733,-0.065056,-0.040876,0.38916,0.19317,-0.048562,-1.1518,0.075069,0.66758
-0.17226,-0.036627,8.1336e-005,0.0054468,0.031485,-0.08233,0.0074956,-0.026551,-0.38394,-0.44395,-0.080378,-0.16084,0.021861,-0.0010203,0.2072,0.23646,-0.063941,-0.038006,0.35635,0.22349,-0.12203,-1.7875,0.058112,0.84671
-0.16595,-0.032962,-0.0062844,-0.0024402,0.031565,-0.077372,0.010144,-0.023663,-0.32126,-0.48173,-0.085797,-0.10276,-0.059354,0.62934,0.28538,0.27668,-0.06226,-0.034815,0.2949,0.23984,-0.16646,-2.4853,0.022625,1.0746
-0.15632,-0.028439,-0.0098983,-0.0060274,0.03467,-0.071266,0.01451,-0.01755,-0.26918,-0.4704,-0.069006,-0.0030834,-0.11119,1.0008,0.31293,0.28316,-0.061285,-0.034606,0.21033,0.23846,-0.19267,-3.2129,-0.048188,1.3009
-0.14544,-0.025596,-0.0098096,-0.0071941,0.036441,-0.06729,0.021187,-0.012171,-0.23044,-0.44305,-0.033353,0.12457,-0.1521,1.0213,0.27066,0.2655,-0.060302,-0.037187,0.11286,0.22296,-0.2186,-3.8755,-0.16105,1.4904
-0.13479,-0.025259,-0.0088812,-0.0083618,0.033068,-0.068184,0.028668,-0.010523,-0.20331,-0.42522,0.015441,0.25787,-0.2038,0.75828,0.18006,0.24257,-0.057858,-0.038684,0.013731,0.2009,-0.25159,-4.3454,-0.30163,1.6402
-0.12445,-0.026397,-0.01102,-0.011164,0.024189,-0.074964,0.033289,-0.012401,-0.18234,-0.40862,0.069929,0.37653,-0.27972,0.37788,0.082833,0.23121,-0.053241,-0.034991,-0.077109,0.17867,-0.28118,-4.5089,-0.43305,1.773
-0.11337,-0.027386,-0.017479,-0.016137,0.012784,-0.086647,0.031075,-0.015016,-0.16003,-0.36225,0.12189,0.46947,-0.37943,0.037073,0.009885,0.23623,-0.046872,-0.025754,-0.15175,0.15909,-0.28767,-4.3064,-0.50841,1.9116
-0.10057,-0.027445,-0.025352,-0.022913,0.002366,-0.10083,0.020524,-0.015718,-0.12889,-0.26657,0.16293,0.53581,-0.48761,-0.19212,-0.034151,0.24847,-0.039614,-0.015047,-0.20518,0.14304,-0.25853,-3.7505,-0.49325,2.0535
-0.086239,-0.027088,-0.029539,-0.030381,-0.0059274,-0.11481,0.0043081,-0.014314,-0.084163,-0.13613,0.18459,0.58182,-0.57909,-0.3181,-0.061136,0.25218,-0.03195,-0.007942,-0.23698,0.13222,-0.19915,-2.9207,-0.38553,2.168
-0.07183,-0.027408,-0.026581,-0.036873,-0.013851,-0.12672,-0.011697,-0.012983,-0.026516,-0.0093912,0.17977,0.61674,-0.63106,-0.36411,-0.077882,0.23721,-0.023815,-0.0060702,-0.25252,0.12931,-0.13053,-1.9387,-0.21986,2.2175
-0.058816,-0.028913,-0.017311,-0.040795,-0.024038,-0.13618,-0.021737,-0.013986,0.037075,0.0828,0.14652,0.64967,-0.63811,-0.30946,-0.075846,0.20762,-0.015009,-0.0063108,-0.26161,0.13455,-0.077177,-0.93255,-0.051327,2.1841
-0.047386,-0.030892,-0.0063147,-0.041613,-0.037461,-0.14412,-0.023698,-0.017314,0.095483,0.1398,0.092502,0.6876,-0.61947,-0.09455,-0.042154,0.18026,-0.0056884,-0.0038182,-0.27381,0.14208,-0.054836,-0.0054485,0.072359,2.079
-0.036444,-0.031786,0.001166,-0.040499,-0.052576,-0.15191,-0.020344,-0.020419,0.13788,0.18531,0.03579,0.73433,-0.61044,0.31383,0.020372,0.17366,0.0034058,0.0034307,-0.29311,0.14033,-0.065252,0.77307,0.13333,1.9259
-0.025085,-0.030252,0.002428,-0.039854,-0.066648,-0.16046,-0.017317,-0.020313,0.15783,0.24176,-0.0012956,0.79025,-0.64124,0.85719,0.086479,0.19528,0.010966,0.012717,-0.31578,0.11763,-0.098311,1.348,0.1466,1.7372
-0.014046,-0.026112,-0.0016495,-0.041772,-0.077879,-0.16978,-0.019295,-0.01624,0.15475,0.31075,-0.0032598,0.85305,-0.71784,1.3833,0.12496,0.23716,0.015325,0.018864,-0.33393,0.06946,-0.13723,1.654,0.14322,1.5055
-0.0053934,-0.020457,-0.0079926,-0.046423,-0.086543,-0.17924,-0.026989,-0.010574,0.13263,0.37647,0.029579,0.91894,-0.81887,1.7183,0.12513,0.28348,0.015016,0.01842,-0.34272,0.0017906,-0.16327,1.621,0.14663,1.2215
-0.00042473,-0.014851,-0.01363,-0.051614,-0.094396,-0.18818,-0.037002,-0.0070765,0.097659,0.4251,0.080891,0.98355,-0.91011,1.7622,0.10856,0.3233,0.0097288,0.011964,-0.34646,-0.072462,-0.1597,1.2259,0.15919,0.90005
0.0021642,-0.010253,-0.017121,-0.054052,-0.10311,-0.19634,-0.044458,-0.0078703,0.056665,0.45854,0.12782,1.0428,-0.9644,1.5381,0.11328,0.3573,0.0012145,0.0028977,-0.35874,-0.14144,-0.11608,0.55978,0.16646,0.58832
0.0056692,-0.0065307,-0.018535,-0.051663,-0.1131,-0.20386,-0.046402,-0.011628,0.016249,0.4894,0.15408,1.094,-0.97162,1.1644,0.16228,0.3924,-0.0067472,-0.0055322,-0.39602,-0.20118,-0.032136,-0.15662,0.15335,0.3439
0.012425,-0.0029315,-0.018701,-0.04544,-0.12349,-0.21108,-0.043572,-0.014505,-0.01818,0.52455,0.15804,1.138,-0.93403,0.77642,0.24286,0.42928,-0.0099144,-0.012026,-0.46835,-0.25681,0.0813,-0.64855,0.11784,0.20004
0.021207,0.00095604,-0.018657,-0.039407,-0.13307,-0.21831,-0.039533,-0.013157,-0.043911,0.55595,0.15106,1.1791,-0.8552,0.45644,0.31456,0.45502,-0.0061912,-0.01672,-0.57313,-0.31796,0.20669,-0.72537,0.072323,0.14677
0.027789,0.0046661,-0.019455,-0.038333,-0.14119,-0.22574,-0.038036,-0.0074375,-0.061975,0.56886,0.14844,1.2236,-0.73488,0.21623,0.33877,0.44908,0.0022986,-0.019873,-0.69601,-0.39238,0.32787,-0.38685,0.033514,0.14411
0.028618,0.0072421,-0.021753,-0.044419,-0.14792,-0.23328,-0.040558,-0.00059285,-0.076365,0.5587,0.15971,1.2747,-0.57446,0.028305,0.30567,0.39943,0.0094012,-0.02177,-0.81853,-0.48218,0.43715,0.18621,0.010387,0.15498
0.024357,0.0081603,-0.025,-0.055198,-0.15335,-0.24017,-0.045574,0.0032931,-0.091388,0.53871,0.18473,1.3292,-0.38608,-0.13022,0.23799,0.31618,0.0078903,-0.023886,-0.92803,-0.58414,0.53721,0.75636,-0.00025398,0.16975
0.019811,0.0078906,-0.026945,-0.064515,-0.15667,-0.2447,-0.049809,0.0026255,-0.10891,0.52949,0.21668,1.3776,-0.1947,-0.25883,0.1718,0.231,-0.006235,-0.02939,-1.0238,-0.69275,0.63693,1.1762,-0.0085523,0.20298
0.019947,0.0075764,-0.024549,-0.066453,-0.15602,-0.24421,-0.050431,-0.00027626,-0.12752,0.53985,0.24825,1.4097,-0.028777,-0.34837,0.13244,0.18156,-0.030833,-0.041448,-1.1155,-0.80302,0.74484,1.4473,-0.022121,0.26802
0.025507,0.008187,-0.016279,-0.059685,-0.14939,-0.23554,-0.046713,-0.00089526,-0.14425,0.55727,0.27561,1.4196,0.094137,-0.40735,0.12424,0.19113,-0.05828,-0.060292,-1.2148,-0.91151,0.86437,1.6581,-0.03979,0.35202
0.032299,0.0099549,-0.0041353,-0.048936,-0.13605,-0.21587,-0.040166,0.0039075,-0.15713,0.55729,0.2979,1.4074,0.17552,-0.46943,0.13796,0.25731,-0.079636,-0.08179,-1.3251,-1.0155,0.99251,1.867,-0.052259,0.41141
0.034957,0.01251,0.0067337,-0.041988,-0.11722,-0.18329,-0.033142,0.013347,-0.16655,0.52376,0.314,1.3762,0.23142,-0.57033,0.1645,0.35605,-0.089713,-0.099334,-1.4357,-1.1112,1.1203,2.0402,-0.047982,0.39029
0.031836,0.015361,0.011228,-0.044104,-0.095179,-0.13717,-0.026886,0.023362,-0.17454,0.46194,0.32062,1.3278,0.27882,-0.71031,0.20194,0.45681,-0.089628,-0.1079,-1.5251,-1.1927,1.2328,2.0884,-0.019762,0.24846
0.026589,0.018129,0.0081127,-0.054036,-0.071681,-0.078304,-0.020456,0.030022,-0.18303,0.39341,0.31396,1.2614,0.3234,-0.83426,0.25176,0.53773,-0.085083,-0.1071,-1.571,-1.2511,1.31,1.9579,0.031691,-0.017173
0.025024,0.020426,0.0011697,-0.064819,-0.046898,-0.0091493,-0.011449,0.032842,-0.19267,0.33825,0.29326,1.1774,0.35719,-0.85123,0.31162,0.59217,-0.081748,-0.10084,-1.5621,-1.2749,1.3306,1.6825,0.098432,-0.36774
0.030077,0.021814,-0.0036571,-0.068873,-0.020083,0.066039,0.0018227,0.035131,-0.2029,0.30041,0.26285,1.0803,0.36685,-0.68815,0.37283,0.62529,-0.081226,-0.094138,-1.5015,-1.2528,1.2818,1.3525,0.16907,-0.73428
0.039364,0.022171,-0.0029955,-0.063424,0.0087027,0.14144,0.018317,0.04093,-0.21264,0.26795,0.23014,0.97914,0.34504,-0.34564,0.42431,0.64608,-0.080536,-0.089691,-1.4033,-1.1767,1.1694,1.0394,0.23349,-1.0409
0.047323,0.022095,0.0013955,-0.052026,0.037479,0.21058,0.034194,0.051157,-0.22058,0.22626,0.20096,0.88331,0.29596,0.081657,0.45778,0.6607,-0.075215,-0.086656,-1.2826,-1.0455,1.0205,0.75416,0.28627,-1.2297
0.049829,0.022655,0.0045927,-0.041186,0.063019,0.26783,0.045092,0.062345,-0.22524,0.17162,0.17595,0.79722,0.23093,0.43885,0.46875,0.66989,-0.063393,-0.082004,-1.1481,-0.86667,0.87347,0.47645,0.32733,-1.2788
0.047199,0.024393,0.0033649,-0.035147,0.08276,0.30972,0.049129,0.06925,-0.2254,0.11396,0.15096,0.71927,0.1576,0.58486,0.45327,0.66916,-0.047609,-0.073037,-1.0024,-0.6563,0.75848,0.21545,0.35962,-1.2046
0.043185,0.026439,-0.00042142,-0.033173,0.096189,0.33558,0.04817,0.069136,-0.22114,0.068177,0.12098,0.64536,0.070939,0.46733,0.40512,0.65024,-0.033151,-0.059335,-0.84701,-0.43714,0.68128,0.033326,0.38533,-1.0509
0.041322,0.026786,-0.0010045,-0.031278,0.10449,0.34725,0.046192,0.064053,-0.2147,0.042755,0.084291,0.57426,-0.04686,0.15518,0.3178,0.60409,-0.024479,-0.043236,-0.68666,-0.23424,0.62158,0.0022579,0.40305,-0.86908
0.042104,0.023806,0.0064039,-0.02641,0.10893,0.34814,0.046067,0.059055,-0.20981,0.035058,0.043751,0.51008,-0.21644,-0.19302,0.19054,0.52616,-0.022523,-0.028816,-0.52916,-0.069228,0.54813,0.13696,0.40753,-0.70184
0.043356,0.017751,0.021328,-0.019198,0.10962,0.34221,0.047573,0.05792,-0.20957,0.03546,0.0042789,0.4594,-0.44688,-0.41124,0.033918,0.42173,-0.024683,-0.019887,-0.38076,0.045841,0.44023,0.37069,0.39199,-0.57431
0.042908,0.010849,0.038058,-0.013031,0.10582,0.33323,0.048413,0.060095,-0.21436,0.035086,-0.03121,0.4252,-0.72605,-0.41481,-0.13011,0.30657,-0.027061,-0.017913,-0.24325,0.11242,0.3006,0.60008,0.35143,-0.49343
0.040674,0.0057504,0.049909,-0.010734,0.097251,0.32426,0.047284,0.061583,-0.22161,0.030359,-0.06435,0.40236,-1.0217,-0.24451,-0.27514,0.19943,-0.026988,-0.021058,-0.11597,0.14428,0.1519,0.75695,0.28486,-0.45178
0.038106,0.0035932,0.054014,-0.012153,0.085056,0.31727,0.046062,0.058946,-0.22773,0.021936,-0.10042,0.37888,-1.292,-0.036823,-0.38134,0.10888,-0.024119,-0.02521,-0.0008264,0.16076,0.020842,0.8413,0.19571,-0.43384
0.035893,0.0033063,0.052719,-0.014724,0.071258,0.31269,0.048877,0.052809,-0.23054,0.010869,-0.14455,0.34296,-1.4969,0.065274,-0.44463,0.023917,-0.019797,-0.02655,0.095232,0.1775,-0.07782,0.89041,0.090907,-0.42442
0.032597,0.0026622,0.050855,-0.016106,0.057363,0.30906,0.058663,0.047586,-0.23033,-0.0034021,-0.19743,0.29143,-1.6021,0.0074963,-0.47816,-0.082788,-0.015663,-0.023903,0.16411,0.20053,-0.14723,0.92212,-0.02015,-0.41804
0.025863,0.00011983,0.05166,-0.016096,0.043432,0.3031,0.074156,0.047506,-0.22885,-0.021138,-0.25362,0.23329,-1.5772,-0.13662,-0.5039,-0.2382,-0.012643,-0.019034,0.2044,0.22731,-0.20257,0.91179,-0.12619,-0.42413
0.01506,-0.0040546,0.054831,-0.016083,0.028618,0.29076,0.090095,0.052397,-0.22746,-0.038238,-0.30382,0.18467,-1.3965,-0.21185,-0.53801,-0.44848,-0.010709,-0.014625,0.22655,0.2541,-0.25968,0.823,-0.21465,-0.4624
0.0025331,-0.008156,0.057869,-0.016945,0.012641,0.26914,0.10064,0.057069,-0.22602,-0.044096,-0.34018,0.1579,-1.0516,-0.085137,-0.57858,-0.68854,-0.0090668,-0.011709,0.24991,0.28372,-0.32624,0.65472,-0.27324,-0.54774
-0.008034,-0.010432,0.058864,-0.017745,-0.0032289,0.23875,0.10322,0.055092,-0.22316,-0.024739,-0.36144,0.1521,-0.5733,0.26165,-0.60426,-0.90975,-0.0063858,-0.0087541,0.29265,0.32758,-0.39983,0.45096,-0.29278,-0.67312
-0.014701,-0.010361,0.058044,-0.016564,-0.016717,0.20438,0.099753,0.043874,-0.21732,0.028725,-0.37428,0.15318,-0.043316,0.71303,-0.58624,-1.0623,-0.0011474,-0.0031413,0.36112,0.39981,-0.4721,0.25897,-0.27065,-0.80312
-0.018802,-0.0089504,0.057031,-0.012483,-0.026228,0.17358,0.094259,0.026715,-0.2078,0.11063,-0.38968,0.14419,0.42129,1.0858,-0.50691,-1.1198,0.0076513,0.0063865,0.44616,0.50726,-0.53529,0.077218,-0.21295,-0.88582
-0.023442,-0.0079962,0.057011,-0.0066265,-0.032201,0.15276,0.089254,0.010106,-0.19536,0.19714,-0.41635,0.11863,0.71177,1.2303,-0.37355,-1.0912,0.019608,0.018456,0.5289,0.64214,-0.58711,-0.15218,-0.13356,-0.87816
-0.030513,-0.0088928,0.057738,-0.001275,-0.036909,0.14328,0.083973,-0.0013622,-0.18275,0.25356,-0.45565,0.085858,0.77552,1.0966,-0.21819,-1.0156,0.032569,0.029912,0.59195,0.78291,-0.63163,-0.49367,-0.049893,-0.76956
-0.039248,-0.011753,0.058104,0.0019427,-0.042799,0.14003,0.075891,-0.0081046,-0.17483,0.25095,-0.50129,0.063369,0.63631,0.73018,-0.083864,-0.93976,0.043449,0.037852,0.62856,0.90288,-0.67589,-0.9539,0.023103,-0.58836
-0.047634,-0.015326,0.057371,0.0029907,-0.050733,0.13411,0.063979,-0.014219,-0.17762,0.18257,-0.54413,0.061534,0.37307,0.21765,-0.0059796,-0.8951,0.049897,0.041138,0.64403,0.98171,-0.72412,-1.4607,0.07718,-0.38628
-0.055012,-0.017736,0.05571,0.0028081,-0.059545,0.11808,0.050585,-0.023221,-0.19593,0.068785,-0.57844,0.073785,0.074269,-0.36202,0.00046043,-0.88345,0.051615,0.040506,0.64973,1.0128,-0.77348,-1.9048,0.11101,-0.21055
-0.063006,-0.017596,0.053631,0.0020782,-0.067177,0.090449,0.040069,-0.034775,-0.23046,-0.054394,-0.60528,0.081198,-0.19853,-0.94724,-0.057742,-0.88139,0.050278,0.037738,0.65531,1.0026,-0.81482,-2.2085,0.12646,-0.080682
-0.073768,-0.014855,0.051118,0.00078016,-0.072313,0.056374,0.035207,-0.045182,-0.27634,-0.15605,-0.63094,0.068166,-0.41573,-1.4756,-0.1599,-0.85856,0.048136,0.034814,0.66551,0.96397,-0.83919,-2.3673,0.12399,0.016605
-0.087362,-0.010836,0.047528,-0.001137,-0.075081,0.024322,0.034473,-0.050855,-0.32449,-0.22586,-0.66156,0.035745,-0.56118,-1.8768,-0.28225,-0.79831,0.046519,0.033387,0.68357,0.90682,-0.84565,-2.4388,0.10103,0.1127
-0.10104,-0.0074555,0.042419,-0.0029206,-0.076271,0.0010355,0.032767,-0.051439,-0.36547,-0.27385,-0.698,0.00091237,-0.61725,-2.0987,-0.40595,-0.70862,0.045387,0.034269,0.71675,0.83347,-0.84376,-2.497,0.054622,0.23295
-0.11114,-0.0061343,0.036474,-0.0031336,-0.075807,-0.011741,0.025365,-0.04985,-0.39366,-0.3162,-0.73415,-0.017557,-0.57251,-2.1453,-0.51972,-0.61792,0.043954,0.036788,0.77703,0.73971,-0.8471,-2.592,-0.013536,0.37813
-0.11583,-0.007136,0.031505,-0.00076807,-0.071853,-0.017034,0.012031,-0.049494,-0.40923,-0.35998,-0.75971,-0.013869,-0.44373,-2.0834,-0.61796,-0.56031,0.041535,0.038657,0.87364,0.62041,-0.86118,-2.7315,-0.093566,0.5222
-0.11611,-0.0096959,0.02934,0.0037155,-0.061416,-0.019688,-0.0022112,-0.051341,-0.41694,-0.39935,-0.76543,0.0025187,-0.28529,-1.9964,-0.69606,-0.5596,0.037839,0.037059,1.002,0.47579,-0.87471,-2.8761,-0.16784,0.62676
-0.11448,-0.012716,0.030441,0.0084974,-0.042141,-0.023094,-0.010663,-0.053393,-0.42267,-0.42536,-0.7478,0.018649,-0.16875,-1.9124,-0.74579,-0.61961,0.032862,0.030705,1.1385,0.31455,-0.86238,-2.9364,-0.21522,0.66275
-0.11286,-0.015402,0.033382,0.011652,-0.014166,-0.027735,-0.010328,-0.052721,-0.42991,-0.43972,-0.71048,0.032476,-0.14356,-1.7616,-0.75415,-0.72329,0.026963,0.021292,1.2482,0.15264,-0.79864,-2.7793,-0.21731,0.62565
-0.11163,-0.017367,0.035639,0.012468,0.019143,-0.032079,-0.0047798,-0.048076,-0.43825,-0.45989,-0.66194,0.056314,-0.21033,-1.4069,-0.70824,-0.83925,0.021208,0.012858,1.3019,0.0088591,-0.67354,-2.27,-0.16527,0.53539
-0.11022,-0.018283,0.035076,0.01171,0.052066,-0.034704,-0.0019946,-0.040955,-0.44436,-0.51109,-0.61093,0.10588,-0.32867,-0.73714,-0.60501,-0.9333,0.017279,0.0091032,1.2917,-0.10011,-0.49898,-1.3518,-0.065805,0.42188
-0.10811,-0.01755,0.031066,0.010696,0.07864,-0.035884,-0.0085689,-0.034591,-0.44435,-0.61136,-0.56218,0.18464,-0.45129,0.23396,-0.45983,-0.98193,0.016435,0.010679,1.2334,-0.16363,-0.30111,-0.12614,0.056506,0.30706
-0.10506,-0.014475,0.024544,0.010102,0.09501,-0.03744,-0.024783,-0.03199,-0.43573,-0.76143,-0.51503,0.27749,-0.55297,1.3323,-0.30566,-0.98251,0.018076,0.014687,1.1549,-0.17929,-0.10504,1.1355,0.16478,0.19565
-0.10082,-0.0089275,0.017211,0.0095611,0.10089,-0.041134,-0.044358,-0.034451,-0.41768,-0.94566,-0.46561,0.3595,-0.62937,2.283,-0.17939,-0.95367,0.019405,0.016857,1.0791,-0.15374,0.075886,2.0839,0.22484,0.080561
-0.095431,-0.0019334,0.010584,0.0082707,0.099384,-0.047137,-0.059026,-0.041183,-0.3904,-1.1413,-0.41105,0.41283,-0.67221,2.8364,-0.10188,-0.92241,0.01703,0.014618,1.0138,-0.1018,0.23848,2.4559,0.22376,-0.043136
-0.090066,0.0044462,0.0054323,0.0059184,0.095326,-0.054166,-0.064227,-0.049795,-0.35471,-1.3271,-0.35278,0.43801,-0.65156,2.8901,-0.065362,-0.9041,0.0096058,0.0086216,0.95342,-0.042771,0.37887,2.2142,0.17945,-0.16814
-0.087644,0.0081459,0.0016114,0.0030199,0.093055,-0.061339,-0.061595,-0.057292,-0.31282,-1.4863,-0.29657,0.45102,-0.53055,2.5321,-0.039223,-0.88894,-0.00067407,0.0017202,0.88855,0.005959,0.48342,1.5694,0.13122,-0.27805
-0.091698,0.0084468,-0.0018803,0.00047924,0.094934,-0.070007,-0.056752,-0.061348,-0.26927,-1.6041,-0.24952,0.46916,-0.30475,1.9814,0.0081391,-0.84669,-0.0092435,-0.0034105,0.81305,0.03585,0.53087,0.86415,0.11434,-0.36123
-0.10382,0.0066162,-0.0065714,-0.0010793,0.1012,-0.083403,-0.054661,-0.061528,-0.23034,-1.6684,-0.21643,0.49746,-0.029542,1.4652,0.086705,-0.74867,-0.012299,-0.0059457,0.7237,0.050018,0.50552,0.38969,0.13607,-0.4225
-0.12171,0.0051523,-0.013671,-0.0015619,0.11069,-0.10382,-0.056356,-0.059695,-0.20148,-1.6761,-0.19861,0.5261,0.19634,1.1095,0.17895,-0.59136,-0.009465,-0.0067598,0.61577,0.059007,0.41122,0.24901,0.17216,-0.48078
-0.13991,0.0060042,-0.022901,-0.0011637,0.12154,-0.12967,-0.059195,-0.058969,-0.18448,-1.6429,-0.19557,0.53952,0.2874,0.90691,0.25529,-0.40306,-0.0038639,-0.0070235,0.48172,0.071451,0.27503,0.34675,0.18794,-0.55251
-0.1531,0.0090956,-0.03192,-7.3025e-005,0.1313,-0.15538,-0.059745,-0.061577,-0.17717,-1.6038,-0.2078,0.52874,0.2274,0.76812,0.29808,-0.22761,0.00038314,-0.0069821,0.31575,0.086309,0.13656,0.49609,0.16727,-0.6343
-0.15947,0.012418,-0.037298,0.0015139,0.13709,-0.17494,-0.056638,-0.067106,-0.17594,-1.5994,-0.23731,0.49625,0.081127,0.60611,0.31417,-0.097462,0.0011636,-0.0058449,0.12006,0.093084,0.030043,0.55705,0.12515,-0.70063
-0.16092,0.013734,-0.036868,0.0031898,0.13637,-0.18629,-0.05131,-0.07272,-0.17828,-1.6491,-0.28475,0.45068,-0.047899,0.38992,0.32596,-0.016697,-0.00045202,-0.0026063,-0.094,0.08031,-0.029394,0.51069,0.093279,-0.72015
-0.1598,0.012492,-0.031798,0.0043235,0.12856,-0.1927,-0.046531,-0.075444,-0.18221,-1.7301,-0.34468,0.3974,-0.081425,0.14157,0.34939,0.034497,-0.0015701,0.0030336,-0.31134,0.045423,-0.047451,0.43139,0.091743,-0.67833
-0.15516,0.010257,-0.026414,0.0043488,0.11604,-0.1995,-0.044202,-0.07471,-0.18304,-1.7781,-0.40291,0.33457,-0.0055137,-0.1001,0.37841,0.080134,-3.8674e-005,0.010297,-0.51996,-0.0025479,-0.041601,0.39772,0.11205,-0.588
-0.14226,0.0092469,-0.025447,0.0030597,0.10337,-0.20915,-0.044076,-0.072935,-0.17209,-1.7149,-0.43912,0.25799,0.13826,-0.3054,0.38922,0.13068,0.0038925,0.017581,-0.71163,-0.050144,-0.029072,0.42081,0.12623,-0.48028
-0.11693,0.010311,-0.030623,0.00061104,0.094525,-0.21908,-0.044132,-0.073465,-0.14108,-1.4885,-0.43469,0.16868,0.29345,-0.4503,0.36051,0.1799,0.0079773,0.023037,-0.87553,-0.090568,-0.019707,0.4435,0.11305,-0.38502
-0.08117,0.012235,-0.039349,-0.002662,0.090025,-0.22454,-0.042095,-0.077595,-0.090545,-1.1002,-0.38194,0.074011,0.4252,-0.50215,0.29269,0.21503,0.0098654,0.025179,-0.99191,-0.1292,-0.016263,0.40051,0.076968,-0.31795
-0.044806,0.012988,-0.046632,-0.0062408,0.086387,-0.22389,-0.037001,-0.083272,-0.033963,-0.60019,-0.28924,-0.020721,0.52843,-0.42398,0.21088,0.22908,0.0088111,0.023335,-1.0351,-0.17885,-0.018896,0.28187,0.043282,-0.28329
-0.020505,0.011675,-0.048673,-0.0091729,0.078729,-0.22128,-0.02978,-0.086665,0.0087058,-0.054854,-0.1787,-0.12226,0.61242,-0.20179,0.15061,0.22549,0.0058813,0.017852,-0.98824,-0.24888,-0.028686,0.14566,0.034953,-0.28445
-0.015113,0.0092841,-0.04525,-0.010047,0.064865,-0.22396,-0.022608,-0.085225,0.025831,0.48608,-0.077667,-0.24922,0.68368,0.13217,0.13791,0.21439,0.0027004,0.0099707,-0.85952,-0.33751,-0.047582,0.073463,0.052798,-0.32801
-0.024229,0.0075657,-0.039222,-0.0076746,0.047669,-0.23607,-0.01757,-0.079583,0.025631,0.99725,-0.0089371,-0.4179,0.74269,0.50806,0.17695,0.20568,-4.4091e-005,0.0014419,-0.68718,-0.43288,-0.076029,0.10944,0.076413,-0.41469
-0.034906,0.0071939,-0.034028,-0.0022212,0.0336,-0.25438,-0.015567,-0.072705,0.033115,1.4561,0.015537,-0.62383,0.79144,0.8557,0.25042,0.2042,-0.0030509,-0.0059767,-0.52372,-0.52096,-0.11148,0.2337,0.083241,-0.52707
-0.034881,0.0070269,-0.031483,0.0042672,0.028199,-0.26951,-0.016027,-0.067216,0.072289,1.8178,-0.0042243,-0.83536,0.83773,1.1368,0.32838,0.20812,-0.0075297,-0.01097,-0.40744,-0.59233,-0.14957,0.38723,0.067261,-0.62966
-0.021183,0.0051512,-0.0314,0.0087957,0.031878,-0.272,-0.017337,-0.063353,0.14651,2.0192,-0.058616,-1.0077,0.88891,1.344,0.37931,0.20971,-0.01385,-0.013011,-0.33951,-0.64277,-0.18671,0.52156,0.04087,-0.68645
-0.0013039,0.00069508,-0.032554,0.0094121,0.03927,-0.25823,-0.017544,-0.059301,0.23292,2.0199,-0.13215,-1.1085,0.94144,1.4737,0.37993,0.19883,-0.020839,-0.012534,-0.2844,-0.66907,-0.22142,0.62893,0.020378,-0.68289
0.013703,-0.005247,-0.033555,0.0066317,0.042764,-0.23211,-0.014995,-0.053394,0.29654,1.8489,-0.20769,-1.1364,0.9789,1.5072,0.32302,0.16921,-0.026176,-0.010766,-0.19587,-0.6666,-0.25259,0.73103,0.010385,-0.63251
0.01827,-0.010332,-0.03294,0.0028541,0.037649,-0.20198,-0.0087821,-0.045967,0.31393,1.6128,-0.2714,-1.1176,0.98307,1.4249,0.22105,0.12483,-0.02742,-0.0090257,-0.051905,-0.6324,-0.27628,0.84268,0.0016675,-0.56106
0.016202,-0.012614,-0.029251,4.018e-005,0.025015,-0.17561,0.0012175,-0.039066,0.28906,1.4449,-0.3173,-1.0848,0.94969,1.2368,0.10216,0.080975,-0.022982,-0.0077562,0.12679,-0.57131,-0.28426,0.94721,-0.016845,-0.48229
0.016888,-0.011759,-0.021985,-0.00231,0.010273,-0.15734,0.015086,-0.034291,0.25013,1.4271,-0.34893,-1.057,0.89562,0.99268,-0.0023423,0.056668,-0.012763,-0.0060337,0.29008,-0.49794,-0.26679,1.0062,-0.044822,-0.38819
0.02771,-0.0090324,-0.012967,-0.006834,-0.0014572,-0.14822,0.034296,-0.030804,0.23081,1.5423,-0.37679,-1.036,0.85095,0.75134,-0.073076,0.062196,0.0014655,-0.0022608,0.39559,-0.43068,-0.21847,0.99308,-0.069091,-0.26342
0.049008,-0.0063483,-0.0064338,-0.015634,-0.0093723,-0.14778,0.062656,-0.025393,0.24976,1.6946,-0.41269,-1.0194,0.84224,0.53475,-0.11039,0.090934,0.01605,0.0042121,0.44255,-0.38098,-0.14289,0.91807,-0.075133,-0.10986
0.075019,-0.0052179,-0.0067472,-0.027595,-0.017176,-0.15503,0.10503,-0.01463,0.30182,1.7827,-0.46469,-1.0158,0.87959,0.31283,-0.12901,0.12272,0.026384,0.011889,0.47506,-0.34592,-0.052158,0.82315,-0.060348,0.043841
0.098936,-0.0061759,-0.014983,-0.038359,-0.02928,-0.16814,0.16338,0.0026789,0.3642,1.7667,-0.53445,-1.0444,0.95561,0.04062,-0.14374,0.13699,0.029053,0.017709,0.54979,-0.30955,0.038723,0.75181,-0.036702,0.15939
0.11745,-0.0087061,-0.027303,-0.043378,-0.046169,-0.18382,0.2323,0.024713,0.4111,1.6792,-0.61606,-1.1177,1.0539,-0.28269,-0.15776,0.1259,0.024266,0.019274,0.69099,-0.2511,0.11845,0.72119,-0.020573,0.21889
0.13151,-0.011464,-0.037077,-0.04153,-0.062877,-0.19792,0.2981,0.047902,0.42663,1.5797,-0.69443,-1.2224,1.1575,-0.5897,-0.1627,0.097773,0.016585,0.016904,0.86749,-0.15378,0.18201,0.71858,-0.019267,0.24038
0.14366,-0.012763,-0.039542,-0.03603,-0.07209,-0.20703,0.34385,0.068932,0.40957,1.4968,-0.74512,-1.3172,1.2487,-0.78507,-0.14915,0.069458,0.012552,0.013497,1.0107,-0.009694,0.22801,0.72065,-0.026214,0.2635
0.15485,-0.011383,-0.035327,-0.03164,-0.069535,-0.20967,0.35831,0.085863,0.36963,1.4071,-0.74001,-1.3523,1.3034,-0.821,-0.11735,0.055275,0.016226,0.01207,1.0604,0.17828,0.25441,0.71469,-0.028487,0.31698
0.16337,-0.007451,-0.029774,-0.03061,-0.057372,-0.20603,0.34282,0.09793,0.31939,1.2618,-0.66105,-1.2982,1.2875,-0.74312,-0.078358,0.061405,0.025876,0.013087,1.0038,0.39477,0.25755,0.70406,-0.019258,0.39559
0.16624,-0.0027425,-0.028463,-0.030997,-0.042848,-0.19665,0.31075,0.10493,0.26715,1.0324,-0.51565,-1.161,1.1672,-0.66311,-0.045038,0.088474,0.034855,0.01406,0.87822,0.61138,0.23593,0.69833,-0.0039083,0.46574
0.16161,8.5351e-005,-0.032597,-0.028928,-0.033316,-0.1816,0.27927,0.10717,0.21425,0.73632,-0.34106,-0.97565,0.92949,-0.67569,-0.02191,0.13712,0.036498,0.0119,0.73943,0.79209,0.19488,0.70304,0.005155,0.49282
0.15024,-0.00094049,-0.038026,-0.022643,-0.031503,-0.16091,0.25928,0.10584,0.15809,0.42621,-0.18927,-0.78313,0.60213,-0.78496,-0.0029877,0.20939,0.029333,0.0059051,0.62288,0.90733,0.1467,0.72018,-0.00030371,0.46563
0.13512,-0.0058154,-0.038622,-0.014483,-0.034363,-0.13523,0.25057,0.10297,0.098548,0.16014,-0.098439,-0.61052,0.25455,-0.89848,0.020954,0.30384,0.018273,-0.0013454,0.52892,0.95052,0.10449,0.7546,-0.017315,0.39864
0.11978,-0.012547,-0.031176,-0.0088895,-0.035665,-0.1053,0.24497,0.10041,0.043384,-0.022848,-0.070238,-0.46728,-0.026856,-0.89351,0.053176,0.40937,0.010742,-0.0059756,0.43934,0.94459,0.073884,0.81287,-0.034639,0.31441
0.10652,-0.018466,-0.01794,-0.0082949,-0.029661,-0.070021,0.23407,0.098744,0.0079329,-0.10946,-0.071414,-0.35544,-0.17904,-0.70525,0.088372,0.50482,0.010975,-0.0058477,0.34563,0.93045,0.049495,0.89007,-0.042375,0.22654
0.095807,-0.021846,-0.0050799,-0.010826,-0.013148,-0.025635,0.21501,0.097339,0.0081588,-0.10721,-0.060126,-0.28023,-0.19473,-0.37447,0.11833,0.56701,0.017269,-0.0019949,0.26202,0.94277,0.019239,0.95737,-0.03947,0.13924
0.087073,-0.022629,0.0014405,-0.01204,0.014479,0.032278,0.1907,0.09567,0.050915,-0.038194,-0.017458,-0.24996,-0.12597,-0.025439,0.13975,0.58264,0.024199,0.0025736,0.21377,0.99017,-0.026293,0.96864,-0.033052,0.060949
0.080052,-0.021921,-0.00058471,-0.0090521,0.051652,0.1046,0.16574,0.094469,0.12821,0.065503,0.040729,-0.26571,-0.055108,0.20609,0.15678,0.55568,0.027406,0.0053546,0.21456,1.0544,-0.08658,0.88897,-0.03121,0.014408
0.075432,-0.020942,-0.0088197,-0.0031351,0.094345,0.18613,0.14244,0.095065,0.22019,0.16845,0.08063,-0.31201,-0.049915,0.24814,0.17673,0.5049,0.026619,0.0058989,0.25523,1.1082,-0.15122,0.72429,-0.036302,0.029183
0.074145,-0.020418,-0.018286,0.0016341,0.13583,0.26785,0.11978,0.09716,0.30548,0.24145,0.081142,-0.35862,-0.12972,0.12914,0.20378,0.45315,0.024634,0.0053956,0.31272,1.1364,-0.20664,0.52424,-0.044442,0.12115
0.07593,-0.020747,-0.024232,0.0022944,0.1682,0.34265,0.094896,0.097318,0.37201,0.26855,0.05232,-0.374,-0.26122,-0.041265,0.23632,0.41563,0.023906,0.0051345,0.36868,1.1437,-0.24378,0.34978,-0.050587,0.2774
0.078617,-0.022435,-0.024259,-0.00032919,0.18589,0.40931,0.064881,0.090343,0.42058,0.24639,0.026935,-0.34106,-0.38338,-0.1364,0.26896,0.3941,0.024304,0.0054375,0.41962,1.144,-0.26111,0.22741,-0.053726,0.46097
0.079106,-0.026041,-0.019016,-0.0026938,0.18911,0.47052,0.027798,0.073068,0.4591,0.17813,0.033824,-0.26441,-0.44303,-0.089434,0.29559,0.37912,0.023971,0.0058352,0.47101,1.1444,-0.2617,0.12593,-0.057471,0.63194
0.075498,-0.031516,-0.011619,-0.0021247,0.18415,0.52652,-0.016748,0.047333,0.49219,0.070007,0.076409,-0.16568,-0.41916,0.06052,0.3101,0.35701,0.021927,0.0059454,0.52446,1.1381,-0.24839,-0.025275,-0.066309,0.76696
0.068677,-0.037592,-0.0061788,0.00072313,0.17951,0.57109,-0.066882,0.01911,0.51459,-0.065904,0.13343,-0.071443,-0.32442,0.18693,0.30565,0.31681,0.019485,0.0059998,0.57206,1.112,-0.22195,-0.2903,-0.081827,0.86199
0.06188,-0.042058,-0.0058199,0.0029351,0.18073,0.5948,-0.11818,-0.0059239,0.51372,-0.20828,0.17861,-0.0016683,-0.1889,0.15745,0.27571,0.25449,0.019014,0.0065353,0.60365,1.0605,-0.18365,-0.68726,-0.10247,0.91923
0.058419,-0.043063,-0.010879,0.0027421,0.1874,0.59358,-0.16499,-0.02655,0.47931,-0.33105,0.20051,0.03661,-0.041724,-0.069912,0.21807,0.17465,0.021349,0.0076446,0.61791,0.99133,-0.13894,-1.1801,-0.12625,0.93321
0.059264,-0.0406,-0.01838,0.0017233,0.19479,0.57428,-0.20303,-0.04598,0.41256,-0.41625,0.20627,0.049778,0.097204,-0.40617,0.13811,0.090467,0.024493,0.0085155,0.62496,0.91897,-0.097614,-1.6987,-0.15259,0.89039
0.062328,-0.036906,-0.023561,0.0034994,0.19809,0.55109,-0.23142,-0.067484,0.32755,-0.46461,0.20925,0.053856,0.21405,-0.68463,0.046981,0.021193,0.024913,0.007636,0.63649,0.85296,-0.069171,-2.1649,-0.18085,0.78256
0.063941,-0.035198,-0.022902,0.010151,0.1958,0.5351,-0.25205,-0.089716,0.24377,-0.49288,0.21399,0.067485,0.29554,-0.77478,-0.04518,-0.013838,0.020274,0.0035116,0.65251,0.79231,-0.057199,-2.5072,-0.20683,0.62137
0.06135,-0.037382,-0.016692,0.019891,0.18958,0.52633,-0.26683,-0.10637,0.17553,-0.51872,0.21244,0.10285,0.33049,-0.66966,-0.13505,-0.0041605,0.011211,-0.0045288,0.65737,0.73081,-0.058002,-2.6647,-0.22161,0.43996
0.054489,-0.042354,-0.0090924,0.028321,0.18161,0.5158,-0.27563,-0.11094,0.12578,-0.54692,0.1925,0.15777,0.3189,-0.47471,-0.22444,0.044003,0.00072539,-0.015818,0.62926,0.66701,-0.065167,-2.597,-0.21519,0.2789
0.045913,-0.046282,-0.0053206,0.032131,0.17222,0.49556,-0.2771,-0.10265,0.088158,-0.57002,0.14919,0.21384,0.27984,-0.3069,-0.31162,0.10648,-0.0080865,-0.028375,0.5554,0.60855,-0.0762,-2.3014,-0.18308,0.16657
0.039119,-0.044929,-0.0078857,0.031791,0.15999,0.46685,-0.27188,-0.088304,0.054396,-0.58225,0.087861,0.24396,0.24865,-0.19077,-0.38376,0.14934,-0.014014,-0.03956,0.44074,0.56698,-0.095266,-1.8288,-0.13088,0.10778
0.036387,-0.036558,-0.014716,0.030799,0.14397,0.43821,-0.26462,-0.078303,0.020801,-0.59137,0.018434,0.22679,0.26238,-0.043077,-0.41938,0.14391,-0.017981,-0.047207,0.30409,0.54819,-0.12967,-1.2759,-0.072908,0.087969
0.037421,-0.023332,-0.020629,0.032316,0.12545,0.41548,-0.26237,-0.079844,-0.010703,-0.61451,-0.051943,0.16002,0.34237,0.23995,-0.40124,0.081049,-0.021684,-0.050681,0.16671,0.54769,-0.1834,-0.75168,-0.025493,0.08887
0.039567,-0.010086,-0.02101,0.036312,0.10759,0.39354,-0.26985,-0.092738,-0.036385,-0.66005,-0.12022,0.063846,0.48567,0.67024,-0.33044,-0.023374,-0.025907,-0.05114,0.043365,0.55447,-0.25324,-0.33519,0.00061593,0.10454
0.03947,-0.0011962,-0.014918,0.039686,0.093236,0.35882,-0.28581,-0.11075,-0.054956,-0.71317,-0.18263,-0.028127,0.66961,1.1311,-0.22982,-0.13544,-0.029824,-0.050628,-0.057953,0.55919,-0.32996,-0.052949,0.0039655,0.14734
0.035201,0.0022158,-0.005382,0.038991,0.082825,0.30064,-0.30399,-0.127,-0.068248,-0.74124,-0.23054,-0.084895,0.86416,1.4497,-0.13286,-0.21913,-0.031643,-0.050512,-0.13058,0.55905,-0.40182,0.11085,-0.0093658,0.24005
0.027408,0.0026638,0.003101,0.033205,0.073985,0.22131,-0.31802,-0.13896,-0.078053,-0.717,-0.25275,-0.090605,1.0423,1.5168,-0.066012,-0.2529,-0.030018,-0.050455,-0.1658,0.5555,-0.45697,0.18165,-0.030835,0.39778
0.018619,0.0039355,0.0078399,0.024254,0.063028,0.13549,-0.32621,-0.14951,-0.082414,-0.63995,-0.24343,-0.046758,1.1838,1.3554,-0.037147,-0.23838,-0.025199,-0.048908,-0.1564,0.54808,-0.48431,0.16545,-0.054018,0.60965
0.011111,0.0078252,0.0095892,0.015184,0.047132,0.059506,-0.33209,-0.1638,-0.075158,-0.53605,-0.2084,0.034626,1.2743,1.0871,-0.037291,-0.19725,-0.019175,-0.044865,-0.10423,0.53076,-0.47593,0.044243,-0.076157,0.83118
0.0049918,0.012592,0.01155,0.0078241,0.025824,3.3301e-005,-0.3404,-0.18475,-0.049786,-0.4351,-0.16341,0.13913,1.3056,0.83838,-0.051833,-0.15888,-0.014647,-0.039419,-0.023456,0.49425,-0.43227,-0.20205,-0.096669,0.99516
-0.0018731,0.014463,0.016684,0.0019,0.00097345,-0.048484,-0.35247,-0.21058,-0.0052638,-0.34527,-0.12507,0.25256,1.2784,0.66869,-0.070802,-0.14526,-0.013372,-0.035549,0.065814,0.43238,-0.36565,-0.56327,-0.11453,1.0387
-0.011914,0.01101,0.025394,-0.0039695,-0.024636,-0.09707,-0.36526,-0.23582,0.050506,-0.24797,-0.10148,0.35838,1.2038,0.57185,-0.09079,-0.16068,-0.014876,-0.036014,0.14983,0.34737,-0.29601,-0.97889,-0.12668,0.93279
-0.025487,0.003554,0.035192,-0.010548,-0.049409,-0.15344,-0.37456,-0.2546,0.1025,-0.11794,-0.089865,0.43611,1.1001,0.52691,-0.10998,-0.1908,-0.016459,-0.040954,0.22935,0.25014,-0.23847,-1.3455,-0.12847,0.6959
-0.040153,-0.0035229,0.042419,-0.017123,-0.074508,-0.21878,-0.37931,-0.26384,0.13528,0.049052,-0.082105,0.46634,0.98494,0.53664,-0.12388,-0.21137,-0.014741,-0.047349,0.31513,0.15587,-0.19157,-1.5522,-0.1159,0.37978
-0.052286,-0.0061373,0.044607,-0.022153,-0.10374,-0.29078,-0.38273,-0.26442,0.14096,0.2262,-0.072786,0.44015,0.86941,0.61691,-0.12731,-0.20223,-0.0079288,-0.05106,0.41263,0.077811,-0.13774,-1.5276,-0.088439,0.035515
-0.059648,-0.0037705,0.041761,-0.024732,-0.14142,-0.36763,-0.38983,-0.25996,0.12355,0.37311,-0.06315,0.36505,0.75852,0.75793,-0.1209,-0.15955,0.0026827,-0.04994,0.50753,0.022777,-0.058339,-1.2741,-0.050896,-0.31662
-0.06274,0.00010882,0.035838,-0.025482,-0.18909,-0.44802,-0.40411,-0.25452,0.096897,0.46632,-0.05906,0.26107,0.65594,0.90575,-0.1145,-0.099387,0.013219,-0.045465,0.56518,-0.0098634,0.048208,-0.86758,-0.012895,-0.68976
-0.063905,0.00082701,0.029192,-0.026029,-0.24325,-0.52803,-0.42665,-0.25064,0.076818,0.51661,-0.066385,0.14939,0.56691,0.9863,-0.12209,-0.050119,0.019626,-0.041468,0.54757,-0.02597,0.16162,-0.42218,0.014619,-1.1011
-0.065213,-0.0038578,0.023372,-0.027474,-0.29569,-0.59989,-0.45787,-0.24855,0.072076,0.55805,-0.088386,0.04269,0.49492,0.94621,-0.1505,-0.037903,0.020376,-0.041003,0.43793,-0.032886,0.25411,-0.039089,0.024999,-1.5321
-0.067106,-0.012251,0.019061,-0.029221,-0.33682,-0.65539,-0.49884,-0.2465,0.079343,0.61802,-0.12626,-0.054976,0.4355,0.76907,-0.19109,-0.074028,0.017492,-0.043963,0.25584,-0.036232,0.31244,0.22905,0.020691,-1.9118
-0.068771,-0.020388,0.01666,-0.029315,-0.35999,-0.69113,-0.54929,-0.24159,0.085328,0.69352,-0.18032,-0.14062,0.37547,0.45647,-0.22235,-0.15183,0.015076,-0.047376,0.050728,-0.038792,0.34783,0.38023,0.01344,-2.1409
-0.069451,-0.025189,0.016536,-0.026112,-0.36417,-0.71,-0.60368,-0.23052,0.074797,0.75318,-0.24926,-0.20611,0.30252,0.005685,-0.22316,-0.25407,0.016522,-0.047949,-0.12368,-0.041751,0.38428,0.43904,0.0181,-2.1477
-0.069184,-0.026365,0.018544,-0.019863,-0.35313,-0.7165,-0.64961,-0.21051,0.039636,0.76263,-0.32827,-0.24059,0.21945,-0.5786,-0.18749,-0.36396,0.022558,-0.044543,-0.23799,-0.047022,0.43499,0.43166,0.042769,-1.9381
-0.068401,-0.025734,0.02149,-0.012755,-0.33184,-0.71014,-0.6719,-0.18006,-0.016527,0.71181,-0.40924,-0.23921,0.15072,-1.2404,-0.12925,-0.47123,0.03147,-0.038495,-0.30018,-0.058577,0.48806,0.3802,0.081909,-1.6058
-0.067241,-0.025018,0.023463,-0.0073107,-0.30283,-0.68379,-0.66059,-0.13966,-0.080777,0.62231,-0.48494,-0.20891,0.13172,-1.8416,-0.073082,-0.56949,0.04084,-0.031783,-0.34517,-0.08133,0.51455,0.31313,0.11841,-1.2892
-0.065613,-0.024368,0.02303,-0.0045505,-0.26543,-0.62972,-0.61703,-0.092084,-0.13861,0.53005,-0.55435,-0.16434,0.1849,-2.1916,-0.037731,-0.64962,0.048989,-0.024957,-0.40952,-0.11786,0.49225,0.27098,0.13438,-1.1008
-0.063952,-0.022837,0.020271,-0.0035273,-0.21856,-0.54853,-0.55292,-0.041965,-0.18187,0.45837,-0.62388,-0.11707,0.29857,-2.1341,-0.024252,-0.69726,0.055082,-0.016758,-0.50912,-0.16506,0.4244,0.29192,0.12306,-1.0714
-0.063506,-0.020035,0.016578,-0.0025492,-0.16484,-0.45263,-0.48316,0.0053858,-0.21204,0.40247,-0.70148,-0.068356,0.42542,-1.6367,-0.017658,-0.6985,0.058546,-0.0056137,-0.63375,-0.21341,0.33796,0.38572,0.092621,-1.1447
-0.065483,-0.017111,0.013286,-0.00086368,-0.11195,-0.36003,-0.41786,0.045665,-0.23724,0.33543,-0.78669,-0.012098,0.5048,-0.81931,6.4391e-005,-0.64937,0.059226,0.0085939,-0.75781,-0.2501,0.26402,0.52146,0.058694,-1.2293
-0.069775,-0.016035,0.010378,0.00074805,-0.069708,-0.28297,-0.35923,0.077169,-0.26557,0.22877,-0.86411,0.055182,0.49567,0.099439,0.036159,-0.56007,0.058461,0.024189,-0.85549,-0.265,0.21811,0.64596,0.031826,-1.2718
-0.074777,-0.01788,0.0065245,0.00087852,-0.044306,-0.22098,-0.30412,0.10147,-0.29975,0.070986,-0.90623,0.1279,0.39878,0.89647,0.083084,-0.44919,0.059621,0.038976,-0.90889,-0.25596,0.19652,0.72164,0.010653,-1.3016
-0.078786,-0.021833,0.00046083,-0.001082,-0.034509,-0.16481,-0.24862,0.12253,-0.3369,-0.12846,-0.88507,0.19521,0.25363,1.418,0.12641,-0.33203,0.06664,0.05183,-0.90835,-0.22999,0.18866,0.75246,-0.013749,-1.412
-0.08177,-0.025885,-0.0075246,-0.0043266,-0.033135,-0.10806,-0.19063,0.14435,-0.37294,-0.34907,-0.78555,0.25121,0.11264,1.5992,0.15718,-0.21275,0.081111,0.063185,-0.8523,-0.19867,0.19188,0.77487,-0.046853,-1.6862
-0.085627,-0.028582,-0.015364,-0.0072534,-0.032901,-0.05652,-0.12977,0.16823,-0.40783,-0.57293,-0.6125,0.30065,0.010076,1.4459,0.17842,-0.086898,0.10046,0.074278,-0.75227,-0.17066,0.21437,0.82162,-0.083424,-2.1159
-0.092483,-0.030223,-0.020526,-0.0086572,-0.03185,-0.026827,-0.066945,0.19135,-0.44663,-0.79111,-0.38761,0.35345,-0.054198,1.0141,0.20113,0.04878,0.11924,0.086115,-0.63769,-0.14614,0.26545,0.89082,-0.11068,-2.5725
-0.10249,-0.032445,-0.02188,-0.0085114,-0.033849,-0.034952,-0.0053173,0.2081,-0.49541,-0.99963,-0.13953,0.41229,-0.1075,0.4051,0.23438,0.18904,0.13279,0.099062,-0.54965,-0.11771,0.34415,0.94747,-0.11885,-2.855
-0.11321,-0.036584,-0.020717,-0.0079032,-0.043994,-0.084062,0.048963,0.21352,-0.55528,-1.1905,0.10584,0.46534,-0.18108,-0.24093,0.2781,0.3221,0.14014,0.11301,-0.52021,-0.077548,0.4376,0.95467,-0.10947,-2.7912
-0.12115,-0.04221,-0.020186,-0.0083652,-0.063328,-0.16146,0.088706,0.20695,-0.61987,-1.3462,0.32952,0.49219,-0.2884,-0.77925,0.32391,0.43835,0.14367,0.12739,-0.54981,-0.025487,0.52943,0.905,-0.09426,-2.3325
-0.12424,-0.047078,-0.023503,-0.011078,-0.087643,-0.24659,0.1106,0.19309,-0.67898,-1.4428,0.51778,0.47949,-0.41954,-1.1202,0.36157,0.53648,0.14614,0.14079,-0.60332,0.028188,0.60852,0.82399,-0.085887,-1.5853
-0.12308,-0.048577,-0.03201,-0.01625,-0.11108,-0.32293,0.11936,0.17946,-0.72584,-1.4603,0.65938,0.43328,-0.55326,-1.2758,0.38421,0.62042,0.14805,0.15077,-0.63365,0.067565,0.66939,0.74463,-0.088937,-0.76258
-0.12027,-0.045635,-0.044271,-0.022841,-0.13067,-0.38429,0.12659,0.17217,-0.7621,-1.3943,0.7464,0.37761,-0.67463,-1.35,0.38827,0.69032,0.1477,0.15467,-0.61858,0.079467,0.70596,0.67842,-0.098154,-0.081461
-0.11864,-0.039701,-0.056832,-0.028773,-0.14731,-0.43198,0.14392,0.17289,-0.79652,-1.2617,0.77931,0.33997,-0.78288,-1.4679,0.37048,0.73736,0.1433,0.15113,-0.58125,0.058525,0.70826,0.61017,-0.10435,0.33519
-0.1197,-0.033981,-0.066282,-0.031714,-0.1626,-0.46747,0.1751,0.17935,-0.83773,-1.094,0.77145,0.33452,-0.88331,-1.6868,0.32768,0.74926,0.13457,0.14123,-0.57493,0.0055532,0.66848,0.51982,-0.10221,0.50249
-0.12333,-0.031296,-0.071368,-0.030188,-0.17511,-0.48849,0.21325,0.18826,-0.8862,-0.92296,0.7468,0.35539,-0.97237,-1.9524,0.26217,0.72272,0.12227,0.12796,-0.64141,-0.077262,0.59168,0.40907,-0.093766,0.54135
-0.12829,-0.031991,-0.073677,-0.024439,-0.18048,-0.49204,0.24561,0.19777,-0.93092,-0.7656,0.72957,0.38354,-1.032,-2.1309,0.188,0.671,0.10671,0.11432,-0.77565,-0.18755,0.49945,0.30648,-0.086037,0.59249
-0.13301,-0.033532,-0.076277,-0.016489,-0.17575,-0.48064,0.26197,0.20729,-0.95336,-0.61838,0.7314,0.40022,-1.0417,-2.092,0.13043,0.6181,0.087397,0.10159,-0.92551,-0.31744,0.41975,0.24487,-0.085688,0.72974
-0.13627,-0.032427,-0.081272,-0.0092909,-0.16395,-0.46491,0.26056,0.21534,-0.93673,-0.46631,0.7457,0.39652,-0.99999,-1.7862,0.11449,0.58206,0.064699,0.089069,-1.0265,-0.44697,0.36915,0.2295,-0.095164,0.92608
-0.13764,-0.027209,-0.088145,-0.005416,-0.15423,-0.45872,0.2475,0.21834,-0.87528,-0.29957,0.75406,0.3733,-0.93429,-1.2676,0.14827,0.56051,0.041546,0.075424,-1.0428,-0.54549,0.34183,0.22364,-0.11233,1.0907
-0.13763,-0.020053,-0.094248,-0.0059414,-0.15649,-0.46995,0.23151,0.21234,-0.77771,-0.12497,0.74081,0.33426,-0.88737,-0.65968,0.21296,0.53072,0.022659,0.060138,-0.98238,-0.5846,0.31505,0.16332,-0.13279,1.1452
-0.13732,-0.015336,-0.097019,-0.010064,-0.17423,-0.49387,0.21848,0.19649,-0.66201,0.037781,0.70456,0.27983,-0.88698,-0.096942,0.26966,0.46619,0.011227,0.043952,-0.87884,-0.55564,0.26668,-0.0094075,-0.1525,1.0782
-0.13764,-0.015932,-0.096036,-0.015584,-0.20107,-0.51416,0.20979,0.17482,-0.54433,0.1721,0.65793,0.20729,-0.92379,0.32174,0.28136,0.35884,0.0058241,0.028167,-0.76044,-0.4778,0.19094,-0.31755,-0.16897,0.93686
-0.1387,-0.020348,-0.093267,-0.020024,-0.22409,-0.51086,0.20446,0.15413,-0.42936,0.2787,0.61589,0.11659,-0.95768,0.55183,0.237,0.2314,0.00080039,0.013815,-0.63505,-0.38851,0.10061,-0.74075,-0.1804,0.76759
-0.13993,-0.023472,-0.091442,-0.021851,-0.23166,-0.47009,0.20229,0.13911,-0.30954,0.3746,0.58266,0.015855,-0.94941,0.60231,0.16091,0.13033,-0.0095381,0.0015169,-0.50015,-0.32159,0.016219,-1.227,-0.1842,0.56238
-0.14084,-0.020786,-0.092025,-0.02117,-0.22049,-0.3899,0.20513,0.12882,-0.17443,0.4766,0.54858,-0.078884,-0.89181,0.52594,0.099638,0.10218,-0.02618,-0.0081174,-0.3621,-0.28895,-0.047238,-1.7119,-0.17651,0.26342
-0.14173,-0.012564,-0.094373,-0.019527,-0.19695,-0.28,0.21528,0.11786,-0.023441,0.5839,0.49961,-0.15048,-0.81416,0.40183,0.093689,0.16687,-0.044122,-0.01434,-0.24161,-0.27927,-0.085675,-2.1315,-0.15407,-0.17586
-0.14356,-0.0042404,-0.096502,-0.018952,-0.1723,-0.15707,0.23266,0.10129,0.12861,0.67612,0.43165,-0.18917,-0.75665,0.30682,0.15283,0.30422,-0.055786,-0.016744,-0.15898,-0.27316,-0.10195,-2.4274,-0.11754,-0.72863
-0.14703,-0.0022624,-0.096625,-0.020907,-0.15542,-0.038428,0.25308,0.079127,0.25839,0.72992,0.35723,-0.1966,-0.73825,0.28215,0.25127,0.46311,-0.056484,-0.015896,-0.11505,-0.26138,-0.099556,-2.5477,-0.073396,-1.2919
-0.15168,-0.0087999,-0.094298,-0.02578,-0.14834,0.063092,0.26954,0.05637,0.34855,0.73982,0.29815,-0.18279,-0.74713,0.31487,0.34511,0.58911,-0.047667,-0.013333,-0.088803,-0.25103,-0.080958,-2.4544,-0.031645,-1.7506
-0.15594,-0.019869,-0.090643,-0.033109,-0.14708,0.14163,0.27608,0.038478,0.39823,0.72401,0.26952,-0.1591,-0.76097,0.35093,0.39871,0.65424,-0.035661,-0.01078,-0.05638,-0.25626,-0.050924,-2.1365,0.00025168,-2.0545
-0.15826,-0.028513,-0.087692,-0.042119,-0.14635,0.19761,0.27177,0.026324,0.42108,0.70815,0.26804,-0.13295,-0.77648,0.33504,0.40119,0.6695,-0.027182,-0.0092388,-0.013946,-0.28291,-0.018929,-1.6241,0.022825,-2.2373
-0.15835,-0.030275,-0.087223,-0.052,-0.1438,0.23489,0.2618,0.015236,0.4331,0.70042,0.27444,-0.10819,-0.81827,0.25008,0.36354,0.67131,-0.025188,-0.0087671,0.017827,-0.32105,0.0040742,-0.99344,0.044128,-2.3621
-0.15721,-0.026287,-0.089542,-0.061711,-0.14087,0.25778,0.254,-0.00095941,0.44112,0.68017,0.26888,-0.089376,-0.9169,0.12704,0.30224,0.69063,-0.027876,-0.0090546,0.01319,-0.35135,0.012683,-0.35609,0.072338,-2.4411
-0.15597,-0.021557,-0.092841,-0.069692,-0.13997,0.27034,0.25258,-0.024438,0.44162,0.61208,0.24696,-0.084476,-1.0754,0.020304,0.22549,0.7272,-0.031021,-0.010152,-0.032484,-0.35908,0.011005,0.16732,0.1069,-2.4089
-0.15446,-0.020325,-0.093846,-0.074013,-0.14115,0.27793,0.25382,-0.051224,0.42973,0.47657,0.22328,-0.10188,-1.2555,-0.029638,0.13317,0.74805,-0.031458,-0.012596,-0.093611,-0.34425,0.0088643,0.48141,0.13635,-2.1777
-0.15083,-0.0227,-0.08982,-0.073132,-0.14099,0.28867,0.24773,-0.074104,0.409,0.29231,0.2191,-0.14239,-1.3967,-0.016014,0.028452,0.71177,-0.029104,-0.016803,-0.13092,-0.3202,0.01299,0.54875,0.14619,-1.7299
-0.14283,-0.025299,-0.080808,-0.066838,-0.13443,0.31155,0.22607,-0.087856,0.39243,0.11215,0.24349,-0.19238,-1.4534,0.04303,-0.072411,0.59975,-0.026325,-0.022348,-0.11909,-0.30295,0.021162,0.40761,0.13133,-1.164
-0.12961,-0.024802,-0.07028,-0.056615,-0.11756,0.35092,0.19102,-0.092282,0.3939,-0.0058322,0.28276,-0.2249,-1.4162,0.12754,-0.14333,0.43037,-0.025535,-0.027836,-0.061653,-0.30011,0.024913,0.16341,0.10242,-0.64851
-0.11261,-0.020891,-0.063167,-0.044973,-0.089363,0.40162,0.15713,-0.090893,0.41825,-0.031469,0.30651,-0.21105,-1.3037,0.23021,-0.16373,0.24642,-0.027034,-0.031601,0.018479,-0.30755,0.018353,-0.049861,0.07951,-0.31602
-0.094745,-0.015983,-0.062338,-0.03407,-0.051366,0.44962,0.14308,-0.087197,0.45891,0.023162,0.28563,-0.13684,-1.1354,0.35291,-0.1334,0.087652,-0.028707,-0.032729,0.10279,-0.31503,0.0047252,-0.12625,0.07726,-0.18399
-0.078613,-0.012367,-0.06626,-0.024553,-0.0063959,0.47971,0.15816,-0.082363,0.50461,0.11648,0.20922,-0.015344,-0.91585,0.49572,-0.073859,-0.028498,-0.027662,-0.031662,0.19393,-0.31582,-0.0057975,-0.034903,0.093744,-0.16315
-0.065173,-0.0097347,-0.070001,-0.015546,0.042275,0.48491,0.1939,-0.076116,0.54812,0.20579,0.08929,0.11473,-0.64407,0.65313,-0.014675,-0.10461,-0.022377,-0.029923,0.31192,-0.31267,-0.0054677,0.17094,0.11246,-0.1407
-0.053784,-0.0055074,-0.069087,-0.005856,0.091032,0.47018,0.22879,-0.06917,0.58933,0.27053,-0.047808,0.20569,-0.33901,0.81929,0.024576,-0.14668,-0.013678,-0.029147,0.47474,-0.31592,0.002826,0.39166,0.11607,-0.064739
-0.043219,0.0024117,-0.063102,0.0044909,0.13597,0.44706,0.24373,-0.063955,0.63106,0.31598,-0.17541,0.22432,-0.05084,0.99055,0.043354,-0.15269,-0.0039273,-0.030083,0.67996,-0.3349,0.0059754,0.5438,0.10026,0.036922
-0.032606,0.013126,-0.055903,0.01371,0.17358,0.4236,0.23636,-0.062398,0.67304,0.35841,-0.27665,0.16811,0.15682,1.1566,0.055356,-0.11847,0.0047104,-0.032223,0.90059,-0.36859,-0.010253,0.60645,0.076405,0.10789
-0.021652,0.022871,-0.052126,0.019307,0.20184,0.3982,0.22239,-0.062821,0.71007,0.40514,-0.34694,0.06371,0.24229,1.2883,0.076329,-0.053503,0.011433,-0.034289,1.0952,-0.40194,-0.050597,0.6213,0.061265,0.12878
-0.010355,0.027725,-0.053022,0.020028,0.2206,0.36231,0.22239,-0.059375,0.7351,0.4445,-0.39124,-0.051551,0.20906,1.3406,0.11493,0.012512,0.016615,-0.035244,1.2232,-0.41165,-0.10619,0.6495,0.063303,0.13727
0.0011783,0.026562,-0.055336,0.017169,0.23067,0.30895,0.24514,-0.045201,0.74297,0.45168,-0.41999,-0.15253,0.097009,1.2795,0.17141,0.043653,0.020708,-0.035115,1.2567,-0.37902,-0.15949,0.71985,0.076963,0.19068
0.012633,0.021752,-0.054226,0.014104,0.23236,0.23933,0.28182,-0.017051,0.73116,0.40523,-0.44552,-0.23797,-0.050499,1.114,0.24066,0.022489,0.023258,-0.035123,1.187,-0.30308,-0.19417,0.80698,0.088645,0.31206
0.023488,0.017175,-0.047505,0.01427,0.22491,0.16252,0.31625,0.022401,0.69832,0.30193,-0.47822,-0.32383,-0.21436,0.9032,0.31353,-0.037108,0.022771,-0.037049,1.0273,-0.20568,-0.20321,0.85277,0.087834,0.47003
0.033428,0.015347,-0.037295,0.019056,0.20824,0.09053,0.34138,0.066245,0.64429,0.15992,-0.52268,-0.42511,-0.39814,0.72467,0.37506,-0.10316,0.017361,-0.042364,0.80994,-0.12381,-0.1912,0.81125,0.073479,0.60603
0.042888,0.016024,-0.027722,0.027052,0.18581,0.034611,0.36671,0.10723,0.57272,0.0084967,-0.57552,-0.54099,-0.59956,0.62533,0.40433,-0.15552,0.0057569,-0.051653,0.57526,-0.09203,-0.17061,0.68203,0.051337,0.67902
0.053052,0.017152,-0.021124,0.034973,0.16608,0.0057246,0.40886,0.14048,0.49306,-0.12868,-0.62741,-0.65475,-0.78245,0.59703,0.38041,-0.20677,-0.011741,-0.064577,0.35536,-0.1247,-0.15526,0.50985,0.026552,0.68726
0.065071,0.016992,-0.016594,0.039425,0.16006,0.015415,0.47369,0.16332,0.41738,-0.2457,-0.66841,-0.7474,-0.87841,0.60091,0.29273,-0.29485,-0.032819,-0.080099,0.15993,-0.20982,-0.15388,0.35469,-0.00088575,0.65489
0.079122,0.01547,-0.012139,0.038403,0.17523,0.072073,0.54671,0.17371,0.35211,-0.35456,-0.69343,-0.81388,-0.82347,0.62048,0.14826,-0.45187,-0.053732,-0.096668,-0.023959,-0.3195,-0.16653,0.25616,-0.034274,0.60448
0.094253,0.013812,-0.0079096,0.031952,0.20989,0.17311,0.6018,0.16991,0.29104,-0.47425,-0.70415,-0.86952,-0.60513,0.69407,-0.030803,-0.67416,-0.071081,-0.11236,-0.21621,-0.43052,-0.18521,0.21578,-0.075079,0.54464
0.10928,0.013192,-0.006685,0.022056,0.25252,0.30051,0.62184,0.15225,0.21636,-0.61724,-0.70677,-0.94233,-0.28296,0.89138,-0.21716,-0.91707,-0.083941,-0.12529,-0.42268,-0.54,-0.19887,0.20459,-0.12023,0.4794
0.12387,0.013843,-0.010708,0.011906,0.2877,0.42687,0.61312,0.12498,0.10912,-0.78311,-0.70784,-1.0564,0.036254,1.2482,-0.38798,-1.1175,-0.094618,-0.13433,-0.62462,-0.66355,-0.20037,0.18658,-0.16397,0.42136
0.13871,0.015317,-0.018066,0.0045634,0.30493,0.53018,0.60046,0.095656,-0.037586,-0.96315,-0.71064,-1.2153,0.25479,1.7131,-0.52662,-1.2259,-0.10681,-0.13975,-0.78707,-0.81672,-0.19135,0.141,-0.20105,0.38883
0.15446,0.01728,-0.022885,0.0013288,0.30378,0.60627,0.60638,0.071432,-0.21172,-1.1505,-0.71316,-1.3938,0.33285,2.1531,-0.61813,-1.226,-0.12204,-0.1429,-0.8799,-0.99447,-0.18153,0.071343,-0.22729,0.38828
0.17049,0.019758,-0.020078,0.00072537,0.29173,0.66799,0.63189,0.054991,-0.38658,-1.3459,-0.7075,-1.5417,0.29708,2.4198,-0.64708,-1.1335,-0.13714,-0.1448,-0.89576,-1.1663,-0.18244,-0.0013995,-0.23704,0.40248
0.18496,0.022574,-0.010551,-0.00083873,0.27657,0.7311,0.65477,0.043368,-0.53278,-1.5517,-0.68114,-1.6002,0.20671,2.431,-0.60445,-0.98324,-0.14533,-0.14468,-0.85208,-1.2923,-0.1997,-0.054246,-0.22198,0.40121
0.19613,0.024755,-0.0015447,-0.0066613,0.26003,0.79893,0.64662,0.030759,-0.63043,-1.7586,-0.62118,-1.5268,0.10768,2.2116,-0.4998,-0.81799,-0.14077,-0.13982,-0.77658,-1.3491,-0.22928,-0.076197,-0.17476,0.36843
0.20397,0.024852,-0.00091005,-0.017075,0.23767,0.85919,0.59393,0.013162,-0.67477,-1.9339,-0.52111,-1.318,0.011338,1.8747,-0.36638,-0.68065,-0.12317,-0.12748,-0.68728,-1.3447,-0.26033,-0.072473,-0.096275,0.3217
0.21031,0.022078,-0.0099228,-0.028645,0.20466,0.89543,0.50671,-0.0086163,-0.67442,-2.0256,-0.38668,-1.0183,-0.089583,1.5587,-0.24984,-0.60502,-0.098715,-0.10752,-0.58047,-1.3123,-0.28214,-0.05704,0.00011878,0.30491
0.21747,0.017181,-0.021235,-0.036159,0.16177,0.90217,0.4093,-0.029565,-0.64498,-1.9828,-0.23601,-0.70664,-0.18908,1.3597,-0.18425,-0.60038,-0.076333,-0.08357,-0.43477,-1.2887,-0.29015,-0.038582,0.092301,0.35866
0.22638,0.012076,-0.02433,-0.036096,0.11604,0.88978,0.32286,-0.043966,-0.60197,-1.7828,-0.092602,-0.46357,-0.25507,1.289,-0.17242,-0.63872,-0.061928,-0.061225,-0.23004,-1.2937,-0.28675,-0.0095784,0.15979,0.49216
0.23608,0.0084787,-0.01414,-0.028916,0.075614,0.87492,0.25381,-0.049255,-0.5554,-1.4513,0.024971,-0.3357,-0.25182,1.2722,-0.18637,-0.6608,-0.05506,-0.044423,0.02817,-1.3254,-0.27703,0.052865,0.19316,0.67742
0.24472,0.0067975,0.00458,-0.018434,0.043279,0.86571,0.19545,-0.047879,-0.5072,-1.0597,0.10992,-0.31761,-0.17913,1.1904,-0.18925,-0.60704,-0.050383,-0.0329,0.29268,-1.3696,-0.26366,0.17265,0.19532,0.86676
0.25109,0.0062798,0.020976,-0.0089692,0.014381,0.85528,0.13817,-0.046142,-0.45229,-0.70058,0.16663,-0.36093,-0.089965,0.95156,-0.16263,-0.45751,-0.042474,-0.023066,0.48053,-1.413,-0.24534,0.35429,0.17464,1.0172
0.25533,0.0061254,0.026709,-0.0027103,-0.019138,0.82906,0.078129,-0.050744,-0.38351,-0.45047,0.20462,-0.40401,-0.063464,0.55935,-0.1185,-0.25142,-0.030195,-0.011706,0.50518,-1.4492,-0.21983,0.57018,0.13681,1.1045
0.2583,0.0063403,0.022147,0.00068628,-0.061994,0.77849,0.018014,-0.064868,-0.29844,-0.3386,0.23257,-0.40337,-0.14735,0.1336,-0.087519,-0.066769,-0.017374,0.00074356,0.32358,-1.4749,-0.18839,0.76706,0.082933,1.1235
0.26057,0.0074894,0.015135,0.0024181,-0.11153,0.70842,-0.038346,-0.086122,-0.20382,-0.33846,0.25636,-0.3493,-0.31327,-0.14936,-0.094131,0.028981,-0.0095931,0.010448,-0.028312,-1.4855,-0.15699,0.89198,0.014924,1.082
0.26204,0.0097598,0.013939,0.0027191,-0.15939,0.63208,-0.091257,-0.10782,-0.11376,-0.38756,0.2797,-0.26108,-0.46309,-0.17962,-0.13875,0.022036,-0.0096998,0.013982,-0.43815,-1.4731,-0.13225,0.9233,-0.058237,0.99652
0.26219,0.012462,0.020654,0.00069264,-0.1972,0.55899,-0.1457,-0.12316,-0.042251,-0.4242,0.30404,-0.17055,-0.48752,-0.027927,-0.20005,-0.043295,-0.015314,0.012384,-0.76419,-1.4316,-0.11513,0.88482,-0.12092,0.88923
0.26052,0.014537,0.03047,-0.0042229,-0.22185,0.48705,-0.20759,-0.12975,0.0048086,-0.41973,0.3265,-0.1066,-0.33853,0.035878,-0.25334,-0.1013,-0.019981,0.011611,-0.90232,-1.3597,-0.097862,0.82959,-0.1592,0.78219
0.25669,0.01545,0.036679,-0.010804,-0.23666,0.40533,-0.27956,-0.13109,0.031918,-0.38623,0.33914,-0.086542,-0.065585,-0.34177,-0.28892,-0.11254,-0.016976,0.018567,-0.83167,-1.261,-0.067692,0.80095,-0.17036,0.68883
0.25041,0.015451,0.03662,-0.016214,-0.24827,0.30432,-0.3592,-0.13369,0.048936,-0.3565,0.33337,-0.11201,0.20897,-1.3975,-0.31626,-0.085016,-0.0031499,0.035767,-0.60981,-1.1408,-0.015467,0.79836,-0.16471,0.60915
0.24162,0.014929,0.033535,-0.017834,-0.26192,0.18392,-0.44037,-0.14162,0.063074,-0.35258,0.30868,-0.16546,0.35822,-3.0785,-0.35261,-0.054986,0.019577,0.059077,-0.32464,-1.0043,0.057008,0.77539,-0.15683,0.53454
0.23081,0.013751,0.0334,-0.015241,-0.27867,0.052849,-0.51578,-0.15261,0.074605,-0.36676,0.27892,-0.20958,0.31766,-5.0057,-0.40614,-0.047939,0.04566,0.080471,-0.040556,-0.85827,0.13638,0.67403,-0.15309,0.45929
0.21923,0.011475,0.040031,-0.010629,-0.2958,-0.078692,-0.57939,-0.1589,0.0793,-0.3682,0.26897,-0.19665,0.11133,-6.6068,-0.46592,-0.054906,0.069023,0.093577,0.22319,-0.71551,0.20431,0.46929,-0.14602,0.38835
0.20852,0.0083193,0.052607,-0.0073063,-0.30922,-0.20523,-0.62776,-0.15228,0.074516,-0.32765,0.30155,-0.090258,-0.17247,-7.3571,-0.50392,-0.043519,0.08572,0.097568,0.47356,-0.5942,0.24631,0.18738,-0.12138,0.33293
0.19986,0.0056554,0.06706,-0.0074008,-0.3157,-0.32545,-0.66032,-0.12941,0.063122,-0.23935,0.38226,0.11052,-0.43354,-7.0086,-0.48665,0.0082444,0.094799,0.096517,0.70967,-0.5119,0.25695,-0.11839,-0.072788,0.29686
0.19354,0.0051408,0.079381,-0.010488,-0.31344,-0.43645,-0.67869,-0.093519,0.052254,-0.12354,0.49402,0.36264,-0.6063,-5.6931,-0.39126,0.086699,0.097392,0.095204,0.90729,-0.47705,0.23881,-0.41366,-0.011838,0.2666
0.18912,0.0070448,0.08782,-0.014008,-0.30162,-0.52971,-0.68548,-0.051392,0.049029,-0.010611,0.60565,0.59752,-0.67743,-3.8532,-0.22076,0.14764,0.095093,0.095077,1.0338,-0.48504,0.19796,-0.70978,0.035951,0.2163
