2.5274e-010,6.3474e-010,-3.2605e-010,-2.1801e-010,-1.0225e-010,9.5887e-010,-4.2638e-010,3.9937e-010,-2.4502e-010,1.0129e-009,-1.3756e-009,1.3698e-010,1.0283e-009,-4.0535e-009,1.4875e-009,-5.0741e-010,2.4599e-009,5.8844e-010,6.9262e-010,1.2135e-009,-9.2028e-010,7.4664e-010,1.3293e-009,-7.505e-010
7.042e-009,1.7571e-008,-9.0023e-009,-6.0129e-009,-2.8372e-009,2.6219e-008,-1.1667e-008,1.072e-008,-6.7708e-009,2.794e-008,-3.7893e-008,3.901e-009,2.8327e-008,-1.1144e-007,4.1144e-008,-1.3562e-008,6.821e-008,1.645e-008,1.8927e-008,3.3581e-008,-2.5357e-008,2.1011e-008,3.639e-008,-1.9794e-008
9.5304e-008,2.3654e-007,-1.2096e-007,-8.0582e-008,-3.8027e-008,3.4825e-007,-1.5497e-007,1.3944e-007,-9.0882e-008,3.7497e-007,-5.0737e-007,5.3913e-008,3.7936e-007,-1.4879e-006,5.5355e-007,-1.7539e-007,9.1979e-007,2.2383e-007,2.5138e-007,4.5126e-007,-3.3986e-007,2.8735e-007,4.8399e-007,-2.5202e-007
8.3477e-007,2.0635e-006,-1.0539e-006,-6.9896e-007,-3.2744e-007,2.9932e-006,-1.3308e-006,1.1703e-006,-7.8922e-007,3.2628e-006,-4.399e-006,4.8177e-007,3.2902e-006,-1.2851e-005,4.8268e-006,-1.4605e-006,8.0359e-006,1.9752e-006,2.1617e-006,3.9227e-006,-2.9523e-006,2.5438e-006,4.1663e-006,-2.0594e-006
5.3198e-006,1.3114e-005,-6.6946e-006,-4.4088e-006,-2.0308e-006,1.8711e-005,-8.3014e-006,7.1158e-006,-4.9821e-006,2.0698e-005,-2.7754e-005,3.1293e-006,2.0772e-005,-8.0663e-005,3.0662e-005,-8.7873e-006,5.1129e-005,1.2706e-005,1.3525e-005,2.4787e-005,-1.8687e-005,1.6376e-005,2.6088e-005,-1.2103e-005
2.629e-005,6.4708e-005,-3.304e-005,-2.1536e-005,-9.6289e-006,9.0629e-005,-4.0049e-005,3.3355e-005,-2.4347e-005,0.00010203,-0.00013575,1.5745e-005,0.00010169,-0.0003919,0.0001512,-4.0615e-005,0.00025244,6.3479e-005,6.5589e-005,0.00012128,-9.184e-005,8.163e-005,0.00012658,-5.4252e-005
0.00010486,0.000258,-0.00013184,-8.4679e-005,-3.6081e-005,0.0003538,-0.00015531,0.00012516,-9.576e-005,0.00040672,-0.0005353,6.3854e-005,0.00040155,-0.0015321,0.00060211,-0.00014954,0.0010062,0.00025627,0.0002564,0.00047783,-0.00036462,0.00032749,0.00049498,-0.0001915
0.00034687,0.00085399,-0.00043692,-0.00027485,-0.00010853,0.001143,-0.0004965,0.00038506,-0.00031096,0.0013474,-0.0017471,0.00021444,0.0013128,-0.0049445,0.0019885,-0.00044816,0.003325,0.0008585,0.00082935,0.0015561,-0.0012009,0.0010846,0.0016013,-0.00053951
0.0009705,0.0023925,-0.0012256,-0.00074865,-0.00026138,0.0031122,-0.0013303,0.00098554,-0.0008481,0.0037814,-0.0048053,0.00060791,0.003619,-0.013399,0.005548,-0.0011048,0.0092808,0.0024315,0.0022602,0.0042647,-0.0033424,0.0030151,0.004364,-0.0012044
0.0023308,0.0057542,-0.0029495,-0.0017282,-0.00048646,0.0072352,-0.0030183,0.0021127,-0.0019641,0.009119,-0.011279,0.0014756,0.0085168,-0.030825,0.01325,-0.0022375,0.022174,0.0059008,0.005255,0.0099605,-0.0079636,0.0071101,0.010145,-0.0020305
0.004861,0.012008,-0.0061496,-0.0033923,-0.0006054,0.014488,-0.0058232,0.0037854,-0.0038838,0.019094,-0.022781,0.0031004,0.01725,-0.060527,0.027334,-0.0036477,0.045776,0.012386,0.010509,0.019989,-0.016381,0.014289,0.020279,-0.0020955
0.008887,0.021915,-0.011178,-0.0056347,-7.0277e-005,0.025116,-0.0095294,0.0055768,-0.0065543,0.034977,-0.039771,0.005688,0.030192,-0.10139,0.048977,-0.0044689,0.082155,0.022627,0.018158,0.034632,-0.029224,0.024418,0.035013,0.00085069
0.014364,0.035195,-0.01777,-0.0077693,0.0021973,0.03777,-0.013056,0.0064297,-0.0093544,0.056354,-0.060077,0.0091826,0.045654,-0.14357,0.076417,-0.0030304,0.12862,0.036101,0.027128,0.051866,-0.045227,0.035024,0.052238,0.010426
0.020702,0.049969,-0.024708,-0.0084196,0.0077101,0.049182,-0.014461,0.0048649,-0.011003,0.080127,-0.07828,0.013156,0.059298,-0.1675,0.10375,0.0026439,0.17581,0.050354,0.034934,0.067012,-0.060394,0.040629,0.067092,0.030441
0.026871,0.062974,-0.029918,-0.0058727,0.017865,0.055129,-0.011709,-0.00026231,-0.0099337,0.10074,-0.087287,0.016935,0.065183,-0.1502,0.12203,0.013564,0.20953,0.061317,0.038457,0.074296,-0.068577,0.03392,0.073487,0.062462
0.031821,0.070761,-0.03123,0.0010436,0.033016,0.052639,-0.0040574,-0.0087471,-0.0051447,0.11216,-0.082122,0.019995,0.058654,-0.078566,0.12338,0.028288,0.21719,0.065017,0.035654,0.070183,-0.063995,0.0090717,0.06749,0.10336
0.034955,0.071343,-0.027541,0.01196,0.051648,0.04225,0.006768,-0.018487,0.0029003,0.11086,-0.063863,0.022431,0.039651,0.037241,0.10614,0.042399,0.19587,0.06006,0.027176,0.056404,-0.044818,-0.034267,0.050633,0.14508
0.03627,0.065201,-0.019712,0.02458,0.070386,0.028547,0.016774,-0.026071,0.012034,0.098137,-0.040436,0.025109,0.013953,0.16155,0.077571,0.049939,0.15621,0.049258,0.016453,0.039907,-0.015564,-0.089205,0.030314,0.17797
0.036003,0.054812,-0.010472,0.035451,0.085189,0.017988,0.021742,-0.028449,0.019249,0.07972,-0.022486,0.029259,-0.0093741,0.24797,0.050997,0.046533,0.11775,0.038906,0.0076413,0.028663,0.013937,-0.14418,0.015921,0.19639
0.034079,0.042982,-0.0031401,0.041651,0.093251,0.01507,0.020103,-0.024696,0.022343,0.062717,-0.016369,0.035639,-0.023284,0.26507,0.038002,0.032386,0.097227,0.035624,0.0026032,0.025843,0.033242,-0.18888,0.012688,0.20236
0.030002,0.031313,0.00014502,0.042326,0.094385,0.019436,0.014564,-0.01664,0.02128,0.051635,-0.019436,0.043818,-0.027232,0.21576,0.040784,0.012941,0.098022,0.04263,-0.00063635,0.027084,0.037095,-0.21936,0.017797,0.20362
0.023514,0.02006,-0.00048778,0.038891,0.090803,0.026182,0.010829,-0.0078218,0.018248,0.046299,-0.021855,0.052115,-0.027227,0.13521,0.050398,-0.0036614,0.10873,0.057958,-0.0063179,0.023801,0.028421,-0.23811,0.022164,0.20637
0.015596,0.0093499,-0.0030528,0.033673,0.085316,0.029346,0.013861,-0.0015284,0.01621,0.043076,-0.014224,0.05833,-0.031051,0.067095,0.052797,-0.01081,0.11271,0.075857,-0.017148,0.010439,0.016183,-0.24858,0.01703,0.20826
0.0087723,0.00039555,-0.0053755,0.028068,0.079343,0.026073,0.024234,0.00078473,0.016931,0.03825,0.0048382,0.06081,-0.042196,0.035461,0.038472,-0.0064632,0.10101,0.090261,-0.031392,-0.010386,0.009507,-0.24855,0.00028698,0.19811
0.0059419,-0.0047682,-0.0067682,0.021782,0.072306,0.018378,0.037478,-0.0001691,0.019846,0.030753,0.027407,0.059136,-0.057308,0.033358,0.0084992,0.0069477,0.078396,0.097827,-0.043585,-0.029642,0.012284,-0.22824,-0.022476,0.1639
0.0081768,-0.0050214,-0.0083675,0.013891,0.062889,0.01133,0.047168,-0.0022268,0.02257,0.022158,0.042483,0.053988,-0.069108,0.035832,-0.02733,0.025187,0.057795,0.098715,-0.048622,-0.039411,0.022005,-0.17574,-0.042794,0.1032
0.013189,-0.0017544,-0.011798,0.0047614,0.050928,0.0092568,0.049549,-0.0027992,0.022561,0.014325,0.04461,0.046404,-0.072204,0.024512,-0.058168,0.044933,0.048611,0.095227,-0.04584,-0.039683,0.033098,-0.085793,-0.055665,0.02711
0.016161,0.001453,-0.017235,-0.0030095,0.038091,0.012929,0.046126,0.00028532,0.018667,0.0071118,0.037813,0.037132,-0.066953,0.0022774,-0.078994,0.064354,0.049169,0.089833,-0.039572,-0.038333,0.041515,0.03458,-0.062114,-0.046248
0.012942,0.0011912,-0.022584,-0.0058146,0.026606,0.019622,0.04225,0.0080883,0.011506,-0.0016301,0.031877,0.026684,-0.058451,-0.013305,-0.091561,0.081602,0.049251,0.083941,-0.035626,-0.044322,0.04683,0.16843,-0.066466,-0.10379
0.0034014,-0.0032142,-0.024714,-0.0016538,0.017161,0.025537,0.04296,0.019983,0.0026799,-0.013805,0.034475,0.016028,-0.052035,-0.0095219,-0.099919,0.093375,0.039365,0.077709,-0.036786,-0.060225,0.050872,0.29717,-0.071582,-0.14506
-0.0079663,-0.0091478,-0.021954,0.0080128,0.0080079,0.028362,0.049475,0.033596,-0.0062904,-0.028725,0.045739,0.0071107,-0.049388,0.0082332,-0.10564,0.095586,0.017929,0.070423,-0.041187,-0.080531,0.055052,0.40835,-0.076605,-0.17929
-0.015199,-0.012711,-0.015803,0.018931,-0.0036835,0.028103,0.058952,0.045764,-0.014439,-0.042963,0.059245,0.0022645,-0.048259,0.021529,-0.10733,0.086128,-0.0095341,0.061137,-0.044719,-0.096591,0.059141,0.49714,-0.07874,-0.21502
-0.015542,-0.011647,-0.010191,0.026971,-0.019225,0.026043,0.067201,0.054224,-0.021149,-0.05269,0.067779,0.0024306,-0.045293,0.016548,-0.10412,0.067472,-0.037156,0.049542,-0.044991,-0.10318,0.062079,0.56119,-0.076661,-0.25185
-0.011721,-0.0068093,-0.0085477,0.031082,-0.036807,0.023167,0.071706,0.058833,-0.025879,-0.056525,0.068725,0.0054045,-0.038998,-0.002871,-0.09878,0.046591,-0.06433,0.03676,-0.043222,-0.10096,0.063054,0.5947,-0.07202,-0.28103
-0.0095841,-0.001154,-0.010902,0.033905,-0.052392,0.019487,0.072543,0.061118,-0.028385,-0.056472,0.065083,0.0059031,-0.03039,-0.018887,-0.096633,0.031615,-0.095147,0.025264,-0.042625,-0.093804,0.061244,0.58789,-0.067905,-0.29306
-0.012894,0.0026664,-0.013514,0.039504,-0.06249,0.014568,0.071041,0.062356,-0.02928,-0.056237,0.062217,-0.0017447,-0.021425,-0.01606,-0.10077,0.027182,-0.1331,0.017381,-0.045099,-0.084721,0.054742,0.53362,-0.066097,-0.28437
-0.019773,0.0040476,-0.011617,0.050002,-0.066549,0.0085109,0.068066,0.061913,-0.030223,-0.058391,0.06371,-0.019592,-0.013208,0.0049651,-0.10843,0.031625,-0.17673,0.013156,-0.04938,-0.074584,0.040732,0.4365,-0.065674,-0.25717
-0.024102,0.0043158,-0.0032734,0.063774,-0.067051,0.0023753,0.063654,0.057628,-0.033226,-0.06264,0.0696,-0.043609,-0.0056367,0.02866,-0.11244,0.038083,-0.22015,0.0095073,-0.052136,-0.063776,0.017778,0.31736,-0.063764,-0.21418
-0.020805,0.0052039,0.008791,0.076556,-0.0673,-0.0023273,0.057952,0.048196,-0.039369,-0.066276,0.077586,-0.065018,0.0015973,0.038716,-0.10719,0.039022,-0.25732,0.0019833,-0.050751,-0.053727,-0.011584,0.20928,-0.057295,-0.15532
-0.010392,0.007336,0.019001,0.084476,-0.068846,-0.0047301,0.051974,0.035459,-0.047904,-0.065979,0.085354,-0.075058,0.0079645,0.031636,-0.093933,0.031399,-0.28555,-0.011809,-0.045269,-0.045938,-0.040802,0.1475,-0.044324,-0.080821
0.0012988,0.0097806,0.023079,0.086564,-0.070645,-0.0055232,0.0471,0.024282,-0.056548,-0.059407,0.091807,-0.070142,0.012027,0.017967,-0.080468,0.019068,-0.30535,-0.02997,-0.038043,-0.039775,-0.062563,0.15866,-0.024662,0.0023414
0.007901,0.010724,0.021244,0.084858,-0.070507,-0.0069944,0.043851,0.019659,-0.062921,-0.045689,0.096645,-0.053852,0.012243,0.011289,-0.074832,0.010682,-0.31764,-0.047524,-0.031777,-0.032252,-0.072766,0.25293,-0.00020036,0.078457
0.0075028,0.0086244,0.017923,0.08224,-0.067441,-0.011955,0.041436,0.023276,-0.066103,-0.025251,0.099376,-0.034433,0.0078432,0.016001,-0.078171,0.014233,-0.32182,-0.060366,-0.027802,-0.020936,-0.071572,0.41887,0.025099,0.12959
0.0034691,0.0031658,0.0183,0.079913,-0.062845,-0.022003,0.038788,0.032316,-0.067043,0.00021956,0.099081,-0.019542,-0.00074066,0.024785,-0.082871,0.031694,-0.31673,-0.068561,-0.025762,-0.0072399,-0.060672,0.62019,0.046251,0.14613
0.00070237,-0.0043793,0.02448,0.076459,-0.059618,-0.036194,0.036123,0.041452,-0.067375,0.027545,0.095154,-0.011764,-0.011814,0.02687,-0.077906,0.057331,-0.30298,-0.075962,-0.024459,0.0038348,-0.039717,0.7975,0.059505,0.13214
0.00109,-0.011572,0.034176,0.069029,-0.059986,-0.051185,0.035296,0.046286,-0.067436,0.052286,0.088138,-0.0075782,-0.022405,0.018338,-0.057298,0.080854,-0.284,-0.086454,-0.022761,0.0080909,-0.0059399,0.88151,0.064522,0.10041
0.0023124,-0.015954,0.04261,0.055499,-0.063801,-0.063055,0.038249,0.045486,-0.065176,0.070046,0.079782,-5.2451e-005,-0.028432,0.0049234,-0.024923,0.093234,-0.26434,-0.1003,-0.019921,0.0067263,0.042277,0.81999,0.064433,0.061682
0.00072358,-0.016436,0.045885,0.035957,-0.068516,-0.069678,0.044756,0.040343,-0.057168,0.078397,0.072325,0.016695,-0.025637,-0.0043191,0.0080821,0.091247,-0.24686,-0.11407,-0.015561,0.0062829,0.10147,0.60941,0.063154,0.018273
-0.0048234,-0.014,0.043348,0.012659,-0.070742,-0.071903,0.051535,0.032842,-0.041393,0.078101,0.067679,0.043947,-0.011592,-0.005515,0.031026,0.077848,-0.23163,-0.12423,-0.0098493,0.013256,0.16331,0.3114,0.061848,-0.032114
-0.011902,-0.011018,0.037669,-0.011085,-0.068257,-0.072603,0.053805,0.024368,-0.019805,0.072519,0.067053,0.077588,0.012029,-0.0025055,0.040217,0.058635,-0.21727,-0.13127,-0.0038299,0.027999,0.21955,0.037026,0.057641,-0.086513
-0.016917,-0.0094819,0.033072,-0.032135,-0.06122,-0.074351,0.048309,0.016022,0.0015466,0.065438,0.070843,0.11023,0.038691,-0.0017718,0.039417,0.037334,-0.20334,-0.1404,0.00076328,0.043719,0.26716,-0.10009,0.046014,-0.13133
-0.018361,-0.0095381,0.03304,-0.04823,-0.05199,-0.077636,0.035542,0.0095246,0.015487,0.0588,0.078412,0.13488,0.059259,-0.0054889,0.034592,0.013541,-0.19124,-0.15834,0.0026196,0.051881,0.30808,-0.038036,0.024988,-0.14814
-0.017775,-0.0096688,0.038582,-0.058328,-0.043738,-0.080958,0.019556,0.00705,0.018025,0.051895,0.087786,0.14804,0.066797,-0.0096645,0.027987,-0.0161,-0.18267,-0.18853,0.0022394,0.049396,0.34311,0.20449,-0.0026682,-0.12659
-0.017824,-0.0084661,0.047686,-0.062881,-0.03867,-0.08245,0.0055105,0.0095881,0.010941,0.042487,0.095781,0.1505,0.061119,-0.0087906,0.016759,-0.054575,-0.1772,-0.22833,0.0022296,0.041201,0.36577,0.54243,-0.03134,-0.073351
-0.019676,-0.006356,0.056202,-0.06396,-0.036837,-0.081318,-0.0032832,0.015321,0.00063002,0.028911,0.098912,0.14568,0.04963,-0.0019941,-0.0027844,-0.10138,-0.17136,-0.26969,0.0057733,0.03601,0.36334,0.87111,-0.056927,-0.0092043
-0.022275,-0.0055105,0.059995,-0.064711,-0.036235,-0.077838,-0.0069755,0.019912,-0.0060594,0.011567,0.094744,0.13677,0.043197,0.0054837,-0.029246,-0.15139,-0.16012,-0.30208,0.014187,0.039186,0.32631,1.1138,-0.079544,0.043394
-0.023907,-0.0078691,0.057438,-0.068008,-0.03416,-0.072276,-0.0086791,0.018976,-0.0059881,-0.0072192,0.082891,0.1249,0.049412,0.0068104,-0.053984,-0.19605,-0.13998,-0.31569,0.025593,0.048966,0.25887,1.2416,-0.10179,0.072179
-0.024206,-0.013124,0.050673,-0.075025,-0.028983,-0.064221,-0.012406,0.010901,-0.00093453,-0.024736,0.065229,0.10955,0.067859,-0.00037713,-0.06531,-0.22644,-0.11122,-0.30393,0.03605,0.058863,0.18056,1.2616,-0.12399,0.078373
-0.024556,-0.018714,0.044481,-0.084906,-0.021207,-0.053286,-0.020702,-0.0023897,0.0046937,-0.039673,0.045476,0.090848,0.090759,-0.01205,-0.05647,-0.23702,-0.077869,-0.26516,0.042426,0.063382,0.11588,1.1924,-0.14108,0.071856
-0.026673,-0.022001,0.043245,-0.095973,-0.013167,-0.040456,-0.033238,-0.017337,0.0075152,-0.052803,0.028379,0.071531,0.1084,-0.021477,-0.031464,-0.22845,-0.045551,-0.20386,0.044713,0.061693,0.079082,1.0507,-0.14455,0.064842
-0.030905,-0.02262,0.048082,-0.10749,-0.0076507,-0.028418,-0.047115,-0.03157,0.0073097,-0.06603,0.018361,0.056721,0.1152,-0.024731,-0.0038658,-0.20771,-0.01883,-0.13032,0.045913,0.056619,0.066221,0.85344,-0.12866,0.068874
-0.035845,-0.022775,0.056303,-0.12023,-0.0063447,-0.020104,-0.058767,-0.045024,0.0063478,-0.080425,0.017444,0.051264,0.11216,-0.022913,0.011344,-0.18458,0.00027381,-0.05813,0.049646,0.051016,0.060538,0.62348,-0.095972,0.093582
-0.039429,-0.02516,0.063557,-0.13499,-0.0089717,-0.016533,-0.06641,-0.058359,0.0070009,-0.094736,0.023283,0.05642,0.10448,-0.019487,0.0075916,-0.16616,0.011889,0.0003128,0.057511,0.045675,0.045811,0.38021,-0.057141,0.1428
-0.040373,-0.030504,0.066867,-0.15036,-0.013438,-0.015945,-0.071346,-0.070345,0.0098013,-0.10573,0.029167,0.068365,0.097005,-0.01588,-0.0088599,-0.15274,0.016814,0.038131,0.068222,0.04042,0.016062,0.11924,-0.024862,0.20813
-0.038836,-0.037029,0.066189,-0.16182,-0.01682,-0.015135,-0.076991,-0.077041,0.013303,-0.11052,0.027256,0.079703,0.091385,-0.00984,-0.023434,-0.13854,0.015482,0.055833,0.078857,0.036305,-0.025432,-0.19926,-0.0063076,0.2668
-0.036089,-0.042215,0.063563,-0.16378,-0.016749,-0.011857,-0.086107,-0.074135,0.015435,-0.10927,0.013728,0.083036,0.086516,0.0018905,-0.023796,-0.11708,0.0084317,0.059616,0.086901,0.035668,-0.074133,-0.63409,-8.2967e-005,0.29039
-0.033737,-0.045046,0.061029,-0.15303,-0.012587,-0.006196,-0.098313,-0.060807,0.015063,-0.10626,-0.0079336,0.074243,0.080904,0.019314,-0.0087529,-0.087403,-0.0021739,0.057289,0.091463,0.039586,-0.1294,-1.2229,-8.0847e-005,0.26248
-0.033018,-0.046528,0.059297,-0.13102,-0.0057767,0.00016944,-0.11004,-0.041689,0.012712,-0.10784,-0.028823,0.053594,0.074203,0.037517,0.011278,-0.055941,-0.011751,0.054358,0.09317,0.045658,-0.1913,-1.9472,-0.0032739,0.19278
-0.034285,-0.048119,0.058049,-0.10287,0.0010266,0.0058882,-0.11721,-0.024763,0.010234,-0.11869,-0.041012,0.024437,0.066716,0.049343,0.022696,-0.032212,-0.014752,0.052435,0.093433,0.049171,-0.25356,-2.73,-0.015228,0.11479
-0.036695,-0.049873,0.057025,-0.074048,0.0056134,0.011137,-0.11853,-0.016449,0.0098035,-0.13912,-0.043655,-0.009277,0.058061,0.050142,0.019469,-0.021607,-0.0079274,0.050364,0.093929,0.047255,-0.30199,-3.4691,-0.048325,0.065866
-0.038382,-0.050376,0.056474,-0.047599,0.0075547,0.017079,-0.11663,-0.017661,0.01274,-0.16576,-0.043597,-0.045013,0.046945,0.040622,0.0076627,-0.021069,0.0071717,0.046692,0.096361,0.042143,-0.32245,-4.0762,-0.1124,0.063389
-0.037413,-0.048639,0.056539,-0.024149,0.0081266,0.024306,-0.11597,-0.02398,0.018667,-0.19521,-0.049676,-0.0822,0.032466,0.025627,0.00017277,-0.021234,0.025011,0.041491,0.10196,0.040004,-0.31181,-4.4907,-0.20282,0.095363
-0.033231,-0.045942,0.056545,-0.0039163,0.0088701,0.031898,-0.11926,-0.029569,0.025505,-0.2273,-0.06536,-0.12128,0.015411,0.010246,0.0061711,-0.01326,0.040158,0.036369,0.11055,0.04592,-0.28153,-4.6644,-0.29407,0.13239
-0.027524,-0.045406,0.055312,0.011826,0.010117,0.038018,-0.12535,-0.031359,0.030582,-0.26447,-0.085863,-0.16188,-0.0021006,-0.0033242,0.024065,0.0051396,0.051435,0.033039,0.11986,0.059441,-0.24951,-4.5448,-0.34513,0.15077
-0.023503,-0.049254,0.052401,0.02167,0.010937,0.041473,-0.13038,-0.030065,0.032549,-0.30686,-0.102,-0.2012,-0.018397,-0.015856,0.043651,0.02904,0.062456,0.031838,0.12619,0.074794,-0.2274,-4.0887,-0.31718,0.1477
-0.023679,-0.05619,0.048912,0.026268,0.010587,0.042838,-0.13091,-0.027804,0.032928,-0.34687,-0.10729,-0.23376,-0.033491,-0.028744,0.055193,0.050929,0.077839,0.03151,0.1265,0.085539,-0.21458,-3.3051,-0.19572,0.13751
-0.027698,-0.061638,0.046687,0.028946,0.0098831,0.04418,-0.12639,-0.025199,0.035962,-0.36835,-0.10239,-0.25307,-0.048185,-0.04184,0.057388,0.066272,0.098433,0.030381,0.12052,0.089376,-0.20361,-2.2906,-0.0040548,0.13457
-0.032129,-0.061108,0.046343,0.03329,0.010811,0.047631,-0.119,-0.020993,0.046334,-0.35282,-0.093611,-0.25497,-0.061795,-0.053522,0.057494,0.07535,0.11998,0.02789,0.11113,0.088852,-0.19057,-1.2145,0.20248,0.13948
-0.032777,-0.053967,0.04601,0.039588,0.014401,0.053942,-0.11142,-0.014306,0.065869,-0.28965,-0.08758,-0.24044,-0.071016,-0.062692,0.06397,0.080394,0.13659,0.025133,0.10218,0.087749,-0.17932,-0.25018,0.36117,0.14023
-0.027944,-0.044215,0.042271,0.043818,0.018968,0.062043,-0.10484,-0.0068329,0.091479,-0.18308,-0.086655,-0.216,-0.07162,-0.070519,0.078428,0.081338,0.14597,0.023916,0.095599,0.086922,-0.1753,0.50121,0.43257,0.1255
-0.020029,-0.037378,0.032851,0.040899,0.020857,0.069845,-0.098867,-0.0023183,0.11613,-0.05066,-0.088428,-0.19052,-0.061935,-0.080039,0.093887,0.074706,0.15158,0.025112,0.090002,0.083584,-0.17566,1.0378,0.4186,0.096456
-0.01397,-0.036105,0.018815,0.029788,0.017615,0.0756,-0.093198,-0.0035731,0.13269,0.085927,-0.088769,-0.1703,-0.045038,-0.093701,0.10054,0.057169,0.15979,0.027754,0.082356,0.074472,-0.16685,1.4166,0.35696,0.065471
-0.013556,-0.038294,0.004235,0.015734,0.010841,0.07879,-0.088746,-0.009907,0.13819,0.21087,-0.085317,-0.15576,-0.027501,-0.11092,0.093811,0.030849,0.17455,0.02967,0.071272,0.059613,-0.13364,1.6844,0.29635,0.04382
-0.018444,-0.039293,-0.0065947,0.0071033,0.0057751,0.079919,-0.086974,-0.017618,0.13564,0.31755,-0.078743,-0.14224,-0.015599,-0.12788,0.077895,0.0053758,0.1942,0.02914,0.059025,0.043001,-0.072488,1.8411,0.26921,0.030459
-0.024235,-0.036096,-0.012169,0.0090489,0.0073308,0.079454,-0.087919,-0.023218,0.13177,0.40362,-0.071466,-0.12441,-0.012083,-0.14008,0.062424,-0.006016,0.21274,0.026138,0.050281,0.029561,0.0027844,1.8619,0.27887,0.013006
-0.025567,-0.02975,-0.014556,0.019415,0.015743,0.076888,-0.089112,-0.026387,0.13221,0.46374,-0.065463,-0.10083,-0.015929,-0.1458,0.05555,0.0057732,0.22415,0.022099,0.048374,0.021158,0.068242,1.7515,0.30648,-0.019804
-0.019907,-0.023984,-0.017409,0.0305,0.025758,0.070834,-0.086884,-0.029887,0.13765,0.48809,-0.061031,-0.074841,-0.024564,-0.14764,0.059223,0.039585,0.22609,0.018507,0.052226,0.015099,0.10423,1.5719,0.32881,-0.065765
-0.0092941,-0.021627,-0.022969,0.035199,0.030476,0.060195,-0.079253,-0.036526,0.14355,0.46918,-0.057165,-0.051403,-0.035947,-0.15087,0.069723,0.083976,0.22068,0.015633,0.056559,0.0061756,0.1053,1.4149,0.33303,-0.10869
0.0010449,-0.022245,-0.030531,0.032197,0.026799,0.045433,-0.067785,-0.045995,0.14359,0.4113,-0.052877,-0.032835,-0.048621,-0.15955,0.081746,0.12325,0.21259,0.012606,0.055292,-0.0096618,0.078918,1.3428,0.31988,-0.13099
0.0061175,-0.023002,-0.037471,0.025887,0.017854,0.02877,-0.056581,-0.054482,0.13395,0.33304,-0.04825,-0.017393,-0.060367,-0.17346,0.091955,0.14515,0.2064,0.0087092,0.045369,-0.032974,0.036414,1.3501,0.29711,-0.12895
0.0043091,-0.021596,-0.041734,0.021499,0.01023,0.012984,-0.049077,-0.057333,0.11527,0.25888,-0.044464,-0.001855,-0.067808,-0.18831,0.099385,0.1452,0.20469,0.0046601,0.028083,-0.06126,-0.015043,1.3781,0.27129,-0.1178
-0.0016667,-0.018334,-0.04367,0.020099,0.0084275,-0.00024402,-0.045453,-0.0524,0.091102,0.20522,-0.042903,0.014579,-0.06822,-0.19888,0.10353,0.12559,0.20707,0.0025971,0.0073228,-0.091247,-0.073467,1.3664,0.2443,-0.12198
-0.0065012,-0.015567,-0.045844,0.017895,0.011373,-0.011055,-0.042985,-0.041276,0.064703,0.17167,-0.044122,0.028978,-0.062124,-0.20252,0.10285,0.09098,0.2103,0.0046585,-0.013326,-0.12095,-0.13785,1.2946,0.21497,-0.15806
-0.0056231,-0.015436,-0.051184,0.010109,0.013967,-0.020668,-0.03898,-0.027663,0.036974,0.14433,-0.047469,0.037232,-0.053857,-0.20004,0.095384,0.045155,0.20977,0.011254,-0.032172,-0.15007,-0.20463,1.1817,0.18205,-0.22285
0.0019022,-0.018323,-0.061023,-0.0043665,0.012075,-0.029943,-0.033571,-0.014591,0.0069018,0.10822,-0.05161,0.037937,-0.048855,-0.19342,0.080835,-0.009234,0.20239,0.020436,-0.048948,-0.17876,-0.26817,1.0532,0.14568,-0.29468
0.012772,-0.023235,-0.074331,-0.021701,0.0062861,-0.038601,-0.029716,-0.0028984,-0.026407,0.058372,-0.055598,0.033754,-0.049566,-0.18268,0.061788,-0.068533,0.18937,0.028886,-0.063527,-0.20597,-0.32333,0.91226,0.10724,-0.34546
0.021646,-0.029142,-0.088389,-0.036026,0.00091261,-0.045675,-0.030323,0.0080417,-0.062165,0.0015293,-0.059772,0.028922,-0.053653,-0.16487,0.042947,-0.12617,0.1765,0.033823,-0.075316,-0.22851,-0.36626,0.74318,0.069321,-0.35436
0.024756,-0.035391,-0.10017,-0.043642,-0.00084214,-0.050555,-0.03509,0.018477,-0.097833,-0.051451,-0.065977,0.025426,-0.056387,-0.13609,0.028903,-0.17291,0.17079,0.034464,-0.083642,-0.2415,-0.39259,0.53763,0.036132,-0.31495
0.022379,-0.040762,-0.10753,-0.044925,-0.0010232,-0.053446,-0.040012,0.027305,-0.12981,-0.09468,-0.076951,0.021639,-0.055455,-0.094813,0.022144,-0.1993,0.17518,0.032141,-0.088175,-0.24015,-0.39654,0.31503,0.01278,-0.23442
0.01834,-0.042606,-0.1099,-0.042885,-0.0062412,-0.054849,-0.040177,0.032945,-0.1537,-0.12996,-0.095067,0.014738,-0.053918,-0.043657,0.022478,-0.1993,0.1856,0.029145,-0.088755,-0.22193,-0.37394,0.11422,0.0025412,-0.12878
0.016952,-0.037654,-0.10834,-0.040335,-0.022218,-0.054804,-0.033589,0.03512,-0.16421,-0.16196,-0.12085,0.0043708,-0.058445,0.011835,0.027735,-0.17345,0.19317,0.027219,-0.085055,-0.18811,-0.32764,-0.035603,0.0036468,-0.018502
0.019829,-0.024192,-0.10507,-0.038418,-0.047909,-0.052947,-0.022854,0.035608,-0.15604,-0.19161,-0.15185,-0.0061492,-0.07392,0.065836,0.034954,-0.13041,0.19025,0.02663,-0.077019,-0.14363,-0.26964,-0.13711,0.0087674,0.075206
0.02513,-0.0034658,-0.10252,-0.037348,-0.074287,-0.049505,-0.013421,0.03684,-0.12661,-0.21441,-0.1825,-0.012306,-0.098815,0.11396,0.04141,-0.08543,0.17569,0.026265,-0.066021,-0.095289,-0.21627,-0.22,0.0087869,0.13523
0.029689,0.021266,-0.102,-0.037856,-0.089383,-0.046162,-0.0099133,0.039267,-0.079303,-0.22537,-0.20539,-0.011938,-0.12522,0.15296,0.045369,-0.055129,0.15502,0.024532,-0.055434,-0.049377,-0.17887,-0.31468,-0.0013909,0.15458
0.032059,0.047194,-0.10279,-0.041331,-0.086235,-0.045557,-0.013419,0.039906,-0.024297,-0.22611,-0.2138,-0.0063653,-0.14366,0.17955,0.046592,-0.049867,0.13548,0.020474,-0.049379,-0.010249,-0.15746,-0.42849,-0.019561,0.13999
0.033773,0.073354,-0.10252,-0.048342,-0.06791,-0.049372,-0.021476,0.033876,0.02485,-0.22752,-0.20445,0.001652,-0.14891,0.19043,0.04638,-0.067838,0.12038,0.014503,-0.050136,0.019499,-0.14297,-0.54297,-0.038309,0.10875
0.037744,0.099422,-0.098997,-0.057151,-0.045751,-0.05652,-0.030163,0.018256,0.05728,-0.24508,-0.1791,0.010337,-0.14256,0.18415,0.046957,-0.095447,0.10731,0.008314,-0.056353,0.038117,-0.12595,-0.6298,-0.050851,0.079391
0.045293,0.12332,-0.092207,-0.06409,-0.031892,-0.063259,-0.036393,-0.0047678,0.069607,-0.28913,-0.1441,0.018594,-0.13064,0.16304,0.050379,-0.11511,0.091376,0.0038787,-0.063871,0.044573,-0.10405,-0.66733,-0.055885,0.062389
0.054477,0.14067,-0.084931,-0.06584,-0.031363,-0.065605,-0.038993,-0.028437,0.066076,-0.35656,-0.10801,0.023307,-0.11898,0.13313,0.057594,-0.11586,0.069974,0.0019794,-0.068802,0.039656,-0.081902,-0.64468,-0.057683,0.058102
0.061287,0.14731,-0.080964,-0.061714,-0.039445,-0.062353,-0.038548,-0.045813,0.054362,-0.42913,-0.078283,0.018039,-0.10995,0.10144,0.068226,-0.099204,0.044736,0.0012666,-0.070363,0.027098,-0.0642,-0.55693,-0.061914,0.063002
0.062743,0.14291,-0.082111,-0.053826,-0.046023,-0.056142,-0.036688,-0.054855,0.040532,-0.48022,-0.058593,-0.003732,-0.10245,0.072511,0.081099,-0.075552,0.019316,-0.0011965,-0.071096,0.012943,-0.049458,-0.40483,-0.071147,0.077621
0.059281,0.13198,-0.086401,-0.044973,-0.04347,-0.051487,-0.035264,-0.060065,0.026787,-0.48695,-0.047906,-0.042499,-0.093986,0.04729,0.094896,-0.05452,-0.0043192,-0.0078622,-0.074348,0.0028551,-0.030771,-0.20468,-0.083817,0.10765
0.054348,0.12071,-0.089319,-0.036239,-0.032029,-0.051248,-0.035357,-0.069217,0.01284,-0.44137,-0.041706,-0.089422,-0.082475,0.025113,0.10834,-0.037557,-0.027265,-0.018429,-0.081203,-0.00077763,-0.0029425,0.0026951,-0.096984,0.15598
0.051511,0.11226,-0.087349,-0.026628,-0.01881,-0.054486,-0.036401,-0.087627,-0.0012771,-0.35484,-0.03486,-0.13015,-0.066732,0.0069445,0.11979,-0.019578,-0.05163,-0.029319,-0.089389,0.00043616,0.03119,0.16069,-0.1099,0.21273
0.051482,0.1046,-0.080938,-0.015093,-0.011632,-0.057505,-0.036156,-0.11435,-0.013759,-0.2527,-0.024752,-0.15366,-0.046772,-0.003632,0.12684,0.0021356,-0.077493,-0.035785,-0.094825,0.0030219,0.06184,0.22588,-0.12501,0.25375
0.051619,0.092962,-0.074183,-0.0028716,-0.012893,-0.057142,-0.032095,-0.14284,-0.021893,-0.16199,-0.012849,-0.15875,-0.025,-0.0032207,0.12643,0.02077,-0.1022,-0.035341,-0.094376,0.0047688,0.080335,0.19774,-0.14556,0.25187
0.048333,0.074635,-0.071289,0.0064119,-0.018254,-0.053347,-0.023515,-0.16499,-0.023961,-0.099244,-0.0034787,-0.15197,-0.0073837,0.0069079,0.11583,0.022642,-0.12277,-0.029756,-0.087721,0.0061796,0.086867,0.1224,-0.17211,0.19424
0.040396,0.051826,-0.07276,0.0093591,-0.020653,-0.048883,-0.012615,-0.17498,-0.020301,-0.065276,-0.00033807,-0.13879,-0.0021283,0.019006,0.094231,-0.0010149,-0.13902,-0.023714,-0.077295,0.0092014,0.090658,0.061775,-0.20081,0.092366
0.030305,0.030063,-0.074706,0.0058586,-0.015903,-0.046602,-0.0032627,-0.17072,-0.012851,-0.049372,-0.003171,-0.11617,-0.014833,0.022334,0.064037,-0.042851,-0.15407,-0.021058,-0.066773,0.014711,0.10219,0.049223,-0.22486,-0.023812
0.022489,0.01375,-0.072041,-0.00034556,-0.0052548,-0.046908,0.0019224,-0.15295,-0.003988,-0.038923,-0.0074288,-0.074512,-0.042798,0.010056,0.030843,-0.079382,-0.17164,-0.021798,-0.05927,0.0212,0.12444,0.066778,-0.23794,-0.12493
0.019822,0.0029117,-0.062924,-0.0043851,0.0066231,-0.047665,0.0038534,-0.12419,0.0042248,-0.027423,-0.0076587,-0.0079515,-0.073519,-0.015827,0.0014731,-0.084074,-0.19257,-0.02252,-0.056155,0.02576,0.15106,0.062909,-0.23719,-0.20087
0.021338,-0.0061838,-0.050624,-0.0040413,0.015829,-0.046377,0.0066106,-0.088581,0.010066,-0.015979,-0.0021838,0.07574,-0.090319,-0.045864,-0.019622,-0.044628,-0.21357,-0.019851,-0.056802,0.026244,0.17257,-0.0037758,-0.22414,-0.26603
0.023049,-0.01742,-0.04119,-0.0012386,0.021792,-0.042441,0.014523,-0.052065,0.012087,-0.0089384,0.0048828,0.15544,-0.08244,-0.070227,-0.033744,0.028332,-0.22947,-0.013782,-0.059202,0.022578,0.1848,-0.13129,-0.20331,-0.34814
0.0211,-0.031691,-0.038881,6.3114e-005,0.026439,-0.037404,0.02891,-0.021409,0.0095642,-0.0084582,0.0063874,0.20821,-0.052496,-0.085915,-0.048488,0.10758,-0.23667,-0.0078123,-0.0611,0.016248,0.19144,-0.27843,-0.17983,-0.46956
0.014581,-0.046901,-0.043115,-0.0023392,0.03143,-0.033232,0.046942,-0.0018393,0.0032666,-0.012536,-0.0022312,0.22352,-0.01514,-0.098124,-0.073925,0.16581,-0.23499,-0.0058096,-0.061135,0.0087914,0.19878,-0.40115,-0.15726,-0.63433
0.0056984,-0.060729,-0.049262,-0.0068121,0.036348,-0.030488,0.063351,0.005301,-0.0043272,-0.017323,-0.018916,0.20899,0.01279,-0.11452,-0.11574,0.19055,-0.22681,-0.008513,-0.059338,0.00086537,0.20804,-0.48935,-0.13686,-0.82815
-0.0026726,-0.073296,-0.052281,-0.0092863,0.039372,-0.028224,0.073584,0.0030718,-0.010008,-0.020793,-0.035848,0.18341,0.023617,-0.13705,-0.16946,0.18799,-0.21463,-0.012818,-0.056711,-0.007348,0.21254,-0.57381,-0.11815,-1.0281
-0.009822,-0.087297,-0.050066,-0.0067594,0.03942,-0.025535,0.076215,-0.0028699,-0.011632,-0.024191,-0.044409,0.16328,0.023145,-0.15809,-0.22025,0.1749,-0.19952,-0.014308,-0.054222,-0.01505,0.20256,-0.69938,-0.10037,-1.2131
-0.018021,-0.10575,-0.044014,0.00021571,0.037446,-0.023031,0.073315,-0.007158,-0.0094969,-0.030044,-0.040247,0.15332,0.024763,-0.16405,-0.24955,0.16615,-0.18134,-0.010603,-0.051969,-0.020322,0.17344,-0.88812,-0.083649,-1.368
-0.030744,-0.12972,-0.03698,0.0080187,0.035593,-0.022536,0.06902,-0.006872,-0.0061836,-0.038572,-0.02478,0.14731,0.03822,-0.14377,-0.24522,0.16662,-0.16013,-0.0026452,-0.04909,-0.020876,0.13013,-1.1219,-0.069317,-1.4813
-0.049879,-0.15826,-0.03088,0.012638,0.035074,-0.025146,0.067417,-0.0019788,-0.0048671,-0.045651,-0.0028011,0.13663,0.062114,-0.095406,-0.20874,0.17148,-0.13695,0.0067956,-0.044371,-0.015557,0.084517,-1.3556,-0.059072,-1.5434
-0.074091,-0.19035,-0.026029,0.012087,0.034914,-0.029517,0.070791,0.0056196,-0.0072764,-0.044159,0.02114,0.11853,0.085843,-0.027511,-0.15458,0.17224,-0.11366,0.015639,-0.037075,-0.0054233,0.048515,-1.5462,-0.053828,-1.5469
-0.099294,-0.22657,-0.022262,0.0069052,0.032909,-0.032239,0.078778,0.013479,-0.012742,-0.028,0.044748,0.097805,0.098819,0.044896,-0.10196,0.16323,-0.092327,0.023726,-0.027473,0.00654,0.028252,-1.6737,-0.053071,-1.4923
-0.12047,-0.26852,-0.020118,-0.00083537,0.028051,-0.030301,0.088611,0.019715,-0.018899,0.0038956,0.067734,0.082072,0.098784,0.10541,-0.064452,0.14446,-0.074928,0.032045,-0.016904,0.016991,0.023101,-1.7398,-0.055194,-1.3896
-0.13341,-0.31586,-0.020524,-0.0084869,0.022148,-0.0236,0.09646,0.023587,-0.02337,0.046264,0.090647,0.075995,0.09223,0.13966,-0.044419,0.12103,-0.063332,0.04113,-0.007423,0.024085,0.028643,-1.7505,-0.058527,-1.2556
-0.13557,-0.36324,-0.023224,-0.013082,0.018857,-0.015268,0.099401,0.025595,-0.025142,0.089756,0.11415,0.079233,0.087079,0.13771,-0.035326,0.1009,-0.058633,0.050263,-0.0011561,0.028297,0.040085,-1.7034,-0.062295,-1.1045
-0.12631,-0.39998,-0.025798,-0.01166,0.020626,-0.0094005,0.097029,0.027075,-0.024803,0.1253,0.13879,0.088914,0.084539,0.097641,-0.02931,0.092671,-0.059671,0.058028,0.0005187,0.031571,0.05351,-1.5917,-0.066841,-0.94066
-0.10685,-0.4134,-0.024866,-0.002585,0.026086,-0.0080466,0.091567,0.029359,-0.023798,0.148,0.16445,0.10327,0.077537,0.029594,-0.023466,0.10335,-0.061944,0.063438,-0.0022691,0.035379,0.065113,-1.421,-0.073045,-0.75953
-0.080008,-0.39443,-0.018904,0.012695,0.030418,-0.0099464,0.086244,0.032859,-0.023439,0.15875,0.18959,0.1227,0.056984,-0.043993,-0.01999,0.13561,-0.058723,0.066557,-0.0075907,0.039174,0.070447,-1.221,-0.081432,-0.55844
-0.049384,-0.34199,-0.010161,0.029314,0.028787,-0.011898,0.083005,0.036662,-0.024356,0.16322,0.21114,0.14736,0.020158,-0.095726,-0.020826,0.18551,-0.044793,0.068226,-0.012271,0.040519,0.065295,-1.0352,-0.091611,-0.34947
-0.018145,-0.26341,-0.003489,0.041266,0.020164,-0.011403,0.08134,0.03899,-0.026446,0.16951,0.22571,0.17406,-0.026082,-0.10634,-0.022298,0.24256,-0.020663,0.069357,-0.013291,0.036882,0.047919,-0.89688,-0.10232,-0.16269
0.011935,-0.17023,-0.0025117,0.045171,0.0082482,-0.0083686,0.079185,0.038302,-0.029114,0.18573,0.23182,0.19573,-0.069549,-0.075299,-0.015319,0.29265,0.0063306,0.070469,-0.0094582,0.027748,0.020919,-0.8098,-0.11187,-0.033476
0.04033,-0.072367,-0.0063091,0.042607,-0.0014684,-0.0047598,0.07518,0.034286,-0.03156,0.21813,0.23098,0.20504,-0.10016,-0.020564,0.0082195,0.32266,0.025864,0.071656,-0.002369,0.015319,-0.0090024,-0.7528,-0.11853,0.019897
0.066546,0.025469,-0.0097639,0.038886,-0.0060624,-0.0029621,0.070332,0.028097,-0.033132,0.26964,0.22657,0.19952,-0.11414,0.033441,0.047919,0.32411,0.03142,0.072723,0.0041581,0.0032053,-0.033589,-0.70328,-0.12056,0.012869
0.088828,0.12233,-0.0076836,0.038979,-0.0071904,-0.0043909,0.067565,0.021749,-0.033683,0.33878,0.22117,0.18434,-0.11251,0.071167,0.092671,0.29444,0.025098,0.073202,0.0061215,-0.0059513,-0.046453,-0.65634,-0.1161,-0.0085261
0.10403,0.21586,0.00070016,0.04371,-0.0090034,-0.0091519,0.069393,0.017171,-0.033726,0.41928,0.2144,0.16978,-0.096967,0.093327,0.1259,0.23637,0.016461,0.072302,0.001738,-0.01213,-0.04531,-0.61933,-0.10342,0.0090037
0.109,0.29781,0.01084,0.04912,-0.013865,-0.016355,0.075566,0.015507,-0.03414,0.50089,0.20338,0.16486,-0.068349,0.11164,0.13411,0.15646,0.01591,0.069141,-0.007426,-0.017658,-0.031869,-0.58694,-0.081642,0.096905
0.10271,0.3546,0.016488,0.04933,-0.019756,-0.024356,0.082635,0.016862,-0.035508,0.57158,0.18528,0.17143,-0.029037,0.13667,0.11201,0.062799,0.027495,0.063356,-0.01755,-0.025284,-0.0098828,-0.5239,-0.05168,0.24928
0.087386,0.37336,0.014747,0.040571,-0.021753,-0.030852,0.085909,0.020355,-0.037565,0.62073,0.16019,0.18314,0.013884,0.16936,0.061198,-0.038428,0.046633,0.055694,-0.025237,-0.03608,0.016974,-0.37837,-0.016483,0.43099
0.067848,0.34969,0.0082691,0.023497,-0.016305,-0.033356,0.082392,0.02428,-0.039214,0.64221,0.13197,0.19037,0.04927,0.20243,-0.014229,-0.14593,0.064211,0.047967,-0.029781,-0.048677,0.045967,-0.11974,0.019829,0.60282
0.04905,0.29174,0.0029656,0.0026442,-0.0046302,-0.030287,0.072587,0.026513,-0.039163,0.63611,0.10657,0.1872,0.067206,0.22828,-0.10922,-0.26261,0.073469,0.042163,-0.033178,-0.060276,0.074778,0.23115,0.053534,0.74545
0.033607,0.21747,0.0034762,-0.015964,0.007694,-0.022015,0.059966,0.025262,-0.036704,0.60819,0.089208,0.17504,0.065075,0.24498,-0.21418,-0.38946,0.074203,0.039248,-0.037836,-0.068559,0.1007,0.60743,0.082317,0.86603
0.020988,0.14691,0.01021,-0.027229,0.014555,-0.010871,0.048637,0.019985,-0.032044,0.56703,0.081999,0.15964,0.049491,0.25523,-0.31084,-0.51751,0.071487,0.038572,-0.043928,-0.072964,0.12064,0.93426,0.10475,0.984
0.009061,0.09408,0.01994,-0.028376,0.013469,0.00012333,0.040918,0.01187,-0.025995,0.52025,0.083162,0.1438,0.032622,0.26097,-0.3747,-0.62538,0.070859,0.038333,-0.048759,-0.074375,0.13209,1.168,0.11866,1.1079
-0.0031969,0.062979,0.028755,-0.019459,0.0069607,0.0089175,0.036386,0.0033725,-0.019325,0.47164,0.087608,0.12208,0.025887,0.26035,-0.38605,-0.6872,0.074394,0.036776,-0.048827,-0.073654,0.13402,1.3063,0.12007,1.2209
-0.014081,0.04912,0.034682,-0.0033138,0.00049114,0.015266,0.03276,-0.0030019,-0.012347,0.42101,0.088578,0.082751,0.03527,0.25,-0.34277,-0.68748,0.080524,0.033242,-0.04285,-0.070477,0.12683,1.3683,0.10453,1.2852
-0.020148,0.04451,0.038291,0.015215,-0.001189,0.020274,0.027794,-0.0058593,-0.0050573,0.36681,0.080101,0.016551,0.060165,0.22926,-0.26446,-0.63208,0.086773,0.028455,-0.033147,-0.06375,0.11147,1.3708,0.070472,1.264
-0.019185,0.042614,0.041649,0.031135,0.0034008,0.025281,0.020847,-0.0052743,0.0022726,0.30964,0.059853,-0.074339,0.094557,0.20024,-0.18309,-0.5459,0.092246,0.024002,-0.024162,-0.053408,0.088818,1.3233,0.022588,1.1445
-0.012675,0.040716,0.046905,0.04176,0.012389,0.031007,0.013249,-0.0023001,0.0085754,0.25394,0.031124,-0.1745,0.12872,0.16263,-0.12578,-0.45802,0.0977,0.021407,-0.019362,-0.041879,0.060081,1.2426,-0.027691,0.94884
-0.0054523,0.039213,0.055329,0.048167,0.022461,0.037342,0.0074075,0.0017413,0.012062,0.20609,0.0022029,-0.26279,0.15127,0.10879,-0.10184,-0.38529,0.10382,0.021214,-0.018971,-0.033459,0.027946,1.1626,-0.065756,0.72515
-0.0025235,0.039254,0.066736,0.054168,0.031203,0.043508,0.0053306,0.005618,0.011069,0.1701,-0.01749,-0.32377,0.15271,0.02608,-0.10267,-0.32654,0.10997,0.02247,-0.020162,-0.031547,-0.0029758,1.1231,-0.079731,0.52684
-0.0055178,0.04073,0.079223,0.063069,0.03851,0.048329,0.007445,0.0082368,0.0052405,0.14378,-0.022807,-0.3547,0.13006,-0.093291,-0.11266,-0.27077,0.11489,0.022921,-0.019256,-0.035808,-0.027324,1.1443,-0.065496,0.39194
-0.011689,0.041951,0.089563,0.074513,0.046512,0.050657,0.012338,0.0088241,-0.0037929,0.11894,-0.01633,-0.36336,0.090162,-0.24235,-0.1213,-0.21132,0.11825,0.020138,-0.014147,-0.0418,-0.041283,1.2131,-0.028131,0.33318
-0.016252,0.040934,0.094645,0.084015,0.058238,0.050046,0.017481,0.0073877,-0.012938,0.085854,-0.0070966,-0.35983,0.048181,-0.39883,-0.12749,-0.15392,0.12113,0.013159,-0.0053929,-0.043747,-0.044251,1.2966,0.020695,0.34054
-0.016022,0.037131,0.093375,0.085812,0.075666,0.047307,0.020462,0.0050206,-0.019231,0.039379,-0.0050215,-0.34964,0.021058,-0.53608,-0.13498,-0.11244,0.12463,0.0035578,0.0043838,-0.038417,-0.038513,1.37,0.067744,0.39081
-0.011326,0.032111,0.087635,0.076944,0.097997,0.044287,0.020043,0.0035022,-0.021507,-0.018005,-0.014764,-0.33354,0.019561,-0.63768,-0.14529,-0.097394,0.12799,-0.0051482,0.012137,-0.027011,-0.027139,1.4314,0.10318,0.45778
-0.0049183,0.028554,0.081147,0.05942,0.12109,0.042734,0.016527,0.0042627,-0.020949,-0.078622,-0.033401,-0.31266,0.044045,-0.70477,-0.15496,-0.10717,0.12836,-0.0097332,0.016105,-0.013619,-0.011776,1.4878,0.12347,0.51976
0.0006649,0.028236,0.076797,0.038966,0.13875,0.043054,0.011389,0.0074599,-0.020206,-0.13597,-0.053436,-0.2929,0.086332,-0.7504,-0.15892,-0.12939,0.12276,-0.0096047,0.0168,-0.0017674,0.0080113,1.5281,0.13122,0.56404
0.0047346,0.030622,0.074494,0.021583,0.14558,0.044155,0.00645,0.011909,-0.02184,-0.19018,-0.06865,-0.28361,0.13561,-0.78568,-0.15538,-0.15003,0.11039,-0.0073079,0.01678,0.0079074,0.033513,1.5146,0.13222,0.58782
0.0078822,0.033297,0.071517,0.010671,0.14013,0.044623,0.0030367,0.0159,-0.027305,-0.24809,-0.078325,-0.29154,0.18379,-0.80804,-0.14717,-0.16193,0.093067,-0.0066055,0.019199,0.017023,0.06485,1.4086,0.13099,0.59492
0.01039,0.034009,0.065322,0.0065228,0.1261,0.044148,0.0014168,0.018239,-0.036863,-0.31756,-0.086981,-0.31541,0.22742,-0.79994,-0.1383,-0.16568,0.073385,-0.0096534,0.025799,0.026842,0.099607,1.211,0.12741,0.58903
0.011639,0.032582,0.056505,0.0077215,0.11044,0.043672,0.00076585,0.018823,-0.049902,-0.40002,-0.10037,-0.34678,0.26642,-0.73833,-0.12953,-0.16339,0.052521,-0.015664,0.035557,0.036343,0.13294,0.97847,0.1165,0.56788
0.011139,0.030925,0.049213,0.012648,0.099318,0.044002,-0.00022151,0.018514,-0.064955,-0.48689,-0.12115,-0.37685,0.30217,-0.60822,-0.11723,-0.15276,0.030022,-0.022076,0.044987,0.042796,0.15898,0.79443,0.09193,0.52346
0.0097726,0.031049,0.048311,0.019843,0.094553,0.044271,-0.0022527,0.018537,-0.079574,-0.56248,-0.14721,-0.40383,0.3365,-0.41189,-0.096788,-0.12813,0.0058203,-0.026848,0.050103,0.044191,0.17284,0.71271,0.051207,0.44937
0.0095084,0.032902,0.05542,0.027546,0.093173,0.042034,-0.00455,0.019765,-0.090884,-0.61147,-0.17347,-0.43481,0.37091,-0.16856,-0.067565,-0.088083,-0.017689,-0.029417,0.048825,0.041184,0.17249,0.72008,-0.0010896,0.34948
0.011561,0.034221,0.06711,0.033568,0.090222,0.035256,-0.0050142,0.022218,-0.097072,-0.62564,-0.19511,-0.4806,0.40491,0.094927,-0.03496,-0.042124,-0.035936,-0.029334,0.042244,0.036776,0.15976,0.74846,-0.054642,0.2399
0.014905,0.032753,0.076865,0.035993,0.082514,0.024454,-0.0017004,0.025066,-0.098737,-0.606,-0.20991,-0.54785,0.43382,0.35649,-0.0078097,-0.0085299,-0.045004,-0.024225,0.033898,0.03401,0.14011,0.72713,-0.098584,0.1414
0.016971,0.028832,0.079285,0.034038,0.070411,0.012904,0.0053159,0.027269,-0.098492,-0.55973,-0.21848,-0.63415,0.44866,0.60622,0.0069177,-0.0033089,-0.044602,-0.0098324,0.027548,0.033666,0.12084,0.63193,-0.12677,0.068072
0.016115,0.02572,0.073238,0.028194,0.056551,0.0045043,0.013326,0.028457,-0.098592,-0.49524,-0.22254,-0.72906,0.44008,0.84323,0.0081651,-0.028613,-0.038509,0.016917,0.024895,0.033826,0.10843,0.49371,-0.1392,0.021575
0.013464,0.027085,0.0617,0.019607,0.043051,0.0010757,0.018546,0.029297,-0.098436,-0.41884,-0.22284,-0.81866,0.4051,1.063,0.00086754,-0.070628,-0.032028,0.054075,0.024702,0.03154,0.10588,0.36476,-0.13897,-0.0048638
0.012061,0.033716,0.049011,0.0095876,0.029682,0.001395,0.018896,0.030827,-0.094472,-0.33453,-0.21806,-0.88981,0.35182,1.2444,-0.0073874,-0.10946,-0.028574,0.093765,0.023882,0.025239,0.11129,0.27581,-0.12802,-0.018116
0.013906,0.042504,0.0382,-0.00014473,0.014219,0.0026057,0.015708,0.033229,-0.083118,-0.24542,-0.20559,-0.93241,0.2971,1.3485,-0.010254,-0.13323,-0.028069,0.12591,0.019909,0.016082,0.11839,0.21908,-0.10635,-0.021261
0.01777,0.048765,0.03035,-0.007052,-0.0058011,0.0025155,0.012712,0.035232,-0.064384,-0.15503,-0.18394,-0.94099,0.25694,1.3346,-0.0044827,-0.14471,-0.027922,0.14431,0.012976,0.007394,0.11893,0.165,-0.075741,-0.017326
0.020156,0.050023,0.025568,-0.0083899,-0.031515,0.00071937,0.012978,0.034968,-0.042801,-0.067088,-0.15536,-0.91681,0.23567,1.1869,0.010625,-0.15505,-0.025198,0.15054,0.0063733,0.0027224,0.1063,0.091241,-0.044418,-0.014718
0.018749,0.048079,0.023685,-0.0031083,-0.062116,-0.0020861,0.016469,0.031692,-0.024378,0.015107,-0.12669,-0.86871,0.22244,0.93303,0.034553,-0.17039,-0.018019,0.15245,0.0046076,0.0038536,0.078863,-0.0027348,-0.02669,-0.025982
0.015095,0.04775,0.023718,0.0063968,-0.094774,-0.005387,0.020433,0.026769,-0.011939,0.088952,-0.10728,-0.80935,0.19912,0.63907,0.066064,-0.1832,-0.0056582,0.15862,0.010405,0.010007,0.041269,-0.104,-0.03561,-0.05873
0.013649,0.053457,0.02319,0.014706,-0.12448,-0.0091497,0.022309,0.022874,-0.0029809,0.15207,-0.10472,-0.74659,0.15463,0.38075,0.10274,-0.17607,0.011704,0.17294,0.02265,0.018535,0.0026665,-0.20386,-0.073081,-0.10711
0.017766,0.066417,0.019051,0.016462,-0.14413,-0.01291,0.02239,0.022034,0.0077931,0.20207,-0.12115,-0.67563,0.094702,0.20774,0.14068,-0.13516,0.032587,0.19333,0.036752,0.026516,-0.027816,-0.30659,-0.12561,-0.15373
0.02625,0.084276,0.010238,0.010105,-0.14584,-0.014966,0.023608,0.024304,0.023189,0.23734,-0.15263,-0.58013,0.038726,0.12517,0.1752,-0.062168,0.053572,0.21455,0.047181,0.032155,-0.045708,-0.42267,-0.17047,-0.18282
0.03391,0.10287,-0.00043243,-0.00080016,-0.124,-0.012991,0.028485,0.028248,0.040086,0.25861,-0.19228,-0.44494,0.0052438,0.10335,0.20218,0.024546,0.06974,0.23199,0.050338,0.0352,-0.05268,-0.55385,-0.18892,-0.19455
0.035936,0.11839,-0.0074386,-0.010019,-0.078781,-0.0057971,0.036072,0.032603,0.051094,0.26966,-0.23467,-0.27279,-0.0023581,0.10597,0.2191,0.10075,0.076761,0.24313,0.045951,0.036384,-0.053462,-0.68131,-0.17692,-0.20817
0.032228,0.12869,-0.0066243,-0.013133,-0.017765,0.0054992,0.041933,0.037377,0.050173,0.27601,-0.27852,-0.091472,0.0019232,0.11386,0.22516,0.15077,0.073387,0.24624,0.036525,0.036579,-0.050467,-0.76321,-0.14555,-0.25091
0.027576,0.13328,0.0010832,-0.010552,0.046063,0.01831,0.041534,0.043324,0.037562,0.28179,-0.32573,0.057086,-0.001467,0.12802,0.2211,0.1756,0.062303,0.23885,0.025795,0.036425,-0.040827,-0.74264,-0.11164,-0.3418
0.027336,0.13288,0.0097935,-0.0067747,0.099537,0.030853,0.034221,0.050493,0.019729,0.28696,-0.37822,0.14017,-0.022036,0.1542,0.209,0.19013,0.04848,0.21832,0.017272,0.036547,-0.01912,-0.5656,-0.086867,-0.48229
0.032447,0.12874,0.012959,-0.0067588,0.13486,0.043671,0.024268,0.057468,0.0042933,0.287,-0.43501,0.15352,-0.053578,0.18647,0.19181,0.2126,0.036462,0.18439,0.013159,0.037857,0.015841,-0.20579,-0.073492,-0.65853
0.03845,0.12203,0.0084003,-0.012467,0.15202,0.058675,0.017921,0.062199,-0.0058014,0.27565,-0.49161,0.12152,-0.083201,0.20553,0.17186,0.25397,0.028905,0.14107,0.013432,0.041303,0.056112,0.31332,-0.068513,-0.849
0.03951,0.11342,-0.0002741,-0.022091,0.15655,0.076371,0.01886,0.063628,-0.01394,0.24893,-0.54142,0.078065,-0.10617,0.19216,0.14885,0.31301,0.02728,0.095396,0.015409,0.047136,0.08709,0.91358,-0.070036,-1.0289
0.033778,0.1032,-0.0070536,-0.031913,0.15421,0.093927,0.025796,0.062598,-0.026022,0.20751,-0.5775,0.043074,-0.13208,0.14221,0.11916,0.37833,0.033259,0.053826,0.014781,0.054365,0.097035,1.4827,-0.079005,-1.1695
0.025159,0.091831,-0.0086713,-0.038743,0.14653,0.1062,0.034032,0.061235,-0.044626,0.15613,-0.5937,0.013095,-0.17582,0.069325,0.078335,0.43456,0.048531,0.018954,0.0083996,0.061068,0.08677,1.9129,-0.095199,-1.2396
0.019888,0.080495,-0.0069348,-0.041011,0.13021,0.10916,0.039369,0.061424,-0.066222,0.10097,-0.58531,-0.028022,-0.2412,-0.0058902,0.026011,0.4687,0.072599,-0.010836,-0.0027552,0.065455,0.071302,2.1351,-0.11289,-1.2157
0.021163,0.070708,-0.0063278,-0.038379,0.10094,0.10286,0.04091,0.063663,-0.083703,0.047146,-0.54985,-0.088956,-0.31247,-0.069637,-0.03017,0.4745,0.10067,-0.039004,-0.013185,0.066853,0.070809,2.1317,-0.12206,-1.0981
0.026742,0.063127,-0.0092705,-0.031088,0.058235,0.091157,0.040591,0.06703,-0.091832,-0.0017751,-0.48823,-0.15899,-0.3624,-0.11992,-0.075602,0.45416,0.12431,-0.06818,-0.016359,0.065864,0.096973,1.9268,-0.11528,-0.91949
0.031428,0.056562,-0.013423,-0.019949,0.0075146,0.078604,0.040358,0.07,-0.090915,-0.043047,-0.40529,-0.21358,-0.37073,-0.1609,-0.095509,0.41724,0.13538,-0.099275,-0.0099828,0.063702,0.14478,1.569,-0.094027,-0.73334
0.031727,0.048467,-0.013416,-0.0066803,-0.042266,0.067259,0.039948,0.071377,-0.085841,-0.074138,-0.30881,-0.231,-0.33785,-0.1945,-0.08361,0.37667,0.13042,-0.13229,0.0013036,0.061389,0.19594,1.1231,-0.068285,-0.58432
0.028251,0.037008,-0.0054141,0.0063259,-0.083652,0.056304,0.037403,0.070789,-0.081742,-0.093287,-0.20737,-0.20505,-0.28313,-0.21776,-0.046657,0.34276,0.11228,-0.16716,0.0085996,0.05943,0.23123,0.66762,-0.048946,-0.47978
0.024047,0.023178,0.0094395,0.017007,-0.11432,0.044529,0.031624,0.068694,-0.080144,-0.10045,-0.10779,-0.14412,-0.23024,-0.22705,-0.001155,0.31775,0.087587,-0.2037,0.0051295,0.057971,0.24214,0.28433,-0.039559,-0.38585
0.021109,0.010873,0.025456,0.024558,-0.13661,0.032963,0.024189,0.066025,-0.078541,-0.097276,-0.014014,-0.060349,-0.19233,-0.22312,0.035941,0.29473,0.062315,-0.24121,-0.0087629,0.05696,0.23395,0.032826,-0.034393,-0.25559
0.01879,0.0043239,0.036162,0.02935,-0.15369,0.024847,0.018381,0.063672,-0.073058,-0.085938,0.072393,0.038928,-0.16781,-0.21138,0.056348,0.26246,0.039012,-0.2791,-0.02613,0.056065,0.21908,-0.077178,-0.024234,-0.070688
0.015402,0.0045912,0.038328,0.031938,-0.16593,0.022845,0.016174,0.062019,-0.061512,-0.06805,0.15051,0.14954,-0.14766,-0.19799,0.063224,0.21355,0.017238,-0.31833,-0.038858,0.054567,0.20742,-0.091212,-0.0044721,0.13607
0.010871,0.008041,0.033374,0.032255,-0.17053,0.026225,0.016139,0.060788,-0.044495,-0.045134,0.21857,0.26221,-0.12567,-0.1863,0.066027,0.15006,-0.0039978,-0.36172,-0.043317,0.051627,0.20119,-0.081589,0.021571,0.29868
0.0073731,0.008454,0.025587,0.029921,-0.16444,0.03096,0.014527,0.059334,-0.024392,-0.020213,0.2737,0.35863,-0.10296,-0.17728,0.071657,0.082027,-0.024492,-0.4114,-0.041706,0.046878,0.19679,-0.1015,0.046421,0.36586
0.007269,0.0014395,0.018891,0.025339,-0.14788,0.032933,0.0087814,0.057172,-0.003969,0.001496,0.3131,0.41868,-0.084533,-0.17192,0.078635,0.020057,-0.043111,-0.46462,-0.038764,0.040785,0.19028,-0.15528,0.065218,0.34269
0.010539,-0.012312,0.01468,0.020316,-0.12539,0.031397,0.00025116,0.054304,0.014173,0.014425,0.33559,0.43414,-0.072904,-0.17175,0.078365,-0.031746,-0.059046,-0.51144,-0.037439,0.034257,0.1808,-0.207,0.07911,0.29191
0.014352,-0.027721,0.011993,0.017298,-0.10363,0.029406,-0.0065471,0.051065,0.027576,0.016177,0.34253,0.41686,-0.065207,-0.17654,0.061852,-0.076177,-0.072169,-0.5375,-0.037332,0.027694,0.16974,-0.218,0.092574,0.29184
0.015169,-0.03956,0.0094755,0.017635,-0.087893,0.030693,-0.0076183,0.047624,0.034468,0.0097578,0.33745,0.39314,-0.055773,-0.18211,0.026083,-0.11642,-0.081965,-0.53118,-0.036437,0.020296,0.15768,-0.18089,0.10784,0.38277
0.011347,-0.046905,0.0072324,0.020411,-0.079888,0.035824,-0.0028695,0.043615,0.035107,0.0020934,0.32481,0.38767,-0.04108,-0.18178,-0.024764,-0.14901,-0.086555,-0.48994,-0.033661,0.010341,0.14294,-0.12275,0.12209,0.54294
0.0040302,-0.054249,0.0069798,0.023012,-0.077817,0.04127,0.0037849,0.038262,0.032608,-0.0005415,0.30873,0.40936,-0.022289,-0.17098,-0.083106,-0.16383,-0.083611,-0.42073,-0.029559,-0.0036655,0.12304,-0.078938,0.13016,0.71
-0.0040648,-0.068537,0.010388,0.02313,-0.078272,0.042405,0.0075549,0.030993,0.031731,0.0032776,0.29242,0.44926,-0.003294,-0.1504,-0.14204,-0.15233,-0.072995,-0.33398,-0.025223,-0.021808,0.097565,-0.063616,0.13007,0.82755
-0.010526,-0.094502,0.017113,0.020578,-0.078433,0.037795,0.0062912,0.022107,0.035873,0.0096473,0.27794,0.49035,0.01361,-0.12443,-0.19543,-0.11706,-0.0587,-0.23643,-0.02124,-0.042367,0.069163,-0.062575,0.12599,0.87873
-0.014284,-0.13156,0.024367,0.017322,-0.077484,0.030837,0.0014925,0.012954,0.044536,0.012839,0.2661,0.51956,0.030317,-0.096208,-0.2349,-0.073498,-0.047533,-0.12941,-0.018007,-0.062348,0.041928,-0.051082,0.12553,0.88455
-0.01553,-0.17367,0.028634,0.015662,-0.076772,0.027094,-0.0035664,0.0054024,0.053632,0.0096981,0.25644,0.53252,0.051244,-0.064825,-0.24877,-0.04089,-0.044726,-0.01433,-0.016628,-0.07843,0.018511,-0.017045,0.13355,0.87667
-0.015192,-0.21131,0.028224,0.016135,-0.07876,0.029536,-0.0064661,0.00084165,0.058669,0.0012706,0.24774,0.52937,0.078595,-0.027909,-0.22722,-0.028866,-0.049753,0.10005,-0.018615,-0.087801,-0.0014057,0.031905,0.14785,0.8733
-0.014505,-0.23399,0.024531,0.017018,-0.085296,0.035812,-0.0067315,-0.00059217,0.05826,-0.0093874,0.23923,0.50886,0.10854,0.012671,-0.1709,-0.030873,-0.056197,0.19603,-0.024057,-0.08876,-0.020115,0.080719,0.1605,0.87753
-0.014584,-0.23288,0.020855,0.015949,-0.096206,0.039988,-0.0049964,2.5132e-005,0.054996,-0.020807,0.23174,0.46783,0.13181,0.048323,-0.09532,-0.030153,-0.056366,0.25424,-0.030028,-0.081166,-0.039394,0.12332,0.16353,0.89202
-0.015784,-0.20393,0.019728,0.012227,-0.10922,0.037351,-0.0017248,0.0012847,0.053062,-0.034601,0.22743,0.40696,0.13872,0.068157,-0.02483,-0.013469,-0.047175,0.26485,-0.031439,-0.066619,-0.058655,0.16618,0.15395,0.92862
-0.017232,-0.15072,0.020971,0.0076831,-0.12148,0.028242,0.0030252,0.0024999,0.054826,-0.053435,0.22826,0.33653,0.12526,0.067371,0.021134,0.018829,-0.032328,0.234,-0.024394,-0.048007,-0.075192,0.21704,0.13456,1.0002
-0.017208,-0.085047,0.02208,0.0052085,-0.1315,0.017738,0.0088461,0.0040908,0.05935,-0.077377,0.23418,0.27564,0.095565,0.052256,0.03946,0.054475,-0.018887,0.18041,-0.009472,-0.028336,-0.086252,0.27245,0.11064,1.1035
-0.014452,-0.023226,0.020519,0.0062226,-0.14009,0.011505,0.014521,0.006994,0.063814,-0.102,0.24294,0.24447,0.059299,0.037057,0.043335,0.080621,-0.011164,0.1249,0.008021,-0.0094592,-0.091342,0.31826,0.086688,1.2122
-0.0093977,0.021071,0.01594,0.0093825,-0.14934,0.011326,0.018743,0.011627,0.066232,-0.12006,0.25173,0.25493,0.026211,0.035049,0.050969,0.094824,-0.0073374,0.080677,0.021433,0.0083334,-0.093006,0.34391,0.065953,1.2911
-0.0040155,0.043324,0.010488,0.011763,-0.16044,0.014042,0.0214,0.017306,0.066961,-0.12566,0.259,0.30591,0.0021497,0.051205,0.072472,0.10674,-0.0016533,0.050791,0.027195,0.025465,-0.095473,0.35696,0.052116,1.3199
-3.5993e-005,0.049447,0.007014,0.011447,-0.17207,0.014663,0.023904,0.022555,0.067961,-0.11775,0.26458,0.38463,-0.01102,0.081915,0.10506,0.13014,0.010019,0.032405,0.026784,0.041723,-0.10209,0.38314,0.049563,1.3062
0.0030132,0.050715,0.0067271,0.0091253,-0.18048,0.010896,0.027892,0.025942,0.070864,-0.10079,0.26805,0.47177,-0.013033,0.12046,0.13874,0.17283,0.026466,0.022754,0.024782,0.055731,-0.11331,0.44907,0.060497,1.2752
0.0079405,0.055916,0.0081634,0.0072395,-0.18118,0.0051781,0.033337,0.026667,0.07569,-0.082671,0.26762,0.54701,-0.0038905,0.16198,0.16578,0.23265,0.042478,0.0215,0.024926,0.065853,-0.12673,0.56022,0.081314,1.2482
0.017526,0.066348,0.0082419,0.0075438,-0.17098,0.0025328,0.037991,0.024529,0.081006,-0.071381,0.26114,0.59381,0.014653,0.20322,0.18537,0.30132,0.053653,0.028762,0.027518,0.071722,-0.13885,0.69072,0.10284,1.226
0.03133,0.076834,0.0045806,0.0094526,-0.14929,0.0062102,0.038984,0.019636,0.084883,-0.072292,0.24884,0.60327,0.036921,0.23846,0.20091,0.37087,0.059898,0.042155,0.030141,0.074833,-0.14721,0.79387,0.11606,1.1922
0.044555,0.081154,-0.0026761,0.010754,-0.11818,0.014957,0.035314,0.012401,0.085577,-0.086623,0.23445,0.57626,0.054368,0.25732,0.21432,0.43666,0.064542,0.056444,0.030556,0.077454,-0.1511,0.8272,0.11924,1.1295
0.05055,0.077223,-0.010904,0.009943,-0.081612,0.024191,0.028897,0.0039038,0.081736,-0.11086,0.2229,0.52198,0.061015,0.24869,0.22339,0.49542,0.070378,0.066308,0.028924,0.080736,-0.15075,0.77672,0.11994,1.0337
0.04554,0.06831,-0.016946,0.0078867,-0.044127,0.029838,0.023032,-0.0039455,0.072729,-0.13702,0.21578,0.45258,0.059236,0.20847,0.22385,0.54216,0.076822,0.069572,0.027413,0.083732,-0.14612,0.66579,0.12896,0.91514
0.031961,0.06021,-0.019543,0.0072045,-0.0096114,0.031317,0.019538,-0.0089915,0.059506,-0.15393,0.20893,0.37685,0.059631,0.14488,0.21292,0.57058,0.080887,0.068046,0.027849,0.084241,-0.13697,0.54388,0.15073,0.789
0.017451,0.057241,-0.020289,0.0099996,0.01948,0.031191,0.017223,-0.0099721,0.04529,-0.1499,0.19486,0.29725,0.072832,0.075901,0.19096,0.57695,0.080626,0.065485,0.029814,0.080655,-0.12426,0.46168,0.17844,0.66522
0.0098375,0.060071,-0.02217,0.0161,0.042227,0.03223,0.013245,-0.0073246,0.034846,-0.11649,0.1686,0.21262,0.098785,0.020073,0.16069,0.56356,0.077307,0.064682,0.030918,0.073103,-0.11125,0.44625,0.19893,0.54671
0.011754,0.066259,-0.026675,0.023409,0.058779,0.034878,0.0062135,-0.0029414,0.032029,-0.052386,0.13198,0.12393,0.12317,-0.013162,0.12631,0.53779,0.074137,0.066036,0.028794,0.062932,-0.10266,0.48886,0.20357,0.43437
0.019029,0.072285,-0.031904,0.029907,0.069791,0.037384,-0.001872,0.00092764,0.037037,0.03409,0.092437,0.038203,0.12599,-0.026865,0.093497,0.50706,0.073076,0.06823,0.022845,0.051227,-0.10196,0.55129,0.19589,0.33263
0.024147,0.075371,-0.033622,0.035352,0.076122,0.038002,-0.00684,0.0026818,0.04565,0.12571,0.057304,-0.033041,0.096735,-0.032006,0.06897,0.47404,0.073126,0.069802,0.01431,0.037943,-0.10886,0.58659,0.18912,0.24999
0.022093,0.074337,-0.028803,0.041088,0.078804,0.036733,-0.0058314,0.0015689,0.05155,0.20099,0.028561,-0.079717,0.043538,-0.03886,0.057825,0.43592,0.071795,0.070065,0.0050486,0.022502,-0.1191,0.56312,0.1952,0.19458
0.014,0.069693,-0.018824,0.0482,0.078956,0.0349,1.944e-005,-0.0026997,0.050338,0.24202,0.0025665,-0.098647,-0.012498,-0.050724,0.059686,0.38753,0.067969,0.068963,-0.0034813,0.0052224,-0.12711,0.47905,0.21467,0.16785
0.0057946,0.063323,-0.0093636,0.055752,0.077541,0.033357,0.0061528,-0.010084,0.04231,0.2422,-0.025113,-0.094475,-0.053898,-0.063814,0.067427,0.32458,0.063096,0.066566,-0.010199,-0.011893,-0.12945,0.36017,0.23571,0.16031
0.0030635,0.057765,-0.0065661,0.060796,0.07527,0.031573,0.0079592,-0.01969,0.031857,0.20941,-0.054112,-0.075833,-0.080296,-0.072258,0.071002,0.24416,0.05947,0.062983,-0.013983,-0.025834,-0.1265,0.24357,0.24348,0.15147
0.0064086,0.054958,-0.012318,0.060312,0.072979,0.028706,0.0040398,-0.029186,0.02398,0.1618,-0.077815,-0.050541,-0.10689,-0.073697,0.064359,0.14353,0.05755,0.058639,-0.013998,-0.034204,-0.12127,0.15725,0.23166,0.11582
0.011087,0.054898,-0.02251,0.053606,0.072153,0.025356,-0.0033332,-0.035222,0.020602,0.11768,-0.087318,-0.023931,-0.14928,-0.071291,0.049819,0.0208,0.055182,0.054295,-0.010866,-0.036451,-0.11666,0.10747,0.2069,0.034238
0.01116,0.055101,-0.029883,0.043233,0.07478,0.023723,-0.01058,-0.03514,0.019369,0.085643,-0.077677,-0.0010009,-0.20869,-0.071246,0.035942,-0.12065,0.049564,0.050541,-0.0073406,-0.03384,-0.11331,0.079179,0.18281,-0.093369
0.0046095,0.051637,-0.029329,0.033575,0.082096,0.025555,-0.015535,-0.028941,0.015536,0.061682,-0.051657,0.01094,-0.27101,-0.078447,0.030564,-0.26716,0.039925,0.04729,-0.0071348,-0.02846,-0.1098,0.046154,0.16894,-0.24242
-0.0049316,0.041373,-0.021486,0.027974,0.093058,0.029828,-0.018124,-0.019841,0.0052916,0.035544,-0.018384,0.0033103,-0.32039,-0.093626,0.035091,-0.3947,0.028219,0.043962,-0.012178,-0.022274,-0.10469,-0.017724,0.1641,-0.37176
-0.01132,0.024025,-0.0119,0.026505,0.10421,0.032795,-0.018946,-0.012637,-0.011887,0.0014257,0.011803,-0.028231,-0.35419,-0.11372,0.044891,-0.47658,0.01724,0.040311,-0.020438,-0.016943,-0.098693,-0.13265,0.15886,-0.44402
-0.011267,0.0025742,-0.0066275,0.02606,0.11185,0.030901,-0.017912,-0.010808,-0.033159,-0.03572,0.032535,-0.077784,-0.38485,-0.13446,0.054771,-0.49563,0.0080925,0.036956,-0.02653,-0.014156,-0.095038,-0.31234,0.1444,-0.44693
-0.0073297,-0.018285,-0.0078972,0.022761,0.11507,0.024132,-0.014737,-0.014382,-0.054176,-0.06374,0.043397,-0.12838,-0.42716,-0.15301,0.063894,-0.4534,-0.00050791,0.03479,-0.025303,-0.015645,-0.097526,-0.563,0.1198,-0.40114
-0.0059198,-0.034517,-0.013092,0.014929,0.11711,0.016567,-0.010651,-0.02014,-0.071434,-0.073969,0.048124,-0.1585,-0.48308,-0.16927,0.075362,-0.3701,-0.010572,0.033635,-0.015983,-0.022343,-0.10756,-0.87721,0.092149,-0.34844
-0.011924,-0.044331,-0.01742,0.0044673,0.12289,0.01332,-0.0088932,-0.024001,-0.083747,-0.069981,0.050949,-0.15209,-0.53919,-0.18555,0.091297,-0.27513,-0.022571,0.031587,-0.0035462,-0.033167,-0.1223,-1.225,0.070408,-0.32766
-0.02448,-0.04817,-0.01772,-0.0042862,0.13452,0.016355,-0.012513,-0.023824,-0.092139,-0.066535,0.053721,-0.10515,-0.579,-0.20515,0.10888,-0.19382,-0.034814,0.026156,0.0042536,-0.044567,-0.13558,-1.5512,0.058962,-0.35455
-0.037502,-0.047647,-0.014316,-0.0073167,0.1483,0.02277,-0.021089,-0.020607,-0.098389,-0.078968,0.055153,-0.024691,-0.59826,-0.22996,0.12189,-0.13769,-0.04504,0.016565,0.0024486,-0.051668,-0.14121,-1.7871,0.055928,-0.41797
-0.044506,-0.044522,-0.0098766,-0.0033806,0.15676,0.027053,-0.029798,-0.017342,-0.1032,-0.11145,0.051836,0.077593,-0.60779,-0.25764,0.12689,-0.10253,-0.052737,0.0051159,-0.0070438,-0.050635,-0.13646,-1.8753,0.056515,-0.49272
-0.043607,-0.040351,-0.0068184,0.0053242,0.15444,0.025391,-0.032618,-0.016559,-0.10534,-0.15359,0.039841,0.19047,-0.62058,-0.27968,0.12828,-0.073688,-0.060032,-0.0040151,-0.016182,-0.040782,-0.12317,-1.7956,0.057386,-0.55721
-0.038422,-0.036453,-0.0057604,0.014397,0.14298,0.018509,-0.027459,-0.018506,-0.1025,-0.18806,0.016257,0.30319,-0.63528,-0.2826,0.13711,-0.034885,-0.07027,-0.0079142,-0.016307,-0.024867,-0.10573,-1.5751,0.058123,-0.60282
-0.03428,-0.033632,-0.0060994,0.019421,0.13061,0.010896,-0.018555,-0.021295,-0.093519,-0.20277,-0.019197,0.40282,-0.63253,-0.25335,0.16367,0.023984,-0.085368,-0.0073406,-0.0044718,-0.0072867,-0.087391,-1.2782,0.059376,-0.62981
-0.033277,-0.031667,-0.007599,0.017869,0.12605,0.0072347,-0.013416,-0.022722,-0.080058,-0.19807,-0.062467,0.47538,-0.58939,-0.18702,0.20957,0.10271,-0.10403,-0.0061017,0.014329,0.0085657,-0.068064,-0.98387,0.06043,-0.63641
-0.032739,-0.029291,-0.011001,0.0099636,0.13142,0.0089013,-0.016548,-0.02214,-0.066133,-0.18396,-0.10438,0.51335,-0.5,-0.092576,0.26493,0.19107,-0.1223,-0.0077598,0.030973,0.021779,-0.045342,-0.76494,0.058835,-0.6122
-0.028366,-0.025144,-0.016895,-0.0016994,0.14046,0.013057,-0.025428,-0.020833,-0.055314,-0.1709,-0.13247,0.5243,-0.38461,0.0075606,0.31282,0.27282,-0.13613,-0.012599,0.039182,0.033196,-0.01776,-0.67667,0.052137,-0.54244
-0.018951,-0.019188,-0.024121,-0.01338,0.14358,0.014825,-0.03254,-0.020689,-0.047781,-0.16212,-0.136,0.53097,-0.27826,0.085137,0.33719,0.33201,-0.14422,-0.017663,0.04003,0.043252,0.012604,-0.74789,0.039611,-0.42004
-0.0079876,-0.013294,-0.029684,-0.021663,0.13579,0.010877,-0.031877,-0.022456,-0.040011,-0.15324,-0.11182,0.55855,-0.20824,0.1173,0.32925,0.3595,-0.14898,-0.019834,0.040339,0.050399,0.040657,-0.96754,0.022252,-0.2551
-0.00054893,-0.010179,-0.030774,-0.024544,0.12068,0.0019028,-0.024132,-0.025167,-0.027937,-0.138,-0.066949,0.61646,-0.17812,0.095934,0.28914,0.35707,-0.15501,-0.019009,0.046406,0.051648,0.061685,-1.272,0.0014296,-0.074266
0.0015793,-0.011362,-0.027225,-0.021809,0.10709,-0.0077402,-0.015895,-0.027193,-0.011234,-0.11437,-0.015032,0.68886,-0.16954,0.030491,0.22366,0.33645,-0.16601,-0.018277,0.058515,0.044918,0.074779,-1.5532,-0.021983,0.090144
0.0016636,-0.015841,-0.021927,-0.014821,0.10133,-0.012999,-0.013573,-0.027882,0.005129,-0.085853,0.03193,0.74303,-0.1583,-0.05681,0.14269,0.31274,-0.18239,-0.020911,0.070847,0.031287,0.083311,-1.6998,-0.04688,0.21368
0.004727,-0.020765,-0.018401,-0.0059055,0.10178,-0.011691,-0.017579,-0.028192,0.014039,-0.057992,0.070785,0.75089,-0.13036,-0.14106,0.056465,0.29509,-0.20117,-0.027072,0.076641,0.015244,0.091977,-1.6579,-0.07053,0.28779
0.012134,-0.023627,-0.017437,0.0025498,0.10033,-0.0061216,-0.022026,-0.029735,0.012004,-0.033861,0.1078,0.70769,-0.087087,-0.20506,-0.025659,0.28039,-0.21806,-0.033459,0.073882,0.0025927,0.10299,-1.4677,-0.088484,0.31948
0.019229,-0.0241,-0.015965,0.0091839,0.089408,-0.0015126,-0.020155,-0.033137,0.0027792,-0.012676,0.15198,0.63415,-0.039585,-0.24475,-0.095449,0.25561,-0.23024,-0.036285,0.066673,-0.002524,0.11486,-1.2447,-0.096655,0.32541
0.018587,-0.023926,-0.0096115,0.014474,0.068563,-0.0022693,-0.010501,-0.037289,-0.0044834,0.0079566,0.20642,0.56161,-0.00032361,-0.2667,-0.14564,0.20853,-0.23778,-0.03475,0.061478,0.00045338,0.12499,-1.1068,-0.094173,0.32531
0.0063156,-0.025046,0.0028967,0.020477,0.045033,-0.0088306,0.0017746,-0.040171,-0.0014916,0.028741,0.265,0.51287,0.02124,-0.27957,-0.17015,0.14013,-0.24301,-0.031665,0.061856,0.0086662,0.13366,-1.0983,-0.084461,0.33601
-0.013975,-0.027737,0.01731,0.029191,0.028145,-0.017451,0.0095276,-0.040454,0.013371,0.047342,0.31698,0.49307,0.019178,-0.28557,-0.16535,0.069005,-0.24852,-0.030671,0.066121,0.017659,0.14548,-1.164,-0.073198,0.36562
-0.033047,-0.030457,0.025945,0.04044,0.022305,-0.023064,0.009961,-0.038366,0.034199,0.059836,0.35549,0.49459,-0.0080361,-0.27891,-0.13248,0.022524,-0.2555,-0.032766,0.069339,0.023603,0.16617,-1.1934,-0.064562,0.40817
-0.042346,-0.03142,0.023121,0.051126,0.024298,-0.022993,0.006885,-0.035115,0.05217,0.063524,0.38226,0.50836,-0.054708,-0.25285,-0.079618,0.020009,-0.26326,-0.03549,0.067315,0.02477,0.19671,-1.0984,-0.058815,0.44256
-0.039783,-0.030268,0.0098142,0.056927,0.026768,-0.018663,0.0069012,-0.031571,0.061815,0.059104,0.40452,0.53068,-0.10672,-0.20964,-0.020934,0.059971,-0.27007,-0.035488,0.059144,0.021754,0.2298,-0.8689,-0.053286,0.43988
-0.030634,-0.028226,-0.0062789,0.055487,0.02459,-0.014102,0.013065,-0.027572,0.064183,0.051063,0.42691,0.56173,-0.14617,-0.16479,0.028117,0.12163,-0.27444,-0.031894,0.046922,0.016558,0.25213,-0.5698,-0.045908,0.37712
-0.023246,-0.026678,-0.015635,0.048506,0.018792,-0.012601,0.021902,-0.022475,0.065007,0.046239,0.44597,0.60013,-0.16075,-0.14051,0.057602,0.17984,-0.27611,-0.0273,0.033824,0.011177,0.25167,-0.29301,-0.038096,0.24836
-0.023117,-0.025691,-0.013312,0.040766,0.015032,-0.014275,0.026609,-0.016233,0.069918,0.051037,0.45214,0.64073,-0.15125,-0.15277,0.067316,0.22147,-0.27623,-0.025459,0.022666,0.0065068,0.22501,-0.10523,-0.034189,0.064124
-0.029715,-0.024027,-0.002254,0.036686,0.018294,-0.016426,0.023549,-0.0098386,0.08062,0.068181,0.43748,0.67709,-0.1306,-0.20207,0.064839,0.25029,-0.27673,-0.027998,0.015721,0.0023204,0.17949,-0.026175,-0.037612,-0.16102
-0.037927,-0.020603,0.0088345,0.03724,0.028379,-0.016204,0.016048,-0.0046678,0.094523,0.094511,0.40237,0.7048,-0.11478,-0.27544,0.058529,0.27743,-0.27916,-0.03317,0.014877,-0.0017271,0.12884,-0.039771,-0.046916,-0.42159
-0.042437,-0.015909,0.011521,0.039777,0.039825,-0.013209,0.011832,-0.0014724,0.10733,0.12151,0.35521,0.72098,-0.11274,-0.35788,0.05091,0.30743,-0.28363,-0.037519,0.020984,-0.004982,0.085785,-0.1159,-0.05525,-0.72226
-0.041539,-0.011883,0.0033416,0.040759,0.046034,-0.0098046,0.016288,-5.2031e-005,0.11607,0.13908,0.30621,0.7207,-0.12284,-0.44302,0.037872,0.33313,-0.28849,-0.038639,0.032502,-0.0058121,0.056637,-0.22182,-0.054156,-1.065
-0.037744,-0.010317,-0.010714,0.038851,0.044063,-0.0089705,0.027607,0.00017922,0.12025,0.14065,0.2609,0.6954,-0.13697,-0.53359,0.014052,0.34338,-0.29121,-0.03649,0.044917,-0.0031242,0.040571,-0.32159,-0.038971,-1.4347
-0.035226,-0.01132,-0.02182,0.035651,0.036321,-0.011636,0.03825,-0.00049577,0.12089,0.12647,0.21903,0.63682,-0.14733,-0.6316,-0.020791,0.33484,-0.28981,-0.03248,0.052252,0.0017918,0.032375,-0.37672,-0.01167,-1.7971
-0.036416,-0.013316,-0.023411,0.033563,0.02821,-0.015852,0.041339,-0.0020757,0.11884,0.10239,0.17884,0.54439,-0.14969,-0.72809,-0.060474,0.31489,-0.28406,-0.027705,0.050356,0.0050242,0.025783,-0.35742,0.021038,-2.1126
-0.040379,-0.014504,-0.015512,0.03295,0.024033,-0.018497,0.036169,-0.004185,0.11409,0.075454,0.14193,0.42913,-0.14205,-0.80338,-0.097324,0.29242,-0.27535,-0.022231,0.039841,0.0023158,0.015611,-0.25841,0.052658,-2.3524
-0.043965,-0.014292,-0.0044052,0.031276,0.024509,-0.017957,0.027978,-0.0056811,0.10661,0.049843,0.11412,0.30912,-0.12228,-0.83922,-0.1284,0.26622,-0.26559,-0.015819,0.026245,-0.0074798,-0.0011473,-0.10415,0.080675,-2.5033
-0.04448,-0.013233,0.0018737,0.025145,0.02742,-0.015425,0.022601,-0.0052042,0.097472,0.026481,0.10175,0.19885,-0.088551,-0.83339,-0.15672,0.22433,-0.25608,-0.0089583,0.016775,-0.020614,-0.024679,0.064122,0.10602,-2.5604
-0.041644,-0.011524,-0.0011931,0.013555,0.030199,-0.013714,0.021284,-0.0023034,0.088913,0.006145,0.10736,0.10074,-0.041885,-0.80378,-0.1859,0.15707,-0.24724,-0.0028742,0.015575,-0.030348,-0.052604,0.21143,0.12893,-2.5173
-0.03742,-0.0076466,-0.012233,-0.00044614,0.031902,-0.014716,0.020406,0.001961,0.082897,-0.0075876,0.12823,0.0063601,0.01258,-0.77792,-0.21356,0.072045,-0.23901,0.0014884,0.020889,-0.03168,-0.081944,0.32491,0.14516,-2.3684
-0.034179,0.0011997,-0.02574,-0.011261,0.03312,-0.017774,0.015929,0.005641,0.079461,-0.0090303,0.15854,-0.093059,0.068138,-0.77607,-0.2301,-0.004654,-0.23133,0.0043456,0.026417,-0.025476,-0.11204,0.4126,0.14668,-2.1198
-0.03294,0.016831,-0.036091,-0.014369,0.034474,-0.020391,0.0079151,0.0073087,0.07653,0.0053702,0.19269,-0.19527,0.12094,-0.80063,-0.22512,-0.0449,-0.22405,0.006783,0.026104,-0.018625,-0.14571,0.49042,0.12684,-1.7961
-0.033043,0.037764,-0.040673,-0.0093426,0.035507,-0.020583,0.00073567,0.007067,0.071671,0.033059,0.22713,-0.28438,0.17214,-0.83848,-0.19639,-0.040305,-0.21665,0.0095453,0.018808,-0.019756,-0.1865,0.57045,0.086163,-1.4341
-0.033227,0.059036,-0.040276,5.9679e-005,0.035076,-0.018806,-0.0010201,0.0063492,0.064378,0.065685,0.26035,-0.3393,0.22561,-0.87196,-0.15355,-0.011108,-0.20823,0.012192,0.0091674,-0.033487,-0.23308,0.65877,0.033894,-1.0682
-0.032841,0.074762,-0.037288,0.0087066,0.032661,-0.017763,0.0031247,0.0067534,0.056852,0.09406,0.29195,-0.34646,0.28322,-0.88855,-0.11323,0.0055344,-0.19808,0.013612,0.0038375,-0.057324,-0.27566,0.75865,-0.016523,-0.72039
-0.032072,0.081724,-0.033589,0.013613,0.029171,-0.020211,0.0089622,0.0088998,0.052451,0.11393,0.32174,-0.30661,0.3419,-0.8828,-0.089292,-0.021434,-0.18616,0.013525,0.0061191,-0.083173,-0.2986,0.87042,-0.054673,-0.40274
-0.031249,0.081253,-0.0296,0.015505,0.026463,-0.026528,0.011044,0.012149,0.053032,0.12788,0.34901,-0.23107,0.39455,-0.85141,-0.085458,-0.10004,-0.17311,0.013475,0.013414,-0.10201,-0.28896,0.98546,-0.077795,-0.12416
-0.030202,0.077943,-0.0246,0.017422,0.026101,-0.034013,0.0068499,0.015256,0.057391,0.14183,0.37205,-0.13194,0.43342,-0.7867,-0.094756,-0.21488,-0.15957,0.016099,0.019669,-0.10831,-0.24526,1.082,-0.089779,0.10924
-0.028515,0.076193,-0.017605,0.021707,0.028475,-0.038542,-0.0018097,0.017384,0.062047,0.1591,0.38832,-0.015723,0.45305,-0.6726,-0.10465,-0.33956,-0.14577,0.022983,0.020689,-0.1017,-0.17994,1.132,-0.096301,0.30168
-0.026365,0.077181,-0.0082605,0.02785,0.032864,-0.037395,-0.010782,0.018716,0.063634,0.17703,0.39577,0.11409,0.45103,-0.48475,-0.10324,-0.45017,-0.13166,0.032868,0.017654,-0.0858,-0.11348,1.1179,-0.10074,0.4718
-0.024899,0.078396,0.0025499,0.032854,0.038096,-0.031169,-0.016754,0.02026,0.060951,0.18859,0.39426,0.24848,0.42777,-0.19586,-0.083322,-0.53139,-0.11735,0.041989,0.015793,-0.065953,-0.064429,1.0478,-0.104,0.64262
-0.02545,0.075757,0.012629,0.033664,0.043166,-0.023313,-0.019032,0.022919,0.055253,0.18782,0.38557,0.36761,0.38657,0.21268,-0.044137,-0.57622,-0.10327,0.046633,0.019431,-0.047408,-0.042155,0.95424,-0.1073,0.82202
-0.028177,0.066587,0.019282,0.029585,0.047529,-0.017611,-0.019128,0.026449,0.04896,0.17448,0.3711,0.44577,0.33431,0.73537,0.0082078,-0.58428,-0.089627,0.046035,0.027881,-0.0342,-0.046,0.87517,-0.11403,0.99111
-0.03151,0.05138,0.020898,0.022726,0.051189,-0.01547,-0.019227,0.029129,0.044164,0.15446,0.34918,0.4651,0.28137,1.3317,0.062181,-0.56125,-0.075676,0.043172,0.035848,-0.028377,-0.069364,0.82912,-0.12825,1.1139
-0.033148,0.033418,0.018306,0.016173,0.054614,-0.01505,-0.020924,0.028647,0.042,0.13568,0.31489,0.42828,0.24011,1.9302,0.10531,-0.51693,-0.05981,0.042566,0.037954,-0.029455,-0.10415,0.80244,-0.15078,1.1622
-0.031892,0.016683,0.014617,0.011444,0.058331,-0.012904,-0.024726,0.023806,0.042847,0.12273,0.26377,0.35951,0.22246,2.4494,0.1307,-0.46031,-0.040646,0.046712,0.033399,-0.034625,-0.14269,0.75753,-0.17685,1.1346
-0.028638,0.0034467,0.013245,0.0073116,0.062229,-0.0068266,-0.030065,0.01582,0.046463,0.11434,0.19704,0.29122,0.23799,2.8269,0.14118,-0.39466,-0.018411,0.054018,0.026742,-0.040033,-0.17782,0.65614,-0.19776,1.0536
-0.025577,-0.0069603,0.015413,0.00088252,0.065123,0.0022837,-0.035569,0.0079864,0.051608,0.10531,0.12375,0.24453,0.29234,3.037,0.14655,-0.31854,0.0045943,0.060048,0.024263,-0.042535,-0.20344,0.48286,-0.20582,0.94308
-0.024335,-0.017375,0.019188,-0.010072,0.065206,0.010943,-0.039694,0.0036798,0.055689,0.091218,0.05684,0.21716,0.38514,3.0882,0.15449,-0.23375,0.025073,0.061091,0.029137,-0.04077,-0.21651,0.25563,-0.19886,0.80784
-0.024848,-0.03045,0.021005,-0.025537,0.061359,0.015455,-0.041678,0.0040638,0.055511,0.072054,0.0056336,0.18782,0.50705,3.005,0.16169,-0.15334,0.040703,0.057096,0.039395,-0.034914,-0.21872,0.019368,-0.18096,0.63339
-0.025985,-0.046429,0.018575,-0.043673,0.054342,0.014229,-0.042228,0.0072846,0.049264,0.05194,-0.029748,0.13384,0.63832,2.8123,0.15336,-0.10033,0.051615,0.051544,0.050053,-0.025666,-0.21556,-0.17269,-0.15923,0.40525
-0.027206,-0.06293,0.012834,-0.062688,0.046701,0.0083747,-0.04325,0.009812,0.038418,0.035486,-0.057284,0.048868,0.75219,2.5336,0.11295,-0.095661,0.060346,0.048449,0.057173,-0.01364,-0.21254,-0.28137,-0.1391,0.13081
-0.02943,-0.077169,0.0074072,-0.082347,0.041212,0.00048804,-0.046549,0.0088264,0.027554,0.023827,-0.086096,-0.052457,0.82386,2.1986,0.035788,-0.14433,0.070401,0.049165,0.060314,0.00025812,-0.21097,-0.29926,-0.12133,-0.15509
-0.034164,-0.08881,0.0060662,-0.10365,0.038968,-0.0070839,-0.052425,0.0037603,0.021556,0.013561,-0.11924,-0.14584,0.84058,1.8473,-0.063707,-0.23153,0.084482,0.051734,0.06159,0.014066,-0.20651,-0.25623,-0.10241,-0.40421
-0.041702,-0.10072,0.010186,-0.12683,0.038614,-0.013163,-0.059327,-0.004031,0.021892,-0.0006498,-0.15191,-0.2145,0.80643,1.5199,-0.15665,-0.33183,0.1035,0.053138,0.062727,0.024779,-0.19168,-0.20861,-0.07764,-0.57612
-0.050222,-0.11643,0.017975,-0.14953,0.037309,-0.017586,-0.06491,-0.012814,0.025102,-0.021962,-0.17598,-0.25827,0.73788,1.2409,-0.21313,-0.42291,0.12661,0.052197,0.063125,0.029642,-0.16063,-0.21467,-0.044661,-0.65088
-0.056772,-0.13623,0.025722,-0.16672,0.032591,-0.020704,-0.067698,-0.021659,0.025186,-0.048844,-0.18649,-0.2885,0.6532,1.0098,-0.21582,-0.4918,0.15187,0.050416,0.060785,0.027952,-0.11319,-0.30699,-0.005744,-0.62876
-0.059287,-0.1554,0.029929,-0.1732,0.023693,-0.023201,-0.06804,-0.030281,0.018381,-0.075917,-0.18465,-0.31518,0.56287,0.80792,-0.16639,-0.53112,0.1768,0.050157,0.055113,0.021944,-0.055741,-0.47645,0.032285,-0.52443
-0.0578,-0.16669,0.028954,-0.16686,0.011526,-0.0261,-0.067658,-0.037958,0.0064344,-0.097288,-0.17577,-0.33882,0.46691,0.61514,-0.083663,-0.53358,0.19889,0.052115,0.048798,0.015904,0.001594,-0.67601,0.06021,-0.3646
-0.05383,-0.16537,0.023486,-0.15067,-0.0022876,-0.030407,-0.068186,-0.042798,-0.0046021,-0.10992,-0.16495,-0.35361,0.35912,0.41933,0.003119,-0.49485,0.21607,0.054664,0.046657,0.013945,0.049802,-0.84112,0.069892,-0.18863
-0.048741,-0.1529,0.01601,-0.13155,-0.016319,-0.03632,-0.069847,-0.042184,-0.0093173,-0.11486,-0.15491,-0.35675,0.23372,0.21269,0.062388,-0.42418,0.22742,0.05559,0.052049,0.017853,0.085337,-0.91423,0.057887,-0.042911
-0.042813,-0.13594,0.0096811,-0.11668,-0.029601,-0.042728,-0.07118,-0.034194,-0.0074597,-0.11585,-0.14733,-0.35328,0.090042,-0.018233,0.068529,-0.35074,0.23341,0.054348,0.063731,0.026359,0.11148,-0.86226,0.027791,0.036294
-0.035881,-0.12151,0.0070366,-0.10929,-0.041477,-0.047751,-0.069968,-0.018994,-0.0040607,-0.11663,-0.14522,-0.35114,-0.065789,-0.2929,0.010525,-0.31446,0.23559,0.052455,0.075961,0.03617,0.13568,-0.68366,-0.010007,0.043938
-0.028645,-0.11189,0.0088989,-0.10703,-0.051593,-0.050148,-0.06472,0.00063871,-0.004975,-0.11882,-0.15313,-0.35173,-0.221,-0.62077,-0.10103,-0.34339,0.23553,0.051672,0.082135,0.043984,0.1642,-0.40801,-0.041776,0.01362
-0.022926,-0.10298,0.013894,-0.10396,-0.060204,-0.050439,-0.055847,0.019994,-0.011747,-0.12174,-0.17446,-0.34568,-0.35769,-0.98015,-0.23326,-0.43369,0.2341,0.051943,0.079342,0.04818,0.19739,-0.089955,-0.056054,8.5778e-006
-0.020223,-0.08692,0.018943,-0.095019,-0.068335,-0.050697,-0.045877,0.034038,-0.02032,-0.12398,-0.2087,-0.31823,-0.4574,-1.3129,-0.34073,-0.54924,0.23169,0.051326,0.070352,0.049274,0.22902,0.20435,-0.048717,0.044
-0.019811,-0.056859,0.020673,-0.079723,-0.077287,-0.053068,-0.03849,0.039364,-0.024641,-0.12527,-0.25139,-0.25861,-0.50903,-1.5469,-0.38402,-0.64279,0.22899,0.048072,0.061357,0.049135,0.25047,0.41861,-0.024595,0.14445
-0.018407,-0.010854,0.017136,-0.062582,-0.087535,-0.058197,-0.036698,0.035639,-0.021875,-0.12723,-0.29724,-0.16519,-0.51647,-1.6339,-0.34848,-0.68329,0.22745,0.042729,0.057141,0.049729,0.25701,0.52781,0.0054735,0.25796
-0.012215,0.046908,0.0089161,-0.049872,-0.097845,-0.06476,-0.041007,0.025695,-0.014675,-0.1322,-0.34394,-0.043736,-0.49956,-1.577,-0.25198,-0.66899,0.22854,0.038057,0.057411,0.052238,0.25132,0.54604,0.03031,0.32757
5.886e-005,0.10759,-0.001064,-0.045292,-0.10552,-0.070321,-0.048685,0.013924,-0.0088267,-0.14135,-0.39337,0.095795,-0.48484,-1.4244,-0.13559,-0.61815,0.23247,0.036677,0.057242,0.056888,0.24125,0.51202,0.043253,0.31889
0.015712,0.16089,-0.0090433,-0.047668,-0.10796,-0.072719,-0.054986,0.0037103,-0.0086645,-0.15341,-0.44986,0.23827,-0.49049,-1.2353,-0.041795,-0.54794,0.2376,0.038661,0.05139,0.063171,0.23333,0.4598,0.043524,0.23673
0.029507,0.19869,-0.012492,-0.052178,-0.10464,-0.071022,-0.055994,-0.0044189,-0.014287,-0.16534,-0.51688,0.35994,-0.5158,-1.0456,0.0067318,-0.46074,0.24139,0.041341,0.039101,0.070015,0.22694,0.39549,0.034226,0.112
0.037124,0.21767,-0.011577,-0.053856,-0.097986,-0.065706,-0.051379,-0.012515,-0.022492,-0.1741,-0.59424,0.43029,-0.54347,-0.86069,0.014917,-0.34901,0.24205,0.041546,0.025431,0.075852,0.21431,0.2987,0.019359,-0.027587
0.038007,0.21969,-0.0090544,-0.050578,-0.092242,-0.058328,-0.044922,-0.022877,-0.029892,-0.17813,-0.67691,0.42371,-0.55367,-0.67826,0.0060239,-0.21212,0.23941,0.038174,0.017761,0.078998,0.18666,0.14848,0.0022078,-0.17742
0.03545,0.20961,-0.0084277,-0.043464,-0.090864,-0.051078,-0.041933,-0.035534,-0.035102,-0.17741,-0.75516,0.33416,-0.53888,-0.51475,0.0034948,-0.067796,0.23424,0.032828,0.020029,0.078519,0.14208,-0.046839,-0.014497,-0.35037
0.033943,0.19209,-0.011378,-0.034881,-0.094208,-0.046273,-0.045123,-0.047771,-0.038439,-0.17277,-0.81649,0.17976,-0.50801,-0.40659,0.017516,0.053979,0.22706,0.028131,0.029217,0.075019,0.088789,-0.24188,-0.028036,-0.55231
0.035942,0.16961,-0.016209,-0.026083,-0.099343,-0.045701,-0.052053,-0.056337,-0.040218,-0.16588,-0.84962,-0.0096728,-0.47671,-0.38122,0.044897,0.13047,0.21794,0.025474,0.037083,0.070451,0.040851,-0.37787,-0.036148,-0.761
0.040571,0.14337,-0.018698,-0.016535,-0.10236,-0.04988,-0.056431,-0.060542,-0.039875,-0.16039,-0.84972,-0.21364,-0.4525,-0.42528,0.079674,0.16239,0.20753,0.024232,0.036034,0.066669,0.0091817,-0.42233,-0.03833,-0.92771
0.045082,0.11571,-0.015148,-0.0053148,-0.10152,-0.057653,-0.052586,-0.063412,-0.036832,-0.16281,-0.82189,-0.43232,-0.42772,-0.48371,0.12348,0.1728,0.19797,0.022862,0.024705,0.063839,-0.005224,-0.39477,-0.036621,-1.0025
0.047636,0.0911,-0.0055939,0.0069213,-0.098694,-0.066503,-0.039718,-0.069436,-0.031917,-0.18064,-0.77938,-0.67676,-0.38642,-0.49727,0.18594,0.18994,0.19197,0.020535,0.0089019,0.060273,-0.01077,-0.35768,-0.034902,-0.96515
0.048903,0.074104,0.0054286,0.017408,-0.097903,-0.073591,-0.022561,-0.080421,-0.027463,-0.21701,-0.73636,-0.94489,-0.3194,-0.44886,0.27455,0.22864,0.19056,0.017691,-0.0028542,0.054169,-0.018265,-0.3776,-0.037153,-0.83925
0.051135,0.065807,0.0116,0.022896,-0.10183,-0.077005,-0.0079271,-0.092836,-0.025634,-0.2645,-0.69926,-1.205,-0.23423,-0.37771,0.38305,0.28484,0.19155,0.015276,-0.0057121,0.045734,-0.033664,-0.48458,-0.046065,-0.68036
0.055586,0.062263,0.0092953,0.022162,-0.1093,-0.076487,-4.2936e-005,-0.099186,-0.026453,-0.30308,-0.66335,-1.4038,-0.15145,-0.34582,0.48869,0.34514,0.19081,0.013708,-0.0018769,0.037446,-0.056687,-0.66036,-0.062874,-0.546
0.060673,0.0571,0.00039287,0.017173,-0.11581,-0.07322,0.0016002,-0.092827,-0.027485,-0.30573,-0.61775,-1.4977,-0.08983,-0.3835,0.56169,0.39987,0.18566,0.012628,0.0015159,0.031756,-0.085759,-0.86351,-0.088037,-0.46768
0.06265,0.046431,-0.0089763,0.01168,-0.117,-0.068773,0.00053088,-0.072818,-0.025627,-0.25065,-0.55533,-1.4832,-0.053039,-0.46047,0.58015,0.44687,0.17738,0.011447,-0.0018095,0.028222,-0.1236,-1.0699,-0.12171,-0.44115
0.058446,0.031816,-0.012965,0.0082422,-0.11201,-0.063832,-0.00018577,-0.045212,-0.019466,-0.13384,-0.47997,-1.4034,-0.028951,-0.50849,0.53975,0.48389,0.17035,0.0098395,-0.012441,0.023074,-0.17692,-1.2922,-0.16351,-0.4378
0.048405,0.018579,-0.010252,0.0062087,-0.10415,-0.057508,0.00013429,-0.01977,-0.010139,0.025664,-0.40492,-1.3219,-0.001916,-0.47736,0.45227,0.49969,0.16827,0.0076726,-0.025075,0.012282,-0.24941,-1.5583,-0.21188,-0.4261
0.03664,0.011021,-0.0045598,0.0025299,-0.098082,-0.047738,0.00077718,-0.004384,-8.3851e-005,0.19227,-0.34348,-1.2823,0.032747,-0.37692,0.33585,0.47594,0.17073,0.0047017,-0.03283,-0.0042825,-0.33418,-1.8614,-0.26349,-0.38752
0.02849,0.0088378,-0.0011016,-0.0051257,-0.096028,-0.032722,0.0017495,-0.00095331,0.0090583,0.32994,-0.29909,-1.2806,0.064499,-0.26981,0.20585,0.40175,0.17323,0.00071721,-0.032483,-0.021524,-0.41356,-2.1235,-0.31285,-0.31752
0.026858,0.0077484,-0.0020701,-0.01558,-0.096204,-0.012625,0.0042703,-0.005216,0.017497,0.41956,-0.26232,-1.2712,0.077179,-0.22119,0.072795,0.29014,0.17079,-0.00386,-0.0266,-0.032495,-0.4682,-2.2088,-0.35217,-0.21482
0.03015,0.003387,-0.005005,-0.024199,-0.0947,0.0095544,0.0089568,-0.010172,0.026631,0.46769,-0.21656,-1.2002,0.0644,-0.2478,-0.053348,0.18189,0.16194,-0.0077534,-0.021234,-0.034071,-0.48933,-1.9905,-0.37253,-0.071399
0.033439,-0.0052617,-0.0052316,-0.025994,-0.089103,0.02884,0.013895,-0.010519,0.037544,0.50081,-0.14761,-1.0434,0.038144,-0.30773,-0.15892,0.13049,0.14968,-0.0096581,-0.021415,-0.030086,-0.48439,-1.4328,-0.36713,0.12476
0.032117,-0.0157,4.5863e-005,-0.019402,-0.080685,0.040668,0.015273,-0.0052688,0.049988,0.54747,-0.051088,-0.82275,0.023856,-0.33718,-0.22823,0.17533,0.13853,-0.0096591,-0.028054,-0.028851,-0.47138,-0.63526,-0.33615,0.37289
0.025382,-0.024565,0.0096712,-0.0077568,-0.0734,0.043508,0.010639,0.0027226,0.062303,0.619,0.065822,-0.59051,0.046018,-0.30177,-0.25086,0.31883,0.13038,-0.009828,-0.03837,-0.036669,-0.466,0.19174,-0.28977,0.64166
0.016917,-0.030268,0.019997,0.002707,-0.070711,0.039896,0.0018374,0.0094683,0.071931,0.70127,0.18693,-0.39597,0.11456,-0.22028,-0.22856,0.52167,0.12259,-0.013034,-0.048878,-0.052534,-0.47114,0.81152,-0.24529,0.86889
0.012215,-0.033384,0.02803,0.0067953,-0.073033,0.034933,-0.0055864,0.012739,0.076194,0.76371,0.292,-0.25901,0.22042,-0.14435,-0.17586,0.71947,0.11003,-0.020648,-0.058151,-0.068436,-0.47595,1.0633,-0.2179,0.98775
0.014551,-0.035041,0.033147,0.0033785,-0.077759,0.033055,-0.0065412,0.013254,0.073512,0.78025,0.36351,-0.16873,0.34124,-0.11457,-0.11338,0.85263,0.089302,-0.031109,-0.067241,-0.075117,-0.46394,0.93007,-0.21058,0.96696
0.022706,-0.035323,0.036158,-0.0044487,-0.081528,0.035278,-0.00066246,0.013653,0.064942,0.74766,0.39487,-0.1045,0.45223,-0.12987,-0.059035,0.89345,0.061783,-0.040803,-0.07795,-0.068666,-0.42358,0.54112,-0.21135,0.83685
0.032101,-0.033331,0.037428,-0.011797,-0.082628,0.038924,0.0071896,0.01628,0.054909,0.68809,0.3973,-0.059344,0.53631,-0.15201,-0.022777,0.85566,0.033255,-0.046744,-0.09095,-0.052695,-0.35429,0.10819,-0.20151,0.67807
0.038231,-0.028679,0.036482,-0.015059,-0.081715,0.040028,0.010852,0.021538,0.049619,0.63392,0.39934,-0.045176,0.59006,-0.13634,-0.0071725,0.78079,0.010522,-0.048835,-0.10544,-0.034578,-0.26557,-0.17244,-0.16988,0.57599
0.039482,-0.022829,0.033506,-0.013684,-0.08066,0.036509,0.0078947,0.027997,0.053208,0.60622,0.43467,-0.076757,0.62406,-0.06115,-0.010907,0.7092,-0.0024313,-0.049756,-0.12028,-0.01914,-0.17168,-0.20481,-0.1216,0.57107
0.03722,-0.018838,0.030615,-0.0099098,-0.080856,0.02966,0.0014562,0.033949,0.064159,0.60256,0.52264,-0.15084,0.65699,0.065366,-0.031352,0.65359,-0.006167,-0.052582,-0.13495,-0.0051207,-0.086121,-0.022659,-0.074258,0.64098
0.033555,-0.01948,0.030815,-0.0070975,-0.082299,0.022856,-0.0026068,0.038893,0.075286,0.60216,0.65354,-0.2415,0.70447,0.21926,-0.065002,0.592,-0.004585,-0.058205,-0.14922,0.012762,-0.018131,0.25023,-0.044322,0.72538
0.029201,-0.025112,0.035191,-0.0077683,-0.08382,0.018713,-0.00063863,0.043554,0.078163,0.5827,0.79102,-0.31726,0.76729,0.37891,-0.10766,0.4848,-0.0020006,-0.06479,-0.16158,0.038166,0.028543,0.48291,-0.035485,0.7712
0.023386,-0.033003,0.041205,-0.012282,-0.083852,0.017123,0.0061092,0.048439,0.068982,0.53466,0.89284,-0.36452,0.82699,0.53216,-0.15609,0.30424,-0.00065052,-0.069598,-0.16836,0.068879,0.055152,0.61105,-0.03862,0.7619
0.015549,-0.038951,0.044339,-0.018634,-0.08105,0.015738,0.013154,0.052423,0.05114,0.46259,0.93679,-0.39489,0.85463,0.67247,-0.20993,0.056115,-0.0001552,-0.071462,-0.16489,0.097649,0.066149,0.6568,-0.042316,0.71204
0.0067644,-0.040317,0.042023,-0.023459,-0.074583,0.012344,0.017112,0.052952,0.032284,0.37465,0.93316,-0.42875,0.82967,0.7937,-0.27099,-0.22034,0.0010717,-0.071646,-0.14851,0.1173,0.066462,0.68812,-0.043489,0.64041
-0.00072405,-0.038312,0.036292,-0.023895,-0.064215,0.0070183,0.018748,0.047958,0.018216,0.27071,0.91432,-0.47082,0.75664,0.89024,-0.33901,-0.47305,0.0038013,-0.072396,-0.12126,0.12569,0.059059,0.75405,-0.04813,0.55172
-0.0054015,-0.037536,0.032492,-0.019346,-0.050188,0.0022861,0.022123,0.037814,0.0086652,0.13973,0.90929,-0.50239,0.66569,0.95903,-0.40712,-0.66313,0.0069377,-0.074562,-0.089938,0.12621,0.044401,0.84656,-0.062173,0.44337
-0.0078023,-0.042682,0.034908,-0.01194,-0.032751,0.0013105,0.030728,0.025456,-0.0018255,-0.031839,0.92256,-0.49967,0.59398,0.99606,-0.46163,-0.77956,0.0081271,-0.076508,-0.062629,0.12384,0.022427,0.91387,-0.082047,0.32561
-0.0098093,-0.054682,0.042994,-0.0051151,-0.011596,0.0057575,0.044087,0.014396,-0.019153,-0.24748,0.93274,-0.46207,0.56022,0.98819,-0.48768,-0.83597,0.0054042,-0.075355,-0.043963,0.12048,-0.0043101,0.90765,-0.094618,0.22928
-0.012552,-0.06944,0.05136,-0.0011864,0.014112,0.015064,0.057785,0.0063921,-0.045252,-0.49366,0.91086,-0.42147,0.55182,0.91109,-0.47676,-0.85511,-0.0014808,-0.069527,-0.032298,0.1139,-0.029051,0.82185,-0.087027,0.18855
-0.01499,-0.080541,0.053453,0.00021919,0.044521,0.027468,0.066816,0.00089843,-0.077298,-0.74374,0.84324,-0.41933,0.53536,0.74354,-0.43047,-0.8534,-0.011075,-0.060395,-0.021294,0.1011,-0.0427,0.69304,-0.057482,0.21322
-0.014691,-0.084075,0.046019,0.0014033,0.07731,0.041676,0.069305,-0.003278,-0.11023,-0.97026,0.74173,-0.46753,0.48279,0.49288,-0.35816,-0.83487,-0.021507,-0.051595,-0.0050232,0.082497,-0.038442,0.56782,-0.017237,0.2773
-0.010266,-0.08175,0.0312,0.0039888,0.10703,0.057652,0.067461,-0.0058808,-0.13975,-1.1581,0.63482,-0.52671,0.39248,0.21083,-0.27174,-0.79635,-0.032006,-0.04653,0.017093,0.06274,-0.016005,0.46857,0.017821,0.33585
-0.0032983,-0.079618,0.015145,0.0067057,0.12696,0.075943,0.065174,-0.0049104,-0.16359,-1.3109,0.54808,-0.52385,0.28796,-0.02022,-0.18265,-0.73827,-0.043508,-0.04608,0.039382,0.047196,0.017713,0.38494,0.038307,0.35501
0.0021005,-0.083304,0.0043856,0.0057447,0.13271,0.096214,0.064595,0.001377,-0.18096,-1.4461,0.48879,-0.39889,0.19592,-0.12798,-0.10271,-0.67333,-0.057898,-0.04833,0.053986,0.03732,0.052456,0.2923,0.045801,0.32792
0.0020385,-0.09355,0.0022332,-0.0022279,0.12515,0.11627,0.064807,0.012021,-0.19216,-1.5821,0.44464,-0.14623,0.12175,-0.090393,-0.045588,-0.62684,-0.076432,-0.050437,0.056928,0.029301,0.080365,0.17613,0.047972,0.26444
-0.0041407,-0.10558,0.0071054,-0.016661,0.10999,0.13245,0.063564,0.022919,-0.19886,-1.7248,0.39502,0.1798,0.043665,0.057097,-0.024373,-0.62737,-0.09844,-0.050994,0.051486,0.017414,0.099734,0.041081,0.050167,0.16954
-0.01299,-0.11266,0.013606,-0.03216,0.094101,0.14116,0.060201,0.029125,-0.20442,-1.8613,0.32529,0.4979,-0.069432,0.25451,-0.045031,-0.69156,-0.12116,-0.050929,0.046151,-0.00072228,0.11438,-0.098002,0.05154,0.035857
-0.019113,-0.11091,0.01587,-0.041041,0.081399,0.14084,0.056796,0.028139,-0.21272,-1.9657,0.23461,0.74562,-0.23044,0.4627,-0.10074,-0.81099,-0.14081,-0.052232,0.048582,-0.02144,0.12969,-0.22931,0.048521,-0.13974
-0.018874,-0.1017,0.011374,-0.037815,0.071498,0.1329,0.056437,0.021504,-0.2259,-2.014,0.13438,0.90623,-0.41884,0.68054,-0.1729,-0.94963,-0.15432,-0.055687,0.060078,-0.037046,0.14881,-0.34767,0.041104,-0.33356
-0.012905,-0.090228,0.0028048,-0.022527,0.061931,0.12133,0.060301,0.013492,-0.24259,-1.9963,0.041027,1.0026,-0.58963,0.91753,-0.23984,-1.0559,-0.16052,-0.059595,0.07479,-0.040751,0.17188,-0.44753,0.0352,-0.49393
-0.0054738,-0.081781,-0.0036217,-0.00073184,0.051675,0.1107,0.066323,0.0080575,-0.25867,-1.9193,-0.031124,1.0699,-0.69921,1.1479,-0.28756,-1.0859,-0.16047,-0.060677,0.084284,-0.030524,0.19821,-0.51567,0.038647,-0.57001
-0.001208,-0.078524,-0.0025786,0.01982,0.042746,0.10383,0.070684,0.0064948,-0.26972,-1.7965,-0.073614,1.1304,-0.72889,1.2948,-0.31496,-1.0256,-0.15661,-0.056525,0.084062,-0.0092219,0.22846,-0.53329,0.054766,-0.54813
-0.0017966,-0.07875,0.0062498,0.033514,0.038604,0.10031,0.070675,0.007339,-0.27305,-1.6336,-0.084888,1.1883,-0.69014,1.2688,-0.32982,-0.89962,-0.15155,-0.047667,0.077096,0.018366,0.26416,-0.48716,0.07945,-0.46125
-0.0052344,-0.07854,0.017573,0.03947,0.041052,0.096953,0.066349,0.0080929,-0.26716,-1.4217,-0.070603,1.2421,-0.61095,1.0377,-0.33943,-0.75882,-0.14701,-0.037547,0.071637,0.048678,0.30445,-0.38163,0.10411,-0.35874
-0.0080053,-0.07439,0.024112,0.040928,0.048525,0.090096,0.059747,0.0070971,-0.2495,-1.1454,-0.04394,1.3011,-0.51579,0.66731,-0.34336,-0.6526,-0.14344,-0.030346,0.074878,0.080448,0.34299,-0.24316,0.12149,-0.26032
-0.0081232,-0.065239,0.021767,0.042183,0.057124,0.078234,0.052827,0.0042217,-0.2157,-0.79902,-0.024501,1.388,-0.41414,0.294,-0.33431,-0.60181,-0.14014,-0.028259,0.087296,0.1137,0.36827,-0.1147,0.1295,-0.13602
-0.0064099,-0.052976,0.012352,0.045346,0.063203,0.063133,0.046248,0.00035461,-0.16245,-0.40013,-0.034007,1.5244,-0.30322,0.041961,-0.30551,-0.58915,-0.13561,-0.030279,0.10203,0.1484,0.36804,-0.041146,0.13082,0.066281
-0.0051816,-0.041341,0.0019009,0.049142,0.065206,0.048487,0.039902,-0.0034509,-0.092674,0.013165,-0.089343,1.7073,-0.1797,-0.05414,-0.25797,-0.57351,-0.12817,-0.033372,0.10992,0.18411,0.33553,-0.049557,0.12994,0.36702
-0.0058805,-0.033848,-0.0039182,0.050328,0.06356,0.037109,0.034206,-0.0064556,-0.018666,0.39824,-0.19645,1.8948,-0.050559,-0.065134,-0.20082,-0.51907,-0.11669,-0.034993,0.10625,0.22025,0.27379,-0.1307,0.13061,0.72259
-0.0078977,-0.03184,-0.0035444,0.046395,0.059466,0.028906,0.030444,-0.0083333,0.041022,0.72475,-0.34902,2.015,0.063955,-0.11494,-0.14415,-0.41958,-0.10143,-0.034837,0.094141,0.25584,0.19583,-0.23261,0.13499,1.0469
-0.0094154,-0.033797,0.00025705,0.037465,0.054132,0.021321,0.029676,-0.0092391,0.070302,0.97921,-0.53298,1.9972,0.13564,-0.30392,-0.090715,-0.30171,-0.084373,-0.034404,0.081834,0.28845,0.12044,-0.27647,0.14341,1.2723
-0.0091473,-0.036353,0.0033481,0.026179,0.048945,0.011808,0.031302,-0.0099319,0.0646,1.1567,-0.73297,1.811,0.1383,-0.66132,-0.034633,-0.20551,-0.068607,-0.034862,0.076204,0.31369,0.065512,-0.19405,0.15397,1.3986
-0.0072994,-0.036379,0.0036099,0.016037,0.045672,0.0001368,0.03278,-0.011638,0.033739,1.2514,-0.93572,1.4862,0.057938,-1.1464,0.030736,-0.1565,-0.056691,-0.035306,0.077638,0.32657,0.041476,0.030995,0.16257,1.4851
-0.0051731,-0.032736,0.0021683,0.0096657,0.045689,-0.011535,0.030868,-0.015387,-0.0037073,1.258,-1.1284,1.1006,-0.10016,-1.6779,0.1017,-0.14911,-0.048977,-0.033183,0.080237,0.32449,0.047505,0.34429,0.16461,1.5914
-0.0041591,-0.026562,0.0019548,0.0081099,0.048622,-0.02082,0.023403,-0.021093,-0.030901,1.1834,-1.2958,0.73931,-0.31003,-2.1609,0.16,-0.1526,-0.043184,-0.026669,0.076967,0.30945,0.072345,0.64083,0.1582,1.7168
-0.0050692,-0.020105,0.0051854,0.011062,0.051988,-0.027381,0.010318,-0.027082,-0.040991,1.0549,-1.4217,0.4492,-0.53096,-2.5038,0.18086,-0.13403,-0.035842,-0.016824,0.065455,0.28732,0.099891,0.81473,0.14621,1.7949
-0.0079685,-0.015139,0.011804,0.0172,0.052807,-0.033172,-0.0065419,-0.030662,-0.038088,0.91346,-1.4972,0.21952,-0.7202,-2.6378,0.14878,-0.080894,-0.024785,-0.0073607,0.049824,0.26431,0.11695,0.80893,0.13501,1.7515
-0.012117,-0.012143,0.019804,0.024236,0.050216,-0.040428,-0.024361,-0.029617,-0.031473,0.79343,-1.5273,-0.0013678,-0.84757,-2.544,0.070008,-0.007443,-0.010824,-0.0019442,0.037289,0.24339,0.11888,0.6352,0.12996,1.5761
-0.015942,-0.010584,0.026816,0.029135,0.046712,-0.049409,-0.040377,-0.023719,-0.028138,0.70599,-1.5307,-0.26538,-0.90479,-2.2719,-0.027778,0.058209,0.0028258,-0.0013035,0.032493,0.22348,0.10965,0.35618,0.13122,1.345
-0.017492,-0.0097398,0.031599,0.029189,0.04652,-0.058135,-0.052722,-0.015199,-0.029037,0.63997,-1.5266,-0.58943,-0.90366,-1.9203,-0.1085,0.095053,0.013041,-0.002777,0.034156,0.20143,0.096681,0.045372,0.13341,1.1722
-0.015553,-0.0092568,0.034415,0.023644,0.05206,-0.064408,-0.061014,-0.0076749,-0.030715,0.57998,-1.5196,-0.94907,-0.86389,-1.5811,-0.14505,0.10236,0.019265,-0.0027799,0.03645,0.17453,0.08442,-0.2484,0.12972,1.1275
-0.010729,-0.0091184,0.036307,0.014568,0.061375,-0.068139,-0.066434,-0.0041196,-0.02975,0.52488,-1.4946,-1.3019,-0.79856,-1.2868,-0.1305,0.09692,0.023914,-6.3966e-006,0.033601,0.14114,0.071408,-0.51526,0.11731,1.1907
-0.0053468,-0.009325,0.038066,0.0058,0.068839,-0.07163,-0.07097,-0.0051951,-0.025939,0.49035,-1.4295,-1.6197,-0.70732,-1.0073,-0.07793,0.099238,0.030347,0.0035429,0.023865,0.099484,0.052731,-0.77666,0.099417,1.2778
-0.0019428,-0.0097059,0.03983,0.00037014,0.068764,-0.077426,-0.075984,-0.0091176,-0.02213,0.49366,-1.3163,-1.903,-0.58194,-0.70534,-0.01104,0.12112,0.040081,0.0046271,0.010051,0.047348,0.025246,-1.0668,0.082425,1.3143
-0.0014915,-0.0099873,0.04151,-0.0016021,0.059083,-0.085695,-0.081086,-0.01316,-0.021673,0.53518,-1.1734,-2.1687,-0.41915,-0.40047,0.048404,0.16407,0.051537,0.0019658,-0.0030963,-0.015693,-0.0089607,-1.4137,0.069928,1.2915
-0.0029363,-0.0099174,0.043445,-0.0026706,0.042237,-0.093693,-0.084431,-0.015702,-0.026025,0.59316,-1.0394,-2.4233,-0.23009,-0.17793,0.090172,0.22737,0.061291,-0.002461,-0.012002,-0.08494,-0.043662,-1.8264,0.058501,1.2612
-0.0044003,-0.009269,0.046404,-0.0055247,0.022777,-0.097923,-0.084587,-0.017342,-0.034154,0.63602,-0.94943,-2.6461,-0.038359,-0.12499,0.11844,0.31619,0.066661,-0.0052721,-0.015565,-0.15004,-0.072909,-2.2877,0.038388,1.2794
-0.0048596,-0.00779,0.050782,-0.010252,0.0039442,-0.097128,-0.082593,-0.020304,-0.043513,0.64153,-0.91511,-2.7982,0.13154,-0.24594,0.14679,0.44042,0.067426,-0.0049806,-0.01463,-0.19958,-0.094977,-2.7542,-0.0010784,1.3517
-0.0047137,-0.0053049,0.055799,-0.013735,-0.013845,-0.093454,-0.082296,-0.026667,-0.051351,0.60771,-0.92137,-2.8508,0.26585,-0.43316,0.18742,0.60381,0.065478,-0.0036086,-0.011274,-0.22824,-0.11271,-3.1628,-0.064484,1.4277
-0.004915,-0.0019882,0.059724,-0.011683,-0.031623,-0.090804,-0.088121,-0.036755,-0.055629,0.54868,-0.94201,-2.8098,0.36405,-0.52662,0.24024,0.79194,0.063066,-0.0050276,-0.008996,-0.24088,-0.13036,-3.4414,-0.14549,1.4429
-0.0057534,0.0014561,0.061187,-0.0016127,-0.049393,-0.091943,-0.10157,-0.048816,-0.055714,0.48115,-0.95883,-2.7167,0.43163,-0.41774,0.28906,0.97034,0.061406,-0.011459,-0.013066,-0.24929,-0.14978,-3.5226,-0.2265,1.3679
-0.0065512,0.0040252,0.060424,0.015487,-0.065327,-0.096869,-0.1191,-0.060075,-0.053084,0.41266,-0.96859,-2.6245,0.47069,-0.11574,0.30939,1.0972,0.060681,-0.021292,-0.029282,-0.26357,-0.16878,-3.3583,-0.28337,1.2219
-0.0063914,0.0050431,0.059072,0.035657,-0.077607,-0.10365,-0.13351,-0.068324,-0.051588,0.33931,-0.97455,-2.566,0.47757,0.27095,0.28444,1.1439,0.060929,-0.030196,-0.060734,-0.28505,-0.18257,-2.934,-0.29444,1.0449
-0.0049591,0.0047392,0.058429,0.053729,-0.087054,-0.11062,-0.13825,-0.072973,-0.056307,0.25209,-0.9736,-2.5398,0.44884,0.61351,0.21913,1.1113,0.06254,-0.034561,-0.10456,-0.30657,-0.18645,-2.2842,-0.25119,0.85774
-0.0026913,0.0042476,0.05768,0.064879,-0.097524,-0.11773,-0.13191,-0.074972,-0.070825,0.14582,-0.95257,-2.5212,0.3896,0.83379,0.14167,1.0285,0.065792,-0.034228,-0.15172,-0.31971,-0.17792,-1.5017,-0.1657,0.64728
-0.0003579,0.0048896,0.053942,0.065499,-0.11304,-0.1261,-0.11948,-0.075814,-0.094145,0.024991,-0.89626,-2.4866,0.31543,0.92023,0.089696,0.93617,0.070191,-0.032218,-0.19091,-0.32264,-0.15735,-0.7278,-0.06912,0.38486
0.0012715,0.0071962,0.044497,0.053962,-0.13396,-0.13633,-0.10912,-0.076343,-0.11946,-0.096061,-0.79789,-2.4297,0.24611,0.89789,0.088928,0.86179,0.074654,-0.031826,-0.21472,-0.3214,-0.128,-0.11325,0.0013155,0.054711
0.0014165,0.010394,0.029533,0.031714,-0.15594,-0.14756,-0.10657,-0.076184,-0.13619,-0.19777,-0.66079,-2.3563,0.1962,0.79631,0.13777,0.80392,0.078551,-0.033731,-0.2235,-0.3238,-0.095646,0.24412,0.021889,-0.33615
-0.00067962,0.012789,0.012961,0.0039897,-0.17318,-0.15812,-0.11134,-0.07424,-0.13476,-0.26242,-0.49057,-2.2651,0.17035,0.6442,0.20744,0.73399,0.082474,-0.035585,-0.22414,-0.33164,-0.067185,0.35272,-0.0032482,-0.77381
-0.0053036,0.012826,0.00030137,-0.021214,-0.18354,-0.16716,-0.11746,-0.069945,-0.11145,-0.281,-0.28752,-2.1338,0.16642,0.4797,0.25743,0.61545,0.087665,-0.034309,-0.22444,-0.33846,-0.047861,0.3313,-0.043908,-1.2592
-0.011707,0.010115,-0.0049252,-0.03628,-0.19091,-0.17576,-0.11855,-0.064349,-0.070342,-0.25684,-0.049097,-1.925,0.18279,0.34699,0.25666,0.42897,0.094493,-0.02899,-0.22705,-0.33513,-0.038001,0.34592,-0.062768,-1.8097
-0.018099,0.0057438,-0.003572,-0.037757,-0.20244,-0.18642,-0.11304,-0.059993,-0.021141,-0.20422,0.21954,-1.6113,0.22277,0.27136,0.19876,0.18897,0.10153,-0.021903,-0.22783,-0.31835,-0.031987,0.50896,-0.039147,-2.4358
-0.022436,0.0016999,-0.00018149,-0.028261,-0.22282,-0.20117,-0.10556,-0.059347,0.02564,-0.14245,0.49847,-1.1986,0.29199,0.23755,0.10389,-0.058005,0.1064,-0.016866,-0.21974,-0.2947,-0.021244,0.80645,0.019478,-3.1103
-0.023419,-0.00020749,0.00011936,-0.015025,-0.25044,-0.21972,-0.10342,-0.062797,0.062672,-0.088384,0.75935,-0.73127,0.39017,0.20065,0.0081193,-0.25223,0.10779,-0.016351,-0.19957,-0.27674,0.00014255,1.11,0.086587,-3.7599
-0.020978,0.00074042,-0.0052938,-0.0060174,-0.27843,-0.23892,-0.11084,-0.067821,0.086275,-0.051544,0.98149,-0.27317,0.50349,0.12704,-0.053171,-0.34717,0.10673,-0.019711,-0.17206,-0.27471,0.031324,1.2721,0.13855,-4.288
-0.01607,0.0038926,-0.015628,-0.0061772,-0.2996,-0.25408,-0.12574,-0.070292,0.093699,-0.034244,1.1629,0.12068,0.60424,0.029462,-0.059371,-0.32982,0.10579,-0.023867,-0.14799,-0.29043,0.065488,1.2379,0.17136,-4.6146
-0.01025,0.0076561,-0.02813,-0.015955,-0.31084,-0.26164,-0.14131,-0.067191,0.080558,-0.035458,1.315,0.4247,0.65987,-0.038772,-0.010846,-0.22575,0.10687,-0.025804,-0.13714,-0.31772,0.094916,1.0894,0.19913,-4.7087
-0.0053418,0.010361,-0.040318,-0.03241,-0.31385,-0.26135,-0.15101,-0.058672,0.041944,-0.054661,1.4439,0.64551,0.6471,-0.027705,0.073774,-0.087545,0.10957,-0.024786,-0.14133,-0.34774,0.11597,0.98705,0.23719,-4.596
-0.0029684,0.011142,-0.051222,-0.051426,-0.31246,-0.25667,-0.15276,-0.047811,-0.022488,-0.09239,1.537,0.81093,0.56215,0.067003,0.16631,0.026495,0.11181,-0.022565,-0.15278,-0.37408,0.12996,1.0521,0.28565,-4.3411
-0.0036824,0.010423,-0.061118,-0.069456,-0.3095,-0.25261,-0.14936,-0.038146,-0.10341,-0.14758,1.5686,0.95528,0.41991,0.20153,0.2393,0.073427,0.11201,-0.021506,-0.1596,-0.39401,0.13977,1.2812,0.32781,-4.0187
-0.0061647,0.0096797,-0.070551,-0.084162,-0.30583,-0.25244,-0.14527,-0.030973,-0.18185,-0.21517,1.5218,1.1076,0.24305,0.32047,0.27411,0.037903,0.11073,-0.022302,-0.15427,-0.40657,0.14622,1.5556,0.34411,-3.6867
-0.00757,0.010488,-0.079607,-0.094306,-0.30143,-0.25552,-0.14272,-0.024518,-0.2363,-0.28771,1.4087,1.2827,0.050397,0.39488,0.26462,-0.067643,0.11013,-0.023265,-0.13879,-0.41076,0.14778,1.7348,0.3282,-3.3708
-0.0054099,0.013322,-0.087729,-0.099356,-0.29673,-0.25819,-0.14028,-0.015552,-0.2531,-0.36089,1.2677,1.4752,-0.14528,0.42569,0.21665,-0.21213,0.1119,-0.021814,-0.12215,-0.40619,0.1435,1.7558,0.29105,-3.064
0.00027063,0.016941,-0.093759,-0.099022,-0.29256,-0.25712,-0.13447,-0.0020007,-0.23332,-0.43861,1.1395,1.658,-0.32913,0.41453,0.14408,-0.35795,0.11552,-0.016894,-0.11203,-0.39525,0.13562,1.6658,0.25005,-2.7428
0.0065142,0.018997,-0.096079,-0.092868,-0.2891,-0.2524,-0.12258,0.015526,-0.19126,-0.5316,1.0389,1.7922,-0.47592,0.33849,0.06369,-0.47027,0.11864,-0.010187,-0.10719,-0.38381,0.12839,1.5714,0.21395,-2.3933
0.0096948,0.017643,-0.09315,-0.080394,-0.28507,-0.24756,-0.10436,0.034297,-0.14592,-0.64812,0.94799,1.8465,-0.55423,0.16159,-0.009437,-0.52189,0.1191,-0.0050153,-0.09721,-0.37893,0.12398,1.5525,0.17716,-2.0327
0.0086959,0.012971,-0.084637,-0.061892,-0.2782,-0.24623,-0.081624,0.051363,-0.11108,-0.78211,0.83517,1.8157,-0.54413,-0.12374,-0.064823,-0.49693,0.11658,-0.0038063,-0.070173,-0.38511,0.11953,1.6107,0.12778,-1.71
0.0060828,0.0070601,-0.072512,-0.039605,-0.26638,-0.24806,-0.056798,0.065212,-0.090143,-0.90808,0.68477,1.7254,-0.45441,-0.46638,-0.097725,-0.39677,0.11249,-0.0062512,-0.022687,-0.40203,0.10897,1.6834,0.06144,-1.4772
0.0059124,0.0024229,-0.06097,-0.018007,-0.24871,-0.24773,-0.031836,0.076116,-0.077597,-0.98853,0.51161,1.616,-0.32214,-0.77297,-0.10907,-0.24676,0.10838,-0.0096907,0.036005,-0.42568,0.088391,1.7004,-0.011396,-1.3483
0.0099731,4.862e-005,-0.054545,-0.0023211,-0.22577,-0.23789,-0.0082112,0.085357,-0.06441,-0.99073,0.34885,1.5167,-0.19078,-0.96454,-0.10464,-0.096172,0.10456,-0.011343,0.089589,-0.45182,0.060449,1.6356,-0.070457,-1.2746
0.015919,-0.001312,-0.055329,0.0041492,-0.19916,-0.21398,0.012631,0.094245,-0.043378,-0.90242,0.22098,1.4275,-0.083505,-1.0286,-0.093339,-0.0037737,0.10033,-0.010433,0.12606,-0.47865,0.033375,1.5147,-0.09814,-1.1607
0.019162,-0.0039945,-0.061371,0.001946,-0.1707,-0.17701,0.029273,0.10363,-0.011947,-0.73627,0.12555,1.3219,0.005202,-1.0231,-0.084345,-0.01154,0.095293,-0.0084559,0.14619,-0.50665,0.015187,1.3867,-0.089622,-0.91804
0.016918,-0.0094144,-0.067792,-0.0050285,-0.14142,-0.13222,0.04101,0.1139,0.027516,-0.52149,0.03856,1.1696,0.091614,-1.0289,-0.083736,-0.12132,0.090339,-0.0074967,0.16236,-0.53574,0.0077574,1.2857,-0.054174,-0.52254
0.010792,-0.016976,-0.070135,-0.012193,-0.11077,-0.085273,0.04852,0.12512,0.069099,-0.28994,-0.062885,0.96333,0.17534,-1.0885,-0.092382,-0.29255,0.087101,-0.0082453,0.18847,-0.56243,0.0056488,1.2131,-0.0087153,-0.036592
0.00555,-0.024798,-0.067574,-0.017079,-0.07691,-0.039128,0.053686,0.13686,0.10579,-0.065852,-0.18143,0.73239,0.23014,-1.1772,-0.10664,-0.46627,0.08638,-0.0094872,0.22871,-0.5797,0.00046997,1.1466,0.03081,0.42227
0.0051811,-0.031462,-0.063499,-0.020128,-0.038391,0.0060359,0.058532,0.14808,0.13258,0.13697,-0.29937,0.53404,0.22547,-1.2214,-0.12164,-0.6007,0.08715,-0.0094372,0.27373,-0.57988,-0.012989,1.0612,0.055408,0.74707
0.0096471,-0.037111,-0.062961,-0.023277,0.0035359,0.050531,0.064098,0.15713,0.14897,0.31404,-0.39544,0.42642,0.16153,-1.1449,-0.13477,-0.69278,0.087202,-0.007569,0.30687,-0.5585,-0.033601,0.94519,0.064895,0.89852
0.014976,-0.042907,-0.068908,-0.028028,0.043857,0.093052,0.070227,0.16244,0.15934,0.46896,-0.46195,0.4385,0.084579,-0.90699,-0.14693,-0.77008,0.084863,-0.0052005,0.3156,-0.51609,-0.055513,0.80276,0.066292,0.91709
0.016388,-0.049524,-0.079979,-0.034816,0.075576,0.13068,0.076334,0.16334,0.17009,0.6112,-0.50767,0.55344,0.062777,-0.51353,-0.16072,-0.8609,0.080222,-0.0043124,0.29941,-0.45672,-0.072377,0.64709,0.069624,0.88631
0.011714,-0.056235,-0.091369,-0.043747,0.093637,0.16065,0.08224,0.16071,0.18528,0.7495,-0.54621,0.71484,0.13745,-0.0071525,-0.17756,-0.96727,0.074742,-0.005746,0.26871,-0.38485,-0.080586,0.49256,0.082187,0.87645
0.0025297,-0.061548,-0.097895,-0.05519,0.09812,0.18196,0.088078,0.15658,0.20356,0.88139,-0.58225,0.85293,0.28844,0.54839,-0.19587,-1.0613,0.069699,-0.0084864,0.23638,-0.30377,-0.079588,0.35146,0.10367,0.90836
-0.0074208,-0.064736,-0.097042,-0.069031,0.093907,0.19528,0.093332,0.15282,0.21897,0.98752,-0.60832,0.91646,0.44357,1.0804,-0.21092,-1.105,0.064984,-0.010684,0.20897,-0.21681,-0.070153,0.23447,0.12547,0.95775
-0.014748,-0.066655,-0.09009,-0.083206,0.086819,0.20166,0.096197,0.14954,0.22512,1.0397,-0.61374,0.89281,0.5267,1.5186,-0.21558,-1.0746,0.059388,-0.011416,0.18399,-0.1299,-0.052732,0.15087,0.13574,0.98862
-0.017912,-0.068937,-0.081001,-0.093419,0.079389,0.20146,0.094365,0.14463,0.21982,1.0207,-0.59635,0.80612,0.50725,1.8087,-0.20133,-0.97194,0.052051,-0.011478,0.15453,-0.051741,-0.027237,0.1059,0.1275,0.98537
-0.017095,-0.072254,-0.074087,-0.095089,0.069881,0.19469,0.086902,0.13508,0.20667,0.94091,-0.56659,0.6973,0.41312,1.9233,-0.16067,-0.81679,0.043626,-0.012391,0.11622,0.0098564,0.0060619,0.097355,0.10411,0.95949
-0.013329,-0.075396,-0.071872,-0.086242,0.05528,0.18226,0.07551,0.11922,0.19245,0.83622,-0.54159,0.60032,0.29961,1.8623,-0.091847,-0.63451,0.035988,-0.014553,0.070431,0.053048,0.045638,0.1163,0.077536,0.93144
-0.0079315,-0.076229,-0.074086,-0.068786,0.035308,0.16657,0.063693,0.098259,0.18225,0.74499,-0.5354,0.52968,0.20208,1.6407,-0.0043319,-0.44925,0.030681,-0.01639,0.02163,0.083738,0.088558,0.15404,0.060318,0.90833
-0.0023622,-0.073763,-0.078071,-0.046896,0.013577,0.15057,0.054276,0.075522,0.17597,0.68294,-0.55328,0.48355,0.11082,1.279,0.079616,-0.28478,0.027516,-0.01557,-0.027672,0.11165,0.13103,0.2101,0.057251,0.87782
0.0020494,-0.069351,-0.080339,-0.023901,-0.0051985,0.13629,0.047443,0.054171,0.16915,0.63696,-0.59173,0.45518,-0.0141,0.80517,0.1315,-0.16363,0.024664,-0.011395,-0.078802,0.14331,0.16922,0.29142,0.062852,0.82086
0.0047347,-0.065741,-0.078552,-0.00058205,-0.01922,0.12424,0.041152,0.035229,0.15745,0.5834,-0.64089,0.44048,-0.20313,0.26842,0.12996,-0.098129,0.020244,-0.006156,-0.13362,0.17773,0.20006,0.39866,0.065986,0.72851
0.0062335,-0.064717,-0.072864,0.023592,-0.030946,0.11429,0.033573,0.017717,0.14164,0.51424,-0.68599,0.43575,-0.44548,-0.25396,0.073753,-0.078622,0.014026,-0.0038433,-0.18942,0.20835,0.22169,0.50891,0.057431,0.60703
0.007545,-0.065533,-0.065765,0.047705,-0.044478,0.10679,0.025137,0.0005503,0.12902,0.44708,-0.70949,0.43036,-0.68883,-0.67191,-0.014639,-0.071634,0.0076687,-0.006891,-0.23771,0.22953,0.23363,0.57326,0.034699,0.46906
0.0088015,-0.065691,-0.06035,0.068065,-0.061453,0.10239,0.0182,-0.015738,0.12969,0.40998,-0.69743,0.40429,-0.86811,-0.91555,-0.098006,-0.034917,0.0032244,-0.013659,-0.26879,0.24157,0.23658,0.53971,0.0016848,0.32301
0.008622,-0.063417,-0.05808,0.07996,-0.079266,0.10047,0.014713,-0.02915,0.15,0.41555,-0.64886,0.3364,-0.94063,-0.96227,-0.1414,0.058662,0.0012749,-0.019095,-0.27859,0.2501,0.23198,0.38947,-0.034764,0.17222
0.005155,-0.059492,-0.057595,0.081161,-0.093113,0.098009,0.014344,-0.037999,0.18792,0.44777,-0.5811,0.219,-0.90403,-0.83709,-0.12746,0.20597,0.00048516,-0.018434,-0.27159,0.26071,0.22176,0.15771,-0.067875,0.02301
-0.0018674,-0.05663,-0.055563,0.074092,-0.099842,0.090965,0.015013,-0.042487,0.23378,0.47319,-0.523,0.067554,-0.78926,-0.5892,-0.062168,0.37902,-0.00094931,-0.011009,-0.25693,0.27391,0.20812,-0.083093,-0.092196,-0.1097
-0.010064,-0.056893,-0.049089,0.064678,-0.10018,0.077615,0.015218,-0.044591,0.27604,0.46597,-0.49793,-0.08255,-0.63856,-0.26849,0.030432,0.54601,-0.003359,-0.00086676,-0.2413,0.28503,0.19319,-0.26913,-0.1043,-0.20801
-0.01569,-0.059551,-0.038041,0.058685,-0.097745,0.060875,0.015566,-0.046526,0.30784,0.42529,-0.50788,-0.19065,-0.48501,0.078478,0.12029,0.69083,-0.0051709,0.0064767,-0.22477,0.28849,0.17809,-0.38578,-0.10429,-0.26314
-0.016397,-0.061448,-0.02564,0.058371,-0.096165,0.046819,0.017727,-0.049341,0.3297,0.37206,-0.53172,-0.22706,-0.34429,0.39921,0.18377,0.81609,-0.0046216,0.0083958,-0.2032,0.28232,0.16215,-0.46984,-0.097095,-0.28067
-0.012988,-0.059585,-0.01683,0.061823,-0.09702,0.039867,0.021808,-0.052798,0.34658,0.32995,-0.53925,-0.18174,-0.21836,0.63748,0.21143,0.93057,-0.0020917,0.0068564,-0.17468,0.26889,0.14304,-0.57277,-0.09137,-0.27142
-0.0084785,-0.053605,-0.015408,0.065118,-0.09989,0.038617,0.025045,-0.056212,0.36179,0.30673,-0.50902,-0.064205,-0.10368,0.76075,0.20873,1.0349,-0.00071198,0.0060684,-0.14402,0.25178,0.11862,-0.71785,-0.095198,-0.23596
-0.0053682,-0.045894,-0.021682,0.065366,-0.10373,0.036363,0.023566,-0.059085,0.37234,0.28829,-0.43525,0.10031,0.0026781,0.79432,0.19059,1.1197,-0.004335,0.0083759,-0.12141,0.23222,0.089291,-0.88761,-0.11137,-0.15941
-0.0037885,-0.039319,-0.032049,0.062419,-0.10782,0.026456,0.015879,-0.060977,0.36914,0.2467,-0.31994,0.27381,0.1009,0.82521,0.17251,1.1765,-0.014432,0.012192,-0.11648,0.20868,0.05924,-1.047,-0.13594,-0.025477
-0.0022604,-0.034809,-0.040807,0.058253,-0.11149,0.0082255,0.0047896,-0.0612,0.34203,0.15579,-0.1613,0.40995,0.18855,0.95756,0.16292,1.2104,-0.028658,0.013749,-0.13299,0.17961,0.035199,-1.1738,-0.16125,0.15996
-3.2216e-005,-0.031079,-0.043274,0.054813,-0.11335,-0.011662,-0.0042639,-0.059172,0.28619,0.0070298,0.047129,0.46578,0.26118,1.2446,0.16091,1.2401,-0.042515,0.010803,-0.16776,0.14652,0.023368,-1.2614,-0.18061,0.3568
0.0017328,-0.026655,-0.038511,0.051984,-0.11134,-0.023806,-0.0071599,-0.05539,0.20619,-0.17951,0.30354,0.42056,0.31354,1.6488,0.16066,1.2855,-0.052821,0.0047274,-0.21369,0.11425,0.02658,-1.2942,-0.19037,0.50426
0.0013847,-0.022034,-0.029972,0.047181,-0.10379,-0.022973,-0.0039015,-0.051901,0.11547,-0.35408,0.58387,0.29113,0.34222,2.0621,0.1593,1.3524,-0.060049,-0.00087033,-0.2634,0.088044,0.043406,-1.2266,-0.18845,0.55369
-0.00069004,-0.019608,-0.023384,0.036947,-0.090776,-0.011739,0.0020021,-0.051346,0.031733,-0.45082,0.84388,0.12891,0.34899,2.3719,0.16282,1.4286,-0.067452,-0.0034754,-0.31081,0.069855,0.069189,-1.0043,-0.17211,0.49823
-0.0014796,-0.021211,-0.022922,0.019692,-0.074635,0.0018147,0.006708,-0.054944,-0.029151,-0.41444,1.0412,-0.0057363,0.3417,2.5192,0.185,1.4924,-0.077711,-0.0036915,-0.35093,0.057,0.097807,-0.62088,-0.13856,0.379
0.0020897,-0.025621,-0.028157,-0.002192,-0.05886,0.01018,0.0087983,-0.06103,-0.058241,-0.22853,1.1622,-0.077875,0.33015,2.5096,0.2397,1.5261,-0.090013,-0.0041873,-0.38,0.044186,0.12319,-0.16296,-0.088772,0.26396
0.0096716,-0.028688,-0.034131,-0.022477,-0.046161,0.011334,0.0094898,-0.065637,-0.055804,0.071664,1.2316,-0.09688,0.31816,2.3778,0.33116,1.5234,-0.10022,-0.006826,-0.39701,0.027312,0.14074,0.20972,-0.030228,0.21387
0.016799,-0.026365,-0.03486,-0.033871,-0.036817,0.009037,0.010772,-0.065023,-0.030306,0.41216,1.2953,-0.10485,0.29741,2.1456,0.4494,1.4882,-0.10413,-0.010829,-0.40519,0.0062213,0.14875,0.35211,0.025171,0.25498
0.018316,-0.01813,-0.027815,-0.031962,-0.028542,0.0090115,0.01364,-0.058383,0.0053566,0.71236,1.3878,-0.14302,0.2492,1.8088,0.57368,1.4297,-0.10116,-0.013587,-0.41122,-0.015385,0.14935,0.23074,0.067428,0.37123
0.013183,-0.0076505,-0.015894,-0.017868,-0.018087,0.014444,0.017884,-0.048601,0.038956,0.91666,1.5112,-0.22217,0.15549,1.3571,0.68183,1.3593,-0.095189,-0.013108,-0.42187,-0.032481,0.14718,-0.047677,0.093807,0.51672
0.0061378,5.1216e-005,-0.0051755,0.0022151,-0.0036255,0.024104,0.02298,-0.040291,0.063234,1.0077,1.6394,-0.31933,0.012937,0.80202,0.75872,1.289,-0.091676,-0.0096601,-0.44065,-0.041626,0.1458,-0.3053,0.1084,0.6409
0.0042227,0.0025626,-0.00022043,0.020276,0.013791,0.033864,0.02864,-0.036478,0.07742,0.99854,1.7429,-0.40016,-0.16,0.18628,0.79835,1.2269,-0.093345,-0.0052314,-0.46726,-0.042221,0.14393,-0.41228,0.11635,0.71443
0.010914,0.0017561,-0.00078234,0.030358,0.03094,0.039896,0.034447,-0.03642,0.085211,0.91618,1.8111,-0.44526,-0.32891,-0.42766,0.79949,1.1694,-0.098019,-0.0015395,-0.49971,-0.035594,0.13515,-0.36637,0.11834,0.74337
0.022936,0.0018447,-0.0026211,0.030644,0.044928,0.041173,0.039443,-0.036332,0.090613,0.79031,1.8548,-0.45739,-0.45898,-0.97444,0.7599,1.096,-0.10043,0.0014241,-0.53629,-0.023047,0.11273,-0.27476,0.11038,0.76262
0.03263,0.0056848,-0.0015297,0.022917,0.055496,0.039881,0.042693,-0.032483,0.094427,0.65141,1.8906,-0.44634,-0.53005,-1.3962,0.67546,0.97624,-0.096494,0.005115,-0.57478,-0.0046052,0.076988,-0.25758,0.088986,0.81036
0.033865,0.012572,0.0030869,0.010455,0.065075,0.039863,0.044527,-0.024309,0.093788,0.53018,1.9232,-0.40917,-0.54216,-1.6509,0.54572,0.7864,-0.086474,0.010902,-0.60999,0.020658,0.038981,-0.35275,0.056313,0.89842
0.026465,0.019182,0.0082092,-0.0038276,0.076356,0.044186,0.046955,-0.015079,0.084818,0.45062,1.9417,-0.32679,-0.51056,-1.7296,0.38142,0.52673,-0.074473,0.018759,-0.63335,0.053222,0.016323,-0.4944,0.020332,0.99992
0.015608,0.022417,0.010568,-0.018022,0.089496,0.053168,0.052187,-0.0095966,0.06614,0.41862,1.9318,-0.18062,-0.45692,-1.6781,0.20672,0.22504,-0.064875,0.027234,-0.63694,0.091997,0.022265,-0.57381,-0.010101,1.0656
0.0071964,0.021486,0.010113,-0.030895,0.10165,0.064023,0.060159,-0.010751,0.040427,0.41706,1.8906,0.02688,-0.40378,-1.6001,0.052208,-0.076179,-0.058804,0.034565,-0.61952,0.13437,0.055474,-0.52683,-0.030655,1.0593
0.0034688,0.017688,0.010312,-0.041425,0.10958,0.072584,0.067384,-0.017588,0.012999,0.41537,1.8318,0.26779,-0.37309,-1.6206,-0.058545,-0.33869,-0.053479,0.040001,-0.58887,0.17724,0.098633,-0.37853,-0.04291,0.98514
0.0024647,0.012729,0.015052,-0.048678,0.11305,0.076329,0.068758,-0.026282,-0.011054,0.38911,1.7771,0.50477,-0.38421,-1.817,-0.12032,-0.53895,-0.044733,0.044353,-0.55722,0.21809,0.12813,-0.21817,-0.05142,0.88612
0.0011229,0.0075193,0.02503,-0.051879,0.11574,0.076804,0.06135,-0.033038,-0.028732,0.33509,1.7429,0.71281,-0.44776,-2.1603,-0.14763,-0.66512,-0.030409,0.049448,-0.53238,0.2552,0.12853,-0.13482,-0.059985,0.81271
-0.0013699,0.0024312,0.037007,-0.050501,0.12248,0.079432,0.04722,-0.03652,-0.038856,0.26992,1.7298,0.88809,-0.55816,-2.5097,-0.16463,-0.70949,-0.011894,0.056829,-0.51183,0.28729,0.10145,-0.16678,-0.070477,0.78737
-0.0031455,-0.0017325,0.046584,-0.044418,0.13506,0.09033,0.03268,-0.037984,-0.040774,0.21358,1.7228,1.039,-0.69217,-2.676,-0.18989,-0.66929,0.0071479,0.066501,-0.48467,0.31311,0.062252,-0.29555,-0.084143,0.79207
-0.0021807,-0.0034939,0.051905,-0.0343,0.15059,0.11209,0.024231,-0.039323,-0.034065,0.17203,1.6983,1.1716,-0.81751,-2.5157,-0.22604,-0.55832,0.023431,0.076576,-0.43971,0.33183,0.027525,-0.4734,-0.1026,0.78646
0.001042,-0.0015923,0.054876,-0.022061,0.16421,0.14156,0.024121,-0.04098,-0.019887,0.1332,1.6351,1.2849,-0.90734,-1.9977,-0.26081,-0.41655,0.035791,0.084176,-0.37297,0.34384,0.003496,-0.65204,-0.12654,0.73858
0.0035359,0.003908,0.058851,-0.010729,0.1737,0.17146,0.028905,-0.041633,-0.0024958,0.078355,1.5233,1.3782,-0.95022,-1.2072,-0.2784,-0.30255,0.044833,0.08709,-0.28859,0.35122,-0.015767,-0.79158,-0.15315,0.6409
0.0025352,0.011458,0.065066,-0.003376,0.18182,0.19458,0.032077,-0.039872,0.011234,-0.0019169,1.3684,1.46,-0.94894,-0.29658,-0.2729,-0.26743,0.051262,0.085026,-0.19385,0.3571,-0.03984,-0.85536,-0.17524,0.5
-0.0017083,0.018967,0.071273,-0.0015031,0.19357,0.20762,0.028784,-0.036141,0.014884,-0.1007,1.1876,1.5426,-0.91098,0.57202,-0.2544,-0.32787,0.05469,0.079503,-0.093982,0.36433,-0.071208,-0.80918,-0.18378,0.3141
-0.0058245,0.024954,0.0739,-0.0040433,0.21099,0.21198,0.019202,-0.03292,0.0062741,-0.20142,0.99991,1.6262,-0.84041,1.2592,-0.24313,-0.45996,0.054038,0.072477,0.0078421,0.37431,-0.10167,-0.633,-0.17239,0.0644
-0.0061455,0.029001,0.071678,-0.0078717,0.23016,0.2116,0.0082971,-0.032686,-0.010913,-0.29099,0.81765,1.6843,-0.73863,1.6573,-0.25535,-0.61938,0.048969,0.064885,0.10623,0.38698,-0.11852,-0.33429,-0.14076,-0.26699
-0.0019015,0.031447,0.067244,-0.0096117,0.24364,0.20995,0.0023407,-0.035397,-0.029122,-0.3678,0.64291,1.6688,-0.61186,1.7025,-0.29059,-0.77103,0.040792,0.056407,0.19049,0.40193,-0.11453,0.052696,-0.094855,-0.66656
0.0041514,0.032895,0.065116,-0.0074621,0.24673,0.20859,0.0046909,-0.03797,-0.041362,-0.43931,0.47214,1.5351,-0.4765,1.4011,-0.32963,-0.90403,0.031788,0.046612,0.24776,0.41962,-0.093017,0.48387,-0.044488,-1.0759
0.0082697,0.034015,0.067903,-0.001773,0.24186,0.20763,0.013619,-0.0366,-0.045232,-0.51322,0.30246,1.2717,-0.35555,0.85199,-0.34579,-1.0224,0.023495,0.036343,0.27088,0.44177,-0.064121,0.92297,-0.00012168,-1.4122
0.0091101,0.03554,0.074259,0.0058054,0.23723,0.207,0.023468,-0.030093,-0.044068,-0.59124,0.1332,0.91416,-0.26854,0.22887,-0.32231,-1.1247,0.015621,0.027836,0.2645,0.47025,-0.036261,1.3432,0.029696,-1.6087
0.0088649,0.038131,0.08035,0.013606,0.24037,0.2069,0.028284,-0.021233,-0.044609,-0.66986,-0.038342,0.53123,-0.22311,-0.28586,-0.26378,-1.193,0.0067314,0.023241,0.2435,0.50522,-0.010449,1.7129,0.04043,-1.6413
0.011107,0.042045,0.083231,0.020506,0.25215,0.20756,0.025595,-0.014706,-0.052577,-0.7453,-0.22067,0.19291,-0.214,-0.57782,-0.19333,-1.2021,-0.0038232,0.02273,0.22411,0.54348,0.01806,1.9838,0.033345,-1.5194
0.017314,0.046933,0.08287,0.025564,0.26614,0.20874,0.017974,-0.013219,-0.068651,-0.81547,-0.42394,-0.060849,-0.22695,-0.63376,-0.13811,-1.1371,-0.014578,0.023973,0.21479,0.57811,0.052909,2.1001,0.015873,-1.2546
0.025248,0.051999,0.081157,0.02758,0.27381,0.21001,0.011383,-0.015234,-0.087176,-0.87597,-0.64894,-0.23135,-0.24144,-0.50924,-0.11472,-1.0037,-0.022712,0.02363,0.21374,0.60022,0.090896,2.0305,-0.0011624,-0.84614
0.030684,0.056455,0.079396,0.025482,0.27121,0.21141,0.011275,-0.016433,-0.098695,-0.91415,-0.87918,-0.34824,-0.23081,-0.26559,-0.1259,-0.82436,-0.026471,0.019723,0.21442,0.6023,0.12213,1.7972,-0.0094046,-0.30665
0.030966,0.059932,0.077159,0.019435,0.26179,0.21394,0.018906,-0.0137,-0.095276,-0.90882,-1.087,-0.44477,-0.16568,0.064797,-0.16941,-0.62867,-0.027193,0.012874,0.21354,0.58175,0.1358,1.4789,-0.0086865,0.29354
0.027286,0.062587,0.073629,0.011529,0.25343,0.21935,0.030302,-0.008058,-0.075656,-0.83937,-1.2528,-0.53981,-0.02564,0.45864,-0.24868,-0.44793,-0.028932,0.0053483,0.21456,0.54252,0.12693,1.1783,-0.0079617,0.81745
0.023732,0.064857,0.069597,0.0050379,0.25255,0.22929,0.038663,-0.0039268,-0.046746,-0.69974,-1.3839,-0.6374,0.18623,0.85969,-0.37283,-0.31482,-0.035683,-0.0011773,0.22414,0.49298,0.099219,0.97332,-0.019485,1.1201
0.023964,0.067011,0.067498,0.0024849,0.26016,0.24425,0.038694,-0.0053057,-0.020057,-0.50726,-1.5154,-0.73806,0.44015,1.1712,-0.54317,-0.25795,-0.048253,-0.007052,0.24567,0.44112,0.062217,0.88264,-0.049525,1.1446
0.028281,0.068792,0.069035,0.0040043,0.27243,0.26294,0.030023,-0.012259,-0.0050741,-0.29907,-1.6892,-0.84628,0.69643,1.3033,-0.73724,-0.28654,-0.063317,-0.013956,0.27593,0.38975,0.025156,0.86657,-0.092328,0.97668
0.03338,0.069455,0.072865,0.0074542,0.28452,0.28238,0.017422,-0.020752,-0.004042,-0.11689,-1.9253,-0.96402,0.93248,1.2336,-0.90611,-0.37504,-0.075446,-0.022773,0.30823,0.33559,-0.008211,0.85842,-0.13225,0.79957
0.034816,0.068322,0.075033,0.010274,0.29411,0.29924,0.0077588,-0.025927,-0.011762,0.010753,-2.2064,-1.0771,1.1561,1.019,-0.99196,-0.46574,-0.080529,-0.032132,0.33879,0.27315,-0.040307,0.80381,-0.1529,0.77145
0.030179,0.065587,0.072087,0.011518,0.30188,0.31168,0.0057806,-0.025958,-0.020311,0.077996,-2.4889,-1.1523,1.3895,0.74078,-0.95665,-0.49625,-0.077974,-0.039103,0.37062,0.20123,-0.075797,0.6837,-0.14682,0.91836
0.020715,0.062706,0.063849,0.012328,0.30937,0.32077,0.011482,-0.023289,-0.024912,0.097692,-2.7306,-1.1566,1.6339,0.43141,-0.80201,-0.43614,-0.070178,-0.041433,0.41119,0.12729,-0.11615,0.51258,-0.11865,1.1307
0.010532,0.061893,0.053072,0.014518,0.31682,0.33002,0.020553,-0.022411,-0.026565,0.087687,-2.9134,-1.0864,1.8482,0.054013,-0.56807,-0.30469,-0.060036,-0.03914,0.46555,0.066619,-0.15703,0.3206,-0.080127,1.2661
0.004149,0.064852,0.042418,0.018695,0.32306,0.34246,0.027291,-0.02621,-0.029964,0.057217,-3.0445,-0.9817,1.9661,-0.44316,-0.31139,-0.15349,-0.048709,-0.033875,0.53066,0.036481,-0.19072,0.13564,-0.041323,1.27
0.0039878,0.071611,0.032047,0.023618,0.32714,0.35719,0.027941,-0.033888,-0.03904,0.002546,-3.1394,-0.9067,1.9429,-1.0497,-0.079354,-0.026046,-0.035358,-0.026744,0.59554,0.048756,-0.21191,-0.024521,-0.004916,1.2137
0.0091466,0.080326,0.020396,0.02718,0.32972,0.36791,0.022453,-0.04193,-0.053994,-0.086087,-3.2021,-0.90703,1.794,-1.6686,0.10293,0.0736,-0.018744,-0.016985,0.64708,0.1051,-0.22203,-0.1503,0.032559,1.2207
0.015962,0.088224,0.0071603,0.027799,0.33255,0.36543,0.013928,-0.047058,-0.071985,-0.21265,-3.2235,-0.97733,1.5906,-2.1688,0.22918,0.17817,0.00088625,-0.0031724,0.67695,0.19642,-0.22854,-0.23594,0.074538,1.3513
0.020034,0.092976,-0.0051088,0.024821,0.33657,0.34304,0.0064343,-0.048657,-0.090347,-0.36868,-3.196,-1.0678,1.4112,-2.4678,0.30116,0.32334,0.021152,0.013993,0.68439,0.30606,-0.2393,-0.27771,0.119,1.5471
0.018679,0.093539,-0.012986,0.017937,0.34069,0.3012,0.0026801,-0.048881,-0.10924,-0.53726,-3.1291,-1.127,1.2894,-2.5687,0.32281,0.5114,0.038398,0.030219,0.67387,0.41464,-0.25652,-0.27442,0.15842,1.6762
0.012422,0.090076,-0.015964,0.0069142,0.34269,0.24797,0.0028757,-0.050602,-0.13139,-0.70391,-3.0505,-1.1476,1.1991,-2.5245,0.30276,0.70195,0.049191,0.039529,0.65053,0.50491,-0.27511,-0.2274,0.18497,1.6338
0.0044402,0.083323,-0.017884,-0.0073976,0.34137,0.1945,0.0052832,-0.055031,-0.1591,-0.86378,-2.987,-1.1774,1.0863,-2.3719,0.25797,0.83578,0.05151,0.038433,0.61773,0.56539,-0.28643,-0.13957,0.19666,1.4093
-0.0019196,0.074116,-0.023862,-0.021601,0.33777,0.14858,0.0078943,-0.060904,-0.19098,-1.0178,-2.9427,-1.2869,0.91826,-2.0952,0.20987,0.87173,0.045321,0.028811,0.578,0.59204,-0.28415,-0.016048,0.19916,1.0724
-0.0059422,0.063354,-0.035169,-0.029841,0.334,0.1107,0.0099959,-0.065691,-0.22105,-1.1605,-2.891,-1.5173,0.7069,-1.6459,0.17298,0.8081,0.032647,0.01672,0.53527,0.58719,-0.26755,0.13168,0.20203,0.70607
-0.010469,0.052088,-0.047043,-0.026514,0.33078,0.075225,0.012502,-0.067649,-0.2413,-1.272,-2.7897,-1.8469,0.49108,-0.98621,0.14571,0.67558,0.01711,0.0079004,0.49516,0.55605,-0.24053,0.2817,0.21202,0.35432
-0.019889,0.041307,-0.052064,-0.010142,0.326,0.03557,0.016863,-0.066998,-0.246,-1.3245,-2.6076,-2.1966,0.30021,-0.11487,0.11314,0.51218,0.0026954,0.0037684,0.46245,0.50271,-0.2085,0.40428,0.22881,0.024078
-0.036406,0.031485,-0.046541,0.014698,0.31614,-0.0106,0.023479,-0.065391,-0.23484,-1.3004,-2.3406,-2.465,0.13473,0.93017,0.0607,0.34235,-0.0080541,0.0013022,0.43796,0.42845,-0.17644,0.4742,0.2458,-0.27648
-0.05739,0.022454,-0.034341,0.039379,0.2992,-0.059766,0.030935,-0.064419,-0.21284,-1.2089,-2.0087,-2.5698,-0.02045,2.0674,-0.011847,0.17437,-0.015338,-0.0032769,0.41743,0.33384,-0.14914,0.48671,0.25518,-0.51466
-0.07607,0.014007,-0.024582,0.056055,0.27673,-0.10536,0.036693,-0.0646,-0.18696,-1.0861,-1.6369,-2.475,-0.16698,3.1541,-0.087571,0.012106,-0.021625,-0.010525,0.39294,0.22339,-0.13181,0.46484,0.25294,-0.65183
-0.085321,0.0068418,-0.024917,0.061805,0.25282,-0.14253,0.038658,-0.065683,-0.16232,-0.97597,-1.2392,-2.1996,-0.28071,3.986,-0.14183,-0.13401,-0.029324,-0.017109,0.35554,0.10857,-0.12858,0.44948,0.24058,-0.68215
-0.081842,0.0028328,-0.035842,0.059133,0.23121,-0.17111,0.036359,-0.067682,-0.14054,-0.90728,-0.81979,-1.8108,-0.33124,4.3585,-0.15567,-0.24823,-0.038248,-0.018884,0.2976,0.0059075,-0.1393,0.476,0.22295,-0.64586
