-9.8588e-010,4.7654e-010,1.4643e-009,9.9359e-010,4.4278e-009,7.7655e-009,3.1448e-010,3.7621e-010,1.0322e-009,5.267e-010,1.3312e-010,1.256e-009,-7.4066e-009,9.552e-009,1.8965e-009,1.5106e-009,-3.656e-009,8.0452e-010,-3.4708e-009,-3.3049e-009,8.6819e-011,2.8766e-009,1.283e-009,7.042e-010
-2.7351e-008,1.3169e-008,4.0145e-008,2.7233e-008,1.2262e-007,2.1448e-007,8.9101e-009,1.0562e-008,2.8546e-008,1.4597e-008,3.7828e-009,3.4545e-008,-2.0322e-007,2.6331e-007,5.2535e-008,4.1722e-008,-1.0095e-007,2.283e-008,-9.629e-008,-9.1203e-008,2.2448e-009,7.9078e-008,3.562e-008,1.9583e-008
-3.6861e-007,1.7682e-007,5.3505e-007,3.6303e-007,1.6509e-006,2.8795e-006,1.228e-007,1.4396e-007,3.8405e-007,1.9665e-007,5.2469e-008,4.6151e-007,-2.7073e-006,3.5276e-006,7.0796e-007,5.5976e-007,-1.3547e-006,3.1501e-007,-1.2982e-006,-1.2232e-006,2.816e-008,1.0565e-006,4.8074e-007,2.646e-007
-3.2148e-006,1.537e-006,4.6192e-006,3.1366e-006,1.4397e-005,2.5034e-005,1.097e-006,1.2685e-006,3.349e-006,1.7155e-006,4.7347e-007,3.9888e-006,-2.3326e-005,3.0599e-005,6.1839e-006,4.8601e-006,-1.1769e-005,2.8162e-006,-1.1331e-005,-1.0621e-005,2.2876e-007,9.1399e-006,4.2018e-006,2.3141e-006
-2.0391e-005,9.7235e-006,2.9038e-005,1.9746e-005,9.1405e-005,0.0001584,7.1393e-006,8.1182e-006,2.1275e-005,1.089e-005,3.1258e-006,2.506e-005,-0.00014602,0.00019313,3.9352e-005,3.069e-005,-7.4393e-005,1.8337e-005,-7.196e-005,-6.7099e-005,1.3567e-006,5.7537e-005,2.673e-005,1.4722e-005
-0.0001002,4.7701e-005,0.00014164,9.6533e-005,0.00045015,0.00077718,3.6063e-005,4.0182e-005,0.00010492,5.3578e-005,1.6095e-005,0.00012189,-0.00070731,0.00094495,0.0001944,0.00015014,-0.00036446,9.2683e-005,-0.00035421,-0.0003286,6.2883e-006,0.0002808,0.00013185,7.2578e-005
-0.00039681,0.0001888,0.00055776,0.00038137,0.001789,0.0030756,0.00014708,0.00015989,0.00041779,0.00021245,6.7295e-005,0.00047714,-0.0027556,0.0037279,0.00077545,0.00059187,-0.0014393,0.00037842,-0.0014056,-0.0012973,2.3854e-005,0.0011051,0.00052449,0.00028837
-0.0012999,0.00061925,0.0018213,0.0012508,0.0058914,0.01008,0.0004972,0.00052469,0.0013795,0.00069672,0.00023481,0.0015423,-0.0088573,0.012174,0.0025649,0.0019298,-0.0047034,0.0012823,-0.0046154,-0.0042392,7.6749e-005,0.0036001,0.0017275,0.00094795
-0.0035874,0.0017149,0.0050254,0.0034712,0.016379,0.027865,0.0014188,0.0014447,0.0038469,0.0019235,0.00069735,0.0041887,-0.023891,0.033509,0.0071653,0.0052993,-0.012949,0.0036768,-0.012771,-0.011675,0.00021569,0.0098888,0.0047984,0.0026252
-0.0084464,0.0040641,0.011878,0.0082653,0.038952,0.065818,0.0034608,0.0033755,0.0091788,0.0045238,0.0017888,0.009667,-0.054668,0.078731,0.017127,0.012407,-0.03041,0.0090489,-0.030146,-0.02744,0.00054249,0.023194,0.011384,0.0062017
-0.017108,0.0083193,0.024283,0.017057,0.079974,0.13401,0.0072768,0.0067345,0.018902,0.0091284,0.0040076,0.019079,-0.10669,0.1592,0.035335,0.024962,-0.061405,0.019322,-0.061203,-0.055498,0.001243,0.046854,0.023272,0.0126
-0.029944,0.014799,0.04324,0.030732,0.1426,0.23643,0.013249,0.011487,0.033765,0.015845,0.0079116,0.032247,-0.1775,0.27826,0.063251,0.043307,-0.10703,0.036095,-0.10729,-0.097014,0.0026199,0.081915,0.0412,0.022115
-0.045323,0.022946,0.067376,0.048589,0.22153,0.3622,0.020911,0.016663,0.05239,0.023591,0.013864,0.04645,-0.24962,0.42051,0.098394,0.064705,-0.16095,0.059384,-0.16238,-0.14664,0.0050887,0.12413,0.063287,0.033551
-0.059089,0.030995,0.09215,0.067649,0.29993,0.48109,0.028524,0.020225,0.070393,0.029798,0.021713,0.056208,-0.28987,0.54676,0.1327,0.082553,-0.20755,0.086549,-0.21099,-0.19084,0.0090687,0.16266,0.084203,0.043845
-0.065652,0.036315,0.11093,0.083176,0.3532,0.55105,0.033362,0.019732,0.081138,0.031082,0.030625,0.05527,-0.26164,0.60399,0.1539,0.087988,-0.22603,0.11245,-0.23217,-0.21145,0.014722,0.18307,0.096454,0.04895
-0.060797,0.036526,0.11813,0.090661,0.36041,0.53881,0.033003,0.013747,0.07861,0.024964,0.039305,0.040622,-0.14834,0.55156,0.15086,0.074049,-0.20093,0.13137,-0.21018,-0.1949,0.021607,0.17472,0.094047,0.046091
-0.044732,0.030915,0.11276,0.088366,0.31802,0.44319,0.027123,0.0031954,0.061228,0.011776,0.046611,0.016223,0.025862,0.39069,0.12047,0.040313,-0.13372,0.14004,-0.14669,-0.14239,0.028492,0.13877,0.076689,0.036253
-0.022963,0.02118,0.099716,0.07859,0.24555,0.30292,0.018537,-0.0085245,0.034046,-0.0047435,0.052216,-0.0068469,0.19728,0.17474,0.071424,-0.0054354,-0.04639,0.13957,-0.065086,-0.072978,0.033634,0.090131,0.051297,0.024932
-0.0035409,0.010784,0.086968,0.066407,0.17627,0.17785,0.012316,-0.017214,0.0071644,-0.019085,0.056734,-0.015428,0.29377,-0.01405,0.020793,-0.050611,0.0286,0.13483,-0.00055758,-0.014928,0.035616,0.050128,0.028741,0.019871
0.0080414,0.0031435,0.080263,0.056413,0.13679,0.11193,0.013032,-0.020486,-0.009353,-0.027111,0.061056,-0.0021141,0.27961,-0.11168,-0.015675,-0.084682,0.06755,0.13106,0.020088,0.011004,0.034343,0.033203,0.017241,0.026783
0.012687,-0.00017149,0.079172,0.049929,0.13008,0.10437,0.021877,-0.019423,-0.010788,-0.028485,0.065296,0.029503,0.18127,-0.11137,-0.033159,-0.10471,0.070613,0.13031,-0.0046153,0.0043236,0.031441,0.037428,0.017082,0.046077
0.017027,2.5047e-005,0.078038,0.044973,0.13553,0.11294,0.03583,-0.017837,0.00061987,-0.026416,0.068304,0.066475,0.070381,-0.06395,-0.03984,-0.11538,0.060449,0.13034,-0.050603,-0.016946,0.029539,0.046817,0.02095,0.073384
0.028332,0.0015762,0.071431,0.039119,0.12699,0.089078,0.049711,-0.019487,0.019061,-0.024805,0.068382,0.094292,0.012599,-0.037527,-0.049319,-0.12358,0.064409,0.1268,-0.08619,-0.032172,0.03068,0.044433,0.019945,0.10376
0.048787,0.0026824,0.059648,0.032704,0.094299,0.017206,0.059601,-0.025328,0.040699,-0.025161,0.064817,0.10509,0.021609,-0.067434,-0.069101,-0.13238,0.093985,0.1169,-0.094585,-0.035434,0.034937,0.02588,0.010557,0.13607
0.073609,0.0029144,0.049315,0.029339,0.050545,-0.07447,0.064946,-0.032941,0.066489,-0.025905,0.058892,0.10023,0.055813,-0.13583,-0.09452,-0.13923,0.13811,0.10137,-0.083176,-0.039302,0.040333,0.0019233,-0.0030673,0.1733
0.094471,0.0029187,0.048112,0.033043,0.019239,-0.14039,0.06782,-0.03853,0.099612,-0.024552,0.053267,0.08604,0.060209,-0.19516,-0.11309,-0.13961,0.17522,0.083545,-0.07278,-0.061298,0.0442,-0.011813,-0.013243,0.2182
0.10533,0.0033728,0.057803,0.044501,0.013349,-0.15769,0.070374,-0.03979,0.13971,-0.020575,0.050051,0.067252,0.016607,-0.21246,-0.11546,-0.13185,0.19272,0.066625,-0.077173,-0.10479,0.044959,-0.0087897,-0.015467,0.26761
0.10604,0.0042773,0.071511,0.059948,0.024596,-0.14454,0.07292,-0.037358,0.17923,-0.016132,0.049211,0.044122,-0.041834,-0.19577,-0.10342,-0.11809,0.19658,0.051832,-0.09106,-0.15166,0.042874,0.0031916,-0.011911,0.3111
0.10123,0.0051377,0.077882,0.073891,0.031584,-0.14176,0.074266,-0.033897,0.20577,-0.013901,0.048868,0.015171,-0.063106,-0.18237,-0.088192,-0.10034,0.20335,0.0387,-0.09614,-0.17417,0.039308,0.0096236,-0.0090258,0.3359
0.096053,0.0056242,0.069127,0.083404,0.018146,-0.17604,0.073509,-0.031922,0.20912,-0.014193,0.047328,-0.017962,-0.024619,-0.20339,-0.080609,-0.076053,0.22333,0.026639,-0.078209,-0.15625,0.035351,0.0022785,-0.011856,0.33458
0.092653,0.005908,0.046785,0.09026,-0.014812,-0.23837,0.071245,-0.032284,0.18744,-0.014314,0.044972,-0.04887,0.047235,-0.25805,-0.082198,-0.038558,0.25118,0.01586,-0.038976,-0.10604,0.031261,-0.014375,-0.020208,0.30931
0.089829,0.0063741,0.02084,0.099091,-0.05316,-0.29579,0.069026,-0.034305,0.1478,-0.01105,0.044147,-0.069878,0.10271,-0.31766,-0.084646,0.016482,0.27258,0.0068219,0.0073933,-0.049003,0.027221,-0.028541,-0.02969,0.26919
0.085391,0.0071624,0.0029825,0.11323,-0.083236,-0.3226,0.067971,-0.03691,0.10091,-0.0039887,0.046992,-0.077638,0.11405,-0.35092,-0.077708,0.083924,0.27944,-0.00086497,0.047991,-0.0081931,0.024342,-0.032405,-0.036145,0.22288
0.078472,0.0081344,-0.0010026,0.13167,-0.10162,-0.3209,0.068295,-0.039314,0.054688,0.0036085,0.05308,-0.07577,0.098452,-0.34503,-0.05807,0.14848,0.27816,-0.008663,0.081132,0.011356,0.024383,-0.028606,-0.039324,0.17273
0.069808,0.0092695,0.0055684,0.14939,-0.11308,-0.31242,0.070255,-0.040647,0.011703,0.0075281,0.058996,-0.072156,0.099232,-0.30639,-0.031417,0.19292,0.28243,-0.018159,0.11371,0.021836,0.027871,-0.026456,-0.042926,0.11447
0.06035,0.010906,0.013252,0.16027,-0.12117,-0.31209,0.075099,-0.039292,-0.028516,0.0065546,0.060281,-0.0731,0.14499,-0.24668,-0.0066096,0.20966,0.29731,-0.030084,0.1502,0.038517,0.032243,-0.032453,-0.051552,0.041705
0.050103,0.013373,0.01308,0.16015,-0.12261,-0.31023,0.084312,-0.033198,-0.065649,0.0039093,0.054276,-0.079013,0.22467,-0.17267,0.011868,0.20638,0.31041,-0.044477,0.18558,0.066138,0.032231,-0.044475,-0.067511,-0.04912
0.038529,0.016317,0.0021297,0.14786,-0.11114,-0.28087,0.097369,-0.021471,-0.097392,0.0045822,0.04178,-0.084749,0.29924,-0.089392,0.02604,0.20049,0.29984,-0.061797,0.20927,0.097173,0.023004,-0.054778,-0.089793,-0.1566
0.025951,0.018492,-0.015427,0.12443,-0.086235,-0.20754,0.11031,-0.0060035,-0.12176,0.010789,0.026566,-0.083897,0.33617,-0.0089174,0.039737,0.20618,0.25276,-0.083507,0.21598,0.12106,0.0039875,-0.058129,-0.11515,-0.2747
0.01426,0.01846,-0.031974,0.091847,-0.056886,-0.10175,0.11729,0.0086198,-0.13999,0.019687,0.013323,-0.073544,0.33427,0.04919,0.052471,0.22403,0.17819,-0.11102,0.21188,0.13395,-0.019816,-0.056846,-0.13954,-0.39331
0.0059741,0.01573,-0.041945,0.052466,-0.036158,0.0031432,0.1146,0.017553,-0.15659,0.025584,0.0053031,-0.056188,0.31885,0.069872,0.058453,0.24117,0.10219,-0.14357,0.20983,0.14007,-0.040476,-0.058086,-0.15869,-0.49826
0.0023852,0.011347,-0.045325,0.0090684,-0.031253,0.077191,0.10382,0.018996,-0.17597,0.024791,0.0027866,-0.037994,0.3155,0.055777,0.051972,0.24127,0.049196,-0.17705,0.2182,0.14528,-0.052014,-0.066461,-0.16815,-0.57284
0.0025117,0.0073637,-0.04701,-0.035586,-0.038403,0.11553,0.091116,0.015774,-0.19852,0.018852,0.0029072,-0.02507,0.32827,0.027648,0.033749,0.21606,0.025146,-0.2053,0.23371,0.1506,-0.053864,-0.079348,-0.16422,-0.60265
0.0037723,0.0055474,-0.052861,-0.080086,-0.047092,0.13802,0.08279,0.013559,-0.21974,0.013269,0.0010013,-0.020275,0.33993,0.010171,0.011654,0.16944,0.015947,-0.22357,0.245,0.15211,-0.050376,-0.089235,-0.14606,-0.58271
0.0036928,0.0062501,-0.06557,-0.12551,-0.049457,0.16846,0.080751,0.016728,-0.23324,0.012871,-0.0068326,-0.022168,0.32967,0.015953,-0.0054724,0.1123,0.0011263,-0.23171,0.24278,0.14594,-0.046962,-0.090503,-0.11768,-0.5219
0.0011119,0.0081905,-0.083314,-0.17456,-0.046437,0.21263,0.081614,0.025004,-0.23521,0.017875,-0.021108,-0.026212,0.28957,0.041728,-0.015289,0.054114,-0.029891,-0.23505,0.22725,0.13235,-0.046067,-0.084053,-0.087527,-0.44049
-0.0039291,0.0091868,-0.10177,-0.22799,-0.045809,0.25351,0.080058,0.033715,-0.22683,0.02395,-0.038034,-0.027259,0.22639,0.078207,-0.023545,-0.0008085,-0.071925,-0.24179,0.20649,0.11459,-0.045988,-0.075709,-0.064925,-0.36104
-0.011012,0.0073261,-0.11737,-0.28065,-0.054714,0.26659,0.073343,0.037736,-0.2128,0.026009,-0.051493,-0.022045,0.15191,0.12164,-0.037899,-0.049512,-0.11117,-0.25845,0.18842,0.094653,-0.043109,-0.070531,-0.054873,-0.298
-0.01969,0.0019387,-0.12905,-0.32067,-0.073628,0.24052,0.0631,0.035964,-0.19757,0.022343,-0.057107,-0.010576,0.074513,0.17471,-0.059465,-0.084015,-0.13701,-0.2856,0.17461,0.071345,-0.035381,-0.068758,-0.054787,-0.25287
-0.028984,-0.0060365,-0.13728,-0.3345,-0.096497,0.18568,0.053226,0.032531,-0.18215,0.01572,-0.055568,0.0041833,-3.1601e-005,0.23678,-0.079984,-0.09012,-0.14814,-0.31638,0.16102,0.043024,-0.024189,-0.066921,-0.055964,-0.21777
-0.036919,-0.014438,-0.14218,-0.31569,-0.11599,0.12476,0.046124,0.033477,-0.16415,0.010902,-0.052432,0.018082,-0.062995,0.29529,-0.087623,-0.054979,-0.15011,-0.33873,0.1441,0.012318,-0.013325,-0.062308,-0.04949,-0.18423
-0.041218,-0.020894,-0.14287,-0.27128,-0.12882,0.074809,0.040661,0.0415,-0.14048,0.010989,-0.05415,0.027988,-0.10195,0.32938,-0.076637,0.020969,-0.1488,-0.3406,0.1255,-0.012614,-0.00619,-0.055873,-0.032817,-0.15069
-0.041012,-0.024042,-0.13892,-0.22021,-0.13701,0.036417,0.033323,0.053208,-0.11063,0.015599,-0.063252,0.03313,-0.10799,0.32433,-0.052584,0.1171,-0.14684,-0.31547,0.11112,-0.022376,-0.0036621,-0.050731,-0.012076,-0.12306
-0.037988,-0.024265,-0.13214,-0.18326,-0.14502,-0.0022884,0.021225,0.061347,-0.077728,0.021924,-0.076527,0.034887,-0.084048,0.28403,-0.028604,0.19776,-0.14482,-0.26536,0.10587,-0.012843,-0.0042406,-0.048138,0.0021318,-0.10852
-0.035455,-0.023387,-0.12628,-0.17098,-0.15586,-0.05198,0.0043746,0.060342,-0.046804,0.027229,-0.087703,0.035426,-0.045364,0.22973,-0.015998,0.2282,-0.14407,-0.19944,0.10954,0.011816,-0.0060577,-0.045329,0.0028069,-0.10775
-0.03566,-0.023332,-0.12436,-0.17818,-0.1693,-0.11151,-0.014421,0.050691,-0.021758,0.030551,-0.092372,0.036268,-0.010853,0.18561,-0.017008,0.19221,-0.14715,-0.12932,0.11733,0.042214,-0.0088299,-0.037573,-0.0076282,-0.1121
-0.03763,-0.024612,-0.12596,-0.18896,-0.183,-0.1689,-0.031627,0.03864,-0.0034454,0.032526,-0.091148,0.037691,0.0069699,0.16315,-0.02538,0.10016,-0.1555,-0.06421,0.12383,0.070117,-0.014061,-0.022524,-0.018567,-0.1084
-0.037738,-0.025799,-0.12739,-0.18832,-0.19483,-0.21179,-0.045404,0.03143,0.0098463,0.034111,-0.088652,0.038981,0.0052276,0.15686,-0.033406,-0.017495,-0.16712,-0.0089147,0.12615,0.092605,-0.023492,-0.0027277,-0.018908,-0.087906
-0.032819,-0.024515,-0.12497,-0.17155,-0.20445,-0.23737,-0.056834,0.031913,0.020289,0.035665,-0.089487,0.038973,-0.01339,0.15288,-0.038711,-0.12679,-0.17724,0.03482,0.12378,0.11091,-0.037379,0.015961,-0.0052269,-0.052446
-0.023193,-0.019284,-0.1187,-0.14519,-0.21308,-0.25329,-0.069299,0.036711,0.028672,0.037061,-0.094696,0.036346,-0.045343,0.1414,-0.044888,-0.20576,-0.18158,0.065809,0.11631,0.12604,-0.054231,0.028521,0.016055,-0.012941
-0.012806,-0.010831,-0.11283,-0.12002,-0.22202,-0.26971,-0.086351,0.039143,0.03416,0.03825,-0.10145,0.02972,-0.086138,0.12218,-0.055905,-0.24964,-0.17951,0.08264,0.1026,0.13597,-0.072215,0.033822,0.034121,0.018603
-0.0063338,-0.0018426,-0.11241,-0.10277,-0.23133,-0.29005,-0.10922,0.03447,0.035414,0.039363,-0.10587,0.017956,-0.12735,0.1004,-0.06993,-0.26471,-0.17437,0.085272,0.082526,0.13746,-0.090805,0.034275,0.042151,0.037156
-0.0058723,0.0045672,-0.11866,-0.092659,-0.2397,-0.30868,-0.13549,0.023389,0.031819,0.040186,-0.10625,0.00085609,-0.15738,0.079398,-0.078662,-0.25866,-0.17097,0.077,0.059301,0.13036,-0.11104,0.032921,0.041828,0.046609
-0.010124,0.0064885,-0.1273,-0.084129,-0.24565,-0.31695,-0.16006,0.011314,0.023879,0.039789,-0.1042,-0.020006,-0.16849,0.058052,-0.073256,-0.23655,-0.1725,0.064158,0.03902,0.11951,-0.13405,0.030767,0.040732,0.05474
-0.016453,0.0038673,-0.13131,-0.072117,-0.24907,-0.3118,-0.1782,0.0042709,0.012905,0.037085,-0.1029,-0.040976,-0.16463,0.034426,-0.051947,-0.2047,-0.17966,0.053071,0.026786,0.11157,-0.15908,0.026539,0.045451,0.066113
-0.023446,-0.0019233,-0.12609,-0.055333,-0.2516,-0.29953,-0.18857,0.0047124,0.00067188,0.031982,-0.10424,-0.057072,-0.16115,0.010285,-0.022806,-0.17601,-0.19191,0.046552,0.022478,0.10903,-0.18284,0.018655,0.056399,0.079023
-0.031436,-0.0089159,-0.11265,-0.035811,-0.2553,-0.29212,-0.19408,0.01039,-0.010639,0.025952,-0.10735,-0.063812,-0.17422,-0.0092355,0.00099136,-0.16806,-0.20924,0.042946,0.020219,0.10723,-0.20077,0.0074543,0.068258,0.088473
-0.040852,-0.015174,-0.096422,-0.016428,-0.26041,-0.29959,-0.1994,0.016866,-0.018665,0.021136,-0.10949,-0.059429,-0.20783,-0.02066,0.0098339,-0.19225,-0.23225,0.038587,0.012609,0.097752,-0.20931,-0.0043196,0.074947,0.091658
-0.050594,-0.019176,-0.082879,0.001006,-0.2643,-0.32473,-0.20721,0.021375,-0.0217,0.018592,-0.10844,-0.046273,-0.2494,-0.026308,0.0037072,-0.2423,-0.26015,0.031535,-0.0035095,0.076099,-0.20774,-0.013155,0.074558,0.090705
-0.058495,-0.020212,-0.073664,0.015972,-0.26292,-0.36325,-0.21636,0.024762,-0.019821,0.01735,-0.10432,-0.030316,-0.27825,-0.032677,-0.0085943,-0.29368,-0.28886,0.023435,-0.024586,0.046959,-0.19819,-0.017259,0.070442,0.090501
-0.063501,-0.018716,-0.066276,0.028455,-0.25392,-0.40773,-0.22356,0.030006,-0.015246,0.015389,-0.099325,-0.018549,-0.27965,-0.044321,-0.015836,-0.31744,-0.3113,0.018111,-0.043299,0.021928,-0.18437,-0.017952,0.068244,0.094238
-0.067163,-0.016082,-0.057193,0.0383,-0.23873,-0.45128,-0.22715,0.038772,-0.011214,0.011748,-0.095739,-0.015443,-0.25307,-0.059394,-0.01123,-0.29936,-0.32039,0.018363,-0.054399,0.011049,-0.16988,-0.018883,0.071824,0.10106
-0.072577,-0.013789,-0.045534,0.045087,-0.22172,-0.48866,-0.22935,0.049154,-0.009887,0.0076433,-0.093966,-0.020563,-0.20909,-0.07166,0.0047052,-0.24953,-0.31275,0.023833,-0.058566,0.015086,-0.15688,-0.023544,0.081278,0.10775
-0.081474,-0.012394,-0.034158,0.048286,-0.20702,-0.51562,-0.2348,0.056697,-0.010838,0.0052732,-0.092282,-0.028986,-0.15964,-0.077498,0.026171,-0.19425,-0.29018,0.031564,-0.061254,0.025093,-0.14566,-0.032851,0.093924,0.11225
-0.092135,-0.011358,-0.027385,0.047455,-0.196,-0.52869,-0.2465,0.05781,-0.011382,0.0053184,-0.088447,-0.034418,-0.1109,-0.081569,0.046517,-0.15646,-0.2579,0.038489,-0.067832,0.029697,-0.13479,-0.044552,0.10669,0.11544
-0.10015,-0.0099626,-0.027303,0.042611,-0.18769,-0.52615,-0.26286,0.052613,-0.0086178,0.0057788,-0.081725,-0.032978,-0.063924,-0.096026,0.06188,-0.13996,-0.22082,0.043559,-0.079273,0.023886,-0.12191,-0.054894,0.11766,0.11945
-0.10152,-0.0084885,-0.031713,0.034683,-0.18145,-0.50925,-0.27843,0.044784,-0.0016248,0.0036907,-0.073538,-0.025085,-0.019632,-0.13398,0.072416,-0.12907,-0.18086,0.047818,-0.091841,0.012034,-0.10475,-0.061334,0.12597,0.12471
-0.095457,-0.0083133,-0.035351,0.025516,-0.1787,-0.48197,-0.28758,0.038746,0.0078426,-0.0016703,-0.066234,-0.014357,0.018335,-0.20251,0.081392,-0.10275,-0.13717,0.052682,-0.10058,0.0031629,-0.082508,-0.064326,0.13091,0.12893
-0.08486,-0.010581,-0.033527,0.016936,-0.18122,-0.44918,-0.28786,0.036777,0.016682,-0.0073769,-0.061173,-0.0046468,0.045981,-0.29992,0.09314,-0.050601,-0.088829,0.058144,-0.10341,0.0031723,-0.056543,-0.066967,0.13155,0.12923
-0.07425,-0.014599,-0.025507,0.0093561,-0.18766,-0.41456,-0.28035,0.038435,0.022735,-0.0091119,-0.057924,0.0023949,0.063042,-0.41714,0.11075,0.020925,-0.037793,0.062546,-0.10256,0.010869,-0.03018,-0.07292,0.12759,0.12532
-0.067249,-0.017693,-0.015214,0.0013245,-0.19204,-0.37952,-0.26746,0.04235,0.026309,-0.0053509,-0.055216,0.0075947,0.073408,-0.54057,0.13423,0.094918,0.010303,0.064025,-0.10248,0.020558,-0.0072998,-0.084262,0.12024,0.12028
-0.06527,-0.017074,-0.0087967,-0.0090158,-0.18689,-0.34343,-0.25068,0.04829,0.029837,0.00057653,-0.052541,0.012669,0.080519,-0.65391,0.15987,0.15543,0.048114,0.062239,-0.10626,0.027806,0.0095064,-0.1007,0.11206,0.11801
-0.067688,-0.012278,-0.010703,-0.021341,-0.16884,-0.30437,-0.23032,0.057464,0.035984,0.0029595,-0.050573,0.018404,0.082071,-0.74066,0.18146,0.19472,0.069999,0.058784,-0.11337,0.032611,0.020126,-0.12036,0.10538,0.11968
-0.072454,-0.0058804,-0.020831,-0.031774,-0.14157,-0.25961,-0.20707,0.070884,0.045597,-0.0011932,-0.049838,0.02399,0.069664,-0.78893,0.19298,0.21294,0.074661,0.055925,-0.12011,0.037484,0.026688,-0.14097,0.10065,0.12263
-0.076397,-0.0015278,-0.034464,-0.0345,-0.11302,-0.20626,-0.18313,0.087493,0.056899,-0.0091609,-0.049019,0.027611,0.034561,-0.79777,0.19147,0.21409,0.065489,0.054889,-0.12222,0.043263,0.032075,-0.16032,0.096159,0.12311
-0.075602,-0.00080845,-0.04493,-0.025656,-0.08902,-0.14259,-0.16126,0.10384,0.066379,-0.014707,-0.045056,0.027428,-0.025004,-0.78002,0.1782,0.20338,0.048589,0.055335,-0.11778,0.047494,0.038233,-0.1758,0.089815,0.12023
-0.066672,-0.001795,-0.047276,-0.0064862,-0.069038,-0.069747,-0.1426,0.11564,0.070657,-0.013717,-0.035543,0.022239,-0.10112,-0.75755,0.15757,0.18729,0.02988,0.056488,-0.10848,0.047195,0.04541,-0.18404,0.081444,0.1173
-0.048747,-0.00079857,-0.040828,0.016908,-0.047942,0.007369,-0.12538,0.12004,0.06814,-0.008108,-0.021485,0.011802,-0.18012,-0.75022,0.13437,0.17361,0.012978,0.058723,-0.098609,0.042996,0.052679,-0.18197,0.073627,0.1189
-0.024791,0.0040546,-0.029222,0.037088,-0.022005,0.081154,-0.1061,0.1169,0.059635,-0.0042646,-0.0075806,-0.0028511,-0.24963,-0.76553,0.11154,0.16889,-0.0011669,0.063815,-0.09242,0.040096,0.059122,-0.16878,0.070058,0.12632
-0.00057841,0.010648,-0.018018,0.049217,0.0066158,0.14431,-0.082645,0.10838,0.047809,-0.0072982,0.00081629,-0.019179,-0.30296,-0.7963,0.089871,0.17465,-0.013134,0.073287,-0.091456,0.044619,0.064684,-0.14746,0.072569,0.13563
0.018473,0.014232,-0.011393,0.052472,0.031021,0.19302,-0.056592,0.097222,0.03598,-0.016386,0.0017378,-0.033515,-0.33851,-0.82715,0.069363,0.18625,-0.023504,0.086209,-0.093641,0.05859,0.07018,-0.12384,0.079197,0.14046
0.030456,0.011272,-0.0099026,0.048598,0.044994,0.22822,-0.032823,0.084866,0.026802,-0.025484,-0.0018891,-0.042376,-0.35644,-0.84416,0.050849,0.19636,-0.032,0.0986,-0.094757,0.078176,0.076733,-0.10333,0.084949,0.13714
0.037612,0.0024544,-0.010597,0.039732,0.047473,0.25406,-0.016596,0.070507,0.021319,-0.028756,-0.0047296,-0.044218,-0.35685,-0.84015,0.036149,0.20047,-0.037585,0.10535,-0.091401,0.096725,0.085213,-0.087588,0.08479,0.12751
0.043875,-0.0077823,-0.0092981,0.027741,0.042164,0.27464,-0.01032,0.051763,0.018761,-0.025715,-0.0034094,-0.040483,-0.34104,-0.8134,0.026756,0.1994,-0.039104,0.10338,-0.083354,0.10968,0.095915,-0.073874,0.076661,0.11689
0.051378,-0.0147,-0.0034508,0.015037,0.033404,0.29128,-0.012386,0.026624,0.017216,-0.021456,0.0010109,-0.035132,-0.31373,-0.76354,0.022465,0.19661,-0.035929,0.093442,-0.073584,0.11698,0.10828,-0.05797,0.062342,0.10886
0.058809,-0.016651,0.0063234,0.0049933,0.022834,0.30229,-0.018562,-0.0043875,0.014907,-0.02191,0.0044064,-0.032819,-0.2827,-0.68954,0.021343,0.19282,-0.02844,0.079201,-0.065848,0.12134,0.12063,-0.038379,0.045717,0.1016
0.062895,-0.015637,0.016875,0.00055859,0.010104,0.30529,-0.024483,-0.03734,0.011274,-0.028562,0.0032673,-0.036792,-0.25518,-0.59134,0.021066,0.18346,-0.018363,0.064306,-0.061749,0.12475,0.13027,-0.018314,0.029932,0.088795
0.061514,-0.015003,0.024769,0.0020154,-0.003657,0.30012,-0.027317,-0.066121,0.0070416,-0.037368,-0.0026703,-0.047662,-0.23357,-0.472,0.020256,0.16166,-0.0087265,0.050001,-0.059618,0.1268,0.13455,-0.0035858,0.015618,0.064368
0.055635,-0.016644,0.028512,0.0062241,-0.013853,0.29008,-0.025887,-0.085246,0.0031753,-0.042638,-0.010807,-0.06348,-0.21417,-0.33777,0.018599,0.12429,-0.0029702,0.035132,-0.056151,0.12606,0.13264,0.0019803,0.0013679,0.027124
0.048475,-0.020144,0.029324,0.0086014,-0.01461,0.28033,-0.020006,-0.092527,-0.00039656,-0.042176,-0.018086,-0.080737,-0.19004,-0.19675,0.015967,0.075699,-0.0031748,0.018253,-0.049414,0.12245,0.12662,-0.00024772,-0.01417,-0.018246
0.042764,-0.024093,0.030103,0.0064383,-0.0035324,0.27444,-0.010098,-0.089858,-0.0050471,-0.039074,-0.022882,-0.095546,-0.15582,-0.058946,0.011894,0.025929,-0.0084142,-0.00021912,-0.040647,0.11779,0.12066,-0.0046705,-0.030454,-0.06395
0.038582,-0.027817,0.033433,0.00073843,0.015389,0.27185,0.0026458,-0.081744,-0.01232,-0.038793,-0.024919,-0.10451,-0.11162,0.061628,0.0062736,-0.014959,-0.014739,-0.01777,-0.033327,0.11408,0.11842,-0.0058037,-0.044988,-0.10304
0.033568,-0.031769,0.039993,-0.0049596,0.033629,0.26823,0.016272,-0.072717,-0.022381,-0.04435,-0.024039,-0.10524,-0.064077,0.1465,0.00044482,-0.041826,-0.017364,-0.031605,-0.03032,0.11154,0.12054,-0.0022878,-0.055092,-0.13168
0.025184,-0.03651,0.048353,-0.0075796,0.043471,0.25875,0.028775,-0.065426,-0.033578,-0.053847,-0.019656,-0.096611,-0.024766,0.17808,-0.0030277,-0.055383,-0.013682,-0.040915,-0.031577,0.10868,0.12452,0.0028292,-0.059986,-0.14885
0.013067,-0.041669,0.056154,-0.006643,0.042668,0.24178,0.03914,-0.060327,-0.043691,-0.062199,-0.011605,-0.079085,-0.0064621,0.15012,-0.002537,-0.059813,-0.0046305,-0.047655,-0.034249,0.10448,0.12733,0.0055806,-0.061489,-0.155
-0.00042067,-0.046099,0.061772,-0.0039643,0.035159,0.22079,0.047632,-0.056576,-0.051769,-0.065191,-0.0012764,-0.054738,-0.017996,0.075917,6.0737e-005,-0.060145,0.0069853,-0.05522,-0.034866,0.10018,0.12853,0.0050339,-0.06277,-0.15113
-0.011792,-0.048992,0.065348,-0.0017416,0.028069,0.2033,0.054849,-0.053068,-0.058776,-0.062363,0.0086301,-0.027034,-0.05925,-0.013813,-0.00064415,-0.061263,0.019853,-0.066031,-0.031515,0.098685,0.13086,0.0041116,-0.066225,-0.13894
-0.018899,-0.050665,0.068582,-0.0011187,0.027895,0.19843,0.060288,-0.048919,-0.066347,-0.056709,0.016,-0.00011863,-0.11939,-0.084847,-0.010154,-0.067562,0.036009,-0.079837,-0.02424,0.10202,0.13757,0.0066713,-0.072216,-0.12122
-0.02246,-0.052155,0.073548,-0.0023266,0.038442,0.21433,0.061961,-0.043517,-0.074848,-0.052086,0.021285,0.022261,-0.18091,-0.11679,-0.029204,-0.081301,0.059053,-0.093884,-0.01381,0.10925,0.14873,0.013696,-0.079522,-0.10166
-0.025607,-0.054049,0.081327,-0.0056141,0.060705,0.25605,0.057809,-0.036558,-0.082768,-0.050737,0.027523,0.037912,-0.22839,-0.11178,-0.051614,-0.099735,0.08991,-0.1048,-0.00058253,0.11695,0.16007,0.022153,-0.086818,-0.0838
-0.03183,-0.055772,0.091202,-0.011475,0.093226,0.3233,0.047955,-0.02819,-0.088192,-0.052542,0.037955,0.046931,-0.25632,-0.088248,-0.067377,-0.11399,0.12396,-0.11085,0.015145,0.12168,0.1659,0.027483,-0.093677,-0.069807
-0.042728,-0.056089,0.10075,-0.019789,0.13194,0.4085,0.035777,-0.018988,-0.090978,-0.0558,0.052999,0.051556,-0.26996,-0.064563,-0.069291,-0.11262,0.1526,-0.11315,0.031721,0.12214,0.16383,0.027368,-0.10027,-0.059644
-0.05704,-0.054312,0.10675,-0.029,0.17033,0.49693,0.026562,-0.009629,-0.093329,-0.058382,0.069218,0.055044,-0.27826,-0.044543,-0.058161,-0.089144,0.16863,-0.11489,0.04552,0.11943,0.15721,0.023444,-0.10639,-0.051175
-0.071601,-0.051029,0.10671,-0.036603,0.20115,0.57118,0.024463,-0.00057252,-0.097947,-0.058575,0.081434,0.060116,-0.28468,-0.014724,-0.042355,-0.048736,0.17126,-0.11925,0.05249,0.11544,0.15285,0.019763,-0.11113,-0.041279
-0.083561,-0.047668,0.1002,-0.040784,0.2199,0.61886,0.029985,0.0078143,-0.10534,-0.055652,0.086477,0.067844,-0.28408,0.046145,-0.031975,-0.008355,0.16682,-0.12716,0.051107,0.11146,0.15561,0.019706,-0.11375,-0.02767
-0.092347,-0.045332,0.089502,-0.041738,0.22749,0.63895,0.039844,0.014731,-0.11284,-0.050298,0.085611,0.077585,-0.26831,0.15343,-0.032196,0.01119,0.16453,-0.13644,0.044311,0.108,0.16408,0.024054,-0.11474,-0.010552
-0.099962,-0.044028,0.078591,-0.04135,0.23001,0.64172,0.049199,0.01866,-0.11639,-0.044505,0.08363,0.0877,-0.23521,0.30816,-0.040901,-0.0033807,0.17082,-0.14285,0.03829,0.10538,0.17093,0.031377,-0.11566,0.0071138
-0.10933,-0.042965,0.07092,-0.041554,0.23469,0.64102,0.054519,0.017892,-0.11351,-0.040583,0.085334,0.096294,-0.19238,0.49767,-0.051963,-0.050611,0.18651,-0.14236,0.038425,0.1038,0.1676,0.039635,-0.11744,0.021335
-0.12185,-0.041536,0.067249,-0.042953,0.24495,0.64403,0.055153,0.011657,-0.10471,-0.039724,0.092131,0.10141,-0.15178,0.70209,-0.060945,-0.11612,0.20798,-0.13323,0.045208,0.1025,0.14999,0.047249,-0.1188,0.029865
-0.1361,-0.039997,0.06527,-0.044891,0.25809,0.64635,0.052851,0.00094589,-0.092425,-0.041238,0.10123,0.10107,-0.1201,0.90064,-0.068333,-0.18168,0.23033,-0.11655,0.053464,0.09906,0.12108,0.053049,-0.11655,0.033815
-0.14865,-0.039184,0.061588,-0.046608,0.26724,0.6362,0.050018,-0.011751,-0.078607,-0.043227,0.10772,0.093864,-0.093621,1.0744,-0.077954,-0.23452,0.24933,-0.095012,0.055918,0.090129,0.08889,0.055953,-0.10811,0.036405
-0.1566,-0.039603,0.054757,-0.047976,0.26609,0.60461,0.048134,-0.023638,-0.063542,-0.044153,0.10774,0.080198,-0.062166,1.2063,-0.092427,-0.27048,0.26099,-0.070609,0.04878,0.073549,0.061462,0.055302,-0.094188,0.039448
-0.15967,-0.040817,0.047001,-0.048916,0.25269,0.5532,0.047364,-0.032851,-0.046649,-0.043882,0.10059,0.063153,-0.01847,1.2812,-0.10979,-0.29017,0.26082,-0.042835,0.035045,0.050272,0.042323,0.051666,-0.079157,0.040432
-0.16016,-0.041737,0.043081,-0.048197,0.22978,0.49324,0.047402,-0.038938,-0.02813,-0.04334,0.088662,0.047619,0.035526,1.2892,-0.12416,-0.29345,0.24485,-0.0086141,0.022686,0.024246,0.02935,0.047044,-0.06853,0.032992
-0.16073,-0.041537,0.046893,-0.043222,0.20226,0.437,0.048683,-0.042613,-0.0095609,-0.043279,0.075902,0.037738,0.090457,1.229,-0.12969,-0.27856,0.21255,0.035684,0.018745,6.8052e-005,0.017347,0.043793,-0.065563,0.010824
-0.16174,-0.040273,0.058254,-0.03161,0.17434,0.38871,0.052774,-0.045291,0.0070691,-0.043447,0.06572,0.03443,0.1369,1.1116,-0.12468,-0.24684,0.1689,0.09114,0.023787,-0.019892,0.0022303,0.042968,-0.06963,-0.02783
-0.16039,-0.038577,0.072284,-0.013541,0.14857,0.34257,0.061303,-0.048736,0.02062,-0.042872,0.059535,0.035141,0.17123,0.95913,-0.11256,-0.20757,0.12333,0.15393,0.031156,-0.036737,-0.016166,0.043463,-0.077338,-0.07851
-0.15256,-0.036676,0.081942,0.0071959,0.12658,0.28913,0.074015,-0.05456,0.030953,-0.04076,0.056512,0.036198,0.19534,0.79926,-0.099442,-0.17635,0.085239,0.2155,0.031909,-0.053736,-0.034446,0.042814,-0.084897,-0.13254
-0.13602,-0.033749,0.08211,0.024754,0.10983,0.22452,0.087599,-0.063311,0.037939,-0.03704,0.054617,0.035767,0.21163,0.65597,-0.090489,-0.16568,0.059408,0.26552,0.021781,-0.073471,-0.048517,0.039107,-0.089574,-0.18053
-0.11259,-0.028396,0.072566,0.034579,0.099056,0.15463,0.096856,-0.073564,0.040601,-0.032218,0.052446,0.034725,0.21919,0.54041,-0.087695,-0.17485,0.044193,0.29628,0.0048477,-0.095435,-0.056496,0.032519,-0.08952,-0.21454
-0.087579,-0.020004,0.058039,0.036185,0.093002,0.091062,0.097986,-0.082028,0.037508,-0.027038,0.050559,0.03469,0.21461,0.44665,-0.090239,-0.18837,0.033669,0.3057,-0.0089401,-0.11567,-0.059368,0.025294,-0.083213,-0.2285
-0.066665,-0.0098332,0.0454,0.033279,0.088126,0.042203,0.091716,-0.085224,0.028089,-0.022467,0.051102,0.035275,0.19609,0.35558,-0.096085,-0.18614,0.021783,0.29708,-0.010427,-0.12861,-0.059183,0.020214,-0.069964,-0.21848
-0.052415,-0.00064857,0.0397,0.031155,0.080178,0.0068877,0.083486,-0.08193,0.013591,-0.019757,0.055764,0.033551,0.16637,0.24643,-0.103,-0.15818,0.0056782,0.27597,0.0029069,-0.13008,-0.056781,0.018759,-0.051309,-0.18462
-0.042813,0.0051024,0.041355,0.03338,0.066772,-0.024429,0.079965,-0.07449,-0.0032301,-0.019937,0.063635,0.026689,0.13165,0.11001,-0.10837,-0.11196,-0.013506,0.24663,0.026141,-0.11975,-0.0513,0.020372,-0.031493,-0.13366
-0.032833,0.007228,0.04612,0.040241,0.048956,-0.062216,0.084289,-0.067659,-0.01932,-0.022729,0.070979,0.015485,0.098075,-0.044293,-0.10883,-0.06587,-0.032096,0.21076,0.051302,-0.10182,-0.041909,0.023302,-0.015707,-0.078625
-0.017927,0.0081472,0.047952,0.049819,0.030545,-0.11052,0.093807,-0.065631,-0.032337,-0.025911,0.073451,0.0051206,0.069281,-0.19273,-0.10099,-0.034018,-0.046227,0.16947,0.073253,-0.083619,-0.02981,0.026239,-0.0069745,-0.033889
0.0030645,0.011138,0.043175,0.060313,0.0157,-0.16576,0.10223,-0.06951,-0.040834,-0.026251,0.069086,0.0016756,0.046961,-0.31054,-0.08317,-0.015119,-0.053699,0.12609,0.092571,-0.07271,-0.01819,0.029307,-0.0042811,-0.0076979
0.027686,0.01776,0.033256,0.0713,0.0065672,-0.22209,0.10443,-0.077194,-0.043908,-0.021787,0.059586,0.0067957,0.032616,-0.38574,-0.056807,0.0050491,-0.054712,0.087064,0.11363,-0.074161,-0.0097578,0.033564,-0.0037696,0.0024834
0.052359,0.026582,0.024064,0.082909,0.0024754,-0.27814,0.099878,-0.08557,-0.041024,-0.013657,0.048827,0.015084,0.027548,-0.42403,-0.026137,0.040089,-0.051395,0.059499,0.13987,-0.089209,-0.0041175,0.039459,-0.002063,0.0077143
0.075481,0.034336,0.021676,0.094064,0.00089227,-0.33861,0.092089,-0.092929,-0.032255,-0.0056343,0.039934,0.016945,0.030414,-0.44193,0.0037236,0.090357,-0.046525,0.0471,0.17021,-0.11568,0.0022547,0.045719,0.0012512,0.019594
0.098508,0.038528,0.027559,0.10207,-0.00085539,-0.40921,0.084913,-0.099601,-0.018527,-0.001389,0.033403,0.0051202,0.035012,-0.45388,0.028862,0.14227,-0.042062,0.047855,0.19924,-0.14934,0.012966,0.049807,0.0041554,0.042432
0.12414,0.039241,0.036897,0.1045,-0.0041876,-0.48937,0.079285,-0.10668,-0.0013825,-0.0016469,0.027606,-0.020118,0.031639,-0.46343,0.047362,0.17983,-0.038294,0.055407,0.22072,-0.1849,0.028137,0.049743,0.0050032,0.07136
0.15326,0.0386,0.041821,0.10202,-0.0086433,-0.57006,0.073161,-0.11449,0.017662,-0.0037505,0.020849,-0.051244,0.012391,-0.46448,0.058626,0.19798,-0.034104,0.063078,0.23162,-0.21615,0.043635,0.045804,0.004636,0.097257
0.18336,0.038568,0.037328,0.09938,-0.011935,-0.63915,0.064298,-0.12229,0.037644,-0.0040849,0.012934,-0.078842,-0.023347,-0.45019,0.062378,0.20596,-0.028207,0.067434,0.23384,-0.23619,0.054035,0.0406,0.0056037,0.11391
0.20984,0.039237,0.025192,0.10309,-0.010699,-0.69058,0.052965,-0.12923,0.058082,-0.0012186,0.0050186,-0.097536,-0.067934,-0.42085,0.058593,0.21842,-0.020476,0.068913,0.23286,-0.2389,0.056791,0.037345,0.009253,0.12162
0.22885,0.039213,0.01258,0.11713,-0.0021312,-0.72939,0.042032,-0.13519,0.078437,0.0030851,-0.0017066,-0.10774,-0.11041,-0.38399,0.048537,0.24221,-0.01241,0.069615,0.23423,-0.22186,0.053892,0.037674,0.013682,0.12507
0.23928,0.03755,0.0064683,0.13982,0.013779,-0.7682,0.034558,-0.14049,0.097664,0.0058519,-0.0070094,-0.11241,-0.1435,-0.34763,0.035752,0.27045,-0.0063032,0.07056,0.24033,-0.18896,0.049573,0.040713,0.014807,0.12838
0.24247,0.035158,0.0085584,0.16443,0.032742,-0.81785,0.031308,-0.14507,0.11437,0.0059029,-0.011446,-0.11234,-0.16671,-0.31414,0.025477,0.28791,-0.0036645,0.0707,0.24875,-0.14997,0.046265,0.044074,0.0097634,0.13189
0.24063,0.034173,0.01481,0.18323,0.047083,-0.87939,0.030419,-0.14835,0.12759,0.004938,-0.015503,-0.10466,-0.18265,-0.28106,0.022162,0.28225,-0.0039672,0.068164,0.25346,-0.11618,0.042553,0.045835,-0.00049341,0.13284
0.23573,0.035886,0.019539,0.192,0.049486,-0.94341,0.029245,-0.15011,0.13768,0.0056461,-0.019147,-0.085898,-0.18995,-0.24802,0.026546,0.25166,-0.0046459,0.062227,0.24815,-0.094568,0.034985,0.045902,-0.011828,0.12869
0.22962,0.039289,0.020094,0.19164,0.037637,-0.99597,0.026399,-0.15139,0.14674,0.0087656,-0.022192,-0.056573,-0.17981,-0.22205,0.034786,0.20431,-0.0024343,0.054104,0.23049,-0.08449,0.021995,0.045818,-0.020262,0.11964
0.22443,0.041739,0.018064,0.18612,0.016479,-1.0255,0.022166,-0.15409,0.15806,0.012142,-0.024919,-0.022814,-0.14087,-0.21445,0.041013,0.15267,0.0047231,0.045906,0.20465,-0.079745,0.0062456,0.047435,-0.024943,0.10885
0.22185,0.041141,0.016582,0.17868,-0.0039484,-1.0254,0.017339,-0.15939,0.17461,0.012906,-0.028068,0.0066816,-0.069504,-0.23029,0.041956,0.10855,0.016339,0.038813,0.17994,-0.074393,-0.006793,0.051649,-0.028107,0.10078
0.22177,0.03763,0.016863,0.16938,-0.013982,-0.99171,0.012215,-0.16624,0.19712,0.010722,-0.03213,0.025938,0.022698,-0.25935,0.040033,0.081044,0.029487,0.03217,0.16578,-0.067585,-0.012841,0.058052,-0.032189,0.099526
0.22182,0.033272,0.0173,0.15567,-0.0094124,-0.92024,0.0070835,-0.17154,0.22289,0.0087856,-0.036694,0.034823,0.11211,-0.27804,0.041816,0.075208,0.040383,0.024367,0.16563,-0.063367,-0.011949,0.065456,-0.036837,0.10752
0.21878,0.030198,0.015494,0.13503,0.0072695,-0.80818,0.0036315,-0.17184,0.24635,0.011247,-0.04063,0.037651,0.17624,-0.26352,0.052302,0.089045,0.046613,0.014691,0.17414,-0.065869,-0.0082346,0.072642,-0.038556,0.12463
0.21106,0.028981,0.010677,0.10721,0.029946,-0.65946,0.0052502,-0.16516,0.26175,0.019229,-0.042991,0.038899,0.20789,-0.21082,0.069187,0.1113,0.048637,0.0044424,0.17972,-0.074428,-0.0066326,0.078829,-0.033277,0.14731
0.19997,0.028638,0.0040092,0.07439,0.053591,-0.48952,0.014983,-0.1516,0.26649,0.029164,-0.043734,0.039837,0.21931,-0.13954,0.082126,0.12496,0.049523,-0.003822,0.1711,-0.083251,-0.0094156,0.083747,-0.019646,0.16887
0.18863,0.028006,-0.0031694,0.039725,0.077075,-0.32359,0.032385,-0.13267,0.2629,0.035232,-0.043471,0.03865,0.23271,-0.083328,0.07845,0.1174,0.052901,-0.0083572,0.14348,-0.085958,-0.015072,0.087457,-0.00036906,0.18147
0.17923,0.026991,-0.010899,0.0057348,0.10242,-0.18721,0.052296,-0.11032,0.25678,0.033918,-0.042479,0.033308,0.2644,-0.067405,0.05164,0.089981,0.060407,-0.0098363,0.10052,-0.080786,-0.019931,0.090005,0.01925,0.17939
0.17135,0.026504,-0.020131,-0.026,0.1318,-0.093668,0.067468,-0.086634,0.25352,0.026697,-0.039978,0.024268,0.3145,-0.089346,0.006349,0.057588,0.070467,-0.011001,0.051331,-0.07164,-0.020824,0.091072,0.034235,0.16141
0.16244,0.027292,-0.03078,-0.054043,0.16501,-0.037019,0.073634,-0.063931,0.25469,0.018484,-0.034528,0.014622,0.36907,-0.11719,-0.043824,0.03591,0.079399,-0.014523,0.0050892,-0.064182,-0.016792,0.089954,0.042182,0.13073
0.1503,0.028945,-0.040529,-0.076264,0.19924,0.0035173,0.072977,-0.044433,0.25771,0.013281,-0.025409,0.0077244,0.41033,-0.10771,-0.084036,0.026288,0.084136,-0.020808,-0.03329,-0.060822,-0.0091248,0.086108,0.043676,0.092584
0.13495,0.030106,-0.045891,-0.089836,0.23085,0.049695,0.072797,-0.029158,0.25858,0.010847,-0.01388,0.0042888,0.42497,-0.033509,-0.10555,0.012667,0.084491,-0.02756,-0.064398,-0.059368,-0.00041923,0.079973,0.041246,0.051905
0.11867,0.029691,-0.044686,-0.09211,0.25723,0.11005,0.080018,-0.016848,0.255,0.007147,-0.0032441,0.0010928,0.40488,0.098963,-0.10771,-0.024272,0.083215,-0.031475,-0.092629,-0.056381,0.0064402,0.073255,0.037985,0.012842
0.10399,0.027957,-0.037663,-0.081799,0.27739,0.17562,0.095904,-0.0042353,0.24679,-0.002053,0.0025333,-0.0078378,0.34521,0.25292,-0.094286,-0.086886,0.083817,-0.030659,-0.12294,-0.051681,0.0091515,0.068082,0.036558,-0.020182
0.091481,0.02639,-0.027769,-0.059967,0.29123,0.22888,0.11539,0.011973,0.23348,-0.017656,0.00086348,-0.028147,0.24773,0.38373,-0.068722,-0.15307,0.087975,-0.025835,-0.15777,-0.049511,0.0069353,0.06547,0.038592,-0.042131
0.079026,0.026474,-0.017779,-0.03058,0.29876,0.25913,0.13162,0.032587,0.21233,-0.036545,-0.0079162,-0.061576,0.13001,0.46504,-0.032738,-0.19069,0.09461,-0.019503,-0.19538,-0.055284,0.0013115,0.064448,0.044215,-0.049296
0.063194,0.028405,-0.008465,-0.00037842,0.30034,0.27232,0.14193,0.054853,0.17967,-0.053867,-0.02031,-0.10355,0.029079,0.50078,0.010941,-0.18342,0.10123,-0.013908,-0.23054,-0.071223,-0.0042165,0.062831,0.051913,-0.042431
0.041558,0.030826,0.0011229,0.022363,0.29773,0.2876,0.15019,0.073806,0.1356,-0.066108,-0.030907,-0.14344,-0.012063,0.51597,0.055551,-0.14585,0.10619,-0.0095432,-0.25736,-0.095151,-0.0061886,0.059198,0.059093,-0.028057
0.014304,0.0318,0.011683,0.030452,0.29453,0.3236,0.16379,0.085161,0.087371,-0.072628,-0.034633,-0.16806,0.028233,0.53504,0.091178,-0.11325,0.10988,-0.0052681,-0.27277,-0.12343,-0.0040183,0.054356,0.063379,-0.015837
-0.015998,0.030234,0.021934,0.021037,0.29508,0.38531,0.188,0.087608,0.047414,-0.075041,-0.029106,-0.16756,0.1297,0.56492,0.10988,-0.11358,0.11392,0.00033724,-0.2784,-0.15493,-0.0013257,0.050863,0.063929,-0.013265
-0.046129,0.026627,0.028836,-0.0023014,0.30211,0.46161,0.22248,0.082909,0.025965,-0.075412,-0.015955,-0.14069,0.2379,0.59566,0.11091,-0.145,0.11931,0.0077242,-0.27943,-0.19194,-0.0039962,0.050896,0.06179,-0.021471
-0.074106,0.022565,0.029719,-0.030476,0.31506,0.53438,0.26255,0.074075,0.023737,-0.074701,-0.00016708,-0.096366,0.30023,0.61609,0.1012,-0.17829,0.12534,0.016216,-0.28089,-0.23681,-0.015747,0.05428,0.058983,-0.035368
-0.099906,0.019368,0.024583,-0.052979,0.33055,0.59122,0.30363,0.06337,0.030916,-0.072209,0.01252,-0.049736,0.30389,0.62921,0.090225,-0.18222,0.13023,0.024791,-0.28425,-0.28728,-0.034515,0.058405,0.05703,-0.047884
-0.12466,0.016926,0.016628,-0.062917,0.34514,0.63232,0.34458,0.051699,0.033896,-0.066073,0.018893,-0.014823,0.28335,0.6524,0.08327,-0.14999,0.13287,0.032861,-0.28678,-0.33448,-0.052914,0.060091,0.056094,-0.054732
-0.14916,0.013654,0.010473,-0.059749,0.3581,0.66767,0.38721,0.039438,0.024789,-0.054526,0.020109,0.0020637,0.2884,0.70178,0.078488,-0.10437,0.1338,0.040344,-0.28433,-0.36579,-0.062956,0.05784,0.055242,-0.056099
-0.1727,0.0076964,0.0093916,-0.048015,0.3717,0.70873,0.43278,0.027384,0.0062931,-0.037377,0.020643,0.0041233,0.33801,0.77468,0.069789,-0.077778,0.13462,0.047171,-0.27547,-0.3708,-0.061579,0.052723,0.053387,-0.054623
-0.19303,-0.0015021,0.013564,-0.033426,0.38826,0.76121,0.47851,0.016689,-0.0115,-0.016883,0.024849,0.00030248,0.39945,0.84744,0.052726,-0.085012,0.13627,0.052921,-0.2637,-0.34676,-0.052674,0.047428,0.049991,-0.052274
-0.20713,-0.012495,0.020469,-0.019601,0.40629,0.82301,0.51724,0.0079076,-0.019212,0.0028356,0.033545,-0.0010903,0.41179,0.89192,0.028328,-0.11183,0.13793,0.056996,-0.25616,-0.3004,-0.044033,0.044445,0.045139,-0.049227
-0.21223,-0.022647,0.026835,-0.0077152,0.41929,0.88617,0.54013,0.00034506,-0.014444,0.017876,0.043294,0.0029881,0.33521,0.8968,0.0021437,-0.12827,0.13755,0.059074,-0.25955,-0.24565,-0.041762,0.044705,0.039304,-0.045298
-0.20646,-0.029831,0.030577,0.0016278,0.41924,0.9403,0.54053,-0.0074353,-0.0018673,0.026921,0.049085,0.010099,0.18512,0.87464,-0.020028,-0.11424,0.13348,0.059236,-0.27623,-0.19853,-0.046527,0.047372,0.033269,-0.041718
-0.18922,-0.033573,0.031469,0.0070137,0.40242,0.97558,0.51671,-0.016352,0.011542,0.032059,0.048409,0.015798,0.023689,0.84841,-0.035736,-0.075501,0.12565,0.057505,-0.30298,-0.17204,-0.054214,0.050538,0.028194,-0.04086
-0.16124,-0.034601,0.03056,0.0071242,0.37309,0.98542,0.47248,-0.026054,0.021168,0.037141,0.043466,0.01769,-0.083034,0.83019,-0.04612,-0.03736,0.11518,0.053215,-0.33354,-0.173,-0.059845,0.052279,0.025359,-0.043994
-0.12439,-0.033269,0.02915,0.0028773,0.3414,0.96892,0.4158,-0.035442,0.025583,0.044666,0.039693,0.017107,-0.10649,0.81145,-0.053377,-0.022967,0.10311,0.044941,-0.36336,-0.20149,-0.061319,0.051578,0.025405,-0.049584
-0.081103,-0.0285,0.028126,-0.0019551,0.31648,0.93185,0.35632,-0.043872,0.024187,0.053626,0.041714,0.017631,-0.064672,0.77272,-0.058282,-0.03519,0.089707,0.031338,-0.39379,-0.25234,-0.060324,0.048793,0.027612,-0.054255
-0.033293,-0.01855,0.027797,-0.0030423,0.29994,0.88456,0.30241,-0.05172,0.015189,0.06017,0.049919,0.022007,0.0023721,0.70154,-0.059903,-0.056401,0.074939,0.012459,-0.4326,-0.31719,-0.060404,0.045319,0.030082,-0.055783
0.018594,-0.0031105,0.027968,0.0010751,0.28494,0.83733,0.25887,-0.059609,-0.0034934,0.060786,0.060235,0.029766,0.064503,0.60068,-0.057207,-0.064233,0.059517,-0.0094965,-0.48974,-0.38613,-0.064233,0.042502,0.031014,-0.055196
0.075692,0.015248,0.028135,0.00781,0.26166,0.79569,0.22597,-0.067033,-0.031399,0.055545,0.06705,0.036999,0.11375,0.47985,-0.050516,-0.048366,0.044889,-0.030757,-0.57008,-0.44853,-0.072102,0.040481,0.030148,-0.055797
0.13948,0.031974,0.027872,0.01312,0.22469,0.75876,0.20046,-0.071933,-0.063969,0.048692,0.066881,0.038207,0.15202,0.34237,-0.041285,-0.014444,0.031958,-0.047741,-0.66795,-0.49415,-0.082114,0.038056,0.029024,-0.059982
0.20967,0.043369,0.027357,0.015616,0.17616,0.7212,0.17779,-0.071978,-0.094374,0.045877,0.060145,0.029123,0.17297,0.18354,-0.030629,0.025848,0.01981,-0.058826,-0.76806,-0.51479,-0.091365,0.033989,0.02955,-0.066957
0.28241,0.04901,0.027606,0.018055,0.12263,0.67691,0.15442,-0.066652,-0.11754,0.050042,0.050208,0.0092056,0.15967,0.0045686,-0.018367,0.067172,0.006028,-0.064845,-0.85385,-0.50645,-0.09721,0.028806,0.031928,-0.073539
0.35029,0.051582,0.02994,0.024311,0.068779,0.62171,0.12926,-0.058238,-0.13301,0.059186,0.040906,-0.017273,0.10147,-0.17267,-0.0038369,0.11317,-0.011302,-0.067957,-0.91835,-0.47067,-0.098259,0.02527,0.033805,-0.07709
0.40441,0.054223,0.034805,0.034337,0.014179,0.55416,0.10384,-0.050598,-0.1442,0.067899,0.034424,-0.042178,0.012811,-0.3089,0.012038,0.16756,-0.031639,-0.069887,-0.96972,-0.41402,-0.095019,0.026615,0.03175,-0.077475
0.43786,0.057738,0.040817,0.042109,-0.044213,0.47536,0.081592,-0.046614,-0.15478,0.071517,0.030614,-0.056496,-0.066846,-0.37169,0.025251,0.22343,-0.051983,-0.070981,-1.0263,-0.34582,-0.089903,0.033664,0.024223,-0.076084
0.44854,0.060211,0.044944,0.039252,-0.10629,0.38889,0.066231,-0.046526,-0.16528,0.06963,0.027737,-0.05427,-0.095701,-0.36191,0.029334,0.26233,-0.069019,-0.070824,-1.1037,-0.2753,-0.086229,0.043324,0.013663,-0.073134
0.43964,0.059288,0.043981,0.021908,-0.16567,0.30059,0.059705,-0.048691,-0.17266,0.066126,0.023935,-0.03552,-0.05796,-0.31753,0.018125,0.26565,-0.081566,-0.069689,-1.2027,-0.2097,-0.086414,0.050124,0.0056109,-0.066441
0.41733,0.054923,0.036397,-0.0049329,-0.21243,0.2173,0.060349,-0.052051,-0.17324,0.065847,0.01872,-0.0063772,0.02534,-0.28772,-0.010792,0.22939,-0.091197,-0.069427,-1.3075,-0.154,-0.090391,0.049876,0.0049502,-0.053409
0.38698,0.049944,0.023371,-0.029738,-0.23959,0.14429,0.062548,-0.057822,-0.16629,0.07068,0.01372,0.02387,0.11196,-0.29654,-0.054046,0.16947,-0.10054,-0.072821,-1.3947,-0.11138,-0.095495,0.042603,0.011844,-0.034589
0.35059,0.047785,0.008411,-0.041925,-0.24765,0.082984,0.058743,-0.068493,-0.15537,0.078305,0.012057,0.047111,0.16793,-0.32656,-0.10319,0.1122,-0.11084,-0.081776,-1.4472,-0.083471,-0.098216,0.032353,0.020731,-0.015102
0.307,0.049378,-0.0040927,-0.038735,-0.24372,0.030686,0.043181,-0.084851,-0.14603,0.084384,0.016315,0.059581,0.18781,-0.33645,-0.14809,0.076742,-0.1208,-0.095655,-1.4614,-0.069491,-0.096752,0.02412,0.02378,-0.0019192
0.25469,0.052039,-0.010582,-0.026223,-0.23665,-0.01757,0.015227,-0.10393,-0.14153,0.086055,0.026168,0.062226,0.19107,-0.29677,-0.18138,0.062556,-0.12764,-0.11102,-1.4446,-0.065225,-0.092518,0.020416,0.016708,0.0011609
0.19504,0.051472,-0.0096098,-0.01403,-0.23307,-0.066643,-0.020181,-0.12028,-0.13979,0.083701,0.03751,0.058696,0.19975,-0.21127,-0.20145,0.051488,-0.12924,-0.12311,-1.4047,-0.063016,-0.089346,0.020167,0.002524,-0.0034007
0.13361,0.045308,-0.0023087,-0.0084993,-0.23711,-0.12004,-0.055672,-0.12992,-0.13392,0.079823,0.04423,0.052779,0.2163,-0.10401,-0.21206,0.022679,-0.12572,-0.12831,-1.3422,-0.053863,-0.090794,0.020421,-0.010159,-0.0085597
0.078504,0.035198,0.0081247,-0.0094229,-0.25193,-0.17974,-0.086331,-0.13339,-0.11633,0.076527,0.041889,0.046886,0.21946,0.016116,-0.2187,-0.030862,-0.1193,-0.12608,-1.2492,-0.031189,-0.097493,0.019056,-0.013497,-0.007895
0.036732,0.025678,0.017871,-0.012192,-0.27937,-0.24584,-0.11292,-0.13483,-0.083763,0.074116,0.030794,0.041905,0.18071,0.17868,-0.22381,-0.096225,-0.1129,-0.11913,-1.1163,0.0055223,-0.10657,0.016136,-0.0067036,-0.00014664
0.010856,0.020714,0.024316,-0.012684,-0.31688,-0.31552,-0.14085,-0.13753,-0.039759,0.071839,0.016132,0.037674,0.088146,0.43643,-0.22434,-0.14931,-0.10854,-0.11174,-0.94119,0.049434,-0.11375,0.013107,0.0029664,0.010394
-0.0022442,0.020778,0.027277,-0.010665,-0.35542,-0.38266,-0.17538,-0.13994,0.0070647,0.069643,0.0049757,0.033405,-0.04137,0.81758,-0.2134,-0.17176,-0.10679,-0.10707,-0.73287,0.088565,-0.1165,0.010996,0.0057016,0.01752
-0.0097864,0.022787,0.028789,-0.0094555,-0.38264,-0.43997,-0.2163,-0.13628,0.047853,0.068983,0.0022867,0.028111,-0.17169,1.2828,-0.18511,-0.16363,-0.10704,-0.10549,-0.51038,0.11072,-0.1159,0.0094618,-0.003126,0.01746
-0.01944,0.022808,0.031486,-0.01286,-0.39089,-0.48326,-0.2562,-0.12141,0.078172,0.071977,0.0086187,0.021347,-0.27227,1.7248,-0.13916,-0.14268,-0.10844,-0.10487,-0.29658,0.10873,-0.11547,0.0074334,-0.019368,0.010552
-0.035472,0.019167,0.03663,-0.022119,-0.38361,-0.51461,-0.28374,-0.095759,0.099571,0.079916,0.020652,0.014028,-0.33978,2.0172,-0.082095,-0.13107,-0.11036,-0.10267,-0.11052,0.083411,-0.11802,0.0044797,-0.033758,-0.00043496
-0.056753,0.013422,0.043097,-0.035051,-0.37385,-0.54129,-0.28967,-0.065546,0.11748,0.092649,0.033564,0.0084302,-0.39944,2.0822,-0.024481,-0.13991,-0.11245,-0.097954,0.038761,0.04292,-0.12308,0.0013748,-0.039735,-0.013137
-0.077878,0.0086737,0.047966,-0.047592,-0.37499,-0.57042,-0.27151,-0.037917,0.13731,0.10922,0.043377,0.006802,-0.48391,1.9305,0.023719,-0.16372,-0.11434,-0.09195,0.15452,-0.00074195,-0.12727,-0.00077555,-0.038668,-0.026815
-0.092924,0.0069225,0.048288,-0.05634,-0.39116,-0.60361,-0.23398,-0.015273,0.16142,0.12879,0.048144,0.0093439,-0.60534,1.6471,0.056765,-0.18861,-0.1158,-0.086701,0.24911,-0.036029,-0.12724,-0.0019639,-0.037897,-0.041099
-0.099539,0.0077372,0.042946,-0.060276,-0.41561,-0.63626,-0.18584,0.0060182,0.18828,0.15071,0.048079,0.013347,-0.74221,1.3355,0.074057,-0.20637,-0.11718,-0.083216,0.3364,-0.055081,-0.12256,-0.0037048,-0.043385,-0.053843
-0.10056,0.009099,0.033551,-0.060591,-0.43797,-0.66273,-0.1364,0.031532,0.21366,0.17365,0.045122,0.014703,-0.8521,1.0624,0.078845,-0.22139,-0.11966,-0.080724,0.42351,-0.055079,-0.1159,-0.0077576,-0.053608,-0.060541
-0.10188,0.009318,0.023859,-0.058955,-0.45337,-0.68301,-0.093944,0.063277,0.23251,0.19489,0.042106,0.010962,-0.90116,0.83666,0.076165,-0.24342,-0.12466,-0.077611,0.50707,-0.037982,-0.11041,-0.014133,-0.060298,-0.056346
-0.10807,0.0082294,0.017922,-0.055744,-0.46457,-0.70502,-0.066176,0.097852,0.24082,0.21067,0.041485,0.0034345,-0.8878,0.63148,0.070889,-0.27267,-0.1325,-0.073069,0.57659,-0.0092753,-0.10693,-0.020259,-0.055526,-0.039487
-0.11904,0.0068235,0.017895,-0.049773,-0.47568,-0.73985,-0.060177,0.12963,0.23712,0.2175,0.043997,-0.0036705,-0.84245,0.42374,0.066099,-0.29187,-0.14153,-0.067944,0.62269,0.023784,-0.10358,-0.022338,-0.038953,-0.013473
-0.13051,0.0059622,0.02275,-0.039866,-0.48401,-0.79324,-0.080682,0.15558,0.22318,0.21358,0.048116,-0.0065875,-0.80378,0.21949,0.062086,-0.27457,-0.14867,-0.064049,0.64436,0.054019,-0.098214,-0.017965,-0.01882,0.01381
-0.13798,0.0054949,0.028869,-0.026839,-0.47871,-0.85977,-0.12763,0.17693,0.20334,0.19912,0.050864,-0.0050245,-0.79038,0.048919,0.05682,-0.2047,-0.15147,-0.062576,0.6499,0.075779,-0.090902,-0.0078212,-0.0057191,0.033932
-0.14085,0.0044993,0.032331,-0.013913,-0.44805,-0.92434,-0.19544,0.1965,0.18217,0.17594,0.04955,-0.0021998,-0.7895,-0.059163,0.048429,-0.091223,-0.15012,-0.063009,0.65117,0.085562,-0.084067,0.0050543,-0.0044705,0.042371
-0.14331,0.0022877,0.03152,-0.0048187,-0.38895,-0.97001,-0.2752,0.21463,0.16198,0.14683,0.043266,-0.0017987,-0.77051,-0.10006,0.03848,0.035085,-0.14764,-0.063423,0.65551,0.081818,-0.079901,0.017799,-0.010954,0.040783
-0.15104,-0.00077869,0.028198,-0.0010396,-0.31047,-0.98649,-0.35823,0.22815,0.14191,0.11536,0.033267,-0.0044919,-0.71134,-0.096142,0.033353,0.14074,-0.14792,-0.061914,0.66131,0.06451,-0.077805,0.029783,-0.016384,0.035621
-0.16642,-0.003366,0.026156,-0.00062228,-0.22852,-0.97368,-0.43843,0.23343,0.11979,0.085795,0.022271,-0.0070391,-0.61684,-0.080946,0.041562,0.20937,-0.15316,-0.057992,0.65988,0.034993,-0.074535,0.042318,-0.015019,0.034014
-0.18629,-0.0040798,0.028268,0.00027776,-0.15685,-0.93879,-0.51208,0.23072,0.095261,0.062434,0.013339,-0.0047257,-0.51552,-0.07909,0.067926,0.2471,-0.16268,-0.052859,0.64182,-0.0038112,-0.067097,0.056328,-0.0084976,0.039594
-0.20409,-0.0025306,0.034065,0.0043948,-0.10151,-0.89039,-0.57632,0.22557,0.07126,0.048234,0.0087739,0.0049376,-0.43791,-0.096918,0.10852,0.27146,-0.1738,-0.048391,0.60317,-0.047612,-0.055636,0.07023,-0.0032144,0.050933
-0.2148,0.00023818,0.039625,0.011501,-0.061511,-0.83434,-0.62826,0.22608,0.051969,0.043384,0.009192,0.020242,-0.3932,-0.12764,0.15042,0.2951,-0.18397,-0.045668,0.54767,-0.091804,-0.043521,0.080204,-0.0034675,0.063389
-0.21855,0.0023253,0.039982,0.01919,-0.032644,-0.77394,-0.66552,0.23829,0.038744,0.044947,0.013014,0.036446,-0.36048,-0.16317,0.17708,0.31833,-0.19213,-0.044199,0.48473,-0.13304,-0.034524,0.082829,-0.0068997,0.072775
-0.22025,0.0022087,0.03245,0.02531,-0.010181,-0.7123,-0.68713,0.26352,0.027748,0.047988,0.017001,0.048984,-0.30016,-0.2018,0.176,0.3344,-0.19878,-0.042467,0.42506,-0.17017,-0.029734,0.077802,-0.006543,0.078043
-0.22573,-0.00022162,0.018574,0.029584,0.010467,-0.65326,-0.69347,0.29896,0.011884,0.047636,0.018143,0.056248,-0.17762,-0.24695,0.14444,0.34023,-0.20519,-0.03931,0.37677,-0.20358,-0.02698,0.068247,0.0024073,0.081155
-0.23776,-0.0036277,0.0033844,0.032987,0.032936,-0.59884,-0.68546,0.34014,-0.014168,0.040945,0.015991,0.060069,0.015355,-0.30123,0.090586,0.3416,-0.21277,-0.034973,0.34328,-0.23331,-0.023019,0.058225,0.017471,0.084606
-0.25458,-0.0062454,-0.0076114,0.035747,0.057575,-0.54565,-0.66463,0.38274,-0.049933,0.02774,0.013512,0.063778,0.2538,-0.36355,0.030519,0.34877,-0.22282,-0.030855,0.3235,-0.25726,-0.016199,0.049697,0.030391,0.088989
-0.27151,-0.0071548,-0.011785,0.036241,0.07966,-0.48443,-0.63449,0.42271,-0.089504,0.010331,0.015129,0.069377,0.49063,-0.43255,-0.017352,0.3674,-0.23592,-0.028114,0.3137,-0.27118,-0.0071897,0.041798,0.034101,0.092712
-0.28366,-0.0067479,-0.010916,0.032108,0.091504,-0.40464,-0.60189,0.45582,-0.12575,-0.0075522,0.022901,0.075788,0.67919,-0.51228,-0.039072,0.3932,-0.25104,-0.026342,0.3103,-0.2705,0.0024723,0.033217,0.028827,0.09392
-0.28779,-0.0060335,-0.0098612,0.022675,0.088532,-0.30089,-0.57575,0.47811,-0.15463,-0.022249,0.033843,0.079424,0.79459,-0.61277,-0.031176,0.41423,-0.26487,-0.023612,0.31195,-0.2528,0.012162,0.025478,0.02165,0.092595
-0.28266,-0.0054761,-0.013157,0.010488,0.074675,-0.17574,-0.56286,0.48723,-0.17632,-0.031696,0.041073,0.076734,0.84202,-0.7427,-0.0029081,0.41846,-0.27277,-0.01801,0.31948,-0.21926,0.0224,0.02375,0.019935,0.090739
-0.26881,-0.004489,-0.021759,0.00052415,0.061721,-0.036083,-0.56329,0.48339,-0.19288,-0.036429,0.038551,0.066991,0.84806,-0.89922,0.028241,0.40055,-0.2711,-0.0093833,0.33342,-0.17455,0.033548,0.033755,0.024702,0.090445
-0.24829,-0.0020458,-0.032222,-0.0023594,0.061944,0.11329,-0.56931,0.46885,-0.20547,-0.039329,0.025883,0.053245,0.84167,-1.0644,0.046682,0.36364,-0.25935,0.0002991,0.35093,-0.12573,0.044648,0.056833,0.03,0.091788
-0.22417,0.0022272,-0.039054,0.0040981,0.079489,0.27198,-0.56929,0.44653,-0.21372,-0.043829,0.0091177,0.040541,0.83778,-1.2125,0.048339,0.31598,-0.23999,0.0083767,0.36519,-0.081026,0.05383,0.087252,0.028703,0.092746
-0.19938,0.0075604,-0.038711,0.018686,0.10754,0.43891,-0.55404,0.41908,-0.21711,-0.051416,-0.0035198,0.032583,0.83392,-1.3231,0.042057,0.2653,-0.21596,0.01352,0.36897,-0.048245,0.060008,0.11446,0.019209,0.09137
-0.17531,0.012597,-0.03236,0.037604,0.13363,0.60449,-0.52133,0.38888,-0.21642,-0.060166,-0.0077761,0.029346,0.8202,-1.3889,0.040721,0.21428,-0.18789,0.016593,0.3604,-0.032548,0.064145,0.1291,0.0069449,0.088178
-0.15144,0.01639,-0.025231,0.056232,0.14865,0.7491,-0.4758,0.3582,-0.21345,-0.065784,-0.0064163,0.027577,0.79339,-1.4124,0.048774,0.15971,-0.15397,0.019665,0.34598,-0.033673,0.068687,0.12845,-0.00041588,0.086328
-0.12666,0.01888,-0.02294,0.070812,0.15232,0.85258,-0.4253,0.32825,-0.20959,-0.064838,-0.0066327,0.023862,0.76347,-1.3949,0.056821,0.095377,-0.11279,0.024144,0.33721,-0.044529,0.075517,0.11723,0.00059396,0.089062
-0.10142,0.020499,-0.027523,0.079494,0.15135,0.90845,-0.37714,0.29763,-0.20517,-0.057944,-0.013968,0.017758,0.74738,-1.3295,0.048493,0.017418,-0.066849,0.029684,0.34235,-0.053114,0.084228,0.10326,0.0068376,0.096508
-0.078648,0.021469,-0.036216,0.082562,0.15258,0.93069,-0.3364,0.26202,-0.20037,-0.050253,-0.027807,0.012374,0.75489,-1.2042,0.014031,-0.071325,-0.023158,0.034649,0.35937,-0.04772,0.092331,0.091434,0.011852,0.10477
-0.062256,0.021552,-0.043864,0.081771,0.15726,0.94522,-0.30591,0.21672,-0.19634,-0.048409,-0.042067,0.011852,0.77749,-1.0121,-0.041088,-0.1609,0.010289,0.037499,0.37652,-0.022612,0.097301,0.080729,0.01134,0.10834
-0.054234,0.020422,-0.046931,0.078948,0.16064,0.97145,-0.28607,0.16072,-0.19479,-0.056013,-0.050245,0.017828,0.78957,-0.75784,-0.099795,-0.23866,0.029767,0.037805,0.38074,0.019483,0.098657,0.065996,0.0059875,0.10403
-0.052756,0.018158,-0.04592,0.074539,0.15646,1.0089,-0.2741,0.098955,-0.19583,-0.071001,-0.050418,0.027787,0.76263,-0.45534,-0.14567,-0.29583,0.038574,0.036244,0.36763,0.069624,0.098176,0.042651,-0.0003055,0.093163
-0.053229,0.015304,-0.044397,0.06716,0.14185,1.0405,-0.26421,0.040355,-0.19616,-0.087083,-0.046177,0.036691,0.68392,-0.12051,-0.17282,-0.3317,0.044866,0.033959,0.34479,0.11772,0.098015,0.010068,-0.0044861,0.080296
-0.051655,0.012468,-0.045644,0.05486,0.11885,1.0491,-0.25054,-0.0073937,-0.19012,-0.098168,-0.043195,0.040542,0.56739,0.23091,-0.18548,-0.35224,0.055998,0.032028,0.32577,0.15671,0.098508,-0.028891,-0.0068939,0.069545
-0.047597,0.0099271,-0.049725,0.037568,0.09201,1.0332,-0.2317,-0.042215,-0.17333,-0.10237,-0.044655,0.039108,0.44858,0.57763,-0.18943,-0.36402,0.073615,0.031284,0.31974,0.18364,0.097809,-0.071234,-0.010401,0.061663
-0.044191,0.0076076,-0.05325,0.018946,0.064853,1.0083,-0.213,-0.067447,-0.14616,-0.10252,-0.049235,0.0358,0.36606,0.88721,-0.18446,-0.3682,0.093091,0.032151,0.32544,0.19823,0.093861,-0.11663,-0.017434,0.054106
-0.04506,0.0054089,-0.051883,0.0057027,0.038288,0.99147,-0.20298,-0.087279,-0.11389,-0.1031,-0.052674,0.035021,0.34098,1.122,-0.16522,-0.35936,0.10751,0.03429,0.33408,0.20168,0.086872,-0.16687,-0.027661,0.043783
-0.050656,0.0035159,-0.04358,0.0040456,0.011819,0.98599,-0.20523,-0.10194,-0.083376,-0.10614,-0.051079,0.039144,0.3683,1.2573,-0.1288,-0.33041,0.11296,0.036404,0.33781,0.19699,0.079785,-0.22218,-0.038093,0.030023
-0.057158,0.0024254,-0.030163,0.015297,-0.014071,0.97699,-0.2115,-0.10716,-0.059123,-0.10965,-0.0433,0.047313,0.4251,1.2989,-0.08082,-0.27977,0.11116,0.036757,0.33601,0.19006,0.076013,-0.27753,-0.045126,0.015395
-0.059044,0.0026709,-0.016208,0.033981,-0.036643,0.9436,-0.20223,-0.098737,-0.042015,-0.10962,-0.031184,0.056608,0.48863,1.2805,-0.033677,-0.21552,0.1078,0.034362,0.33427,0.18911,0.076415,-0.32237,-0.046694,0.0039761
-0.053352,0.0044344,-0.0061736,0.05039,-0.051485,0.87609,-0.15604,-0.07822,-0.03133,-0.10403,-0.018265,0.064305,0.54987,1.2393,0.0015725,-0.15344,0.10832,0.029927,0.33768,0.20146,0.078462,-0.34491,-0.043082,-0.0013013
-0.042171,0.0072748,-0.0018596,0.056357,-0.053927,0.78407,-0.06261,-0.054403,-0.027441,-0.095453,-0.0080216,0.069329,0.61288,1.1856,0.022027,-0.11023,0.11464,0.025622,0.34534,0.22943,0.078676,-0.33872,-0.036295,-0.00023257
-0.031185,0.010164,-0.0018967,0.050216,-0.039917,0.69038,0.069532,-0.038493,-0.032181,-0.090191,-0.0023943,0.072002,0.68264,1.0923,0.032351,-0.096127,0.12508,0.023621,0.35126,0.26847,0.076267,-0.30743,-0.028837,0.0049756
-0.025346,0.011891,-0.0033981,0.037203,-0.0062574,0.61677,0.21562,-0.036264,-0.046393,-0.094217,-0.00087695,0.072763,0.75405,0.91568,0.037916,-0.11081,0.13691,0.024518,0.35086,0.30963,0.074566,-0.26414,-0.022798,0.011222
-0.025128,0.01167,-0.0043231,0.024953,0.048671,0.57291,0.34588,-0.04347,-0.067206,-0.1088,-0.00063825,0.071342,0.81336,0.6338,0.038762,-0.14397,0.14867,0.026903,0.34679,0.34488,0.078632,-0.22568,-0.019384,0.015959
-0.026417,0.009572,-0.0046761,0.017667,0.12294,0.55478,0.43824,-0.048592,-0.088012,-0.12879,0.0019512,0.067201,0.85129,0.27177,0.030371,-0.17974,0.16047,0.028456,0.34836,0.37141,0.091012,-0.20517,-0.018599,0.017842
-0.024094,0.0064342,-0.0057487,0.013599,0.20887,0.55013,0.48554,-0.041229,-0.10169,-0.14502,0.0088975,0.060643,0.87488,-0.10637,0.010469,-0.2032,0.17231,0.027663,0.36436,0.39172,0.1094,-0.20752,-0.018972,0.016691
-0.016334,0.0032895,-0.0083014,0.0077319,0.29314,0.54478,0.49448,-0.01974,-0.10465,-0.14929,0.018865,0.053224,0.90481,-0.43277,-0.014938,-0.20658,0.18278,0.024851,0.39532,0.40971,0.12837,-0.23021,-0.017778,0.013218
-0.0060781,0.00076082,-0.01143,-0.0028868,0.36069,0.52636,0.47888,0.0077886,-0.098658,-0.13892,0.027707,0.046782,0.95701,-0.67031,-0.032632,-0.19217,0.18978,0.021831,0.43175,0.42632,0.14347,-0.26772,-0.0123,0.008707
0.0014542,-0.001097,-0.013126,-0.015841,0.40116,0.48651,0.45231,0.029909,-0.089203,-0.11784,0.031167,0.041916,1.0226,-0.82114,-0.030188,-0.16961,0.19247,0.020612,0.46051,0.43849,0.15399,-0.31537,-0.0018073,0.0045556
0.003012,-0.0024823,-0.011926,-0.024891,0.4138,0.4237,0.42366,0.040373,-0.082125,-0.093669,0.027794,0.037535,1.0641,-0.90729,-0.0042725,-0.14788,0.19231,0.022203,0.47428,0.44227,0.16179,-0.36945,0.011117,0.0016534
-0.00028387,-0.0035185,-0.0081007,-0.024921,0.4071,0.34548,0.39702,0.042204,-0.080869,-0.072759,0.019779,0.032237,1.0354,-0.94381,0.037999,-0.12627,0.1916,0.026314,0.47671,0.4371,0.16784,-0.42398,0.021437,-5.3784e-005
-0.0042875,-0.004338,-0.0033938,-0.01598,0.39268,0.2669,0.3741,0.044449,-0.085864,-0.056728,0.011144,0.026419,0.9116,-0.92717,0.085798,-0.091132,0.1907,0.031904,0.47923,0.42732,0.17,-0.4679,0.024783,-0.0013812
-0.005552,-0.0054219,0.0002708,-0.0030168,0.37762,0.20365,0.3568,0.054639,-0.095546,-0.042624,0.0049475,0.023025,0.7084,-0.84477,0.13335,-0.02199,0.18683,0.037928,0.4924,0.41913,0.16464,-0.48649,0.020787,-0.0030999
-0.0040764,-0.0075651,0.001842,0.008223,0.36046,0.1636,0.3476,0.073004,-0.10771,-0.026336,0.0018559,0.025764,0.47413,-0.69226,0.18274,0.095863,0.17601,0.043624,0.5189,0.41571,0.1506,-0.46733,0.013853,-0.0051073
-0.0027367,-0.011119,0.001192,0.015447,0.33381,0.1428,0.34785,0.092383,-0.12031,-0.0064262,0.0009342,0.035931,0.26052,-0.48231,0.23814,0.26078,0.15672,0.048246,0.55305,0.41449,0.13143,-0.4069,0.010297,-0.0063209
-0.0041351,-0.015071,-0.0014624,0.020652,0.29103,0.12902,0.35591,0.10297,-0.13186,0.014578,0.0014311,0.050541,0.093176,-0.24069,0.29671,0.45371,0.13201,0.050693,0.58641,0.40913,0.11335,-0.31319,0.013814,-0.0054939
-0.0079303,-0.017071,-0.0058584,0.027186,0.23164,0.10994,0.36771,0.097667,-0.14157,0.032226,0.0036039,0.063633,-0.037308,0.0013745,0.34481,0.64696,0.10784,0.049627,0.6138,0.39441,0.10056,-0.202,0.022883,-0.0023354
-0.01117,-0.014938,-0.011357,0.036004,0.16146,0.07932,0.37985,0.074383,-0.14961,0.043589,0.0078951,0.07003,-0.15897,0.20964,0.364,0.81574,0.089033,0.044184,0.63515,0.37007,0.091955,-0.089687,0.032223,0.0020174
-0.011241,-0.0086722,-0.016537,0.044562,0.088101,0.037015,0.39259,0.035191,-0.15685,0.049137,0.013594,0.068604,-0.2917,0.34671,0.34283,0.94375,0.076463,0.034824,0.65294,0.34084,0.082554,0.012629,0.036948,0.0056441
-0.0084673,-0.0011564,-0.019478,0.049159,0.016257,-0.015745,0.40884,-0.015448,-0.16428,0.051604,0.018627,0.062466,-0.43097,0.37925,0.28511,1.0206,0.068067,0.023659,0.6688,0.31296,0.068328,0.099964,0.035814,0.0071558
-0.0056519,0.0035133,-0.018815,0.048405,-0.053373,-0.080503,0.42855,-0.071395,-0.17218,0.053089,0.020876,0.056087,-0.55278,0.29538,0.2082,1.0366,0.062507,0.013891,0.68274,0.29072,0.050124,0.17018,0.031014,0.0066525
-0.0048033,0.003065,-0.014813,0.044574,-0.12158,-0.16145,0.44311,-0.12496,-0.17989,0.053212,0.019745,0.051951,-0.63321,0.12005,0.13281,0.98255,0.061891,0.0086162,0.69481,0.27532,0.033162,0.22046,0.025336,0.0055546
-0.0041918,-0.0010255,-0.0096197,0.041732,-0.18808,-0.26186,0.43614,-0.16829,-0.1862,0.050009,0.016412,0.049507,-0.66596,-0.089792,0.072288,0.85684,0.070781,0.0095849,0.70637,0.26618,0.022596,0.24698,0.01976,0.005431
0.0010847,-0.0045411,-0.0063988,0.042488,-0.25166,-0.38095,0.39275,-0.19649,-0.19013,0.042656,0.012538,0.046879,-0.66524,-0.27468,0.029099,0.67381,0.092263,0.016482,0.7192,0.26259,0.019167,0.24798,0.013725,0.0067353
0.014967,-0.0038466,-0.0077804,0.046289,-0.31212,-0.5138,0.31176,-0.21029,-0.19133,0.033274,0.008828,0.043336,-0.65444,-0.40845,-0.00073132,0.46427,0.1246,0.027016,0.73328,0.26382,0.018707,0.22708,0.0072123,0.0084204
0.036178,0.0011687,-0.014389,0.050539,-0.37065,-0.65336,0.21096,-0.21535,-0.18973,0.025896,0.0049726,0.040089,-0.6515,-0.51222,-0.02081,0.26532,0.16144,0.037771,0.74631,0.26817,0.015659,0.19352,0.001962,0.0086761
0.057876,0.0070018,-0.024194,0.053164,-0.42682,-0.7921,0.11959,-0.21768,-0.18486,0.0233,0.00098538,0.038896,-0.66198,-0.63345,-0.031649,0.10576,0.1954,0.045558,0.7559,0.27263,0.0072572,0.15872,0.0002553,0.0061506
0.072123,0.0093597,-0.033215,0.054128,-0.47542,-0.9224,0.062087,-0.21871,-0.1757,0.024501,-0.0016611,0.040088,-0.6824,-0.80515,-0.033196,-0.0027106,0.22209,0.048715,0.76245,0.27414,-0.0052485,0.13162,0.0025528,0.00069138
0.075828,0.0064812,-0.037633,0.054689,-0.50761,-1.0372,0.04447,-0.21443,-0.16144,0.025298,-0.00071044,0.04204,-0.70805,-1.0174,-0.028196,-0.063322,0.24143,0.047735,0.76957,0.27142,-0.018914,0.11592,0.0066557,-0.0068736
0.073203,0.00021783,-0.036394,0.055467,-0.51753,-1.1326,0.053175,-0.19977,-0.14258,0.021632,0.0045963,0.042532,-0.7373,-1.2224,-0.021432,-0.08566,0.25597,0.04478,0.78101,0.26573,-0.032309,0.11048,0.0094893,-0.015565
0.072458,-0.0058202,-0.032544,0.055422,-0.50927,-1.2109,0.066173,-0.17455,-0.12112,0.013035,0.011722,0.04064,-0.76945,-1.3674,-0.014972,-0.079826,0.26786,0.042343,0.79689,0.2597,-0.046452,0.11164,0.0097786,-0.024902
0.0792,-0.0092328,-0.03175,0.052796,-0.49688,-1.2803,0.067086,-0.14526,-0.099594,0.0032026,0.015622,0.037412,-0.79928,-1.4263,-0.0046684,-0.057653,0.27709,0.041937,0.81262,0.25562,-0.062834,0.11523,0.0088591,-0.0349
0.091883,-0.010331,-0.038318,0.047121,-0.4955,-1.3494,0.051943,-0.12067,-0.079492,-0.0029192,0.012099,0.034869,-0.81369,-1.4086,0.01713,-0.036322,0.2818,0.043734,0.82209,0.25472,-0.080809,0.11753,0.0087752,-0.045648
0.10302,-0.011111,-0.051396,0.040362,-0.51004,-1.4205,0.025705,-0.10499,-0.060739,-0.0032436,0.0012124,0.034352,-0.79324,-1.3419,0.053842,-0.036003,0.27975,0.047215,0.82213,0.25799,-0.097136,0.11581,0.0096665,-0.057088
0.10511,-0.012924,-0.064658,0.036035,-0.53112,-1.4867,-0.0057649,-0.095024,-0.042615,-0.00041026,-0.012225,0.03564,-0.71803,-1.249,0.099007,-0.069193,0.26954,0.05203,0.81453,0.26688,-0.10819,0.10916,0.0092251,-0.069326
0.096368,-0.015093,-0.070499,0.036856,-0.54242,-1.5364,-0.040521,-0.083993,-0.025103,0.0002468,-0.021857,0.037351,-0.5754,-1.1398,0.13917,-0.12951,0.25097,0.058079,0.80384,0.28248,-0.11276,0.099289,0.0049031,-0.083099
0.081731,-0.01567,-0.065922,0.042631,-0.53366,-1.5626,-0.079459,-0.068535,-0.0091351,-0.0049458,-0.0244,0.037987,-0.3668,-1.0236,0.16416,-0.19159,0.22473,0.064754,0.79308,0.30355,-0.11283,0.090236,-0.0032861,-0.09966
0.068554,-0.013555,-0.055388,0.049894,-0.50839,-1.5684,-0.12284,-0.051874,0.0045505,-0.014964,-0.022039,0.036666,-0.11126,-0.92583,0.17596,-0.22614,0.19224,0.070327,0.78139,0.32567,-0.11182,0.086834,-0.012211,-0.11973
0.060919,-0.0099699,-0.04791,0.053542,-0.48045,-1.5645,-0.16902,-0.039996,0.016562,-0.025012,-0.020707,0.033154,0.1571,-0.89217,0.18737,-0.22136,0.15549,0.072506,0.76553,0.34308,-0.11219,0.092756,-0.017999,-0.14206
0.057195,-0.0078859,-0.050382,0.049425,-0.46281,-1.561,-0.21602,-0.034515,0.028455,-0.030676,-0.02569,0.027502,0.39846,-0.97038,0.21019,-0.19442,0.11667,0.070058,0.74379,0.35231,-0.11437,0.10944,-0.019217,-0.16274
0.052458,-0.0097795,-0.062431,0.03642,-0.45918,-1.561,-0.26283,-0.029604,0.040913,-0.031699,-0.03801,0.019734,0.58039,-1.1803,0.24274,-0.18297,0.07749,0.064104,0.71868,0.3546,-0.11772,0.13601,-0.017924,-0.17605
0.043231,-0.015553,-0.076909,0.016928,-0.46483,-1.5605,-0.30821,-0.016715,0.052389,-0.03197,-0.054163,0.0097328,0.68748,-1.4931,0.26792,-0.22097,0.038662,0.057691,0.69607,0.35473,-0.12173,0.16932,-0.017634,-0.17671
0.030366,-0.022359,-0.08545,-0.0042765,-0.47443,-1.5528,-0.34879,0.0068887,0.059911,-0.035686,-0.068824,-0.002727,0.72118,-1.8353,0.26467,-0.31561,0.00056944,0.053658,0.68151,0.35719,-0.12632,0.20374,-0.020004,-0.16225
0.017964,-0.026529,-0.084438,-0.022103,-0.48833,-1.5319,-0.38005,0.034014,0.061591,-0.043135,-0.078021,-0.017703,0.69063,-2.1198,0.22415,-0.44135,-0.035207,0.05248,0.67677,0.36308,-0.13099,0.23168,-0.023144,-0.13412
0.0098094,-0.026113,-0.076744,-0.033072,-0.51086,-1.4919,-0.4009,0.05245,0.05853,-0.050042,-0.080588,-0.034427,0.60321,-2.2846,0.15765,-0.55481,-0.064802,0.051943,0.6792,0.37049,-0.13446,0.2459,-0.023021,-0.09704
0.0067238,-0.022032,-0.068507,-0.036282,-0.54261,-1.4249,-0.41759,0.055062,0.05421,-0.051241,-0.077764,-0.050539,0.4642,-2.3166,0.089902,-0.61976,-0.083057,0.04904,0.68395,0.37827,-0.13553,0.24324,-0.016826,-0.057249
0.0069465,-0.017026,-0.064218,-0.033199,-0.57469,-1.3241,-0.44212,0.04601,0.05184,-0.045487,-0.072204,-0.062038,0.28662,-2.2484,0.043472,-0.62545,-0.086643,0.042525,0.68698,0.38939,-0.13445,0.22691,-0.0055997,-0.020889
0.0086536,-0.013358,-0.064111,-0.026613,-0.59141,-1.1908,-0.48463,0.037145,0.05209,-0.037064,-0.067177,-0.064644,0.10061,-2.1302,0.026363,-0.58785,-0.077267,0.034013,0.6865,0.41044,-0.13293,0.20489,0.005927,0.0068808
0.011818,-0.011207,-0.065211,-0.019433,-0.58024,-1.0409,-0.54562,0.037588,0.053151,-0.032658,-0.065572,-0.05618,-0.050236,-2.0009,0.031157,-0.53577,-0.062126,0.026782,0.68199,0.44691,-0.13239,0.18481,0.012211,0.022386
0.017493,-0.00907,-0.064205,-0.013946,-0.54155,-0.90201,-0.61452,0.045765,0.052735,-0.036131,-0.068273,-0.038458,-0.12837,-1.8739,0.044201,-0.49295,-0.050556,0.023396,0.67233,0.49728,-0.13195,0.16899,0.010402,0.024264
0.025283,-0.005723,-0.059516,-0.011785,-0.4903,-0.80047,-0.676,0.051071,0.049862,-0.045643,-0.072881,-0.017082,-0.12486,-1.7456,0.056052,-0.467,-0.048792,0.024072,0.65499,0.55069,-0.12828,0.15395,0.0020128,0.014545
0.031754,-0.0019839,-0.051529,-0.014358,-0.44788,-0.74778,-0.71904,0.043648,0.044888,-0.055405,-0.074621,0.0010012,-0.066507,-1.6123,0.065259,-0.4494,-0.056504,0.026921,0.62727,0.59063,-0.11809,0.13475,-0.0083517,-0.0012429
0.031863,-0.00058997,-0.041816,-0.023194,-0.42943,-0.73613,-0.74152,0.023534,0.03829,-0.060307,-0.069808,0.010725,0.00066938,-1.4792,0.074417,-0.42372,-0.067566,0.029521,0.58846,0.60295,-0.10108,0.11036,-0.016148,-0.016107
0.022789,-0.0040729,-0.032533,-0.039655,-0.43454,-0.74667,-0.74779,0.0012,0.030008,-0.05943,-0.059479,0.010902,0.040507,-1.353,0.083645,-0.37628,-0.074387,0.030406,0.54092,0.58337,-0.080821,0.085118,-0.019593,-0.025275
0.0070323,-0.012272,-0.026074,-0.063909,-0.44662,-0.76239,-0.74223,-0.01071,0.02025,-0.055747,-0.049622,0.0040684,0.04685,-1.2251,0.087549,-0.30411,-0.072653,0.029442,0.48893,0.53969,-0.062368,0.06495,-0.020003,-0.028948
-0.0082013,-0.02166,-0.024398,-0.093678,-0.44082,-0.77431,-0.72468,-0.0069218,0.010677,-0.052872,-0.046889,-0.0051782,0.040301,-1.065,0.077836,-0.21731,-0.063411,0.027202,0.4359,0.487,-0.04881,0.051652,-0.019702,-0.031331
-0.015471,-0.027362,-0.027903,-0.12374,-0.39575,-0.77673,-0.69081,0.0078649,0.0041679,-0.052086,-0.052923,-0.012021,0.04653,-0.83388,0.049132,-0.13442,-0.051738,0.024185,0.38241,0.43922,-0.039645,0.040547,-0.019295,-0.035725
-0.012246,-0.026549,-0.034776,-0.14704,-0.3029,-0.7582,-0.63588,0.025006,0.0027847,-0.05216,-0.062217,-0.012677,0.075272,-0.51586,0.0035892,-0.072376,-0.043484,0.020586,0.32676,0.40235,-0.032197,0.023781,-0.016499,-0.039148
-0.0026406,-0.02055,-0.041772,-0.15748,-0.16971,-0.69894,-0.55835,0.040569,0.0057218,-0.051558,-0.065819,-0.0051893,0.11609,-0.14456,-0.048896,-0.036125,-0.042307,0.016621,0.26765,0.37362,-0.024424,-0.0034414,-0.0074929,-0.03137
0.0058022,-0.013897,-0.046157,-0.15318,-0.015241,-0.57913,-0.46062,0.058583,0.0094653,-0.050407,-0.058049,0.0099112,0.15073,0.19655,-0.09514,-0.01497,-0.048322,0.012882,0.20667,0.34641,-0.016366,-0.038971,0.010206,-0.00048231
0.0078179,-0.010992,-0.04733,-0.13832,0.13903,-0.39201,-0.34702,0.086101,0.010503,-0.050121,-0.040762,0.029282,0.16798,0.4095,-0.12531,0.010553,-0.058476,0.010243,0.1483,0.31651,-0.0091812,-0.075433,0.035481,0.058199
0.0040388,-0.013127,-0.046745,-0.12184,0.27845,-0.15112,-0.22122,0.12485,0.0083803,-0.051209,-0.02181,0.047465,0.16787,0.43621,-0.13778,0.054981,-0.068123,0.009293,0.097088,0.28485,-0.0032364,-0.10605,0.06363,0.13654
-0.00031042,-0.018222,-0.046263,-0.11306,0.39946,0.11372,-0.084808,0.16743,0.0062655,-0.051798,-0.0093118,0.058865,0.15481,0.29819,-0.13874,0.11742,-0.073155,0.0097962,0.054607,0.25522,0.0024489,-0.12978,0.088685,0.21619
-0.00032445,-0.023186,-0.046401,-0.11658,0.50669,0.36827,0.062268,0.20184,0.0082837,-0.048779,-0.0065443,0.060198,0.13023,0.091776,-0.13634,0.18267,-0.071904,0.010705,0.01846,0.22973,0.008812,-0.15188,0.10641,0.27815
0.0043784,-0.026476,-0.045949,-0.1293,0.6046,0.58542,0.2202,0.22079,0.015782,-0.040801,-0.011047,0.051921,0.093089,-0.062817,-0.13292,0.23335,-0.065901,0.010851,-0.015669,0.20619,0.015093,-0.17999,0.11595,0.31277
0.0097111,-0.028552,-0.043039,-0.14188,0.68963,0.75149,0.38787,0.22755,0.025788,-0.030226,-0.017658,0.03759,0.046241,-0.08781,-0.12164,0.26294,-0.058919,0.0098318,-0.050871,0.1796,0.019,-0.21951,0.11922,0.32327
0.011164,-0.030218,-0.036573,-0.14385,0.74892,0.86798,0.56234,0.23295,0.033096,-0.02188,-0.022325,0.021505,-0.0012632,0.014565,-0.091361,0.27875,-0.054669,0.0083497,-0.087465,0.146,0.018826,-0.27157,0.11883,0.32097
0.0081301,-0.030964,-0.026872,-0.1294,0.76754,0.9511,0.73908,0.24582,0.034259,-0.019401,-0.023897,0.0061948,-0.040761,0.17757,-0.037856,0.29271,-0.054531,0.0076902,-0.12425,0.10547,0.015438,-0.3343,0.11634,0.3167
0.0047058,-0.029215,-0.015423,-0.10043,0.73978,1.0283,0.91209,0.26473,0.030141,-0.022326,-0.023463,-0.0085111,-0.073179,0.3242,0.027012,0.30854,-0.056884,0.0087319,-0.16123,0.062247,0.011975,-0.40418,0.11217,0.31468
0.0063945,-0.024166,-0.0043568,-0.065355,0.67612,1.1284,1.0734,0.27822,0.024972,-0.026516,-0.022676,-0.024236,-0.10963,0.41797,0.076376,0.31715,-0.05855,0.011308,-0.20121,0.022301,0.011399,-0.47522,0.1069,0.31225
0.015635,-0.017148,0.0039358,-0.034483,0.59988,1.2652,1.2127,0.27341,0.022838,-0.027506,-0.022461,-0.04162,-0.16015,0.47392,0.081468,0.30444,-0.057361,0.01441,-0.24848,-0.0092873,0.014306,-0.53644,0.10235,0.30378
0.029867,-0.010997,0.0073257,-0.015001,0.53475,1.4254,1.3194,0.24589,0.024686,-0.023775,-0.022522,-0.058663,-0.22057,0.5271,0.029134,0.26462,-0.053922,0.016981,-0.30542,-0.029926,0.019282,-0.57158,0.1011,0.28474
0.04346,-0.0079721,0.0049861,-0.0081081,0.49166,1.5709,1.3876,0.20284,0.028281,-0.01722,-0.021507,-0.071368,-0.2718,0.58978,-0.068098,0.20693,-0.051159,0.018562,-0.3696,-0.039953,0.025408,-0.56408,0.1047,0.25329
0.051616,-0.0081881,-0.0015303,-0.0095965,0.46439,1.6605,1.4225,0.15723,0.030939,-0.010852,-0.017795,-0.076647,-0.29557,0.63468,-0.17679,0.14928,-0.051902,0.019313,-0.43401,-0.042508,0.034189,-0.50582,0.11204,0.20993
0.053156,-0.0098301,-0.0084086,-0.013106,0.437,1.6785,1.4421,0.11847,0.032519,-0.006212,-0.010847,-0.075613,-0.29421,0.61686,-0.25944,0.10314,-0.056357,0.019587,-0.49064,-0.042833,0.048558,-0.40361,0.11955,0.15706
0.050445,-0.010666,-0.011556,-0.013927,0.39706,1.6469,1.4705,0.087226,0.036064,-0.002821,-0.0024853,-0.074742,-0.29603,0.51386,-0.29264,0.061882,-0.061642,0.019566,-0.53539,-0.046535,0.069574,-0.27781,0.12319,0.099338
0.04716,-0.0093942,-0.0093962,-0.011112,0.34484,1.6112,1.5245,0.057983,0.045547,0.00036037,0.0030866,-0.083504,-0.33843,0.34989,-0.27562,0.0028698,-0.063992,0.01926,-0.5706,-0.057018,0.093992,-0.15282,0.12073,0.043427
0.045846,-0.005939,-0.0041687,-0.0068347,0.29173,1.6049,1.6,0.025672,0.062557,0.0034869,0.0012146,-0.1093,-0.44004,0.18486,-0.22567,-0.096058,-0.061981,0.018661,-0.60331,-0.073555,0.11532,-0.045684,0.11272,-0.0042852
0.046722,-0.001016,-0.0002617,-0.0038456,0.25021,1.6235,1.6714,-0.010028,0.084511,0.0060256,-0.010119,-0.15249,-0.58394,0.07827,-0.16526,-0.23603,-0.058007,0.017718,-0.64037,-0.091808,0.12779,0.039313,0.10154,-0.041468
0.047961,0.0043137,-0.00059793,-0.0031256,0.22382,1.6271,1.7037,-0.046014,0.10576,0.0081159,-0.028116,-0.20457,-0.72681,0.055794,-0.10988,-0.38703,-0.056542,0.016149,-0.68382,-0.10696,0.12991,0.10709,0.089558,-0.072402
0.046896,0.0088468,-0.0040566,-0.0035264,0.20504,1.5724,1.6736,-0.080088,0.12073,0.011219,-0.045753,-0.25086,-0.82867,0.10151,-0.063181,-0.49742,-0.06045,0.013429,-0.72998,-0.11715,0.1248,0.16326,0.077983,-0.1066
0.041638,0.011503,-0.0062829,-0.0033943,0.18203,1.4479,1.5829,-0.11318,0.12698,0.017022,-0.05524,-0.2766,-0.88119,0.17637,-0.020362,-0.51986,-0.068491,0.0092117,-0.77263,-0.12414,0.11732,0.20824,0.06692,-0.15352
0.032592,0.01182,-0.0033782,-0.0024359,0.1478,1.2831,1.4557,-0.14727,0.12612,0.025653,-0.052431,-0.27361,-0.91334,0.24509,0.024278,-0.43884,-0.076263,0.0038877,-0.80789,-0.13022,0.1108,0.23835,0.056305,-0.21659
0.023092,0.010338,0.0046202,-0.0019634,0.10436,1.1246,1.3218,-0.18188,0.12233,0.035167,-0.039384,-0.244,-0.9702,0.29175,0.070758,-0.28202,-0.079747,-0.0013121,-0.83724,-0.13425,0.10584,0.25172,0.046581,-0.29056
0.018285,0.0084063,0.013469,-0.0032962,0.059051,1.0015,1.198,-0.21329,0.11956,0.043039,-0.02328,-0.1992,-1.0806,0.3177,0.11166,-0.10702,-0.078335,-0.0049877,-0.8668,-0.13126,0.1015,0.2525,0.038534,-0.36388
0.022276,0.0074068,0.017933,-0.0059611,0.01706,0.90826,1.0818,-0.23786,0.1193,0.048238,-0.012181,-0.15466,-1.237,0.33003,0.13582,0.029022,-0.074761,-0.0066305,-0.9034,-0.11753,0.097075,0.24929,0.032551,-0.4241
0.035093,0.0079362,0.015814,-0.0076059,-0.022786,0.81925,0.96082,-0.2556,0.12011,0.051835,-0.010233,-0.12288,-1.4012,0.33311,0.13496,0.097411,-0.072349,-0.007223,-0.95016,-0.097577,0.092839,0.24914,0.028058,-0.46279
0.051848,0.0095175,0.0095404,-0.0059141,-0.0656,0.71954,0.8279,-0.27008,0.11912,0.055604,-0.015438,-0.10848,-1.529,0.3287,0.10914,0.10542,-0.07233,-0.0087623,-1.0038,-0.086369,0.089508,0.25281,0.02375,-0.47749
0.065298,0.010968,0.004177,-0.00081332,-0.11392,0.62214,0.6898,-0.28419,0.11424,0.060082,-0.021462,-0.10785,-1.5961,0.32048,0.067196,0.080321,-0.073605,-0.012879,-1.0555,-0.10246,0.087482,0.25523,0.018489,-0.47095
0.070444,0.011125,0.0036495,0.0051535,-0.16331,0.5569,0.56213,-0.29601,0.1057,0.064049,-0.022224,-0.1129,-1.608,0.31562,0.021752,0.04411,-0.074631,-0.01947,-1.0951,-0.15531,0.086573,0.25043,0.012097,-0.44909
0.067814,0.009537,0.0081793,0.0088169,-0.2042,0.54164,0.45616,-0.29963,0.096028,0.065839,-0.01598,-0.11631,-1.5914,0.32102,-0.018,-0.0011468,-0.075104,-0.026386,-1.1165,-0.23589,0.086146,0.23604,0.0052927,-0.41887
0.062746,0.0068226,0.014695,0.0090834,-0.22845,0.56264,0.36882,-0.29095,0.088487,0.065115,-0.0060222,-0.11457,-1.5776,0.33781,-0.050228,-0.067165,-0.075721,-0.030628,-1.1227,-0.31865,0.08528,0.21352,-0.0012679,-0.38608
0.061051,0.0044621,0.019557,0.0079708,-0.23498,0.58219,0.284,-0.27377,0.085234,0.063386,0.0022784,-0.10787,-1.5897,0.36007,-0.078124,-0.16009,-0.076631,-0.030423,-1.1236,-0.37499,0.08297,0.18477,-0.0079699,-0.35325
0.064401,0.003944,0.021323,0.0090042,-0.22972,0.56628,0.18362,-0.26017,0.086281,0.06296,0.0056051,-0.097861,-1.6384,0.37897,-0.10335,-0.26578,-0.076669,-0.026802,-1.1295,-0.38928,0.078655,0.14937,-0.016173,-0.31888
0.069168,0.0056109,0.021592,0.014285,-0.22009,0.50842,0.059756,-0.26363,0.089945,0.065461,0.0047732,-0.085947,-1.7222,0.38875,-0.12115,-0.35239,-0.07442,-0.023357,-1.1412,-0.36642,0.072878,0.10544,-0.026911,-0.27916
0.069599,0.0080593,0.023572,0.02269,-0.20889,0.43036,-0.080601,-0.2895,0.09426,0.071251,0.0033769,-0.073249,-1.8265,0.38966,-0.12172,-0.38809,-0.069979,-0.024005,-1.1462,-0.32623,0.067312,0.053435,-0.03947,-0.23164
0.062659,0.0088698,0.029656,0.030659,-0.19287,0.36155,-0.22022,-0.32984,0.098205,0.079977,0.0044696,-0.061341,-1.9228,0.38661,-0.097211,-0.35938,-0.06531,-0.030105,-1.124,-0.28979,0.063661,-0.0012123,-0.051389,-0.17804
0.050541,0.0064821,0.039783,0.034847,-0.16688,0.31608,-0.34116,-0.36677,0.10181,0.091361,0.0081639,-0.052187,-1.9723,0.38581,-0.048456,-0.27703,-0.062575,-0.039054,-1.0602,-0.2677,0.062165,-0.049565,-0.060311,-0.12322
0.038911,0.0018195,0.051573,0.03441,-0.12972,0.28518,-0.43286,-0.38242,0.10523,0.10531,0.01199,-0.04679,-1.9373,0.39202,0.013974,-0.16771,-0.062024,-0.045696,-0.95833,-0.25697,0.061171,-0.084056,-0.066273,-0.071148
0.032567,-0.0019182,0.061896,0.031154,-0.086465,0.24747,-0.49524,-0.36897,0.10766,0.12122,0.013406,-0.043848,-1.7961,0.40658,0.074959,-0.060344,-0.061658,-0.045823,-0.8415,-0.24574,0.058474,-0.10292,-0.072257,-0.021767
0.032127,-0.00153,0.068578,0.027609,-0.045181,0.18504,-0.53694,-0.33225,0.10724,0.1373,0.012151,-0.040024,-1.553,0.42519,0.12158,0.022989,-0.059173,-0.039249,-0.74039,-0.22028,0.053297,-0.11087,-0.08217,0.026956
0.03416,0.0034965,0.071113,0.024767,-0.011431,0.091456,-0.57089,-0.28713,0.10201,0.15057,0.010529,-0.032024,-1.2362,0.4369,0.14639,0.069217,-0.054368,-0.030068,-0.67578,-0.16982,0.046914,-0.11584,-0.097784,0.072735
0.034159,0.010181,0.070207,0.021275,0.014263,-0.031099,-0.60905,-0.24798,0.091276,0.158,0.011582,-0.018899,-0.8871,0.4278,0.1464,0.074193,-0.049688,-0.023772,-0.64714,-0.08947,0.041109,-0.12445,-0.11741,0.10503
0.029634,0.014037,0.066966,0.014573,0.033817,-0.1781,-0.65774,-0.22083,0.076318,0.1579,0.016793,-0.0027198,-0.54668,0.39087,0.12143,0.044604,-0.048271,-0.023437,-0.63504,0.016922,0.035964,-0.13891,-0.13761,0.11002
0.021086,0.012386,0.062597,0.0029413,0.046963,-0.34409,-0.71552,-0.20175,0.059813,0.15076,0.025103,0.012804,-0.24711,0.33664,0.074973,-0.00019074,-0.051203,-0.027956,-0.61494,0.13422,0.029331,-0.15655,-0.15642,0.083443
0.010767,0.0063629,0.05865,-0.01306,0.049993,-0.51869,-0.77488,-0.18185,0.044362,0.13879,0.033734,0.024436,-0.0074258,0.29498,0.016482,-0.032447,-0.056352,-0.033546,-0.5724,0.23763,0.018772,-0.17125,-0.17491,0.040937
0.00080848,-4.1358e-005,0.057039,-0.030572,0.039849,-0.68412,-0.82754,-0.15456,0.030951,0.12447,0.039901,0.03056,0.16795,0.3025,-0.039151,-0.028528,-0.059807,-0.037052,-0.50945,0.30114,0.0041984,-0.17596,-0.19542,0.013954
-0.0077192,-0.0030748,0.059247,-0.045577,0.019552,-0.82014,-0.8699,-0.12008,0.018342,0.109,0.042104,0.030938,0.28831,0.38128,-0.077588,0.016982,-0.058715,-0.038169,-0.43926,0.3099,-0.011404,-0.16581,-0.21796,0.029627
-0.014563,-0.0020033,0.065134,-0.054336,-0.0014762,-0.91461,-0.90479,-0.084415,0.0038644,0.091945,0.040367,0.026065,0.37118,0.52329,-0.093242,0.086726,-0.053307,-0.038959,-0.37424,0.26859,-0.023936,-0.1409,-0.23833,0.087796
-0.019649,0.00056034,0.072585,-0.054417,-0.014277,-0.97125,-0.93784,-0.054736,-0.014699,0.072333,0.03575,0.017313,0.43261,0.69234,-0.092876,0.15138,-0.046653,-0.041563,-0.31686,0.19905,-0.03099,-0.10754,-0.24996,0.15449
-0.022863,0.00091144,0.078679,-0.04511,-0.018975,-1.0074,-0.97152,-0.035066,-0.037204,0.050423,0.029797,0.0077378,0.47889,0.84273,-0.090435,0.18973,-0.042443,-0.046431,-0.25939,0.12803,-0.03292,-0.076346,-0.24802,0.18077
-0.024358,-0.0026999,0.081703,-0.02742,-0.02649,-1.0422,-1.002,-0.025018,-0.060453,0.028561,0.024259,0.0021711,0.5072,0.94148,-0.096172,0.20357,-0.042455,-0.052463,-0.19178,0.073867,-0.031458,-0.057423,-0.23216,0.1357
-0.024946,-0.0085028,0.082275,-0.0038431,-0.049901,-1.0837,-1.0217,-0.021317,-0.079346,0.010235,0.020911,0.0054236,0.51606,0.97933,-0.1085,0.21584,-0.045483,-0.058321,-0.11153,0.040902,-0.027571,-0.055096,-0.20583,0.029028
-0.026064,-0.012255,0.082456,0.02197,-0.091627,-1.1231,-1.0257,-0.019948,-0.089255,-0.0021997,0.02117,0.019228,0.51668,0.9655,-0.11523,0.25288,-0.048358,-0.063225,-0.028621,0.024041,-0.020806,-0.065578,-0.1732,-0.094479
-0.029243,-0.010217,0.083509,0.045737,-0.13764,-1.139,-1.0169,-0.017546,-0.088134,-0.0094442,0.025496,0.04022,0.53324,0.91279,-0.10328,0.32398,-0.048269,-0.066565,0.037131,0.016842,-0.010541,-0.079308,-0.13707,-0.18536
-0.035361,-0.002023,0.084336,0.063371,-0.16492,-1.1097,-1.0044,-0.012433,-0.07703,-0.015229,0.032909,0.061034,0.58813,0.82409,-0.068963,0.41372,-0.044696,-0.067411,0.063924,0.014918,0.0024515,-0.086481,-0.099372,-0.22114
-0.044176,0.0086059,0.082187,0.072144,-0.15713,-1.024,-0.99815,-0.0059694,-0.05891,-0.024141,0.041069,0.074329,0.68222,0.68766,-0.0209,0.49251,-0.039663,-0.065184,0.035886,0.012391,0.016004,-0.082113,-0.063065,-0.21577
-0.054536,0.016029,0.075246,0.071816,-0.11589,-0.88722,-1.0014,-0.0032327,-0.036922,-0.038675,0.04709,0.077059,0.78686,0.4823,0.026128,0.53693,-0.03627,-0.061139,-0.052538,-0.0026981,0.028154,-0.067658,-0.032555,-0.20198
-0.065301,0.016436,0.06485,0.065035,-0.058358,-0.7203,-1.0075,-0.01095,-0.013412,-0.057506,0.048843,0.071861,0.85657,0.19041,0.060643,0.54419,-0.036738,-0.058751,-0.19615,-0.046245,0.038658,-0.04894,-0.011728,-0.20347
-0.076465,0.010498,0.055167,0.056295,-0.0031923,-0.55101,-1.003,-0.032361,0.009947,-0.076181,0.046017,0.064587,0.85507,-0.18416,0.079558,0.52996,-0.041352,-0.061686,-0.38074,-0.12789,0.048749,-0.032582,-0.0014301,-0.22014
-0.089604,0.0027601,0.050242,0.049539,0.043382,-0.40237,-0.97307,-0.062283,0.031673,-0.089829,0.040186,0.060043,0.77621,-0.60048,0.085701,0.51268,-0.048828,-0.070575,-0.58529,-0.24051,0.059295,-0.023324,0.0010276,-0.23592
-0.10704,-0.0019982,0.05068,0.045678,0.090357,-0.28264,-0.90796,-0.087165,0.050548,-0.096174,0.033648,0.059254,0.64476,-0.97844,0.081133,0.49708,-0.057421,-0.081681,-0.78476,-0.35969,0.069222,-0.022887,-0.00016053,-0.23859
-0.13005,-0.0026343,0.052784,0.041849,0.1521,-0.18335,-0.80513,-0.091791,0.066287,-0.096937,0.027763,0.060089,0.49735,-1.2204,0.062612,0.46992,-0.06572,-0.08938,-0.9538,-0.45671,0.075908,-0.029583,-0.0017684,-0.23249
-0.15723,-0.0024666,0.051056,0.0334,0.2347,-0.087574,-0.66805,-0.068545,0.079887,-0.096732,0.022088,0.060112,0.3589,-1.2528,0.022982,0.41025,-0.072774,-0.090858,-1.0716,-0.51709,0.077443,-0.038104,-0.0022121,-0.23384
-0.18449,-0.006204,0.042167,0.017519,0.32949,0.015961,-0.50341,-0.022246,0.092824,-0.10014,0.015145,0.058822,0.2321,-1.0639,-0.042814,0.30571,-0.077984,-0.088895,-1.1265,-0.55157,0.074784,-0.0404,-0.00045075,-0.25544
-0.20676,-0.015541,0.027264,-0.004114,0.41818,0.12298,-0.3198,0.033376,0.10536,-0.10897,0.0063347,0.057299,0.10685,-0.71029,-0.13167,0.16289,-0.081359,-0.089875,-1.1194,-0.5911,0.071797,-0.029015,0.0048208,-0.29588
-0.2206,-0.027292,0.010887,-0.025913,0.48448,0.21569,-0.12837,0.084639,0.11536,-0.12149,-0.0026928,0.055975,-0.019358,-0.28067,-0.23036,0.005644,-0.083958,-0.098417,-1.0645,-0.66903,0.072873,-0.0023367,0.014198,-0.34261
-0.22573,-0.03575,-0.0024015,-0.042033,0.52308,0.2757,0.056319,0.12505,0.11892,-0.13414,-0.0086779,0.05308,-0.12711,0.15903,-0.31892,-0.13584,-0.087747,-0.11329,-0.98612,-0.80228,0.079949,0.031744,0.025849,-0.38396
-0.22452,-0.037194,-0.010842,-0.050396,0.5398,0.29758,0.21851,0.15547,0.1128,-0.14422,-0.0092545,0.045694,-0.17906,0.59652,-0.37793,-0.23733,-0.094439,-0.12836,-0.91274,-0.98263,0.091308,0.058094,0.035581,-0.41785
-0.22,-0.03256,-0.015718,-0.053924,0.5444,0.29264,0.34722,0.17865,0.097125,-0.15129,-0.0053525,0.032712,-0.14061,1.0551,-0.39636,-0.28806,-0.10398,-0.13763,-0.86669,-1.1811,0.1032,0.063501,0.039656,-0.44969
-0.21399,-0.026116,-0.019401,-0.058041,0.54254,0.28054,0.44218,0.19446,0.076029,-0.15613,-0.001267,0.016929,-0.0032248,1.5434,-0.37619,-0.29158,-0.11396,-0.13981,-0.8549,-1.36,0.11304,0.047818,0.038214,-0.48312
-0.20686,-0.021672,-0.023249,-0.066539,0.53296,0.27661,0.51414,0.20039,0.055596,-0.15844,-0.0019028,0.0038814,0.20579,2.0208,-0.33093,-0.26189,-0.12077,-0.13811,-0.86561,-1.4852,0.12158,0.028681,0.035795,-0.51404
-0.19867,-0.019883,-0.027111,-0.079156,0.51133,0.28516,0.57708,0.19652,0.040126,-0.15584,-0.0091512,-0.0021104,0.43397,2.4116,-0.27827,-0.2176,-0.1215,-0.13592,-0.8756,-1.5342,0.13231,0.034201,0.037793,-0.53415
-0.19027,-0.018792,-0.030337,-0.092615,0.47654,0.30222,0.63679,0.18887,0.029508,-0.14529,-0.020354,-0.0015594,0.62763,2.6587,-0.23102,-0.17675,-0.11539,-0.13272,-0.86533,-1.5008,0.14823,0.086265,0.045557,-0.53992
-0.18314,-0.016495,-0.032929,-0.10387,0.43403,0.32248,0.68477,0.18655,0.019814,-0.12599,-0.0303,0.00017802,0.75386,2.7634,-0.19251,-0.15375,-0.10357,-0.12442,-0.8323,-1.3953,0.16856,0.18482,0.05456,-0.53762
-0.1778,-0.012971,-0.035678,-0.1126,0.39326,0.34273,0.70351,0.19429,0.0069302,-0.10042,-0.035279,-0.003059,0.80813,2.7745,-0.15946,-0.15849,-0.087962,-0.10796,-0.79193,-1.2427,0.18782,0.30424,0.057595,-0.53857
-0.17268,-0.0094701,-0.039373,-0.12089,0.36148,0.35955,0.68047,0.20694,-0.0094849,-0.072167,-0.035885,-0.013156,0.80614,2.7318,-0.12899,-0.19543,-0.070489,-0.085402,-0.76389,-1.0745,0.19841,0.4052,0.05053,-0.54856
-0.1647,-0.0065144,-0.044037,-0.13058,0.33915,0.36625,0.61998,0.21177,-0.02493,-0.042096,-0.036224,-0.025753,0.76899,2.6189,-0.10264,-0.26079,-0.053302,-0.063602,-0.75388,-0.91827,0.19515,0.45494,0.035818,-0.56132
-0.15153,-0.0029629,-0.048876,-0.14068,0.3208,0.35505,0.5434,0.19779,-0.032943,-0.0068493,-0.040227,-0.033247,0.71228,2.3724,-0.082968,-0.33905,-0.039207,-0.049416,-0.74651,-0.78832,0.17868,0.44304,0.020915,-0.56254
-0.13366,0.0027819,-0.052801,-0.1468,0.30091,0.32438,0.47675,0.16449,-0.02976,0.037967,-0.04825,-0.030658,0.64317,1.945,-0.066574,-0.40378,-0.03108,-0.044709,-0.71677,-0.68455,0.15536,0.38352,0.013064,-0.54127
-0.1145,0.010702,-0.0549,-0.14305,0.27969,0.28439,0.43546,0.12247,-0.016969,0.09204,-0.056874,-0.019867,0.56224,1.3659,-0.04227,-0.42698,-0.030139,-0.045523,-0.65198,-0.59877,0.1336,0.30338,0.014735,-0.49892
-0.098458,0.018445,-0.054523,-0.12515,0.26398,0.25387,0.41794,0.08505,2.2484e-005,0.14724,-0.061927,-0.0088778,0.46523,0.74404,0.0010332,-0.39427,-0.034496,-0.045814,-0.56593,-0.52468,0.1191,0.2266,0.022986,-0.44768
-0.088412,0.022818,-0.051254,-0.092945,0.26226,0.24872,0.41208,0.057929,0.016308,0.19084,-0.061976,-0.0065679,0.34446,0.20369,0.062128,-0.31504,-0.039672,-0.042144,-0.49196,-0.46395,0.11229,0.16365,0.032471,-0.39978
-0.084446,0.022234,-0.045164,-0.051389,0.27809,0.27062,0.40783,0.035634,0.030819,0.21333,-0.059278,-0.016807,0.19297,-0.19698,0.12274,-0.21713,-0.041203,-0.035358,-0.45895,-0.4242,0.10962,0.11139,0.039055,-0.35658
-0.08424,0.017978,-0.037304,-0.0093909,0.30753,0.30555,0.40437,0.0074409,0.045893,0.21461,-0.057676,-0.036228,0.012235,-0.49829,0.15689,-0.12685,-0.037492,-0.02846,-0.46911,-0.41121,0.10728,0.060332,0.041323,-0.30677
-0.084246,0.013262,-0.029855,0.023173,0.34257,0.33485,0.40644,-0.033058,0.063771,0.2033,-0.059624,-0.057046,-0.18185,-0.79623,0.14862,-0.048808,-0.030625,-0.023368,-0.49562,-0.42182,0.10431,0.0028428,0.039687,-0.23497
-0.080742,0.010878,-0.025388,0.039383,0.37723,0.35137,0.41481,-0.083501,0.083507,0.18937,-0.064977,-0.07256,-0.36164,-1.1574,0.10351,0.036781,-0.024463,-0.01967,-0.50249,-0.44316,0.10265,-0.063116,0.034852,-0.134
-0.070627,0.011288,-0.025386,0.038436,0.41052,0.36852,0.42096,-0.13687,0.1012,0.17647,-0.072113,-0.081233,-0.50001,-1.5566,0.044561,0.15502,-0.021662,-0.016073,-0.47084,-0.45882,0.10451,-0.13501,0.027301,-0.011175
-0.052322,0.012503,-0.029019,0.026177,0.44366,0.41504,0.41213,-0.18917,0.11326,0.16031,-0.079702,-0.086665,-0.58327,-1.8811,-0.0041196,0.31034,-0.022045,-0.012481,-0.41102,-0.45724,0.10943,-0.20848,0.017799,0.11503
-0.026575,0.011746,-0.033261,0.012245,0.47464,0.51796,0.38227,-0.24248,0.11958,0.13424,-0.087202,-0.094021,-0.6134,-1.9968,-0.031523,0.47582,-0.023407,-0.010395,-0.35194,-0.43643,0.11373,-0.27857,0.0077461,0.22449
0.0036927,0.0076576,-0.034586,0.0051203,0.49593,0.68493,0.33878,-0.30005,0.12372,0.096846,-0.093988,-0.10596,-0.59667,-1.8269,-0.041118,0.60827,-0.023609,-0.011329,-0.31717,-0.40228,0.11261,-0.33916,-0.0013758,0.30366
0.034934,0.0014807,-0.031254,0.0078879,0.49801,0.89684,0.29807,-0.3587,0.13002,0.054858,-0.098671,-0.12096,-0.52893,-1.3923,-0.041149,0.67726,-0.021955,-0.014991,-0.3078,-0.36284,0.10306,-0.3827,-0.0089655,0.34799
0.065028,-0.0036361,-0.024568,0.017199,0.47592,1.1149,0.2733,-0.40709,0.14036,0.019017,-0.099803,-0.13487,-0.39251,-0.79473,-0.03544,0.68455,-0.018944,-0.019114,-0.30469,-0.32341,0.085194,-0.40254,-0.015582,0.35945
0.094057,-0.0048005,-0.018181,0.025836,0.4329,1.2976,0.26451,-0.43302,0.153,-0.0033137,-0.097343,-0.14384,-0.1705,-0.16262,-0.023687,0.6586,-0.015292,-0.021065,-0.28665,-0.28577,0.061416,-0.39719,-0.022179,0.34329
0.12295,-0.0015128,-0.015931,0.027029,0.3781,1.4172,0.25955,-0.43395,0.16424,-0.012487,-0.093097,-0.14653,0.13207,0.40112,-0.0087657,0.63039,-0.011655,-0.019744,-0.24823,-0.25061,0.034405,-0.3732,-0.029025,0.30689
0.15112,0.0037774,-0.019705,0.017876,0.32082,1.4685,0.24462,-0.42101,0.17114,-0.014739,-0.089325,-0.14429,0.47809,0.84009,-0.00057416,0.61118,-0.0092864,-0.016188,-0.20227,-0.21937,0.0057882,-0.34352,-0.035283,0.25992
0.1755,0.0071556,-0.028665,0.00026862,0.26618,1.466,0.21502,-0.41204,0.17335,-0.016442,-0.086696,-0.13977,0.80929,1.1323,-0.0098332,0.58909,-0.010361,-0.012604,-0.16646,-0.19311,-0.023867,-0.32155,-0.039446,0.21342
0.19197,0.0057119,-0.040021,-0.020602,0.21484,1.4325,0.17698,-0.41895,0.17346,-0.019633,-0.083628,-0.13522,1.071,1.2654,-0.036784,0.54413,-0.016748,-0.010819,-0.14635,-0.16943,-0.054276,-0.31502,-0.040018,0.17673
0.19839,-0.00079514,-0.050589,-0.038933,0.16486,1.3862,0.13959,-0.43998,0.17611,-0.022148,-0.077717,-0.13134,1.2334,1.2243,-0.066634,0.4667,-0.027784,-0.011299,-0.12962,-0.1415,-0.084894,-0.32437,-0.03591,0.15401
0.19635,-0.010185,-0.058137,-0.050873,0.11269,1.3326,0.10468,-0.4627,0.18636,-0.021329,-0.067926,-0.12687,1.2958,1.003,-0.078151,0.36516,-0.039236,-0.013107,-0.096008,-0.10132,-0.11493,-0.34638,-0.026708,0.14328
0.19025,-0.019567,-0.061989,-0.055992,0.052946,1.2643,0.063831,-0.47444,0.20737,-0.017387,-0.055491,-0.11916,1.2776,0.63177,-0.059112,0.25939,-0.045153,-0.014498,-0.034153,-0.045619,-0.14354,-0.37886,-0.013151,0.13889
0.1844,-0.027002,-0.062862,-0.057109,-0.020381,1.1693,0.0054163,-0.47052,0.23798,-0.013417,-0.042941,-0.10552,1.2063,0.19647,-0.014898,0.16835,-0.041813,-0.013736,0.048648,0.020798,-0.16974,-0.42068,0.0024196,0.1359
0.18056,-0.031958,-0.062152,-0.058466,-0.10987,1.0412,-0.0745,-0.45411,0.27154,-0.012472,-0.032397,-0.085185,1.1117,-0.17019,0.037784,0.10158,-0.030705,-0.0099349,0.13095,0.087248,-0.19219,-0.46612,0.016491,0.13314
0.17777,-0.034653,-0.06096,-0.063031,-0.21026,0.88451,-0.16651,-0.42954,0.29773,-0.014704,-0.024783,-0.060602,1.0239,-0.32977,0.086599,0.058435,-0.017844,-0.0036497,0.19167,0.14364,-0.20931,-0.49883,0.026058,0.13312
0.17441,-0.035368,-0.059339,-0.070456,-0.3087,0.71365,-0.25206,-0.39682,0.30698,-0.01727,-0.020262,-0.036802,0.96549,-0.19343,0.13462,0.03255,-0.0096508,0.0032528,0.22328,0.18596,-0.22008,-0.49283,0.03056,0.13925
0.17046,-0.034458,-0.056272,-0.077191,-0.39118,0.5453,-0.31383,-0.35307,0.29524,-0.016951,-0.018869,-0.018735,0.93735,0.23805,0.1969,0.017636,-0.0085632,0.0086921,0.23488,0.21677,-0.22515,-0.42295,0.032292,0.15266
0.16811,-0.032708,-0.050516,-0.079001,-0.45069,0.39132,-0.34436,-0.29856,0.26568,-0.013048,-0.020315,-0.0081754,0.90992,0.87061,0.28586,0.012163,-0.011809,0.011864,0.24443,0.24117,-0.22733,-0.27876,0.034518,0.17094
0.17038,-0.031173,-0.04183,-0.07434,-0.48992,0.25626,-0.34722,-0.2404,0.2262,-0.0080142,-0.023296,-0.0026083,0.83407,1.5488,0.39832,0.021671,-0.014053,0.013899,0.26658,0.2624,-0.23107,-0.071873,0.038625,0.18968
0.17904,-0.030263,-0.031736,-0.066159,-0.51573,0.13965,-0.33187,-0.18888,0.18441,-0.0054085,-0.025461,0.0028394,0.67279,2.1046,0.51512,0.056826,-0.011506,0.016887,0.30382,0.28059,-0.24085,0.16876,0.042821,0.20557
0.19359,-0.029061,-0.023179,-0.060563,-0.53074,0.038834,-0.30734,-0.14915,0.14394,-0.0070975,-0.024622,0.011869,0.43356,2.4025,0.61273,0.12605,-0.0042273,0.021873,0.34556,0.29456,-0.25937,0.40985,0.043692,0.21882
0.21186,-0.025967,-0.019232,-0.062953,-0.53032,-0.05089,-0.27947,-0.11618,0.10421,-0.012063,-0.020255,0.024773,0.1742,2.3748,0.67651,0.22531,0.0046917,0.027564,0.37474,0.30358,-0.28618,0.62528,0.03941,0.2329
0.23133,-0.020509,-0.021562,-0.074227,-0.50836,-0.13791,-0.25138,-0.078426,0.063363,-0.017606,-0.013729,0.039242,-0.028136,2.0422,0.70493,0.33203,0.01172,0.031082,0.37819,0.30697,-0.31728,0.7987,0.031758,0.25179
0.24975,-0.014584,-0.02947,-0.089644,-0.46611,-0.23341,-0.22463,-0.027886,0.021344,-0.021639,-0.0068118,0.053224,-0.12523,1.516,0.70299,0.4096,0.01495,0.030324,0.35517,0.30271,-0.34591,0.91823,0.025198,0.27673
0.26459,-0.011531,-0.039974,-0.10105,-0.41524,-0.34586,-0.19873,0.032213,-0.019285,-0.023996,0.0001695,0.066987,-0.12751,0.96528,0.67228,0.42311,0.014483,0.025985,0.31928,0.2878,-0.36446,0.97083,0.023804,0.30523
0.27238,-0.013324,-0.048934,-0.10084,-0.37123,-0.47405,-0.17029,0.089045,-0.054968,-0.02584,0.0085785,0.082359,-0.092119,0.54671,0.60651,0.35757,0.011703,0.021405,0.29187,0.26151,-0.3671,0.94374,0.028684,0.33305
0.26956,-0.018334,-0.052827,-0.085166,-0.34295,-0.60536,-0.13406,0.13017,-0.083505,-0.028009,0.019598,0.099896,-0.080471,0.32557,0.49599,0.22708,0.0084927,0.020249,0.29032,0.22897,-0.35225,0.83355,0.037828,0.35765
0.25481,-0.022006,-0.050422,-0.054991,-0.3278,-0.72248,-0.086331,0.15349,-0.10513,-0.029992,0.031877,0.11686,-0.12084,0.23705,0.33631,0.068172,0.0067396,0.023874,0.31787,0.20128,-0.32374,0.65637,0.048086,0.38008
0.23118,-0.020337,-0.04342,-0.015221,-0.31646,-0.81444,-0.028355,0.16861,-0.1218,-0.030411,0.041142,0.12829,-0.20483,0.12459,0.13476,-0.078886,0.0077467,0.030486,0.36174,0.19098,-0.28985,0.45025,0.057262,0.40358
0.20539,-0.013233,-0.035471,0.026829,-0.30193,-0.88334,0.03334,0.18841,-0.13556,-0.028398,0.042697,0.13068,-0.31387,-0.15986,-0.089134,-0.18898,0.011522,0.036675,0.40093,0.20534,-0.26025,0.26538,0.064713,0.43018
0.18406,-0.004665,-0.029943,0.063186,-0.28401,-0.94158,0.090364,0.21794,-0.14744,-0.024516,0.035182,0.12514,-0.44423,-0.65761,-0.30765,-0.25972,0.016617,0.040006,0.41846,0.24231,-0.24196,0.14508,0.070521,0.45805
0.16934,0.00072969,-0.027823,0.087258,-0.26594,-1.0024,0.13708,0.24964,-0.15726,-0.020408,0.022504,0.1171,-0.60285,-1.2755,-0.49055,-0.30438,0.021106,0.040604,0.4105,0.29156,-0.2364,0.10709,0.074572,0.48198
0.1577,0.0015969,-0.027296,0.096007,-0.24825,-1.0719,0.17274,0.26885,-0.16425,-0.017626,0.011975,0.11249,-0.77861,-1.8475,-0.61115,-0.3367,0.024222,0.040677,0.38689,0.33965,-0.23898,0.13564,0.076642,0.49608
0.14323,0.00078122,-0.025441,0.09111,-0.22775,-1.1489,0.19946,0.26471,-0.1677,-0.016723,0.0096203,0.11333,-0.92266,-2.2399,-0.65317,-0.35875,0.027201,0.042636,0.36424,0.37562,-0.24173,0.19002,0.077231,0.49641
0.12292,0.0023585,-0.02084,0.077821,-0.20318,-1.2297,0.21773,0.23787,-0.16759,-0.01727,0.015993,0.1165,-0.96739,-2.4236,-0.61707,-0.3605,0.032404,0.047417,0.35678,0.39396,-0.23759,0.22636,0.077975,0.48135
0.099407,0.0075645,-0.015029,0.06171,-0.18103,-1.3121,0.22346,0.19943,-0.16479,-0.018495,0.025758,0.1169,-0.87694,-2.4679,-0.52258,-0.3305,0.041359,0.054182,0.37067,0.39436,-0.22377,0.22124,0.080782,0.45036
0.078657,0.01345,-0.01154,0.045427,-0.1734,-1.3933,0.20969,0.16312,-0.16093,-0.019783,0.031569,0.11226,-0.68698,-2.4698,-0.40334,-0.26937,0.053464,0.061254,0.40375,0.37926,-0.20218,0.18397,0.086075,0.40339
0.064767,0.015545,-0.013179,0.027933,-0.18752,-1.4654,0.17265,0.13732,-0.15777,-0.020642,0.029398,0.10552,-0.49289,-2.4774,-0.29402,-0.19511,0.066483,0.067263,0.44932,0.35136,-0.17664,0.15017,0.091604,0.34243
0.056454,0.012065,-0.019663,0.006644,-0.21592,-1.5144,0.1179,0.12278,-0.15614,-0.020456,0.021274,0.10238,-0.38649,-2.4639,-0.21614,-0.13501,0.07822,0.071643,0.50076,0.3121,-0.14922,0.1603,0.093205,0.27415
0.048402,0.0057261,-0.027537,-0.019658,-0.23765,-1.5277,0.060757,0.1159,-0.15509,-0.018595,0.013309,0.10621,-0.38785,-2.361,-0.17099,-0.10951,0.087749,0.074503,0.55405,0.26188,-0.1188,0.23579,0.087478,0.21026
0.036069,0.0014612,-0.032497,-0.049914,-0.23201,-1.504,0.01886,0.11346,-0.15204,-0.01501,0.010681,0.11477,-0.42822,-2.1173,-0.14451,-0.12007,0.095239,0.076443,0.60749,0.20138,-0.083096,0.36649,0.074682,0.16355
0.019499,0.0020855,-0.032334,-0.082421,-0.19482,-1.4578,0.00046845,0.11461,-0.1442,-0.010777,0.013655,0.12191,-0.40118,-1.7331,-0.12042,-0.15074,0.10097,0.078576,0.65963,0.13328,-0.042525,0.51633,0.059461,0.1412
0.0027394,0.0058427,-0.028224,-0.11678,-0.14371,-1.4113,-0.0029245,0.11954,-0.13081,-0.0078201,0.017823,0.12298,-0.24352,-1.2488,-0.092305,-0.18203,0.1049,0.082362,0.70736,0.062872,-0.0019881,0.64251,0.048374,0.13983
-0.01033,0.0080006,-0.023375,-0.15339,-0.10727,-1.3787,-0.012875,0.12749,-0.11445,-0.0076612,0.018167,0.11908,0.017095,-0.70639,-0.065937,-0.20501,0.10727,0.08877,0.74608,-0.0027722,0.03163,0.71649,0.045663,0.14685
-0.019702,0.0049871,-0.020145,-0.19022,-0.10594,-1.3552,-0.050058,0.13606,-0.10033,-0.0099525,0.013416,0.1161,0.28293,-0.12511,-0.051416,-0.22348,0.10935,0.097121,0.77198,-0.056555,0.05464,0.73453,0.050441,0.1479
-0.029034,-0.0026624,-0.017902,-0.22,-0.13927,-1.3165,-0.11946,0.14196,-0.093279,-0.012064,0.0071047,0.11905,0.45442,0.48588,-0.052396,-0.24309,0.11323,0.10477,0.78473,-0.092691,0.069753,0.71331,0.057583,0.13582
-0.041871,-0.01106,-0.013319,-0.2314,-0.18845,-1.2313,-0.20584,0.14174,-0.094405,-0.01048,0.0046546,0.12653,0.48953,1.0886,-0.061907,-0.25931,0.12027,0.10848,0.78797,-0.10711,0.083887,0.67529,0.061648,0.11446
-0.057941,-0.016508,-0.0029043,-0.21482,-0.23075,-1.0776,-0.28356,0.13218,-0.099768,-0.0033682,0.0091156,0.13054,0.41176,1.5933,-0.068093,-0.25772,0.12971,0.10687,0.78663,-0.097908,0.10189,0.63435,0.060595,0.094661
-0.072943,-0.018475,0.014156,-0.16931,-0.25342,-0.85217,-0.33348,0.11147,-0.10239,0.0075034,0.019074,0.12217,0.27171,1.8845,-0.064518,-0.22834,0.13891,0.10195,0.78265,-0.067096,0.1216,0.59078,0.056342,0.085313
-0.081941,-0.019401,0.034928,-0.10542,-0.25672,-0.57145,-0.35439,0.081797,-0.096341,0.017254,0.030176,0.099047,0.10451,1.8863,-0.055745,-0.18101,0.14513,0.098131,0.7727,-0.023274,0.135,0.53766,0.052116,0.086308
-0.083272,-0.021793,0.054186,-0.041295,-0.24621,-0.26475,-0.36043,0.051465,-0.079857,0.020845,0.03871,0.068539,-0.080457,1.622,-0.053097,-0.14568,0.14758,0.099101,0.75007,0.017675,0.13491,0.47244,0.049341,0.088948
-0.079652,-0.025556,0.067262,0.0056538,-0.2236,0.034419,-0.36756,0.033656,-0.055411,0.016525,0.044286,0.044076,-0.27784,1.2163,-0.064177,-0.15443,0.14779,0.10492,0.71002,0.03674,0.12152,0.40408,0.046808,0.083248
-0.075832,-0.02813,0.07231,0.026466,-0.18556,0.2966,-0.38067,0.040554,-0.026917,0.0070688,0.049732,0.037075,-0.46384,0.83304,-0.085202,-0.2188,0.14792,0.11176,0.65469,0.020224,0.10308,0.35005,0.042342,0.066124
-0.07507,-0.027194,0.070642,0.023125,-0.13124,0.50343,-0.39143,0.075945,0.0031951,-0.0022975,0.058612,0.050015,-0.59956,0.59136,-0.1028,-0.32151,0.14847,0.11463,0.59347,-0.032619,0.089824,0.32545,0.034769,0.043728
-0.077295,-0.023254,0.065286,0.0052481,-0.070289,0.65184,-0.3878,0.13162,0.034622,-0.0077526,0.072438,0.074977,-0.6557,0.52228,-0.10388,-0.42986,0.14737,0.11092,0.53793,-0.10889,0.086435,0.33251,0.024201,0.026248
-0.080006,-0.019574,0.059081,-0.016038,-0.022017,0.75329,-0.366,0.19089,0.067362,-0.0093634,0.089429,0.09807,-0.63126,0.59065,-0.085601,-0.5192,0.1417,0.10213,0.49434,-0.18983,0.089137,0.3584,0.010942,0.019906
-0.080636,-0.019467,0.053601,-0.033034,-0.0044009,0.82725,-0.33455,0.23722,0.099521,-0.010155,0.10536,0.10655,-0.54677,0.7528,-0.057479,-0.58712,0.13057,0.092569,0.45954,-0.26152,0.089524,0.38265,-0.0050379,0.023129
-0.078414,-0.023469,0.049304,-0.042957,-0.021195,0.89223,-0.30738,0.26223,0.127,-0.012637,0.11567,0.094425,-0.42116,0.99107,-0.034381,-0.6475,0.11688,0.086326,0.42394,-0.32035,0.081458,0.3883,-0.022966,0.029893
-0.074629,-0.028989,0.046284,-0.046455,-0.058175,0.95975,-0.29218,0.26766,0.14549,-0.015955,0.11742,0.06398,-0.25825,1.2932,-0.02614,-0.71091,0.10609,0.08484,0.38067,-0.36913,0.06529,0.36891,-0.039745,0.036519
-0.071611,-0.032705,0.044753,-0.045147,-0.092145,1.0345,-0.28417,0.26098,0.15306,-0.016349,0.11028,0.023202,-0.056995,1.603,-0.03145,-0.76847,0.10255,0.086638,0.33434,-0.40846,0.046586,0.32792,-0.05034,0.045066
-0.071326,-0.033441,0.04486,-0.040014,-0.10564,1.1181,-0.27003,0.24891,0.15125,-0.010746,0.096302,-0.018724,0.16838,1.8032,-0.039578,-0.79183,0.10627,0.089001,0.3022,-0.43224,0.031305,0.2727,-0.050715,0.059861
-0.074291,-0.032816,0.046212,-0.031208,-0.095607,1.2124,-0.23799,0.23389,0.14398,-0.00039987,0.078783,-0.055253,0.38424,1.7684,-0.037432,-0.7485,0.11274,0.09002,0.30502,-0.43186,0.02183,0.20894,-0.041127,0.080651
-0.079191,-0.033148,0.047793,-0.018771,-0.070121,1.318,-0.1854,0.21565,0.13511,0.0088038,0.061052,-0.083834,0.55874,1.4601,-0.016544,-0.62142,0.1162,0.08955,0.35278,-0.40518,0.01659,0.13891,-0.026687,0.099705
-0.08336,-0.034659,0.04859,-0.003446,-0.037652,1.4309,-0.11795,0.19522,0.12651,0.010146,0.045624,-0.10468,0.68959,0.98468,0.023831,-0.42047,0.11397,0.088651,0.4357,-0.36066,0.012493,0.063246,-0.014241,0.10702
-0.083962,-0.034764,0.048437,0.012989,0.00046839,1.5419,-0.042845,0.17712,0.11769,0.0013126,0.034025,-0.11836,0.80971,0.5532,0.07759,-0.18087,0.10828,0.088218,0.52815,-0.31157,0.0073453,-0.01653,-0.0078579,0.10009
-0.079323,-0.030299,0.048216,0.02803,0.048007,1.6395,0.036982,0.16737,0.10685,-0.013028,0.027081,-0.12412,0.96179,0.35657,0.1346,0.049014,0.10431,0.08798,0.60397,-0.26491,0.00040295,-0.09706,-0.0065186,0.089678
-0.069629,-0.020702,0.048983,0.039223,0.10546,1.7154,0.12197,0.16908,0.09247,-0.023558,0.025198,-0.12009,1.162,0.44496,0.1838,0.22457,0.10586,0.086681,0.6524,-0.21524,-0.0084353,-0.17415,-0.0057173,0.095378
-0.056674,-0.0091706,0.05064,0.045073,0.16467,1.7673,0.20994,0.17962,0.074495,-0.02211,0.028316,-0.10512,1.3837,0.70455,0.21628,0.31991,0.1124,0.083296,0.68275,-0.14998,-0.019052,-0.24463,-0.0014653,0.13334
-0.043008,-0.00053791,0.051469,0.045692,0.21256,1.7983,0.29196,0.19227,0.054424,-0.0067689,0.03566,-0.08073,1.5742,0.95022,0.22791,0.33532,0.11949,0.078251,0.71429,-0.061781,-0.030404,-0.30794,0.0065306,0.20535
-0.031108,0.0023508,0.04932,0.042848,0.24098,1.8124,0.35526,0.20122,0.034301,0.017424,0.045658,-0.051609,1.6875,1.0585,0.22028,0.29401,0.1223,0.073464,0.75928,0.043117,-0.039759,-0.36686,0.014707,0.29807
-0.022761,0.00057552,0.04373,0.039319,0.2539,1.8126,0.39213,0.2061,0.015238,0.042548,0.05627,-0.024377,1.7067,1.0337,0.19851,0.22917,0.11918,0.070961,0.81268,0.14831,-0.043444,-0.42692,0.018161,0.39284
-0.018391,-0.0022378,0.037081,0.037752,0.26503,1.8004,0.40675,0.21212,-0.0035081,0.063397,0.065488,-0.0053229,1.6421,0.96076,0.16669,0.16808,0.11263,0.07107,0.85602,0.23944,-0.039195,-0.49461,0.013727,0.4783
-0.016416,-0.0031798,0.033317,0.039573,0.28795,1.7777,0.4134,0.2255,-0.023988,0.080269,0.071589,0.0014675,1.5147,0.89974,0.12415,0.12235,0.10707,0.071852,0.8719,0.31427,-0.02829,-0.57483,0.0015459,0.55558
-0.013362,-0.002119,0.034786,0.044572,0.32663,1.7479,0.42636,0.24785,-0.047684,0.096941,0.073108,-0.0052096,1.3449,0.82382,0.066275,0.089102,0.10539,0.070483,0.85701,0.38182,-0.015303,-0.66863,-0.015469,0.63281
-0.0054934,-0.00082898,0.039749,0.051446,0.37371,1.7156,0.4495,0.27405,-0.073658,0.11577,0.068944,-0.02403,1.1544,0.65844,-0.0097864,0.060021,0.10688,0.065587,0.82411,0.45199,-0.0052211,-0.77231,-0.033488,0.71427
0.0084692,-0.0004081,0.042982,0.058907,0.41711,1.6835,0.47434,0.29535,-0.09852,0.13412,0.058989,-0.051816,0.97248,0.37811,-0.098348,0.029709,0.10794,0.058435,0.79311,0.52552,8.3745e-007,-0.87763,-0.049578,0.79426
0.025459,0.00016411,0.0395,0.066416,0.44895,1.6499,0.48843,0.30531,-0.11884,0.14528,0.044963,-0.084046,0.83145,0.060763,-0.18299,-0.003073,0.10485,0.051841,0.77976,0.5933,0.0026285,-0.97248,-0.062482,0.86091
0.038927,0.0028122,0.028519,0.073843,0.47005,1.6075,0.4868,0.30377,-0.1345,0.14308,0.030424,-0.11536,0.74774,-0.16203,-0.24176,-0.039844,0.096414,0.047665,0.79069,0.64496,0.0070646,-1.0418,-0.072227,0.90636
0.04254,0.0078403,0.01424,0.080339,0.48743,1.5462,0.4764,0.29575,-0.15013,0.12674,0.019314,-0.14051,0.70425,-0.22142,-0.25726,-0.085474,0.084662,0.045206,0.82534,0.67852,0.01617,-1.0693,-0.079179,0.93418
0.034437,0.012906,0.0025335,0.083683,0.50766,1.4581,0.4697,0.28654,-0.1727,0.10191,0.013604,-0.15576,0.65214,-0.19001,-0.22596,-0.14488,0.073335,0.042006,0.87884,0.7024,0.028968,-1.0414,-0.083403,0.95676
0.018979,0.014832,-0.0037385,0.081208,0.53125,1.3436,0.47315,0.27729,-0.2062,0.077358,0.011808,-0.16015,0.53754,-0.24732,-0.16138,-0.2159,0.065266,0.03628,0.94013,0.72864,0.041461,-0.95229,-0.08485,0.98431
0.0045743,0.012652,-0.0067135,0.072045,0.55152,1.2145,0.48092,0.26477,-0.24729,0.059573,0.009817,-0.15565,0.33712,-0.55391,-0.08986,-0.28603,0.060641,0.028627,0.98742,0.76385,0.049636,-0.80967,-0.08417,1.0141
-0.0010517,0.0088888,-0.011075,0.058865,0.55841,1.09,0.47966,0.24528,-0.28562,0.049454,0.0037806,-0.14599,0.077559,-1.1333,-0.04088,-0.33743,0.057192,0.021382,0.98943,0.80565,0.052025,-0.63617,-0.083363,1.0288
0.0049094,0.0076336,-0.01943,0.047283,0.54457,0.98888,0.46018,0.21907,-0.30964,0.042928,-0.0070467,-0.13479,-0.1759,-1.8506,-0.03554,-0.35628,0.051949,0.016221,0.91729,0.84688,0.049869,-0.46577,-0.085585,1.0058
0.019193,0.011043,-0.029761,0.042829,0.51032,0.92146,0.42619,0.19138,-0.31424,0.034578,-0.019784,-0.12432,-0.35409,-2.4964,-0.077035,-0.33761,0.043139,0.012302,0.76169,0.88281,0.045151,-0.33425,-0.093921,0.93135
0.034786,0.017407,-0.037217,0.047532,0.4645,0.88473,0.39265,0.16919,-0.30475,0.021274,-0.030187,-0.11521,-0.41795,-2.903,-0.14706,-0.28117,0.030917,0.0066927,0.54166,0.91455,0.038559,-0.26636,-0.10966,0.80922
0.045018,0.022483,-0.038481,0.058719,0.42051,0.86463,0.37536,0.15641,-0.29366,0.0033196,-0.035826,-0.10696,-0.37096,-3.0158,-0.21157,-0.18326,0.016773,-0.0033445,0.29509,0.94606,0.029193,-0.26513,-0.13096,0.6602
0.046954,0.022797,-0.034643,0.070941,0.38926,0.84224,0.38022,0.15124,-0.29215,-0.017119,-0.037534,-0.098354,-0.24657,-2.8866,-0.23582,-0.035314,0.0024218,-0.018247,0.055688,0.97801,0.016033,-0.30911,-0.15282,0.51209
0.042273,0.018047,-0.030089,0.079447,0.37328,0.80078,0.39983,0.14764,-0.30227,-0.038475,-0.038006,-0.087567,-0.08527,-2.6193,-0.20248,0.1661,-0.010917,-0.035946,-0.16644,1.0043,-0.00033593,-0.36123,-0.16876,0.387
0.035465,0.010794,-0.028701,0.082601,0.36563,0.72962,0.41877,0.1393,-0.31569,-0.060966,-0.038971,-0.072522,0.081299,-2.3119,-0.12162,0.40503,-0.022618,-0.053414,-0.38453,1.0146,-0.017321,-0.38683,-0.17381,0.29214
0.030609,0.0042126,-0.030993,0.081786,0.35454,0.62463,0.42211,0.12309,-0.32006,-0.085792,-0.039609,-0.052191,0.2324,-2.021,-0.024362,0.64187,-0.032481,-0.068352,-0.61474,1.0014,-0.0315,-0.37162,-0.16733,0.21773
0.028789,5.6067e-005,-0.034522,0.0795,0.33043,0.48631,0.40132,0.099859,-0.30818,-0.11342,-0.037631,-0.028333,0.3534,-1.7501,0.057613,0.82765,-0.040583,-0.079655,-0.85174,0.96537,-0.040351,-0.32839,-0.15373,0.1429
0.027725,-0.0017355,-0.036672,0.07749,0.29042,0.31785,0.35532,0.072471,-0.28314,-0.14281,-0.031936,-0.0061471,0.43399,-1.4634,0.1126,0.93012,-0.04705,-0.086778,-1.0604,0.91597,-0.043276,-0.2869,-0.1399,0.047349
0.02375,-0.0021589,-0.036854,0.076154,0.23746,0.12446,0.28878,0.043194,-0.25567,-0.17249,-0.024266,0.0074881,0.47144,-1.1214,0.15379,0.95338,-0.051646,-0.089224,-1.1911,0.86607,-0.041412,-0.27298,-0.13056,-0.076453
0.014615,-0.0022596,-0.036293,0.075042,0.17589,-0.086157,0.21015,0.012367,-0.23604,-0.20283,-0.018243,0.0077697,0.47225,-0.72812,0.20416,0.93511,-0.05352,-0.086985,-1.2069,0.8244,-0.036632,-0.29084,-0.1246,-0.21681
0.0010604,-0.0028567,-0.036191,0.073539,0.10796,-0.30368,0.12991,-0.020859,-0.22691,-0.23763,-0.016668,-0.004609,0.44672,-0.35747,0.27361,0.92182,-0.05167,-0.081407,-1.1047,0.79077,-0.030542,-0.32124,-0.11573,-0.34706
-0.013878,-0.0044706,-0.036538,0.071199,0.034485,-0.51614,0.057987,-0.056499,-0.22237,-0.28363,-0.019533,-0.022968,0.40001,-0.12595,0.3477,0.93907,-0.046084,-0.075171,-0.91556,0.75671,-0.024064,-0.33642,-0.097608,-0.43893
-0.026977,-0.0069265,-0.036653,0.067876,-0.041583,-0.71215,-0.00013558,-0.092099,-0.21332,-0.34752,-0.024414,-0.037788,0.32986,-0.11794,0.39811,0.97749,-0.038604,-0.070853,-0.68674,0.71096,-0.017661,-0.32027,-0.069836,-0.47696
-0.036519,-0.0089295,-0.03644,0.063891,-0.11331,-0.88351,-0.046368,-0.12292,-0.19453,-0.43154,-0.028621,-0.041584,0.23574,-0.31359,0.40621,1.0029,-0.032377,-0.069064,-0.45882,0.64653,-0.011815,-0.27866,-0.039896,-0.46408
-0.042461,-0.0084752,-0.036581,0.060041,-0.17287,-1.0278,-0.08928,-0.14409,-0.16783,-0.52946,-0.030969,-0.032447,0.13142,-0.58062,0.37983,0.98068,-0.029855,-0.067881,-0.25115,0.5658,-0.0072118,-0.23323,-0.018776,-0.41532
-0.045646,-0.0043468,-0.037328,0.057124,-0.21811,-1.1505,-0.13917,-0.15338,-0.1397,-0.62491,-0.031796,-0.014345,0.046449,-0.74644,0.34862,0.89629,-0.030811,-0.064353,-0.061817,0.48108,-0.0042921,-0.20501,-0.013352,-0.34599
-0.047416,0.0023404,-0.037376,0.055125,-0.25688,-1.2648,-0.20177,-0.15254,-0.11607,-0.69386,-0.031837,0.0053144,0.010221,-0.70127,0.34215,0.7583,-0.03221,-0.056984,0.12096,0.41027,-0.0024895,-0.20135,-0.021566,-0.26508
-0.050003,0.0081242,-0.034491,0.052783,-0.30441,-1.3888,-0.27503,-0.14618,-0.09898,-0.7118,-0.031611,0.018884,0.029467,-0.45516,0.36857,0.58764,-0.030379,-0.047144,0.3037,0.36905,7.9156e-005,-0.21506,-0.034449,-0.17847
-0.056567,0.0092451,-0.027715,0.048157,-0.37427,-1.5374,-0.35101,-0.13873,-0.087162,-0.66308,-0.031967,0.020843,0.079181,-0.10885,0.41027,0.40446,-0.023929,-0.038172,0.47758,0.36324,0.0058243,-0.23366,-0.043286,-0.0961
-0.069661,0.0044253,-0.019153,0.039892,-0.46887,-1.7134,-0.42151,-0.13192,-0.078799,-0.54791,-0.034633,0.0091608,0.11736,0.231,0.43806,0.2227,-0.015032,-0.032886,0.61935,0.3854,0.016075,-0.24917,-0.045865,-0.032829
-0.088665,-0.003889,-0.013348,0.028138,-0.57611,-1.9017,-0.48283,-0.12447,-0.073086,-0.38222,-0.041318,-0.013851,0.1133,0.52043,0.43052,0.052305,-0.0078863,-0.0315,0.70406,0.41868,0.029891,-0.26027,-0.046714,0.00025179
-0.1086,-0.011044,-0.014349,0.014311,-0.67458,-2.0746,-0.53653,-0.11385,-0.06905,-0.19007,-0.051574,-0.041361,0.06604,0.78106,0.38388,-0.097736,-0.0055102,-0.031579,0.72288,0.44626,0.044522,-0.26719,-0.051582,0.0061053
-0.12228,-0.013399,-0.022684,6.2922e-006,-0.74361,-2.2054,-0.58608,-0.098404,-0.063576,0.006285,-0.061553,-0.063545,-0.0023642,1.049,0.30789,-0.22031,-0.0074276,-0.029996,0.69312,0.46067,0.057458,-0.26632,-0.061452,0.0017703
-0.12478,-0.010708,-0.034657,-0.013802,-0.77151,-2.2855,-0.63258,-0.077936,-0.05169,0.1917,-0.065559,-0.071364,-0.072479,1.3241,0.21536,-0.31279,-0.010145,-0.0254,0.6506,0.46589,0.068497,-0.25042,-0.071337,0.005341
-0.11678,-0.0058015,-0.044569,-0.02649,-0.75811,-2.3301,-0.67313,-0.052857,-0.029845,0.35582,-0.059755,-0.061233,-0.14851,1.5632,0.11582,-0.37634,-0.010095,-0.019381,0.62583,0.47022,0.079948,-0.21459,-0.074494,0.020377
-0.10371,-0.0020046,-0.048149,-0.03687,-0.7117,-2.3685,-0.7028,-0.023377,0.00051848,0.48701,-0.045073,-0.037614,-0.2556,1.714,0.017184,-0.41157,-0.0067077,-0.015558,0.62026,0.47545,0.094598,-0.16218,-0.067834,0.03217
-0.091237,-0.00059656,-0.04475,-0.042916,-0.64423,-2.4226,-0.71849,0.0099251,0.032762,0.57019,-0.026718,-0.011192,-0.41521,1.7526,-0.069503,-0.41656,-0.0031199,-0.017205,0.60266,0.4719,0.11302,-0.1055,-0.053722,0.020054
-0.081294,-0.00037357,-0.036987,-0.042855,-0.56762,-2.4888,-0.72143,0.044685,0.058979,0.59257,-0.010594,0.0069251,-0.62005,1.6907,-0.12961,-0.39323,-0.0038921,-0.024996,0.53248,0.4446,0.13257,-0.060566,-0.037125,-0.02496
-0.072031,0.00062298,-0.028471,-0.03687,-0.49181,-2.5363,-0.71667,0.076471,0.074957,0.55336,0.00030379,0.01152,-0.83061,1.5559,-0.15144,-0.35924,-0.011524,-0.036391,0.3956,0.38602,0.14899,-0.039594,-0.021338,-0.092977
-0.06159,0.0030251,-0.021485,-0.027707,-0.42341,-2.5256,-0.7099,0.10095,0.081959,0.46926,0.0066407,0.0059633,-0.99714,1.3709,-0.13515,-0.35312,-0.024576,-0.04716,0.22461,0.30433,0.15931,-0.045724,-0.0063157,-0.16428
-0.051724,0.0055809,-0.016107,-0.01926,-0.36448,-2.4324,-0.70401,0.11746,0.08404,0.36997,0.010542,-0.00053064,-1.0897,1.1502,-0.096379,-0.42112,-0.038899,-0.05406,0.085041,0.21891,0.16368,-0.072346,0.0093966,-0.22535
-0.047603,0.0063909,-0.011034,-0.014022,-0.31281,-2.2634,-0.69745,0.13088,0.083789,0.28627,0.012987,0.0007643,-1.1127,0.91102,-0.060478,-0.58861,-0.050862,-0.056804,0.03467,0.14602,0.16469,-0.10655,0.02566,-0.2769
-0.05395,0.0045698,-0.0051562,-0.011506,-0.2651,-2.0532,-0.68556,0.14959,0.080665,0.23811,0.013326,0.012393,-1.095,0.67751,-0.050182,-0.83482,-0.059792,-0.057826,0.085274,0.086193,0.16507,-0.13494,0.039947,-0.32754
-0.071222,0.00079228,0.0013307,-0.0090397,-0.22193,-1.8455,-0.66398,0.17998,0.073306,0.22963,0.010971,0.029356,-1.0648,0.47114,-0.074616,-1.0933,-0.067586,-0.06004,0.19558,0.024191,0.16584,-0.14948,0.049499,-0.38092
-0.095393,-0.0035755,0.0069434,-0.0042358,-0.19079,-1.6723,-0.63216,0.22105,0.063054,0.25168,0.007036,0.042741,-1.0323,0.29761,-0.12683,-1.2831,-0.076035,-0.064402,0.30021,-0.058494,0.16619,-0.15101,0.054137,-0.42974
-0.1213,-0.0077339,0.0098473,0.0029566,-0.18384,-1.5418,-0.59499,0.26311,0.05468,0.28811,0.0039182,0.045639,-0.99081,0.14766,-0.19086,-1.3515,-0.084484,-0.069343,0.35141,-0.16908,0.16475,-0.14889,0.056795,-0.46202
-0.14625,-0.011893,0.0089966,0.010242,-0.21049,-1.4399,-0.56131,0.29175,0.053057,0.3218,0.0031235,0.037255,-0.93298,0.013781,-0.25235,-1.297,-0.090071,-0.072494,0.34172,-0.29877,0.16066,-0.15666,0.061125,-0.47278
-0.17065,-0.016637,0.0048224,0.014764,-0.26973,-1.3425,-0.5401,0.29475,0.058666,0.33928,0.0037095,0.022589,-0.86299,-0.094588,-0.30487,-1.1569,-0.090372,-0.073097,0.29303,-0.43103,0.1538,-0.18617,0.068391,-0.46902
-0.19552,-0.021951,-0.00079465,0.015079,-0.34799,-1.2294,-0.53643,0.26788,0.06625,0.33429,0.003259,0.0083297,-0.79313,-0.15631,-0.34832,-0.97222,-0.08599,-0.072814,0.22578,-0.55483,0.14434,-0.24283,0.076554,-0.46351
-0.21953,-0.026828,-0.0051827,0.011924,-0.42478,-1.0948,-0.54937,0.21625,0.068211,0.3097,0.00071732,-0.0017165,-0.7273,-0.16319,-0.38274,-0.76154,-0.080636,-0.074155,0.13651,-0.67179,0.13297,-0.32366,0.082375,-0.46385
-0.23815,-0.029693,-0.005936,0.0077111,-0.48241,-0.94983,-0.57298,0.15129,0.060071,0.27552,-0.0017779,-0.0082631,-0.64743,-0.14147,-0.40448,-0.52529,-0.078552,-0.078035,0.0018561,-0.79177,0.12144,-0.41808,0.084488,-0.46793
-0.2452,-0.029176,-0.0020475,0.0054514,-0.51311,-0.81666,-0.59941,0.085505,0.043488,0.24271,-0.00041769,-0.014391,-0.5177,-0.14602,-0.40846,-0.2726,-0.081459,-0.082871,-0.19755,-0.92143,0.11252,-0.51059,0.084506,-0.46943
-0.23532,-0.024646,0.005396,0.0076813,-0.51913,-0.71662,-0.62201,0.028011,0.02443,0.21589,0.006194,-0.021847,-0.30681,-0.22476,-0.39374,-0.040479,-0.087593,-0.086173,-0.45637,-1.0548,0.10845,-0.58537,0.085115,-0.46707
-0.20559,-0.016331,0.013547,0.015446,-0.50699,-0.65818,-0.63699,-0.017745,0.0083243,0.19052,0.014113,-0.029114,-0.013879,-0.37657,-0.36604,0.11687,-0.093446,-0.087125,-0.74475,-1.1725,0.10858,-0.63224,0.087029,-0.46735
-0.15644,-0.0052577,0.019341,0.02751,-0.48091,-0.6316,-0.64332,-0.05376,-0.0037256,0.1573,0.015724,-0.032794,0.32042,-0.53336,-0.33397,0.16147,-0.096526,-0.087577,-1.0267,-1.2484,0.10844,-0.65171,0.087781,-0.47758
-0.092198,0.0068311,0.021495,0.04044,-0.44027,-0.61389,-0.64147,-0.085382,-0.014827,0.11087,0.0056311,-0.0308,0.62644,-0.58156,-0.30189,0.097745,-0.096768,-0.090316,-1.2788,-1.2603,0.1016,-0.65553,0.083641,-0.49615
-0.021646,0.017712,0.021515,0.050079,-0.38214,-0.58154,-0.63195,-0.11796,-0.029037,0.055513,-0.013818,-0.024341,0.83509,-0.41346,-0.26635,-0.032795,-0.095687,-0.096187,-1.4925,-1.1985,0.083535,-0.66071,0.072997,-0.51012
0.042933,0.025312,0.022643,0.053823,-0.30567,-0.52259,-0.61411,-0.1533,-0.048079,0.0031739,-0.032599,-0.016961,0.90745,0.018764,-0.22014,-0.18291,-0.094423,-0.10286,-1.6636,-1.0705,0.05464,-0.67986,0.05816,-0.5039
0.089027,0.028614,0.027264,0.052064,-0.21493,-0.43969,-0.58574,-0.18764,-0.07052,-0.035054,-0.039667,-0.011698,0.84792,0.67344,-0.16126,-0.32859,-0.09266,-0.10661,-1.7811,-0.90174,0.020075,-0.71448,0.043972,-0.47193
0.10888,0.028257,0.034788,0.047518,-0.11854,-0.34281,-0.54384,-0.21291,-0.093334,-0.056927,-0.031435,-0.0090706,0.69453,1.4293,-0.09875,-0.47151,-0.089324,-0.10544,-1.8306,-0.72916,-0.01336,-0.75638,0.03438,-0.42435
0.10335,0.026252,0.041927,0.04295,-0.027549,-0.23784,-0.4867,-0.22135,-0.11382,-0.07022,-0.015072,-0.0076159,0.49343,2.1311,-0.049776,-0.61829,-0.084104,-0.10069,-1.8064,-0.59036,-0.040904,-0.79622,0.029825,-0.38027
0.081766,0.024837,0.045381,0.039351,0.046967,-0.12088,-0.41633,-0.21085,-0.13022,-0.086359,-0.0034403,-0.0062481,0.27347,2.6497,-0.029043,-0.76183,-0.078087,-0.095419,-1.7214,-0.50968,-0.061509,-0.83173,0.027423,-0.35408
0.056999,0.025198,0.044718,0.036227,0.09594,0.0172,-0.33957,-0.18706,-0.14118,-0.11182,-0.0053971,-0.0061413,0.037244,2.9282,-0.038739,-0.8849,-0.072769,-0.091195,-1.6013,-0.48886,-0.076904,-0.86819,0.023532,-0.34584
0.038619,0.02692,0.042929,0.033521,0.11481,0.17974,-0.26663,-0.15996,-0.14539,-0.14391,-0.019319,-0.010606,-0.22471,2.9901,-0.067162,-0.9805,-0.068494,-0.086559,-1.469,-0.5082,-0.089416,-0.9099,0.016553,-0.34279
0.028352,0.028495,0.044047,0.032888,0.10626,0.35622,-0.20733,-0.13697,-0.14212,-0.17366,-0.035175,-0.023432,-0.50451,2.9089,-0.097346,-1.0638,-0.064136,-0.078795,-1.3336,-0.53876,-0.10042,-0.94901,0.0079788,-0.32961
0.020908,0.028401,0.049824,0.036567,0.081146,0.52436,-0.16715,-0.11795,-0.13224,-0.19275,-0.043323,-0.04732,-0.75341,2.7608,-0.11866,-1.1576,-0.058652,-0.06736,-1.1935,-0.55857,-0.1102,-0.96131,0.0012257,-0.29864
0.0093572,0.025984,0.058281,0.044645,0.055607,0.66171,-0.14544,-0.096613,-0.1184,-0.1992,-0.042562,-0.083374,-0.88565,2.5889,-0.13189,-1.2629,-0.05308,-0.055444,-1.0483,-0.56231,-0.11868,-0.91399,-0.00068818,-0.2527
-0.008973,0.021655,0.065332,0.053561,0.044167,0.75901,-0.13669,-0.067476,-0.1038,-0.198,-0.040713,-0.13111,-0.81666,2.3997,-0.1442,-1.343,-0.050686,-0.047759,-0.908,-0.55856,-0.12621,-0.78168,0.0029321,-0.20042
-0.030317,0.016482,0.068054,0.05797,0.052498,0.82625,-0.13401,-0.032754,-0.090398,-0.19737,-0.047416,-0.18796,-0.51805,2.1837,-0.15987,-1.346,-0.054462,-0.046378,-0.78855,-0.55757,-0.13376,-0.56054,0.0099958,-0.14971
-0.047268,0.011558,0.06691,0.054937,0.074417,0.88692,-0.13253,-0.0029578,-0.077851,-0.20397,-0.065275,-0.24809,-0.054746,1.9372,-0.17605,-1.25,-0.063849,-0.048607,-0.70041,-0.55956,-0.14252,-0.27085,0.016791,-0.10459
