-1.2926e-010,7.1191e-010,1.0052e-009,8.4697e-010,1.4412e-009,1.638e-009,-5.1898e-010,3.3763e-010,2.0933e-009,8.0066e-010,1.9698e-009,-5.4214e-010,-6.6947e-010,-1.0901e-009,3.2219e-010,4.4181e-010,-1.1016e-009,9.2414e-010,4.3409e-010,9.5887e-010,-7.3507e-010,2.4097e-009,1.3023e-009,-2.7975e-010
-3.5913e-009,1.9588e-008,2.7854e-008,2.3575e-008,3.9953e-008,4.5182e-008,-1.4353e-008,9.2952e-009,5.7896e-008,2.1751e-008,5.4676e-008,-1.4896e-008,-1.9052e-008,-2.9956e-008,8.9188e-009,1.2548e-008,-3.035e-008,2.5638e-008,1.2243e-008,2.6551e-008,-2.0228e-008,6.755e-008,3.5705e-008,-7.4179e-009
-4.878e-008,2.6215e-007,3.7516e-007,3.1902e-007,5.3865e-007,6.0591e-007,-1.9297e-007,1.2468e-007,7.7891e-007,2.8719e-007,7.3742e-007,-1.9859e-007,-2.6413e-007,-4.0027e-007,1.2007e-007,1.7332e-007,-4.0662e-007,3.4561e-007,1.6777e-007,3.5733e-007,-2.7065e-007,9.2171e-007,4.7565e-007,-9.5496e-008
-4.3135e-007,2.2738e-006,3.2721e-006,2.7963e-006,4.7058e-006,5.2629e-006,-1.68e-006,1.0859e-006,6.7917e-006,2.4556e-006,6.4377e-006,-1.7105e-006,-2.3774e-006,-3.4645e-006,1.0472e-006,1.5509e-006,-3.5296e-006,3.0162e-006,1.4879e-006,3.114e-006,-2.346e-006,8.1576e-006,4.1015e-006,-7.9491e-007
-2.789e-006,1.4366e-005,2.0768e-005,1.7846e-005,2.9942e-005,3.3277e-005,-1.0643e-005,6.9054e-006,4.314e-005,1.5283e-005,4.0886e-005,-1.0691e-005,-1.5621e-005,-2.1831e-005,6.6494e-006,1.0106e-005,-2.2308e-005,1.9153e-005,9.5963e-006,1.975e-005,-1.4807e-005,5.265e-005,2.5729e-005,-4.8061e-006
-1.4033e-005,7.0442e-005,0.00010219,8.8357e-005,0.00014786,0.00016319,-5.2269e-005,3.4173e-005,0.0002127,7.3769e-005,0.00020126,-5.1612e-005,-7.9871e-005,-0.0001067,3.2745e-005,5.1081e-005,-0.00010936,9.4291e-005,4.7931e-005,9.7133e-005,-7.2508e-005,0.00026412,0.00012508,-2.2469e-005
-5.7078e-005,0.00027887,0.00040543,0.00035305,0.00058951,0.00064562,-0.00020691,0.00013695,0.00084681,0.0002873,0.00079868,-0.00019994,-0.00033077,-0.00042074,0.00013005,0.00020836,-0.00043252,0.00037436,0.00019276,0.00038534,-0.00028656,0.0010718,0.00049016,-8.4377e-005
-0.00019231,0.0009152,0.0013313,0.0011691,0.0019487,0.0021157,-0.00067772,0.00045653,0.0027955,0.00092698,0.0026236,-0.00063706,-0.0011401,-0.0013741,0.00042757,0.00070418,-0.0014165,0.0012309,0.00064042,0.0012661,-0.00093855,0.003615,0.0015893,-0.00026077
-0.0005453,0.0025363,0.0036839,0.0032685,0.0054409,0.0058488,-0.0018701,0.0012899,0.0077954,0.0025241,0.0072673,-0.0016959,-0.0033343,-0.0037851,0.0011846,0.0020085,-0.0039111,0.0034149,0.0017887,0.00351,-0.0025947,0.010333,0.0043411,-0.0006732
-0.001313,0.0060128,0.0086971,0.0078167,0.013003,0.013817,-0.0044021,0.0031302,0.018605,0.0058763,0.017197,-0.0038047,-0.0083928,-0.0089056,0.0027989,0.004898,-0.0092177,0.0080997,0.0042481,0.0083167,-0.0061332,0.02539,0.010114,-0.0014617
-0.002692,0.012303,0.017656,0.016136,0.026843,0.028135,-0.0089146,0.0065845,0.03835,0.011801,0.035081,-0.0072053,-0.018371,-0.018045,0.0056816,0.010302,-0.018689,0.016579,0.0086357,0.016992,-0.012503,0.054215,0.020253,-0.002663
-0.0046726,0.021848,0.030939,0.028915,0.04816,0.049635,-0.015609,0.012076,0.06867,0.020554,0.062047,-0.011425,-0.035226,-0.031622,0.0099336,0.018791,-0.032721,0.029467,0.015049,0.030089,-0.022089,0.10143,0.034991,-0.0039981
-0.0067287,0.033756,0.046764,0.045099,0.075345,0.075997,-0.023684,0.019364,0.10711,0.031129,0.095416,-0.014774,-0.059449,-0.047932,0.014912,0.029778,-0.04944,0.045642,0.022376,0.046259,-0.033864,0.16731,0.052106,-0.0046776
-0.0075918,0.045361,0.060576,0.061198,0.10289,0.1008,-0.03113,0.027151,0.14553,0.040978,0.12757,-0.014418,-0.088492,-0.062506,0.018981,0.040921,-0.064063,0.061691,0.027955,0.061585,-0.044913,0.24463,0.066419,-0.0034324
-0.0054298,0.05286,0.066192,0.072007,0.12258,0.11514,-0.035384,0.03322,0.17174,0.046768,0.14783,-0.007541,-0.11611,-0.069111,0.019835,0.048438,-0.07011,0.072761,0.028239,0.070398,-0.051078,0.31858,0.071279,0.0010521
0.001361,0.053206,0.058944,0.073047,0.12747,0.11206,-0.034791,0.035372,0.17519,0.046153,0.14767,0.0066532,-0.13371,-0.062617,0.015507,0.048697,-0.062706,0.074936,0.020609,0.067834,-0.048922,0.37178,0.062111,0.0093784
0.012975,0.046325,0.039285,0.063617,0.11673,0.091703,-0.029983,0.032877,0.15404,0.039594,0.12642,0.025279,-0.1339,-0.042319,0.0056349,0.040485,-0.042365,0.067908,0.0054406,0.052953,-0.038104,0.39257,0.040186,0.020787
0.027373,0.035938,0.014081,0.048205,0.097863,0.063064,-0.023894,0.027472,0.11851,0.030715,0.093212,0.042052,-0.11444,-0.013315,-0.0078929,0.026427,-0.016307,0.055839,-0.013133,0.030235,-0.022437,0.38159,0.013576,0.033173
0.040689,0.027809,-0.0063729,0.03448,0.083332,0.039908,-0.019947,0.022861,0.086441,0.024376,0.062372,0.050123,-0.080148,0.015672,-0.021572,0.012146,0.0047139,0.045155,-0.028872,0.0078194,-0.0083135,0.35145,-0.0065108,0.043993
0.049075,0.0261,-0.014505,0.028488,0.082996,0.03243,-0.019517,0.022552,0.0726,0.023424,0.044732,0.046118,-0.040854,0.03702,-0.032005,0.0032265,0.012939,0.040352,-0.03681,-0.0069134,-0.00099098,0.31878,-0.012462,0.051592
0.051066,0.030368,-0.010681,0.030283,0.097304,0.040378,-0.020792,0.027297,0.078886,0.026533,0.041003,0.032627,-0.0061651,0.048167,-0.037607,0.0019136,0.009144,0.040913,-0.03605,-0.011529,-0.001147,0.29371,-0.0054469,0.056061
0.048771,0.035763,-0.0032002,0.03362,0.11682,0.053239,-0.020262,0.034136,0.093288,0.029132,0.042584,0.017016,0.019612,0.051752,-0.039105,0.0060031,0.0027573,0.042012,-0.029819,-0.009418,-0.0043838,0.2745,0.0052256,0.05897
0.046703,0.036703,-0.0024363,0.030578,0.12896,0.057901,-0.015764,0.038177,0.099287,0.027094,0.039263,0.006963,0.038793,0.052002,-0.038572,0.010837,0.0058836,0.038741,-0.022719,-0.0066421,-0.0043568,0.25073,0.0086955,0.062188
0.048697,0.031422,-0.013273,0.017888,0.12707,0.048118,-0.0084078,0.036095,0.08866,0.020362,0.02739,0.0057711,0.056908,0.050678,-0.037893,0.012804,0.025424,0.03044,-0.017472,-0.0071893,0.0026629,0.21219,0.00030181,0.06673
0.055044,0.023827,-0.031711,-6.741e-005,0.11452,0.028313,-0.0015418,0.028664,0.067344,0.013374,0.011742,0.010873,0.077277,0.046287,-0.037877,0.011508,0.059187,0.021378,-0.013853,-0.01039,0.015269,0.15613,-0.015564,0.072407
0.062097,0.021149,-0.04836,-0.014251,0.101,0.0089447,0.0023277,0.020067,0.04945,0.011662,-3.2461e-005,0.016595,0.097935,0.037107,-0.038463,0.0090145,0.098602,0.017064,-0.010391,-0.012403,0.028357,0.08803,-0.029687,0.078246
0.064877,0.029196,-0.055869,-0.017671,0.094313,-0.0022783,0.0037374,0.014332,0.044612,0.017256,-0.0049032,0.018909,0.11339,0.024812,-0.03938,0.0072306,0.13518,0.019387,-0.0068432,-0.010257,0.037199,0.016717,-0.035635,0.082898
0.060817,0.048808,-0.054114,-0.010238,0.094925,-0.0057921,0.0054496,0.011787,0.049634,0.026788,-0.0069683,0.018313,0.1197,0.014839,-0.040437,0.0060259,0.16502,0.024862,-0.0048815,-0.0048523,0.040711,-0.051125,-0.034316,0.084514
0.051682,0.075769,-0.049099,0.0022527,0.097158,-0.0080692,0.0094266,0.0087145,0.051525,0.033973,-0.013082,0.018615,0.11849,0.012779,-0.041308,0.0037666,0.18802,0.027525,-0.0063689,-0.00031063,0.041288,-0.11308,-0.032004,0.080446
0.042071,0.10353,-0.047045,0.013903,0.094915,-0.014708,0.014605,0.00071985,0.038925,0.034433,-0.02618,0.022857,0.1167,0.02014,-0.041423,-0.00052536,0.20369,0.023819,-0.011077,-0.0003174,0.041667,-0.16965,-0.034217,0.06772
0.035693,0.12617,-0.049129,0.023886,0.086004,-0.025324,0.017736,-0.012981,0.01167,0.02884,-0.042725,0.030065,0.12219,0.033639,-0.040416,-0.0057123,0.20847,0.015175,-0.016224,-0.0047033,0.041839,-0.22207,-0.041227,0.044673
0.032472,0.13979,-0.051292,0.036245,0.07145,-0.034574,0.016589,-0.028138,-0.019665,0.021881,-0.056401,0.035718,0.1389,0.048859,-0.03879,-0.0092941,0.19769,0.0062235,-0.018356,-0.0093334,0.038904,-0.27121,-0.048921,0.012828
0.028874,0.14253,-0.048698,0.054557,0.051689,-0.037727,0.012541,-0.038321,-0.043206,0.018125,-0.06411,0.035557,0.16489,0.064745,-0.037968,-0.0096335,0.17037,0.00058894,-0.01586,-0.009553,0.030047,-0.3171,-0.053451,-0.022627
0.021119,0.13459,-0.040447,0.076522,0.024645,-0.035278,0.01004,-0.039726,-0.055378,0.018427,-0.068413,0.029311,0.19381,0.084336,-0.039402,-0.0074766,0.13207,-0.0018214,-0.0099637,-0.0043876,0.015956,-0.358,-0.054782,-0.054686
0.0085249,0.11872,-0.030437,0.093699,-0.011753,-0.032477,0.013277,-0.033886,-0.062327,0.019743,-0.074305,0.020984,0.21776,0.11059,-0.043353,-0.005291,0.092773,-0.0038674,-0.0036473,0.0020549,0.0015167,-0.38932,-0.055916,-0.077812
-0.0058071,0.10009,-0.024106,0.096967,-0.05523,-0.034568,0.022819,-0.026078,-0.07274,0.01819,-0.083801,0.015424,0.22922,0.14107,-0.048316,-0.0050324,0.06108,-0.0079007,0.00029282,0.0033495,-0.0070992,-0.40415,-0.059096,-0.090444
-0.017387,0.084408,-0.024315,0.083112,-0.098143,-0.042282,0.03503,-0.020972,-0.089237,0.012486,-0.093696,0.014271,0.22217,0.16676,-0.051514,-0.0064003,0.039698,-0.013444,0.00048367,-0.004296,-0.0067154,-0.39639,-0.063221,-0.094957
-0.023661,0.074642,-0.029786,0.057008,-0.13191,-0.051477,0.044793,-0.019252,-0.10618,0.004924,-0.098546,0.014922,0.19354,0.17699,-0.050109,-0.0071746,0.02554,-0.017854,-0.0029144,-0.018735,0.00063841,-0.36474,-0.065061,-0.095202
-0.025476,0.068841,-0.036685,0.027896,-0.1535,-0.056886,0.049393,-0.017839,-0.11526,-0.00069749,-0.095839,0.013329,0.14572,0.16693,-0.042489,-0.0053373,0.013826,-0.019029,-0.0086273,-0.032893,0.0093622,-0.31449,-0.062812,-0.093645
-0.025685,0.061157,-0.041333,0.0033152,-0.16804,-0.056438,0.050545,-0.013092,-0.11324,-0.002202,-0.088451,0.0079107,0.087845,0.1415,-0.029196,-0.0010963,0.0022178,-0.01748,-0.014686,-0.039502,0.01438,-0.25565,-0.058177,-0.090281
-0.026395,0.045945,-0.041755,-0.014184,-0.18484,-0.052577,0.053058,-0.0040807,-0.10463,-0.00060015,-0.082307,0.00085592,0.033699,0.11247,-0.013236,0.0029978,-0.008312,-0.01592,-0.018977,-0.036063,0.014384,-0.19868,-0.054787,-0.083893
-0.027328,0.022087,-0.037632,-0.025563,-0.21006,-0.049939,0.061134,0.0066017,-0.097474,0.0010255,-0.081705,-0.0043182,-0.0042004,0.090733,0.00064675,0.0040305,-0.01573,-0.016977,-0.020153,-0.026361,0.011812,-0.15098,-0.054553,-0.074198
-0.026581,-0.0057958,-0.029728,-0.031556,-0.24206,-0.051771,0.075024,0.014687,-0.096564,0.00017111,-0.086533,-0.0064168,-0.020868,0.079878,0.0079344,0.0012014,-0.019467,-0.021175,-0.018438,-0.017444,0.010023,-0.11589,-0.055581,-0.062857
-0.022841,-0.030277,-0.019716,-0.030902,-0.27303,-0.058009,0.090373,0.017005,-0.10041,-0.0031911,-0.093323,-0.0077235,-0.021119,0.075488,0.006942,-0.0032662,-0.020819,-0.026816,-0.015407,-0.014462,0.010382,-0.09355,-0.053701,-0.05253
-0.016968,-0.046047,-0.01011,-0.02234,-0.2949,-0.065988,0.10065,0.013251,-0.10419,-0.0069821,-0.098399,-0.01144,-0.016056,0.069912,0.0003749,-0.0056209,-0.021472,-0.031545,-0.012525,-0.017319,0.011705,-0.082019,-0.046153,-0.045032
-0.01165,-0.053155,-0.0034413,-0.0082118,-0.30419,-0.072549,0.10101,0.0059647,-0.10531,-0.0092085,-0.099983,-0.017975,-0.016262,0.058203,-0.0057942,-0.0033858,-0.022211,-0.034052,-0.0095969,-0.021518,0.012127,-0.077884,-0.03404,-0.040338
-0.0096459,-0.056342,-0.0007166,0.0042267,-0.30245,-0.075691,0.091172,-0.00093185,-0.10619,-0.010002,-0.097987,-0.023963,-0.026328,0.040738,-0.0060498,0.0026972,-0.023188,-0.034595,-0.004678,-0.022201,0.011213,-0.07697,-0.02144,-0.037229
-0.012222,-0.061255,-0.00045821,0.0057177,-0.29337,-0.075001,0.075627,-0.0041728,-0.11196,-0.011671,-0.092833,-0.025303,-0.043819,0.021474,0.00070042,0.0090694,-0.02498,-0.034306,0.0041945,-0.017921,0.01021,-0.075824,-0.012212,-0.034724
-0.01899,-0.070604,0.00038932,-0.0096335,-0.2798,-0.07129,0.06109,-0.0028474,-0.12556,-0.016632,-0.085174,-0.021453,-0.062212,0.0043532,0.010044,0.011736,-0.028728,-0.034194,0.016905,-0.011225,0.010388,-0.073307,-0.0074493,-0.032788
-0.0289,-0.08303,0.0039546,-0.040464,-0.26328,-0.066052,0.05275,0.0011372,-0.14491,-0.024987,-0.07654,-0.016616,-0.075051,-0.0088684,0.015139,0.0087879,-0.034903,-0.034665,0.030717,-0.0059785,0.011403,-0.070883,-0.0056011,-0.03175
-0.04121,-0.095164,0.0093689,-0.078527,-0.24498,-0.060842,0.051514,0.0043091,-0.16445,-0.03393,-0.069296,-0.01622,-0.078817,-0.018178,0.011956,0.0013017,-0.042136,-0.035653,0.04182,-0.0041164,0.011502,-0.071063,-0.0046272,-0.031287
-0.055452,-0.10489,0.013205,-0.11289,-0.2261,-0.056499,0.05397,0.0040438,-0.17918,-0.039693,-0.065034,-0.021577,-0.073809,-0.023635,0.0027115,-0.0076792,-0.047809,-0.036952,0.04762,-0.0046479,0.0094063,-0.075205,-0.0038201,-0.030286
-0.070533,-0.11317,0.012465,-0.13491,-0.20696,-0.052623,0.055115,0.00048174,-0.18736,-0.040473,-0.062783,-0.027765,-0.063536,-0.024565,-0.0053508,-0.014993,-0.050275,-0.038454,0.047983,-0.0054514,0.0059251,-0.082485,-0.0036786,-0.027851
-0.083941,-0.12313,0.0077312,-0.14103,-0.18626,-0.047997,0.052041,-0.00366,-0.18982,-0.037834,-0.059411,-0.027134,-0.053117,-0.020327,-0.0051557,-0.0187,-0.050606,-0.040257,0.044835,-0.0057672,0.0035889,-0.090778,-0.0044461,-0.024334
-0.092051,-0.13729,0.0035563,-0.13238,-0.1621,-0.042003,0.045903,-0.0054018,-0.18725,-0.035305,-0.052591,-0.015834,-0.047006,-0.011571,0.0048968,-0.018439,-0.051929,-0.042673,0.040955,-0.0068565,0.0046014,-0.098312,-0.0052404,-0.021103
-0.091655,-0.15543,0.0053299,-0.11274,-0.13418,-0.035907,0.040713,-0.0040098,-0.17873,-0.035364,-0.043705,0.0023017,-0.046833,-0.00058961,0.019607,-0.015187,-0.056676,-0.045953,0.038974,-0.010276,0.0090486,-0.10447,-0.004783,-0.019045
-0.081925,-0.17466,0.014929,-0.086795,-0.105,-0.032586,0.039938,-0.0014161,-0.16291,-0.037445,-0.037391,0.018158,-0.050787,0.0094675,0.030761,-0.010811,-0.064271,-0.04968,0.04072,-0.015632,0.014969,-0.1091,-0.002741,-0.017282
-0.065549,-0.19211,0.028757,-0.059521,-0.078505,-0.034425,0.043687,-0.00013134,-0.14059,-0.038693,-0.037448,0.024345,-0.055402,0.015557,0.033239,-0.007376,-0.071555,-0.052285,0.046551,-0.020171,0.019964,-0.11127,8.6953e-005,-0.013583
-0.04811,-0.20799,0.039974,-0.035891,-0.057244,-0.040891,0.048778,-0.00068034,-0.11569,-0.036719,-0.04265,0.021003,-0.058748,0.015012,0.028828,-0.0061464,-0.075709,-0.051474,0.054836,-0.020726,0.0226,-0.10871,0.0031285,-0.0063688
-0.035756,-0.2266,0.043282,-0.01999,-0.040495,-0.047912,0.051445,-0.0011527,-0.093266,-0.031857,-0.04661,0.015441,-0.062403,0.0053794,0.024839,-0.0067585,-0.076972,-0.045809,0.062443,-0.01623,0.022365,-0.098434,0.0073291,0.0034763
-0.032216,-0.25401,0.038579,-0.013645,-0.025171,-0.049939,0.050201,0.00060986,-0.076356,-0.026949,-0.042333,0.015829,-0.070191,-0.015192,0.028625,-0.0074376,-0.078471,-0.036451,0.066617,-0.0084724,0.018809,-0.077935,0.014528,0.012772
-0.036792,-0.2933,0.030766,-0.015776,-0.0085856,-0.043464,0.046391,0.0044143,-0.064436,-0.024966,-0.027674,0.024244,-0.084388,-0.046723,0.042205,-0.0064641,-0.083191,-0.027394,0.067141,-0.00045359,0.01146,-0.046278,0.025101,0.018196
-0.044524,-0.34038,0.02614,-0.023403,0.0094428,-0.02951,0.042207,0.007515,-0.054886,-0.02664,-0.007066,0.034932,-0.10249,-0.086367,0.061047,-0.0038385,-0.090843,-0.023345,0.066824,0.0060493,0.0011177,-0.0048504,0.036292,0.01862
-0.048595,-0.38353,0.028282,-0.033735,0.02688,-0.013308,0.038275,0.0072825,-0.045875,-0.030098,0.011745,0.039148,-0.11745,-0.12899,0.077705,-0.0015697,-0.097667,-0.026411,0.069398,0.011446,-0.008924,0.042309,0.043474,0.015705
-0.043695,-0.40773,0.036291,-0.045639,0.041643,-0.0012785,0.033101,0.0041977,-0.037809,-0.03262,0.022888,0.032379,-0.12126,-0.16942,0.087206,-0.0020478,-0.09953,-0.034193,0.076235,0.017057,-0.013795,0.088945,0.043878,0.012463
-0.028512,-0.40153,0.046092,-0.059217,0.053624,0.0027426,0.024769,0.0020379,-0.032008,-0.032841,0.025298,0.017827,-0.10931,-0.2047,0.089944,-0.0057701,-0.095572,-0.041168,0.08464,0.022995,-0.010324,0.12819,0.039569,0.011242
-0.0060758,-0.36238,0.053319,-0.073982,0.064993,-0.0003427,0.013141,0.0047218,-0.028186,-0.031518,0.021875,0.0034996,-0.082286,-0.23436,0.090224,-0.010485,-0.089036,-0.042648,0.089398,0.027371,-0.00022591,0.15483,0.036633,0.012747
0.017999,-0.29681,0.055715,-0.087477,0.07881,-0.0056731,0.000482,0.012597,-0.023565,-0.030446,0.016684,-0.0042506,-0.045492,-0.25843,0.092252,-0.012695,-0.084481,-0.038265,0.086573,0.027704,0.0099935,0.16704,0.040715,0.016468
0.038095,-0.21562,0.053862,-0.095853,0.097161,-0.0076032,-0.010017,0.021694,-0.014901,-0.030676,0.012858,-0.0050897,-0.0069478,-0.27548,0.097208,-0.010353,-0.083868,-0.032089,0.07658,0.023305,0.013119,0.16626,0.05247,0.021538
0.05052,-0.12762,0.050399,-0.096203,0.11993,-0.0032039,-0.0165,0.026814,-0.0017366,-0.031613,0.012077,-0.0036317,0.024169,-0.28277,0.10352,-0.0044929,-0.085081,-0.029161,0.064065,0.016393,0.006434,0.15604,0.066807,0.027093
0.054055,-0.036861,0.048495,-0.088877,0.14455,0.0061875,-0.019621,0.02575,0.012239,-0.031611,0.01468,-0.0045715,0.039416,-0.27896,0.10929,0.0015828,-0.084115,-0.031337,0.054688,0.010781,-0.0061957,0.14133,0.076734,0.03212
0.049518,0.054702,0.050349,-0.077902,0.1666,0.016302,-0.021842,0.020853,0.021341,-0.029395,0.01957,-0.0087109,0.034389,-0.26669,0.11417,0.0047849,-0.078854,-0.035967,0.051288,0.0091351,-0.017222,0.12887,0.078725,0.035513
0.039183,0.14171,0.056275,-0.06898,0.18103,0.023053,-0.025586,0.016576,0.022076,-0.025089,0.024368,-0.01316,0.012314,-0.25238,0.11887,0.0043211,-0.07098,-0.038528,0.052279,0.011096,-0.020985,0.1273,0.075267,0.036668
0.026413,0.21256,0.06465,-0.066187,0.18405,0.025085,-0.031739,0.015264,0.015997,-0.020136,0.026665,-0.01484,-0.015732,-0.24261,0.12333,0.0017952,-0.064463,-0.036804,0.053302,0.013893,-0.017465,0.14439,0.072651,0.036076
0.015102,0.25287,0.072766,-0.069377,0.17495,0.024012,-0.03953,0.01498,0.0088648,-0.016342,0.025935,-0.013599,-0.036507,-0.24001,0.12578,-0.00047073,-0.062185,-0.032861,0.050672,0.01489,-0.011408,0.18145,0.075962,0.035131
0.0083576,0.25382,0.078145,-0.073885,0.15699,0.022503,-0.047636,0.011286,0.0067134,-0.014788,0.02436,-0.012165,-0.043634,-0.24216,0.1239,-0.001306,-0.063778,-0.031032,0.04401,0.01383,-0.0080064,0.22891,0.085371,0.035104
0.0066991,0.21931,0.07963,-0.07289,0.13622,0.02206,-0.055473,0.001387,0.011826,-0.015275,0.025337,-0.013528,-0.042881,-0.24443,0.11699,-0.0012762,-0.066362,-0.033804,0.036262,0.012834,-0.0089359,0.26773,0.096483,0.03611
0.0070508,0.16595,0.077697,-0.061264,0.11859,0.022285,-0.063607,-0.012991,0.021592,-0.016521,0.030609,-0.018626,-0.048098,-0.24428,0.10693,-0.0017846,-0.067154,-0.039425,0.031371,0.014209,-0.011757,0.27791,0.10404,0.036993
0.0038409,0.11498,0.073978,-0.038791,0.10692,0.021939,-0.072984,-0.026441,0.030982,-0.016929,0.038545,-0.026432,-0.069815,-0.24316,0.097012,-0.0036866,-0.065479,-0.043453,0.031482,0.018045,-0.012544,0.24897,0.1057,0.036214
-0.0078208,0.081164,0.070382,-0.010769,0.099758,0.020471,-0.083701,-0.033732,0.036704,-0.015566,0.045244,-0.035816,-0.10566,-0.24455,0.089758,-0.0065904,-0.062625,-0.042806,0.035622,0.021772,-0.0091554,0.18479,0.10294,0.032948
-0.028728,0.066325,0.068283,0.014566,0.093077,0.018532,-0.094448,-0.033539,0.039965,-0.012836,0.047547,-0.046849,-0.14119,-0.24984,0.085778,-0.0092422,-0.060144,-0.038494,0.040465,0.022086,-0.002693,0.099062,0.098921,0.027547
-0.054432,0.061629,0.068017,0.030409,0.083491,0.017144,-0.10319,-0.029206,0.045744,-0.010383,0.045351,-0.06011,-0.16112,-0.25623,0.08437,-0.010501,-0.058379,-0.034467,0.042317,0.017576,0.0033988,0.0054422,0.095625,0.021208
-0.077584,0.056211,0.068801,0.034876,0.070704,0.016539,-0.10859,-0.026194,0.058932,-0.010114,0.041335,-0.074888,-0.16162,-0.25834,0.08489,-0.010089,-0.056399,-0.033699,0.038908,0.0098658,0.0054196,-0.089411,0.092785,0.015326
-0.092466,0.045321,0.069153,0.031436,0.057351,0.015882,-0.11089,-0.028411,0.079978,-0.012878,0.038659,-0.088423,-0.153,-0.25216,0.087218,-0.0086634,-0.053067,-0.035283,0.03018,0.0023959,0.0013177,-0.18428,0.089165,0.011064
-0.098603,0.032208,0.067791,0.02613,0.046624,0.014118,-0.11151,-0.036163,0.10329,-0.017755,0.038831,-0.097228,-0.15049,-0.2376,0.090895,-0.0073438,-0.04809,-0.035367,0.018131,-0.0020421,-0.0082888,-0.27609,0.084476,0.0092205
-0.10073,0.023404,0.064599,0.023622,0.039769,0.011067,-0.11156,-0.046818,0.11996,-0.022643,0.041386,-0.099348,-0.16089,-0.21746,0.094079,-0.0071496,-0.042247,-0.031062,0.006036,-0.0030517,-0.020185,-0.35506,0.079955,0.010169
-0.10497,0.022137,0.060917,0.024785,0.035503,0.007662,-0.11076,-0.05708,0.12325,-0.025825,0.045093,-0.095389,-0.17629,-0.19381,0.093791,-0.0086605,-0.036854,-0.023554,-0.0028524,-0.0025216,-0.029866,-0.40839,0.07715,0.013726
-0.11393,0.025434,0.058652,0.027236,0.031546,0.0051174,-0.1077,-0.064837,0.11292,-0.027317,0.049163,-0.087427,-0.17984,-0.16548,0.087614,-0.011887,-0.032977,-0.017341,-0.0070652,-0.0031206,-0.033876,-0.43006,0.076299,0.01905
-0.12452,0.026799,0.058608,0.027924,0.026627,0.00386,-0.10131,-0.069432,0.095128,-0.028857,0.053397,-0.076999,-0.15877,-0.12901,0.07549,-0.016197,-0.030815,-0.016228,-0.0084116,-0.0067477,-0.032136,-0.42788,0.075999,0.024746
-0.13032,0.021649,0.059305,0.025534,0.021106,0.003256,-0.092216,-0.070784,0.077582,-0.032475,0.057646,-0.064263,-0.11441,-0.082332,0.059998,-0.020338,-0.029482,-0.019776,-0.011829,-0.013864,-0.028623,-0.42073,0.074505,0.029221
-0.12672,0.010842,0.057475,0.020946,0.01587,0.0023601,-0.082682,-0.068683,0.063862,-0.038811,0.061636,-0.049083,-0.062307,-0.027637,0.044798,-0.022854,-0.027326,-0.023537,-0.022712,-0.023601,-0.029515,-0.42726,0.071344,0.031226
-0.11491,-0.00035842,0.050199,0.015798,0.010881,0.00088131,-0.075301,-0.063007,0.051309,-0.046588,0.065506,-0.032699,-0.023068,0.029303,0.032437,-0.022964,-0.022814,-0.022861,-0.042788,-0.034056,-0.039726,-0.45512,0.067536,0.03043
-0.10142,-0.0066712,0.037201,0.010769,0.0050201,-0.00065582,-0.071574,-0.054472,0.034278,-0.053629,0.070192,-0.017965,-0.010898,0.082908,0.02314,-0.021414,-0.015585,-0.016819,-0.067541,-0.042612,-0.060091,-0.49885,0.063994,0.027801
-0.093505,-0.0068896,0.021436,0.005195,-0.002561,-0.0017204,-0.071536,-0.044921,0.0099165,-0.058512,0.076653,-0.0075468,-0.027041,0.13109,0.015292,-0.020383,-0.006889,-0.0087528,-0.087949,-0.046727,-0.087068,-0.54674,0.059558,0.025423
-0.093999,-0.0045975,0.0072872,-0.0017327,-0.010984,-0.0026545,-0.074385,-0.03668,-0.018473,-0.061455,0.084181,-0.0016699,-0.061264,0.17497,0.0070068,-0.022098,0.0010579,-0.0031688,-0.096277,-0.045407,-0.1149,-0.58964,0.050791,0.02552
-0.099736,-0.0052187,-0.0024094,-0.0095011,-0.017719,-0.0045457,-0.079094,-0.031488,-0.043344,-0.063799,0.089533,0.0023825,-0.099214,0.21519,-0.0024293,-0.026982,0.0064859,-0.0018875,-0.091972,-0.040535,-0.13848,-0.6244,0.034386,0.028983
-0.1045,-0.011813,-0.0082695,-0.016097,-0.020365,-0.0080161,-0.084287,-0.029895,-0.058322,-0.066646,0.088444,0.0083725,-0.1304,0.2484,-0.0121,-0.032985,0.0091769,-0.0028556,-0.082747,-0.03656,-0.15515,-0.6512,0.010583,0.034346
-0.10385,-0.022765,-0.013687,-0.019476,-0.018627,-0.012088,-0.087823,-0.031498,-0.062418,-0.06976,0.079032,0.018387,-0.15201,0.26722,-0.020114,-0.036949,0.010436,-0.0024089,-0.079277,-0.037888,-0.16471,-0.6697,-0.015448,0.03819
-0.097852,-0.032961,-0.022048,-0.019404,-0.01465,-0.014457,-0.087215,-0.035575,-0.059603,-0.071481,0.06431,0.031571,-0.16695,0.26423,-0.024876,-0.037111,0.012069,0.0012897,-0.087229,-0.045423,-0.16827,-0.6788,-0.036109,0.037064
-0.089643,-0.037477,-0.033958,-0.017868,-0.011409,-0.013283,-0.081203,-0.041444,-0.054568,-0.069594,0.051055,0.045145,-0.17853,0.23693,-0.0262,-0.034557,0.015297,0.0067347,-0.10301,-0.055118,-0.16687,-0.6796,-0.046453,0.029777
-0.081659,-0.035043,-0.046614,-0.01748,-0.010617,-0.0090535,-0.071336,-0.048374,-0.048756,-0.062618,0.045114,0.056484,-0.18639,0.18975,-0.025634,-0.032207,0.020353,0.010635,-0.1169,-0.060392,-0.1605,-0.67722,-0.047946,0.018395
-0.073066,-0.028768,-0.055869,-0.019185,-0.012016,-0.0047285,-0.061745,-0.055412,-0.040123,-0.050902,0.046732,0.06443,-0.1868,0.13221,-0.025735,-0.032174,0.026731,0.010925,-0.12103,-0.057069,-0.14804,-0.67891,-0.047613,0.0070828
-0.060675,-0.02372,-0.059435,-0.021428,-0.014505,-0.0037393,-0.056655,-0.061469,-0.026354,-0.036955,0.050147,0.069153,-0.17666,0.07499,-0.028679,-0.033946,0.033497,0.0084958,-0.11558,-0.046895,-0.12862,-0.6901,-0.05286,-0.00045984
-0.042304,-0.023275,-0.05879,-0.02174,-0.017771,-0.0073155,-0.057294,-0.065574,-0.0080882,-0.024572,0.048365,0.071382,-0.15729,0.026767,-0.035011,-0.035183,0.039391,0.0062587,-0.10808,-0.036392,-0.10386,-0.71235,-0.065977,-0.0031905
-0.019381,-0.027074,-0.058289,-0.019415,-0.022749,-0.01336,-0.060867,-0.066961,0.010987,-0.016843,0.039392,0.071974,-0.13406,-0.0069511,-0.043303,-0.034338,0.043008,0.0065265,-0.1066,-0.031655,-0.079178,-0.74331,-0.082701,-0.0030668
0.0036018,-0.032078,-0.062123,-0.016701,-0.030551,-0.017902,-0.06275,-0.06493,0.026974,-0.014065,0.028466,0.071851,-0.11213,-0.023644,-0.050949,-0.032448,0.04343,0.0090365,-0.11289,-0.0335,-0.061684,-0.77565,-0.095785,-0.0034407
0.022219,-0.035661,-0.07141,-0.017092,-0.041133,-0.018041,-0.060254,-0.058837,0.038459,-0.013205,0.024058,0.071634,-0.091992,-0.023482,-0.055665,-0.032181,0.040987,0.011202,-0.12115,-0.037248,-0.054833,-0.79313,-0.10033,-0.0066902
0.034977,-0.038002,-0.083573,-0.021995,-0.053168,-0.014078,-0.054752,-0.048547,0.046326,-0.0098199,0.030832,0.070928,-0.068939,-0.009074,-0.056873,-0.034969,0.037316,0.010242,-0.1231,-0.03731,-0.053176,-0.76813,-0.09641,-0.012555
0.043495,-0.041638,-0.094356,-0.028749,-0.065221,-0.0092145,-0.050213,-0.035144,0.051089,-0.0014073,0.045518,0.068169,-0.037012,0.015336,-0.05621,-0.039136,0.034298,0.0054071,-0.11468,-0.032271,-0.042557,-0.66834,-0.087343,-0.017977
0.050176,-0.048529,-0.10083,-0.032085,-0.076924,-0.007182,-0.04934,-0.021179,0.050799,0.010401,0.0591,0.061766,0.0059186,0.04527,-0.056729,-0.041059,0.032552,-0.0013885,-0.098891,-0.025725,-0.0079921,-0.47427,-0.076156,-0.01836
0.05579,-0.057292,-0.10309,-0.02808,-0.088846,-0.0097274,-0.050732,-0.0098838,0.04199,0.020829,0.063241,0.05182,0.05599,0.077011,-0.061048,-0.038435,0.030906,-0.0068476,-0.083065,-0.022248,0.054816,-0.19749,-0.063941,-0.0096442
0.059196,-0.063273,-0.10364,-0.017333,-0.10118,-0.015784,-0.0497,-0.0035811,0.022961,0.025553,0.05551,0.040587,0.10516,0.10724,-0.069412,-0.03251,0.027538,-0.0084226,-0.073319,-0.022618,0.13282,0.11631,-0.05142,0.0095785
0.059127,-0.061803,-0.10518,-0.0046355,-0.11259,-0.02266,-0.042187,-0.0023093,-0.0038681,0.023889,0.039603,0.030747,0.14464,0.13179,-0.079076,-0.027099,0.021946,-0.0057953,-0.070936,-0.023021,0.20032,0.40685,-0.041235,0.036826
0.055948,-0.052074,-0.10863,0.004621,-0.1205,-0.027974,-0.028498,-0.0037446,-0.033041,0.018767,0.021488,0.02286,0.16715,0.14536,-0.085784,-0.02531,0.015894,-0.00085014,-0.072874,-0.01899,0.23342,0.63035,-0.037617,0.066221
0.051515,-0.038274,-0.11272,0.0082151,-0.12258,-0.030727,-0.01362,-0.0046699,-0.05975,0.013598,0.0054978,0.014596,0.16718,0.14325,-0.086625,-0.027121,0.012298,0.0036107,-0.075074,-0.010083,0.22495,0.77952,-0.042906,0.090972
0.047371,-0.026729,-0.11517,0.0079621,-0.11827,-0.030926,-0.0037582,-0.0030666,-0.082677,0.009116,-0.0067343,0.0028618,0.14158,0.12413,-0.082147,-0.029983,0.012822,0.0054355,-0.07546,-0.00066588,0.18923,0.87706,-0.054133,0.10676
0.043319,-0.021134,-0.11424,0.0072703,-0.10894,-0.028586,-0.0018269,0.00067946,-0.1033,0.0033363,-0.015084,-0.013044,0.091516,0.091114,-0.075893,-0.031561,0.016302,0.0040471,-0.074568,0.0039481,0.15298,0.9488,-0.063534,0.11393
0.038046,-0.01969,-0.10971,0.0078838,-0.096709,-0.023366,-0.0054282,0.0044092,-0.12245,-0.0053555,-0.020054,-0.030449,0.02492,0.049615,-0.071494,-0.031731,0.019436,0.00041665,-0.074119,0.0022012,0.13878,0.99956,-0.063484,0.11661
0.031325,-0.016498,-0.10292,0.0087406,-0.083022,-0.015239,-0.0088106,0.0061956,-0.13767,-0.015207,-0.02334,-0.045772,-0.043803,0.0034479,-0.069721,-0.031947,0.01925,-0.0036126,-0.075289,-0.002634,0.15236,1.0121,-0.052105,0.11912
0.025577,-0.0061442,-0.095937,0.0076032,-0.067982,-0.0053528,-0.0072193,0.0060865,-0.14438,-0.021572,-0.028307,-0.05819,-0.098471,-0.047324,-0.068114,-0.032961,0.015271,-0.0061689,-0.078084,-0.005816,0.18181,0.96832,-0.034787,0.12213
0.025013,0.012126,-0.090533,0.0034486,-0.050858,0.0040928,-0.00036558,0.0060682,-0.14013,-0.020869,-0.038419,-0.070768,-0.12791,-0.10466,-0.063568,-0.033535,0.0096382,-0.0060832,-0.081845,-0.0055124,0.20768,0.87274,-0.02023,0.12167
0.032848,0.033781,-0.087394,-0.0028895,-0.031232,0.011105,0.0074578,0.0082271,-0.12793,-0.014409,-0.054101,-0.087534,-0.13013,-0.16837,-0.055506,-0.031586,0.0051786,-0.0034047,-0.086019,-0.0040819,0.21579,0.75688,-0.014349,0.11187
0.048936,0.052167,-0.085895,-0.010296,-0.0099281,0.015148,0.010594,0.012731,-0.11529,-0.0081867,-0.071098,-0.10887,-0.11074,-0.23333,-0.046671,-0.026516,0.0031892,0.00048793,-0.090364,-0.0053678,0.20393,0.66089,-0.017043,0.089316
0.069888,0.062879,-0.084606,-0.019198,0.010878,0.017102,0.006247,0.01753,-0.10898,-0.0082988,-0.082792,-0.12947,-0.076997,-0.29071,-0.04078,-0.020214,0.0027714,0.0034788,-0.094524,-0.010844,0.17948,0.60843,-0.024129,0.055559
0.091483,0.066188,-0.082279,-0.031343,0.028401,0.01793,-0.0032449,0.02016,-0.10978,-0.015776,-0.085241,-0.14105,-0.032664,-0.33216,-0.039275,-0.015616,0.0020875,0.0040055,-0.097451,-0.018156,0.15192,0.59528,-0.032056,0.015942
0.11121,0.06616,-0.078688,-0.047349,0.040447,0.017467,-0.011662,0.020007,-0.11151,-0.025428,-0.080633,-0.13788,0.022145,-0.35316,-0.040205,-0.014218,0.00023957,0.0023486,-0.097352,-0.023009,0.12687,0.59872,-0.040798,-0.024064
0.12878,0.067537,-0.074666,-0.064359,0.04643,0.014723,-0.012885,0.018856,-0.10548,-0.029853,-0.075734,-0.12078,0.086305,-0.35308,-0.040168,-0.015028,-0.0019405,0.00080033,-0.092427,-0.022366,0.10536,0.59674,-0.052417,-0.061752
0.14459,0.07272,-0.071207,-0.076382,0.047668,0.0094447,-0.0049241,0.019078,-0.086592,-0.025227,-0.076344,-0.096578,0.15285,-0.33285,-0.037366,-0.015869,-0.0027816,0.0021737,-0.082116,-0.016227,0.086937,0.58049,-0.067076,-0.097118
0.15795,0.080719,-0.068356,-0.077697,0.04673,0.0032199,0.0087059,0.021101,-0.056466,-0.013951,-0.082562,-0.073744,0.20895,-0.29336,-0.03291,-0.015581,-0.0014053,0.0075093,-0.068037,-0.007113,0.072468,0.55248,-0.080799,-0.13035
0.16692,0.088456,-0.064924,-0.066847,0.046068,-0.0012824,0.02119,0.022585,-0.02137,-0.0021077,-0.089039,-0.057627,0.24146,-0.23641,-0.029415,-0.01479,0.0013871,0.014826,-0.05371,0.0016891,0.063741,0.51749,-0.087574,-0.15951
0.17013,0.093419,-0.059509,-0.048103,0.046595,-0.0024273,0.026636,0.020182,0.012605,0.0057495,-0.089936,-0.048613,0.24417,-0.16696,-0.028507,-0.014572,0.0036198,0.020193,-0.042798,0.0076276,0.060755,0.47776,-0.084189,-0.18061
0.16858,0.096025,-0.05214,-0.02921,0.047054,-0.001006,0.023472,0.012328,0.042748,0.0097971,-0.084088,-0.043809,0.22096,-0.09334,-0.029681,-0.014643,0.0033835,0.020502,-0.036823,0.0096863,0.060021,0.43675,-0.073329,-0.19013
0.16585,0.1002,-0.045055,-0.017131,0.044816,0.00059049,0.014899,0.00061611,0.068912,0.013565,-0.075862,-0.040306,0.18277,-0.024168,-0.031378,-0.013282,-0.00033071,0.015714,-0.034027,0.0087544,0.056192,0.4044,-0.061836,-0.18765
0.16612,0.11162,-0.041676,-0.014711,0.037974,0.00070424,0.0064753,-0.011332,0.09029,0.019684,-0.071246,-0.037421,0.14115,0.036256,-0.032902,-0.009319,-0.0076452,0.0086782,-0.030573,0.0075238,0.046072,0.3944,-0.055364,-0.1766
0.17158,0.13429,-0.044251,-0.020048,0.02752,-6.0072e-005,0.0027605,-0.020265,0.10362,0.026952,-0.072838,-0.036708,0.10339,0.090174,-0.035139,-0.0040911,-0.018103,0.0027142,-0.023509,0.0093384,0.031645,0.41255,-0.054059,-0.16265
0.18097,0.16745,-0.051932,-0.028145,0.017856,0.00032699,0.0052151,-0.024828,0.10508,0.031421,-0.078112,-0.04033,0.072294,0.1442,-0.039414,-0.00092658,-0.030576,-0.000891,-0.013296,0.01593,0.019334,0.44639,-0.05306,-0.15118
0.19021,0.20482,-0.060887,-0.033252,0.014643,0.0029408,0.012281,-0.025301,0.09433,0.030366,-0.082078,-0.049266,0.048908,0.20423,-0.045728,-0.0021212,-0.042937,-0.0032906,-0.0038039,0.025386,0.015732,0.46762,-0.047314,-0.14591
0.19467,0.2371,-0.066522,-0.03073,0.020936,0.006426,0.020976,-0.022477,0.076791,0.025296,-0.081598,-0.062416,0.034511,0.27117,-0.052203,-0.0061527,-0.052377,-0.0061851,0.00043863,0.032375,0.02292,0.44864,-0.036312,-0.14881
0.19144,0.25642,-0.066219,-0.018386,0.03435,0.0080233,0.028672,-0.017216,0.061542,0.021124,-0.077543,-0.076752,0.029462,0.34043,-0.056349,-0.008171,-0.056784,-0.009544,-0.0023748,0.031322,0.036771,0.38106,-0.024524,-0.16048
0.18051,0.25976,-0.06058,0.0025632,0.047755,0.006197,0.034132,-0.01096,0.056084,0.022188,-0.073269,-0.088178,0.030546,0.40508,-0.057016,-0.0039152,-0.056305,-0.011167,-0.0099879,0.020675,0.049364,0.2813,-0.017356,-0.17959
0.16431,0.24938,-0.052386,0.027387,0.053555,0.002301,0.037689,-0.0060345,0.062096,0.028649,-0.071285,-0.092748,0.030439,0.46012,-0.055273,0.0062353,-0.053475,-0.0085624,-0.01777,0.0049384,0.053665,0.17802,-0.016465,-0.20174
0.14598,0.22997,-0.044247,0.049438,0.048639,-0.00043348,0.040879,-0.004608,0.075549,0.03645,-0.07127,-0.088088,0.021284,0.50461,-0.053459,0.016922,-0.051341,-0.0014435,-0.021893,-0.0075335,0.047169,0.091797,-0.018657,-0.21936
0.12757,0.20535,-0.036856,0.063371,0.036325,0.00026389,0.045703,-0.006789,0.09076,0.040843,-0.070923,-0.074611,0.00060884,0.54055,-0.053289,0.021876,-0.050932,0.0074567,-0.02137,-0.0097324,0.032152,0.023415,-0.019046,-0.22408
0.10924,0.17716,-0.029091,0.068193,0.023842,0.0036786,0.05362,-0.0098066,0.10462,0.040383,-0.068403,-0.055859,-0.024686,0.56951,-0.054694,0.019013,-0.050356,0.014104,-0.017591,-0.00050793,0.012591,-0.04034,-0.015304,-0.21101
0.089895,0.1465,-0.019663,0.067751,0.017404,0.0068218,0.064484,-0.0096538,0.11739,0.037946,-0.063839,-0.037391,-0.039662,0.58972,-0.056299,0.012051,-0.04654,0.016031,-0.012282,0.014863,-0.009863,-0.1096,-0.0091348,-0.1821
0.068929,0.11628,-0.0087794,0.067923,0.018621,0.0072425,0.076063,-0.0042857,0.12997,0.038004,-0.058711,-0.024527,-0.027928,0.59597,-0.05696,0.007138,-0.038217,0.014,-0.0060043,0.028325,-0.037743,-0.17824,-0.0040995,-0.14587
0.047461,0.091756,0.0016038,0.072493,0.02459,0.0053309,0.084742,0.0043969,0.14087,0.042574,-0.054117,-0.020118,0.01994,0.58277,-0.056886,0.0074577,-0.027507,0.011156,0.0016636,0.034154,-0.075769,-0.22543,-0.0022859,-0.11334
0.028095,0.078175,0.0091355,0.081012,0.030863,0.0039592,0.087385,0.011885,0.14638,0.049382,-0.049905,-0.023725,0.10073,0.54888,-0.057369,0.010568,-0.018555,0.010523,0.010948,0.03197,-0.12607,-0.22958,-0.0030442,-0.092839
0.013215,0.077199,0.012888,0.090303,0.034497,0.0057622,0.08334,0.014911,0.14404,0.053731,-0.045415,-0.03253,0.19877,0.50008,-0.05949,0.010804,-0.014291,0.012955,0.021204,0.025973,-0.18408,-0.18257,-0.0045663,-0.087408
0.0032813,0.08526,0.014108,0.097952,0.034993,0.010553,0.075131,0.014473,0.13579,0.052387,-0.040699,-0.043068,0.2921,0.44773,-0.063015,0.0045991,-0.014055,0.017078,0.031308,0.021448,-0.23869,-0.09348,-0.0062522,-0.09615
-0.0033735,0.095389,0.015267,0.1043,0.033203,0.015276,0.067053,0.015096,0.12745,0.046094,-0.03666,-0.052325,0.36162,0.40397,-0.066455,-0.0059312,-0.01412,0.02088,0.040282,0.02127,-0.27704,0.018794,-0.0093162,-0.11727
-0.0090123,0.10134,0.018172,0.11105,0.029933,0.016595,0.062444,0.020697,0.12434,0.038663,-0.033923,-0.05764,0.39854,0.37638,-0.068131,-0.014237,-0.010709,0.023334,0.047176,0.024641,-0.29105,0.13589,-0.015151,-0.14909
-0.014637,0.10094,0.022685,0.11811,0.025688,0.013812,0.061586,0.030663,0.12683,0.033658,-0.03186,-0.056257,0.40668,0.36555,-0.067268,-0.014366,-0.0030636,0.024719,0.050515,0.028437,-0.2805,0.24492,-0.023269,-0.18715
-0.019505,0.096353,0.027071,0.12227,0.021403,0.0094732,0.061946,0.039824,0.13004,0.031736,-0.029137,-0.045867,0.39846,0.3666,-0.064292,-0.0056157,0.0059027,0.025716,0.048604,0.029745,-0.25083,0.33664,-0.030914,-0.22
-0.022389,0.091378,0.029644,0.11962,0.018867,0.0070731,0.060636,0.042624,0.12822,0.030975,-0.025387,-0.026451,0.38736,0.37248,-0.060299,0.0069477,0.011851,0.026511,0.041216,0.027668,-0.20797,0.40229,-0.034632,-0.22892
-0.02322,0.088234,0.030285,0.10958,0.019973,0.0079204,0.05711,0.037892,0.11985,0.029599,-0.022138,-0.0019349,0.381,0.37646,-0.056345,0.016414,0.012354,0.026841,0.031225,0.023337,-0.15536,0.4341,-0.032295,-0.19502
-0.023389,0.086213,0.030529,0.09638,0.025337,0.009994,0.053803,0.029965,0.10904,0.028265,-0.021706,0.020418,0.37833,0.37246,-0.053084,0.019167,0.0087045,0.026779,0.023949,0.018553,-0.095924,0.42915,-0.023936,-0.11191
-0.024335,0.082879,0.03209,0.086034,0.033677,0.0098776,0.054109,0.025108,0.10194,0.029527,-0.024869,0.033472,0.37187,0.35473,-0.050703,0.017156,0.0048437,0.027177,0.023796,0.014405,-0.036105,0.39217,-0.011137,0.0043791
-0.025883,0.076373,0.035008,0.081101,0.042832,0.006086,0.059371,0.026456,0.10146,0.03487,-0.029608,0.034479,0.35349,0.319,-0.04879,0.015686,0.0043453,0.029074,0.030769,0.010939,0.013397,0.33357,0.0040042,0.11681
-0.026155,0.06683,0.037044,0.078181,0.0517,0.00080596,0.067371,0.031904,0.10502,0.042205,-0.03236,0.026819,0.3208,0.26538,-0.046102,0.018693,0.0078793,0.03252,0.040272,0.0078556,0.043004,0.26471,0.019369,0.18273
-0.02337,0.056055,0.035036,0.070918,0.061413,-0.001584,0.073529,0.036602,0.1071,0.046524,-0.030794,0.017467,0.28068,0.20065,-0.040786,0.025394,0.01307,0.036034,0.047016,0.0053239,0.051883,0.19476,0.03275,0.17603
-0.017928,0.046089,0.027439,0.056243,0.074568,0.0019527,0.073806,0.037453,0.10402,0.043608,-0.025616,0.011891,0.24725,0.1369,-0.031493,0.030848,0.016631,0.03743,0.049819,0.0040264,0.050501,0.13132,0.041864,0.10202
-0.012708,0.038001,0.016178,0.038287,0.092959,0.010501,0.067139,0.03545,0.096709,0.033782,-0.019823,0.010402,0.23421,0.085768,-0.018884,0.029724,0.016841,0.035483,0.052821,0.0044798,0.0542,0.082176,0.044808,-0.0054682
-0.011057,0.031636,0.0062093,0.026137,0.11555,0.01975,0.055828,0.034023,0.089197,0.022369,-0.016157,0.0089041,0.24536,0.051837,-0.0061273,0.020027,0.014375,0.031005,0.061702,0.0064526,0.071752,0.053734,0.040713,-0.10428
-0.014107,0.026128,0.0027424,0.026943,0.13828,0.025308,0.043952,0.035382,0.084732,0.016148,-0.015054,0.0032801,0.26973,0.030101,0.0026243,0.0038951,0.011159,0.026348,0.078153,0.0091468,0.098016,0.045766,0.030148,-0.168
-0.019731,0.020547,0.0078974,0.040073,0.15587,0.02609,0.035021,0.038435,0.083158,0.018416,-0.014645,-0.0064265,0.28646,0.010364,0.0051103,-0.014721,0.0086936,0.023722,0.097591,0.011906,0.11718,0.04759,0.015173,-0.19775
-0.024058,0.014292,0.019218,0.057196,0.16446,0.025017,0.030241,0.040001,0.081712,0.026509,-0.012482,-0.01563,0.27771,-0.014336,0.0029596,-0.033076,0.0074684,0.023755,0.11216,0.014574,0.11455,0.041246,-0.00089843,-0.21428
-0.024306,0.0072078,0.03126,0.068144,0.16333,0.026473,0.028241,0.037801,0.078091,0.033702,-0.0073502,-0.018805,0.24075,-0.042063,0.00082061,-0.050685,0.0076958,0.025501,0.11629,0.017017,0.087698,0.011664,-0.014131,-0.23777
-0.020658,-0.00048497,0.039202,0.067615,0.15491,0.032598,0.026338,0.032287,0.072733,0.03404,5.6511e-005,-0.013841,0.18977,-0.06433,0.0028592,-0.067927,0.010104,0.02772,0.11011,0.018318,0.048486,-0.04316,-0.021243,-0.27127
-0.015867,-0.0084809,0.041843,0.057438,0.14323,0.041452,0.02264,0.025879,0.068365,0.026502,0.0076356,-0.0035131,0.14497,-0.075057,0.0092115,-0.084046,0.015595,0.030119,0.098365,0.016739,0.014649,-0.11008,-0.021263,-0.29967
-0.013111,-0.016865,0.041836,0.043326,0.13163,0.048508,0.01759,0.020746,0.067521,0.015534,0.012925,0.0069046,0.11738,-0.078425,0.015283,-0.096642,0.024046,0.033317,0.086514,0.010837,-0.0020169,-0.16873,-0.016446,-0.30288
-0.013758,-0.026425,0.043204,0.02972,0.12124,0.050286,0.01364,0.017407,0.070436,0.0077713,0.01422,0.013556,0.1019,-0.08778,0.014606,-0.10284,0.033744,0.03761,0.077659,0.00095681,-0.0019993,-0.20344,-0.011269,-0.27094
-0.01647,-0.038282,0.048241,0.017429,0.11073,0.047115,0.013,0.015261,0.074994,0.0074413,0.011544,0.016219,0.084454,-0.11494,0.0031517,-0.10046,0.042415,0.041871,0.07219,-0.01029,0.0049431,-0.21029,-0.0095684,-0.20893
-0.017957,-0.052779,0.05619,0.0055176,0.097842,0.042796,0.015156,0.014095,0.078366,0.013701,0.0070781,0.017417,0.056964,-0.15793,-0.018077,-0.087735,0.049067,0.043887,0.069253,-0.019168,0.0085137,-0.19564,-0.011685,-0.1297
-0.01479,-0.068375,0.06436,-0.0052947,0.081496,0.041468,0.016498,0.014828,0.078638,0.021577,0.0044217,0.019735,0.026739,-0.19741,-0.043867,-0.062409,0.054778,0.042076,0.06802,-0.022848,0.0049948,-0.16963,-0.014057,-0.043185
-0.005357,-0.081821,0.070391,-0.01167,0.063211,0.04429,0.012858,0.018649,0.075238,0.025624,0.0066234,0.023819,0.01174,-0.20596,-0.068116,-0.022332,0.061484,0.037106,0.067928,-0.020835,-0.0021714,-0.14137,-0.0121,0.0475
0.0089461,-0.090252,0.073699,-0.010316,0.046495,0.048657,0.0030481,0.025448,0.068425,0.023631,0.014077,0.028478,0.025521,-0.16402,-0.087089,0.03159,0.069844,0.031743,0.068544,-0.014904,-0.0074518,-0.11929,-0.004531,0.14059
0.024007,-0.09421,0.075209,-0.001661,0.034594,0.050491,-0.0097602,0.033098,0.058926,0.017836,0.023949,0.032292,0.064855,-0.07149,-0.10048,0.092423,0.07828,0.028779,0.069832,-0.0078185,-0.0088859,-0.1137,0.0043308,0.22787
0.034934,-0.09924,0.076035,0.0092849,0.02826,0.047626,-0.020331,0.038434,0.048152,0.012933,0.031857,0.034985,0.11083,0.052377,-0.1099,0.14801,0.084217,0.0287,0.072399,-0.001899,-0.0097065,-0.13618,0.0065588,0.29379
0.038809,-0.11392,0.076477,0.016125,0.025335,0.04147,-0.025493,0.03924,0.038363,0.012458,0.034654,0.037359,0.14288,0.17934,-0.11617,0.18668,0.086421,0.029237,0.07684,0.0017088,-0.015175,-0.19321,-0.0039896,0.32385
0.036565,-0.14447,0.076084,0.015807,0.022512,0.035705,-0.026444,0.035644,0.031855,0.016218,0.032202,0.040126,0.15468,0.28512,-0.11745,0.20426,0.086323,0.027473,0.082302,0.0029844,-0.027659,-0.27776,-0.026612,0.31537
0.032484,-0.18913,0.074477,0.010881,0.017753,0.033219,-0.027182,0.029806,0.029345,0.020636,0.026949,0.043012,0.15927,0.35735,-0.10967,0.20629,0.087238,0.022794,0.085798,0.0026331,-0.043838,-0.36525,-0.052888,0.281
0.03136,-0.23633,0.072064,0.0073979,0.011336,0.033844,-0.030623,0.024137,0.028947,0.021651,0.022029,0.045156,0.17991,0.39658,-0.08916,0.20297,0.092227,0.018023,0.083666,0.0017213,-0.055891,-0.4186,-0.071034,0.24128
0.035257,-0.26913,0.070037,0.010278,0.0047655,0.03463,-0.036064,0.019463,0.027068,0.017886,0.019638,0.046423,0.23371,0.41253,-0.055965,0.2005,0.10231,0.017386,0.074633,0.0013927,-0.055637,-0.40126,-0.072782,0.21205
0.04231,-0.27374,0.069763,0.019909,-0.0012291,0.032309,-0.040227,0.014603,0.020948,0.011589,0.02067,0.048128,0.31998,0.41943,-0.015632,0.19647,0.11606,0.022791,0.061927,0.0025438,-0.039017,-0.29201,-0.058191,0.19639
0.0485,-0.24684,0.072073,0.032419,-0.0075763,0.025898,-0.040609,0.0076504,0.010836,0.0066737,0.025117,0.052113,0.42089,0.4316,0.022143,0.18344,0.13033,0.031623,0.052042,0.0054684,-0.0084583,-0.094613,-0.035223,0.18668
0.050916,-0.19699,0.076894,0.042913,-0.015723,0.017419,-0.037781,-0.0020715,-0.00017191,0.0055402,0.03222,0.058726,0.51228,0.45933,0.047548,0.15764,0.14144,0.038224,0.050354,0.0096615,0.028043,0.16205,-0.014521,0.17356
0.049785,-0.1392,0.083255,0.048773,-0.025599,0.01028,-0.034554,-0.012965,-0.0086588,0.0073684,0.040268,0.065691,0.57565,0.50484,0.055178,0.12464,0.14645,0.03814,0.056713,0.013963,0.060821,0.43302,-0.0030595,0.15386
0.047687,-0.086711,0.089419,0.050537,-0.034803,0.0066532,-0.033113,-0.021863,-0.013583,0.0092339,0.046858,0.069366,0.60306,0.56019,0.046379,0.096618,0.14433,0.031711,0.064703,0.017033,0.083691,0.67192,-0.00077147,0.13153
0.046866,-0.045564,0.093048,0.050201,-0.040059,0.0059543,-0.03302,-0.025962,-0.016728,0.0089002,0.05018,0.067742,0.59362,0.60915,0.028079,0.083285,0.13667,0.023928,0.065753,0.017972,0.097762,0.84592,-0.0019198,0.11285
0.047125,-0.01491,0.09162,0.048818,-0.039864,0.0055357,-0.031906,-0.024529,-0.020579,0.0066771,0.050529,0.062566,0.54757,0.63375,0.0089514,0.084682,0.1273,0.020538,0.055393,0.016823,0.11143,0.94562,0.00029065,0.10125
0.046109,0.0085936,0.083379,0.045505,-0.035966,0.0029684,-0.027952,-0.019099,-0.025792,0.0046974,0.050525,0.058428,0.46527,0.62274,-0.0048127,0.091972,0.12034,0.023568,0.036933,0.014692,0.13582,0.98542,0.0091739,0.096342
0.041554,0.026498,0.068623,0.038548,-0.032237,-0.001951,-0.021663,-0.012082,-0.030721,0.0044834,0.053366,0.059238,0.35251,0.5772,-0.011836,0.095272,0.11767,0.029894,0.019459,0.013298,0.17775,0.99316,0.022818,0.096528
0.033331,0.037668,0.050448,0.027453,-0.031753,-0.007027,-0.015374,-0.0048726,-0.03335,0.0053201,0.060336,0.065085,0.22634,0.50982,-0.014994,0.091335,0.11767,0.033911,0.011355,0.014056,0.23428,0.99287,0.035731,0.10148
0.023478,0.040598,0.033895,0.014137,-0.034502,-0.00936,-0.011156,0.003037,-0.033472,0.0050879,0.069634,0.072324,0.11311,0.43768,-0.018628,0.084672,0.11638,0.031957,0.014225,0.017147,0.29261,0.98962,0.042445,0.11157
0.014332,0.036149,0.023399,0.0021725,-0.037585,-0.0075048,-0.0091419,0.01329,-0.032814,0.0026527,0.077549,0.076838,0.03635,0.37313,-0.025365,0.082121,0.11052,0.024884,0.022022,0.021259,0.33581,0.96654,0.040859,0.12536
0.0065844,0.028077,0.019925,-0.0054618,-0.03765,-0.0024558,-0.0076338,0.026868,-0.033063,-0.00075435,0.080999,0.077495,0.0018306,0.3183,-0.034527,0.086631,0.10017,0.016968,0.026088,0.024312,0.3511,0.89761,0.033449,0.13854
-0.00096551,0.021041,0.019976,-0.0084232,-0.033466,0.0031211,-0.0046327,0.04273,-0.034027,-0.0027425,0.079379,0.076685,-0.0083182,0.26651,-0.043029,0.095883,0.088902,0.012448,0.021951,0.024766,0.33562,0.76915,0.025728,0.14601
-0.0098287,0.01794,0.017723,-0.009192,-0.026597,0.0066644,0.00070427,0.057993,-0.033944,-0.0023977,0.074455,0.07763,-0.025455,0.20907,-0.047989,0.10609,0.081192,0.012666,0.012273,0.02254,0.29645,0.59507,0.022714,0.14547
-0.020003,0.018645,0.0091908,-0.011012,-0.019924,0.0071804,0.0077881,0.069529,-0.031552,-0.001536,0.068808,0.081223,-0.073509,0.14245,-0.049042,0.11644,0.079053,0.015836,0.0036991,0.018904,0.24562,0.41394,0.025453,0.13875
-0.029657,0.020771,-0.0045069,-0.014949,-0.01548,0.0055317,0.015383,0.075746,-0.027586,-0.0030051,0.064302,0.085393,-0.15196,0.07099,-0.048569,0.12955,0.080468,0.019062,0.00068264,0.015556,0.1938,0.26845,0.029953,0.12961
-0.036613,0.021537,-0.017566,-0.018324,-0.013386,0.0035897,0.02249,0.077202,-0.024077,-0.0075155,0.061577,0.087386,-0.23583,0.0036513,-0.049799,0.14799,0.080866,0.02058,0.0018815,0.013741,0.14672,0.18147,0.02967,0.11982
-0.040178,0.019354,-0.023571,-0.015981,-0.012392,0.0029439,0.028578,0.075706,-0.022301,-0.012237,0.060414,0.086471,-0.29344,-0.052533,-0.054471,0.17029,0.076472,0.020465,0.0021264,0.014015,0.10544,0.14603,0.020249,0.1077
-0.04158,0.014395,-0.020272,-0.0037372,-0.011137,0.0039589,0.03324,0.072714,-0.021704,-0.012911,0.060273,0.084429,-0.30897,-0.09746,-0.061974,0.19027,0.066918,0.019694,-0.0022382,0.016437,0.068751,0.13573,0.0032334,0.09039
-0.042619,0.0082471,-0.011311,0.018425,-0.0089243,0.0056741,0.035893,0.068331,-0.020961,-0.0077673,0.060641,0.083573,-0.29295,-0.13797,-0.070399,0.19978,0.055129,0.018773,-0.0097779,0.020546,0.035377,0.12648,-0.014329,0.068186
-0.043923,0.003041,-0.0035128,0.045806,-0.0056625,0.0065556,0.035915,0.061538,-0.019855,0.00043691,0.061334,0.084535,-0.27298,-0.18295,-0.078128,0.19223,0.044748,0.017248,-0.015332,0.025019,0.0046996,0.11188,-0.024584,0.046423
-0.044548,0.00042148,-0.0019386,0.071477,-0.0015157,0.0056299,0.033058,0.051253,-0.019704,0.0064044,0.062834,0.08605,-0.27249,-0.23695,-0.084368,0.16453,0.037318,0.014398,-0.014735,0.027653,-0.023248,0.10123,-0.024578,0.032891
-0.043287,0.00069591,-0.0066464,0.089831,0.003153,0.003238,0.027694,0.03722,-0.021723,0.0066828,0.066199,0.086688,-0.29429,-0.297,-0.088434,0.1175,0.031539,0.010361,-0.0083776,0.026294,-0.047733,0.10369,-0.01851,0.03226
-0.040278,0.0026022,-0.013521,0.098613,0.0076207,0.00081488,0.0207,0.020087,-0.025107,0.0025137,0.072124,0.08644,-0.32104,-0.35448,-0.089077,0.055797,0.024996,0.0065804,-0.00060311,0.020291,-0.067248,0.11306,-0.014509,0.041925
-0.037195,0.0039665,-0.018053,0.098279,0.010909,-0.00023567,0.013216,0.00087701,-0.027083,-0.0014006,0.079568,0.086371,-0.33126,-0.40085,-0.085049,-0.012459,0.016616,0.0050268,0.0040096,0.011124,-0.080121,0.10599,-0.01828,0.052799
-0.035817,0.0029618,-0.018698,0.089871,0.012287,0.00026336,0.006497,-0.019439,-0.025153,-0.00098366,0.085309,0.086818,-0.31698,-0.43284,-0.076498,-0.077398,0.0076197,0.006633,0.0037618,0.0013283,-0.085807,0.05473,-0.028605,0.054912
-0.036451,-0.00087095,-0.017259,0.073598,0.011694,0.0010086,0.0017889,-0.039775,-0.019415,0.0040419,0.085495,0.086311,-0.28947,-0.45366,-0.065562,-0.13103,0.000268,0.01016,-0.00020151,-0.0075475,-0.085796,-0.055713,-0.038342,0.043951
-0.037889,-0.0066083,-0.016606,0.049318,0.0096228,0.00022571,-5.6946e-005,-0.058425,-0.012632,0.01061,0.078527,0.082719,-0.26956,-0.46962,-0.055107,-0.17066,-0.0042109,0.012608,-0.0062772,-0.016016,-0.082994,-0.21877,-0.040172,0.024015
-0.038978,-0.012921,-0.018161,0.018203,0.0066198,-0.002822,0.00080897,-0.072847,-0.0079372,0.015633,0.066937,0.075764,-0.27154,-0.4851,-0.046519,-0.19865,-0.0065221,0.011222,-0.01422,-0.025533,-0.079935,-0.41138,-0.032536,0.0045652
-0.040145,-0.019173,-0.021304,-0.016198,0.0030673,-0.007102,0.0029755,-0.080195,-0.0063083,0.018915,0.056161,0.068321,-0.29363,-0.49965,-0.038661,-0.21783,-0.0083467,0.0057598,-0.024482,-0.036123,-0.077585,-0.608,-0.021031,-0.0061545
-0.04321,-0.025691,-0.024635,-0.048657,-0.00046619,-0.010535,0.0044287,-0.078387,-0.0060562,0.023119,0.050645,0.064793,-0.32121,-0.50931,-0.029212,-0.22609,-0.010677,-0.00086585,-0.036012,-0.0451,-0.076143,-0.79334,-0.014206,-0.0063042
-0.04951,-0.033031,-0.027394,-0.074286,-0.0028538,-0.011602,0.0039165,-0.067124,-0.0045226,0.031198,0.05033,0.067506,-0.33881,-0.51081,-0.017292,-0.21604,-0.013118,-0.0044541,-0.045134,-0.048386,-0.077229,-0.96523,-0.017074,-0.00052475
-0.058106,-0.041048,-0.029536,-0.090434,-0.0027725,-0.010471,0.0019308,-0.048345,-0.00016856,0.043925,0.050748,0.074079,-0.34048,-0.50517,-0.0049234,-0.18196,-0.014665,-0.0027335,-0.047128,-0.043461,-0.08504,-1.1277,-0.027377,0.0047472
-0.065865,-0.0487,-0.030707,-0.097289,0.00024579,-0.0087083,0.00026253,-0.025989,0.0067892,0.059579,0.046974,0.078217,-0.33138,-0.49766,0.0042025,-0.12897,-0.014972,0.0026194,-0.039468,-0.031398,-0.10466,-1.2812,-0.037369,0.0066675
-0.069547,-0.054784,-0.029652,-0.097098,0.005113,-0.0078551,0.00028663,-0.0051794,0.0153,0.07549,0.038121,0.073614,-0.32124,-0.49413,0.0076702,-0.075896,-0.01478,0.0070364,-0.024032,-0.016238,-0.13823,-1.4178,-0.039615,0.0077878
-0.068191,-0.058819,-0.025108,-0.092757,0.0098083,-0.0081398,0.0014421,0.0090625,0.024541,0.089538,0.028331,0.058186,-0.31657,-0.49671,0.0064206,-0.046608,-0.015222,0.0065978,-0.0063166,-0.0024362,-0.18216,-1.5266,-0.032376,0.013302
-0.063862,-0.061219,-0.01752,-0.086569,0.013039,-0.0083926,0.0014212,0.013416,0.033935,0.10035,0.023213,0.035525,-0.31759,-0.5023,0.0041394,-0.05476,-0.016862,0.0012418,0.0078361,0.0073887,-0.22787,-1.6025,-0.020674,0.026639
-0.060205,-0.062637,-0.0097235,-0.07957,0.015422,-0.0071488,-0.0018822,0.007686,0.042485,0.10677,0.024859,0.012618,-0.32104,-0.5052,0.0045431,-0.093362,-0.019396,-0.0050901,0.015602,0.012863,-0.26614,-1.6504,-0.012525,0.047329
-0.059985,-0.06327,-0.0053838,-0.071539,0.018892,-0.003932,-0.0082935,-0.0047408,0.048763,0.10799,0.029937,-0.0044135,-0.32454,-0.50153,0.0089284,-0.13839,-0.022046,-0.007595,0.018286,0.014875,-0.29175,-1.6797,-0.013348,0.072514
-0.063455,-0.062923,-0.006081,-0.061753,0.024664,0.00033748,-0.015024,-0.01803,0.052085,0.10453,0.03258,-0.013614,-0.3281,-0.49194,0.01592,-0.16475,-0.024025,-0.0044471,0.019637,0.014678,-0.30498,-1.6921,-0.02255,0.099945
-0.068552,-0.061751,-0.0095464,-0.050259,0.031631,0.0040369,-0.018459,-0.026347,0.053795,0.098793,0.029418,-0.017499,-0.3323,-0.48038,0.023244,-0.16265,-0.024611,0.0018713,0.022822,0.013768,-0.30901,-1.6738,-0.034314,0.12913
-0.072539,-0.060794,-0.010949,-0.0389,0.036898,0.0059768,-0.016577,-0.026375,0.056894,0.093854,0.022202,-0.020495,-0.33595,-0.47051,0.029672,-0.14191,-0.023111,0.0067648,0.028228,0.013864,-0.30578,-1.6002,-0.041436,0.15947
-0.073802,-0.061546,-0.0065921,-0.03104,0.038243,0.0061008,-0.010088,-0.018417,0.063691,0.091066,0.015857,-0.025418,-0.33661,-0.46297,0.03544,-0.12149,-0.019196,0.0072366,0.033473,0.016186,-0.29404,-1.4514,-0.039211,0.18767
-0.072628,-0.064794,0.0029507,-0.029671,0.036367,0.0053652,-0.00167,-0.0055503,0.073282,0.088687,0.014015,-0.031302,-0.33332,-0.45579,0.041179,-0.11369,-0.013499,0.0039424,0.035382,0.020452,-0.27125,-1.228,-0.027056,0.20772
-0.070678,-0.069813,0.013099,-0.035013,0.034751,0.0050512,0.0056539,0.0083953,0.081406,0.083237,0.016183,-0.033903,-0.32857,-0.44717,0.046711,-0.11583,-0.0077504,5.8554e-005,0.032466,0.024881,-0.23747,-0.95328,-0.0077,0.21471
-0.069735,-0.074751,0.01892,-0.043611,0.036957,0.0060173,0.0096078,0.020557,0.083386,0.072721,0.01882,-0.028598,-0.32676,-0.43761,0.050953,-0.11508,-0.0039669,-0.0017022,0.02622,0.027737,-0.19733,-0.65945,0.014634,0.20975
-0.070684,-0.077934,0.019099,-0.050119,0.043585,0.0082446,0.0089718,0.02953,0.078063,0.058813,0.018817,-0.013899,-0.33011,-0.42954,0.052811,-0.10069,-0.0031481,-0.0011567,0.020417,0.029124,-0.15792,-0.36951,0.035645,0.20135
-0.07333,-0.078911,0.016673,-0.050725,0.05154,0.010801,0.0038735,0.034873,0.069334,0.045812,0.015951,0.0066678,-0.33604,-0.42487,0.052002,-0.072598,-0.004602,-0.00017542,0.01888,0.031097,-0.12407,-0.088474,0.051728,0.201
-0.07696,-0.07835,0.015866,-0.045562,0.056321,0.012255,-0.0035338,0.036541,0.063653,0.037149,0.012385,0.025768,-0.33874,-0.42322,0.049032,-0.040156,-0.0065857,-0.00049278,0.023103,0.035568,-0.095206,0.18741,0.060611,0.2152
-0.080993,-0.077023,0.017964,-0.038065,0.055395,0.011485,-0.0089197,0.03485,0.065196,0.032597,0.01039,0.036088,-0.33394,-0.42225,0.044633,-0.013944,-0.0077479,-0.0020343,0.031182,0.041916,-0.066855,0.45161,0.062028,0.23997
-0.085138,-0.074961,0.020183,-0.031822,0.04981,0.0085342,-0.0074531,0.030727,0.072543,0.028714,0.010848,0.034452,-0.3226,-0.41983,0.039505,0.0012331,-0.0080845,-0.0031945,0.038727,0.046843,-0.035779,0.67547,0.057901,0.26271
-0.089051,-0.071592,0.018633,-0.027684,0.042849,0.0048963,0.0029584,0.025595,0.079614,0.022014,0.013639,0.023458,-0.31041,-0.41578,0.034687,0.0069057,-0.0085576,-0.0025159,0.04129,0.04712,-0.004423,0.81568,0.05139,0.27098
-0.092034,-0.06661,0.01252,-0.023655,0.037182,0.0027445,0.019286,0.020754,0.080214,0.01184,0.018696,0.0094348,-0.30336,-0.41173,0.031899,0.0066037,-0.0097708,-3.5264e-005,0.036894,0.042882,0.019329,0.83781,0.045159,0.26183
-0.09327,-0.060616,0.0054597,-0.017409,0.033112,0.0033915,0.034461,0.016762,0.07256,0.0003705,0.025957,-0.0017778,-0.30348,-0.40941,0.032973,0.0020772,-0.010965,0.0028547,0.027108,0.038206,0.02724,0.73883,0.04011,0.24418
-0.092505,-0.054873,0.0024958,-0.0088553,0.029236,0.006103,0.041893,0.013494,0.060254,-0.0099245,0.034183,-0.0080892,-0.30809,-0.40914,0.038435,-0.0065471,-0.010311,0.0046655,0.015858,0.037853,0.016686,0.55228,0.035618,0.2318
-0.090529,-0.050448,0.0056479,-0.00026324,0.024449,0.0084038,0.040125,0.010767,0.049176,-0.0187,0.040434,-0.011123,-0.31245,-0.40968,0.046398,-0.018061,-0.0063278,0.0049374,0.0066482,0.042625,-0.0071732,0.33288,0.031005,0.23192
-0.088853,-0.047541,0.01222,0.0060482,0.019153,0.0079293,0.033753,0.0087136,0.043064,-0.027715,0.041624,-0.013269,-0.31331,-0.40929,0.053103,-0.028654,0.00073521,0.0043694,8.7769e-005,0.047457,-0.034633,0.13275,0.026751,0.23893
-0.088695,-0.045508,0.017407,0.0099899,0.014612,0.0044656,0.029703,0.0072991,0.041362,-0.03866,0.037245,-0.014569,-0.31017,-0.40693,0.055221,-0.033424,0.0087109,0.0041143,-0.0064029,0.044451,-0.057417,-0.014617,0.02423,0.23862
-0.090026,-0.043361,0.018532,0.013609,0.011447,0.00041544,0.031964,0.0054187,0.040688,-0.051245,0.030619,-0.01215,-0.30433,-0.40248,0.052369,-0.029345,0.014767,0.0049538,-0.016276,0.029005,-0.072853,-0.095191,0.024234,0.22008
-0.091452,-0.040202,0.01678,0.018739,0.0090346,-0.0009092,0.039066,0.00087501,0.038067,-0.063524,0.026967,-0.0026243,-0.29725,-0.39635,0.047725,-0.016899,0.017224,0.0068298,-0.030575,0.0043709,-0.083501,-0.1058,0.02584,0.18529
-0.09107,-0.035365,0.015024,0.024808,0.00649,0.0020926,0.045989,-0.0080547,0.032897,-0.074114,0.029527,0.014719,-0.29013,-0.38897,0.045884,0.00069511,0.016596,0.0087344,-0.046285,-0.019186,-0.093228,-0.046866,0.026837,0.14813
-0.087702,-0.02847,0.014331,0.029069,0.0040661,0.0079371,0.048382,-0.020435,0.026251,-0.084067,0.037021,0.036592,-0.2843,-0.38081,0.049285,0.019364,0.015053,0.0088606,-0.057842,-0.030508,-0.10323,0.077243,0.025329,0.12281
-0.081624,-0.019656,0.012941,0.029088,0.0032975,0.013136,0.045383,-0.032026,0.018831,-0.096591,0.04474,0.057284,-0.28109,-0.37255,0.055995,0.0354,0.014664,0.0051291,-0.060859,-0.024776,-0.11103,0.25289,0.020888,0.11125
-0.074307,-0.0098328,0.0086464,0.0251,0.0054833,0.014883,0.039216,-0.037483,0.010003,-0.11488,0.04837,0.071772,-0.28079,-0.36492,0.06087,0.045643,0.015782,-0.0037935,-0.055315,-0.0066448,-0.11273,0.4535,0.014219,0.099859
-0.067377,-0.00054026,0.001817,0.020002,0.0099118,0.013146,0.032744,-0.034232,-0.0010903,-0.13988,0.047209,0.078081,-0.28177,-0.35813,0.059561,0.047668,0.016874,-0.017337,-0.045789,0.012988,-0.10628,0.64196,0.0060282,0.068946
-0.061538,0.006756,-0.0044115,0.017042,0.013687,0.010482,0.027494,-0.024919,-0.013703,-0.1696,0.044118,0.077496,-0.28119,-0.35146,0.052373,0.040765,0.016026,-0.032586,-0.038581,0.024297,-0.093214,0.77888,-0.0032859,0.0073274
-0.05625,0.011538,-0.0071257,0.017399,0.013631,0.009833,0.023471,-0.016056,-0.025128,-0.1998,0.042552,0.072957,-0.27709,-0.34372,0.044778,0.02719,0.012894,-0.045271,-0.037869,0.024622,-0.077637,0.83369,-0.012581,-0.079095
-0.050397,0.014603,-0.0066556,0.019821,0.0087739,0.012209,0.020129,-0.013529,-0.032475,-0.22498,0.043528,0.067074,-0.26997,-0.33432,0.043775,0.012276,0.0093609,-0.051949,-0.043535,0.019088,-0.063797,0.79546,-0.018998,-0.17126
-0.043456,0.017567,-0.0063242,0.022466,0.0012704,0.01609,0.017124,-0.018467,-0.035,-0.23896,0.045147,0.061082,-0.26218,-0.32421,0.052645,0.0026194,0.0081523,-0.052042,-0.051881,0.015654,-0.053906,0.67924,-0.018955,-0.24973
-0.036192,0.021804,-0.0090147,0.025065,-0.0051652,0.018862,0.01436,-0.026816,-0.034692,-0.23566,0.044743,0.055111,-0.25569,-0.31554,0.068103,0.0030744,0.010427,-0.048176,-0.058327,0.018681,-0.047517,0.5236,-0.011015,-0.30614
-0.030213,0.02757,-0.01401,0.029365,-0.0081261,0.018925,0.011872,-0.032854,-0.034457,-0.21089,0.041422,0.049188,-0.25032,-0.31016,0.082228,0.014351,0.014438,-0.044345,-0.060117,0.025997,-0.042387,0.37697,0.00198,-0.34518
-0.026642,0.033907,-0.017387,0.037504,-0.0083931,0.016746,0.01005,-0.033519,-0.035553,-0.16493,0.036699,0.044039,-0.24419,-0.30798,0.087868,0.032796,0.016625,-0.043061,-0.057414,0.031442,-0.035987,0.27676,0.014169,-0.3768
-0.024947,0.039368,-0.015723,0.04977,-0.0093548,0.014191,0.0098221,-0.029898,-0.036671,-0.10419,0.032983,0.040979,-0.23601,-0.30682,0.083546,0.052538,0.014452,-0.043631,-0.052488,0.030445,-0.026779,0.23224,0.021009,-0.40584
-0.023017,0.042999,-0.009595,0.063609,-0.01449,0.012882,0.012033,-0.024983,-0.035529,-0.039725,0.031565,0.040977,-0.22674,-0.30388,0.074292,0.068688,0.0086518,-0.042965,-0.047817,0.023912,-0.014706,0.22243,0.02307,-0.42722
-0.018621,0.044899,-0.0035398,0.074581,-0.024918,0.012954,0.016058,-0.020221,-0.031464,0.0171,0.031918,0.043662,-0.2189,-0.2978,0.067946,0.079562,0.0028463,-0.038341,-0.04441,0.017348,-0.00080361,0.21193,0.025618,-0.42975
-0.011227,0.046031,-0.0024468,0.078507,-0.038831,0.013066,0.018979,-0.01428,-0.026649,0.059736,0.0326,0.047209,-0.2139,-0.28952,0.069829,0.086605,0.00067404,-0.029939,-0.041365,0.016173,0.01375,0.17473,0.033997,-0.40501
-0.0027131,0.047536,-0.0075913,0.073379,-0.053013,0.011481,0.01678,-0.0050385,-0.02477,0.089004,0.032564,0.049371,-0.21004,-0.28129,0.079587,0.092295,0.0027567,-0.021042,-0.036828,0.021274,0.028437,0.11018,0.048781,-0.35432
0.0037361,0.050155,-0.015659,0.059981,-0.065063,0.0073565,0.0073649,0.0074601,-0.028286,0.11136,0.031567,0.048969,-0.20309,-0.27462,0.092145,0.097767,0.0060977,-0.015694,-0.02956,0.02842,0.043375,0.040419,0.065049,-0.28922
0.0058502,0.054193,-0.021421,0.041065,-0.07458,0.0014151,-0.0068183,0.02033,-0.036559,0.13396,0.029582,0.046692,-0.18941,-0.26911,0.10164,0.10207,0.006494,-0.015682,-0.019896,0.031881,0.058368,-0.0074996,0.076317,-0.22563
0.0039721,0.059875,-0.021736,0.019658,-0.082618,-0.004336,-0.019255,0.030317,-0.046375,0.15968,0.026185,0.044601,-0.16907,-0.26312,0.10531,0.10357,0.0019711,-0.019266,-0.00936,0.029108,0.071859,-0.020881,0.079514,-0.17598
0.0009032,0.067459,-0.017806,-0.0025362,-0.090155,-0.0075967,-0.023472,0.036986,-0.054401,0.1854,0.020771,0.04473,-0.1467,-0.2557,0.10482,0.10221,-0.0056201,-0.022578,0.00058539,0.022625,0.080876,-0.008294,0.076693,-0.14444
-2.4204e-005,0.076717,-0.014204,-0.02566,-0.096979,-0.0069299,-0.018082,0.043252,-0.059603,0.20443,0.01338,0.047788,-0.12929,-0.24804,0.10443,0.10045,-0.012112,-0.022456,0.0093723,0.017714,0.082469,0.0091112,0.072508,-0.12745
0.0028144,0.086119,-0.015624,-0.050665,-0.10186,-0.0024833,-0.00858,0.052404,-0.063778,0.21146,0.005092,0.052748,-0.12275,-0.2432,0.10776,0.10199,-0.014292,-0.018449,0.016914,0.017955,0.075743,0.013361,0.070247,-0.11824
0.0084663,0.09278,-0.023582,-0.07715,-0.10372,0.004108,-0.0037566,0.064408,-0.069832,0.20636,-0.0026568,0.057366,-0.12951,-0.24437,0.11534,0.10898,-0.012209,-0.012609,0.022531,0.022298,0.062859,0.00013973,0.069944,-0.11157
0.014435,0.093829,-0.035073,-0.1015,-0.10262,0.010601,-0.0089658,0.075309,-0.079176,0.19425,-0.0092833,0.059232,-0.14853,-0.25308,0.12455,0.12005,-0.0088058,-0.0075921,0.024688,0.025888,0.04785,-0.0224,0.069559,-0.10556
0.018616,0.088593,-0.043879,-0.11698,-0.099734,0.015304,-0.021523,0.080674,-0.090249,0.18182,-0.015525,0.056856,-0.17694,-0.26847,0.13158,0.13053,-0.0074102,-0.0047697,0.022257,0.023724,0.0338,-0.043215,0.067349,-0.10028
0.020515,0.079799,-0.043862,-0.11636,-0.096342,0.017817,-0.032334,0.079934,-0.099305,0.17263,-0.022524,0.050425,-0.2117,-0.28781,0.13371,0.13476,-0.0093225,-0.0037184,0.016198,0.01409,0.02038,-0.057678,0.063158,-0.095111
0.020961,0.072387,-0.032524,-0.096054,-0.092796,0.018912,-0.032922,0.077267,-0.10288,0.16512,-0.030308,0.041836,-0.24995,-0.30763,0.13036,0.12889,-0.013345,-0.003067,0.0096651,-0.00077009,0.0038678,-0.070116,0.058105,-0.08748
0.020893,0.070388,-0.012856,-0.059044,-0.088442,0.019732,-0.022308,0.077826,-0.10007,0.15465,-0.037248,0.033791,-0.28805,-0.32466,0.12242,0.11236,-0.017352,-0.0016499,0.0058453,-0.016778,-0.019846,-0.089449,0.053779,-0.073832
0.020577,0.074216,0.0078561,-0.014614,-0.082544,0.020919,-0.0079635,0.082719,-0.092919,0.13774,-0.041212,0.028272,-0.3209,-0.33629,0.111,0.08775,-0.020324,0.0009911,0.0052707,-0.030837,-0.05105,-0.12268,0.05187,-0.052021
0.019902,0.080661,0.021906,0.025519,-0.075314,0.022269,0.00017403,0.087593,-0.084846,0.11507,-0.041436,0.025387,-0.34254,-0.34083,0.096942,0.059474,-0.023081,0.0048163,0.0053644,-0.042087,-0.083935,-0.17106,0.053924,-0.023322
0.019229,0.085645,0.025551,0.052503,-0.068058,0.023029,-0.0022892,0.08638,-0.078471,0.090791,-0.039284,0.023522,-0.34861,-0.33774,0.08139,0.032348,-0.027212,0.0096075,0.0031358,-0.051057,-0.10854,-0.23061,0.06051,0.0070475
0.01963,0.087365,0.020981,0.063949,-0.062268,0.022483,-0.010924,0.076834,-0.074478,0.069051,-0.037059,0.020743,-0.33895,-0.32784,0.066434,0.010284,-0.033302,0.014962,-0.0012453,-0.057975,-0.11637,-0.29516,0.070079,0.031062
0.022048,0.087096,0.014358,0.063772,-0.058517,0.020426,-0.016672,0.062649,-0.072026,0.050932,-0.036034,0.016247,-0.31827,-0.31302,0.05471,-0.0046941,-0.040137,0.020174,-0.003609,-0.061889,-0.10619,-0.35938,0.078831,0.040292
0.026132,0.087162,0.011183,0.058689,-0.056167,0.017316,-0.013805,0.050192,-0.069859,0.034331,-0.035738,0.01057,-0.29381,-0.29555,0.047934,-0.012907,-0.045664,0.024518,0.00093,-0.061266,-0.085743,-0.4201,0.082475,0.029069
0.029971,0.088247,0.012426,0.05392,-0.054129,0.014164,-0.0047078,0.042879,-0.067059,0.016642,-0.035231,0.0045404,-0.2709,-0.27713,0.04575,-0.016608,-0.048872,0.028,0.013149,-0.055318,-0.067408,-0.47567,0.079,-0.0024094
0.031192,0.088715,0.014427,0.050836,-0.051909,0.012186,0.0024901,0.03839,-0.063207,-0.0024747,-0.0349,-0.0017656,-0.24963,-0.25824,0.046239,-0.018733,-0.050827,0.031937,0.027853,-0.044863,-0.060457,-0.52457,0.070281,-0.046532
0.028623,0.086472,0.012545,0.047706,-0.049991,0.012247,0.0011259,0.031036,-0.058509,-0.020865,-0.036592,-0.0088534,-0.2254,-0.23824,0.047875,-0.021495,-0.053825,0.038575,0.037181,-0.032051,-0.065124,-0.56421,0.061048,-0.08991
0.02316,0.081298,0.0054642,0.042418,-0.049255,0.014245,-0.0083483,0.016848,-0.054099,-0.036334,-0.041611,-0.016676,-0.19307,-0.21612,0.051117,-0.025708,-0.059338,0.04969,0.036662,-0.019319,-0.072879,-0.59105,0.055862,-0.11856
0.017188,0.075179,-0.0035159,0.034797,-0.0501,0.016858,-0.01894,-0.0033654,-0.051989,-0.049359,-0.048602,-0.024009,-0.1518,-0.19136,0.057914,-0.031152,-0.066615,0.065246,0.028861,-0.0084866,-0.07267,-0.60167,0.056359,-0.12452
0.013099,0.070333,-0.0092217,0.026778,-0.052102,0.018054,-0.022941,-0.025377,-0.054045,-0.063354,-0.053825,-0.029367,-0.10621,-0.16443,0.069256,-0.037485,-0.073292,0.083443,0.021294,-0.00065645,-0.058407,-0.59416,0.06069,-0.10988
0.012007,0.067048,-0.0088491,0.02051,-0.054522,0.016232,-0.017718,-0.045388,-0.060454,-0.082033,-0.054086,-0.032723,-0.063085,-0.13649,0.082911,-0.044945,-0.077492,0.10253,0.020187,0.0032381,-0.032249,-0.56867,0.065245,-0.085069
0.013388,0.063597,-0.0039621,0.016191,-0.057205,0.011222,-0.0068091,-0.062303,-0.069137,-0.10615,-0.049736,-0.036159,-0.026127,-0.10877,0.093651,-0.054571,-0.079474,0.12297,0.025269,0.0020803,-0.0019137,-0.52713,0.067154,-0.06189
0.015556,0.058277,0.0013138,0.011632,-0.061154,0.0043118,0.0038232,-0.076365,-0.077123,-0.13256,-0.044729,-0.042358,0.0063788,-0.082154,0.096259,-0.068204,-0.0813,0.14779,0.029969,-0.0048597,0.024973,-0.47316,0.065837,-0.045712
0.016553,0.051319,0.0039395,0.0041642,-0.068351,-0.0027903,0.010577,-0.086052,-0.083025,-0.15669,-0.043326,-0.052,0.038929,-0.057219,0.089117,-0.0885,-0.084841,0.17985,0.026897,-0.016648,0.044682,-0.41281,0.062959,-0.032592
0.015061,0.044618,0.003974,-0.0065358,-0.080859,-0.0092297,0.014037,-0.087022,-0.088381,-0.17644,-0.046279,-0.062392,0.073556,-0.034639,0.075457,-0.11865,-0.090014,0.21775,0.014163,-0.029911,0.057027,-0.35532,0.061121,-0.013619
0.011147,0.039543,0.0033669,-0.017102,-0.09955,-0.015402,0.017068,-0.074933,-0.096338,-0.19452,-0.049953,-0.068813,0.10687,-0.015223,0.061123,-0.16119,-0.094865,0.25382,-0.0025288,-0.039768,0.062658,-0.31151,0.062118,0.016733
0.0064794,0.035181,0.0032421,-0.022082,-0.123,-0.022169,0.021606,-0.049978,-0.10856,-0.21727,-0.049291,-0.067745,0.13226,0.00071357,0.050516,-0.21591,-0.097333,0.2768,-0.013668,-0.042367,0.061597,-0.28898,0.065468,0.054908
0.0036605,0.028938,0.0027484,-0.017657,-0.14724,-0.029662,0.027119,-0.018915,-0.12314,-0.25061,-0.042133,-0.059508,0.14546,0.014242,0.043851,-0.27792,-0.096995,0.27827,-0.012714,-0.037351,0.054463,-0.28643,0.068009,0.090062
0.0047243,0.018946,0.0006255,-0.0048028,-0.16674,-0.036801,0.031612,0.0078044,-0.13559,-0.29575,-0.031261,-0.048214,0.14813,0.027854,0.037813,-0.33763,-0.095208,0.25834,-0.00076764,-0.028262,0.04443,-0.29216,0.065216,0.11214
0.0096571,0.0058516,-0.0024757,0.010645,-0.17655,-0.041876,0.033703,0.021982,-0.14222,-0.34706,-0.022536,-0.039072,0.14632,0.04373,0.02895,-0.3834,-0.093653,0.22562,0.014238,-0.020343,0.036742,-0.28983,0.054131,0.11971
0.016111,-0.0077658,-0.0038413,0.02132,-0.17437,-0.043573,0.033739,0.022157,-0.14314,-0.39332,-0.020704,-0.035015,0.14499,0.060732,0.017063,-0.40594,-0.092718,0.19138,0.023078,-0.017283,0.035155,-0.26869,0.036326,0.12105
0.020773,-0.019677,-0.0013216,0.022776,-0.16116,-0.0415,0.033235,0.013259,-0.14197,-0.42158,-0.02612,-0.035096,0.14388,0.072351,0.0059219,-0.40203,-0.091207,0.16197,0.021369,-0.019259,0.038281,-0.23065,0.018411,0.12727
0.02152,-0.029634,0.003862,0.015938,-0.13992,-0.036001,0.033506,0.0020997,-0.14282,-0.42197,-0.034706,-0.035744,0.13861,0.068225,0.00081508,-0.37504,-0.087546,0.13594,0.011949,-0.023465,0.039754,-0.18729,0.0086338,0.14312
0.018731,-0.038833,0.0073727,0.0059664,-0.1135,-0.027789,0.03482,-0.0073462,-0.14704,-0.39093,-0.040974,-0.033926,0.12594,0.039851,0.0048217,-0.3323,-0.081336,0.10777,0.0021461,-0.026349,0.033018,-0.14824,0.011173,0.16278
0.014736,-0.047964,0.0054685,-0.0014048,-0.083294,-0.017888,0.036613,-0.015187,-0.15287,-0.33156,-0.041867,-0.029893,0.1077,-0.012336,0.016546,-0.28123,-0.073894,0.074774,-0.0016485,-0.025709,0.017101,-0.10999,0.022308,0.17385
0.011917,-0.055989,-0.0010911,-0.0033209,-0.049897,-0.0076775,0.038243,-0.023127,-0.15809,-0.25085,-0.038773,-0.027414,0.089614,-0.075631,0.030835,-0.22685,-0.067372,0.040687,0.0020036,-0.021443,-0.0017299,-0.055521,0.032166,0.16597
0.011096,-0.060836,-0.0068985,-0.00082529,-0.014815,0.0015416,0.039463,-0.031252,-0.16302,-0.15619,-0.03642,-0.031171,0.076062,-0.12911,0.041833,-0.17191,-0.063228,0.012773,0.0095842,-0.015075,-0.014338,0.033764,0.031665,0.13716
0.011437,-0.06123,-0.0062379,0.0027688,0.018479,0.0094944,0.040306,-0.03732,-0.17072,-0.053673,-0.03938,-0.04304,0.066806,-0.15375,0.046254,-0.11851,-0.061263,-0.004798,0.015975,-0.0088352,-0.01573,0.16259,0.019595,0.093745
0.011697,-0.057848,0.0016511,0.0045285,0.045543,0.017478,0.040719,-0.038945,-0.18405,0.050587,-0.048519,-0.059933,0.059922,-0.14229,0.044871,-0.069236,-0.059962,-0.015022,0.018209,-0.0048499,-0.0088152,0.3156,0.0039371,0.045244
0.011489,-0.052867,0.011202,0.0035798,0.063371,0.02753,0.04043,-0.036114,-0.20216,0.14787,-0.059888,-0.07487,0.058895,-0.1021,0.041547,-0.026627,-0.057832,-0.025695,0.016916,-0.0044082,-0.0016936,0.46529,-0.0042381,-0.00070377
0.011411,-0.048559,0.014659,0.00092768,0.072147,0.040428,0.039171,-0.031237,-0.21966,0.22646,-0.066998,-0.080657,0.076444,-0.048909,0.040686,0.0079435,-0.054654,-0.042687,0.014997,-0.0073268,-0.00088477,0.58698,0.00032616,-0.039835
0.012121,-0.046212,0.0084541,-0.001951,0.074633,0.054146,0.036945,-0.026602,-0.22952,0.27519,-0.065045,-0.073685,0.12914,0.0038814,0.044666,0.034735,-0.051573,-0.064887,0.015136,-0.011803,-0.0064249,0.66892,0.012692,-0.069764
0.013421,-0.045927,-0.0036218,-0.0043606,0.073533,0.064429,0.034055,-0.021907,-0.22713,0.28918,-0.054184,-0.055436,0.22464,0.052231,0.05264,0.054844,-0.049861,-0.085311,0.018142,-0.015195,-0.01297,0.71168,0.021636,-0.088726
0.014268,-0.046941,-0.013297,-0.0065434,0.069057,0.067474,0.030923,-0.014585,-0.21226,0.27335,-0.039495,-0.031115,0.35111,0.10019,0.061227,0.069132,-0.049357,-0.097298,0.022941,-0.015517,-0.015568,0.72191,0.018639,-0.096511
0.013626,-0.048012,-0.014431,-0.0089189,0.058977,0.062749,0.027967,-0.0028788,-0.18773,0.24041,-0.027748,-0.006864,0.47814,0.15237,0.066596,0.078112,-0.048076,-0.10028,0.02766,-0.012654,-0.014585,0.7099,0.0044484,-0.096325
0.01124,-0.04793,-0.0078187,-0.011368,0.041382,0.053537,0.025647,0.01128,-0.15677,0.2044,-0.023357,0.012445,0.57084,0.20719,0.066727,0.082859,-0.043599,-0.10021,0.030734,-0.0083088,-0.015218,0.69306,-0.012132,-0.094687
0.0076395,-0.04634,-0.00022465,-0.013307,0.01788,0.044597,0.024437,0.022614,-0.12174,0.17412,-0.026288,0.023969,0.60801,0.25648,0.062537,0.085768,-0.035223,-0.10455,0.031491,-0.0046239,-0.022151,0.69759,-0.021859,-0.098242
0.0035555,-0.044474,0.0014598,-0.014375,-0.0056933,0.038739,0.024465,0.026168,-0.085078,0.15102,-0.03296,0.026813,0.59209,0.29156,0.057154,0.089977,-0.024903,-0.1163,0.030238,-0.0025786,-0.034503,0.74962,-0.022441,-0.10952
-0.00052569,-0.044866,-0.0040324,-0.014855,-0.022097,0.03514,0.025014,0.021278,-0.050451,0.13236,-0.038933,0.022038,0.54431,0.31015,0.053781,0.097583,-0.01587,-0.13212,0.028119,-0.0014606,-0.046008,0.85748,-0.019698,-0.12508
-0.0042782,-0.049681,-0.011371,-0.015273,-0.027122,0.030716,0.024471,0.01239,-0.021924,0.11616,-0.041297,0.012821,0.48953,0.31844,0.053543,0.10808,-0.010003,-0.14575,0.026825,0.00017391,-0.050434,0.99915,-0.022043,-0.1377
-0.007263,-0.058668,-0.013005,-0.01555,-0.022177,0.023325,0.021163,0.0059834,-0.0011559,0.10377,-0.03952,0.003913,0.44263,0.32684,0.054815,0.11838,-0.0063752,-0.15343,0.028071,0.0029323,-0.047293,1.1289,-0.033299,-0.14102
-0.009035,-0.068551,-0.0050863,-0.014737,-0.012911,0.014019,0.01468,0.0061389,0.014575,0.09848,-0.034916,-0.00012908,0.4055,0.3432,0.054533,0.12444,-0.0025157,-0.15707,0.032922,0.0058064,-0.042382,1.202,-0.049635,-0.13324
-0.009625,-0.074767,0.009806,-0.011828,-0.0048781,0.0064353,0.006577,0.012241,0.03085,0.10222,-0.029571,0.0027899,0.37447,0.3687,0.050516,0.12335,0.0026924,-0.16279,0.041249,0.0068883,-0.04242,1.2012,-0.062454,-0.11785
-0.0097433,-0.074451,0.024959,-0.0070324,0.0003479,0.0038885,-0.00042176,0.020222,0.051515,0.11347,-0.025333,0.011167,0.34925,0.3991,0.043082,0.11454,0.0073677,-0.1767,0.051631,0.0050006,-0.048509,1.1431,-0.064297,-0.10138
-0.010218,-0.068337,0.034516,-0.00224,0.005618,0.0066193,-0.0043957,0.025834,0.074724,0.1279,-0.023083,0.020925,0.33437,0.42928,0.034796,0.099616,0.0081457,-0.20108,0.061819,0.00089338,-0.054417,1.061,-0.053113,-0.090205
-0.011101,-0.060054,0.037032,-2.3884e-005,0.015034,0.01145,-0.0058719,0.027173,0.093407,0.14054,-0.022475,0.027956,0.33227,0.45706,0.028683,0.081746,0.0037412,-0.23316,0.069519,-0.0029878,-0.051421,0.97787,-0.032388,-0.088016
-0.011487,-0.053425,0.035159,-0.0018507,0.029855,0.01407,-0.007617,0.024963,0.10038,0.14759,-0.022402,0.0303,0.33596,0.48357,0.026398,0.065135,-0.0027776,-0.26635,0.073187,-0.0040194,-0.035593,0.89178,-0.0080764,-0.094308
-0.010486,-0.04996,0.032454,-0.0069692,0.046784,0.012042,-0.01247,0.021205,0.094052,0.14722,-0.022064,0.028449,0.33009,0.51045,0.027659,0.054688,-0.005451,-0.29229,0.072528,-0.0011075,-0.011202,0.78463,0.01488,-0.10405
-0.0084835,-0.048347,0.03045,-0.012924,0.059854,0.0061837,-0.020842,0.017803,0.08001,0.13982,-0.021814,0.023894,0.30159,0.53706,0.031037,0.05498,0.00026662,-0.30289,0.068506,0.00458,0.012606,0.64434,0.034258,-0.10886
-0.0072585,-0.045959,0.028402,-0.017267,0.064325,-0.00055833,-0.030001,0.016025,0.066905,0.12813,-0.02288,0.017435,0.25087,0.55996,0.035112,0.068151,0.013951,-0.29237,0.062789,0.010263,0.028904,0.48193,0.050153,-0.10004
-0.0085359,-0.040934,0.025436,-0.01904,0.059607,-0.0055483,-0.035953,0.016476,0.060175,0.11653,-0.025984,0.0086783,0.19289,0.57498,0.039025,0.091678,0.030483,-0.25925,0.056798,0.013085,0.037816,0.3297,0.06352,-0.072987
-0.012274,-0.033321,0.022639,-0.018924,0.04932,-0.0081119,-0.036558,0.018928,0.058692,0.10881,-0.030152,-0.0031996,0.14595,0.57982,0.042351,0.11802,0.043944,-0.20768,0.050933,0.011598,0.045299,0.22234,0.074936,-0.03046
-0.016493,-0.024838,0.022871,-0.018138,0.038892,-0.0092182,-0.033413,0.022082,0.056854,0.1053,-0.033116,-0.018555,0.11718,0.57521,0.04486,0.13751,0.051823,-0.14668,0.044676,0.0064589,0.057421,0.17436,0.084305,0.017722
-0.019018,-0.01774,0.028311,-0.017237,0.032637,-0.0098611,-0.030938,0.023927,0.049884,0.1018,-0.033296,-0.037261,0.097667,0.56428,0.046548,0.14337,0.056127,-0.087158,0.037731,8.6066e-005,0.075289,0.16751,0.091426,0.059235
-0.019474,-0.013545,0.038022,-0.015865,0.032053,-0.0099017,-0.033287,0.022919,0.037649,0.091889,-0.031574,-0.059345,0.07152,0.55189,0.047643,0.1356,0.060793,-0.038082,0.031404,-0.0044884,0.094759,0.15524,0.096734,0.085448
-0.019435,-0.012112,0.047883,-0.013489,0.035826,-0.00852,-0.04139,0.019217,0.024093,0.071608,-0.030956,-0.08512,0.030891,0.54498,0.048158,0.12054,0.067908,-0.0039162,0.028759,-0.0050435,0.11057,0.082054,0.10136,0.095087
-0.020452,-0.011397,0.053188,-0.01026,0.040926,-0.0057475,-0.052222,0.014808,0.013457,0.042659,-0.034023,-0.11409,-0.016482,0.55289,0.047222,0.10613,0.075992,0.015531,0.032841,-0.0012241,0.12077,-0.090093,0.10624,0.092823
-0.021998,-0.0081162,0.051832,-0.0071979,0.044049,-0.0033983,-0.060679,0.012188,0.0069578,0.011407,-0.040331,-0.14336,-0.053643,0.58504,0.043112,0.096314,0.081559,0.023487,0.043939,0.0053086,0.12745,-0.36066,0.11095,0.084106
-0.021653,0.00077724,0.04547,-0.0056193,0.042948,-0.0042058,-0.062645,0.012578,0.0025745,-0.015787,-0.046183,-0.16734,-0.068442,0.6448,0.034581,0.089131,0.08231,0.024392,0.058169,0.011781,0.1335,-0.68642,0.11351,0.070579
-0.017642,0.016545,0.037855,-0.0063742,0.037348,-0.0096654,-0.057254,0.015166,-0.0025904,-0.036927,-0.047198,-0.17967,-0.062395,0.72298,0.022743,0.079803,0.079178,0.022799,0.069064,0.01583,0.13885,-0.99972,0.11158,0.049795
-0.011224,0.038081,0.031919,-0.00938,0.029055,-0.018411,-0.047094,0.017977,-0.0099552,-0.054772,-0.041559,-0.17671,-0.047102,0.79685,0.011728,0.065942,0.075619,0.022776,0.07148,0.016782,0.14004,-1.2413,0.1043,0.019154
-0.0062644,0.062767,0.028058,-0.013523,0.021074,-0.026662,-0.036414,0.019571,-0.019061,-0.073108,-0.03121,-0.16006,-0.032767,0.83864,0.0068605,0.050112,0.074963,0.027163,0.064972,0.015874,0.13367,-1.3882,0.093012,-0.019994
-0.0059907,0.088051,0.024787,-0.016872,0.016157,-0.030588,-0.028458,0.020072,-0.028844,-0.092455,-0.020093,-0.13617,-0.02026,0.83031,0.011125,0.037566,0.078067,0.036679,0.053876,0.015249,0.12049,-1.4577,0.080345,-0.062466
-0.0098741,0.11231,0.020772,-0.017341,0.015654,-0.028831,-0.023496,0.020727,-0.038877,-0.10916,-0.011088,-0.11295,-0.003807,0.77472,0.022483,0.031481,0.083069,0.049672,0.043905,0.016374,0.10624,-1.4846,0.068358,-0.10414
-0.013772,0.13424,0.01628,-0.013899,0.019313,-0.023296,-0.018761,0.022511,-0.04943,-0.11859,-0.0042956,-0.095686,0.019267,0.6946,0.034387,0.030183,0.087172,0.063058,0.037937,0.018955,0.09807,-1.4911,0.057659,-0.14721
-0.013519,0.15156,0.01289,-0.0077396,0.025814,-0.017684,-0.010505,0.025099,-0.060674,-0.11948,0.0021137,-0.084834,0.041928,0.61865,0.039547,0.028844,0.088762,0.074055,0.034369,0.021131,0.09938,-1.4739,0.048121,-0.20014
-0.0087905,0.16071,0.012012,-0.0022763,0.033368,-0.014999,0.0030447,0.027096,-0.07212,-0.11544,0.009516,-0.077037,0.050626,0.56403,0.034448,0.023898,0.088115,0.081501,0.029179,0.020806,0.10733,-1.4207,0.040183,-0.27071
-0.0036007,0.15841,0.013655,-0.0012418,0.040025,-0.015851,0.019904,0.027285,-0.082753,-0.11234,0.017212,-0.068205,0.035376,0.5277,0.021444,0.01604,0.086295,0.085868,0.019737,0.017186,0.11485,-1.339,0.035017,-0.357
-0.0028163,0.14411,0.016375,-0.0058404,0.044026,-0.018648,0.035221,0.025721,-0.091345,-0.11411,0.022992,-0.056306,-0.0024982,0.49234,0.00705,0.0093121,0.083535,0.088218,0.0070859,0.011416,0.11541,-1.2671,0.033171,-0.44376
-0.0077456,0.12105,0.01818,-0.013217,0.044612,-0.02121,0.044423,0.023701,-0.096394,-0.12067,0.025291,-0.042164,-0.051507,0.44186,-0.0022212,0.0074641,0.078733,0.08911,-0.0050171,0.0058679,0.10707,-1.2504,0.033089,-0.50816
-0.014781,0.094743,0.017508,-0.017985,0.042882,-0.022431,0.046328,0.022656,-0.095945,-0.12987,0.024903,-0.028445,-0.098233,0.37452,-0.0035697,0.011082,0.070574,0.088292,-0.013104,0.0026407,0.093315,-1.3008,0.031377,-0.5309
-0.018308,0.069776,0.013697,-0.016117,0.041644,-0.022759,0.043756,0.02296,-0.088214,-0.14137,0.024568,-0.01829,-0.13502,0.30432,0.001075,0.017736,0.059111,0.085142,-0.016307,0.0024233,0.08093,-1.3763,0.025058,-0.50451
-0.015227,0.047687,0.0069068,-0.0082163,0.04368,-0.02332,0.041099,0.023729,-0.073217,-0.1587,0.026621,-0.014667,-0.1611,0.25024,0.0069527,0.02436,0.046105,0.07924,-0.01622,0.004529,0.076566,-1.4042,0.014013,-0.43347
-0.0070559,0.027475,-0.0021886,0.00067653,0.049448,-0.024586,0.040807,0.023745,-0.054188,-0.18714,0.030676,-0.020131,-0.17786,0.22194,0.0096918,0.029218,0.033644,0.070627,-0.01498,0.0078947,0.083749,-1.3342,0.0013813,-0.32844
0.0021227,0.0080827,-0.012789,0.0047998,0.056237,-0.02576,0.041655,0.022586,-0.036967,-0.22875,0.033511,-0.035932,-0.18384,0.21276,0.0077683,0.031828,0.022362,0.05987,-0.013689,0.011969,0.10106,-1.1767,-0.0086219,-0.20186
0.0097387,-0.0096615,-0.024273,0.0019335,0.059877,-0.025411,0.040122,0.020853,-0.026909,-0.2784,0.031542,-0.060281,-0.17423,0.20467,0.0029297,0.031624,0.011163,0.04818,-0.012575,0.016554,0.12202,-0.98998,-0.01372,-0.068894
0.01692,-0.023421,-0.036155,-0.0052971,0.057839,-0.022841,0.033574,0.0193,-0.02531,-0.32426,0.024018,-0.087229,-0.14476,0.18147,-0.0013633,0.027386,-0.0010993,0.037413,-0.012286,0.02076,0.1374,-0.82744,-0.014984,0.049751
0.026737,-0.031493,-0.047481,-0.011976,0.051033,-0.019044,0.022569,0.01779,-0.028334,-0.35264,0.014165,-0.10804,-0.096022,0.14035,-0.0023475,0.018332,-0.013634,0.029506,-0.01457,0.022313,0.13965,-0.69218,-0.015695,0.13126
0.04027,-0.034455,-0.056053,-0.014855,0.042669,-0.016419,0.010563,0.015245,-0.029729,-0.35418,0.0070561,-0.11519,-0.034722,0.093837,0.0002472,0.0057356,-0.023672,0.025307,-0.021329,0.01837,0.12764,-0.54202,-0.018889,0.16295
0.054387,-0.034705,-0.058438,-0.01424,0.035266,-0.017347,0.0016231,0.01078,-0.025344,-0.32743,0.0056967,-0.10672,0.028672,0.061091,0.0040441,-0.0068365,-0.028788,0.023623,-0.032858,0.0076154,0.10823,-0.34201,-0.025745,0.15569
0.063626,-0.034419,-0.051421,-0.012513,0.028649,-0.022643,-0.0018244,0.0049372,-0.015759,-0.2781,0.0085003,-0.087567,0.08353,0.055091,0.0055457,-0.015264,-0.029476,0.021627,-0.047044,-0.0079609,0.092834,-0.11522,-0.035818,0.1453
0.064701,-0.034006,-0.034245,-0.011205,0.0208,-0.03099,0.0002629,-0.00033056,-0.0050041,-0.21542,0.010354,-0.066689,0.12167,0.074919,0.0023827,-0.017219,-0.029244,0.016779,-0.060416,-0.02337,0.090416,0.058827,-0.048306,0.17574
0.059548,-0.032476,-0.0099121,-0.0096908,0.010583,-0.039733,0.0060971,-0.0031646,0.0031252,-0.14839,0.0065907,-0.051919,0.13811,0.10813,-0.0051133,-0.013138,-0.031687,0.008916,-0.070173,-0.033169,0.10169,0.10273,-0.062742,0.27254
0.054008,-0.029171,0.015804,-0.0066002,-0.00045227,-0.046474,0.012787,-0.0035435,0.0076071,-0.083753,-0.0032317,-0.046233,0.13079,0.14095,-0.014034,-0.0051244,-0.037116,0.00060181,-0.075416,-0.034552,0.11896,0.0085818,-0.078529,0.42478
0.053134,-0.024971,0.03711,-0.0021119,-0.0090083,-0.050409,0.016755,-0.0035877,0.009498,-0.025525,-0.014729,-0.04781,0.10045,0.16878,-0.02071,0.0050329,-0.042075,-0.0048651,-0.076706,-0.028692,0.13177,-0.14425,-0.094247,0.58925
0.057252,-0.021754,0.050634,0.0016004,-0.012848,-0.052661,0.014498,-0.0059389,0.0093912,0.025101,-0.021726,-0.052947,0.051671,0.19997,-0.023121,0.016871,-0.042556,-0.0062606,-0.074696,-0.019404,0.13395,-0.23828,-0.10807,0.71471
0.062218,-0.020685,0.055827,0.0024386,-0.012856,-0.055551,0.0043321,-0.011475,0.006271,0.070246,-0.02057,-0.058857,-0.0052427,0.25074,-0.022278,0.030555,-0.038098,-0.0055661,-0.069369,-0.010283,0.12694,-0.19484,-0.11938,0.76989
0.063492,-0.021094,0.053569,0.00076803,-0.012506,-0.061338,-0.011667,-0.018318,-0.00066126,0.11534,-0.012556,-0.064135,-0.053214,0.33499,-0.021466,0.045459,-0.032802,-0.0062872,-0.060606,-0.0025789,0.1172,-0.018381,-0.13003,0.75761
0.060221,-0.021049,0.044823,-0.00065414,-0.015279,-0.071083,-0.027546,-0.023068,-0.0090913,0.1673,-0.002884,-0.067393,-0.070987,0.45553,-0.02363,0.059684,-0.032029,-0.010383,-0.049318,0.0047001,0.11085,0.22248,-0.14354,0.70871
0.05565,-0.019066,0.030768,0.00047796,-0.022194,-0.084102,-0.036419,-0.023308,-0.013156,0.23068,0.0027996,-0.06636,-0.040705,0.60147,-0.028686,0.071176,-0.037586,-0.016602,-0.037784,0.01287,0.11009,0.45467,-0.16201,0.66316
0.053784,-0.015286,0.013905,0.00316,-0.031267,-0.098171,-0.03511,-0.019439,-0.0068866,0.30395,0.0017304,-0.05905,0.042059,0.75235,-0.03295,0.079411,-0.045806,-0.021814,-0.028669,0.021702,0.11378,0.64947,-0.18307,0.65048
0.055639,-0.011069,-0.001691,0.0033823,-0.039013,-0.11033,-0.026978,-0.014438,0.010976,0.37874,-0.0048797,-0.046196,0.1624,0.88605,-0.031506,0.085934,-0.050364,-0.024181,-0.023504,0.029265,0.12034,0.82494,-0.1995,0.67843
0.058605,-0.0075026,-0.012043,-0.0021482,-0.042732,-0.11792,-0.020123,-0.011836,0.035218,0.44344,-0.013341,-0.032597,0.29065,0.98591,-0.022038,0.092999,-0.047359,-0.025202,-0.021929,0.033548,0.12968,1.0094,-0.20249,0.73207
0.059182,-0.0043954,-0.015768,-0.012153,-0.042119,-0.11939,-0.021686,-0.013424,0.057623,0.48922,-0.020255,-0.025652,0.39761,1.0446,-0.0072172,0.1014,-0.038225,-0.028577,-0.022271,0.034323,0.14218,1.2044,-0.1869,0.78177
0.056172,-0.00079106,-0.015075,-0.020673,-0.039446,-0.1145,-0.032449,-0.018243,0.073334,0.51423,-0.02462,-0.031578,0.4716,1.0645,0.0063945,0.10951,-0.02812,-0.036703,-0.02286,0.033479,0.1564,1.3782,-0.15471,0.79727
0.051195,0.0035277,-0.014,-0.021388,-0.038326,-0.10405,-0.046135,-0.023349,0.084969,0.5226,-0.02795,-0.051555,0.52512,1.0557,0.012313,0.11448,-0.021597,-0.047937,-0.02295,0.033484,0.16822,1.4926,-0.11452,0.76308
0.046299,0.0071471,-0.015166,-0.01293,-0.041646,-0.089549,-0.054218,-0.02568,0.10089,0.51889,-0.032441,-0.080105,0.5845,1.032,0.0081086,0.11479,-0.019497,-0.057309,-0.022648,0.035435,0.17278,1.5331,-0.07712,0.68734
0.041326,0.0078516,-0.017884,-0.0005895,-0.049684,-0.073116,-0.052499,-0.023808,0.12863,0.50243,-0.03855,-0.10669,0.66861,1.0051,-0.003415,0.11162,-0.019454,-0.060442,-0.022154,0.03862,0.1676,1.5186,-0.050305,0.59744
0.033699,0.0046016,-0.019428,0.0072566,-0.059602,-0.057535,-0.044158,-0.018617,0.16846,0.46681,-0.043871,-0.1199,0.77182,0.97764,-0.016394,0.10797,-0.018927,-0.057444,-0.02119,0.04203,0.15418,1.483,-0.036071,0.52361
0.020716,-0.0011765,-0.01843,0.0052116,-0.066995,-0.045877,-0.036891,-0.012655,0.21185,0.40536,-0.044427,-0.1125,0.86435,0.9401,-0.025586,0.10599,-0.017635,-0.053232,-0.019199,0.046133,0.13674,1.4498,-0.031667,0.48203
0.0019936,-0.0063768,-0.017242,-0.0053539,-0.068839,-0.040387,-0.036687,-0.0086344,0.24607,0.31879,-0.037694,-0.084874,0.91035,0.8743,-0.029068,0.10527,-0.017378,-0.053657,-0.016074,0.052741,0.11915,1.4188,-0.032989,0.47098
-0.020147,-0.0085893,-0.020791,-0.01754,-0.065864,-0.041098,-0.043457,-0.0079686,0.26173,0.21835,-0.025168,-0.04516,0.89094,0.7659,-0.028696,0.10359,-0.019928,-0.060532,-0.012594,0.062641,0.10271,1.3729,-0.037557,0.48373
-0.042269,-0.0079867,-0.032548,-0.023844,-0.062398,-0.045283,-0.051911,-0.010142,0.25811,0.12144,-0.012238,-0.0054122,0.81574,0.61795,-0.028695,0.099392,-0.02524,-0.069907,-0.0099191,0.07325,0.086348,1.2942,-0.045102,0.52582
-0.061416,-0.0069308,-0.05105,-0.02084,-0.063426,-0.048574,-0.056507,-0.013222,0.24312,0.042264,-0.0050617,0.0242,0.71563,0.45515,-0.03346,0.093329,-0.031464,-0.075294,-0.0084556,0.079072,0.068619,1.1746,-0.055959,0.61883
-0.075207,-0.0075267,-0.070331,-0.010452,-0.070846,-0.047368,-0.055954,-0.015121,0.22834,-0.015429,-0.0064945,0.039922,0.6233,0.31293,-0.04543,0.087058,-0.036383,-0.07319,-0.0072057,0.075323,0.049808,1.0174,-0.069125,0.78351
-0.080987,-0.0092995,-0.084302,0.0023784,-0.081751,-0.040915,-0.053516,-0.01478,0.22246,-0.058266,-0.014123,0.044923,0.55592,0.21672,-0.063634,0.080268,-0.038791,-0.066032,-0.0045475,0.061932,0.032285,0.83239,-0.081862,1.0149
-0.075821,-0.0091568,-0.091479,0.013302,-0.09017,-0.031507,-0.053296,-0.012541,0.227,-0.096081,-0.021939,0.04577,0.51112,0.16648,-0.083607,0.069197,-0.038873,-0.059915,-8.1205e-007,0.044319,0.019088,0.63467,-0.091235,1.2719
-0.05814,-0.0037982,-0.095785,0.020865,-0.09105,-0.022569,-0.056062,-0.0095941,0.23663,-0.13357,-0.024413,0.047552,0.47607,0.1386,-0.099258,0.048827,-0.037706,-0.059066,0.0047464,0.030066,0.011899,0.44342,-0.096368,1.4933
-0.029756,0.0074453,-0.10237,0.026439,-0.083607,-0.016185,-0.058334,-0.0069921,0.24329,-0.16706,-0.019969,0.05105,0.44072,0.10447,-0.10616,0.01753,-0.036568,-0.062117,0.0069743,0.024165,0.0098821,0.27874,-0.099585,1.6298
0.0039615,0.021713,-0.11196,0.03248,-0.071687,-0.012047,-0.055335,-0.0049903,0.24142,-0.18828,-0.011523,0.053437,0.40461,0.05118,-0.10439,-0.019861,-0.036425,-0.063579,0.0055979,0.026669,0.010018,0.15363,-0.10535,1.6656
0.036526,0.034336,-0.11883,0.040463,-0.061106,-0.0085763,-0.045096,-0.0031116,0.23099,-0.19119,-0.0042044,0.051209,0.37363,-0.011889,-0.098669,-0.053773,-0.037601,-0.059169,0.0028165,0.034126,0.0085088,0.066556,-0.11751,1.6151
0.063751,0.041742,-0.11474,0.049643,-0.055998,-0.0050404,-0.0302,-0.00075395,0.21653,-0.17616,-0.0023057,0.042754,0.35148,-0.064909,-0.095268,-0.075686,-0.03961,-0.050052,0.0026528,0.042797,0.0022568,0.0017963,-0.13655,1.4987
0.085419,0.043422,-0.095917,0.057125,-0.056649,-0.0026768,-0.01589,0.0022474,0.20327,-0.14856,-0.0075143,0.028861,0.33404,-0.096851,-0.097548,-0.083641,-0.041354,-0.042087,0.0071945,0.050559,-0.010348,-0.061136,-0.15881,1.3225
0.1039,0.041836,-0.067262,0.05929,-0.05997,-0.0038475,-0.0062839,0.0055775,0.19313,-0.11402,-0.018858,0.011533,0.31149,-0.11546,-0.10356,-0.083068,-0.04178,-0.040744,0.014001,0.056438,-0.029377,-0.13524,-0.1782,1.0802
0.12093,0.040714,-0.040106,0.053959,-0.061895,-0.010053,-0.0018454,0.0088922,0.18359,-0.07515,-0.033449,-0.0072661,0.27596,-0.1402,-0.10759,-0.08229,-0.040623,-0.046301,0.017578,0.05947,-0.053534,-0.21967,-0.18932,0.77391
0.13535,0.042933,-0.024884,0.042126,-0.05993,-0.02056,9.1162e-005,0.012266,0.16986,-0.032594,-0.047194,-0.025718,0.2277,-0.1856,-0.10453,-0.086355,-0.038622,-0.05358,0.014081,0.058939,-0.080098,-0.30255,-0.19007,0.43309
0.14335,0.04897,-0.024216,0.027931,-0.054262,-0.03265,0.0025572,0.016106,0.14853,0.011145,-0.055602,-0.041428,0.17419,-0.25022,-0.093791,-0.094012,-0.03698,-0.056311,0.0050184,0.055914,-0.10488,-0.36936,-0.18209,0.11147
0.14095,0.056456,-0.03147,0.016523,-0.04701,-0.043024,0.0064497,0.020492,0.11983,0.049372,-0.055294,-0.051203,0.12293,-0.32058,-0.07966,-0.099839,-0.036482,-0.05214,-0.0037466,0.053771,-0.12292,-0.41071,-0.16936,-0.13786
0.12663,0.061071,-0.035568,0.011051,-0.04028,-0.049124,0.010273,0.024489,0.087224,0.073254,-0.045942,-0.052297,0.074171,-0.38574,-0.068216,-0.099215,-0.037048,-0.044016,-0.0071044,0.056016,-0.13032,-0.42651,-0.15627,-0.29114
0.10247,0.058679,-0.028333,0.010882,-0.034427,-0.049651,0.012028,0.026233,0.055135,0.076933,-0.031261,-0.04456,0.020803,-0.44874,-0.063236,-0.091766,-0.038073,-0.037139,-0.0052577,0.06271,-0.12648,-0.42685,-0.14649,-0.36491
0.073488,0.047853,-0.0092755,0.012323,-0.027694,-0.044557,0.011393,0.024031,0.026564,0.061359,-0.0177,-0.03175,-0.043934,-0.52472,-0.064237,-0.080619,-0.039196,-0.034572,-0.0034265,0.069048,-0.11516,-0.4303,-0.14265,-0.40266
0.04596,0.031246,0.014971,0.011127,-0.017576,-0.035007,0.010284,0.017849,0.0020323,0.033502,-0.011076,-0.020434,-0.11711,-0.62749,-0.067714,-0.068669,-0.040777,-0.035389,-0.0069248,0.068341,-0.10327,-0.45844,-0.14597,-0.44877
0.025357,0.014496,0.03559,0.0047353,-0.0030844,-0.023323,0.011405,0.0099453,-0.020095,0.0016684,-0.013231,-0.016673,-0.18387,-0.75644,-0.070148,-0.055578,-0.043626,-0.036504,-0.016249,0.057607,-0.097708,-0.52686,-0.15525,-0.52801
0.01445,0.0029624,0.047389,-0.0072845,0.013731,-0.01245,0.016057,0.0037931,-0.042348,-0.028925,-0.021081,-0.022548,-0.22555,-0.89477,-0.070307,-0.038321,-0.048189,-0.035878,-0.02678,0.040975,-0.10207,-0.63675,-0.1662,-0.64109
0.012181,-0.0016191,0.05187,-0.024251,0.0283,-0.0048469,0.022948,0.0017188,-0.066497,-0.056728,-0.0288,-0.035065,-0.23238,-1.0201,-0.069456,-0.014655,-0.053841,-0.033914,-0.03326,0.027492,-0.11499,-0.77382,-0.17206,-0.77325
0.014214,-0.002054,0.055858,-0.045248,0.036009,-0.0014961,0.028872,0.0029497,-0.092039,-0.080835,-0.03159,-0.048397,-0.21056,-1.1183,-0.069899,0.013889,-0.058905,-0.032032,-0.034675,0.024644,-0.13084,-0.91756,-0.16626,-0.90499
0.01547,-0.0033549,0.066643,-0.068863,0.034989,-0.0017939,0.030681,0.0038483,-0.11565,-0.098209,-0.028431,-0.057928,-0.17747,-1.1887,-0.073314,0.042476,-0.061524,-0.030382,-0.034961,0.032827,-0.14211,-1.0551,-0.14562,-1.0181
0.013326,-0.0088896,0.086661,-0.092421,0.027134,-0.0043033,0.027189,0.00059569,-0.13224,-0.10465,-0.022066,-0.063061,-0.14854,-1.2393,-0.079904,0.066668,-0.060957,-0.027356,-0.039075,0.045329,-0.14265,-1.1888,-0.11204,-1.0979
0.0091067,-0.018005,0.11123,-0.11223,0.016659,-0.0074708,0.019828,-0.0075353,-0.13743,-0.099025,-0.016497,-0.066652,-0.12618,-1.275,-0.088388,0.085961,-0.058459,-0.021555,-0.048361,0.053624,-0.13032,-1.33,-0.071666,-1.1371
0.0064191,-0.026929,0.13113,-0.1253,0.0074211,-0.0096426,0.011704,-0.017074,-0.12998,-0.086533,-0.013912,-0.071621,-0.099749,-1.2901,-0.096373,0.10378,-0.056985,-0.014122,-0.059566,0.053416,-0.10803,-1.4839,-0.031947,-1.1417
0.0075322,-0.032081,0.13853,-0.13119,0.0011834,-0.0088276,0.0056424,-0.02273,-0.11251,-0.076837,-0.013184,-0.077647,-0.056579,-1.2699,-0.10095,0.12367,-0.059575,-0.008768,-0.068175,0.046585,-0.082251,-1.6364,0.0012495,-1.1339
0.010991,-0.033046,0.13224,-0.13206,-0.0021043,-0.0032638,0.0024131,-0.021643,-0.090012,-0.077642,-0.010889,-0.080856,0.0046047,-1.1979,-0.099641,0.14511,-0.067293,-0.0089506,-0.07267,0.038109,-0.059028,-1.7543,0.025142,-1.1434
0.012772,-0.032862,0.11833,-0.13056,-0.0028906,0.0070374,0.00032633,-0.015993,-0.067261,-0.088695,-0.004089,-0.076884,0.068269,-1.0657,-0.091628,0.16287,-0.078203,-0.014542,-0.075721,0.031265,-0.039943,-1.7989,0.039847,-1.1906
0.010055,-0.035559,0.10541,-0.12729,-0.0012527,0.01914,-0.0033295,-0.011496,-0.047024,-0.1016,0.0070619,-0.064767,0.10923,-0.87699,-0.078431,0.17079,-0.088407,-0.02115,-0.081465,0.025311,-0.021027,-1.7445,0.047375,-1.2706
0.004126,-0.043026,0.098288,-0.12034,0.0024803,0.028124,-0.0098338,-0.012785,-0.03014,-0.10606,0.018767,-0.048215,0.10814,-0.64882,-0.063341,0.16668,-0.094689,-0.023111,-0.091681,0.017067,0.0037308,-1.5893,0.050616,-1.354
-0.00047956,-0.053678,0.094767,-0.10753,0.0067534,0.030147,-0.017417,-0.019554,-0.016922,-0.097631,0.025661,-0.033035,0.065741,-0.40747,-0.049641,0.15398,-0.096782,-0.017901,-0.10436,0.0043273,0.036373,-1.3556,0.052572,-1.4053
1.8904e-006,-0.063863,0.088028,-0.089375,0.009048,0.025451,-0.022079,-0.026924,-0.0083707,-0.080646,0.024304,-0.022801,0.006642,-0.18219,-0.03881,0.13848,-0.097301,-0.0082435,-0.11574,-0.012084,0.071275,-1.0782,0.055641,-1.4065
0.004923,-0.070783,0.072518,-0.070035,0.0076064,0.018756,-0.020671,-0.029779,-0.0061346,-0.064249,0.015744,-0.016463,-0.030371,0.0036271,-0.030086,0.12334,-0.099188,1.6806e-005,-0.12359,-0.028982,0.097436,-0.78796,0.060983,-1.3672
0.0092968,-0.074626,0.048529,-0.055378,0.0030476,0.016513,-0.013956,-0.02726,-0.011428,-0.055312,0.0052277,-0.0099342,-0.011047,0.14131,-0.021718,0.10706,-0.10282,0.0026364,-0.12878,-0.043062,0.10576,-0.49831,0.068234,-1.3133
0.0076299,-0.078267,0.022054,-0.049673,-0.0018898,0.023128,-0.0068743,-0.023344,-0.023939,-0.054247,-0.0010461,-0.00017259,0.076735,0.24098,-0.012866,0.086317,-0.10547,0.00036108,-0.13399,-0.052603,0.095915,-0.2024,0.075848,-1.2628
-0.0017012,-0.084774,0.00051292,-0.053636,-0.0044613,0.038973,-0.00524,-0.02303,-0.041557,-0.056545,-7.2285e-005,0.01193,0.21662,0.32637,-0.0045905,0.061101,-0.10386,-0.0018744,-0.141,-0.057654,0.077265,0.11433,0.081874,-1.2088
-0.015148,-0.094683,-0.011959,-0.064901,-0.0039203,0.0612,-0.011216,-0.027724,-0.060902,-0.057567,0.0058836,0.022444,0.37264,0.42097,0.00086747,0.037106,-0.097633,0.00075454,-0.1492,-0.059329,0.062979,0.45018,0.084754,-1.1254
-0.02671,-0.10522,-0.016244,-0.079781,-0.0014471,0.086041,-0.02138,-0.034127,-0.078107,-0.055778,0.011017,0.028208,0.50811,0.53324,0.0019692,0.023059,-0.090441,0.0088297,-0.15632,-0.059256,0.061858,0.76694,0.083783,-0.98895
-0.032337,-0.11212,-0.016459,-0.094435,0.0018703,0.11056,-0.029353,-0.037578,-0.089479,-0.052063,0.01051,0.030036,0.60309,0.65097,-0.00044374,0.025236,-0.087345,0.018191,-0.16033,-0.059381,0.073907,0.9923,0.079272,-0.79964
-0.032543,-0.11273,-0.016825,-0.10494,0.0068026,0.13307,-0.031077,-0.036574,-0.0921,-0.047015,0.0045229,0.032316,0.66023,0.74939,-0.0029231,0.043738,-0.090526,0.023381,-0.1604,-0.061486,0.092114,1.0528,0.072506,-0.58442
-0.031447,-0.10779,-0.019574,-0.10745,0.015447,0.15279,-0.028248,-0.034078,-0.084459,-0.03978,-0.0015764,0.039281,0.69663,0.80731,-0.00099819,0.073111,-0.097135,0.022026,-0.15619,-0.066142,0.10771,0.92142,0.065414,-0.38131
-0.033332,-0.1008,-0.024626,-0.099604,0.028687,0.16961,-0.026793,-0.034401,-0.066886,-0.029697,-0.0012177,0.051232,0.72855,0.81896,0.008168,0.10575,-0.10137,0.016556,-0.14647,-0.071856,0.11417,0.64677,0.059778,-0.21804
-0.03952,-0.095386,-0.030158,-0.082513,0.04416,0.18383,-0.031511,-0.038797,-0.041355,-0.018475,0.0081126,0.064069,0.75921,0.79307,0.023573,0.13458,-0.099138,0.012117,-0.12901,-0.075621,0.10777,0.33562,0.056128,-0.10089
-0.047764,-0.093058,-0.033281,-0.061292,0.056995,0.19536,-0.041533,-0.04411,-0.010691,-0.0098964,0.022577,0.07259,0.77696,0.74158,0.040166,0.15316,-0.091305,0.012726,-0.10247,-0.074994,0.086492,0.093423,0.052987,-0.018957
-0.054267,-0.09298,-0.030984,-0.042772,0.063097,0.20287,-0.050646,-0.045834,0.022205,-0.0067678,0.034637,0.074702,0.76329,0.66879,0.051185,0.15497,-0.082745,0.018826,-0.068828,-0.070238,0.050239,-0.038352,0.047215,0.043752
-0.056568,-0.093456,-0.021762,-0.031614,0.06226,0.20388,-0.052303,-0.042533,0.054391,-0.0080861,0.038587,0.072978,0.70421,0.57028,0.051926,0.13471,-0.078064,0.027779,-0.033976,-0.064635,0.002941,-0.1011,0.035554,0.099544
-0.05518,-0.093515,-0.0073003,-0.027775,0.058426,0.19643,-0.04503,-0.037261,0.082293,-0.0095837,0.034506,0.072356,0.59784,0.44118,0.042569,0.092215,-0.07783,0.036248,-0.0055282,-0.062415,-0.046432,-0.17755,0.016549,0.15636
-0.053012,-0.09319,0.0073961,-0.027353,0.056854,0.18106,-0.033658,-0.034596,0.10145,-0.0075701,0.027539,0.076116,0.45437,0.28504,0.027993,0.036051,-0.078559,0.042214,0.011,-0.065866,-0.086663,-0.32061,-0.0083327,0.22076
-0.053201,-0.092664,0.016442,-0.025968,0.060468,0.16108,-0.025551,-0.036299,0.10753,-0.0025655,0.02344,0.083599,0.29071,0.11526,0.014494,-0.017556,-0.076312,0.045343,0.015096,-0.073995,-0.11008,-0.50813,-0.035049,0.29766
-0.057005,-0.091558,0.016872,-0.02175,0.068145,0.14021,-0.025232,-0.039885,0.098465,0.00085016,0.024327,0.09136,0.12464,-0.051277,0.0056886,-0.051711,-0.070587,0.046133,0.011407,-0.083807,-0.11699,-0.65877,-0.058518,0.38526
-0.063128,-0.089248,0.010854,-0.015677,0.075833,0.11962,-0.031788,-0.041456,0.076055,-0.0019499,0.028069,0.096408,-0.027978,-0.20148,0.00060371,-0.058168,-0.065015,0.04513,0.0071932,-0.092927,-0.11482,-0.69345,-0.074474,0.47043
-0.06873,-0.085804,0.0041617,-0.0096329,0.079238,0.097202,-0.04063,-0.039807,0.045707,-0.011398,0.031257,0.098525,-0.15356,-0.32838,-0.0046723,-0.042519,-0.064292,0.042854,0.0086846,-0.10118,-0.11256,-0.59047,-0.08088,0.53108
-0.071216,-0.082355,0.0017986,-0.0044921,0.076093,0.070073,-0.047441,-0.037626,0.01397,-0.023212,0.032658,0.099837,-0.24233,-0.42847,-0.013195,-0.020976,-0.070036,0.040047,0.018107,-0.10975,-0.11519,-0.39047,-0.078505,0.54659
-0.069525,-0.080306,0.0043521,2.6905e-006,0.066928,0.038226,-0.050857,-0.038595,-0.014472,-0.03209,0.034074,0.10245,-0.29264,-0.49895,-0.024316,-0.010371,-0.079062,0.037553,0.032478,-0.11894,-0.12249,-0.15282,-0.070622,0.50996
-0.064256,-0.08008,0.0082506,0.0039543,0.054539,0.0056037,-0.052219,-0.043442,-0.038241,-0.03619,0.038254,0.10652,-0.31488,-0.53834,-0.033997,-0.018263,-0.08542,0.035813,0.044491,-0.12695,-0.1325,0.093978,-0.061901,0.43309
-0.056933,-0.080596,0.0096974,0.0064039,0.042737,-0.022595,-0.053516,-0.049035,-0.058271,-0.038269,0.046167,0.11043,-0.32909,-0.54939,-0.037904,-0.040113,-0.084438,0.034584,0.045402,-0.13104,-0.14516,0.3645,-0.056781,0.34052
-0.049221,-0.080028,0.0086464,0.0059236,0.034817,-0.043963,-0.05573,-0.05153,-0.075464,-0.042529,0.056175,0.11248,-0.35399,-0.53995,-0.034696,-0.06513,-0.075602,0.033291,0.02921,-0.13016,-0.16215,0.6853,-0.057896,0.25517
-0.042588,-0.077185,0.0090581,0.0020253,0.03207,-0.060484,-0.058721,-0.050448,-0.089076,-0.050257,0.065563,0.11234,-0.39339,-0.5202,-0.027027,-0.085688,-0.062355,0.031692,-0.0035419,-0.12647,-0.18315,1.0535,-0.065288,0.18571
-0.038225,-0.072389,0.015109,-0.0041858,0.033051,-0.076271,-0.062023,-0.049553,-0.097161,-0.058403,0.072718,0.11094,-0.43079,-0.49827,-0.019713,-0.10274,-0.049369,0.03013,-0.044699,-0.124,-0.20276,1.4239,-0.076736,0.12388
-0.036737,-0.067252,0.02686,-0.010806,0.03433,-0.093741,-0.065287,-0.053517,-0.098457,-0.062374,0.077926,0.10926,-0.43919,-0.47824,-0.0168,-0.1235,-0.039582,0.029082,-0.081697,-0.12554,-0.21215,1.7347,-0.088878,0.053834
-0.037568,-0.063701,0.039454,-0.0165,0.032604,-0.11184,-0.067954,-0.063454,-0.093852,-0.060353,0.082299,0.10748,-0.40149,-0.4616,-0.019783,-0.15448,-0.032994,0.028538,-0.10393,-0.13043,-0.20499,1.9453,-0.098349,-0.033456
-0.038748,-0.06299,0.046643,-0.02106,0.026867,-0.12756,-0.068807,-0.075522,-0.085984,-0.05503,0.086151,0.10539,-0.3272,-0.4499,-0.027984,-0.1963,-0.027625,0.027929,-0.10848,-0.13506,-0.18262,2.0553,-0.10239,-0.13131
-0.037638,-0.065132,0.045426,-0.024822,0.019003,-0.13865,-0.066337,-0.083919,-0.077289,-0.051169,0.088514,0.10339,-0.25155,-0.44546,-0.040155,-0.24449,-0.021509,0.026726,-0.10112,-0.13567,-0.1536,2.0915,-0.098999,-0.22098
-0.032564,-0.068798,0.037734,-0.027869,0.012377,-0.14454,-0.059933,-0.085571,-0.068236,-0.051316,0.088285,0.10293,-0.21526,-0.44925,-0.055564,-0.29422,-0.014172,0.025059,-0.09155,-0.1308,-0.12758,2.0793,-0.087084,-0.28542
-0.024219,-0.071646,0.028008,-0.03009,0.0096301,-0.14493,-0.050955,-0.082419,-0.057389,-0.053648,0.085866,0.10554,-0.23751,-0.45844,-0.073622,-0.34365,-0.0067024,0.023672,-0.086471,-0.12148,-0.10853,2.0236,-0.066878,-0.32309
-0.015534,-0.071164,0.019348,-0.031924,0.011455,-0.13835,-0.042511,-0.079478,-0.043268,-0.053866,0.0836,0.11138,-0.30147,-0.46593,-0.092686,-0.39211,-0.00063188,0.023207,-0.085607,-0.10954,-0.093158,1.9101,-0.04032,-0.35081
-0.0097051,-0.065895,0.011822,-0.034648,0.016981,-0.12301,-0.037747,-0.080619,-0.026388,-0.049311,0.084326,0.11839,-0.36368,-0.46265,-0.10949,-0.43556,0.0034492,0.023543,-0.083814,-0.095986,-0.076032,1.7207,-0.010774,-0.39271
-0.0076448,-0.056417,0.0039133,-0.039446,0.024765,-0.099537,-0.03772,-0.085726,-0.0096818,-0.041561,0.089097,0.1231,-0.38272,-0.44112,-0.12008,-0.46424,0.006513,0.023855,-0.077017,-0.081121,-0.05642,1.4481,0.018188,-0.46299
-0.006881,-0.04525,-0.0051233,-0.04598,0.033059,-0.072557,-0.040503,-0.091399,0.0030767,-0.035289,0.096,0.12246,-0.34817,-0.39878,-0.12166,-0.46629,0.010507,0.023348,-0.066697,-0.066134,-0.040229,1.1028,0.044399,-0.55516
-0.0031267,-0.035477,-0.014708,-0.05204,0.039203,-0.048856,-0.042422,-0.094154,0.009531,-0.034511,0.10126,0.11563,-0.2896,-0.34038,-0.11399,-0.43517,0.016962,0.021972,-0.059025,-0.054329,-0.034545,0.71203,0.067996,-0.64595
0.0063595,-0.028934,-0.024378,-0.054942,0.039448,-0.033141,-0.040681,-0.093185,0.0098656,-0.039468,0.10189,0.10451,-0.25823,-0.27853,-0.099445,-0.37532,0.025812,0.020464,-0.059569,-0.050359,-0.039435,0.31439,0.090694,-0.71108
0.020214,-0.025308,-0.034922,-0.053527,0.030349,-0.025256,-0.035416,-0.09048,0.0060394,-0.046589,0.097686,0.092986,-0.29305,-0.23084,-0.081763,-0.3015,0.035321,0.019708,-0.068292,-0.057604,-0.044994,-0.05242,0.11362,-0.74111
0.033577,-0.022803,-0.047288,-0.048807,0.011217,-0.021472,-0.029539,-0.088612,-4.1953e-005,-0.051291,0.091087,0.084928,-0.39453,-0.2127,-0.06471,-0.23206,0.043229,0.019957,-0.07914,-0.075546,-0.037653,-0.36689,0.13522,-0.74595
0.041829,-0.019744,-0.060233,-0.042572,-0.01443,-0.018595,-0.026399,-0.08837,-0.0078392,-0.051191,0.084916,0.082248,-0.52482,-0.22804,-0.051306,-0.18078,0.04827,0.020529,-0.084453,-0.099221,-0.011399,-0.63465,0.15107,-0.74596
0.044645,-0.015747,-0.069651,-0.035452,-0.040063,-0.016798,-0.027099,-0.088264,-0.018021,-0.047324,0.080168,0.08381,-0.63426,-0.26456,-0.043613,-0.15206,0.050905,0.02015,-0.080421,-0.12133,0.025657,-0.88289,0.15642,-0.75804
0.046788,-0.011629,-0.07121,-0.026575,-0.059444,-0.018383,-0.029575,-0.086088,-0.031184,-0.042784,0.075619,0.086052,-0.69474,-0.29879,-0.042539,-0.14143,0.052723,0.017701,-0.069308,-0.13569,0.055797,-1.1363,0.1498,-0.7879
0.054516,-0.0083772,-0.064373,-0.015403,-0.069596,-0.023916,-0.030132,-0.080993,-0.046664,-0.040179,0.069405,0.085141,-0.71527,-0.3104,-0.047418,-0.1397,0.05504,0.012953,-0.057077,-0.13966,0.064395,-1.3894,0.1352,-0.83317
0.070236,-0.0062114,-0.053977,-0.0038142,-0.071246,-0.029978,-0.026192,-0.074261,-0.06242,-0.039937,0.061001,0.079441,-0.72862,-0.29617,-0.055775,-0.13759,0.057858,0.006913,-0.048772,-0.13434,0.050644,-1.5984,0.12037,-0.89174
0.089944,-0.0044496,-0.047432,0.0040805,-0.066796,-0.031216,-0.018204,-0.068208,-0.076058,-0.04054,0.051853,0.070511,-0.76032,-0.2722,-0.063882,-0.12876,0.060034,0.0015105,-0.045366,-0.12265,0.027581,-1.702,0.11232,-0.96558
0.10593,-0.0020594,-0.049574,0.0049086,-0.058046,-0.024895,-0.0094687,-0.064277,-0.086146,-0.040178,0.044273,0.061746,-0.80534,-0.2603,-0.06824,-0.11094,0.06048,-0.0014072,-0.04408,-0.10729,0.011805,-1.6571,0.11318,-1.056
0.1127,0.001713,-0.059476,-0.0006349,-0.045777,-0.013432,-0.004208,-0.061961,-0.092868,-0.03831,0.039676,0.05553,-0.83077,-0.26757,-0.067239,-0.085921,0.059343,-0.0013722,-0.041211,-0.089763,0.011822,-1.4604,0.11963,-1.1554
0.11121,0.0070433,-0.071713,-0.0073562,-0.031219,-0.0022194,-0.0052042,-0.05945,-0.097647,-0.035938,0.037533,0.051136,-0.80205,-0.27552,-0.061951,-0.058634,0.058129,-4.4997e-005,-0.034775,-0.070836,0.024306,-1.1394,0.12624,-1.2457
0.10773,0.013529,-0.080699,-0.0089963,-0.017326,0.0052572,-0.012296,-0.055414,-0.10213,-0.034561,0.035627,0.045171,-0.71108,-0.24949,-0.055442,-0.035423,0.058635,-0.00061381,-0.024982,-0.051396,0.039899,-0.72777,0.12969,-1.3061
0.10848,0.020288,-0.084313,-0.002971,-0.0079325,0.010299,-0.022395,-0.050344,-0.10727,-0.034822,0.03125,0.034383,-0.5843,-0.16363,-0.050954,-0.021487,0.061565,-0.0058392,-0.012716,-0.032914,0.051926,-0.25386,0.13037,-1.3246
0.11486,0.026123,-0.08416,0.0076129,-0.0050687,0.017118,-0.031013,-0.046286,-0.11301,-0.036015,0.022598,0.018648,-0.46527,-0.023199,-0.049989,-0.018427,0.06601,-0.015885,0.0020727,-0.017264,0.060049,0.24227,0.13051,-1.3025
0.12317,0.029883,-0.083016,0.016575,-0.0069081,0.028176,-0.034681,-0.045159,-0.11852,-0.036769,0.0097443,0.001737,-0.38654,0.13323,-0.051309,-0.023182,0.070251,-0.027611,0.020393,-0.0063511,0.066835,0.6833,0.1313,-1.2481
0.12886,0.031026,-0.082165,0.019827,-0.0086515,0.041371,-0.033009,-0.047084,-0.12274,-0.036271,-0.0051971,-0.010877,-0.35202,0.25448,-0.051322,-0.029154,0.073232,-0.036213,0.042615,-0.0018041,0.072205,0.95996,0.13214,-1.1673
0.13074,0.030125,-0.080802,0.018672,-0.0061491,0.051714,-0.028941,-0.050134,-0.12486,-0.03497,-0.018917,-0.015598,-0.34024,0.3056,-0.045668,-0.029161,0.075428,-0.038349,0.066857,-0.0046161,0.071983,0.98398,0.13237,-1.0622
0.13158,0.028942,-0.07746,0.018389,0.00058844,0.055635,-0.026668,-0.051683,-0.12471,-0.034197,-0.028522,-0.013077,-0.32228,0.28499,-0.031361,-0.018839,0.078316,-0.034527,0.089041,-0.014662,0.061986,0.75774,0.13314,-0.93855
0.13472,0.029828,-0.071751,0.023335,0.0070892,0.053567,-0.028416,-0.050199,-0.12286,-0.03501,-0.033115,-0.0076988,-0.27929,0.2197,-0.008646,0.001205,0.082865,-0.028829,0.10489,-0.030477,0.043277,0.40071,0.13673,-0.81218
0.14045,0.034627,-0.064869,0.032934,0.0078802,0.048537,-0.032568,-0.046048,-0.12045,-0.037164,-0.034303,-0.0046488,-0.20888,0.14577,0.018376,0.025665,0.088353,-0.025994,0.11242,-0.049871,0.023138,0.096724,0.1437,-0.70165
0.14565,0.043561,-0.058725,0.042094,0.0010578,0.042659,-0.034879,-0.040835,-0.11863,-0.039026,-0.035164,-0.0067071,-0.12074,0.089575,0.042989,0.047268,0.092582,-0.02802,0.11307,-0.07129,0.010467,-0.01132,0.15114,-0.60907
0.14701,0.054765,-0.054716,0.045634,-0.0097308,0.035462,-0.031974,-0.03602,-0.11784,-0.038582,-0.038276,-0.012967,-0.028814,0.061353,0.058691,0.060645,0.093414,-0.032947,0.11066,-0.094861,0.0093829,0.095151,0.15424,-0.50723
0.14435,0.064963,-0.053105,0.042704,-0.01754,0.02572,-0.02421,-0.031898,-0.11758,-0.034874,-0.044141,-0.020113,0.054034,0.059966,0.062109,0.065086,0.090378,-0.03678,0.10917,-0.12181,0.016366,0.31179,0.15047,-0.35175
0.14079,0.071164,-0.053246,0.037227,-0.016854,0.014406,-0.015284,-0.027512,-0.11661,-0.028783,-0.051037,-0.024993,0.11767,0.0797,0.054015,0.064284,0.085079,-0.036946,0.11098,-0.15216,0.023049,0.49524,0.14228,-0.11556
0.13961,0.072516,-0.054178,0.034084,-0.0071284,0.0049724,-0.0088633,-0.021248,-0.11354,-0.022495,-0.05627,-0.02644,0.15462,0.11202,0.03763,0.063089,0.080118,-0.034428,0.11674,-0.18222,0.022191,0.56312,0.13547,0.18121
0.14082,0.07101,-0.055071,0.034589,0.0073694,-3.2425e-005,-0.0052747,-0.01167,-0.10736,-0.017952,-0.057864,-0.025199,0.15899,0.14341,0.015635,0.063692,0.07743,-0.032829,0.12628,-0.20408,0.012033,0.53503,0.13417,0.47524
0.1408,0.070296,-0.055357,0.035394,0.020929,-0.0027364,-0.0013009,0.0016972,-0.097585,-0.015487,-0.05567,-0.022508,0.12421,0.15561,-0.011304,0.064453,0.07728,-0.035251,0.1396,-0.20812,-0.0040485,0.4921,0.13662,0.70031
0.13553,0.073158,-0.054709,0.03173,0.03009,-0.0096863,0.0067448,0.017841,-0.084403,-0.013815,-0.051498,-0.018927,0.04106,0.13163,-0.042863,0.062576,0.078462,-0.041639,0.15681,-0.18745,-0.02182,0.49858,0.13569,0.83239
0.12455,0.079433,-0.053091,0.021979,0.034982,-0.026691,0.019569,0.034335,-0.068943,-0.011461,-0.048397,-0.014433,-0.1002,0.064009,-0.075786,0.058322,0.079322,-0.048758,0.17749,-0.14158,-0.040577,0.55308,0.12375,0.90009
0.112,0.086051,-0.050875,0.0094304,0.037846,-0.052876,0.034262,0.048315,-0.053452,-0.0084278,-0.049329,-0.0093127,-0.3012,-0.041748,-0.10271,0.056561,0.07874,-0.052675,0.20021,-0.07685,-0.063892,0.60247,0.098364,0.95004
0.10348,0.089341,-0.048858,-0.00020503,0.040521,-0.07955,0.046915,0.057997,-0.040844,-0.0065867,-0.055519,-0.0045617,-0.54468,-0.17152,-0.11547,0.063436,0.076531,-0.051638,0.2231,-0.0033491,-0.095964,0.59554,0.064265,0.99837
0.10112,0.087827,-0.047928,-0.0032242,0.043003,-0.095696,0.055829,0.063717,-0.033449,-0.0082971,-0.065216,-0.0010646,-0.79164,-0.31063,-0.1111,0.080431,0.07325,-0.047121,0.24516,0.070118,-0.13639,0.52543,0.030428,1.0136
0.10104,0.083266,-0.048397,-0.0004424,0.043793,-0.096041,0.062302,0.067533,-0.031657,-0.014355,-0.073906,0.0016614,-0.99372,-0.44831,-0.095507,0.10109,0.069787,-0.042444,0.26706,0.13966,-0.17766,0.42928,0.0045003,0.94872
0.095455,0.079066,-0.049357,0.0040537,0.041128,-0.085137,0.068517,0.071554,-0.033578,-0.022998,-0.076574,0.005714,-1.1165,-0.57538,-0.080896,0.11394,0.067048,-0.040283,0.29068,0.20609,-0.20777,0.35614,-0.011352,0.79314
0.078149,0.077466,-0.048715,0.006368,0.033855,-0.07407,0.074937,0.076315,-0.03621,-0.030866,-0.070985,0.013429,-1.1579,-0.67893,-0.078327,0.10973,0.065772,-0.040983,0.31714,0.27081,-0.21646,0.33715,-0.020628,0.59624
0.049351,0.077849,-0.044285,0.0052856,0.021653,-0.072422,0.079934,0.080571,-0.037316,-0.035231,-0.059649,0.025361,-1.1455,-0.74114,-0.090807,0.087401,0.066404,-0.042757,0.34492,0.33066,-0.20074,0.3789,-0.029119,0.43754
0.016206,0.0775,-0.035506,0.0019958,0.0051976,-0.081826,0.081901,0.082612,-0.036593,-0.035814,-0.048544,0.039375,-1.1133,-0.74486,-0.11219,0.053701,0.068902,-0.04334,0.36962,0.37593,-0.1661,0.47109,-0.040652,0.3678
-0.011557,0.073951,-0.024547,-0.0019593,-0.013347,-0.09569,0.081519,0.081848,-0.035293,-0.034934,-0.043096,0.051751,-1.074,-0.68188,-0.13217,0.017454,0.07253,-0.041759,0.3859,0.39423,-0.1229,0.58698,-0.054736,0.37142
-0.027721,0.066854,-0.015595,-0.0060934,-0.030041,-0.10445,0.081692,0.079189,-0.034817,-0.035963,-0.044291,0.059549,-1.0096,-0.55647,-0.14269,-0.016441,0.075831,-0.038911,0.39048,0.37829,-0.081119,0.67316,-0.067258,0.38132
-0.033153,0.058002,-0.012304,-0.010451,-0.040076,-0.10174,0.085093,0.076004,-0.035574,-0.041207,-0.047981,0.062453,-0.88782,-0.38086,-0.14106,-0.048201,0.077032,-0.036618,0.3839,0.33254,-0.046852,0.65009,-0.073402,0.33186
-0.034534,0.049873,-0.015059,-0.014132,-0.039991,-0.087127,0.091705,0.072774,-0.036904,-0.050519,-0.048002,0.062751,-0.69176,-0.16646,-0.12856,-0.079528,0.074912,-0.035961,0.36965,0.27281,-0.021876,0.44511,-0.070773,0.20434
-0.039456,0.044143,-0.020286,-0.014885,-0.029959,-0.064767,0.098792,0.068809,-0.037709,-0.06135,-0.040744,0.063519,-0.43664,0.081848,-0.10765,-0.10964,0.069778,-0.036241,0.3516,0.21869,-0.0050133,0.047862,-0.060958,0.030055
-0.051488,0.041194,-0.022769,-0.010594,-0.014375,-0.040458,0.10332,0.063181,-0.036897,-0.070101,-0.027784,0.066373,-0.1612,0.36385,-0.081202,-0.1353,0.063842,-0.035444,0.33181,0.18328,0.0064646,-0.45578,-0.048764,-0.14559
-0.068462,0.040482,-0.019511,-0.0013599,-8.3393e-005,-0.019804,0.10448,0.055729,-0.033257,-0.073948,-0.014845,0.070346,0.098581,0.67719,-0.053615,-0.15475,0.060452,-0.031866,0.31057,0.16773,0.015812,-0.91109,-0.03969,-0.30302
-0.084624,0.041036,-0.012138,0.0099315,0.0066745,-0.0079061,0.10385,0.046894,-0.025277,-0.072131,-0.0081043,0.072646,0.33012,1.0115,-0.031194,-0.17094,0.062315,-0.025491,0.28791,0.16429,0.02562,-1.1766,-0.037051,-0.4596
-0.094672,0.041721,-0.0057847,0.019335,0.0026454,-0.0091531,0.10325,0.036473,-0.011565,-0.065917,-0.010484,0.070704,0.54157,1.3475,-0.01962,-0.19027,0.069675,-0.017859,0.26501,0.16497,0.036496,-1.203,-0.040298,-0.64758
-0.096798,0.041464,-0.0051776,0.024461,-0.011994,-0.026081,0.10246,0.022755,0.0081562,-0.057243,-0.02018,0.064024,0.73934,1.6582,-0.019864,-0.21702,0.079709,-0.010527,0.24376,0.16835,0.046806,-1.0475,-0.045397,-0.88197
-0.093103,0.039648,-0.011007,0.025742,-0.034902,-0.058129,0.099088,0.0034686,0.032264,-0.046999,-0.032021,0.054406,0.90742,1.911,-0.026243,-0.24844,0.087767,-0.0036496,0.22504,0.17896,0.054522,-0.81146,-0.046982,-1.145
-0.087745,0.036365,-0.019448,0.025424,-0.063315,-0.10203,0.090781,-0.021781,0.057364,-0.034406,-0.040616,0.044245,1.0088,2.0688,-0.028966,-0.27495,0.08988,0.0038126,0.20761,0.2,0.060287,-0.55914,-0.041052,-1.3959
-0.084433,0.032117,-0.025116,0.025508,-0.095156,-0.15418,0.077407,-0.049688,0.079264,-0.018293,-0.043443,0.034118,1.0107,2.0962,-0.019709,-0.28571,0.085042,0.012291,0.18889,0.22601,0.069113,-0.28727,-0.026803,-1.5943
-0.084742,0.027109,-0.024989,0.026671,-0.12914,-0.21319,0.061203,-0.074125,0.094189,0.00051949,-0.042174,0.021649,0.91441,1.9739,0.0038462,-0.27501,0.075791,0.020027,0.16703,0.24241,0.088681,0.030009,-0.0067798,-1.7178
-0.08783,0.020864,-0.020306,0.02891,-0.16414,-0.27992,0.044914,-0.089652,0.099856,0.017864,-0.041421,0.002897,0.76306,1.714,0.037646,-0.24437,0.066621,0.023616,0.14231,0.23325,0.12486,0.37077,0.014613,-1.7656
-0.091264,0.012706,-0.015286,0.032731,-0.19835,-0.35458,0.029984,-0.095048,0.096368,0.027703,-0.045558,-0.024398,0.62007,1.3644,0.074667,-0.19957,0.06116,0.020667,0.11653,0.19155,0.17743,0.64413,0.033439,-1.7494
-0.092353,0.0027466,-0.013964,0.039144,-0.22898,-0.43312,0.016533,-0.093893,0.086776,0.02604,-0.055548,-0.058015,0.53106,0.99316,0.109,-0.14582,0.059887,0.012393,0.091022,0.12453,0.23891,0.74643,0.048224,-1.6813
-0.089431,-0.0076666,-0.017547,0.048219,-0.25299,-0.50678,0.0047183,-0.091538,0.076575,0.014455,-0.067955,-0.091178,0.49828,0.6606,0.13767,-0.085596,0.059878,0.0035759,0.065384,0.049659,0.29701,0.64671,0.060443,-1.5655
-0.08265,-0.016615,-0.023849,0.057831,-0.26882,-0.56581,-0.0044985,-0.090939,0.071467,6.5913e-005,-0.077017,-0.11561,0.48636,0.39659,0.15977,-0.020409,0.056783,-0.00052528,0.038162,-0.015428,0.33898,0.42055,0.073013,-1.3976
-0.073954,-0.022819,-0.028802,0.064349,-0.27795,-0.6051,-0.010324,-0.090767,0.074014,-0.0087801,-0.078516,-0.12576,0.45429,0.19987,0.17459,0.045953,0.047776,0.0019663,0.0087439,-0.061668,0.35558,0.19539,0.087497,-1.1719
-0.066132,-0.026232,-0.028846,0.065091,-0.28463,-0.62734,-0.013709,-0.087157,0.081361,-0.0082067,-0.072817,-0.12153,0.38844,0.0572,0.18073,0.10633,0.033506,0.0080741,-0.021642,-0.090421,0.34371,0.051918,0.10192,-0.89371
-0.061374,-0.027481,-0.022875,0.06032,-0.29321,-0.64074,-0.017286,-0.077207,0.086322,-0.0014329,-0.064855,-0.10774,0.31164,-0.036777,0.17674,0.15254,0.017747,0.01218,-0.051101,-0.10852,0.3074,-0.03232,0.11105,-0.58882
-0.060151,-0.026917,-0.01282,0.052666,-0.30456,-0.65307,-0.023014,-0.061071,0.081841,0.0040014,-0.061001,-0.091103,0.26301,-0.078258,0.16251,0.17943,0.0050238,0.010214,-0.079409,-0.1216,0.25706,-0.14766,0.10948,-0.30049
-0.061203,-0.024476,-0.0026606,0.044295,-0.31454,-0.66622,-0.029608,-0.041191,0.065947,0.0023571,-0.064862,-0.076762,0.26614,-0.072091,0.14013,0.18742,-0.0020953,0.0025796,-0.10904,-0.13099,0.20617,-0.35889,0.095384,-0.070978
-0.062672,-0.020689,0.0036495,0.034557,-0.31641,-0.67549,-0.03274,-0.020068,0.043339,-0.0058003,-0.074848,-0.066415,0.31043,-0.048935,0.11353,0.18205,-0.0041787,-0.0063359,-0.14331,-0.13544,0.16565,-0.63824,0.072217,0.083069
-0.063563,-0.017711,0.0043233,0.020628,-0.30579,-0.67377,-0.028619,0.00095692,0.022052,-0.014417,-0.085074,-0.058835,0.35793,-0.059882,0.086961,0.17107,-0.0039814,-0.011458,-0.18279,-0.13474,0.13851,-0.88317,0.046951,0.18264
-0.064371,-0.018898,0.00074505,0.00086243,-0.28451,-0.65715,-0.01805,0.021064,0.0076459,-0.017266,-0.08901,-0.052102,0.36813,-0.14657,0.063049,0.16084,-0.0043504,-0.010532,-0.22318,-0.13157,0.11858,-0.99925,0.026316,0.27359
-0.066373,-0.02672,-0.0032832,-0.022225,-0.25994,-0.62767,-0.006952,0.038913,-0.00051432,-0.013094,-0.083534,-0.045997,0.32154,-0.30907,0.041474,0.15385,-0.0066586,-0.0053303,-0.25717,-0.13042,0.095375,-0.97153,0.01414,0.39561
-0.070254,-0.040571,-0.0036702,-0.042343,-0.2401,-0.59132,-0.0021998,0.053008,-0.007955,-0.0062459,-0.070857,-0.042954,0.22733,-0.49931,0.019387,0.14833,-0.010714,1.7366e-005,-0.27963,-0.13524,0.062696,-0.86305,0.011606,0.55612
-0.075291,-0.056541,0.0017109,-0.053122,-0.22819,-0.55307,-0.0060396,0.063356,-0.020021,-0.0025892,-0.057111,-0.046671,0.11403,-0.6485,-0.0062552,0.1399,-0.015735,0.0020674,-0.2923,-0.14846,0.024786,-0.74846,0.019301,0.7303
-0.079775,-0.069748,0.011993,-0.052032,-0.22072,-0.51266,-0.014059,0.072281,-0.037352,-0.0047224,-0.048475,-0.059046,0.012645,-0.70871,-0.035542,0.12467,-0.021239,0.00021927,-0.30381,-0.17152,-0.00521,-0.64876,0.038122,0.88681
-0.082169,-0.077557,0.024085,-0.041244,-0.21054,-0.46436,-0.018801,0.082774,-0.05554,-0.010799,-0.047278,-0.077549,-0.057108,-0.67814,-0.063843,0.10184,-0.027147,-0.0033748,-0.32411,-0.20569,-0.014493,-0.52634,0.06744,1.0165
-0.081857,-0.081038,0.034679,-0.025174,-0.19207,-0.40086,-0.016046,0.095415,-0.068844,-0.017579,-0.05064,-0.095469,-0.092149,-0.59401,-0.083144,0.074244,-0.03338,-0.0057908,-0.35707,-0.25127,-0.0013021,-0.33884,0.10225,1.1382
-0.078945,-0.083418,0.042154,-0.0074457,-0.16479,-0.31886,-0.0082788,0.10699,-0.074502,-0.024271,-0.052648,-0.10562,-0.10262,-0.50332,-0.086213,0.046302,-0.039695,-0.0055839,-0.39698,-0.30581,0.021176,-0.094891,0.13306,1.2758
-0.073687,-0.086797,0.047145,0.0098653,-0.13286,-0.2228,-0.0023218,0.11275,-0.074052,-0.033175,-0.048659,-0.10519,-0.10225,-0.43575,-0.071153,0.020999,-0.045973,-0.0036711,-0.43225,-0.36323,0.031668,0.14404,0.15032,1.4275
-0.066498,-0.090004,0.0515,0.02473,-0.10184,-0.12431,-0.0033708,0.11071,-0.071027,-0.04652,-0.038681,-0.098017,-0.09673,-0.39446,-0.043249,-0.0012851,-0.052438,-0.0023352,-0.45426,-0.41555,0.014721,0.31714,0.15118,1.5559
-0.058609,-0.089453,0.056497,0.034092,-0.075496,-0.0376,-0.010828,0.10402,-0.067564,-0.06282,-0.027293,-0.091875,-0.076309,-0.36287,-0.012707,-0.020929,-0.059214,-0.0032361,-0.46454,-0.45618,-0.027657,0.42082,0.14288,1.609
-0.052284,-0.08229,0.061761,0.035469,-0.054708,0.026588,-0.019481,0.09863,-0.06299,-0.076698,-0.020072,-0.092776,-0.018745,-0.31545,0.010384,-0.035865,-0.065434,-0.0059811,-0.47476,-0.48249,-0.07515,0.51257,0.13905,1.5566
-0.049666,-0.069115,0.065777,0.030183,-0.038423,0.065059,-0.024567,0.0981,-0.055266,-0.082913,-0.019279,-0.10064,0.096704,-0.22606,0.020729,-0.040531,-0.068926,-0.0082998,-0.49877,-0.4952,-0.10054,0.65605,0.15058,1.4138
-0.050796,-0.053945,0.067559,0.024592,-0.025085,0.082355,-0.025914,0.10022,-0.043535,-0.081244,-0.022215,-0.11,0.27195,-0.076331,0.019362,-0.02905,-0.067237,-0.0076294,-0.54253,-0.49562,-0.08633,0.85588,0.17742,1.2351
-0.052772,-0.041444,0.067954,0.026835,-0.013134,0.087672,-0.027561,0.098945,-0.02932,-0.077875,-0.023564,-0.11499,0.48192,0.13352,0.01149,-0.00090914,-0.059528,-0.0028997,-0.59944,-0.48315,-0.035577,1.0418,0.20781,1.0868
-0.051448,-0.033732,0.069253,0.040843,-0.00066298,0.091019,-0.033759,0.090163,-0.015454,-0.081687,-0.019724,-0.1142,0.68316,0.37795,0.0023552,0.035483,-0.04778,0.0047501,-0.65468,-0.45577,0.030206,1.1187,0.22587,1.0203
-0.04479,-0.029254,0.07321,0.062569,0.014675,0.10086,-0.045376,0.076141,-0.0039694,-0.098122,-0.011546,-0.11108,0.83468,0.61359,-0.0060731,0.065152,-0.036042,0.012738,-0.69489,-0.41294,0.084413,1.0429,0.22194,1.0588
-0.035075,-0.024451,0.07912,0.082173,0.034714,0.12353,-0.05979,0.064291,0.0050699,-0.12513,-0.0033031,-0.11001,0.91693,0.80141,-0.015583,0.074322,-0.027971,0.018659,-0.71582,-0.3585,0.11048,0.86153,0.1981,1.1977
