4.5339e-010,7.2735e-010,-1.2155e-010,1.7364e-011,5.1512e-010,5.3828e-010,1.9872e-010,6.5018e-010,-1.5878e-009,3.247e-009,9.8395e-011,7.3121e-010,-5.1069e-009,1.8232e-009,1.1132e-009,5.4078e-009,-2.9904e-010,5.8072e-010,1.2868e-009,1.7807e-009,3.7621e-010,3.6406e-009,-6.5018e-010,8.624e-010
1.21e-008,1.9949e-008,-3.3125e-009,7.9237e-010,1.3976e-008,1.5137e-008,5.7537e-009,1.7731e-008,-4.3642e-008,8.96e-008,2.5415e-009,1.9944e-008,-1.4183e-007,5.1952e-008,3.05e-008,1.4872e-007,-8.3524e-009,1.5762e-008,3.5406e-008,4.9166e-008,1.0481e-008,1.0083e-007,-1.8044e-008,2.4163e-008
1.5687e-007,2.6611e-007,-4.4149e-008,1.5129e-008,1.8407e-007,2.0692e-007,8.0944e-008,2.3526e-007,-5.8285e-007,1.2019e-006,3.1725e-008,2.6442e-007,-1.9164e-006,7.2197e-007,4.061e-007,1.9864e-006,-1.1308e-007,2.0761e-007,4.734e-007,6.5935e-007,1.4175e-007,1.3579e-006,-2.4326e-007,3.2958e-007
1.3165e-006,2.3004e-006,-3.8399e-007,1.7368e-007,1.5674e-006,1.8317e-006,7.372e-007,2.0235e-006,-5.0386e-006,1.0441e-005,2.5479e-007,2.2708e-006,-1.6788e-005,6.5221e-006,3.5011e-006,1.7165e-005,-9.8875e-007,1.7676e-006,4.0981e-006,5.7212e-006,1.2395e-006,1.1846e-005,-2.1223e-006,2.9158e-006
8.0404e-006,1.4484e-005,-2.4537e-006,1.39e-006,9.6985e-006,1.18e-005,4.8859e-006,1.2683e-005,-3.1685e-005,6.6026e-005,1.4785e-006,1.42e-005,-0.00010717,4.3074e-005,2.1968e-005,0.00010783,-6.2752e-006,1.0932e-005,2.5815e-005,3.6096e-005,7.8759e-006,7.5253e-005,-1.3466e-005,1.8807e-005
3.8095e-005,7.0785e-005,-1.2294e-005,8.3964e-006,4.6451e-005,5.8929e-005,2.5114e-005,6.1747e-005,-0.00015439,0.00032382,6.5991e-006,6.8893e-005,-0.00053128,0.00022175,0.0001069,0.0005245,-3.0803e-005,5.2304e-005,0.00012608,0.0001764,3.8731e-005,0.00037092,-6.6204e-005,9.4235e-005
0.00014573,0.00027932,-5.0322e-005,4.0206e-005,0.00017911,0.00023728,0.00010418,0.00024293,-0.00060626,0.0012813,2.3538e-005,0.0002698,-0.002128,0.00092646,0.00041973,0.002054,-0.00012167,0.00020132,0.00049665,0.0006944,0.0001533,0.0014758,-0.00026235,0.00038156
0.00046249,0.000914,-0.00017307,0.00015772,0.00057084,0.00079078,0.00035838,0.00079343,-0.001969,0.0042002,6.8793e-005,0.00087579,-0.0070736,0.003229,0.0013658,0.0066451,-0.0003972,0.00063968,0.0016204,0.0022602,0.00050135,0.0048681,-0.00086055,0.0012819
0.0012415,0.002527,-0.00051016,0.00051874,0.0015316,0.0022214,0.0010422,0.0021925,-0.0053847,0.011619,0.00016743,0.0024002,-0.019882,0.0095764,0.0037541,0.018076,-0.0010921,0.0017077,0.004461,0.0061935,0.0013795,0.013564,-0.0023808,0.0036398
0.0028593,0.0059826,-0.0013075,0.0014549,0.0035047,0.0053268,0.0025992,0.0051972,-0.012551,0.027476,0.00034246,0.0056253,-0.047896,0.024524,0.0088369,0.041826,-0.0025645,0.0038754,0.010502,0.014466,0.0032348,0.032354,-0.0056321,0.0088463
0.0057088,0.012246,-0.002944,0.0035236,0.0069015,0.010996,0.00562,0.010675,-0.025124,0.056043,0.00058928,0.01137,-0.099838,0.05483,0.017998,0.082888,-0.0051965,0.0075282,0.021343,0.029028,0.0065192,0.06669,-0.011511,0.01856
0.0099561,0.021817,-0.0058655,0.0074372,0.011762,0.01963,0.010625,0.01914,-0.043333,0.099141,0.00084181,0.01991,-0.18124,0.10791,0.03196,0.14096,-0.0091607,0.012547,0.037681,0.050235,0.011351,0.11954,-0.020489,0.03377
0.015244,0.033978,-0.01039,0.013772,0.017399,0.030337,0.01769,0.030116,-0.064296,0.15245,0.00094836,0.030218,-0.28763,0.18803,0.049775,0.20488,-0.014152,0.017885,0.058014,0.074934,0.017111,0.187,-0.031996,0.053305
0.020554,0.046383,-0.016408,0.022474,0.022334,0.040435,0.026114,0.041754,-0.081391,0.20356,0.00067341,0.039577,-0.3997,0.29114,0.068343,0.25111,-0.019318,0.021559,0.078017,0.095722,0.022312,0.25556,-0.044199,0.072626
0.024435,0.055606,-0.023131,0.032412,0.024786,0.046011,0.034471,0.051234,-0.086152,0.23495,-0.00027433,0.044207,-0.48623,0.40118,0.083213,0.25108,-0.023606,0.021407,0.091646,0.10302,0.025087,0.30473,-0.054681,0.084221
0.025627,0.058757,-0.02912,0.041387,0.023573,0.043733,0.041254,0.056054,-0.072727,0.23243,-0.0021925,0.041103,-0.51748,0.49142,0.090694,0.187,-0.026421,0.016405,0.094037,0.089991,0.024252,0.31626,-0.06188,0.080441
0.023778,0.055322,-0.032754,0.046886,0.018842,0.033109,0.045874,0.055592,-0.042543,0.195,-0.0052966,0.030235,-0.48337,0.53286,0.090056,0.067404,-0.028138,0.0077133,0.084652,0.057711,0.020329,0.28545,-0.066234,0.05795
0.019777,0.047827,-0.033015,0.047394,0.012008,0.01753,0.049334,0.051777,-0.0053943,0.13856,-0.0095549,0.015552,-0.40376,0.50699,0.084105,-0.070688,-0.029892,-0.0015954,0.068281,0.016474,0.015661,0.22668,-0.069772,0.021087
0.015399,0.040503,-0.030142,0.043463,0.0048067,0.0028596,0.053859,0.048092,0.025158,0.088515,-0.014467,0.0035664,-0.32011,0.41652,0.07737,-0.17924,-0.032603,-0.0083001,0.052601,-0.018982,0.013223,0.16676,-0.073945,-0.018846
0.012353,0.036639,-0.025652,0.037629,-0.0018207,-0.0059228,0.061371,0.047315,0.039901,0.064473,-0.018949,-8.987e-005,-0.2702,0.28669,0.073062,-0.22742,-0.035935,-0.01118,0.043643,-0.038063,0.014751,0.12884,-0.077297,-0.049069
0.011324,0.036538,-0.02159,0.032885,-0.0080907,-0.0077538,0.071693,0.04958,0.039872,0.06754,-0.021573,0.005989,-0.26285,0.15488,0.07117,-0.22021,-0.038229,-0.011759,0.042389,-0.040741,0.019503,0.11772,-0.075403,-0.062661
0.011639,0.037678,-0.019461,0.03056,-0.014679,-0.0057934,0.081846,0.052252,0.035101,0.080542,-0.021272,0.018197,-0.27289,0.053102,0.069221,-0.19155,-0.037732,-0.012775,0.045025,-0.036692,0.024607,0.1182,-0.06401,-0.062663
0.011843,0.036915,-0.019593,0.029199,-0.021628,-0.0046395,0.087336,0.051809,0.036705,0.081797,-0.018173,0.030439,-0.26235,-0.0064489,0.064923,-0.17597,-0.034208,-0.015474,0.046362,-0.037454,0.026791,0.10813,-0.043349,-0.059531
0.010824,0.032869,-0.021325,0.025573,-0.027921,-0.0066803,0.084935,0.046259,0.048489,0.061724,-0.013874,0.038178,-0.21247,-0.034467,0.058243,-0.18148,-0.029406,-0.018083,0.043457,-0.047512,0.024233,0.075951,-0.019761,-0.063281
0.0086581,0.026637,-0.023749,0.017403,-0.032153,-0.010622,0.075119,0.036249,0.064925,0.028755,-0.010634,0.040994,-0.14031,-0.054956,0.051142,-0.18639,-0.025676,-0.017042,0.036686,-0.061117,0.017266,0.028378,-0.0023288,-0.076014
0.0065398,0.020543,-0.02626,0.0057973,-0.033706,-0.01333,0.062242,0.02416,0.076973,4.9878e-005,-0.0097503,0.041865,-0.085499,-0.090426,0.045443,-0.16268,-0.023799,-0.01016,0.028189,-0.066941,0.0076753,-0.017558,0.0036003,-0.090681
0.0057873,0.016304,-0.028502,-0.0047507,-0.033356,-0.013125,0.051967,0.012191,0.080343,-0.014304,-0.010283,0.044068,-0.077829,-0.15223,0.041055,-0.10461,-0.02208,0.00097794,0.019879,-0.056446,-0.0026152,-0.050188,0.0009041,-0.097237
0.0066742,0.014134,-0.029972,-0.009261,-0.032765,-0.011386,0.047556,0.0011061,0.07875,-0.019504,-0.0094097,0.048481,-0.11313,-0.24156,0.03623,-0.037032,-0.017834,0.011564,0.012928,-0.029465,-0.012393,-0.072542,-0.00099004,-0.091376
0.0080357,0.013135,-0.029887,-0.0060818,-0.03331,-0.010997,0.047711,-0.0095499,0.07951,-0.02988,-0.0045523,0.053452,-0.15752,-0.35742,0.029402,0.0038437,-0.010105,0.016813,0.0084291,0.0064674,-0.021074,-0.097686,0.0068032,-0.078563
0.0080453,0.012134,-0.027601,0.0014686,-0.035174,-0.013287,0.047733,-0.02035,0.085913,-0.05483,0.0041871,0.057005,-0.17519,-0.50156,0.020592,-0.00033704,-0.0010582,0.015326,0.0075183,0.041273,-0.028059,-0.13546,0.02561,-0.069653
0.0056374,0.010155,-0.023132,0.0072809,-0.037344,-0.016606,0.043285,-0.031147,0.093624,-0.090084,0.013413,0.059055,-0.15459,-0.67329,0.010911,-0.036797,0.0055732,0.0099411,0.010144,0.067435,-0.032312,-0.1834,0.047991,-0.071303
0.0014916,0.0064787,-0.017213,0.007007,-0.038396,-0.018039,0.034025,-0.04102,0.094358,-0.122,0.018552,0.061442,-0.11047,-0.85668,0.00077249,-0.074707,0.0078505,0.005574,0.013843,0.0819,-0.032655,-0.22993,0.063302,-0.079071
-0.0022516,0.00080562,-0.010736,0.0013433,-0.037476,-0.016545,0.024346,-0.048636,0.083227,-0.14031,0.017274,0.065691,-0.062114,-1.0119,-0.011134,-0.091097,0.0077184,0.0058492,0.01448,0.08505,-0.028691,-0.26612,0.065266,-0.079404
-0.0034519,-0.0063786,-0.0041811,-0.0047956,-0.034879,-0.014255,0.020565,-0.052489,0.062947,-0.14747,0.011399,0.070607,-0.0095907,-1.0824,-0.026678,-0.085947,0.0095961,0.010978,0.0090684,0.078945,-0.021653,-0.29496,0.055314,-0.059689
-0.0016023,-0.013758,0.0023851,-0.0066611,-0.031918,-0.014391,0.026488,-0.051109,0.041333,-0.15661,0.0055038,0.072015,0.069385,-1.0192,-0.045681,-0.074847,0.016396,0.01805,-0.0017248,0.066412,-0.014364,-0.32952,0.039506,-0.018799
0.0015984,-0.019894,0.0088023,-0.0039154,-0.030108,-0.017772,0.040436,-0.043736,0.024793,-0.18045,0.0032362,0.0652,0.19926,-0.80912,-0.064263,-0.069199,0.026478,0.023104,-0.013981,0.050701,-0.0099798,-0.38188,0.022593,0.030308
0.0032798,-0.024257,0.014405,-0.0010063,-0.030083,-0.021466,0.055736,-0.031404,0.013907,-0.22122,0.0044442,0.048255,0.38195,-0.48884,-0.076043,-0.064285,0.034502,0.023436,-0.023854,0.034786,-0.010119,-0.45195,0.0049176,0.068334
0.0014222,-0.027558,0.018178,-0.0032528,-0.030939,-0.021232,0.064377,-0.017531,0.0047193,-0.26905,0.0055895,0.02377,0.58982,-0.1339,-0.075818,-0.045936,0.035761,0.018919,-0.030878,0.020146,-0.013746,-0.52499,-0.015482,0.082076
-0.0035726,-0.030844,0.019286,-0.012023,-0.030651,-0.015608,0.061522,-0.0069719,-0.0061765,-0.30872,0.0030448,-0.0023674,0.782,0.1726,-0.063102,-0.0076184,0.030331,0.011924,-0.038152,0.0060016,-0.017939,-0.5792,-0.038451,0.072205
-0.008991,-0.034118,0.017445,-0.023256,-0.027491,-0.0076165,0.04814,-0.0036254,-0.017903,-0.328,-0.0036366,-0.024145,0.92867,0.37338,-0.042817,0.03995,0.02327,0.0060467,-0.04915,-0.010098,-0.020285,-0.59717,-0.059849,0.050834
-0.011634,-0.035951,0.013003,-0.030633,-0.02146,-0.0022331,0.030204,-0.008132,-0.026196,-0.32195,-0.011253,-0.03832,1.0231,0.45412,-0.022518,0.076326,0.020494,0.0042106,-0.064171,-0.030535,-0.021043,-0.57344,-0.074057,0.031493
-0.010081,-0.034733,0.0070421,-0.030616,-0.014484,-0.001874,0.014989,-0.017413,-0.027552,-0.29205,-0.015492,-0.045309,1.0737,0.43743,-0.008241,0.088662,0.023754,0.0069697,-0.079789,-0.055833,-0.023027,-0.51402,-0.077959,0.019926
-0.0057382,-0.030566,0.001638,-0.024954,-0.0089869,-0.0042741,0.0067389,-0.02649,-0.0224,-0.24363,-0.014118,-0.047974,1.0878,0.36203,-0.0020368,0.082213,0.029077,0.012009,-0.091855,-0.083832,-0.028901,-0.42997,-0.072175,0.012914
-0.001894,-0.025912,-0.00029328,-0.018675,-0.0059396,-0.0048915,0.0043981,-0.031227,-0.01454,-0.18409,-0.0081475,-0.049544,1.0635,0.26279,-0.0027383,0.074328,0.030058,0.015425,-0.099236,-0.11007,-0.03798,-0.33053,-0.058566,0.0051192
-0.0015059,-0.024094,0.0037583,-0.015593,-0.0041019,-0.0015397,0.0028451,-0.030062,-0.0079144,-0.12216,-0.00041884,-0.052108,0.99622,0.16306,-0.008694,0.077848,0.023231,0.014282,-0.10479,-0.12897,-0.045412,-0.22064,-0.037363,-0.0030381
-0.0052806,-0.026748,0.013928,-0.015378,-0.001231,0.0033473,-0.0032096,-0.023786,-0.0040204,-0.066462,0.0067315,-0.056286,0.89176,0.079032,-0.019628,0.089251,0.010961,0.0087695,-0.1126,-0.13553,-0.044842,-0.10375,-0.0077587,-0.0041783
-0.011281,-0.032431,0.026917,-0.014594,0.003794,0.0051645,-0.015355,-0.01413,-0.0019928,-0.02306,0.012489,-0.061756,0.76969,0.026434,-0.035804,0.091906,-0.00042341,0.00224,-0.12392,-0.127,-0.032619,0.013258,0.028206,0.0090539
-0.016145,-0.037639,0.037335,-0.010391,0.0098929,0.0019858,-0.030381,-0.0026331,-0.00042451,0.0065902,0.016737,-0.067901,0.65357,0.020313,-0.055459,0.070934,-0.0054644,-0.0011914,-0.13527,-0.10431,-0.010281,0.11798,0.06296,0.035082
-0.017027,-0.039368,0.041049,-0.0033444,0.014775,-0.0029931,-0.042743,0.009334,0.0014437,0.025375,0.018838,-0.074065,0.5556,0.066762,-0.073358,0.026519,-0.0031777,0.00021005,-0.14056,-0.072136,0.016508,0.19602,0.086164,0.061143
-0.013154,-0.037065,0.038109,0.0030279,0.017048,-0.0040109,-0.04877,0.019829,0.0042112,0.037914,0.017803,-0.079461,0.47007,0.15434,-0.082554,-0.025016,0.0032729,0.0044271,-0.13527,-0.037437,0.041398,0.2385,0.091881,0.070824
-0.0062753,-0.032566,0.032828,0.0054096,0.017441,0.0019429,-0.049461,0.026058,0.0093202,0.047485,0.013943,-0.083135,0.38144,0.25419,-0.078432,-0.062036,0.0098781,0.0073169,-0.11975,-0.006838,0.060357,0.24823,0.084036,0.055922
0.00013952,-0.028455,0.030834,0.0035683,0.018012,0.012051,-0.049797,0.025307,0.018872,0.054693,0.010133,-0.084357,0.28011,0.33116,-0.061811,-0.070834,0.014686,0.0059859,-0.098997,0.015585,0.072343,0.23956,0.074471,0.022948
0.0026542,-0.026467,0.035401,0.00052087,0.020234,0.019816,-0.055138,0.016672,0.034087,0.058517,0.010722,-0.083331,0.1724,0.35915,-0.038446,-0.051846,0.017911,0.0011361,-0.079497,0.028955,0.07798,0.23075,0.074272,-0.011259
-0.00022274,-0.026984,0.045815,4.8521e-005,0.023848,0.020541,-0.067462,0.002261,0.053885,0.058512,0.018285,-0.081572,0.076946,0.33096,-0.015336,-0.016613,0.019993,-0.0035486,-0.065659,0.034636,0.077895,0.23377,0.085422,-0.031339
-0.0070593,-0.029374,0.058571,0.0038274,0.027479,0.015198,-0.084195,-0.013377,0.074979,0.05618,0.030852,-0.081203,0.011263,0.2571,0.0030138,0.019867,0.020319,-0.0044005,-0.058198,0.034811,0.071898,0.24824,0.10005,-0.033141
-0.014303,-0.032391,0.069936,0.010492,0.030181,0.0093209,-0.1003,-0.025593,0.093311,0.05445,0.042521,-0.083062,-0.020527,0.15643,0.015447,0.045724,0.018237,-0.0006104,-0.055136,0.031746,0.058947,0.26374,0.10797,-0.024035
-0.018639,-0.034451,0.077781,0.017065,0.032185,0.0081748,-0.11187,-0.032278,0.10559,0.055715,0.047702,-0.08467,-0.029833,0.046159,0.022135,0.055548,0.015038,0.005341,-0.054027,0.02794,0.037491,0.26834,0.10588,-0.014693
-0.019346,-0.034274,0.081843,0.021221,0.034188,0.012668,-0.11845,-0.03483,0.11002,0.060005,0.045907,-0.079827,-0.035427,-0.062666,0.022386,0.05136,0.01419,0.0097729,-0.053464,0.026361,0.0061507,0.25713,0.10018,-0.010135
-0.018778,-0.031971,0.083151,0.022479,0.036191,0.019403,-0.12263,-0.036576,0.10657,0.0647,0.043012,-0.06102,-0.052143,-0.1636,0.014909,0.041942,0.018739,0.010523,-0.052956,0.03,-0.034989,0.23454,0.10134,-0.0074852
-0.020379,-0.029631,0.083581,0.021721,0.037351,0.02423,-0.12744,-0.039831,0.097029,0.066113,0.04747,-0.023972,-0.084411,-0.25095,0.00026981,0.039663,0.028087,0.0081971,-0.051817,0.040743,-0.082859,0.20972,0.11519,-0.0011415
-0.025755,-0.030231,0.085581,0.019961,0.037123,0.025689,-0.13371,-0.043985,0.084863,0.061914,0.064022,0.028268,-0.12736,-0.31768,-0.017325,0.054573,0.037535,0.0053447,-0.048474,0.058358,-0.13086,0.18962,0.1385,0.010534
-0.033322,-0.035123,0.091375,0.017605,0.036334,0.025355,-0.13943,-0.046213,0.073837,0.052764,0.089647,0.084798,-0.17235,-0.35647,-0.031498,0.088414,0.04171,0.0045745,-0.041063,0.08035,-0.17033,0.17543,0.16208,0.023439
-0.039728,-0.042123,0.1014,0.014564,0.036784,0.025428,-0.14146,-0.044133,0.065781,0.042031,0.11492,0.13109,-0.21181,-0.36252,-0.0379,0.13313,0.039153,0.0070588,-0.028872,0.10279,-0.19364,0.16458,0.17761,0.031949
-0.04277,-0.046352,0.11299,0.010597,0.039492,0.026324,-0.13817,-0.037998,0.059067,0.033728,0.12991,0.15608,-0.24075,-0.3359,-0.037668,0.17592,0.033839,0.012129,-0.013311,0.12166,-0.19715,0.15555,0.1824,0.034468
-0.043119,-0.043787,0.12088,0.0053123,0.043312,0.026561,-0.13093,-0.030528,0.049555,0.030044,0.13032,0.15774,-0.25632,-0.28272,-0.036887,0.20756,0.03194,0.017777,0.0025948,0.13408,-0.1823,0.15065,0.17869,0.034863
-0.043316,-0.034804,0.11998,-0.0019068,0.045508,0.024619,-0.1233,-0.024711,0.033849,0.030107,0.11975,0.14365,-0.25792,-0.21464,-0.042037,0.22744,0.036572,0.021585,0.015963,0.13924,-0.15423,0.15441,0.16983,0.038726
-0.045149,-0.024451,0.10882,-0.01144,0.044039,0.02065,-0.11851,-0.02179,0.012366,0.030787,0.10675,0.12578,-0.24891,-0.14665,-0.054967,0.24131,0.045209,0.021806,0.025707,0.13873,-0.11922,0.16956,0.15702,0.048308
-0.048015,-0.01879,0.091129,-0.022453,0.039566,0.016403,-0.11732,-0.021227,-0.010521,0.028939,0.09906,0.11306,-0.23743,-0.092455,-0.071418,0.25407,0.052067,0.018326,0.032706,0.13619,-0.082656,0.19466,0.13907,0.060793
-0.04976,-0.020126,0.073877,-0.032432,0.035243,0.01371,-0.11794,-0.022278,-0.029627,0.023479,0.099033,0.10661,-0.23362,-0.05856,-0.084218,0.26425,0.053164,0.013018,0.038362,0.13597,-0.04832,0.22535,0.1143,0.070988
-0.048947,-0.025175,0.062906,-0.038185,0.034306,0.013098,-0.118,-0.025142,-0.042817,0.015872,0.10297,0.10052,-0.24316,-0.040448,-0.088492,0.26483,0.049395,0.0089732,0.042859,0.14101,-0.01886,0.25762,0.082588,0.075416
-0.046146,-0.027856,0.059397,-0.037915,0.037382,0.013627,-0.1166,-0.03023,-0.052305,0.0087903,0.10435,0.087133,-0.26151,-0.024867,-0.084814,0.24926,0.04501,0.0087031,0.044833,0.15088,0.0037134,0.28967,0.04665,0.073971
-0.04305,-0.02436,0.059858,-0.032635,0.04177,0.013721,-0.11458,-0.036395,-0.062451,0.0040113,0.098358,0.062483,-0.27408,0.0011803,-0.078195,0.21709,0.043308,0.012368,0.042949,0.16118,0.01815,0.32068,0.012368,0.068162
-0.040582,-0.016155,0.059598,-0.025507,0.043324,0.012108,-0.11295,-0.040398,-0.076184,0.0011309,0.084716,0.028105,-0.26458,0.04006,-0.074236,0.1746,0.043782,0.017387,0.038041,0.16506,0.024624,0.3483,-0.011949,0.058317
-0.038175,-0.0084389,0.056699,-0.019544,0.039498,0.0083533,-0.11127,-0.038897,-0.093195,-0.0020171,0.067283,-0.011223,-0.22674,0.080181,-0.075706,0.13089,0.043227,0.01997,0.033677,0.1565,0.025173,0.36789,-0.018175,0.042863
-0.035029,-0.0056148,0.053155,-0.015718,0.031237,0.0030704,-0.10773,-0.031584,-0.11113,-0.0076608,0.051063,-0.050993,-0.17077,0.10409,-0.081827,0.093455,0.039297,0.017656,0.034113,0.13338,0.023177,0.37451,-0.0026035,0.020506
-0.031817,-0.0078837,0.052337,-0.013135,0.022319,-0.0021256,-0.10106,-0.022483,-0.12809,-0.016448,0.03893,-0.088532,-0.11859,0.1031,-0.089979,0.066556,0.032787,0.011039,0.040952,0.098656,0.021785,0.36535,0.030535,-0.0067021
-0.030684,-0.011806,0.055244,-0.010837,0.016639,-0.005189,-0.092196,-0.017681,-0.14391,-0.027056,0.030222,-0.12202,-0.089785,0.086963,-0.097706,0.052161,0.026558,0.0033911,0.051217,0.058569,0.022163,0.33965,0.069582,-0.032286
-0.033182,-0.013905,0.058957,-0.0091423,0.015446,-0.0048481,-0.084063,-0.020946,-0.15915,-0.037187,0.021873,-0.14912,-0.088022,0.079754,-0.10341,0.050749,0.022599,-0.0015791,0.058723,0.01886,0.022809,0.29571,0.10105,-0.047489
-0.038113,-0.013693,0.058698,-0.0090055,0.016567,-0.001782,-0.07929,-0.030777,-0.17351,-0.045031,0.010925,-0.1674,-0.098272,0.10441,-0.10581,0.060645,0.020453,-0.002208,0.058023,-0.018554,0.020649,0.22804,0.11717,-0.045417
-0.04172,-0.013382,0.051585,-0.010144,0.0162,0.0013732,-0.078077,-0.041503,-0.18549,-0.049989,-0.0034722,-0.17633,-0.097299,0.16789,-0.10354,0.077256,0.018468,0.00015867,0.048036,-0.056144,0.013368,0.12881,0.11984,-0.02463
-0.040476,-0.014907,0.038818,-0.010226,0.011954,0.0016442,-0.078143,-0.047615,-0.19394,-0.052248,-0.019825,-0.17819,-0.06967,0.25838,-0.095453,0.094435,0.016145,0.0023406,0.032668,-0.097941,0.0013855,-0.0062788,0.11765,0.0098935
-0.034075,-0.017482,0.024593,-0.0065409,0.0047936,-0.0020551,-0.076846,-0.04776,-0.19956,-0.051801,-0.035524,-0.17619,-0.017117,0.35537,-0.081106,0.108,0.01474,0.0017286,0.018065,-0.14507,-0.011999,-0.17118,0.1179,0.048882
-0.025794,-0.018204,0.012959,0.0010376,-0.0016525,-0.0079384,-0.073489,-0.045078,-0.20465,-0.047989,-0.048299,-0.17094,0.045552,0.44268,-0.060325,0.11854,0.015397,-0.0018272,0.0086554,-0.19293,-0.022422,-0.34742,0.12,0.082758
-0.019744,-0.01503,0.0053628,0.0086908,-0.0039357,-0.012599,-0.069676,-0.043774,-0.21099,-0.040025,-0.056932,-0.15913,0.10389,0.51358,-0.032275,0.13059,0.017063,-0.0059859,0.0048311,-0.23249,-0.026834,-0.50883,0.11569,0.10535
-0.017432,-0.0090822,0.00054702,0.010689,-0.00156,-0.013589,-0.067394,-0.045016,-0.21807,-0.027935,-0.061274,-0.13661,0.15502,0.56603,0.00443,0.14813,0.016861,-0.007758,0.0035759,-0.2558,-0.024616,-0.63071,0.09598,0.11539
-0.016719,-0.0038974,-0.0037751,0.0035729,0.002501,-0.011205,-0.06662,-0.045781,-0.22335,-0.012915,-0.062171,-0.1038,0.20705,0.59592,0.049467,0.17002,0.012927,-0.0058966,0.0011412,-0.26212,-0.016694,-0.69814,0.059513,0.11526
-0.014018,-0.0023041,-0.0092916,-0.010971,0.0039401,-0.0080069,-0.064713,-0.041577,-0.22459,0.0033497,-0.061479,-0.068445,0.26741,0.59642,0.097836,0.18931,0.0067438,-0.0020898,-0.0043207,-0.26043,-0.0036857,-0.70976,0.015331,0.10807
-0.0076214,-0.0039287,-0.016652,-0.027125,0.00023907,-0.0066216,-0.058298,-0.030605,-0.22194,0.019758,-0.061653,-0.042036,0.33029,0.5643,0.13949,0.19718,0.0021585,-1.5865e-005,-0.011789,-0.26562,0.015042,-0.67626,-0.022392,0.095423
0.00085174,-0.0056985,-0.025858,-0.039161,-0.0075607,-0.0077752,-0.04614,-0.015716,-0.21776,0.036164,-0.064515,-0.031953,0.37497,0.50574,0.16357,0.18822,0.0016151,-0.0028476,-0.018323,-0.28959,0.040324,-0.61536,-0.043927,0.077552
0.0080079,-0.0047721,-0.036483,-0.045384,-0.015614,-0.010182,-0.030618,-0.0025253,-0.21439,0.052575,-0.069851,-0.035608,0.37827,0.43504,0.16516,0.16268,0.003324,-0.010943,-0.02104,-0.33242,0.070956,-0.54548,-0.05058,0.055458
0.011652,-0.0010295,-0.047386,-0.048533,-0.019828,-0.012104,-0.016474,0.0046442,-0.2119,0.067937,-0.075232,-0.042025,0.33258,0.36668,0.14915,0.12395,0.0025855,-0.021371,-0.018874,-0.37946,0.10231,-0.47956,-0.053171,0.032898
0.012506,0.0032039,-0.056608,-0.052481,-0.018358,-0.012951,-0.0077532,0.0056012,-0.20806,0.079766,-0.07773,-0.040159,0.25522,0.30827,0.12719,0.073824,-0.003534,-0.029625,-0.013202,-0.407,0.12735,-0.42119,-0.063384,0.015968
0.013379,0.0057609,-0.062233,-0.058272,-0.012471,-0.013468,-0.0052043,0.0037757,-0.20035,0.085261,-0.076454,-0.027325,0.18046,0.26012,0.10919,0.010086,-0.012606,-0.032333,-0.0070063,-0.39435,0.13977,-0.3653,-0.084561,0.0099945
0.016751,0.0068895,-0.063945,-0.063043,-0.0054591,-0.014556,-0.0060412,0.0031581,-0.1881,0.083189,-0.073764,-0.010842,0.13803,0.22066,0.095847,-0.0709,-0.018187,-0.029168,-0.0029465,-0.3359,0.13707,-0.30433,-0.10908,0.015851
0.022904,0.0089222,-0.063972,-0.062733,-0.00048972,-0.016123,-0.0061331,0.0054452,-0.17277,0.075057,-0.073908,-0.0017265,0.1329,0.19104,0.078639,-0.16835,-0.015401,-0.022809,-0.0014034,-0.24606,0.1215,-0.23684,-0.12454,0.028556
0.029923,0.013712,-0.066122,-0.05608,0.0011986,-0.017189,-0.002948,0.0095546,-0.15609,0.064585,-0.080051,-0.0060662,0.14118,0.17396,0.047438,-0.27283,-0.0057776,-0.017211,0.00017613,-0.15365,0.098234,-0.17256,-0.12414,0.039355
0.03527,0.020392,-0.073139,-0.046263,0.00069997,-0.017127,0.0028349,0.013339,-0.13823,0.05578,-0.0921,-0.02139,0.12567,0.16835,-0.00043896,-0.36783,0.0033439,-0.01541,0.0058434,-0.088349,0.072377,-0.12859,-0.11333,0.039799
0.037536,0.025708,-0.084274,-0.038645,0.00026923,-0.016673,0.0080515,0.015532,-0.11759,0.050986,-0.107,-0.040521,0.060686,0.16576,-0.057375,-0.4371,0.0047335,-0.018138,0.018213,-0.066273,0.046785,-0.11785,-0.10745,0.024857
0.037202,0.026734,-0.095297,-0.036536,0.0014202,-0.017544,0.0094621,0.016204,-0.092476,0.050187,-0.12097,-0.058561,-0.051213,0.15246,-0.11101,-0.47343,-0.0025816,-0.023791,0.035969,-0.082698,0.022092,-0.13782,-0.12165,-0.0067873
0.036153,0.023507,-0.10145,-0.038657,0.0036662,-0.020832,0.0061529,0.01576,-0.062931,0.051849,-0.13168,-0.076075,-0.18169,0.11528,-0.15311,-0.48306,-0.012408,-0.029517,0.053862,-0.116,-0.0017478,-0.16859,-0.16017,-0.054477
0.036491,0.019157,-0.10125,-0.040492,0.0048738,-0.025668,0.00041001,0.013934,-0.030924,0.05438,-0.13857,-0.095609,-0.2958,0.04544,-0.18412,-0.48243,-0.016594,-0.032747,0.065629,-0.14025,-0.023988,-0.18306,-0.21234,-0.11662
0.03941,0.017323,-0.097854,-0.038316,0.0030055,-0.029529,-0.0033661,0.010004,0.0010621,0.056976,-0.14169,-0.1154,-0.37362,-0.062335,-0.2097,-0.48904,-0.011834,-0.032477,0.06801,-0.13903,-0.042874,-0.16268,-0.25781,-0.1891
0.044653,0.019082,-0.096519,-0.032423,-0.0021174,-0.030171,-0.00098098,0.0040044,0.031617,0.059253,-0.14056,-0.12725,-0.41953,-0.21241,-0.23294,-0.5117,-0.00228,-0.029757,0.062961,-0.11228,-0.056614,-0.10713,-0.27745,-0.26196
0.050701,0.022037,-0.099873,-0.026838,-0.0084832,-0.027654,0.0092725,-0.0024113,0.060627,0.060227,-0.13451,-0.12173,-0.45432,-0.40637,-0.2496,-0.54571,0.0040429,-0.027155,0.056386,-0.073024,-0.064503,-0.031268,-0.26308,-0.3184
0.055534,0.022398,-0.10521,-0.02588,-0.013283,-0.024696,0.025486,-0.0065166,0.088072,0.057826,-0.12403,-0.096819,-0.49772,-0.63504,-0.25063,-0.57569,0.0016731,-0.027376,0.054313,-0.037023,-0.067294,0.047231,-0.22048,-0.33916
0.057582,0.0183,-0.1065,-0.030577,-0.014869,-0.024867,0.042705,-0.0061968,0.11268,0.049714,-0.11178,-0.062072,-0.55478,-0.87144,-0.22981,-0.58409,-0.0084059,-0.031695,0.059301,-0.012764,-0.066659,0.11882,-0.16515,-0.31202
0.056422,0.011558,-0.099686,-0.037889,-0.013671,-0.029876,0.05507,-0.0013956,0.1318,0.03502,-0.10179,-0.033729,-0.61512,-1.075,-0.18967,-0.56049,-0.020229,-0.039102,0.069412,0.0018856,-0.064227,0.18302,-0.1138,-0.24067
0.052899,0.006333,-0.086879,-0.043195,-0.011463,-0.038031,0.058713,0.0058746,0.14261,0.015608,-0.097172,-0.024008,-0.66307,-1.2106,-0.14081,-0.50687,-0.027829,-0.04677,0.079933,0.01528,-0.060791,0.24008,-0.076918,-0.14601
0.048635,0.0058015,-0.075416,-0.043782,-0.0098368,-0.045112,0.054022,0.012942,0.14395,-0.004284,-0.097988,-0.033033,-0.68926,-1.2701,-0.095185,-0.43636,-0.029399,-0.051692,0.086135,0.034188,-0.055905,0.28289,-0.056047,-0.056967
0.045212,0.0096108,-0.072351,-0.040484,-0.0093038,-0.04714,0.045811,0.018134,0.13732,-0.019997,-0.10104,-0.049802,-0.69439,-1.2796,-0.059248,-0.36663,-0.027683,-0.052526,0.085197,0.058688,-0.047947,0.29771,-0.046179,0.0045836
0.043445,0.014275,-0.078929,-0.036405,-0.009605,-0.043079,0.040844,0.021447,0.12649,-0.028756,-0.10196,-0.060932,-0.68388,-1.2786,-0.032131,-0.31163,-0.027054,-0.050429,0.076726,0.083012,-0.03472,0.27471,-0.040979,0.035049
0.043112,0.016135,-0.089759,-0.034102,-0.010542,-0.035572,0.043849,0.023921,0.11586,-0.030878,-0.098198,-0.05966,-0.66004,-1.2865,-0.009451,-0.27553,-0.030121,-0.048227,0.062434,0.10073,-0.014589,0.21918,-0.037111,0.048659
0.04323,0.014297,-0.097325,-0.033702,-0.012227,-0.029197,0.054535,0.02655,0.10834,-0.029402,-0.090706,-0.048219,-0.61958,-1.2802,0.011571,-0.25146,-0.036348,-0.048405,0.045552,0.10963,0.012232,0.15327,-0.035189,0.065564
0.042658,0.010981,-0.097861,-0.033341,-0.014513,-0.027514,0.067899,0.02973,0.10402,-0.028778,-0.083078,-0.033136,-0.55874,-1.2071,0.030392,-0.22527,-0.043101,-0.051303,0.029872,0.11247,0.043136,0.10499,-0.037475,0.097122
0.040647,0.0090843,-0.093605,-0.031227,-0.016442,-0.030934,0.077884,0.033545,0.10065,-0.033516,-0.078646,-0.01904,-0.48013,-1.0256,0.045728,-0.18274,-0.047745,-0.054866,0.018192,0.11386,0.074113,0.091815,-0.044723,0.1389
0.037096,0.0092732,-0.089862,-0.027369,-0.016672,-0.036787,0.081822,0.038227,0.095863,-0.047129,-0.07774,-0.0066797,-0.39381,-0.74351,0.059009,-0.11665,-0.049162,-0.056202,0.010766,0.11628,0.10212,0.1105,-0.054772,0.17574
0.032503,0.0093397,-0.089844,-0.023453,-0.014755,-0.041309,0.082259,0.044024,0.08987,-0.071085,-0.077232,0.0043615,-0.31057,-0.4196,0.07464,-0.030235,-0.047959,-0.053811,0.0051458,0.11901,0.1274,0.14057,-0.063645,0.19405
0.027794,0.0064033,-0.091973,-0.021107,-0.012038,-0.042066,0.084648,0.05047,0.08622,-0.1037,-0.072843,0.012641,-0.23402,-0.12556,0.096511,0.065118,-0.045681,-0.048797,-0.0017597,0.12045,0.15367,0.15869,-0.067712,0.19124
0.024063,-0.00013633,-0.091738,-0.020203,-0.011056,-0.039167,0.092774,0.055903,0.089621,-0.13961,-0.062521,0.015554,-0.16062,0.10418,0.12424,0.15676,-0.043774,-0.044081,-0.010529,0.12123,0.1855,0.15348,-0.064868,0.17571
0.02217,-0.0076715,-0.086101,-0.018802,-0.013615,-0.034728,0.10558,0.058036,0.10201,-0.17086,-0.048294,0.013001,-0.089517,0.29395,0.15309,0.23796,-0.042945,-0.042208,-0.017614,0.12476,0.22399,0.13065,-0.054123,0.15853
0.022218,-0.012332,-0.076409,-0.014872,-0.019106,-0.031223,0.11791,0.055405,0.11999,-0.18949,-0.035072,0.0094314,-0.033484,0.50186,0.17788,0.31047,-0.043124,-0.043448,-0.017266,0.13441,0.26393,0.10572,-0.034955,0.14473
0.023274,-0.012013,-0.067452,-0.0082832,-0.024599,-0.029952,0.12434,0.048512,0.1361,-0.19056,-0.027296,0.010998,-0.018388,0.76776,0.19704,0.38091,-0.043841,-0.045665,-0.006175,0.14958,0.295,0.091047,-0.0080237,0.13123
0.023757,-0.0078375,-0.063779,-0.0012736,-0.026843,-0.030452,0.12297,0.039642,0.14336,-0.17388,-0.026029,0.019788,-0.067646,1.0752,0.21263,0.45351,-0.04458,-0.04603,0.012647,0.16471,0.30702,0.087176,0.022961,0.11247
0.022461,-0.003014,-0.066478,0.0031569,-0.02466,-0.030964,0.11622,0.031403,0.13973,-0.14356,-0.028725,0.030662,-0.18241,1.357,0.22632,0.52457,-0.044831,-0.04316,0.030266,0.17243,0.29599,0.084477,0.050478,0.088028
0.019488,-0.00033988,-0.072829,0.0036347,-0.019791,-0.029503,0.10858,0.025216,0.12889,-0.10618,-0.031668,0.034293,-0.33479,1.5379,0.23563,0.58247,-0.043938,-0.037997,0.036903,0.16878,0.26689,0.072636,0.065613,0.065313
0.016213,-0.00052026,-0.07864,0.0015542,-0.015522,-0.024954,0.10353,0.020916,0.11669,-0.06881,-0.032867,0.02424,-0.48191,1.5826,0.23509,0.61283,-0.041163,-0.032855,0.028324,0.15643,0.2309,0.049673,0.062967,0.05516
0.014152,-0.0023296,-0.081061,-4.3148e-005,-0.014153,-0.017757,0.10182,0.017581,0.10642,-0.037688,-0.032966,0.0020009,-0.59116,1.5116,0.22176,0.60578,-0.036214,-0.029563,0.0088578,0.14302,0.19883,0.023282,0.044457,0.063716
0.013652,-0.0039636,-0.079777,0.0010533,-0.01534,-0.0098815,0.10206,0.014621,0.096704,-0.017172,-0.033635,-0.024168,-0.65675,1.38,0.19976,0.56102,-0.029899,-0.028278,-0.011288,0.136,0.17526,0.0040558,0.01842,0.086938
0.01362,-0.0042568,-0.076118,0.0044669,-0.016565,-0.0040086,0.10234,0.012103,0.083858,-0.008477,-0.0352,-0.045223,-0.69552,1.2388,0.17832,0.48828,-0.024145,-0.027767,-0.022541,0.13778,0.15735,-0.0032143,-0.0060669,0.11134
0.012584,-0.0030613,-0.071307,0.0076805,-0.015317,-0.002181,0.10143,0.010188,0.066237,-0.0086402,-0.035901,-0.056652,-0.72816,1.1098,0.16379,0.40277,-0.020976,-0.0266,-0.021753,0.14471,0.13848,-0.0029654,-0.025589,0.11993
0.010098,-0.00097812,-0.06551,0.0082961,-0.011253,-0.0045904,0.099155,0.0084632,0.04678,-0.011043,-0.033471,-0.059093,-0.76342,0.98753,0.15232,0.31787,-0.020992,-0.024063,-0.013428,0.15006,0.11367,-0.0047536,-0.04452,0.099188
0.0071195,0.0011084,-0.058357,0.0061654,-0.0066783,-0.0092803,0.096185,0.0059935,0.031382,-0.0083049,-0.027491,-0.055035,-0.79688,0.85891,0.13058,0.23883,-0.022562,-0.020127,-0.006022,0.14846,0.082552,-0.01564,-0.071146,0.043658
0.0050249,0.0024975,-0.050273,0.0035474,-0.0049895,-0.013111,0.093756,0.0021782,0.024459,0.0035378,-0.020151,-0.045777,-0.82047,0.72107,0.085648,0.16154,-0.022643,-0.014938,-0.0062954,0.13849,0.048379,-0.035381,-0.11075,-0.042708
0.0042485,0.0030634,-0.043163,0.0031607,-0.0082142,-0.013534,0.093253,-0.0023631,0.025391,0.022316,-0.01458,-0.031546,-0.82937,0.58383,0.016421,0.077812,-0.018876,-0.0086666,-0.015653,0.12214,0.014847,-0.057582,-0.16077,-0.14717
0.0039098,0.0033103,-0.039543,0.0058637,-0.0154,-0.010084,0.095449,-0.0057645,0.028722,0.040836,-0.012234,-0.013718,-0.81946,0.46085,-0.062718,-0.016445,-0.01145,-0.0019765,-0.030533,0.10237,-0.016063,-0.074796,-0.21111,-0.25011
0.002746,0.003841,-0.040587,0.010042,-0.022959,-0.0045946,0.099531,-0.0059915,0.027879,0.051551,-0.011814,0.0041878,-0.78156,0.36007,-0.12993,-0.11652,-0.0032932,0.0035757,-0.045879,0.080743,-0.043776,-0.082948,-0.24872,-0.32877
0.00035413,0.0045305,-0.044756,0.013205,-0.026729,4.5017e-005,0.10269,-0.0023417,0.019584,0.051641,-0.010747,0.018413,-0.70348,0.28067,-0.1698,-0.21196,0.00166,0.0060364,-0.058775,0.056681,-0.067465,-0.082079,-0.26312,-0.3638
-0.002484,0.004266,-0.048492,0.014191,-0.02442,0.0017458,0.10106,0.0037676,0.0058407,0.044788,-0.0078327,0.027932,-0.58111,0.21529,-0.18265,-0.29474,0.00091868,0.0043951,-0.069668,0.028415,-0.085367,-0.073997,-0.2501,-0.34723
-0.0045923,0.0018552,-0.048795,0.013805,-0.016908,0.00041764,0.091952,0.0094497,-0.0076019,0.038329,-0.0044904,0.035248,-0.42733,0.15345,-0.18223,-0.36444,-0.0050874,-0.00029901,-0.080747,-0.0051819,-0.096035,-0.059533,-0.21287,-0.28759
-0.0053737,-0.0024546,-0.045661,0.013359,-0.0076318,-0.0022454,0.076238,0.012119,-0.015007,0.038079,-0.0032884,0.043866,-0.26671,0.084748,-0.18449,-0.42448,-0.013391,-0.0051792,-0.093219,-0.042953,-0.10019,-0.037443,-0.16108,-0.20796
-0.0049977,-0.0063707,-0.042068,0.012875,-0.00050491,-0.0040925,0.058893,0.011134,-0.014158,0.044774,-0.0050681,0.054733,-0.11787,0.0033456,-0.19622,-0.47273,-0.020296,-0.0072407,-0.10581,-0.080851,-0.10099,-0.0051046,-0.108,-0.13581
-0.0038224,-0.006912,-0.041179,0.01116,0.0023902,-0.0038904,0.046737,0.0080385,-0.007581,0.054531,-0.0074192,0.064993,0.020514,-0.087167,-0.21208,-0.49728,-0.02333,-0.0052787,-0.11561,-0.11284,-0.102,0.039841,-0.066134,-0.089839
-0.0019155,-0.0029835,-0.043037,0.007915,0.0019431,-0.0018057,0.044225,0.0051775,-0.0008561,0.062376,-0.0061473,0.070259,0.16502,-0.17351,-0.22116,-0.4856,-0.022226,-0.00061413,-0.12035,-0.13319,-0.10436,0.097533,-0.042593,-0.07195
0.00069359,0.0030778,-0.043847,0.0055134,0.0012731,0.0011134,0.0501,0.0038176,0.0009561,0.065711,0.0013328,0.068313,0.32646,-0.241,-0.21664,-0.44179,-0.018585,0.0039377,-0.12012,-0.13935,-0.10575,0.1639,-0.03693,-0.069846
0.0033782,0.0067553,-0.03889,0.0079601,0.0035012,0.0038055,0.057732,0.0033776,-0.0033498,0.065248,0.013559,0.061,0.49099,-0.28684,-0.20103,-0.39581,-0.01472,0.0060489,-0.11714,-0.13371,-0.10239,0.22957,-0.043203,-0.068478
0.0048252,0.0048309,-0.026788,0.017337,0.0094313,0.0057082,0.0595,0.0024379,-0.010218,0.063466,0.025666,0.05285,0.62215,-0.32727,-0.18352,-0.39082,-0.01241,0.0053598,-0.11385,-0.123,-0.092332,0.28131,-0.055098,-0.061687
0.0039087,-0.0016788,-0.011386,0.030991,0.016767,0.0067555,0.052248,0.00053923,-0.013676,0.062488,0.032653,0.047846,0.68465,-0.38951,-0.17276,-0.45327,-0.012199,0.0034839,-0.111,-0.11511,-0.077507,0.30673,-0.069881,-0.055216
0.00086309,-0.0078129,0.00063467,0.042576,0.021585,0.0071912,0.03954,-0.0010551,-0.0095395,0.06304,0.032717,0.047038,0.67132,-0.4921,-0.17105,-0.56813,-0.013432,0.0026724,-0.10731,-0.1152,-0.062569,0.30046,-0.087536,-0.059118
-0.0024277,-0.0083193,0.004617,0.046585,0.021171,0.0074856,0.028658,-0.00057206,0.0014634,0.064654,0.02823,0.048579,0.61118,-0.62973,-0.17395,-0.68179,-0.014873,0.0041526,-0.10103,-0.12345,-0.051555,0.26775,-0.10587,-0.076224
-0.003552,-0.001901,0.0013126,0.042539,0.016113,0.0082661,0.024606,0.0020714,0.014037,0.066272,0.023947,0.049628,0.55159,-0.77795,-0.17436,-0.73484,-0.015527,0.00727,-0.09182,-0.13611,-0.045186,0.22208,-0.11689,-0.096672
-0.001379,0.0074435,-0.0038769,0.035101,0.0099554,0.010035,0.026034,0.0042504,0.02199,0.066682,0.023986,0.048357,0.52818,-0.91632,-0.16717,-0.70104,-0.015207,0.00995,-0.081413,-0.1489,-0.041078,0.1777,-0.10942,-0.10347
0.0028853,0.01327,-0.0050202,0.03008,0.0065962,0.012759,0.02652,0.0021312,0.022469,0.064959,0.029659,0.044803,0.54485,-1.0492,-0.15119,-0.60229,-0.014566,0.010115,-0.072317,-0.15996,-0.036531,0.1417,-0.077563,-0.084932
0.0063314,0.011609,0.00024393,0.029959,0.0075307,0.01573,0.020071,-0.0062247,0.017505,0.061081,0.039179,0.040505,0.57747,-1.2018,-0.12792,-0.48793,-0.014599,0.0070719,-0.065773,-0.16999,-0.031363,0.11123,-0.028014,-0.044084
0.0062926,0.0040476,0.0096413,0.032705,0.011232,0.017922,0.0061437,-0.01872,0.011857,0.056289,0.048977,0.037611,0.59586,-1.3894,-0.099305,-0.39628,-0.015968,0.0019472,-0.060795,-0.17958,-0.028214,0.077677,0.021049,0.002484
0.0021909,-0.0035491,0.018568,0.034315,0.015062,0.018517,-0.010014,-0.030035,0.0091129,0.052485,0.055637,0.038015,0.58582,-1.5866,-0.066902,-0.33029,-0.018583,-0.0030805,-0.055212,-0.1865,-0.030028,0.034351,0.050515,0.035361
-0.0040633,-0.0057259,0.023566,0.032248,0.017827,0.017085,-0.021694,-0.03498,0.0093447,0.050789,0.057493,0.042663,0.55529,-1.729,-0.032644,-0.26602,-0.021646,-0.0061075,-0.0478,-0.18559,-0.03687,-0.017906,0.052754,0.044364
-0.0093666,-0.001765,0.02435,0.026698,0.02054,0.013369,-0.025783,-0.031774,0.010012,0.05044,0.055329,0.051133,0.52251,-1.7552,0.00032592,-0.18318,-0.024027,-0.0064136,-0.039529,-0.17188,-0.04491,-0.070826,0.036093,0.03314
-0.011439,0.0038537,0.02335,0.019296,0.024758,0.0072886,-0.024331,-0.022722,0.0089195,0.049267,0.05199,0.06177,0.49857,-1.6583,0.028392,-0.088766,-0.0247,-0.0044375,-0.032734,-0.14443,-0.048653,-0.11374,0.017754,0.013983
-0.010139,0.0052223,0.023754,0.011323,0.030244,-0.00038308,-0.02181,-0.011963,0.0063553,0.045568,0.051118,0.072489,0.47931,-1.4984,0.049928,-0.012358,-0.02306,-0.0011478,-0.028957,-0.10771,-0.04486,-0.13961,0.011224,-0.0018961
-0.0072906,-0.00011836,0.027739,0.0034038,0.03439,-0.0072103,-0.021014,-0.0023774,0.0045708,0.039748,0.055494,0.081862,0.45258,-1.356,0.067744,0.021749,-0.019193,0.0024528,-0.027482,-0.069341,-0.035174,-0.1483,0.018245,-0.010813
-0.0053151,-0.0092113,0.035855,-0.0034726,0.034118,-0.0094642,-0.02131,0.0058119,0.0053868,0.034121,0.06567,0.089681,0.41294,-1.2591,0.089277,0.019653,-0.014082,0.0053606,-0.025914,-0.035974,-0.025323,-0.14553,0.030871,-0.01586
-0.0057516,-0.016176,0.047304,-0.0073609,0.028585,-0.0043143,-0.020322,0.013935,0.0084377,0.030922,0.079444,0.096574,0.37016,-1.1468,0.1233,0.017181,-0.009546,0.006524,-0.022171,-0.010207,-0.021252,-0.13879,0.040014,-0.021426
-0.0085927,-0.016983,0.060304,-0.0063442,0.020216,0.0074127,-0.016868,0.022679,0.011784,0.030349,0.092507,0.10311,0.34343,-0.91102,0.17422,0.053494,-0.0075924,0.0052468,-0.015954,0.0094693,-0.024843,-0.13291,0.04212,-0.028694
-0.012651,-0.01251,0.072217,-0.00031105,0.013126,0.020443,-0.012184,0.03091,0.014167,0.030436,0.1002,0.10924,0.34585,-0.49309,0.2369,0.1411,-0.0093057,0.001923,-0.008416,0.026344,-0.032346,-0.12772,0.038944,-0.03565
-0.016463,-0.0074614,0.079932,0.0083339,0.010247,0.02775,-0.0085153,0.036405,0.01652,0.028809,0.099791,0.11455,0.37205,0.04304,0.29592,0.25668,-0.013963,-0.001714,-0.00068557,0.042885,-0.036781,-0.11941,0.032859,-0.040288
-0.019079,-0.0062551,0.081023,0.015955,0.011496,0.02533,-0.0068429,0.037578,0.021072,0.02458,0.092149,0.11879,0.39938,0.52698,0.33114,0.35874,-0.019238,-0.0034632,0.0070072,0.059659,-0.032703,-0.10455,0.023983,-0.042975
-0.020359,-0.0093996,0.075381,0.019983,0.014219,0.01537,-0.0061869,0.034605,0.028898,0.018641,0.081548,0.12202,0.40282,0.78608,0.32791,0.41649,-0.022646,-0.0022192,0.014729,0.076024,-0.019927,-0.084322,0.01219,-0.045564
-0.020826,-0.01326,0.065978,0.020267,0.015204,0.0049294,-0.0050991,0.029147,0.038409,0.012336,0.073312,0.12412,0.37304,0.76126,0.2861,0.42695,-0.023268,0.0010897,0.021693,0.091511,-0.0034649,-0.065681,0.00089983,-0.048661
-0.021225,-0.01319,0.057609,0.018438,0.012556,0.00081195,-0.0036353,0.023194,0.046514,0.0060915,0.070538,0.1243,0.325,0.54456,0.22127,0.40932,-0.022329,0.0041628,0.026193,0.10653,0.010171,-0.057927,-0.0028518,-0.050375
-0.022007,-0.0073438,0.053979,0.016015,0.0062545,0.0046613,-0.0036147,0.018103,0.051509,-0.00056804,0.072226,0.12141,0.29087,0.30916,0.15534,0.38475,-0.022009,0.0051511,0.026978,0.1219,0.017451,-0.066616,0.0064992,-0.048047
-0.022968,0.0018551,0.055245,0.013094,-0.0023787,0.012233,-0.0067386,0.014431,0.054918,-0.0078136,0.074362,0.11495,0.30194,0.18747,0.10197,0.35963,-0.023418,0.0040605,0.024691,0.13775,0.019679,-0.089037,0.027351,-0.041071
-0.023318,0.0095563,0.058171,0.0088071,-0.011412,0.017271,-0.012366,0.012301,0.060259,-0.014638,0.073298,0.10595,0.37099,0.19194,0.056967,0.32484,-0.025551,0.0024691,0.021692,0.15284,0.021015,-0.11486,0.050684,-0.031583
-0.022251,0.012033,0.059063,0.0030767,-0.018703,0.016525,-0.017223,0.011688,0.069613,-0.019436,0.068802,0.09699,0.48558,0.23403,0.0023988,0.26888,-0.026231,0.0018551,0.020301,0.16494,0.024529,-0.13192,0.066424,-0.022027
-0.019684,0.0091846,0.057132,-0.0020819,-0.022285,0.011727,-0.01761,0.012359,0.081074,-0.02153,0.064323,0.091048,0.61516,0.21646,-0.0765,0.192,-0.024276,0.0021628,0.02115,0.17193,0.029562,-0.13307,0.071181,-0.011999
-0.016528,0.0042052,0.055261,-0.0032036,-0.021228,0.0073378,-0.01238,0.013687,0.089636,-0.022016,0.064255,0.0901,0.72579,0.11935,-0.17351,0.10981,-0.020862,0.0020118,0.023248,0.17285,0.032395,-0.11928,0.070461,0.002236
-0.014133,0.00084412,0.057335,0.0022143,-0.016672,0.0065873,-0.0041726,0.014734,0.091088,-0.022973,0.070372,0.094117,0.79241,0.014917,-0.2573,0.044366,-0.018709,0.00036032,0.025438,0.16801,0.02944,-0.096903,0.073345,0.02456
-0.013262,0.00044655,0.064382,0.013408,-0.011953,0.0093547,0.0022164,0.014656,0.085707,-0.025694,0.080164,0.10106,0.80259,0.0091225,-0.28708,0.010582,-0.01972,-0.0020166,0.02747,0.15837,0.020259,-0.071479,0.084275,0.054769
-0.013451,0.0010578,0.073004,0.02625,-0.010995,0.013182,0.0031394,0.013154,0.078533,-0.029649,0.088247,0.1078,0.75334,0.16508,-0.23874,0.0079716,-0.023159,-0.0027652,0.02952,0.14495,0.0080104,-0.043475,0.098956,0.087018
-0.013339,-0.00074591,0.077665,0.035816,-0.015611,0.015715,-0.0014146,0.010574,0.075779,-0.033127,0.089742,0.1116,0.64804,0.46817,-0.12324,0.022658,-0.026064,0.00013944,0.030917,0.12889,-0.0029031,-0.0094221,0.10756,0.1124
-0.011715,-0.0067591,0.074992,0.03976,-0.023747,0.016104,-0.0079806,0.0075789,0.080174,-0.034895,0.083314,0.11145,0.49768,0.84952,0.01722,0.03697,-0.025581,0.0064498,0.029916,0.11193,-0.010112,0.032155,0.10218,0.12358
-0.0084163,-0.015265,0.066416,0.039786,-0.030424,0.014637,-0.012231,0.0046758,0.088967,-0.035201,0.07199,0.10844,0.32422,1.2358,0.13337,0.03976,-0.02117,0.013419,0.025178,0.096568,-0.014966,0.075014,0.082434,0.11802
-0.004389,-0.021946,0.056961,0.039926,-0.031106,0.011839,-0.01205,0.0019812,0.096162,-0.035151,0.061334,0.10487,0.15889,1.5801,0.19648,0.031632,-0.014845,0.017603,0.017472,0.085253,-0.021341,0.10531,0.055247,0.097788
-0.00097654,-0.022969,0.051282,0.043048,-0.025025,0.0083951,-0.0087828,-0.00061358,0.09716,-0.035121,0.056067,0.10256,0.031976,1.8551,0.21025,0.023456,-0.0093316,0.017281,0.0095765,0.079054,-0.032437,0.10946,0.029878,0.067066
0.00094278,-0.017873,0.050292,0.048583,-0.015748,0.0056661,-0.0058259,-0.0030845,0.092094,-0.033919,0.057077,0.10136,-0.041278,2.0292,0.1999,0.030415,-0.0058901,0.013606,0.0040885,0.0769,-0.047948,0.085613,0.012379,0.02989
0.001415,-0.0099827,0.050977,0.05336,-0.0084873,0.0055771,-0.0057287,-0.0051127,0.085338,-0.029753,0.060696,0.099181,-0.06812,2.0592,0.18874,0.065108,-0.0037015,0.0096451,0.0012397,0.076252,-0.063858,0.050361,0.0032875,-0.010239
0.0013162,-0.0040086,0.049198,0.054636,-0.0063696,0.0093669,-0.008154,-0.006323,0.081747,-0.022319,0.060947,0.093682,-0.07237,1.9135,0.18051,0.13214,-0.0012062,0.0081592,-0.00090965,0.074922,-0.075187,0.033832,-0.00080296,-0.049184
0.0018484,-0.0027147,0.042987,0.052449,-0.0087282,0.016307,-0.010297,-0.0067138,0.082783,-0.014038,0.053611,0.084458,-0.078583,1.6073,0.15961,0.22527,0.0019761,0.0098366,-0.0038473,0.07267,-0.079696,0.063601,-0.0039313,-0.081066
0.0038386,-0.0051797,0.033839,0.049208,-0.012536,0.023891,-0.0093499,-0.0068225,0.085625,-0.0089791,0.039477,0.074017,-0.09772,1.2147,0.10662,0.32772,0.0044074,0.013178,-0.0061567,0.071298,-0.079687,0.14674,-0.0083505,-0.098543
0.0071253,-0.0078427,0.025415,0.047119,-0.015302,0.029597,-0.0049285,-0.0073624,0.085834,-0.0099153,0.024275,0.066584,-0.12414,0.84079,0.015982,0.41648,0.0041405,0.015885,-0.0039942,0.073069,-0.080487,0.26261,-0.014238,-0.094801
0.010454,-0.0073117,0.020971,0.04612,-0.016665,0.032601,0.00054652,-0.008571,0.081219,-0.015771,0.014945,0.065449,-0.14416,0.56811,-0.096801,0.47056,0.0008495,0.01656,0.0054816,0.078611,-0.086839,0.37306,-0.020938,-0.066589
0.012166,-0.0026847,0.021408,0.044376,-0.017526,0.033837,0.0037363,-0.0098535,0.073653,-0.021699,0.014732,0.070767,-0.14742,0.41495,-0.20189,0.48029,-0.0031866,0.015483,0.020734,0.085961,-0.10006,0.44413,-0.028291,-0.017015
0.01139,0.004232,0.024951,0.040721,-0.018057,0.034497,0.0029114,-0.010111,0.067378,-0.022103,0.020806,0.079462,-0.13227,0.3352,-0.26948,0.45251,-0.0043547,0.014101,0.035825,0.091506,-0.11799,0.46483,-0.036908,0.043534
0.0088129,0.010637,0.028291,0.036385,-0.016942,0.03466,-0.00090362,-0.0085557,0.065335,-0.014525,0.02642,0.087268,-0.1035,0.2584,-0.28255,0.4072,-0.00043708,0.013782,0.044155,0.092176,-0.13719,0.44957,-0.047265,0.09975
0.0062267,0.014819,0.028314,0.033982,-0.012695,0.033489,-0.0049212,-0.0053486,0.066732,-0.0014849,0.026083,0.091317,-0.068414,0.14019,-0.24239,0.36625,0.0073786,0.014807,0.043011,0.087251,-0.15525,0.42362,-0.058302,0.13691
0.0050379,0.017064,0.023528,0.034527,-0.0056532,0.030566,-0.0067763,-0.001532,0.067933,0.011218,0.01968,0.091374,-0.036478,-0.012448,-0.16602,0.34105,0.015005,0.016278,0.035219,0.078506,-0.17144,0.40332,-0.06665,0.14719
0.0050087,0.019004,0.01462,0.035478,0.0015688,0.026711,-0.0062273,0.0017165,0.065908,0.018549,0.012195,0.08905,-0.020876,-0.15559,-0.078536,0.32724,0.018292,0.016937,0.026749,0.068747,-0.18587,0.3861,-0.067331,0.13302
0.0044853,0.022207,0.0040536,0.032087,0.0058213,0.023253,-0.0052591,0.0039364,0.061168,0.019603,0.0092774,0.085954,-0.035191,-0.24729,-0.0035724,0.31014,0.016002,0.016247,0.02251,0.059991,-0.19847,0.35658,-0.056055,0.1049
0.0020907,0.02713,-0.0050471,0.021334,0.0058391,0.020569,-0.0066562,0.0057344,0.05754,0.017777,0.012365,0.082379,-0.082436,-0.27989,0.044516,0.27644,0.010497,0.014915,0.023749,0.052679,-0.20884,0.30157,-0.032223,0.074728
-0.0015917,0.032998,-0.01022,0.0050591,0.0031037,0.017679,-0.012037,0.0084283,0.058824,0.017717,0.017448,0.077312,-0.14363,-0.28321,0.063915,0.22329,0.0055517,0.014377,0.028639,0.04627,-0.21635,0.22122,-0.00091997,0.048851
-0.0039974,0.038432,-0.010691,-0.01068,0.00040247,0.01363,-0.020574,0.013263,0.065161,0.021493,0.018462,0.069223,-0.17856,-0.30008,0.062667,0.15872,0.003214,0.015562,0.034808,0.040365,-0.21987,0.12812,0.027701,0.025471
-0.0024866,0.042254,-0.0077113,-0.019733,-0.00051814,0.0094649,-0.029218,0.020692,0.072301,0.027025,0.012422,0.056647,-0.14443,-0.35591,0.051832,0.094578,0.0024782,0.017922,0.041277,0.035162,-0.21758,0.037251,0.042165,-0.0022853
0.0033146,0.044018,-0.0040132,-0.020082,-7.0735e-005,0.0087031,-0.034402,0.03011,0.074549,0.029969,0.0019952,0.03822,-0.022736,-0.44529,0.039046,0.038442,0.00088831,0.019635,0.048455,0.030901,-0.20775,-0.043844,0.035175,-0.040137
0.010728,0.044073,-0.0024181,-0.014676,0.00011206,0.015513,-0.034262,0.040107,0.069021,0.027491,-0.0065466,0.01277,0.16502,-0.54189,0.026733,-0.0093199,-0.0025169,0.018996,0.056891,0.02704,-0.19094,-0.11732,0.0080594,-0.087477
0.015568,0.043212,-0.004099,-0.0084019,-0.00095177,0.031829,-0.029968,0.049022,0.057667,0.020915,-0.008225,-0.019845,0.36631,-0.6189,0.015465,-0.052586,-0.0058034,0.015888,0.066399,0.022213,-0.17153,-0.1899,-0.028595,-0.136
0.014922,0.042152,-0.0074849,-0.0040668,-0.0026334,0.055695,-0.025153,0.055445,0.045433,0.015096,-0.0030894,-0.057407,0.52698,-0.66145,0.0085579,-0.09442,-0.0057366,0.012041,0.076288,0.015241,-0.15643,-0.26601,-0.059093,-0.1722
0.0090983,0.041166,-0.008817,-0.00085958,-0.00341,0.082114,-0.023691,0.058464,0.036196,0.015036,0.004084,-0.094646,0.62133,-0.66387,0.013045,-0.13421,-0.00093884,0.0097466,0.085984,0.0063157,-0.1508,-0.34425,-0.06982,-0.18211
0.0013922,0.040092,-0.0044748,0.0037728,-0.0023676,0.10568,-0.027225,0.057698,0.029986,0.02239,0.0076432,-0.12418,0.6632,-0.6209,0.035652,-0.16802,0.0064333,0.010135,0.094998,-0.0028129,-0.15381,-0.4184,-0.05577,-0.15672
-0.0040858,0.038628,0.0062413,0.01103,1.5362e-005,0.12301,-0.034139,0.053351,0.023753,0.034562,0.0052199,-0.13906,0.69264,-0.52684,0.077246,-0.19005,0.012257,0.012531,0.10216,-0.0099832,-0.15848,-0.48044,-0.022816,-0.096613
-0.0049468,0.036576,0.019946,0.01943,0.0024247,0.13347,-0.04069,0.046344,0.014771,0.046913,-0.0010406,-0.13567,0.74866,-0.38552,0.13092,-0.19338,0.013963,0.01542,0.10522,-0.014267,-0.15633,-0.52353,0.015597,-0.013804
-0.0017696,0.03379,0.030816,0.02619,0.0038801,0.1382,-0.043518,0.038211,0.0035041,0.056152,-0.0068425,-0.11566,0.84495,-0.21942,0.1857,-0.17058,0.012758,0.017969,0.10183,-0.016749,-0.14345,-0.54404,0.045498,0.071145
0.0026004,0.030014,0.034135,0.029598,0.004313,0.13875,-0.041809,0.030455,-0.0066273,0.062102,-0.0094351,-0.085759,0.96122,-0.064202,0.23296,-0.11656,0.012396,0.020603,0.091604,-0.019729,-0.12283,-0.5423,0.059222,0.137
0.0050669,0.024997,0.029237,0.029945,0.0040997,0.13627,-0.03765,0.023536,-0.012303,0.066619,-0.0094917,-0.0556,1.0533,0.050699,0.27019,-0.033731,0.015548,0.024132,0.077403,-0.024873,-0.10115,-0.52168,0.058341,0.17131
0.0042169,0.01902,0.01971,0.028355,0.0031997,0.13158,-0.034422,0.016332,-0.013375,0.070933,-0.0098014,-0.03419,1.0779,0.11908,0.29968,0.064209,0.021161,0.028452,0.064536,-0.031673,-0.083102,-0.48556,0.051379,0.17568
0.00094475,0.013306,0.010867,0.025033,0.00091108,0.1253,-0.034448,0.00685,-0.013247,0.074059,-0.012247,-0.026614,1.0195,0.15596,0.32372,0.15501,0.025328,0.03227,0.057825,-0.037363,-0.068486,-0.43411,0.048101,0.16307
-0.0025402,0.0096209,0.0065157,0.01898,-0.0034378,0.11762,-0.037561,-0.0060332,-0.016322,0.073801,-0.015965,-0.032611,0.90504,0.17775,0.34102,0.21813,0.024919,0.034157,0.058611,-0.038417,-0.054284,-0.36378,0.053954,0.14857
-0.0045421,0.0090367,0.007278,0.0095399,-0.009532,0.10793,-0.041508,-0.021146,-0.024757,0.06939,-0.018373,-0.047833,0.79122,0.18349,0.34702,0.24672,0.020576,0.033848,0.063916,-0.032632,-0.039337,-0.27091,0.067831,0.14055
-0.00519,0.010797,0.011195,-0.0018143,-0.015852,0.094943,-0.043623,-0.035277,-0.03719,0.06311,-0.018014,-0.06689,0.72857,0.15518,0.33722,0.25243,0.016223,0.032429,0.068547,-0.020485,-0.026774,-0.15688,0.084019,0.13822
-0.0062477,0.012449,0.015562,-0.011454,-0.020549,0.077727,-0.042384,-0.045167,-0.050193,0.059128,-0.01642,-0.085965,0.72384,0.075855,0.31025,0.25791,0.01551,0.031197,0.068704,-0.0049784,-0.021768,-0.029733,0.096576,0.13674
-0.0095468,0.011456,0.018465,-0.015701,-0.022759,0.056912,-0.037773,-0.049753,-0.060902,0.060371,-0.017082,-0.10312,0.73107,-0.053993,0.26845,0.28139,0.018486,0.030409,0.064582,0.0097761,-0.026653,0.10008,0.10314,0.13451
-0.015261,0.0070922,0.019316,-0.013437,-0.023246,0.034989,-0.030667,-0.050905,-0.068547,0.066312,-0.022252,-0.1165,0.68319,-0.21877,0.21614,0.32376,0.021554,0.029205,0.060156,0.020304,-0.037799,0.22646,0.10586,0.1359
-0.021453,0.00098467,0.0187,-0.007028,-0.023821,0.015148,-0.022303,-0.052127,-0.07395,0.073835,-0.030425,-0.12274,0.54236,-0.40523,0.15722,0.36761,0.020765,0.026788,0.060297,0.024891,-0.046961,0.34959,0.10924,0.14727
-0.025368,-0.0042031,0.017978,-0.00082316,-0.025955,-0.000725,-0.014435,-0.056365,-0.077898,0.080519,-0.036877,-0.11764,0.32835,-0.61426,0.093505,0.38903,0.015491,0.023592,0.067176,0.023695,-0.046,0.46942,0.11659,0.1702
-0.025539,-0.0067673,0.018673,0.0015072,-0.029685,-0.013409,-0.0096034,-0.064523,-0.080128,0.087173,-0.037054,-0.099267,0.099728,-0.85152,0.02451,0.37389,0.0092869,0.021166,0.078383,0.018113,-0.03143,0.57519,0.1276,0.19852
-0.02297,-0.0068244,0.021496,-0.0013056,-0.033597,-0.025887,-0.010374,-0.07543,-0.079771,0.096919,-0.030163,-0.070635,-0.096421,-1.1045,-0.050992,0.32756,0.0072316,0.020845,0.08809,0.0099615,-0.0059015,0.64172,0.13845,0.22182
-0.020346,-0.0053998,0.025401,-0.0083876,-0.035808,-0.041188,-0.017432,-0.086808,-0.076665,0.11121,-0.020026,-0.03923,-0.26139,-1.3306,-0.13146,0.27182,0.011956,0.022559,0.090624,0.00097523,0.023719,0.63971,0.14449,0.2328
-0.019805,-0.0029314,0.027646,-0.01821,-0.035125,-0.060009,-0.028039,-0.096265,-0.072228,0.12633,-0.012367,-0.013109,-0.43494,-1.4718,-0.20827,0.23138,0.021456,0.024978,0.084161,-0.0071828,0.049844,0.55562,0.14343,0.23197
-0.021124,0.0010634,0.025452,-0.029661,-0.031639,-0.079964,-0.036779,-0.10188,-0.069086,0.13389,-0.010514,0.0036085,-0.64818,-1.4873,-0.26368,0.21884,0.030253,0.026772,0.072043,-0.012639,0.067034,0.40672,0.13683,0.22596
-0.021886,0.0067761,0.018416,-0.04181,-0.026582,-0.097256,-0.038792,-0.1025,-0.069738,0.12587,-0.012816,0.012246,-0.88373,-1.3768,-0.27501,0.22792,0.032992,0.027685,0.060654,-0.013288,0.073045,0.23766,0.12881,0.221
-0.019583,0.012849,0.0097639,-0.052986,-0.021855,-0.10971,-0.033221,-0.097977,-0.07523,0.10058,-0.013888,0.016952,-1.0813,-1.1772,-0.22519,0.2387,0.027964,0.028401,0.055146,-0.0075111,0.068155,0.09796,0.12263,0.21721
-0.013876,0.016836,0.0049126,-0.060528,-0.01953,-0.11889,-0.023901,-0.089434,-0.084646,0.06514,-0.0089695,0.020337,-1.1845,-0.9412,-0.11517,0.23103,0.01826,0.02962,0.055949,0.0044982,0.053759,0.015164,0.11781,0.20833
-0.0070319,0.01736,0.0079293,-0.061911,-0.021293,-0.12952,-0.016407,-0.079194,-0.095545,0.032232,0.0018397,0.021119,-1.1871,-0.72,0.03025,0.19662,0.0098212,0.031503,0.058636,0.01982,0.031469,-0.017037,0.1101,0.18704
-0.0020708,0.015877,0.018387,-0.056468,-0.027689,-0.1465,-0.013817,-0.070313,-0.10498,0.013266,0.01285,0.015614,-1.139,-0.55992,0.16885,0.14151,0.0076465,0.033989,0.057322,0.03354,0.0034405,-0.026895,0.094797,0.15142
-0.00017387,0.015994,0.031184,-0.046216,-0.037485,-0.17193,-0.014739,-0.065679,-0.11062,0.012366,0.016503,0.0015228,-1.11,-0.50221,0.25792,0.077725,0.012657,0.037293,0.049105,0.041374,-0.026484,-0.038448,0.071236,0.10757
0.00035831,0.020525,0.039727,-0.034892,-0.047829,-0.20462,-0.015166,-0.066837,-0.11166,0.024924,0.0089472,-0.019352,-1.1453,-0.56851,0.27261,0.011378,0.021368,0.041601,0.03617,0.042621,-0.052229,-0.05169,0.045011,0.066913
0.0025938,0.02881,0.040242,-0.025788,-0.055533,-0.24255,-0.012309,-0.07282,-0.1092,0.041164,-0.0068488,-0.0416,-1.2487,-0.73631,0.21531,-0.0624,0.02864,0.04617,0.023953,0.040969,-0.066904,-0.044342,0.025934,0.040285
0.0081226,0.03684,0.034058,-0.019961,-0.058763,-0.28552,-0.0068998,-0.079673,-0.10584,0.052096,-0.023105,-0.059238,-1.3993,-0.93133,0.11135,-0.15265,0.031506,0.049066,0.016838,0.041914,-0.06598,0.006919,0.022533,0.03304
0.015355,0.040254,0.026315,-0.016171,-0.057795,-0.33497,-0.0021482,-0.081452,-0.10446,0.0541,-0.032939,-0.068729,-1.5745,-1.0578,-0.0044462,-0.25869,0.031111,0.04842,0.014728,0.048329,-0.050221,0.10337,0.036589,0.043383
0.020568,0.03769,0.022211,-0.012476,-0.054159,-0.39006,-0.00067121,-0.072847,-0.10669,0.049669,-0.035231,-0.069963,-1.7552,-1.0524,-0.10118,-0.36073,0.031244,0.04433,0.012969,0.057689,-0.025909,0.21792,0.061443,0.06378
0.020969,0.031692,0.023611,-0.008103,-0.048954,-0.44345,-0.0023072,-0.052232,-0.11182,0.044362,-0.034709,-0.065138,-1.912,-0.91676,-0.15811,-0.42403,0.034757,0.039487,0.005453,0.063544,-0.0017751,0.31035,0.085478,0.083814
0.017213,0.02654,0.028295,-0.0040116,-0.042035,-0.48132,-0.0044821,-0.023016,-0.11715,0.042323,-0.037334,-0.057083,-1.9957,-0.69708,-0.16421,-0.41559,0.040997,0.037545,-0.011552,0.060349,0.01539,0.35184,0.098644,0.093323
0.013157,0.025,0.032005,-0.0016811,-0.032889,-0.48932,-0.0042874,0.0080472,-0.11963,0.043451,-0.045038,-0.04848,-1.9518,-0.42605,-0.11678,-0.32299,0.046512,0.040421,-0.037381,0.047829,0.023358,0.33999,0.097735,0.085479
0.012902,0.026671,0.031525,-0.0012809,-0.022267,-0.46058,-0.00024872,0.034742,-0.11778,0.044017,-0.054271,-0.042123,-1.7513,-0.083005,-0.024037,-0.16349,0.048344,0.04689,-0.067596,0.031213,0.023781,0.29415,0.086905,0.05929
0.017497,0.028998,0.026612,-0.0010103,-0.012658,-0.39945,0.0072881,0.05464,-0.1127,0.040088,-0.059361,-0.04124,-1.4137,0.38568,0.090476,0.021925,0.046838,0.053706,-0.096316,0.017237,0.019437,0.2369,0.073271,0.020143
0.024035,0.02971,0.019687,0.0015868,-0.0068369,-0.3175,0.016651,0.06927,-0.10737,0.030994,-0.0575,-0.048795,-0.99924,1.0014,0.18882,0.18483,0.045403,0.058121,-0.1187,0.0093826,0.012075,0.17757,0.061058,-0.022823
0.027924,0.028497,0.013868,0.0073846,-0.0056648,-0.22516,0.025357,0.081327,-0.10466,0.020122,-0.050948,-0.065718,-0.57585,1.7045,0.23073,0.28735,0.047435,0.059511,-0.13259,0.0063423,0.0025125,0.11025,0.048768,-0.061774
0.026494,0.026694,0.010846,0.01459,-0.0073143,-0.12631,0.03067,0.09159,-0.10545,0.012397,-0.044819,-0.089163,-0.1887,2.3727,0.19339,0.3141,0.053225,0.058891,-0.13884,0.0046017,-0.0077966,0.025697,0.031462,-0.094473
0.021049,0.025678,0.0099556,0.01999,-0.0087611,-0.020671,0.030788,0.098349,-0.10809,0.010483,-0.042671,-0.1123,0.14694,2.8925,0.086682,0.27485,0.059583,0.057265,-0.14052,0.0022543,-0.015833,-0.074846,0.0061796,-0.12442
0.015784,0.025611,0.0088394,0.02158,-0.0081831,0.088613,0.026396,0.099629,-0.10944,0.012741,-0.04384,-0.12646,0.4292,3.224,-0.048435,0.19785,0.062411,0.054698,-0.14103,0.00032055,-0.018018,-0.17631,-0.024018,-0.15636
0.014493,0.025627,0.0051565,0.020257,-0.0060057,0.18979,0.02112,0.095842,-0.10677,0.01445,-0.044533,-0.12497,0.65098,3.4019,-0.16038,0.11626,0.059942,0.050929,-0.14213,0.00054257,-0.012411,-0.2594,-0.050751,-0.19074
0.017676,0.025029,-0.0017191,0.018998,-0.0037408,0.26553,0.019615,0.090122,-0.099302,0.011217,-0.041303,-0.10669,0.79864,3.4793,-0.21439,0.052563,0.053979,0.046553,-0.14302,0.0022144,-0.00018387,-0.31435,-0.0654,-0.22203
0.022184,0.024131,-0.01,0.020249,-0.0020272,0.30247,0.024108,0.085954,-0.08843,0.0019192,-0.033718,-0.077021,0.86733,3.4717,-0.20913,0.0088839,0.048306,0.043196,-0.14133,0.0015486,0.014916,-0.34685,-0.064692,-0.24262
0.023533,0.023859,-0.016277,0.023914,-1.8745e-005,0.29968,0.032194,0.084366,-0.076635,-0.010763,-0.024163,-0.045481,0.87395,3.352,-0.17165,-0.030132,0.045709,0.042303,-0.13527,-0.0054527,0.028697,-0.37149,-0.052669,-0.24928
0.019109,0.024505,-0.017496,0.02772,0.0033004,0.26919,0.038211,0.08335,-0.066095,-0.022163,-0.015483,-0.020956,0.85066,3.0951,-0.13581,-0.082282,0.045926,0.043684,-0.12515,-0.019165,0.038671,-0.39877,-0.037762,-0.24648
0.0099524,0.024971,-0.01304,0.029514,0.0074729,0.22847,0.037508,0.080027,-0.057854,-0.028241,-0.0088452,-0.0074246,0.82227,2.7218,-0.12023,-0.15027,0.045908,0.045367,-0.1128,-0.035184,0.044877,-0.42677,-0.027372,-0.24353
-3.5259e-005,0.0234,-0.0054827,0.029208,0.010613,0.19111,0.030167,0.073492,-0.051898,-0.02747,-0.0035338,-0.0027785,0.78964,2.2981,-0.1209,-0.21506,0.042111,0.044998,-0.099412,-0.04717,0.04919,-0.44392,-0.023851,-0.24811
-0.0067736,0.018823,0.00073896,0.028564,0.011308,0.16254,0.020935,0.065724,-0.047662,-0.02147,0.0016871,-0.0013482,0.7376,1.8909,-0.12067,-0.24678,0.033175,0.041599,-0.083851,-0.051424,0.05392,-0.43958,-0.024284,-0.26161
-0.008638,0.012364,0.0021006,0.029159,0.010407,0.14225,0.015387,0.059827,-0.044319,-0.014578,0.007365,0.0018154,0.66265,1.525,-0.10528,-0.22597,0.021169,0.036158,-0.063382,-0.049406,0.060693,-0.41281,-0.023397,-0.28024
-0.0072273,0.0068682,-0.0016706,0.030675,0.010637,0.12876,0.015689,0.057268,-0.040709,-0.012584,0.013467,0.007984,0.59264,1.1788,-0.072825,-0.15952,0.010508,0.030682,-0.036283,-0.046151,0.070048,-0.37211,-0.016951,-0.30036
-0.0058391,0.0050427,-0.0074475,0.031247,0.014124,0.12197,0.019555,0.05651,-0.035402,-0.02079,0.020314,0.014995,0.57398,0.81742,-0.031609,-0.078238,0.0051706,0.026667,-0.003995,-0.045983,0.081579,-0.32729,-0.0033851,-0.32276
-0.0068932,0.0075421,-0.010919,0.029471,0.020148,0.1217,0.022998,0.05402,-0.027374,-0.041875,0.028883,0.019935,0.63122,0.4262,0.0084168,-0.01753,0.0060936,0.024266,0.029337,-0.049047,0.094231,-0.28149,0.016568,-0.35211
-0.010273,0.012497,-0.009502,0.025966,0.025364,0.12513,0.02408,0.046612,-0.017009,-0.074563,0.039752,0.021617,0.73322,0.014775,0.04173,0.0044694,0.010611,0.022613,0.059636,-0.051298,0.10656,-0.2307,0.040866,-0.39191
-0.013779,0.01686,-0.0037744,0.022822,0.026428,0.12694,0.024232,0.033204,-0.0064578,-0.11396,0.051579,0.020711,0.80102,-0.40356,0.067,-0.0048527,0.014396,0.020723,0.085519,-0.047624,0.11702,-0.17082,0.066493,-0.43976
-0.015177,0.018486,0.0034173,0.021462,0.022665,0.12269,0.026244,0.014886,0.0014041,-0.15339,0.060855,0.017766,0.75829,-0.82811,0.083532,-0.023164,0.014468,0.018125,0.10848,-0.03543,0.12444,-0.10561,0.089328,-0.48708
-0.014041,0.017297,0.0091112,0.021103,0.016437,0.11234,0.031149,-0.0062897,0.004957,-0.18663,0.063756,0.011551,0.58663,-1.2623,0.089439,-0.033088,0.010985,0.014898,0.13068,-0.016035,0.12848,-0.047662,0.10482,-0.52364
-0.011851,0.014753,0.011766,0.019479,0.011053,0.10041,0.037089,-0.028514,0.0052119,-0.20925,0.058938,-0.00012261,0.33969,-1.6906,0.082965,-0.035203,0.0065674,0.011398,0.15258,0.0066834,0.12975,-0.011243,0.11012,-0.54328
-0.010352,0.01233,0.011256,0.015256,0.0082877,0.09224,0.041138,-0.050415,0.005242,-0.21906,0.049016,-0.017437,0.10366,-2.0703,0.064336,-0.044112,0.0039013,0.0080211,0.1724,0.028794,0.12927,-0.0025909,0.10661,-0.54611
-0.0097981,0.010484,0.0079961,0.0098195,0.0076743,0.089568,0.042187,-0.070249,0.0079158,-0.21616,0.039203,-0.036317,-0.062736,-2.3534,0.035555,-0.071463,0.0036846,0.0050756,0.18754,0.047979,0.1277,-0.015839,0.10038,-0.53585
-0.0087339,0.0089846,0.0024842,0.0066179,0.0078346,0.089338,0.042046,-0.085086,0.013763,-0.20336,0.033889,-0.04969,-0.15858,-2.5234,-0.0012409,-0.11054,0.0044924,0.0026385,0.19617,0.063625,0.12481,-0.037722,0.099462,-0.51451
-0.0055438,0.0079839,-0.0043019,0.0084961,0.0081996,0.08674,0.043649,-0.091102,0.020836,-0.18615,0.033719,-0.052065,-0.21958,-2.6138,-0.044289,-0.13618,0.0043746,0.00046425,0.19762,0.076093,0.11986,-0.056976,0.10912,-0.47912
-0.00026224,0.008418,-0.010471,0.015348,0.0093771,0.079587,0.048086,-0.085292,0.026675,-0.1714,0.035491,-0.043944,-0.26999,-2.688,-0.090759,-0.12188,0.0026139,-0.0018054,0.19174,0.086208,0.11258,-0.070815,0.12829,-0.4232
0.0051327,0.011009,-0.013764,0.024142,0.012041,0.070059,0.053328,-0.06763,0.030531,-0.16425,0.034981,-0.032117,-0.29509,-2.7915,-0.13548,-0.061716,0.0001545,-0.0041257,0.17868,0.095181,0.1039,-0.083811,0.14993,-0.34198
0.0082712,0.014782,-0.012987,0.031293,0.015759,0.06246,0.056014,-0.041989,0.033683,-0.16505,0.03048,-0.025085,-0.2597,-2.9149,-0.17214,0.020506,-0.0014981,-0.0057104,0.15966,0.10437,0.095775,-0.10101,0.16483,-0.23726
0.0083158,0.01686,-0.0090178,0.03531,0.019109,0.059307,0.054763,-0.014794,0.037492,-0.16892,0.024248,-0.027048,-0.15451,-2.997,-0.19618,0.084002,-0.0018316,-0.0054507,0.13784,0.11443,0.089925,-0.12153,0.1663,-0.1179
0.0064219,0.014317,-0.0041914,0.037551,0.020956,0.059387,0.051918,0.00792,0.041118,-0.16931,0.02083,-0.035219,-0.026031,-2.9699,-0.20649,0.09821,-0.0019817,-0.003023,0.11776,0.12433,0.086679,-0.13777,0.15278,0.0045495
0.0043618,0.0068206,-0.00035152,0.040601,0.0215,0.059255,0.051874,0.023005,0.041412,-0.16362,0.023613,-0.042474,0.038729,-2.8138,-0.20421,0.064847,-0.0039166,0.00025511,0.1033,0.13121,0.084765,-0.14066,0.12739,0.12156
0.0027791,-0.0023508,0.0026986,0.045814,0.021971,0.056366,0.057251,0.030531,0.035577,-0.15632,0.032279,-0.042898,-0.037242,-2.5831,-0.19092,0.017696,-0.008732,0.0018785,0.095498,0.13151,0.08233,-0.12653,0.095858,0.22999
0.00085979,-0.0082186,0.0067364,0.052097,0.023269,0.050787,0.066254,0.032035,0.024478,-0.15647,0.04291,-0.03562,-0.27254,-2.3799,-0.16947,-0.0010458,-0.015361,-5.1846e-005,0.092342,0.12294,0.078312,-0.10073,0.064376,0.3292
-0.0023203,-0.0077,0.012825,0.056797,0.024928,0.044298,0.073678,0.028508,0.013402,-0.17051,0.05044,-0.024215,-0.61297,-2.2927,-0.14696,0.028637,-0.020823,-0.0050242,0.090709,0.10579,0.072982,-0.075584,0.03831,0.4159
-0.0063141,-0.0019902,0.019226,0.057765,0.025448,0.038306,0.074829,0.019866,0.0089492,-0.19591,0.051616,-0.012941,-0.95534,-2.337,-0.13518,0.089159,-0.022108,-0.0099964,0.088726,0.08252,0.067247,-0.064521,0.02115,0.48189
-0.0093762,0.0042956,0.021734,0.054817,0.023639,0.032844,0.069051,0.0060713,0.014091,-0.22129,0.046561,-0.0034595,-1.1903,-2.4381,-0.14429,0.13621,-0.01851,-0.011453,0.086386,0.055968,0.061428,-0.075885,0.01348,0.51756
-0.01009,0.0065498,0.016685,0.049504,0.01966,0.027308,0.059876,-0.011553,0.0254,-0.23374,0.038279,0.0054281,-1.2413,-2.4663,-0.1725,0.12785,-0.012626,-0.0082434,0.083903,0.027198,0.054754,-0.10963,0.01245,0.51886
-0.0088093,0.0033876,0.004437,0.043624,0.014823,0.021621,0.051868,-0.030231,0.035059,-0.22778,0.030698,0.015583,-1.089,-2.2993,-0.20025,0.050924,-0.0089801,-0.0028995,0.079543,-0.0051656,0.04617,-0.1574,0.01269,0.49192
-0.0072951,-0.0027954,-0.0097503,0.037901,0.010506,0.016357,0.047087,-0.046819,0.036441,-0.20866,0.026486,0.027523,-0.77672,-1.8698,-0.19685,-0.073258,-0.011007,-0.00011097,0.069371,-0.04334,0.035851,-0.20488,0.0088617,0.45072
-0.0068649,-0.0080453,-0.018714,0.03201,0.0072954,0.011849,0.044206,-0.058845,0.028948,-0.18697,0.025772,0.04055,-0.39827,-1.1734,-0.13826,-0.20623,-0.01855,-0.0033028,0.049702,-0.087186,0.026089,-0.23523,-0.0013241,0.40903
-0.0070471,-0.0098145,-0.018375,0.025831,0.0050369,0.0076237,0.040766,-0.064573,0.018201,-0.16937,0.026344,0.054532,-0.066317,-0.24545,-0.025232,-0.31844,-0.027857,-0.011897,0.020446,-0.13153,0.020579,-0.23425,-0.015538,0.3725
-0.0063001,-0.008401,-0.010902,0.020615,0.0034281,0.003033,0.03619,-0.062485,0.011416,-0.15337,0.025241,0.071134,0.13024,0.8554,0.11091,-0.40495,-0.034186,-0.02149,-0.013632,-0.16638,0.022318,-0.19741,-0.028146,0.33678
-0.00413,-0.0061554,-0.0033277,0.018672,0.0023101,-0.0016524,0.03273,-0.051387,0.011784,-0.13068,0.020877,0.092829,0.16145,2.0362,0.22066,-0.48074,-0.035036,-0.026942,-0.045208,-0.18097,0.031463,-0.13651,-0.034065,0.29279
-0.0022849,-0.0054969,-0.0024514,0.021441,0.0013861,-0.00513,0.033574,-0.031596,0.016469,-0.095557,0.014379,0.12013,0.064209,3.1456,0.26111,-0.56171,-0.03152,-0.026049,-0.068767,-0.16971,0.044791,-0.079732,-0.032925,0.23458
-0.003456,-0.0073423,-0.0098894,0.027465,-4.7093e-005,-0.006333,0.03993,-0.0062595,0.019632,-0.049986,0.0090814,0.14935,-0.08231,3.9823,0.2201,-0.64717,-0.026975,-0.020902,-0.083695,-0.13644,0.05747,-0.060065,-0.030491,0.16356
-0.008473,-0.010836,-0.021108,0.032349,-0.0026702,-0.0057953,0.049602,0.018765,0.01757,-0.0008274,0.0082563,0.17313,-0.19787,4.3677,0.12567,-0.71754,-0.024116,-0.015871,-0.093744,-0.093575,0.066348,-0.09471,-0.035639,0.086631
-0.014752,-0.014187,-0.029069,0.031399,-0.0061787,-0.0055065,0.058153,0.037061,0.011416,0.047998,0.012528,0.18417,-0.23292,4.2533,0.034009,-0.74754,-0.023128,-0.013897,-0.10358,-0.05596,0.072607,-0.16821,-0.054263,0.010889
-0.017829,-0.015822,-0.029443,0.023226,-0.0087925,-0.0071466,0.061572,0.04472,0.0052991,0.099724,0.018948,0.17995,-0.1753,3.7852,0.00030902,-0.7237,-0.022042,-0.014157,-0.11542,-0.033064,0.081609,-0.2341,-0.084151,-0.059822
-0.014929,-0.015171,-0.023346,0.011227,-0.0080849,-0.010351,0.058487,0.042327,0.002059,0.15982,0.022669,0.16531,-0.037217,3.2582,0.047862,-0.65203,-0.0188,-0.013028,-0.12845,-0.024669,0.099394,-0.23873,-0.11488,-0.12354
-0.0074549,-0.01279,-0.015847,0.0012331,-0.0028021,-0.012759,0.050557,0.034501,0.0006276,0.22546,0.020238,0.15047,0.15927,2.9644,0.15437,-0.55141,-0.01312,-0.0074836,-0.14062,-0.022945,0.12784,-0.1533,-0.13341,-0.176
-6.683e-005,-0.0099359,-0.011979,-0.0031271,0.0057476,-0.011882,0.041143,0.027229,-0.0026633,0.27963,0.012131,0.14537,0.38623,3.0288,0.26571,-0.44019,-0.0067235,0.0019915,-0.15066,-0.019266,0.16198,0.009139,-0.13176,-0.20848
0.0029478,-0.0079276,-0.013554,-0.0034356,0.014071,-0.0071049,0.033277,0.024611,-0.010401,0.29785,0.0025411,0.15369,0.60735,3.345,0.32962,-0.32863,-0.0019547,0.011416,-0.15797,-0.010676,0.192,0.20485,-0.1114,-0.21096
0.00089794,-0.0076049,-0.018842,-0.0049775,0.01864,-6.8646e-005,0.028106,0.026894,-0.021645,0.2647,-0.0035604,0.17099,0.78169,3.6591,0.3266,-0.22337,-5.8265e-005,0.016197,-0.16109,-0.0013213,0.20899,0.38963,-0.081625,-0.17896
-0.0032387,-0.0090861,-0.024562,-0.011747,0.018315,0.0066534,0.024548,0.030844,-0.032851,0.18813,-0.0039762,0.18817,0.87838,3.7411,0.27631,-0.1374,-0.00041742,0.01443,-0.15718,0.001862,0.21057,0.54318,-0.053454,-0.11864
-0.00579,-0.011813,-0.028161,-0.022336,0.015189,0.011199,0.02028,0.032173,-0.040995,0.099537,-0.00082206,0.19802,0.89224,3.5217,0.21625,-0.092609,-0.0011718,0.0080032,-0.14388,-0.0044776,0.20198,0.66866,-0.033679,-0.04572
-0.005643,-0.014791,-0.028785,-0.030624,0.013114,0.013034,0.013492,0.028514,-0.045816,0.038532,0.0010698,0.19949,0.84527,3.1052,0.17126,-0.10778,-0.00059388,0.00086166,-0.12223,-0.016691,0.19187,0.77103,-0.022713,0.02175
-0.0049131,-0.016959,-0.026904,-0.030983,0.014949,0.012532,0.0043147,0.02111,-0.04928,0.033237,-0.0023283,0.19663,0.7703,2.6671,0.13923,-0.17914,0.0018309,-0.0038313,-0.097297,-0.026119,0.18594,0.83741,-0.016335,0.071876
-0.0066119,-0.017662,-0.023448,-0.023554,0.020562,0.010467,-0.0050656,0.014089,-0.053136,0.089929,-0.011368,0.1933,0.68966,2.3259,0.1034,-0.27052,0.0053378,-0.0053413,-0.07508,-0.024623,0.18376,0.84006,-0.0090396,0.10294
-0.011596,-0.017065,-0.019149,-0.014775,0.027044,0.0080795,-0.011796,0.011757,-0.057023,0.19729,-0.022465,0.18874,0.60616,2.0837,0.057339,-0.32533,0.0087458,-0.0049033,-0.057626,-0.0092802,0.18087,0.76063,0.0032357,0.12086
-0.017619,-0.016212,-0.014198,-0.012346,0.030929,0.0072595,-0.014283,0.015728,-0.058744,0.3381,-0.030417,0.17832,0.51198,1.8608,0.018177,-0.29644,0.011464,-0.0041442,-0.040922,0.017005,0.17408,0.61328,0.021406,0.13283
-0.0213,-0.016488,-0.0081755,-0.018668,0.030706,0.010029,-0.013211,0.023966,-0.05612,0.49644,-0.031502,0.15902,0.40441,1.5741,0.014739,-0.17412,0.013769,-0.0039844,-0.017919,0.048672,0.16467,0.44377,0.04214,0.14209
-0.021186,-0.018701,-0.00038609,-0.028223,0.027803,0.017283,-0.010925,0.032447,-0.048613,0.65518,-0.025257,0.13444,0.29269,1.1897,0.061125,0.007616,0.016137,-0.0046291,0.015329,0.081318,0.15679,0.30297,0.057806,0.14704
-0.019118,-0.022398,0.0093135,-0.031194,0.025385,0.027808,-0.0097657,0.038145,-0.037533,0.78967,-0.014054,0.11392,0.19143,0.72,0.13993,0.19087,0.018329,-0.0059785,0.055485,0.11313,0.15253,0.21576,0.058919,0.14409
-0.018642,-0.026021,0.019702,-0.020617,0.025991,0.038674,-0.010753,0.040995,-0.02513,0.86859,-0.0012328,0.10565,0.10994,0.19075,0.21073,0.32557,0.019253,-0.0076053,0.093373,0.14347,0.14899,0.17063,0.039431,0.13139
-0.021825,-0.027875,0.0283,0.002396,0.029768,0.046958,-0.013487,0.04328,-0.01361,0.86634,0.010696,0.10949,0.050151,-0.37953,0.23698,0.39137,0.01796,-0.0084037,0.11999,0.17067,0.14023,0.13647,0.0022244,0.11049
-0.027233,-0.027229,0.032768,0.029149,0.034549,0.051569,-0.016955,0.046973,-0.0047396,0.77943,0.020681,0.11618,0.014825,-0.97172,0.20881,0.39812,0.014939,-0.0068077,0.13228,0.19143,0.1229,0.09008,-0.039803,0.085754
-0.03089,-0.024726,0.032695,0.048991,0.037592,0.053778,-0.02024,0.051255,0.00019387,0.63334,0.028625,0.1146,0.015245,-1.5517,0.14417,0.37003,0.012355,-0.0019965,0.13431,0.20204,0.09997,0.030825,-0.069666,0.062636
-0.029493,-0.021869,0.030218,0.055883,0.037609,0.056131,-0.022619,0.052237,0.0005035,0.47201,0.034593,0.10119,0.067036,-2.0761,0.07053,0.32933,0.012623,0.0048247,0.13338,0.20028,0.07885,-0.0268,-0.076452,0.046416
-0.023239,-0.020063,0.028663,0.051392,0.035606,0.060632,-0.023437,0.045207,-0.0036518,0.33575,0.0385,0.083124,0.17462,-2.5182,0.0052414,0.29085,0.016289,0.010587,0.13457,0.18608,0.065331,-0.071223,-0.062548,0.041624
-0.015881,-0.019915,0.030177,0.04249,0.034039,0.067516,-0.022413,0.027816,-0.011208,0.24237,0.040385,0.071906,0.31724,-2.885,-0.049463,0.26624,0.021087,0.012366,0.13797,0.16096,0.058838,-0.10327,-0.041886,0.051436
-0.011946,-0.021155,0.034303,0.036249,0.035013,0.075317,-0.020192,0.0021542,-0.020472,0.18408,0.04075,0.072708,0.44968,-3.2025,-0.096823,0.26795,0.023258,0.009698,0.13994,0.12741,0.05346,-0.12941,-0.029779,0.076541
-0.0134,-0.023011,0.038665,0.035373,0.038857,0.081943,-0.018281,-0.025471,-0.029489,0.14012,0.04049,0.078871,0.51888,-3.4802,-0.1351,0.30513,0.020287,0.0049659,0.13666,0.08885,0.043777,-0.1487,-0.031869,0.114
-0.018465,-0.024711,0.041043,0.037453,0.044003,0.085919,-0.017839,-0.046827,-0.036253,0.09392,0.040442,0.076985,0.48529,-3.6901,-0.15853,0.37439,0.012849,0.0011895,0.12684,0.049789,0.029974,-0.14939,-0.040809,0.15724
-0.023429,-0.025841,0.040964,0.037832,0.048076,0.087017,-0.018179,-0.055024,-0.038911,0.041812,0.041026,0.058469,0.3362,-3.7888,-0.16796,0.45539,0.0042507,-0.00086857,0.11212,0.014745,0.017491,-0.12034,-0.043214,0.19772
-0.025744,-0.026488,0.039601,0.03346,0.049388,0.086049,-0.016632,-0.04746,-0.036345,-0.010753,0.042288,0.027435,0.086954,-3.7658,-0.17803,0.51896,-0.0021942,-0.0034261,0.095761,-0.013983,0.011721,-0.065985,-0.031097,0.22729
-0.025758,-0.027108,0.038435,0.024766,0.047868,0.084145,-0.010524,-0.0273,-0.029134,-0.058833,0.044124,-0.002451,-0.22474,-3.6726,-0.21026,0.54434,-0.0056222,-0.0092819,0.081297,-0.038153,0.012869,-0.0087466,-0.0086058,0.23973
-0.025779,-0.028102,0.038129,0.014596,0.044999,0.082133,7.5261e-005,-0.0026187,-0.02014,-0.10332,0.046162,-0.019775,-0.54558,-3.5973,-0.2755,0.53326,-0.0077977,-0.018457,0.072061,-0.063059,0.015675,0.02575,0.010901,0.23109
-0.027576,-0.029332,0.038489,0.0056863,0.04288,0.08048,0.011299,0.016883,-0.013797,-0.14784,0.047244,-0.0257,-0.81425,-3.5983,-0.3603,0.50914,-0.010956,-0.02725,0.070953,-0.09451,0.013859,0.029123,0.014488,0.19977
-0.030642,-0.029953,0.039093,-0.00095076,0.043008,0.079753,0.017484,0.024328,-0.013968,-0.19193,0.045144,-0.033759,-0.97397,-3.6488,-0.42993,0.50062,-0.015356,-0.030942,0.079613,-0.1354,0.0048703,0.018554,-0.0017768,0.14778
-0.032662,-0.028834,0.039612,-0.0056303,0.045441,0.081017,0.014925,0.01894,-0.021505,-0.22871,0.037336,-0.059192,-0.99028,-3.64,-0.44675,0.52053,-0.018807,-0.027833,0.096995,-0.18439,-0.0091817,0.025402,-0.031151,0.082871
-0.031543,-0.025297,0.039533,-0.0085266,0.04881,0.085558,0.004394,0.0059626,-0.033259,-0.25011,0.022767,-0.10686,-0.86703,-3.444,-0.3912,0.55538,-0.018547,-0.020793,0.11859,-0.2373,-0.024427,0.073145,-0.061235,0.019069
-0.027079,-0.019512,0.037968,-0.008936,0.051182,0.093849,-0.0096151,-0.0069774,-0.043479,-0.2549,0.0034324,-0.16757,-0.64964,-2.9928,-0.27125,0.57262,-0.013721,-0.014773,0.13747,-0.28937,-0.038479,0.16193,-0.080857,-0.026877
-0.020912,-0.012027,0.034247,-0.0060663,0.051244,0.10454,-0.02219,-0.014783,-0.04688,-0.25131,-0.015687,-0.22502,-0.41054,-2.3193,-0.1166,0.54023,-0.0062251,-0.012578,0.147,-0.33632,-0.050985,0.27033,-0.084146,-0.042431
-0.01506,-0.0027376,0.029008,-0.00042129,0.04909,0.11456,-0.031014,-0.017672,-0.041375,-0.25109,-0.028718,-0.26664,-0.22214,-1.5402,0.0356,0.44451,0.00069213,-0.012892,0.14339,-0.3739,-0.061781,0.37027,-0.070623,-0.025609
-0.01049,0.009697,0.024586,0.0058295,0.046091,0.12068,-0.036763,-0.019896,-0.028699,-0.25983,-0.031804,-0.28937,-0.13071,-0.80071,0.15351,0.29457,0.0046457,-0.012322,0.12625,-0.39771,-0.069353,0.44198,-0.043227,0.013847
-0.0068765,0.027131,0.023878,0.010099,0.043942,0.12178,-0.041045,-0.025503,-0.012699,-0.27238,-0.024981,-0.29724,-0.14343,-0.22171,0.21681,0.11249,0.0052266,-0.009289,0.096907,-0.40477,-0.071417,0.47864,-0.0065682,0.059489
-0.003505,0.05009,0.028253,0.011219,0.04349,0.11999,-0.044193,-0.034516,0.0031916,-0.27746,-0.011918,-0.29519,-0.23253,0.12566,0.21766,-0.081199,0.0033961,-0.0058384,0.056138,-0.39589,-0.066734,0.48127,0.033812,0.095816
-0.00025507,0.076189,0.036159,0.010193,0.044104,0.11966,-0.044995,-0.042506,0.017372,-0.26753,0.0020646,-0.2859,-0.35077,0.22106,0.15977,-0.27468,0.0002374,-0.0056232,0.0035935,-0.37615,-0.056017,0.45194,0.07175,0.11335
0.0022475,0.10035,0.0437,0.0091827,0.044052,0.1245,-0.042313,-0.043737,0.029552,-0.24477,0.01238,-0.27161,-0.44759,0.088422,0.056893,-0.46003,-0.0035231,-0.010165,-0.060507,-0.35189,-0.041207,0.39227,0.10106,0.10879
0.0033494,0.11718,0.046903,0.0096288,0.041729,0.13462,-0.036706,-0.035323,0.039199,-0.21819,0.016738,-0.2571,-0.47841,-0.20758,-0.069942,-0.62239,-0.0070038,-0.017154,-0.13305,-0.32597,-0.02448,0.30664,0.11669,0.082412
0.0031706,0.12411,0.044013,0.011191,0.036998,0.14577,-0.030353,-0.019174,0.044683,-0.19502,0.015385,-0.24887,-0.40731,-0.56701,-0.1967,-0.73454,-0.0087288,-0.022427,-0.2074,-0.29547,-0.0084109,0.20457,0.11629,0.036368
0.0026831,0.12297,0.036218,0.012355,0.031688,0.15137,-0.025489,-0.00051719,0.044101,-0.17487,0.010185,-0.24988,-0.20974,-0.8727,-0.30049,-0.76392,-0.0072524,-0.023574,-0.27546,-0.2548,0.0032519,0.098231,0.1017,-0.024299
0.0029825,0.11865,0.026467,0.012024,0.028713,0.1463,-0.023067,0.015561,0.037122,-0.15198,0.0031093,-0.25502,0.11855,-1.0215,-0.36175,-0.68883,-0.0024816,-0.021679,-0.33105,-0.20223,0.0062462,-0.0027567,0.079361,-0.090199
0.0044408,0.11567,0.017478,0.010508,0.030174,0.13018,-0.022944,0.026823,0.026103,-0.123,-0.0050639,-0.25247,0.5484,-0.95574,-0.36514,-0.51277,0.0037678,-0.019706,-0.37236,-0.14468,-0.0013887,-0.0943,0.058599,-0.14859
0.0065386,0.11515,0.010356,0.0089573,0.035663,0.10791,-0.025064,0.034143,0.015197,-0.092314,-0.015024,-0.23119,1.0107,-0.67728,-0.30155,-0.26715,0.0089382,-0.019404,-0.40209,-0.096179,-0.016512,-0.17559,0.047669,-0.18734
0.0085059,0.11438,0.0045273,0.007763,0.04208,0.087083,-0.029953,0.039711,0.0078641,-0.069661,-0.027881,-0.18885,1.4091,-0.23901,-0.17292,-0.0011525,0.011827,-0.019859,-0.42542,-0.070058,-0.031435,-0.24443,0.049442,-0.19924
0.010085,0.10933,-0.001326,0.0055157,0.045293,0.073627,-0.037702,0.04496,0.0046312,-0.062094,-0.043503,-0.13383,1.6522,0.27904,0.0027142,0.23413,0.013636,-0.018899,-0.44716,-0.070566,-0.038644,-0.29521,0.059575,-0.18382
0.011604,0.097929,-0.0081721,-0.00033355,0.04267,0.068421,-0.046593,0.049768,0.0029508,-0.068016,-0.059678,-0.079606,1.6922,0.79484,0.19179,0.39883,0.01676,-0.015623,-0.46918,-0.089993,-0.036363,-0.32215,0.06876,-0.14667
0.013283,0.081586,-0.016008,-0.011484,0.034745,0.067126,-0.053365,0.053138,-0.00065204,-0.078909,-0.073065,-0.036506,1.546,1.2443,0.35508,0.4718,0.022292,-0.011372,-0.48901,-0.11349,-0.030094,-0.32466,0.067846,-0.097987
0.014605,0.063849,-0.023852,-0.02709,0.024835,0.063483,-0.055604,0.054404,-0.0077635,-0.087229,-0.081412,-0.0074889,1.2835,1.5974,0.46416,0.45444,0.028627,-0.008259,-0.50047,-0.12796,-0.028298,-0.30991,0.052596,-0.051406
0.014606,0.047666,-0.030172,-0.043796,0.016837,0.053833,-0.054251,0.053835,-0.016775,-0.093208,-0.085213,0.0090788,0.98861,1.8709,0.51483,0.37187,0.032675,-0.0069886,-0.49678,-0.12865,-0.035508,-0.28971,0.025527,-0.02122
0.01296,0.033533,-0.033546,-0.057465,0.012757,0.039598,-0.053479,0.052322,-0.02406,-0.10434,-0.087281,0.013226,0.71633,2.1287,0.52748,0.26823,0.032692,-0.0063294,-0.47524,-0.1195,-0.048589,-0.27437,-0.0053571,-0.016361
0.010751,0.019877,-0.033431,-0.065238,0.01168,0.02583,-0.057336,0.050663,-0.026699,-0.12808,-0.090514,0.00037556,0.47247,2.4587,0.53219,0.192,0.030002,-0.0047932,-0.4402,-0.10843,-0.059238,-0.26849,-0.029467,-0.033416
0.0099231,0.0049661,-0.030775,-0.066473,0.010788,0.017015,-0.065806,0.049243,-0.024754,-0.16443,-0.095703,-0.034905,0.22736,2.9257,0.54743,0.17457,0.027783,-0.0026928,-0.40142,-0.10189,-0.060527,-0.27138,-0.037159,-0.055109
0.011693,-0.011464,-0.028019,-0.062357,0.0075877,0.013549,-0.074013,0.048396,-0.021554,-0.20532,-0.10113,-0.091466,-0.049031,3.5233,0.5672,0.21402,0.027875,-0.0023019,-0.3674,-0.10247,-0.052037,-0.28065,-0.023836,-0.058916
0.015404,-0.028117,-0.028069,-0.055001,0.0016416,0.011753,-0.075811,0.048934,-0.021927,-0.24155,-0.10396,-0.15763,-0.35656,4.1584,0.56619,0.27684,0.028667,-0.0057451,-0.33845,-0.10975,-0.039587,-0.29462,0.0060595,-0.032396
0.018982,-0.043339,-0.032454,-0.046861,-0.0053529,0.007249,-0.068968,0.052099,-0.029564,-0.27107,-0.10206,-0.21569,-0.66029,4.6854,0.51967,0.31845,0.026295,-0.012603,-0.3056,-0.12171,-0.030263,-0.31158,0.037875,0.015959
0.020636,-0.056482,-0.039812,-0.040419,-0.011003,-0.0013805,-0.05745,0.058685,-0.045001,-0.30107,-0.094888,-0.25247,-0.91304,4.9748,0.42345,0.3085,0.018317,-0.019653,-0.25756,-0.13482,-0.027034,-0.32754,0.05147,0.0605
0.020186,-0.068445,-0.046135,-0.037556,-0.013899,-0.01187,-0.048663,0.067954,-0.065199,-0.34136,-0.083554,-0.26798,-1.0866,4.9758,0.29934,0.2427,0.0064872,-0.023222,-0.19082,-0.14333,-0.027159,-0.33619,0.031334,0.07605
0.018799,-0.08126,-0.047237,-0.038558,-0.014242,-0.02095,-0.047899,0.077406,-0.084791,-0.39432,-0.070732,-0.27468,-1.1883,4.7351,0.18261,0.13468,-0.004144,-0.022156,-0.11435,-0.14021,-0.025196,-0.33274,-0.023705,0.056609
0.017606,-0.097089,-0.041992,-0.04156,-0.013202,-0.027816,-0.054597,0.083926,-0.098365,-0.44989,-0.060311,-0.28744,-1.2508,4.3621,0.10172,-0.0005375,-0.0092695,-0.01876,-0.044063,-0.12069,-0.017914,-0.31877,-0.098664,0.020249
0.01676,-0.11714,-0.033732,-0.043311,-0.011846,-0.035201,-0.063341,0.085688,-0.10271,-0.49014,-0.056019,-0.31171,-1.3058,3.9678,0.06514,-0.15352,-0.008937,-0.016855,0.0089774,-0.086325,-0.0071958,-0.30306,-0.17092,-0.0040214
0.015898,-0.14099,-0.028139,-0.041072,-0.010677,-0.047156,-0.068346,0.083404,-0.097974,-0.50031,-0.058811,-0.33924,-1.3604,3.6145,0.062795,-0.31171,-0.0073933,-0.018667,0.046671,-0.046087,0.001194,-0.29609,-0.2231,0.0029617
0.015229,-0.1669,-0.028766,-0.034348,-0.0099644,-0.065586,-0.067493,0.079827,-0.087096,-0.47751,-0.064819,-0.35441,-1.3947,3.3024,0.076723,-0.44797,-0.0092151,-0.023206,0.081436,-0.012724,0.0020583,-0.30152,-0.25047,0.038293
0.015663,-0.1934,-0.033715,-0.025076,-0.01013,-0.088515,-0.062822,0.077665,-0.073877,-0.43083,-0.066442,-0.34582,-1.3803,2.994,0.089968,-0.52583,-0.01522,-0.027397,0.12514,0.0032844,-0.0048298,-0.31151,-0.25758,0.081849
0.017442,-0.22133,-0.036563,-0.016149,-0.01152,-0.11136,-0.057801,0.07738,-0.060662,-0.37287,-0.057106,-0.31386,-1.3026,2.6538,0.087664,-0.52539,-0.021874,-0.028785,0.17884,-0.0019883,-0.013689,-0.31036,-0.24886,0.11261
0.018693,-0.25455,-0.031292,-0.0095073,-0.013812,-0.12999,-0.054215,0.076606,-0.04694,-0.30952,-0.036641,-0.26878,-1.1696,2.279,0.054707,-0.47036,-0.024657,-0.027376,0.2317,-0.025899,-0.01612,-0.28471,-0.22319,0.12262
0.015906,-0.29773,-0.017444,-0.0052757,-0.015985,-0.14316,-0.051265,0.071834,-0.02957,-0.23537,-0.012687,-0.22196,-0.99905,1.9055,-0.021314,-0.42732,-0.022222,-0.025202,0.26949,-0.062078,-0.0068039,-0.23265,-0.17818,0.11854
0.0067316,-0.3517,-0.0011582,-0.0024225,-0.017287,-0.15303,-0.04707,0.061305,-0.0044532,-0.13785,0.0037928,-0.17825,-0.79795,1.5871,-0.13987,-0.4677,-0.017546,-0.024267,0.28506,-0.10261,0.012511,-0.16514,-0.11955,0.11212
-0.0070362,-0.40937,0.0090147,-0.00014169,-0.018367,-0.16391,-0.040727,0.046894,0.031168,-0.0070196,0.0058471,-0.13559,-0.55362,1.3627,-0.2786,-0.61588,-0.01522,-0.024902,0.28233,-0.13785,0.033838,-0.098984,-0.064914,0.10927
-0.019214,-0.45616,0.0082676,0.0013103,-0.021208,-0.18055,-0.03306,0.033274,0.076714,0.15487,-0.0050088,-0.091308,-0.24966,1.2274,-0.39767,-0.82432,-0.017553,-0.02588,0.2716,-0.1559,0.048263,-0.047238,-0.035528,0.10662
-0.022724,-0.47598,-0.0012382,0.00096345,-0.027506,-0.20663,-0.025811,0.024576,0.12734,0.32956,-0.020724,-0.048525,0.10397,1.1251,-0.45945,-1,-0.023034,-0.025918,0.26119,-0.14527,0.051931,-0.014154,-0.041093,0.096875
-0.014556,-0.45936,-0.012476,-0.0017545,-0.036858,-0.24329,-0.020392,0.020857,0.17465,0.48677,-0.033187,-0.016663,0.45285,0.96793,-0.45116,-1.0658,-0.028221,-0.024944,0.25255,-0.10121,0.04826,0.0028382,-0.070341,0.076797
0.00168,-0.40811,-0.018954,-0.0061669,-0.046627,-0.28765,-0.017348,0.017246,0.20918,0.59434,-0.039757,-0.0051565,0.71315,0.67338,-0.39251,-1.0109,-0.030869,-0.023949,0.24206,-0.031447,0.044729,0.0076313,-0.096539,0.050635
0.01786,-0.33269,-0.018912,-0.010506,-0.053893,-0.33193,-0.016645,0.0069022,0.22417,0.63046,-0.043546,-0.015651,0.81486,0.19805,-0.32072,-0.89058,-0.031247,-0.023695,0.22663,0.044576,0.046913,0.0020155,-0.094848,0.026955
0.026714,-0.24448,-0.015304,-0.01298,-0.057771,-0.3645,-0.018079,-0.014044,0.21899,0.59239,-0.04885,-0.039099,0.74269,-0.45083,-0.26367,-0.77799,-0.030735,-0.023661,0.20748,0.10452,0.054528,-0.013204,-0.058453,0.012529
0.026407,-0.14922,-0.0123,-0.01291,-0.059807,-0.37359,-0.021196,-0.043133,0.20009,0.49772,-0.056122,-0.060099,0.54228,-1.2311,-0.22264,-0.70745,-0.029624,-0.022295,0.18932,0.13489,0.062416,-0.034871,-0.0013488,0.0088182
0.020981,-0.047301,-0.011732,-0.01108,-0.062016,-0.35257,-0.024914,-0.072367,0.17841,0.37722,-0.060831,-0.065214,0.28619,-2.0933,-0.1783,-0.65512,-0.026721,-0.018367,0.17638,0.13722,0.065166,-0.056089,0.053401,0.01339
0.01658,0.059806,-0.012247,-0.0090533,-0.064471,-0.30361,-0.027477,-0.09258,0.16405,0.26253,-0.056932,-0.049437,0.026536,-2.996,-0.11484,-0.56945,-0.021265,-0.01222,0.16962,0.12403,0.061179,-0.068633,0.08975,0.023864
0.016671,0.16302,-0.011133,-0.0080641,-0.064925,-0.23725,-0.027131,-0.098173,0.16124,0.1745,-0.041837,-0.017115,-0.22837,-3.899,-0.041692,-0.42253,-0.01502,-0.0058478,0.16745,0.10816,0.052858,-0.067358,0.10666,0.039968
0.019949,0.24576,-0.0066131,-0.0082956,-0.060916,-0.16747,-0.023135,-0.089102,0.16653,0.11742,-0.018788,0.021963,-0.49864,-4.7449,0.0054944,-0.23816,-0.011918,-0.0017239,0.1685,0.094182,0.043337,-0.053207,0.1134,0.061591
0.022256,0.29185,0.0012939,-0.0089844,-0.052335,-0.10539,-0.0163,-0.069506,0.17125,0.081,0.0050632,0.0577,-0.79748,-5.4533,-0.013558,-0.07565,-0.014951,-0.0012693,0.17329,0.078353,0.033232,-0.032824,0.11819,0.085025
0.020587,0.29542,0.011294,-0.0091164,-0.041954,-0.055286,-0.0085341,-0.044916,0.16665,0.048448,0.023099,0.082894,-1.1096,-5.9407,-0.11509,0.014106,-0.022874,-0.0039462,0.18276,0.055886,0.020451,-0.015143,0.12064,0.10184
0.015769,0.26518,0.021411,-0.008187,-0.033412,-0.015157,-0.0016636,-0.020323,0.14847,0.0060513,0.032717,0.093851,-1.4008,-6.1534,-0.27591,0.023029,-0.029988,-0.0074402,0.19533,0.028158,0.002909,-0.0065368,0.11374,0.10273
0.01173,0.21969,0.028985,-0.0066478,-0.028611,0.019349,0.0035524,0.0002784,0.11838,-0.049981,0.035555,0.089758,-1.6446,-6.0851,-0.44148,-0.014398,-0.029815,-0.0087523,0.20594,0.0033127,-0.01883,-0.0061457,0.092398,0.083996
0.012118,0.17707,0.030908,-0.0059076,-0.026849,0.050976,0.0074296,0.013945,0.082352,-0.11222,0.034961,0.072083,-1.8402,-5.7624,-0.55196,-0.050434,-0.020018,-0.005694,0.20858,-0.0097868,-0.041625,-0.0030779,0.060115,0.051389
0.017168,0.14667,0.02516,-0.0078368,-0.026202,0.079371,0.010406,0.019457,0.047366,-0.16643,0.033238,0.044068,-2.0032,-5.2128,-0.57041,-0.055503,-0.0045429,0.0018279,0.20066,-0.0083745,-0.062225,0.022274,0.028043,0.017541
0.023407,0.1277,0.013075,-0.013835,-0.025532,0.10221,0.012011,0.018239,0.018776,-0.19919,0.030831,0.0096534,-2.1429,-4.4495,-0.49806,-0.028711,0.0089817,0.011409,0.18539,0.0025357,-0.07936,0.091049,0.007328,-0.0057254
0.026468,0.11425,3.1093e-005,-0.023876,-0.0252,0.11712,0.010804,0.014228,-0.00078246,-0.2048,0.02747,-0.028187,-2.245,-3.4912,-0.3703,0.014178,0.014678,0.019125,0.17008,0.014356,-0.093181,0.21413,0.0014001,-0.014468
0.024675,0.10163,-0.0072236,-0.03627,-0.026107,0.1228,0.0055586,0.012138,-0.011215,-0.1875,0.023464,-0.068664,-2.2776,-2.4028,-0.23701,0.059107,0.012459,0.021698,0.16146,0.020676,-0.1028,0.38155,0.0042926,-0.013679
0.020453,0.089363,-0.005395,-0.048543,-0.028368,0.11897,-0.0031193,0.015072,-0.014336,-0.15785,0.019542,-0.11276,-2.2116,-1.3114,-0.13826,0.10214,0.0076138,0.018686,0.1617,0.019802,-0.10493,0.56089,0.0057545,-0.011734
0.018372,0.079555,0.0022361,-0.058866,-0.03104,0.10608,-0.012139,0.023236,-0.013189,-0.12579,0.015526,-0.16101,-2.0391,-0.37404,-0.087047,0.1452,0.0065182,0.013087,0.16797,0.013183,-0.095749,0.70898,-0.0014013,-0.013044
0.021399,0.073621,0.0076712,-0.066736,-0.033059,0.085529,-0.017099,0.034518,-0.011219,-0.095312,0.0096969,-0.21094,-1.7801,0.28757,-0.067482,0.18855,0.012014,0.009563,0.1752,0.0025927,-0.074843,0.79219,-0.017309,-0.015006
0.028404,0.070525,0.0042846,-0.072181,-0.034264,0.059879,-0.014852,0.046134,-0.011202,-0.06456,0.00024896,-0.25578,-1.4763,0.63685,-0.048531,0.2295,0.021934,0.011286,0.17941,-0.010849,-0.047605,0.80365,-0.036562,-0.011492
0.034912,0.067795,-0.0075769,-0.074324,-0.035388,0.032662,-0.0058171,0.055843,-0.014258,-0.031215,-0.012033,-0.28592,-1.1797,0.71908,-0.005091,0.26775,0.031418,0.017655,0.17886,-0.02558,-0.023455,0.76517,-0.052894,0.00060181
0.036447,0.063726,-0.020316,-0.071098,-0.037003,0.0073321,0.0056879,0.062052,-0.019502,0.0014964,-0.02242,-0.29244,-0.93942,0.61495,0.066264,0.30986,0.036694,0.024695,0.17258,-0.03863,-0.010836,0.71164,-0.06288,0.017686
0.031826,0.058483,-0.024701,-0.060922,-0.038424,-0.013906,0.013604,0.063436,-0.024604,0.02344,-0.024139,-0.27134,-0.78867,0.3978,0.14642,0.36694,0.037286,0.027928,0.15832,-0.0465,-0.01277,0.66775,-0.066334,0.031949
0.023925,0.053273,-0.016944,-0.045007,-0.03769,-0.030619,0.013533,0.059023,-0.026983,0.022607,-0.012721,-0.22613,-0.73372,0.13254,0.20759,0.44625,0.035412,0.025587,0.13229,-0.047216,-0.026143,0.63372,-0.064254,0.037673
0.017528,0.048734,-0.0015239,-0.027788,-0.032829,-0.043725,0.0051021,0.048875,-0.025018,-0.0069716,0.010375,-0.1674,-0.75111,-0.093712,0.23182,0.54369,0.033772,0.019773,0.091409,-0.04142,-0.044553,0.59039,-0.056877,0.035712
0.016063,0.044282,0.012362,-0.014442,-0.023612,-0.054528,-0.0083129,0.034489,-0.018818,-0.060592,0.03781,-0.10916,-0.79726,-0.15992,0.22108,0.64265,0.033782,0.014771,0.036459,-0.031401,-0.061757,0.52039,-0.043648,0.03207
0.019551,0.038988,0.017572,-0.0073123,-0.012506,-0.063887,-0.022176,0.018149,-0.010298,-0.12521,0.06033,-0.063518,-0.82638,0.04271,0.19276,0.72017,0.035315,0.013917,-0.026484,-0.019258,-0.073139,0.42905,-0.024755,0.031672
0.024977,0.032978,0.013556,-0.0045126,-0.0038997,-0.071915,-0.033656,0.0015715,-0.0025393,-0.18682,0.071961,-0.036396,-0.80626,0.52498,0.16541,0.75627,0.037427,0.017314,-0.08786,-0.0062562,-0.075312,0.34872,-0.0024905,0.032656
0.028451,0.02782,0.0055128,-0.002203,-0.0017586,-0.078222,-0.042698,-0.014988,0.0015092,-0.2369,0.072982,-0.026422,-0.72361,1.1452,0.14654,0.74207,0.038989,0.021927,-0.13891,0.0059873,-0.065964,0.32164,0.018974,0.026188
0.027547,0.025344,-0.00033274,0.0014532,-0.0069972,-0.082446,-0.050862,-0.032331,0.00056417,-0.27292,0.06902,-0.02736,-0.57999,1.6497,0.13119,0.6829,0.038855,0.02378,-0.17565,0.01408,-0.045205,0.37274,0.035349,0.0024111
0.022445,0.025859,-0.0010815,0.004426,-0.016384,-0.084672,-0.059357,-0.051005,-0.0040271,-0.29352,0.067301,-0.032139,-0.38576,1.8023,0.11076,0.59547,0.035965,0.020602,-0.19978,0.013317,-0.017129,0.49145,0.044201,-0.041661
0.015477,0.027383,0.0020022,0.0028994,-0.024089,-0.085458,-0.068009,-0.070222,-0.0087003,-0.29398,0.072608,-0.03552,-0.15792,1.521,0.083336,0.50004,0.029821,0.013211,-0.21576,0.00033022,0.010823,0.63553,0.045782,-0.097827
0.0095905,0.026736,0.0059232,-0.0047167,-0.025195,-0.085392,-0.075671,-0.087748,-0.0095201,-0.26768,0.085202,-0.033641,0.080025,0.92301,0.056631,0.41181,0.021069,0.0048893,-0.2262,-0.024169,0.031408,0.75454,0.042333,-0.14879
0.0066515,0.021748,0.0089311,-0.015804,-0.018868,-0.084581,-0.081123,-0.10062,-0.0044269,-0.21334,0.10148,-0.021317,0.30131,0.24399,0.041756,0.33684,0.011537,-0.0006868,-0.22949,-0.055118,0.041671,0.81739,0.036603,-0.17534
0.0064422,0.012871,0.011592,-0.025534,-0.0087953,-0.082595,-0.083414,-0.10614,0.0056412,-0.1418,0.11661,0.0098745,0.48367,-0.307,0.043812,0.27543,0.0035082,-0.0016003,-0.22162,-0.085783,0.044211,0.82607,0.030701,-0.16477
0.0068964,0.0028382,0.015645,-0.030829,-0.00042984,-0.07906,-0.081725,-0.10292,0.017571,-0.074563,0.1275,0.069902,0.6167,-0.64982,0.057505,0.22975,-0.0012844,0.0013421,-0.2012,-0.11121,0.044479,0.80794,0.025752,-0.11687
0.005511,-0.0053414,0.022136,-0.032402,0.0028832,-0.074391,-0.075711,-0.091985,0.02821,-0.032814,0.13434,0.16481,0.70254,-0.82596,0.071281,0.20812,-0.0022513,0.0053586,-0.17309,-0.12961,0.046376,0.79305,0.022078,-0.045052
0.0011503,-0.010404,0.030437,-0.033108,0.001888,-0.069887,-0.066616,-0.077194,0.036183,-0.024045,0.13972,0.29054,0.74992,-0.90674,0.07633,0.21996,0.0001084,0.0076424,-0.14709,-0.14082,0.04982,0.79216,0.019335,0.027969
-0.0050011,-0.013218,0.038648,-0.034673,7.2317e-005,-0.066913,-0.057979,-0.064256,0.042112,-0.037031,0.14609,0.43034,0.76732,-0.90702,0.073042,0.26374,0.0046182,0.007261,-0.13219,-0.14393,0.05187,0.78977,0.016557,0.079211
-0.010197,-0.015415,0.044811,-0.036328,0.00038498,-0.065825,-0.054357,-0.057913,0.047317,-0.050037,0.15325,0.55836,0.76122,-0.77776,0.069728,0.31803,0.0098581,0.0057467,-0.13093,-0.13663,0.049719,0.75562,0.012559,0.095721
-0.012215,-0.017741,0.048002,-0.036561,0.0029342,-0.065647,-0.058158,-0.058962,0.052287,-0.046595,0.15787,0.64837,0.73892,-0.47362,0.074752,0.34596,0.014576,0.0059372,-0.13881,-0.1169,0.042455,0.66548,0.0069208,0.080683
-0.011169,-0.019752,0.048734,-0.035663,0.0054693,-0.064885,-0.067053,-0.063607,0.056198,-0.026644,0.15558,0.68325,0.71067,-0.024991,0.088514,0.31388,0.018119,0.009819,-0.1491,-0.085071,0.030234,0.51572,0.00088441,0.050629
-0.0094095,-0.020953,0.048532,-0.035941,0.0058384,-0.062747,-0.07478,-0.066296,0.057681,-0.0044123,0.14407,0.6609,0.68704,0.45515,0.10213,0.21337,0.020673,0.0169,-0.15861,-0.043673,0.01238,0.32123,-0.002938,0.024132
-0.0094539,-0.021908,0.048983,-0.039166,0.0039708,-0.059677,-0.075573,-0.064159,0.055968,0.0046455,0.12507,0.59408,0.67354,0.83552,0.1045,0.071329,0.022951,0.024337,-0.16914,0.0049571,-0.013074,0.098585,-0.0023576,0.0089964
-0.011694,-0.023828,0.050811,-0.044076,0.0016701,-0.056729,-0.068839,-0.059355,0.05139,-0.0032963,0.1037,0.5047,0.66739,1.0446,0.092772,-0.060259,0.025366,0.0288,-0.18358,0.060839,-0.047608,-0.15111,0.0023251,-0.0025587
-0.014044,-0.026933,0.053565,-0.046871,0.0007055,-0.054442,-0.059892,-0.057083,0.044921,-0.018028,0.085757,0.41553,0.65901,1.0966,0.077678,-0.1299,0.027354,0.028701,-0.20096,0.12566,-0.089976,-0.44403,0.0079237,-0.026359
-0.013971,-0.029482,0.056137,-0.044533,0.0011576,-0.052259,-0.055643,-0.060795,0.037341,-0.024168,0.074714,0.34246,0.63608,1.052,0.078464,-0.11191,0.027611,0.025109,-0.2155,0.1995,-0.13585,-0.79535,0.010377,-0.07166
-0.011029,-0.028998,0.0577,-0.037695,0.0014747,-0.049023,-0.058737,-0.068777,0.028794,-0.012836,0.070133,0.29037,0.58679,0.95522,0.10978,-0.016563,0.025245,0.020669,-0.22088,0.27799,-0.17977,-1.1928,0.0076817,-0.13101
-0.0073714,-0.024914,0.058312,-0.030135,-5.3222e-005,-0.044057,-0.065292,-0.075223,0.019065,0.013472,0.068292,0.25409,0.50181,0.80936,0.16947,0.11988,0.020834,0.017452,-0.21565,0.35316,-0.21753,-1.5833,0.0011935,-0.18308
-0.0056176,-0.019987,0.058702,-0.025323,-0.0038959,-0.037916,-0.06828,-0.074941,0.0082353,0.04525,0.064629,0.22447,0.37749,0.60384,0.23656,0.25702,0.016223,0.015531,-0.20468,0.41734,-0.24679,-1.8867,-0.0058588,-0.20673
-0.0061205,-0.01858,0.059461,-0.023396,-0.0091101,-0.032213,-0.063457,-0.067623,-0.0028668,0.074031,0.056731,0.19646,0.22089,0.36147,0.28189,0.36929,0.012995,0.013436,-0.19524,0.467,-0.26581,-2.0341,-0.011129,-0.19542
-0.0064537,-0.022843,0.060422,-0.021458,-0.014241,-0.028661,-0.052535,-0.058061,-0.012819,0.09674,0.04626,0.17421,0.053155,0.15425,0.28486,0.45106,0.010924,0.0099417,-0.19129,0.50281,-0.27233,-2.0076,-0.014427,-0.16101
-0.0038317,-0.030233,0.060784,-0.016755,-0.018245,-0.027984,-0.041008,-0.052294,-0.020304,0.11402,0.038435,0.16908,-0.093592,0.070385,0.24528,0.50758,0.0080157,0.0054598,-0.19094,0.5264,-0.26427,-1.8566,-0.016338,-0.12502
0.0018194,-0.035034,0.05985,-0.0095912,-0.020647,-0.029373,-0.033145,-0.053113,-0.024904,0.12613,0.038894,0.19068,-0.18646,0.16159,0.18244,0.54167,0.0023922,0.0016557,-0.18865,0.53723,-0.24178,-1.6776,-0.01593,-0.10446
0.0072628,-0.032946,0.057613,-0.0032699,-0.021098,-0.030792,-0.028987,-0.05857,-0.027443,0.13131,0.04961,0.23677,-0.20347,0.41627,0.12285,0.54807,-0.0055583,-0.00036191,-0.17974,0.53296,-0.2083,-1.568,-0.010417,-0.10298
0.008642,-0.024799,0.054601,-0.0013064,-0.019106,-0.029983,-0.025805,-0.064214,-0.029512,0.12776,0.066727,0.29031,-0.13936,0.77728,0.085375,0.5197,-0.012888,-0.0014874,-0.16307,0.51336,-0.16899,-1.58,0.0022949,-0.11215
0.0050235,-0.015894,0.051136,-0.004572,-0.014434,-0.025653,-0.021917,-0.066593,-0.032347,0.11642,0.082392,0.32744,-0.0028186,1.1814,0.073652,0.45968,-0.016258,-0.0041253,-0.14041,0.48374,-0.1276,-1.7013,0.020457,-0.11937
-0.00060419,-0.011411,0.046853,-0.010733,-0.0077973,-0.01818,-0.018661,-0.064914,-0.035724,0.10123,0.089828,0.33236,0.19109,1.5814,0.079507,0.38802,-0.014841,-0.0099907,-0.1145,0.45422,-0.084549,-1.8723,0.038048,-0.11548
-0.003922,-0.012012,0.041153,-0.015993,-0.0010241,-0.0093699,-0.018661,-0.060039,-0.037751,0.086336,0.088103,0.30837,0.42673,1.9351,0.093044,0.33558,-0.011314,-0.018162,-0.088366,0.43474,-0.038225,-2.0268,0.048017,-0.097065
-0.003099,-0.013687,0.034324,-0.017259,0.0037705,-0.0013864,-0.022515,-0.052598,-0.035938,0.072416,0.082837,0.27659,0.68814,2.1809,0.1108,0.32861,-0.0098307,-0.025307,-0.06639,0.42939,0.011438,-2.1309,0.046544,-0.064538
-0.00031112,-0.011933,0.028152,-0.013056,0.0054911,0.004484,-0.027583,-0.042526,-0.029029,0.054414,0.082077,0.26233,0.95531,2.2368,0.13595,0.37407,-0.012605,-0.028109,-0.054805,0.43466,0.060041,-2.1969,0.034447,-0.019954
0.0004198,-0.0062117,0.025068,-0.0032603,0.004737,0.0083441,-0.030198,-0.030359,-0.018298,0.02163,0.090494,0.27867,1.201,2.0339,0.17114,0.45511,-0.018139,-0.025924,-0.059459,0.44271,0.099024,-2.2661,0.014436,0.032755
-0.0029474,-0.0003026,0.026119,0.011149,0.0031426,0.011129,-0.028926,-0.018422,-0.0071895,-0.03942,0.10643,0.31908,1.3921,1.5641,0.21012,0.53842,-0.022748,-0.021401,-0.081703,0.44699,0.11917,-2.3751,-0.013086,0.08622
-0.0084577,0.0018008,0.029429,0.027659,0.001853,0.013497,-0.025403,-0.0099883,0.00069192,-0.13906,0.12386,0.36391,1.4964,0.90326,0.23514,0.58743,-0.024004,-0.018554,-0.11589,0.44599,0.11498,-2.5259,-0.051226,0.12989
-0.011739,0.0003583,0.030791,0.041927,0.00049428,0.015197,-0.021866,-0.0067107,0.0038664,-0.27636,0.13728,0.39519,1.4931,0.18718,0.22338,0.57417,-0.022938,-0.019903,-0.15134,0.44274,0.087279,-2.6781,-0.10276,0.15363
-0.0097533,7.7593e-005,0.026403,0.048996,-0.0023276,0.015508,-0.018083,-0.006779,0.0037705,-0.43295,0.14508,0.40816,1.3827,-0.44353,0.15915,0.48612,-0.022952,-0.024998,-0.17776,0.44108,0.043021,-2.7622,-0.16374,0.15273
-0.0034629,0.0055561,0.015787,0.046127,-0.0073542,0.014328,-0.011211,-0.0059671,0.0033593,-0.57482,0.14908,0.41142,1.19,-0.89748,0.044728,0.32884,-0.026492,-0.031285,-0.18997,0.44177,-0.0070047,-2.7066,-0.21996,0.13031
0.0028392,0.016351,0.0024265,0.035327,-0.013398,0.012763,0.00081572,-0.0010857,0.0046201,-0.66502,0.15125,0.41716,0.9594,-1.1557,-0.097842,0.12511,-0.03264,-0.036327,-0.18802,0.4413,-0.05133,-2.4619,-0.25044,0.094888
0.0049322,0.026753,-0.008652,0.023028,-0.017823,0.012483,0.015615,0.0071265,0.0070806,-0.6817,0.15119,0.43058,0.74231,-1.2593,-0.2364,-0.090245,-0.037941,-0.039455,-0.17307,0.43399,-0.080975,-2.0175,-0.23716,0.054686
0.0019729,0.030885,-0.014613,0.016247,-0.018546,0.01431,0.026484,0.014401,0.0085886,-0.62995,0.14655,0.4473,0.58313,-1.2754,-0.34512,-0.28106,-0.039651,-0.041703,-0.14365,0.41592,-0.09217,-1.4056,-0.17586,0.013125
-0.0029678,0.028414,-0.016894,0.017612,-0.015766,0.01739,0.02716,0.016463,0.0076313,-0.53764,0.13564,0.45975,0.5105,-1.2623,-0.41791,-0.42255,-0.038304,-0.044403,-0.0965,0.38792,-0.087827,-0.6933,-0.080639,-0.031098
-0.0054903,0.025203,-0.01995,0.023243,-0.011735,0.019848,0.017507,0.012657,0.0050342,-0.43723,0.1193,0.46556,0.53422,-1.2445,-0.47007,-0.50899,-0.037141,-0.047801,-0.031972,0.35567,-0.07656,0.034256,0.020997,-0.079777
-0.0034082,0.02798,-0.027679,0.025582,-0.0086538,0.020439,0.0049808,0.0065092,0.003392,-0.34678,0.1003,0.46959,0.64453,-1.206,-0.52693,-0.55102,-0.038985,-0.0508,0.041426,0.32645,-0.06878,0.69668,0.10057,-0.13079
0.0016205,0.037928,-0.040365,0.019266,-0.0066841,0.019696,-9.0381e-005,0.0027991,0.0046562,-0.26442,0.08088,0.47748,0.81122,-1.0993,-0.60681,-0.56496,-0.043563,-0.051921,0.10895,0.30485,-0.071351,1.2363,0.14135,-0.17747
0.0055938,0.049372,-0.054463,0.0052541,-0.0040468,0.019476,0.0078944,0.0037826,0.008033,-0.17921,0.060918,0.4867,0.98627,-0.87081,-0.70915,-0.56329,-0.0478,-0.050634,0.15835,0.28997,-0.083873,1.6233,0.14426,-0.21227
0.0054366,0.05495,-0.065205,-0.010354,0.00079381,0.021314,0.025354,0.0077676,0.01011,-0.087165,0.038055,0.48388,1.1162,-0.49164,-0.81384,-0.5534,-0.048647,-0.048022,0.18885,0.27627,-0.099279,1.847,0.12404,-0.23146
0.0013184,0.052495,-0.069925,-0.021829,0.0070283,0.025088,0.041948,0.011005,0.0071511,0.0022571,0.009395,0.45185,1.1642,0.017503,-0.88979,-0.54235,-0.045662,-0.046203,0.21233,0.25708,-0.10867,1.9047,0.098995,-0.2369
-0.0037475,0.047172,-0.06969,-0.02874,0.011739,0.029227,0.048157,0.010938,-0.0023538,0.074456,-0.026973,0.38119,1.1286,0.58155,-0.90625,-0.53834,-0.040953,-0.046856,0.24429,0.22837,-0.10731,1.7986,0.08073,-0.23377
-0.0064235,0.046888,-0.068328,-0.035792,0.012501,0.032194,0.042186,0.0079474,-0.016859,0.12374,-0.071601,0.27693,1.0431,1.091,-0.84204,-0.54367,-0.03688,-0.049828,0.29107,0.19014,-0.097817,1.5461,0.069526,-0.22671
-0.0054192,0.055226,-0.069825,-0.047732,0.009885,0.033786,0.030939,0.0044097,-0.032989,0.1595,-0.12403,0.15507,0.95151,1.4405,-0.69227,-0.5458,-0.034056,-0.052899,0.34379,0.14497,-0.088326,1.19,0.056719,-0.21791
-0.0018735,0.068257,-0.075962,-0.064144,0.0072607,0.034996,0.024522,0.0023978,-0.047541,0.19908,-0.18283,0.031718,0.87601,1.5694,-0.47344,-0.51946,-0.031646,-0.053075,0.38443,0.095463,-0.087117,0.79625,0.031631,-0.20797
0.0021441,0.077863,-0.085549,-0.079212,0.0077571,0.036612,0.028688,0.0022959,-0.058775,0.25479,-0.24506,-0.085734,0.80345,1.4888,-0.22415,-0.44414,-0.029289,-0.04867,0.39922,0.042575,-0.09722,0.4346,-0.011172,-0.19742
0.0053445,0.078378,-0.09548,-0.086906,0.011154,0.03801,0.041019,0.003329,-0.066599,0.32704,-0.30602,-0.19869,0.7034,1.2803,0.0034627,-0.32507,-0.028217,-0.040735,0.38833,-0.014228,-0.1145,0.15481,-0.067832,-0.18601
0.0076578,0.070825,-0.10276,-0.086858,0.01379,0.037472,0.053424,0.0049875,-0.072199,0.40823,-0.36012,-0.30945,0.56237,1.0674,0.16252,-0.19817,-0.030049,-0.03259,0.36404,-0.075542,-0.1302,-0.025123,-0.12604,-0.17024
0.0094313,0.061596,-0.10629,-0.085285,0.01187,0.033897,0.058607,0.0076076,-0.077658,0.49091,-0.40292,-0.41328,0.40249,0.96947,0.232,-0.11124,-0.034447,-0.027587,0.33944,-0.14059,-0.13612,-0.11167,-0.1703,-0.1423
0.010606,0.057275,-0.10728,-0.08983,0.0052462,0.028295,0.055275,0.011523,-0.085432,0.57049,-0.43307,-0.49849,0.26509,1.0547,0.22543,-0.094811,-0.038387,-0.026664,0.31807,-0.20647,-0.12903,-0.11828,-0.18923,-0.093802
0.010838,0.060069,-0.10813,-0.10278,-0.0019016,0.023468,0.048284,0.015874,-0.097419,0.64011,-0.45276,-0.55518,0.17146,1.3143,0.17967,-0.14613,-0.038338,-0.027737,0.29293,-0.26844,-0.11174,-0.052574,-0.18115,-0.023093
0.010295,0.06706,-0.1104,-0.11865,-0.0043416,0.021876,0.044115,0.018559,-0.11391,0.68495,-0.46627,-0.58528,0.096788,1.6685,0.13051,-0.23733,-0.033609,-0.027608,0.25503,-0.32115,-0.090329,0.084626,-0.15463,0.059298
0.010024,0.073099,-0.11334,-0.12823,-0.00021445,0.023496,0.045708,0.017578,-0.13331,0.68484,-0.47732,-0.60412,-0.015375,2.003,0.092836,-0.33666,-0.027535,-0.024938,0.20307,-0.36073,-0.069725,0.29344,-0.12334,0.13306
0.011293,0.074611,-0.11426,-0.12532,0.0073014,0.025663,0.050791,0.01253,-0.153,0.62528,-0.48642,-0.63038,-0.20554,2.2192,0.060243,-0.42149,-0.024957,-0.021639,0.14604,-0.3868,-0.050587,0.57033,-0.097924,0.17892
0.014414,0.071651,-0.11054,-0.11055,0.012541,0.025209,0.05467,0.0048809,-0.17098,0.50799,-0.48989,-0.67082,-0.45602,2.2704,0.022291,-0.47466,-0.028028,-0.021217,0.097442,-0.4028,-0.029783,0.90629,-0.080311,0.19151
0.018236,0.067276,-0.10177,-0.089577,0.011853,0.021081,0.054737,-0.0030584,-0.18665,0.35157,-0.48123,-0.7118,-0.69134,2.1637,-0.017537,-0.4763,-0.034237,-0.025383,0.06703,-0.41378,-0.0040689,1.2826,-0.064278,0.18504
0.020903,0.065158,-0.090126,-0.068184,0.0062098,0.015148,0.05279,-0.0093124,-0.20031,0.18212,-0.45504,-0.72524,-0.82484,1.9302,-0.04067,-0.40908,-0.038729,-0.032101,0.056891,-0.42281,0.025805,1.6621,-0.042027,0.18636
0.021338,0.067115,-0.078753,-0.049011,-8.4486e-006,0.010505,0.053371,-0.01256,-0.21135,0.023117,-0.41158,-0.68629,-0.81692,1.5852,-0.030606,-0.27778,-0.038944,-0.037183,0.06311,-0.42912,0.053898,1.9855,-0.01205,0.21854
0.020251,0.07198,-0.06956,-0.032156,-0.0026276,0.0088537,0.059803,-0.011845,-0.21689,-0.10677,-0.35905,-0.5903,-0.70019,1.1134,0.0080172,-0.12243,-0.037252,-0.038173,0.079443,-0.43013,0.072157,2.1844,0.017598,0.28522
0.019824,0.07639,-0.062554,-0.017848,-0.00048197,0.0092703,0.071359,-0.0067001,-0.21175,-0.18877,-0.31096,-0.45726,-0.55277,0.49436,0.047886,-0.0032497,-0.038927,-0.036842,0.099286,-0.42618,0.075796,2.2122,0.033317,0.36625
0.022217,0.077014,-0.057174,-0.0077045,0.0045771,0.0092301,0.083834,0.0019709,-0.19051,-0.20186,-0.27883,-0.32072,-0.44173,-0.25214,0.058927,0.039581,-0.047135,-0.037645,0.116,-0.4236,0.066907,2.0742,0.024698,0.42842
0.027866,0.072829,-0.054056,-0.0032831,0.0097645,0.0066924,0.092771,0.011296,-0.15073,-0.13109,-0.26456,-0.2097,-0.38033,-1.0417,0.033252,0.020693,-0.059449,-0.043322,0.12412,-0.43224,0.053309,1.8321,-0.0080957,0.44535
0.034751,0.065887,-0.055104,-0.0038212,0.013314,0.0013338,0.096503,0.017421,-0.095896,0.018211,-0.25813,-0.13593,-0.32977,-1.7528,-0.007368,0.0060261,-0.069161,-0.051778,0.12229,-0.45841,0.04338,1.5714,-0.053457,0.41423
0.039226,0.059859,-0.061526,-0.0059363,0.014867,-0.0057905,0.096628,0.017943,-0.036101,0.21426,-0.24347,-0.093272,-0.23951,-2.296,-0.029554,0.067958,-0.070339,-0.057436,0.11504,-0.499,0.040916,1.3517,-0.094521,0.35851
0.03812,0.057307,-0.071746,-0.0058608,0.014724,-0.01325,0.095899,0.013881,0.014802,0.41138,-0.20879,-0.066519,-0.091585,-2.6739,-0.017637,0.23188,-0.062279,-0.055986,0.11027,-0.54235,0.043986,1.1756,-0.11814,0.31439
0.030881,0.057705,-0.08155,-0.0021368,0.013287,-0.019688,0.095677,0.0091325,0.045074,0.57556,-0.15405,-0.041087,0.085658,-2.9847,0.010138,0.45626,-0.04969,-0.048146,0.11315,-0.57557,0.048145,0.99836,-0.12081,0.30944
0.020272,0.057853,-0.086755,0.0036491,0.01123,-0.023633,0.095142,0.007458,0.051165,0.70399,-0.089922,-0.007476,0.24185,-3.3599,0.011822,0.66118,-0.038787,-0.038883,0.12141,-0.59213,0.05052,0.77162,-0.10832,0.34708
0.010881,0.054431,-0.086161,0.0084652,0.0097042,-0.023686,0.092713,0.0093867,0.040087,0.8217,-0.029536,0.03915,0.34424,-3.8784,-0.050003,0.78076,-0.032875,-0.032939,0.12674,-0.5929,0.050842,0.48522,-0.090444,0.40697
0.0062084,0.046633,-0.082071,0.010059,0.0097463,-0.019691,0.08814,0.011739,0.025921,0.95618,0.02006,0.10028,0.4,-4.5134,-0.18334,0.79761,-0.031002,-0.031003,0.12155,-0.58022,0.04889,0.17752,-0.074859,0.46052
0.0063806,0.036668,-0.077906,0.008017,0.011221,-0.013982,0.083292,0.010263,0.022168,1.1089,0.060233,0.1741,0.44531,-5.1392,-0.36076,0.73665,-0.030184,-0.030153,0.10539,-0.5517,0.041751,-0.090973,-0.064283,0.49036
0.0082924,0.027733,-0.075161,0.0034203,0.012558,-0.010981,0.080974,0.003127,0.034921,1.2454,0.096434,0.25587,0.51247,-5.5785,-0.53127,0.63177,-0.028642,-0.027793,0.085125,-0.50093,0.024663,-0.27634,-0.057641,0.49996
0.0081863,0.021279,-0.072535,-0.0019201,0.01201,-0.014536,0.082822,-0.0076455,0.061419,1.312,0.13244,0.34108,0.60239,-5.655,-0.6382,0.49943,-0.027089,-0.024872,0.068923,-0.42567,-0.0044949,-0.37307,-0.053312,0.50671
0.0046481,0.01604,-0.067932,-0.005936,0.0095189,-0.024704,0.088056,-0.017829,0.094415,1.2674,0.16844,0.42934,0.68281,-5.2335,-0.63503,0.3409,-0.027332,-0.025015,0.059856,-0.33544,-0.041189,-0.40721,-0.051565,0.52381
-0.00045116,0.0097063,-0.06123,-0.0067684,0.0073177,-0.036864,0.094059,-0.024039,0.12811,1.1084,0.20316,0.52405,0.7113,-4.2598,-0.49983,0.16422,-0.029894,-0.030414,0.055121,-0.25002,-0.075161,-0.41264,-0.05457,0.54518
-0.0038568,0.001661,-0.055032,-0.0036928,0.0083511,-0.044545,0.098167,-0.025549,0.16046,0.87598,0.23574,0.62503,0.66389,-2.8067,-0.25049,-0.0017359,-0.033028,-0.038698,0.051624,-0.18794,-0.096545,-0.41115,-0.064357,0.54531
-0.0040175,-0.0058665,-0.052581,0.0019506,0.013691,-0.044211,0.099149,-0.0237,0.19054,0.63744,0.26414,0.71882,0.54952,-1.1029,0.047411,-0.11914,-0.033901,-0.044053,0.052549,-0.15368,-0.10255,-0.40776,-0.080344,0.49502
-0.0026297,-0.0095177,-0.054757,0.0070266,0.021278,-0.03815,0.097296,-0.020024,0.21442,0.4546,0.28188,0.77668,0.40359,0.50423,0.29526,-0.16952,-0.030831,-0.041721,0.068403,-0.13461,-0.099184,-0.39739,-0.098233,0.38182
-0.0032159,-0.0079964,-0.058976,0.0085821,0.027288,-0.032786,0.093397,-0.015105,0.22495,0.35368,0.27837,0.76642,0.26957,1.6692,0.4042,-0.17146,-0.024609,-0.031781,0.11068,-0.1108,-0.09659,-0.37301,-0.11128,0.21983
-0.0078958,-0.0038226,-0.061107,0.0062891,0.029083,-0.03351,0.087857,-0.0090814,0.21657,0.3124,0.24527,0.67276,0.18224,2.2041,0.34641,-0.1692,-0.017833,-0.018876,0.18252,-0.070084,-0.10192,-0.33012,-0.11374,0.041968
-0.015147,-0.0018433,-0.0588,0.0031362,0.027271,-0.040207,0.080868,-0.002816,0.19106,0.27276,0.18479,0.51137,0.16065,2.1686,0.17794,-0.20042,-0.012758,-0.0083951,0.27332,-0.016329,-0.1154,-0.26933,-0.10478,-0.11921
-0.020602,-0.0055575,-0.053359,0.0033056,0.025172,-0.047315,0.073256,0.0018938,0.15848,0.17418,0.11205,0.32409,0.20925,1.8262,0.0084709,-0.2702,-0.0093501,-0.0026607,0.36143,0.03497,-0.13197,-0.19876,-0.090138,-0.24774
-0.020408,-0.014377,-0.048601,0.0086719,0.026198,-0.048477,0.066763,0.0035766,0.13129,-0.012378,0.04789,0.15649,0.32151,1.4862,-0.068023,-0.35234,-0.0051299,-0.00024634,0.42347,0.06923,-0.14606,-0.13332,-0.079267,-0.34633
-0.014475,-0.024254,-0.047705,0.016892,0.03129,-0.041872,0.063028,0.0026167,0.11588,-0.27123,0.0063222,0.033118,0.48196,1.3404,-0.033084,-0.41464,0.002835,0.0016246,0.44432,0.082681,-0.15498,-0.086754,-0.078931,-0.42511
-0.006904,-0.031191,-0.050714,0.022939,0.038265,-0.031784,0.062019,0.0013339,0.10842,-0.55786,-0.013483,-0.051756,0.66737,1.4015,0.051822,-0.44442,0.015108,0.0042585,0.42207,0.082329,-0.15846,-0.059382,-0.087241,-0.48834
-0.003115,-0.03455,-0.054699,0.02298,0.043314,-0.025203,0.06154,0.0021754,0.098462,-0.83014,-0.024565,-0.12195,0.84939,1.5661,0.099839,-0.45252,0.028431,0.0067255,0.36597,0.077568,-0.15623,-0.0328,-0.093377,-0.53024
-0.0058379,-0.037241,-0.056302,0.017366,0.043384,-0.026502,0.058614,0.0054652,0.077296,-1.0696,-0.041367,-0.19633,1.0001,1.7303,0.068024,-0.45498,0.037141,0.0072781,0.28951,0.071598,-0.14664,0.019465,-0.084583,-0.54217
-0.013126,-0.042684,-0.054434,0.010186,0.037923,-0.034553,0.051752,0.0087963,0.044645,-1.2771,-0.069783,-0.27267,1.0991,1.8566,-0.014387,-0.45123,0.036862,0.0051229,0.2037,0.059836,-0.12804,0.10985,-0.056022,-0.52322
-0.019971,-0.051367,-0.050936,0.0058723,0.029182,-0.04425,0.042095,0.0088168,0.0088248,-1.4504,-0.10539,-0.32937,1.1387,1.955,-0.07868,-0.41983,0.027906,0.00086023,0.11402,0.03586,-0.10124,0.22132,-0.015717,-0.484
-0.022254,-0.060201,-0.048768,0.0058577,0.021157,-0.050591,0.032325,0.0039938,-0.019076,-1.5684,-0.13952,-0.34161,1.1254,2.0259,-0.078267,-0.33617,0.015622,-0.0044115,0.021842,-0.00076463,-0.070323,0.31498,0.020184,-0.44081
-0.019869,-0.065234,-0.049385,0.0081031,0.017725,-0.051774,0.024316,-0.00406,-0.032488,-1.6007,-0.16658,-0.29959,1.0756,2.037,-0.024808,-0.19764,0.0070282,-0.010062,-0.071935,-0.041341,-0.04086,0.35866,0.038757,-0.40584
-0.016547,-0.065236,-0.051507,0.0096027,0.020741,-0.049229,0.017613,-0.011945,-0.033461,-1.5365,-0.18645,-0.21756,1.0084,1.9582,0.029616,-0.035673,0.0060069,-0.01599,-0.1643,-0.071873,-0.016957,0.35393,0.039378,-0.38226
-0.016568,-0.062838,-0.052225,0.0093086,0.028941,-0.045428,0.010046,-0.017396,-0.031802,-1.409,-0.20151,-0.13021,0.93922,1.8059,0.043546,0.095793,0.010691,-0.022036,-0.25011,-0.080833,0.00049992,0.33752,0.033144,-0.36742
-0.021133,-0.062277,-0.049439,0.0087522,0.038387,-0.041832,-0.00025693,-0.021183,-0.040427,-1.2885,-0.2129,-0.080171,0.87659,1.6359,0.022287,0.14817,0.015149,-0.027682,-0.32409,-0.065412,0.013509,0.35314,0.033386,-0.35961
-0.027427,-0.065877,-0.043555,0.0099979,0.044472,-0.038546,-0.013319,-0.026204,-0.069464,-1.2442,-0.21983,-0.10187,0.82346,1.4769,0.0083666,0.10487,0.014111,-0.032452,-0.38303,-0.032477,0.025488,0.41631,0.045481,-0.36124
-0.031155,-0.07248,-0.03711,0.013137,0.044484,-0.035329,-0.027432,-0.034407,-0.12159,-1.298,-0.22159,-0.20733,0.77934,1.2709,0.038785,-0.0093996,0.0070216,-0.036441,-0.42675,0.0057815,0.040002,0.50237,0.064329,-0.37588
-0.030368,-0.079028,-0.032783,0.015887,0.039103,-0.0325,-0.04042,-0.044179,-0.19065,-1.4025,-0.21871,-0.37941,0.74122,0.8939,0.10989,-0.14094,-0.0017601,-0.040211,-0.45774,0.038329,0.059816,0.56893,0.08063,-0.40264
-0.027249,-0.083536,-0.031473,0.015739,0.031772,-0.030817,-0.05068,-0.050576,-0.26444,-1.4612,-0.2114,-0.57774,0.70309,0.25654,0.17993,-0.23291,-0.0066751,-0.044062,-0.48022,0.059961,0.085474,0.59378,0.089477,-0.43414
-0.026258,-0.086547,-0.031893,0.01257,0.026344,-0.030636,-0.057261,-0.048493,-0.33085,-1.3791,-0.19714,-0.75711,0.65621,-0.59614,0.2028,-0.25017,-0.0054794,-0.047516,-0.49896,0.071821,0.11343,0.59461,0.093557,-0.46008
-0.030187,-0.089849,-0.031697,0.0091086,0.024712,-0.031333,-0.059571,-0.036399,-0.38376,-1.1123,-0.17139,-0.88952,0.59244,-1.4835,0.16012,-0.19138,-0.00091019,-0.049706,-0.51823,0.078208,0.13546,0.61242,0.0991,-0.47348
-0.037555,-0.094047,-0.029001,0.0086162,0.026078,-0.031586,-0.057619,-0.017706,-0.42484,-0.68748,-0.13209,-0.97585,0.51018,-2.2009,0.06501,-0.085299,0.0017116,-0.050324,-0.54085,0.082452,0.14156,0.67219,0.10946,-0.47425
-0.043724,-0.097623,-0.023193,0.011832,0.028207,-0.030227,-0.052805,0.0012568,-0.45967,-0.18456,-0.084365,-1.0384,0.41966,-2.6548,-0.058948,0.02382,-0.0011915,-0.050081,-0.56798,0.085014,0.1257,0.75497,0.12262,-0.46778
-0.044857,-0.09851,-0.014816,0.016045,0.02942,-0.026918,-0.04819,0.015044,-0.49074,0.3037,-0.040016,-1.0996,0.34351,-2.9044,-0.19767,0.093498,-0.0087747,-0.050028,-0.59974,0.085064,0.090895,0.80563,0.13421,-0.46036
-0.041313,-0.096531,-0.0050557,0.017325,0.029659,-0.022196,-0.047296,0.02178,-0.51295,0.70648,-0.01049,-1.1642,0.30978,-3.0699,-0.34446,0.097081,-0.016755,-0.050395,-0.63602,0.083832,0.048401,0.77011,0.14225,-0.45555
-0.037454,-0.094137,0.0047098,0.014044,0.029911,-0.017071,-0.051896,0.022972,-0.51529,0.98729,0.0016531,-1.2184,0.33798,-3.1917,-0.48093,0.032018,-0.020961,-0.050255,-0.67607,0.086365,0.010597,0.63111,0.14868,-0.45387
-0.037983,-0.094535,0.013279,0.0085076,0.030778,-0.012615,-0.06049,0.021179,-0.48773,1.1347,0.0054575,-1.2472,0.42388,-3.1712,-0.56586,-0.078773,-0.020379,-0.048596,-0.71626,0.099456,-0.017562,0.41494,0.15661,-0.4551
-0.043984,-0.098918,0.020046,0.0050978,0.031659,-0.0097561,-0.068947,0.017801,-0.42824,1.1473,0.01527,-1.2508,0.53324,-2.854,-0.55106,-0.19402,-0.017322,-0.045832,-0.74775,0.12685,-0.040719,0.16939,0.16639,-0.46077
-0.052101,-0.10538,0.025235,0.0064918,0.031298,-0.0090956,-0.073159,0.012718,-0.34466,1.0287,0.03997,-1.2463,0.61314,-2.1886,-0.417,-0.2699,-0.014985,-0.04402,-0.75696,0.16548,-0.065907,-0.06318,0.17462,-0.47426
-0.057488,-0.11036,0.02955,0.011344,0.029091,-0.010576,-0.071835,0.0055057,-0.25059,0.79692,0.076484,-1.2513,0.61917,-1.3194,-0.19962,-0.2798,-0.01471,-0.045089,-0.73039,0.20623,-0.091646,-0.25418,0.17671,-0.49831
-0.057824,-0.11108,0.033363,0.015566,0.025835,-0.01319,-0.067374,-0.0034508,-0.15893,0.49536,0.11292,-1.2666,0.5428,-0.52847,0.017385,-0.22788,-0.015264,-0.048419,-0.66161,0.23906,-0.10398,-0.3786,0.17054,-0.5317
-0.054903,-0.10664,0.036222,0.016049,0.023135,-0.015199,-0.064141,-0.013175,-0.078116,0.19282,0.13839,-1.2756,0.41784,-0.067932,0.14464,-0.14667,-0.014366,-0.050151,-0.55558,0.25919,-0.085347,-0.40768,0.15788,-0.56776
-0.052608,-0.097221,0.03742,0.013394,0.022002,-0.015026,-0.065416,-0.023183,-0.012984,-0.036058,0.15078,-1.2621,0.29771,-0.011454,0.13652,-0.077871,-0.010798,-0.045424,-0.42611,0.26988,-0.030507,-0.32183,0.14271,-0.5967
-0.053315,-0.082917,0.037291,0.011114,0.02191,-0.012313,-0.071194,-0.033936,0.031993,-0.14071,0.15611,-1.2317,0.21882,-0.23363,0.0147,-0.047304,-0.0052002,-0.032145,-0.28763,0.28025,0.044768,-0.13629,0.1282,-0.61089
-0.055967,-0.063956,0.037839,0.012079,0.021151,-0.0083003,-0.078366,-0.045876,0.05128,-0.11775,0.16084,-1.213,0.17999,-0.51417,-0.14861,-0.050908,0.00088252,-0.013231,-0.14675,0.29998,0.11212,0.088403,0.11504,-0.60966
-0.057284,-0.04212,0.041615,0.015598,0.018102,-0.0051003,-0.083016,-0.05801,0.040778,-0.011961,0.1649,-1.2372,0.15671,-0.67305,-0.27451,-0.062198,0.0064708,0.0047968,-0.00057848,0.33468,0.1514,0.27088,0.10195,-0.59951
-0.05479,-0.021444,0.049434,0.01796,0.012327,-0.0043845,-0.083134,-0.06778,0.0024951,0.10667,0.16185,-1.3096,0.13793,-0.64003,-0.31887,-0.055874,0.011631,0.016042,0.15696,0.38404,0.16616,0.35673,0.087584,-0.58913
-0.048904,-0.0066499,0.058973,0.015966,0.0047333,-0.0064652,-0.079808,-0.072842,-0.052688,0.177,0.1454,-1.3993,0.1502,-0.43613,-0.28711,-0.029479,0.016635,0.019056,0.32551,0.44283,0.17875,0.35262,0.07181,-0.58245
-0.042501,-0.00013865,0.065885,0.010134,-0.00306,-0.010338,-0.076191,-0.073362,-0.10714,0.17254,0.11537,-1.4574,0.2417,-0.11718,-0.21787,-0.0054649,0.020862,0.017287,0.49356,0.5031,0.20725,0.31706,0.055638,-0.57533
-0.038586,-0.00017178,0.066833,0.0045622,-0.0094341,-0.014373,-0.075215,-0.072617,-0.14295,0.10571,0.077133,-1.4492,0.43549,0.26183,-0.151,-0.011069,0.022747,0.015959,0.64233,0.55679,0.24407,0.31393,0.040009,-0.55888
-0.038163,-0.0021463,0.061939,0.0035056,-0.013155,-0.016918,-0.077888,-0.075004,-0.14902,0.011806,0.035309,-1.3771,0.69248,0.64888,-0.1022,-0.05211,0.021002,0.018089,0.75528,0.59792,0.25711,0.36659,0.024768,-0.52669
-0.039875,-0.0021203,0.054457,0.0077849,-0.013639,-0.016548,-0.083269,-0.082886,-0.12477,-0.073641,-0.011873,-1.2764,0.92185,0.99345,-0.059283,-0.10394,0.016049,0.022841,0.82526,0.624,0.21477,0.44849,0.0086434,-0.48017
-0.041389,0.00036011,0.047988,0.014211,-0.011373,-0.012322,-0.089701,-0.094825,-0.078359,-0.12849,-0.071823,-1.1882,1.0373,1.2668,0.00090289,-0.13076,0.010293,0.027237,0.85425,0.63566,0.11456,0.51232,-0.0097233,-0.42724
-0.041147,0.0025042,0.043813,0.018419,-0.0082372,-0.0044246,-0.095891,-0.10662,-0.02095,-0.14272,-0.15083,-1.1314,1.0161,1.4899,0.088503,-0.12088,0.0068602,0.029325,0.84742,0.63413,-0.010248,0.52661,-0.030396,-0.37541
-0.039124,0.0012387,0.040743,0.018473,-0.0070093,0.0052126,-0.10096,-0.11424,0.039151,-0.10936,-0.24706,-1.0923,0.91248,1.7307,0.18667,-0.10887,0.007753,0.029878,0.80782,0.61842,-0.11235,0.48712,-0.051227,-0.32476
-0.03624,-0.0038164,0.037396,0.016081,-0.0098309,0.013277,-0.10391,-0.1162,0.098882,-0.020096,-0.34898,-1.0354,0.8108,2.0532,0.25665,-0.16132,0.012836,0.031296,0.73627,0.5849,-0.16249,0.39913,-0.06798,-0.26636
-0.033208,-0.0099468,0.034438,0.014593,-0.01653,0.016847,-0.10372,-0.11379,0.1582,0.12829,-0.43996,-0.92484,0.75667,2.4503,0.25832,-0.33023,0.020324,0.035065,0.63467,0.5305,-0.16451,0.25653,-0.075665,-0.18756
-0.029924,-0.013752,0.034359,0.015807,-0.024299,0.01554,-0.10021,-0.10932,0.2156,0.3222,-0.50518,-0.74048,0.72135,2.8171,0.17281,-0.60583,0.028181,0.040306,0.50747,0.45725,-0.14236,0.04366,-0.070706,-0.080403
-0.025822,-0.014165,0.038845,0.018483,-0.029404,0.012182,-0.094778,-0.10415,0.26539,0.52672,-0.53672,-0.48303,0.62991,2.9981,0.013857,-0.90673,0.03525,0.044714,0.35857,0.37414,-0.11318,-0.24051,-0.053081,0.052287
-0.020729,-0.013458,0.046282,0.019677,-0.029857,0.010978,-0.089605,-0.098323,0.29953,0.69564,-0.53483,-0.17022,0.43073,2.8824,-0.17762,-1.1207,0.041339,0.046746,0.18738,0.29366,-0.07184,-0.56251,-0.027259,0.19659
-0.015307,-0.015387,0.052048,0.017471,-0.026892,0.014367,-0.085658,-0.091451,0.31267,0.79133,-0.5066,0.16892,0.14961,2.4801,-0.351,-1.1709,0.046546,0.046783,-0.0097422,0.22532,2.128e-005,-0.86288,-0.0011336,0.33271
-0.010686,-0.022045,0.05175,0.012589,-0.023907,0.021109,-0.08135,-0.083955,0.30634,0.80111,-0.46289,0.49873,-0.11706,1.9231,-0.46513,-1.0621,0.050645,0.046159,-0.23098,0.17116,0.11102,-1.0898,0.016892,0.44263
-0.0076481,-0.03196,0.044762,0.0076051,-0.023676,0.027387,-0.073639,-0.077135,0.28847,0.73933,-0.41425,0.7825,-0.26653,1.3909,-0.50062,-0.87261,0.053118,0.045233,-0.45993,0.12652,0.24563,-1.2292,0.021263,0.51642
-0.0061508,-0.040946,0.034863,0.0046593,-0.026194,0.030066,-0.061107,-0.072161,0.26855,0.63489,-0.36635,0.9912,-0.26183,1.0122,-0.46193,-0.69966,0.053655,0.042682,-0.66538,0.085256,0.37138,-1.3044,0.011182,0.55475
-0.0054926,-0.045053,0.027149,0.0037601,-0.028977,0.029274,-0.046345,-0.069024,0.25254,0.51432,-0.31753,1.1134,-0.15617,0.81027,-0.37114,-0.59801,0.05252,0.036936,-0.81344,0.044557,0.46032,-1.3492,-0.010118,0.56682
-0.0048154,-0.043403,0.023651,0.0030185,-0.029451,0.027965,-0.035058,-0.06645,0.24147,0.39169,-0.2609,1.1607,-0.052613,0.72107,-0.25772,-0.55644,0.050459,0.028324,-0.88548,0.0057468,0.50524,-1.3808,-0.038254,0.56535
-0.0034081,-0.038909,0.021466,0.00041158,-0.027232,0.028942,-0.032043,-0.062774,0.23429,0.26949,-0.19078,1.1631,-0.033185,0.66092,-0.14812,-0.52414,0.048334,0.019647,-0.88891,-0.028669,0.51782,-1.4005,-0.070756,0.56112
-0.00070165,-0.036416,0.015244,-0.004507,-0.024271,0.032162,-0.037142,-0.056914,0.23121,0.14635,-0.10946,1.1562,-0.11303,0.5897,-0.058373,-0.46081,0.046926,0.014294,-0.85293,-0.058226,0.51328,-1.4183,-0.10817,0.5596
0.0037101,-0.039591,0.0022066,-0.010255,-0.022873,0.034923,-0.044666,-0.048653,0.23395,0.023859,-0.028776,1.1646,-0.25114,0.52644,0.0084466,-0.36832,0.046978,0.013567,-0.81176,-0.08496,0.49675,-1.4712,-0.15237,0.56064
