1.447e-010,9.3957e-010,9.4729e-010,1.2251e-009,1.1769e-010,1.0939e-009,-8.1996e-010,2.6817e-010,5.9808e-011,9.5501e-010,-3.4149e-010,1.7171e-010,-2.6817e-010,2.3248e-009,-1.5415e-009,-1.0978e-009,-1.0515e-009,6.5789e-010,7.2349e-010,4.5339e-010,1.8463e-009,1.2984e-009,-2.1029e-010,4.3795e-010
3.8673e-009,2.5605e-008,2.6192e-008,3.3468e-008,3.3023e-009,3.0376e-008,-2.2739e-008,7.4646e-009,1.7531e-009,2.6371e-008,-9.4944e-009,4.6099e-009,-7.8698e-009,6.2989e-008,-4.2632e-008,-3.0359e-008,-2.9195e-008,1.8415e-008,2.0039e-008,1.2444e-008,5.1102e-008,3.6254e-008,-5.9308e-009,1.189e-008
5.0204e-008,3.3892e-007,3.521e-007,4.4405e-007,4.5062e-008,4.0994e-007,-3.0659e-007,1.0085e-007,2.448e-008,3.5377e-007,-1.2823e-007,6.0066e-008,-1.1226e-007,8.2715e-007,-5.7358e-007,-4.0831e-007,-3.9459e-007,2.507e-007,2.6988e-007,1.6574e-007,6.8767e-007,4.9223e-007,-8.1532e-008,1.5688e-007
4.2178e-007,2.9029e-006,3.0655e-006,3.8114e-006,3.9844e-007,3.5821e-006,-2.6773e-006,8.8079e-007,2.1683e-007,3.0714e-006,-1.1207e-006,5.0598e-007,-1.0374e-006,7.0087e-006,-5.0023e-006,-3.558e-006,-3.4597e-006,2.2113e-006,2.3548e-006,1.4266e-006,5.994e-006,4.3297e-006,-7.2847e-007,1.3407e-006
2.5778e-006,1.8085e-005,1.9427e-005,2.3784e-005,2.5661e-006,2.2775e-005,-1.7018e-005,5.5886e-006,1.3659e-006,1.9393e-005,-7.1242e-006,3.0962e-006,-6.9839e-006,4.3029e-005,-3.1788e-005,-2.2574e-005,-2.2123e-005,1.4203e-005,1.4964e-005,8.9154e-006,3.8034e-005,2.7734e-005,-4.759e-006,8.3435e-006
1.2214e-005,8.7322e-005,9.5466e-005,0.00011494,1.2829e-005,0.00011225,-8.3878e-005,2.7441e-005,6.4883e-006,9.4873e-005,-3.5095e-005,1.4659e-005,-3.6512e-005,0.00020368,-0.00015686,-0.00011109,-0.00010998,7.0766e-005,7.3813e-005,4.307e-005,0.00018717,0.00013786,-2.4246e-005,4.0306e-005
4.6693e-005,0.00033996,0.00037831,0.00044736,5.1799e-005,0.00044598,-0.00033342,0.00010844,2.396e-005,0.00037399,-0.00013935,5.5837e-005,-0.00015433,0.00077182,-0.00062538,-0.00044095,-0.00044231,0.00028449,0.00029406,0.00016716,0.00074302,0.00055328,-0.00010033,0.00015732
0.00014796,0.001096,0.0012409,0.0014394,0.00017351,0.0014665,-0.0010973,0.00035404,6.94e-005,0.0012195,-0.00045781,0.0001756,-0.00054215,0.0023979,-0.0020691,-0.001449,-0.0014787,0.00094739,0.00097204,0.00053449,0.0024427,0.0018415,-0.0003467,0.00050982
0.00039625,0.0029818,0.00343,0.0038982,0.00049135,0.0040642,-0.0030443,0.00097265,0.00015453,0.0033497,-0.0012673,0.00046415,-0.0016147,0.0061966,-0.0057902,-0.0040125,-0.0041894,0.0026615,0.0027176,0.0014312,0.0067727,0.0051803,-0.0010207,0.0013984
0.00091007,0.0069387,0.0080879,0.0089969,0.0011927,0.0096131,-0.0072102,0.002278,0.00024018,0.0078491,-0.0029923,0.001044,-0.0041389,0.013405,-0.013894,-0.0094783,-0.010202,0.0063882,0.006517,0.0032405,0.016039,0.012486,-0.0025982,0.0032927
0.0018131,0.013946,0.016394,0.017839,0.0025066,0.019569,-0.014699,0.0045901,0.00013579,0.015822,-0.0060736,0.002015,-0.0092391,0.02421,-0.028878,-0.019244,-0.021582,0.013212,0.013548,0.0062247,0.032715,0.026046,-0.0057813,0.0067228
0.0031634,0.024378,0.028664,0.030515,0.0045963,0.034446,-0.025909,0.0080083,-0.00062453,0.027568,-0.010631,0.0033574,-0.018131,0.035871,-0.052373,-0.033707,-0.039982,0.023662,0.024612,0.010091,0.05774,0.047353,-0.011335,0.011984
0.0048774,0.037228,0.043178,0.045056,0.0073985,0.052488,-0.039517,0.012152,-0.0028117,0.041571,-0.016016,0.004856,-0.031533,0.041392,-0.083321,-0.050906,-0.065275,0.036746,0.039329,0.013534,0.088247,0.075381,-0.019688,0.018718
0.006712,0.049811,0.055615,0.057209,0.010517,0.069047,-0.051982,0.0161,-0.007266,0.054113,-0.020557,0.0061603,-0.048954,0.030844,-0.11677,-0.06597,-0.09443,0.04936,0.055603,0.014172,0.11635,0.10536,-0.030391,0.025622
0.0083498,0.05853,0.060155,0.061914,0.013315,0.077836,-0.05848,0.018739,-0.014322,0.060374,-0.021907,0.0070456,-0.068329,-0.0033365,-0.1448,-0.072642,-0.12176,0.056938,0.070023,0.0093202,0.13095,0.12942,-0.041726,0.030602
0.0095568,0.060644,0.052454,0.056275,0.015237,0.074226,-0.055444,0.019438,-0.023113,0.05703,-0.01808,0.0077705,-0.086431,-0.058928,-0.15999,-0.067136,-0.14117,0.055648,0.079327,-0.0024712,0.12306,0.13975,-0.050889,0.03153
0.010301,0.056043,0.03305,0.04223,0.016189,0.058859,-0.043418,0.01859,-0.03127,0.044889,-0.008732,0.0092322,-0.10002,-0.11966,-0.15981,-0.052339,-0.14942,0.045139,0.082194,-0.019878,0.091948,0.13275,-0.054942,0.027348
0.010734,0.047605,0.008527,0.026503,0.016624,0.03863,-0.027926,0.017461,-0.035534,0.029383,0.0042461,0.012615,-0.10707,-0.15963,-0.14861,-0.038837,-0.14831,0.0298,0.080013,-0.038427,0.047608,0.11139,-0.052298,0.018893
0.011075,0.039538,-0.011367,0.016907,0.017127,0.023259,-0.016844,0.017269,-0.033277,0.017748,0.017489,0.018543,-0.1073,-0.15658,-0.13484,-0.040321,-0.14366,0.01695,0.075858,-0.051949,0.0061291,0.083572,-0.043929,0.0087925
0.011524,0.034695,-0.019584,0.017033,0.017738,0.019005,-0.015342,0.018153,-0.024158,0.014312,0.028019,0.026215,-0.10159,-0.1067,-0.1248,-0.064913,-0.14127,0.012501,0.072352,-0.055312,-0.020021,0.057166,-0.033399,0.0002729
0.012327,0.032881,-0.016627,0.023292,0.01764,0.024127,-0.021958,0.018974,-0.010773,0.017344,0.034943,0.03324,-0.09106,-0.029735,-0.11742,-0.10805,-0.14275,0.016992,0.070174,-0.046831,-0.030132,0.035485,-0.025332,-0.0044945
0.013856,0.031563,-0.01033,0.027125,0.015727,0.030157,-0.029215,0.018303,0.0024021,0.020219,0.03968,0.03657,-0.076656,0.041061,-0.10474,-0.1529,-0.14442,0.025163,0.068482,-0.028847,-0.035119,0.01705,-0.022935,-0.0054285
0.016461,0.028388,-0.010086,0.021242,0.0118,0.028665,-0.028949,0.015835,0.011297,0.016424,0.044479,0.034175,-0.059748,0.078645,-0.078029,-0.17925,-0.14031,0.029794,0.066714,-0.006158,-0.048547,6.1669e-006,-0.026024,-0.0041578
0.019983,0.023339,-0.019701,0.0052317,0.0073719,0.01825,-0.018446,0.012929,0.014299,0.0045533,0.050474,0.026476,-0.042863,0.077685,-0.035037,-0.1754,-0.12686,0.027023,0.065808,0.016485,-0.075611,-0.012693,-0.030979,-0.0024466
0.023319,0.018629,-0.034598,-0.013948,0.0050808,0.0057483,-0.0024225,0.011638,0.012683,-0.010762,0.056918,0.016532,-0.029249,0.054835,0.017715,-0.14452,-0.10525,0.019032,0.067476,0.036127,-0.10898,-0.012431,-0.032946,-0.00065657
0.024648,0.016481,-0.045811,-0.027079,0.0067761,0.00031436,0.010928,0.013001,0.0091683,-0.022725,0.062181,0.0086934,-0.020869,0.034555,0.069551,-0.10098,-0.079887,0.012066,0.072166,0.05165,-0.13491,0.0098794,-0.029071,0.0024247
0.022543,0.016877,-0.047475,-0.029316,0.011702,0.0053674,0.016548,0.016105,0.005777,-0.027694,0.065402,0.0063679,-0.016226,0.032181,0.1133,-0.059795,-0.054765,0.011647,0.077877,0.06259,-0.14429,0.056115,-0.020572,0.0081579
0.017293,0.017369,-0.041483,-0.023107,0.016498,0.0155,0.016194,0.018777,0.0026151,-0.027429,0.067107,0.010119,-0.010317,0.046754,0.14966,-0.027666,-0.031307,0.018997,0.081228,0.068137,-0.13933,0.11696,-0.012057,0.016282
0.011199,0.015195,-0.035401,-0.015399,0.017441,0.021136,0.016101,0.01928,-0.0016755,-0.026643,0.068209,0.017184,0.0022218,0.066793,0.18488,-0.0018125,-0.0093544,0.031232,0.080008,0.067362,-0.13054,0.17525,-0.0083325,0.024551
0.0071857,0.0097643,-0.035656,-0.011889,0.013366,0.01678,0.020904,0.017466,-0.0084444,-0.02844,0.06853,0.022799,0.022483,0.081663,0.22408,0.023668,0.010405,0.044307,0.074914,0.060492,-0.12703,0.21474,-0.010877,0.030379
0.0065751,0.0033275,-0.04209,-0.013196,0.0068538,0.005489,0.029292,0.014458,-0.017918,-0.031932,0.066607,0.022727,0.044801,0.088511,0.26588,0.050416,0.025682,0.055593,0.068946,0.049948,-0.12885,0.22813,-0.016523,0.03316
0.0079083,-0.00076653,-0.048559,-0.015769,0.0025042,-0.0042162,0.035255,0.011393,-0.029268,-0.03397,0.061202,0.01565,0.059058,0.090928,0.30248,0.073861,0.034653,0.064056,0.065057,0.039832,-0.12742,0.21916,-0.019338,0.035047
0.0080961,-0.00067147,-0.048734,-0.016081,0.0035328,-0.0059337,0.033705,0.0085934,-0.041516,-0.032935,0.053086,0.0039793,0.056811,0.093423,0.32484,0.087871,0.038776,0.068955,0.064017,0.03379,-0.11308,0.19774,-0.014423,0.039152
0.0051446,0.002658,-0.041772,-0.014065,0.009419,-0.0005786,0.025431,0.0059441,-0.054277,-0.03068,0.045134,-0.0075245,0.036926,0.098132,0.3286,0.091381,0.043242,0.069414,0.063976,0.032682,-0.082896,0.17224,-0.00098781,0.04653
8.213e-005,0.0063809,-0.032924,-0.012876,0.016478,0.0050985,0.017039,0.0038409,-0.067708,-0.030725,0.040301,-0.014494,0.0063184,0.10596,0.31656,0.09097,0.054083,0.065662,0.061706,0.03397,-0.042598,0.14427,0.01724,0.054641
-0.0037784,0.0079156,-0.028911,-0.015523,0.020738,0.0047616,0.015919,0.003397,-0.081889,-0.034559,0.039246,-0.015192,-0.024902,0.11897,0.29657,0.097125,0.074193,0.060205,0.054486,0.033632,-0.0021329,0.10906,0.034352,0.058869
-0.003705,0.0064951,-0.032339,-0.021647,0.020638,-0.0023237,0.024499,0.0053791,-0.096307,-0.039808,0.039926,-0.0107,-0.050103,0.13999,0.27693,0.11722,0.10155,0.056671,0.041709,0.029361,0.030501,0.060365,0.045689,0.055982
5.5189e-005,0.0030836,-0.039826,-0.027356,0.017462,-0.011368,0.038419,0.0088346,-0.1098,-0.042202,0.039767,-0.0031306,-0.069369,0.1689,0.26262,0.15068,0.13085,0.056609,0.025573,0.022583,0.052205,-0.003603,0.05028,0.046526
0.0045665,-0.00090677,-0.044904,-0.028199,0.013597,-0.016546,0.04989,0.011002,-0.12086,-0.0396,0.038463,0.0063634,-0.087005,0.19956,0.25447,0.18962,0.15689,0.057285,0.010384,0.017533,0.063512,-0.077029,0.051014,0.034054
0.0068342,-0.0047998,-0.042777,-0.022673,0.010525,-0.015523,0.053345,0.0090587,-0.12792,-0.034184,0.038641,0.017906,-0.10582,0.22104,0.25068,0.22391,0.1767,0.05328,0.00023701,0.017962,0.065952,-0.14752,0.052564,0.021901
0.0061831,-0.008809,-0.033125,-0.013363,0.0082132,-0.010471,0.048978,0.0024387,-0.12966,-0.030554,0.043414,0.031304,-0.12334,0.22315,0.24901,0.2465,0.18942,0.041161,-0.0039861,0.024035,0.061059,-0.20068,0.058345,0.010473
0.0041604,-0.013285,-0.01942,-0.0049501,0.005939,-0.0056926,0.041836,-0.0063746,-0.12535,-0.031326,0.052807,0.044341,-0.13311,0.20237,0.24787,0.2557,0.19486,0.023037,-0.0060868,0.03196,0.051221,-0.22591,0.068321,-0.0024916
0.0023488,-0.01792,-0.0062055,-0.00087839,0.0031835,-0.0045614,0.037728,-0.01352,-0.11517,-0.034338,0.062346,0.053115,-0.12991,0.16336,0.24625,0.25397,0.19272,0.005328,-0.012564,0.036613,0.040095,-0.22112,0.079132,-0.01898
0.0006183,-0.021672,0.0032747,-0.0013242,-0.00036292,-0.0081102,0.039354,-0.016622,-0.10023,-0.034298,0.06549,0.054716,-0.11424,0.11513,0.24328,0.24531,0.18305,-0.0065876,-0.0278,0.034987,0.031002,-0.19406,0.086614,-0.03787
-0.0022501,-0.023434,0.0078706,-0.0037549,-0.0052929,-0.015369,0.045312,-0.016372,-0.082092,-0.027606,0.058298,0.050084,-0.092324,0.065244,0.23844,0.23347,0.16704,-0.013023,-0.050028,0.027637,0.024442,-0.15961,0.089064,-0.054848
-0.006337,-0.022875,0.0081867,-0.0052256,-0.012347,-0.024212,0.052085,-0.015449,-0.06199,-0.016014,0.042639,0.044233,-0.071787,0.01656,0.23236,0.2213,0.14711,-0.019426,-0.071916,0.017266,0.017469,-0.13373,0.088851,-0.065244
-0.0094303,-0.020792,0.0059693,-0.004435,-0.021347,-0.031968,0.056924,-0.015828,-0.040498,-0.0056427,0.025257,0.043118,-0.056615,-0.031172,0.22711,0.21038,0.12611,-0.030853,-0.086039,0.006102,0.0061506,-0.12667,0.090977,-0.067277
-0.0086019,-0.018732,0.0034398,-0.0021535,-0.030293,-0.036136,0.059397,-0.017057,-0.017918,-0.002014,0.01328,0.049374,-0.045215,-0.077169,0.22549,0.20041,0.10678,-0.046535,-0.090947,-0.0053247,-0.010734,-0.13883,0.099426,-0.062927
-0.0032117,-0.018176,0.0023438,-0.00013225,-0.036045,-0.035609,0.060894,-0.017076,0.0049076,-0.0054722,0.0095724,0.060376,-0.032734,-0.11731,0.22946,0.18892,0.091683,-0.059728,-0.092404,-0.017127,-0.030064,-0.16135,0.11392,-0.055754
0.0037529,-0.019788,0.0029489,0.00032799,-0.036592,-0.031743,0.063019,-0.014642,0.026177,-0.011041,0.011287,0.070171,-0.01534,-0.1462,0.23922,0.17246,0.083305,-0.063295,-0.098298,-0.028273,-0.046281,-0.18069,0.12954,-0.047702
0.0076837,-0.023104,0.0039009,-0.00094631,-0.033125,-0.028029,0.066374,-0.010826,0.043693,-0.012759,0.012358,0.073616,0.006855,-0.16192,0.2535,0.14917,0.083419,-0.056116,-0.11148,-0.036417,-0.055048,-0.18449,0.1396,-0.037729
0.0060803,-0.026801,0.0035332,-0.0032923,-0.02979,-0.028056,0.070516,-0.0080115,0.056094,-0.0084936,0.0077116,0.069328,0.030049,-0.16863,0.27094,0.12098,0.091971,-0.044588,-0.12694,-0.039919,-0.055395,-0.16577,0.13972,-0.023429
0.00051658,-0.029391,0.0018487,-0.0058815,-0.030814,-0.033076,0.074725,-0.0074482,0.063797,-0.00099712,-0.0038785,0.059392,0.049428,-0.17403,0.29084,0.093263,0.10669,-0.037806,-0.13598,-0.040062,-0.04884,-0.12462,0.13044,-0.0041515
-0.0050686,-0.029995,0.0013384,-0.0080876,-0.037102,-0.041167,0.078667,-0.0079236,0.068842,0.0053842,-0.019814,0.046659,0.062093,-0.18284,0.31248,0.071702,0.12428,-0.040583,-0.13388,-0.04085,-0.036931,-0.068198,0.11651,0.017183
-0.0081302,-0.028828,0.0054494,-0.0094042,-0.04521,-0.048683,0.082311,-0.0070347,0.073741,0.0088807,-0.035842,0.032334,0.068597,-0.1916,0.33367,0.058291,0.14252,-0.050262,-0.12412,-0.045909,-0.01999,-0.0095068,0.10373,0.035172
-0.0096925,-0.027072,0.015591,-0.0093386,-0.049808,-0.052746,0.085276,-0.0038368,0.080144,0.011325,-0.048558,0.015837,0.072858,-0.18939,0.35017,0.049687,0.16131,-0.059783,-0.11568,-0.054958,0.0018131,0.035625,0.09534,0.045042
-0.012855,-0.026167,0.029169,-0.0077141,-0.047758,-0.052728,0.086438,-0.00013511,0.088182,0.015341,-0.056891,-0.0034235,0.081152,-0.16473,0.35727,0.039527,0.18162,-0.064084,-0.11563,-0.063179,0.026515,0.054183,0.090511,0.045235
-0.019153,-0.026926,0.040595,-0.0052347,-0.040507,-0.049827,0.084432,0.0010484,0.096641,0.020879,-0.062273,-0.024367,0.10063,-0.11401,0.3526,0.0233,0.20308,-0.06439,-0.1237,-0.064465,0.049909,0.042564,0.08568,0.037566
-0.026439,-0.029066,0.044809,-0.0035975,-0.032834,-0.045652,0.078881,-0.0015441,0.10359,0.024851,-0.067727,-0.044323,0.13725,-0.04578,0.33773,0.0020817,0.22241,-0.067162,-0.13295,-0.056095,0.067366,0.0097873,0.077753,0.02527
-0.030503,-0.031493,0.040757,-0.0045984,-0.029091,-0.041325,0.071211,-0.0059241,0.1071,0.024378,-0.076226,-0.060797,0.19296,0.022024,0.31706,-0.017944,0.23455,-0.079232,-0.13562,-0.040956,0.076281,-0.026414,0.066839,0.010943
-0.028985,-0.033127,0.032211,-0.0086198,-0.030108,-0.037677,0.064053,-0.0084611,0.10593,0.020372,-0.088876,-0.073288,0.2632,0.070257,0.29482,-0.030126,0.23556,-0.1034,-0.12894,-0.02546,0.076906,-0.049657,0.056554,-0.0038429
-0.023865,-0.033581,0.025457,-0.013769,-0.03317,-0.035661,0.059371,-0.0071662,0.10036,0.017606,-0.1039,-0.083534,0.33641,0.087513,0.27249,-0.03277,0.22522,-0.13756,-0.11637,-0.014996,0.070958,-0.054701,0.05157,-0.017383
-0.020017,-0.033194,0.02559,-0.016732,-0.03472,-0.035977,0.056838,-0.0035473,0.092468,0.020779,-0.11737,-0.093885,0.39705,0.075303,0.24883,-0.031231,0.20695,-0.1767,-0.10426,-0.010732,0.059661,-0.049698,0.054058,-0.026869
-0.021037,-0.032499,0.033922,-0.015025,-0.033252,-0.038102,0.054113,-0.0012372,0.085518,0.030078,-0.12555,-0.10507,0.4314,0.04693,0.22177,-0.034983,0.18532,-0.21492,-0.097276,-0.010119,0.043335,-0.048954,0.061525,-0.029196
-0.026133,-0.031754,0.047784,-0.0089534,-0.030042,-0.039978,0.049069,-0.0026602,0.08219,0.040467,-0.12731,-0.11512,0.43334,0.020575,0.18993,-0.051666,0.1632,-0.24551,-0.096145,-0.010054,0.022923,-0.061734,0.067757,-0.023296
-0.030957,-0.031041,0.062306,-0.0015779,-0.027586,-0.039287,0.042113,-0.0068575,0.082795,0.045616,-0.12474,-0.12043,0.40643,0.0099017,0.15212,-0.082228,0.14073,-0.26034,-0.09859,-0.0095477,0.001634,-0.085829,0.066432,-0.011985
-0.031636,-0.030734,0.072817,0.0034105,-0.027484,-0.035512,0.036338,-0.010464,0.084983,0.043074,-0.12126,-0.11813,0.36106,0.01723,0.10565,-0.12026,0.11671,-0.25122,-0.10156,-0.0096714,-0.015438,-0.11054,0.055125,-0.0012633
-0.028285,-0.031626,0.076735,0.0042304,-0.029597,-0.030862,0.035003,-0.01085,0.085557,0.036107,-0.11888,-0.10818,0.30858,0.033429,0.045773,-0.15563,0.090771,-0.21412,-0.10276,-0.011445,-0.02401,-0.12596,0.037037,0.0031013
-0.024799,-0.034297,0.074485,0.0019755,-0.032693,-0.028804,0.038317,-0.0084792,0.083157,0.030687,-0.11686,-0.093644,0.25647,0.04492,-0.03196,-0.17982,0.064197,-0.15351,-0.10102,-0.014141,-0.02352,-0.13075,0.019236,-0.00053315
-0.025159,-0.038186,0.069354,-0.0005494,-0.035441,-0.031135,0.042362,-0.0063592,0.079529,0.030413,-0.11288,-0.079082,0.20743,0.043329,-0.12798,-0.18982,0.038781,-0.082805,-0.096193,-0.015667,-0.017699,-0.13257,0.0084384,-0.0083405
-0.029768,-0.041446,0.066144,-0.00090502,-0.036734,-0.036099,0.041333,-0.0072153,0.078089,0.033928,-0.10561,-0.068365,0.16204,0.03112,-0.23677,-0.1886,0.014998,-0.018999,-0.089227,-0.014326,-0.01211,-0.14193,0.0069272,-0.013628
-0.035218,-0.042112,0.06878,0.0016726,-0.035477,-0.039367,0.031529,-0.010979,0.080882,0.036831,-0.096138,-0.063381,0.12173,0.019294,-0.34904,-0.18258,-0.0085355,0.025558,-0.082066,-0.01,-0.010511,-0.16534,0.011173,-0.01173
-0.037616,-0.039863,0.077802,0.0063639,-0.030745,-0.03728,0.01408,-0.014744,0.08664,0.036037,-0.087134,-0.064174,0.088962,0.019166,-0.45688,-0.17769,-0.033632,0.0486,-0.076793,-0.003708,-0.01282,-0.20261,0.013994,-0.0035182
-0.03619,-0.036742,0.089387,0.0116,-0.022704,-0.029699,-0.0055913,-0.015064,0.091804,0.032464,-0.080759,-0.069789,0.064741,0.03472,-0.55784,-0.17624,-0.060466,0.056821,-0.07431,0.0035145,-0.01598,-0.24874,0.0089434,0.0053398
-0.033692,-0.035873,0.097119,0.015728,-0.013443,-0.020093,-0.021071,-0.010595,0.093664,0.029795,-0.077337,-0.078754,0.046225,0.061103,-0.65429,-0.17596,-0.086883,0.059388,-0.07367,0.010858,-0.016658,-0.29674,-0.0058011,0.0089575
-0.033311,-0.038909,0.095935,0.017308,-0.0064462,-0.012883,-0.028693,-0.0030779,0.092697,0.030774,-0.075916,-0.088887,0.02745,0.089454,-0.7483,-0.17156,-0.10984,0.06131,-0.072845,0.01686,-0.013477,-0.33831,-0.026437,0.0060051
-0.035277,-0.044347,0.085712,0.015457,-0.0044781,-0.01035,-0.029365,0.0037861,0.091917,0.034588,-0.075768,-0.097111,0.0031721,0.11325,-0.8361,-0.15798,-0.1277,0.061528,-0.070403,0.01885,-0.0073127,-0.36324,-0.046046,0.00068995
-0.03662,-0.04833,0.071652,0.01039,-0.0073215,-0.011569,-0.027624,0.0065347,0.093843,0.037693,-0.07702,-0.10019,-0.027222,0.13094,-0.90728,-0.13344,-0.14115,0.056306,-0.0666,0.014127,-9.1076e-006,-0.36078,-0.058969,-0.0010147
-0.034374,-0.047535,0.060768,0.0036846,-0.011415,-0.013885,-0.028731,0.0037686,0.09805,0.037136,-0.079751,-0.096329,-0.059185,0.14372,-0.95037,-0.10038,-0.15212,0.04416,-0.062931,0.0023483,0.0070504,-0.32453,-0.064218,0.0032071
-0.028952,-0.041815,0.056915,-0.0022534,-0.012144,-0.015249,-0.035573,-0.0032401,0.10166,0.033249,-0.082686,-0.086361,-0.086555,0.15158,-0.96149,-0.063774,-0.16154,0.027879,-0.060649,-0.013129,0.01346,-0.25794,-0.06572,0.0096187
-0.024152,-0.034337,0.058218,-0.0053613,-0.0072644,-0.01533,-0.047097,-0.011239,0.10217,0.029277,-0.083231,-0.073345,-0.10645,0.15149,-0.94955,-0.027736,-0.16847,0.012418,-0.059669,-0.026674,0.019473,-0.17549,-0.069354,0.011274
-0.023568,-0.029087,0.059006,-0.0048929,0.001315,-0.014808,-0.059115,-0.016603,0.099769,0.028367,-0.079213,-0.060482,-0.12165,0.13877,-0.9333,0.0069271,-0.17129,0.0012762,-0.058736,-0.033782,0.025542,-0.096923,-0.078893,0.0037685
-0.026873,-0.027906,0.054671,-0.0015439,0.0090296,-0.014046,-0.067042,-0.017187,0.096607,0.030676,-0.070844,-0.049064,-0.13856,0.10955,-0.93109,0.042448,-0.1697,-0.0051525,-0.056417,-0.033632,0.032079,-0.037596,-0.093641,-0.011089
-0.0298,-0.029534,0.045439,0.003135,0.012393,-0.012617,-0.068902,-0.013546,0.093845,0.033159,-0.060911,-0.038227,-0.16236,0.062243,-0.94935,0.081263,-0.16554,-0.008279,-0.051865,-0.02864,0.039219,-0.0015068,-0.10925,-0.02693
-0.028146,-0.031276,0.036047,0.0074212,0.011903,-0.01,-0.066654,-0.0087176,0.089549,0.03219,-0.052725,-0.026719,-0.19264,-0.002405,-0.97748,0.12294,-0.16137,-0.009109,-0.044903,-0.021682,0.046399,0.018501,-0.12085,-0.038307
-0.022107,-0.031513,0.031805,0.0098676,0.011593,-0.0064264,-0.064899,-0.0064494,0.079937,0.026639,-0.047488,-0.014895,-0.22283,-0.081314,-0.99285,0.1634,-0.15807,-0.0076443,-0.035923,-0.013813,0.052142,0.034294,-0.12621,-0.044976
-0.01668,-0.030743,0.034468,0.009691,0.015486,-0.0028194,-0.067842,-0.0088413,0.063196,0.018729,-0.043463,-0.0048225,-0.2437,-0.16872,-0.97342,0.19709,-0.15379,-0.0041699,-0.026133,-0.0046547,0.054707,0.055087,-0.12669,-0.050982
-0.017392,-0.030443,0.041108,0.0072383,0.023904,9.9803e-005,-0.076617,-0.014932,0.042335,0.012029,-0.037815,0.0016985,-0.24916,-0.25684,-0.91026,0.22004,-0.14526,-0.00040514,-0.017802,0.0052391,0.053514,0.084081,-0.12581,-0.059406
-0.025047,-0.031165,0.046428,0.0041186,0.032811,0.0025235,-0.088772,-0.021274,0.024056,0.0085055,-0.029611,0.0051552,-0.24067,-0.33894,-0.81213,0.2314,-0.13034,0.0012983,-0.013606,0.012897,0.0502,0.11981,-0.12651,-0.067861
-0.034293,-0.031846,0.046226,0.0024116,0.0369,0.0052807,-0.10008,-0.024192,0.014129,0.0072428,-0.021267,0.008041,-0.22727,-0.4135,-0.69949,0.23219,-0.10958,0.00012292,-0.014889,0.014393,0.047993,0.15909,-0.12928,-0.069435
-0.037527,-0.030891,0.039397,0.0031037,0.033983,0.0088701,-0.10717,-0.022214,0.013006,0.0057745,-0.016924,0.012233,-0.22034,-0.48579,-0.59197,0.22295,-0.085633,-0.0021239,-0.020091,0.0083523,0.049447,0.19831,-0.13205,-0.058815
-0.030972,-0.027769,0.02766,0.0049349,0.027078,0.012835,-0.10919,-0.01706,0.015436,0.002505,-0.018884,0.016632,-0.22588,-0.56369,-0.49778,0.20279,-0.06152,-0.0025753,-0.025066,-0.0017533,0.054273,0.23281,-0.13185,-0.03824
-0.017813,-0.023536,0.014067,0.0049238,0.022405,0.016122,-0.10763,-0.012542,0.014449,-0.00217,-0.02509,0.017835,-0.23933,-0.64942,-0.41213,0.17093,-0.039502,-0.00030051,-0.025631,-0.0090713,0.059285,0.25683,-0.12708,-0.017554
-0.005798,-0.019883,0.0016374,0.00053936,0.024764,0.018011,-0.10487,-0.012118,0.0064636,-0.006991,-0.029975,0.013773,-0.24737,-0.73338,-0.32508,0.12923,-0.021392,0.0022711,-0.020593,-0.0079822,0.060781,0.2657,-0.119,-0.0075302
-0.0013338,-0.017814,-0.0075312,-0.0080994,0.033903,0.018651,-0.10266,-0.016664,-0.006538,-0.011864,-0.028299,0.0070014,-0.2362,-0.79596,-0.23245,0.08315,-0.0092932,0.0012036,-0.012693,0.0016385,0.057503,0.25936,-0.11146,-0.011668
-0.0048543,-0.017181,-0.013021,-0.017881,0.044675,0.018661,-0.10134,-0.023903,-0.019152,-0.018573,-0.019033,0.0041002,-0.201,-0.81696,-0.14123,0.039598,-0.0052726,-0.0053372,-0.0064974,0.013996,0.051674,0.24359,-0.10889,-0.023382
-0.010958,-0.017223,-0.016646,-0.024633,0.05085,0.018302,-0.10004,-0.029874,-0.026809,-0.029309,-0.0061786,0.010952,-0.14946,-0.78589,-0.065361,0.003139,-0.0097526,-0.01515,-0.0048645,0.021327,0.04723,0.22704,-0.11374,-0.031224
-0.012851,-0.017257,-0.021926,-0.025831,0.049604,0.017121,-0.097565,-0.031538,-0.028573,-0.044323,0.0042062,0.027699,-0.096494,-0.70512,-0.015572,-0.026662,-0.02007,-0.023698,-0.0069175,0.019297,0.046719,0.21574,-0.12488,-0.028059
-0.0073697,-0.016807,-0.031921,-0.022005,0.04327,0.0145,-0.093476,-0.028763,-0.026667,-0.060979,0.0083945,0.047946,-0.054368,-0.58436,0.0077797,-0.054439,-0.030891,-0.027909,-0.0091431,0.009802,0.04938,0.20963,-0.13814,-0.016815
0.0031955,-0.015323,-0.046524,-0.015995,0.037159,0.010518,-0.08869,-0.024281,-0.023898,-0.075234,0.0073579,0.063249,-0.026011,-0.43298,0.012758,-0.085117,-0.036616,-0.028456,-0.0085427,-0.00084927,0.051801,0.20413,-0.14873,-0.0081902
0.013412,-0.01221,-0.061579,-0.010989,0.035322,0.0061791,-0.085174,-0.021613,-0.021619,-0.084428,0.0053722,0.069235,-0.0066578,-0.25794,0.0066067,-0.1195,-0.034084,-0.028441,-0.0050896,-0.0068657,0.050457,0.19549,-0.15374,-0.012286
0.018867,-0.0073717,-0.071326,-0.0089604,0.037661,0.0026396,-0.084717,-0.022528,-0.019794,-0.089118,0.006203,0.06815,0.008635,-0.069051,-0.012137,-0.1523,-0.023619,-0.029934,-0.0015731,-0.0073131,0.044176,0.185,-0.15306,-0.030864
0.018847,-0.0016871,-0.072886,-0.010276,0.040512,0.00017299,-0.087513,-0.025985,-0.018423,-0.092508,0.010059,0.065836,0.019136,0.11566,-0.052515,-0.17379,-0.0079841,-0.031916,-0.0013067,-0.0067415,0.034866,0.17793,-0.14826,-0.056143
0.0159,0.0032798,-0.069159,-0.014095,0.039974,-0.0020118,-0.091643,-0.029317,-0.018389,-0.098019,0.013689,0.066154,0.020003,0.27226,-0.1215,-0.1742,0.0094504,-0.031667,-0.0058418,-0.01173,0.026246,0.17791,-0.14067,-0.076629
0.013301,0.0062471,-0.067257,-0.018828,0.035074,-0.004734,-0.09404,-0.030482,-0.020722,-0.10685,0.013322,0.068014,0.0097906,0.38126,-0.2143,-0.148,0.025714,-0.028094,-0.014328,-0.025765,0.021542,0.18183,-0.13033,-0.085048
0.012862,0.0070104,-0.073187,-0.022519,0.028231,-0.0075342,-0.092396,-0.029413,-0.025098,-0.11715,0.0079129,0.067491,-0.0035453,0.43686,-0.31343,-0.096145,0.038112,-0.023496,-0.024299,-0.04589,0.021642,0.18019,-0.11656,-0.082334
0.014615,0.0063581,-0.086962,-0.023506,0.022857,-0.0085567,-0.086667,-0.027459,-0.029323,-0.12511,7.8743e-005,0.062543,-0.0047052,0.44583,-0.39743,-0.025281,0.044088,-0.021782,-0.032533,-0.063432,0.024777,0.16335,-0.099359,-0.075266
0.017901,0.0053017,-0.10235,-0.021306,0.020404,-0.0061134,-0.079047,-0.025819,-0.030602,-0.12693,-0.005831,0.055492,0.019411,0.41643,-0.45168,0.054801,0.042106,-0.024715,-0.035327,-0.068577,0.027915,0.12915,-0.080344,-0.070423
0.02227,0.0044601,-0.11166,-0.01703,0.019442,-0.00071169,-0.072441,-0.024644,-0.027634,-0.12054,-0.0067273,0.050745,0.070167,0.34874,-0.47244,0.13367,0.033092,-0.029831,-0.029,-0.05621,0.028974,0.085785,-0.062362,-0.069531
0.027289,0.0041127,-0.11169,-0.012677,0.017446,0.0044628,-0.068611,-0.02355,-0.02172,-0.10644,-0.0023669,0.050043,0.13559,0.23736,-0.46248,0.20147,0.020743,-0.032272,-0.011624,-0.029389,0.028354,0.047833,-0.048235,-0.069412
0.03191,0.0045621,-0.10585,-0.0096934,0.013465,0.0055123,-0.067304,-0.02263,-0.015838,-0.087566,0.0054648,0.050072,0.1981,0.085839,-0.42473,0.24935,0.0095926,-0.029099,0.014607,0.0019025,0.028547,0.028246,-0.03953,-0.065642
0.034601,0.0060872,-0.10087,-0.0080822,0.0090977,0.00091778,-0.066866,-0.022588,-0.012423,-0.068324,0.01496,0.045058,0.24516,-0.081174,-0.36126,0.27044,0.0018558,-0.022226,0.04271,0.026198,0.031921,0.03197,-0.035999,-0.056256
0.034488,0.0083851,-0.10108,-0.0069905,0.0068252,-0.0068774,-0.065683,-0.023811,-0.011642,-0.052955,0.025389,0.032247,0.27442,-0.22197,-0.27783,0.26237,-0.004335,-0.017119,0.063761,0.03668,0.038276,0.054827,-0.035777,-0.042516
0.032364,0.010258,-0.10518,-0.0061921,0.0072947,-0.013001,-0.063353,-0.02558,-0.011528,-0.043707,0.036429,0.015264,0.29028,-0.29847,-0.18722,0.22988,-0.013431,-0.018081,0.072214,0.033938,0.044225,0.08707,-0.036151,-0.026823
0.030275,0.010284,-0.10803,-0.0068416,0.0082587,-0.013773,-0.060847,-0.026575,-0.0097368,-0.039764,0.046856,0.0020974,0.29678,-0.29806,-0.10533,0.18495,-0.028585,-0.024061,0.069847,0.023775,0.045199,0.11807,-0.034661,-0.010401
0.029802,0.0081374,-0.1055,-0.0105,0.0063814,-0.0094551,-0.059757,-0.026294,-0.0053722,-0.037799,0.05444,-0.00084189,0.29483,-0.23873,-0.041928,0.14267,-0.048533,-0.028738,0.064765,0.012277,0.038731,0.13904,-0.030202,0.0068804
0.030631,0.0052158,-0.098022,-0.017251,0.00039156,-0.0038277,-0.061256,-0.025758,0.00070954,-0.034133,0.057535,0.0063331,0.28629,-0.15369,0.0050111,0.11419,-0.067967,-0.025102,0.065593,0.0022688,0.026394,0.14322,-0.023507,0.024659
0.030907,0.0036347,-0.089821,-0.024889,-0.0073865,-0.0010334,-0.065336,-0.026455,0.0073522,-0.027232,0.056831,0.017135,0.27974,-0.068934,0.044942,0.10087,-0.081201,-0.010857,0.075056,-0.006419,0.012728,0.12509,-0.016554,0.040518
0.029103,0.0042603,-0.085096,-0.030296,-0.012744,-0.0024636,-0.070548,-0.028409,0.014966,-0.01876,0.055326,0.023805,0.28923,0.0074173,0.083602,0.093645,-0.086094,0.0099139,0.088001,-0.014161,0.0019541,0.080347,-0.011154,0.050738
0.025617,0.0057343,-0.084781,-0.032002,-0.013178,-0.0062795,-0.074275,-0.029479,0.025931,-0.012353,0.056222,0.023197,0.32378,0.077115,0.11591,0.07793,-0.085128,0.030313,0.095547,-0.019627,-0.0048012,0.0068929,-0.0077879,0.052954
0.022475,0.005741,-0.086648,-0.031567,-0.010156,-0.0096488,-0.073579,-0.026976,0.04274,-0.010941,0.060544,0.018798,0.37608,0.13585,0.13056,0.040787,-0.083081,0.046339,0.092157,-0.020751,-0.0095512,-0.093904,-0.0056564,0.04824
0.021444,0.0035347,-0.088111,-0.03236,-0.0079674,-0.011372,-0.066589,-0.020338,0.065063,-0.014637,0.066683,0.017488,0.42251,0.16677,0.12274,-0.024375,-0.083641,0.059643,0.080116,-0.017208,-0.015002,-0.21641,-0.0038426,0.040451
0.02244,0.0011701,-0.088636,-0.036655,-0.010133,-0.012496,-0.053906,-0.012289,0.08815,-0.020692,0.072218,0.023893,0.43851,0.15135,0.10267,-0.11754,-0.087725,0.074758,0.068004,-0.011331,-0.022052,-0.35072,-0.0024026,0.033165
0.023801,0.0018536,-0.089436,-0.043599,-0.01656,-0.014654,-0.039054,-0.0070955,0.1044,-0.025435,0.076178,0.036827,0.41845,0.088485,0.091065,-0.23438,-0.094251,0.093257,0.064476,-0.0061712,-0.029469,-0.4835,-0.0023103,0.026899
0.024059,0.0066879,-0.091122,-0.049879,-0.023804,-0.018052,-0.027163,-0.0072669,0.10757,-0.026584,0.079554,0.050365,0.38257,0.004128,0.10437,-0.36772,-0.10183,0.11034,0.072128,-0.0026662,-0.035683,-0.59961,-0.0044022,0.019084
0.02332,0.013003,-0.092094,-0.052503,-0.027966,-0.021102,-0.02218,-0.011559,0.096743,-0.024288,0.083609,0.058187,0.36221,-0.059147,0.14264,-0.50676,-0.10955,0.11741,0.085907,0.0008855,-0.040535,-0.68469,-0.0085008,0.0068743
0.022862,0.016267,-0.08961,-0.051251,-0.02747,-0.021895,-0.024297,-0.016047,0.077144,-0.020419,0.087738,0.057452,0.37399,-0.067148,0.19068,-0.636,-0.11652,0.10882,0.096859,0.0062152,-0.045079,-0.72769,-0.013594,-0.0096637
0.023479,0.014119,-0.082549,-0.048681,-0.023459,-0.019861,-0.029599,-0.017252,0.056869,-0.017006,0.089097,0.049316,0.40464,-0.016108,0.23122,-0.73734,-0.12137,0.086982,0.098212,0.012062,-0.049763,-0.7228,-0.018678,-0.026722
0.024446,0.0087749,-0.073007,-0.047814,-0.017969,-0.015998,-0.032589,-0.014562,0.04192,-0.015041,0.084576,0.036451,0.42098,0.063864,0.25831,-0.79571,-0.12272,0.061136,0.08952,0.014345,-0.05316,-0.67008,-0.02313,-0.038972
0.024253,0.0053131,-0.064927,-0.049595,-0.012004,-0.011611,-0.03001,-0.010085,0.033145,-0.014307,0.073528,0.020381,0.39774,0.12619,0.27969,-0.80503,-0.12003,0.040699,0.076471,0.010107,-0.052954,-0.57572,-0.026195,-0.043015
0.022265,0.0072252,-0.060911,-0.052295,-0.0053236,-0.0070501,-0.023119,-0.006474,0.027075,-0.013941,0.058905,0.0011822,0.33987,0.13392,0.30726,-0.76986,-0.11384,0.028763,0.067075,0.0016393,-0.048496,-0.45241,-0.026464,-0.039461
0.019443,0.01329,-0.06019,-0.053183,0.0022865,-0.0017823,-0.016526,-0.0049362,0.019441,-0.013151,0.045743,-0.020544,0.27954,0.077514,0.34505,-0.70143,-0.10505,0.021208,0.067,-0.0036693,-0.042466,-0.31924,-0.022542,-0.032425
0.017283,0.018665,-0.059608,-0.050889,0.0099261,0.0043075,-0.01439,-0.0050044,0.0082522,-0.011665,0.038042,-0.041769,0.24979,-0.025446,0.38546,-0.61131,-0.094293,0.011794,0.076666,0.0014065,-0.039748,-0.19931,-0.014727,-0.027245
0.016163,0.019165,-0.056576,-0.046434,0.015928,0.0098379,-0.016994,-0.0057597,-0.0057649,-0.0098516,0.03635,-0.057438,0.25642,-0.14483,0.41579,-0.50829,-0.082297,-0.0016569,0.091218,0.017761,-0.044114,-0.11387,-0.0060163,-0.028169
0.015002,0.014775,-0.051219,-0.04225,0.019201,0.012384,-0.020479,-0.0069132,-0.020846,-0.0085309,0.037745,-0.063111,0.27134,-0.25391,0.4284,-0.40063,-0.070815,-0.015492,0.10296,0.038484,-0.055351,-0.075021,-0.00080072,-0.03704
0.012735,0.0093376,-0.045943,-0.040216,0.020091,0.010324,-0.019934,-0.0086597,-0.035767,-0.0085267,0.038144,-0.057759,0.2524,-0.33533,0.42538,-0.30046,-0.062599,-0.024035,0.105,0.053765,-0.069201,-0.081529,-0.0016875,-0.052887
0.0099602,0.0069954,-0.043186,-0.040331,0.019876,0.0045219,-0.013284,-0.0107,-0.049889,-0.010091,0.035195,-0.044568,0.17357,-0.37645,0.41489,-0.22424,-0.059736,-0.024982,0.094613,0.058092,-0.080173,-0.12146,-0.0069594,-0.071933
0.0087343,0.0087888,-0.043564,-0.040903,0.019485,-0.001814,-0.0028408,-0.011721,-0.062354,-0.012546,0.029769,-0.029424,0.04227,-0.36291,0.40358,-0.18651,-0.061638,-0.021277,0.0747,0.053526,-0.08504,-0.18072,-0.011149,-0.088151
0.010341,0.012304,-0.045778,-0.03983,0.018778,-0.0052604,0.0065855,-0.010113,-0.072108,-0.014447,0.025152,-0.018387,-0.10762,-0.28047,0.39205,-0.19046,-0.064902,-0.017968,0.0524,0.046452,-0.084425,-0.25149,-0.008746,-0.094964
0.01324,0.014212,-0.047755,-0.035922,0.017033,-0.0047185,0.011265,-0.0053893,-0.079149,-0.014213,0.024679,-0.015679,-0.23905,-0.12537,0.37656,-0.22316,-0.065688,-0.017399,0.035121,0.041299,-0.081575,-0.33396,0.001671,-0.088102
0.013641,0.013064,-0.047682,-0.029472,0.01403,-0.0022164,0.010953,0.0010004,-0.085506,-0.010772,0.029475,-0.022692,-0.33255,0.086528,0.35399,-0.26066,-0.062687,-0.017394,0.026272,0.037271,-0.079569,-0.42965,0.016147,-0.068337
0.0087527,0.0099725,-0.04436,-0.02197,0.010543,-0.0011821,0.0085315,0.0063655,-0.09423,-0.0037762,0.037649,-0.037756,-0.39038,0.32195,0.32529,-0.28089,-0.057863,-0.014002,0.023606,0.030905,-0.079167,-0.53144,0.027972,-0.042116
-4.267e-005,0.0070887,-0.037458,-0.015341,0.0077596,-0.0035706,0.0076139,0.0086089,-0.10667,0.0066764,0.045219,-0.056475,-0.42448,0.54408,0.29446,-0.27587,-0.054201,-0.0059191,0.021663,0.021423,-0.078725,-0.61867,0.032265,-0.01901
-0.0073245,0.0057307,-0.028055,-0.011122,0.0062206,-0.0083184,0.010232,0.0078323,-0.12049,0.020465,0.047995,-0.07292,-0.44098,0.7268,0.26496,-0.25472,-0.052708,0.0037835,0.01662,0.013138,-0.075848,-0.66208,0.029214,-0.0070172
-0.0076024,0.00585,-0.018818,-0.009855,0.0053534,-0.012478,0.016148,0.0064369,-0.13069,0.037622,0.043428,-0.081771,-0.43414,0.85746,0.23712,-0.23574,-0.051729,0.010292,0.0096833,0.012249,-0.069232,-0.63588,0.023848,-0.0084474
-9.2073e-005,0.0068706,-0.012821,-0.010904,0.0040803,-0.01395,0.023791,0.0075643,-0.13343,0.058222,0.031743,-0.080642,-0.39345,0.92815,0.20864,-0.23343,-0.049259,0.011478,0.0060671,0.020971,-0.059279,-0.52891,0.022811,-0.019002
0.0098977,0.008628,-0.011288,-0.012761,0.001944,-0.01324,0.03168,0.012969,-0.12962,0.082212,0.016053,-0.071248,-0.31662,0.92696,0.17759,-0.24916,-0.045742,0.0099044,0.010231,0.03463,-0.047247,-0.3483,0.030455,-0.030645
0.014625,0.01135,-0.012207,-0.013769,-0.00031693,-0.012569,0.039193,0.021828,-0.12511,0.10929,0.0013141,-0.058573,-0.21722,0.84131,0.14507,-0.27078,-0.04424,0.010526,0.02134,0.044553,-0.033963,-0.11515,0.046654,-0.036365
0.010013,0.014874,-0.011641,-0.012933,-0.0013537,-0.013283,0.046429,0.031292,-0.12709,0.13865,-0.0077732,-0.048554,-0.12102,0.67195,0.11562,-0.27981,-0.047493,0.01625,0.032893,0.044199,-0.019362,0.14235,0.067249,-0.033735
-0.0007523,0.018147,-0.0071341,-0.01038,-0.00051558,-0.014183,0.053656,0.038328,-0.13916,0.16851,-0.0091973,-0.045658,-0.053902,0.44392,0.095146,-0.26074,-0.054714,0.025451,0.036999,0.033186,-0.0032875,0.39284,0.086403,-0.025213
-0.0093189,0.019703,-0.00021329,-0.0072063,0.0012959,-0.012568,0.060963,0.041565,-0.15871,0.1956,-0.0049905,-0.051478,-0.030102,0.20096,0.088017,-0.20776,-0.061467,0.033587,0.029908,0.016143,0.013296,0.60282,0.099313,-0.015451
-0.0085406,0.018752,0.0047403,-0.0048052,0.00213,-0.0070469,0.06827,0.041918,-0.17835,0.21536,-0.00023033,-0.064493,-0.048472,-0.015211,0.095002,-0.12684,-0.063085,0.037226,0.014511,-0.0018552,0.02797,0.73944,0.10396,-0.0078852
0.0018694,0.015868,0.0046756,-0.0040691,0.0005873,0.0006455,0.075359,0.041652,-0.19034,0.22338,0.00017007,-0.080601,-0.097916,-0.18552,0.1129,-0.033685,-0.058682,0.036709,-0.0018748,-0.01885,0.037979,0.77933,0.10141,-0.0029027
0.014975,0.012647,0.0013046,-0.0049573,-0.002847,0.006774,0.081609,0.042573,-0.19083,0.21759,-0.0051379,-0.094292,-0.16671,-0.31769,0.13582,0.051594,-0.05216,0.035221,-0.012391,-0.03585,0.041989,0.72054,0.095037,0.001601
0.021861,0.010627,0.00023047,-0.0066316,-0.0060602,0.0087418,0.085661,0.044613,-0.18148,0.19974,-0.012995,-0.10065,-0.24843,-0.43151,0.15735,0.11162,-0.049337,0.035522,-0.01451,-0.054269,0.041,0.58916,0.08904,0.0083019
0.018273,0.010415,0.0061265,-0.0079619,-0.0071365,0.007324,0.08572,0.045837,-0.16788,0.17504,-0.01827,-0.097703,-0.34068,-0.53806,0.17282,0.13839,-0.053738,0.037653,-0.01061,-0.074236,0.037586,0.43252,0.086807,0.018799
0.0074309,0.011644,0.018239,-0.0079767,-0.0061722,0.0058598,0.080847,0.04395,-0.15603,0.14966,-0.018035,-0.087751,-0.43901,-0.62897,0.18069,0.13595,-0.064461,0.039618,-0.0056276,-0.095355,0.034135,0.29996,0.089439,0.033196
-0.0029651,0.013653,0.030476,-0.0059892,-0.0052907,0.0071387,0.072476,0.038294,-0.14927,0.12787,-0.013964,-0.075935,-0.53198,-0.68147,0.18258,0.11689,-0.077431,0.039995,-0.0038837,-0.11826,0.031606,0.22149,0.095062,0.05078
-0.00677,0.016184,0.036195,-0.0015333,-0.0066324,0.010895,0.064513,0.03077,-0.14731,0.11071,-0.010841,-0.066449,-0.60262,-0.67148,0.18199,0.09464,-0.088395,0.039636,-0.0069389,-0.14416,0.029739,0.19742,0.099607,0.071069
-0.0035407,0.019442,0.033491,0.0055404,-0.010102,0.014233,0.061097,0.024821,-0.14753,0.09725,-0.01241,-0.058987,-0.63614,-0.583,0.1826,0.076898,-0.095081,0.040802,-0.013151,-0.17198,0.028203,0.20485,0.099136,0.094495
0.0021542,0.023527,0.026405,0.014672,-0.013116,0.01453,0.063238,0.023083,-0.14728,0.087179,-0.018188,-0.048718,-0.62854,-0.40909,0.18706,0.064813,-0.09735,0.044793,-0.018669,-0.19576,0.027292,0.21529,0.092602,0.12219
0.0050489,0.02778,0.021346,0.024257,-0.012847,0.012061,0.067255,0.025509,-0.14548,0.082394,-0.024039,-0.030541,-0.58939,-0.15024,0.19663,0.057405,-0.096224,0.050549,-0.0193,-0.20566,0.027433,0.21135,0.083023,0.15467
0.0032399,0.030729,0.022203,0.031943,-0.0090467,0.0098917,0.067126,0.029531,-0.1426,0.085997,-0.025929,-0.0044757,-0.5358,0.18216,0.21126,0.055885,-0.093234,0.05554,-0.012585,-0.19305,0.028116,0.19264,0.075759,0.19002
-0.0010692,0.030839,0.028276,0.035736,-0.0048034,0.011118,0.059505,0.032169,-0.13947,0.099349,-0.023463,0.02256,-0.48103,0.55736,0.22941,0.062798,-0.090435,0.057927,0.00077221,-0.15627,0.027557,0.17016,0.074627,0.22275
-0.004059,0.027617,0.036073,0.035339,-0.0043776,0.015933,0.047295,0.032277,-0.13621,0.11965,-0.020088,0.040776,-0.42565,0.92193,0.24777,0.076625,-0.090242,0.057807,0.016929,-0.10279,0.023674,0.1561,0.07863,0.24505
-0.0034554,0.022247,0.042542,0.032678,-0.0099097,0.021129,0.038197,0.031013,-0.13212,0.14023,-0.019916,0.04463,-0.35777,1.2115,0.26205,0.088117,-0.094411,0.056543,0.030585,-0.046135,0.015575,0.15683,0.082081,0.25038
0.00015815,0.017201,0.046769,0.030962,-0.019802,0.022483,0.038777,0.030254,-0.12652,0.15375,-0.024114,0.037342,-0.26276,1.376,0.26935,0.084107,-0.10276,0.055141,0.037516,0.00045531,0.0041902,0.17202,0.078461,0.23757
0.004379,0.014979,0.049391,0.032699,-0.030023,0.018052,0.048831,0.030567,-0.11937,0.15603,-0.02998,0.028941,-0.13595,1.4023,0.27103,0.057741,-0.113,0.05344,0.036602,0.029377,-0.0085125,0.19727,0.065327,0.21228
0.0069766,0.016733,0.051282,0.038015,-0.036988,0.0097547,0.060956,0.030697,-0.11116,0.14808,-0.033317,0.029182,0.010476,1.3163,0.2734,0.017037,-0.12237,0.050778,0.030259,0.040228,-0.020929,0.22649,0.046468,0.18445
0.0071362,0.02158,0.053112,0.044555,-0.039548,0.0021041,0.065975,0.028966,-0.10237,0.1348,-0.031902,0.040867,0.15121,1.1613,0.28447,-0.016412,-0.12982,0.047185,0.023117,0.037622,-0.032534,0.25321,0.029491,0.16306
0.0053438,0.027008,0.055743,0.049139,-0.038757,-0.00079955,0.05977,0.025095,-0.093434,0.1216,-0.027147,0.058609,0.25984,0.96811,0.30835,-0.019372,-0.13685,0.043763,0.019649,0.027512,-0.043345,0.2728,0.020606,0.15186
0.0025083,0.030161,0.060265,0.049992,-0.036293,0.0022575,0.045989,0.020647,-0.085361,0.11105,-0.022828,0.073497,0.32127,0.74149,0.34167,0.018486,-0.14578,0.041959,0.021911,0.014454,-0.052789,0.28639,0.020553,0.14894
-0.00071862,0.029383,0.067084,0.047863,-0.033328,0.0093059,0.03277,0.017678,-0.080385,0.10161,-0.022121,0.079444,0.33703,0.47361,0.37541,0.087918,-0.15663,0.042645,0.028508,0.00082326,-0.05921,0.30366,0.024651,0.14974
-0.0039492,0.025264,0.074985,0.045209,-0.030686,0.016992,0.026676,0.016939,-0.081277,0.08902,-0.025293,0.076226,0.32157,0.17251,0.40161,0.16589,-0.16521,0.045887,0.035439,-0.012556,-0.060648,0.33942,0.026664,0.15037
-0.0066285,0.020507,0.081475,0.044145,-0.029407,0.02296,0.028824,0.017254,-0.089277,0.069121,-0.029625,0.067629,0.2929,-0.12099,0.41928,0.22917,-0.16436,0.0513,0.038592,-0.025493,-0.056426,0.40322,0.02323,0.14864
-0.0077612,0.018463,0.084534,0.044836,-0.030443,0.027108,0.0355,0.016485,-0.10205,0.040292,-0.031391,0.057367,0.264,-0.34509,0.43447,0.26608,-0.14816,0.058198,0.03651,-0.037897,-0.048355,0.48794,0.015487,0.14253
-0.0062346,0.021022,0.084278,0.045594,-0.033418,0.031002,0.04157,0.013084,-0.11368,0.0039819,-0.028404,0.046715,0.23881,-0.45115,0.45406,0.2793,-0.11639,0.065213,0.031572,-0.04949,-0.040462,0.56732,0.0070433,0.12886
-0.0016545,0.027215,0.082899,0.044491,-0.035908,0.036109,0.043391,0.0069749,-0.11744,-0.036639,-0.021356,0.035414,0.21361,-0.434,0.4788,0.27996,-0.076001,0.070115,0.028505,-0.059377,-0.037061,0.60784,0.00044283,0.10454
0.0049099,0.033685,0.08274,0.041036,-0.034621,0.042278,0.039611,-0.0006387,-0.10974,-0.078547,-0.013116,0.02395,0.18161,-0.33467,0.50191,0.279,-0.037873,0.070707,0.031061,-0.065535,-0.040098,0.5892,-0.0047607,0.070046
0.011006,0.03693,0.084159,0.036509,-0.027994,0.047659,0.030726,-0.008023,-0.092355,-0.11965,-0.0065288,0.014313,0.138,-0.21293,0.5147,0.28241,-0.01066,0.066536,0.039274,-0.064937,-0.047452,0.5195,-0.010914,0.031774
0.013959,0.035714,0.085137,0.032809,-0.017946,0.050154,0.018739,-0.013593,-0.071203,-0.15815,-0.00232,0.0084147,0.083377,-0.11009,0.51446,0.29199,0.0043187,0.059923,0.049428,-0.054934,-0.053612,0.43283,-0.019479,0.00017301
0.012514,0.031763,0.083074,0.030933,-0.0088404,0.049346,0.0069203,-0.016395,-0.052367,-0.19178,0.0013128,0.0062152,0.024086,-0.029094,0.50741,0.30871,0.013287,0.054918,0.056825,-0.035475,-0.052735,0.3696,-0.029199,-0.016113
0.0078086,0.028153,0.077254,0.030437,-0.0041674,0.047399,-0.0013601,-0.016541,-0.038445,-0.21867,0.0070907,0.0059746,-0.030512,0.055691,0.50418,0.33425,0.024879,0.054484,0.059162,-0.010578,-0.042316,0.35256,-0.036748,-0.015926
0.0027984,0.026756,0.069892,0.030159,-0.0037577,0.048067,-0.0047748,-0.015507,-0.027842,-0.23983,0.016298,0.0066698,-0.072582,0.16859,0.51172,0.36879,0.043361,0.05803,0.057901,0.012564,-0.024879,0.3748,-0.039093,-0.0063486
0.00036205,0.026903,0.064871,0.02937,-0.0041232,0.054284,-0.0054851,-0.015855,-0.017238,-0.26113,0.027598,0.0099397,-0.099654,0.30601,0.52829,0.4078,0.065462,0.061484,0.056714,0.026846,-0.0063424,0.4068,-0.035398,0.0024975
0.0014167,0.026327,0.065199,0.028254,-0.0017165,0.066008,-0.0080035,-0.020092,-0.0049465,-0.29191,0.037992,0.019033,-0.11565,0.43214,0.54555,0.44182,0.08337,0.060227,0.058422,0.028907,0.0077569,0.41561,-0.027025,0.004629
0.0044777,0.023436,0.071157,0.027428,0.0038359,0.079992,-0.01572,-0.029086,0.007644,-0.33956,0.045071,0.035216,-0.12872,0.49887,0.55536,0.46109,0.091452,0.052788,0.062884,0.020512,0.015236,0.3819,-0.016106,0.0015251
0.0070119,0.018857,0.080359,0.027143,0.009492,0.091821,-0.027788,-0.040969,0.01755,-0.40326,0.048647,0.054982,-0.14743,0.47526,0.55543,0.46234,0.091062,0.042444,0.067253,0.0066439,0.01712,0.30528,-0.0043003,-0.00096848
0.0074698,0.01496,0.089342,0.026961,0.01171,0.098774,-0.039205,-0.051399,0.023162,-0.47155,0.050471,0.071113,-0.17759,0.36617,0.54969,0.45217,0.089429,0.035273,0.068084,-0.008121,0.014821,0.19842,0.007205,0.00085273
0.0063208,0.013927,0.095298,0.026119,0.0097649,0.10132,-0.044318,-0.055287,0.026183,-0.52675,0.052487,0.077168,-0.22064,0.20851,0.54391,0.44322,0.093707,0.035948,0.063551,-0.021973,0.0074741,0.078219,0.016976,0.0045308
0.0053169,0.016112,0.096842,0.02413,0.0064322,0.10206,-0.040952,-0.049252,0.03098,-0.55391,0.055303,0.0717,-0.27363,0.04891,0.54086,0.44478,0.10542,0.044273,0.05432,-0.035209,-0.007863,-0.039584,0.023173,0.0033956
0.0057799,0.019997,0.093786,0.021147,0.0055554,0.10318,-0.031785,-0.033556,0.041794,-0.54866,0.058129,0.058588,-0.33007,-0.081194,0.53881,0.45426,0.11999,0.055012,0.042858,-0.047504,-0.033038,-0.14166,0.024515,-0.0074781
0.0075082,0.023561,0.086651,0.017966,0.0088385,0.1045,-0.021924,-0.012396,0.059776,-0.51858,0.059979,0.043421,-0.3816,-0.17642,0.53358,0.45645,0.13146,0.061163,0.032,-0.055855,-0.06531,-0.21759,0.021558,-0.026725
0.0091954,0.025701,0.076493,0.015773,0.014694,0.104,-0.014781,0.0078404,0.081876,-0.47753,0.060762,0.029368,-0.42072,-0.24914,0.52167,0.43191,0.13798,0.058364,0.023762,-0.05522,-0.096725,-0.26161,0.016947,-0.047428
0.009764,0.026582,0.064945,0.015677,0.019889,0.099954,-0.0095729,0.021665,0.10237,-0.43721,0.061175,0.016127,-0.44375,-0.31093,0.50184,0.36893,0.14334,0.047341,0.018874,-0.041464,-0.11745,-0.2738,0.014159,-0.062183
0.0092372,0.026875,0.053991,0.018036,0.022245,0.092916,-0.0022076,0.027212,0.11619,-0.40236,0.061575,0.0022986,-0.45259,-0.35986,0.47461,0.27065,0.15344,0.03278,0.016964,-0.014313,-0.12111,-0.25862,0.015599,-0.067992
0.0084133,0.026832,0.045297,0.021877,0.022028,0.085659,0.011428,0.026879,0.12192,-0.37211,0.060986,-0.011808,-0.45344,-0.38302,0.44096,0.15233,0.17113,0.019691,0.017055,0.021742,-0.1087,-0.22102,0.02147,-0.067244
0.0079149,0.026118,0.039473,0.025055,0.021149,0.081563,0.032431,0.025356,0.1227,-0.34522,0.057311,-0.024036,-0.45278,-0.37023,0.40188,0.031748,0.1939,0.010039,0.018085,0.058936,-0.088328,-0.16354,0.030106,-0.064877
0.0077394,0.024459,0.035904,0.025503,0.021301,0.083109,0.058145,0.026355,0.12402,-0.32357,0.048768,-0.032921,-0.45272,-0.32531,0.35882,-0.079223,0.21611,0.0020284,0.019263,0.088967,-0.070899,-0.086552,0.039289,-0.064829
0.0077107,0.022379,0.033314,0.022908,0.022762,0.091729,0.083775,0.030351,0.12979,-0.3102,0.035521,-0.03987,-0.44897,-0.26428,0.31439,-0.17532,0.23354,-0.0077283,0.020181,0.10564,-0.064336,0.0090392,0.047429,-0.068641
0.0081258,0.021187,0.030637,0.019397,0.024674,0.1085,0.1047,0.034842,0.13905,-0.30366,0.020264,-0.048256,-0.43292,-0.20274,0.27259,-0.25149,0.24632,-0.021159,0.020723,0.10665,-0.069812,0.11972,0.053826,-0.076297
0.0096853,0.022106,0.027536,0.018222,0.026177,0.13413,0.11779,0.036647,0.14565,-0.29408,0.0071123,-0.059925,-0.39701,-0.14492,0.23825,-0.29665,0.25804,-0.037238,0.020881,0.094157,-0.082212,0.23918,0.058106,-0.087445
0.012695,0.02522,0.024284,0.021152,0.027187,0.16753,0.1215,0.034247,0.14141,-0.26607,-0.00068254,-0.07262,-0.33987,-0.084993,0.21579,-0.29538,0.27234,-0.052981,0.020599,0.073757,-0.094217,0.35822,0.05962,-0.10153
0.016464,0.029186,0.021259,0.026671,0.028201,0.20436,0.11547,0.02849,0.12096,-0.20779,-0.002838,-0.081166,-0.26823,-0.019311,0.20715,-0.23838,0.28977,-0.06577,0.019684,0.052047,-0.10099,0.46282,0.057543,-0.11733
0.019685,0.03204,0.018556,0.030791,0.029521,0.2375,0.10088,0.021554,0.085437,-0.11969,-0.0024858,-0.08164,-0.19433,0.042762,0.20984,-0.13471,0.30752,-0.074926,0.017799,0.033819,-0.10221,0.53168,0.051757,-0.13308
0.02153,0.032505,0.015978,0.030138,0.030802,0.26006,0.081177,0.01544,0.042587,-0.015825,-0.0043555,-0.074584,-0.13062,0.080955,0.21649,-0.0152,0.32165,-0.081452,0.014661,0.020683,-0.10031,0.53905,0.043736,-0.14766
0.022371,0.030794,0.013291,0.024848,0.031436,0.26907,0.061844,0.011135,0.0029842,0.084292,-0.011581,-0.064046,-0.084831,0.078608,0.21744,0.078221,0.32995,-0.086597,0.010475,0.012039,-0.096823,0.4662,0.036346,-0.16134
0.023389,0.028302,0.010485,0.018709,0.031482,0.26683,0.04841,0.0086113,-0.025459,0.16751,-0.023166,-0.053248,-0.058095,0.03734,0.20568,0.11259,0.33301,-0.090781,0.0063436,0.0073029,-0.090096,0.31761,0.032164,-0.17511
0.025485,0.026539,0.0078576,0.016236,0.032252,0.25884,0.043456,0.007113,-0.041498,0.2335,-0.034038,-0.041158,-0.046558,-0.021173,0.18125,0.081402,0.33287,-0.093744,0.0041291,0.0071004,-0.076454,0.12976,0.031303,-0.18893
0.028546,0.026206,0.0059079,0.019031,0.035878,0.24978,0.044913,0.0054424,-0.050513,0.29075,-0.037984,-0.023667,-0.044693,-0.068505,0.15125,0.0080603,0.33075,-0.095391,0.0054503,0.01218,-0.053784,-0.03845,0.030618,-0.20093
0.031718,0.02705,0.0050871,0.024524,0.044008,0.24086,0.047363,0.0024427,-0.060199,0.34577,-0.031728,0.0013264,-0.047929,-0.087458,0.12462,-0.067639,0.32569,-0.096216,0.010281,0.02127,-0.024468,-0.13206,0.025552,-0.20876
0.034266,0.028365,0.0054898,0.028174,0.056561,0.23033,0.045744,-0.0022536,-0.0745,0.39456,-0.017365,0.029686,-0.053381,-0.080998,0.10503,-0.11171,0.31571,-0.09682,0.016335,0.03048,0.0049726,-0.12744,0.013821,-0.21202
0.036064,0.029512,0.0066319,0.027275,0.071547,0.2163,0.038751,-0.0077715,-0.08979,0.42371,-0.0013466,0.052222,-0.059207,-0.066428,0.087704,-0.11324,0.30035,-0.097098,0.020173,0.035481,0.027495,-0.041011,-0.001789,-0.21335
0.037297,0.030058,0.0075291,0.02314,0.086159,0.19902,0.029341,-0.012532,-0.096235,0.4202,0.0094228,0.061244,-0.063979,-0.060925,0.063255,-0.08633,0.28218,-0.096027,0.019623,0.034769,0.03977,0.087221,-0.014088,-0.21664
0.037835,0.029669,0.0071688,0.019846,0.098344,0.18078,0.022117,-0.015614,-0.083896,0.38213,0.011831,0.057382,-0.066788,-0.070249,0.025921,-0.056803,0.26561,-0.092295,0.015777,0.030868,0.043917,0.22206,-0.015754,-0.22392
0.037122,0.02814,0.0051835,0.020694,0.10774,0.16395,0.019814,-0.017701,-0.049654,0.32217,0.0083256,0.050726,-0.067523,-0.088136,-0.020674,-0.043192,0.25342,-0.085205,0.012706,0.028032,0.045488,0.3504,-0.0043882,-0.23362
0.034841,0.025603,0.0022797,0.025404,0.11544,0.1493,0.021622,-0.020488,-1.5027e-005,0.26166,0.0050858,0.054649,-0.06633,-0.10448,-0.065444,-0.044925,0.24404,-0.075144,0.014659,0.02828,0.049242,0.47477,0.015389,-0.24207
0.031672,0.02258,3.4654e-005,0.03036,0.12305,0.13618,0.024271,-0.024818,0.052428,0.2203,0.0078696,0.076659,-0.062195,-0.1139,-0.098228,-0.044697,0.23226,-0.063412,0.022602,0.029315,0.055807,0.59204,0.034476,-0.2466
0.029222,0.0196,5.0989e-005,0.031581,0.13176,0.124,0.024536,-0.029314,0.096511,0.20822,0.018322,0.1132,-0.052032,-0.11745,-0.11764,-0.022158,0.21325,-0.051729,0.032772,0.026285,0.06161,0.67972,0.044633,-0.24732
0.028916,0.016695,0.002923,0.027909,0.14187,0.11299,0.021074,-0.03105,0.12863,0.22431,0.033166,0.15222,-0.031855,-0.11709,-0.13163,0.031203,0.18663,-0.041739,0.038654,0.015946,0.062016,0.70479,0.04282,-0.2461
0.030713,0.013413,0.0076679,0.021875,0.15258,0.10353,0.014563,-0.027957,0.15318,0.25955,0.046729,0.18141,-6.9045e-005,-0.10885,-0.15029,0.10595,0.15715,-0.034561,0.035262,-0.00025011,0.055257,0.64853,0.031837,-0.24404
0.032861,0.0095721,0.012067,0.017716,0.16177,0.094663,0.0066731,-0.020851,0.17753,0.30212,0.054941,0.19561,0.039388,-0.081609,-0.17745,0.18049,0.13112,-0.030398,0.02275,-0.016603,0.044196,0.52524,0.017573,-0.24043
0.033098,0.00607,0.013824,0.018209,0.16657,0.083996,-0.00094456,-0.013078,0.20569,0.3416,0.057924,0.19841,0.077041,-0.023364,-0.20837,0.23367,0.11176,-0.028391,0.0067421,-0.026637,0.034612,0.37707,0.0054463,-0.23409
0.030366,0.0047275,0.01191,0.022689,0.16467,0.069317,-0.0070721,-0.0078644,0.23567,0.37146,0.059318,0.19755,0.10214,0.06925,-0.23527,0.25552,0.097339,-0.027019,-0.0050025,-0.026916,0.031333,0.2481,-0.0015828,-0.22541
0.025556,0.0068811,0.0072492,0.027562,0.15624,0.050604,-0.010968,-0.0055899,0.26217,0.38969,0.062963,0.19851,0.10892,0.18522,-0.25518,0.25,0.083327,-0.024906,-0.0073706,-0.018631,0.035109,0.15862,-0.0030254,-0.21619
0.020587,0.0118,0.0022639,0.028792,0.14449,0.030127,-0.012505,-0.0033956,0.28165,0.39751,0.069584,0.20112,0.10034,0.30135,-0.27284,0.22961,0.066493,-0.021513,-0.00087594,-0.0063581,0.042444,0.099123,-3.1406e-005,-0.20677
0.016687,0.016507,-0.00050502,0.024583,0.13385,0.010125,-0.012405,0.0025229,0.29549,0.39642,0.076095,0.20087,0.086265,0.39118,-0.29617,0.20695,0.047093,-0.017176,0.0091366,0.0048132,0.048245,0.046139,0.005276,-0.1932
0.013489,0.017556,0.00016045,0.016518,0.12647,-0.010002,-0.01217,0.013879,0.30838,0.38532,0.07796,0.19269,0.076959,0.43562,-0.32886,0.18858,0.027642,-0.012567,0.016407,0.011918,0.049073,-0.016396,0.010368,-0.16819
0.009791,0.013553,0.0035599,0.0084818,0.11989,-0.034151,-0.013441,0.028988,0.3236,0.35972,0.072635,0.17394,0.076532,0.43006,-0.36686,0.17416,0.009874,-0.0081378,0.017984,0.015269,0.044654,-0.088444,0.013287,-0.12631
0.005192,0.006378,0.0076601,0.0041494,0.10839,-0.066675,-0.017057,0.044021,0.33899,0.31398,0.061321,0.14491,0.081223,0.38548,-0.40152,0.15972,-0.0071242,-0.004046,0.015812,0.017797,0.036956,-0.16238,0.013819,-0.069637
0.00084789,-1.2273e-006,0.010403,0.0047469,0.087559,-0.10826,-0.022445,0.055465,0.34705,0.24536,0.047795,0.10762,0.083566,0.32398,-0.42595,0.14225,-0.026083,-0.00041875,0.014672,0.023116,0.028138,-0.23703,0.013814,-0.0084814
-0.0015402,-0.002238,0.010849,0.0086265,0.058592,-0.15402,-0.027821,0.061759,0.33924,0.15735,0.035491,0.064793,0.07889,0.2706,-0.43896,0.12227,-0.049044,0.0025418,0.018095,0.033329,0.019236,-0.322,0.015965,0.044644
-0.0016066,0.00019161,0.0094564,0.012868,0.028454,-0.19555,-0.031086,0.063216,0.31139,0.060123,0.025269,0.019911,0.068881,0.24426,-0.44383,0.1033,-0.075414,0.0048688,0.025298,0.04778,0.010383,-0.42831,0.021764,0.083672
-0.0011254,0.0048469,0.0074479,0.01557,0.0052685,-0.22579,-0.030843,0.061033,0.26653,-0.032114,0.01553,-0.022346,0.05964,0.25101,-0.44433,0.089023,-0.10191,0.0071909,0.031394,0.063454,0.0018933,-0.55535,0.030261,0.11312
-0.0027052,0.0081499,0.0057743,0.016944,-0.0074419,-0.24276,-0.026861,0.056683,0.21323,-0.10565,0.0043079,-0.056183,0.056315,0.28257,-0.44228,0.080244,-0.12412,0.010549,0.030816,0.076746,-0.0050545,-0.68798,0.038696,0.14367
-0.0074172,0.0077555,0.0044327,0.018383,-0.012859,-0.24961,-0.019778,0.052049,0.16095,-0.15175,-0.0085491,-0.075883,0.059047,0.32153,-0.43839,0.074103,-0.13842,0.01556,0.021584,0.085464,-0.0087287,-0.80721,0.044394,0.18236
-0.013608,0.0038846,0.0025952,0.020508,-0.017559,-0.2511,-0.010449,0.049495,0.11563,-0.16954,-0.02086,-0.077659,0.063421,0.35087,-0.43421,0.065888,-0.14338,0.021563,0.007377,0.089831,-0.0076978,-0.90402,0.046295,0.22548
-0.018179,-0.0011043,-0.00055745,0.022176,-0.025736,-0.24964,0.00029777,0.051068,0.07828,-0.16612,-0.029463,-0.061395,0.064532,0.36317,-0.43218,0.05221,-0.14019,0.026626,-0.0042036,0.092039,-0.0013867,-0.98238,0.045053,0.2606
-0.019284,-0.004499,-0.0049282,0.021522,-0.036085,-0.24393,0.011091,0.05713,0.046762,-0.15371,-0.032141,-0.031578,0.060881,0.36392,-0.43334,0.03329,-0.1318,0.028694,-0.0063288,0.094815,0.010013,-1.0473,0.042033,0.27616
-0.017961,-0.0051859,-0.0092532,0.018079,-0.043992,-0.23146,0.019182,0.065718,0.018953,-0.14449,-0.028608,0.0030584,0.055008,0.36705,-0.43525,0.013068,-0.12116,0.027137,0.002402,0.099863,0.025907,-1.0894,0.038314,0.27075
-0.017154,-0.0044465,-0.011804,0.01386,-0.046909,-0.21246,0.0206,0.073519,-0.0053957,-0.1452,-0.020122,0.031499,0.051003,0.38509,-0.43317,-0.0024618,-0.10912,0.023481,0.016538,0.1068,0.045352,-1.0817,0.034328,0.25389
-0.019033,-0.0049141,-0.011599,0.012126,-0.047906,-0.19216,0.012087,0.077945,-0.025035,-0.15422,-0.0085728,0.043959,0.051572,0.42,-0.42386,-0.0072553,-0.09374,0.020596,0.02685,0.11298,0.066713,-0.99474,0.029906,0.23773
-0.023119,-0.0082742,-0.0092132,0.014739,-0.054112,-0.17937,-0.0060575,0.078641,-0.038825,-0.16256,0.0039648,0.035988,0.056968,0.46016,-0.40861,0.0033342,-0.071896,0.020778,0.02613,0.11435,0.087481,-0.81846,0.02428,0.227
-0.026877,-0.013455,-0.0065095,0.020469,-0.071293,-0.18198,-0.028599,0.077128,-0.046735,-0.15841,0.015143,0.011165,0.065726,0.48561,-0.39237,0.031463,-0.042636,0.024149,0.013858,0.10743,0.10488,-0.57288,0.016168,0.21614
-0.028103,-0.017017,-0.0054414,0.02586,-0.099127,-0.20268,-0.047447,0.074913,-0.049346,-0.13267,0.022553,-0.019661,0.075474,0.479,-0.37951,0.075503,-0.0096665,0.028604,-0.0035938,0.091653,0.11719,-0.29791,0.0044091,0.1959
-0.026766,-0.01582,-0.0068672,0.027959,-0.13101,-0.23753,-0.056547,0.071741,-0.046692,-0.082901,0.024785,-0.043153,0.082918,0.43629,-0.37014,0.12898,0.019356,0.031414,-0.017488,0.070673,0.12493,-0.03235,-0.010934,0.16349
-0.024743,-0.0099131,-0.010301,0.026519,-0.15832,-0.27859,-0.056155,0.06555,-0.037985,-0.013819,0.022641,-0.050212,0.083953,0.37092,-0.36061,0.18126,0.036815,0.031299,-0.022733,0.051224,0.13063,0.20017,-0.027968,0.12692
-0.023963,-0.0029902,-0.014695,0.02377,-0.17562,-0.31861,-0.052784,0.05419,-0.022854,0.06507,0.019079,-0.040774,0.075289,0.30831,-0.34768,0.22103,0.039739,0.029363,-0.020964,0.039698,0.13711,0.38851,-0.043843,0.099559
-0.024861,0.00037686,-0.019434,0.022069,-0.18298,-0.35466,-0.054284,0.037504,-0.0030422,0.14329,0.01725,-0.023433,0.057105,0.272,-0.33259,0.24165,0.031642,0.028154,-0.018455,0.038449,0.14547,0.52236,-0.05684,0.089564
-0.026392,-0.0014372,-0.024568,0.021683,-0.18438,-0.38856,-0.063639,0.018077,0.017152,0.21266,0.017839,-0.0099067,0.034113,0.26865,-0.32085,0.24502,0.020253,0.02956,-0.020688,0.044532,0.15448,0.5878,-0.068004,0.093313
-0.027154,-0.0056257,-0.030168,0.020676,-0.18434,-0.42422,-0.076466,9.208e-005,0.032392,0.2688,0.018003,-0.007939,0.013027,0.28107,-0.31777,0.24101,0.012862,0.033182,-0.02796,0.051963,0.16195,0.57732,-0.080614,0.098361
-0.026278,-0.0073033,-0.035607,0.016912,-0.18547,-0.46445,-0.084339,-0.012792,0.038695,0.3103,0.013234,-0.017387,-0.0021539,0.27563,-0.32358,0.24172,0.01259,0.036515,-0.035464,0.055862,0.16692,0.50445,-0.097489,0.093252
-0.023448,-0.0037225,-0.03966,0.010231,-0.18854,-0.50967,-0.08125,-0.019055,0.034856,0.33656,0.0010146,-0.031839,-0.012726,0.22185,-0.33255,0.2541,0.017745,0.036884,-0.037546,0.05527,0.17041,0.40586,-0.11815,0.075923
-0.018633,0.0033929,-0.041426,0.0028349,-0.19379,-0.55911,-0.068005,-0.019524,0.022069,0.34568,-0.016623,-0.043934,-0.022554,0.11273,-0.337,0.27518,0.024001,0.033649,-0.032446,0.052626,0.17376,0.3244,-0.13822,0.054119
-0.012305,0.009444,-0.041139,-0.0023643,-0.20194,-0.61243,-0.051295,-0.016479,0.0026217,0.33425,-0.033897,-0.050053,-0.03179,-0.028692,-0.33276,0.29344,0.027375,0.028933,-0.023636,0.050799,0.17609,0.2846,-0.15174,0.038239
-0.0059666,0.010923,-0.039992,-0.0038548,-0.2137,-0.66952,-0.03872,-0.012568,-0.020823,0.29975,-0.045021,-0.051219,-0.033095,-0.16293,-0.3219,0.29518,0.026123,0.026196,-0.016839,0.050576,0.17343,0.28058,-0.15468,0.033115
-0.0019785,0.0081103,-0.03913,-0.0023074,-0.22869,-0.72824,-0.034041,-0.010108,-0.04484,0.24401,-0.048017,-0.05059,-0.015334,-0.26022,-0.31061,0.27232,0.020962,0.027701,-0.015388,0.05076,0.16119,0.28576,-0.14697,0.035325
-0.0021738,0.0042517,-0.038857,0.00042561,-0.24463,-0.78244,-0.036057,-0.010589,-0.064775,0.17526,-0.04562,-0.05055,0.026533,-0.32138,-0.30465,0.22713,0.01414,0.032852,-0.017774,0.050374,0.13808,0.27554,-0.13167,0.037334
-0.0061818,0.0023253,-0.038893,0.0029813,-0.258,-0.82304,-0.040962,-0.014005,-0.075558,0.10614,-0.04273,-0.051807,0.082964,-0.37809,-0.30577,0.17134,0.0080888,0.038718,-0.019185,0.050385,0.10817,0.24403,-0.11251,0.034081
-0.011135,0.0026121,-0.039291,0.0053428,-0.26568,-0.8423,-0.045478,-0.018257,-0.073872,0.048096,-0.042618,-0.054156,0.13071,-0.4719,-0.31149,0.12061,0.0042377,0.042283,-0.015491,0.05297,0.079011,0.20293,-0.09195,0.026299
-0.013455,0.0031694,-0.040837,0.0083468,-0.2666,-0.8381,-0.048269,-0.019518,-0.060177,0.0054839,-0.044894,-0.056831,0.14448,-0.62693,-0.31743,0.087161,0.0024432,0.042603,-0.0063267,0.058884,0.056834,0.16736,-0.071159,0.018478
-0.011483,0.0023277,-0.044202,0.012531,-0.26253,-0.81452,-0.049415,-0.01411,-0.038855,-0.026124,-0.04648,-0.057537,0.11216,-0.83514,-0.31988,0.074549,0.0013915,0.041192,0.0050394,0.06555,0.042803,0.1426,-0.051269,0.014195
-0.0067417,0.00048464,-0.048596,0.017429,-0.25716,-0.77778,-0.049311,-0.0010448,-0.016214,-0.055538,-0.044339,-0.051802,0.043101,-1.063,-0.31698,0.076785,-0.00014208,0.040495,0.01453,0.068051,0.033115,0.12248,-0.033993,0.013291
-0.0027087,-0.00054183,-0.05148,0.021835,-0.25402,-0.73113,-0.048137,0.016682,0.0022193,-0.088152,-0.037548,-0.034946,-0.036959,-1.2721,-0.30859,0.081928,-0.0020445,0.041862,0.020189,0.06264,0.022688,0.097199,-0.020773,0.012996
-0.0021387,0.00028623,-0.050096,0.024666,-0.25403,-0.67272,-0.045812,0.033459,0.013326,-0.12074,-0.027375,-0.0064578,-0.10101,-1.4384,-0.29554,0.077848,-0.0027433,0.044684,0.022886,0.050009,0.0091852,0.061308,-0.011447,0.011218
-0.0052481,0.001902,-0.04376,0.025649,-0.25449,-0.5982,-0.041877,0.044442,0.016321,-0.14347,-0.015855,0.026812,-0.13589,-1.5585,-0.27906,0.057214,-0.00052972,0.047194,0.024633,0.035514,-0.0058089,0.014807,-0.004224,0.0084806
-0.01014,0.0020895,-0.03484,0.025362,-0.25025,-0.50526,-0.035312,0.048485,0.011795,-0.14812,-0.0044647,0.052578,-0.14746,-1.6432,-0.26036,0.019825,0.0046916,0.048052,0.026381,0.025906,-0.018945,-0.041143,0.0026137,0.0066857
-0.014743,-0.00029663,-0.02734,0.024735,-0.23664,-0.39622,-0.024911,0.048307,0.0010014,-0.13636,0.0060789,0.060193,-0.1533,-1.7077,-0.24007,-0.027671,0.01082,0.047332,0.027384,0.0249,-0.02828,-0.10763,0.0088643,0.0061318
-0.018292,-0.0041733,-0.024104,0.024465,-0.21227,-0.27687,-0.010477,0.047786,-0.014285,-0.12096,0.015087,0.047957,-0.16896,-1.7651,-0.21802,-0.073446,0.014819,0.04624,0.026506,0.030892,-0.03466,-0.18705,0.012565,0.0039631
-0.021158,-0.0073517,-0.024944,0.024728,-0.17999,-0.15342,0.0059772,0.048571,-0.031904,-0.11831,0.021237,0.024511,-0.19748,-1.8253,-0.19367,-0.10279,0.014801,0.045953,0.024036,0.038481,-0.040528,-0.28008,0.012397,-0.0041146
-0.023663,-0.0088054,-0.02715,0.025244,-0.14533,-0.030874,0.020293,0.048734,-0.049912,-0.13775,0.022741,0.002545,-0.2287,-1.8934,-0.16719,-0.10147,0.011072,0.046559,0.022083,0.042521,-0.047719,-0.38505,0.010095,-0.020037
-0.02543,-0.0097478,-0.027774,0.025547,-0.11392,0.086116,0.028017,0.044404,-0.067302,-0.17565,0.018283,-0.010538,-0.24736,-1.9659,-0.14028,-0.060682,0.0052292,0.04688,0.022994,0.041594,-0.056498,-0.5006,0.010098,-0.040723
-0.025949,-0.012337,-0.025641,0.025269,-0.089563,0.19129,0.027112,0.032963,-0.084089,-0.21876,0.007915,-0.017515,-0.24351,-2.0297,-0.11611,0.017204,-0.0017746,0.045277,0.027086,0.038389,-0.066551,-0.62848,0.01612,-0.059023
-0.025474,-0.01721,-0.021646,0.024341,-0.073958,0.2765,0.019741,0.015292,-0.10046,-0.25375,-0.0068955,-0.027864,-0.21798,-2.068,-0.098245,0.11566,-0.01063,0.040852,0.031738,0.037022,-0.078589,-0.77296,0.0274,-0.067922
-0.024972,-0.022306,-0.017556,0.023017,-0.067227,0.33379,0.011746,-0.0044945,-0.11577,-0.27505,-0.024243,-0.049028,-0.18022,-2.0746,-0.089397,0.2072,-0.022703,0.034247,0.032853,0.039709,-0.094558,-0.93693,0.038175,-0.065029
-0.025037,-0.02431,-0.01471,0.021648,-0.06814,0.35877,0.00976,-0.021402,-0.1283,-0.28528,-0.043071,-0.079862,-0.14095,-2.0636,-0.090611,0.26364,-0.037984,0.02744,0.027785,0.045488,-0.11579,-1.1179,0.041291,-0.054125
-0.025073,-0.021601,-0.013604,0.020276,-0.073654,0.35298,0.017392,-0.032188,-0.13626,-0.28878,-0.063641,-0.11164,-0.10515,-2.0644,-0.1007,0.26883,-0.053989,0.022647,0.017472,0.051704,-0.14052,-1.3055,0.033169,-0.042642
-0.023923,-0.016027,-0.014216,0.018397,-0.078691,0.32438,0.032772,-0.036554,-0.13898,-0.28456,-0.086606,-0.13534,-0.069635,-2.0978,-0.11572,0.22649,-0.066824,0.021026,0.005978,0.056541,-0.16308,-1.4807,0.016131,-0.036905
-0.021504,-0.011765,-0.01626,0.015236,-0.077263,0.28594,0.049338,-0.036448,-0.13732,-0.26509,-0.11135,-0.14884,-0.026371,-2.149,-0.12894,0.15692,-0.073684,0.02211,-0.0024312,0.060155,-0.17602,-1.6148,-0.0035242,-0.0384
-0.019615,-0.012039,-0.019099,0.010504,-0.064886,0.2525,0.059939,-0.034301,-0.13292,-0.22175,-0.1351,-0.15792,0.03156,-2.1625,-0.13219,0.083967,-0.074725,0.024285,-0.0064777,0.063602,-0.17391,-1.6711,-0.019613,-0.043546
-0.020713,-0.01647,-0.021717,0.0050099,-0.040827,0.2362,0.061835,-0.031512,-0.12692,-0.15242,-0.15387,-0.17087,0.10575,-2.0684,-0.11891,0.020523,-0.072752,0.025877,-0.0087086,0.067055,-0.15634,-1.6139,-0.028764,-0.046805
-0.025563,-0.021386,-0.023173,0.00042612,-0.0085726,0.2417,0.058873,-0.028055,-0.11958,-0.064477,-0.16473,-0.19179,0.19323,-1.8268,-0.087572,-0.037298,-0.071057,0.025964,-0.013083,0.069513,-0.12794,-1.4234,-0.030115,-0.044662
-0.032059,-0.022917,-0.02325,-0.0018495,0.025894,0.26374,0.05863,-0.023177,-0.11073,0.029193,-0.16757,-0.21809,0.29112,-1.456,-0.042772,-0.10356,-0.071196,0.024426,-0.021106,0.070521,-0.095598,-1.1095,-0.023575,-0.037477
-0.036643,-0.020239,-0.022534,-0.0018594,0.056778,0.28949,0.066112,-0.016498,-0.1006,0.11835,-0.1647,-0.24367,0.40054,-1.0213,0.0070933,-0.1895,-0.072443,0.021483,-0.029752,0.071985,-0.064879,-0.71428,-0.0092703,-0.028026
-0.037204,-0.016163,-0.02164,-0.0011526,0.08044,0.30548,0.078853,-0.008654,-0.089915,0.20109,-0.15869,-0.26412,0.52491,-0.59185,0.05397,-0.29513,-0.073149,0.017366,-0.033236,0.077667,-0.038182,-0.29707,0.011084,-0.018259
-0.034815,-0.014556,-0.020299,-0.0015051,0.095833,0.3053,0.087748,-0.00095218,-0.079066,0.28246,-0.15011,-0.27923,0.66268,-0.20261,0.092915,-0.41183,-0.07263,0.012467,-0.027559,0.090069,-0.01538,0.087638,0.032865,-0.0072547
-0.03268,-0.016902,-0.01734,-0.0033653,0.10388,0.2927,0.083541,0.0058476,-0.067298,0.36692,-0.13721,-0.29129,0.80013,0.1463,0.12168,-0.53147,-0.071917,0.0076405,-0.014285,0.10733,0.0041881,0.40568,0.049676,0.0078296
-0.033271,-0.021055,-0.011841,-0.0055448,0.10673,0.27788,0.064019,0.012787,-0.053146,0.45014,-0.11779,-0.30206,0.91181,0.45379,0.13872,-0.65139,-0.072776,0.0041069,-0.00033613,0.12336,0.020442,0.64204,0.05704,0.028843
-0.036351,-0.023254,-0.0045167,-0.00663,0.10714,0.2697,0.036033,0.022874,-0.036271,0.5165,-0.091539,-0.31195,0.97073,0.68254,0.14274,-0.76854,-0.075944,0.0027634,0.0063177,0.13171,0.032965,0.78876,0.055867,0.054741
-0.039559,-0.02149,0.0020233,-0.0068719,0.10772,0.26972,0.010554,0.039553,-0.0194,0.54518,-0.060958,-0.32183,0.96197,0.76355,0.13511,-0.86854,-0.080197,0.0034045,0.0018896,0.13024,0.042287,0.83718,0.052465,0.082701
-0.040791,-0.017192,0.0046373,-0.008609,0.10967,0.27213,-0.0052086,0.064128,-0.0084469,0.52156,-0.030292,-0.33436,0.88975,0.64414,0.12203,-0.92261,-0.083092,0.0045712,-0.010995,0.12242,0.050306,0.78436,0.054431,0.11116
-0.039992,-0.013792,0.0017302,-0.014475,0.11179,0.26898,-0.012238,0.09396,-0.0099702,0.44719,-0.0034748,-0.35181,0.77254,0.34059,0.11285,-0.90062,-0.08276,0.0043304,-0.025584,0.11411,0.05906,0.64808,0.0652,0.1415
-0.038813,-0.013667,-0.0055256,-0.024795,0.11078,0.25589,-0.017338,0.12308,-0.027199,0.34195,0.017333,-0.37099,0.6308,-0.05252,0.1137,-0.79304,-0.079172,0.0015299,-0.035792,0.10874,0.068886,0.47302,0.081398,0.1763
-0.038744,-0.016301,-0.013793,-0.036616,0.10316,0.23407,-0.026395,0.14519,-0.05726,0.23623,0.032006,-0.38014,0.47799,-0.40916,0.12185,-0.62414,-0.073839,-0.0033629,-0.039823,0.10507,0.077838,0.31587,0.095235,0.2155
-0.039675,-0.019188,-0.019592,-0.045577,0.087679,0.20811,-0.039169,0.15692,-0.091666,0.15726,0.041959,-0.36244,0.32164,-0.63988,0.12659,-0.4432,-0.068321,-0.0084943,-0.04029,0.099304,0.08321,0.21568,0.10028,0.25431
-0.040173,-0.020362,-0.021327,-0.049255,0.066479,0.18244,-0.049765,0.15899,-0.11989,0.11697,0.049524,-0.30545,0.17154,-0.72826,0.11801,-0.29765,-0.06309,-0.011837,-0.041423,0.088956,0.083942,0.17137,0.096301,0.28543
-0.039009,-0.020064,-0.019985,-0.049093,0.044107,0.15957,-0.051941,0.15438,-0.13377,0.10863,0.057192,-0.21067,0.045132,-0.71168,0.096896,-0.20757,-0.057846,-0.012573,-0.045973,0.074683,0.081675,0.14561,0.089386,0.30381
-0.036387,-0.020112,-0.018143,-0.049093,0.025038,0.14061,-0.044436,0.14535,-0.13025,0.11374,0.066404,-0.095821,-0.036135,-0.6306,0.076983,-0.16011,-0.052916,-0.011681,-0.054006,0.058529,0.079395,0.094331,0.087207,0.30984
-0.033803,-0.021858,-0.018084,-0.052212,0.011496,0.12623,-0.031937,0.13202,-0.11136,0.11439,0.076189,0.012397,-0.056965,-0.49344,0.076387,-0.12639,-0.050126,-0.011283,-0.063842,0.040997,0.078834,-6.1278e-005,0.093155,0.30808
-0.032761,-0.024833,-0.020297,-0.057495,0.0028531,0.11649,-0.021258,0.11348,-0.082499,0.10276,0.082858,0.090853,-0.015934,-0.28352,0.10455,-0.085603,-0.051919,-0.01319,-0.073765,0.020347,0.079002,-0.11707,0.10409,0.30304
-0.033475,-0.027254,-0.023313,-0.060492,-0.0033394,0.11006,-0.016207,0.08996,-0.050364,0.082082,0.081775,0.12982,0.074615,0.0075072,0.15518,-0.037316,-0.059199,-0.017669,-0.083084,-0.0049925,0.077166,-0.21591,0.11352,0.29614
-0.034545,-0.027673,-0.024891,-0.056765,-0.0096446,0.10462,-0.015316,0.063572,-0.021309,0.059877,0.070557,0.13466,0.19379,0.35796,0.21081,0.0055343,-0.069788,-0.023316,-0.092165,-0.033449,0.071292,-0.26713,0.11739,0.28683
-0.033832,-0.02606,-0.023702,-0.045697,-0.01739,0.09879,-0.013912,0.036828,5.1484e-005,0.039936,0.051391,0.11967,0.31631,0.72815,0.2544,0.033575,-0.079138,-0.028137,-0.10195,-0.060057,0.061702,-0.27274,0.11749,0.27609
-0.029971,-0.023455,-0.020344,-0.03144,-0.026222,0.094189,-0.0083664,0.010378,0.012145,0.019662,0.030236,0.099361,0.41436,1.0922,0.27832,0.051905,-0.083111,-0.031066,-0.11353,-0.079554,0.050565,-0.26077,0.11924,0.26819
-0.023567,-0.020851,-0.017011,-0.02012,-0.034575,0.095142,0.0010821,-0.01759,0.016863,-0.0061794,0.013128,0.082546,0.46284,1.4567,0.28396,0.076151,-0.080872,-0.03277,-0.12769,-0.09015,0.040005,-0.26169,0.12616,0.26827
-0.017202,-0.018584,-0.016049,-0.015403,-0.040755,0.10556,0.011032,-0.049582,0.018099,-0.039875,0.0023811,0.071632,0.45182,1.846,0.2746,0.11833,-0.075688,-0.035157,-0.14436,-0.094691,0.030817,-0.28708,0.13575,0.27785
-0.013992,-0.016694,-0.018394,-0.015957,-0.044069,0.12527,0.018105,-0.086222,0.018635,-0.079004,-0.0041507,0.065356,0.39989,2.2682,0.24988,0.17517,-0.072955,-0.039913,-0.16192,-0.098416,0.022936,-0.32559,0.14092,0.29287
-0.015444,-0.015505,-0.022963,-0.016818,-0.045289,0.14897,0.02165,-0.1252,0.017311,-0.11969,-0.010147,0.061818,0.35375,2.6908,0.20753,0.22842,-0.076771,-0.047136,-0.17731,-0.10551,0.016765,-0.35516,0.13547,0.30672
-0.020133,-0.015529,-0.027376,-0.013577,-0.046014,0.16893,0.023692,-0.1625,0.0088774,-0.16079,-0.016897,0.059777,0.36598,3.0463,0.14998,0.25649,-0.087318,-0.055075,-0.18702,-0.11731,0.01356,-0.35826,0.11884,0.31568
-0.024415,-0.016693,-0.029467,-0.0059979,-0.047309,0.17947,0.026492,-0.19465,-0.012874,-0.20421,-0.021978,0.058315,0.46151,3.2625,0.088215,0.2483,-0.10071,-0.061157,-0.18889,-0.13287,0.01415,-0.32821,0.095978,0.32144
-0.024942,-0.017864,-0.028511,0.0018455,-0.048786,0.17993,0.030223,-0.22001,-0.05068,-0.2505,-0.021798,0.0562,0.61703,3.2935,0.037571,0.2092,-0.11128,-0.063557,-0.18317,-0.15057,0.017349,-0.26606,0.073035,0.32807
-0.021132,-0.017491,-0.025368,0.0049787,-0.049098,0.17401,0.032998,-0.23831,-0.10123,-0.29444,-0.015741,0.052051,0.77168,3.1346,0.0079532,0.15544,-0.11481,-0.062229,-0.17193,-0.16858,0.020106,-0.17581,0.05327,0.3363
-0.015568,-0.014987,-0.021498,0.0016801,-0.04758,0.16652,0.033125,-0.24952,-0.15626,-0.32534,-0.0080696,0.045269,0.8631,2.8205,-0.0031813,0.10219,-0.11074,-0.058753,-0.15722,-0.18436,0.019819,-0.064691,0.036934,0.34083
-0.011892,-0.011613,-0.017641,-0.0049851,-0.045458,0.16019,0.031241,-0.25315,-0.20643,-0.33305,-0.0055278,0.03686,0.86249,2.4134,-0.0087257,0.054592,-0.10217,-0.055218,-0.13934,-0.19439,0.016797,0.053253,0.024437,0.33412
-0.011935,-0.009839,-0.013164,-0.0094178,-0.045168,0.15477,0.030041,-0.24871,-0.24522,-0.315,-0.012316,0.029216,0.78322,1.9874,-0.022138,0.0085285,-0.093827,-0.052997,-0.11688,-0.19525,0.014223,0.15742,0.018609,0.31335
-0.014492,-0.011551,-0.0066346,-0.0076426,-0.047963,0.14851,0.03173,-0.23634,-0.27054,-0.27838,-0.026439,0.024642,0.66031,1.6077,-0.048062,-0.040269,-0.089342,-0.052194,-0.088481,-0.1855,0.015138,0.22848,0.022861,0.28425
-0.016697,-0.01649,0.0027527,-7.6501e-005,-0.051836,0.14044,0.035631,-0.21702,-0.28362,-0.23548,-0.040531,0.023405,0.5211,1.309,-0.080906,-0.087202,-0.089613,-0.051969,-0.054923,-0.16672,0.018996,0.25925,0.036589,0.25772
-0.016657,-0.02224,0.013972,0.0091014,-0.051896,0.13163,0.038445,-0.19222,-0.28657,-0.19523,-0.046742,0.022729,0.37149,1.0831,-0.11182,-0.11857,-0.092954,-0.051336,-0.019943,-0.14271,0.0212,0.25937,0.052586,0.24165
-0.014955,-0.025798,0.02425,0.015212,-0.043352,0.12473,0.037194,-0.16371,-0.28061,-0.15699,-0.042032,0.017802,0.20502,0.88896,-0.13736,-0.12135,-0.096704,-0.04982,0.010936,-0.11765,0.016585,0.24871,0.060012,0.23503
-0.013836,-0.025527,0.030601,0.016262,-0.024967,0.12213,0.032229,-0.13372,-0.26601,-0.11065,-0.029923,0.0047266,0.021866,0.68305,-0.16218,-0.095255,-0.099025,-0.047649,0.032678,-0.094705,0.004098,0.24393,0.051427,0.22923
-0.014966,-0.022012,0.031777,0.013704,-0.00029271,0.12405,0.027469,-0.10503,-0.24319,-0.043264,-0.01752,-0.016112,-0.16094,0.44933,-0.19395,-0.05637,-0.099731,-0.045544,0.042762,-0.075605,-0.011459,0.24856,0.028292,0.21536
-0.017902,-0.01731,0.029124,0.010574,0.02424,0.12762,0.027435,-0.080358,-0.21406,0.051802,-0.010264,-0.038386,-0.31579,0.20743,-0.23566,-0.02826,-0.099882,-0.04433,0.042036,-0.060776,-0.022411,0.25385,8.7843e-005,0.19092
-0.020545,-0.013368,0.0256,0.008839,0.042827,0.12783,0.033567,-0.061128,-0.18222,0.16824,-0.0083678,-0.051284,-0.41986,-0.0058392,-0.28222,-0.026918,-0.10073,-0.044555,0.034194,-0.049227,-0.023609,0.24883,-0.02264,0.16029
-0.021039,-0.010918,0.023695,0.0081016,0.052865,0.12032,0.042908,-0.046677,-0.15173,0.28661,-0.0072259,-0.043752,-0.46669,-0.16295,-0.32407,-0.051299,-0.10287,-0.046173,0.024191,-0.038516,-0.015879,0.23041,-0.035922,0.12924
-0.019343,-0.0096168,0.023959,0.0064117,0.055199,0.10451,0.050224,-0.03485,-0.12517,0.38126,-0.00092299,-0.0096058,-0.46714,-0.25592,-0.35414,-0.086752,-0.10618,-0.04842,0.016162,-0.025681,-0.0048584,0.20567,-0.044755,0.09882
-0.017182,-0.009032,0.025271,0.0021795,0.0526,0.085043,0.051729,-0.023735,-0.10219,0.43125,0.01403,0.048924,-0.44233,-0.28515,-0.37212,-0.11816,-0.11029,-0.050089,0.011721,-0.0092814,0.0034898,0.18518,-0.058692,0.064307
-0.016582,-0.0093977,0.026453,-0.0044583,0.048071,0.069756,0.047461,-0.013133,-0.079711,0.42952,0.03705,0.1209,-0.41474,-0.24514,-0.38312,-0.14198,-0.11515,-0.050234,0.0096312,0.0088356,0.0068777,0.17409,-0.084556,0.019813
-0.018332,-0.011402,0.027654,-0.011704,0.044029,0.065052,0.040759,-0.0044513,-0.053757,0.3853,0.064171,0.18993,-0.40155,-0.12889,-0.39264,-0.16785,-0.12112,-0.0489,0.0072792,0.023874,0.0072584,0.16868,-0.12201,-0.035867
-0.021567,-0.015271,0.030268,-0.01721,0.042323,0.071922,0.035687,0.00090358,-0.022116,0.3182,0.089857,0.2398,-0.41086,0.049396,-0.40255,-0.20921,-0.12853,-0.047219,0.0031861,0.030916,0.0082395,0.16077,-0.16474,-0.097226
-0.024586,-0.020099,0.035564,-0.019232,0.044452,0.085892,0.034633,0.0031494,0.013893,0.24798,0.10886,0.2604,-0.44046,0.23794,-0.41068,-0.27098,-0.13692,-0.046582,-0.0012374,0.02842,0.012087,0.14578,-0.20497,-0.15506
-0.026014,-0.024137,0.043344,-0.017168,0.051493,0.10126,0.037734,0.0042244,0.049685,0.18651,0.11798,0.25138,-0.47966,0.36251,-0.41325,-0.34394,-0.14465,-0.047398,-0.0021869,0.019717,0.018764,0.12736,-0.23691,-0.20119
-0.025429,-0.025815,0.051818,-0.011558,0.063731,0.11608,0.044131,0.0062302,0.079783,0.13635,0.11765,0.22159,-0.51361,0.36971,-0.40769,-0.40949,-0.14942,-0.048497,0.0039211,0.011228,0.027092,0.11486,-0.25667,-0.23094
-0.023229,-0.024639,0.058724,-0.0038641,0.080173,0.1334,0.05371,0.0095966,0.10099,0.095261,0.11275,0.18445,-0.52806,0.26458,-0.39392,-0.45056,-0.14929,-0.047842,0.0176,0.0086702,0.036183,0.11589,-0.26034,-0.24242
-0.020134,-0.021263,0.062709,0.003907,0.098219,0.15718,0.06788,0.01257,0.1144,0.061158,0.11119,0.15182,-0.51237,0.10723,-0.37407,-0.46018,-0.1437,-0.044112,0.035449,0.013997,0.045567,0.12999,-0.2441,-0.23525
-0.016779,-0.016879,0.063894,0.009971,0.11387,0.18663,0.088744,0.012446,0.12499,0.033046,0.12051,0.13022,-0.46094,-0.033507,-0.35124,-0.44222,-0.1337,-0.037822,0.052101,0.025065,0.054208,0.14806,-0.20742,-0.21144
-0.013516,-0.012565,0.063349,0.013763,0.1229,0.21442,0.11717,0.007529,0.13884,0.0076802,0.14372,0.1216,-0.3751,-0.13285,-0.32789,-0.40517,-0.12117,-0.03096,0.063648,0.037792,0.059922,0.15754,-0.15682,-0.17769
-0.010356,-0.0090564,0.062028,0.016404,0.12295,0.2313,0.15102,-0.0016583,0.15968,-0.023452,0.17752,0.12721,-0.26575,-0.22333,-0.30434,-0.35491,-0.10793,-0.025411,0.070092,0.048913,0.060176,0.14914,-0.10552,-0.14566
-0.0071028,-0.0068165,0.06009,0.019877,0.11562,0.23365,0.18484,-0.012626,0.18704,-0.072201,0.214,0.15026,-0.15316,-0.35555,-0.27836,-0.29256,-0.095279,-0.021562,0.075082,0.057475,0.053664,0.12096,-0.067353,-0.12768
-0.0037089,-0.0059789,0.057111,0.025177,0.107,0.2276,0.21175,-0.022256,0.217,-0.1466,0.24489,0.19436,-0.059682,-0.53887,-0.24653,-0.21845,-0.084168,-0.018305,0.083018,0.064675,0.041196,0.078319,-0.048596,-0.12993
-0.00069446,-0.0060859,0.052983,0.030948,0.10563,0.22584,0.22678,-0.028252,0.24505,-0.24324,0.26554,0.25875,0.0032127,-0.71459,-0.20709,-0.13787,-0.07529,-0.014356,0.095428,0.072993,0.02513,0.031272,-0.044151,-0.14826
0.00086213,-0.0060247,0.048653,0.034083,0.11834,0.23949,0.22983,-0.029932,0.26914,-0.34509,0.27616,0.33534,0.04413,-0.78783,-0.16198,-0.062561,-0.06862,-0.0095289,0.10904,0.085605,0.007976,-0.0081227,-0.041627,-0.17084
6.0074e-005,-0.0045665,0.045907,0.032202,0.14629,0.27151,0.22616,-0.028115,0.29079,-0.42723,0.27998,0.4112,0.086795,-0.69501,-0.11621,-0.0047321,-0.06275,-0.0047014,0.11701,0.1061,-0.0086637,-0.028204,-0.030728,-0.18603
-0.0027446,-0.0013078,0.046102,0.025991,0.18368,0.3163,0.22339,-0.024385,0.31356,-0.46787,0.28013,0.47538,0.15045,-0.45254,-0.074456,0.03293,-0.055036,-0.00059517,0.11284,0.13754,-0.024282,-0.020993,-0.010703,-0.18977
-0.0054928,0.002773,0.048767,0.019175,0.22036,0.36483,0.22639,-0.020272,0.33968,-0.45884,0.2774,0.524,0.2294,-0.14676,-0.037563,0.063549,-0.043083,0.0032518,0.094555,0.18034,-0.03917,0.013367,0.0099575,-0.18693
-0.0053514,0.0058071,0.05137,0.015815,0.24668,0.41003,0.23334,-0.016847,0.3672,-0.41064,0.27028,0.55918,0.29026,0.12591,-0.0021893,0.11197,-0.026791,0.0080837,0.066195,0.22972,-0.054135,0.063394,0.021086,-0.18612
-0.00066509,0.0063838,0.0508,0.017103,0.25779,0.44824,0.23609,-0.014863,0.38943,-0.34944,0.25695,0.58274,0.29322,0.31851,0.035872,0.20046,-0.0092806,0.014363,0.035503,0.27511,-0.070187,0.10807,0.019285,-0.19266
0.0074958,0.0047376,0.045625,0.020433,0.255,0.47697,0.22533,-0.015039,0.39749,-0.30678,0.23754,0.59139,0.22278,0.44473,0.077256,0.33252,0.0044218,0.020647,0.009311,0.30307,-0.087827,0.12518,0.010433,-0.20512
0.015614,0.0027606,0.037263,0.021563,0.24374,0.49276,0.19779,-0.017843,0.3847,-0.30589,0.21504,0.57853,0.10251,0.53689,0.11727,0.48632,0.010384,0.024257,-0.0097934,0.30329,-0.10607,0.10288,0.0046981,-0.21738
0.019959,0.0027352,0.028906,0.017943,0.23021,0.49259,0.16026,-0.022603,0.35048,-0.35094,0.19392,0.54158,-0.020237,0.59348,0.14845,0.6241,0.0084314,0.023415,-0.023008,0.2742,-0.12198,0.047476,0.0086802,-0.22352
0.019259,0.005718,0.02289,0.010328,0.21896,0.47793,0.12734,-0.026713,0.30138,-0.42593,0.17713,0.48738,-0.1086,0.56858,0.16555,0.71296,0.0025299,0.019018,-0.031844,0.22411,-0.13152,-0.017815,0.021221,-0.22113
0.015742,0.010784,0.018773,0.0015898,0.21255,0.4572,0.11343,-0.026115,0.24842,-0.50519,0.1635,0.42987,-0.16108,0.41699,0.16896,0.74368,-0.0014884,0.014347,-0.035238,0.16654,-0.13142,-0.063125,0.035718,-0.211
0.01358,0.01564,0.013889,-0.0057896,0.21247,0.44338,0.12421,-0.017484,0.20219,-0.56963,0.14769,0.381,-0.20615,0.156,0.16415,0.73461,0.00061941,0.012801,-0.030272,0.11256,-0.12097,-0.06517,0.046158,-0.19438
0.015815,0.01808,0.0060169,-0.011088,0.21999,0.44758,0.15322,-0.00093932,0.16837,-0.6176,0.12326,0.34299,-0.27183,-0.11546,0.15764,0.71786,0.0091398,0.015436,-0.015958,0.065661,-0.10257,-0.016251,0.051413,-0.17083
0.022103,0.017246,-0.0041782,-0.014668,0.23595,0.47286,0.1856,0.018934,0.14619,-0.66251,0.087387,0.30875,-0.35755,-0.26667,0.15275,0.71755,0.020615,0.020311,0.0037776,0.022622,-0.080765,0.074614,0.054618,-0.1388
0.029063,0.01395,-0.013193,-0.016549,0.2596,0.51276,0.20647,0.035139,0.13065,-0.71962,0.043843,0.27037,-0.43256,-0.22091,0.14801,0.73527,0.030405,0.024097,0.021273,-0.020723,-0.060508,0.18693,0.059008,-0.098142
0.032928,0.010072,-0.017316,-0.016086,0.28785,0.55479,0.20834,0.042466,0.11668,-0.79361,0.0020144,0.22794,-0.4613,-0.0094261,0.13901,0.7519,0.035824,0.024573,0.029992,-0.064035,-0.045798,0.29631,0.064374,-0.052386
0.032379,0.0075679,-0.015648,-0.013089,0.31549,0.58589,0.19359,0.040912,0.1027,-0.87708,-0.027851,0.19089,-0.43272,0.25142,0.12168,0.74253,0.037726,0.022038,0.028905,-0.10191,-0.039028,0.38147,0.067043,-0.008551
0.029343,0.0076464,-0.010979,-0.0089353,0.33673,0.59642,0.17142,0.035626,0.091256,-0.95896,-0.040096,0.171,-0.36838,0.4422,0.094631,0.69258,0.039429,0.018679,0.022596,-0.1284,-0.040984,0.4296,0.062852,0.02555
0.027226,0.010411,-0.007884,-0.0061183,0.34737,0.58161,0.15203,0.033203,0.086862,-1.0321,-0.036223,0.17296,-0.30441,0.51559,0.059557,0.60403,0.043804,0.016651,0.01726,-0.14234,-0.05104,0.4398,0.050166,0.044885
0.02814,0.014956,-0.0096245,-0.0064422,0.34652,0.54201,0.14145,0.037078,0.093031,-1.0907,-0.023087,0.19017,-0.26485,0.50576,0.020367,0.48993,0.050784,0.016502,0.016431,-0.14886,-0.067291,0.42287,0.030686,0.049325
0.031408,0.019811,-0.016198,-0.0096055,0.33699,0.48373,0.13915,0.045545,0.11062,-1.1205,-0.0083344,0.20849,-0.24922,0.47138,-0.017752,0.36409,0.057349,0.017063,0.020071,-0.15574,-0.086626,0.39614,0.0081729,0.043041
0.034438,0.023552,-0.024647,-0.013622,0.32372,0.41755,0.13958,0.053811,0.13792,-1.093,0.0036307,0.21429,-0.24241,0.42899,-0.049103,0.23439,0.060104,0.016592,0.026912,-0.16801,-0.10488,0.37485,-0.013112,0.031699
0.035055,0.025306,-0.030996,-0.016662,0.31113,0.35502,0.13656,0.058203,0.17126,-0.97407,0.012751,0.20099,-0.23507,0.3391,-0.068853,0.10325,0.058292,0.014046,0.036739,-0.18507,-0.11727,0.3649,-0.029062,0.019288
0.033282,0.024915,-0.032336,-0.018494,0.30058,0.30221,0.12843,0.058971,0.20468,-0.74274,0.021408,0.17062,-0.23536,0.15686,-0.075263,-0.02824,0.054586,0.0095712,0.049831,-0.20245,-0.11925,0.36224,-0.035969,0.0064516
0.031153,0.022718,-0.028013,-0.020242,0.2899,0.25523,0.12045,0.059485,0.22928,-0.40667,0.031306,0.13124,-0.26308,-0.10203,-0.071458,-0.15731,0.052918,0.0042099,0.064354,-0.21615,-0.10784,0.35909,-0.031587,-0.008966
0.030913,0.019226,-0.019724,-0.022933,0.27536,0.20198,0.12173,0.062855,0.23418,-0.0033848,0.041236,0.092822,-0.33289,-0.34586,-0.064669,-0.28015,0.055279,-0.00057603,0.075244,-0.22613,-0.082996,0.35188,-0.017037,-0.029883
0.033212,0.015046,-0.010753,-0.026432,0.25465,0.13046,0.13764,0.069067,0.21059,0.41242,0.046915,0.063442,-0.44105,-0.46336,-0.062429,-0.39399,0.060414,-0.0032246,0.076897,-0.23618,-0.04848,0.34414,0.0021325,-0.057915
0.036766,0.011093,-0.0046019,-0.029713,0.22869,0.038316,0.16282,0.075058,0.15713,0.78544,0.042921,0.046531,-0.56419,-0.40924,-0.068138,-0.49797,0.065429,-0.0024733,0.067999,-0.2508,-0.011323,0.34267,0.01758,-0.092382
0.039559,0.0086714,-0.0033344,-0.031876,0.2009,-0.063564,0.18104,0.077346,0.082662,1.0715,0.025736,0.039628,-0.66841,-0.24806,-0.079726,-0.59163,0.068504,0.001884,0.054065,-0.27158,0.020259,0.35159,0.02232,-0.13053
0.040393,0.008981,-0.0063298,-0.032729,0.17489,-0.15647,0.17387,0.074662,0.00342,1.2426,-0.0037576,0.035787,-0.72139,-0.11865,-0.092986,-0.67292,0.069963,0.0082782,0.044674,-0.29567,0.039911,0.37084,0.014701,-0.16834
0.03947,0.012161,-0.010292,-0.032488,0.15284,-0.2241,0.13317,0.068382,-0.064546,1.2891,-0.040111,0.027843,-0.70289,-0.14503,-0.10692,-0.73755,0.070889,0.0136,0.046962,-0.31723,0.045734,0.40065,-0.00083893,-0.20148
0.037729,0.016704,-0.010895,-0.031306,0.13618,-0.25993,0.068013,0.060779,-0.11275,1.22,-0.076127,0.01323,-0.61292,-0.36001,-0.12603,-0.78033,0.071163,0.014784,0.060412,-0.33074,0.040991,0.44677,-0.016931,-0.22597
0.035788,0.020065,-0.0053645,-0.029416,0.12703,-0.26678,0.00017999,0.05306,-0.14238,1.0601,-0.10724,-0.0046808,-0.47546,-0.69217,-0.15663,-0.7973,0.069347,0.01085,0.077177,-0.33395,0.032343,0.51939,-0.027783,-0.23902
0.033569,0.020335,0.0055375,-0.027646,0.12803,-0.25083,-0.049401,0.044916,-0.15999,0.84347,-0.13447,-0.021005,-0.33278,-1.0159,-0.19942,-0.78713,0.064654,0.0037389,0.087752,-0.32861,0.026439,0.62488,-0.031539,-0.23976
0.030839,0.017744,0.017542,-0.027375,0.13961,-0.21664,-0.073341,0.035591,-0.17065,0.60477,-0.16344,-0.036871,-0.22681,-1.2212,-0.24455,-0.75115,0.058723,-0.0029186,0.087567,-0.31877,0.026723,0.75661,-0.029207,-0.22955
0.027981,0.014606,0.025131,-0.029495,0.15698,-0.1676,-0.08053,0.025037,-0.17409,0.37421,-0.19978,-0.063464,-0.17503,-1.2567,-0.27401,-0.69284,0.054922,-0.0062406,0.079588,-0.30822,0.032272,0.8935,-0.022162,-0.21173
0.026088,0.013528,0.024761,-0.033264,0.17088,-0.11003,-0.087641,0.014096,-0.16698,0.17558,-0.24412,-0.11744,-0.15791,-1.1307,-0.27084,-0.61751,0.055485,-0.0058171,0.071368,-0.29879,0.03926,1.0087,-0.011275,-0.19052
0.026221,0.015274,0.017064,-0.036406,0.17311,-0.054537,-0.10675,0.0039813,-0.14888,0.02483,-0.2904,-0.20922,-0.1316,-0.88601,-0.22894,-0.53296,0.059282,-0.0034642,0.069236,-0.29079,0.043933,1.0823,0.0015767,-0.1698
0.028548,0.01808,0.0065962,-0.036831,0.163,-0.011264,-0.13851,-0.0039453,-0.12635,-0.073466,-0.32884,-0.33232,-0.06103,-0.57189,-0.15676,-0.44965,0.062625,-0.0015142,0.074044,-0.28437,0.04502,1.1096,0.011999,-0.15187
0.032201,0.019045,-0.00078464,-0.0346,0.14906,0.017657,-0.17483,-0.0078558,-0.11121,-0.12876,-0.35153,-0.46264,0.050715,-0.22775,-0.072161,-0.3789,0.062573,-0.0012678,0.081133,-0.28038,0.044037,1.0989,0.014471,-0.13673
0.036021,0.016417,-0.0013291,-0.032258,0.14308,0.04053,-0.20727,-0.0055368,-0.11341,-0.16024,-0.35668,-0.56956,0.16124,0.12162,0.0074281,-0.32844,0.059657,-0.0027502,0.083813,-0.27963,0.043559,1.0643,0.0065348,-0.12206
0.039458,0.010833,0.0045042,-0.032883,0.15072,0.069021,-0.2338,0.0042779,-0.13379,-0.18458,-0.34895,-0.63216,0.21881,0.46246,0.072864,-0.29783,0.057352,-0.0054958,0.077383,-0.28155,0.045086,1.0171,-0.0078935,-0.104
0.042735,0.0045779,0.012568,-0.037377,0.16627,0.10606,-0.25919,0.019967,-0.16256,-0.20365,-0.33609,-0.64933,0.20007,0.78182,0.12411,-0.27791,0.058723,-0.0092327,0.061008,-0.28411,0.048296,0.96302,-0.019943,-0.079105
0.046085,-0.0003403,0.017825,-0.043328,0.17649,0.13914,-0.29026,0.03644,-0.18508,-0.20317,-0.32441,-0.63714,0.12519,1.0552,0.165,-0.25655,0.063323,-0.013793,0.036847,-0.28519,0.052112,0.90324,-0.021931,-0.046591
0.048801,-0.0035636,0.017623,-0.046586,0.17042,0.14613,-0.33037,0.047244,-0.19095,-0.16476,-0.31603,-0.61575,0.039192,1.2416,0.19715,-0.22739,0.067227,-0.018638,0.0077847,-0.28423,0.056327,0.83682,-0.013608,-0.0098116
0.04912,-0.0061412,0.013314,-0.044288,0.14726,0.10995,-0.37701,0.048326,-0.17972,-0.081451,-0.30937,-0.59562,-0.0231,1.296,0.21822,-0.19461,0.06621,-0.022838,-0.024308,-0.28165,0.061986,0.76224,-0.003084,0.024309
0.045286,-0.0091221,0.0091678,-0.036842,0.11562,0.030395,-0.42327,0.040526,-0.15894,0.037314,-0.30192,-0.57246,-0.058745,1.1946,0.22514,-0.16864,0.059279,-0.025749,-0.058863,-0.27645,0.069935,0.67838,-0.0011351,0.047984
0.037092,-0.012358,0.0093677,-0.027328,0.085396,-0.076745,-0.4614,0.028584,-0.13625,0.17506,-0.29324,-0.5334,-0.088875,0.95655,0.21863,-0.15538,0.049592,-0.027688,-0.09582,-0.2644,0.078783,0.58562,-0.013147,0.055952
0.026674,-0.014518,0.015164,-0.019095,0.059596,-0.19229,-0.48625,0.017404,-0.11251,0.32112,-0.28594,-0.46908,-0.13136,0.64497,0.20442,-0.14828,0.042111,-0.029778,-0.13486,-0.23982,0.084333,0.48642,-0.035034,0.04737
0.017747,-0.014156,0.024102,-0.013776,0.033163,-0.3068,-0.49747,0.0087584,-0.081847,0.47224,-0.28403,-0.38231,-0.17891,0.34366,0.19016,-0.13146,0.04,-0.032904,-0.17545,-0.20069,0.081441,0.38439,-0.056241,0.025041
0.013588,-0.010876,0.031723,-0.01123,-0.00094516,-0.42319,-0.4996,0.0011886,-0.039007,0.62027,-0.28994,-0.28768,-0.20031,0.12764,0.18115,-0.092518,0.042542,-0.036738,-0.21766,-0.1532,0.067178,0.28115,-0.067183,-0.0071408
0.015009,-0.005728,0.034418,-0.010951,-0.044458,-0.54756,-0.50019,-0.0071789,0.012336,0.73963,-0.30253,-0.20306,-0.1616,0.045304,0.17911,-0.034094,0.045894,-0.039889,-0.26309,-0.11102,0.042853,0.17259,-0.065175,-0.046229
0.019744,-0.00068268,0.031426,-0.013108,-0.091967,-0.67768,-0.50624,-0.015925,0.058173,0.79149,-0.31766,-0.13925,-0.049568,0.1164,0.1844,0.027134,0.045792,-0.041237,-0.31498,-0.088613,0.013257,0.047542,-0.054606,-0.09011
0.023857,0.0023746,0.024801,-0.018049,-0.13566,-0.79989,-0.52048,-0.022474,0.081985,0.74641,-0.33064,-0.094543,0.11908,0.33416,0.19879,0.075294,0.040208,-0.041315,-0.37738,-0.092934,-0.016414,-0.10978,-0.042094,-0.13581
0.024372,0.0025644,0.0177,-0.024911,-0.1717,-0.89696,-0.53968,-0.024849,0.076248,0.60841,-0.33816,-0.056468,0.30648,0.66152,0.22483,0.11223,0.030331,-0.042303,-0.45335,-0.11975,-0.043633,-0.31412,-0.031186,-0.1785
0.021309,0.00041919,0.012371,-0.031069,-0.2021,-0.95882,-0.55621,-0.024147,0.048371,0.41871,-0.33785,-0.0083499,0.47226,1.0276,0.26198,0.16118,0.01955,-0.04632,-0.54316,-0.15741,-0.069308,-0.57358,-0.020806,-0.21273
0.017505,-0.0024223,0.0091973,-0.033432,-0.23092,-0.98632,-0.56204,-0.024118,0.015907,0.2336,-0.32605,0.063658,0.59056,1.3415,0.30338,0.25156,0.011314,-0.053331,-0.64297,-0.19507,-0.0957,-0.88707,-0.0078829,-0.23509
0.016177,-0.0041325,0.00714,-0.030729,-0.25877,-0.98556,-0.55287,-0.02814,-0.0055508,0.092749,-0.29663,0.16592,0.6582,1.5278,0.33732,0.39491,0.0071836,-0.060582,-0.74473,-0.229,-0.12315,-1.2453,0.0089168,-0.24553
0.018066,-0.003741,0.0049988,-0.02475,-0.28138,-0.96024,-0.52978,-0.036422,-0.01253,0.0021546,-0.24318,0.29529,0.69163,1.5672,0.35329,0.57053,0.0061443,-0.064429,-0.83732,-0.26259,-0.14815,-1.6323,0.0278,-0.24579
0.020618,-0.0016152,0.0024637,-0.019257,-0.29396,-0.91097,-0.49805,-0.045939,-0.014424,-0.057228,-0.1641,0.43904,0.7148,1.5056,0.34794,0.73349,0.0054726,-0.063316,-0.9088,-0.30106,-0.16444,-2.0252,0.045458,-0.23623
0.020112,0.00099863,0.00028676,-0.017217,-0.2972,-0.84281,-0.46432,-0.052817,-0.024942,-0.106,-0.066789,0.57682,0.7439,1.4216,0.32622,0.84049,0.0025569,-0.0594,-0.94916,-0.34537,-0.16646,-2.3902,0.059562,-0.21462
0.01508,0.0029846,-0.00042305,-0.018578,-0.29916,-0.77232,-0.43378,-0.05469,-0.051317,-0.14896,0.032946,0.68549,0.77753,1.3714,0.2971,0.8755,-0.0034293,-0.057204,-0.95278,-0.39005,-0.15274,-2.6817,0.069689,-0.17864
0.0079625,0.0040026,0.00080657,-0.020451,-0.31036,-0.72416,-0.40838,-0.051016,-0.089153,-0.17631,0.11671,0.74656,0.79941,1.3551,0.26764,0.85676,-0.010933,-0.060106,-0.91938,-0.42554,-0.12664,-2.8471,0.076373,-0.13042
0.0033052,0.0041995,0.0032684,-0.019593,-0.33544,-0.71676,-0.386,-0.041823,-0.12569,-0.17809,0.17131,0.75333,0.79287,1.3322,0.24,0.82046,-0.01672,-0.067443,-0.85309,-0.44253,-0.093746,-2.8422,0.079898,-0.078658
0.0038624,0.0034108,0.0053915,-0.015175,-0.36827,-0.74792,-0.36047,-0.026923,-0.14801,-0.15621,0.19358,0.71374,0.75656,1.2691,0.21276,0.79393,-0.017393,-0.074641,-0.75993,-0.43552,-0.057853,-2.6467,0.080263,-0.036133
0.0080825,0.0009118,0.005728,-0.0095473,-0.39477,-0.79351,-0.32311,-0.0066782,-0.15006,-0.12373,0.18978,0.64675,0.70779,1.1741,0.18426,0.77766,-0.010976,-0.076345,-0.64566,-0.40416,-0.018957,-2.2743,0.077775,-0.014004
0.011388,-0.0037635,0.0039489,-0.0063985,-0.40188,-0.82205,-0.26621,0.016759,-0.13462,-0.094335,0.17078,0.57399,0.66929,1.088,0.15476,0.74808,0.0020342,-0.070072,-0.51517,-0.35343,0.02473,-1.7687,0.072624,-0.01747
0.010241,-0.009695,0.0011609,-0.0078869,-0.38593,-0.81437,-0.18756,0.039681,-0.11025,-0.073057,0.14682,0.51122,0.64953,1.0403,0.12632,0.67691,0.018628,-0.057609,-0.37385,-0.29273,0.07202,-1.1899,0.063015,-0.045361
0.0053188,-0.014553,-0.00070609,-0.013119,-0.35435,-0.77305,-0.093653,0.058863,-0.086163,-0.055945,0.12476,0.46428,0.63402,1.0151,0.10135,0.55172,0.034502,-0.043371,-0.22922,-0.23374,0.11544,-0.60076,0.044022,-0.092243
0.00081332,-0.016197,-8.4579e-005,-0.019106,-0.32008,-0.71543,0.00098601,0.073507,-0.067979,-0.036807,0.1081,0.43063,0.59675,0.9617,0.081102,0.38372,0.046269,-0.03131,-0.090541,-0.18652,0.14324,-0.059435,0.0099654,-0.1494
0.00042192,-0.01469,0.0032023,-0.02318,-0.29347,-0.65785,0.078645,0.084974,-0.056179,-0.013317,0.097947,0.40437,0.52314,0.84076,0.0644,0.19962,0.053497,-0.022769,0.033973,-0.1551,0.14678,0.38313,-0.03959,-0.20339
0.0037272,-0.012698,0.0077283,-0.024705,-0.27792,-0.60468,0.12527,0.094358,-0.047346,0.012563,0.093137,0.38108,0.42478,0.66375,0.046793,0.026094,0.059003,-0.016516,0.14047,-0.13549,0.12826,0.68879,-0.094486,-0.23522
0.0063876,-0.013512,0.011271,-0.024764,-0.27118,-0.54905,0.1356,0.10034,-0.037329,0.038228,0.089618,0.35955,0.33268,0.48669,0.020836,-0.12202,0.066655,-0.010375,0.2305,-0.11814,0.10249,0.84346,-0.13509,-0.22479
0.0040787,-0.018167,0.012236,-0.024428,-0.26954,-0.4807,0.11409,0.099797,-0.024572,0.062997,0.080907,0.34037,0.27461,0.36354,-0.021091,-0.24358,0.077909,-0.0030391,0.30859,-0.094076,0.08949,0.86705,-0.14192,-0.16108
-0.0033661,-0.024309,0.010821,-0.023434,-0.27035,-0.39152,0.071702,0.090904,-0.011617,0.086982,0.060925,0.32308,0.25591,0.30119,-0.08171,-0.34467,0.089802,0.0050294,0.378,-0.060343,0.10229,0.80981,-0.10875,-0.052268
-0.011437,-0.028042,0.0090762,-0.020609,-0.27126,-0.27513,0.020873,0.076078,-0.0036976,0.10841,0.028395,0.30454,0.25942,0.25605,-0.1545,-0.42979,0.096462,0.0119,0.43814,-0.020921,0.13813,0.73027,-0.049639,0.072819
-0.014663,-0.027278,0.0096375,-0.015658,-0.26837,-0.1258,-0.028651,0.061748,-0.0052772,0.12317,-0.010269,0.27976,0.26279,0.17386,-0.22404,-0.49582,0.093508,0.015405,0.48531,0.017812,0.18006,0.66541,0.0067148,0.17582
-0.011388,-0.023569,0.013889,-0.010548,-0.25651,0.057098,-0.071639,0.054785,-0.016943,0.12755,-0.042568,0.24436,0.25626,0.035923,-0.27245,-0.5314,0.082051,0.014708,0.51583,0.053232,0.20824,0.6126,0.033068,0.22732
-0.0054198,-0.020711,0.020907,-0.0088891,-0.23246,0.26042,-0.10694,0.058226,-0.034961,0.12128,-0.056264,0.1967,0.24531,-0.12818,-0.28829,-0.52163,0.068837,0.011316,0.52845,0.088977,0.21275,0.53696,0.019619,0.22114
-0.0030673,-0.021451,0.028048,-0.013347,-0.19812,0.45403,-0.13568,0.069601,-0.053733,0.10787,-0.046913,0.13774,0.23805,-0.26901,-0.27204,-0.45632,0.061889,0.0086261,0.52428,0.13141,0.19859,0.39892,-0.021213,0.17513
-0.0079918,-0.025355,0.032771,-0.022962,-0.16054,0.60102,-0.15914,0.08309,-0.06919,0.092169,-0.021375,0.069062,0.23122,-0.35891,-0.23399,-0.33812,0.064731,0.0098197,0.50484,0.18288,0.17963,0.18179,-0.064217,0.11849
-0.018173,-0.029744,0.034233,-0.032742,-0.12809,0.67766,-0.17701,0.093759,-0.080684,0.078435,0.0058262,-0.0085671,0.20893,-0.41236,-0.18644,-0.18581,0.07369,0.015338,0.47086,0.23766,0.16714,-0.09997,-0.087629,0.074714
-0.027464,-0.032518,0.033417,-0.036437,-0.10562,0.68843,-0.18654,0.10076,-0.090363,0.071308,0.021593,-0.094471,0.1554,-0.47378,-0.13637,-0.029168,0.080601,0.021992,0.42331,0.28473,0.16186,-0.41436,-0.084458,0.051429
-0.030399,-0.033929,0.031902,-0.030878,-0.092085,0.6628,-0.18317,0.10737,-0.10102,0.07812,0.022921,-0.18581,0.069219,-0.58984,-0.083949,0.10289,0.078994,0.024913,0.36575,0.31545,0.15545,-0.73163,-0.06219,0.042083
-0.026284,-0.035586,0.030559,-0.018603,-0.082255,0.63494,-0.16243,0.11808,-0.11398,0.10803,0.019023,-0.27684,-0.033653,-0.78936,-0.027189,0.19475,0.068932,0.021278,0.30544,0.33005,0.13859,-1.0316,-0.033747,0.035311
-0.019379,-0.037961,0.029334,-0.0063815,-0.070946,0.62135,-0.12278,0.135,-0.12781,0.16571,0.024959,-0.36171,-0.13049,-1.0783,0.032062,0.24912,0.056703,0.012897,0.2514,0.33709,0.10816,-1.2937,-0.0084712,0.023483
-0.015257,-0.039267,0.028021,-0.0003666,-0.056612,0.61391,-0.067911,0.15581,-0.13775,0.24344,0.050681,-0.43933,-0.20587,-1.4408,0.086349,0.28162,0.049663,0.0052914,0.21035,0.34604,0.067866,-1.4839,0.010328,0.0047867
-0.016483,-0.037115,0.026932,-0.0015527,-0.042178,0.5923,-0.0072944,0.17449,-0.13579,0.31944,0.093002,-0.51538,-0.25765,-1.8385,0.12661,0.30902,0.050483,0.0036282,0.18323,0.35892,0.023109,-1.5572,0.02191,-0.020023
-0.021079,-0.031343,0.02669,-0.0053117,-0.032957,0.54438,0.046141,0.18393,-0.11246,0.3673,0.13653,-0.59796,-0.29212,-2.2127,0.14848,0.33951,0.055457,0.0086137,0.165,0.36817,-0.023861,-1.4799,0.024512,-0.050731
-0.024707,-0.024956,0.027478,-0.005545,-0.033181,0.47722,0.080889,0.17878,-0.06103,0.37209,0.16365,-0.68891,-0.31544,-2.5016,0.15561,0.37117,0.058025,0.015699,0.14825,0.3621,-0.073649,-1.2555,0.016004,-0.086711
-0.024443,-0.021908,0.028781,-2.0163e-005,-0.043201,0.41121,0.092067,0.15705,0.01659,0.34154,0.16718,-0.77803,-0.33007,-2.6697,0.15746,0.39773,0.054317,0.018393,0.12827,0.33345,-0.12514,-0.92933,-0.0024419,-0.12321
-0.020918,-0.023624,0.029983,0.0076725,-0.058918,0.36429,0.083694,0.12026,0.10603,0.30284,0.15645,-0.84674,-0.33747,-2.7289,0.16316,0.41553,0.046025,0.013199,0.10645,0.28383,-0.17209,-0.56719,-0.024567,-0.14976
-0.017258,-0.02763,0.031072,0.01122,-0.073895,0.34017,0.066011,0.0727,0.18285,0.28656,0.15164,-0.88051,-0.34142,-2.7283,0.17615,0.4257,0.038505,0.0023993,0.089604,0.22168,-0.20527,-0.22353,-0.042148,-0.15401
-0.01609,-0.029739,0.03247,0.0070004,-0.083047,0.32913,0.049174,0.02064,0.22242,0.30994,0.16962,-0.88133,-0.34636,-2.7148,0.19283,0.4306,0.036205,-0.0073757,0.085424,0.15676,-0.21871,0.072767,-0.05067,-0.12914
-0.017373,-0.027856,0.034004,-0.0028868,-0.085601,0.31829,0.037585,-0.028742,0.21275,0.37203,0.21122,-0.8698,-0.35187,-2.6942,0.20546,0.42912,0.039486,-0.0097001,0.096962,0.097029,-0.2145,0.30717,-0.052129,-0.079041
-0.018827,-0.023864,0.034249,-0.01241,-0.085096,0.30132,0.028908,-0.069025,0.16211,0.46203,0.2601,-0.87397,-0.35028,-2.6285,0.20672,0.41555,0.045164,-0.0027404,0.11988,0.049532,-0.20122,0.46091,-0.052039,-0.016804
-0.018274,-0.021812,0.031306,-0.016391,-0.086172,0.2805,0.017996,-0.096734,0.094846,0.56957,0.29468,-0.9125,-0.33202,-2.4737,0.19282,0.38323,0.049593,0.0095419,0.14491,0.02224,-0.18761,0.51219,-0.053347,0.043233
-0.015587,-0.024121,0.024601,-0.014076,-0.090533,0.26196,0.001863,-0.11286,0.036986,0.68457,0.30439,-0.98495,-0.2955,-2.226,0.1637,0.32962,0.051204,0.02008,0.16418,0.022475,-0.17697,0.46234,-0.053125,0.094165
-0.012566,-0.029334,0.016019,-0.0087573,-0.095477,0.24996,-0.018656,-0.12219,0.00060049,0.78659,0.2977,-1.0761,-0.25256,-1.9334,0.12108,0.25805,0.050644,0.023373,0.17708,0.051924,-0.1671,0.36118,-0.045364,0.1399
-0.011121,-0.033446,0.0090147,-0.0044112,-0.096474,0.24501,-0.041206,-0.13024,-0.021779,0.83822,0.29503,-1.1697,-0.22343,-1.6609,0.066354,0.17471,0.049235,0.018992,0.19075,0.10311,-0.15459,0.29813,-0.027289,0.19099
-0.011625,-0.033474,0.0061552,-0.0026485,-0.091697,0.24528,-0.064744,-0.13963,-0.048382,0.79758,0.31245,-1.2602,-0.22384,-1.4411,-9.6212e-006,0.083468,0.047794,0.011595,0.21415,0.16221,-0.13846,0.35372,-0.0031827,0.25588
-0.012854,-0.029925,0.0070999,-0.0024402,-0.084504,0.24789,-0.089261,-0.1484,-0.091269,0.64864,0.34912,-1.3499,-0.25431,-1.2562,-0.076983,-0.016667,0.046777,0.0075232,0.24996,0.21768,-0.11944,0.54512,0.017976,0.33368
-0.013233,-0.02598,0.0087583,-0.0021669,-0.081464,0.24822,-0.11267,-0.15201,-0.14392,0.42735,0.38868,-1.4361,-0.2998,-1.071,-0.1603,-0.12861,0.046945,0.010377,0.29087,0.26824,-0.096656,0.81076,0.029061,0.41318
-0.012004,-0.024341,0.0075502,-0.0015434,-0.087383,0.23898,-0.12891,-0.14727,-0.183,0.21742,0.41305,-1.4976,-0.33953,-0.88587,-0.24075,-0.25012,0.049268,0.018732,0.32384,0.32333,-0.066426,1.0494,0.029804,0.47881
-0.0093314,-0.024807,0.0019742,-0.0015681,-0.10139,0.21194,-0.13035,-0.13536,-0.18347,0.10943,0.41723,-1.4956,-0.35869,-0.75865,-0.30573,-0.36766,0.05396,0.027564,0.33939,0.3953,-0.025688,1.1831,0.026273,0.51986
-0.0056926,-0.024812,-0.0064725,-0.0029193,-0.11713,0.16307,-0.11287,-0.12123,-0.13638,0.14703,0.41318,-1.392,-0.3537,-0.76922,-0.34456,-0.45659,0.05983,0.032165,0.33847,0.48894,0.02308,1.1962,0.025847,0.5369
-0.0014609,-0.022217,-0.014599,-0.0047633,-0.12657,0.097528,-0.078246,-0.10998,-0.056572,0.29795,0.42033,-1.1751,-0.32918,-0.95079,-0.35508,-0.49004,0.064954,0.031469,0.33134,0.59647,0.07079,1.1238,0.032242,0.54075
0.0029444,-0.017557,-0.019967,-0.0053281,-0.12407,0.030349,-0.030548,-0.10303,0.0253,0.47235,0.45049,-0.87351,-0.29179,-1.2436,-0.34698,-0.453,0.068228,0.028345,0.3292,0.70121,0.10654,1.0118,0.044166,0.54401
0.0068687,-0.013558,-0.022696,-0.0036499,-0.10785,-0.019204,0.03021,-0.097599,0.080798,0.57676,0.49875,-0.54785,-0.24703,-1.509,-0.33766,-0.35397,0.070247,0.026964,0.33569,0.78683,0.12435,0.88571,0.057437,0.55052
0.0097303,-0.012436,-0.025421,-0.00069511,-0.07849,-0.036722,0.11007,-0.089569,0.099524,0.56588,0.5461,-0.26379,-0.19996,-1.5937,-0.34173,-0.22595,0.072567,0.029603,0.34493,0.84527,0.1258,0.75214,0.067828,0.55053
0.011572,-0.013665,-0.031451,0.0012796,-0.036938,-0.019699,0.21478,-0.07752,0.092564,0.4585,0.57075,-0.062791,-0.15609,-1.3993,-0.3606,-0.11417,0.075998,0.035287,0.34731,0.8787,0.1162,0.61853,0.072545,0.52643
0.013076,-0.014388,-0.04234,0.00052214,0.01581,0.021855,0.33933,-0.064246,0.082443,0.31193,0.55976,0.051232,-0.11905,-0.91478,-0.3804,-0.055967,0.079634,0.040871,0.33761,0.8953,0.098392,0.50077,0.070564,0.46602
0.014786,-0.0121,-0.056449,-0.0028918,0.077012,0.071583,0.46337,-0.054603,0.087613,0.17977,0.51376,0.10367,-0.086514,-0.20812,-0.38141,-0.063948,0.081622,0.043259,0.31905,0.90303,0.070261,0.40813,0.063034,0.37415
0.016312,-0.0070082,-0.069553,-0.0072547,0.14044,0.11584,0.55906,-0.051673,0.11217,0.084658,0.44339,0.1282,-0.049288,0.60029,-0.35311,-0.12252,0.080968,0.041167,0.30077,0.90552,0.02873,0.32438,0.053755,0.27315
0.016538,-0.0018352,-0.077272,-0.010562,0.19678,0.1501,0.60798,-0.054687,0.14638,0.020042,0.36138,0.1486,0.0031391,1.3607,-0.30337,-0.19961,0.07866,0.035721,0.29168,0.90212,-0.023653,0.21271,0.04835,0.19027
0.014865,0.00072151,-0.077857,-0.011776,0.23665,0.17901,0.61489,-0.06042,0.17502,-0.03006,0.27595,0.17335,0.073272,1.9191,-0.25392,-0.26552,0.077048,0.030075,0.29555,0.89103,-0.075958,0.047698,0.051374,0.14057
0.012293,0.00040198,-0.07347,-0.011185,0.25452,0.21068,0.60698,-0.066562,0.18589,-0.075254,0.18955,0.20198,0.14956,2.1594,-0.22478,-0.30665,0.07807,0.028197,0.31029,0.8723,-0.11333,-0.15425,0.062993,0.11809
0.011054,-0.00060243,-0.068958,-0.0099685,0.25098,0.24948,0.6175,-0.073832,0.17269,-0.11871,0.1026,0.23411,0.20961,2.0606,-0.21955,-0.3262,0.081837,0.032886,0.3303,0.84871,-0.12575,-0.3396,0.078313,0.10226
0.012836,4.4754e-005,-0.068828,-0.0095158,0.23192,0.29269,0.66456,-0.084904,0.13323,-0.16638,0.018757,0.27381,0.2326,1.7291,-0.22323,-0.3338,0.086638,0.04363,0.3493,0.82384,-0.11427,-0.45987,0.09073,0.074691
0.017118,0.0024978,-0.074443,-0.010841,0.20552,0.33333,0.73975,-0.10122,0.068186,-0.23052,-0.053237,0.3276,0.21439,1.366,-0.21396,-0.33369,0.090139,0.055893,0.36196,0.79955,-0.089963,-0.51555,0.096966,0.033274
0.021236,0.0046221,-0.08335,-0.014066,0.17903,0.36686,0.81463,-0.12069,-0.016209,-0.32058,-0.10352,0.39973,0.17571,1.1692,-0.17895,-0.32091,0.090716,0.063167,0.36416,0.77493,-0.066245,-0.55812,0.099425,-0.007366
0.022352,0.0041474,-0.091149,-0.018083,0.15729,0.39606,0.86002,-0.13848,-0.10409,-0.42965,-0.12863,0.48823,0.15659,1.2251,-0.12204,-0.28766,0.088096,0.061187,0.35314,0.74771,-0.050458,-0.64188,0.10346,-0.02882
0.019733,0.00095022,-0.094474,-0.020806,0.14322,0.42964,0.86443,-0.1501,-0.17106,-0.53096,-0.13667,0.58293,0.19666,1.4667,-0.058256,-0.23349,0.083174,0.051354,0.32816,0.71657,-0.040537,-0.76537,0.11173,-0.024211
0.015409,-0.0027155,-0.092963,-0.020324,0.13883,0.47485,0.8384,-0.15427,-0.19352,-0.59045,-0.14479,0.66607,0.31027,1.728,-0.0015814,-0.17017,0.077322,0.040253,0.29141,0.68198,-0.028505,-0.85754,0.12052,-0.003637
0.012606,-0.004208,-0.089008,-0.016421,0.1452,0.52912,0.80282,-0.15323,-0.16153,-0.58664,-0.16909,0.71658,0.47138,1.8552,0.043294,-0.11669,0.071578,0.034972,0.24839,0.64462,-0.0074252,-0.82918,0.12143,0.013705
0.013256,-0.002779,-0.085783,-0.011253,0.16097,0.5773,0.77051,-0.15056,-0.085872,-0.52289,-0.21387,0.71863,0.62107,1.7927,0.079712,-0.087913,0.066031,0.03765,0.20702,0.60288,0.02343,-0.65136,0.10686,0.013153
0.016613,-3.8746e-005,-0.085152,-0.00826,0.1808,0.59738,0.73541,-0.14852,0.0071142,-0.42452,-0.26842,0.67097,0.69815,1.5883,0.11184,-0.085383,0.059788,0.043754,0.17536,0.55234,0.058197,-0.39336,0.074814,-0.0073551
0.020008,0.0017019,-0.086812,-0.0097758,0.19599,0.57201,0.67771,-0.14717,0.089645,-0.32646,-0.315,0.59064,0.67602,1.3307,0.13963,-0.096867,0.051752,0.045762,0.15873,0.48839,0.087905,-0.18164,0.029424,-0.040085
0.020961,0.0015222,-0.088878,-0.01508,0.19838,0.49908,0.58061,-0.14545,0.14564,-0.26277,-0.34232,0.50578,0.58045,1.0783,0.16036,-0.10446,0.04185,0.039313,0.15759,0.4104,0.10462,-0.10744,-0.02206,-0.0767
0.018868,0.00043666,-0.089115,-0.020594,0.1856,0.39483,0.44555,-0.14282,0.17426,-0.26334,-0.35391,0.44088,0.47297,0.83397,0.17395,-0.095107,0.031782,0.026738,0.16769,0.324,0.10387,-0.15749,-0.072503,-0.11469
0.015079,1.798e-005,-0.085975,-0.022314,0.16406,0.28695,0.29401,-0.13978,0.18338,-0.35309,-0.36452,0.40427,0.40917,0.56959,0.18556,-0.066468,0.024398,0.015071,0.18279,0.23913,0.085384,-0.22701,-0.1158,-0.15582
0.011614,0.00061728,-0.079129,-0.018746,0.14612,0.20136,0.1546,-0.13681,0.18019,-0.54645,-0.38734,0.38749,0.40169,0.26255,0.20198,-0.02534,0.021852,0.010335,0.19841,0.1648,0.05319,-0.20712,-0.14628,-0.19959
0.0097684,0.0010285,-0.069648,-0.012087,0.14243,0.15013,0.045701,-0.1329,0.16653,-0.83707,-0.42298,0.37627,0.41592,-0.091756,0.22499,0.018958,0.023781,0.012916,0.2143,0.10425,0.015418,-0.075887,-0.15904,-0.23893
0.0095858,-8.3628e-005,-0.05987,-0.0067469,0.15436,0.12776,-0.033209,-0.12515,0.14068,-1.1919,-0.45982,0.36322,0.40128,-0.4917,0.24815,0.061443,0.027016,0.01765,0.23324,0.053758,-0.017346,0.081926,-0.15218,-0.26272
0.010207,-0.0025277,-0.052784,-0.006362,0.17251,0.11797,-0.09637,-0.11038,0.10159,-1.5587,-0.48579,0.35112,0.33232,-0.93819,0.26053,0.10506,0.027307,0.018171,0.25674,0.0058772,-0.035892,0.14331,-0.12905,-0.26278
0.010498,-0.0045293,-0.050849,-0.011521,0.18305,0.10618,-0.15902,-0.087369,0.050664,-1.8874,-0.50147,0.34506,0.22652,-1.421,0.25475,0.16005,0.021976,0.011714,0.28048,-0.045439,-0.036924,0.047367,-0.097995,-0.23911
0.0095136,-0.0044795,-0.05467,-0.019684,0.17736,0.088655,-0.22829,-0.05833,-0.0094512,-2.1507,-0.52259,0.34248,0.1259,-1.8961,0.23261,0.23962,0.011637,0.00065802,0.2934,-0.1013,-0.025192,-0.15456,-0.069217,-0.19942
0.0068241,-0.0027524,-0.062426,-0.027013,0.15765,0.071912,-0.30345,-0.028073,-0.075893,-2.3503,-0.56891,0.33219,0.060148,-2.286,0.20383,0.35294,-0.00027827,-0.0098923,0.28207,-0.15816,-0.0112,-0.33975,-0.051247,-0.15436
0.0028211,-0.0016199,-0.070629,-0.030585,0.13421,0.06361,-0.38177,-0.0011949,-0.14377,-2.5008,-0.64776,0.304,0.02346,-2.5201,0.17852,0.49761,-0.0098815,-0.016096,0.23799,-0.21147,-0.0058664,-0.41242,-0.049248,-0.11267
-0.0012109,-0.0031245,-0.075959,-0.029568,0.1169,0.062998,-0.46162,0.020942,-0.20316,-2.6038,-0.74575,0.25984,-0.016907,-2.5886,0.15983,0.65559,-0.015411,-0.017775,0.16298,-0.25992,-0.015934,-0.38004,-0.064904,-0.078924
-0.0036087,-0.0069164,-0.077008,-0.025058,0.10808,0.059457,-0.53989,0.041216,-0.2395,-2.6305,-0.83541,0.21503,-0.090461,-2.5623,0.14229,0.79663,-0.018219,-0.017793,0.068386,-0.30737,-0.042926,-0.3466,-0.095783,-0.052996
-0.0033562,-0.0103,-0.074787,-0.019156,0.10245,0.040635,-0.6082,0.064588,-0.24003,-2.5313,-0.89227,0.18761,-0.19933,-2.5493,0.11767,0.88937,-0.021551,-0.019446,-0.03137,-0.36101,-0.0849,-0.42833,-0.13362,-0.030065
-0.00093524,-0.010675,-0.071635,-0.013981,0.092972,0.0030695,-0.65493,0.093815,-0.20301,-2.2686,-0.90946,0.18506,-0.31954,-2.6132,0.084106,0.91432,-0.028105,-0.02411,-0.12622,-0.42681,-0.13792,-0.6584,-0.16426,-0.0024056
0.0017596,-0.0081495,-0.069342,-0.010945,0.077198,-0.044372,-0.67347,0.12586,-0.14242,-1.8519,-0.89985,0.20033,-0.42308,-2.7124,0.05173,0.86997,-0.038196,-0.03076,-0.21335,-0.50512,-0.19543,-0.95497,-0.17253,0.034747
0.0025334,-0.0057576,-0.067786,-0.010335,0.058475,-0.088024,-0.66956,0.1519,-0.082605,-1.3464,-0.88537,0.21999,-0.49874,-2.7135,0.0399,0.76755,-0.0497,-0.037305,-0.2937,-0.58928,-0.24732,-1.1774,-0.15138,0.074884
0.00027341,-0.0068949,-0.065009,-0.011332,0.041848,-0.12216,-0.65952,0.16166,-0.044902,-0.84383,-0.88217,0.23616,-0.5546,-2.4782,0.066236,0.61881,-0.059521,-0.042326,-0.36547,-0.66777,-0.28164,-1.2281,-0.10877,0.096669
-0.0043852,-0.012243,-0.058649,-0.01261,0.029067,-0.1563,-0.65965,0.14967,-0.034928,-0.41078,-0.8916,0.2507,-0.60405,-1.9671,0.13312,0.42758,-0.065271,-0.045722,-0.42081,-0.72856,-0.28957,-1.1224,-0.065224,0.072289
-0.0095378,-0.018998,-0.047783,-0.01325,0.017348,-0.21043,-0.67521,0.11925,-0.039786,-0.055395,-0.9016,0.2688,-0.65141,-1.2888,0.21997,0.19271,-0.066066,-0.047935,-0.4491,-0.76322,-0.26995,-0.97598,-0.041436,-0.014006
-0.013224,-0.023131,-0.034054,-0.013317,0.0025138,-0.30123,-0.6986,0.081206,-0.037515,0.26003,-0.89565,0.28959,-0.69009,-0.65909,0.28784,-0.079726,-0.062452,-0.048796,-0.4451,-0.76923,-0.2292,-0.91942,-0.044179,-0.15001
-0.014528,-0.022618,-0.021351,-0.013545,-0.017019,-0.42955,-0.718,0.047757,-0.012116,0.56652,-0.86271,0.30426,-0.71089,-0.29479,0.29644,-0.3661,-0.056151,-0.047445,-0.41577,-0.75075,-0.17632,-1.0031,-0.061747,-0.2969
-0.013902,-0.018816,-0.014089,-0.014327,-0.039395,-0.57876,-0.7288,0.025717,0.03643,0.83985,-0.80283,0.30409,-0.70937,-0.30468,0.22602,-0.62729,-0.050023,-0.043729,-0.38018,-0.71851,-0.11789,-1.1618,-0.073406,-0.41046
-0.012626,-0.014929,-0.014829,-0.014962,-0.062321,-0.72522,-0.73815,0.013488,0.093726,1.0019,-0.72637,0.29039,-0.68558,-0.63979,0.091518,-0.82486,-0.047776,-0.039841,-0.36166,-0.68884,-0.057936,-1.2613,-0.065883,-0.46786
-0.011845,-0.013142,-0.02254,-0.014022,-0.086828,-0.85323,-0.75989,0.0036124,0.14194,0.97843,-0.64835,0.27605,-0.64105,-1.124,-0.06106,-0.94186,-0.052822,-0.040255,-0.37659,-0.68104,-0.002094,-1.193,-0.043791,-0.47968
-0.011858,-0.013047,-0.032713,-0.01066,-0.11791,-0.9639,-0.80459,-0.011389,0.17155,0.76909,-0.58131,0.27577,-0.58064,-1.5421,-0.17635,-0.99481,-0.066516,-0.049216,-0.4267,-0.71254,0.039797,-0.94805,-0.02569,-0.47807
-0.012094,-0.012557,-0.039714,-0.0057103,-0.16092,-1.072,-0.87276,-0.034257,0.18574,0.46763,-0.53039,0.29279,-0.51828,-1.7352,-0.21787,-1.0276,-0.087072,-0.067339,-0.49935,-0.79322,0.057773,-0.62468,-0.029305,-0.49152
-0.011737,-0.010218,-0.040206,-0.0014676,-0.21645,-1.1938,-0.95457,-0.062293,0.19553,0.21016,-0.49277,0.31338,-0.4766,-1.6583,-0.18565,-1.0893,-0.11028,-0.090124,-0.57476,-0.92148,0.050128,-0.36714,-0.058229,-0.52712
-0.010473,-0.0066625,-0.035346,-0.00012834,-0.27801,-1.3348,-1.0345,-0.090305,0.21047,0.089299,-0.46099,0.31431,-0.4744,-1.3791,-0.11225,-1.2065,-0.13175,-0.11012,-0.63556,-1.0846,0.027602,-0.28213,-0.10056,-0.57271
-0.0087908,-0.0039923,-0.02989,-0.0020953,-0.3348,-1.4851,-1.0967,-0.11422,0.23198,0.10383,-0.42699,0.27769,-0.51035,-1.028,-0.040628,-1.3664,-0.14915,-0.12154,-0.67274,-1.2633,0.0071736,-0.38406,-0.13941,-0.61313
-0.0076,-0.0038115,-0.028468,-0.0055009,-0.37785,-1.6233,-1.1301,-0.13264,0.25324,0.18355,-0.38375,0.20215,-0.56022,-0.73168,0.00069001,-1.5204,-0.16262,-0.12391,-0.68598,-1.4388,-0.00090563,-0.59365,-0.16513,-0.64346
-0.007529,-0.0058298,-0.031719,-0.0073171,-0.40519,-1.7263,-1.1313,-0.14601,0.26421,0.26326,-0.32434,0.10221,-0.59582,-0.56315,0.0089121,-1.6087,-0.17354,-0.12182,-0.67961,-1.5977,-0.0014053,-0.77774,-0.17858,-0.66782
-0.00846,-0.0082569,-0.035455,-0.0052146,-0.42184,-1.7752,-1.1074,-0.15488,0.25747,0.33868,-0.2414,-0.0032389,-0.61193,-0.52836,0.00037785,-1.5931,-0.18258,-0.12093,-0.65802,-1.7336,-0.00915,-0.80048,-0.18363,-0.68817
-0.0096632,-0.009489,-0.033861,0.0010784,-0.43462,-1.7589,-1.0736,-0.15918,0.23093,0.45686,-0.13034,-0.10506,-0.63614,-0.58353,-0.0049632,-1.4766,-0.18888,-0.12337,-0.62303,-1.8436,-0.034248,-0.56561,-0.17769,-0.6969
-0.010386,-0.0094347,-0.024422,0.0096236,-0.44526,-1.6743,-1.0457,-0.15844,0.18689,0.65563,0.0046258,-0.21121,-0.70798,-0.66476,0.0054616,-1.2994,-0.1906,-0.12633,-0.57397,-1.9219,-0.070941,-0.047531,-0.15112,-0.68194
-0.010399,-0.0092817,-0.010572,0.017195,-0.44724,-1.5277,-1.0286,-0.15199,0.12932,0.91292,0.14685,-0.34312,-0.84186,-0.71135,0.036388,-1.1126,-0.18608,-0.12462,-0.50929,-1.9541,-0.1012,0.6864,-0.097767,-0.63936
-0.01004,-0.010061,0.00029707,0.020707,-0.42882,-1.3368,-1.0082,-0.13823,0.061992,1.1544,0.27143,-0.52368,-1.0053,-0.67726,0.089786,-0.9484,-0.1746,-0.11503,-0.42894,-1.9182,-0.11082,1.473,-0.027142,-0.58055
-0.0097325,-0.011495,0.0021832,0.018577,-0.3808,-1.1271,-0.95577,-0.11383,-0.011425,1.3117,0.35687,-0.76374,-1.1341,-0.5364,0.16665,-0.80723,-0.15648,-0.098702,-0.3363,-1.7937,-0.10376,2.0907,0.034745,-0.52672
-0.0094264,-0.012259,-0.0049849,0.011558,-0.30371,-0.92332,-0.84218,-0.074544,-0.086328,1.3751,0.39698,-1.0537,-1.1744,-0.28796,0.26277,-0.67044,-0.13295,-0.079903,-0.23869,-1.5753,-0.10099,2.344,0.060119,-0.49573
-0.0085568,-0.011332,-0.015209,0.0025624,-0.20953,-0.73893,-0.6568,-0.018154,-0.15671,1.393,0.40422,-1.3635,-1.1195,0.040319,0.36439,-0.52521,-0.10604,-0.062512,-0.1454,-1.2842,-0.12392,2.1612,0.03945,-0.49329
-0.0066818,-0.0090277,-0.020838,-0.0047095,-0.11697,-0.57375,-0.41597,0.051929,-0.21629,1.4203,0.40133,-1.6501,-1.0113,0.39886,0.45101,-0.38089,-0.078492,-0.047392,-0.063196,-0.96494,-0.17604,1.6458,-0.0099552,-0.51497
-0.0042555,-0.0066904,-0.018062,-0.007828,-0.043528,-0.42385,-0.15532,0.12566,-0.26067,1.4635,0.40673,-1.8703,-0.90693,0.73624,0.5054,-0.26276,-0.053224,-0.032613,0.0079942,-0.66714,-0.23867,1.0326,-0.055281,-0.55462
-0.0026593,-0.0054013,-0.0092485,-0.0071085,0.00066083,-0.296,0.089688,0.18964,-0.28932,1.4742,0.42373,-1.9942,-0.83644,1.0241,0.52272,-0.18951,-0.032475,-0.015982,0.075544,-0.42094,-0.28421,0.56496,-0.071319,-0.60928
-0.0031689,-0.0050578,-0.0004809,-0.005262,0.014101,-0.21248,0.30146,0.23326,-0.30615,1.3909,0.44038,-2.0159,-0.78459,1.2702,0.51005,-0.15448,-0.017032,0.0024447,0.14868,-0.22295,-0.29585,0.36767,-0.056843,-0.6757
-0.0056177,-0.0047447,0.0035411,-0.0051896,0.0015332,-0.19771,0.484,0.25347,-0.31842,1.1922,0.43891,-1.9566,-0.70625,1.5091,0.47654,-0.12766,-0.0061313,0.019867,0.22996,-0.043698,-0.27786,0.40209,-0.031344,-0.74331
-0.0080952,-0.0039441,0.0031759,-0.0074595,-0.028861,-0.25526,0.65081,0.25471,-0.33461,0.91102,0.4072,-1.8583,-0.56046,1.7732,0.42354,-0.077111,0.0018688,0.032474,0.31012,0.14741,-0.24945,0.52845,-0.016075,-0.79292
-0.0082898,-0.0032498,0.0033907,-0.0095467,-0.066382,-0.3549,0.80696,0.24437,-0.36183,0.60481,0.34469,-1.7685,-0.33656,2.065,0.34463,0.008254,0.0084329,0.037986,0.37142,0.35787,-0.22934,0.62093,-0.016587,-0.8049
-0.0055197,-0.0037795,0.0097869,-0.0076995,-0.097854,-0.44425,0.93965,0.22749,-0.40336,0.31226,0.25998,-1.7198,-0.057219,2.3479,0.23653,0.1133,0.01406,0.037203,0.39826,0.56691,-0.22421,0.64438,-0.021634,-0.77185
-0.0015998,-0.005853,0.024267,-0.00014389,-0.10974,-0.4791,1.0248,0.20499,-0.45648,0.03718,0.16332,-1.7148,0.2375,2.5647,0.11107,0.21202,0.018198,0.033654,0.38731,0.74262,-0.22904,0.64192,-0.018092,-0.70549
0.00046094,-0.0083103,0.043522,0.010958,-0.093647,-0.44922,1.0452,0.17611,-0.51183,-0.23052,0.060031,-1.7236,0.50916,2.669,-0.0035878,0.28938,0.019872,0.031591,0.34852,0.86685,-0.23569,0.66119,-0.0071282,-0.63192
-0.0010494,-0.0092571,0.061232,0.02056,-0.052356,-0.37863,1.0064,0.14188,-0.55516,-0.48342,-0.050676,-1.6977,0.73133,2.6483,-0.075795,0.35131,0.018621,0.033548,0.29548,0.94668,-0.23994,0.69549,-0.0062432,-0.57814
-0.0050729,-0.0076287,0.07218,0.024174,-0.0011434,-0.30035,0.93837,0.10595,-0.57214,-0.68893,-0.17114,-1.5932,0.89057,2.5263,-0.088637,0.41612,0.015164,0.038872,0.23242,1.0035,-0.24067,0.69269,-0.034762,-0.55851
-0.0086964,-0.0041494,0.075272,0.021056,0.039084,-0.22725,0.88037,0.071908,-0.55467,-0.81431,-0.29864,-1.3942,0.9844,2.3435,-0.049679,0.49706,0.011363,0.044207,0.14908,1.0503,-0.23392,0.61716,-0.09519,-0.56939
-0.0096217,-0.0008005,0.073509,0.014625,0.054009,-0.14383,0.85993,0.040063,-0.50552,-0.86025,-0.42211,-1.1214,1.0204,2.1338,0.015198,0.59175,0.0094254,0.045805,0.028867,1.0779,-0.21017,0.50088,-0.1666,-0.59416
-0.0079196,0.00073446,0.071271,0.0098402,0.045496,-0.024598,0.8796,0.00746,-0.43796,-0.86955,-0.52521,-0.82363,1.0147,1.9114,0.079096,0.68617,0.010713,0.042249,-0.13493,1.0622,-0.15964,0.43344,-0.21627,-0.61481
-0.0055451,0.00029003,0.071171,0.009731,0.030935,0.13831,0.92106,-0.028561,-0.36947,-0.89915,-0.59464,-0.55543,0.98678,1.6754,0.12949,0.76704,0.014798,0.035628,-0.3275,0.98665,-0.081636,0.4986,-0.22101,-0.62298
-0.0042791,-0.00088741,0.072871,0.013833,0.031622,0.32322,0.9625,-0.066491,-0.3126,-0.97632,-0.62791,-0.35405,0.95168,1.4267,0.17105,0.83054,0.019354,0.03008,-0.51526,0.85904,0.010765,0.71207,-0.18207,-0.62423
-0.0042151,-0.0013641,0.074471,0.019464,0.057861,0.49258,0.99537,-0.10047,-0.26864,-1.0739,-0.63437,-0.22752,0.91582,1.184,0.2155,0.88059,0.021138,0.028542,-0.662,0.70868,0.09663,1.0099,-0.12307,-0.63302
-0.0042024,-0.00073125,0.074913,0.024304,0.10163,0.61957,1.0275,-0.12449,-0.22854,-1.1253,-0.62762,-0.15818,0.88035,0.9877,0.26808,0.92083,0.017654,0.030155,-0.74697,0.56685,0.15985,1.2897,-0.073166,-0.66076
-0.0035818,0.00019314,0.075088,0.02784,0.14231,0.70457,1.0704,-0.13747,-0.18078,-1.0693,-0.61446,-0.11677,0.84896,0.88531,0.32124,0.94923,0.0085512,0.030518,-0.77225,0.44797,0.19857,1.4647,-0.048383,-0.70389
-0.0032251,0.00021106,0.076663,0.030683,0.16122,0.76908,1.1227,-0.14472,-0.12089,-0.89176,-0.58965,-0.077043,0.83132,0.90687,0.35953,0.9603,-0.0042159,0.024799,-0.75554,0.34715,0.2235,1.4915,-0.044014,-0.74006
-0.0046654,-0.0011905,0.079933,0.032963,0.1539,0.83432,1.1633,-0.15425,-0.055836,-0.63524,-0.54247,-0.023461,0.83642,1.0438,0.37005,0.95108,-0.017699,0.011379,-0.71603,0.25364,0.24663,1.3636,-0.041837,-0.73632
-0.0081704,-0.003442,0.083024,0.033794,0.13137,0.90392,1.1624,-0.17064,0.00028096,-0.37075,-0.47151,0.049522,0.86006,1.2488,0.34948,0.92374,-0.029839,-0.0068353,-0.66556,0.16573,0.26992,1.0958,-0.024899,-0.66585
-0.011842,-0.0053588,0.083485,0.032446,0.11025,0.96353,1.1015,-0.1912,0.03614,-0.15399,-0.39546,0.14227,0.87848,1.4606,0.30289,0.88219,-0.040452,-0.024403,-0.61115,0.092974,0.28311,0.72018,0.011517,-0.52331
-0.012928,-0.0059437,0.080825,0.029827,0.10035,0.99472,0.98631,-0.2069,0.051621,0.0017284,-0.34835,0.25392,0.85689,1.6391,0.23689,0.82664,-0.050472,-0.036907,-0.56367,0.044916,0.27207,0.29272,0.059348,-0.32907
-0.010316,-0.0048605,0.077375,0.028424,0.099311,0.98906,0.84326,-0.20726,0.058597,0.11785,-0.35888,0.38318,0.76992,1.7856,0.15442,0.75281,-0.060129,-0.043228,-0.54176,0.019509,0.23032,-0.11212,0.10533,-0.11954
-0.0058323,-0.0023671,0.076304,0.030378,0.097407,0.95156,0.70131,-0.18577,0.073587,0.21773,-0.42772,0.52682,0.61912,1.9312,0.055712,0.65691,-0.067806,-0.045001,-0.56486,0.0038708,0.16452,-0.42793,0.139,0.070107
-0.0029222,0.001,0.078446,0.035415,0.087378,0.89364,0.57525,-0.14285,0.10759,0.29758,-0.52087,0.67769,0.43362,2.1004,-0.055997,0.54126,-0.070877,-0.044283,-0.64007,-0.012462,0.090586,-0.62858,0.15543,0.22013
-0.0037199,0.0046124,0.081033,0.040692,0.070685,0.82492,0.46149,-0.085421,0.15989,0.32625,-0.58658,0.82397,0.25288,2.2771,-0.16972,0.41397,-0.068078,-0.041844,-0.75446,-0.024715,0.024379,-0.7374,0.15298,0.32964
-0.0071469,0.0077444,0.079832,0.042929,0.055777,0.75084,0.34731,-0.024046,0.21912,0.2735,-0.58495,0.95011,0.10527,2.4021,-0.26773,0.28195,-0.061308,-0.037529,-0.88044,-0.013765,-0.025666,-0.8016,0.13089,0.40955
-0.0098677,0.0096057,0.073,0.040988,0.05082,0.67529,0.22313,0.030663,0.26974,0.14188,-0.50874,1.0404,-0.00066432,2.4051,-0.33199,0.14443,-0.054967,-0.031872,-0.99117,0.038531,-0.059692,-0.85091,0.089909,0.47163
-0.0093185,0.0096015,0.063134,0.036626,0.057302,0.60205,0.087551,0.070842,0.29932,-0.027099,-0.38071,1.0846,-0.067677,2.2496,-0.35138,-0.0053876,-0.052914,-0.026821,-1.0748,0.13237,-0.082499,-0.87519,0.034865,0.52108
-0.0060464,0.0077259,0.05544,0.03278,0.069114,0.53151,-0.056278,0.092531,0.30308,-0.18006,-0.23222,1.0835,-0.095674,1.9584,-0.32513,-0.16961,-0.055369,-0.024421,-1.1373,0.24599,-0.098707,-0.83931,-0.024667,0.5557
-0.0031648,0.0047863,0.053424,0.030995,0.076767,0.4565,-0.20584,0.095341,0.28507,-0.29118,-0.081814,1.0508,-0.078261,1.6039,-0.26133,-0.3349,-0.058471,-0.024568,-1.1941,0.34794,-0.11023,-0.72081,-0.077456,0.57017
-0.0033719,0.0022164,0.055791,0.030279,0.072977,0.36458,-0.35915,0.081667,0.25676,-0.38125,0.069528,1.0086,-0.014041,1.271,-0.173,-0.47255,-0.057118,-0.024281,-1.2562,0.41519,-0.11633,-0.53612,-0.11539,0.56097
-0.0062736,0.0014852,0.057342,0.028301,0.056304,0.24889,-0.50992,0.056412,0.2334,-0.49954,0.22631,0.97811,0.080257,1.0203,-0.074804,-0.55248,-0.048956,-0.019747,-1.3226,0.44274,-0.11475,-0.33246,-0.13611,0.52912
-0.0085185,0.003366,0.053193,0.023712,0.031979,0.12079,-0.64517,0.027053,0.22829,-0.68149,0.38432,0.97119,0.17159,0.87038,0.018952,-0.56196,-0.03625,-0.0097274,-1.3792,0.43947,-0.1028,-0.15357,-0.14197,0.47989
-0.0066953,0.0074673,0.042782,0.017466,0.010651,0.012482,-0.75018,0.0026656,0.24644,-0.91492,0.52877,0.98785,0.22923,0.80542,0.096103,-0.51495,-0.024101,0.0027631,-1.4051,0.41675,-0.078367,-0.0092216,-0.13692,0.4208
