-2.5139e-009,4.8426e-010,1.4412e-009,9.4536e-011,-2.0277e-009,5.5757e-010,2.0354e-009,1.1557e-009,7.2735e-010,2.7975e-010,5.84e-009,4.7287e-009,3.7062e-009,1.0142e-008,4.4779e-009,7.8311e-009,-6.6947e-010,-4.0515e-011,-3.1081e-009,6.3918e-009,-4.5725e-010,1.0823e-009,1.8155e-009,1.1827e-009
-6.941e-008,1.3521e-008,4.0053e-008,3.06e-009,-5.5859e-008,1.5408e-008,5.6451e-008,3.2074e-008,1.9301e-008,1.2264e-008,1.6141e-007,1.2987e-007,1.0239e-007,2.8102e-007,1.2302e-007,2.1535e-007,-1.9071e-008,-1.3781e-009,-8.2342e-008,1.7558e-007,-1.3052e-008,2.9932e-008,5.0786e-008,3.2515e-008
-9.3176e-007,1.8373e-007,5.4144e-007,4.7338e-008,-7.479e-007,2.0694e-007,7.6135e-007,4.3247e-007,2.4804e-007,2.3388e-007,2.1693e-006,1.7336e-006,1.3746e-006,3.7876e-006,1.6414e-006,2.8775e-006,-2.6429e-007,-2.2006e-008,-1.0529e-006,2.3421e-006,-1.8168e-007,4.0306e-007,6.9081e-007,4.345e-007
-8.1018e-006,1.619e-006,4.7436e-006,4.6843e-007,-6.4836e-006,1.8e-006,6.6527e-006,3.7742e-006,2.0563e-006,2.7214e-006,1.8889e-005,1.4984e-005,1.1947e-005,3.3088e-005,1.4169e-005,2.4888e-005,-2.3738e-006,-2.2208e-007,-8.6407e-006,2.0207e-005,-1.6433e-006,3.5222e-006,6.0874e-006,3.7594e-006
-5.1285e-005,1.0398e-005,3.0276e-005,3.3434e-006,-4.09e-005,1.1396e-005,4.233e-005,2.396e-005,1.2357e-005,2.2232e-005,0.00011978,9.4251e-005,7.5536e-005,0.00021063,8.8917e-005,0.00015658,-1.5531e-005,-1.6024e-006,-5.1002e-005,0.00012671,-1.0857e-005,2.2458e-005,3.9056e-005,2.367e-005
-0.00025181,5.1874e-005,0.00015,1.8385e-005,-0.00020002,5.5962e-005,0.00020897,0.0001179,5.7351e-005,0.00013763,0.00058947,0.00045967,0.00037013,0.0010411,0.00043212,0.00076344,-7.8857e-005,-8.8482e-006,-0.00022972,0.00061491,-5.584e-005,0.00011139,0.00019438,0.00011553
-0.00099749,0.00020911,0.00060024,8.1191e-005,-0.00078871,0.00022173,0.00083251,0.00046777,0.00021394,0.00067703,0.0023423,0.001808,0.0014617,0.0041585,0.001691,0.0029999,-0.00032325,-3.903e-005,-0.00081577,0.0024011,-0.00023262,0.00044733,0.00078059,0.00045462
-0.0032734,0.00069952,0.0019923,0.0002962,-0.0025744,0.00072786,0.0027483,0.0015365,0.00065947,0.0027326,0.0077185,0.0058878,0.0047757,0.013788,0.005469,0.0097521,-0.0010985,-0.00014162,-0.0023185,0.0077397,-0.00080619,0.001495,0.002597,0.0014807
-0.0090643,0.0019785,0.0055887,0.00091088,-0.0070843,0.0020164,0.0076577,0.004257,0.0017159,0.0092577,0.021495,0.016165,0.013144,0.038679,0.014879,0.026706,-0.0031526,-0.00043167,-0.0052562,0.020954,-0.0023689,0.0042407,0.0072909,0.0040646
-0.021456,0.0047947,0.013428,0.0023962,-0.016645,0.0047759,0.018244,0.010079,0.0038395,0.026768,0.051285,0.037882,0.030861,0.093094,0.034457,0.062379,-0.0077433,-0.0011225,-0.0091681,0.048185,-0.0059828,0.010362,0.017497,0.0095223
-0.043804,0.010047,0.027898,0.0054512,-0.033679,0.0097557,0.037496,0.020583,0.0075356,0.066873,0.10587,0.076361,0.062324,0.19422,0.068417,0.12529,-0.016429,-0.0025191,-0.010644,0.094712,-0.013115,0.022061,0.036215,0.019197
-0.077558,0.018309,0.050432,0.010809,-0.058975,0.017277,0.066846,0.036464,0.013293,0.14565,0.19042,0.13282,0.10878,0.35389,0.11677,0.21727,-0.030291,-0.00492,-0.0012398,0.15932,-0.025123,0.041302,0.06499,0.033452
-0.11939,0.029089,0.07961,0.018785,-0.089517,0.026578,0.10362,0.056211,0.021749,0.27829,0.29988,0.19892,0.16435,0.56634,0.17084,0.32543,-0.048692,-0.0084129,0.032264,0.2282,-0.042243,0.068523,0.10135,0.050429
-0.15967,0.040246,0.10986,0.028715,-0.11754,0.035455,0.13961,0.07543,0.034198,0.4682,0.41484,0.25373,0.21464,0.79954,0.21202,0.41911,-0.068254,-0.01264,0.10236,0.27425,-0.06249,0.10147,0.13719,0.065541
-0.18481,0.04821,0.13242,0.038695,-0.13269,0.040778,0.16292,0.08795,0.053075,0.6944,0.50553,0.26808,0.2415,1.0002,0.21774,0.4591,-0.083191,-0.016709,0.20995,0.26724,-0.081408,0.13514,0.16039,0.072805
-0.18385,0.049384,0.1392,0.046045,-0.12738,0.040018,0.16387,0.088882,0.081539,0.90632,0.54507,0.21731,0.23371,1.1168,0.17447,0.41926,-0.087583,-0.019413,0.33379,0.19365,-0.093497,0.16327,0.16047,0.068058
-0.15589,0.042256,0.12789,0.048552,-0.10248,0.033041,0.14189,0.078057,0.12146,1.0351,0.52549,0.097458,0.19739,1.1293,0.090643,0.30895,-0.078795,-0.019741,0.43006,0.073992,-0.095191,0.18093,0.13563,0.052355
-0.11275,0.028926,0.10475,0.045831,-0.068628,0.022821,0.10836,0.061155,0.17039,1.0226,0.46428,-0.065947,0.15654,1.0662,-0.001329,0.17804,-0.059796,-0.017429,0.44912,-0.03842,-0.087748,0.18612,0.096,0.032781
-0.073092,0.01464,0.081998,0.039812,-0.04064,0.014121,0.081337,0.046876,0.21974,0.8544,0.3938,-0.22506,0.13908,0.99024,-0.059725,0.09378,-0.038274,-0.013168,0.3645,-0.084223,-0.077705,0.17942,0.059249,0.019098
-0.050846,0.0051015,0.070518,0.033764,-0.027793,0.010654,0.074351,0.041449,0.2567,0.57583,0.33885,-0.33156,0.15545,0.958,-0.058295,0.099635,-0.022538,-0.0082709,0.19672,-0.036392,-0.073722,0.16181,0.040053,0.017765
-0.046354,0.0030115,0.072718,0.030372,-0.027228,0.012684,0.086767,0.044442,0.26992,0.27433,0.29941,-0.36067,0.18641,0.98191,-0.0042934,0.18359,-0.016848,-0.0039406,0.012365,0.077919,-0.081251,0.13327,0.040688,0.027495
-0.04765,0.006247,0.081213,0.030262,-0.026427,0.017017,0.10379,0.049432,0.25563,0.035581,0.25353,-0.32199,0.19264,1.0235,0.064976,0.28109,-0.019548,-0.00057748,-0.10635,0.19272,-0.098672,0.094304,0.050312,0.040028
-0.041433,0.0092114,0.084967,0.0321,-0.013681,0.019544,0.10713,0.049413,0.21932,-0.10018,0.17913,-0.25031,0.14266,1.0243,0.10646,0.31331,-0.025292,0.0024546,-0.10435,0.2483,-0.11793,0.049713,0.054013,0.045927
-0.024747,0.0066746,0.078334,0.03408,0.01171,0.018319,0.088706,0.042685,0.17081,-0.15188,0.076045,-0.18379,0.038344,0.94925,0.099043,0.23407,-0.02925,0.0064556,0.019484,0.23237,-0.12954,0.010708,0.044431,0.041098
-0.0073118,-0.0025515,0.065532,0.035401,0.038331,0.014616,0.056475,0.034203,0.11635,-0.17338,-0.030959,-0.1447,-0.083021,0.80461,0.053691,0.052182,-0.029775,0.012594,0.21949,0.18388,-0.12827,-0.0086902,0.026306,0.028978
-0.0024139,-0.014792,0.056561,0.036358,0.051953,0.011171,0.027631,0.031094,0.054438,-0.21153,-0.11095,-0.13344,-0.17344,0.61862,-0.00063103,-0.18322,-0.02776,0.021075,0.43685,0.15597,-0.11535,-0.00083859,0.010434,0.016976
-0.014432,-0.024178,0.057869,0.037112,0.047433,0.0093455,0.014845,0.036128,-0.020491,-0.27924,-0.14978,-0.13507,-0.20609,0.40545,-0.042109,-0.41724,-0.024236,0.030678,0.63285,0.16943,-0.095908,0.026749,0.0029968,0.010468
-0.034032,-0.026829,0.065861,0.036534,0.032863,0.0079397,0.016858,0.044855,-0.10936,-0.36089,-0.15647,-0.12907,-0.18834,0.15028,-0.070636,-0.61408,-0.019158,0.038992,0.79832,0.19639,-0.074501,0.050997,0.00016558,0.0094231
-0.045057,-0.023458,0.069157,0.0326,0.022484,0.0047172,0.020879,0.048995,-0.20276,-0.43886,-0.14921,-0.095363,-0.14629,-0.16786,-0.10077,-0.757,-0.012583,0.043379,0.93729,0.18762,-0.052696,0.044195,-0.007352,0.0099584
-0.036746,-0.018562,0.057976,0.024262,0.024787,-0.00096219,0.014019,0.043167,-0.28404,-0.51353,-0.13703,-0.01747,-0.096489,-0.53657,-0.14176,-0.83398,-0.0064188,0.042306,1.0444,0.11913,-0.030397,-0.0095993,-0.024656,0.0086635
-0.010717,-0.016952,0.032752,0.01313,0.036309,-0.0070992,-0.0062978,0.029209,-0.33948,-0.59851,-0.11696,0.1117,-0.031163,-0.89348,-0.18421,-0.83059,-0.0040111,0.036318,1.0977,0.017212,-0.0087337,-0.10396,-0.04727,0.0054855
0.022416,-0.020286,0.004556,0.003153,0.046077,-0.010709,-0.031357,0.014534,-0.36681,-0.69829,-0.088949,0.28036,0.070211,-1.1532,-0.20565,-0.74004,-0.007192,0.027918,1.0721,-0.058688,0.0089518,-0.21308,-0.064948,0.0029141
0.052487,-0.026071,-0.013179,-0.0018887,0.045975,-0.010565,-0.049393,0.0061884,-0.37483,-0.79218,-0.071143,0.45216,0.21492,-1.2585,-0.18942,-0.57907,-0.013532,0.020229,0.95921,-0.059657,0.019359,-0.306,-0.070688,0.0029165
0.076544,-0.029656,-0.014855,-0.0012648,0.037458,-0.0083116,-0.055236,0.0057357,-0.37462,-0.84169,-0.096331,0.57419,0.38154,-1.2149,-0.13952,-0.39047,-0.017017,0.015181,0.77474,0.018845,0.022601,-0.36096,-0.066388,0.0048901
0.098065,-0.027562,-0.0066024,0.0018567,0.029098,-0.0068376,-0.053342,0.0089431,-0.37037,-0.81593,-0.18875,0.59966,0.52881,-1.081,-0.078483,-0.22561,-0.012328,0.012444,0.54775,0.13783,0.023365,-0.36963,-0.060318,0.0063979
0.12129,-0.019737,-0.0010001,0.0024889,0.028151,-0.0075262,-0.052762,0.0098721,-0.35797,-0.71366,-0.34129,0.51338,0.62012,-0.92746,-0.030955,-0.11961,0.00075904,0.0099129,0.30217,0.24418,0.028546,-0.32998,-0.059578,0.0055204
0.14701,-0.0092907,-0.0072202,-0.0026509,0.034335,-0.0090919,-0.059464,0.0054993,-0.33177,-0.56475,-0.51449,0.3424,0.64195,-0.79867,-0.0074678,-0.078338,0.016888,0.0053643,0.047531,0.30082,0.043187,-0.2372,-0.064966,0.0022987
0.17314,-0.00017844,-0.024547,-0.012899,0.041138,-0.0090979,-0.072642,-0.0027399,-0.2925,-0.4121,-0.65959,0.14238,0.60345,-0.70596,-0.0011759,-0.084287,0.029141,-0.0020031,-0.21449,0.29521,0.067897,-0.083348,-0.072477,-0.0019253
0.19788,0.0053913,-0.043991,-0.024378,0.042546,-0.0065551,-0.087114,-0.010874,-0.24818,-0.28986,-0.74608,-0.032691,0.52342,-0.64631,0.0022224,-0.11192,0.034029,-0.011309,-0.47598,0.22674,0.099348,0.13158,-0.078778,-0.0061418
0.22105,0.0080608,-0.056018,-0.032972,0.038447,-0.0029629,-0.098424,-0.015327,-0.20751,-0.21227,-0.77171,-0.15818,0.42012,-0.62111,0.011817,-0.13808,0.033061,-0.021035,-0.71618,0.092482,0.13287,0.3861,-0.084543,-0.010315
0.24243,0.010385,-0.05781,-0.037045,0.033945,-0.00076092,-0.10576,-0.014369,-0.17246,-0.17573,-0.75061,-0.24642,0.31103,-0.63595,0.02652,-0.14313,0.029889,-0.030224,-0.90939,-0.11223,0.16485,0.63466,-0.092475,-0.014449
0.25966,0.014724,-0.054533,-0.037846,0.034004,-0.00077081,-0.11083,-0.0077833,-0.13769,-0.16652,-0.69535,-0.3314,0.21512,-0.68737,0.03936,-0.11072,0.026296,-0.038578,-1.0397,-0.37972,0.19335,0.82269,-0.10277,-0.017444
0.2691,0.021533,-0.054322,-0.037655,0.038945,-0.0012009,-0.11495,0.0036714,-0.09768,-0.16764,-0.61142,-0.4425,0.14664,-0.75733,0.044373,-0.034018,0.021225,-0.04535,-1.1078,-0.67847,0.21732,0.91258,-0.1114,-0.017416
0.26933,0.029173,-0.061723,-0.037598,0.044818,0.00075294,-0.11751,0.017829,-0.054445,-0.16411,-0.50682,-0.58465,0.10185,-0.82593,0.039256,0.074681,0.013743,-0.048241,-1.1227,-0.95761,0.23544,0.90396,-0.11337,-0.013552
0.2635,0.035242,-0.074936,-0.037036,0.047601,0.0061793,-0.11712,0.030401,-0.017928,-0.14834,-0.40235,-0.73607,0.052865,-0.89065,0.023266,0.18316,0.0065706,-0.043745,-1.0864,-1.1659,0.24593,0.8335,-0.10778,-0.0076856
0.25753,0.038324,-0.088477,-0.034753,0.046717,0.01311,-0.11363,0.035691,0.0018257,-0.12417,-0.32765,-0.86203,-0.039014,-0.97074,-0.0048731,0.25447,0.0060052,-0.029199,-0.98991,-1.2713,0.24741,0.75256,-0.099437,-0.0037228
0.2553,0.038835,-0.098229,-0.030543,0.044599,0.017787,-0.10877,0.029281,0.003729,-0.10443,-0.30348,-0.93429,-0.19659,-1.0886,-0.04539,0.26987,0.01752,-0.005177,-0.82686,-1.2679,0.24021,0.6965,-0.095075,-0.0050151
0.25542,0.038366,-0.10426,-0.025649,0.04337,0.017447,-0.10485,0.010955,-0.0024786,-0.10102,-0.32606,-0.94385,-0.40831,-1.2443,-0.093883,0.24106,0.040788,0.023711,-0.6159,-1.1719,0.22715,0.66639,-0.097747,-0.011751
0.25279,0.038149,-0.10938,-0.021783,0.042427,0.012331,-0.10313,-0.014752,-0.0033373,-0.11376,-0.36849,-0.90074,-0.63558,-1.4056,-0.14064,0.19993,0.06883,0.050515,-0.40808,-1.0122,0.21293,0.63567,-0.10444,-0.020599
0.24359,0.038007,-0.11538,-0.019746,0.039474,0.0054126,-0.1033,-0.041277,0.0085972,-0.12803,-0.39826,-0.8234,-0.84163,-1.5253,-0.17511,0.17318,0.092439,0.069232,-0.26635,-0.82361,0.20231,0.57647,-0.10898,-0.026923
0.22869,0.036699,-0.12089,-0.018862,0.033657,0.00023697,-0.10444,-0.064067,0.030768,-0.12468,-0.39594,-0.7262,-1.0173,-1.5694,-0.19207,0.1628,0.10633,0.077637,-0.22745,-0.6407,0.1979,0.48465,-0.10736,-0.027787
0.21205,0.03336,-0.12273,-0.0176,0.02726,-0.001381,-0.10602,-0.08272,0.055062,-0.094732,-0.36045,-0.61415,-1.1817,-1.5339,-0.19377,0.14865,0.11197,0.077962,-0.2749,-0.48712,0.19905,0.38351,-0.1005,-0.023529
0.1956,0.028647,-0.11926,-0.014801,0.023936,-0.00022632,-0.10801,-0.099715,0.075715,-0.046385,-0.30011,-0.48706,-1.358,-1.4393,-0.18589,0.10959,0.11504,0.075165,-0.34721,-0.36338,0.20268,0.30262,-0.092649,-0.017079
0.176,0.024461,-0.11236,-0.010611,0.025136,0.0012144,-0.11031,-0.11722,0.093283,0.0018644,-0.22116,-0.34758,-1.5459,-1.3115,-0.17121,0.043974,0.12013,0.074015,-0.37867,-0.24412,0.20526,0.24887,-0.087319,-0.011992
0.14706,0.022389,-0.10608,-0.0064914,0.028357,0.00053169,-0.11258,-0.13497,0.1119,0.035742,-0.12498,-0.20459,-1.7161,-1.1682,-0.14741,-0.02858,0.12723,0.0767,-0.34408,-0.093615,0.20457,0.19468,-0.084941,-0.010756
0.10621,0.022295,-0.10323,-0.0042738,0.029118,-0.0031862,-0.11467,-0.15086,0.13355,0.05471,-0.014148,-0.068779,-1.8294,-1.0194,-0.11119,-0.083993,0.13246,0.082191,-0.27365,0.10631,0.20005,0.095166,-0.083739,-0.014182
0.059097,0.02241,-0.10327,-0.0047967,0.024931,-0.0090188,-0.11683,-0.16297,0.15542,0.068822,0.10163,0.054585,-1.8639,-0.87329,-0.064623,-0.11282,0.13193,0.087494,-0.22644,0.33625,0.19209,-0.077587,-0.082189,-0.021607
0.017245,0.020902,-0.10329,-0.0070852,0.017579,-0.014912,-0.11912,-0.17082,0.17244,0.086986,0.20707,0.16724,-1.8278,-0.73732,-0.016929,-0.12432,0.12504,0.089918,-0.24265,0.54577,0.18132,-0.30974,-0.080145,-0.03132
-0.0098228,0.01753,-0.10111,-0.0088923,0.01164,-0.018849,-0.12015,-0.17451,0.18172,0.10797,0.28854,0.27138,-1.7489,-0.61166,0.020964,-0.13335,0.11502,0.088984,-0.3115,0.68543,0.16869,-0.55041,-0.077763,-0.041069
-0.021763,0.013844,-0.097519,-0.0084913,0.010685,-0.019859,-0.11697,-0.17327,0.18417,0.12203,0.33936,0.36173,-1.6526,-0.4865,0.044869,-0.1433,0.10653,0.086785,-0.37966,0.74093,0.1558,-0.74271,-0.073974,-0.048858
-0.027624,0.011754,-0.095459,-0.0063764,0.014568,-0.01837,-0.10691,-0.16541,0.18186,0.12078,0.3587,0.42592,-1.5467,-0.35131,0.061539,-0.14076,0.1029,0.086524,-0.39423,0.74214,0.14442,-0.85752,-0.066715,-0.053975
-0.03876,0.011745,-0.097027,-0.0051853,0.020013,-0.015774,-0.090071,-0.15012,0.17438,0.10556,0.34753,0.45462,-1.4223,-0.21008,0.08478,-0.10518,0.10467,0.090189,-0.34732,0.73911,0.13515,-0.90474,-0.054987,-0.057625
-0.060363,0.012374,-0.10103,-0.0074399,0.023586,-0.013436,-0.070399,-0.12951,0.1586,0.08673,0.30781,0.45233,-1.267,-0.085217,0.12637,-0.023745,0.11018,0.097013,-0.28761,0.76455,0.12625,-0.91571,-0.040567,-0.062422
-0.08858,0.011484,-0.10348,-0.012804,0.024211,-0.011795,-0.053682,-0.10852,0.1323,0.075027,0.24592,0.43668,-1.0775,-0.0014276,0.18846,0.1011,0.11696,0.10393,-0.28814,0.81289,0.11376,-0.91367,-0.027277,-0.070753
-0.11516,0.0080554,-0.10075,-0.017463,0.023202,-0.010251,-0.043924,-0.092567,0.098034,0.073069,0.17473,0.42457,-0.86269,0.038687,0.26216,0.25444,0.12278,0.10772,-0.39261,0.85106,0.093258,-0.89841,-0.018133,-0.083046
-0.135,0.0030235,-0.092567,-0.01671,0.022302,-0.0080044,-0.040992,-0.084547,0.06301,0.074343,0.10864,0.41668,-0.63814,0.062433,0.33181,0.41558,0.12601,0.10712,-0.57853,0.84875,0.062029,-0.85861,-0.01295,-0.097206
-0.14973,-0.0016947,-0.082405,-0.0088798,0.021955,-0.0051768,-0.041511,-0.083596,0.034705,0.069964,0.054372,0.39548,-0.41827,0.10609,0.38105,0.56166,0.1254,0.10324,-0.76455,0.80115,0.020505,-0.8013,-0.0087879,-0.10969
-0.16466,-0.0050683,-0.074731,0.0027742,0.021408,-0.0031597,-0.04209,-0.086201,0.016233,0.056929,0.0064712,0.34066,-0.21275,0.1814,0.39764,0.66847,0.12012,0.097896,-0.85759,0.72668,-0.027505,-0.77066,-0.0031424,-0.11745
-0.18265,-0.0079685,-0.07158,0.0122,0.020154,-0.0036416,-0.04184,-0.088333,0.0058484,0.040992,-0.045906,0.24976,-0.026654,0.26225,0.37636,0.7145,0.10992,0.091527,-0.80771,0.6467,-0.075605,-0.83381,0.0027749,-0.11943
-0.20098,-0.012286,-0.071207,0.015104,0.01883,-0.0069989,-0.041919,-0.086936,0.00088376,0.03225,-0.1057,0.14651,0.13885,0.30936,0.32074,0.69084,0.095331,0.082528,-0.634,0.56903,-0.11656,-1.0366,0.0035852,-0.11673
-0.21421,-0.01886,-0.069837,0.012112,0.018433,-0.011509,-0.04281,-0.080328,0.0019384,0.037318,-0.16043,0.069095,0.28704,0.31439,0.24273,0.61053,0.077425,0.068779,-0.40658,0.49026,-0.14512,-1.3591,-0.0070788,-0.11165
-0.21979,-0.026173,-0.064912,0.007835,0.018738,-0.014336,-0.042274,-0.068253,0.01276,0.054016,-0.18882,0.047439,0.4251,0.32128,0.15918,0.50748,0.057496,0.050044,-0.20069,0.41123,-0.16109,-1.7077,-0.031716,-0.10636
-0.22058,-0.031236,-0.057124,0.006751,0.017912,-0.013695,-0.036396,-0.052117,0.035495,0.072033,-0.17663,0.086856,0.55929,0.3972,0.085144,0.42153,0.036775,0.029054,-0.056251,0.34625,-0.17065,-1.9547,-0.065629,-0.10181
-0.22174,-0.03216,-0.049757,0.009573,0.0142,-0.010398,-0.023166,-0.034966,0.065786,0.078681,-0.12783,0.16854,0.68675,0.57069,0.027665,0.37796,0.016433,0.010116,0.032277,0.31395,-0.18373,-2.0045,-0.097364,-0.097158
-0.22497,-0.030126,-0.046101,0.013178,0.0082308,-0.0073563,-0.0054309,-0.020424,0.09289,0.065879,-0.060602,0.26335,0.79118,0.78933,-0.01557,0.37581,-0.0023779,-0.0038163,0.096487,0.31715,-0.20796,-1.8388,-0.11293,-0.089909
-0.22607,-0.028763,-0.047069,0.013833,0.0034125,-0.0073246,0.0097258,-0.010832,0.10568,0.034369,0.0080286,0.34665,0.84921,0.93974,-0.05126,0.39312,-0.01871,-0.01325,0.16659,0.33191,-0.2425,-1.5105,-0.10179,-0.076979
-0.21845,-0.031118,-0.050693,0.010514,0.0034841,-0.01074,0.015269,-0.0060302,0.10007,-0.0066622,0.075066,0.40516,0.84705,0.9219,-0.082971,0.40455,-0.032173,-0.021665,0.25762,0.31874,-0.27682,-1.0957,-0.061908,-0.056673
-0.19939,-0.036738,-0.053512,0.0053004,0.0091562,-0.01544,0.009138,-0.0039933,0.081813,-0.043823,0.15046,0.4362,0.79639,0.72042,-0.10721,0.39795,-0.043085,-0.032743,0.37344,0.24867,-0.29613,-0.64446,-0.0016182,-0.030559
-0.1731,-0.0416,-0.052629,0.00074063,0.017039,-0.0184,-0.003971,-0.0028862,0.062405,-0.065217,0.24366,0.4448,0.73585,0.41319,-0.11641,0.37878,-0.052113,-0.047562,0.51514,0.12304,-0.29025,-0.17001,0.062659,-0.0037168
-0.14752,-0.041268,-0.047109,-0.0030628,0.02219,-0.01796,-0.015488,-0.0026036,0.051413,-0.065109,0.35032,0.44203,0.71373,0.10892,-0.10627,0.36184,-0.059596,-0.064045,0.67967,-0.028733,-0.25989,0.32074,0.11232,0.01748
-0.12775,-0.034757,-0.038207,-0.0087614,0.022193,-0.01473,-0.018616,-0.0042701,0.051153,-0.045839,0.45073,0.44259,0.76175,-0.13417,-0.081309,0.35893,-0.065143,-0.078962,0.84842,-0.16998,-0.21557,0.79014,0.13406,0.028905
-0.11232,-0.02572,-0.02867,-0.019164,0.019065,-0.010674,-0.012726,-0.0081935,0.057271,-0.016441,0.52073,0.45851,0.878,-0.33925,-0.054007,0.37204,-0.068079,-0.090597,0.97957,-0.27755,-0.17007,1.1664,0.12563,0.031028
-0.095608,-0.019763,-0.021573,-0.034179,0.017172,-0.0074522,-0.0033652,-0.012408,0.063683,0.011462,0.5458,0.49095,1.0308,-0.56643,-0.038277,0.39514,-0.06857,-0.099691,1.0175,-0.34656,-0.1299,1.3815,0.096866,0.028154
-0.074025,-0.02007,-0.018998,-0.050139,0.019097,-0.0054726,0.0021528,-0.013485,0.067153,0.02881,0.52814,0.52677,1.1792,-0.8361,-0.0422,0.42038,-0.068533,-0.10807,0.91788,-0.37938,-0.092141,1.419,0.064792,0.025137
-0.050088,-0.025023,-0.020916,-0.062177,0.023333,-0.0042514,0.0003189,-0.009094,0.067962,0.032802,0.48368,0.54481,1.2942,-1.0933,-0.065121,0.44254,-0.071297,-0.11664,0.67207,-0.37376,-0.04853,1.3286,0.044965,0.024313
-0.0306,-0.029813,-0.024918,-0.067667,0.02593,-0.0034081,-0.0059487,-5.1613e-005,0.067109,0.027054,0.43372,0.52956,1.3652,-1.2495,-0.10036,0.4587,-0.079767,-0.12477,0.31269,-0.32377,0.0063544,1.1934,0.044088,0.025074
-0.020724,-0.030529,-0.027345,-0.067953,0.024401,-0.0031996,-0.0095938,0.010069,0.063561,0.017998,0.39712,0.48262,1.3913,-1.2668,-0.14069,0.46512,-0.094139,-0.13163,-0.1042,-0.23337,0.069178,1.0774,0.058348,0.026003
-0.019478,-0.027198,-0.025593,-0.067139,0.020096,-0.004137,-0.0048644,0.017485,0.054533,0.009866,0.38553,0.42259,1.3687,-1.2052,-0.18228,0.45448,-0.11097,-0.13761,-0.52808,-0.12832,0.12834,0.99329,0.078322,0.027166
-0.020704,-0.02329,-0.020129,-0.069089,0.016817,-0.0062124,0.0082571,0.020769,0.03847,0.0017556,0.4007,0.37233,1.2889,-1.1823,-0.22422,0.41589,-0.12474,-0.14426,-0.93346,-0.052148,0.17022,0.9137,0.096584,0.030344
-0.018429,-0.022412,-0.014439,-0.074863,0.017122,-0.0086519,0.023982,0.02141,0.017546,-0.011189,0.43333,0.34243,1.1489,-1.2718,-0.2642,0.33808,-0.13125,-0.15262,-1.3172,-0.044859,0.18643,0.81016,0.11225,0.037333
-0.011611,-0.025255,-0.012426,-0.082165,0.01992,-0.010564,0.03494,0.022172,-0.0032403,-0.033633,0.46488,0.32306,0.96361,-1.4239,-0.29395,0.21495,-0.13042,-0.16197,-1.6768,-0.11863,0.17704,0.68385,0.12931,0.048377
-0.0041255,-0.029379,-0.015014,-0.086715,0.02154,-0.011922,0.037378,0.024865,-0.02011,-0.066317,0.47393,0.2913,0.76707,-1.4824,-0.29871,0.051524,-0.1264,-0.17041,-1.9884,-0.24851,0.14854,0.56557,0.15084,0.062368
-0.00041833,-0.031711,-0.018811,-0.084371,0.019111,-0.013889,0.033478,0.029274,-0.034165,-0.10541,0.4453,0.22912,0.59921,-1.2898,-0.26302,-0.13369,-0.12436,-0.17638,-2.2011,-0.38587,0.10907,0.49075,0.17426,0.078155
-0.0011302,-0.031305,-0.018378,-0.072911,0.013003,-0.017988,0.029383,0.033766,-0.050992,-0.14477,0.37683,0.13939,0.48839,-0.80073,-0.18082,-0.31371,-0.12647,-0.17937,-2.2566,-0.48555,0.065328,0.47476,0.19199,0.095003
-0.0027255,-0.029902,-0.010577,-0.052978,0.0062664,-0.024713,0.030739,0.036684,-0.075792,-0.17859,0.27937,0.047828,0.44296,-0.10939,-0.063252,-0.46565,-0.12992,-0.17874,-2.1192,-0.52847,0.022476,0.50792,0.19676,0.11139
-0.001162,-0.030064,0.0025517,-0.028209,0.0018976,-0.032778,0.039103,0.037343,-0.10773,-0.20238,0.16946,-0.011248,0.45645,0.62814,0.061923,-0.58394,-0.12876,-0.17248,-1.7984,-0.52565,-0.014544,0.56855,0.18703,0.12374
0.0041237,-0.032789,0.014978,-0.0044778,0.00062546,-0.039781,0.051452,0.036147,-0.13833,-0.21247,0.05957,-0.015911,0.51907,1.3104,0.16085,-0.68399,-0.11829,-0.15797,-1.3471,-0.50412,-0.041483,0.63821,0.16803,0.12743
0.0097443,-0.036802,0.021166,0.011847,0.00097448,-0.043849,0.062632,0.034123,-0.15586,-0.20586,-0.048116,0.03013,0.62385,1.945,0.20832,-0.79037,-0.098731,-0.13502,-0.83848,-0.48745,-0.057443,0.70589,0.14777,0.12015
0.011772,-0.039952,0.020245,0.016383,0.0010062,-0.044895,0.068762,0.03236,-0.15243,-0.18139,-0.16073,0.10036,0.76336,2.5981,0.19819,-0.91515,-0.07565,-0.10822,-0.337,-0.48507,-0.06694,0.76261,0.13156,0.10487
0.0097177,-0.041184,0.016467,0.0089491,-0.00024701,-0.044459,0.069412,0.031574,-0.12861,-0.14105,-0.28755,0.16093,0.92364,3.2878,0.14414,-1.0418,-0.056552,-0.085519,0.1192,-0.49502,-0.078041,0.79734,0.11929,0.088805
0.007271,-0.041205,0.015698,-0.0058645,-0.0028211,-0.044353,0.067478,0.031759,-0.092058,-0.089612,-0.43107,0.18697,1.0848,3.9225,0.072218,-1.1293,-0.046122,-0.073057,0.51921,-0.51284,-0.096721,0.80142,0.10718,0.078365
0.0090044,-0.041382,0.020888,-0.020522,-0.0066721,-0.045361,0.067121,0.032069,-0.051976,-0.032189,-0.58121,0.16952,1.2302,4.3449,0.010242,-1.1378,-0.043294,-0.070243,0.86922,-0.5362,-0.12178,0.77695,0.091859,0.07368
0.015978,-0.042138,0.030172,-0.028078,-0.011923,-0.047089,0.071139,0.03117,-0.01442,0.028228,-0.71638,0.11218,1.3554,4.4461,-0.021742,-1.0612,-0.042139,-0.069469,1.1804,-0.56189,-0.1452,0.73843,0.073131,0.067671
0.02422,-0.042489,0.03885,-0.025458,-0.018116,-0.04879,0.079345,0.028157,0.018024,0.090918,-0.81097,0.024669,1.4658,4.253,-0.018821,-0.94169,-0.035943,-0.061418,1.4582,-0.58125,-0.1586,0.70298,0.053755,0.051099
0.027551,-0.041093,0.043376,-0.014518,-0.023579,-0.050128,0.088846,0.023468,0.0431,0.15497,-0.84597,-0.07976,1.5608,3.9106,0.0047573,-0.85358,-0.02171,-0.041986,1.693,-0.58249,-0.1606,0.67612,0.037154,0.020002
0.022452,-0.037739,0.044062,-0.00028729,-0.026126,-0.05107,0.095934,0.018912,0.056386,0.21637,-0.81692,-0.18341,1.6202,3.5767,0.018352,-0.86098,-0.0020962,-0.015356,1.8529,-0.56021,-0.15864,0.64605,0.025544,-0.020338
0.010865,-0.033789,0.044535,0.012291,-0.024856,-0.05126,0.098292,0.016467,0.052431,0.26711,-0.73472,-0.26582,1.607,3.3166,-0.012234,-0.97483,0.016463,0.0091192,1.8882,-0.52306,-0.16309,0.59238,0.019766,-0.058197
-0.0013902,-0.031254,0.048645,0.02085,-0.021324,-0.049885,0.096081,0.016641,0.028491,0.29692,-0.61893,-0.31188,1.4921,3.0833,-0.105,-1.1394,0.028024,0.023468,1.7516,-0.48967,-0.17844,0.50249,0.020017,-0.082918
-0.0092397,-0.031398,0.057382,0.025757,-0.018644,-0.046447,0.091384,0.017915,-0.012808,0.29618,-0.48776,-0.32158,1.2831,2.7895,-0.24655,-1.2609,0.030732,0.025827,1.4296,-0.4741,-0.1992,0.38191,0.025836,-0.091513
-0.012127,-0.034137,0.068084,0.0282,-0.019044,-0.041688,0.086638,0.018046,-0.064221,0.25888,-0.35121,-0.31184,1.0317,2.3973,-0.39445,-1.2634,0.027294,0.020116,0.96526,-0.47311,-0.21427,0.2506,0.034981,-0.089615
-0.013854,-0.038553,0.076272,0.028046,-0.022014,-0.037481,0.083221,0.016277,-0.11691,0.18523,-0.21148,-0.30512,0.80766,1.9454,-0.49931,-1.1372,0.022288,0.011924,0.4536,-0.4683,-0.21618,0.12988,0.04279,-0.086539
-0.018753,-0.043805,0.078531,0.02338,-0.024822,-0.035456,0.080998,0.014374,-0.16276,0.08438,-0.06969,-0.31166,0.65389,1.499,-0.53372,-0.94565,0.018744,0.0046472,0.0093779,-0.44231,-0.20712,0.031657,0.043773,-0.088461
-0.027593,-0.04946,0.074332,0.012159,-0.024987,-0.035533,0.078801,0.015247,-0.19469,-0.024723,0.066596,-0.31948,0.55714,1.0781,-0.50715,-0.78639,0.016819,-0.0011379,-0.27686,-0.39455,-0.19684,-0.042483,0.035135,-0.094754
-0.036805,-0.055023,0.065791,-0.0054471,-0.022491,-0.035865,0.075345,0.020191,-0.20655,-0.11686,0.18111,-0.30147,0.45724,0.63756,-0.45496,-0.73042,0.015373,-0.0055712,-0.36889,-0.3415,-0.19438,-0.095674,0.019428,-0.0997
-0.041697,-0.05935,0.05601,-0.026105,-0.019764,-0.03448,0.070079,0.027345,-0.19473,-0.16974,0.25392,-0.23531,0.28816,0.11717,-0.40967,-0.77999,0.014616,-0.0075166,-0.28774,-0.30141,-0.20104,-0.13295,0.0034905,-0.097746
-0.040767,-0.060826,0.047407,-0.044783,-0.019563,-0.031209,0.063705,0.033,-0.16121,-0.17503,0.27031,-0.12096,0.018034,-0.48618,-0.37663,-0.87171,0.016936,-0.004829,-0.092185,-0.2793,-0.21054,-0.16583,-0.0062406,-0.088047
-0.037194,-0.058403,0.041028,-0.057628,-0.02275,-0.028067,0.058158,0.034731,-0.11494,-0.14392,0.2272,0.017534,-0.34211,-1.0929,-0.33361,-0.92073,0.024832,0.0036146,0.14817,-0.26826,-0.21527,-0.21838,-0.0085412,-0.074987
-0.036053,-0.052723,0.036812,-0.064061,-0.027881,-0.027553,0.05589,0.033424,-0.068859,-0.10186,0.13277,0.14676,-0.76243,-1.5842,-0.25416,-0.87463,0.037761,0.016387,0.37467,-0.26659,-0.21278,-0.32418,-0.0082954,-0.064648
-0.039719,-0.046203,0.034157,-0.066495,-0.032714,-0.03028,0.058548,0.0322,-0.033687,-0.074459,0.00096597,0.24338,-1.2236,-1.877,-0.13524,-0.74211,0.051157,0.030078,0.55206,-0.29235,-0.20669,-0.5105,-0.012694,-0.060283
-0.045649,-0.041763,0.032364,-0.068025,-0.035984,-0.034081,0.065629,0.033202,-0.012559,-0.073652,-0.15311,0.30459,-1.7217,-1.9672,-0.0056367,-0.58049,0.059108,0.041399,0.67164,-0.37701,-0.20193,-0.7791,-0.026019,-0.060361
-0.048711,-0.040992,0.030937,-0.070049,-0.037861,-0.035487,0.074042,0.035306,-0.00051205,-0.093761,-0.31233,0.3447,-2.2448,-1.911,0.092245,-0.4547,0.058764,0.048879,0.74479,-0.53839,-0.19919,-1.0996,-0.047367,-0.060424
-0.046033,-0.043143,0.029877,-0.071668,-0.038978,-0.032403,0.079168,0.034969,0.011086,-0.11938,-0.45287,0.38346,-2.7476,-1.7695,0.13282,-0.39713,0.052504,0.052804,0.78773,-0.7543,-0.19363,-1.4234,-0.072696,-0.056833
-0.039999,-0.045769,0.029816,-0.071096,-0.0394,-0.025734,0.077108,0.02943,0.028716,-0.13773,-0.54344,0.43569,-3.1534,-1.5674,0.12514,-0.39387,0.045577,0.053831,0.80436,-0.96153,-0.17884,-1.7104,-0.098631,-0.049156
-0.036562,-0.046534,0.031742,-0.067584,-0.038706,-0.018631,0.066939,0.019264,0.053633,-0.14504,-0.55476,0.50687,-3.3894,-1.2985,0.10396,-0.40228,0.040949,0.051772,0.77874,-1.0853,-0.15212,-1.9481,-0.12425,-0.039543
-0.04029,-0.044802,0.036296,-0.062113,-0.036937,-0.0141,0.051556,0.0079733,0.082925,-0.14244,-0.47604,0.59271,-3.4282,-0.96505,0.10206,-0.38322,0.035975,0.045634,0.68457,-1.0791,-0.11678,-2.1515,-0.14971,-0.030266
-0.05048,-0.041806,0.043032,-0.056458,-0.035079,-0.012977,0.036413,-0.00085756,0.11282,-0.12686,-0.32611,0.67847,-3.3015,-0.61089,0.12679,-0.32409,0.024252,0.034657,0.50607,-0.94658,-0.079964,-2.3437,-0.17396,-0.022068
-0.061731,-0.039348,0.050155,-0.051734,-0.034259,-0.013789,0.02662,-0.0061472,0.14121,-0.086837,-0.14746,0.73796,-3.074,-0.31747,0.15903,-0.23837,0.0014481,0.019273,0.25475,-0.72965,-0.04824,-2.5365,-0.19469,-0.01473
-0.068377,-0.038164,0.054976,-0.047868,-0.034393,-0.014265,0.023992,-0.0094395,0.16769,-0.0087272,0.015845,0.73642,-2.8017,-0.16519,0.17348,-0.14669,-0.029851,0.0011835,-0.029953,-0.47638,-0.024351,-2.7245,-0.21095,-0.0087439
-0.068848,-0.037294,0.054973,-0.04426,-0.033907,-0.012991,0.025846,-0.01286,0.19177,0.11102,0.1411,0.64131,-2.5076,-0.192,0.16146,-0.057371,-0.060744,-0.017347,-0.29489,-0.21365,-0.0071696,-2.8956,-0.22605,-0.0058639
-0.066307,-0.034949,0.049111,-0.040631,-0.031194,-0.0099156,0.026584,-0.017132,0.21117,0.25764,0.23328,0.43878,-2.1923,-0.37954,0.13715,0.037741,-0.08188,-0.034297,-0.49017,0.055742,0.0058478,-3.0443,-0.24731,-0.0076835
-0.065363,-0.030159,0.038782,-0.036957,-0.026603,-0.0057136,0.021353,-0.021466,0.22171,0.40112,0.3105,0.1477,-1.8629,-0.67322,0.12361,0.1503,-0.089791,-0.048284,-0.57996,0.33482,0.015716,-3.1733,-0.28201,-0.013769
-0.068059,-0.023871,0.027653,-0.032607,-0.022918,-0.00097245,0.0095212,-0.024984,0.21904,0.50907,0.38277,-0.17783,-1.5478,-1.0151,0.13222,0.27842,-0.088452,-0.058559,-0.54843,0.61262,0.020398,-3.2827,-0.33187,-0.021553
-0.07263,-0.01855,0.020002,-0.02597,-0.023556,0.0039442,-0.0045617,-0.027861,0.20102,0.56084,0.4437,-0.46129,-1.2816,-1.3622,0.1533,0.40117,-0.084985,-0.064948,-0.40684,0.86059,0.015623,-3.3558,-0.3896,-0.028362
-0.075692,-0.01645,0.018187,-0.015497,-0.029902,0.0084566,-0.014401,-0.030889,0.16946,0.55484,0.4822,-0.628,-1.0747,-1.678,0.16487,0.49004,-0.083474,-0.06794,-0.19958,1.0463,-0.002186,-3.3562,-0.43986,-0.03356
-0.075405,-0.017771,0.020929,-0.0014735,-0.040151,0.011514,-0.016017,-0.034089,0.13004,0.5067,0.50156,-0.6321,-0.89989,-1.9119,0.15114,0.52845,-0.082335,-0.068777,0.0021987,1.151,-0.032211,-3.2407,-0.46422,-0.038428
-0.072633,-0.020103,0.024051,0.013344,-0.050678,0.012074,-0.011017,-0.03609,0.090738,0.44187,0.52533,-0.47669,-0.7104,-1.9924,0.11554,0.52384,-0.077281,-0.069261,0.1276,1.1763,-0.066857,-2.9788,-0.44767,-0.043745
-0.069414,-0.019755,0.023588,0.025345,-0.058639,0.010068,-0.005623,-0.035134,0.059249,0.38704,0.58132,-0.21875,-0.47678,-1.8529,0.079045,0.50333,-0.066938,-0.071205,0.14278,1.1384,-0.092742,-2.5659,-0.38409,-0.047534
-0.06669,-0.014261,0.019004,0.03287,-0.063484,0.0070234,-0.0062389,-0.030777,0.040736,0.36277,0.6766,0.046251,-0.20875,-1.481,0.066284,0.49728,-0.055871,-0.075806,0.071564,1.0584,-0.095525,-2.0234,-0.27829,-0.045475
-0.063694,-0.0043827,0.013707,0.037609,-0.066307,0.0056235,-0.014915,-0.024537,0.036599,0.37771,0.78639,0.21892,0.056862,-0.95945,0.089679,0.52298,-0.052131,-0.083345,-0.019271,0.957,-0.066533,-1.3872,-0.14447,-0.03385
-0.059414,0.0059236,0.012083,0.043028,-0.068092,0.0082731,-0.028166,-0.01877,0.044803,0.4257,0.86914,0.23802,0.29053,-0.46058,0.14142,0.57927,-0.061238,-0.093319,-0.06172,0.85535,-0.0074181,-0.69668,-0.0020906,-0.012328
-0.05431,0.011821,0.015387,0.050987,-0.068829,0.015492,-0.03988,-0.014811,0.061636,0.48818,0.897,0.10958,0.4957,-0.18112,0.19692,0.65264,-0.081538,-0.10477,-0.023243,0.77386,0.07021,0.010115,0.12906,0.015962
-0.050246,0.010831,0.020152,0.059675,-0.068252,0.025265,-0.045804,-0.012064,0.084111,0.54279,0.87685,-0.096273,0.70345,-0.24247,0.22685,0.7278,-0.10474,-0.11647,0.088799,0.72581,0.15014,0.69404,0.23291,0.046951
-0.048522,0.0047773,0.020773,0.064939,-0.067037,0.033955,-0.046069,-0.0087451,0.11169,0.57459,0.84445,-0.28302,0.94226,-0.61529,0.21137,0.79439,-0.12123,-0.12685,0.25215,0.70902,0.2186,1.3111,0.29975,0.078152
-0.04799,-0.0010974,0.014222,0.063956,-0.066745,0.038341,-0.044133,-0.0034587,0.14612,0.58255,0.83697,-0.37943,1.2098,-1.1224,0.14966,0.84727,-0.12591,-0.13408,0.45461,0.70466,0.26867,1.8129,0.32762,0.1088
-0.045321,-0.0014829,0.0027991,0.057841,-0.06828,0.037489,-0.043506,0.0037792,0.18926,0.57638,0.8664,-0.37252,1.4694,-1.5292,0.060019,0.88324,-0.12026,-0.1364,0.69302,0.68752,0.30011,2.1541,0.32242,0.13769
-0.037534,0.0053845,-0.0075471,0.050741,-0.070531,0.033125,-0.045126,0.011705,0.23988,0.56546,0.91388,-0.30122,1.6718,-1.6704,-0.029258,0.89866,-0.10939,-0.13252,0.95103,0.64246,0.31611,2.3046,0.29609,0.16103
-0.024689,0.01646,-0.011904,0.046246,-0.070999,0.028263,-0.047205,0.018722,0.29151,0.54828,0.94624,-0.21884,1.7831,-1.5308,-0.093469,0.8899,-0.09712,-0.12178,1.1851,0.57518,0.32012,2.2652,0.26261,0.17271
-0.010306,0.026022,-0.010078,0.044471,-0.068201,0.025162,-0.047126,0.023747,0.33258,0.51088,0.93837,-0.15562,1.8004,-1.2272,-0.12156,0.85592,-0.083398,-0.10395,1.3412,0.50925,0.31505,2.0781,0.23297,0.167
0.00098837,0.029729,-0.006276,0.042445,-0.063488,0.024186,-0.043545,0.02661,0.3492,0.43532,0.88357,-0.10986,1.7483,-0.90577,-0.11697,0.80093,-0.066192,-0.079484,1.3901,0.47055,0.30406,1.8272,0.21148,0.1419
0.0067585,0.027607,-0.0053913,0.037224,-0.060117,0.024357,-0.03716,0.028102,0.32973,0.31203,0.788,-0.069662,1.6647,-0.63496,-0.089927,0.7355,-0.045753,-0.050396,1.3464,0.46961,0.29072,1.6187,0.19574,0.10069
0.0083395,0.023688,-0.0092403,0.028672,-0.060073,0.024846,-0.029972,0.029784,0.26994,0.14651,0.66039,-0.040341,1.5828,-0.37072,-0.047694,0.6747,-0.027054,-0.021466,1.2464,0.49385,0.27739,1.5477,0.18006,0.050625
0.0095814,0.022667,-0.015756,0.019442,-0.0617,0.025887,-0.023936,0.033384,0.17685,-0.043748,0.50927,-0.048934,1.5179,-0.016578,0.0090487,0.6328,-0.017694,8.1382e-005,1.1027,0.51518,0.26317,1.6612,0.15951,-5.9846e-005
0.013987,0.026274,-0.021243,0.012564,-0.060792,0.028249,-0.020019,0.039752,0.069047,-0.23913,0.34949,-0.12052,1.4603,0.47443,0.080966,0.61594,-0.022674,0.0073502,0.87847,0.50819,0.24368,1.9399,0.13196,-0.044948
0.02263,0.032256,-0.023292,0.0092042,-0.054488,0.031872,-0.018098,0.047911,-0.028071,-0.42706,0.20713,-0.24872,1.3806,1.0375,0.16038,0.61612,-0.040434,-0.0021222,0.5096,0.4661,0.21367,2.3067,0.097665,-0.080449
0.034277,0.036619,-0.021891,0.0085706,-0.044361,0.035185,-0.017483,0.055174,-0.091788,-0.60382,0.11245,-0.38963,1.2481,1.5206,0.22603,0.61109,-0.063706,-0.024026,-0.039861,0.40227,0.17068,2.6587,0.058389,-0.10502
0.047142,0.037102,-0.018362,0.0095211,-0.035564,0.036012,-0.017506,0.058676,-0.11208,-0.76773,0.082197,-0.48775,1.0553,1.7756,0.24859,0.5719,-0.08467,-0.049213,-0.73446,0.33523,0.11709,2.9038,0.018128,-0.1178
0.060427,0.034917,-0.013698,0.011774,-0.032619,0.033434,-0.017718,0.057468,-0.096292,-0.90885,0.10475,-0.51362,0.83059,1.7481,0.20583,0.47533,-0.10013,-0.06913,-1.4705,0.26924,0.059202,2.9848,-0.015312,-0.11799
0.074347,0.033466,-0.0080148,0.015381,-0.035659,0.028889,-0.017654,0.053446,-0.064586,-1.0032,0.14156,-0.48194,0.62728,1.5063,0.09806,0.31487,-0.11232,-0.080715,-2.1187,0.18863,0.0046753,2.8866,-0.030753,-0.10528
0.088893,0.035331,-0.0013647,0.019271,-0.040528,0.025332,-0.016578,0.050111,-0.038291,-1.0183,0.14629,-0.43556,0.49125,1.1961,-0.046786,0.10478,-0.12469,-0.086683,-2.5707,0.074677,-0.039922,2.6328,-0.018094,-0.080627
0.10271,0.04018,0.0052603,0.020786,-0.042454,0.024918,-0.01371,0.049901,-0.028276,-0.92832,0.088704,-0.41009,0.43118,0.95726,-0.18395,-0.12415,-0.13647,-0.090969,-2.7595,-0.066497,-0.070297,2.2767,0.025128,-0.046239
0.11331,0.045238,0.010002,0.017117,-0.039752,0.027136,-0.0089556,0.05225,-0.030967,-0.73093,-0.032689,-0.40881,0.41347,0.85678,-0.27349,-0.33357,-0.14117,-0.093496,-2.6588,-0.19058,-0.084952,1.8871,0.089989,-0.0045685
0.11854,0.047655,0.01137,0.0074583,-0.034309,0.029101,-0.0034488,0.054053,-0.034103,-0.45262,-0.1962,-0.40702,0.38712,0.87279,-0.30001,-0.48714,-0.13075,-0.089309,-2.2828,-0.23447,-0.085626,1.5264,0.15914,0.042818
0.11818,0.046652,0.0095643,-0.0061333,-0.028898,0.027936,0.00088284,0.052243,-0.02723,-0.13918,-0.37381,-0.37919,0.31998,0.93121,-0.2781,-0.55825,-0.10233,-0.073187,-1.6982,-0.15983,-0.077299,1.2267,0.21532,0.09506
0.11443,0.043751,0.0066854,-0.019999,-0.024275,0.023313,0.0027173,0.046369,-0.0090095,0.16223,-0.54585,-0.32396,0.21995,0.96744,-0.24004,-0.53636,-0.061718,-0.045533,-1.0307,0.011584,-0.066883,0.97768,0.24961,0.1501
0.11062,0.04121,0.005584,-0.031045,-0.018803,0.017917,0.0026145,0.039101,0.013355,0.41599,-0.70426,-0.26692,0.1279,0.97507,-0.21404,-0.43192,-0.020128,-0.013722,-0.43913,0.20176,-0.06072,0.7381,0.2634,0.20229
0.10904,0.040236,0.008183,-0.037863,-0.010514,0.015317,0.0028626,0.034365,0.030624,0.59896,-0.84537,-0.24129,0.090689,1.0141,-0.2079,-0.27772,0.013648,0.013075,-0.056048,0.32103,-0.062345,0.46933,0.26309,0.24195
0.1092,0.040445,0.01447,-0.040081,0.00080979,0.016979,0.0057033,0.034716,0.037828,0.69503,-0.96107,-0.2649,0.1347,1.1747,-0.20855,-0.12292,0.03947,0.031411,0.074762,0.32237,-0.072069,0.16899,0.25223,0.25831
0.10794,0.040738,0.022772,-0.03708,0.013581,0.021018,0.011293,0.039982,0.035545,0.69518,-1.0366,-0.33145,0.25569,1.5206,-0.19645,-0.018351,0.065077,0.046616,0.018336,0.22587,-0.088364,-0.11977,0.22773,0.24469
0.1014,0.04051,0.030978,-0.027839,0.026122,0.023839,0.017228,0.047907,0.0264,0.60708,-1.0571,-0.41994,0.42602,2.0482,-0.16293,0.0024555,0.098587,0.068113,-0.090644,0.097603,-0.10948,-0.33273,0.18294,0.20265
0.087775,0.040041,0.037759,-0.012375,0.03808,0.023247,0.020251,0.055915,0.011108,0.46426,-1.0176,-0.5107,0.60968,2.6869,-0.11716,-0.061972,0.14019,0.10048,-0.12144,0.0027814,-0.13385,-0.42736,0.11482,0.14164
0.068999,0.039879,0.042974,0.0066007,0.05011,0.020319,0.018833,0.062506,-0.011963,0.31991,-0.92946,-0.59422,0.77496,3.3338,-0.078057,-0.17898,0.17985,0.13776,-0.0071438,-0.03039,-0.15941,-0.41351,0.029436,0.074166
0.050125,0.040028,0.047115,0.023755,0.062392,0.01835,0.014497,0.067466,-0.043665,0.22233,-0.81755,-0.66839,0.90062,3.8951,-0.058594,-0.29472,0.20329,0.16613,0.24266,-0.013536,-0.18345,-0.34976,-0.058323,0.0099703
0.036708,0.039834,0.050369,0.033556,0.073839,0.019788,0.010775,0.071137,-0.080887,0.18776,-0.71159,-0.73077,0.97753,4.3049,-0.055075,-0.35653,0.20166,0.17307,0.57298,0.025335,-0.20359,-0.30729,-0.13014,-0.04665
0.031749,0.038697,0.052132,0.033575,0.082941,0.023874,0.010644,0.073558,-0.11676,0.19289,-0.63567,-0.77468,1.0087,4.5214,-0.049531,-0.33452,0.17778,0.15625,0.92695,0.066076,-0.21918,-0.32599,-0.17113,-0.09466
0.034132,0.036861,0.051424,0.026241,0.08932,0.027053,0.014505,0.074102,-0.14441,0.19515,-0.60194,-0.79215,1.0088,4.5212,-0.022385,-0.23219,0.14439,0.12532,1.2711,0.10217,-0.2314,-0.39228,-0.1746,-0.13203
0.039436,0.035429,0.047966,0.017621,0.094196,0.025836,0.020153,0.071785,-0.16097,0.16553,-0.60925,-0.7792,1.0013,4.3072,0.034871,-0.081925,0.11624,0.095924,1.5939,0.1297,-0.24146,-0.45227,-0.14347,-0.1537
0.042522,0.035481,0.043046,0.013954,0.099145,0.019675,0.024514,0.066023,-0.16859,0.10774,-0.64482,-0.73808,1.0116,3.9214,0.11586,0.071436,0.10216,0.080534,1.8908,0.1358,-0.2486,-0.44925,-0.08897,-0.15383
0.040253,0.037006,0.039381,0.018296,0.10438,0.011455,0.025625,0.057428,-0.17164,0.04926,-0.68748,-0.67526,1.0559,3.4395,0.205,0.19011,0.10224,0.082631,2.1515,0.099832,-0.24962,-0.35909,-0.027125,-0.1304
0.03285,0.03864,0.039835,0.029407,0.10844,0.0052516,0.0234,0.048102,-0.17274,0.014259,-0.71305,-0.59857,1.1301,2.9336,0.28603,0.25612,0.1109,0.097204,2.3582,0.0059283,-0.24045,-0.20049,0.02632,-0.088077
0.023313,0.038551,0.045663,0.043296,0.10973,0.0033022,0.01895,0.041029,-0.17112,0.00258,-0.70312,-0.5166,1.2063,2.4308,0.34673,0.27218,0.12207,0.11592,2.4908,-0.14473,-0.21783,-0.016408,0.06152,-0.037085
0.015514,0.035911,0.055437,0.055929,0.10846,0.0046585,0.013347,0.038626,-0.16417,-0.0081313,-0.65441,-0.43979,1.2407,1.9028,0.37894,0.25327,0.13251,0.13259,2.535,-0.33165,-0.1798,0.15634,0.077995,0.010962
0.012187,0.03182,0.065454,0.065088,0.10706,0.0064647,0.006963,0.041199,-0.15082,-0.041653,-0.58264,-0.38018,1.192,1.3029,0.37829,0.21612,0.14157,0.14547,2.4903,-0.52263,-0.12502,0.30558,0.083292,0.047228
0.013856,0.028862,0.071579,0.070426,0.10829,0.00657,-0.00019462,0.046433,-0.13367,-0.10351,-0.51559,-0.3474,1.0418,0.62179,0.3473,0.17366,0.14922,0.15606,2.3756,-0.6845,-0.053359,0.4381,0.086883,0.067656
0.019075,0.029408,0.071522,0.072369,0.11295,0.0051814,-0.0076531,0.050499,-0.11848,-0.17864,-0.47785,-0.34256,0.80504,-0.087308,0.29906,0.13543,0.15473,0.16621,2.2263,-0.79114,0.03128,0.55847,0.093111,0.072776
0.025562,0.033762,0.066162,0.0713,0.11908,0.0042736,-0.014054,0.050266,-0.1114,-0.24554,-0.4771,-0.35404,0.52377,-0.73827,0.25533,0.10985,0.15703,0.176,2.0779,-0.82792,0.11833,0.6537,0.098466,0.066544
0.031462,0.039571,0.058989,0.067731,0.12348,0.0055177,-0.017657,0.045155,-0.11609,-0.29207,-0.50232,-0.35957,0.247,-1.2692,0.23601,0.10374,0.15578,0.18363,1.9414,-0.79415,0.19196,0.69902,0.095553,0.055003
0.036068,0.043155,0.053879,0.062888,0.1242,0.0087219,-0.017454,0.037327,-0.13202,-0.31915,-0.53518,-0.33511,0.0081017,-1.6736,0.24566,0.11837,0.1519,0.18678,1.7895,-0.70368,0.23802,0.68027,0.080638,0.04463
0.039767,0.042021,0.052581,0.058619,0.12173,0.01216,-0.013991,0.030084,-0.1548,-0.33231,-0.565,-0.26733,-0.18843,-1.9766,0.26787,0.14581,0.14698,0.18438,1.5708,-0.58189,0.25251,0.61221,0.058357,0.040245
0.043426,0.036722,0.053606,0.056287,0.11802,0.01432,-0.0091391,0.025706,-0.17784,-0.33185,-0.59467,-0.16286,-0.36378,-2.1791,0.27435,0.17012,0.14224,0.17748,1.2481,-0.45885,0.24466,0.53403,0.039265,0.043167
0.047597,0.030509,0.053357,0.055569,0.11453,0.0153,-0.0048602,0.024254,-0.19484,-0.31237,-0.63299,-0.048212,-0.54752,-2.2304,0.24373,0.17379,0.13773,0.16864,0.83475,-0.36115,0.23086,0.4828,0.031919,0.050869
0.051948,0.026882,0.048781,0.054479,0.11108,0.01649,-0.0019342,0.024053,-0.20215,-0.27144,-0.68114,0.041294,-0.75636,-2.0647,0.17683,0.14644,0.13215,0.16023,0.39754,-0.30619,0.22321,0.4651,0.035993,0.058584
0.055195,0.026964,0.039671,0.050881,0.10662,0.018909,0.00026796,0.023253,-0.20038,-0.21783,-0.72612,0.078806,-0.98139,-1.68,0.097093,0.091206,0.12321,0.15259,0.017671,-0.29975,0.22154,0.45001,0.042191,0.061922
0.055591,0.028863,0.028955,0.04433,0.10074,0.021866,0.0027538,0.021213,-0.19434,-0.17059,-0.74749,0.059865,-1.1917,-1.1897,0.036498,0.026012,0.10847,0.1435,-0.26106,-0.33508,0.21535,0.38944,0.039053,0.058741
0.051781,0.029548,0.020772,0.036569,0.094277,0.023342,0.0056085,0.01877,-0.19105,-0.14885,-0.73134,0.0048724,-1.3514,-0.79203,0.017859,-0.020855,0.086568,0.12963,-0.4555,-0.39243,0.19423,0.25056,0.021086,0.049189
0.043622,0.027518,0.017729,0.030115,0.088496,0.021763,0.00778,0.017373,-0.19628,-0.16071,-0.67905,-0.05101,-1.4367,-0.66424,0.045888,-0.020184,0.05844,0.10912,-0.61736,-0.44153,0.15774,0.03587,-0.0081183,0.03431
0.032545,0.02386,0.019292,0.026161,0.083581,0.017504,0.0083068,0.017822,-0.21114,-0.19915,-0.60308,-0.074009,-1.4407,-0.85483,0.11054,0.045607,0.027747,0.083682,-0.78058,-0.45054,0.11669,-0.22226,-0.039587,0.014729
0.021272,0.020895,0.022388,0.023732,0.078162,0.012659,0.0078001,0.019498,-0.23086,-0.24671,-0.51404,-0.044788,-1.3643,-1.255,0.19636,0.17127,-0.00010847,0.058238,-0.92793,-0.40068,0.084721,-0.48669,-0.065732,-0.009347
0.012985,0.01987,0.023703,0.02103,0.070323,0.009287,0.0084615,0.020567,-0.2469,-0.28408,-0.41109,0.036782,-1.2056,-1.6731,0.28901,0.32584,-0.020219,0.038265,-1.0067,-0.29786,0.067635,-0.74047,-0.08454,-0.036832
0.010266,0.019996,0.022078,0.01784,0.059098,0.0077728,0.012192,0.019054,-0.25165,-0.2972,-0.28475,0.15413,-0.96441,-1.959,0.37581,0.46321,-0.03053,0.02649,-0.97905,-0.17096,0.059423,-0.99434,-0.098593,-0.064473
0.014166,0.019608,0.019399,0.01668,0.045056,0.0068181,0.018381,0.014123,-0.24316,-0.28075,-0.1298,0.27989,-0.66279,-2.0877,0.44447,0.54395,-0.032843,0.021455,-0.86076,-0.053873,0.048041,-1.2722,-0.11103,-0.087052
0.023815,0.01808,0.019405,0.021306,0.029593,0.0050236,0.023723,0.0067339,-0.22653,-0.23861,0.043428,0.3833,-0.36119,-2.1483,0.48483,0.55644,-0.031699,0.018887,-0.71323,0.037831,0.025632,-1.5852,-0.12265,-0.09945
0.036828,0.016471,0.025146,0.033435,0.013874,0.0024932,0.0248,-0.00083121,-0.21071,-0.18205,0.21035,0.43951,-0.14783,-2.2571,0.49399,0.52251,-0.031643,0.014764,-0.59547,0.1177,-0.0053985,-1.9114,-0.13225,-0.099315
0.050472,0.016339,0.036678,0.050423,-0.001451,0.00088067,0.021485,-0.0063518,-0.20235,-0.12515,0.34629,0.44012,-0.096323,-2.4664,0.47906,0.48214,-0.034529,0.0077835,-0.52073,0.2157,-0.034963,-2.1951,-0.13868,-0.088318
0.063018,0.018099,0.050538,0.066135,-0.015701,0.0018056,0.017963,-0.0090163,-0.2011,-0.077976,0.44265,0.39944,-0.21811,-2.7325,0.45305,0.46683,-0.038591,-0.00028904,-0.4573,0.34989,-0.053516,-2.3673,-0.14139,-0.070881
0.07442,0.020675,0.06147,0.07476,-0.027679,0.0051596,0.019881,-0.0097231,-0.19966,-0.041186,0.51167,0.34968,-0.44853,-2.9544,0.42543,0.48172,-0.039926,-0.0061605,-0.37185,0.50488,-0.058628,-2.3744,-0.13826,-0.051324
0.085778,0.022685,0.065491,0.074773,-0.036056,0.0089788,0.029559,-0.010112,-0.18872,-0.0069043,0.57554,0.3237,-0.68418,-3.0415,0.39471,0.50955,-0.035398,-0.0070122,-0.27346,0.63681,-0.054914,-2.199,-0.12328,-0.031781
0.097898,0.023786,0.062322,0.069858,-0.040309,0.011108,0.043269,-0.011181,-0.16321,0.033185,0.64821,0.33405,-0.84832,-2.9604,0.34932,0.53166,-0.024914,-0.0017034,-0.21499,0.70404,-0.048445,-1.8609,-0.087782,-0.012567
0.11003,0.024701,0.055548,0.065971,-0.041197,0.01117,0.053245,-0.012733,-0.1256,0.077745,0.72439,0.36303,-0.93556,-2.7387,0.27642,0.546,-0.011401,0.0090802,-0.2475,0.70062,-0.041208,-1.4047,-0.02672,0.00567
0.1198,0.026011,0.050308,0.066845,-0.040182,0.011029,0.053205,-0.01415,-0.084102,0.11217,0.78425,0.37256,-1.0003,-2.4374,0.17145,0.56543,0.00142,0.023233,-0.36714,0.66496,-0.03025,-0.88778,0.053881,0.020619
0.12441,0.027129,0.050076,0.071533,-0.038298,0.013268,0.043055,-0.015707,-0.047615,0.11582,0.80945,0.32857,-1.0982,-2.121,0.041548,0.59858,0.01162,0.037714,-0.50315,0.65465,-0.011527,-0.37793,0.13483,0.029776
0.12234,0.026677,0.054736,0.075811,-0.035546,0.018988,0.028909,-0.019002,-0.021119,0.07558,0.7976,0.22366,-1.2281,-1.8386,-0.098122,0.63331,0.019813,0.049065,-0.56172,0.70533,0.015431,0.047026,0.19119,0.033824
0.11417,0.023888,0.061164,0.075987,-0.031324,0.026815,0.018388,-0.025868,-0.0041633,-0.0044389,0.76449,0.082574,-1.3234,-1.624,-0.23006,0.64183,0.027451,0.054169,-0.49359,0.80552,0.045919,0.31401,0.20623,0.038504
0.10224,0.01953,0.065648,0.071752,-0.025395,0.033853,0.015095,-0.036544,0.0073885,-0.10492,0.73384,-0.051595,-1.299,-1.5053,-0.33719,0.6058,0.034187,0.051195,-0.33279,0.90688,0.072305,0.38765,0.18275,0.052163
0.0892,0.015353,0.066274,0.065802,-0.018485,0.037672,0.016791,-0.048739,0.018264,-0.20332,0.72395,-0.13959,-1.1185,-1.5154,-0.40308,0.53903,0.036797,0.04033,-0.1769,0.96174,0.087961,0.30147,0.14274,0.079864
0.07686,0.012627,0.06365,0.060972,-0.012066,0.037618,0.018495,-0.05858,0.031374,-0.28624,0.74056,-0.16171,-0.82575,-1.689,-0.41473,0.48419,0.030863,0.023756,-0.12382,0.95797,0.090293,0.15671,0.114,0.11854
0.065731,0.011316,0.059837,0.057779,-0.0076513,0.03458,0.017455,-0.062864,0.046974,-0.35305,0.77869,-0.12072,-0.5198,-2.0403,-0.37078,0.48182,0.013977,0.0046653,-0.21161,0.9238,0.081795,0.077175,0.11275,0.15767
0.055594,0.01069,0.056642,0.054541,-0.0061979,0.029748,0.015469,-0.0609,0.063166,-0.40944,0.82864,-0.035802,-0.29297,-2.5287,-0.29061,0.53597,-0.012208,-0.014317,-0.40253,0.89932,0.06933,0.14391,0.13469,0.18568
0.046415,0.010611,0.054585,0.049598,-0.0079142,0.02371,0.016648,-0.054559,0.077099,-0.45754,0.88015,0.064606,-0.18066,-3.0428,-0.21431,0.60623,-0.042911,-0.032406,-0.61862,0.89764,0.061868,0.35329,0.16093,0.19739
0.038923,0.011971,0.05303,0.043213,-0.012321,0.016643,0.022967,-0.046581,0.086459,-0.49082,0.92317,0.14861,-0.15646,-3.4322,-0.18749,0.63486,-0.073404,-0.050739,-0.80049,0.88653,0.066706,0.62642,0.17351,0.19645
0.034408,0.015727,0.050969,0.037263,-0.01835,0.0091934,0.03186,-0.03859,0.090844,-0.4965,0.94789,0.18812,-0.16743,-3.5805,-0.23652,0.58787,-0.10175,-0.071,-0.94815,0.80579,0.085122,0.85958,0.16752,0.19094
0.033804,0.02154,0.047762,0.033285,-0.024469,0.0029465,0.038032,-0.030412,0.092494,-0.46255,0.94682,0.16937,-0.17523,-3.4742,-0.35009,0.47675,-0.12875,-0.093422,-1.1178,0.60825,0.11002,0.97813,0.15068,0.18582
0.036554,0.027547,0.043477,0.031045,-0.028993,-0.00017026,0.037696,-0.021157,0.095735,-0.38388,0.91802,0.10146,-0.17042,-3.2092,-0.4818,0.34443,-0.15531,-0.11563,-1.3786,0.29551,0.12831,0.96228,0.13264,0.1789
0.04001,0.031607,0.038925,0.0291,-0.030648,0.00085904,0.031339,-0.011015,0.10499,-0.26532,0.86661,0.014101,-0.15553,-2.9181,-0.57443,0.22971,-0.17964,-0.13347,-1.7591,-0.076518,0.12784,0.84125,0.11516,0.16361
0.040018,0.03281,0.03551,0.026598,-0.029184,0.0053023,0.022787,-0.0020566,0.12229,-0.12131,0.80242,-0.058266,-0.11986,-2.6669,-0.59095,0.14219,-0.19718,-0.14341,-2.2168,-0.42532,0.10511,0.67406,0.09251,0.13615
0.032801,0.031758,0.034761,0.02425,-0.025706,0.010997,0.01584,0.002885,0.14586,0.027197,0.7354,-0.096368,-0.032946,-2.3997,-0.5313,0.067744,-0.20338,-0.14486,-2.6507,-0.68317,0.068,0.53205,0.060742,0.10075
0.017363,0.029469,0.037434,0.023372,-0.022394,0.015596,0.011746,0.002505,0.1713,0.15815,0.67217,-0.10435,0.1358,-1.9766,-0.42528,-0.0041715,-0.19714,-0.14055,-2.9495,-0.82546,0.031297,0.48294,0.025825,0.068534
-0.0030806,0.026275,0.042554,0.023956,-0.021569,0.017816,0.0094256,-0.0014567,0.19484,0.2553,0.61562,-0.098955,0.38843,-1.2749,-0.30934,-0.0611,-0.18162,-0.13436,-3.0433,-0.87089,0.0078824,0.56915,0.0015096,0.050774
-0.022025,0.02203,0.047232,0.023765,-0.024402,0.017906,0.0075054,-0.0050419,0.2164,0.31341,0.5667,-0.088957,0.68577,-0.27662,-0.20656,-0.077376,-0.16163,-0.12847,-2.9304,-0.8592,0.0020559,0.78486,-0.0018166,0.051829
-0.032991,0.017389,0.047873,0.019379,-0.029932,0.017199,0.0057617,-0.0049196,0.23975,0.33875,0.52592,-0.063597,0.96279,0.91469,-0.1235,-0.045727,-0.13987,-0.12183,-2.6639,-0.82598,0.009278,1.0698,0.012938,0.066819
-0.033477,0.01453,0.042383,0.0083425,-0.035155,0.017205,0.0047618,-0.0010092,0.26877,0.3444,0.49338,-0.0014241,1.1615,2.1233,-0.061212,0.00024464,-0.11544,-0.11125,-2.3134,-0.79147,0.021319,1.3337,0.030403,0.085069
-0.026861,0.016026,0.031888,-0.0092209,-0.036471,0.018766,0.0046841,0.0035273,0.30229,0.34355,0.46797,0.10825,1.2589,3.1634,-0.02518,-0.0012325,-0.085903,-0.094075,-1.9331,-0.76551,0.031758,1.5022,0.034164,0.096128
-0.020594,0.022525,0.02042,-0.030407,-0.031896,0.02161,0.0049717,0.0052455,0.33174,0.34524,0.44737,0.25129,1.2718,3.8761,-0.021932,-0.096544,-0.051017,-0.070203,-1.5558,-0.75719,0.037652,1.5546,0.019072,0.094113
-0.021667,0.031409,0.012398,-0.050491,-0.022601,0.024435,0.005127,0.0039005,0.34441,0.35404,0.42903,0.39576,1.239,4.1451,-0.045628,-0.27603,-0.014424,-0.041954,-1.2103,-0.7763,0.03758,1.526,-0.0058427,0.078353
-0.032465,0.038036,0.0095729,-0.06446,-0.012516,0.025563,0.0053927,0.0031529,0.33065,0.37125,0.41114,0.51384,1.195,3.9232,-0.070469,-0.47129,0.018412,-0.012308,-0.93545,-0.82471,0.029641,1.4745,-0.025671,0.051428
-0.04999,0.038889,0.0098481,-0.068797,-0.0059661,0.024019,0.0062142,0.0074001,0.29001,0.39495,0.39206,0.59894,1.1539,3.271,-0.061236,-0.59592,0.044151,0.016745,-0.77104,-0.88731,0.012211,1.44,-0.031519,0.016962
-0.068769,0.034087,0.0091272,-0.063164,-0.0048991,0.020449,0.0070251,0.017237,0.23154,0.41878,0.36853,0.66286,1.1097,2.3688,0.0030445,-0.59966,0.063747,0.044404,-0.72473,-0.9342,-0.013412,1.4258,-0.026163,-0.02145
-0.084886,0.027107,0.0048475,-0.051052,-0.0078319,0.017143,0.0059896,0.02775,0.16802,0.43237,0.33484,0.7175,1.0497,1.4592,0.11167,-0.49503,0.080902,0.070076,-0.74591,-0.93523,-0.04187,1.4113,-0.01992,-0.060534
-0.097836,0.02199,-0.0017727,-0.038376,-0.011401,0.016791,0.0014341,0.031721,0.10874,0.42579,0.28474,0.7598,0.96578,0.73321,0.22707,-0.33875,0.098417,0.09264,-0.73566,-0.87647,-0.066192,1.3799,-0.021559,-0.097722
-0.10906,0.020456,-0.0068546,-0.03019,-0.013274,0.020534,-0.0062711,0.025446,0.056234,0.39615,0.21586,0.77496,0.85897,0.23554,0.30883,-0.1872,0.11593,0.11088,-0.59707,-0.76566,-0.082155,1.335,-0.03228,-0.13168
-0.11903,0.021323,-0.0075247,-0.027606,-0.013952,0.0267,-0.014415,0.01225,0.0088255,0.35133,0.13372,0.75459,0.73584,-0.13297,0.33721,-0.063391,0.13087,0.12453,-0.29556,-0.62297,-0.09066,1.2947,-0.046861,-0.16218
-0.12581,0.022385,-0.0048766,-0.027446,-0.015929,0.031414,-0.019835,0.00043845,-0.034096,0.30655,0.051754,0.71163,0.60426,-0.5106,0.31799,0.041086,0.14128,0.13457,0.11428,-0.46607,-0.095851,1.2745,-0.059363,-0.18879
-0.12644,0.022717,-0.0033983,-0.025299,-0.021055,0.031002,-0.021369,-0.0028579,-0.069229,0.27526,-0.013915,0.67648,0.47186,-0.94816,0.26869,0.13862,0.1473,0.14207,0.51708,-0.30222,-0.10064,1.2746,-0.067557,-0.20941
-0.11963,0.023237,-0.0071894,-0.019645,-0.028627,0.024648,-0.020591,0.0030561,-0.091296,0.26044,-0.052426,0.676,0.34478,-1.3619,0.20277,0.22209,0.15007,0.14672,0.80234,-0.13298,-0.10372,1.2817,-0.072611,-0.22044
-0.10701,0.02527,-0.016338,-0.013456,-0.036012,0.015259,-0.020171,0.01228,-0.097705,0.25291,-0.063961,0.71254,0.22286,-1.5994,0.12747,0.26681,0.14942,0.14655,0.92219,0.034875,-0.10063,1.2793,-0.075587,-0.21937
-0.091815,0.028836,-0.026802,-0.011639,-0.041197,0.0077372,-0.021447,0.017154,-0.09155,0.23784,-0.059455,0.76004,0.092799,-1.5548,0.053893,0.25245,0.14322,0.13977,0.90488,0.18332,-0.087495,1.255,-0.075109,-0.20838
-0.076283,0.032443,-0.033902,-0.016357,-0.044722,0.0057958,-0.023394,0.013999,-0.08036,0.20483,-0.054219,0.77978,-0.071671,-1.2345,0.0035508,0.18076,0.12941,0.12721,0.82209,0.28802,-0.063855,1.2018,-0.068808,-0.19567
-0.060234,0.034452,-0.036136,-0.024317,-0.04902,0.0096513,-0.023681,0.0053233,-0.071796,0.15439,-0.059602,0.74288,-0.29512,-0.72894,-0.0016393,0.071697,0.1088,0.11308,0.74105,0.33037,-0.031926,1.1178,-0.057067,-0.19275
-0.042184,0.034421,-0.035811,-0.028612,-0.055714,0.016252,-0.02056,-0.002725,-0.069838,0.096837,-0.078093,0.64374,-0.57595,-0.13443,0.039769,-0.056299,0.085958,0.10315,0.69656,0.30752,0.00632,1.0091,-0.045097,-0.20848
-0.021833,0.033038,-0.036142,-0.023848,-0.063491,0.021684,-0.01386,-0.0051042,-0.074067,0.045155,-0.10477,0.49835,-0.87025,0.49016,0.097319,-0.20011,0.066755,0.10125,0.69417,0.23371,0.050796,0.89361,-0.040793,-0.24406
-0.0016133,0.030948,-0.037884,-0.010418,-0.068772,0.023795,-0.0045652,-0.0010732,-0.081723,0.0075422,-0.1334,0.33376,-1.1025,1.0968,0.1224,-0.36487,0.054698,0.10678,0.72879,0.13384,0.10148,0.79633,-0.049665,-0.29242
0.014123,0.028028,-0.0388,0.0055526,-0.068752,0.023121,0.0061419,0.0061359,-0.090253,-0.015703,-0.16228,0.17817,-1.2037,1.598,0.081143,-0.54389,0.04889,0.11523,0.79606,0.03455,0.15462,0.73234,-0.070852,-0.34251
0.021587,0.024051,-0.036232,0.016581,-0.064067,0.021816,0.017263,0.012214,-0.098424,-0.029954,-0.19535,0.055411,-1.1531,1.8701,-0.018859,-0.70789,0.045377,0.12131,0.88974,-0.042427,0.20079,0.68693,-0.097459,-0.38502
0.019773,0.01982,-0.029949,0.019054,-0.05858,0.021832,0.027653,0.014693,-0.10591,-0.041655,-0.23803,-0.01943,-0.99468,1.8308,-0.13132,-0.81792,0.040635,0.12229,0.99687,-0.083878,0.22743,0.61028,-0.12088,-0.41553
0.010977,0.01707,-0.022363,0.015307,-0.05636,0.023845,0.035722,0.013912,-0.11257,-0.055178,-0.29158,-0.046046,-0.81093,1.5267,-0.20372,-0.85256,0.0343,0.11917,1.1029,-0.086891,0.22467,0.43823,-0.13558,-0.43322
-0.00041658,0.016702,-0.01613,0.011204,-0.058528,0.027386,0.039839,0.011893,-0.11841,-0.072762,-0.35103,-0.043086,-0.67303,1.1385,-0.21458,-0.82439,0.028926,0.11503,1.204,-0.059396,0.19101,0.13145,-0.14076,-0.4372
-0.0098652,0.01708,-0.01184,0.011379,-0.062717,0.031512,0.039285,0.010485,-0.12413,-0.096189,-0.40839,-0.043186,-0.60235,0.8757,-0.18567,-0.76929,0.027121,0.11195,1.3093,-0.017954,0.13503,-0.29017,-0.13828,-0.42414
-0.014366,0.014631,-0.0081859,0.015948,-0.065538,0.035189,0.03497,0.010297,-0.1317,-0.12741,-0.45862,-0.076721,-0.57091,0.83646,-0.15973,-0.71735,0.028563,0.10923,1.4259,0.018562,0.072599,-0.74121,-0.12959,-0.38937
-0.013406,0.0068926,-0.0041824,0.021002,-0.065676,0.037285,0.029272,0.011,-0.14413,-0.16643,-0.50285,-0.15276,-0.53724,0.94672,-0.16286,-0.67229,0.029489,0.10409,1.5352,0.037939,0.020929,-1.0993,-0.11485,-0.33067
-0.0089343,-0.0045659,-0.00081709,0.022097,-0.064864,0.036699,0.025018,0.01236,-0.16431,-0.20758,-0.54586,-0.25115,-0.48612,1.0323,-0.18312,-0.61869,0.025259,0.094322,1.5876,0.041622,-0.0076273,-1.2551,-0.09482,-0.25163
-0.0042123,-0.014427,-0.00024297,0.017689,-0.066008,0.032951,0.024144,0.014838,-0.19296,-0.23724,-0.59007,-0.33322,-0.44021,0.96307,-0.18251,-0.54996,0.014035,0.080495,1.5258,0.044752,-0.0097983,-1.1585,-0.072682,-0.16198
-0.0018485,-0.017481,-0.0033991,0.0099381,-0.070391,0.026836,0.02675,0.019098,-0.22628,-0.23683,-0.6313,-0.36446,-0.43658,0.74757,-0.13097,-0.48881,-0.0013898,0.066032,1.3246,0.06787,0.0080949,-0.8404,-0.052674,-0.074025
-0.00214,-0.012985,-0.0086655,0.0026709,-0.076548,0.020403,0.031054,0.02487,-0.25487,-0.19142,-0.6606,-0.33295,-0.49179,0.50409,-0.033086,-0.47747,-0.015268,0.055022,1.013,0.12435,0.033777,-0.40006,-0.035642,0.0026683
-0.0030582,-0.005574,-0.013027,-0.001424,-0.081696,0.016003,0.034395,0.030393,-0.26559,-0.10031,-0.67068,-0.25071,-0.58664,0.34242,0.073809,-0.54235,-0.023008,0.049525,0.65975,0.21106,0.055321,0.035258,-0.015749,0.065092
-0.0021702,-0.0016597,-0.014541,-0.0020923,-0.084152,0.014994,0.03489,0.033293,-0.2468,0.017767,-0.66153,-0.1391,-0.68258,0.26697,0.14646,-0.66356,-0.024613,0.048329,0.33014,0.30873,0.066684,0.3606,0.017062,0.1166
0.00095744,-0.0042778,-0.013627,-0.00071727,-0.08444,0.017016,0.032786,0.032457,-0.19491,0.13076,-0.64033,-0.011782,-0.75281,0.1845,0.16357,-0.77792,-0.024704,0.047941,0.052043,0.39286,0.068876,0.52927,0.068812,0.16267
0.0040568,-0.010819,-0.012058,0.001321,-0.084195,0.020312,0.030437,0.029274,-0.11807,0.2095,-0.61578,0.1307,-0.79952,0.000615,0.13307,-0.81679,-0.028938,0.044866,-0.18253,0.44947,0.065891,0.55654,0.13333,0.20552
0.0040312,-0.015572,-0.010979,0.0035431,-0.084185,0.022786,0.030614,0.02688,-0.033982,0.24436,-0.59198,0.29154,-0.84336,-0.28996,0.077749,-0.74991,-0.039499,0.03753,-0.38229,0.48615,0.058714,0.49132,0.19158,0.24148
-0.0001094,-0.014783,-0.010037,0.006081,-0.083521,0.023065,0.034177,0.027733,0.037686,0.25014,-0.56696,0.46322,-0.89737,-0.60221,0.016297,-0.60127,-0.053194,0.026687,-0.52249,0.53019,0.042732,0.37631,0.22088,0.26342
-0.0059365,-0.0098193,-0.0082489,0.0089867,-0.08085,0.021021,0.038959,0.031493,0.084252,0.25416,-0.5371,0.62196,-0.95114,-0.84396,-0.043017,-0.42638,-0.063751,0.014456,-0.54668,0.61301,0.011482,0.22516,0.20815,0.26641
-0.0092591,-0.0058292,-0.0053377,0.012021,-0.076272,0.017607,0.041034,0.035167,0.10499,0.27542,-0.50336,0.73714,-0.97955,-0.9995,-0.09495,-0.27248,-0.066586,0.0029274,-0.40869,0.74861,-0.035862,0.030665,0.15776,0.25245
-0.0073842,-0.007243,-0.0020703,0.014954,-0.072006,0.014192,0.037687,0.035576,0.10955,0.31085,-0.47367,0.78941,-0.96715,-1.1324,-0.12975,-0.1547,-0.06228,-0.0067188,-0.12201,0.91971,-0.089801,-0.20813,0.087953,0.23007
-0.0011274,-0.014021,0.00042891,0.017771,-0.071,0.011733,0.029779,0.032011,0.11133,0.33926,-0.45918,0.78355,-0.92502,-1.3049,-0.13735,-0.063873,-0.055961,-0.014331,0.22707,1.0822,-0.13363,-0.46757,0.018653,0.20896
0.0061154,-0.021678,0.0012598,0.02043,-0.074644,0.010234,0.021424,0.0267,0.1202,0.33957,-0.46639,0.74592,-0.88506,-1.4913,-0.12005,0.0074395,-0.053113,-0.020471,0.51921,1.1884,-0.15313,-0.70827,-0.040048,0.1933
0.011249,-0.024812,-0.00039474,0.022544,-0.081586,0.0088468,0.016963,0.022667,0.13885,0.30725,-0.49062,0.70785,-0.87666,-1.5701,-0.098624,0.048697,-0.055277,-0.026046,0.66946,1.2151,-0.14563,-0.9029,-0.090878,0.17889
0.01371,-0.0211,-0.0054314,0.023485,-0.088644,0.0066226,0.01754,0.020995,0.16401,0.25513,-0.51499,0.6868,-0.9054,-1.409,-0.1016,0.040484,-0.059169,-0.031941,0.6733,1.1786,-0.12138,-1.056,-0.14286,0.15636
0.015312,-0.012674,-0.014063,0.022864,-0.093008,0.0033636,0.020103,0.02003,0.19053,0.19832,-0.51598,0.67844,-0.94933,-0.97252,-0.14443,-0.021487,-0.059856,-0.038542,0.59844,1.124,-0.095832,-1.1964,-0.20143,0.11857
0.018236,-0.0041538,-0.024514,0.020779,-0.093942,-0.00014405,0.01973,0.017217,0.21477,0.13772,-0.47322,0.66389,-0.97349,-0.36286,-0.2166,-0.11236,-0.055245,-0.045261,0.53148,1.0954,-0.079083,-1.3486,-0.26276,0.067431
0.023193,0.00077724,-0.032834,0.017492,-0.092837,-0.0027484,0.013462,0.011678,0.23484,0.057235,-0.37897,0.62486,-0.94997,0.23988,-0.28887,-0.18916,-0.0481,-0.05053,0.52194,1.1083,-0.070591,-1.5114,-0.31574,0.015658
0.029219,0.0015415,-0.034925,0.01298,-0.091876,-0.0038275,0.0025088,0.0049764,0.24851,-0.062511,-0.24286,0.55422,-0.87041,0.68778,-0.33397,-0.21813,-0.043967,-0.052678,0.56382,1.1426,-0.062719,-1.6631,-0.34876,-0.018002
0.03485,0.00022953,-0.029647,0.0071014,-0.092513,-0.0035683,-0.0089627,-0.00071581,0.25164,-0.22646,-0.08901,0.45489,-0.74647,0.93857,-0.34233,-0.195,-0.046821,-0.051364,0.62062,1.1623,-0.049141,-1.7884,-0.35596,-0.017787
0.039354,-0.00063866,-0.02037,0.0003867,-0.094709,-0.0023268,-0.017372,-0.0052352,0.23969,-0.41928,0.054187,0.33099,-0.60244,1.0423,-0.3202,-0.14213,-0.055998,-0.04843,0.66376,1.1436,-0.030623,-1.8993,-0.339,0.020479
0.043009,-0.0001255,-0.013204,-0.0054964,-0.097092,0.00023365,-0.022567,-0.011135,0.21149,-0.61583,0.16681,0.18192,-0.46634,1.0664,-0.2756,-0.087731,-0.066727,-0.047068,0.68817,1.0902,-0.013782,-2.0257,-0.3045,0.08586
0.046504,0.00084808,-0.012958,-0.0084715,-0.097649,0.005183,-0.027555,-0.021554,0.17197,-0.79694,0.24562,0.0067964,-0.36303,1.0304,-0.20856,-0.046628,-0.073553,-0.049416,0.69514,1.0237,-0.0049316,-2.1803,-0.26026,0.15601
0.050171,0.00087126,-0.019912,-0.0076573,-0.094574,0.013267,-0.035391,-0.037043,0.13065,-0.9549,0.30256,-0.18413,-0.31013,0.90426,-0.11596,-0.017583,-0.073776,-0.05433,0.66541,0.96116,-0.0050096,-2.3252,-0.21305,0.20644
0.053594,-0.00033864,-0.029898,-0.004392,-0.087005,0.023688,-0.045953,-0.054276,0.096296,-1.0837,0.35422,-0.3627,-0.31667,0.66312,-0.0043967,0.0055361,-0.068383,-0.057459,0.55434,0.90047,-0.0096505,-2.3708,-0.16877,0.2208
0.055717,-0.0014937,-0.037494,-0.0015358,-0.075334,0.034056,-0.055442,-0.067956,0.071592,-1.1652,0.40998,-0.49,-0.38442,0.33912,0.10483,0.023468,-0.060292,-0.05412,0.31885,0.82699,-0.013231,-2.2154,-0.1334,0.19669
0.055376,-0.00078075,-0.039797,-0.001502,-0.060753,0.041854,-0.059128,-0.074366,0.052113,-1.1675,0.46711,-0.53562,-0.51065,0.020137,0.18651,0.033116,-0.051755,-0.042962,-0.045366,0.73338,-0.012391,-1.8051,-0.11287,0.14465
0.052085,0.0025523,-0.038041,-0.0047271,-0.044105,0.046276,-0.055072,-0.073575,0.030564,-1.0623,0.51566,-0.49605,-0.68881,-0.20505,0.22965,0.037441,-0.043071,-0.027292,-0.48841,0.63289,-0.0060537,-1.1802,-0.11128,0.081442
0.046712,0.0074268,-0.036261,-0.0098536,-0.024933,0.048731,-0.045716,-0.068612,0.003184,-0.84817,0.54776,-0.39842,-0.9057,-0.3053,0.24593,0.050659,-0.033193,-0.012662,-0.9253,0.55197,0.0068693,-0.47939,-0.12825,0.02227
0.041384,0.011646,-0.038346,-0.015185,-0.0017873,0.051428,-0.036124,-0.062709,-0.02616,-0.55839,0.56294,-0.28615,-1.1374,-0.31808,0.26005,0.090408,-0.021188,-0.0025497,-1.2738,0.50781,0.028558,0.10587,-0.1573,-0.023926
0.038279,0.01356,-0.045628,-0.019795,0.026014,0.055212,-0.030438,-0.05728,-0.046626,-0.24583,0.56541,-0.196,-1.3503,-0.30682,0.28997,0.1622,-0.0071231,0.004147,-1.483,0.4906,0.060409,0.41178,-0.18639,-0.054617
0.037885,0.013376,-0.056334,-0.023266,0.056439,0.058599,-0.029525,-0.052272,-0.045041,0.045336,0.55759,-0.14194,-1.511,-0.30725,0.33413,0.25024,0.0081054,0.011536,-1.5378,0.46673,0.10013,0.38319,-0.20136,-0.071329
0.038095,0.013028,-0.066808,-0.024734,0.084515,0.058924,-0.031412,-0.047974,-0.011938,0.29686,0.53748,-0.11516,-1.5999,-0.31132,0.37531,0.32393,0.023337,0.022466,-1.4492,0.40102,0.14129,0.11197,-0.19165,-0.077597
0.035256,0.014622,-0.073493,-0.022776,0.10457,0.054572,-0.033554,-0.046019,0.053423,0.50884,0.50282,-0.097738,-1.6203,-0.29751,0.39578,0.35614,0.037272,0.035383,-1.2463,0.2797,0.17651,-0.19608,-0.1562,-0.078222
0.026774,0.018627,-0.074627,-0.016757,0.11356,0.046325,-0.034572,-0.048261,0.14065,0.67617,0.45698,-0.079248,-1.5937,-0.27069,0.38962,0.339,0.048102,0.04509,-0.97666,0.11606,0.20185,-0.31855,-0.10593,-0.078457
0.013401,0.023263,-0.071023,-0.0083746,0.11297,0.036704,-0.034206,-0.05465,0.22948,0.77355,0.40896,-0.065539,-1.5458,-0.26655,0.3628,0.2861,0.053371,0.046628,-0.70396,-0.063677,0.2186,-0.1288,-0.059832,-0.081555
-0.00073534,0.025714,-0.065711,-0.0015135,0.10771,0.028052,-0.032357,-0.062386,0.2951,0.76681,0.36496,-0.076119,-1.4934,-0.31316,0.32403,0.22082,0.050646,0.038751,-0.4889,-0.24047,0.23099,0.34217,-0.035177,-0.085422
-0.010695,0.024279,-0.062548,0.00012608,0.10292,0.021149,-0.028884,-0.067497,0.3162,0.64402,0.31847,-0.13394,-1.4422,-0.38668,0.27684,0.16145,0.038717,0.024106,-0.35883,-0.41135,0.2421,0.93243,-0.037278,-0.081463
-0.014123,0.019734,-0.064232,-0.0040728,0.10118,0.01547,-0.02448,-0.067635,0.28225,0.43929,0.24872,-0.25468,-1.3937,-0.40847,0.22004,0.11408,0.018333,0.0064064,-0.28751,-0.58131,0.25155,1.4448,-0.055989,-0.058144
-0.012946,0.014728,-0.070645,-0.01075,0.10201,0.010546,-0.021138,-0.063627,0.19644,0.22524,0.13146,-0.44078,-1.3528,-0.2957,0.15431,0.076109,-0.0081601,-0.012468,-0.20639,-0.74747,0.25672,1.7472,-0.072344,-0.0082652
-0.012033,0.011665,-0.078589,-0.014726,0.10348,0.0069042,-0.020818,-0.058441,0.072558,0.07472,-0.044632,-0.68096,-1.3271,-0.030177,0.087328,0.045037,-0.037921,-0.032827,-0.045534,-0.89039,0.25568,1.8157,-0.07117,0.064699
-0.0158,0.010901,-0.083482,-0.0127,0.10406,0.0056025,-0.023091,-0.054564,-0.071449,0.018996,-0.26711,-0.95314,-1.3187,0.30832,0.032582,0.024421,-0.068462,-0.055054,0.22243,-0.9801,0.24861,1.7066,-0.0505,0.14602
-0.025296,0.010828,-0.08228,-0.0056265,0.10292,0.0068307,-0.024365,-0.052178,-0.21907,0.03358,-0.50185,-1.2281,-1.3165,0.57226,0.0034396,0.023504,-0.097601,-0.07746,0.56564,-0.9925,0.23648,1.4932,-0.020928,0.21602
-0.037866,0.0097468,-0.075776,0.0020213,0.099213,0.0090163,-0.020352,-0.049651,-0.3569,0.06181,-0.7055,-1.4738,-1.2966,0.62176,0.0075887,0.052513,-0.12291,-0.096322,0.91282,-0.9245,0.21861,1.2228,0.0039169,0.25958
-0.049497,0.007716,-0.068389,0.0054137,0.091414,0.0094141,-0.010213,-0.045739,-0.47322,0.05665,-0.8406,-1.6621,-1.2322,0.39633,0.044658,0.11773,-0.14151,-0.10807,1.191,-0.79902,0.19219,0.91609,0.017558,0.2729
-0.057896,0.0065361,-0.065171,0.0024916,0.078128,0.0058067,0.0014175,-0.041337,-0.55713,0.0089768,-0.88672,-1.7774,-1.1059,-0.058806,0.10616,0.21856,-0.15073,-0.11155,1.3533,-0.65816,0.15513,0.59307,0.023503,0.2637
-0.063938,0.0077788,-0.067962,-0.0050868,0.059656,-0.0020706,0.0070192,-0.039112,-0.60041,-0.05557,-0.84601,-1.8238,-0.92036,-0.62033,0.17615,0.34651,-0.14902,-0.10828,1.3834,-0.54866,0.10977,0.29171,0.029513,0.24523
-0.070527,0.010709,-0.073632,-0.013449,0.038826,-0.012532,0.0018167,-0.041305,-0.60113,-0.10259,-0.74329,-1.8232,-0.70029,-1.1445,0.23341,0.48554,-0.13649,-0.10081,1.2851,-0.5056,0.064025,0.060194,0.039347,0.22804
-0.079973,0.012233,-0.076078,-0.018996,0.019957,-0.023288,-0.012186,-0.047617,-0.56524,-0.11332,-0.61953,-1.8028,-0.48608,-1.5204,0.25694,0.61441,-0.11484,-0.090776,1.0736,-0.53948,0.027785,-0.065908,0.049282,0.21381
-0.092018,0.009228,-0.070746,-0.02012,0.0064875,-0.032951,-0.027375,-0.05501,-0.50368,-0.089457,-0.51762,-1.777,-0.31893,-1.6983,0.23403,0.71133,-0.087034,-0.078537,0.77699,-0.63118,0.006793,-0.078465,0.051685,0.19431
-0.10389,0.0013958,-0.058273,-0.017391,-0.00097541,-0.041457,-0.036156,-0.059636,-0.42645,-0.041035,-0.46431,-1.736,-0.22267,-1.6895,0.16644,0.75983,-0.057318,-0.06456,0.43941,-0.73773,-0.0011536,0.0085024,0.041655,0.15541
-0.11206,-0.007915,-0.04432,-0.012639,-0.004691,-0.049209,-0.036473,-0.059345,-0.33848,0.025873,-0.45813,-1.6513,-0.19113,-1.5484,0.069667,0.75268,-0.030925,-0.050859,0.11558,-0.80783,-0.0040475,0.17533,0.020896,0.084551
-0.11425,-0.013836,-0.03563,-0.0078062,-0.0079202,-0.055868,-0.032744,-0.054873,-0.2412,0.10818,-0.4728,-1.495,-0.1905,-1.345,-0.034376,0.69207,-0.012787,-0.040766,-0.14265,-0.80102,-0.0084398,0.40702,-0.0036783,-0.021728
-0.11037,-0.01352,-0.035324,-0.0040956,-0.012615,-0.060046,-0.031685,-0.048954,-0.13856,0.19426,-0.47556,-1.2615,-0.17776,-1.1349,-0.12579,0.58694,-0.0051584,-0.036696,-0.29789,-0.70202,-0.012566,0.68931,-0.024445,-0.15378
-0.10221,-0.0083248,-0.041038,-0.0015646,-0.01834,-0.060299,-0.036656,-0.044264,-0.041857,0.25657,-0.44837,-0.97496,-0.1244,-0.93529,-0.19035,0.45081,-0.0055639,-0.037518,-0.32861,-0.52432,-0.0058538,0.99832,-0.036804,-0.29089
-0.092596,-0.002913,-0.04713,0.00083298,-0.023038,-0.056661,-0.045096,-0.041812,0.032031,0.26019,-0.39708,-0.68001,-0.027703,-0.71781,-0.21793,0.30165,-0.0069704,-0.037823,-0.22444,-0.30315,0.023553,1.2975,-0.040177,-0.40922
-0.084495,-0.0019526,-0.048969,0.0046767,-0.024859,-0.051379,-0.050739,-0.040829,0.069148,0.18368,-0.34346,-0.42142,0.1001,-0.42643,-0.201,0.1623,-0.00076755,-0.03021,0.012667,-0.082402,0.078125,1.548,-0.037093,-0.49171
-0.080154,-0.0068987,-0.045959,0.011071,-0.023581,-0.048046,-0.048371,-0.039923,0.067605,0.036707,-0.30851,-0.22738,0.2564,-0.011331,-0.1381,0.05748,0.019024,-0.0095023,0.3568,0.099612,0.14548,1.7244,-0.031866,-0.53408
-0.080162,-0.015141,-0.041281,0.019696,-0.0206,-0.049551,-0.037286,-0.038418,0.040151,-0.14037,-0.30064,-0.10381,0.4643,0.54144,-0.040613,0.0062755,0.053001,0.023822,0.74712,0.22238,0.20357,1.8237,-0.029153,-0.54264
-0.082906,-0.021964,-0.039089,0.02861,-0.017603,-0.056188,-0.021279,-0.036849,0.0077781,-0.29552,-0.31535,-0.039032,0.76275,1.2041,0.064364,0.013811,0.096725,0.063483,1.0959,0.29049,0.23389,1.8595,-0.031784,-0.52521
-0.085206,-0.023777,-0.041534,0.035093,-0.015065,-0.065221,-0.0059971,-0.036386,-0.011204,-0.38947,-0.34195,-0.012624,1.174,1.9241,0.14147,0.068241,0.14352,0.1009,1.3217,0.33218,0.23325,1.8476,-0.038303,-0.48178
-0.084271,-0.020362,-0.047608,0.037034,-0.011783,-0.072261,0.003908,-0.037694,-0.0092681,-0.40962,-0.3687,-0.0034932,1.6729,2.6442,0.16265,0.14612,0.18756,0.13012,1.3919,0.38648,0.21466,1.7936,-0.042412,-0.40311
-0.079834,-0.014759,-0.054047,0.033864,-0.0059322,-0.073643,0.0062365,-0.040084,0.0095012,-0.36702,-0.3832,0.0040128,2.1834,3.3053,0.12115,0.22291,0.22538,0.1508,1.3446,0.48233,0.19608,1.6927,-0.036259,-0.28029
-0.074677,-0.011091,-0.057245,0.02639,0.0031164,-0.068405,0.0014076,-0.041514,0.034583,-0.28293,-0.37232,0.015951,2.6074,3.8332,0.034404,0.28177,0.25553,0.1671,1.2717,0.62049,0.18591,1.5404,-0.016441,-0.11915
-0.072776,-0.011897,-0.054934,0.015794,0.013667,-0.058736,-0.0078347,-0.039477,0.055554,-0.1769,-0.32647,0.028176,2.8663,4.1371,-0.065712,0.31624,0.27732,0.1833,1.2689,0.76999,0.17735,1.3451,0.01178,0.052228
-0.07627,-0.016715,-0.047103,0.0027573,0.022374,-0.048709,-0.017077,-0.032343,0.066175,-0.063138,-0.24679,0.031505,2.9288,4.1402,-0.14769,0.32822,0.28982,0.1997,1.3833,0.8833,0.15662,1.1324,0.036347,0.19193
-0.083674,-0.022734,-0.036102,-0.012579,0.026482,-0.04205,-0.021844,-0.020466,0.065321,0.046947,-0.14794,0.021529,2.8115,3.8347,-0.19102,0.32548,0.29165,0.21188,1.5882,0.92174,0.1178,0.93862,0.046188,0.26597
-0.090924,-0.026901,-0.025927,-0.029869,0.026073,-0.04025,-0.020068,-0.0063839,0.056002,0.14247,-0.052102,0.0068381,2.564,3.3186,-0.18897,0.32036,0.28162,0.2142,1.7999,0.87529,0.07095,0.79639,0.039285,0.26931
-0.094509,-0.027915,-0.020658,-0.047814,0.024494,-0.042093,-0.01382,0.0062105,0.043589,0.2151,0.022508,0.0080951,2.2533,2.7705,-0.14653,0.32693,0.25993,0.20459,1.9233,0.76515,0.03535,0.72072,0.024347,0.22992
-0.09418,-0.026716,-0.022369,-0.064113,0.026373,-0.044832,-0.0083232,0.014442,0.033407,0.26354,0.069334,0.045876,1.9558,2.3639,-0.078069,0.35375,0.22942,0.18677,1.8992,0.62942,0.023165,0.7012,0.014205,0.19093
-0.093074,-0.025303,-0.029566,-0.076184,0.034504,-0.046196,-0.0081461,0.018088,0.028017,0.29584,0.091964,0.12427,1.7462,2.1716,-0.0046544,0.39543,0.19565,0.16787,1.73,0.50261,0.02781,0.70246,0.016073,0.18284
-0.095267,-0.024981,-0.037376,-0.082208,0.047889,-0.045852,-0.013265,0.019931,0.025355,0.32655,0.096358,0.22242,1.6771,2.1307,0.051811,0.43126,0.16522,0.1534,1.4728,0.40196,0.028008,0.67207,0.026692,0.20581
-0.10286,-0.025539,-0.039999,-0.081968,0.062464,-0.045341,-0.018521,0.023973,0.019071,0.36961,0.085063,0.30203,1.7555,2.0979,0.078271,0.43646,0.14254,0.14358,1.2067,0.32635,0.0048161,0.55433,0.036265,0.23508
-0.11484,-0.025876,-0.034319,-0.077148,0.073977,-0.046585,-0.017532,0.032436,0.001245,0.4306,0.058353,0.32818,1.9352,1.9553,0.078426,0.40056,0.12713,0.13381,0.99362,0.2648,-0.042796,0.30729,0.03745,0.24386
-0.12829,-0.025294,-0.022362,-0.070887,0.080763,-0.050219,-0.0081754,0.043746,-0.033916,0.50222,0.019436,0.29032,2.1383,1.6889,0.071232,0.3381,0.11366,0.11868,0.85382,0.2066,-0.097431,-0.082272,0.031317,0.22466
-0.14042,-0.02421,-0.010532,-0.066545,0.084278,-0.055111,0.005038,0.053351,-0.087098,0.56546,-0.022988,0.20975,2.2922,1.3819,0.078346,0.27997,0.09533,0.096033,0.76674,0.14656,-0.13851,-0.59211,0.02516,0.19216
-0.14957,-0.02369,-0.0056139,-0.065983,0.087103,-0.05947,0.014044,0.057022,-0.15241,0.59724,-0.057964,0.12862,2.3584,1.1348,0.10861,0.24957,0.068315,0.067833,0.69364,0.084108,-0.16021,-1.1701,0.024734,0.16717
-0.15478,-0.02443,-0.010023,-0.068324,0.090269,-0.062596,0.013426,0.054073,-0.21732,0.58171,-0.077845,0.087833,2.3307,0.98132,0.15165,0.24271,0.034006,0.037751,0.60453,0.019616,-0.17682,-1.7503,0.028606,0.15737
-0.1549,-0.026184,-0.01984,-0.070242,0.092259,-0.065738,0.0045951,0.0477,-0.26402,0.52005,-0.08055,0.10778,2.2151,0.87094,0.18593,0.22965,-0.0025801,0.0080457,0.49142,-0.047437,-0.21096,-2.2737,0.03013,0.15206
-0.14885,-0.028071,-0.027385,-0.068003,0.090554,-0.071286,-0.0055128,0.042097,-0.27331,0.43211,-0.067067,0.1825,2.0132,0.72673,0.19494,0.17952,-0.036623,-0.021441,0.36087,-0.11683,-0.27496,-2.7072,0.024946,0.13481
-0.13688,-0.0293,-0.026659,-0.060029,0.084276,-0.080924,-0.01,0.038949,-0.23112,0.34748,-0.038261,0.28781,1.7304,0.52292,0.17844,0.087177,-0.06614,-0.051726,0.21466,-0.18522,-0.3608,-3.058,0.01627,0.10167
-0.12161,-0.029576,-0.017559,-0.048018,0.075502,-0.094259,-0.007043,0.036553,-0.13596,0.29019,0.0046615,0.39551,1.3952,0.31102,0.15093,-0.021111,-0.091456,-0.082533,0.034671,-0.24755,-0.44613,-3.3766,0.012033,0.068053
-0.10711,-0.028958,-0.0056358,-0.035634,0.068015,-0.10903,-0.00040498,0.032339,-0.0025738,0.26685,0.05671,0.48443,1.0645,0.17063,0.13022,-0.10875,-0.11266,-0.11173,-0.2163,-0.30386,-0.51001,-3.7415,0.015908,0.058214
-0.096455,-0.02754,0.0022275,-0.025808,0.064543,-0.12262,0.0044503,0.026201,0.14191,0.26625,0.10797,0.54426,0.79588,0.13021,0.12672,-0.1577,-0.12805,-0.13666,-0.57836,-0.3665,-0.54495,-4.2186,0.020834,0.086584
-0.08937,-0.02538,0.0026302,-0.019011,0.06488,-0.13366,0.0048967,0.021234,0.26887,0.2702,0.14847,0.57383,0.60703,0.12987,0.14113,-0.17853,-0.13523,-0.1557,-1.0718,-0.4593,-0.55629,-4.8056,0.012571,0.14676
-0.082235,-0.02272,-0.0027232,-0.013992,0.066397,-0.14247,0.0026055,0.021048,0.35989,0.26675,0.1762,0.57806,0.45704,0.061318,0.16953,-0.19154,-0.13374,-0.16849,-1.6769,-0.60421,-0.55204,-5.3905,-0.017605,0.21644
-0.07051,-0.020133,-0.0092534,-0.010122,0.066352,-0.15013,0.0013768,0.026344,0.41159,0.25544,0.20091,0.56555,0.27473,-0.14892,0.20861,-0.1969,-0.12614,-0.17479,-2.3231,-0.80121,-0.53379,-5.7623,-0.060674,0.27258
-0.051817,-0.018361,-0.013085,-0.0088043,0.06389,-0.1572,0.0038744,0.034217,0.43041,0.24138,0.23873,0.54622,0.016914,-0.48493,0.25552,-0.1636,-0.11607,-0.17359,-2.8918,-1.0158,-0.49683,-5.6914,-0.089259,0.30379
-0.027299,-0.017929,-0.012965,-0.012199,0.060157,-0.16287,0.010099,0.040892,0.42231,0.22469,0.30066,0.52824,-0.28972,-0.86088,0.30351,-0.052306,-0.10493,-0.16364,-3.244,-1.1861,-0.438,-5.0514,-0.072253,0.31125
-0.00045553,-0.018889,-0.0096745,-0.020262,0.056776,-0.16522,0.018237,0.045079,0.38657,0.19562,0.38369,0.51543,-0.5598,-1.1938,0.33923,0.14415,-0.090541,-0.14512,-3.2699,-1.2497,-0.36287,-3.9129,0.0032209,0.30115
0.02515,-0.02088,-0.0044539,-0.029103,0.054311,-0.16218,0.026377,0.048545,0.31925,0.14015,0.47184,0.50711,-0.70793,-1.4621,0.34625,0.37798,-0.069778,-0.12114,-2.9481,-1.1745,-0.28503,-2.544,0.11767,0.27795
0.047267,-0.023425,0.0017995,-0.032855,0.05206,-0.15256,0.03338,0.053427,0.2231,0.051565,0.5464,0.50121,-0.70904,-1.6974,0.31393,0.56532,-0.043358,-0.097668,-2.3757,-0.97652,-0.21849,-1.3033,0.22507,0.24513
0.064606,-0.026152,0.0083169,-0.02799,0.049083,-0.13672,0.038684,0.059251,0.11415,-0.06207,0.59755,0.49797,-0.61379,-1.9209,0.24592,0.63716,-0.018586,-0.081847,-1.7385,-0.71261,-0.17025,-0.47844,0.27821,0.21037
0.075857,-0.02876,0.014292,-0.016425,0.045228,-0.11646,0.041902,0.062933,0.017713,-0.18078,0.62882,0.50101,-0.50944,-2.0863,0.1621,0.58453,-0.0068419,-0.079492,-1.2225,-0.45353,-0.1394,-0.16561,0.25869,0.18718
0.079713,-0.030839,0.01941,-0.0043898,0.041142,-0.094356,0.04291,0.061853,-0.04479,-0.28381,0.65201,0.51442,-0.46038,-2.0917,0.091401,0.46261,-0.016734,-0.092901,-0.91446,-0.25432,-0.12218,-0.25647,0.19059,0.18858
0.076209,-0.031877,0.024379,0.0022907,0.037383,-0.072801,0.042155,0.056846,-0.06789,-0.36067,0.67752,0.53887,-0.47491,-1.8574,0.058212,0.34963,-0.047775,-0.11981,-0.75884,-0.13699,-0.11719,-0.53109,0.12629,0.21725
0.068017,-0.031673,0.03041,0.0025735,0.033639,-0.05339,0.040569,0.051888,-0.063498,-0.41501,0.70787,0.57055,-0.51824,-1.41,0.069259,0.29185,-0.089655,-0.15404,-0.6052,-0.092446,-0.12553,-0.78881,0.11213,0.26156
0.060009,-0.030867,0.037715,0.00040742,0.028863,-0.036885,0.039072,0.050544,-0.050598,-0.46017,0.73865,0.60443,-0.55282,-0.89737,0.10845,0.27589,-0.12821,-0.18775,-0.31798,-0.096152,-0.14632,-0.9345,0.15789,0.30244
0.05689,-0.03094,0.044583,0.00065727,0.022188,-0.023669,0.038187,0.052472,-0.041684,-0.51107,0.76493,0.63883,-0.56945,-0.51487,0.14376,0.24686,-0.15392,-0.21448,0.12764,-0.12594,-0.17302,-0.98048,0.23236,0.32639
0.060557,-0.033282,0.048339,0.0044726,0.013757,-0.014178,0.03808,0.053329,-0.036583,-0.57738,0.78676,0.67667,-0.58732,-0.39331,0.14347,0.15485,-0.16655,-0.23126,0.62971,-0.17131,-0.1953,-0.98771,0.28777,0.33373
0.0692,-0.037829,0.047699,0.0083044,0.0047057,-0.0089657,0.038717,0.048287,-0.027441,-0.66015,0.80904,0.72161,-0.63108,-0.5277,0.092965,-0.0075236,-0.1726,-0.23841,1.0288,-0.23102,-0.20552,-1.0051,0.29343,0.33481
0.078814,-0.042557,0.044317,0.0073919,-0.0036846,-0.0084519,0.039744,0.036114,-0.0091184,-0.7507,0.83627,0.77216,-0.70927,-0.79388,0.0021282,-0.20314,-0.17791,-0.23746,1.2067,-0.30385,-0.20448,-1.0499,0.25234,0.33757
0.085851,-0.044714,0.041801,0.00044223,-0.010913,-0.012687,0.0403,0.02036,0.014699,-0.83095,0.86725,0.81921,-0.81133,-1.0322,-0.10124,-0.3799,-0.18198,-0.22884,1.1434,-0.38149,-0.20085,-1.1274,0.18999,0.3377
0.08906,-0.043188,0.042828,-0.0088089,-0.017451,-0.021274,0.039364,0.0067366,0.034642,-0.87571,0.89501,0.84976,-0.92013,-1.1346,-0.18759,-0.50462,-0.17879,-0.2117,0.90323,-0.45009,-0.20437,-1.2542,0.12858,0.32082
0.089428,-0.039961,0.046977,-0.01454,-0.024034,-0.033262,0.036679,-0.001047,0.044389,-0.85847,0.91231,0.85437,-1.0245,-1.0798,-0.24126,-0.57548,-0.1633,-0.18586,0.57612,-0.49952,-0.21825,-1.4535,0.070635,0.27578
0.08873,-0.038949,0.051331,-0.013569,-0.030646,-0.046813,0.033324,-0.0036452,0.04659,-0.7607,0.91791,0.83226,-1.1203,-0.91161,-0.26625,-0.6095,-0.13764,-0.15424,0.22739,-0.53278,-0.23685,-1.7279,0.0049599,0.20761
0.088104,-0.042748,0.053278,-0.0076611,-0.036122,-0.058909,0.031024,-0.0049344,0.050609,-0.58143,0.91765,0.78979,-1.2015,-0.6917,-0.28026,-0.62232,-0.111,-0.12296,-0.11071,-0.56727,-0.25068,-2.038,-0.074356,0.13828
0.087677,-0.049963,0.052799,-0.0015934,-0.038823,-0.065719,0.030477,-0.0084912,0.064297,-0.34252,0.91852,0.73338,-1.253,-0.46635,-0.30211,-0.62032,-0.093069,-0.098593,-0.41645,-0.62592,-0.25413,-2.315,-0.15655,0.092633
0.087231,-0.055778,0.052103,0.00096922,-0.037961,-0.06404,0.030291,-0.014599,0.087167,-0.085688,0.92018,0.66279,-1.2525,-0.26026,-0.34128,-0.60903,-0.086413,-0.084268,-0.66071,-0.72382,-0.24904,-2.4989,-0.22171,0.080171
0.087014,-0.055704,0.053135,-1.2555e-005,-0.034589,-0.053227,0.027789,-0.020157,0.11068,0.13946,0.91154,0.57041,-1.183,-0.085238,-0.39499,-0.60516,-0.084609,-0.077728,-0.81794,-0.85983,-0.24115,-2.5695,-0.25856,0.08728
0.087912,-0.049469,0.055568,-0.0019821,-0.031413,-0.036287,0.021219,-0.021573,0.125,0.29233,0.87626,0.44763,-1.0452,0.053247,-0.45297,-0.6369,-0.077661,-0.073032,-0.89588,-1.0183,-0.23252,-2.5425,-0.27332,0.087158
0.090834,-0.041547,0.057209,-0.0028573,-0.031458,-0.018946,0.011359,-0.018403,0.12605,0.35619,0.80426,0.29386,-0.86363,0.1562,-0.5052,-0.72946,-0.060079,-0.064591,-0.95051,-1.1787,-0.21732,-2.4351,-0.28013,0.060335
0.095939,-0.037643,0.056117,-0.002966,-0.03642,-0.0068388,0.00096356,-0.014909,0.11736,0.34316,0.70111,0.12143,-0.68002,0.23093,-0.54716,-0.88724,-0.034742,-0.050543,-1.0617,-1.3261,-0.18541,-2.2343,-0.28272,0.010021
0.10237,-0.040043,0.052055,-0.0041804,-0.04578,-0.0025217,-0.0075109,-0.018122,0.10566,0.28622,0.58832,-0.047024,-0.53633,0.28542,-0.57945,-1.087,-0.009677,-0.033114,-1.28,-1.4545,-0.13127,-1.8995,-0.26654,-0.039589
0.10866,-0.045858,0.045855,-0.00752,-0.057192,-0.0043529,-0.013852,-0.033497,0.094911,0.22185,0.4939,-0.18694,-0.45604,0.32195,-0.60315,-1.2873,0.0088747,-0.016134,-1.5841,-1.5626,-0.060552,-1.3991,-0.21096,-0.06047
0.11341,-0.049642,0.037792,-0.011862,-0.067794,-0.0080446,-0.020023,-0.060894,0.083777,0.1736,0.43922,-0.28052,-0.43197,0.3385,-0.61548,-1.4469,0.020815,-0.0019755,-1.8861,-1.6453,0.01183,-0.75049,-0.11129,-0.040138
0.11565,-0.048013,0.027306,-0.01502,-0.075582,-0.0096591,-0.028287,-0.093504,0.068264,0.14638,0.43018,-0.32114,-0.42836,0.33883,-0.61013,-1.5424,0.030575,0.0097081,-2.0869,-1.6894,0.071337,-0.030517,0.0096622,0.010633
0.11499,-0.042258,0.014747,-0.015953,-0.080015,-0.007747,-0.039244,-0.12049,0.046761,0.13375,0.45699,-0.31288,-0.39735,0.34003,-0.58253,-1.5759,0.041736,0.020839,-2.1416,-1.6761,0.11343,0.65046,0.11212,0.065567
0.11178,-0.03688,0.0031713,-0.015822,-0.081655,-0.0031648,-0.051315,-0.13187,0.022937,0.131,0.5009,-0.26794,-0.30282,0.36528,-0.53582,-1.5716,0.053209,0.032683,-2.0855,-1.5906,0.14551,1.1907,0.16427,0.098433
0.10775,-0.035668,-0.0025479,-0.016909,-0.081289,0.0028272,-0.061751,-0.12305,0.0041289,0.14246,0.54247,-0.20432,-0.1392,0.42228,-0.48172,-1.5612,0.060401,0.044474,-1.9993,-1.4324,0.17982,1.5286,0.16179,0.095037
0.10662,-0.03883,0.00050511,-0.02054,-0.079227,0.010139,-0.068192,-0.096463,-0.0033747,0.17692,0.567,-0.14346,0.065057,0.48437,-0.43477,-1.5652,0.059946,0.053907,-1.9406,-1.2195,0.22347,1.6521,0.12768,0.055764
0.11382,-0.043375,0.0097887,-0.025935,-0.075261,0.019525,-0.069769,-0.059937,0.0016235,0.23582,0.56601,-0.10544,0.26178,0.49392,-0.40412,-1.5775,0.053473,0.058982,-1.897,-0.98142,0.27366,1.5937,0.094541,-0.0090348
0.13456,-0.045882,0.01788,-0.030879,-0.069175,0.03076,-0.067496,-0.022838,0.014971,0.30615,0.53705,-0.10147,0.40719,0.3923,-0.3893,-1.565,0.046952,0.059727,-1.7999,-0.74725,0.32148,1.4209,0.084272,-0.085002
0.17074,-0.044876,0.017609,-0.033399,-0.061308,0.041355,-0.064023,0.0076191,0.030794,0.36592,0.48365,-0.12756,0.4826,0.15787,-0.38245,-1.487,0.046157,0.058393,-1.5864,-0.53462,0.36007,1.2236,0.09953,-0.15775
0.21839,-0.040949,0.0077944,-0.032989,-0.052692,0.047538,-0.062692,0.028142,0.046084,0.3989,0.41527,-0.16516,0.50076,-0.17603,-0.37376,-1.324,0.05198,0.057792,-1.2611,-0.3475,0.38995,1.0932,0.12953,-0.21573
0.2678,-0.03512,-0.0055668,-0.03063,-0.044738,0.047117,-0.06588,0.038916,0.062554,0.4061,0.34498,-0.19073,0.49576,-0.53814,-0.35465,-1.0978,0.059279,0.058735,-0.90522,-0.18164,0.41713,1.0943,0.16212,-0.25389
0.30678,-0.027496,-0.014165,-0.027945,-0.038835,0.041853,-0.073273,0.042064,0.084191,0.40334,0.28382,-0.18925,0.504,-0.86038,-0.31747,-0.8645,0.060076,0.058467,-0.62903,-0.031417,0.44596,1.2424,0.19205,-0.27786
0.32585,-0.017615,-0.014369,-0.026269,-0.03613,0.036939,-0.081463,0.040346,0.11248,0.4062,0.23432,-0.16153,0.54761,-1.114,-0.25566,-0.68246,0.048809,0.051716,-0.50365,0.10746,0.47343,1.501,0.22109,-0.3057
0.32227,-0.0059349,-0.01025,-0.02612,-0.03734,0.037505,-0.085827,0.036569,0.14341,0.41533,0.18857,-0.11939,0.62854,-1.3168,-0.1681,-0.57501,0.026158,0.034346,-0.52492,0.23897,0.48978,1.8005,0.25331,-0.36438
0.30058,0.0053293,-0.0098849,-0.027054,-0.042294,0.044717,-0.083944,0.033199,0.16926,0.41529,0.13419,-0.072165,0.73363,-1.5087,-0.065171,-0.51596,-0.0008397,0.0074065,-0.63002,0.36633,0.48538,2.0673,0.29052,-0.48077
0.26928,0.013197,-0.018132,-0.027839,-0.049323,0.054721,-0.078056,0.031623,0.18395,0.3884,0.065982,-0.015812,0.84455,-1.7178,0.03057,-0.44842,-0.022352,-0.021666,-0.74544,0.48707,0.45838,2.2462,0.33092,-0.66953
0.23599,0.016096,-0.032275,-0.026977,-0.055331,0.061484,-0.074216,0.031352,0.1878,0.33145,-0.0052849,0.065272,0.94528,-1.939,0.09393,-0.32397,-0.030851,-0.042455,-0.82543,0.58848,0.41726,2.3109,0.3701,-0.92286
0.20438,0.015301,-0.044357,-0.023568,-0.057205,0.061302,-0.078147,0.030141,0.18737,0.26021,-0.055708,0.18438,1.0241,-2.137,0.1121,-0.13416,-0.024862,-0.047897,-0.85659,0.65167,0.3762,2.2668,0.40228,-1.2072
0.17477,0.014223,-0.048034,-0.018093,-0.054019,0.055317,-0.090689,0.025542,0.19041,0.19733,-0.063635,0.33775,1.0726,-2.2655,0.093645,0.086398,-0.0092401,-0.039107,-0.83763,0.66658,0.34687,2.1497,0.4209,-1.4707
0.14735,0.015907,-0.043852,-0.012461,-0.048187,0.048102,-0.10654,0.017046,0.19982,0.15385,-0.028056,0.50134,1.086,-2.2843,0.063191,0.28336,0.0080893,-0.024746,-0.76106,0.64783,0.33235,2.0154,0.41913,-1.66
0.12503,0.02073,-0.038402,-0.0090063,-0.044024,0.043804,-0.11766,0.0069805,0.21179,0.12047,0.024359,0.64217,1.0654,-2.1674,0.044793,0.41192,0.020826,-0.014963,-0.61372,0.63587,0.32674,1.9167,0.39124,-1.7397
0.11311,0.026164,-0.038413,-0.008978,-0.044302,0.043289,-0.11888,-0.00098496,0.21915,0.07575,0.051377,0.73506,1.02,-1.9037,0.046786,0.45139,0.027419,-0.014331,-0.38958,0.67696,0.31979,1.8735,0.33449,-1.7036
0.11573,0.028823,-0.045215,-0.011639,-0.047578,0.044501,-0.11138,-0.0048377,0.21705,0.0036666,0.020037,0.77255,0.96274,-1.499,0.059272,0.40144,0.030742,-0.019226,-0.096774,0.79344,0.30266,1.8558,0.25052,-1.5712
0.13175,0.027097,-0.054332,-0.014748,-0.048952,0.045106,-0.10124,-0.0061787,0.20608,-0.094539,-0.07304,0.76239,0.90193,-0.98265,0.064557,0.27291,0.034974,-0.021604,0.24907,0.9667,0.27105,1.7969,0.145,-1.3744
0.15363,0.022294,-0.060108,-0.016092,-0.044085,0.044591,-0.094361,-0.0091035,0.19085,-0.20359,-0.2009,0.71825,0.83393,-0.41189,0.05051,0.087342,0.042251,-0.015925,0.63487,1.1469,0.22493,1.6324,0.026086,-1.1422
0.17059,0.017448,-0.060765,-0.014849,-0.033195,0.043948,-0.092095,-0.016552,0.17589,-0.30813,-0.32566,0.65249,0.74449,0.13249,0.016241,-0.11552,0.051488,-0.0035214,1.0482,1.2818,0.16658,1.3379,-0.096979,-0.89537
0.17421,0.014926,-0.05933,-0.011749,-0.021391,0.04381,-0.090929,-0.027146,0.16247,-0.40452,-0.42335,0.57489,0.61958,0.56487,-0.031947,-0.27713,0.059731,0.0089445,1.4625,1.3423,0.099006,0.93733,-0.21418,-0.65102
0.1626,0.014818,-0.060002,-0.0080919,-0.014785,0.043394,-0.086216,-0.035475,0.14826,-0.50105,-0.49583,0.49322,0.45792,0.8214,-0.087559,-0.33949,0.064355,0.015125,1.8264,1.3251,0.025737,0.47784,-0.31445,-0.42897
0.14042,0.015281,-0.063807,-0.0046704,-0.015626,0.041476,-0.076371,-0.035985,0.12928,-0.60824,-0.56285,0.41057,0.27511,0.88349,-0.14625,-0.2786,0.064166,0.013665,2.076,1.2356,-0.04861,-0.0052875,-0.38671,-0.25163
0.11508,0.014336,-0.067739,-0.0015948,-0.020646,0.038177,-0.064075,-0.027407,0.10205,-0.72888,-0.64303,0.32055,0.095492,0.7872,-0.20245,-0.12761,0.058933,0.0080528,2.1679,1.0704,-0.11811,-0.50117,-0.42351,-0.13573
0.092193,0.011529,-0.067946,0.0010085,-0.023969,0.035367,-0.053974,-0.01405,0.065224,-0.85607,-0.74036,0.20775,-0.061566,0.61304,-0.24579,0.033363,0.048499,0.0023388,2.1077,0.81769,-0.17628,-1.004,-0.42563,-0.082334
0.073357,0.0081234,-0.063597,0.0023998,-0.021861,0.034975,-0.049381,-0.0028777,0.020715,-0.97864,-0.84497,0.058441,-0.19014,0.45862,-0.2629,0.12113,0.032849,-0.003014,1.9489,0.47396,-0.21775,-1.4819,-0.40399,-0.073168
0.057065,0.0058514,-0.05762,0.001626,-0.015157,0.036944,-0.050777,0.0012461,-0.025558,-1.0867,-0.94378,-0.12314,-0.29458,0.40419,-0.24426,0.099372,0.013173,-0.011324,1.7578,0.059377,-0.24055,-1.8671,-0.37581,-0.07598
0.041134,0.0053983,-0.053688,-0.0012641,-0.0075732,0.039124,-0.056584,-0.0015621,-0.064344,-1.1715,-1.029,-0.30603,-0.37883,0.48476,-0.1907,-0.00054923,-0.0074308,-0.026034,1.571,-0.38477,-0.24795,-2.0827,-0.35586,-0.055277
0.024348,0.0059209,-0.052555,-0.0044063,-0.0019269,0.039449,-0.064572,-0.0070403,-0.086044,-1.2203,-1.0974,-0.44166,-0.43838,0.6816,-0.11427,-0.10341,-0.02494,-0.046887,1.3775,-0.81605,-0.24882,-2.091,-0.3483,0.017027
0.0064602,0.0059601,-0.051326,-0.0048376,0.0020981,0.038238,-0.072342,-0.010128,-0.085133,-1.213,-1.1455,-0.48869,-0.46162,0.93701,-0.033107,-0.14084,-0.036862,-0.069634,1.1365,-1.2108,-0.25516,-1.9275,-0.34527,0.15424
-0.012507,0.0049049,-0.046353,-0.00058226,0.0068715,0.038149,-0.077164,-0.00804,-0.063222,-1.1271,-1.1688,-0.43828,-0.43859,1.1846,0.035801,-0.092203,-0.044184,-0.089393,0.81374,-1.5667,-0.27714,-1.6934,-0.33431,0.35151
-0.032406,0.0036769,-0.037017,0.0074703,0.013977,0.041611,-0.076602,-0.0011902,-0.028179,-0.94956,-1.1701,-0.32258,-0.36865,1.3789,0.08183,0.01168,-0.050717,-0.1043,0.40642,-1.8873,-0.3176,-1.5075,-0.30966,0.58681
-0.052404,0.0039438,-0.026901,0.015654,0.022615,0.048225,-0.070234,0.0078646,0.010461,-0.69028,-1.1663,-0.19958,-0.26108,1.5079,0.10256,0.11937,-0.059682,-0.1158,-0.056429,-2.1619,-0.36933,-1.4461,-0.27882,0.8274
-0.070688,0.0064596,-0.021343,0.019925,0.030652,0.054758,-0.060859,0.016095,0.046495,-0.38742,-1.1845,-0.12337,-0.12987,1.5859,0.10295,0.19661,-0.069961,-0.12539,-0.5266,-2.3609,-0.41713,-1.5051,-0.25807,1.041
-0.085245,0.0099813,-0.023533,0.018931,0.036955,0.057878,-0.053216,0.021218,0.07872,-0.099742,-1.2447,-0.11747,0.010815,1.6339,0.092511,0.24231,-0.075357,-0.13111,-0.94518,-2.4477,-0.44416,-1.6022,-0.25874,1.2075
-0.095242,0.011831,-0.032369,0.0153,0.042481,0.05701,-0.05044,0.02231,0.10838,0.11267,-1.3408,-0.16621,0.14663,1.6651,0.08041,0.27514,-0.068201,-0.12754,-1.2442,-2.3998,-0.439,-1.6127,-0.274,1.3249
-0.10168,0.0097889,-0.043531,0.013878,0.049062,0.054604,-0.051085,0.020014,0.13509,0.21159,-1.4376,-0.22742,0.26051,1.6824,0.06956,0.30697,-0.045046,-0.10993,-1.3564,-2.2218,-0.39972,-1.4191,-0.27742,1.4058
-0.10663,0.0037813,-0.052513,0.01806,0.057232,0.053653,-0.049722,0.016251,0.15518,0.19713,-1.4899,-0.25723,0.33345,1.6866,0.053231,0.32745,-0.0099994,-0.078784,-1.2453,-1.9435,-0.33338,-0.95762,-0.23739,1.4678
-0.11168,-0.0040461,-0.057121,0.027038,0.06538,0.054986,-0.041215,0.013213,0.16396,0.10849,-1.4708,-0.23277,0.35117,1.6829,0.018204,0.31115,0.027343,-0.040761,-0.94096,-1.6068,-0.25211,-0.25011,-0.13974,1.5212
-0.11701,-0.010941,-0.057834,0.036223,0.071129,0.056917,-0.025365,0.011939,0.1598,0.0066764,-1.3904,-0.16104,0.3132,1.6792,-0.045275,0.23941,0.058126,-0.0047794,-0.54994,-1.2498,-0.16849,0.58724,-0.0028009,1.563
-0.12186,-0.015459,-0.056359,0.04065,0.073682,0.05739,-0.0079736,0.011427,0.14636,-0.053719,-1.2894,-0.071173,0.23783,1.6796,-0.13267,0.11871,0.079807,0.023618,-0.21597,-0.89757,-0.092143,1.3692,0.12807,1.5765
-0.12573,-0.018128,-0.05387,0.038732,0.07489,0.056262,0.0028104,0.0091125,0.13058,-0.049182,-1.2125,0.0037243,0.15889,1.6822,-0.22217,-0.01829,0.096538,0.044926,-0.048956,-0.56119,-0.028165,1.9039,0.20594,1.5365
-0.12909,-0.020493,-0.050255,0.033341,0.077951,0.055391,0.0020657,0.0024806,0.11832,0.0054419,-1.182,0.044283,0.11503,1.6843,-0.28403,-0.12857,0.11408,0.063371,-0.069254,-0.24282,0.022728,2.0743,0.21188,1.4195
-0.13305,-0.023571,-0.044652,0.029278,0.084729,0.056576,-0.0086657,-0.0094055,0.11086,0.071371,-1.1884,0.052227,0.1351,1.6908,-0.29716,-0.18029,0.13367,0.08197,-0.20862,0.056694,0.062735,1.8973,0.16759,1.2148
-0.1386,-0.027088,-0.036713,0.029143,0.093927,0.059628,-0.022734,-0.025595,0.10505,0.11246,-1.2029,0.0444,0.22456,1.7118,-0.26153,-0.16691,0.15024,0.099466,-0.36625,0.3316,0.094498,1.5187,0.12032,0.93332
-0.14609,-0.02998,-0.027654,0.030985,0.10169,0.062611,-0.032946,-0.044139,0.096292,0.11623,-1.2002,0.038759,0.3583,1.7486,-0.19698,-0.10712,0.1566,0.11173,-0.47604,0.56927,0.11873,1.1382,0.10999,0.60831
-0.15533,-0.031484,-0.020327,0.029749,0.10429,0.063931,-0.035827,-0.063182,0.081708,0.095957,-1.1731,0.042387,0.48552,1.7767,-0.12946,-0.032732,0.14992,0.11601,-0.53607,0.75338,0.13359,0.90455,0.14217,0.28298
-0.16574,-0.031757,-0.017948,0.021438,0.10095,0.063994,-0.032866,-0.081357,0.061242,0.074619,-1.1319,0.049524,0.54873,1.7446,-0.075301,0.02739,0.13482,0.11397,-0.58577,0.87082,0.13671,0.84829,0.18738,-0.0086349
-0.17623,-0.031623,-0.021984,0.0066765,0.094623,0.06463,-0.028574,-0.097577,0.036767,0.064741,-1.0914,0.049884,0.51007,1.5958,-0.035001,0.058945,0.12025,0.11049,-0.6583,0.91832,0.12863,0.89389,0.2067,-0.2565
-0.18526,-0.031869,-0.030533,-0.0091714,0.09006,0.066931,-0.027214,-0.11093,0.010979,0.060248,-1.0581,0.039763,0.37026,1.3057,0.00055208,0.06446,0.11268,0.10941,-0.74953,0.90519,0.11468,0.93678,0.18334,-0.47376
-0.19164,-0.032788,-0.038671,-0.019467,0.090622,0.069868,-0.030317,-0.12097,-0.012827,0.045299,-1.0265,0.026623,0.16727,0.90736,0.038874,0.057183,0.11132,0.1099,-0.8236,0.85036,0.10295,0.92402,0.13525,-0.67991
-0.19572,-0.034199,-0.041153,-0.020693,0.096063,0.071266,-0.036037,-0.12779,-0.030847,0.010787,-0.98569,0.023481,-0.04477,0.48662,0.079867,0.051716,0.1091,0.10686,-0.8424,0.77518,0.099188,0.8798,0.099742,-0.8802
-0.19989,-0.035681,-0.035928,-0.014612,0.10299,0.070111,-0.040288,-0.13146,-0.040152,-0.036489,-0.92882,0.037978,-0.22042,0.14382,0.11875,0.057074,0.098525,0.095017,-0.79159,0.69612,0.10236,0.86544,0.10356,-1.0566
-0.20722,-0.036696,-0.025881,-0.0069074,0.10763,0.067713,-0.038976,-0.13091,-0.041375,-0.07956,-0.85846,0.065444,-0.33323,-0.055223,0.15286,0.074913,0.077522,0.073549,-0.68558,0.62146,0.10505,0.91625,0.14262,-1.1763
-0.21899,-0.036695,-0.017123,-0.0036461,0.10873,0.066369,-0.030361,-0.12389,-0.040529,-0.10589,-0.78467,0.091771,-0.36733,-0.10931,0.18443,0.1017,0.051206,0.047434,-0.55372,0.55413,0.0989,1.0108,0.18635,-1.2091
-0.23303,-0.035501,-0.01478,-0.0081139,0.10834,0.066881,-0.016345,-0.10848,-0.047485,-0.11707,-0.71839,0.1036,-0.30509,-0.0747,0.21685,0.1318,0.028683,0.024709,-0.42117,0.49878,0.081368,1.0946,0.20122,-1.139
-0.24473,-0.033926,-0.019333,-0.019798,0.10985,0.067616,-0.0017477,-0.085512,-0.071082,-0.12464,-0.66519,0.097205,-0.12975,-0.026782,0.24902,0.1594,0.01763,0.011596,-0.2966,0.46748,0.05811,1.1306,0.17431,-0.96395
-0.25037,-0.033971,-0.026389,-0.035487,0.11495,0.066305,0.0083404,-0.059543,-0.11396,-0.13584,-0.62234,0.078877,0.15405,-0.016213,0.27443,0.1797,0.020197,0.0088502,-0.17222,0.47827,0.039014,1.1296,0.11999,-0.6887
-0.24999,-0.03798,-0.030096,-0.051266,0.122,0.062868,0.011622,-0.036987,-0.17093,-0.14277,-0.57978,0.057196,0.50081,-0.046423,0.28609,0.1904,0.032197,0.011545,-0.035636,0.54515,0.030939,1.1346,0.067964,-0.32506
-0.24734,-0.046926,-0.027513,-0.064152,0.12729,0.060296,0.0099739,-0.022416,-0.23184,-0.1258,-0.52364,0.034508,0.83024,-0.082914,0.28265,0.1936,0.045419,0.012196,0.11246,0.66516,0.033136,1.1782,0.044004,0.098376
-0.2464,-0.059032,-0.020544,-0.072811,0.12812,0.062369,0.0080408,-0.015905,-0.28642,-0.070031,-0.4408,0.0052727,1.0642,-0.082778,0.2695,0.19623,0.051643,0.0052774,0.24729,0.81269,0.038948,1.2527,0.05697,0.52743
-0.24722,-0.070068,-0.014059,-0.07738,0.12514,0.070129,0.0099434,-0.013672,-0.32721,0.018691,-0.32327,-0.037445,1.172,-0.021291,0.25415,0.20768,0.046603,-0.0094516,0.32861,0.94764,0.041901,1.3175,0.097948,0.89071
-0.24465,-0.075504,-0.011943,-0.078618,0.12187,0.080425,0.016475,-0.011481,-0.34955,0.11233,-0.17129,-0.093328,1.1882,0.10171,0.24072,0.23485,0.032186,-0.026608,0.3304,1.0344,0.040604,1.3346,0.14816,1.1284
-0.23138,-0.073145,-0.014297,-0.076855,0.12181,0.088013,0.024821,-0.007879,-0.35085,0.17672,0.0058876,-0.15177,1.186,0.27534,0.22866,0.27782,0.015555,-0.038093,0.27278,1.0594,0.038269,1.2984,0.18901,1.2239
-0.20323,-0.064339,-0.017847,-0.071397,0.12547,0.089468,0.03095,-0.0046389,-0.33187,0.19357,0.19207,-0.19731,1.2227,0.49501,0.21647,0.3291,0.0051653,-0.037708,0.22727,1.0354,0.037847,1.2368,0.20966,1.213
-0.16282,-0.052884,-0.018832,-0.061078,0.12984,0.085482,0.032851,-0.0043179,-0.29936,0.17144,0.36863,-0.2193,1.297,0.76547,0.20582,0.3771,0.0056382,-0.024823,0.28102,0.98913,0.037841,1.1863,0.21052,1.1584
-0.11888,-0.04255,-0.015783,-0.045798,0.13084,0.079698,0.032218,-0.0073783,-0.26633,0.13718,0.5198,-0.21878,1.3521,1.0844,0.20159,0.41198,0.014773,-0.0048295,0.47958,0.94304,0.033086,1.1669,0.20203,1.1072
-0.081753,-0.035037,-0.010022,-0.027847,0.12655,0.075381,0.033329,-0.011403,-0.24696,0.11507,0.63646,-0.20799,1.322,1.4196,0.20757,0.43035,0.025055,0.014005,0.79173,0.90361,0.019892,1.1771,0.19862,1.0641
-0.058431,-0.029675,-0.0038923,-0.011507,0.11871,0.072984,0.039957,-0.012844,-0.2481,0.11051,0.71685,-0.20398,1.1886,1.7034,0.22235,0.43658,0.028883,0.025333,1.1285,0.86411,0.00069714,1.2087,0.20987,0.99888
-0.050048,-0.024647,0.0014215,-0.00062853,0.11114,0.070587,0.052518,-0.0095388,-0.26381,0.11084,0.76409,-0.22111,1.0047,1.8562,0.23989,0.44071,0.023758,0.028048,1.4067,0.81663,-0.016265,1.2631,0.2341,0.88234
-0.05287,-0.018581,0.0065912,0.0041422,0.10666,0.066407,0.067514,-0.0018569,-0.27849,0.10094,0.78249,-0.26656,0.86554,1.8327,0.25461,0.45374,0.013428,0.026043,1.6073,0.76186,-0.022333,1.354,0.25931,0.71617
-0.061177,-0.011456,0.013046,0.0059943,0.10514,0.060816,0.079663,0.0081248,-0.2776,0.078826,0.77563,-0.33969,0.84702,1.6591,0.26585,0.4818,0.0041911,0.024857,1.7816,0.70835,-0.014449,1.4954,0.27145,0.53333
-0.06987,-0.0045758,0.021339,0.00944,0.1043,0.05606,0.085252,0.018337,-0.25837,0.057375,0.74752,-0.43368,0.95489,1.431,0.27632,0.52039,-0.00047222,0.027734,1.9975,0.66275,0.0028902,1.6881,0.26394,0.37065
-0.075628,0.00011429,0.030475,0.016458,0.10225,0.054131,0.0844,0.027801,-0.23232,0.050933,0.7054,-0.53768,1.1202,1.2643,0.28472,0.55145,-0.0023748,0.033777,2.2696,0.62005,0.020929,1.9174,0.24072,0.24097
-0.076819,0.0010206,0.038634,0.02463,0.099228,0.054896,0.080727,0.036476,-0.21719,0.05978,0.66055,-0.63891,1.2435,1.2265,0.27922,0.54693,-0.0062448,0.039098,2.5306,0.56245,0.032335,2.1611,0.21094,0.13012
-0.072995,-0.0020772,0.04445,0.029162,0.096848,0.056188,0.078818,0.044431,-0.22418,0.067082,0.62485,-0.72503,1.2554,1.2945,0.23982,0.48089,-0.014778,0.039758,2.668,0.46866,0.035239,2.3976,0.18061,0.019434
-0.064576,-0.0074356,0.047755,0.02724,0.095804,0.05566,0.081299,0.051269,-0.24968,0.051699,0.60504,-0.78635,1.1516,1.3689,0.15111,0.34668,-0.025537,0.034366,2.5999,0.32732,0.033586,2.6041,0.14936,-0.089546
-0.052905,-0.01179,0.049348,0.020903,0.094478,0.052676,0.087532,0.056309,-0.27716,0.005789,0.59969,-0.81721,0.98169,1.3398,0.017061,0.16919,-0.032318,0.02482,2.3319,0.14532,0.034373,2.7486,0.11463,-0.17235
-0.040497,-0.011986,0.050236,0.015729,0.090073,0.048563,0.094607,0.059259,-0.28748,-0.058255,0.60215,-0.81605,0.80849,1.1566,-0.13479,0.0011179,-0.029699,0.014997,1.9537,-0.055024,0.043687,2.7898,0.077989,-0.20323
-0.031059,-0.0069812,0.051075,0.016345,0.081346,0.045137,0.099673,0.060732,-0.27029,-0.11758,0.60766,-0.78449,0.67219,0.8562,-0.26593,-0.099719,-0.017076,0.0082446,1.5785,-0.24869,0.063199,2.6953,0.046014,-0.1804
-0.028694,0.001193,0.052128,0.022724,0.070255,0.042935,0.10186,0.062078,-0.22923,-0.1568,0.6178,-0.72669,0.58585,0.5321,-0.34898,-0.10144,0.00054176,0.0050084,1.2692,-0.42303,0.088408,2.4681,0.024102,-0.13122
-0.03608,0.0084141,0.053546,0.030576,0.060699,0.040802,0.10249,0.0645,-0.17858,-0.17885,0.63723,-0.64893,0.55533,0.2738,-0.38281,-0.017923,0.01487,0.001919,1.002,-0.5854,0.10974,2.1592,0.0094278,-0.092965
-0.052371,0.010857,0.055639,0.035434,0.055264,0.03717,0.10369,0.068025,-0.13443,-0.2,0.66471,-0.55876,0.5954,0.12222,-0.3885,0.097573,0.017793,-0.0068402,0.69238,-0.75724,0.11685,1.848,-0.0089989,-0.086927
-0.072423,0.0071441,0.058922,0.036647,0.052844,0.031789,0.10649,0.071153,-0.10612,-0.23399,0.68661,-0.46303,0.72025,0.069352,-0.38915,0.18291,0.004218,-0.026196,0.26322,-0.95725,0.10439,1.5983,-0.041983,-0.10863
-0.088616,-0.0011456,0.063921,0.037586,0.049426,0.026254,0.10981,0.07165,-0.092445,-0.27889,0.68041,-0.3652,0.91598,0.090967,-0.38991,0.20278,-0.026118,-0.056648,-0.29044,-1.1838,0.075715,1.4212,-0.090798,-0.14077
-0.094738,-0.010692,0.070802,0.041942,0.041556,0.022789,0.11086,0.068093,-0.08387,-0.31694,0.62694,-0.264,1.1256,0.17611,-0.3746,0.16655,-0.067995,-0.09299,-0.88338,-1.4089,0.041164,1.2748,-0.14574,-0.17484
-0.089527,-0.018237,0.078948,0.04968,0.029586,0.022362,0.10682,0.06104,-0.068447,-0.32657,0.52208,-0.15492,1.2693,0.32535,-0.3208,0.11823,-0.11192,-0.12664,-1.3814,-1.5898,0.011383,1.1017,-0.19429,-0.22104
-0.077219,-0.021787,0.086807,0.056543,0.01784,0.023788,0.09661,0.05281,-0.038047,-0.29634,0.37793,-0.034282,1.2902,0.52091,-0.22002,0.10781,-0.1477,-0.15043,-1.6751,-1.6918,-0.0098027,0.87397,-0.23145,-0.29876
-0.06458,-0.02092,0.092344,0.057626,0.011313,0.024545,0.081892,0.04589,0.0081293,-0.2304,0.21251,0.096424,1.1902,0.69744,-0.086395,0.16423,-0.16927,-0.16249,-1.739,-1.7072,-0.027176,0.61002,-0.26268,-0.4183
-0.056583,-0.016645,0.094083,0.051643,0.011477,0.022486,0.066688,0.041129,0.063878,-0.14284,0.03659,0.2289,1.0228,0.74267,0.051721,0.28526,-0.17754,-0.16654,-1.638,-1.6581,-0.04875,0.3526,-0.29688,-0.57191
-0.053991,-0.011209,0.092062,0.041852,0.01462,0.016969,0.055514,0.037175,0.11936,-0.047045,-0.15118,0.35011,0.84899,0.53462,0.16808,0.44548,-0.17874,-0.16805,-1.4778,-1.5789,-0.077418,0.13267,-0.33634,-0.74207
-0.054404,-0.0076006,0.087836,0.032803,0.014263,0.0086868,0.050967,0.031659,0.1655,0.051345,-0.35697,0.44714,0.69118,-0.0034868,0.24918,0.61151,-0.17878,-0.16955,-1.3362,-1.4916,-0.10691,-0.047547,-0.37311,-0.91913
-0.05542,-0.0083484,0.083292,0.026102,0.0059665,-0.0011749,0.052154,0.02323,0.19734,0.15344,-0.57866,0.51228,0.52494,-0.86026,0.2931,0.75387,-0.17781,-0.1684,-1.2215,-1.3903,-0.12617,-0.20029,-0.39537,-1.112
-0.056943,-0.013855,0.079141,0.019292,-0.0091306,-0.011334,0.055185,0.012876,0.21505,0.26041,-0.79767,0.54614,0.31411,-1.929,0.30169,0.85177,-0.16938,-0.15876,-1.0882,-1.2466,-0.12909,-0.32683,-0.39795,-1.3422
-0.060824,-0.02145,0.074455,0.0088775,-0.024789,-0.020016,0.055656,0.0034974,0.22257,0.36738,-0.98233,0.55725,0.056783,-3.0425,0.27539,0.89407,-0.14551,-0.13601,-0.89238,-1.0334,-0.12144,-0.41042,-0.38736,-1.6257
-0.068539,-0.026386,0.067808,-0.005547,-0.033793,-0.024564,0.051546,-0.0019559,0.22501,0.46254,-1.1009,0.55818,-0.20021,-4.0368,0.21442,0.87952,-0.10392,-0.10038,-0.64406,-0.75029,-0.11841,-0.4366,-0.37711,-1.9551
-0.079333,-0.024693,0.059079,-0.020196,-0.032544,-0.022061,0.044403,-0.00243,0.2262,0.53199,-1.1357,0.55963,-0.39263,-4.8127,0.12248,0.81589,-0.051964,-0.057634,-0.41136,-0.43485,-0.13361,-0.41945,-0.37734,-2.2956
-0.090503,-0.016108,0.050159,-0.030196,-0.02271,-0.011008,0.037905,0.00055181,0.22763,0.56651,-1.0907,0.56543,-0.48979,-5.3613,0.0074921,0.71625,-0.0042426,-0.016956,-0.27448,-0.15044,-0.16783,-0.40327,-0.38732,-2.5974
-0.099376,-0.0047192,0.043662,-0.033992,-0.0090838,0.0071796,0.034917,0.0038888,0.22882,0.56561,-0.98868,0.5715,-0.52011,-5.7369,-0.12097,0.59341,0.024791,0.012335,-0.2659,0.042953,-0.20626,-0.43028,-0.39614,-2.8165
-0.10504,0.0036024,0.040569,-0.034883,0.0041786,0.028246,0.035403,0.0048321,0.22827,0.53671,-0.85981,0.5696,-0.54709,-5.9948,-0.25335,0.4566,0.02804,0.023753,-0.34572,0.11831,-0.2268,-0.498,-0.38984,-2.9334
-0.10847,0.0053532,0.038955,-0.038249,0.015713,0.047022,0.036752,0.0025317,0.22409,0.49049,-0.72798,0.55288,-0.6134,-6.1381,-0.37775,0.313,0.0084019,0.01557,-0.43091,0.095004,-0.21362,-0.54378,-0.35885,-2.9573
-0.11119,0.001945,0.035193,-0.047059,0.026128,0.060013,0.036039,-0.0017665,0.21395,0.43617,-0.60197,0.51864,-0.69962,-6.1168,-0.47683,0.17165,-0.024139,-0.0086025,-0.45237,0.02871,-0.1664,-0.47606,-0.30117,-2.9147
-0.11414,-0.0015087,0.026854,-0.059704,0.035626,0.066934,0.03216,-0.0058904,0.19526,0.37956,-0.47624,0.46562,-0.73359,-5.8798,-0.53022,0.043687,-0.05825,-0.040944,-0.39227,-0.016153,-0.099977,-0.2366,-0.2219,-2.8281
-0.11742,-0.00034382,0.014868,-0.071862,0.042731,0.070322,0.026163,-0.0084001,0.16633,0.32451,-0.34037,0.38935,-0.64596,-5.4364,-0.52502,-0.063752,-0.085913,-0.07237,-0.27491,0.0042831,-0.035905,0.14749,-0.13191,-2.7007
-0.1209,0.0058914,0.0029335,-0.080392,0.045358,0.07371,0.019827,-0.0095828,0.12838,0.27539,-0.19031,0.28219,-0.42899,-4.8719,-0.4677,-0.15533,-0.10388,-0.09622,-0.12754,0.098191,0.0075997,0.55929,-0.047108,-2.518
-0.12463,0.013152,-0.005503,-0.085588,0.043047,0.079766,0.014054,-0.011119,0.08684,0.23766,-0.03289,0.14147,-0.15167,-4.3017,-0.38689,-0.24803,-0.1124,-0.11061,0.046618,0.24381,0.021845,0.84265,0.013811,-2.2661
-0.12846,0.016277,-0.010173,-0.090004,0.038016,0.08948,0.008548,-0.014673,0.05033,0.21548,0.11992,-0.019475,0.081708,-3.8012,-0.32123,-0.35968,-0.11312,-0.11772,0.25654,0.40981,0.0087547,0.87995,0.035477,-1.9522
-0.13151,0.013148,-0.014173,-0.095296,0.033866,0.10255,0.0027948,-0.020422,0.027033,0.2084,0.26205,-0.16871,0.19796,-3.3691,-0.29805,-0.49131,-0.10761,-0.1205,0.48708,0.57515,-0.02143,0.65079,0.014508,-1.6087
-0.13211,0.0061722,-0.021067,-0.1002,0.033071,0.11821,-0.0029371,-0.026624,0.020366,0.21026,0.39947,-0.26839,0.19611,-2.9495,-0.31653,-0.61707,-0.096701,-0.11922,0.6794,0.73539,-0.054128,0.23577,-0.035156,-1.2719
-0.1286,7.1183e-005,-0.031331,-0.1015,0.035443,0.1357,-0.0077589,-0.030638,0.026969,0.21198,0.54529,-0.29736,0.1345,-2.4869,-0.34692,-0.69274,-0.080365,-0.11083,0.7555,0.89341,-0.075641,-0.23591,-0.085987,-0.95167
-0.12032,-0.0019413,-0.041365,-0.09698,0.038764,0.15415,-0.011317,-0.030744,0.038696,0.20692,0.7069,-0.26746,0.078832,-1.9649,-0.34691,-0.681,-0.057916,-0.091586,0.67268,1.0452,-0.078866,-0.65966,-0.10977,-0.61749
-0.10808,-0.000332,-0.046192,-0.087879,0.040794,0.17231,-0.014594,-0.027451,0.047451,0.19467,0.87603,-0.21979,0.05507,-1.4057,-0.28503,-0.57739,-0.028834,-0.060787,0.46244,1.175,-0.066927,-1.0004,-0.092457,-0.22037
-0.0938,0.0017731,-0.043723,-0.078588,0.040774,0.18866,-0.01926,-0.02322,0.049565,0.18044,1.0302,-0.20169,0.042347,-0.84766,-0.15757,-0.41803,0.006119,-0.022413,0.21836,1.2647,-0.051657,-1.2806,-0.04127,0.26181
-0.079428,0.0015834,-0.036896,-0.073988,0.039309,0.20181,-0.025966,-0.020717,0.046733,0.17051,1.145,-0.2406,0.0048026,-0.3342,0.010302,-0.26111,0.044285,0.016697,0.039214,1.3098,-0.046636,-1.5279,0.021031,0.79108
-0.065703,-0.0010216,-0.031696,-0.076263,0.037167,0.21073,-0.033225,-0.020894,0.04328,0.16709,1.2077,-0.3329,-0.070887,0.08232,0.1786,-0.15318,0.081646,0.050563,-0.029832,1.3264,-0.05888,-1.7271,0.070872,1.2803
-0.051502,-0.0035406,-0.032614,-0.083434,0.034388,0.21456,-0.038155,-0.022451,0.042232,0.16689,1.2219,-0.45332,-0.16612,0.34291,0.31293,-0.10347,0.11417,0.076588,-0.015437,1.3407,-0.085103,-1.8201,0.097708,1.6464
-0.034313,-0.0028956,-0.039345,-0.090454,0.030517,0.21239,-0.038638,-0.023175,0.043306,0.1641,1.2018,-0.57366,-0.25437,0.40854,0.39943,-0.084116,0.13884,0.095131,0.013266,1.3684,-0.11536,-1.7507,0.10804,1.8657
-0.012032,0.0023143,-0.047365,-0.092055,0.025482,0.20346,-0.035033,-0.022082,0.044026,0.15532,1.1622,-0.67461,-0.33344,0.29429,0.44608,-0.055366,0.15364,0.10708,-0.0079761,1.401,-0.14117,-1.5169,0.11798,1.9858
0.01478,0.010933,-0.051616,-0.085554,0.020006,0.188,-0.02989,-0.020527,0.04255,0.14226,1.1132,-0.74341,-0.43493,0.073086,0.47121,0.0038803,0.15713,0.11208,-0.10972,1.4119,-0.16156,-1.1842,0.1405,2.0803
0.041855,0.02006,-0.05001,-0.071996,0.015014,0.1678,-0.025964,-0.021268,0.039708,0.13025,1.0617,-0.76502,-0.60225,-0.1651,0.48814,0.083027,0.14868,0.10899,-0.29021,1.3777,-0.18269,-0.84988,0.17662,2.1808
0.062787,0.026745,-0.044045,-0.055225,0.010544,0.14563,-0.024322,-0.026221,0.038749,0.12413,1.0163,-0.7203,-0.85625,-0.36552,0.49743,0.152,0.12975,0.098007,-0.52954,1.2969,-0.21165,-0.58932,0.21582,2.2445
0.072771,0.029453,-0.036709,-0.03968,0.0052113,0.12357,-0.024065,-0.034779,0.043203,0.12515,0.98869,-0.59668,-1.1761,-0.52076,0.49202,0.18635,0.1047,0.081983,-0.79363,1.1933,-0.25007,-0.42757,0.24425,2.1849
0.071979,0.028586,-0.030077,-0.028418,-0.0031604,0.10145,-0.023616,-0.044118,0.054535,0.131,0.98833,-0.4038,-1.5072,-0.62937,0.46997,0.18416,0.079865,0.065388,-1.026,1.0991,-0.29234,-0.35139,0.2541,1.9446
0.065723,0.025949,-0.024695,-0.022401,-0.016033,0.077139,-0.022144,-0.051177,0.071012,0.13821,1.0151,-0.17939,-1.7854,-0.64783,0.44261,0.16327,0.060433,0.051681,-1.1478,1.0344,-0.32936,-0.34134,0.24765,1.5514
0.060818,0.02356,-0.020619,-0.021058,-0.03277,0.048409,-0.020003,-0.054642,0.088229,0.14411,1.0559,0.022363,-1.9573,-0.49957,0.42933,0.14482,0.047395,0.041262,-1.0851,0.99802,-0.35387,-0.39027,0.2342,1.1134
0.060758,0.022456,-0.018383,-0.023288,-0.050384,0.015263,-0.018246,-0.055371,0.10083,0.14666,1.0895,0.15457,-1.9873,-0.15108,0.44173,0.13917,0.036986,0.031768,-0.8163,0.97453,-0.36297,-0.49499,0.22303,0.75653
0.063616,0.02222,-0.018648,-0.028019,-0.064829,-0.019455,-0.018041,-0.055139,0.10464,0.14297,1.0959,0.19853,-1.8589,0.31063,0.47001,0.14458,0.023598,0.020445,-0.40517,0.94866,-0.35653,-0.63744,0.21742,0.55165
0.06451,0.021508,-0.021077,-0.034155,-0.073266,-0.051637,-0.020402,-0.054986,0.098385,0.12906,1.0654,0.16913,-1.5783,0.68603,0.48448,0.15591,0.0043137,0.0066876,0.013897,0.91504,-0.33404,-0.78083,0.21333,0.48337
0.060519,0.019245,-0.02396,-0.040338,-0.075879,-0.078495,-0.025893,-0.054614,0.084323,0.10225,1.0017,0.1032,-1.1827,0.7765,0.45351,0.17196,-0.018174,-0.0071092,0.30031,0.8764,-0.29395,-0.88815,0.20256,0.47706
0.053783,0.015595,-0.02533,-0.045036,-0.075792,-0.10014,-0.034004,-0.053141,0.067265,0.064337,0.91815,0.039926,-0.73889,0.52581,0.36574,0.19444,-0.036505,-0.016796,0.38313,0.8353,-0.23646,-0.94548,0.17803,0.45626
0.050069,0.011946,-0.024647,-0.046977,-0.076797,-0.1191,-0.042733,-0.050275,0.052324,0.022507,0.8308,0.0053205,-0.32509,0.074669,0.24013,0.22214,-0.042987,-0.018732,0.29707,0.78826,-0.16699,-0.96697,0.13828,0.38619
0.054169,0.0099393,-0.023417,-0.045542,-0.08038,-0.13824,-0.049226,-0.0467,0.042489,-0.013797,0.75172,0.007185,0.00097038,-0.32253,0.11642,0.24875,-0.03449,-0.011614,0.15333,0.72762,-0.096243,-0.97602,0.089301,0.2775
0.066263,0.010341,-0.024031,-0.040752,-0.08445,-0.15885,-0.051487,-0.043335,0.037525,-0.038207,0.68635,0.039249,0.22732,-0.45748,0.033758,0.26851,-0.014728,0.0029029,0.065775,0.64895,-0.035425,-0.98034,0.043118,0.15882
0.082293,0.012682,-0.027772,-0.032942,-0.085055,-0.18006,-0.049807,-0.040221,0.034993,-0.051006,0.63457,0.088888,0.39009,-0.282,0.012991,0.28437,0.0074777,0.02066,0.084353,0.5572,0.0099494,-0.96413,0.013147,0.04768
0.097664,0.015842,-0.03364,-0.022536,-0.079859,-0.19994,-0.046401,-0.036145,0.032594,-0.058087,0.59402,0.1439,0.55055,0.10247,0.053362,0.31009,0.022743,0.036064,0.17905,0.46637,0.042739,-0.90407,0.0079355,-0.056813
0.1107,0.018922,-0.038934,-0.010226,-0.070377,-0.21717,-0.04326,-0.029406,0.029935,-0.066163,0.56322,0.19676,0.76121,0.55268,0.14116,0.36307,0.025584,0.043481,0.27828,0.39202,0.070735,-0.79423,0.026107,-0.15953
0.12299,0.021609,-0.041036,0.0026531,-0.060826,-0.23212,-0.040061,-0.019158,0.028181,-0.078065,0.54254,0.24619,1.0392,0.98831,0.25927,0.45373,0.016254,0.03889,0.32591,0.34082,0.099615,-0.65699,0.0559,-0.25254
0.13702,0.023836,-0.039014,0.014155,-0.054403,-0.2464,-0.034191,-0.0062365,0.027911,-0.091643,0.5324,0.29565,1.3577,1.4125,0.38909,0.57989,-0.00071176,0.021471,0.31276,0.30384,0.12783,-0.53068,0.080622,-0.31522
0.15381,0.025324,-0.033958,0.022513,-0.050327,-0.26127,-0.023098,0.0071663,0.027267,-0.10262,0.53036,0.34877,1.6567,1.8525,0.50692,0.72917,-0.019835,-0.0056305,0.26452,0.25891,0.14743,-0.44457,0.087476,-0.33297
0.17279,0.025612,-0.027966,0.027317,-0.044496,-0.27631,-0.0069929,0.018723,0.022493,-0.10856,0.52987,0.4039,1.8672,2.2924,0.58402,0.88461,-0.037605,-0.036158,0.20578,0.1825,0.15019,-0.40203,0.074301,-0.31735
0.19322,0.024569,-0.022592,0.030028,-0.03346,-0.28941,0.010467,0.027207,0.01087,-0.11052,0.52284,0.45199,1.9428,2.6622,0.59655,1.0275,-0.0533,-0.063196,0.13644,0.065077,0.13413,-0.38412,0.049781,-0.3064
0.21504,0.022736,-0.017794,0.033092,-0.018286,-0.29864,0.024183,0.032932,-0.0064037,-0.11142,0.50471,0.48063,1.8852,2.8856,0.54045,1.1368,-0.067597,-0.082033,0.041107,-0.079901,0.10569,-0.36862,0.027307,-0.33882
0.23786,0.020986,-0.012064,0.038059,-0.0047828,-0.3045,0.030715,0.037262,-0.024265,-0.11302,0.47805,0.48243,1.7508,2.9325,0.43878,1.1912,-0.0802,-0.091688,-0.080645,-0.22053,0.076065,-0.34749,0.017299,-0.41899
0.25935,0.019698,-0.0036769,0.044257,0.00034587,-0.31085,0.030156,0.041679,-0.037304,-0.11424,0.45075,0.46119,1.6254,2.8297,0.33197,1.1765,-0.088339,-0.094108,-0.19499,-0.32273,0.054676,-0.32912,0.023309,-0.50134
0.27547,0.018279,0.0077154,0.049319,-0.0056713,-0.32331,0.025696,0.047075,-0.044025,-0.11216,0.4292,0.43038,1.5772,2.6304,0.25391,1.0957,-0.087481,-0.09177,-0.24791,-0.36808,0.044337,-0.32524,0.043394,-0.51127
0.28317,0.015639,0.020232,0.051246,-0.019847,-0.34608,0.021571,0.053566,-0.048057,-0.10469,0.41148,0.40419,1.6158,2.3812,0.20936,0.9699,-0.074251,-0.085651,-0.20477,-0.36146,0.041254,-0.33472,0.073733,-0.39233
0.28354,0.011311,0.030339,0.050143,-0.035967,-0.3794,0.020908,0.060702,-0.054892,-0.092539,0.38688,0.38806,1.6858,2.1179,0.16905,0.8253,-0.0498,-0.075157,-0.084099,-0.32434,0.039294,-0.33804,0.11053,-0.14714
0.28201,0.0062288,0.034656,0.047926,-0.049153,-0.41936,0.024489,0.067729,-0.066793,-0.07913,0.34315,0.37637,1.7041,1.8783,0.088294,0.67296,-0.020858,-0.059859,0.043925,-0.28018,0.035234,-0.3072,0.14923,0.15855
0.28474,0.0023407,0.031927,0.046251,-0.058597,-0.46006,0.030611,0.073741,-0.080364,-0.068627,0.27649,0.35882,1.6123,1.7025,-0.061737,0.49765,0.0031904,-0.041222,0.096806,-0.24294,0.031468,-0.22338,0.18331,0.43257
0.29351,0.0012765,0.02392,0.044796,-0.066512,-0.49652,0.035919,0.077834,-0.089157,-0.063699,0.1961,0.32934,1.4052,1.6064,-0.27078,0.26723,0.015991,-0.022559,0.031069,-0.21562,0.034705,-0.089175,0.20532,0.60774
0.30362,0.0031239,0.014642,0.041801,-0.074836,-0.52645,0.037108,0.079397,-0.089289,-0.064521,0.11887,0.28971,1.1156,1.5517,-0.49097,-0.04265,0.018659,-0.0071288,-0.1297,-0.19632,0.051923,0.073821,0.20943,0.67224
0.30716,0.0063347,0.0082552,0.036456,-0.082962,-0.55028,0.033026,0.078437,-0.083329,-0.069498,0.057973,0.24502,0.77182,1.45,-0.66347,-0.42795,0.019116,0.0039758,-0.30869,-0.1842,0.086261,0.24038,0.19314,0.66103
0.29932,0.0088229,0.006859,0.030685,-0.0885,-0.57004,0.025925,0.075637,-0.079106,-0.076932,0.014132,0.19651,0.37068,1.2085,-0.75314,-0.8569,0.026088,0.012275,-0.42112,-0.17966,0.13503,0.39853,0.15633,0.6208
0.28283,0.0093417,0.0094711,0.028206,-0.089951,-0.58803,0.020519,0.071952,-0.084334,-0.086243,-0.0237,0.13934,-0.11013,0.7831,-0.76765,-1.2908,0.042088,0.020379,-0.42037,-0.18033,0.1904,0.55519,0.099413,0.5775
0.26642,0.0080737,0.012919,0.031436,-0.088472,-0.60564,0.020851,0.067993,-0.10126,-0.097836,-0.069246,0.068202,-0.6716,0.19815,-0.74827,-1.7055,0.061066,0.029904,-0.31625,-0.17886,0.242,0.72618,0.023827,0.52835
0.25852,0.0061111,0.014205,0.039045,-0.086998,-0.62251,0.027067,0.063724,-0.12526,-0.11185,-0.12898,-0.014647,-1.2638,-0.48098,-0.73976,-2.092,0.07289,0.040587,-0.1578,-0.166,0.28045,0.91831,-0.064288,0.45808
0.26102,0.0044285,0.012792,0.046555,-0.087732,-0.6365,0.034866,0.058769,-0.14797,-0.12698,-0.19888,-0.096907,-1.7954,-1.192,-0.76215,-2.4353,0.0712,0.051072,0.0031848,-0.13672,0.30099,1.1183,-0.15071,0.36142
0.26839,0.0032664,0.011021,0.049633,-0.090579,-0.64473,0.038553,0.05305,-0.16232,-0.1405,-0.26921,-0.16256,-2.1763,-1.8968,-0.80422,-2.6925,0.058245,0.06027,0.14155,-0.093546,0.30612,1.2976,-0.2148,0.2543
0.27259,0.0023678,0.012129,0.047295,-0.093996,-0.64546,0.035481,0.047126,-0.16591,-0.14955,-0.33181,-0.20214,-2.3584,-2.5683,-0.84063,-2.7971,0.04282,0.067874,0.26381,-0.043726,0.30525,1.4296,-0.2377,0.16886
0.2694,0.0017278,0.017298,0.042372,-0.097165,-0.63939,0.028132,0.041853,-0.16099,-0.15252,-0.38383,-0.21881,-2.348,-3.1692,-0.85591,-2.6951,0.03318,0.073614,0.39137,0.0068706,0.30993,1.5028,-0.21271,0.13944
0.26105,0.002085,0.024245,0.039125,-0.10106,-0.62875,0.021961,0.037675,-0.15197,-0.14954,-0.42581,-0.22585,-2.1878,-3.6518,-0.85474,-2.3913,0.030838,0.076251,0.53854,0.057107,0.326,1.52,-0.15066,0.18942
0.25321,0.0046199,0.028807,0.040203,-0.10723,-0.61436,0.020811,0.034188,-0.14257,-0.1418,-0.45779,-0.23823,-1.9353,-3.9833,-0.85207,-1.9667,0.030075,0.073588,0.70176,0.10779,0.34733,1.4836,-0.075506,0.32349
0.24963,0.0099995,0.028375,0.04533,-0.1156,-0.59305,0.023919,0.030341,-0.1344,-0.13091,-0.4779,-0.26456,-1.6526,-4.1666,-0.85446,-1.5493,0.023079,0.06387,0.86402,0.15584,0.35717,1.3853,-0.012297,0.52544
0.2492,0.017515,0.024245,0.052248,-0.12394,-0.55838,0.027106,0.025067,-0.12722,-0.11905,-0.48439,-0.30378,-1.4056,-4.2287,-0.8501,-1.2504,0.0061953,0.047536,1.0067,0.19228,0.33823,1.214,0.025533,0.76119
0.24782,0.025106,0.02072,0.058587,-0.12981,-0.50539,0.026907,0.01785,-0.12037,-0.1099,-0.47806,-0.34689,-1.2523,-4.18,-0.81534,-1.1067,-0.017566,0.027755,1.1178,0.20737,0.28601,0.98058,0.041559,0.98805
0.24273,0.030449,0.021703,0.062974,-0.13326,-0.4361,0.023825,0.0089985,-0.11419,-0.10888,-0.462,-0.38166,-1.2179,-3.9808,-0.73007,-1.0679,-0.041187,0.0089869,1.1935,0.19916,0.2152,0.73496,0.051552,1.168
0.23515,0.032428,0.02772,0.064905,-0.13734,-0.36078,0.02175,-0.00034412,-0.11071,-0.12182,-0.43907,-0.39854,-1.2738,-3.5487,-0.58837,-1.036,-0.058837,-0.0056422,1.2344,0.17673,0.15303,0.55518,0.071956,1.2785
0.22888,0.031879,0.035863,0.06415,-0.14563,-0.29287,0.024193,-0.0084403,-0.11348,-0.15234,-0.4104,-0.39653,-1.347,-2.8062,-0.39845,-0.9318,-0.06957,-0.016321,1.2437,0.15346,0.12291,0.50603,0.10926,1.3139
0.22629,0.030975,0.042387,0.060629,-0.15873,-0.24071,0.030808,-0.013622,-0.12614,-0.19959,-0.37754,-0.38599,-1.3625,-1.7412,-0.17742,-0.74273,-0.07727,-0.026413,1.2291,0.13477,0.13022,0.59415,0.15681,1.2774
0.22543,0.031653,0.045464,0.054922,-0.17332,-0.20284,0.037359,-0.015314,-0.15062,-0.25799,-0.34666,-0.38527,-1.2872,-0.44181,0.05072,-0.52476,-0.087533,-0.040258,1.2049,0.11127,0.1606,0.75484,0.2003,1.1725
0.22071,0.034295,0.045829,0.048657,-0.18462,-0.17101,0.039157,-0.014766,-0.18567,-0.31893,-0.33038,-0.41067,-1.1413,0.90855,0.2537,-0.35823,-0.10402,-0.060422,1.1925,0.06472,0.19193,0.88547,0.22725,1.0058
0.20635,0.037611,0.04534,0.044056,-0.19027,-0.13856,0.03494,-0.014591,-0.2268,-0.3732,-0.34361,-0.46525,-0.97046,2.0715,0.39519,-0.29038,-0.12646,-0.086202,1.2172,-0.016278,0.20968,0.90487,0.23355,0.79726
0.17982,0.039697,0.04529,0.042655,-0.19179,-0.10665,0.027853,-0.016988,-0.26814,-0.41315,-0.39477,-0.53493,-0.81022,2.821,0.45102,-0.30265,-0.15102,-0.11412,1.2979,-0.12337,0.21358,0.7962,0.22278,0.58671
0.14264,0.03926,0.046038,0.044134,-0.19244,-0.082682,0.022764,-0.021795,-0.30481,-0.43392,-0.47775,-0.5962,-0.678,3.0255,0.43023,-0.32263,-0.17233,-0.13972,1.4339,-0.22946,0.21099,0.60208,0.20022,0.4206
0.098618,0.036074,0.047743,0.046285,-0.19364,-0.072356,0.022324,-0.026116,-0.33434,-0.43403,-0.57069,-0.63039,-0.59655,2.7199,0.38204,-0.26943,-0.18583,-0.15938,1.5923,-0.304,0.20451,0.37795,0.16721,0.32339
0.051406,0.030584,0.050839,0.0463,-0.19354,-0.072793,0.025102,-0.026182,-0.35576,-0.41501,-0.64337,-0.63353,-0.61409,2.1219,0.37485,-0.1005,-0.18945,-0.1712,1.7077,-0.33155,0.18558,0.14369,0.12085,0.27567
0.0033312,0.023385,0.055491,0.042455,-0.18905,-0.073238,0.027244,-0.020249,-0.3672,-0.37965,-0.66997,-0.61412,-0.78618,1.5522,0.45521,0.16945,-0.18397,-0.17492,1.7036,-0.3201,0.13997,-0.12556,0.058737,0.22231
-0.04429,0.015184,0.060751,0.034848,-0.17926,-0.06273,0.02602,-0.010226,-0.36439,-0.32957,-0.6403,-0.58186,-1.1248,1.2769,0.61493,0.48429,-0.17208,-0.17137,1.5312,-0.29399,0.060191,-0.46186,-0.015897,0.11085
-0.090349,0.0070969,0.06465,0.024671,-0.16689,-0.03778,0.02209,-0.00060767,-0.34228,-0.26399,-0.56351,-0.5382,-1.5623,1.357,0.79316,0.78073,-0.15674,-0.16177,1.2045,-0.27785,-0.046422,-0.85454,-0.093314,-0.067689
-0.13372,0.00056172,0.065467,0.012855,-0.15633,-0.0034979,0.018636,0.0045202,-0.29906,-0.18134,-0.46246,-0.47733,-1.9734,1.6172,0.91569,1.0163,-0.13958,-0.14707,0.80801,-0.28355,-0.16049,-1.2347,-0.16131,-0.26908
-0.17356,-0.0034432,0.063032,-0.00039694,-0.15025,0.031948,0.018336,0.0040834,-0.2397,-0.082951,-0.36214,-0.39593,-2.2477,1.7726,0.9431,1.1775,-0.12023,-0.12763,0.46404,-0.30822,-0.26128,-1.512,-0.2105,-0.42514
