-5.595e-011,6.9262e-010,1.5917e-009,1.4566e-009,-4.6882e-010,6.9648e-010,5.2091e-011,8.4697e-010,3.2798e-011,-7.1191e-010,2.4888e-010,4.8426e-010,-2.3981e-009,2.5332e-009,4.0323e-010,-1.5801e-009,-5.7879e-012,8.3539e-010,4.2638e-010,2.8747e-010,-1.3293e-009,-4.4316e-009,6.7526e-011,5.1532e-009
-1.6734e-009,1.9074e-008,4.3857e-008,4.0661e-008,-1.2863e-008,1.9235e-008,1.5514e-009,2.3254e-008,8.8704e-010,-1.9877e-008,6.8389e-009,1.3224e-008,-6.6184e-008,6.9557e-008,1.0853e-008,-4.3776e-008,6.3858e-011,2.3015e-008,1.1701e-008,7.8666e-009,-3.6683e-008,-1.2125e-007,1.6846e-009,1.4283e-007
-2.435e-008,2.5522e-007,5.8731e-007,5.5192e-007,-1.713e-007,2.5825e-007,2.2356e-008,3.1023e-007,1.1414e-008,-2.7019e-007,9.1453e-008,1.7514e-007,-8.8744e-007,9.2717e-007,1.4191e-007,-5.8973e-007,4.1092e-009,3.0817e-007,1.5629e-007,1.0467e-007,-4.9176e-007,-1.6101e-006,2.036e-008,1.925e-006
-2.2948e-007,2.2105e-006,5.0926e-006,4.8535e-006,-1.4749e-006,2.2457e-006,2.0788e-007,2.6793e-006,9.2248e-008,-2.3825e-006,7.9317e-007,1.498e-006,-7.7014e-006,7.9912e-006,1.2009e-006,-5.1466e-006,6.6588e-008,2.6719e-006,1.3542e-006,9.0232e-007,-4.2656e-006,-1.382e-005,1.5881e-007,1.6807e-005
-1.5733e-006,1.3929e-005,3.2136e-005,3.108e-005,-9.2261e-006,1.4214e-005,1.4033e-006,1.6838e-005,5.1784e-007,-1.5323e-005,5.0167e-006,9.2904e-006,-4.861e-005,5.0037e-005,7.3948e-006,-3.2702e-005,6.3637e-007,1.686e-005,8.5602e-006,5.6652e-006,-2.6901e-005,-8.6138e-005,8.9869e-007,0.00010685
-8.3571e-006,6.8029e-005,0.00015724,0.00015441,-4.4659e-005,6.9775e-005,7.3342e-006,8.2049e-005,2.082e-006,-7.6612e-005,2.4668e-005,4.4458e-005,-0.00023772,0.00024242,3.5311e-005,-0.00016118,4.2945e-006,8.2502e-005,4.2089e-005,2.7609e-005,-0.00013137,-0.00041516,3.9317e-006,0.00052693
-3.5761e-005,0.00026789,0.00062055,0.00061918,-0.00017394,0.00027631,3.0904e-005,0.00032249,5.7328e-006,-0.00030995,9.8153e-005,0.00017046,-0.00093668,0.0009447,0.00013608,-0.000641,2.2197e-005,0.00032568,0.00016756,0.0001087,-0.00051642,-0.0016082,1.3844e-005,0.002097
-0.00012655,0.00087331,0.0020281,0.0020577,-0.0005595,0.00090631,0.00010793,0.0010499,7.6144e-006,-0.0010428,0.00032478,0.00053625,-0.0030524,0.0030381,0.00043498,-0.0021116,9.2055e-005,0.001065,0.00055511,0.00035523,-0.0016767,-0.0051354,4.0375e-005,0.0069151
-0.00037725,0.0024008,0.005591,0.005773,-0.001513,0.0025085,0.00031869,0.0028845,-2.0749e-005,-0.0029757,0.00091121,0.0014044,-0.0083762,0.0082037,0.0011761,-0.0058684,0.00031559,0.0029388,0.0015604,0.00098262,-0.0045739,-0.013746,9.9925e-005,0.019246
-0.00095974,0.0056386,0.013171,0.013852,-0.0034822,0.0059358,0.00080733,0.0067752,-0.00018304,-0.0073106,0.0021985,0.0030814,-0.019595,0.018808,0.0027307,-0.013935,0.00091275,0.0069342,0.0037747,0.0023342,-0.0106,-0.031162,0.00021546,0.045796
-0.0021033,0.011416,0.026745,0.028679,-0.0068742,0.012119,0.0017739,0.013728,-0.00074728,-0.015648,0.0046079,0.0056489,-0.039387,0.036834,0.0055096,-0.028514,0.0022587,0.014117,0.0079415,0.0048141,-0.020986,-0.060102,0.00041961,0.093999
-0.0039961,0.020034,0.047063,0.051504,-0.011684,0.021472,0.0034067,0.024121,-0.0022436,-0.029478,0.0084471,0.0085007,-0.068297,0.061661,0.009759,-0.050515,0.0048291,0.024939,0.014643,0.0086936,-0.035488,-0.098385,0.00077684,0.16732
-0.0066077,0.030552,0.071893,0.080378,-0.017093,0.033113,0.0057453,0.036815,-0.0054792,-0.049326,0.01359,0.0099563,-0.10213,0.087666,0.015323,-0.077556,0.0089739,0.038333,0.023792,0.013835,-0.050812,-0.13488,0.0014448,0.2588
-0.0095287,0.040461,0.095154,0.10878,-0.021398,0.04445,0.0085195,0.048686,-0.011347,-0.074041,0.019184,0.0074704,-0.13099,0.10392,0.021555,-0.10284,0.014535,0.051236,0.034214,0.019498,-0.060086,-0.14919,0.0027696,0.34739
-0.011999,0.046347,0.10838,0.12676,-0.022593,0.051803,0.011069,0.055318,-0.020378,-0.10085,0.023633,-0.0011641,-0.14218,0.098111,0.027518,-0.11664,0.020508,0.059327,0.043718,0.024431,-0.054806,-0.11849,0.005342,0.40247
-0.013234,0.045592,0.1048,0.12528,-0.019493,0.052161,0.012458,0.053037,-0.03221,-0.12646,0.025073,-0.015924,-0.12704,0.064175,0.032443,-0.11092,0.025091,0.059079,0.049939,0.02733,-0.02934,-0.030349,0.0098744,0.39841
-0.012944,0.038244,0.083928,0.10205,-0.0127,0.045219,0.011833,0.041357,-0.045347,-0.14852,0.022287,-0.033197,-0.087909,0.0091631,0.036126,-0.084839,0.026375,0.050132,0.051627,0.02748,0.014299,0.10634,0.016796,0.3321
-0.011661,0.027608,0.053322,0.064733,-0.0045893,0.034149,0.0089241,0.024139,-0.057618,-0.16616,0.01563,-0.046432,-0.03941,-0.046913,0.038963,-0.047156,0.023478,0.036193,0.049538,0.025235,0.065175,0.26237,0.025678,0.23067
-0.010539,0.018733,0.025182,0.028231,0.001917,0.02413,0.0044477,0.0082093,-0.067341,-0.179,0.0073299,-0.049204,-0.0009115,-0.080869,0.041569,-0.012431,0.017433,0.023305,0.04609,0.021991,0.10791,0.40439,0.034904,0.13975
-0.010595,0.015437,0.0093241,0.0066065,0.0050038,0.019247,0.00012844,-0.00019459,-0.074616,-0.18523,0.00070458,-0.039149,0.016135,-0.080788,0.044258,0.0075966,0.011002,0.016248,0.043766,0.019591,0.13102,0.5167,0.042085,0.096666
-0.011918,0.017871,0.00733,0.0047073,0.0048177,0.019895,-0.0018668,0.0010271,-0.081773,-0.18088,-0.0015351,-0.01999,0.016776,-0.054706,0.046788,0.011604,0.0072037,0.015569,0.043374,0.019416,0.13337,0.6114,0.045343,0.10654
-0.013506,0.022446,0.012354,0.015657,0.0029102,0.022723,2.3849e-005,0.0087392,-0.092289,-0.16154,0.0010387,0.0002543,0.019415,-0.025685,0.048525,0.0091849,0.0073162,0.017561,0.04362,0.021632,0.12372,0.71574,0.04478,0.14032
-0.013983,0.024333,0.014818,0.026247,0.00085466,0.023328,0.005722,0.016806,-0.10845,-0.12589,0.0061118,0.014057,0.042096,-0.015647,0.048834,0.013238,0.0097979,0.017334,0.042468,0.025003,0.11329,0.84419,0.042974,0.15765
-0.012709,0.020756,0.0094263,0.026041,-0.00076429,0.019675,0.013203,0.020118,-0.12905,-0.077986,0.0099779,0.018866,0.088384,-0.029922,0.0474,0.029918,0.011123,0.012532,0.039165,0.027455,0.10751,0.9778,0.043712,0.13733
-0.010372,0.012745,-0.0020452,0.013057,-0.0023133,0.013532,0.019372,0.017554,-0.14884,-0.026376,0.009991,0.017957,0.14403,-0.054704,0.044336,0.054193,0.0082037,0.0046926,0.035068,0.027168,0.10369,1.0704,0.049472,0.091144
-0.0085005,0.0041567,-0.013953,-0.0079027,-0.0043889,0.0087988,0.021815,0.011897,-0.16035,0.019946,0.0063955,0.017083,0.18698,-0.069233,0.040134,0.074549,0.0007504,-0.002653,0.032449,0.02361,0.096265,1.0797,0.059442,0.050724
-0.0082315,-0.0011774,-0.022509,-0.031666,-0.0072222,0.0081562,0.020293,0.0070719,-0.15747,0.05564,0.0020286,0.019672,0.20239,-0.0623,0.035541,0.082639,-0.0082385,-0.0072181,0.03235,0.017881,0.084182,1.0003,0.069807,0.039909
-0.0093531,-0.0020362,-0.028716,-0.057297,-0.010537,0.010866,0.016796,0.0050283,-0.13849,0.080329,-3.5135e-005,0.024411,0.19055,-0.039439,0.031363,0.079604,-0.0144,-0.009546,0.033559,0.012046,0.072877,0.86884,0.076407,0.056405
-0.010487,-0.00031163,-0.036244,-0.086631,-0.013551,0.013506,0.01393,0.0046424,-0.10689,0.096622,0.00093246,0.027021,0.1629,-0.015828,0.028167,0.073959,-0.015063,-0.011721,0.033729,0.0078304,0.068553,0.73848,0.077866,0.076825
-0.010339,0.00076782,-0.046825,-0.11868,-0.014846,0.012908,0.012788,0.0032462,-0.069259,0.10714,0.0027203,0.02448,0.13125,-0.0024592,0.025997,0.073485,-0.011214,-0.014774,0.031567,0.0055383,0.070321,0.63997,0.076632,0.077931
-0.0089988,-0.00076948,-0.057843,-0.14605,-0.012427,0.0087226,0.012151,-0.00070544,-0.032019,0.1132,0.0022317,0.018071,0.10058,0.0018285,0.024307,0.078612,-0.006863,-0.017488,0.028015,0.0040439,0.068361,0.56228,0.076935,0.053914
-0.0081662,-0.0042263,-0.064349,-0.15768,-0.0045035,0.0034857,0.0098601,-0.0060668,0.00089956,0.11565,-0.0014912,0.012736,0.070182,0.0063418,0.022219,0.082912,-0.0062116,-0.017762,0.025369,0.0019028,0.050899,0.46655,0.081281,0.015516
-0.0099976,-0.0070488,-0.063433,-0.14622,0.0090973,0.00029589,0.0053216,-0.009728,0.028035,0.11639,-0.0059867,0.013405,0.039873,0.017777,0.018976,0.079629,-0.01067,-0.015035,0.025259,-0.0012962,0.014245,0.32012,0.088393,-0.025345
-0.015392,-0.0071584,-0.056809,-0.11402,0.025899,0.00026417,0.00084603,-0.008951,0.048723,0.11844,-0.0071894,0.021354,0.013524,0.033409,0.014322,0.067975,-0.017881,-0.011238,0.027405,-0.0045557,-0.033274,0.12197,0.094345,-0.069271
-0.023001,-0.0048682,-0.049401,-0.072424,0.041217,0.0018879,0.0002802,-0.0034276,0.061778,0.12451,-0.002952,0.033435,-0.0032901,0.044117,0.0085853,0.053695,-0.023434,-0.0092326,0.030026,-0.0065402,-0.077398,-0.099201,0.095801,-0.12846
-0.029715,-0.0027446,-0.04546,-0.035044,0.050189,0.0026557,0.0057699,0.0044886,0.066089,0.1356,0.0048079,0.044534,-0.0080755,0.043461,0.002487,0.04398,-0.023995,-0.010245,0.031152,-0.0072248,-0.10876,-0.30834,0.092481,-0.21269
-0.032306,-0.0034587,-0.045689,-0.010089,0.050255,0.001246,0.015383,0.011441,0.062723,0.15113,0.011395,0.051074,-0.0028608,0.033867,-0.0032233,0.041698,-0.019556,-0.012797,0.029495,-0.0084855,-0.12886,-0.48585,0.0868,-0.31553
-0.029142,-0.0074078,-0.047498,0.0025912,0.042532,-0.0016081,0.023895,0.015269,0.056451,0.17035,0.013118,0.052803,0.0091401,0.024523,-0.0081291,0.043858,-0.013198,-0.014135,0.024478,-0.012698,-0.14614,-0.6301,0.081269,-0.41326
-0.020944,-0.012166,-0.047549,0.008499,0.03123,-0.0040885,0.026417,0.016119,0.054676,0.19308,0.010301,0.051779,0.027352,0.023661,-0.012323,0.044908,-0.0086236,-0.012752,0.016145,-0.020208,-0.16638,-0.74282,0.076209,-0.47784
-0.010266,-0.014309,-0.044113,0.012849,0.021488,-0.0049331,0.022046,0.015799,0.06382,0.21866,0.0068032,0.049814,0.053219,0.032518,-0.016247,0.041286,-0.0074302,-0.0095797,0.0056198,-0.027922,-0.18673,-0.8152,0.069774,-0.49378
-0.00017891,-0.012106,-0.037634,0.016944,0.016822,-0.0042169,0.014537,0.016107,0.085447,0.24371,0.0063843,0.046725,0.085407,0.045731,-0.020238,0.033351,-0.0082739,-0.0068816,-0.0044393,-0.030722,-0.19877,-0.82967,0.059896,-0.46662
0.0070726,-0.0068288,-0.029819,0.018713,0.017467,-0.0028017,0.0094768,0.017547,0.11501,0.26143,0.0091759,0.040799,0.11642,0.056586,-0.024115,0.023906,-0.0085817,-0.0061117,-0.010619,-0.025149,-0.19759,-0.77583,0.046058,-0.41756
0.010828,-0.0016532,-0.022589,0.015892,0.020414,-0.0012969,0.010257,0.019393,0.14426,0.26399,0.011501,0.030858,0.13566,0.061723,-0.027266,0.01559,-0.0073218,-0.0068746,-0.011023,-0.01255,-0.18774,-0.66509,0.029388,-0.36964
0.012021,0.00076075,-0.017567,0.0086433,0.02115,0.00032154,0.015989,0.020841,0.1657,0.2472,0.009321,0.017976,0.13749,0.061645,-0.029292,0.0096077,-0.0064095,-0.0078128,-0.0074248,0.0011253,-0.18025,-0.52992,0.011475,-0.33521
0.012568,-7.5021e-005,-0.015787,-0.00033637,0.016309,0.0021291,0.022666,0.022103,0.17597,0.2139,0.0022277,0.0053105,0.12737,0.058096,-0.030693,0.0061219,-0.0094716,-0.0082384,-0.0049699,0.0091278,-0.18306,-0.40698,-0.006457,-0.31218
0.014424,-0.0027617,-0.017244,-0.0077478,0.0057881,0.0034756,0.026266,0.024388,0.17611,0.17329,-0.0056827,-0.003837,0.11961,0.051957,-0.032747,0.004874,-0.019025,-0.0087179,-0.0088247,0.008536,-0.1933,-0.31736,-0.023246,-0.2889
0.018617,-0.005554,-0.020612,-0.011692,-0.0070159,0.0030131,0.025289,0.02876,0.16915,0.13597,-0.0089491,-0.0081161,0.12783,0.043688,-0.036415,0.0050182,-0.03455,-0.010129,-0.020023,0.0020124,-0.19841,-0.2585,-0.037244,-0.25249
0.02464,-0.0075213,-0.023819,-0.012304,-0.017258,-0.00026823,0.021157,0.034811,0.1574,0.1081,-0.0051551,-0.0087795,0.15548,0.034911,-0.041081,0.0047703,-0.053077,-0.012398,-0.034075,-0.0046951,-0.18545,-0.21272,-0.046919,-0.19503
0.030561,-0.0084531,-0.02538,-0.011052,-0.021841,-0.0058827,0.016796,0.040299,0.14153,0.088817,0.003244,-0.0085419,0.19401,0.028397,-0.044479,0.0021088,-0.071507,-0.014383,-0.043983,-0.0073607,-0.15102,-0.16466,-0.052577,-0.11625
0.033956,-0.0081281,-0.025374,-0.0096412,-0.021641,-0.011778,0.014797,0.042118,0.12166,0.072397,0.011109,-0.0097082,0.2293,0.0258,-0.044261,-0.0034928,-0.088275,-0.014982,-0.045575,-0.0061558,-0.10409,-0.11465,-0.057455,-0.023836
0.033351,-0.0061498,-0.025022,-0.0092661,-0.02111,-0.015716,0.016237,0.037949,0.099048,0.053322,0.014642,-0.012985,0.25062,0.025463,-0.040116,-0.0099676,-0.10279,-0.014188,-0.040798,-0.0046164,-0.060098,-0.079449,-0.066402,0.067209
0.029343,-0.0026843,-0.025191,-0.010228,-0.025379,-0.017117,0.020328,0.027514,0.076506,0.030217,0.013677,-0.017585,0.25495,0.023068,-0.034534,-0.013785,-0.11355,-0.012923,-0.036122,-0.0060061,-0.031593,-0.080999,-0.082494,0.13694
0.024606,0.00082444,-0.025344,-0.011743,-0.036818,-0.017712,0.024665,0.012734,0.057317,0.0061209,0.010684,-0.022148,0.24485,0.015215,-0.03124,-0.012832,-0.11736,-0.011956,-0.037332,-0.010516,-0.022341,-0.13178,-0.10416,0.16589
0.022513,0.0020759,-0.024121,-0.012113,-0.053434,-0.020185,0.026047,-0.0031128,0.043617,-0.014477,0.0080944,-0.025565,0.22354,0.0028022,-0.032407,-0.0085298,-0.11124,-0.011172,-0.045125,-0.015668,-0.02821,-0.22624,-0.12553,0.14217
0.025162,-0.00053898,-0.020952,-0.0096216,-0.070125,-0.025728,0.021968,-0.016591,0.035594,-0.029021,0.0067646,-0.027225,0.19243,-0.0091206,-0.036999,-0.0049397,-0.095486,-0.010035,-0.055148,-0.019136,-0.042214,-0.34343,-0.1402,0.066564
0.032183,-0.0065139,-0.016892,-0.0039364,-0.081777,-0.032577,0.012295,-0.025126,0.031884,-0.038127,0.0066018,-0.026847,0.15255,-0.015319,-0.041709,-0.0052724,-0.074861,-0.0085845,-0.06217,-0.021019,-0.058748,-0.45911,-0.14564,-0.047552
0.041353,-0.013237,-0.013638,0.0030277,-0.086004,-0.036988,-1.1867e-005,-0.027648,0.030571,-0.04425,0.0078876,-0.024352,0.10697,-0.014821,-0.043695,-0.0088488,-0.056071,-0.0077167,-0.064437,-0.023322,-0.07428,-0.55945,-0.14465,-0.17875
0.050658,-0.017551,-0.011671,0.0078304,-0.08387,-0.036042,-0.010123,-0.024911,0.029983,-0.049436,0.011326,-0.019959,0.06103,-0.011867,-0.042693,-0.011482,-0.043073,-0.0082961,-0.064401,-0.027278,-0.085785,-0.64803,-0.14269,-0.30257
0.0601,-0.01771,-0.0096186,0.0077014,-0.078608,-0.030093,-0.014105,-0.019413,0.02903,-0.054112,0.016739,-0.014301,0.019697,-0.012381,-0.040801,-0.0092582,-0.034179,-0.010059,-0.065546,-0.031328,-0.089955,-0.74121,-0.14317,-0.39424
0.071518,-0.014317,-0.005696,0.0026657,-0.073624,-0.02282,-0.0114,-0.014694,0.027323,-0.057564,0.022244,-0.008314,-0.015231,-0.018963,-0.040359,-0.0024476,-0.023728,-0.011557,-0.068694,-0.031935,-0.084471,-0.8543,-0.14474,-0.43081
0.086278,-0.0097006,0.00015951,-0.0041909,-0.071154,-0.018867,-0.0050892,-0.013965,0.025223,-0.05922,0.025364,-0.002879,-0.04542,-0.028729,-0.042038,0.0041309,-0.0071878,-0.011291,-0.071407,-0.026691,-0.069788,-0.98658,-0.1427,-0.39633
0.10283,-0.0063114,0.0057755,-0.0087405,-0.071994,-0.020922,0.0003051,-0.018604,0.023612,-0.05945,0.025249,0.0015192,-0.073707,-0.035832,-0.044746,0.0048689,0.014574,-0.0089434,-0.070855,-0.016826,-0.049089,-1.115,-0.13339,-0.2905
0.11675,-0.0052295,0.008572,-0.0086708,-0.07578,-0.028361,0.0017909,-0.027418,0.023221,-0.059382,0.023666,0.0048828,-0.10156,-0.036398,-0.047076,-0.0019495,0.035562,-0.0055444,-0.067086,-0.0066716,-0.02608,-1.2019,-0.11778,-0.13526
0.12407,-0.0056673,0.0079617,-0.0050129,-0.081282,-0.038154,-0.00062381,-0.037351,0.023876,-0.060119,0.023466,0.0075268,-0.12841,-0.031619,-0.048583,-0.012719,0.049239,-0.0025924,-0.063361,-0.00033819,-0.0026693,-1.2148,-0.10142,0.028707
0.12541,-0.0056961,0.0058371,-0.0012249,-0.086659,-0.046987,-0.004816,-0.045388,0.024377,-0.062092,0.02592,0.0098194,-0.1529,-0.026488,-0.049643,-0.021613,0.053396,-0.0010903,-0.063232,0.0015265,0.021279,-1.1472,-0.090848,0.15752
0.12696,-0.0037341,0.004586,-0.00064055,-0.090044,-0.053018,-0.0086464,-0.050475,0.023323,-0.064847,0.029548,0.011978,-0.17435,-0.025551,-0.050294,-0.025355,0.051128,-0.0012493,-0.067313,0.0020156,0.046177,-1.0296,-0.08949,0.22393
0.13626,0.00013984,0.004686,-0.004239,-0.090415,-0.056372,-0.011342,-0.054179,0.020276,-0.067184,0.031642,0.013938,-0.19303,-0.02952,-0.049582,-0.025331,0.047311,-0.002656,-0.072877,0.0049798,0.071117,-0.91901,-0.096076,0.22861
0.15518,0.003997,0.004449,-0.010236,-0.088114,-0.058488,-0.013259,-0.059641,0.016201,-0.067526,0.030856,0.015301,-0.20941,-0.035487,-0.046324,-0.025295,0.044066,-0.0043248,-0.076555,0.011362,0.094418,-0.87127,-0.10628,0.19509
0.17601,0.0053083,0.002263,-0.015459,-0.084204,-0.060917,-0.01479,-0.069527,0.012671,-0.064526,0.028209,0.015456,-0.22337,-0.040075,-0.040594,-0.027081,0.03945,-0.0046707,-0.077361,0.018024,0.11591,-0.90877,-0.11559,0.15216
0.18497,0.0028783,-0.001025,-0.017231,-0.078726,-0.064171,-0.015862,-0.08426,0.010555,-0.057863,0.025592,0.013957,-0.23413,-0.04232,-0.034308,-0.028574,0.030399,-0.002063,-0.07708,0.020071,0.13855,-1.0029,-0.12099,0.11668
0.17164,-0.0020149,-0.0022724,-0.014435,-0.069049,-0.067163,-0.01652,-0.10149,0.0094045,-0.048834,0.02349,0.010955,-0.24073,-0.043744,-0.030042,-0.025885,0.016873,0.0038571,-0.077773,0.014691,0.16724,-1.0847,-0.12064,0.08832
0.1374,-0.0063562,0.0010816,-0.0074148,-0.049997,-0.067648,-0.017673,-0.11691,0.0081273,-0.040113,0.020417,0.0073056,-0.24258,-0.045988,-0.028945,-0.01758,0.0030144,0.011144,-0.079011,0.0033381,0.20541,-1.0805,-0.11294,0.057939
0.095835,-0.0076302,0.0081479,0.0026573,-0.016473,-0.063676,-0.020706,-0.12584,0.0062032,-0.034445,0.014683,0.004103,-0.23986,-0.048699,-0.029631,-0.0068278,-0.0059249,0.01623,-0.077658,-0.0093719,0.25171,-0.95264,-0.096527,0.020286
0.064214,-0.0058095,0.014736,0.014185,0.032577,-0.055211,-0.025872,-0.12509,0.0041626,-0.032924,0.0066385,0.0019436,-0.23389,-0.049841,-0.029168,0.000697,-0.0080387,0.016386,-0.070517,-0.018924,0.29936,-0.71991,-0.07153,-0.019879
0.052301,-0.0033712,0.016762,0.025207,0.091537,-0.044571,-0.030942,-0.11427,0.0027861,-0.034097,-0.00098389,0.00056484,-0.22706,-0.047972,-0.025404,0.0013328,-0.0063663,0.012045,-0.057421,-0.023633,0.33878,-0.44619,-0.040726,-0.052359
0.057094,-0.0032272,0.013945,0.033605,0.14925,-0.035047,-0.031909,-0.096292,0.0018525,-0.034814,-0.0050802,-0.00076619,-0.22214,-0.043996,-0.01866,-0.0036991,-0.0060302,0.0066811,-0.041965,-0.02492,0.36164,-0.20359,-0.0090572,-0.070991
0.066995,-0.0062928,0.010322,0.037861,0.19401,-0.028544,-0.025866,-0.076409,-0.00017646,-0.032466,-0.0046798,-0.0024582,-0.22076,-0.040439,-0.011371,-0.0095476,-0.0094726,0.0039505,-0.029223,-0.025466,0.36401,-0.034684,0.018501,-0.078654
0.071319,-0.010793,0.010915,0.037983,0.21969,-0.024214,-0.014007,-0.059956,-0.0049998,-0.027029,-0.0016361,-0.0041635,-0.22207,-0.038877,-0.0061026,-0.01184,-0.014109,0.0044762,-0.022399,-0.027106,0.34733,0.064051,0.039216,-0.083399
0.067322,-0.013866,0.017404,0.035737,0.22894,-0.019422,-0.0019936,-0.049801,-0.012782,-0.021267,0.0010335,-0.0051283,-0.22304,-0.038098,-0.0037803,-0.0099679,-0.014468,0.0052884,-0.021105,-0.030055,0.31706,0.13074,0.053371,-0.089607
0.059919,-0.013985,0.026633,0.033687,0.23106,-0.01235,0.0032456,-0.045082,-0.021498,-0.018759,0.0015487,-0.0049596,-0.22025,-0.035,-0.0036065,-0.0068861,-0.0067949,0.0026056,-0.022358,-0.033503,0.28033,0.20983,0.063204,-0.092224
0.055773,-0.012033,0.033233,0.033618,0.23584,-0.0039683,-0.0017453,-0.042226,-0.028061,-0.021207,0.00037237,-0.0040446,-0.21232,-0.027624,-0.004431,-0.0060271,0.0080224,-0.0045222,-0.023161,-0.036508,0.24354,0.32609,0.071172,-0.078881
0.057528,-0.010245,0.034016,0.035588,0.24772,0.002519,-0.014304,-0.037643,-0.030402,-0.027111,-0.00089288,-0.0032488,-0.20075,-0.017549,-0.0059618,-0.008309,0.025576,-0.013142,-0.022463,-0.038295,0.21052,0.47387,0.078898,-0.037957
0.062548,-0.010169,0.030345,0.038392,0.26419,0.0044017,-0.027356,-0.030143,-0.028822,-0.032907,-0.0015242,-0.0032377,-0.18877,-0.0092748,-0.0085331,-0.011755,0.041662,-0.019001,-0.021154,-0.038156,0.18165,0.62305,0.087076,0.033468
0.065835,-0.011615,0.026688,0.040955,0.27906,0.0020043,-0.034357,-0.021328,-0.025536,-0.035626,-0.0027202,-0.0040497,-0.17913,-0.0068969,-0.011815,-0.013654,0.054948,-0.020452,-0.020499,-0.035626,0.1541,0.73492,0.095471,0.12663
0.063493,-0.013397,0.026955,0.043302,0.28751,-0.0012659,-0.033742,-0.01389,-0.022844,-0.034927,-0.006734,-0.0051784,-0.17299,-0.01084,-0.014111,-0.013033,0.066327,-0.019957,-0.020564,-0.03109,0.1234,0.78001,0.10228,0.22377
0.053838,-0.014848,0.031874,0.046204,0.28854,-0.0015045,-0.02951,-0.0093801,-0.021504,-0.032913,-0.014821,-0.0059278,-0.17025,-0.017462,-0.013369,-0.011274,0.07622,-0.02169,-0.019956,-0.02609,0.085811,0.7516,0.10336,0.30428
0.036373,-0.016426,0.039244,0.049964,0.28339,0.0026412,-0.027699,-0.0072226,-0.020595,-0.032059,-0.025698,-0.0057159,-0.17055,-0.021878,-0.0091791,-0.010591,0.083111,-0.027411,-0.017027,-0.022602,0.040736,0.66955,0.09285,0.35156
0.010929,-0.018791,0.046121,0.053626,0.27216,0.0090134,-0.031702,-0.0054466,-0.018858,-0.033122,-0.035825,-0.0042807,-0.17319,-0.021609,-0.0037275,-0.011958,0.085114,-0.034535,-0.011453,-0.021576,-0.008193,0.57051,0.065998,0.35827
-0.021683,-0.021451,0.050569,0.055436,0.25266,0.013797,-0.040091,-0.0021978,-0.016216,-0.034827,-0.041455,-0.0018947,-0.17615,-0.018103,-0.00042568,-0.014233,0.082936,-0.038318,-0.0048642,-0.022004,-0.054097,0.48711,0.022937,0.32825
-0.058552,-0.022629,0.051742,0.054053,0.22294,0.014532,-0.048339,0.0031927,-0.014061,-0.035391,-0.041098,0.00049555,-0.17553,-0.015129,-0.0011026,-0.015036,0.080785,-0.036196,4.2833e-005,-0.021511,-0.089732,0.42804,-0.029477,0.27345
-0.095115,-0.020786,0.049088,0.049227,0.18535,0.011791,-0.052624,0.010065,-0.014039,-0.034286,-0.036636,0.001497,-0.16706,-0.015777,-0.0042588,-0.012422,0.083616,-0.030215,0.0012382,-0.018116,-0.11095,0.37431,-0.079908,0.20687
-0.12768,-0.016436,0.042218,0.041304,0.14758,0.0083225,-0.052499,0.01692,-0.016442,-0.032534,-0.032207,-3.8326e-005,-0.149,-0.020775,-0.0061771,-0.006031,0.092875,-0.02517,-0.0013609,-0.011692,-0.11892,0.29737,-0.11803,0.13552
-0.15606,-0.012357,0.031756,0.030184,0.11878,0.0066411,-0.050509,0.022139,-0.01967,-0.031356,-0.031531,-0.0042457,-0.12397,-0.029424,-0.0041645,0.0029027,0.10484,-0.024201,-0.0059595,-0.0039302,-0.1197,0.18654,-0.1396,0.058507
-0.1837,-0.011706,0.019933,0.015006,0.10317,0.0071933,-0.049553,0.024741,-0.021282,-0.030656,-0.035521,-0.010018,-0.097795,-0.041942,0.00086898,0.012319,0.11354,-0.026017,-0.01011,0.0029911,-0.12116,0.063006,-0.14744,-0.02787
-0.21477,-0.015601,0.0097193,-0.0048802,0.096567,0.0084956,-0.050442,0.024954,-0.019748,-0.028971,-0.04195,-0.015557,-0.075933,-0.060741,0.0049081,0.020134,0.11594,-0.026453,-0.01208,0.0077546,-0.1288,-0.033201,-0.14755,-0.12197
-0.25043,-0.022406,0.0029397,-0.028418,0.089131,0.0088198,-0.051606,0.024147,-0.015429,-0.025035,-0.04741,-0.019309,-0.060528,-0.089095,0.0041705,0.024719,0.11467,-0.022853,-0.011462,0.010232,-0.14295,-0.073812,-0.14371,-0.21275
-0.28747,-0.029456,-0.00087754,-0.052176,0.072688,0.0077384,-0.050864,0.023877,-0.010073,-0.019382,-0.050031,-0.020629,-0.050551,-0.12799,-0.0015329,0.025216,0.11581,-0.017,-0.0088937,0.010913,-0.15919,-0.06429,-0.13474,-0.28405
-0.3205,-0.035601,-0.0036588,-0.071272,0.046623,0.0061867,-0.047535,0.024537,-0.0053893,-0.014329,-0.050782,-0.019848,-0.044608,-0.1736,-0.0083829,0.021906,0.12347,-0.013653,-0.0054191,0.010342,-0.17179,-0.037188,-0.11669,-0.32459
-0.34574,-0.042117,-0.0066707,-0.081455,0.017534,0.0052055,-0.043093,0.024772,-0.0019708,-0.012186,-0.05236,-0.017975,-0.043411,-0.21767,-0.011549,0.016412,0.13606,-0.015994,-0.0020061,0.009128,-0.17774,-0.021506,-0.087786,-0.33566
-0.36325,-0.051045,-0.0091821,-0.081192,-0.007021,0.0047648,-0.039952,0.022441,0.00070421,-0.013283,-0.056694,-0.016364,-0.049248,-0.25085,-0.0090992,0.011277,0.14745,-0.022337,0.00071984,0.0081828,-0.17826,-0.013973,-0.051995,-0.33004
-0.37576,-0.062548,-0.0092393,-0.072635,-0.025193,0.0038949,-0.039515,0.016581,0.0034457,-0.015622,-0.063265,-0.016422,-0.062776,-0.26709,-0.0035155,0.0087724,0.15175,-0.027339,0.0026727,0.0084757,-0.17662,0.022962,-0.018075,-0.32326
-0.38552,-0.073935,-0.0058343,-0.060988,-0.042169,0.0019771,-0.041116,0.0087328,0.0065806,-0.016519,-0.069614,-0.019124,-0.080166,-0.26635,0.00040882,0.0095529,0.14764,-0.026679,0.0043745,0.010263,-0.17434,0.13386,0.0051486,-0.32417
-0.39193,-0.081442,-0.00041712,-0.052457,-0.065142,-0.00017297,-0.04269,0.0022702,0.0098477,-0.014797,-0.073437,-0.024377,-0.093587,-0.25374,-0.00052657,0.012169,0.13862,-0.020867,0.0066246,0.01257,-0.16958,0.33469,0.013622,-0.33202
-0.39189,-0.083255,0.0036307,-0.051608,-0.096563,-0.00066319,-0.042564,-3.9255e-005,0.012859,-0.011685,-0.074261,-0.030694,-0.095176,-0.23609,-0.0054627,0.013888,0.12965,-0.014645,0.0097616,0.013705,-0.15985,0.59488,0.0094259,-0.34104
-0.38218,-0.080979,0.0030534,-0.059471,-0.13173,0.0018213,-0.040884,0.001584,0.01556,-0.0097161,-0.073267,-0.035804,-0.081651,-0.21815,-0.010307,0.012278,0.12351,-0.012553,0.013085,0.012582,-0.14711,0.84808,-0.0019881,-0.3467
-0.36165,-0.078191,-0.0034159,-0.073512,-0.16279,0.0065124,-0.039473,0.0036138,0.018221,-0.010591,-0.071699,-0.038071,-0.056188,-0.20106,-0.010937,0.0064039,0.11957,-0.014791,0.015152,0.0096923,-0.14002,1.0215,-0.016049,-0.34775
-0.3317,-0.07738,-0.014619,-0.089554,-0.18548,0.010623,-0.040211,0.0014786,0.020973,-0.013759,-0.069651,-0.037748,-0.026282,-0.18375,-0.0061118,-0.0030656,0.1155,-0.01719,0.014964,0.0067069,-0.14994,1.0648,-0.03134,-0.34299
-0.29496,-0.078012,-0.027774,-0.10424,-0.20242,0.011074,-0.043273,-0.0070926,0.023363,-0.016786,-0.066491,-0.036863,0.00073222,-0.16562,0.0019663,-0.01453,0.10929,-0.015221,0.013068,0.004951,-0.18194,0.96568,-0.048511,-0.32761
-0.25379,-0.077364,-0.039523,-0.11608,-0.22001,0.0065791,-0.046719,-0.020072,0.024418,-0.017196,-0.062346,-0.037549,0.021446,-0.14812,0.0094571,-0.026064,0.1001,-0.0082666,0.011381,0.0041222,-0.22798,0.74968,-0.067472,-0.29431
-0.20966,-0.073204,-0.046732,-0.12444,-0.24176,-0.0014889,-0.04788,-0.032036,0.023343,-0.014365,-0.058808,-0.040072,0.037263,-0.13375,0.013346,-0.035496,0.0877,-0.00025875,0.011617,0.0025205,-0.26863,0.47013,-0.085773,-0.23917
-0.16341,-0.065791,-0.047317,-0.12773,-0.26405,-0.010005,-0.045462,-0.037454,0.020361,-0.010081,-0.057797,-0.042297,0.052368,-0.12338,0.012837,-0.040371,0.071985,0.0037847,0.01361,-0.001263,-0.28387,0.19197,-0.099591,-0.16737
-0.11591,-0.057449,-0.041359,-0.12316,-0.27837,-0.01603,-0.040653,-0.034129,0.016908,-0.0073503,-0.059489,-0.041248,0.070489,-0.11437,0.009134,-0.038459,0.053487,0.0020384,0.015199,-0.0066404,-0.26561,-0.028123,-0.10613,-0.092868
-0.068686,-0.050269,-0.031764,-0.10888,-0.27834,-0.018422,-0.036261,-0.024449,0.014845,-0.008297,-0.061472,-0.035568,0.092498,-0.10163,0.0042875,-0.028891,0.033935,-0.002902,0.014076,-0.01093,-0.22227,-0.16047,-0.10513,-0.031682
-0.02432,-0.044183,-0.023295,-0.086504,-0.26544,-0.018173,-0.034558,-0.013687,0.015171,-0.012703,-0.060338,-0.026766,0.11602,-0.081271,8.2383e-005,-0.013137,0.015704,-0.0067463,0.01006,-0.011216,-0.17175,-0.21172,-0.098494,0.0065825
0.013523,-0.037214,-0.019833,-0.061522,-0.24834,-0.017474,-0.035587,-0.006659,0.017325,-0.018267,-0.054543,-0.018056,0.13689,-0.054511,-0.0025099,0.0051318,9.1212e-005,-0.0074716,0.005693,-0.0067773,-0.12814,-0.21764,-0.088792,0.022867
0.040957,-0.027594,-0.021606,-0.040274,-0.23611,-0.018191,-0.037343,-0.0051447,0.019739,-0.022384,-0.045961,-0.011756,0.15131,-0.028554,-0.0034004,0.021485,-0.013955,-0.0068587,0.0044022,1.5575e-005,-0.092946,-0.2216,-0.078454,0.026217
0.055669,-0.015735,-0.024851,-0.025889,-0.23102,-0.020685,-0.037622,-0.0077417,0.021194,-0.024035,-0.038562,-0.0075365,0.15751,-0.013444,-0.0032363,0.032681,-0.029079,-0.0083834,0.0077154,0.0053372,-0.057386,-0.25085,-0.069672,0.027385
0.058605,-0.0041901,-0.024663,-0.016607,-0.22714,-0.023593,-0.035926,-0.011924,0.021722,-0.024291,-0.035292,-0.0031462,0.15606,-0.016545,-0.0031367,0.038008,-0.047008,-0.01364,0.013972,0.0069423,-0.012916,-0.30524,-0.064006,0.033126
0.054008,0.0043702,-0.019028,-0.0080294,-0.21618,-0.024663,-0.0338,-0.016419,0.022204,-0.025061,-0.035909,0.003021,0.14895,-0.03818,-0.0042411,0.039324,-0.066465,-0.02067,0.019656,0.0060318,0.039623,-0.36336,-0.06095,0.044095
0.047219,0.0093034,-0.010678,0.0026727,-0.19552,-0.022212,-0.033379,-0.021961,0.023083,-0.027248,-0.037684,0.0099354,0.13811,-0.071154,-0.0070873,0.039857,-0.083582,-0.025623,0.022139,0.006162,0.090047,-0.39856,-0.056625,0.056114
0.041676,0.012298,-0.0050793,0.01429,-0.17141,-0.016384,-0.035487,-0.029967,0.023529,-0.02996,-0.03811,0.014536,0.12432,-0.10419,-0.011099,0.042298,-0.094641,-0.026064,0.021418,0.0099514,0.12743,-0.39149,-0.04477,0.062969
0.037579,0.015559,-0.0061631,0.022841,-0.15439,-0.0094284,-0.038921,-0.040525,0.022026,-0.031485,-0.036948,0.01456,0.10697,-0.12686,-0.0146,0.047026,-0.098816,-0.022874,0.019507,0.016481,0.14921,-0.33234,-0.02056,0.059282
0.033428,0.019556,-0.013365,0.025162,-0.15069,-0.0047064,-0.041395,-0.051588,0.017894,-0.031128,-0.035696,0.011012,0.084821,-0.13314,-0.015553,0.05139,-0.098541,-0.019182,0.018305,0.021883,0.16283,-0.21676,0.015256,0.043068
0.028949,0.02241,-0.022312,0.021532,-0.15711,-0.0049086,-0.041178,-0.060081,0.012271,-0.030164,-0.035285,0.0077874,0.057135,-0.12222,-0.012702,0.050739,-0.097329,-0.017554,0.018023,0.022783,0.17911,-0.044273,0.055703,0.017711
0.02642,0.021538,-0.028347,0.015227,-0.16374,-0.010518,-0.038039,-0.063805,0.007421,-0.030961,-0.034587,0.0085446,0.024588,-0.09708,-0.006414,0.041052,-0.097135,-0.018096,0.017472,0.019488,0.20371,0.17744,0.091851,-0.007518
0.02886,0.01614,-0.029773,0.0098525,-0.16205,-0.01946,-0.032924,-0.06235,0.0048224,-0.034947,-0.031474,0.013556,-0.010696,-0.062171,0.0014378,0.021737,-0.097519,-0.019033,0.015637,0.015885,0.23381,0.4287,0.11912,-0.019508
0.036748,0.0083607,-0.028354,0.007031,-0.15125,-0.028149,-0.026964,-0.056352,0.0037356,-0.041195,-0.025374,0.019468,-0.046166,-0.021288,0.0085539,-0.0033519,-0.097011,-0.01885,0.01289,0.015981,0.26214,0.68252,0.14048,-0.0059756
0.046711,0.0020953,-0.027146,0.006247,-0.13741,-0.033238,-0.020805,-0.046191,0.0016737,-0.046925,-0.018589,0.022236,-0.080441,0.023817,0.013559,-0.027696,-0.094995,-0.017796,0.010724,0.020243,0.28317,0.91687,0.16355,0.038969
0.05389,0.00042717,-0.027922,0.0063692,-0.1268,-0.033061,-0.014634,-0.031859,-0.0034825,-0.049574,-0.014718,0.020566,-0.11441,0.073604,0.016683,-0.045645,-0.092238,-0.017379,0.01041,0.025207,0.29581,1.1237,0.1939,0.11124
0.05605,0.0037385,-0.030257,0.007001,-0.11961,-0.028049,-0.0085698,-0.014338,-0.011537,-0.048741,-0.015524,0.016713,-0.15078,0.12932,0.019303,-0.055103,-0.089798,-0.018611,0.011906,0.026778,0.30072,1.3042,0.22992,0.19749
0.055502,0.0098829,-0.03253,0.0084259,-0.10983,-0.020152,-0.0028624,0.0030172,-0.019966,-0.046453,-0.019303,0.014065,-0.19181,0.1905,0.022718,-0.057348,-0.087724,-0.020889,0.013961,0.024157,0.29654,1.453,0.26336,0.28024
0.056851,0.01606,-0.033468,0.010607,-0.090778,-0.011804,0.0022221,0.015105,-0.025937,-0.045594,-0.022455,0.013916,-0.23651,0.25332,0.027048,-0.054324,-0.08506,-0.022586,0.015223,0.020653,0.28002,1.5498,0.28466,0.34474
0.062576,0.020756,-0.032863,0.012608,-0.061025,-0.0049887,0.006594,0.017973,-0.028652,-0.047833,-0.022757,0.014431,-0.27894,0.31171,0.03104,-0.045991,-0.081138,-0.022614,0.015317,0.020565,0.25061,1.5701,0.28839,0.38393
0.070716,0.024293,-0.031278,0.013164,-0.025367,-0.00067557,0.01039,0.011857,-0.030047,-0.052688,-0.021099,0.012533,-0.30927,0.36126,0.032908,-0.030267,-0.076684,-0.021304,0.01503,0.024978,0.21506,1.5113,0.27456,0.39867
0.077035,0.027822,-0.029485,0.011797,0.0094485,0.0013212,0.013943,0.0015971,-0.033286,-0.058287,-0.019991,0.0066423,-0.31689,0.4032,0.031652,-0.0056851,-0.073405,-0.019778,0.015517,0.030391,0.18646,1.409,0.24589,0.39393
0.079783,0.031883,-0.028186,0.0093479,0.039867,0.002101,0.017784,-0.0063764,-0.040361,-0.062964,-0.020505,-0.0024177,-0.29432,0.44454,0.027971,0.025685,-0.072268,-0.018587,0.017184,0.031494,0.17737,1.3211,0.20475,0.37404
0.082621,0.035859,-0.027911,0.007445,0.067053,0.0030915,0.022556,-0.0083627,-0.050682,-0.0663,-0.020974,-0.01295,-0.24004,0.49332,0.02409,0.057974,-0.072175,-0.017091,0.019089,0.025678,0.19201,1.2874,0.15311,0.34035
0.092712,0.0387,-0.028681,0.007469,0.094229,0.0053184,0.028629,-0.005552,-0.061591,-0.068863,-0.018951,-0.024479,-0.16001,0.55192,0.022449,0.084507,-0.0705,-0.014226,0.019357,0.015341,0.22418,1.2953,0.09509,0.29218
0.11516,0.040096,-0.029609,0.0098704,0.12302,0.0089134,0.035499,-0.0022655,-0.070203,-0.071149,-0.014374,-0.038014,-0.067646,0.61383,0.024033,0.10176,-0.065269,-0.0098619,0.016482,0.0060412,0.2626,1.2851,0.03841,0.22908
0.14811,0.040864,-0.029068,0.01414,0.15213,0.013191,0.041553,-0.0018023,-0.075177,-0.072856,-0.010401,-0.054044,0.01787,0.66625,0.027535,0.11107,-0.05711,-0.0053727,0.010698,0.0021601,0.29914,1.1955,-0.0084178,0.15182
0.18229,0.04204,-0.025744,0.01911,0.17876,0.01723,0.044723,-0.0034854,-0.077317,-0.073131,-0.010609,-0.070302,0.076357,0.69671,0.030177,0.11684,-0.049115,-0.0027979,0.0043882,0.0037084,0.33303,1.013,-0.042019,0.061785
0.20558,0.043535,-0.019868,0.023271,0.20045,0.02047,0.043844,-0.0034673,-0.078753,-0.071481,-0.015131,-0.081898,0.094219,0.69831,0.029827,0.12275,-0.04454,-0.0032822,0.00089971,0.006788,0.36782,0.78457,-0.068268,-0.039403
0.2094,0.04376,-0.013451,0.025237,0.21551,0.022812,0.039718,0.0014596,-0.081273,-0.068427,-0.019756,-0.084381,0.071902,0.67065,0.026839,0.12923,-0.044201,-0.0060873,0.0023212,0.0071116,0.404,0.58147,-0.099892,-0.14799
0.19291,0.040874,-0.0089856,0.024546,0.22238,0.024227,0.034883,0.010502,-0.084837,-0.065295,-0.019394,-0.077468,0.025989,0.6172,0.02396,0.13372,-0.045736,-0.0089566,0.0078059,0.0036064,0.43395,0.44372,-0.14757,-0.25494
0.16261,0.034721,-0.0075582,0.022427,0.2195,0.024407,0.032067,0.01908,-0.087336,-0.063375,-0.012912,-0.06611,-0.01754,0.54307,0.02407,0.1333,-0.045389,-0.009539,0.013926,-0.00072719,0.44354,0.35177,-0.21005,-0.34474
0.12803,0.027576,-0.0080263,0.021581,0.20653,0.022992,0.032431,0.022572,-0.086064,-0.063169,-0.0046565,-0.05749,-0.03656,0.45503,0.027446,0.12708,-0.040847,-0.0068582,0.017067,-0.001204,0.41966,0.24589,-0.27068,-0.39903
0.09643,0.02269,-0.0081067,0.02446,0.18548,0.020233,0.034977,0.020372,-0.080156,-0.064224,-0.00084948,-0.055981,-0.024693,0.36234,0.030971,0.11671,-0.032863,-0.0018865,0.016099,0.0049517,0.35813,0.074145,-0.30391,-0.40414
0.069747,0.021609,-0.0064983,0.030937,0.16016,0.017315,0.037577,0.016623,-0.072196,-0.065499,-0.0039192,-0.060133,0.0062286,0.27542,0.030275,0.10489,-0.024536,0.0030783,0.013121,0.016652,0.267,-0.17176,-0.28881,-0.35779
0.045424,0.022604,-0.0041207,0.037363,0.1341,0.015717,0.038804,0.016875,-0.067348,-0.065848,-0.01001,-0.064318,0.034851,0.20201,0.023232,0.093307,-0.018958,0.0058226,0.01157,0.030009,0.16319,-0.45843,-0.2212,-0.2702
0.020102,0.021838,-0.0032905,0.038438,0.10871,0.015929,0.039068,0.023457,-0.070134,-0.064393,-0.012166,-0.063796,0.043721,0.14404,0.011854,0.081761,-0.017128,0.0055792,0.013272,0.041281,0.065093,-0.74171,-0.11686,-0.15818
-0.0066496,0.016547,-0.0055404,0.031066,0.083449,0.016738,0.04015,0.033469,-0.081035,-0.060789,-0.0064929,-0.058944,0.027874,0.098429,0.00083556,0.068691,-0.017504,0.0035259,0.01695,0.049099,-0.015074,-0.99576,-0.003616,-0.036403
-0.031341,0.0076032,-0.010076,0.017327,0.057764,0.016041,0.043481,0.041076,-0.095639,-0.055497,0.004215,-0.054944,-0.0064099,0.061607,-0.0060817,0.052592,-0.017255,0.0020634,0.019424,0.054134,-0.075401,-1.2172,0.092339,0.087919
-0.048981,-0.00084376,-0.014284,0.0038564,0.032613,0.01279,0.048514,0.042113,-0.10727,-0.049831,0.012664,-0.057097,-0.049518,0.033335,-0.0087671,0.033218,-0.014137,0.0032486,0.018372,0.056825,-0.12344,-1.4073,0.15731,0.21326
-0.056955,-0.0044968,-0.015798,-0.0023969,0.010278,0.0083769,0.052595,0.037214,-0.11126,-0.045507,0.01318,-0.065718,-0.09526,0.015651,-0.010097,0.01199,-0.0078073,0.007378,0.014164,0.055699,-0.17072,-1.5546,0.192,0.33662
-0.057148,-0.0022692,-0.014164,0.0010046,-0.0071936,0.0059523,0.05261,0.031031,-0.1077,-0.043668,0.0064576,-0.075028,-0.14126,0.0077241,-0.012801,-0.0084504,4.3084e-005,0.012743,0.0093114,0.048285,-0.22507,-1.6348,0.20518,0.44748
-0.054481,0.002935,-0.010665,0.010385,-0.019199,0.0078934,0.047345,0.028431,-0.10072,-0.044008,-0.0010507,-0.077084,-0.18461,0.0021265,-0.016784,-0.025346,0.0066534,0.016837,0.0062443,0.034078,-0.28444,-1.6278,0.20534,0.52888
-0.05294,0.0066446,-0.0067164,0.018948,-0.026445,0.013475,0.038741,0.030895,-0.095278,-0.044792,-0.0023495,-0.067625,-0.21872,-0.012353,-0.01941,-0.037346,0.0097296,0.018208,0.0055617,0.016635,-0.3365,-1.5341,0.19678,0.56633
-0.052367,0.0063973,-0.0026882,0.022017,-0.030052,0.018918,0.030936,0.035948,-0.093821,-0.043979,0.0047733,-0.049235,-0.23551,-0.042099,-0.018388,-0.045943,0.0087743,0.017552,0.0061946,0.0022743,-0.36526,-1.3761,0.18165,0.55872
-0.048792,0.0035414,0.0016124,0.020341,-0.031081,0.020098,0.027607,0.039777,-0.095335,-0.040705,0.016552,-0.029562,-0.23102,-0.081098,-0.0144,-0.055951,0.0054171,0.017128,0.0069952,-0.004157,-0.36147,-1.1851,0.16404,0.52265
-0.038089,0.0019143,0.0055381,0.018879,-0.030769,0.015817,0.029567,0.040587,-0.09676,-0.035899,0.026656,-0.016258,-0.20894,-0.11153,-0.010898,-0.074202,0.002374,0.018897,0.0080219,-0.0030448,-0.33008,-0.98549,0.15073,0.48538
-0.019855,0.0046213,0.0072433,0.022232,-0.030642,0.0089125,0.034447,0.039879,-0.095383,-0.031437,0.030993,-0.012534,-0.1781,-0.11351,-0.011171,-0.10649,0.0015483,0.022894,0.010324,0.00011737,-0.28857,-0.78916,0.14713,0.4698
0.0018806,0.011531,0.0052821,0.0306,-0.031859,0.0041629,0.038668,0.040727,-0.090505,-0.028526,0.030071,-0.01625,-0.14568,-0.077438,-0.015353,-0.15418,0.0025902,0.027251,0.014619,-0.0010738,-0.25645,-0.60107,0.15215,0.48133
0.021755,0.019321,0.00071241,0.0395,-0.034316,0.0046667,0.040077,0.044787,-0.083625,-0.02673,0.02763,-0.022441,-0.11192,-0.010563,-0.020128,-0.21267,0.0031285,0.029879,0.02028,-0.0090538,-0.24294,-0.42665,0.15715,0.50583
0.037165,0.023846,-0.0028107,0.043296,-0.036714,0.0096315,0.039119,0.05072,-0.077412,-0.024514,0.027315,-0.026824,-0.070836,0.066585,-0.021442,-0.27292,0.00065873,0.030335,0.025572,-0.020767,-0.24197,-0.27175,0.15091,0.51994
0.049634,0.022944,-0.0017612,0.039467,-0.037959,0.01528,0.037806,0.055354,-0.07412,-0.02084,0.030297,-0.027735,-0.016558,0.1308,-0.017789,-0.32545,-0.0053752,0.030135,0.028838,-0.030591,-0.23822,-0.13534,0.12738,0.50615
0.062253,0.017777,0.0039212,0.030255,-0.038698,0.017943,0.037679,0.056423,-0.07417,-0.016314,0.035273,-0.025737,0.050081,0.16734,-0.011185,-0.3642,-0.013079,0.03119,0.029508,-0.034973,-0.21944,-0.0043704,0.090123,0.46157
0.075783,0.011985,0.01023,0.020664,-0.041358,0.016693,0.038654,0.054389,-0.075568,-0.012823,0.040152,-0.021982,0.11988,0.17609,-0.005082,-0.38795,-0.019661,0.033785,0.0282,-0.034826,-0.18538,0.13964,0.050121,0.39502
0.087349,0.0094168,0.012292,0.014795,-0.048365,0.013483,0.039605,0.051757,-0.074725,-0.011908,0.043666,-0.016964,0.17971,0.17064,-0.0012412,-0.39875,-0.023687,0.036059,0.02607,-0.033989,-0.14695,0.30369,0.018737,0.31669
0.093204,0.011907,0.0087275,0.013482,-0.060034,0.011035,0.039751,0.050642,-0.068542,-0.013326,0.045791,-0.010513,0.21959,0.17111,0.0015658,-0.39912,-0.026022,0.035574,0.024134,-0.035616,-0.11747,0.46951,0.0012511,0.2301
0.092911,0.018361,0.0030805,0.014766,-0.07404,0.010557,0.039295,0.050939,-0.056653,-0.015055,0.04718,-0.002638,0.23731,0.19325,0.0059637,-0.39037,-0.02866,0.031584,0.023,-0.03977,-0.10379,0.59749,-0.0044657,0.1331
0.09059,0.025611,0.00080915,0.016282,-0.086934,0.011224,0.038723,0.050775,-0.042169,-0.014773,0.048455,0.005765,0.238,0.23855,0.013149,-0.37299,-0.032616,0.025878,0.022953,-0.043931,-0.10413,0.65058,-0.0039308,0.02548
0.09149,0.030481,0.0044636,0.017266,-0.096316,0.011534,0.037743,0.048702,-0.029998,-0.011547,0.049917,0.013018,0.2299,0.29093,0.021572,-0.34815,-0.036931,0.021393,0.024057,-0.045354,-0.11262,0.62213,-0.00061701,-0.085504
0.09672,0.031819,0.011465,0.01859,-0.10183,0.011014,0.035211,0.045423,-0.023561,-0.0063355,0.051579,0.017509,0.21934,0.32421,0.028339,-0.31865,-0.03968,0.019857,0.026147,-0.042998,-0.12529,0.54523,0.0062866,-0.18812
0.10114,0.031118,0.016452,0.021115,-0.10445,0.010601,0.030296,0.043263,-0.022221,-0.00097979,0.053179,0.018601,0.20745,0.31739,0.031912,-0.28822,-0.039952,0.020598,0.028823,-0.037828,-0.14189,0.4735,0.019423,-0.2752
0.096855,0.031197,0.015915,0.024086,-0.10507,0.011527,0.023672,0.043865,-0.021508,0.0034049,0.054136,0.01693,0.18948,0.26841,0.033476,-0.26012,-0.038823,0.021506,0.031528,-0.032054,-0.16298,0.44598,0.038738,-0.35009
0.079666,0.033756,0.010882,0.025168,-0.10383,0.013959,0.017353,0.046359,-0.016228,0.0072847,0.053645,0.013932,0.15646,0.19605,0.035678,-0.23602,-0.038415,0.021107,0.03365,-0.028411,-0.18619,0.4627,0.059159,-0.42258
0.053106,0.037641,0.0055077,0.02223,-0.10062,0.016789,0.013148,0.047877,-0.0042043,0.012163,0.051105,0.011021,0.0993,0.12757,0.039976,-0.21578,-0.04002,0.019764,0.034569,-0.029681,-0.20589,0.48977,0.072711,-0.49718
0.026574,0.03936,0.0032972,0.015423,-0.095824,0.018713,0.011195,0.046055,0.012218,0.01912,0.046684,0.0090239,0.014984,0.081007,0.045204,-0.19779,-0.043138,0.019,0.033722,-0.037815,-0.21663,0.48871,0.073496,-0.56431
0.0091782,0.035707,0.004594,0.0076749,-0.09051,0.019448,0.010047,0.04118,0.02805,0.027582,0.041624,0.0081438,-0.087458,0.055269,0.048759,-0.17938,-0.046244,0.019778,0.030865,-0.052473,-0.21707,0.44556,0.061574,-0.60359
0.004288,0.02656,0.0072734,0.0029119,-0.08574,0.019879,0.0082371,0.035929,0.039346,0.035275,0.037947,0.0082479,-0.18489,0.035358,0.049332,-0.15725,-0.048357,0.0215,0.026485,-0.070013,-0.21064,0.37682,0.042863,-0.59803
0.0086894,0.015514,0.0093392,0.0031825,-0.081845,0.021007,0.005724,0.03294,0.045768,0.039467,0.037556,0.0091064,-0.24538,0.0071145,0.048575,-0.12868,-0.049763,0.022642,0.022024,-0.084319,-0.20236,0.31043,0.025438,-0.54815
0.016119,0.0076553,0.010603,0.0069249,-0.078379,0.022803,0.0037289,0.032535,0.050148,0.038771,0.041092,0.01046,-0.24052,-0.031423,0.050026,-0.09319,-0.051238,0.022283,0.019489,-0.089653,-0.19467,0.26079,0.015216,-0.47375
0.021605,0.0061028,0.012065,0.0099549,-0.074755,0.024113,0.0031686,0.032761,0.055722,0.034346,0.047179,0.012104,-0.1594,-0.071233,0.05611,-0.053888,-0.052774,0.020967,0.020416,-0.083881,-0.1858,0.22058,0.013934,-0.40118
0.023326,0.010027,0.014179,0.0086616,-0.070905,0.023744,0.0034065,0.031615,0.06351,0.029628,0.052713,0.01414,-0.01643,-0.10373,0.065823,-0.016955,-0.053318,0.020066,0.024709,-0.069758,-0.17165,0.17469,0.020022,-0.34539
0.02166,0.015633,0.016142,0.0030158,-0.067281,0.021712,0.0027411,0.029167,0.071914,0.028561,0.054401,0.01719,0.15246,-0.1312,0.075168,0.011031,-0.051967,0.020345,0.030203,-0.053242,-0.14942,0.12161,0.030806,-0.30055
0.017545,0.019126,0.01693,-0.003082,-0.064212,0.019487,0.00019804,0.027424,0.078573,0.033314,0.050905,0.022178,0.30456,-0.16657,0.080022,0.026694,-0.049455,0.021172,0.033454,-0.039978,-0.11975,0.080876,0.044147,-0.24637
0.012071,0.019174,0.016733,-0.0045918,-0.061259,0.01894,-0.0032823,0.028081,0.082689,0.042912,0.044121,0.029574,0.40888,-0.22294,0.079055,0.03211,-0.048307,0.021153,0.031553,-0.032449,-0.086075,0.078125,0.058827,-0.16535
0.007118,0.017054,0.017047,0.00083028,-0.057223,0.020843,-0.0056332,0.030464,0.08584,0.053803,0.038331,0.038598,0.45837,-0.30208,0.074315,0.03401,-0.051194,0.019524,0.023931,-0.029621,-0.052476,0.12014,0.074251,-0.058663
0.0054128,0.014876,0.019245,0.011012,-0.050908,0.024117,-0.0057388,0.031848,0.090729,0.062092,0.037338,0.047123,0.46934,-0.39199,0.069069,0.040071,-0.058722,0.016914,0.013007,-0.028932,-0.022036,0.18174,0.090119,0.050555
0.0091007,0.013737,0.023155,0.020956,-0.041989,0.026464,-0.0046629,0.029992,0.099005,0.065963,0.04154,0.052574,0.46846,-0.47518,0.064773,0.054342,-0.068531,0.014775,0.0030785,-0.028697,0.0031555,0.21782,0.10611,0.12922
0.017834,0.013364,0.027183,0.026613,-0.031255,0.025953,-0.0046413,0.025466,0.10991,0.066597,0.047361,0.05332,0.47568,-0.54123,0.059659,0.074604,-0.076585,0.0141,-0.0019914,-0.028957,0.021446,0.19361,0.12135,0.15495
0.028308,0.013094,0.029811,0.027585,-0.019995,0.022411,-0.0067137,0.021451,0.12071,0.066952,0.049866,0.049628,0.49349,-0.59407,0.049971,0.093491,-0.079703,0.014706,-0.00086948,-0.030407,0.031968,0.11083,0.13378,0.133
0.036028,0.012874,0.030873,0.026608,-0.0090672,0.017588,-0.0093445,0.021046,0.12838,0.069393,0.046648,0.04352,0.50898,-0.64994,0.032755,0.10294,-0.077416,0.0157,0.0047178,-0.032794,0.035976,0.0091402,0.14033,0.098006
0.038106,0.013293,0.031317,0.026553,0.0014686,0.013933,-0.0095071,0.024471,0.13129,0.074011,0.039764,0.037653,0.50622,-0.72806,0.0079607,0.099395,-0.071821,0.016498,0.011296,-0.034609,0.037489,-0.05971,0.13826,0.09678
0.034971,0.014856,0.031842,0.027843,0.011861,0.012851,-0.0053104,0.028716,0.12959,0.078931,0.033976,0.033953,0.47936,-0.84015,-0.021563,0.086395,-0.065722,0.017287,0.015758,-0.034484,0.041638,-0.067476,0.12704,0.16019
0.029934,0.017448,0.031998,0.028616,0.021864,0.013762,0.0022636,0.029979,0.12453,0.082214,0.032739,0.032776,0.43706,-0.98295,-0.051763,0.072704,-0.060674,0.018523,0.01676,-0.032906,0.051248,-0.029223,0.10946,0.28138
0.027297,0.020462,0.030742,0.027224,0.030568,0.014702,0.010074,0.026773,0.1172,0.083667,0.035371,0.033005,0.39593,-1.1359,-0.079043,0.066891,-0.056425,0.020139,0.014623,-0.032396,0.06436,0.0070838,0.090932,0.41708
0.030462,0.023255,0.027784,0.024428,0.037233,0.013991,0.015206,0.021066,0.10804,0.084976,0.03778,0.032972,0.36916,-1.2651,-0.10056,0.071927,-0.052024,0.0214,0.010235,-0.035667,0.07526,-0.0063361,0.077227,0.51491
0.040839,0.0253,0.024248,0.02304,0.042369,0.011613,0.016824,0.016573,0.097235,0.088064,0.035966,0.031632,0.35982,-1.3336,-0.11339,0.083452,-0.047418,0.021525,0.0041914,-0.043286,0.078748,-0.085434,0.072197,0.54965
0.057379,0.026051,0.021962,0.025331,0.047905,0.0091801,0.016054,0.015726,0.085678,0.093123,0.029205,0.029274,0.36319,-1.3165,-0.11423,0.092933,-0.044046,0.020382,-0.003129,-0.052915,0.074338,-0.20672,0.076831,0.54194
0.076501,0.025017,0.022156,0.030748,0.055931,0.0085638,0.014527,0.017881,0.075436,0.098091,0.020367,0.027198,0.37458,-1.2129,-0.10072,0.093397,-0.043806,0.018509,-0.010887,-0.060882,0.066792,-0.32772,0.089844,0.54278
0.092881,0.02228,0.024844,0.036174,0.066878,0.010462,0.013254,0.020113,0.069182,0.10009,0.013457,0.026478,0.39476,-1.0484,-0.074004,0.083655,-0.047227,0.016537,-0.017501,-0.064761,0.062356,-0.41856,0.10877,0.59303
0.10172,0.018897,0.029204,0.038467,0.0787,0.014094,0.012696,0.019768,0.068755,0.097721,0.010681,0.026721,0.42816,-0.86222,-0.040184,0.068318,-0.052456,0.01477,-0.021309,-0.064845,0.063864,-0.48015,0.13037,0.6884
0.10186,0.016474,0.034164,0.036876,0.087971,0.018075,0.013329,0.01652,0.073828,0.092312,0.011286,0.02598,0.47606,-0.68852,-0.0086363,0.054211,-0.056083,0.013321,-0.021737,-0.063556,0.068882,-0.53675,0.15012,0.77834
0.097459,0.015992,0.03846,0.03319,0.092247,0.02141,0.015552,0.012287,0.081762,0.087125,0.012633,0.02222,0.53178,-0.5428,0.012611,0.046221,-0.055361,0.012508,-0.019975,-0.063719,0.072358,-0.61094,0.16197,0.80189
0.0963,0.016958,0.040438,0.029823,0.091925,0.023615,0.018907,0.0092482,0.088966,0.085019,0.012257,0.015344,0.58249,-0.4238,0.021437,0.045371,-0.050202,0.012776,-0.018513,-0.067477,0.071164,-0.70231,0.15982,0.73366
0.10487,0.01787,0.038513,0.027959,0.090106,0.024133,0.021759,0.0078532,0.092906,0.086328,0.0093899,0.008007,0.61597,-0.32665,0.022507,0.049556,-0.043418,0.014056,-0.019816,-0.076597,0.066405,-0.78642,0.1406,0.6043
0.1236,0.017684,0.032422,0.027498,0.090469,0.022075,0.022327,0.0065467,0.093281,0.088509,0.0052677,0.0042127,0.62639,-0.25379,0.02337,0.055417,-0.039028,0.015259,-0.025009,-0.093238,0.061659,-0.83391,0.1072,0.47937
0.1461,0.016751,0.024133,0.02834,0.094711,0.016909,0.020387,0.0033242,0.091469,0.087869,0.0023957,0.0064806,0.61434,-0.21208,0.028568,0.059728,-0.039816,0.014661,-0.033374,-0.11961,0.059212,-0.83399,0.068512,0.41297
0.16331,0.016122,0.017083,0.031016,0.10144,0.0094814,0.017869,-0.0024022,0.088741,0.082176,0.0032387,0.013764,0.58243,-0.19816,0.036555,0.060031,-0.045735,0.011119,-0.042811,-0.15595,0.057943,-0.80492,0.035437,0.41171
0.16972,0.015829,0.013885,0.035589,0.10734,0.0021137,0.017396,-0.0092686,0.084832,0.072311,0.0088105,0.021824,0.5319,-0.18722,0.042079,0.055163,-0.053988,0.005096,-0.050934,-0.19817,0.0546,-0.78467,0.014928,0.43506
0.16684,0.01414,0.014333,0.040043,0.10966,-0.0026292,0.019832,-0.015028,0.078157,0.061741,0.017764,0.02583,0.46404,-0.14056,0.041951,0.0459,-0.060471,-0.001463,-0.056157,-0.23734,0.046707,-0.80969,0.0061406,0.42914
0.16136,0.009039,0.015563,0.040438,0.10815,-0.0034966,0.023129,-0.018043,0.06747,0.054196,0.026641,0.023254,0.38501,-0.031573,0.038924,0.035056,-0.061736,-0.0063558,-0.058244,-0.26223,0.034011,-0.89666,0.0016858,0.36569
0.15959,0.00079895,0.014372,0.033459,0.10505,-0.0010246,0.023775,-0.017882,0.053456,0.051208,0.031476,0.015068,0.30803,0.12803,0.039831,0.02635,-0.056589,-0.0084156,-0.05801,-0.2641,0.017219,-1.0383,-0.0068206,0.25712
0.16275,-0.0070225,0.0096841,0.01926,0.10317,0.0033934,0.019806,-0.014835,0.038725,0.05136,0.02998,0.0047564,0.24906,0.28535,0.049321,0.022472,-0.046746,-0.0078578,-0.056322,-0.24091,-0.0041778,-1.2129,-0.023225,0.1397
0.1666,-0.0097784,0.003051,0.001745,0.1037,0.0087373,0.012784,-0.0092581,0.026121,0.05169,0.022894,-0.003773,0.21787,0.37508,0.064765,0.023756,-0.036094,-0.0056271,-0.053071,-0.19823,-0.032203,-1.397,-0.045561,0.04301
0.16531,-0.0056617,-0.0030348,-0.014226,0.10552,0.014608,0.0069335,-0.0015719,0.016702,0.050035,0.013513,-0.0079279,0.21157,0.36329,0.077265,0.028532,-0.028652,-0.0025864,-0.04697,-0.14604,-0.067836,-1.5703,-0.069515,-0.028378
0.15621,0.0021407,-0.0072024,-0.02606,0.10648,0.020428,0.0059963,0.0072954,0.0091098,0.046363,0.0057441,-0.0071051,0.21634,0.27444,0.078343,0.034791,-0.026161,0.00067982,-0.036568,-0.093308,-0.10753,-1.7093,-0.092873,-0.087801
0.14159,0.0074087,-0.0097067,-0.03392,0.10545,0.024758,0.010334,0.01589,0.00087945,0.042128,0.0021251,-0.0024221,0.21666,0.17927,0.066781,0.041711,-0.026923,0.0035324,-0.021876,-0.04382,-0.14192,-1.7776,-0.11656,-0.14374
0.12672,0.0057121,-0.011219,-0.038225,0.10322,0.02577,0.016575,0.02299,-0.009363,0.038482,0.0031045,0.0041262,0.20533,0.14938,0.049708,0.049863,-0.026944,0.005173,-0.0052981,0.0038506,-0.15851,-1.728,-0.14153,-0.18309
0.11595,-0.0018914,-0.01154,-0.037209,0.10153,0.022601,0.020092,0.028426,-0.020609,0.035093,0.0076571,0.010801,0.18681,0.21037,0.036989,0.060179,-0.022756,0.0052275,0.0091505,0.052276,-0.14738,-1.5212,-0.16523,-0.17526
0.11019,-0.0095165,-0.0098115,-0.027778,0.10115,0.016282,0.018383,0.032931,-0.030168,0.030674,0.014245,0.017132,0.17182,0.32746,0.033721,0.072739,-0.01377,0.004523,0.018046,0.10013,-0.10706,-1.1531,-0.18251,-0.093519
0.10744,-0.011027,-0.005973,-0.0093526,0.101,0.0092849,0.012828,0.03699,-0.035821,0.024571,0.021197,0.024108,0.1678,0.43337,0.037127,0.086369,-0.0022663,0.0050197,0.020682,0.14038,-0.047244,-0.6684,-0.1913,0.064289
0.1052,-0.0047683,-0.001701,0.013172,0.099248,0.0040305,0.0075653,0.039824,-0.037677,0.017751,0.026574,0.033089,0.17264,0.47639,0.040133,0.09917,0.0088022,0.0084841,0.019511,0.16363,0.013643,-0.14854,-0.19829,0.27129
0.10245,0.005366,0.00056406,0.031009,0.095304,0.0016094,0.0063689,0.039735,-0.038136,0.012156,0.028366,0.043992,0.17594,0.45285,0.038133,0.10947,0.018077,0.014794,0.018526,0.16468,0.055587,0.32226,-0.21821,0.48537
0.099586,0.013199,-0.00016606,0.037125,0.090687,0.0015937,0.0098722,0.035665,-0.039906,0.00901,0.025512,0.054318,0.16648,0.40251,0.032951,0.11652,0.026058,0.021456,0.020766,0.14715,0.06568,0.68945,-0.26491,0.66922
0.096817,0.015019,-0.0021448,0.031328,0.087774,0.0027675,0.015169,0.028502,-0.043738,0.0077269,0.019108,0.06026,0.13984,0.37523,0.030789,0.12065,0.033414,0.025101,0.026712,0.12238,0.043702,0.93875,-0.34,0.80294
0.092909,0.012016,-0.0020404,0.020289,0.087558,0.0039627,0.018093,0.020764,-0.047872,0.0065003,0.012504,0.059443,0.10089,0.39694,0.036333,0.12281,0.039359,0.023987,0.034556,0.10281,0.00091258,1.0828,-0.42802,0.88444
0.08555,0.008768,0.0023087,0.012353,0.08867,0.0044558,0.016446,0.014849,-0.04978,0.0040062,0.0096105,0.053105,0.059522,0.45865,0.048356,0.12369,0.041983,0.019478,0.041878,0.094553,-0.047601,1.1403,-0.50311,0.9234
0.07294,0.0094042,0.010023,0.011576,0.088677,0.0040091,0.011673,0.011481,-0.048684,0.00059656,0.012274,0.045646,0.023309,0.53046,0.060529,0.12309,0.040233,0.015157,0.04736,0.094879,-0.092161,1.1254,-0.54344,0.93662
0.055068,0.014607,0.017953,0.015928,0.086393,0.0028707,0.0076201,0.0097946,-0.046517,-0.0021184,0.018667,0.04157,-0.0072733,0.58367,0.066475,0.12004,0.03541,0.014224,0.051364,0.096185,-0.13291,1.052,-0.54323,0.94569
0.033498,0.021584,0.023375,0.020658,0.082869,0.0017626,0.0073238,0.008825,-0.046315,-0.0028209,0.02418,0.042257,-0.037641,0.60365,0.064518,0.11377,0.030477,0.017291,0.055206,0.093068,-0.17635,0.94024,-0.51382,0.97125
0.0099868,0.02656,0.026101,0.023225,0.080133,0.0016289,0.010466,0.0087137,-0.049429,-0.0016314,0.024503,0.045274,-0.073453,0.5893,0.058175,0.10498,0.027755,0.022266,0.059862,0.086614,-0.22726,0.81507,-0.47364,1.02
-0.01474,0.027527,0.028114,0.025186,0.079034,0.0031026,0.013701,0.01024,-0.054181,0.0002016,0.018783,0.046829,-0.11566,0.54748,0.05243,0.09605,0.027323,0.026186,0.065063,0.082594,-0.28295,0.69654,-0.4353,1.0711
-0.040959,0.025173,0.031288,0.029655,0.078472,0.0060522,0.013676,0.013126,-0.057321,0.0016206,0.010436,0.045201,-0.16046,0.49082,0.04947,0.089832,0.027678,0.027269,0.069333,0.085531,-0.33516,0.59351,-0.3998,1.0746
-0.068798,0.021641,0.03552,0.037176,0.076753,0.0096313,0.010197,0.015058,-0.057031,0.0026646,0.004887,0.0422,-0.20345,0.43792,0.047657,0.087421,0.027837,0.025611,0.070819,0.093999,-0.37775,0.5078,-0.36124,0.97163
-0.097084,0.018488,0.039038,0.044149,0.073543,0.012842,0.0067027,0.012914,-0.054702,0.0040422,0.0058333,0.041484,-0.24339,0.40925,0.044247,0.086877,0.028494,0.022389,0.06839,0.10124,-0.41327,0.44409,-0.31668,0.72812
-0.12322,0.015526,0.040401,0.045396,0.070287,0.015155,0.0074353,0.0054989,-0.053753,0.0058928,0.012822,0.045301,-0.28107,0.41611,0.038793,0.08417,0.030931,0.018765,0.062366,0.10044,-0.45197,0.4132,-0.27193,0.35983
-0.14421,0.011305,0.040065,0.038531,0.068658,0.016731,0.013637,-0.0046893,-0.05652,0.0071448,0.021874,0.05248,-0.31459,0.45009,0.033787,0.076036,0.034914,0.015508,0.054523,0.090144,-0.50323,0.42309,-0.23829,-0.070479
-0.15796,0.0045981,0.039991,0.026179,0.068711,0.018195,0.02209,-0.012638,-0.0621,0.0062975,0.028426,0.059218,-0.33641,0.48382,0.031945,0.06275,0.03809,0.013257,0.047319,0.075246,-0.56621,0.46548,-0.2234,-0.48525
-0.16413,-0.004354,0.041794,0.014046,0.06875,0.020248,0.027443,-0.014352,-0.067103,0.0029779,0.030121,0.061859,-0.33681,0.48585,0.032983,0.048583,0.037959,0.012608,0.042669,0.06309,-0.62761,0.5123,-0.22445,-0.83241
-0.16407,-0.013707,0.045348,0.0064978,0.067068,0.023347,0.026489,-0.0098474,-0.068581,-0.001274,0.027445,0.059343,-0.31223,0.43993,0.03325,0.039371,0.034659,0.013612,0.040843,0.058049,-0.66865,0.528,-0.22927,-1.1065
-0.16034,-0.020966,0.049098,0.003359,0.063746,0.027469,0.020779,-0.0029854,-0.066379,-0.0039268,0.022316,0.053535,-0.27112,0.35423,0.028798,0.038785,0.031625,0.015311,0.040165,0.058958,-0.67618,0.48902,-0.22389,-1.3376
-0.15608,-0.024294,0.051563,0.0005131,0.060589,0.031946,0.015305,0.0017514,-0.062825,-0.0034337,0.016395,0.047491,-0.23096,0.25373,0.018991,0.045932,0.033018,0.016168,0.037894,0.061004,-0.65013,0.39542,-0.2002,-1.5597
-0.15407,-0.023345,0.052422,-0.0064028,0.059221,0.035613,0.014331,0.0026993,-0.060336,-0.00054357,0.010645,0.043209,-0.2077,0.16278,0.007119,0.055943,0.040001,0.015315,0.031994,0.059923,-0.60225,0.2686,-0.15825,-1.7835
-0.15555,-0.019218,0.052277,-0.018378,0.059229,0.037493,0.017945,0.0017154,-0.059497,0.002292,0.0059086,0.040525,-0.20542,0.091984,-0.0026765,0.063009,0.049336,0.013473,0.022755,0.054889,-0.5478,0.14274,-0.10316,-1.9925
-0.15905,-0.013684,0.051655,-0.032392,0.058203,0.037724,0.022267,0.0018053,-0.059451,0.0030027,0.003179,0.037735,-0.21492,0.038461,-0.0092789,0.063733,0.05585,0.012433,0.013062,0.048107,-0.49578,0.061638,-0.040941,-2.1613
-0.16044,-0.008225,0.050421,-0.044056,0.053689,0.037914,0.023041,0.0041699,-0.059867,0.0016989,0.0028712,0.033232,-0.22187,-0.0038414,-0.015571,0.058686,0.05677,0.013352,0.0068505,0.042207,-0.4435,0.080402,0.022589,-2.2762
-0.15461,-0.0034124,0.048097,-0.051179,0.045279,0.040244,0.019372,0.0074864,-0.061951,0.00057475,0.0039317,0.026885,-0.21762,-0.034743,-0.02556,0.051602,0.054166,0.01546,0.006631,0.038159,-0.37804,0.25737,0.080397,-2.3401
-0.13825,0.0010827,0.044433,-0.055288,0.034999,0.045704,0.01435,0.0098354,-0.067023,0.0019084,0.0041812,0.020256,-0.20385,-0.047957,-0.040393,0.047153,0.053351,0.016552,0.011829,0.0354,-0.28344,0.6244,0.12354,-2.3607
-0.11192,0.0059357,0.03951,-0.059975,0.025752,0.052829,0.012201,0.011042,-0.074013,0.0058686,0.0020433,0.015579,-0.18851,-0.039322,-0.057004,0.048774,0.058647,0.015036,0.019228,0.033507,-0.15039,1.1475,0.14392,-2.3344
-0.080343,0.011424,0.033414,-0.067519,0.019223,0.058232,0.014708,0.012943,-0.078832,0.010137,-0.0018656,0.014253,-0.17808,-0.014186,-0.070631,0.05745,0.070083,0.011671,0.025224,0.033275,0.016382,1.7124,0.13903,-2.2439
-0.050653,0.016961,0.026259,-0.07655,0.014934,0.058828,0.02011,0.017369,-0.077009,0.011866,-0.0049934,0.015912,-0.17333,0.013657,-0.078774,0.071593,0.083583,0.0092685,0.028148,0.03597,0.19715,2.1645,0.11478,-2.0753
-0.030004,0.021268,0.018835,-0.08265,0.011055,0.054102,0.025129,0.024005,-0.067627,0.010367,-0.0049667,0.01876,-0.17126,0.03061,-0.082966,0.08784,0.094091,0.010451,0.028842,0.041604,0.36472,2.3905,0.083329,-1.8382
-0.023459,0.023163,0.01313,-0.08144,0.006104,0.046587,0.027833,0.030364,-0.054827,0.0080669,-0.0016815,0.021006,-0.16969,0.031356,-0.086836,0.10254,0.098838,0.015395,0.029211,0.048266,0.49751,2.3878,0.057222,-1.5718
-0.032559,0.022446,0.011655,-0.071838,0.00011735,0.040106,0.028572,0.033884,-0.045106,0.0085798,0.0026244,0.022326,-0.16945,0.018859,-0.092394,0.11351,0.098341,0.02157,0.030163,0.053508,0.59081,2.2634,0.043967,-1.3268
-0.054538,0.02015,0.015582,-0.057053,-0.0056215,0.037144,0.028489,0.034026,-0.042446,0.013355,0.0054338,0.024155,-0.17245,-0.0032444,-0.097932,0.12118,0.095048,0.025706,0.030832,0.056586,0.65815,2.1521,0.044642,-1.1348
-0.082583,0.017785,0.023169,-0.042576,-0.0099657,0.037349,0.027669,0.032329,-0.045435,0.01991,0.0062347,0.028369,-0.1779,-0.037711,-0.099366,0.1282,0.091329,0.026233,0.029677,0.059257,0.72058,2.1149,0.056367,-0.98978
-0.10786,0.016129,0.0302,-0.032643,-0.013191,0.038142,0.025092,0.030544,-0.048826,0.02353,0.0068933,0.035311,-0.18034,-0.092001,-0.093739,0.13755,0.088433,0.024142,0.026358,0.064088,0.79029,2.097,0.075606,-0.85643
-0.1231,0.01465,0.032537,-0.027718,-0.017025,0.036736,0.020353,0.028879,-0.04806,0.02126,0.009771,0.042808,-0.17037,-0.16782,-0.081802,0.15022,0.08661,0.021744,0.022569,0.071736,0.86038,1.9816,0.099508,-0.69943
-0.12598,0.01227,0.028923,-0.024769,-0.023296,0.032023,0.014949,0.026169,-0.042859,0.014693,0.015316,0.047281,-0.13724,-0.25105,-0.067528,0.16427,0.085577,0.020661,0.021056,0.079885,0.90876,1.6949,0.12529,-0.51017
-0.12,0.0088606,0.02166,-0.020055,-0.032279,0.025116,0.011389,0.021731,-0.037158,0.0088903,0.021322,0.046335,-0.072376,-0.31268,-0.055116,0.17603,0.084748,0.020841,0.023638,0.085071,0.91369,1.2741,0.14974,-0.30892
-0.11181,0.0059909,0.014556,-0.012304,-0.042196,0.018435,0.010839,0.016882,-0.035935,0.0081547,0.024544,0.040871,0.02602,-0.32312,-0.046076,0.18261,0.083408,0.021164,0.029866,0.085805,0.86925,0.83878,0.17024,-0.12193
-0.10681,0.0059136,0.0098691,-0.0039329,-0.050456,0.014064,0.011832,0.014405,-0.041812,0.01241,0.023332,0.034857,0.14855,-0.27077,-0.038826,0.1837,0.08122,0.020693,0.037339,0.083937,0.78901,0.49497,0.1862,0.04475
-0.10605,0.00949,0.0068696,0.00056088,-0.055718,0.012351,0.011649,0.016235,-0.053816,0.017492,0.019096,0.032698,0.27384,-0.17101,-0.030941,0.18141,0.078786,0.019311,0.043306,0.082823,0.69593,0.25322,0.19886,0.21015
-0.10662,0.014997,0.0030901,-0.002222,-0.059047,0.011547,0.0091352,0.021434,-0.068392,0.01913,0.015401,0.036111,0.37488,-0.058378,-0.021898,0.17853,0.07754,0.017409,0.04628,0.083925,0.60701,0.031731,0.20889,0.39671
-0.10461,0.019193,-0.0030375,-0.01218,-0.063125,0.0087756,0.0060322,0.026349,-0.081208,0.016942,0.015393,0.042969,0.4313,0.032887,-0.013753,0.17673,0.078738,0.015324,0.046549,0.085174,0.52514,-0.26349,0.21416,0.60226
-0.098215,0.019922,-0.010583,-0.025738,-0.070063,0.0019116,0.0052365,0.027018,-0.088534,0.014707,0.019513,0.04908,0.44007,0.086396,-0.0090466,0.1763,0.08237,0.013288,0.045447,0.082805,0.44339,-0.65455,0.21046,0.79309
-0.088443,0.017911,-0.016861,-0.038074,-0.079595,-0.0087017,0.007564,0.02197,-0.088166,0.016672,0.025196,0.051459,0.41584,0.10837,-0.0078555,0.17716,0.087139,0.011751,0.044139,0.075097,0.35688,-1.0752,0.19542,0.92745
-0.077606,0.015957,-0.019658,-0.045773,-0.089074,-0.019965,0.010333,0.013277,-0.080297,0.023362,0.0287,0.050447,0.37916,0.11881,-0.0068771,0.17975,0.091697,0.011381,0.042942,0.064535,0.27171,-1.4297,0.17225,0.99064
-0.067539,0.016133,-0.018926,-0.048108,-0.095252,-0.027624,0.0094854,0.0051065,-0.068013,0.030819,0.027687,0.049024,0.34084,0.13743,-0.0017928,0.18464,0.09594,0.012426,0.041618,0.056381,0.204,-1.6684,0.1495,1.0104
-0.059204,0.01761,-0.016617,-0.046464,-0.0964,-0.028888,0.0034736,0.00091997,-0.056405,0.033985,0.022675,0.050059,0.29507,0.17357,0.008861,0.19105,0.10093,0.014053,0.040238,0.054951,0.17048,-1.8126,0.13599,1.0376
-0.05351,0.01729,-0.015064,-0.042804,-0.093255,-0.024289,-0.0047643,0.0013358,-0.049994,0.031102,0.016434,0.053937,0.2271,0.22398,0.021767,0.19606,0.1074,0.014686,0.039673,0.060969,0.1786,-1.9126,0.13494,1.1068
-0.051763,0.012831,-0.015373,-0.038489,-0.088325,-0.017424,-0.0098181,0.004075,-0.049858,0.025169,0.011933,0.058525,0.12903,0.27636,0.030907,0.19588,0.11429,0.013486,0.041136,0.07223,0.22304,-1.9845,0.14208,1.2105
-0.054729,0.0053134,-0.016962,-0.034015,-0.08426,-0.012693,-0.0081875,0.0058365,-0.052818,0.021277,0.010457,0.061259,0.010098,0.31542,0.03221,0.18845,0.11904,0.011851,0.045074,0.086638,0.28985,-1.9885,0.14947,1.3063
-0.061171,-0.0010327,-0.018239,-0.029311,-0.082386,-0.012589,-0.0012053,0.0046293,-0.053797,0.022395,0.011216,0.061295,-0.10751,0.3298,0.026848,0.17549,0.1195,0.013296,0.050476,0.10453,0.3638,-1.8691,0.15175,1.3515
-0.067793,-0.0020047,-0.017653,-0.024014,-0.082108,-0.016349,0.0059963,0.00087293,-0.049791,0.027327,0.012513,0.059798,-0.20331,0.31886,0.020188,0.16172,0.11578,0.021203,0.055401,0.12798,0.43331,-1.6204,0.14968,1.3319
-0.071391,0.0031929,-0.014447,-0.017598,-0.08133,-0.020753,0.0084227,-0.0034209,-0.042173,0.03233,0.013348,0.058346,-0.27091,0.29613,0.017196,0.1517,0.11019,0.035792,0.058427,0.15782,0.49103,-1.3156,0.14818,1.2646
-0.071655,0.011283,-0.0089467,-0.0096632,-0.077726,-0.022407,0.0046171,-0.0065976,-0.035236,0.034483,0.014096,0.057177,-0.31792,0.28476,0.018316,0.14668,0.10523,0.052763,0.0597,0.19112,0.5318,-1.0721,0.15085,1.1743
-0.071915,0.017476,-0.0025311,-0.0004906,-0.070378,-0.019943,-0.0030617,-0.0088093,-0.032136,0.033654,0.015843,0.055034,-0.35525,0.30459,0.019503,0.14413,0.10164,0.065148,0.060491,0.22176,0.55111,-0.97819,0.15582,1.0718
-0.076633,0.01899,0.002743,0.0085743,-0.060883,-0.014782,-0.010876,-0.011792,-0.031874,0.031663,0.019073,0.050663,-0.38662,0.35777,0.016311,0.14025,0.098186,0.067493,0.061568,0.24382,0.54554,-1.0427,0.15607,0.95337
-0.087399,0.016593,0.004942,0.015534,-0.052878,-0.01008,-0.016299,-0.017226,-0.030142,0.03002,0.022962,0.04435,-0.40816,0.4241,0.0082829,0.13335,0.093332,0.05948,0.061941,0.25522,0.51376,-1.2057,0.14387,0.82095
-0.10089,0.01321,0.0033119,0.018955,-0.049789,-0.008626,-0.018722,-0.025128,-0.023336,0.028715,0.025869,0.037912,-0.41673,0.47173,-0.00042317,0.12498,0.0871,0.046187,0.059421,0.2587,0.45621,-1.397,0.11567,0.69897
-0.11086,0.011185,-0.0010414,0.019123,-0.052118,-0.011099,-0.018511,-0.033696,-0.01209,0.027053,0.026619,0.033138,-0.41672,0.47701,-0.0047382,0.11774,0.081201,0.034596,0.052736,0.25975,0.37333,-1.5868,0.074382,0.6252
-0.11284,0.010715,-0.0055233,0.018069,-0.056533,-0.015785,-0.016115,-0.040693,-0.0010605,0.025229,0.025471,0.030252,-0.41635,0.43894,-0.0033942,0.11191,0.077438,0.028901,0.043337,0.26298,0.26437,-1.7815,0.02825,0.61922
-0.1078,0.010533,-0.0075114,0.018243,-0.057979,-0.019865,-0.012306,-0.045157,0.0048852,0.024652,0.023968,0.027953,-0.41559,0.3771,-0.00044654,0.10396,0.075953,0.028157,0.035047,0.26987,0.12899,-1.9714,-0.012039,0.65515
-0.1017,0.0097798,-0.006039,0.020777,-0.053579,-0.021302,-0.0088244,-0.047958,0.0045951,0.026486,0.023754,0.024941,-0.39826,0.31534,-0.0022927,0.088589,0.075072,0.027917,0.031539,0.27883,-0.028312,-2.0861,-0.036208,0.66674
-0.10121,0.0091001,-0.0024727,0.02469,-0.045183,-0.020007,-0.0079864,-0.050831,0.0012102,0.029915,0.025238,0.021344,-0.33923,0.26485,-0.012758,0.062682,0.072908,0.024281,0.033618,0.287,-0.19436,-2.0139,-0.037154,0.58725
-0.10883,0.0099776,0.00042772,0.02762,-0.038178,-0.017599,-0.011002,-0.054879,-0.00088484,0.032169,0.02709,0.018494,-0.22542,0.21996,-0.030292,0.027721,0.069148,0.016877,0.038567,0.29179,-0.34803,-1.6885,-0.014384,0.39632
-0.12116,0.013082,0.0004517,0.027371,-0.037237,-0.016165,-0.016537,-0.059886,0.0003043,0.030651,0.026977,0.017266,-0.074746,0.16839,-0.049296,-0.011303,0.065308,0.0084607,0.042144,0.29132,-0.46716,-1.1768,0.02254,0.13755
-0.13134,0.017226,-0.0025481,0.023103,-0.04242,-0.017054,-0.021332,-0.064958,0.0034932,0.025421,0.023166,0.016729,0.064754,0.10516,-0.064147,-0.0494,0.063109,0.0018835,0.041574,0.28429,-0.53826,-0.68365,0.053889,-0.1082
-0.13362,0.019922,-0.0067077,0.015453,-0.048956,-0.020458,-0.022813,-0.069737,0.0064399,0.019646,0.015994,0.014663,0.14011,0.037905,-0.072569,-0.084358,0.062429,-0.0025319,0.037164,0.27033,-0.56283,-0.44537,0.056653,-0.27461
-0.1265,0.019126,-0.0096792,0.0058937,-0.051019,-0.025704,-0.02144,-0.075003,0.008822,0.017349,0.0081338,0.0095958,0.12716,-0.019702,-0.076053,-0.11659,0.060668,-0.0068413,0.031449,0.25108,-0.55548,-0.57135,0.01767,-0.34855
-0.11248,0.014854,-0.010404,-0.0039676,-0.046413,-0.031711,-0.020383,-0.082143,0.012706,0.020167,0.0032344,0.0023412,0.04742,-0.058555,-0.077651,-0.14677,0.054208,-0.012967,0.026834,0.23081,-0.53455,-0.95058,-0.054415,-0.36877
-0.095194,0.0094477,-0.0097787,-0.012743,-0.038326,-0.037217,-0.022489,-0.092019,0.02031,0.025881,0.0036061,-0.0046583,-0.047121,-0.078874,-0.079406,-0.17391,0.040917,-0.020511,0.023785,0.21506,-0.51138,-1.3026,-0.12854,-0.38968
-0.076511,0.0062327,-0.0097926,-0.01936,-0.03273,-0.040987,-0.027268,-0.10425,0.031575,0.03006,0.0085011,-0.0097091,-0.11163,-0.086685,-0.08141,-0.19568,0.021838,-0.027127,0.020937,0.20758,-0.48561,-1.3491,-0.16619,-0.44141
-0.056029,0.0073198,-0.011904,-0.023087,-0.033594,-0.042295,-0.030889,-0.1174,0.044198,0.029547,0.014394,-0.013645,-0.13991,-0.088104,-0.082729,-0.21058,0.00088891,-0.031024,0.016751,0.20751,-0.44929,-0.98893,-0.14445,-0.51664
-0.033041,0.011947,-0.01587,-0.023497,-0.039797,-0.041584,-0.029484,-0.12978,0.056058,0.024915,0.017291,-0.019091,-0.16433,-0.088066,-0.082865,-0.21954,-0.017142,-0.033004,0.011121,0.20939,-0.39627,-0.35137,-0.071349,-0.58959
-0.009035,0.016564,-0.019794,-0.02036,-0.046138,-0.040615,-0.022797,-0.14006,0.067448,0.019851,0.015456,-0.027719,-0.22449,-0.093048,-0.082332,-0.22569,-0.028926,-0.035878,0.0055575,0.20644,-0.32934,0.30523,0.018687,-0.64471
0.011703,0.016903,-0.021249,-0.013598,-0.047475,-0.041638,-0.014705,-0.14735,0.080619,0.018018,0.010434,-0.038106,-0.33099,-0.11115,-0.082035,-0.23257,-0.033848,-0.04179,0.0018703,0.19493,-0.25996,0.7685,0.086979,-0.68596
0.024262,0.010884,-0.018704,-0.0035279,-0.042598,-0.045905,-0.0099914,-0.15117,0.096953,0.020037,0.0055943,-0.046398,-0.45525,-0.14529,-0.082252,-0.24238,-0.033604,-0.050147,0.0005645,0.17633,-0.20108,0.98983,0.11446,-0.71857
0.026645,0.00034772,-0.012423,0.0087287,-0.034768,-0.052653,-0.010349,-0.15136,0.11455,0.023099,0.003449,-0.049354,-0.55357,-0.18424,-0.082267,-0.25505,-0.030611,-0.058316,0.00033861,0.15548,-0.15881,1.0693,0.10976,-0.72396
0.021961,-0.0098763,-0.0044202,0.02119,-0.028699,-0.05943,-0.013347,-0.14831,0.12867,0.02347,0.004044,-0.04702,-0.60363,-0.20198,-0.080906,-0.26799,-0.026351,-0.064512,-0.0009063,0.13654,-0.12917,1.1416,0.096875,-0.65905
0.017406,-0.015133,0.002437,0.031643,-0.026615,-0.063595,-0.015213,-0.14285,0.1348,0.019705,0.0056391,-0.042538,-0.62131,-0.17051,-0.077357,-0.27623,-0.020696,-0.069964,-0.0044527,0.11994,-0.10175,1.2668,0.09398,-0.49051
0.020417,-0.01406,0.0056271,0.038658,-0.026671,-0.063786,-0.014563,-0.13579,0.13169,0.013813,0.0067748,-0.039273,-0.64407,-0.079312,-0.071492,-0.27339,-0.012656,-0.078013,-0.0099527,0.10275,-0.067259,1.4096,0.10128,-0.23884
0.034448,-0.0092005,0.0039158,0.042193,-0.024919,-0.060228,-0.013345,-0.12728,0.12189,0.009417,0.0076306,-0.037993,-0.69715,0.054029,-0.063505,-0.25424,-0.0019759,-0.090729,-0.016083,0.081713,-0.023348,1.5036,0.10657,0.010378
0.057107,-0.0046569,-0.0022779,0.043303,-0.018976,-0.053895,-0.014134,-0.11679,0.10973,0.0085241,0.0094371,-0.036739,-0.77319,0.19179,-0.053397,-0.21778,0.0096914,-0.1062,-0.021998,0.056096,0.024838,1.525,0.10152,0.14963
0.081791,-0.0028161,-0.011042,0.043333,-0.010196,-0.045575,-0.01672,-0.10376,0.098625,0.009709,0.012719,-0.033389,-0.84188,0.29825,-0.040973,-0.16899,0.019138,-0.11933,-0.028175,0.028118,0.068624,1.506,0.09274,0.12206
0.10161,-0.0029746,-0.019503,0.043369,-0.0025504,-0.035853,-0.017691,-0.088442,0.089754,0.0092644,0.016308,-0.028275,-0.8784,0.35939,-0.026465,-0.1172,0.023511,-0.12586,-0.035823,0.00097233,0.10074,1.4855,0.097446,-0.033342
0.11305,-0.0028831,-0.024708,0.044239,0.00069838,-0.025918,-0.013696,-0.072144,0.082457,0.0043312,0.01824,-0.024185,-0.88386,0.38564,-0.011226,-0.071834,0.02244,-0.1263,-0.045424,-0.023498,0.11786,1.4549,0.12793,-0.20576
0.11707,-0.0015039,-0.024834,0.046601,-0.00038633,-0.018069,-0.0052047,-0.056518,0.075549,-0.0046445,0.017738,-0.023685,-0.88081,0.39689,0.0022084,-0.038589,0.018617,-0.12607,-0.055852,-0.045601,0.12015,1.3599,0.17895,-0.29241
0.11742,-0.00017567,-0.020283,0.050578,-0.0026421,-0.014936,0.0031255,-0.04248,0.068404,-0.014121,0.016276,-0.026379,-0.89087,0.40364,0.0109,-0.018598,0.016099,-0.13143,-0.065019,-0.066855,0.1097,1.1577,0.22949,-0.2719
0.1175,-0.0010171,-0.013792,0.055217,-0.002448,-0.017678,0.0061032,-0.029698,0.061424,-0.020032,0.016536,-0.028906,-0.91677,0.39958,0.012737,-0.010615,0.017488,-0.14413,-0.071519,-0.088542,0.08991,0.87588,0.25755,-0.21021
0.11818,-0.0042075,-0.0089678,0.05866,0.0016568,-0.024627,0.0023482,-0.017119,0.055912,-0.020511,0.020049,-0.027847,-0.94395,0.3708,0.007428,-0.013453,0.02223,-0.15908,-0.075686,-0.11093,0.066055,0.61068,0.25574,-0.19412
0.11786,-0.0070251,-0.0078784,0.059435,0.0085424,-0.031768,-0.0047049,-0.004111,0.053388,-0.016701,0.025634,-0.022871,-0.95716,0.3119,-0.0032244,-0.026177,0.027429,-0.167,-0.079015,-0.13339,0.045149,0.46325,0.23519,-0.24915
0.11442,-0.0059177,-0.0094792,0.057923,0.01627,-0.035005,-0.0099057,0.0087104,0.054454,-0.01136,0.030152,-0.017159,-0.95444,0.23447,-0.01582,-0.046302,0.030471,-0.16009,-0.082459,-0.15486,0.033794,0.46424,0.2158,-0.31366
0.10733,0.00010561,-0.010425,0.056442,0.024151,-0.032627,-0.010483,0.019683,0.057866,-0.0067946,0.03104,-0.014616,-0.94625,0.16086,-0.02646,-0.068643,0.031156,-0.13676,-0.085302,-0.17442,0.034605,0.55146,0.21155,-0.29163
0.098233,0.0079641,-0.0079298,0.057463,0.033073,-0.02603,-0.0074018,0.027261,0.060795,-0.0037805,0.028464,-0.016412,-0.9431,0.10923,-0.032101,-0.08689,0.031514,-0.10214,-0.085845,-0.19192,0.043991,0.61802,0.22264,-0.13781
0.089651,0.012555,-0.0023894,0.061329,0.043879,-0.018124,-0.0032651,0.031325,0.060617,-0.0019229,0.025188,-0.019977,-0.94485,0.082932,-0.031691,-0.097079,0.033669,-0.064426,-0.083416,-0.2085,0.053717,0.58994,0.2388,0.099234
0.083031,0.010804,0.0026037,0.065624,0.05546,-0.010767,0.00055814,0.033614,0.057109,-0.0005894,0.02426,-0.021324,-0.94006,0.072583,-0.026511,-0.099856,0.037811,-0.030073,-0.07974,-0.22632,0.055808,0.47076,0.24899,0.31208
0.077744,0.0042257,0.0030568,0.066923,0.064541,-0.0034952,0.0045892,0.036779,0.053025,0.00058523,0.026568,-0.01851,-0.91257,0.067452,-0.019349,-0.099243,0.042149,-0.0010095,-0.078104,-0.24705,0.047449,0.32304,0.24873,0.41523
0.07174,-0.0023137,-0.0021351,0.063434,0.067615,0.0053003,0.0094203,0.042506,0.052031,0.0017826,0.030403,-0.013136,-0.84682,0.06451,-0.012764,-0.098892,0.04472,0.024523,-0.080686,-0.26972,0.032232,0.20989,0.24047,0.40209
0.063172,-0.004565,-0.010242,0.056147,0.063534,0.015751,0.013841,0.050024,0.055315,0.0031312,0.033349,-0.0086771,-0.72972,0.066481,-0.0074803,-0.099249,0.045233,0.048918,-0.086255,-0.28981,0.016929,0.14834,0.22912,0.33464
0.051521,-0.002157,-0.016857,0.047577,0.054618,0.024944,0.015178,0.056269,0.059732,0.0045231,0.034629,-0.0073259,-0.55432,0.071416,-0.0021147,-0.098207,0.045251,0.072661,-0.090439,-0.3012,0.0066042,0.10846,0.21828,0.28407
0.037401,0.0016127,-0.019217,0.039496,0.045331,0.02818,0.011566,0.057916,0.059441,0.0054111,0.035598,-0.0082491,-0.32949,0.065415,0.0053359,-0.094483,0.04668,0.094275,-0.088709,-0.30028,0.001968,0.049372,0.20987,0.27914
0.021453,0.0030239,-0.01789,0.031845,0.039535,0.022429,0.0038141,0.053912,0.049989,0.0050688,0.037887,-0.0086973,-0.089075,0.028192,0.015204,-0.090238,0.049997,0.11245,-0.07986,-0.28924,0.00058207,-0.045665,0.20586,0.30267
0.0036105,0.0010976,-0.015686,0.023666,0.038391,0.0092395,-0.0049798,0.04649,0.031581,0.0032374,0.041031,-0.0067857,0.11291,-0.050747,0.024897,-0.090098,0.05372,0.12816,-0.067231,-0.2755,-2.7261e-006,-0.16471,0.20866,0.32558
-0.01648,-0.0021814,-0.015116,0.014751,0.040322,-0.0054761,-0.011616,0.039609,0.0088422,0.00048266,0.042113,-0.0033667,0.2269,-0.15873,0.030023,-0.097185,0.055329,0.1446,-0.056679,-0.26687,-0.00051479,-0.29028,0.21927,0.33568
-0.038339,-0.0045375,-0.016665,0.0061778,0.042749,-0.014951,-0.014707,0.035887,-0.012528,-0.0022152,0.038096,-0.0013586,0.23941,-0.26251,0.027476,-0.10969,0.052754,0.16463,-0.052888,-0.26561,-0.0010818,-0.42251,0.23519,0.33268
-0.06019,-0.0061751,-0.018991,-0.00072431,0.044005,-0.015823,-0.014804,0.034523,-0.029178,-0.0042727,0.028821,-0.0031664,0.18664,-0.3277,0.018313,-0.12128,0.045402,0.18771,-0.056822,-0.26604,-0.0034986,-0.57922,0.25092,0.30328
-0.079999,-0.0098553,-0.020319,-0.0056818,0.044035,-0.0099144,-0.013065,0.032117,-0.040774,-0.0058418,0.017739,-0.0084204,0.13462,-0.34161,0.0079679,-0.12524,0.034345,0.20899,-0.065915,-0.25814,-0.011723,-0.77556,0.26115,0.21346
-0.097293,-0.018171,-0.019563,-0.0095745,0.04373,-0.0022668,-0.0099867,0.02587,-0.047915,-0.0072991,0.0093867,-0.013922,0.1363,-0.32273,0.0031273,-0.11916,0.021845,0.2215,-0.076294,-0.23466,-0.029566,-1.0061,0.2639,0.03496
-0.11397,-0.030643,-0.016536,-0.013283,0.043861,0.0028406,-0.0052542,0.016499,-0.049908,-0.0084985,0.0057406,-0.015881,0.19661,-0.3098,0.0072095,-0.1063,0.010476,0.22006,-0.08497,-0.1968,-0.057542,-1.248,0.26062,-0.21752
-0.13285,-0.043446,-0.011687,-0.016674,0.044613,0.0046808,0.0015058,0.0082396,-0.044838,-0.0087247,0.0047997,-0.012742,0.27256,-0.33868,0.017841,-0.092907,0.0020248,0.20416,-0.090563,-0.15393,-0.091933,-1.4817,0.25319,-0.47946
-0.15493,-0.052052,-0.0060127,-0.018912,0.045824,0.0056704,0.010003,0.0057149,-0.031812,-0.0075154,0.0027645,-0.0064896,0.30815,-0.42358,0.028556,-0.083805,-0.0034142,0.17783,-0.092812,-0.11776,-0.12714,-1.707,0.24082,-0.67448
-0.17763,-0.05443,-0.0010852,-0.019697,0.04723,0.0085376,0.019185,0.010122,-0.012867,-0.0054986,-0.0022343,-0.0014357,0.27628,-0.55414,0.033716,-0.079813,-0.0075289,0.14698,-0.092049,-0.095323,-0.15939,-1.9375,0.21985,-0.76701
-0.1961,-0.05204,0.0013954,-0.019899,0.04823,0.013774,0.027614,0.017927,0.0076117,-0.0042831,-0.0084213,-0.0013378,0.19581,-0.70784,0.032893,-0.078437,-0.012727,0.11628,-0.089197,-0.086108,-0.1885,-2.1793,0.18693,-0.7816
-0.20657,-0.048073,0.00061781,-0.020665,0.047499,0.019548,0.033889,0.02324,0.025601,-0.0053891,-0.012304,-0.0068709,0.11329,-0.86648,0.031043,-0.076552,-0.020514,0.087729,-0.085689,-0.084874,-0.21642,-2.4154,0.14237,-0.76984
-0.20912,-0.044828,-0.0025227,-0.02185,0.043244,0.023863,0.036951,0.022088,0.039771,-0.0091649,-0.012321,-0.015226,0.067652,-1.0245,0.034141,-0.072386,-0.03059,0.061289,-0.082592,-0.08749,-0.24399,-2.6146,0.090691,-0.75555
-0.20707,-0.0426,-0.0057527,-0.021591,0.034353,0.026687,0.036354,0.015277,0.051399,-0.014585,-0.010634,-0.022066,0.066534,-1.1842,0.043863,-0.065317,-0.041462,0.036475,-0.079443,-0.094717,-0.2689,-2.7563,0.037553,-0.71104
-0.20387,-0.040631,-0.0068789,-0.017855,0.021606,0.029959,0.032505,0.0076734,0.062288,-0.01992,-0.0113,-0.024378,0.09015,-1.342,0.055967,-0.054335,-0.052018,0.013504,-0.074316,-0.11086,-0.28649,-2.8478,-0.013722,-0.58924
-0.2001,-0.038659,-0.0052268,-0.010724,0.0077958,0.03555,0.026604,0.0045852,0.072957,-0.023561,-0.016634,-0.022161,0.11414,-1.4785,0.063998,-0.03739,-0.062426,-0.006654,-0.065909,-0.13844,-0.29247,-2.9108,-0.062648,-0.38303
-0.19359,-0.037299,-0.0018438,-0.0031685,-0.0036117,0.043358,0.020167,0.0080641,0.082771,-0.02448,-0.025212,-0.017822,0.12975,-1.5607,0.065105,-0.01296,-0.073385,-0.02295,-0.05615,-0.17329,-0.28502,-2.9469,-0.1083,-0.15532
-0.18227,-0.037046,0.0015888,0.00068159,-0.010289,0.051668,0.014426,0.015837,0.091432,-0.022474,-0.033302,-0.013965,0.14588,-1.5586,0.062615,0.017172,-0.084457,-0.034937,-0.050502,-0.20446,-0.26486,-2.9112,-0.1455,-0.0075704
-0.16692,-0.037289,0.0040005,-0.0015583,-0.011889,0.059568,0.010145,0.023395,0.099825,-0.018472,-0.03814,-0.011434,0.17537,-1.4676,0.062699,0.046645,-0.093436,-0.043065,-0.054689,-0.21957,-0.2342,-2.7262,-0.16482,-0.010199
-0.15116,-0.036681,0.0052206,-0.0089624,-0.0093568,0.068921,0.0079763,0.027355,0.10906,-0.014725,-0.039906,-0.0092177,0.22032,-1.3203,0.067962,0.066784,-0.097795,-0.048557,-0.070016,-0.21227,-0.19604,-2.3336,-0.15808,-0.15313
-0.1388,-0.034598,0.0053443,-0.018356,-0.0035703,0.083403,0.008783,0.027474,0.11867,-0.014204,-0.040799,-0.006173,0.26962,-1.1762,0.07403,0.071714,-0.097072,-0.05299,-0.091448,-0.18623,-0.15452,-1.7488,-0.1258,-0.3573
-0.131,-0.032062,0.0041777,-0.02686,0.0052768,0.10484,0.01327,0.026079,0.12601,-0.019005,-0.042547,-0.0029454,0.30893,-1.0908,0.072773,0.062885,-0.093727,-0.057629,-0.11066,-0.15255,-0.11513,-1.0729,-0.080719,-0.53397
-0.1258,-0.030939,0.0014921,-0.033498,0.016985,0.13008,0.020969,0.025843,0.12771,-0.028658,-0.045026,-0.0021941,0.33258,-1.0839,0.059718,0.049292,-0.091223,-0.062705,-0.12176,-0.12238,-0.083091,-0.44648,-0.04347,-0.63892
-0.12,-0.032,-0.0023023,-0.03853,0.03018,0.15166,0.029614,0.027935,0.12216,-0.039829,-0.047148,-0.0066198,0.34622,-1.1295,0.038884,0.042445,-0.090817,-0.067069,-0.12477,-0.10029,-0.060692,0.025584,-0.032079,-0.67857
-0.11154,-0.033825,-0.00605,-0.041503,0.042097,0.16257,0.035948,0.031789,0.1109,-0.04809,-0.048684,-0.016267,0.35809,-1.1786,0.020138,0.049115,-0.09014,-0.068709,-0.1238,-0.083563,-0.045701,0.32794,-0.052248,-0.67228
-0.10047,-0.033831,-0.0086332,-0.040298,0.049891,0.16134,0.037754,0.036099,0.097944,-0.05071,-0.05082,-0.027447,0.36744,-1.1996,0.010811,0.066905,-0.085235,-0.0661,-0.1218,-0.067501,-0.033068,0.52794,-0.095374,-0.61494
-0.088247,-0.030657,-0.0098041,-0.032392,0.052566,0.15303,0.035498,0.039745,0.087614,-0.048393,-0.054846,-0.034556,0.36118,-1.2059,0.0088674,0.086034,-0.074519,-0.059554,-0.11713,-0.051733,-0.019089,0.71552,-0.14601,-0.4784
-0.076553,-0.025639,-0.010023,-0.017333,0.051841,0.14512,0.031904,0.04191,0.082482,-0.04455,-0.060501,-0.033727,0.32299,-1.2443,0.0040779,0.096304,-0.061115,-0.051439,-0.10502,-0.041558,-0.004734,0.93456,-0.19323,-0.24877
-0.0666,-0.021832,-0.0093923,0.0018907,0.051022,0.14176,0.029468,0.041818,0.082381,-0.042678,-0.065914,-0.025608,0.24829,-1.3509,-0.013095,0.094426,-0.051232,-0.044841,-0.082528,-0.042998,0.004857,1.1556,-0.237,0.039688
-0.059021,-0.021349,-0.0070235,0.019998,0.052652,0.14128,0.027968,0.038914,0.084814,-0.043948,-0.069305,-0.015012,0.15232,-1.5072,-0.042089,0.086468,-0.049707,-0.041538,-0.052336,-0.056231,0.0044098,1.3067,-0.28448,0.31024
-0.053756,-0.023461,-0.001951,0.032306,0.056794,0.13892,0.024336,0.033542,0.086431,-0.046826,-0.070655,-0.0075974,0.06335,-1.6354,-0.070386,0.083635,-0.056361,-0.040886,-0.022036,-0.073943,-0.0072609,1.3358,-0.33933,0.4875
-0.049733,-0.025249,0.0049974,0.037125,0.06138,0.13206,0.015329,0.027317,0.085043,-0.048756,-0.071563,-0.0060726,0.0044978,-1.6416,-0.081287,0.094247,-0.066096,-0.040585,0.00034321,-0.086747,-0.026266,1.2559,-0.39339,0.54241
-0.044881,-0.024227,0.010439,0.035965,0.064288,0.12313,0.00079779,0.022491,0.081262,-0.048251,-0.073436,-0.0088251,-0.022601,-1.4773,-0.065514,0.11741,-0.072571,-0.038703,0.010811,-0.091179,-0.04636,1.1399,-0.4288,0.50072
-0.036929,-0.020506,0.010251,0.03174,0.065378,0.11771,-0.015444,0.020612,0.078596,-0.045613,-0.075908,-0.011826,-0.039335,-1.1698,-0.027712,0.14262,-0.072466,-0.035198,0.010916,-0.093058,-0.062789,1.0729,-0.42982,0.40977
-0.024716,-0.016558,0.002981,0.026628,0.066738,0.12014,-0.028191,0.0216,0.081461,-0.041961,-0.077114,-0.012032,-0.075008,-0.79626,0.016954,0.15551,-0.067202,-0.031649,0.0060948,-0.10295,-0.074274,1.0988,-0.39529,0.29389
-0.0090627,-0.014876,-0.0081262,0.021147,0.070922,0.1305,-0.03483,0.023991,0.09208,-0.037774,-0.075454,-0.0094545,-0.14599,-0.42379,0.052994,0.14611,-0.061229,-0.029526,0.0026774,-0.1275,-0.082262,1.1997,-0.34151,0.13692
0.0075634,-0.015754,-0.016793,0.014765,0.078621,0.14559,-0.037265,0.026029,0.10848,-0.032443,-0.070986,-0.006467,-0.24442,-0.064823,0.073394,0.11427,-0.058611,-0.028676,0.0052516,-0.16412,-0.08881,1.3174,-0.29241,-0.093151
0.022416,-0.017121,-0.018261,0.0071601,0.087642,0.16217,-0.040009,0.02663,0.12541,-0.025196,-0.065119,-0.0053736,-0.34398,0.31096,0.080597,0.069032,-0.060522,-0.027429,0.015003,-0.20307,-0.094868,1.3948,-0.2644,-0.39789
0.033917,-0.016425,-0.013088,-0.00091075,0.093973,0.17908,-0.04595,0.025612,0.13767,-0.01639,-0.059166,-0.0065217,-0.41695,0.71984,0.080169,0.022523,-0.065142,-0.024154,0.02927,-0.23476,-0.099545,1.4072,-0.25718,-0.71896
0.042254,-0.012796,-0.0068025,-0.0076358,0.094161,0.19591,-0.053316,0.023424,0.14351,-0.0078406,-0.05343,-0.0083827,-0.44897,1.115,0.073671,-0.017501,-0.069512,-0.018743,0.042746,-0.25536,-0.10002,1.3661,-0.25708,-0.95306
0.048888,-0.0076783,-0.005449,-0.010967,0.087322,0.21002,-0.056294,0.020909,0.14528,-0.0017728,-0.047711,-0.0090623,-0.44148,1.3954,0.057332,-0.051371,-0.07167,-0.012687,0.050341,-0.26646,-0.092165,1.3024,-0.24924,-1.0065
0.055452,-0.0036797,-0.010701,-0.0098243,0.075509,0.21526,-0.048746,0.019194,0.14685,0.00077614,-0.042379,-0.0076171,-0.40297,1.4737,0.027381,-0.084978,-0.071535,-0.0077824,0.050259,-0.27015,-0.072411,1.2462,-0.22891,-0.85405
0.062731,-0.0027705,-0.018723,-0.0051089,0.062256,0.20455,-0.028136,0.019347,0.14985,0.00078225,-0.038492,-0.0041749,-0.339,1.3473,-0.013404,-0.12296,-0.07014,-0.0047863,0.044939,-0.26511,-0.041087,1.2126,-0.20403,-0.56106
0.070216,-0.0052136,-0.023735,0.0002132,0.050311,0.17483,0.0029108,0.02167,0.15156,0.00060814,-0.036623,0.0007251,-0.24956,1.1107,-0.054489,-0.16284,-0.068137,-0.0032241,0.038757,-0.2476,-0.0052892,1.1958,-0.18904,-0.24992
0.076393,-0.0096926,-0.023071,0.002435,0.039995,0.1303,0.037898,0.025177,0.14607,0.0023944,-0.035722,0.0065186,-0.1341,0.8938,-0.083285,-0.19481,-0.064898,-0.0023155,0.034156,-0.2161,0.021558,1.1707,-0.1961,-0.032322
0.079592,-0.014185,-0.019227,-0.00059198,0.029279,0.080883,0.069287,0.028025,0.12774,0.006656,-0.033573,0.012346,0.0027704,0.77329,-0.092954,-0.20753,-0.058985,-0.001933,0.029668,-0.17484,0.025012,1.1039,-0.22985,0.047519
0.079015,-0.016884,-0.0172,-0.0077201,0.015508,0.036661,0.091332,0.028883,0.094662,0.012045,-0.028828,0.016768,0.15181,0.73287,-0.085606,-0.19569,-0.049547,-0.0026431,0.021775,-0.13258,-0.0022964,0.97585,-0.28698,0.020929
0.075412,-0.016791,-0.019708,-0.014973,-0.0023953,0.0022836,0.10209,0.028196,0.050001,0.016325,-0.022781,0.018228,0.30526,0.7023,-0.068494,-0.16357,-0.037433,-0.004945,0.0089619,-0.097652,-0.054986,0.80508,-0.35786,-0.046779
0.070954,-0.013914,-0.024777,-0.01836,-0.022816,-0.024341,0.10407,0.028063,0.00040597,0.017732,-0.018947,0.016109,0.46219,0.63856,-0.047161,-0.12222,-0.025041,-0.0086313,-0.006031,-0.073707,-0.11632,0.65328,-0.42809,-0.11152
0.06825,-0.0091095,-0.02781,-0.01704,-0.042263,-0.04838,0.10289,0.030612,-0.047457,0.015756,-0.02042,0.011378,0.62697,0.57477,-0.021938,-0.083046,-0.014986,-0.012953,-0.018207,-0.059727,-0.16669,0.60062,-0.48101,-0.17621
0.068969,-0.0036648,-0.02601,-0.014081,-0.057526,-0.072748,0.10385,0.036164,-0.090226,0.010952,-0.027121,0.0060427,0.80151,0.59304,0.0093695,-0.053026,-0.0086918,-0.017313,-0.024917,-0.053509,-0.19373,0.70214,-0.50312,-0.27179
0.072863,0.0011912,-0.020855,-0.0138,-0.06764,-0.095675,0.10792,0.042803,-0.12888,0.0042499,-0.035361,0.0018044,0.97791,0.74718,0.045825,-0.034617,-0.0059859,-0.021624,-0.028648,-0.054868,-0.19673,0.95727,-0.49086,-0.41657
0.077847,0.0045909,-0.016341,-0.017764,-0.07431,-0.11302,0.11025,0.047716,-0.16667,-0.0034904,-0.040266,-0.00090554,1.1376,1.0057,0.080697,-0.0289,-0.0058541,-0.025893,-0.035085,-0.06547,-0.18213,1.3185,-0.4532,-0.59211
0.081237,0.0060725,-0.014914,-0.023036,-0.080696,-0.12292,0.10298,0.049057,-0.20513,-0.011387,-0.039161,-0.0026927,1.2576,1.2657,0.10474,-0.037662,-0.0075304,-0.029522,-0.047936,-0.085726,-0.15417,1.7335,-0.4059,-0.75494
0.081469,0.0055529,-0.015214,-0.024558,-0.089617,-0.12832,0.080997,0.046711,-0.24124,-0.018321,-0.033226,-0.0041512,1.3179,1.4229,0.11268,-0.061793,-0.010959,-0.031272,-0.065241,-0.11196,-0.1089,2.1832,-0.35979,-0.86947
0.079214,0.0034211,-0.013878,-0.019775,-0.10247,-0.13497,0.04611,0.041545,-0.26819,-0.023209,-0.026277,-0.00512,1.307,1.4356,0.10707,-0.097495,-0.016419,-0.03016,-0.080677,-0.13663,-0.037655,2.6812,-0.31224,-0.93042
0.077002,0.00063123,-0.0095305,-0.011328,-0.11931,-0.14687,0.0060078,0.034297,-0.27955,-0.025772,-0.02189,-0.0049653,1.224,1.33,0.096301,-0.13431,-0.023922,-0.0265,-0.088825,-0.15155,0.062401,3.2307,-0.24981,-0.95676
0.077495,-0.0015652,-0.0048261,-0.0051905,-0.13955,-0.16334,-0.031356,0.025438,-0.27395,-0.027055,-0.021259,-0.003557,1.0799,1.1542,0.088441,-0.15766,-0.033055,-0.021897,-0.089771,-0.15164,0.17956,3.7794,-0.16126,-0.96739
0.08157,-0.0023602,-0.0042876,-0.0057648,-0.16224,-0.18037,-0.063031,0.016055,-0.25624,-0.028884,-0.023179,-0.0019747,0.89931,0.93092,0.086438,-0.15463,-0.0433,-0.01791,-0.089047,-0.13699,0.28933,4.2186,-0.050914,-0.96353
0.087696,-0.0021165,-0.0098441,-0.012373,-0.18567,-0.19464,-0.091258,0.0084882,-0.23425,-0.032391,-0.025658,-0.0022622,0.71593,0.65633,0.088028,-0.11946,-0.054362,-0.01453,-0.093128,-0.11239,0.36713,4.4365,0.059118,-0.93289
0.093169,-0.0023008,-0.018376,-0.020261,-0.20667,-0.20603,-0.11859,0.0055823,-0.21377,-0.036738,-0.027529,-0.0063537,0.56116,0.33796,0.08946,-0.055588,-0.06609,-0.010069,-0.10452,-0.085402,0.40277,4.3891,0.14048,-0.86744
0.096268,-0.0043601,-0.023828,-0.024978,-0.22085,-0.21615,-0.14286,0.008946,-0.19584,-0.039334,-0.028924,-0.014887,0.44994,0.026506,0.088915,0.025955,-0.078221,-0.0028875,-0.12048,-0.063856,0.40526,4.1325,0.17543,-0.77532
0.097545,-0.008283,-0.022207,-0.025872,-0.22411,-0.22492,-0.15725,0.017843,-0.17838,-0.037658,-0.030731,-0.026678,0.37508,-0.19839,0.086692,0.10989,-0.090352,0.0064794,-0.13589,-0.053216,0.39343,3.7872,0.16643,-0.67565
0.099143,-0.012128,-0.015019,-0.025507,-0.21498,-0.22932,-0.15576,0.029889,-0.16003,-0.031399,-0.033859,-0.039268,0.31656,-0.28051,0.082943,0.18036,-0.10223,0.01492,-0.14739,-0.054214,0.37945,3.4622,0.13213,-0.5828
0.10272,-0.013177,-0.0080389,-0.025996,-0.19625,-0.22633,-0.13892,0.042991,-0.14263,-0.023114,-0.038804,-0.050339,0.25944,-0.23165,0.076148,0.22461,-0.11389,0.018797,-0.15501,-0.061662,0.35864,3.1959,0.093923,-0.49562
0.10779,-0.0099804,-0.0064785,-0.026245,-0.17449,-0.2174,-0.1141,0.056749,-0.13003,-0.01669,-0.045454,-0.059191,0.20476,-0.12857,0.064253,0.23651,-0.12532,0.016842,-0.16074,-0.065672,0.31447,2.9558,0.063567,-0.40101
0.112,-0.0036333,-0.010768,-0.023038,-0.1571,-0.20945,-0.089569,0.072065,-0.12482,-0.014646,-0.052964,-0.067162,0.16395,-0.06561,0.047149,0.21882,-0.13578,0.011299,-0.16574,-0.055539,0.2353,2.6917,0.040117,-0.28789
0.11323,0.0028828,-0.016552,-0.014809,-0.1486,-0.21044,-0.067616,0.089409,-0.1259,-0.016315,-0.059851,-0.076424,0.14281,-0.10232,0.027548,0.18208,-0.14367,0.0061318,-0.1692,-0.024785,0.1296,2.3928,0.016253,-0.16071
0.11177,0.0068387,-0.018703,-0.0041714,-0.14829,-0.22279,-0.043295,0.1074,-0.12893,-0.018348,-0.064593,-0.087863,0.13217,-0.24285,0.0090024,0.13976,-0.14731,0.0037844,-0.16945,0.025303,0.027278,2.1041,-0.012538,-0.043599
0.11096,0.0076134,-0.015706,0.0035311,-0.15115,-0.24078,-0.01021,0.12291,-0.12886,-0.01718,-0.06651,-0.099774,0.11569,-0.45039,-0.0070326,0.1019,-0.14614,0.0033538,-0.16587,0.085718,-0.034704,1.8932,-0.043269,0.026586
0.1155,0.0067418,-0.010638,0.0044126,-0.15141,-0.2542,0.031737,0.13258,-0.12251,-0.011618,-0.06623,-0.10871,0.0876,-0.67217,-0.021996,0.071291,-0.14136,0.0017594,-0.15946,0.14347,-0.032308,1.7997,-0.067942,0.015275
0.12857,0.0062454,-0.0081242,-0.00098405,-0.14616,-0.25514,0.073894,0.13453,-0.10961,-0.0035689,-0.065209,-0.11205,0.062007,-0.8536,-0.037904,0.044957,-0.13526,-0.0032016,-0.15168,0.18709,0.033539,1.8074,-0.080242,-0.092581
0.14957,0.0068461,-0.010142,-0.0086611,-0.13624,-0.24167,0.10432,0.12929,-0.092206,0.0035868,-0.064608,-0.11002,0.063246,-0.94392,-0.054215,0.019406,-0.12976,-0.010684,-0.1427,0.21099,0.13959,1.8528,-0.080897,-0.28058
0.17385,0.0076428,-0.014333,-0.01497,-0.12375,-0.21562,0.11672,0.11955,-0.073233,0.0076246,-0.06448,-0.10532,0.10519,-0.90895,-0.067223,-0.0046771,-0.12535,-0.01738,-0.13107,0.21678,0.25365,1.8562,-0.077926,-0.50188
0.19458,0.0073374,-0.01614,-0.019519,-0.10839,-0.17759,0.1151,0.10898,-0.05509,0.0089379,-0.063979,-0.10047,0.17833,-0.75322,-0.072948,-0.022241,-0.12117,-0.020213,-0.11506,0.21104,0.34854,1.7482,-0.081992,-0.69586
0.20573,0.005631,-0.012787,-0.024546,-0.086514,-0.12506,0.11019,0.10064,-0.038643,0.0096555,-0.062358,-0.095428,0.2559,-0.53094,-0.071034,-0.028334,-0.11608,-0.018733,-0.094583,0.20112,0.40888,1.4808,-0.10031,-0.81361
0.20472,0.0034023,-0.0057217,-0.031727,-0.05448,-0.056089,0.11071,0.095502,-0.023118,0.011264,-0.059769,-0.087849,0.31208,-0.32304,-0.065875,-0.023455,-0.10947,-0.015197,-0.071757,0.19123,0.42954,1.0295,-0.13299,-0.83821
0.19351,0.0016606,0.00038795,-0.039805,-0.01401,0.024991,0.11684,0.092094,-0.0071297,0.012951,-0.057137,-0.07591,0.33588,-0.18512,-0.063594,-0.015188,-0.10127,-0.012502,-0.049626,0.18101,0.41039,0.39633,-0.17357,-0.78782
0.17764,0.00054151,0.0011653,-0.045437,0.025328,0.10599,0.12112,0.087782,0.0096029,0.012288,-0.055265,-0.060876,0.3308,-0.10419,-0.067267,-0.014396,-0.091377,-0.011844,-0.030039,0.16716,0.35258,-0.38732,-0.21284,-0.70161
0.16377,-0.00054709,-0.0042621,-0.04631,0.049946,0.17197,0.1153,0.081021,0.025148,0.0077154,-0.054063,-0.046719,0.30553,-0.0046321,-0.074555,-0.028378,-0.079413,-0.012069,-0.012439,0.14679,0.25862,-1.267,-0.24316,-0.61953
0.15688,-0.0018833,-0.012688,-0.043359,0.050568,0.21335,0.096821,0.07279,0.036016,0.00049378,-0.052631,-0.036858,0.26827,0.19286,-0.079906,-0.055772,-0.065282,-0.011036,0.0055909,0.12035,0.13501,-2.1807,-0.26096,-0.5678
0.15822,-0.0027993,-0.019122,-0.039915,0.0289,0.23034,0.069768,0.065634,0.039385,-0.0059016,-0.050071,-0.031058,0.22981,0.50273,-0.079509,-0.086777,-0.050065,-0.0077216,0.026716,0.091872,-0.005478,-3.0729,-0.26662,-0.55393
0.16515,-0.0023261,-0.020132,-0.038748,-0.0029836,0.23042,0.040221,0.06072,0.035182,-0.0085997,-0.046274,-0.025652,0.20852,0.85326,-0.074699,-0.10874,-0.03621,-0.0033109,0.052541,0.066623,-0.14449,-3.8933,-0.26267,-0.56712
0.17264,-0.00051073,-0.01589,-0.039939,-0.030539,0.2217,0.011119,0.055469,0.026235,-0.0078359,-0.041972,-0.017226,0.22656,1.1335,-0.070856,-0.11362,-0.026515,-0.00049292,0.083286,0.047846,-0.26235,-4.5829,-0.25186,-0.58012
0.17592,0.0010849,-0.0097006,-0.041494,-0.045867,0.20802,-0.018692,0.044414,0.016316,-0.0067099,-0.038071,-0.0064733,0.29591,1.2732,-0.072812,-0.10286,-0.022505,-0.0015398,0.11797,0.034962,-0.34409,-5.0697,-0.23628,-0.55536
0.1727,0.00046865,-0.0056166,-0.041753,-0.050954,0.18955,-0.050914,0.023378,0.0077847,-0.0082798,-0.034881,0.0015162,0.40536,1.2918,-0.080885,-0.086796,-0.023425,-0.0065996,0.15434,0.024476,-0.38382,-5.2899,-0.21764,-0.45898
0.16399,-0.0030123,-0.0059054,-0.040956,-0.053036,0.16673,-0.083845,-0.0061613,0.00078292,-0.012656,-0.031931,0.0012235,0.52229,1.279,-0.090989,-0.079032,-0.026658,-0.013432,0.18849,0.012629,-0.38483,-5.2286,-0.19776,-0.27919
0.15299,-0.0079699,-0.010017,-0.040471,-0.056822,0.14294,-0.11215,-0.036415,-0.0056486,-0.016881,-0.028497,-0.0083068,0.61194,1.3248,-0.0985,-0.089136,-0.029248,-0.018828,0.21532,-0.0023871,-0.35509,-4.9472,-0.17854,-0.036147
0.14278,-0.012146,-0.015464,-0.040776,-0.060593,0.12316,-0.13061,-0.057591,-0.011908,-0.017813,-0.024406,-0.021811,0.66156,1.4563,-0.10207,-0.11762,-0.029404,-0.020778,0.2304,-0.020299,-0.30103,-4.5686,-0.16121,0.22739
0.13427,-0.014394,-0.0197,-0.040539,-0.059109,0.1101,-0.13814,-0.064313,-0.017271,-0.015332,-0.020445,-0.031119,0.69024,1.6298,-0.10369,-0.15586,-0.027013,-0.01986,0.23248,-0.040365,-0.22369,-4.2179,-0.14541,0.4711
0.12572,-0.015515,-0.021563,-0.037825,-0.049825,0.10183,-0.13844,-0.059364,-0.020703,-0.012801,-0.017984,-0.030817,0.73461,1.7737,-0.1051,-0.19084,-0.023082,-0.01874,0.22457,-0.062809,-0.11926,-3.9549,-0.12905,0.6795
0.11439,-0.017093,-0.021412,-0.032103,-0.036224,0.093121,-0.13682,-0.051859,-0.021928,-0.01421,-0.017963,-0.021626,0.8193,1.8431,-0.10402,-0.2119,-0.018793,-0.020062,0.21223,-0.088379,0.016293,-3.7416,-0.10894,0.86391
0.099192,-0.019494,-0.020176,-0.024874,-0.025362,0.078675,-0.13646,-0.051205,-0.021614,-0.020555,-0.019885,-0.0088594,0.93446,1.8396,-0.094404,-0.21562,-0.014888,-0.02432,0.19996,-0.11627,0.18061,-3.4644,-0.082124,1.0439
0.082309,-0.021129,-0.018306,-0.018263,-0.022566,0.055401,-0.13714,-0.061323,-0.020665,-0.028763,-0.021651,0.0023839,1.039,1.7915,-0.070756,-0.20617,-0.011546,-0.029496,0.18843,-0.14245,0.35923,-2.9981,-0.047437,1.2269
0.068374,-0.019848,-0.015497,-0.013066,-0.028576,0.022082,-0.13674,-0.079141,-0.019482,-0.034206,-0.020625,0.010969,1.0894,1.7202,-0.0332,-0.19117,-0.0084702,-0.032859,0.17522,-0.16038,0.52388,-2.2782,-0.006911,1.4053
0.061471,-0.015186,-0.011283,-0.0082395,-0.041336,-0.021929,-0.13307,-0.097964,-0.017849,-0.034612,-0.015502,0.019263,1.0718,1.6266,0.011204,-0.17596,-0.00498,-0.033372,0.15839,-0.16413,0.63779,-1.3502,0.033521,1.5725
0.062046,-0.0092503,-0.0058421,-0.0022897,-0.059527,-0.076621,-0.12421,-0.11269,-0.015261,-0.03197,-0.0076806,0.029328,1.0126,1.5047,0.051991,-0.16039,-0.00021942,-0.032537,0.14005,-0.15155,0.66875,-0.37666,0.065298,1.7371
0.066073,-0.0052654,-0.00020466,0.0049699,-0.083254,-0.13946,-0.10759,-0.12292,-0.011188,-0.03082,-0.00082181,0.039702,0.95538,1.3614,0.080871,-0.14001,0.0063199,-0.032812,0.12618,-0.12493,0.605,0.40466,0.081081,1.9161
0.067282,-0.0050719,0.0043693,0.012068,-0.1109,-0.20404,-0.080282,-0.13197,-0.0051848,-0.034465,0.001528,0.045974,0.92284,1.2175,0.095208,-0.11083,0.014198,-0.035048,0.12266,-0.088667,0.46472,0.76441,0.079642,2.1087
0.060967,-0.00782,0.0073204,0.017172,-0.13603,-0.26176,-0.041306,-0.14316,0.0027912,-0.042295,-0.0012988,0.044642,0.89314,1.089,0.097499,-0.073718,0.021952,-0.037442,0.13034,-0.0461,0.29079,0.57972,0.068042,2.2768
0.04674,-0.010944,0.0091694,0.019598,-0.14906,-0.30625,0.005627,-0.15654,0.011827,-0.050226,-0.0062488,0.036452,0.81246,0.9673,0.092304,-0.035116,0.027912,-0.037163,0.14359,0.0018464,0.13125,-0.10007,0.057982,2.358
0.028326,-0.01239,0.010963,0.020061,-0.14375,-0.33729,0.051957,-0.16842,0.019902,-0.05358,-0.0087038,0.025904,0.63501,0.82234,0.083511,-0.0037927,0.031429,-0.033254,0.15382,0.055081,0.016931,-1.0627,0.057631,2.3066
0.010707,-0.012071,0.013273,0.019623,-0.12299,-0.36022,0.087644,-0.17375,0.024816,-0.049875,-0.0062233,0.017291,0.35969,0.62648,0.073514,0.01385,0.033473,-0.028061,0.15533,0.11176,-0.04905,-2.0217,0.065238,2.1311
-0.0032619,-0.011441,0.015698,0.01867,-0.098171,-0.38055,0.10593,-0.16934,0.025833,-0.0396,-0.00080971,0.011083,0.03469,0.37953,0.063604,0.016333,0.035907,-0.025722,0.1487,0.16747,-0.08357,-2.737,0.071149,1.8914
-0.014451,-0.011868,0.017344,0.016975,-0.081406,-0.39761,0.10596,-0.15553,0.024635,-0.025036,0.0024472,0.0041926,-0.27264,0.11138,0.054101,0.0061535,0.039904,-0.02893,0.13918,0.21712,-0.10492,-3.0957,0.068394,1.6576
-0.026427,-0.013404,0.017806,0.014592,-0.076995,-0.40287,0.091739,-0.13577,0.024328,-0.0087261,-0.00048956,-0.0060436,-0.51609,-0.13953,0.043841,-0.013078,0.044875,-0.036842,0.13168,0.25795,-0.11898,-3.1107,0.063476,1.4622
-0.042812,-0.014931,0.017621,0.012305,-0.079304,-0.38518,0.068673,-0.11484,0.026949,0.0070711,-0.0090499,-0.018035,-0.69068,-0.35243,0.030104,-0.038534,0.048932,-0.045924,0.1271,0.29059,-0.12042,-2.8556,0.076453,1.2901
-0.06493,-0.015303,0.017759,0.010969,-0.078785,-0.33964,0.04079,-0.097226,0.031558,0.020058,-0.018168,-0.026178,-0.82131,-0.53279,0.0099884,-0.067773,0.050529,-0.052851,0.12278,0.31716,-0.10573,-2.4004,0.12697,1.1113
-0.091051,-0.014387,0.018709,0.010429,-0.070576,-0.27348,0.0099252,-0.086239,0.03482,0.027836,-0.022112,-0.025338,-0.93458,-0.69857,-0.017194,-0.097275,0.049847,-0.056818,0.11618,0.33807,-0.084449,-1.7958,0.21558,0.9262
-0.11723,-0.013172,0.020195,0.0093993,-0.058036,-0.20377,-0.023741,-0.083602,0.033893,0.02879,-0.018907,-0.01571,-1.0386,-0.85911,-0.048318,-0.12231,0.048663,-0.059351,0.10763,0.3507,-0.077206,-1.1032,0.31625,0.77861
-0.13883,-0.013025,0.021754,0.0067126,-0.048621,-0.14833,-0.06115,-0.089203,0.029161,0.023285,-0.011765,-0.0036303,-1.1235,-1.0053,-0.077153,-0.13894,0.048836,-0.062104,0.09945,0.35158,-0.10151,-0.42127,0.3894,0.727
-0.1518,-0.014744,0.023439,0.002805,-0.04663,-0.11622,-0.10404,-0.10112,0.024244,0.013897,-0.0064978,0.0025716,-1.1758,-1.1172,-0.097206,-0.14655,0.050799,-0.064951,0.092599,0.34032,-0.15719,0.13207,0.40845,0.80059
-0.15358,-0.018012,0.025708,-0.00017786,-0.049914,-0.10486,-0.15389,-0.11635,0.023028,0.004133,-0.0072701,-0.0017435,-1.1893,-1.1791,-0.10491,-0.14828,0.053378,-0.06619,0.08496,0.3221,-0.22393,0.47599,0.38018,0.9816
-0.14353,-0.021514,0.028527,-4.5063e-005,-0.053289,-0.10524,-0.20986,-0.13214,0.026287,-0.0033856,-0.01413,-0.014967,-1.1658,-1.1914,-0.10113,-0.14873,0.055014,-0.064531,0.073503,0.30597,-0.27337,0.61174,0.34182,1.2267
-0.12323,-0.023602,0.030754,0.0033903,-0.054667,-0.1104,-0.26711,-0.14707,0.031005,-0.0076873,-0.023892,-0.031603,-1.1096,-1.173,-0.090258,-0.15092,0.05519,-0.060824,0.0584,0.29987,-0.28642,0.61455,0.33523,1.5026
-0.096039,-0.023171,0.030754,0.0078196,-0.057415,-0.12014,-0.31765,-0.16094,0.033202,-0.0085658,-0.032972,-0.047052,-1.0271,-1.1597,-0.077573,-0.15523,0.054802,-0.057691,0.044582,0.30562,-0.26338,0.57741,0.37674,1.7994
-0.065998,-0.020298,0.02788,0.010148,-0.066432,-0.13855,-0.35415,-0.17348,0.03178,-0.0052099,-0.039526,-0.060533,-0.93114,-1.197,-0.066651,-0.16091,0.055293,-0.057267,0.03838,0.31748,-0.22073,0.55387,0.44583,2.1119
-0.036532,-0.016239,0.023389,0.0090497,-0.081813,-0.16764,-0.3743,-0.18306,0.029824,0.0038212,-0.043478,-0.073898,-0.84232,-1.3242,-0.058061,-0.16808,0.057453,-0.059063,0.041875,0.32539,-0.1788,0.54396,0.50131,2.4121
-0.0097941,-0.012719,0.019659,0.0061468,-0.096519,-0.20326,-0.38242,-0.18669,0.031972,0.018729,-0.04525,-0.087947,-0.77768,-1.5505,-0.049918,-0.17786,0.060953,-0.060056,0.050336,0.32091,-0.15011,0.52519,0.51189,2.6467
0.012945,-0.010961,0.018175,0.0046711,-0.10072,-0.23716,-0.38665,-0.1815,0.04008,0.0363,-0.044957,-0.099994,-0.73459,-1.8369,-0.039748,-0.19029,0.064792,-0.057178,0.055638,0.30181,-0.13555,0.49159,0.47721,2.7656
0.030442,-0.011132,0.018069,0.0065772,-0.089157,-0.2631,-0.39371,-0.16665,0.051101,0.049872,-0.042757,-0.1051,-0.68584,-2.1036,-0.026497,-0.20269,0.067947,-0.050243,0.052985,0.27271,-0.12866,0.46331,0.42398,2.7551
0.041195,-0.012542,0.016725,0.010448,-0.065174,-0.28128,-0.40505,-0.14406,0.059252,0.052402,-0.039546,-0.099999,-0.59757,-2.2693,-0.011491,-0.21045,0.069573,-0.042706,0.044896,0.24146,-0.12261,0.46387,0.3824,2.6459
0.044175,-0.014306,0.012138,0.012022,-0.037945,-0.29735,-0.41692,-0.1173,0.060705,0.040834,-0.036788,-0.086323,-0.46062,-2.2996,0.0022881,-0.20976,0.068826,-0.039356,0.038763,0.21416,-0.11428,0.49408,0.36335,2.4868
0.039907,-0.015832,0.0050449,0.0071705,-0.015737,-0.31741,-0.42387,-0.089487,0.05677,0.018498,-0.035415,-0.070258,-0.30943,-2.2257,0.012282,-0.19935,0.065013,-0.04259,0.04013,0.19238,-0.10354,0.53109,0.35438,2.3114
0.030723,-0.016791,-0.0011869,-0.0047897,-0.0010704,-0.34437,-0.42279,-0.061789,0.052802,-0.0065743,-0.03494,-0.058767,-0.20745,-2.1127,0.018616,-0.17948,0.058379,-0.050271,0.047751,0.17404,-0.089996,0.55175,0.33538,2.1262
0.019747,-0.016894,-0.0030884,-0.019967,0.0084109,-0.37884,-0.41462,-0.033737,0.053813,-0.026437,-0.033831,-0.055245,-0.20435,-1.9974,0.025113,-0.1493,0.050851,-0.057019,0.054769,0.15684,-0.071052,0.5542,0.2985,1.9272
0.0093368,-0.015962,-5.9802e-005,-0.031957,0.014955,-0.42285,-0.40324,-0.0053097,0.060596,-0.037765,-0.030904,-0.057895,-0.29613,-1.8461,0.038069,-0.10621,0.045637,-0.058004,0.054744,0.14085,-0.043155,0.55542,0.2554,1.7223
0.00029576,-0.014334,0.0047943,-0.035775,0.016715,-0.48137,-0.39294,0.020901,0.069573,-0.043005,-0.02643,-0.061928,-0.42096,-1.5738,0.062893,-0.048733,0.04539,-0.052258,0.047012,0.12813,-0.0052616,0.56891,0.22689,1.5357
-0.0076206,-0.013012,0.0069301,-0.030891,0.0086602,-0.55889,-0.38634,0.039414,0.076304,-0.047613,-0.021911,-0.063645,-0.49724,-1.1141,0.099975,0.01941,0.050112,-0.042931,0.036759,0.11972,0.038485,0.58716,0.22563,1.3875
-0.014568,-0.013049,0.004078,-0.021228,-0.012389,-0.65377,-0.38362,0.044236,0.079558,-0.055745,-0.018811,-0.063163,-0.47638,-0.48947,0.14216,0.088329,0.056644,-0.034507,0.030159,0.11318,0.079375,0.58753,0.24674,1.2697
-0.020057,-0.014461,-0.0016654,-0.012229,-0.0432,-0.75604,-0.38295,0.032556,0.082619,-0.067663,-0.017453,-0.063702,-0.37069,0.17572,0.17598,0.14642,0.060495,-0.029471,0.02917,0.10336,0.10819,0.55527,0.27292,1.1424
-0.023461,-0.015714,-0.0053134,-0.0073216,-0.074338,-0.85146,-0.3814,0.0070091,0.091021,-0.080472,-0.016995,-0.068156,-0.23675,0.71361,0.18721,0.18747,0.058836,-0.027115,0.030507,0.086144,0.1203,0.49971,0.28801,0.95551
-0.024933,-0.01456,-0.003049,-0.0064048,-0.095438,-0.92846,-0.37596,-0.025447,0.10861,-0.091105,-0.016242,-0.075831,-0.13035,1.0024,0.1681,0.21478,0.052348,-0.025104,0.029256,0.062122,0.11827,0.447,0.28698,0.68046
-0.02562,-0.0097832,0.0044502,-0.0071978,-0.10159,-0.98195,-0.36427,-0.057425,0.13472,-0.098829,-0.014391,-0.082053,-0.069814,1.027,0.12212,0.23854,0.044477,-0.021992,0.023569,0.036829,0.11023,0.41659,0.27539,0.328
-0.026852,-0.0024347,0.01234,-0.0078709,-0.09599,-1.0112,-0.34515,-0.08483,0.16388,-0.10523,-0.011174,-0.081115,-0.033744,0.874,0.062523,0.2681,0.038762,-0.018367,0.016297,0.016948,0.10477,0.40442,0.26118,-0.056876
-0.029096,0.0046347,0.015484,-0.0084958,-0.087137,-1.0156,-0.31873,-0.1076,0.18787,-0.11187,-0.0066997,-0.070372,0.011856,0.67424,0.0052357,0.30446,0.036435,-0.015902,0.012455,0.0055656,0.10572,0.38866,0.24736,-0.41489
-0.031769,0.00871,0.012626,-0.0102,-0.083234,-0.99373,-0.28678,-0.12723,0.19883,-0.11786,-0.0015344,-0.052359,0.084243,0.53453,-0.039163,0.33863,0.036077,-0.015571,0.015106,0.00037403,0.11025,0.35129,0.23157,-0.69187
-0.034167,0.0090716,0.0071988,-0.013191,-0.088231,-0.94835,-0.25296,-0.14369,0.19272,-0.11962,0.0030714,-0.033267,0.17554,0.49841,-0.068858,0.35667,0.035272,-0.016814,0.023253,-0.0037486,0.11142,0.29423,0.21112,-0.84923
-0.036548,0.007284,0.0039904,-0.015861,-0.10199,-0.89059,-0.2228,-0.15458,0.17187,-0.11344,0.0054591,-0.018886,0.26504,0.54587,-0.087698,0.34803,0.03259,-0.018185,0.033197,-0.010127,0.10313,0.23521,0.18755,-0.86891
-0.04015,0.0057843,0.0046548,-0.016,-0.12306,-0.83796,-0.20255,-0.15722,0.1453,-0.099039,0.0046441,-0.011081,0.33412,0.61771,-0.099059,0.31205,0.02828,-0.018532,0.04165,-0.017655,0.084297,0.18899,0.1662,-0.75944
-0.045917,0.0060629,0.0061897,-0.012983,-0.15053,-0.8045,-0.19677,-0.15116,0.12543,-0.081318,0.001456,-0.0074082,0.36912,0.64559,-0.10233,0.25924,0.023449,-0.017562,0.047618,-0.022317,0.059227,0.1533,0.15185,-0.56256
-0.053043,0.0079321,0.0038927,-0.0087209,-0.18301,-0.79006,-0.2057,-0.13868,0.1215,-0.068617,-0.0015286,-0.0040073,0.35552,0.57796,-0.094776,0.20723,0.018846,-0.015541,0.051667,-0.02143,0.034353,0.11296,0.14478,-0.35149
-0.058823,0.010248,-0.0038582,-0.0063374,-0.21614,-0.77787,-0.22424,-0.12263,0.13319,-0.068125,-0.0016699,0.00070632,0.27797,0.39866,-0.076088,0.17386,0.014449,-0.012799,0.053879,-0.01687,0.013782,0.057283,0.14127,-0.21287
-0.060271,0.012132,-0.013507,-0.0077309,-0.24243,-0.74355,-0.24396,-0.10413,0.14933,-0.081329,0.0016229,0.0045899,0.13269,0.13377,-0.0507,0.17071,0.0099752,-0.0096109,0.053004,-0.014477,-0.0032915,-0.0062425,0.13748,-0.21531
-0.056361,0.013456,-0.019097,-0.012271,-0.25479,-0.66933,-0.25726,-0.08248,0.15376,-0.1026,0.0062431,0.0037375,-0.059059,-0.16041,-0.025308,0.19936,0.0054814,-0.0063005,0.047865,-0.020063,-0.021745,-0.05445,0.13313,-0.37993
-0.049069,0.014284,-0.017641,-0.017779,-0.25145,-0.55312,-0.2614,-0.05801,0.13568,-0.1221,0.0089844,-0.003784,-0.25421,-0.427,-0.0042906,0.25123,0.0012927,-0.0031722,0.039527,-0.035193,-0.04723,-0.063489,0.13156,-0.66987
-0.04223,0.014115,-0.012239,-0.022767,-0.238,-0.40656,-0.25949,-0.034993,0.097,-0.13136,0.0081308,-0.015491,-0.41213,-0.63942,0.012195,0.31082,-0.0025825,-0.00025544,0.031703,-0.056019,-0.082853,-0.022294,0.13654,-1.0055
-0.038966,0.011936,-0.0099295,-0.027737,-0.22373,-0.24541,-0.25767,-0.021726,0.051257,-0.12804,0.004786,-0.025282,-0.52185,-0.811,0.02554,0.36056,-0.0067269,0.0026684,0.028451,-0.075936,-0.12784,0.065288,0.14892,-1.2963
-0.039626,0.0072251,-0.015925,-0.034312,-0.21483,-0.081076,-0.26023,-0.026776,0.014292,-0.11708,0.0017661,-0.026789,-0.60732,-0.97281,0.03459,0.38578,-0.0118,0.0055741,0.030983,-0.089879,-0.1784,0.18689,0.16577,-1.4708
-0.041791,0.00090299,-0.029138,-0.043034,-0.20948,0.080402,-0.26602,-0.053715,-0.0061019,-0.10776,0.0010842,-0.016694,-0.70257,-1.1351,0.035072,0.37808,-0.017706,0.0077731,0.03648,-0.097043,-0.22944,0.32676,0.18192,-1.4911
-0.042289,-0.0048674,-0.042824,-0.051908,-0.19894,0.23339,-0.26879,-0.097993,-0.013877,-0.10907,0.0023007,0.0042226,-0.8164,-1.2633,0.023946,0.33648,-0.023397,0.0082778,0.040151,-0.10032,-0.27554,0.46548,0.19152,-1.3495
-0.039579,-0.0081249,-0.049714,-0.057064,-0.17373,0.36906,-0.26131,-0.14807,-0.019533,-0.12635,0.0031579,0.032415,-0.91832,-1.292,0.0045611,0.26668,-0.027642,0.0068443,0.038853,-0.10343,-0.31067,0.57996,0.18778,-1.0572
-0.034647,-0.0086248,-0.047228,-0.055061,-0.13016,0.47833,-0.24022,-0.18988,-0.031012,-0.16047,0.001822,0.063623,-0.96075,-1.1702,-0.013294,0.17895,-0.030083,0.0046449,0.033227,-0.10823,-0.32803,0.65123,0.16164,-0.64084
-0.029839,-0.0080332,-0.038622,-0.045045,-0.072668,0.55894,-0.20796,-0.21175,-0.048235,-0.20889,-0.0013189,0.093928,-0.92102,-0.90621,-0.020029,0.085293,-0.031491,0.0036473,0.026732,-0.11404,-0.3212,0.67748,0.10225,-0.15057
-0.026754,-0.0085153,-0.02968,-0.029238,-0.011102,0.619,-0.17063,-0.2074,-0.064911,-0.2665,-0.0038359,0.11964,-0.82708,-0.57625,-0.014538,-0.0034569,-0.032976,0.0050638,0.022722,-0.11896,-0.28739,0.67959,0.0013338,0.33194
-0.025041,-0.010921,-0.024283,-0.011648,0.044414,0.67166,-0.13378,-0.17643,-0.074807,-0.32542,-0.0031768,0.13718,-0.7433,-0.28807,-0.0064706,-0.080241,-0.034923,0.0083324,0.022138,-0.12159,-0.23087,0.6887,-0.13997,0.70549
-0.023013,-0.014222,-0.022577,0.0038015,0.087471,0.72422,-0.099928,-0.12353,-0.076532,-0.37481,0.0013124,0.1439,-0.72581,-0.12047,-0.0093547,-0.14295,-0.036752,0.011687,0.023472,-0.12165,-0.16383,0.72164,-0.30613,0.89241
-0.019378,-0.016742,-0.022584,0.01444,0.11677,0.77159,-0.069425,-0.057187,-0.073398,-0.40265,0.0077949,0.1396,-0.78344,-0.079329,-0.029427,-0.19346,-0.037673,0.013774,0.024486,-0.1194,-0.10251,0.76426,-0.46867,0.89498
-0.014499,-0.018003,-0.022983,0.018934,0.13565,0.80142,-0.042687,0.012028,-0.069846,-0.4,0.013056,0.12727,-0.8756,-0.098958,-0.059422,-0.23467,-0.037637,0.014677,0.02394,-0.11456,-0.059853,0.77932,-0.595,0.82312
-0.010153,-0.019331,-0.02423,0.016924,0.15093,0.80748,-0.020524,0.07419,-0.068561,-0.36575,0.014378,0.11215,-0.94726,-0.086774,-0.083025,-0.26737,-0.037509,0.015344,0.022079,-0.10614,-0.038895,0.73512,-0.66103,0.85547
-0.0081224,-0.022469,-0.027328,0.0090534,0.17119,0.79983,-0.0014979,0.12316,-0.070605,-0.30832,0.01094,0.099227,-0.97027,0.018877,-0.086895,-0.28902,-0.038333,0.016155,0.020016,-0.093322,-0.031429,0.63153,-0.66066,1.1388
-0.0088497,-0.027428,-0.031937,-0.0025322,0.2041,0.80117,0.020719,0.15844,-0.077185,-0.24199,0.004082,0.090925,-0.95709,0.21542,-0.070744,-0.29553,-0.040418,0.016317,0.018852,-0.077013,-0.02339,0.50048,-0.60707,1.684
-0.011017,-0.03174,-0.035942,-0.014036,0.25293,0.83064,0.055856,0.18409,-0.090069,-0.17955,-0.0034722,0.086107,-0.93866,0.447,-0.047363,-0.28455,-0.04302,0.014843,0.019175,-0.060892,-0.0036019,0.37966,-0.525,2.3365
-0.012032,-0.032135,-0.036916,-0.021107,0.31415,0.88779,0.11073,0.20481,-0.10958,-0.12604,-0.0088851,0.081073,-0.92902,0.6497,-0.032771,-0.25729,-0.044766,0.012089,0.020941,-0.050741,0.029816,0.28123,-0.43839,2.8549
-0.0089395,-0.027423,-0.034093,-0.021061,0.37781,0.95032,0.18264,0.22199,-0.13228,-0.078172,-0.010392,0.071912,-0.90846,0.79924,-0.034511,-0.21718,-0.044418,0.010069,0.023556,-0.051677,0.069328,0.1819,-0.36061,3.0535
0.00049555,-0.019996,-0.029079,-0.014817,0.4312,0.9883,0.25852,0.23262,-0.15144,-0.029735,-0.0079345,0.057093,-0.83827,0.92878,-0.04718,-0.16666,-0.04154,0.010945,0.026185,-0.064296,0.10358,0.041598,-0.29197,2.9102
0.016579,-0.014408,-0.024814,-0.0068374,0.46406,0.98411,0.32214,0.2323,-0.16081,0.021362,-0.0029853,0.039106,-0.69247,1.1041,-0.057835,-0.10522,-0.036868,0.014998,0.028305,-0.082107,0.12446,-0.16584,-0.22501,2.5622
0.036775,-0.013991,-0.023715,-0.0026899,0.47297,0.9428,0.36435,0.21994,-0.15913,0.070077,0.0023481,0.024175,-0.47927,1.372,-0.056002,-0.031075,-0.032161,0.020114,0.030171,-0.092701,0.13102,-0.43522,-0.15281,2.1957
0.05607,-0.01829,-0.02641,-0.0057219,0.46305,0.88621,0.3889,0.20041,-0.15135,0.10757,0.0064587,0.01971,-0.23685,1.7148,-0.04011,0.05475,-0.029336,0.023491,0.032601,-0.083192,0.12837,-0.73739,-0.075045,1.9167
0.069196,-0.023509,-0.031735,-0.015264,0.44638,0.83736,0.40905,0.18248,-0.1452,0.12796,0.0089642,0.030335,-0.0097051,2.0449,-0.016259,0.14567,-0.029066,0.024143,0.035974,-0.047465,0.12317,-1.0413,0.0013963,1.6994
0.073773,-0.025595,-0.037686,-0.027664,0.43768,0.80802,0.43768,0.17355,-0.14562,0.13288,0.010644,0.054479,0.17501,2.2446,0.0080839,0.23094,-0.029814,0.023894,0.039219,0.0092425,0.11938,-1.3299,0.065827,1.4416
0.072027,-0.023379,-0.042523,-0.039238,0.44831,0.79748,0.47845,0.17506,-0.15141,0.13056,0.012753,0.083805,0.31569,2.2327,0.02937,0.30071,-0.028444,0.025775,0.039989,0.071902,0.11733,-1.599,0.10787,1.0685
0.069305,-0.019178,-0.045368,-0.048714,0.48057,0.79915,0.52408,0.18205,-0.15673,0.13074,0.016227,0.1064,0.42765,2.0137,0.048386,0.35098,-0.022544,0.031145,0.036355,0.12313,0.11642,-1.8447,0.1198,0.59738
0.07011,-0.016567,-0.04616,-0.057326,0.52543,0.80645,0.56217,0.18725,-0.15636,0.13982,0.02118,0.11225,0.52707,1.6787,0.066932,0.3852,-0.012806,0.038123,0.028823,0.1522,0.11914,-2.0558,0.097369,0.11608
0.074835,-0.017411,-0.045204,-0.066738,0.56575,0.81273,0.58345,0.18611,-0.15043,0.15961,0.026765,0.097795,0.61832,1.3533,0.084893,0.41193,-0.0032106,0.042901,0.020795,0.15988,0.13248,-2.2199,0.040879,-0.29311
0.080221,-0.020732,-0.04273,-0.076756,0.58476,0.80855,0.58658,0.17932,-0.14482,0.18921,0.031323,0.066737,0.69038,1.1274,0.10042,0.44049,0.0017244,0.04294,0.016604,0.15628,0.16491,-2.3343,-0.042859,-0.61374
0.083433,-0.024122,-0.03883,-0.084784,0.57517,0.78295,0.57729,0.17104,-0.14672,0.22702,0.032854,0.026821,0.72208,1.0096,0.11232,0.47725,0.00070062,0.039228,0.0184,0.15322,0.22048,-2.4059,-0.13926,-0.8925
0.086132,-0.026036,-0.033844,-0.087409,0.54312,0.73037,0.56364,0.16502,-0.15873,0.2704,0.029932,-0.014719,0.69274,0.93626,0.12151,0.5232,-0.0028677,0.035526,0.024338,0.15677,0.29458,-2.4327,-0.22787,-1.1869
0.094507,-0.026725,-0.028886,-0.082769,0.50359,0.65735,0.55143,0.16172,-0.1759,0.31377,0.022795,-0.053652,0.59298,0.82468,0.13009,0.57301,-0.0032531,0.035186,0.029634,0.16442,0.37492,-2.3816,-0.28806,-1.5159
0.11456,-0.027102,-0.025838,-0.071898,0.47005,0.58099,0.542,0.15852,-0.18837,0.34823,0.013884,-0.087726,0.43098,0.63269,0.13913,0.61604,0.0030383,0.038342,0.029675,0.16824,0.44769,-2.1868,-0.30643,-1.8551
0.14641,-0.027035,-0.026424,-0.058188,0.44548,0.51821,0.53278,0.15218,-0.18783,0.36481,0.0070788,-0.11396,0.23109,0.38358,0.148,0.64039,0.014401,0.041951,0.022775,0.16061,0.5044,-1.781,-0.28205,-2.1721
0.18283,-0.025065,-0.030697,-0.045511,0.42137,0.47399,0.51929,0.1415,-0.17321,0.35998,0.0057052,-0.1276,0.026208,0.14459,0.15614,0.63894,0.025468,0.042569,0.010646,0.13824,0.5445,-1.1465,-0.22708,-2.4638
0.21385,-0.019928,-0.036122,-0.036321,0.38535,0.43878,0.49767,0.12809,-0.15152,0.33929,0.010453,-0.12442,-0.15138,-0.021065,0.16512,0.61401,0.031523,0.039312,-0.0032954,0.10226,0.57221,-0.35144,-0.16227,-2.7598
0.23414,-0.012274,-0.038381,-0.030784,0.33157,0.39776,0.46704,0.11511,-0.13315,0.31561,0.018722,-0.10482,-0.27604,-0.093132,0.17822,0.5763,0.032143,0.034458,-0.016059,0.055807,0.59075,0.45937,-0.10936,-3.0906
0.24694,-0.0046252,-0.033895,-0.027202,0.26582,0.34413,0.43078,0.10502,-0.12514,0.30256,0.026061,-0.075775,-0.33111,-0.10076,0.19705,0.53777,0.030993,0.031357,-0.026142,0.0022018,0.59868,1.1219,-0.08307,-3.451
0.26097,0.00060589,-0.022513,-0.023234,0.20176,0.28447,0.39571,0.09785,-0.12745,0.30731,0.028849,-0.048237,-0.31029,-0.098566,0.21813,0.50335,0.03222,0.031709,-0.033396,-0.054892,0.59132,1.5283,-0.085554,-3.7904
0.28272,0.0031718,-0.0082759,-0.017208,0.15133,0.23189,0.3686,0.090781,-0.13446,0.32723,0.02642,-0.031214,-0.22057,-0.13322,0.23323,0.46854,0.036905,0.034502,-0.038629,-0.11049,0.56521,1.6775,-0.10651,-4.0436
0.31028,0.0050661,0.0026938,-0.0089049,0.11682,0.19332,0.3516,0.079311,-0.14013,0.35176,0.0212,-0.026666,-0.084752,-0.22161,0.23402,0.4251,0.042726,0.037157,-0.04347,-0.15889,0.52157,1.6706,-0.12999,-4.1768
0.33399,0.0084314,0.0059475,0.0004921,0.090228,0.16315,0.34007,0.059347,-0.14228,0.36715,0.016862,-0.028786,0.061732,-0.3478,0.21756,0.36979,0.046785,0.037494,-0.050121,-0.19618,0.46534,1.654,-0.14534,-4.2159
0.34361,0.013261,0.0014825,0.009245,0.059692,0.12898,0.32502,0.029464,-0.14274,0.36081,0.015923,-0.027708,0.18213,-0.47315,0.1878,0.30769,0.048552,0.034815,-0.060375,-0.22231,0.40073,1.7407,-0.15553,-4.2294
0.33618,0.017137,-0.0064762,0.016228,0.018053,0.08453,0.29931,-0.0075891,-0.14387,0.32413,0.018455,-0.014413,0.25375,-0.55116,0.15181,0.24628,0.049977,0.029637,-0.074236,-0.23986,0.32727,1.9532,-0.17617,-4.2736
0.31825,0.017391,-0.012455,0.021658,-0.032517,0.037715,0.2634,-0.044843,-0.14499,0.25511,0.022633,0.016429,0.27766,-0.54359,0.11416,0.18562,0.05285,0.022886,-0.089459,-0.24971,0.24051,2.2166,-0.22381,-4.3378
0.30085,0.013779,-0.013209,0.026794,-0.082355,0.0062328,0.22577,-0.072805,-0.1422,0.16152,0.026403,0.066096,0.2755,-0.4377,0.074657,0.11441,0.05639,0.015488,-0.10292,-0.24757,0.13774,2.4058,-0.30104,-4.3338
0.29102,0.0092034,-0.0092629,0.03271,-0.12067,0.0036718,0.19742,-0.08271,-0.13183,0.062724,0.02887,0.13182,0.27453,-0.26039,0.031385,0.017476,0.057846,0.0084418,-0.11311,-0.22576,0.024317,2.4167,-0.38951,-4.1465
0.28634,0.0076297,-0.003769,0.039085,-0.14197,0.027367,0.18419,-0.070425,-0.11443,-0.013593,0.030443,0.20561,0.29125,-0.078253,-0.014225,-0.11002,0.05575,0.0028782,-0.12148,-0.18005,-0.084795,2.2199,-0.45726,-3.7172
0.27636,0.010837,4.7177e-005,0.044069,-0.14876,0.057814,0.18314,-0.039402,-0.095713,-0.041529,0.031943,0.27354,0.32449,0.025694,-0.05566,-0.2527,0.052481,-0.00022686,-0.13128,-0.11619,-0.17096,1.8666,-0.47623,-3.0976
0.24947,0.016738,0.00083205,0.045508,-0.14944,0.070289,0.18542,-0.00069369,-0.08324,-0.010008,0.033645,0.31872,0.36187,-0.0062275,-0.085025,-0.37829,0.053135,-0.00042065,-0.14433,-0.049557,-0.22208,1.4463,-0.43759,-2.4305
0.20032,0.020792,-0.00068238,0.042599,-0.15313,0.050149,0.18329,0.031029,-0.081217,0.069339,0.035093,0.32891,0.39307,-0.16869,-0.099,-0.45303,0.061179,0.0021377,-0.15863,0.0035069,-0.24005,1.0286,-0.35464,-1.8644
0.1332,0.019509,-0.0028348,0.036635,-0.16464,0.0011679,0.1752,0.04424,-0.087213,0.1664,0.035702,0.30463,0.41913,-0.38736,-0.1016,-0.45951,0.074772,0.0068185,-0.16896,0.036515,-0.24004,0.63129,-0.25249,-1.464
0.059779,0.013265,-0.004366,0.030214,-0.18226,-0.058031,0.16534,0.036397,-0.093265,0.24835,0.035509,0.26099,0.45082,-0.55471,-0.10117,-0.40596,0.087421,0.012556,-0.17046,0.05697,-0.24157,0.23497,-0.1537,-1.1838
-0.0066839,0.0061444,-0.0049949,0.025602,-0.19918,-0.10598,0.15883,0.014838,-0.090539,0.29755,0.035424,0.21993,0.49817,-0.58849,-0.10444,-0.3219,0.092873,0.017738,-0.16228,0.079744,-0.25736,-0.17145,-0.070545,-0.9226
-0.057234,0.002907,-0.005129,0.02356,-0.20772,-0.13032,0.15725,-0.0083622,-0.074259,0.31943,0.0369,0.19723,0.56025,-0.47429,-0.11282,-0.24346,0.090139,0.020418,-0.1482,0.11442,-0.28719,-0.55594,-0.0073233,-0.61369
-0.090383,0.0054398,-0.0052162,0.023408,-0.20355,-0.13259,0.15829,-0.024227,-0.045607,0.33408,0.041342,0.19364,0.62314,-0.26351,-0.12365,-0.19659,0.084214,0.019193,-0.13371,0.15651,-0.32023,-0.85164,0.032665,-0.27883
-0.11146,0.011436,-0.005304,0.02399,-0.18797,-0.12401,0.15911,-0.03173,-0.0097372,0.35771,0.04959,0.19689,0.66782,-0.030842,-0.13441,-0.18642,0.081763,0.014322,-0.12177,0.18953,-0.34303,-1.0058,0.043798,-0.008526
-0.12886,0.016256,-0.0050577,0.024579,-0.16703,-0.11673,0.15942,-0.036269,0.028129,0.38791,0.061577,0.19266,0.68201,0.17435,-0.14526,-0.19819,0.085522,0.0080054,-0.11059,0.1965,-0.34667,-1.0306,0.021704,0.10795
-0.14915,0.016434,-0.0041124,0.02509,-0.14821,-0.11663,0.16134,-0.043614,0.065431,0.4047,0.076102,0.17557,0.66814,0.34607,-0.15776,-0.20883,0.092221,0.0032007,-0.095299,0.17196,-0.32841,-1.0118,-0.030361,0.043643
-0.17358,0.012127,-0.0024354,0.025732,-0.13671,-0.12202,0.1664,-0.054896,0.10215,0.38687,0.090789,0.15118,0.64273,0.50012,-0.17133,-0.20308,0.095646,0.0016389,-0.07216,0.12583,-0.28795,-1.0593,-0.099041,-0.15558
-0.19792,0.0066938,-0.00041133,0.026584,-0.13307,-0.12774,0.17287,-0.066842,0.13879,0.33078,0.10241,0.12854,0.62883,0.63749,-0.18132,-0.18402,0.092009,0.002647,-0.04225,0.076869,-0.22305,-1.2309,-0.16489,-0.40576
-0.21578,0.0038947,0.0013928,0.027401,-0.13331,-0.13017,0.17639,-0.076298,0.1748,0.25659,0.10763,0.1106,0.64629,0.72793,-0.18063,-0.17063,0.083058,0.0038611,-0.012007,0.041184,-0.12937,-1.4798,-0.20927,-0.62701
-0.22334,0.0049733,0.0025596,0.027617,-0.13119,-0.12876,0.17331,-0.08399,0.20889,0.19641,0.10396,0.091423,0.70437,0.72876,-0.16394,-0.18301,0.074662,0.0032898,0.0096502,0.024067,-0.0054978,-1.6656,-0.21842,-0.76293
-0.22215,0.0079011,0.0029748,0.026481,-0.12139,-0.12312,0.16385,-0.093408,0.24024,0.1736,0.090628,0.062247,0.7979,0.62234,-0.13129,-0.22586,0.072462,0.00094691,0.015743,0.019771,0.14036,-1.6212,-0.18318,-0.77828
-0.21797,0.0092871,0.0027522,0.023378,-0.10205,-0.10911,0.15225,-0.10582,0.26881,0.1887,0.069137,0.020384,0.90689,0.44015,-0.089469,-0.28293,0.078165,-0.0013603,0.0045759,0.017709,0.28762,-1.2334,-0.098336,-0.65511
-0.21661,0.0073108,0.002144,0.01823,-0.075631,-0.07889,0.14394,-0.11661,0.29385,0.22166,0.043221,-0.027526,0.99997,0.25371,-0.050475,-0.32786,0.088853,-0.0018087,-0.019653,0.0096792,0.40783,-0.49409,0.033646,-0.39876
-0.22012,0.0032373,0.0016089,0.011668,-0.047902,-0.026441,0.1421,-0.1173,0.31231,0.24716,0.018053,-0.07099,1.0435,0.13892,-0.027877,-0.3434,0.099061,-0.00021317,-0.049045,-0.0064898,0.47514,0.49598,0.19523,-0.044713
-0.22614,0.00027597,0.0018738,0.0046195,-0.025741,0.045462,0.14609,-0.10221,0.31958,0.25021,-0.0014751,-0.10494,1.0158,0.13831,-0.031679,-0.33367,0.10381,0.0019545,-0.075852,-0.027775,0.47747,1.5572,0.35064,0.34868
