2.1357e-009,1.1209e-009,-1.3872e-009,7.0806e-010,4.0033e-009,5.3442e-010,2.8071e-009,8.5468e-010,-8.8555e-010,6.1545e-010,1.5106e-009,9.7816e-010,4.0323e-010,1.1364e-009,1.1286e-009,-5.8072e-010,-6.5018e-010,-3.7236e-010,1.5029e-009,1.7171e-010,-4.804e-010,1.4811e-008,2.483e-009,8.5082e-010
5.8659e-008,3.1191e-008,-3.8155e-008,2.0006e-008,1.1043e-007,1.4903e-008,7.7795e-008,2.373e-008,-2.483e-008,1.6996e-008,4.2069e-008,2.7092e-008,1.1498e-008,3.1398e-008,3.0969e-008,-1.6225e-008,-1.7963e-008,-1.0224e-008,4.1666e-008,4.7179e-009,-1.3456e-008,4.0389e-007,6.8912e-008,2.3585e-008
7.8272e-007,4.2189e-007,-5.0958e-007,2.7478e-007,1.4809e-006,2.0213e-007,1.0479e-006,3.2e-007,-3.3864e-007,2.2823e-007,5.6985e-007,3.6474e-007,1.5899e-007,4.216e-007,4.1266e-007,-2.2038e-007,-2.4135e-007,-1.3619e-007,5.6164e-007,6.3033e-008,-1.8364e-007,5.3444e-006,9.2996e-007,3.1987e-007
6.759e-006,3.6953e-006,-4.4019e-006,2.444e-006,1.2862e-005,1.7764e-006,9.1388e-006,2.7924e-006,-2.9932e-006,1.9858e-006,5.0024e-006,3.1803e-006,1.4198e-006,3.6646e-006,3.5571e-006,-1.9387e-006,-2.1013e-006,-1.172e-006,4.9046e-006,5.4584e-007,-1.6268e-006,4.5708e-005,8.1295e-006,2.832e-006
4.2444e-005,2.3556e-005,-2.7635e-005,1.582e-005,8.1309e-005,1.1371e-005,5.8005e-005,1.7725e-005,-1.9274e-005,1.2584e-005,3.1989e-005,2.0187e-005,9.1977e-006,2.3171e-005,2.229e-005,-1.2414e-005,-1.3327e-005,-7.3177e-006,3.119e-005,3.446e-006,-1.0514e-005,0.0002839,5.1739e-005,1.8427e-005
0.00020645,0.00011643,-0.00013431,7.9386e-005,0.00039859,5.6483e-005,0.00028547,8.7211e-005,-9.6347e-005,6.1891e-005,0.00015877,9.9408e-005,4.6013e-005,0.00011352,0.00010816,-6.1645e-005,-6.5608e-005,-3.5282e-005,0.00015393,1.6915e-005,-5.2821e-005,0.0013642,0.0002554,9.4061e-005
0.00080878,0.00046413,-0.00052551,0.00032123,0.0015759,0.0002265,0.0011331,0.00034609,-0.00038896,0.00024578,0.00063631,0.00039512,0.00018466,0.00044815,0.00042262,-0.00024692,-0.00026082,-0.00013645,0.00061346,6.724e-005,-0.00021451,0.0052732,0.0010171,0.00039258
0.0026188,0.0015319,-0.001699,0.001076,0.0051593,0.0007529,0.0037248,0.0011379,-0.0013023,0.00080936,0.0021145,0.0013021,0.00060926,0.0014631,0.0013647,-0.00081929,-0.00085987,-0.00043361,0.0020278,0.00022265,-0.00072284,0.016835,0.0033548,0.0013785
0.0071334,0.0042641,-0.0046209,0.0030381,0.014243,0.0021133,0.010329,0.0031589,-0.0036842,0.0022518,0.0059354,0.0036259,0.0016779,0.0040213,0.0037076,-0.0022941,-0.0023947,-0.0011493,0.0056664,0.00062692,-0.0020575,0.045208,0.0093339,0.0041565
0.016539,0.010138,-0.010705,0.0073238,0.033575,0.0050747,0.024479,0.0075086,-0.0089212,0.0053637,0.01426,0.0086499,0.0038867,0.0094203,0.0085762,-0.0054939,-0.0057072,-0.0025578,0.013569,0.0015251,-0.0050067,0.10347,0.022188,0.010928
0.032865,0.020762,-0.02129,0.015199,0.068155,0.010519,0.050022,0.015439,-0.018654,0.011041,0.029596,0.017856,0.0075671,0.018957,0.017014,-0.011363,-0.011742,-0.0047667,0.028127,0.0032459,-0.010488,0.20381,0.045456,0.025328
0.056095,0.036806,-0.036506,0.027282,0.11967,0.018926,0.088625,0.02767,-0.033856,0.019756,0.053372,0.032128,0.012214,0.032903,0.029028,-0.020436,-0.020957,-0.0072957,0.050818,0.0061065,-0.018952,0.34803,0.08068,0.052168
0.081938,0.056552,-0.053985,0.042381,0.18189,0.029627,0.13647,0.043475,-0.053403,0.030828,0.083891,0.050632,0.015661,0.049272,0.042475,-0.032124,-0.032491,-0.0086139,0.080404,0.010243,-0.029407,0.51854,0.12434,0.096005
0.10114,0.075091,-0.068549,0.05675,0.23841,0.040324,0.1825,0.060169,-0.072974,0.041962,0.11497,0.070114,0.013801,0.063413,0.052726,-0.044313,-0.043608,-0.0060227,0.11172,0.015435,-0.038544,0.67928,0.16632,0.15836
0.10228,0.085433,-0.073948,0.064772,0.26673,0.04752,0.21112,0.073737,-0.085529,0.049701,0.13709,0.085502,0.0017218,0.069562,0.054056,-0.053896,-0.050173,0.0037205,0.13655,0.021057,-0.040807,0.79203,0.19268,0.23452
0.078087,0.081856,-0.066364,0.061497,0.24947,0.048133,0.20976,0.080676,-0.084107,0.050987,0.14171,0.092077,-0.023505,0.064307,0.042727,-0.05828,-0.048435,0.023019,0.1472,0.026242,-0.029977,0.83965,0.19325,0.31196
0.031775,0.063869,-0.047581,0.045926,0.18712,0.041585,0.17766,0.080069,-0.066025,0.045119,0.12685,0.088187,-0.059572,0.050007,0.020096,-0.056986,-0.03742,0.05189,0.14111,0.030271,-0.0018467,0.83469,0.17026,0.37305
-0.021619,0.037831,-0.024972,0.022704,0.10256,0.030865,0.12901,0.074251,-0.03585,0.034694,0.099942,0.076606,-0.09764,0.035183,-0.0067257,-0.051915,-0.020305,0.08719,0.12343,0.033026,0.043614,0.79678,0.14077,0.4025
-0.061917,0.014168,-0.0073473,0.0003176,0.03094,0.021327,0.086159,0.067205,-0.0043926,0.024456,0.074679,0.063148,-0.125,0.030325,-0.028033,-0.045637,-0.0033987,0.12322,0.10493,0.035209,0.10235,0.71041,0.12841,0.39658
-0.075303,0.001344,0.00085725,-0.013681,-0.00090066,0.017527,0.065826,0.0616,0.016757,0.018419,0.062837,0.053096,-0.13114,0.041164,-0.037008,-0.038837,0.0071379,0.15342,0.095945,0.038122,0.16878,0.50413,0.14727,0.36783
-0.062679,0.0007957,0.0025648,-0.017222,0.0084216,0.02016,0.068063,0.056789,0.02221,0.017201,0.066443,0.047831,-0.11372,0.064297,-0.033812,-0.029231,0.0088273,0.17221,0.1001,0.042962,0.23882,0.088221,0.18921,0.33988
-0.03803,0.0069293,0.0054745,-0.014444,0.034863,0.025536,0.076967,0.0496,0.016451,0.017678,0.076432,0.044179,-0.079857,0.089083,-0.025039,-0.013444,0.0041237,0.17609,0.11258,0.049964,0.31065,-0.55952,0.22557,0.33329
-0.017398,0.012325,0.01579,-0.011752,0.047223,0.028293,0.073448,0.037445,0.011133,0.015415,0.079375,0.037079,-0.041327,0.10501,-0.018701,0.0093175,-0.0016253,0.16402,0.12397,0.057949,0.38236,-1.3254,0.22499,0.35139
-0.0069838,0.0138,0.033513,-0.012308,0.029879,0.025432,0.050096,0.021169,0.017387,0.0080755,0.067366,0.023584,-0.0066484,0.10893,-0.018484,0.035022,-0.0040028,0.13747,0.12694,0.064666,0.44897,-1.981,0.17564,0.37731
-2.2353e-005,0.014082,0.053311,-0.013542,-0.007943,0.018471,0.016005,0.0050722,0.038416,-0.0029111,0.043412,0.0052023,0.023821,0.10624,-0.021747,0.056472,-0.002256,0.10054,0.12037,0.067891,0.50258,-2.303,0.095209,0.38692
0.015155,0.01779,0.069953,-0.0098175,-0.043004,0.011944,-0.012191,-0.0060861,0.067707,-0.013702,0.018279,-0.013126,0.055947,0.10509,-0.022669,0.067997,0.00095785,0.059647,0.10855,0.066626,0.53656,-2.2128,0.020351,0.3694
0.04311,0.025715,0.083073,0.002152,-0.058646,0.0095095,-0.024884,-0.010608,0.093954,-0.021153,0.0017972,-0.026549,0.094665,0.10873,-0.017735,0.069395,0.0022264,0.022052,0.096642,0.06168,0.55015,-1.8296,-0.017534,0.33955
0.075914,0.033009,0.096751,0.019974,-0.057128,0.011006,-0.026843,-0.010895,0.10881,-0.024945,-0.0041088,-0.033637,0.13768,0.11266,-0.0089182,0.065673,6.7397e-005,-0.0066333,0.08677,0.055272,0.54771,-1.3878,-0.01223,0.33005
0.098977,0.033138,0.1144,0.037259,-0.054183,0.01296,-0.031411,-0.011185,0.11155,-0.027,-0.0054738,-0.037155,0.17534,0.109,-0.0020588,0.062766,-0.0043643,-0.024751,0.07744,0.049983,0.53105,-1.0827,0.015753,0.36746
0.10271,0.023954,0.13402,0.048646,-0.062655,0.011989,-0.047598,-0.014072,0.1077,-0.028996,-0.010424,-0.041864,0.19674,0.093946,-0.0021099,0.062912,-0.008612,-0.034999,0.065835,0.04766,0.49072,-0.96115,0.035916,0.44876
0.089735,0.01012,0.14869,0.053569,-0.081098,0.007921,-0.072134,-0.018858,0.10343,-0.030481,-0.022976,-0.051087,0.19688,0.071437,-0.0094,0.063552,-0.010747,-0.042369,0.050194,0.048699,0.40591,-0.93257,0.02914,0.53683
0.071816,-0.00046138,0.15205,0.055497,-0.097172,0.0037868,-0.093263,-0.022981,0.1008,-0.029393,-0.041344,-0.064436,0.17921,0.050158,-0.01988,0.060314,-0.010196,-0.050835,0.030259,0.051837,0.25775,-0.87275,-0.0018318,0.5793
0.059743,-0.0030845,0.14408,0.057757,-0.10109,0.0027105,-0.10197,-0.024948,0.097271,-0.024416,-0.060904,-0.07813,0.15197,0.036644,-0.028698,0.051071,-0.0073987,-0.061007,0.0062553,0.05443,0.049329,-0.72051,-0.038398,0.53888
0.055343,8.7981e-005,0.13171,0.060169,-0.095522,0.0046895,-0.099836,-0.02596,0.089112,-0.016789,-0.078137,-0.087512,0.12219,0.030752,-0.033732,0.037467,-0.0031623,-0.070242,-0.02176,0.053311,-0.18296,-0.494,-0.061528,0.41444
0.051863,0.0021308,0.12365,0.059731,-0.092747,0.0063725,-0.09655,-0.028841,0.075111,-0.0097587,-0.092074,-0.090011,0.09212,0.027039,-0.03621,0.023043,0.0015237,-0.074898,-0.053271,0.046031,-0.37913,-0.23801,-0.064265,0.23927
0.041202,-0.0028299,0.12375,0.054491,-0.10276,0.0041455,-0.10027,-0.03538,0.057566,-0.0061001,-0.10301,-0.086694,0.060407,0.020209,-0.038464,0.010221,0.0054059,-0.07295,-0.086428,0.031822,-0.48465,0.025672,-0.053633,0.058287
0.020902,-0.015082,0.12847,0.046543,-0.12398,-0.0023669,-0.11021,-0.044569,0.040507,-0.0059698,-0.11089,-0.081468,0.025849,0.0094603,-0.041397,-0.00092316,0.0072838,-0.065183,-0.11845,0.011404,-0.48114,0.29302,-0.043302,-0.10003
-0.0048127,-0.029561,0.13044,0.040853,-0.14498,-0.0097847,-0.11818,-0.05321,0.027498,-0.0069983,-0.11521,-0.078472,-0.010042,-0.0018421,-0.044095,-0.011331,0.0068856,-0.054423,-0.14732,-0.014357,-0.39716,0.53757,-0.044075,-0.23836
-0.029554,-0.040167,0.12485,0.04072,-0.15471,-0.014072,-0.11702,-0.058225,0.021048,-0.0064563,-0.11617,-0.079245,-0.043541,-0.010283,-0.04558,-0.020875,0.0055701,-0.043693,-0.17296,-0.045592,-0.29024,0.69806,-0.0585,-0.38251
-0.04983,-0.044387,0.11342,0.044128,-0.15127,-0.014359,-0.10762,-0.058624,0.023474,-0.0035118,-0.115,-0.081469,-0.071155,-0.016231,-0.046529,-0.027791,0.0059249,-0.034713,-0.19609,-0.082617,-0.21204,0.72508,-0.081361,-0.5569
-0.06637,-0.044653,0.1027,0.044729,-0.14169,-0.013725,-0.098059,-0.055614,0.037283,0.00031359,-0.11293,-0.080197,-0.091451,-0.023964,-0.048896,-0.030132,0.010192,-0.027644,-0.21539,-0.12307,-0.18135,0.64615,-0.10398,-0.76128
-0.081752,-0.045848,0.098656,0.037067,-0.13427,-0.015981,-0.096278,-0.051052,0.06364,0.0026532,-0.10975,-0.070974,-0.10483,-0.038112,-0.053634,-0.027631,0.018579,-0.021929,-0.22581,-0.15947,-0.18291,0.57487,-0.11917,-0.96566
-0.097557,-0.051262,0.10185,0.021599,-0.13139,-0.021408,-0.10323,-0.045767,0.099702,0.0022715,-0.10391,-0.052958,-0.11194,-0.059465,-0.0588,-0.022056,0.028802,-0.017341,-0.22062,-0.18054,-0.18985,0.63468,-0.1246,-1.127
-0.1136,-0.06016,0.10717,0.004977,-0.12903,-0.025666,-0.11262,-0.039164,0.13738,-0.00012341,-0.094309,-0.029942,-0.11255,-0.083498,-0.060191,-0.015721,0.037331,-0.014343,-0.19669,-0.17706,-0.18903,0.85196,-0.12319,-1.2149
-0.12888,-0.0685,0.10773,-0.0049204,-0.12202,-0.023307,-0.11692,-0.030291,0.16559,-0.0026138,-0.082124,-0.0084293,-0.106,-0.10269,-0.054384,-0.0096272,0.041495,-0.013582,-0.15889,-0.14872,-0.18819,1.1137,-0.12063,-1.226
-0.14238,-0.07184,0.099738,-0.0050675,-0.10914,-0.012935,-0.11357,-0.019302,0.1756,-0.0034511,-0.070633,0.0061359,-0.092713,-0.11089,-0.041702,-0.0029698,0.040986,-0.01509,-0.11929,-0.10617,-0.20118,1.2383,-0.12131,-1.1761
-0.15287,-0.068121,0.084472,0.00070124,-0.093374,0.00075423,-0.1062,-0.0080524,0.16602,-0.0019533,-0.062987,0.01249,-0.075453,-0.10671,-0.026486,0.005622,0.037821,-0.018021,-0.090742,-0.065533,-0.22687,1.1111,-0.12535,-1.0788
-0.15866,-0.058448,0.06658,0.0054072,-0.078034,0.010183,-0.10017,0.00067371,0.1436,0.0014549,-0.059954,0.013828,-0.058881,-0.093744,-0.014208,0.016403,0.034923,-0.021165,-0.078991,-0.038573,-0.24288,0.7789,-0.12906,-0.9304
-0.15858,-0.045808,0.050459,0.0050078,-0.063498,0.010753,-0.097489,0.0047124,0.11868,0.0056914,-0.059737,0.015027,-0.047589,-0.077635,-0.0076936,0.027965,0.034329,-0.023732,-0.079334,-0.025783,-0.22082,0.42378,-0.12876,-0.71715
-0.1534,-0.033093,0.037758,0.001467,-0.047677,0.0043209,-0.095598,0.0037662,0.09802,0.0094828,-0.059982,0.018865,-0.043708,-0.062052,-0.0053991,0.038227,0.036134,-0.025618,-0.08068,-0.017923,-0.15043,0.23598,-0.1247,-0.44163
-0.14599,-0.021981,0.027379,0.00021497,-0.02934,-0.0026325,-0.090656,-0.00041151,0.080571,0.011728,-0.059974,0.024085,-0.045605,-0.046422,-0.0030071,0.045907,0.038667,-0.026943,-0.073859,-0.0045914,-0.051551,0.28115,-0.12173,-0.14435
-0.13932,-0.013085,0.017189,0.0044496,-0.01055,-0.0043871,-0.081698,-0.0048985,0.059507,0.011828,-0.060882,0.02676,-0.048511,-0.027006,0.0031408,0.051096,0.03968,-0.027424,-0.057776,0.017231,0.036568,0.45984,-0.12582,0.10128
-0.13391,-0.0066696,0.0056495,0.011517,0.0042346,-0.00024943,-0.071675,-0.0069719,0.029199,0.0099082,-0.063891,0.023807,-0.046802,-0.00065636,0.013526,0.054574,0.037803,-0.026332,-0.038972,0.041442,0.080201,0.58316,-0.13926,0.22402
-0.12733,-0.0029557,-0.0076709,0.014649,0.011436,0.0056438,-0.064803,-0.0052869,-0.0085295,0.0066933,-0.068133,0.015817,-0.036852,0.031441,0.025577,0.056764,0.033412,-0.023138,-0.025754,0.058635,0.070683,0.50377,-0.15866,0.19739
-0.11668,-0.0017921,-0.022389,0.0084596,0.010962,0.0082605,-0.063132,-0.00043841,-0.044152,0.0030249,-0.070606,0.0069191,-0.019189,0.062895,0.035882,0.057481,0.028355,-0.018228,-0.022281,0.063903,0.024908,0.20888,-0.17721,0.058241
-0.10194,-0.0022458,-0.037642,-0.006763,0.0060165,0.0056573,-0.065524,0.0052352,-0.066607,-0.00064718,-0.068314,0.0018248,0.0010351,0.085058,0.042508,0.056674,0.024689,-0.012946,-0.02725,0.059965,-0.030527,-0.18167,-0.18864,-0.11512
-0.086954,-0.0027965,-0.052258,-0.025709,0.00065182,-0.00012734,-0.069479,0.0085606,-0.070977,-0.0043754,-0.060749,0.0024503,0.015735,0.091933,0.045796,0.055205,0.023257,-0.0088759,-0.03715,0.053623,-0.076733,-0.49919,-0.18962,-0.25157
-0.076848,-0.0022079,-0.065149,-0.042854,-0.0027585,-0.0053656,-0.073452,0.0069182,-0.061575,-0.0083493,-0.050408,0.0067765,0.017539,0.083624,0.047549,0.054623,0.023128,-0.006933,-0.050027,0.049399,-0.10838,-0.62892,-0.17901,-0.32824
-0.074047,-0.0004766,-0.076064,-0.056871,-0.0043942,-0.0076918,-0.077251,-0.00042059,-0.048286,-0.012388,-0.040837,0.010763,0.0041346,0.065938,0.049678,0.055913,0.022389,-0.0069671,-0.06597,0.046063,-0.12702,-0.56663,-0.15642,-0.37437
-0.076419,0.00089437,-0.086087,-0.070599,-0.0062029,-0.0074722,-0.080477,-0.01176,-0.039555,-0.015705,-0.033953,0.011663,-0.019006,0.046597,0.053291,0.058397,0.01971,-0.0080755,-0.084406,0.038516,-0.13185,-0.40293,-0.12256,-0.43686
-0.079292,-0.00036966,-0.097061,-0.086668,-0.010542,-0.0069466,-0.081154,-0.023763,-0.037821,-0.017104,-0.029065,0.010019,-0.039862,0.031068,0.058464,0.059981,0.015449,-0.009282,-0.10176,0.022644,-0.11804,-0.25611,-0.081522,-0.53565
-0.079515,-0.0058851,-0.11002,-0.1029,-0.019113,-0.0083509,-0.076435,-0.03328,-0.040485,-0.015493,-0.024423,0.0088001,-0.045607,0.021071,0.064369,0.058751,0.011386,-0.010073,-0.11263,-0.0012941,-0.083843,-0.20119,-0.041789,-0.64429
-0.077844,-0.015286,-0.12387,-0.11198,-0.03222,-0.012503,-0.06502,-0.039036,-0.044582,-0.010521,-0.019688,0.010501,-0.030214,0.016373,0.069597,0.054611,0.0093184,-0.010522,-0.11383,-0.029134,-0.038486,-0.23697,-0.013503,-0.70965
-0.077507,-0.025882,-0.13572,-0.1062,-0.048147,-0.018483,-0.048989,-0.041929,-0.050462,-0.0030787,-0.016745,0.014738,0.00096372,0.017537,0.072801,0.049548,0.0096843,-0.01107,-0.10748,-0.055869,-0.0016493,-0.30408,-0.0028574,-0.69244
-0.080328,-0.033723,-0.14292,-0.083899,-0.062957,-0.024191,-0.033169,-0.043615,-0.061381,0.0046361,-0.017786,0.018406,0.033479,0.026444,0.073638,0.046251,0.011287,-0.012234,-0.099824,-0.078267,0.0067913,-0.33479,-0.0082233,-0.59355
-0.084145,-0.035633,-0.14525,-0.052505,-0.071448,-0.027369,-0.022313,-0.044562,-0.079862,0.0098291,-0.022303,0.018278,0.052356,0.043613,0.073466,0.046279,0.012202,-0.014406,-0.09625,-0.095187,-0.020561,-0.29826,-0.021724,-0.44501
-0.084172,-0.031002,-0.14541,-0.025581,-0.069518,-0.026752,-0.018218,-0.043354,-0.10452,0.010508,-0.026023,0.013879,0.051506,0.064706,0.074948,0.049198,0.010989,-0.017775,-0.096745,-0.10631,-0.073367,-0.21316,-0.035329,-0.2761
-0.077321,-0.022136,-0.14716,-0.015733,-0.056816,-0.022951,-0.018881,-0.038068,-0.13026,0.0068204,-0.023398,0.0082528,0.037352,0.080159,0.080337,0.053162,0.0072899,-0.022199,-0.095814,-0.11118,-0.12969,-0.12473,-0.046326,-0.087121
-0.065607,-0.012858,-0.15253,-0.027931,-0.037758,-0.018463,-0.020139,-0.028661,-0.15173,0.0012402,-0.012056,0.0060965,0.023934,0.079711,0.089342,0.056131,0.0016522,-0.02702,-0.087087,-0.10953,-0.16888,-0.068613,-0.057414,0.14391
-0.055285,-0.0063531,-0.16029,-0.057366,-0.019655,-0.016429,-0.018475,-0.018181,-0.16699,-0.0028694,0.0045422,0.01095,0.02303,0.059319,0.098313,0.056638,-0.0049168,-0.031011,-0.06878,-0.10228,-0.18223,-0.04996,-0.071585,0.42737
-0.052026,-0.0037393,-0.16684,-0.092666,-0.0086958,-0.018582,-0.013129,-0.011359,-0.17865,-0.0035367,0.018897,0.023697,0.036457,0.025126,0.10189,0.053834,-0.011213,-0.032817,-0.045501,-0.091616,-0.17502,-0.050571,-0.086795,0.73272
-0.056088,-0.004204,-0.16875,-0.12184,-0.0063674,-0.02377,-0.0062915,-0.01136,-0.19181,-0.0016112,0.024764,0.043168,0.055858,-0.0093675,0.096534,0.0474,-0.015991,-0.031895,-0.025137,-0.080058,-0.16057,-0.052323,-0.09572,0.99335
-0.061702,-0.0062599,-0.16497,-0.13714,-0.0088345,-0.028434,-0.0014009,-0.017234,-0.21051,-0.00013286,0.021832,0.067591,0.069466,-0.031733,0.083483,0.037892,-0.018338,-0.029338,-0.013672,-0.069286,-0.15159,-0.053252,-0.09126,1.1454
-0.061444,-0.0089358,-0.1573,-0.13656,-0.0098218,-0.029124,-0.00067235,-0.024269,-0.23552,-0.0020332,0.015864,0.095117,0.070371,-0.038853,0.06863,0.027241,-0.018224,-0.027653,-0.012164,-0.060014,-0.15456,-0.062639,-0.073207,1.1695
-0.052033,-0.012066,-0.149,-0.12225,-0.0049546,-0.025377,-0.0034423,-0.02721,-0.26458,-0.0079455,0.014029,0.12305,0.060366,-0.038998,0.058756,0.018497,-0.016593,-0.029194,-0.017684,-0.05275,-0.16898,-0.08313,-0.050242,1.1019
-0.036771,-0.015788,-0.14276,-0.098235,0.0055688,-0.02056,-0.0064803,-0.02394,-0.29416,-0.015781,0.019185,0.14716,0.047402,-0.04623,0.056598,0.014402,-0.014537,-0.03416,-0.02641,-0.04819,-0.19017,-0.10044,-0.035329,1.0057
-0.022713,-0.019975,-0.13931,-0.068922,0.017812,-0.019609,-0.0061576,-0.016781,-0.3209,-0.022234,0.027868,0.16257,0.039485,-0.071247,0.058648,0.015606,-0.011972,-0.039874,-0.035705,-0.046414,-0.21276,-0.0928,-0.03804,0.92875
-0.015157,-0.02412,-0.13738,-0.038945,0.027589,-0.025107,-0.0010006,-0.010413,-0.34136,-0.024866,0.033638,0.16617,0.03986,-0.11514,0.057877,0.020006,-0.0071359,-0.042345,-0.043828,-0.045656,-0.23311,-0.051564,-0.059663,0.88105
-0.014131,-0.027618,-0.135,-0.01306,0.033765,-0.034803,0.0072338,-0.0081181,-0.35084,-0.023248,0.032864,0.15842,0.046497,-0.16999,0.049675,0.02399,0.0021078,-0.039268,-0.04872,-0.042417,-0.25,0.0079482,-0.094229,0.84581
-0.015448,-0.030068,-0.13104,0.0046829,0.038823,-0.042858,0.014785,-0.0093166,-0.34314,-0.018644,0.027963,0.14298,0.055218,-0.22525,0.036344,0.024781,0.015736,-0.03215,-0.048124,-0.033652,-0.26356,0.057927,-0.13355,0.80619
-0.014745,-0.03137,-0.12622,0.012272,0.04644,-0.044124,0.018509,-0.010307,-0.31262,-0.012906,0.025353,0.1243,0.063268,-0.27502,0.026166,0.022046,0.029984,-0.025627,-0.041393,-0.019511,-0.27347,0.083023,-0.17141,0.75951
-0.010553,-0.031697,-0.12258,0.010473,0.058251,-0.038143,0.017984,-0.0074547,-0.25787,-0.0074402,0.029986,0.10535,0.070457,-0.32141,0.027292,0.017548,0.038731,-0.02424,-0.031005,-0.0040276,-0.27744,0.096143,-0.20372,0.70703
-0.0038206,-0.031449,-0.12178,0.0022115,0.072562,-0.029553,0.015706,-0.0001252,-0.18399,-0.0026669,0.041209,0.087427,0.07755,-0.37217,0.041053,0.013214,0.037615,-0.029072,-0.021664,0.0073388,-0.27163,0.12983,-0.22599,0.63512
0.0050585,-0.031113,-0.12332,-0.009081,0.085956,-0.02449,0.015474,0.0090428,-0.10139,0.0020662,0.053378,0.071732,0.084022,-0.43448,0.060076,0.0093364,0.027958,-0.036886,-0.01727,0.011512,-0.25318,0.2096,-0.23226,0.51333
0.018475,-0.030948,-0.12443,-0.02102,0.096184,-0.025897,0.020221,0.016619,-0.021305,0.0080817,0.060448,0.060688,0.087711,-0.50888,0.072951,0.0043548,0.017008,-0.04244,-0.018351,0.0097704,-0.22294,0.33175,-0.21789,0.3178
0.040855,-0.030626,-0.12181,-0.032772,0.10362,-0.031591,0.030567,0.021304,0.048965,0.016398,0.060545,0.057311,0.086802,-0.58687,0.072048,-0.0036945,0.013561,-0.042113,-0.02236,0.0062548,-0.18617,0.46388,-0.18431,0.061785
0.075708,-0.029184,-0.11433,-0.044476,0.10997,-0.036494,0.044667,0.024647,0.10739,0.026525,0.056903,0.063041,0.08204,-0.65339,0.058583,-0.015358,0.021857,-0.036133,-0.026454,0.0045422,-0.14996,0.56662,-0.14063,-0.1969
0.12317,-0.0255,-0.10413,-0.056321,0.11557,-0.036968,0.059099,0.028961,0.15441,0.035956,0.05494,0.076141,0.076398,-0.69282,0.041271,-0.029067,0.038431,-0.027976,-0.029885,0.0054195,-0.1195,0.61799,-0.099385,-0.38475
0.17995,-0.019007,-0.095246,-0.068067,0.11812,-0.033517,0.070315,0.034473,0.18877,0.041189,0.058263,0.09233,0.0717,-0.69494,0.029801,-0.042102,0.054546,-0.021816,-0.033511,0.0075759,-0.096236,0.62152,-0.068825,-0.46064
0.24101,-0.010097,-0.090517,-0.079251,0.1143,-0.029822,0.076127,0.038551,0.20609,0.039917,0.066645,0.10719,0.065054,-0.65805,0.028075,-0.052446,0.062383,-0.020108,-0.037047,0.0099591,-0.079846,0.59524,-0.048117,-0.44738
0.30127,9.4578e-005,-0.089592,-0.089705,0.10289,-0.029312,0.076701,0.037912,0.20176,0.032812,0.076855,0.11822,0.049021,-0.58818,0.031903,-0.060194,0.060129,-0.022807,-0.037224,0.013071,-0.072162,0.55371,-0.029813,-0.42055
0.35572,0.010285,-0.089542,-0.099816,0.086278,-0.032404,0.074547,0.03185,0.17559,0.023284,0.085009,0.1249,0.016638,-0.49628,0.032252,-0.067515,0.052124,-0.028168,-0.02938,0.017892,-0.079445,0.4985,-0.0078313,-0.45936
0.39914,0.019487,-0.087496,-0.11017,0.068589,-0.036617,0.073283,0.0234,0.13403,0.015195,0.088591,0.12697,-0.03235,-0.3957,0.021284,-0.07719,0.044358,-0.034026,-0.011501,0.023831,-0.11005,0.42191,0.015923,-0.59241
0.42654,0.027037,-0.082793,-0.12061,0.051945,-0.039048,0.075587,0.017152,0.087543,0.010283,0.08735,0.12293,-0.089819,-0.30101,-0.0029612,-0.090589,0.039389,-0.038644,0.013111,0.028266,-0.16804,0.31746,0.032314,-0.77543
0.4352,0.032488,-0.07676,-0.12925,0.034421,-0.038781,0.081428,0.015505,0.045287,0.0073216,0.083241,0.11032,-0.14472,-0.22673,-0.035795,-0.10622,0.034859,-0.040991,0.037492,0.028597,-0.24628,0.18786,0.032744,-0.9159
0.42661,0.035748,-0.07065,-0.13222,0.011918,-0.037201,0.087791,0.016654,0.011379,0.0035358,0.079657,0.087731,-0.19171,-0.18424,-0.068721,-0.11962,0.026417,-0.040848,0.055972,0.025033,-0.32396,0.047287,0.017283,-0.92773
0.4064,0.037441,-0.064051,-0.12474,-0.017411,-0.036282,0.090367,0.016055,-0.014704,-0.0031007,0.079979,0.056904,-0.2352,-0.17709,-0.093628,-0.12489,0.012127,-0.038898,0.068138,0.021266,-0.37166,-0.079445,-0.0039642,-0.78054
0.38154,0.038917,-0.055549,-0.1037,-0.050111,-0.036631,0.086366,0.010051,-0.034913,-0.012569,0.085667,0.023006,-0.28396,-0.19788,-0.10604,-0.11737,-0.0055533,-0.036621,0.078241,0.022002,-0.36371,-0.15867,-0.017642,-0.51419
0.35645,0.041471,-0.044953,-0.070361,-0.07872,-0.037098,0.076566,-0.0014563,-0.050127,-0.0232,0.094927,-0.0073437,-0.3399,-0.23046,-0.10632,-0.096586,-0.021629,-0.035731,0.090571,0.029208,-0.29302,-0.15298,-0.016339,-0.21367
0.33078,0.045142,-0.034635,-0.031389,-0.0966,-0.036112,0.064997,-0.015352,-0.060452,-0.032945,0.10311,-0.029228,-0.39071,-0.25781,-0.098904,-0.067896,-0.032342,-0.037299,0.10497,0.040313,-0.17955,-0.032303,-0.0024851,0.035592
0.30064,0.048143,-0.028225,0.0032083,-0.10241,-0.033393,0.05621,-0.028018,-0.067016,-0.040306,0.10509,-0.041781,-0.41464,-0.27127,-0.090255,-0.041362,-0.037558,-0.0411,0.11639,0.049946,-0.064871,0.21259,0.016023,0.18285
0.26252,0.047749,-0.027514,0.024721,-0.10064,-0.030412,0.052033,-0.037892,-0.072415,-0.044509,0.098278,-0.048264,-0.3957,-0.27498,-0.086051,-0.02745,-0.040092,-0.045653,0.11868,0.053734,0.0082345,0.56375,0.03413,0.21966
0.21717,0.042248,-0.030384,0.030289,-0.098012,-0.029226,0.050371,-0.045874,-0.078704,-0.045394,0.084134,-0.053852,-0.33821,-0.28209,-0.088597,-0.031434,-0.043035,-0.04904,0.10908,0.050961,0.02094,0.98326,0.054239,0.16302
0.17034,0.032476,-0.031969,0.024269,-0.098915,-0.030773,0.047134,-0.053687,-0.08493,-0.043469,0.067191,-0.062581,-0.26812,-0.30488,-0.095653,-0.049956,-0.047598,-0.050018,0.089667,0.044071,-0.0077381,1.4288,0.083059,0.033187
0.12992,0.021598,-0.028386,0.015213,-0.10346,-0.034148,0.039905,-0.061898,-0.087193,-0.040008,0.052148,-0.07549,-0.21798,-0.34551,-0.10173,-0.072586,-0.053021,-0.04882,0.065213,0.035911,-0.02994,1.864,0.12373,-0.15505
0.10105,0.013153,-0.019976,0.010423,-0.10902,-0.037445,0.03038,-0.069254,-0.08193,-0.036747,0.041146,-0.091178,-0.20549,-0.39333,-0.10155,-0.087943,-0.058,-0.04714,0.039887,0.027528,0.0023706,2.2544,0.17047,-0.38394
0.08291,0.0088181,-0.011185,0.011869,-0.11306,-0.039284,0.02349,-0.073601,-0.069748,-0.035214,0.032987,-0.10821,-0.22165,-0.43018,-0.093731,-0.090341,-0.061966,-0.047212,0.015924,0.018467,0.1068,2.558,0.21084,-0.6207
0.06932,0.0075734,-0.0070417,0.016297,-0.11468,-0.039591,0.023772,-0.073449,-0.056199,-0.036182,0.024648,-0.12732,-0.23802,-0.44008,-0.081857,-0.082224,-0.065149,-0.050392,-0.0051734,0.0088313,0.25841,2.7287,0.23373,-0.81968
0.053056,0.0068192,-0.009089,0.019071,-0.11373,-0.038971,0.031825,-0.068996,-0.048398,-0.039696,0.01388,-0.1514,-0.22756,-0.41748,-0.072188,-0.070959,-0.067868,-0.055997,-0.020861,0.00057348,0.40409,2.7403,0.23679,-0.94323
0.030881,0.0044537,-0.014098,0.018496,-0.10945,-0.037443,0.043598,-0.062022,-0.050078,-0.045395,0.0010463,-0.1829,-0.18276,-0.36953,-0.069464,-0.063089,-0.070153,-0.061224,-0.027529,-0.0037045,0.49328,2.6153,0.2271,-0.98657
0.0057615,0.00033198,-0.016553,0.01717,-0.10037,-0.033976,0.052973,-0.054853,-0.059138,-0.052524,-0.011016,-0.22076,-0.11713,-0.3116,-0.074095,-0.060882,-0.072064,-0.0625,-0.022469,-0.0034621,0.50416,2.4291,0.21511,-0.98377
-0.0154,-0.0038557,-0.012794,0.019488,-0.08593,-0.027478,0.055596,-0.04907,-0.069535,-0.059538,-0.019,-0.25937,-0.050163,-0.25876,-0.08264,-0.0632,-0.074024,-0.05767,-0.0059056,-0.0016429,0.44918,2.2722,0.20686,-0.98537
-0.027058,-0.0060074,-0.0034891,0.027539,-0.067947,-0.018386,0.051221,-0.044736,-0.075716,-0.064001,-0.021638,-0.29098,0.0096897,-0.21789,-0.090643,-0.068311,-0.076373,-0.047681,0.018924,-0.0029384,0.35979,2.1903,0.20058,-1.0226
-0.029643,-0.0052207,0.0072386,0.038835,-0.050267,-0.0091867,0.04333,-0.040619,-0.075907,-0.063574,-0.020974,-0.30999,0.068482,-0.18496,-0.09509,-0.074765,-0.078432,-0.03644,0.047688,-0.0099373,0.26375,2.1485,0.18946,-1.0873
-0.030152,-0.0025185,0.014998,0.047676,-0.036592,-0.0030513,0.036786,-0.0353,-0.071991,-0.057804,-0.021401,-0.31577,0.13434,-0.14887,-0.094719,-0.07938,-0.078245,-0.028633,0.076952,-0.02038,0.17161,2.0507,0.1679,-1.144
-0.038109,-0.00031654,0.017961,0.049045,-0.028256,-0.0015045,0.035226,-0.028463,-0.066891,-0.04924,-0.026999,-0.31191,0.20244,-0.099762,-0.088975,-0.075589,-0.073759,-0.026835,0.10442,-0.028062,0.079338,1.8026,0.13617,-1.1638
-0.059576,-0.0010759,0.017452,0.042051,-0.023713,-0.003111,0.039395,-0.021394,-0.06224,-0.042452,-0.038933,-0.30254,0.25356,-0.03618,-0.077702,-0.055925,-0.06466,-0.029951,0.12764,-0.026975,-0.01874,1.3704,0.10056,-1.1497
-0.093312,-0.0060031,0.016429,0.030438,-0.019875,-0.0044419,0.046783,-0.01624,-0.058249,-0.041153,-0.054754,-0.28905,0.2691,0.033734,-0.062336,-0.018235,-0.053174,-0.034224,0.14335,-0.015587,-0.1191,0.79131,0.069723,-1.1291
-0.13163,-0.014524,0.017444,0.020002,-0.014017,-0.0026411,0.052612,-0.014457,-0.055148,-0.045482,-0.070146,-0.27034,0.24819,0.098128,-0.046944,0.029625,-0.042846,-0.036064,0.14895,0.0018631,-0.209,0.13368,0.050433,-1.1212
-0.16512,-0.024696,0.021498,0.014912,-0.004943,0.0025182,0.052117,-0.015613,-0.054085,-0.051745,-0.081926,-0.24626,0.20876,0.15019,-0.036906,0.072044,-0.036158,-0.034504,0.14526,0.017869,-0.27556,-0.54921,0.045449,-1.11
-0.18767,-0.034127,0.028092,0.015501,0.006932,0.0087974,0.043449,-0.017501,-0.056171,-0.055089,-0.090107,-0.22116,0.16961,0.19328,-0.035371,0.09468,-0.032939,-0.031307,0.13756,0.026022,-0.3144,-1.2297,0.053869,-1.0466
-0.19847,-0.040819,0.035888,0.018778,0.020116,0.013685,0.029478,-0.017581,-0.060602,-0.053135,-0.097539,-0.20352,0.13018,0.23849,-0.040456,0.093647,-0.03086,-0.028774,0.13288,0.024375,-0.32942,-1.8764,0.072513,-0.88274
-0.20016,-0.043629,0.043336,0.020936,0.032789,0.016683,0.01671,-0.014693,-0.064083,-0.047681,-0.10745,-0.20122,0.069401,0.29672,-0.046235,0.077304,-0.0275,-0.027318,0.13485,0.016035,-0.32414,-2.4268,0.096504,-0.60673
-0.19536,-0.042525,0.049152,0.019917,0.04366,0.019739,0.011281,-0.0097653,-0.062687,-0.043103,-0.12074,-0.21584,-0.032151,0.37144,-0.047318,0.059041,-0.022257,-0.025094,0.14019,0.0071577,-0.29335,-2.8033,0.11844,-0.2552
-0.1848,-0.038793,0.052745,0.016326,0.052692,0.025532,0.014568,-0.0050002,-0.054921,-0.042766,-0.13501,-0.24072,-0.16591,0.45782,-0.043162,0.047141,-0.016696,-0.020076,0.14022,0.0037879,-0.22414,-2.9768,0.12705,0.10373
-0.16819,-0.034951,0.054557,0.012394,0.061107,0.035218,0.021939,-0.002231,-0.043295,-0.046317,-0.14589,-0.26473,-0.29072,0.54823,-0.038136,0.040146,-0.013322,-0.012648,0.12695,0.0092772,-0.10644,-3.0251,0.1069,0.39995
-0.14666,-0.033877,0.056016,0.010133,0.070344,0.047608,0.02604,-0.0017142,-0.032736,-0.049968,-0.14953,-0.2792,-0.358,0.63879,-0.037138,0.031002,-0.013822,-0.0061201,0.099196,0.023382,0.055722,-3.1262,0.040482,0.58452
-0.12399,-0.037159,0.058876,0.01022,0.080553,0.060364,0.022293,-0.0022058,-0.026903,-0.049436,-0.14457,-0.28289,-0.34693,0.73098,-0.040789,0.015327,-0.017987,-0.0044018,0.064096,0.04316,0.24227,-3.4686,-0.086678,0.64161
-0.10522,-0.043683,0.064129,0.012268,0.09002,0.071929,0.012197,-0.0021344,-0.025405,-0.043127,-0.13238,-0.28145,-0.27938,0.82681,-0.044711,-0.0041,-0.023757,-0.0086677,0.032692,0.064733,0.42574,-4.1302,-0.27866,0.59439
-0.093793,-0.049863,0.07115,0.015817,0.096328,0.082331,0.0017311,-0.00090465,-0.024228,-0.033135,-0.11612,-0.28215,-0.2008,0.92201,-0.043525,-0.02047,-0.028219,-0.015961,0.013003,0.084509,0.58237,-5.0074,-0.52183,0.50491
-0.089527,-0.051916,0.07778,0.020771,0.098524,0.092171,-0.0037348,0.00062124,-0.018975,-0.023408,-0.099245,-0.28811,-0.14335,1.0037,-0.035742,-0.030143,-0.02899,-0.021106,0.0054619,0.099068,0.69612,-5.8515,-0.78165,0.45875
-0.089144,-0.048722,0.081566,0.026796,0.098406,0.10097,-0.0036679,0.00075214,-0.0081228,-0.01676,-0.08452,-0.29581,-0.1029,1.0557,-0.024912,-0.036715,-0.025424,-0.020474,0.003495,0.10438,0.75478,-6.3939,-1.0079,0.52875
-0.088775,-0.042898,0.081475,0.032505,0.099591,0.10668,-0.0022498,-0.0017484,0.0063101,-0.013156,-0.07362,-0.29713,-0.048963,1.0672,-0.01606,-0.047945,-0.019086,-0.014481,-0.0018528,0.096032,0.74593,-6.4798,-1.1495,0.73247
-0.086209,-0.038837,0.078852,0.035676,0.10492,0.10702,-0.0042834,-0.0065636,0.020888,-0.010529,-0.066989,-0.28388,0.043176,1.0393,-0.010907,-0.068317,-0.013099,-0.0067979,-0.016713,0.071458,0.6606,-6.1262,-1.1735,1.0142
-0.081159,-0.03903,0.076642,0.034735,0.1143,0.10153,-0.010872,-0.011649,0.033475,-0.0071414,-0.063911,-0.2519,0.16759,0.98409,-0.0064161,-0.094005,-0.010476,-0.0010354,-0.041577,0.032888,0.50287,-5.4766,-1.0804,1.2726
-0.073818,-0.041704,0.077175,0.030234,0.12475,0.092387,-0.018578,-0.014237,0.044227,-0.0032015,-0.062846,-0.2029,0.29157,0.91731,0.0020646,-0.11481,-0.012236,0.0021928,-0.071672,-0.011687,0.29486,-4.6989,-0.90436,1.4208
-0.063546,-0.04195,0.080114,0.024784,0.13265,0.08306,-0.02255,-0.012563,0.054509,-0.00023308,-0.062164,-0.1439,0.38274,0.85149,0.016112,-0.12167,-0.016487,0.0053621,-0.09949,-0.051419,0.068728,-3.9036,-0.6978,1.4363
-0.049224,-0.035654,0.082413,0.021273,0.13625,0.076018,-0.020701,-0.0072358,0.065445,0.0010769,-0.060956,-0.084718,0.43379,0.7929,0.032315,-0.1138,-0.019272,0.011367,-0.11788,-0.078034,-0.15096,-3.1252,-0.50636,1.3635
-0.030864,-0.023022,0.080695,0.020943,0.13658,0.071291,-0.015368,-0.0011466,0.077709,0.0022349,-0.059337,-0.034407,0.46299,0.74359,0.044776,-0.10015,-0.016882,0.020556,-0.12246,-0.089875,-0.35988,-2.3555,-0.34862,1.2688
-0.010644,-0.0087361,0.074351,0.023071,0.13603,0.067055,-0.011322,0.0023132,0.092399,0.005854,-0.057828,0.0023955,0.49238,0.70466,0.049692,-0.094139,-0.008295,0.0301,-0.11251,-0.091252,-0.56918,-1.5788,-0.21177,1.1881
0.0079765,0.0014226,0.066752,0.026416,0.13612,0.061494,-0.012071,0.0016243,0.11127,0.012942,-0.056173,0.027408,0.52571,0.6772,0.048151,-0.10538,0.00381,0.0362,-0.09014,-0.087486,-0.78516,-0.78142,-0.066132,1.1082
0.022361,0.0046562,0.063226,0.030776,0.13636,0.054224,-0.017577,-0.0017318,0.13525,0.021283,-0.052629,0.047611,0.54687,0.66092,0.045097,-0.13366,0.014194,0.037158,-0.058533,-0.079779,-0.99017,0.050956,0.10972,0.99069
0.032031,0.002635,0.06714,0.036917,0.13482,0.04617,-0.024902,-0.0044319,0.16242,0.026932,-0.044643,0.071277,0.5394,0.65298,0.045674,-0.16868,0.017765,0.034662,-0.020648,-0.064323,-1.1422,0.92044,0.30852,0.8106
0.037969,-0.0005339,0.077124,0.04492,0.13,0.038335,-0.030789,-0.0039323,0.18775,0.027881,-0.030778,0.10332,0.50717,0.6491,0.051823,-0.19549,0.012302,0.032237,0.020299,-0.036607,-1.1959,1.7879,0.49207,0.57321
0.040829,-0.0017202,0.087669,0.052733,0.12204,0.030827,-0.033849,-0.00037867,0.20589,0.026548,-0.012511,0.14283,0.47558,0.6456,0.061227,-0.20267,-0.00034098,0.032298,0.059113,0.0026141,-1.1297,2.5644,0.6109,0.3017
0.040156,-0.00052065,0.092623,0.056693,0.11252,0.023054,-0.034817,0.0038108,0.21525,0.028344,0.0057479,0.1841,0.47121,0.63955,0.068693,-0.18843,-0.015148,0.034361,0.087821,0.044675,-0.95735,3.1555,0.63528,0.01795
0.035627,0.0017722,0.088869,0.053899,0.10313,0.014704,-0.035155,0.0062152,0.22018,0.037064,0.018873,0.21985,0.49831,0.6263,0.068868,-0.16108,-0.026375,0.035915,0.097716,0.076117,-0.71569,3.5365,0.57761,-0.25936
0.028911,0.0043454,0.07765,0.044525,0.094483,0.0063787,-0.035495,0.0063796,0.22917,0.051012,0.024153,0.24429,0.53424,0.5975,0.059058,-0.1333,-0.030106,0.035099,0.083766,0.085488,-0.43958,3.79,0.48944,-0.50086
0.023753,0.0076889,0.063188,0.032149,0.086012,-0.0008243,-0.035189,0.0057455,0.25063,0.063605,0.023032,0.25437,0.54896,0.54366,0.041264,-0.11378,-0.025615,0.032782,0.048392,0.069195,-0.14586,4.0516,0.43202,-0.66224
0.023483,0.012341,0.050178,0.021848,0.076827,-0.006388,-0.033103,0.005898,0.28909,0.068435,0.020056,0.24977,0.5318,0.46117,0.022369,-0.10179,-0.015013,0.032171,0.0015381,0.032906,0.1613,4.3908,0.43908,-0.70699
0.027914,0.01728,0.041945,0.017499,0.066651,-0.011055,-0.028769,0.0071192,0.34432,0.064711,0.019733,0.23279,0.50188,0.35836,0.011508,-0.088741,-0.0015848,0.036273,-0.043445,-0.011505,0.47107,4.7251,0.49771,-0.64157
0.032709,0.020172,0.039711,0.020084,0.056057,-0.016459,-0.022913,0.0087088,0.41237,0.058331,0.023628,0.20838,0.49221,0.25423,0.014879,-0.066091,0.012099,0.045369,-0.075616,-0.050848,0.75305,4.8563,0.56116,-0.5261
0.032346,0.019628,0.042517,0.027685,0.045923,-0.024016,-0.017028,0.010468,0.48653,0.057377,0.029809,0.18325,0.52031,0.16846,0.030603,-0.033643,0.025243,0.056639,-0.090721,-0.074698,0.96562,4.6172,0.58364,-0.43953
0.024475,0.01721,0.047577,0.036684,0.03668,-0.034012,-0.01243,0.013412,0.55724,0.065594,0.034812,0.16345,0.5698,0.10943,0.04768,-0.0016978,0.038507,0.066191,-0.092349,-0.077827,1.0802,4.0148,0.55092,-0.42099
0.01201,0.016773,0.051442,0.04324,0.027977,-0.045553,-0.0095452,0.018653,0.61257,0.079255,0.036376,0.15139,0.5981,0.069113,0.051413,0.015417,0.052619,0.071709,-0.090306,-0.061488,1.1002,3.2479,0.48452,-0.43819
0.001129,0.021277,0.051933,0.044518,0.018987,-0.057285,-0.0078831,0.025586,0.64118,0.090013,0.03481,0.14478,0.56426,0.028951,0.033016,0.010064,0.066932,0.073575,-0.096977,-0.033626,1.0569,2.5769,0.41982,-0.41631
-0.0030893,0.029951,0.049634,0.039574,0.0091109,-0.068163,-0.0064947,0.031512,0.63729,0.091346,0.03224,0.13879,0.45515,-0.028067,-0.0031504,-0.011975,0.079065,0.073802,-0.12203,-0.0070493,0.98376,2.1486,0.37814,-0.30897
0.00030447,0.038698,0.047336,0.029812,-0.0014179,-0.07767,-0.0043931,0.033532,0.60426,0.083264,0.030745,0.1299,0.29118,-0.10789,-0.040973,-0.034493,0.086116,0.074031,-0.16643,0.0052428,0.89215,1.917,0.35537,-0.15132
0.0087019,0.043678,0.047426,0.018697,-0.01149,-0.085431,-0.00054299,0.031124,0.55341,0.071606,0.031024,0.11821,0.10952,-0.20422,-0.062957,-0.041945,0.086705,0.074469,-0.2186,-0.0037583,0.76904,1.7174,0.33298,-0.045838
0.019071,0.044809,0.049363,0.010484,-0.019714,-0.090724,0.0064117,0.026908,0.49785,0.062932,0.032356,0.10621,-0.060053,-0.30419,-0.06254,-0.030411,0.082318,0.074542,-0.25669,-0.030897,0.6002,1.4206,0.298,-0.086852
0.030482,0.045772,0.049825,0.0083207,-0.025249,-0.092449,0.018064,0.024677,0.44548,0.05954,0.0334,0.09519,-0.20829,-0.39527,-0.048786,-0.010034,0.076711,0.074363,-0.25826,-0.064007,0.39725,1.0345,0.25339,-0.28388
0.043805,0.050318,0.045739,0.012724,-0.028196,-0.089673,0.03532,0.026409,0.39607,0.058602,0.032926,0.083068,-0.34121,-0.46921,-0.039229,0.0028697,0.073567,0.07539,-0.21294,-0.088416,0.20282,0.67444,0.21172,-0.54804
0.059229,0.058326,0.037493,0.021446,-0.029172,-0.082354,0.056912,0.030975,0.34401,0.055537,0.030111,0.065985,-0.46423,-0.5233,-0.046041,-0.0023848,0.074115,0.079492,-0.12987,-0.094873,0.066706,0.44748,0.18098,-0.75445
0.074327,0.065436,0.029104,0.030932,-0.028414,-0.071613,0.078522,0.035653,0.28421,0.0482,0.024702,0.042375,-0.57082,-0.56058,-0.066446,-0.024363,0.076553,0.087167,-0.033733,-0.083699,0.011778,0.3589,0.15707,-0.83031
0.084777,0.066836,0.024855,0.038372,-0.02532,-0.059322,0.093827,0.03887,0.21637,0.038269,0.01731,0.015598,-0.64484,-0.58947,-0.085011,-0.052807,0.077746,0.096496,0.048965,-0.062828,0.018565,0.31953,0.12929,-0.7974
0.087305,0.06174,0.025445,0.042889,-0.019072,-0.047328,0.097631,0.041514,0.14492,0.029122,0.0095412,-0.0077449,-0.67368,-0.62094,-0.085789,-0.07789,0.075739,0.10388,0.10411,-0.04197,0.042084,0.23135,0.09244,-0.73651
0.082344,0.054346,0.027309,0.045111,-0.0099602,-0.036944,0.089431,0.045626,0.075671,0.022599,0.0034614,-0.022704,-0.66025,-0.66257,-0.064319,-0.097125,0.070953,0.10617,0.13477,-0.027576,0.046921,0.064067,0.053794,-0.70691
0.074063,0.050253,0.025912,0.045806,-0.00017624,-0.029005,0.074652,0.051894,0.01231,0.017657,0.00035974,-0.02992,-0.62354,-0.71221,-0.030048,-0.1146,0.065164,0.1026,0.15386,-0.021681,0.0315,-0.14265,0.028889,-0.69028
0.067555,0.051552,0.020023,0.045068,0.0069491,-0.02411,0.061867,0.058502,-0.044699,0.011805,-0.00035268,-0.035158,-0.5871,-0.75584,0.0018968,-0.13451,0.05941,0.095238,0.17157,-0.023873,0.022576,-0.33754,0.030312,-0.60637
0.065349,0.055079,0.013027,0.042868,0.0089809,-0.022462,0.057231,0.06252,-0.096696,0.0036624,-0.0011208,-0.044814,-0.56417,-0.7718,0.022059,-0.15574,0.052918,0.087517,0.18783,-0.033289,0.046854,-0.50852,0.059013,-0.38646
0.065914,0.055382,0.010057,0.040305,0.0061519,-0.02326,0.060051,0.062488,-0.14474,-0.0058024,-0.0048565,-0.061045,-0.55061,-0.73959,0.031922,-0.17241,0.044058,0.082152,0.19522,-0.048596,0.10513,-0.67646,0.10435,-0.042998
0.065335,0.049622,0.013568,0.039948,0.0013235,-0.024431,0.063195,0.059729,-0.18856,-0.014278,-0.013016,-0.080184,-0.53037,-0.64867,0.039986,-0.17892,0.032326,0.079773,0.18818,-0.066731,0.17012,-0.84776,0.1513,0.32291
0.060807,0.039992,0.021307,0.044526,-0.0020162,-0.0235,0.058608,0.057154,-0.22705,-0.020144,-0.024443,-0.095107,-0.48891,-0.50347,0.053329,-0.17402,0.019406,0.079096,0.1698,-0.082647,0.20768,-0.98446,0.18833,0.58348
0.053096,0.031617,0.028373,0.054886,-0.0022414,-0.019367,0.043884,0.056725,-0.25917,-0.023516,-0.035793,-0.09934,-0.42485,-0.32327,0.072144,-0.15969,0.0082729,0.078206,0.15002,-0.091042,0.20179,-1.029,0.21067,0.6687
0.045805,0.028057,0.031374,0.069154,-0.00066534,-0.013497,0.024562,0.057935,-0.2845,-0.025424,-0.043322,-0.090146,-0.35212,-0.13744,0.090904,-0.13674,0.0011792,0.075861,0.13743,-0.088661,0.16318,-0.96151,0.21873,0.60983
0.041836,0.028472,0.031007,0.083965,-0.00046086,-0.0091459,0.010021,0.058598,-0.3028,-0.026205,-0.045022,-0.069363,-0.29198,0.023212,0.10371,-0.10228,-0.0017429,0.072012,0.13241,-0.075064,0.11733,-0.83193,0.21527,0.51243
0.039917,0.02874,0.030896,0.096644,-0.0043725,-0.0088322,0.0061806,0.056999,-0.31349,-0.024975,-0.04184,-0.042412,-0.26065,0.1365,0.1086,-0.052705,-0.0022788,0.067468,0.12806,-0.051447,0.084718,-0.73089,0.20429,0.48266
0.034502,0.025142,0.033907,0.1062,-0.012943,-0.012112,0.010987,0.053321,-0.31576,-0.02091,-0.037177,-0.016365,-0.26031,0.1965,0.10778,0.010236,-0.0028345,0.063215,0.11775,-0.019207,0.06989,-0.72231,0.19109,0.56309
0.019825,0.017208,0.039228,0.1122,-0.024324,-0.01577,0.016353,0.049093,-0.30953,-0.015015,-0.034776,0.0024152,-0.27822,0.21425,0.10492,0.076387,-0.0052531,0.059874,0.10265,0.019948,0.065396,-0.79601,0.18139,0.72127
-0.0046435,0.0075369,0.042754,0.11283,-0.035462,-0.016515,0.014714,0.045442,-0.29657,-0.010288,-0.036189,0.010527,-0.29343,0.21075,0.10282,0.13096,-0.010445,0.057462,0.092281,0.062571,0.06313,-0.88056,0.17829,0.89084
-0.031989,-0.00072317,0.040479,0.1047,-0.043676,-0.013907,0.0045863,0.042053,-0.28078,-0.0096456,-0.039588,0.0087143,-0.28676,0.20684,0.10308,0.16288,-0.018606,0.055413,0.097388,0.10292,0.061474,-0.90403,0.17918,1.0259
-0.051501,-0.0062137,0.03209,0.085256,-0.047822,-0.010902,-0.0092006,0.037905,-0.2672,-0.013426,-0.041059,0.0010025,-0.24911,0.21681,0.10674,0.17092,-0.029431,0.05283,0.12109,0.13494,0.063318,-0.85177,0.1761,1.1254
-0.056212,-0.0097288,0.021791,0.056286,-0.048724,-0.011448,-0.020104,0.032942,-0.26028,-0.019123,-0.03776,-0.0080321,-0.18447,0.2485,0.11393,0.16229,-0.042041,0.049005,0.15553,0.15575,0.069549,-0.77773,0.16068,1.2139
-0.048716,-0.012855,0.015602,0.025204,-0.048805,-0.017289,-0.02488,0.028762,-0.26255,-0.024048,-0.030608,-0.016149,-0.10745,0.30563,0.1223,0.1453,-0.054807,0.044029,0.18673,0.16767,0.075668,-0.76713,0.13068,1.3025
-0.040403,-0.016461,0.0172,0.0022856,-0.05091,-0.026795,-0.025016,0.027318,-0.27418,-0.028513,-0.024177,-0.024356,-0.036853,0.38598,0.12611,0.1225,-0.065389,0.039045,0.20361,0.17656,0.074573,-0.88325,0.092816,1.3674
-0.04417,-0.020252,0.025528,-0.0047804,-0.056646,-0.03674,-0.024329,0.02871,-0.29307,-0.036095,-0.023523,-0.035143,0.011679,0.47542,0.1183,0.090871,-0.071238,0.035665,0.20413,0.18732,0.062055,-1.134,0.059194,1.363
-0.065914,-0.023351,0.035977,0.0046601,-0.065208,-0.045153,-0.025711,0.030312,-0.31507,-0.050044,-0.030328,-0.04956,0.030975,0.54547,0.095016,0.048705,-0.070577,0.034696,0.19423,0.20002,0.039699,-1.4701,0.039659,1.2582
-0.10116,-0.025124,0.044011,0.023929,-0.073777,-0.052434,-0.029838,0.028494,-0.3342,-0.068816,-0.041544,-0.065679,0.023668,0.56301,0.059755,0.0028521,-0.063566,0.035092,0.18131,0.20975,0.013372,-1.8047,0.035952,1.0618
-0.1391,-0.025646,0.048172,0.042976,-0.079576,-0.059717,-0.036019,0.021759,-0.34357,-0.085166,-0.051726,-0.079778,-0.0007002,0.50981,0.023262,-0.030887,-0.052904,0.034191,0.16754,0.20981,-0.010389,-2.0376,0.042101,0.81975
-0.17033,-0.025743,0.050086,0.053693,-0.082159,-0.066298,-0.043292,0.01257,-0.33747,-0.090383,-0.057083,-0.089112,-0.030905,0.39776,-0.0015244,-0.03568,-0.04304,0.029422,0.14788,0.19544,-0.026976,-2.0812,0.05022,0.58852
-0.19229,-0.026737,0.051785,0.05308,-0.083974,-0.068991,-0.050408,0.0060035,-0.31378,-0.080558,-0.057788,-0.093606,-0.058567,0.2652,-0.0067818,-0.0042184,-0.037958,0.020282,0.11323,0.16504,-0.034534,-1.8862,0.056525,0.4072
-0.2086,-0.029944,0.053082,0.042757,-0.088479,-0.064522,-0.055337,0.0060319,-0.27504,-0.059633,-0.056665,-0.09471,-0.079565,0.15395,0.0053941,0.056132,-0.038866,0.0088047,0.05575,0.11884,-0.034098,-1.4631,0.06269,0.28799
-0.2243,-0.035946,0.051537,0.026188,-0.097244,-0.052923,-0.055843,0.012329,-0.2274,-0.036586,-0.055632,-0.092316,-0.092174,0.083769,0.023928,0.12737,-0.043623,-0.0021187,-0.026805,0.057283,-0.029478,-0.88696,0.072174,0.2243
-0.24164,-0.043987,0.04508,0.0062769,-0.10845,-0.038574,-0.051344,0.020179,-0.17796,-0.019194,-0.053255,-0.082737,-0.094022,0.044415,0.034937,0.19076,-0.048652,-0.011259,-0.12918,-0.018303,-0.025825,-0.27531,0.085535,0.20306
-0.25984,-0.052056,0.034842,-0.014955,-0.11806,-0.027427,-0.044361,0.023609,-0.13263,-0.0095836,-0.045661,-0.060185,-0.080567,0.011117,0.029252,0.23548,-0.05182,-0.019999,-0.23856,-0.10291,-0.026302,0.25439,0.099095,0.20915
-0.27775,-0.057825,0.025436,-0.035142,-0.12257,-0.022472,-0.039609,0.019372,-0.095334,-0.0048502,-0.029977,-0.021256,-0.046242,-0.030598,0.0067401,0.26076,-0.053733,-0.030511,-0.33638,-0.18562,-0.028854,0.62946,0.10774,0.22255
-0.29588,-0.059921,0.022196,-0.050711,-0.12106,-0.021408,-0.040879,0.0089223,-0.068261,-0.0013204,-0.0071747,0.031027,0.012728,-0.071976,-0.024836,0.27218,-0.056198,-0.042559,-0.40257,-0.25104,-0.026605,0.84665,0.10883,0.21807
-0.31526,-0.058527,0.027447,-0.057823,-0.11501,-0.018699,-0.048183,-0.0028021,-0.051527,0.0019105,0.018177,0.087256,0.095886,-0.089644,-0.055117,0.27639,-0.059415,-0.052027,-0.42246,-0.28474,-0.012995,0.96597,0.10358,0.17438
-0.33433,-0.054833,0.038675,-0.054676,-0.10661,-0.010334,-0.057752,-0.010624,-0.042116,0.0032237,0.04097,0.13637,0.19777,-0.0661,-0.076963,0.27813,-0.060828,-0.053115,-0.39363,-0.27987,0.012076,1.0761,0.095169,0.088022
-0.34761,-0.049923,0.049917,-0.043249,-0.097323,0.0028291,-0.065066,-0.012038,-0.033648,0.0015548,0.058723,0.17183,0.30874,-0.0032019,-0.089401,0.27999,-0.057046,-0.042918,-0.32796,-0.24078,0.041156,1.2453,0.085899,-0.020029
-0.34837,-0.044192,0.055293,-0.028755,-0.087777,0.015934,-0.068346,-0.0080302,-0.018898,-0.0013357,0.072258,0.1945,0.41675,0.081897,-0.096609,0.28267,-0.047123,-0.0246,-0.24612,-0.18088,0.065685,1.479,0.076214,-0.1133
-0.33362,-0.037849,0.052286,-0.016858,-0.078582,0.024238,-0.069506,-0.0016554,0.0054575,-0.0020276,0.083712,0.21032,0.50987,0.17206,-0.10438,0.28444,-0.034014,-0.0060865,-0.1667,-0.11615,0.085315,1.7077,0.06622,-0.16035
-0.30707,-0.031715,0.042855,-0.010555,-0.070727,0.026745,-0.071856,0.0043253,0.035285,0.00080069,0.094043,0.22484,0.57955,0.26109,-0.11663,0.28071,-0.022699,0.0051534,-0.097218,-0.058111,0.11142,1.8199,0.057883,-0.15258
-0.27682,-0.027114,0.032023,-0.0089637,-0.065066,0.026338,-0.076742,0.0090857,0.060301,0.0034347,0.10236,0.23958,0.62377,0.35061,-0.13371,0.26572,-0.016658,0.0072277,-0.033591,-0.010666,0.15992,1.7298,0.055616,-0.10672
-0.24919,-0.024548,0.024951,-0.0088207,-0.061603,0.02671,-0.082135,0.013687,0.070414,-0.0020919,0.10743,0.25282,0.64789,0.43767,-0.15306,0.23617,-0.015842,0.0046586,0.031608,0.027796,0.23779,1.4397,0.064621,-0.051027
-0.22371,-0.022439,0.024158,-0.0073879,-0.059563,0.029102,-0.084343,0.01961,0.062816,-0.023472,0.10968,0.26372,0.66118,0.50647,-0.17119,0.19426,-0.017597,0.0042228,0.099029,0.05945,0.33412,1.0516,0.088243,-0.0064448
-0.19398,-0.017622,0.028267,-0.0044337,-0.058274,0.031671,-0.081173,0.027097,0.044265,-0.062595,0.11146,0.27537,0.66974,0.53364,-0.18567,0.14737,-0.019139,0.0092781,0.15914,0.083511,0.42415,0.71093,0.12614,0.023925
-0.15404,-0.0077145,0.032939,-0.0018103,-0.057838,0.031739,-0.073781,0.034612,0.026576,-0.11249,0.11548,0.29376,0.67012,0.50379,-0.19578,0.10447,-0.019078,0.017327,0.19847,0.096917,0.48404,0.51531,0.17418,0.052177
-0.10511,0.006533,0.033588,-0.0011995,-0.058733,0.028619,-0.065741,0.039846,0.018787,-0.1589,0.12278,0.32349,0.64885,0.42318,-0.20144,0.07224,-0.017088,0.022738,0.20995,0.098087,0.50516,0.45535,0.22577,0.095561
-0.056847,0.021265,0.02839,-0.002121,-0.060703,0.024452,-0.060388,0.041465,0.022079,-0.18615,0.13213,0.36395,0.58983,0.32101,-0.20132,0.053854,-0.012987,0.022051,0.19844,0.08979,0.49636,0.43377,0.27368,0.16798
-0.021339,0.032269,0.019702,-0.0020204,-0.062204,0.022383,-0.058723,0.040177,0.030986,-0.18466,0.14149,0.40907,0.48531,0.23721,-0.19214,0.050241,-0.0068656,0.017117,0.17669,0.077992,0.47288,0.34827,0.31189,0.27662
-0.004638,0.038165,0.012718,0.0016051,-0.061188,0.023788,-0.059388,0.038238,0.03913,-0.15596,0.14994,0.45042,0.34301,0.20466,-0.17047,0.061038,-5.8275e-005,0.013339,0.15566,0.067558,0.44181,0.17191,0.33672,0.42061
-0.0024924,0.04111,0.011918,0.0089204,-0.056625,0.026981,-0.060301,0.037788,0.04431,-0.11198,0.15837,0.48111,0.18375,0.23592,-0.13631,0.083302,0.004718,0.014742,0.13778,0.05901,0.39685,-0.032977,0.34716,0.58824
-0.0038431,0.044326,0.017602,0.017367,-0.0493,0.028595,-0.060323,0.03937,0.049053,-0.068141,0.16829,0.49781,0.031355,0.31982,-0.095215,0.10965,0.0051482,0.020387,0.1185,0.04975,0.32682,-0.17409,0.34402,0.75475
0.00075531,0.048746,0.025089,0.023583,-0.041074,0.02652,-0.059773,0.041767,0.057045,-0.034204,0.17983,0.5006,-0.097735,0.42726,-0.056347,0.12954,0.001794,0.025373,0.093713,0.038612,0.23007,-0.20703,0.32838,0.88669
0.012468,0.051999,0.027526,0.025999,-0.033303,0.021944,-0.059805,0.043146,0.069239,-0.0089843,0.19086,0.49209,-0.19769,0.52204,-0.026885,0.13467,-0.001311,0.025393,0.065179,0.02884,0.12148,-0.16439,0.30022,0.95535
0.024262,0.050695,0.020646,0.025917,-0.025924,0.018662,-0.061477,0.042426,0.082992,0.017061,0.19828,0.47659,-0.26834,0.57304,-0.0070823,0.12476,0.00080238,0.020613,0.038588,0.025585,0.025355,-0.11602,0.25856,0.95319
0.027181,0.043786,0.0060802,0.026251,-0.018059,0.020098,-0.065182,0.039792,0.094362,0.052957,0.20036,0.45905,-0.30809,0.56432,0.009556,0.10758,0.010041,0.015278,0.016285,0.029545,-0.040574,-0.10156,0.20348,0.90153
0.017583,0.033725,-0.0093721,0.02913,-0.0094415,0.026479,-0.070454,0.036222,0.10097,0.098605,0.19836,0.44321,-0.31246,0.50019,0.030446,0.092058,0.023135,0.013477,-0.0075836,0.033013,-0.076676,-0.098167,0.13867,0.84164
-0.0001292,0.024259,-0.018291,0.034379,-0.0011513,0.034554,-0.075956,0.032799,0.10285,0.14316,0.1957,0.4295,-0.28042,0.40178,0.056953,0.079873,0.033435,0.015072,-0.04343,0.023473,-0.09935,-0.049565,0.07259,0.81264
-0.01678,0.016981,-0.017762,0.03991,0.0051774,0.040158,-0.079671,0.030512,0.10124,0.17178,0.19534,0.41447,-0.2229,0.29492,0.082209,0.063893,0.035433,0.015708,-0.09589,-0.0066779,-0.12748,0.074407,0.016111,0.82914
-0.024619,0.010022,-0.011212,0.043365,0.0089723,0.04146,-0.079546,0.030385,0.096839,0.17568,0.19758,0.39294,-0.16474,0.19442,0.095852,0.036054,0.028593,0.011069,-0.15546,-0.051946,-0.16877,0.24396,-0.022475,0.8726
-0.021635,0.00025587,-0.0054701,0.043571,0.011575,0.040196,-0.074527,0.033176,0.089566,0.15768,0.20006,0.3617,-0.13528,0.094497,0.09202,-0.0017181,0.017693,0.0015162,-0.20042,-0.094515,-0.21645,0.39034,-0.042132,0.90162
-0.011255,-0.012981,-0.0053054,0.040901,0.015403,0.040057,-0.065371,0.038389,0.079311,0.12947,0.2,0.32252,-0.15232,-0.027259,0.074209,-0.033944,0.0096284,-0.0073207,-0.20927,-0.11454,-0.25721,0.45975,-0.049606,0.87459
0.0015439,-0.026212,-0.0097633,0.036732,0.022101,0.043905,-0.054444,0.043476,0.066625,0.103,0.19653,0.2822,-0.20999,-0.19349,0.05329,-0.040094,0.0091004,-0.008923,-0.17526,-0.10271,-0.28221,0.45083,-0.054634,0.77109
0.01419,-0.034006,-0.013267,0.032613,0.031361,0.05226,-0.044378,0.044525,0.052332,0.083105,0.19109,0.24956,-0.28012,-0.40866,0.040517,-0.0092177,0.016098,-0.0015883,-0.11204,-0.065797,-0.29182,0.40576,-0.062872,0.59996
0.027536,-0.033322,-0.010565,0.029528,0.041493,0.063985,-0.03644,0.038602,0.036656,0.066682,0.18577,0.23138,-0.32716,-0.65115,0.041007,0.051164,0.026491,0.0096709,-0.045874,-0.021521,-0.29154,0.36827,-0.07204,0.39149
0.043666,-0.026247,-0.0014112,0.027331,0.051148,0.077857,-0.02984,0.026136,0.019098,0.047975,0.1815,0.22935,-0.32735,-0.88121,0.05209,0.1194,0.035002,0.017048,4.3113e-006,0.013187,-0.28476,0.3489,-0.074791,0.18129
0.062818,-0.018576,0.0089275,0.024571,0.060506,0.09314,-0.022514,0.011148,-0.00056483,0.02475,0.17797,0.23923,-0.27918,-1.059,0.066719,0.17394,0.038533,0.016564,0.018163,0.031863,-0.26976,0.32602,-0.066435,-0.0024613
0.082257,-0.015277,0.01374,0.019121,0.070824,0.10876,-0.012747,-0.0013041,-0.021099,7.8946e-005,0.17487,0.25219,-0.19873,-1.1613,0.078561,0.20623,0.03785,0.011667,0.018464,0.040129,-0.24347,0.27557,-0.05123,-0.14159
0.098008,-0.016577,0.010041,0.0096021,0.082893,0.12254,-0.00033098,-0.0085976,-0.039688,-0.021001,0.17282,0.2578,-0.10501,-1.189,0.085073,0.22286,0.036676,0.010455,0.01862,0.049433,-0.20754,0.19831,-0.041574,-0.22354
0.10788,-0.017972,0.00052641,-0.0032023,0.096052,0.13199,0.013563,-0.012025,-0.052971,-0.036072,0.17246,0.24768,-0.0078258,-1.1633,0.087284,0.23636,0.038823,0.018694,0.031425,0.068193,-0.17023,0.11996,-0.050033,-0.24004
0.11309,-0.0141,-0.0091091,-0.016136,0.10874,0.13649,0.027467,-0.015025,-0.058179,-0.046766,0.17266,0.21881,0.092017,-1.1166,0.087567,0.25273,0.045245,0.034543,0.057388,0.096264,-0.14166,0.067825,-0.080141,-0.19478
0.1172,-0.0032378,-0.014879,-0.025116,0.11993,0.13863,0.040624,-0.01982,-0.05351,-0.05635,0.17002,0.17503,0.19175,-1.0811,0.087582,0.26535,0.053076,0.049567,0.086546,0.12551,-0.12643,0.048242,-0.12308,-0.11447
0.12318,0.011285,-0.017029,-0.027323,0.12978,0.14292,0.053141,-0.025523,-0.038139,-0.066605,0.16073,0.12568,0.27681,-1.0778,0.08767,0.25927,0.057453,0.055218,0.10649,0.14515,-0.11989,0.045214,-0.16276,-0.049395
0.13123,0.023687,-0.018455,-0.022572,0.13883,0.15239,0.065419,-0.02928,-0.012936,-0.077413,0.14338,0.081497,0.32369,-1.1083,0.087572,0.22238,0.054924,0.049301,0.11018,0.1481,-0.11156,0.03859,-0.18554,-0.054094
0.1387,0.029991,-0.020996,-0.013042,0.14661,0.16587,0.077544,-0.029076,0.018156,-0.08894,0.12026,0.049642,0.31546,-1.1532,0.08742,0.15554,0.045977,0.037098,0.098558,0.13461,-0.09302,0.022484,-0.18759,-0.15584
0.14203,0.03046,-0.023397,-0.0019183,0.15151,0.17863,0.089176,-0.025418,0.047863,-0.10316,0.095816,0.030616,0.25687,-1.1815,0.087881,0.074842,0.034763,0.026604,0.077463,0.11141,-0.063891,0.0070233,-0.17568,-0.33255
0.13884,0.028627,-0.02287,0.007811,0.15233,0.18636,0.099853,-0.020464,0.068253,-0.12199,0.074056,0.018926,0.17405,-1.1671,0.089096,0.004055,0.026212,0.022283,0.052479,0.087504,-0.03127,0.0042133,-0.16186,-0.51909
0.12902,0.028267,-0.018433,0.013809,0.1502,0.18915,0.1093,-0.015853,0.075567,-0.14332,0.057105,0.0072088,0.096178,-1.1057,0.089152,-0.038422,0.022734,0.02261,0.025971,0.069342,-0.0034085,0.013595,-0.15615,-0.64103
0.11469,0.030994,-0.012395,0.014553,0.14867,0.1919,0.11748,-0.011667,0.073637,-0.15908,0.045914,-0.0088568,0.033407,-1.0189,0.083667,-0.050409,0.023006,0.022892,-0.0017638,0.058575,0.017092,0.021815,-0.16141,-0.65362
0.099642,0.036032,-0.0082607,0.0098405,0.15155,0.20048,0.1244,-0.0074098,0.072358,-0.15864,0.041404,-0.028138,-0.029171,-0.94166,0.067672,-0.047469,0.023635,0.020177,-0.029046,0.053195,0.035064,0.015483,-0.17231,-0.55966
0.088653,0.041553,-0.0070764,0.0013775,0.15997,0.21647,0.12991,-0.0035627,0.081473,-0.1358,0.044077,-0.045694,-0.11427,-0.90099,0.039186,-0.053529,0.022189,0.015644,-0.050806,0.050611,0.058232,-0.0061127,-0.17839,-0.39726
0.08605,0.045997,-0.0060906,-0.0075633,0.17126,0.23508,0.13376,-0.0015813,0.10416,-0.094033,0.052186,-0.057096,-0.22548,-0.89714,0.0018986,-0.086127,0.019065,0.012729,-0.060432,0.049873,0.090066,-0.030841,-0.17006,-0.21139
0.093548,0.048475,-0.0015307,-0.013882,0.18089,0.24825,0.13571,-0.0021112,0.13545,-0.045148,0.060774,-0.062026,-0.33475,-0.9009,-0.035831,-0.14585,0.01671,0.013302,-0.054378,0.051411,0.12568,-0.045796,-0.14484,-0.032826
0.10848,0.048672,0.0068942,-0.016725,0.18588,0.25061,0.13587,-0.003448,0.16659,-0.0019861,0.06356,-0.064379,-0.3976,-0.86809,-0.065969,-0.21706,0.017059,0.015732,-0.03564,0.055107,0.15404,-0.049647,-0.11018,0.12321
0.12422,0.046945,0.014299,-0.018041,0.18685,0.24352,0.13493,-0.0023566,0.19113,0.029641,0.056813,-0.06889,-0.3856,-0.76343,-0.086608,-0.27933,0.019546,0.016511,-0.01271,0.058981,0.1649,-0.053695,-0.08022,0.24596
0.13352,0.044535,0.014026,-0.020817,0.18694,0.23403,0.13399,0.0030481,0.20768,0.053579,0.041948,-0.077104,-0.30936,-0.58086,-0.10389,-0.3214,0.021456,0.013578,0.0057618,0.060021,0.15566,-0.07118,-0.067252,0.32246
0.13277,0.04318,0.0035894,-0.026415,0.18862,0.22961,0.13393,0.011079,0.21743,0.078745,0.024368,-0.086003,-0.21194,-0.34912,-0.12786,-0.34767,0.020235,0.0080354,0.016577,0.056417,0.13328,-0.1053,-0.07335,0.34382
0.12409,0.043933,-0.012238,-0.033461,0.19109,0.2331,0.13471,0.01738,0.21998,0.11119,0.0093808,-0.090382,-0.13733,-0.11945,-0.1648,-0.37299,0.015537,0.0027504,0.023335,0.048991,0.11004,-0.14704,-0.088691,0.31682
0.11328,0.046108,-0.024497,-0.039474,0.19083,0.24156,0.13526,0.018506,0.212,0.14927,-0.0013143,-0.087136,-0.10052,0.058401,-0.21202,-0.40985,0.0090742,-0.00055895,0.032344,0.040286,0.096145,-0.1843,-0.098586,0.26614
0.10504,0.047607,-0.027078,-0.043717,0.18497,0.24961,0.13418,0.014986,0.18995,0.18575,-0.0098198,-0.07823,-0.084087,0.15805,-0.25909,-0.45755,0.0024997,-0.0027322,0.046544,0.032054,0.094071,-0.21364,-0.094157,0.22124
0.099546,0.046693,-0.021651,-0.04836,0.1747,0.25386,0.13092,0.010954,0.15368,0.21512,-0.019409,-0.07037,-0.06326,0.18306,-0.29461,-0.50111,-0.0044689,-0.0057256,0.062608,0.023472,0.098253,-0.24374,-0.078166,0.19796
0.093252,0.043704,-0.015985,-0.056441,0.16551,0.25501,0.12617,0.010551,0.1068,0.23977,-0.031971,-0.07183,-0.036021,0.15494,-0.31253,-0.52017,-0.013636,-0.0099202,0.073693,0.011819,0.099995,-0.2881,-0.06137,0.19095
0.083021,0.040946,-0.016936,-0.068201,0.16379,0.25633,0.12118,0.014374,0.053485,0.26934,-0.047652,-0.088636,-0.030899,0.092779,-0.31294,-0.50154,-0.025869,-0.013088,0.075433,-0.0048377,0.09386,-0.35368,-0.052834,0.18393
0.069721,0.040616,-0.024223,-0.079283,0.17205,0.26039,0.11642,0.01914,-0.0047777,0.31267,-0.066014,-0.12213,-0.08575,0.0011728,-0.29726,-0.44658,-0.039043,-0.012268,0.069989,-0.025229,0.080979,-0.43549,-0.052697,0.16798
0.057797,0.042582,-0.030601,-0.082993,0.18644,0.2672,0.11105,0.020749,-0.068627,0.36851,-0.086467,-0.16854,-0.21683,-0.1237,-0.26368,-0.36955,-0.048699,-0.0068036,0.064702,-0.044762,0.067216,-0.52094,-0.053262,0.15072
0.051289,0.044227,-0.028344,-0.075281,0.19872,0.27484,0.10379,0.017805,-0.1369,0.42288,-0.10708,-0.22014,-0.40532,-0.27616,-0.2084,-0.28889,-0.051191,0.00049679,0.066609,-0.057758,0.058009,-0.59929,-0.046578,0.14821
0.05013,0.042714,-0.016347,-0.058389,0.20127,0.28152,0.094453,0.012433,-0.20362,0.45677,-0.12347,-0.26724,-0.61156,-0.42915,-0.13276,-0.21846,-0.04657,0.0054186,0.0775,-0.060294,0.054055,-0.66798,-0.031231,0.16799
0.050244,0.037732,-0.0015907,-0.039845,0.19173,0.28648,0.084691,0.0079339,-0.25974,0.45886,-0.13007,-0.30072,-0.8018,-0.54226,-0.049444,-0.16364,-0.03852,0.0057927,0.093471,-0.051717,0.050944,-0.73189,-0.01273,0.19994
0.047245,0.032163,0.0063361,-0.027208,0.17408,0.2889,0.077069,0.005712,-0.29889,0.43338,-0.12387,-0.3147,-0.96305,-0.586,0.019682,-0.12344,-0.031304,0.0031207,0.10886,-0.034324,0.042298,-0.7985,0.0016461,0.22368
0.040184,0.029875,0.0029021,-0.02263,0.15554,0.28587,0.073293,0.004333,-0.322,0.39584,-0.10768,-0.30833,-1.095,-0.56302,0.054841,-0.094765,-0.026476,0.00089053,0.12084,-0.012127,0.02315,-0.87462,0.007861,0.22559
0.03195,0.032513,-0.0080093,-0.021576,0.14168,0.27231,0.073162,0.0013292,-0.3363,0.35976,-0.089536,-0.28577,-1.1912,-0.50748,0.051098,-0.074828,-0.022284,0.0013132,0.13077,0.010208,-0.0093864,-0.96682,0.0057036,0.20962
0.026317,0.038104,-0.017614,-0.016713,0.1333,0.24384,0.07527,-0.0042065,-0.3492,0.32518,-0.078071,-0.25412,-1.2313,-0.4609,0.022268,-0.0606,-0.016115,0.0036775,0.14181,0.028069,-0.057972,-1.0819,-0.0040748,0.19277
0.024638,0.042774,-0.019268,-0.0037911,0.12697,0.20114,0.078938,-0.010696,-0.36234,0.2789,-0.077003,-0.22027,-1.194,-0.44207,-0.0077607,-0.047391,-0.0075082,0.0057869,0.15525,0.037871,-0.12631,-1.2226,-0.021687,0.19078
0.025117,0.044072,-0.013019,0.015159,0.11857,0.15197,0.085763,-0.015496,-0.37094,0.20686,-0.083075,-0.18855,-1.0795,-0.43367,-0.019964,-0.029389,0.0010837,0.0067699,0.16908,0.038548,-0.21704,-1.3781,-0.04679,0.20783
0.024775,0.042962,-0.004286,0.033536,0.10671,0.10818,0.099419,-0.017195,-0.36898,0.10843,-0.088834,-0.16037,-0.91829,-0.39439,-0.01007,-0.0024457,0.0063762,0.0081923,0.17974,0.03269,-0.32699,-1.518,-0.075647,0.23826
0.021832,0.042707,0.0014455,0.04497,0.093459,0.078889,0.12355,-0.016743,-0.35563,0.00084222,-0.087906,-0.13587,-0.75705,-0.28562,0.013255,0.033542,0.0071328,0.012225,0.18505,0.025979,-0.44384,-1.5958,-0.10119,0.27587
0.016439,0.04567,0.0029381,0.047188,0.081901,0.064281,0.15889,-0.01666,-0.33711,-0.089441,-0.078838,-0.11613,-0.63174,-0.092024,0.038646,0.075459,0.0052406,0.018769,0.1856,0.024447,-0.54808,-1.5663,-0.11736,0.31914
0.0097673,0.050952,0.0030926,0.042211,0.072716,0.05524,0.20148,-0.019211,-0.32245,-0.14126,-0.065226,-0.10435,-0.55116,0.17631,0.060974,0.12079,0.0041463,0.024643,0.18346,0.030891,-0.62015,-1.4072,-0.12439,0.36724
0.0029876,0.055002,0.0052948,0.033529,0.063005,0.039549,0.24326,-0.025043,-0.31655,-0.14785,-0.052903,-0.10494,-0.50318,0.49553,0.081762,0.17073,0.0060849,0.025947,0.1793,0.042831,-0.64786,-1.1321,-0.1297,0.41232
-0.0028655,0.054627,0.010095,0.023127,0.048527,0.010539,0.27535,-0.033075,-0.31635,-0.11547,-0.04674,-0.12059,-0.47523,0.83849,0.10245,0.22863,0.010337,0.021466,0.1706,0.053637,-0.62902,-0.786,-0.14283,0.43863
-0.0067213,0.049679,0.01524,0.010812,0.02752,-0.028291,0.29218,-0.041381,-0.31329,-0.055703,-0.049097,-0.14889,-0.46719,1.1743,0.11844,0.29405,0.013699,0.013822,0.15255,0.056299,-0.56807,-0.42495,-0.16766,0.43202
-0.0080249,0.043046,0.018564,-0.0041325,0.0026507,-0.066187,0.29396,-0.048318,-0.30005,0.020105,-0.060182,-0.18095,-0.48335,1.4615,0.12051,0.35734,0.01265,0.0071798,0.12099,0.047475,-0.47096,-0.0917,-0.1982,0.3918
-0.007852,0.038096,0.020543,-0.020845,-0.02087,-0.093345,0.28551,-0.053248,-0.27615,0.10058,-0.079278,-0.20368,-0.51151,1.6497,0.10273,0.4008,0.0056957,0.0036268,0.075352,0.029308,-0.34357,0.19898,-0.2211,0.33361
-0.0090924,0.035949,0.023893,-0.036204,-0.039569,-0.10809,0.27223,-0.056587,-0.24831,0.17188,-0.10557,-0.20521,-0.51215,1.6958,0.069588,0.40785,-0.0055254,0.0016445,0.019501,0.0081555,-0.19458,0.45743,-0.22353,0.27919
-0.01463,0.034939,0.030595,-0.045982,-0.054608,-0.1178,0.25624,-0.059192,-0.22535,0.21935,-0.13795,-0.18051,-0.43295,1.5902,0.035304,0.37426,-0.016932,-0.001963,-0.039731,-0.0086872,-0.03837,0.70106,-0.20073,0.24161
-0.024537,0.032455,0.039329,-0.046827,-0.070669,-0.13326,0.23576,-0.061417,-0.21206,0.23448,-0.17415,-0.1335,-0.24095,1.3698,0.01535,0.31267,-0.024122,-0.0086099,-0.09504,-0.016213,0.10755,0.93317,-0.15885,0.21846
-0.034901,0.027312,0.045946,-0.03782,-0.09179,-0.16114,0.20808,-0.062538,-0.2066,0.2214,-0.21,-0.074439,0.053384,1.107,0.01664,0.24555,-0.024795,-0.016276,-0.14023,-0.013388,0.23087,1.1332,-0.11167,0.19882
-0.040001,0.020634,0.046828,-0.0209,-0.11794,-0.20018,0.17314,-0.061192,-0.20292,0.1954,-0.24024,-0.014752,0.40111,0.87639,0.034004,0.191,-0.020075,-0.021187,-0.17025,-0.0029399,0.33207,1.267,-0.073791,0.17725
-0.036611,0.014822,0.042258,-0.00019362,-0.14537,-0.24315,0.13428,-0.056779,-0.19573,0.17267,-0.26087,0.036581,0.74503,0.7221,0.055083,0.15173,-0.013854,-0.021181,-0.18095,0.010222,0.42379,1.3119,-0.054379,0.16166
-0.026904,0.011819,0.036773,0.019382,-0.17029,-0.28245,0.095419,-0.050697,-0.18368,0.15889,-0.27192,0.073234,1.0501,0.64657,0.069144,0.11575,-0.010408,-0.017622,-0.17012,0.02118,0.52013,1.2782,-0.054274,0.16766
-0.017176,0.012069,0.036016,0.033727,-0.19225,-0.31459,0.057861,-0.045994,-0.16899,0.14613,-0.27802,0.090181,1.31,0.62635,0.073,0.068286,-0.011778,-0.014191,-0.14,0.026946,0.62303,1.2096,-0.067247,0.20363
-0.013016,0.014634,0.04253,0.040769,-0.214,-0.34078,0.020007,-0.045181,-0.1547,0.12134,-0.28538,0.084332,1.5284,0.63851,0.070598,0.0055426,-0.016618,-0.013783,-0.099439,0.027334,0.71649,1.1572,-0.084014,0.25945
-0.014793,0.017941,0.053824,0.040746,-0.23812,-0.36416,-0.019597,-0.047832,-0.14265,0.079303,-0.29675,0.057835,1.6981,0.67609,0.068318,-0.060193,-0.021268,-0.016319,-0.062581,0.024213,0.77396,1.1453,-0.096692,0.30898
-0.017368,0.020542,0.064146,0.035454,-0.26336,-0.38642,-0.059307,-0.050302,-0.13359,0.029462,-0.30828,0.020397,1.7988,0.74251,0.070769,-0.10752,-0.022223,-0.019231,-0.043547,0.019509,0.77427,1.1532,-0.10165,0.32532
-0.01459,0.021664,0.068451,0.026985,-0.28431,-0.40669,-0.094996,-0.048388,-0.12812,-0.009101,-0.31184,-0.014009,1.8156,0.8345,0.079955,-0.11917,-0.018296,-0.019951,-0.049361,0.013454,0.71411,1.1296,-0.099926,0.29724
-0.0050278,0.021519,0.065508,0.016829,-0.29448,-0.42295,-0.12396,-0.040964,-0.12659,-0.020124,-0.30149,-0.03601,1.7569,0.93226,0.096787,-0.091754,-0.011101,-0.01813,-0.075752,0.0046256,0.60797,1.0278,-0.095638,0.23468
0.0059495,0.021146,0.057952,0.0058634,-0.29049,-0.43416,-0.14802,-0.031321,-0.12703,-0.00022927,-0.27924,-0.048938,1.652,1.0077,0.12183,-0.036367,-0.0037633,-0.01583,-0.10904,-0.0080617,0.47669,0.83637,-0.093759,0.161
0.0099099,0.021613,0.049654,-0.00497,-0.27418,-0.44113,-0.17219,-0.024594,-0.12344,0.040547,-0.25479,-0.068417,1.529,1.0436,0.15377,0.02818,0.001142,-0.015788,-0.13341,-0.023207,0.33557,0.58422,-0.098239,0.10013
0.0023703,0.022972,0.042742,-0.014053,-0.25139,-0.44539,-0.19968,-0.023255,-0.10688,0.086811,-0.2389,-0.11176,1.3962,1.0467,0.18714,0.083271,0.0030885,-0.019265,-0.1393,-0.036935,0.19365,0.31902,-0.11087,0.069166
-0.012399,0.023942,0.036629,-0.01922,-0.22893,-0.4476,-0.22826,-0.024666,-0.069978,0.12736,-0.23561,-0.18434,1.246,1.0413,0.21256,0.11521,0.0037207,-0.025071,-0.12776,-0.045572,0.064921,0.079194,-0.13063,0.078671
-0.022851,0.022897,0.029559,-0.018664,-0.21171,-0.44738,-0.25175,-0.023065,-0.012178,0.15936,-0.23961,-0.27349,1.0772,1.0469,0.22063,0.11695,0.0056428,-0.030228,-0.10844,-0.048777,-0.02024,-0.12265,-0.15348,0.133
-0.017241,0.019517,0.021074,-0.012018,-0.20159,-0.44487,-0.2656,-0.014386,0.058538,0.18549,-0.24057,-0.35506,0.91087,1.059,0.20758,0.089318,0.01064,-0.031678,-0.092937,-0.050034,-0.018506,-0.29941,-0.17296,0.22387
0.0087312,0.01545,0.013144,-0.00083831,-0.19743,-0.44248,-0.2712,0.00035664,0.12965,0.20774,-0.23063,-0.40771,0.78096,1.0461,0.17819,0.042048,0.018403,-0.027969,-0.087653,-0.053522,0.10392,-0.4801,-0.18229,0.32108
0.049175,0.013041,0.0089215,0.011849,-0.19599,-0.44465,-0.27451,0.015998,0.19157,0.22306,-0.20901,-0.42413,0.70419,0.96866,0.14353,-0.0078749,0.026579,-0.020085,-0.09048,-0.059856,0.34336,-0.69989,-0.17746,0.37431
0.091851,0.013064,0.010141,0.022596,-0.19288,-0.45497,-0.28042,0.027385,0.24334,0.22396,-0.18088,-0.41188,0.65967,0.80385,0.11447,-0.042555,0.0322,-0.01106,-0.092795,-0.064626,0.64737,-0.99162,-0.15991,0.33462
0.12542,0.013679,0.015382,0.02852,-0.1839,-0.47292,-0.2883,0.03287,0.29185,0.203,-0.15262,-0.38535,0.60113,0.55994,0.095475,-0.051882,0.033596,-0.0045273,-0.085241,-0.061472,0.93272,-1.3771,-0.13672,0.18538
0.1449,0.01192,0.020694,0.027853,-0.16632,-0.49327,-0.29316,0.034305,0.34513,0.15763,-0.12775,-0.35704,0.49611,0.27164,0.083028,-0.038541,0.031457,-0.0028866,-0.063686,-0.047359,1.1234,-1.8581,-0.11775,-0.042417
0.15217,0.0065293,0.022184,0.020207,-0.13977,-0.50916,-0.29098,0.034273,0.4049,0.09165,-0.10623,-0.33455,0.35951,-0.017402,0.069699,-0.014909,0.028209,-0.0060983,-0.031933,-0.025546,1.1827,-2.4104,-0.11092,-0.28814
0.15254,-0.00061957,0.018548,0.0068959,-0.10624,-0.51654,-0.28303,0.033707,0.46462,0.012087,-0.086259,-0.32332,0.25058,-0.27182,0.050484,0.006157,0.026168,-0.011903,0.00024613,-0.0035532,1.1179,-2.98,-0.11862,-0.50287
0.15078,-0.0060826,0.011631,-0.0088383,-0.069489,-0.51616,-0.27481,0.032028,0.51487,-0.075929,-0.0662,-0.32921,0.23186,-0.47288,0.026379,0.019235,0.02592,-0.017365,0.02243,0.012301,0.95775,-3.4819,-0.1377,-0.68068
0.14946,-0.0080141,0.004652,-0.022355,-0.0345,-0.51119,-0.27101,0.028928,0.55172,-0.17166,-0.045322,-0.35654,0.32058,-0.61859,0.0026056,0.026582,0.026217,-0.020678,0.028997,0.021315,0.72378,-3.8076,-0.16334,-0.85163
0.14969,-0.0078195,-0.00042679,-0.029347,-0.0071465,-0.50283,-0.27152,0.025254,0.58057,-0.27567,-0.02369,-0.40312,0.4688,-0.72132,-0.016473,0.031344,0.02535,-0.021953,0.021585,0.028243,0.4215,-3.8565,-0.19479,-1.0416
0.15246,-0.0085294,-0.004349,-0.028121,0.0066821,-0.48827,-0.27225,0.021866,0.61195,-0.3829,-0.0024055,-0.45786,0.58627,-0.8049,-0.030859,0.030851,0.022705,-0.022551,0.0073525,0.038877,0.055586,-3.5977,-0.23967,-1.2365
0.15898,-0.011407,-0.0097259,-0.020818,0.003286,-0.46316,-0.26949,0.017923,0.65231,-0.47809,0.01573,-0.5048,0.58791,-0.89781,-0.043537,0.016829,0.019089,-0.023689,-0.0056672,0.055015,-0.34743,-3.1391,-0.31412,-1.3865
0.16977,-0.01419,-0.01856,-0.012311,-0.015919,-0.42639,-0.26306,0.010945,0.69756,-0.53902,0.026234,-0.53155,0.43375,-1.0199,-0.055659,-0.017434,0.015718,-0.025538,-0.013245,0.072659,-0.73392,-2.7407,-0.43749,-1.4511
0.18364,-0.012895,-0.030031,-0.0071943,-0.043064,-0.38243,-0.2553,-0.00090577,0.73494,-0.54726,0.024717,-0.53538,0.13943,-1.1676,-0.063256,-0.069705,0.013021,-0.027411,-0.017003,0.0845,-1.0441,-2.7187,-0.62198,-1.4454
0.19752,-0.0056168,-0.040335,-0.0069064,-0.066272,-0.33855,-0.24741,-0.016386,0.75196,-0.49953,0.0099358,-0.52276,-0.24165,-1.3101,-0.05921,-0.12818,0.010514,-0.028622,-0.022787,0.084633,-1.2437,-3.2567,-0.85989,-1.4432
0.20749,0.0052524,-0.044959,-0.0091423,-0.075517,-0.29915,-0.23753,-0.03113,0.74482,-0.41086,-0.01397,-0.50362,-0.64781,-1.4047,-0.039152,-0.17827,0.0077603,-0.029106,-0.036402,0.072141,-1.3402,-4.2284,-1.1134,-1.5291
0.21031,0.014574,-0.041958,-0.010033,-0.068334,-0.26212,-0.22282,-0.040383,0.71989,-0.30671,-0.038299,-0.48587,-1.0324,-1.4241,-0.005821,-0.21074,0.0052311,-0.029329,-0.059189,0.051474,-1.3686,-5.1736,-1.3146,-1.7364
0.20491,0.018467,-0.033813,-0.0074362,-0.051092,-0.22035,-0.20367,-0.042307,0.68717,-0.20958,-0.053958,-0.47418,-1.3724,-1.3771,0.0326,-0.22453,0.0039987,-0.029749,-0.086066,0.029865,-1.359,-5.4877,-1.3816,-2.022
0.19295,0.017217,-0.026312,-0.0028599,-0.034449,-0.16676,-0.18567,-0.03911,0.65205,-0.12994,-0.056618,-0.47198,-1.6622,-1.3045,0.069096,-0.22301,0.0045363,-0.030425,-0.10739,0.013744,-1.3116,-4.7385,-1.2505,-2.2969
0.1783,0.014647,-0.024955,-0.00063251,-0.026133,-0.09854,-0.17689,-0.035263,0.6121,-0.067126,-0.049197,-0.4826,-1.9001,-1.2498,0.10336,-0.20825,0.0060024,-0.031046,-0.11388,0.0062564,-1.1999,-2.9174,-0.91271,-2.4858
0.16549,0.014739,-0.031429,-0.0050137,-0.026372,-0.017455,-0.18267,-0.034501,0.561,-0.01757,-0.039506,-0.50777,-2.074,-1.2278,0.14084,-0.17908,0.0069907,-0.031203,-0.10195,0.0068256,-1.0001,-0.46032,-0.43605,-2.5659
0.15764,0.018575,-0.042696,-0.017352,-0.029178,0.072509,-0.20218,-0.038041,0.49557,0.018228,-0.034371,-0.5453,-2.1575,-1.2135,0.18555,-0.13399,0.0071499,-0.030544,-0.076393,0.012326,-0.72056,1.9727,0.048242,-2.5589
0.15505,0.024026,-0.053291,-0.035167,-0.028042,0.16694,-0.2293,-0.04497,0.4193,0.035788,-0.034373,-0.58959,-2.1203,-1.1631,0.233,-0.075332,0.0079645,-0.028758,-0.04841,0.018737,-0.4083,3.8112,0.39785,-2.4912
0.1552,0.027944,-0.058885,-0.053537,-0.02133,0.26026,-0.25672,-0.053769,0.33975,0.032386,-0.033153,-0.63495,-1.9499,-1.0477,0.26948,-0.010759,0.011606,-0.025613,-0.029975,0.022407,-0.12571,4.7901,0.52855,-2.363
0.15422,0.028502,-0.058437,-0.067645,-0.013392,0.34428,-0.27946,-0.063244,0.26264,0.011448,-0.021913,-0.67815,-1.6698,-0.87509,0.27898,0.049174,0.018647,-0.021213,-0.027431,0.020795,0.085414,4.9686,0.46033,-2.1501
0.14892,0.025756,-0.053756,-0.074856,-0.011078,0.40898,-0.29536,-0.072186,0.18812,-0.019438,0.0041883,-0.7168,-1.3407,-0.68339,0.25225,0.094447,0.026774,-0.016311,-0.038238,0.012919,0.22497,4.5968,0.30607,-1.8349
0.13837,0.020551,-0.047591,-0.075341,-0.018748,0.44685,-0.30329,-0.078597,0.11236,-0.054885,0.042368,-0.74455,-1.0393,-0.51442,0.19141,0.11756,0.031999,-0.01227,-0.053084,-0.00039808,0.32512,3.9524,0.20292,-1.4348
0.12407,0.013437,-0.042205,-0.071325,-0.035408,0.45754,-0.30155,-0.079821,0.032998,-0.095273,0.083707,-0.74827,-0.82641,-0.38977,0.10771,0.11404,0.031704,-0.010428,-0.062263,-0.016816,0.41833,3.2424,0.22776,-1.0067
0.10878,0.0048024,-0.039178,-0.065725,-0.055503,0.44861,-0.28854,-0.073945,-0.046608,-0.14258,0.11842,-0.71155,-0.72471,-0.30478,0.01589,0.083287,0.026996,-0.01117,-0.062189,-0.033457,0.50784,2.5847,0.35468,-0.62629
0.09476,-0.0043346,-0.039573,-0.06092,-0.07227,0.43048,-0.26485,-0.061505,-0.11769,-0.19132,0.1411,-0.62348,-0.71767,-0.23916,-0.069512,0.030551,0.022128,-0.013421,-0.057388,-0.04817,0.56386,2.0304,0.48506,-0.35917
0.082415,-0.012285,-0.043395,-0.058061,-0.081306,0.40903,-0.23443,-0.04602,-0.17112,-0.22355,0.15272,-0.48685,-0.76686,-0.17075,-0.13434,-0.031746,0.021111,-0.01516,-0.056245,-0.060231,0.54798,1.5894,0.52683,-0.24134
0.069932,-0.017929,-0.048707,-0.056929,-0.082416,0.38151,-0.20331,-0.032636,-0.20355,-0.2151,0.15878,-0.31962,-0.83159,-0.082324,-0.16458,-0.086095,0.024152,-0.014828,-0.063515,-0.069981,0.44589,1.2504,0.46156,-0.27479
0.054168,-0.022023,-0.051892,-0.056289,-0.079097,0.33967,-0.17632,-0.025562,-0.22044,-0.15112,0.16535,-0.14829,-0.87721,0.037688,-0.14994,-0.1158,0.027022,-0.012639,-0.075521,-0.077827,0.28194,1.0008,0.34884,-0.43533
0.032384,-0.026863,-0.049799,-0.054643,-0.076245,0.27792,-0.1543,-0.025877,-0.23399,-0.040588,0.17548,0.002709,-0.87198,0.1938,-0.091123,-0.11181,0.024178,-0.010677,-0.082275,-0.083557,0.10389,0.83858,0.26979,-0.68592
0.0041282,-0.034149,-0.04243,-0.051198,-0.077413,0.20032,-0.1338,-0.03112,-0.25717,0.081972,0.18786,0.1197,-0.78449,0.37923,-0.005127,-0.076326,0.013329,-0.011421,-0.075338,-0.086529,-0.049107,0.76575,0.26088,-0.98832
-0.027754,-0.042907,-0.033641,-0.046615,-0.083149,0.12062,-0.10957,-0.036946,-0.29753,0.17066,0.19803,0.20243,-0.59228,0.57479,0.078056,-0.021125,-0.0022879,-0.01569,-0.055237,-0.086403,-0.16863,0.76602,0.2935,-1.3063
-0.057792,-0.049682,-0.028714,-0.042947,-0.091282,0.055144,-0.07812,-0.039805,-0.35405,0.1906,0.20132,0.26046,-0.29858,0.75688,0.12848,0.038053,-0.01589,-0.021634,-0.032215,-0.083559,-0.27211,0.7921,0.31103,-1.5983
-0.080307,-0.051272,-0.030473,-0.042475,-0.098814,0.013875,-0.04017,-0.03887,-0.41858,0.13492,0.19575,0.30626,0.057838,0.91154,0.13198,0.087657,-0.021894,-0.025772,-0.019335,-0.078798,-0.37738,0.7854,0.28473,-1.8072
-0.092398,-0.047722,-0.037227,-0.045956,-0.10398,-0.0038099,-0.00058883,-0.035949,-0.48047,0.026498,0.18303,0.3488,0.41367,1.0426,0.097853,0.12016,-0.019633,-0.02546,-0.023208,-0.072662,-0.48066,0.71858,0.23694,-1.8619
-0.095553,-0.042794,-0.044347,-0.051528,-0.10699,-0.0061709,0.034154,-0.033465,-0.53122,-0.095348,0.16713,0.39104,0.70998,1.1638,0.052541,0.13471,-0.013211,-0.020891,-0.039591,-0.065121,-0.55746,0.62232,0.21424,-1.7005
-0.094493,-0.041202,-0.04812,-0.055432,-0.10911,-0.0021714,0.059479,-0.032125,-0.56663,-0.19396,0.15141,0.43182,0.91984,1.2794,0.022844,0.13529,-0.0079053,-0.014981,-0.057052,-0.056035,-0.58424,0.56497,0.24012,-1.304
-0.093727,-0.044839,-0.048454,-0.054415,-0.11127,0.0036358,0.075136,-0.030177,-0.58592,-0.2487,0.13663,0.46988,1.0541,1.3686,0.020063,0.12773,-0.0063021,-0.011184,-0.06533,-0.046117,-0.55993,0.59622,0.29231,-0.71757
-0.094229,-0.051151,-0.048205,-0.048211,-0.11366,0.010934,0.085065,-0.024974,-0.58952,-0.25669,0.12133,0.5061,1.1418,1.393,0.035472,0.11706,-0.0072158,-0.010982,-0.06163,-0.03767,-0.50778,0.70213,0.32388,-0.038554
-0.092865,-0.055055,-0.050004,-0.039996,-0.11646,0.01962,0.094665,-0.015555,-0.57802,-0.22531,0.10417,0.54144,1.2013,1.3249,0.049067,0.10625,-0.0077678,-0.013086,-0.05042,-0.034373,-0.45718,0.81208,0.30514,0.62314
-0.085253,-0.052814,-0.053679,-0.034175,-0.12072,0.026467,0.10718,-0.0039304,-0.55284,-0.16339,0.086136,0.57207,1.2271,1.1773,0.043967,0.096967,-0.0063352,-0.014894,-0.038028,-0.039752,-0.42298,0.85212,0.24664,1.184
-0.069931,-0.044774,-0.056535,-0.03304,-0.12792,0.025814,0.1217,0.0063487,-0.51786,-0.077755,0.070645,0.58679,1.2011,1.0086,0.015719,0.091637,-0.0037215,-0.014785,-0.02732,-0.054701,-0.40072,0.79809,0.18445,1.6009
-0.050476,-0.034941,-0.055962,-0.035016,-0.13821,0.01367,0.13423,0.013377,-0.47942,0.024177,0.061963,0.57101,1.1169,0.89039,-0.028882,0.094519,-0.0019058,-0.013207,-0.016817,-0.07514,-0.37909,0.68452,0.14503,1.8596
-0.033759,-0.027998,-0.051732,-0.036024,-0.14891,-0.0086235,0.14096,0.019157,-0.44408,0.13047,0.06348,0.51605,0.9948,0.85742,-0.079914,0.11036,-0.0019752,-0.011736,-0.0041353,-0.09142,-0.35528,0.56688,0.12407,1.9607
-0.025666,-0.026195,-0.045944,-0.03296,-0.15523,-0.034611,0.14137,0.02872,-0.41512,0.22516,0.077212,0.4276,0.87456,0.87499,-0.13092,0.14099,-0.0032811,-0.011244,0.010203,-0.090696,-0.33766,0.47515,0.097233,1.9214
-0.027668,-0.028338,-0.041042,-0.026478,-0.15308,-0.056931,0.13853,0.046477,-0.39075,0.29406,0.10399,0.32619,0.79183,0.85264,-0.17846,0.18271,-0.0043654,-0.011099,0.02245,-0.062167,-0.33514,0.39849,0.049296,1.7857
-0.036808,-0.031255,-0.038085,-0.020786,-0.1422,-0.07222,0.13672,0.072584,-0.36576,0.33117,0.14277,0.23857,0.7583,0.69908,-0.21674,0.22723,-0.0044661,-0.010212,0.029064,-0.0031986,-0.34572,0.30728,-0.0076675,1.6215
-0.0487,-0.032279,-0.036879,-0.020554,-0.12718,-0.082842,0.13823,0.10228,-0.33574,0.33983,0.18885,0.18575,0.75918,0.38219,-0.23481,0.26613,-0.004098,-0.0087635,0.030531,0.07698,-0.35693,0.18566,-0.043938,1.4906
-0.060729,-0.030858,-0.03742,-0.02725,-0.11537,-0.094169,0.14193,0.12872,-0.30076,0.32721,0.23275,0.17552,0.76647,-0.047376,-0.22133,0.29541,-0.0043521,-0.0086739,0.031785,0.15902,-0.35718,0.044466,-0.039462,1.4103
-0.072839,-0.028357,-0.040709,-0.0376,-0.1133,-0.10969,0.14451,0.14695,-0.26552,0.29714,0.26245,0.20298,0.75466,-0.48468,-0.17412,0.31613,-0.0058208,-0.01204,0.038502,0.22125,-0.34618,-0.09077,-0.003125,1.3426
-0.08582,-0.026594,-0.047812,-0.045301,-0.12382,-0.12784,0.1431,0.15606,-0.23575,0.2483,0.26886,0.25579,0.70762,-0.82969,-0.10609,0.3306,-0.0082098,-0.018866,0.052298,0.25034,-0.33361,-0.19795,0.032747,1.2259
-0.09926,-0.026418,-0.05806,-0.044804,-0.14546,-0.14309,0.13722,0.1581,-0.21395,0.17957,0.25114,0.31839,0.61727,-1.0362,-0.040621,0.33806,-0.010826,-0.026309,0.068973,0.24898,-0.3277,-0.26318,0.036529,1.0279
-0.11133,-0.027363,-0.06844,-0.034685,-0.17392,-0.15035,0.12858,0.15559,-0.19795,0.097634,0.21741,0.37308,0.48264,-1.1207,0.0016284,0.33488,-0.013275,-0.030384,0.081472,0.235,-0.32535,-0.27176,-0.0010269,0.77512
-0.12045,-0.028362,-0.075132,-0.018412,-0.20411,-0.14933,0.11943,0.14982,-0.18349,0.018516,0.17935,0.40069,0.31453,-1.133,0.014536,0.31995,-0.015688,-0.028853,0.085276,0.23119,-0.31317,-0.2015,-0.063764,0.53342
-0.12686,-0.028765,-0.076009,-0.002068,-0.23184,-0.14535,0.11082,0.14116,-0.16834,-0.039984,0.14436,0.38506,0.14091,-1.1151,0.007509,0.29992,-0.018408,-0.022887,0.08183,0.25144,-0.27805,-0.031724,-0.12431,0.35583
-0.13231,-0.028804,-0.071903,0.0094638,-0.25473,-0.14583,0.10212,0.13006,-0.15413,-0.070019,0.11125,0.32065,0.0030548,-1.0783,-0.0050549,0.28774,-0.021576,-0.016173,0.077186,0.2922,-0.21698,0.23564,-0.16098,0.24265
-0.13811,-0.029258,-0.065542,0.015314,-0.27238,-0.15466,0.091753,0.11725,-0.14423,-0.080079,0.073039,0.21786,-0.061194,-1.0115,-0.016548,0.29338,-0.025022,-0.012353,0.076928,0.33531,-0.138,0.56063,-0.16485,0.14678
-0.14351,-0.030688,-0.059233,0.01861,-0.28597,-0.16864,0.078444,0.10274,-0.13961,-0.090376,0.024329,0.10034,-0.037527,-0.90841,-0.031797,0.31414,-0.028414,-0.012902,0.081483,0.36026,-0.053311,0.87115,-0.13672,0.016792
-0.14615,-0.032843,-0.05342,0.023733,-0.29704,-0.17879,0.062003,0.085107,-0.13676,-0.12018,-0.032824,-0.0053666,0.056466,-0.78774,-0.058186,0.3344,-0.031454,-0.01689,0.085589,0.35709,0.027624,1.0907,-0.082563,-0.16108
-0.14411,-0.034553,-0.047236,0.032924,-0.30609,-0.17602,0.04343,0.062506,-0.12952,-0.17625,-0.089499,-0.081237,0.18231,-0.68868,-0.092346,0.33751,-0.033956,-0.022288,0.082301,0.33088,0.099381,1.1725,-0.01401,-0.35643
-0.13775,-0.034128,-0.0402,0.044681,-0.31221,-0.15742,0.024663,0.034685,-0.11344,-0.25025,-0.13604,-0.12236,0.30338,-0.64234,-0.11531,0.32094,-0.035883,-0.027385,0.068345,0.29554,0.15762,1.1195,0.048814,-0.52523
-0.1295,-0.030044,-0.033282,0.054999,-0.31408,-0.12866,0.0085362,0.0041415,-0.088721,-0.32615,-0.16818,-0.13295,0.40263,-0.64259,-0.10258,0.3009,-0.037373,-0.03126,0.046772,0.26274,0.19763,0.97735,0.079943,-0.64814
-0.12206,-0.021733,-0.028365,0.0603,-0.31162,-0.10068,-0.00090628,-0.025135,-0.059404,-0.39133,-0.188,-0.11915,0.4833,-0.64257,-0.042823,0.30035,-0.038598,-0.033423,0.025258,0.23469,0.21692,0.80499,0.05895,-0.74508
-0.11669,-0.01019,-0.026745,0.059723,-0.30587,-0.082639,0.0018197,-0.050505,-0.029617,-0.44327,-0.19962,-0.085892,0.55532,-0.5842,0.049445,0.32921,-0.039325,-0.033436,0.011685,0.20503,0.21855,0.64101,-0.01553,-0.85768
-0.11316,0.0019868,-0.028124,0.05527,-0.29602,-0.076422,0.022992,-0.072629,-0.00051542,-0.48785,-0.20431,-0.039935,0.62082,-0.43906,0.1385,0.37401,-0.038425,-0.031032,0.010214,0.16535,0.20987,0.48734,-0.12138,-1.0169
-0.11076,0.011418,-0.030876,0.050111,-0.2752,-0.076148,0.067757,-0.094689,0.029461,-0.53145,-0.19959,0.0060364,0.67025,-0.22578,0.1875,0.40706,-0.03399,-0.026582,0.01987,0.11147,0.19638,0.32052,-0.22313,-1.2205
-0.10911,0.01551,-0.033162,0.046685,-0.22935,-0.072551,0.1375,-0.11936,0.061434,-0.57347,-0.18288,0.035492,0.68964,0.01257,0.18021,0.40881,-0.024518,-0.021352,0.035468,0.045545,0.17623,0.12049,-0.29081,-1.4328
-0.1078,0.014004,-0.033878,0.045904,-0.14265,-0.057961,0.22802,-0.14596,0.093189,-0.60553,-0.15547,0.037888,0.67018,0.2515,0.12872,0.38431,-0.010721,-0.017217,0.049513,-0.025581,0.14158,-0.10667,-0.31462,-1.6031
-0.10536,0.0094744,-0.032839,0.047443,-0.0079909,-0.027812,0.32998,-0.16989,0.11947,-0.61828,-0.12294,0.019305,0.61222,0.50744,0.062585,0.35976,0.0035514,-0.015875,0.054266,-0.092898,0.086307,-0.33071,-0.30643,-1.69
-0.099245,0.0061348,-0.030407,0.050276,0.16388,0.021426,0.43179,-0.1849,0.13551,-0.61134,-0.091343,0.0037924,0.52355,0.81464,0.0087826,0.36198,0.012665,-0.017922,0.04408,-0.14703,0.013261,-0.5226,-0.28897,-1.6806
-0.087439,0.0074261,-0.027113,0.052906,0.34444,0.093795,0.52334,-0.18641,0.14098,-0.59876,-0.063176,0.02131,0.41717,1.1744,-0.021795,0.39805,0.012611,-0.022262,0.018044,-0.17977,-0.066124,-0.68156,-0.28188,-1.595
-0.070512,0.013821,-0.023463,0.053654,0.49891,0.19084,0.59832,-0.17427,0.14077,-0.6048,-0.036899,0.089016,0.31108,1.5246,-0.03237,0.45143,0.0042412,-0.026298,-0.018077,-0.18641,-0.13952,-0.84111,-0.29355,-1.4747
-0.052302,0.022395,-0.019806,0.051481,0.6032,0.30506,0.65369,-0.15327,0.14189,-0.65138,-0.010485,0.19904,0.2265,1.7627,-0.027703,0.49525,-0.0064865,-0.027116,-0.05241,-0.16829,-0.20154,-1.0491,-0.32124,-1.3557
-0.038176,0.028636,-0.016078,0.046999,0.65515,0.41618,0.68766,-0.13133,0.14865,-0.74484,0.01442,0.32186,0.17981,1.8111,-0.0044582,0.50973,-0.012112,-0.02325,-0.071058,-0.13353,-0.25461,-1.3388,-0.35636,-1.2429
-0.031849,0.029379,-0.011612,0.042545,0.67188,0.49663,0.69827,-0.11569,0.16003,-0.8708,0.0317,0.42289,0.17145,1.671,0.045861,0.48924,-0.0088386,-0.015956,-0.064568,-0.094368,-0.30284,-1.7131,-0.3905,-1.1024
-0.033041,0.024825,-0.0053975,0.040666,0.67531,0.52537,0.6842,-0.1089,0.17135,-1.001,0.034335,0.4805,0.18188,1.4201,0.12445,0.43689,0.00072016,-0.0088998,-0.033551,-0.06219,-0.34587,-2.1484,-0.41948,-0.88595
-0.037614,0.018155,0.0031463,0.04194,0.67628,0.50095,0.64691,-0.10677,0.17891,-1.1075,0.019536,0.4938,0.18272,1.1559,0.21599,0.35613,0.0096156,-0.0060537,0.010118,-0.043059,-0.37874,-2.6058,-0.44478,-0.57219
-0.040058,0.013012,0.013299,0.044129,0.6692,0.4435,0.59169,-0.10014,0.18366,-1.1743,-0.0085989,0.47765,0.15773,0.93093,0.29294,0.24935,0.012019,-0.0090076,0.048122,-0.036546,-0.39693,-3.0316,-0.47101,-0.19678
-0.036561,0.010753,0.022814,0.043799,0.6407,0.38312,0.52594,-0.080308,0.19082,-1.1973,-0.040859,0.45169,0.1168,0.73133,0.33127,0.12339,0.00774,-0.015636,0.064662,-0.037898,-0.40021,-3.3495,-0.49932,0.15889
-0.026855,0.0095708,0.02876,0.039279,0.58457,0.34321,0.4559,-0.044794,0.20542,-1.1739,-0.067582,0.43193,0.089006,0.51055,0.3245,-0.0070213,0.0021572,-0.021317,0.054697,-0.041401,-0.39039,-3.4604,-0.51982,0.41872
-0.014087,0.0061369,0.029126,0.032356,0.51071,0.33157,0.38433,0.00062267,0.22733,-1.0899,-0.082675,0.4279,0.097736,0.24414,0.28424,-0.12485,0.0016865,-0.022027,0.026347,-0.042527,-0.36619,-3.2715,-0.50995,0.56727
-0.003247,-0.0016073,0.024256,0.026982,0.44058,0.34465,0.31117,0.045472,0.25015,-0.91857,-0.084396,0.44239,0.13819,-0.041307,0.22747,-0.22203,0.0085882,-0.017122,-0.0044117,-0.038247,-0.32216,-2.749,-0.44417,0.66412
0.00090524,-0.012744,0.01711,0.026059,0.39331,0.37894,0.23659,0.081403,0.26533,-0.63714,-0.073144,0.47026,0.17726,-0.2849,0.16262,-0.30554,0.019321,-0.0097134,-0.023644,-0.026567,-0.25537,-1.9622,-0.31204,0.7999
-0.0043246,-0.024074,0.01199,0.029233,0.37375,0.43744,0.16365,0.10724,0.2686,-0.25253,-0.048928,0.49799,0.17739,-0.43407,0.087134,-0.39109,0.027541,-0.0043761,-0.027477,-0.006457,-0.1742,-1.0807,-0.13263,1.024
-0.018482,-0.032551,0.012336,0.033761,0.37207,0.52511,0.098564,0.12861,0.26349,0.18094,-0.0112,0.50801,0.1249,-0.47658,-0.0021889,-0.48892,0.029017,-0.0039885,-0.022927,0.022009,-0.099542,-0.31243,0.048452,1.3009
-0.03811,-0.037439,0.018868,0.03756,0.37419,0.63824,0.048119,0.15289,0.25883,0.57006,0.038591,0.48854,0.039146,-0.4413,-0.097221,-0.59434,0.02445,-0.0080612,-0.021381,0.058284,-0.054359,0.1876,0.18145,1.5326
-0.058355,-0.040521,0.029266,0.041336,0.37348,0.7592,0.016156,0.1835,0.26203,0.82007,0.094116,0.44287,-0.044641,-0.37572,-0.17745,-0.69178,0.018305,-0.013612,-0.029956,0.10283,-0.048849,0.38526,0.24123,1.6317
-0.075378,-0.044376,0.039625,0.047591,0.37383,0.86307,0.0012076,0.2178,0.27327,0.8828,0.14427,0.38952,-0.10307,-0.32315,-0.22203,-0.76851,0.01512,-0.017601,-0.047213,0.15762,-0.073865,0.37091,0.24154,1.5848
-0.088024,-0.050265,0.046762,0.057426,0.38207,0.93138,-0.0033805,0.2492,0.2853,0.78585,0.1776,0.35096,-0.13968,-0.31383,-0.22457,-0.82458,0.016458,-0.018942,-0.065876,0.22355,-0.10912,0.29843,0.22314,1.4548
-0.097399,-0.057286,0.049851,0.068406,0.39739,0.96164,-0.0068795,0.27128,0.2886,0.62083,0.18887,0.33884,-0.17714,-0.36663,-0.19723,-0.86838,0.020555,-0.018782,-0.079466,0.29504,-0.13962,0.29932,0.22396,1.3195
-0.10461,-0.063261,0.050298,0.075853,0.40757,0.96454,-0.017158,0.28072,0.27761,0.49398,0.18319,0.34749,-0.23732,-0.48983,-0.16071,-0.9013,0.024271,-0.019276,-0.08706,0.35575,-0.16597,0.42325,0.25328,1.2007
-0.10871,-0.066358,0.050096,0.076607,0.39579,0.95188,-0.036748,0.27774,0.2532,0.46845,0.17403,0.3614,-0.3282,-0.67629,-0.12911,-0.90634,0.025377,-0.021992,-0.092715,0.38061,-0.19965,0.63486,0.28909,1.0466
-0.10708,-0.066099,0.050019,0.071769,0.35249,0.92604,-0.060681,0.2648,0.22027,0.53489,0.1757,0.36983,-0.44621,-0.90027,-0.10306,-0.85453,0.023575,-0.026943,-0.10105,0.34556,-0.24817,0.85803,0.29896,0.78269
-0.098223,-0.063197,0.049113,0.065766,0.28245,0.8797,-0.077467,0.24498,0.18363,0.62857,0.1948,0.37537,-0.58527,-1.1246,-0.076272,-0.72743,0.020086,-0.032507,-0.11349,0.24024,-0.30452,1.0316,0.26666,0.38936
-0.084626,-0.058781,0.045844,0.062509,0.20167,0.80513,-0.073606,0.22088,0.14611,0.67927,0.22644,0.38846,-0.73815,-1.3172,-0.047799,-0.53838,0.016663,-0.036052,-0.12811,0.07514,-0.35147,1.1395,0.20375,-0.062925
-0.072689,-0.053909,0.039832,0.062157,0.12682,0.70383,-0.040423,0.19406,0.10988,0.65819,0.25806,0.41274,-0.88754,-1.4651,-0.027397,-0.33322,0.014842,-0.035068,-0.14228,-0.12219,-0.37705,1.2022,0.13871,-0.45028
-0.069077,-0.049636,0.032619,0.061371,0.065797,0.58768,0.01958,0.16517,0.078432,0.59083,0.27796,0.43516,-0.99963,-1.5753,-0.028236,-0.1669,0.015618,-0.028455,-0.15451,-0.31926,-0.38672,1.2449,0.094718,-0.67428
-0.076076,-0.047114,0.026707,0.056615,0.016257,0.47066,0.090536,0.13447,0.055948,0.53149,0.28248,0.43102,-1.0347,-1.6636,-0.053691,-0.072314,0.019289,-0.017361,-0.16337,-0.49081,-0.40015,1.2712,0.07477,-0.71824
-0.089636,-0.047157,0.023632,0.047284,-0.028178,0.35903,0.14782,0.10271,0.044194,0.5225,0.2766,0.38123,-0.97258,-1.7418,-0.091071,-0.045222,0.025311,-0.0048808,-0.16509,-0.62335,-0.43448,1.263,0.064563,-0.63891
-0.10179,-0.049483,0.022722,0.035881,-0.070596,0.24843,0.16878,0.0716,0.039973,0.56885,0.26815,0.28772,-0.83394,-1.8145,-0.1192,-0.055959,0.032293,0.0054346,-0.15328,-0.71227,-0.48842,1.204,0.048633,-0.50779
-0.10563,-0.052498,0.021612,0.025417,-0.10882,0.13002,0.14467,0.043335,0.03636,0.64239,0.26033,0.17392,-0.67517,-1.8839,-0.12426,-0.076452,0.038308,0.011384,-0.12277,-0.75745,-0.54113,1.1032,0.025322,-0.35656
-0.09926,-0.054205,0.018116,0.016843,-0.13957,2.0734e-005,0.08624,0.019568,0.027364,0.70593,0.24871,0.069406,-0.55638,-1.9522,-0.11059,-0.099118,0.041555,0.013009,-0.075239,-0.76304,-0.56695,0.99887,0.0091247,-0.1713
-0.086017,-0.053685,0.011866,0.0089412,-0.16353,-0.13571,0.018055,0.00057252,0.012197,0.73526,0.22495,-0.0092288,-0.5031,-2.0156,-0.097114,-0.13285,0.041131,0.012032,-0.021922,-0.74028,-0.55343,0.93659,0.020039,0.06705
-0.071613,-0.051799,0.0043846,0.00042229,-0.18554,-0.26542,-0.035936,-0.014595,-0.0045124,0.72527,0.18402,-0.066252,-0.48921,-2.056,-0.1022,-0.18274,0.03753,0.010417,0.020019,-0.70706,-0.50814,0.94061,0.068987,0.33888
-0.060476,-0.05025,-0.0023391,-0.0082096,-0.20915,-0.37979,-0.066178,-0.027104,-0.016433,0.68308,0.12914,-0.11825,-0.45218,-2.0419,-0.12928,-0.23471,0.032472,0.0091639,0.035838,-0.6803,-0.4502,1.0031,0.1495,0.58056
-0.053829,-0.049708,-0.007453,-0.015034,-0.23123,-0.47795,-0.080396,-0.037363,-0.019331,0.62053,0.07047,-0.17734,-0.3284,-1.9434,-0.16464,-0.26091,0.027999,0.0079968,0.020754,-0.66549,-0.39564,1.1002,0.23982,0.72134
-0.050112,-0.04874,-0.011678,-0.01885,-0.24262,-0.56669,-0.093446,-0.0447,-0.0114,0.55347,0.019005,-0.24027,-0.084768,-1.7545,-0.18856,-0.24204,0.025204,0.0057684,-0.018619,-0.65275,-0.3491,1.2211,0.31228,0.72867
-0.046809,-0.044791,-0.016415,-0.020703,-0.2356,-0.65455,-0.11277,-0.047682,0.0092945,0.50307,-0.01963,-0.29151,0.26935,-1.5054,-0.19041,-0.18647,0.023441,0.0010361,-0.069666,-0.62495,-0.30692,1.3813,0.34383,0.62347
-0.042348,-0.036588,-0.022504,-0.023066,-0.21208,-0.74609,-0.13214,-0.044565,0.045871,0.49026,-0.046858,-0.31647,0.6892,-1.2561,-0.17587,-0.12857,0.020705,-0.0074175,-0.12146,-0.57272,-0.26571,1.6048,0.32271,0.45632
-0.037207,-0.025857,-0.029704,-0.027389,-0.18504,-0.84101,-0.13959,-0.033712,0.098803,0.52186,-0.068008,-0.31316,1.1104,-1.0728,-0.16142,-0.10645,0.015095,-0.019994,-0.16876,-0.50379,-0.22703,1.8856,0.25024,0.2693
-0.033918,-0.016606,-0.037077,-0.032479,-0.17129,-0.93786,-0.13239,-0.014333,0.15936,0.57919,-0.087706,-0.29295,1.4649,-1.0006,-0.16117,-0.137,0.0063116,-0.035618,-0.20998,-0.43808,-0.19445,2.1623,0.13864,0.076235
-0.035949,-0.01227,-0.043625,-0.035476,-0.18161,-1.0388,-0.12559,0.012095,0.20742,0.62186,-0.1076,-0.2704,1.697,-1.0438,-0.17622,-0.20785,-0.003993,-0.05147,-0.24204,-0.39206,-0.16764,2.3302,0.0070176,-0.12737
-0.045747,-0.013005,-0.048583,-0.034694,-0.21606,-1.1515,-0.14516,0.04031,0.21912,0.60861,-0.12741,-0.25109,1.7783,-1.1602,-0.1936,-0.29061,-0.0133,-0.06372,-0.25803,-0.36569,-0.14067,2.2928,-0.1231,-0.34101
-0.062832,-0.015532,-0.05144,-0.031709,-0.26773,-1.2864,-0.21049,0.06111,0.18189,0.52133,-0.14711,-0.22682,1.7191,-1.2714,-0.19446,-0.36232,-0.01984,-0.069232,-0.2506,-0.34312,-0.10667,2.018,-0.23223,-0.54742
-0.083218,-0.015816,-0.052139,-0.030629,-0.33036,-1.4525,-0.32011,0.06377,0.10597,0.37383,-0.16782,-0.18187,1.5644,-1.2884,-0.16482,-0.41691,-0.023418,-0.067306,-0.21867,-0.30644,-0.064203,1.5616,-0.30706,-0.72154
-0.10098,-0.01239,-0.051536,-0.034955,-0.40224,-1.6528,-0.45198,0.040577,0.02194,0.19817,-0.19092,-0.10499,1.3727,-1.146,-0.10205,-0.45932,-0.024937,-0.060174,-0.17114,-0.25073,-0.019258,1.0401,-0.34376,-0.84739
-0.11139,-0.0074071,-0.051553,-0.044652,-0.48352,-1.8832,-0.57773,-0.0090009,-0.036304,0.019927,-0.21714,0.0016347,1.1863,-0.83222,-0.014579,-0.49096,-0.025226,-0.051709,-0.12335,-0.18765,0.018892,0.57078,-0.34875,-0.92425
-0.11364,-0.0044839,-0.054402,-0.055942,-0.57048,-2.132,-0.67958,-0.077479,-0.051721,-0.15648,-0.24701,0.12264,1.0133,-0.39604,0.082962,-0.50201,-0.024272,-0.045144,-0.088131,-0.13569,0.043874,0.22093,-0.33543,-0.95737
-0.11116,-0.005253,-0.061082,-0.063986,-0.65353,-2.3812,-0.75744,-0.1529,-0.032125,-0.34006,-0.28192,0.23797,0.83207,0.075034,0.17515,-0.47795,-0.021371,-0.04142,-0.068346,-0.10578,0.055002,-0.0027319,-0.31698,-0.946
-0.10902,-0.0077629,-0.070242,-0.066206,-0.72153,-2.6084,-0.82262,-0.22458,-0.00022262,-0.53051,-0.32397,0.33295,0.61645,0.49551,0.24932,-0.41384,-0.015911,-0.039283,-0.057008,-0.094224,0.055194,-0.12459,-0.29909,-0.88401
-0.11016,-0.0081947,-0.07858,-0.063545,-0.76844,-2.7904,-0.88496,-0.28703,0.025496,-0.70249,-0.37373,0.4034,0.35998,0.81639,0.29734,-0.3228,-0.0081238,-0.036898,-0.044674,-0.087264,0.047511,-0.16,-0.27764,-0.77312
-0.11321,-0.0043248,-0.082916,-0.058947,-0.79612,-2.9076,-0.94364,-0.33895,0.042687,-0.81456,-0.42778,0.45338,0.081949,1.0324,0.31651,-0.23058,0.00063665,-0.033486,-0.02754,-0.071659,0.034673,-0.099006,-0.24431,-0.63296
-0.11361,0.0023955,-0.08262,-0.054745,-0.81026,-2.9479,-0.98745,-0.37844,0.060341,-0.83921,-0.47831,0.4892,-0.18778,1.1615,0.30958,-0.16119,0.0082221,-0.029646,-0.0092013,-0.042211,0.022095,0.075041,-0.1967,-0.494
-0.10716,0.0079119,-0.080502,-0.051371,-0.81306,-2.9083,-1.0026,-0.39877,0.082819,-0.7892,-0.51598,0.51435,-0.42973,1.2168,0.28332,-0.12499,0.012583,-0.026237,0.0048126,-0.0017352,0.020321,0.35196,-0.14465,-0.37754
-0.09327,0.0086832,-0.081099,-0.048187,-0.79916,-2.7935,-0.98083,-0.38914,0.098515,-0.71475,-0.53429,0.52829,-0.64263,1.1938,0.24546,-0.11755,0.012967,-0.023088,0.013752,0.043511,0.042257,0.67937,-0.10626,-0.28295
-0.075461,0.0041019,-0.087183,-0.045091,-0.75856,-2.6131,-0.92328,-0.34094,0.084814,-0.66862,-0.5327,0.52816,-0.83308,1.0814,0.2018,-0.12689,0.010715,-0.018959,0.022524,0.087077,0.095199,0.98248,-0.094919,-0.19748
-0.058869,-0.0035296,-0.096959,-0.043036,-0.6846,-2.3785,-0.838,-0.25529,0.026206,-0.66529,-0.51714,0.51148,-1,0.88182,0.15574,-0.14099,0.0088026,-0.012975,0.035696,0.12197,0.17326,1.205,-0.10747,-0.12118
-0.047005,-0.010881,-0.10437,-0.043144,-0.58074,-2.1007,-0.73532,-0.14573,-0.069896,-0.66965,-0.49761,0.47866,-1.1323,0.62094,0.11027,-0.15005,0.009929,-0.0062007,0.050856,0.13974,0.25686,1.3385,-0.12392,-0.080747
-0.04027,-0.015469,-0.10291,-0.045801,-0.46117,-1.7896,-0.62421,-0.033376,-0.17394,-0.62803,-0.48384,0.43503,-1.2235,0.33949,0.069994,-0.14553,0.014305,-0.0016797,0.058695,0.13323,0.3211,1.4166,-0.12084,-0.11286
-0.036941,-0.016368,-0.090614,-0.051089,-0.34443,-1.455,-0.51115,0.062839,-0.25234,-0.51694,-0.48024,0.39116,-1.2905,0.075656,0.039917,-0.12114,0.019055,-0.0024594,0.050739,0.1026,0.34767,1.4805,-0.088474,-0.22562
-0.035135,-0.014113,-0.072395,-0.060069,-0.24426,-1.108,-0.40098,0.13419,-0.28933,-0.36608,-0.48185,0.35949,-1.3739,-0.14511,0.021263,-0.077291,0.020189,-0.0090256,0.027724,0.059419,0.33258,1.5462,-0.037919,-0.37147
-0.033761,-0.010546,-0.057601,-0.074987,-0.16351,-0.76288,-0.29814,0.18328,-0.29624,-0.23379,-0.47416,0.34713,-1.5137,-0.30592,0.0082342,-0.024037,0.015917,-0.01838,0.00024657,0.023205,0.28547,1.6003,0.0077533,-0.46121
-0.031961,-0.0085691,-0.05402,-0.097244,-0.09469,-0.43695,-0.20718,0.21809,-0.30196,-0.15706,-0.43914,0.34903,-1.7172,-0.38854,-0.0096756,0.022893,0.0084813,-0.025884,-0.019727,0.010665,0.22331,1.6248,0.030967,-0.41627
-0.028359,-0.011063,-0.062621,-0.1245,-0.026348,-0.1471,-0.13242,0.24423,-0.33304,-0.12474,-0.36584,0.34788,-1.9444,-0.37154,-0.039786,0.052035,0.0026094,-0.028694,-0.029074,0.02486,0.16379,1.625,0.031329,-0.22286
-0.021582,-0.018923,-0.076997,-0.14986,0.049069,0.096635,-0.076907,0.26102,-0.3981,-0.10265,-0.26002,0.32373,-2.1255,-0.24105,-0.07863,0.064276,0.0015194,-0.028082,-0.035906,0.052719,0.12171,1.6322,0.022545,0.054002
-0.011853,-0.029611,-0.087993,-0.16479,0.13101,0.29659,-0.041135,0.26404,-0.48648,-0.087613,-0.14541,0.26864,-2.196,-0.0050762,-0.11178,0.071569,0.0038509,-0.028567,-0.051518,0.073381,0.10703,1.6794,0.018664,0.3093
-0.0018302,-0.037992,-0.089999,-0.16423,0.21227,0.46737,-0.022242,0.25116,-0.57924,-0.13421,-0.05413,0.19556,-2.1251,0.30214,-0.12266,0.086931,0.0044086,-0.034276,-0.078869,0.071208,0.12248,1.7719,0.022512,0.46146
0.0048083,-0.039565,-0.08417,-0.14992,0.2839,0.62837,-0.014559,0.22667,-0.66265,-0.31819,-0.011215,0.13343,-1.9176,0.63053,-0.10408,0.11464,-0.0015946,-0.045337,-0.10792,0.043581,0.16212,1.8818,0.026056,0.49441
0.0063502,-0.033863,-0.076425,-0.12922,0.33935,0.79251,-0.011947,0.20002,-0.73439,-0.65994,-0.022911,0.11018,-1.5959,0.932,-0.062997,0.14949,-0.014268,-0.057301,-0.12211,-0.0019085,0.21454,1.973,0.020885,0.451
0.0050094,-0.02515,-0.072227,-0.11003,0.37476,0.95801,-0.010943,0.1802,-0.80007,-1.0752,-0.075712,0.13527,-1.1837,1.1736,-0.014623,0.18514,-0.028414,-0.06422,-0.11044,-0.057342,0.27184,2.0309,0.0080956,0.39
0.0057454,-0.01952,-0.072462,-0.095686,0.38685,1.1089,-0.01253,0.17014,-0.86434,-1.4034,-0.14501,0.19427,-0.70747,1.3404,0.028946,0.22273,-0.037152,-0.063017,-0.075078,-0.12216,0.33834,2.0692,-0.0016119,0.34487
0.01251,-0.020524,-0.073391,-0.083695,0.37195,1.2238,-0.020925,0.16531,-0.92411,-1.5,-0.20586,0.25914,-0.2106,1.4309,0.065878,0.2704,-0.03681,-0.055683,-0.028696,-0.20185,0.4302,2.1052,0.0029175,0.31557
0.024987,-0.026775,-0.070146,-0.068832,0.32868,1.2879,-0.040059,0.15725,-0.96802,-1.3219,-0.23887,0.30612,0.24024,1.4516,0.10184,0.3334,-0.029195,-0.047594,0.015365,-0.29904,0.56281,2.1295,0.023735,0.29235
0.038733,-0.033352,-0.060529,-0.047888,0.26233,1.3009,-0.070601,0.13902,-0.98209,-0.94339,-0.23076,0.32755,0.57121,1.4133,0.14082,0.40389,-0.01976,-0.04348,0.051355,-0.40529,0.73381,2.1014,0.05225,0.28271
0.048828,-0.035706,-0.046214,-0.022269,0.18616,1.2779,-0.10995,0.10864,-0.9571,-0.49596,-0.17417,0.3303,0.73458,1.3284,0.17844,0.46088,-0.013682,-0.04436,0.081698,-0.50119,0.91558,1.9795,0.076304,0.31278
0.054012,-0.032903,-0.031023,0.0031097,0.11653,1.2428,-0.15457,0.068985,-0.89286,-0.087787,-0.070513,0.3246,0.73561,1.2088,0.20407,0.48159,-0.013149,-0.047692,0.11102,-0.56543,1.0651,1.7594,0.089035,0.40022
0.057792,-0.027845,-0.018337,0.023088,0.064307,1.2197,-0.20156,0.025204,-0.79695,0.2356,0.066172,0.31408,0.6309,1.0643,0.20946,0.45557,-0.017482,-0.05008,0.14011,-0.58578,1.1454,1.4829,0.092215,0.52365
0.065495,-0.024648,-0.0098412,0.034796,0.029027,1.2237,-0.24702,-0.017665,-0.6794,0.47364,0.21045,0.29497,0.49592,0.90385,0.19644,0.38997,-0.02491,-0.049926,0.16507,-0.56394,1.1434,1.2033,0.092451,0.61963
0.079689,-0.025475,-0.0059518,0.037916,0.0011557,1.256,-0.28325,-0.055567,-0.54758,0.63074,0.33476,0.2626,0.3823,0.73523,0.17689,0.30229,-0.033736,-0.047881,0.18144,-0.51134,1.072,0.93725,0.094697,0.61618
0.097762,-0.029146,-0.0065262,0.033519,-0.028865,1.3057,-0.29913,-0.085408,-0.40533,0.69874,0.42238,0.21697,0.29309,0.56056,0.16543,0.20745,-0.042056,-0.045233,0.18841,-0.44086,0.95648,0.64478,0.098671,0.48151
0.11365,-0.032295,-0.01058,0.023334,-0.06177,1.3575,-0.28614,-0.10536,-0.25649,0.67311,0.4751,0.16146,0.19196,0.36969,0.17024,0.1102,-0.04727,-0.042164,0.18895,-0.36147,0.81872,0.26285,0.10019,0.25114
0.1223,-0.031954,-0.015456,0.010111,-0.088123,1.4002,-0.24619,-0.11559,-0.10878,0.57656,0.50948,0.097365,0.037646,0.13886,0.18807,0.0082598,-0.046991,-0.037581,0.18616,-0.27908,0.67023,-0.23353,0.095107,0.011014
0.12333,-0.027645,-0.017143,-0.0020967,-0.095738,1.4323,-0.19387,-0.11822,0.026517,0.45934,0.54458,0.022028,-0.18184,-0.15848,0.20541,-0.098056,-0.041152,-0.030511,0.17998,-0.20025,0.5167,-0.79344,0.082434,-0.15417
0.12106,-0.021618,-0.012586,-0.009179,-0.079903,1.458,-0.14902,-0.11565,0.14011,0.37367,0.59018,-0.065798,-0.43913,-0.53184,0.2042,-0.19905,-0.033159,-0.021571,0.16764,-0.13302,0.36626,-1.3114,0.064857,-0.21192
0.12109,-0.017229,-0.0025065,-0.0094451,-0.048116,1.4799,-0.12404,-0.10816,0.23104,0.34734,0.6434,-0.15846,-0.68614,-0.95893,0.1691,-0.27777,-0.028239,-0.013075,0.14731,-0.082822,0.2319,-1.6951,0.047498,-0.19655
0.12632,-0.016692,0.0080904,-0.0051639,-0.015404,1.4944,-0.11595,-0.093163,0.30757,0.38002,0.69396,-0.23917,-0.88423,-1.3892,0.093898,-0.31917,-0.029677,-0.0076446,0.12135,-0.047773,0.12609,-1.9254,0.036288,-0.17777
0.13535,-0.019782,0.013031,-0.0012019,0.006349,1.4957,-0.11022,-0.067392,0.3808,0.4606,0.73173,-0.29221,-1.0222,-1.7656,-0.014639,-0.31926,-0.03605,-0.0064839,0.095662,-0.019382,0.053287,-2.0588,0.036601,-0.2064
0.14432,-0.02429,0.0097359,-0.0012744,0.01728,1.4856,-0.093319,-0.030902,0.45555,0.58327,0.7499,-0.31554,-1.111,-2.0476,-0.13722,-0.28805,-0.042138,-0.0086509,0.075758,0.0098655,0.0078054,-2.1654,0.052071,-0.27698
0.15021,-0.02772,0.001654,-0.004766,0.030548,1.4785,-0.063288,0.0105,0.52659,0.74606,0.74324,-0.32352,-1.1642,-2.2175,-0.24736,-0.24548,-0.043096,-0.011731,0.063218,0.037967,-0.021135,-2.2532,0.083575,-0.33548
0.15303,-0.0288,-0.0040641,-0.0069612,0.065172,1.4955,-0.029588,0.047044,0.58358,0.93785,0.70641,-0.33506,-1.1861,-2.2655,-0.31989,-0.21344,-0.038375,-0.013227,0.055767,0.052216,-0.041966,-2.2431,0.12887,-0.3284
0.15518,-0.027689,-0.0020677,-0.0027304,0.13552,1.5497,-0.0032406,0.070394,0.62074,1.1335,0.63706,-0.35609,-1.177,-2.172,-0.33914,-0.20806,-0.031961,-0.011649,0.05056,0.038134,-0.05725,-2.0263,0.18321,-0.25843
0.15904,-0.024975,0.0070033,0.0092874,0.24334,1.6337,0.013225,0.078868,0.64264,1.3063,0.54249,-0.3719,-1.1483,-1.9093,-0.30312,-0.23434,-0.028691,-0.0068013,0.047121,-0.0077516,-0.066137,-1.5675,0.2406,-0.20273
0.16491,-0.020629,0.017161,0.025428,0.37561,1.7212,0.027035,0.078315,0.66083,1.4452,0.44256,-0.35753,-1.127,-1.47,-0.22286,-0.28415,-0.029964,0.00044889,0.046801,-0.071905,-0.069302,-0.97688,0.29494,-0.27302
0.17104,-0.013997,0.021986,0.039608,0.50832,1.7804,0.047288,0.077681,0.68437,1.5565,0.36277,-0.29887,-1.1397,-0.90112,-0.11841,-0.33868,-0.032629,0.0084719,0.049341,-0.13026,-0.071115,-0.48513,0.34078,-0.53913
0.1754,-0.0048423,0.019667,0.047548,0.61439,1.7922,0.075818,0.082455,0.71243,1.6472,0.31935,-0.20753,-1.1857,-0.3124,-0.013267,-0.37546,-0.031918,0.01519,0.05047,-0.16272,-0.076958,-0.32386,0.37401,-0.9701
0.17738,0.0056825,0.014028,0.049224,0.67318,1.758,0.10515,0.091018,0.73549,1.7051,0.30666,-0.11708,-1.226,0.15841,0.072021,-0.37815,-0.025677,0.018749,0.043876,-0.16465,-0.088302,-0.58598,0.39271,-1.4411
0.17807,0.015198,0.010927,0.047897,0.67888,1.6938,0.12479,0.096631,0.74349,1.7019,0.29798,-0.063291,-1.2015,0.40933,0.12625,-0.34456,-0.016138,0.0186,0.026774,-0.14668,-0.10012,-1.1622,0.39754,-1.8082
0.1789,0.021476,0.013272,0.046924,0.64358,1.6173,0.12981,0.093252,0.73405,1.6197,0.26141,-0.063021,-1.0732,0.42703,0.15148,-0.28831,-0.0078493,0.01629,0.0042297,-0.12406,-0.10309,-1.801,0.39083,-1.9992
0.18019,0.023958,0.01886,0.047174,0.59202,1.5364,0.12417,0.080285,0.71387,1.4785,0.18038,-0.10668,-0.8523,0.2935,0.16097,-0.23273,-0.0037787,0.014934,-0.012377,-0.10442,-0.08902,-2.2512,0.37445,-2.0515
0.18089,0.024127,0.022642,0.046949,0.54885,1.4465,0.11688,0.062468,0.69319,1.3355,0.063564,-0.16768,-0.59742,0.14101,0.17015,-0.19995,-0.0029959,0.017185,-0.012674,-0.083276,-0.055746,-2.3904,0.34781,-2.0674
0.17968,0.024324,0.021332,0.044044,0.52473,1.336,0.11478,0.045327,0.67864,1.2501,-0.063042,-0.22023,-0.37938,0.083994,0.1856,-0.20079,-0.0016922,0.022999,0.0049036,-0.049121,-0.0082983,-2.2546,0.308,-2.1246
0.17639,0.025815,0.016404,0.03783,0.51073,1.1952,0.11809,0.030479,0.67035,1.241,-0.17512,-0.25273,-0.24133,0.16975,0.19996,-0.22972,0.0036067,0.029216,0.031222,0.0073602,0.044074,-1.9652,0.25241,-2.2141
0.17219,0.027582,0.013034,0.029568,0.48594,1.0236,0.12146,0.014908,0.66441,1.2686,-0.26466,-0.26987,-0.18372,0.37351,0.19755,-0.26637,0.013362,0.031806,0.052463,0.087483,0.093074,-1.6225,0.1822,-2.2552
0.16845,0.026851,0.015877,0.02096,0.43416,0.83286,0.11857,-0.0054553,0.65753,1.26,-0.33902,-0.28494,-0.18199,0.63207,0.16693,-0.28219,0.024769,0.029303,0.059657,0.1848,0.13579,-1.2512,0.10424,-2.1677
0.16526,0.021183,0.025129,0.012527,0.35778,0.64413,0.10636,-0.03151,0.64926,1.1576,-0.40671,-0.30895,-0.21683,0.88705,0.1102,-0.24959,0.033695,0.024474,0.054416,0.28869,0.17588,-0.8289,0.030231,-1.9371
0.16108,0.010673,0.036085,0.0034321,0.27792,0.48028,0.086366,-0.060273,0.64056,0.95349,-0.46324,-0.34272,-0.28821,1.109,0.041352,-0.15104,0.037132,0.022398,0.046569,0.38734,0.22059,-0.35431,-0.026129,-1.6176
0.15395,-0.0014342,0.042588,-0.0072538,0.22067,0.35647,0.063039,-0.088301,0.6308,0.6875,-0.48961,-0.37498,-0.40154,1.2934,-0.024619,0.014627,0.034635,0.026188,0.045887,0.46923,0.27482,0.1143,-0.052856,-1.2789
0.14317,-0.010427,0.04164,-0.019333,0.20011,0.27474,0.041172,-0.11579,0.61645,0.41467,-0.46518,-0.38756,-0.54197,1.4411,-0.082053,0.23046,0.028308,0.034002,0.054678,0.52495,0.33591,0.48588,-0.043347,-0.95146
0.13016,-0.013085,0.035464,-0.031748,0.21191,0.22655,0.024188,-0.14718,0.59289,0.17092,-0.38454,-0.36629,-0.66553,1.5447,-0.13581,0.46467,0.021785,0.040263,0.066975,0.55059,0.39334,0.70085,0.0004006,-0.62066
0.11762,-0.0097825,0.029361,-0.044127,0.24159,0.20164,0.013899,-0.18747,0.55792,-0.038705,-0.26485,-0.31291,-0.72099,1.5903,-0.19345,0.67764,0.018769,0.040429,0.074391,0.55031,0.43437,0.7729,0.066498,-0.27012
0.10774,-0.0041227,0.027221,-0.057773,0.27916,0.19598,0.011158,-0.23764,0.51415,-0.22757,-0.13832,-0.2502,-0.68722,1.5716,-0.25656,0.83049,0.02159,0.035297,0.073442,0.53457,0.45219,0.77281,0.13597,0.074323
0.10073,-0.0003615,0.028557,-0.074417,0.32587,0.21122,0.016521,-0.29367,0.46804,-0.40868,-0.035646,-0.21391,-0.59301,1.5004,-0.31906,0.89404,0.03022,0.030881,0.068461,0.51374,0.44993,0.77287,0.19026,0.34727
0.094716,-0.00063938,0.029653,-0.093208,0.38669,0.24548,0.030507,-0.35024,0.42555,-0.58736,0.027212,-0.23323,-0.4987,1.4032,-0.37208,0.85733,0.042286,0.033613,0.068352,0.4916,0.43672,0.80362,0.22012,0.49353
0.086825,-0.0041177,0.027767,-0.10858,0.45572,0.2839,0.053743,-0.40584,0.38683,-0.76768,0.050379,-0.31197,-0.45127,1.3071,-0.40903,0.73421,0.054261,0.044845,0.080509,0.46473,0.41849,0.85831,0.22975,0.51862
0.074639,-0.0084457,0.024474,-0.11168,0.50962,0.29956,0.08744,-0.46443,0.34354,-0.96047,0.040554,-0.42531,-0.44935,1.2262,-0.4255,0.56358,0.063269,0.059437,0.10684,0.42899,0.39213,0.93307,0.23228,0.49129
0.057242,-0.012024,0.024876,-0.095464,0.5179,0.26777,0.13408,-0.53214,0.28161,-1.1814,-0.00054217,-0.53764,-0.44729,1.1589,-0.41603,0.39901,0.068432,0.069774,0.1441,0.38784,0.34889,1.0572,0.23923,0.49392
0.035401,-0.015031,0.03311,-0.060162,0.46444,0.18431,0.19726,-0.61198,0.189,-1.4401,-0.080355,-0.63,-0.39476,1.0968,-0.37391,0.28824,0.070934,0.07182,0.1866,0.35495,0.28501,1.2787,0.25225,0.56397
0.011006,-0.018506,0.048145,-0.014979,0.36298,0.072627,0.27967,-0.70131,0.064185,-1.7326,-0.2093,-0.71603,-0.27766,1.0357,-0.29663,0.25169,0.072928,0.06806,0.22782,0.34774,0.20962,1.6124,0.26411,0.67747
-0.013774,-0.022616,0.063813,0.025978,0.25245,-0.028182,0.3794,-0.79405,-0.080288,-2.0451,-0.38918,-0.83246,-0.1268,0.98049,-0.19214,0.27385,0.076156,0.064918,0.25996,0.37637,0.14142,1.9977,0.26772,0.78584
-0.037121,-0.025915,0.07332,0.051109,0.17355,-0.087447,0.48712,-0.88475,-0.22236,-2.3655,-0.60521,-1.0101,0.010139,0.94238,-0.078359,0.31556,0.081121,0.067062,0.27357,0.43642,0.095436,2.3078,0.26461,0.86963
-0.057684,-0.026362,0.074379,0.057099,0.14304,-0.10149,0.58749,-0.96978,-0.34083,-2.6885,-0.82778,-1.2475,0.10603,0.93266,0.025702,0.34106,0.087023,0.073542,0.2604,0.51094,0.070882,2.4146,0.26419,0.95949
-0.074371,-0.023209,0.070451,0.049251,0.14535,-0.092574,0.66578,-1.0441,-0.42508,-3.0069,-1.0236,-1.5088,0.1693,0.9583,0.11009,0.34101,0.092186,0.07896,0.21927,0.58025,0.051169,2.2672,0.27412,1.1065
-0.086328,-0.018008,0.067069,0.036635,0.14735,-0.089647,0.71669,-1.097,-0.47815,-3.2966,-1.1694,-1.747,0.22822,1.0191,0.17588,0.33365,0.094731,0.078431,0.16062,0.63254,0.016816,1.9269,0.29092,1.3293
-0.093459,-0.013752,0.066646,0.026052,0.12443,-0.10658,0.74884,-1.1125,-0.51197,-3.5144,-1.2588,-1.9356,0.30375,1.104,0.22707,0.34262,0.093482,0.072038,0.10504,0.6681,-0.039654,1.5313,0.30097,1.5857
-0.097119,-0.012711,0.066496,0.019143,0.07727,-0.13492,0.78048,-1.0771,-0.53888,-3.6159,-1.2995,-2.0821,0.39672,1.1864,0.26063,0.36924,0.088955,0.065151,0.074664,0.69525,-0.10942,1.2108,0.29204,1.7916
-0.10006,-0.014691,0.061816,0.013978,0.027169,-0.1551,0.82787,-0.98837,-0.5653,-3.583,-1.3017,-2.2155,0.49676,1.2236,0.26566,0.38333,0.08376,0.064575,0.082545,0.72143,-0.17652,1.0133,0.2655,1.8726
-0.10507,-0.017171,0.050851,0.0087436,-0.0042132,-0.15499,0.89433,-0.85959,-0.59047,-3.435,-1.2664,-2.3575,0.59886,1.1665,0.23384,0.3428,0.081637,0.073705,0.12687,0.74588,-0.23108,0.8883,0.23744,1.8077
-0.11288,-0.01731,0.037471,0.0039875,-0.012986,-0.1398,0.96836,-0.71285,-0.60914,-3.2087,-1.1835,-2.4993,0.70918,0.97733,0.17197,0.22846,0.085148,0.090289,0.1936,0.759,-0.27457,0.73364,0.22678,1.6339
-0.12097,-0.014266,0.028667,0.0018348,-0.014431,-0.12697,1.0326,-0.56671,-0.61521,-2.9211,-1.0387,-2.6008,0.83569,0.65025,0.10381,0.06645,0.093483,0.10806,0.26502,0.74909,-0.31315,0.4673,0.24009,1.4146
-0.12464,-0.0099314,0.028959,0.0035684,-0.028439,-0.13304,1.0766,-0.42702,-0.60448,-2.5495,-0.82651,-2.6113,0.97474,0.22065,0.056719,-0.081624,0.10235,0.12068,0.32776,0.71195,-0.34729,0.072721,0.26628,1.1992
-0.11999,-0.0073958,0.03643,0.0082218,-0.063049,-0.16531,1.1035,-0.28881,-0.57625,-2.0511,-0.5579,-2.4963,1.1065,-0.24175,0.042583,-0.15572,0.10661,0.12514,0.37556,0.656,-0.36871,-0.40643,0.28534,1.0025
-0.10686,-0.0083582,0.043796,0.01342,-0.11025,-0.22432,1.1237,-0.14764,-0.53418,-1.4103,-0.25976,-2.2548,1.2017,-0.65565,0.048248,-0.13504,0.10402,0.12272,0.40699,0.59781,-0.36825,-0.90526,0.28325,0.81464
-0.089549,-0.011694,0.043759,0.017338,-0.15601,-0.31248,1.1422,-0.010412,-0.48574,-0.67141,0.03417,-1.919,1.2328,-0.95793,0.044091,-0.048777,0.096987,0.11742,0.42172,0.5496,-0.34723,-1.3736,0.26044,0.62948
-0.07459,-0.014467,0.034343,0.019698,-0.19364,-0.43852,1.1488,0.10469,-0.43936,0.075954,0.29327,-1.5381,1.1836,-1.1287,0.0045527,0.046944,0.090587,0.11312,0.41914,0.50812,-0.32115,-1.7857,0.22787,0.46759
-0.067124,-0.014524,0.019938,0.020921,-0.22794,-0.61231,1.1223,0.18062,-0.40023,0.74995,0.49592,-1.1575,1.0561,-1.2012,-0.075495,0.10703,0.088299,0.11132,0.39972,0.45533,-0.31159,-2.1304,0.19578,0.37791
-0.06825,-0.012341,0.0072948,0.02058,-0.26696,-0.83426,1.0443,0.21697,-0.36758,1.3206,0.63094,-0.80282,0.87501,-1.2515,-0.18149,0.12137,0.089026,0.11059,0.36674,0.37291,-0.33244,-2.4046,0.16558,0.41558
-0.075072,-0.010353,-0.00010805,0.016957,-0.31043,-1.0882,0.91526,0.23497,-0.33621,1.803,0.69787,-0.47739,0.68579,-1.3689,-0.29589,0.10873,0.088123,0.10801,0.32618,0.2603,-0.38125,-2.6219,0.13089,0.60813
-0.083065,-0.010397,-0.0045844,0.0083534,-0.34632,-1.3442,0.75831,0.26622,-0.30152,2.2049,0.70883,-0.17301,0.53917,-1.6192,-0.41607,0.089315,0.081614,0.10148,0.28436,0.14026,-0.44143,-2.8216,0.085021,0.92957
-0.088909,-0.011722,-0.011545,-0.0050408,-0.35877,-1.5695,0.60764,0.33178,-0.26416,2.4821,0.68997,0.11232,0.46525,-2.0103,-0.55639,0.060538,0.069885,0.091419,0.24537,0.044464,-0.49241,-3.0529,0.027844,1.2995
-0.091822,-0.011591,-0.023978,-0.020492,-0.33989,-1.7412,0.48958,0.42689,-0.23007,2.5515,0.6781,0.36314,0.45285,-2.4762,-0.72983,-0.003568,0.057551,0.080559,0.20993,-0.011192,-0.51946,-3.3263,-0.032542,1.6117
-0.092795,-0.0080086,-0.039037,-0.034001,-0.29462,-1.8541,0.40931,0.52292,-0.20587,2.3638,0.71004,0.55139,0.45337,-2.883,-0.92217,-0.1295,0.049576,0.071808,0.17639,-0.041012,-0.51759,-3.5631,-0.082329,1.7795
-0.092773,-0.0018946,-0.049904,-0.04252,-0.23495,-1.9199,0.35241,0.58569,-0.19381,1.9729,0.80814,0.65581,0.41296,-3.0616,-1.081,-0.31708,0.047098,0.065778,0.14278,-0.079865,-0.48975,-3.5901,-0.10565,1.7728
-0.091506,0.003545,-0.051516,-0.045429,-0.17014,-1.9589,0.29907,0.59685,-0.19146,1.5374,0.97009,0.68222,0.31296,-2.8632,-1.1344,-0.53012,0.046552,0.060022,0.10859,-0.15578,-0.44336,-3.2135,-0.088716,1.6247
-0.088024,0.0057753,-0.045154,-0.044319,-0.10275,-1.9885,0.23956,0.56342,-0.19602,1.2406,1.1704,0.66795,0.1881,-2.2244,-1.0324,-0.71282,0.042761,0.050869,0.075887,-0.26699,-0.38837,-2.3441,-0.026065,1.4045
-0.082098,0.0053458,-0.037787,-0.041492,-0.033889,-2.0105,0.17998,0.50983,-0.20836,1.1839,1.3734,0.66489,0.10613,-1.2155,-0.78527,-0.81993,0.033202,0.036577,0.049311,-0.38263,-0.33607,-1.0997,0.071991,1.1768
-0.075024,0.0053066,-0.036579,-0.038385,0.028893,-2.0047,0.13587,0.46005,-0.23132,1.3356,1.5495,0.71233,0.12196,-0.03469,-0.4694,-0.83904,0.019816,0.019179,0.03444,-0.46625,-0.29683,0.19979,0.17684,0.97308
-0.068723,0.0081224,-0.043301,-0.034898,0.070644,-1.932,0.12073,0.42382,-0.26287,1.5695,1.6838,0.81909,0.24018,1.0658,-0.19132,-0.79085,0.0070351,0.0032364,0.034093,-0.50237,-0.27605,1.1681,0.25084,0.79181
-0.063871,0.013128,-0.053408,-0.029887,0.078294,-1.7474,0.13893,0.39576,-0.29102,1.7597,1.772,0.96663,0.41347,1.8985,-0.030763,-0.71088,-0.0021176,-0.0076727,0.043664,-0.50476,-0.27083,1.5516,0.2673,0.62069
-0.059038,0.017099,-0.060396,-0.022377,0.053117,-1.4198,0.18662,0.36517,-0.2973,1.8555,1.8077,1.1277,0.57719,2.4337,7.8521e-006,-0.62928,-0.008538,-0.013835,0.048983,-0.5021,-0.2707,1.3702,0.22866,0.45851
-0.052071,0.017436,-0.061358,-0.012723,0.015261,-0.94841,0.25655,0.32615,-0.26792,1.887,1.774,1.2837,0.69306,2.7971,-0.047153,-0.56345,-0.016239,-0.019076,0.030546,-0.515,-0.263,0.89975,0.1674,0.32069
-0.042658,0.014849,-0.058894,-0.0029812,-0.0047138,-0.36617,0.34068,0.28038,-0.20359,1.9111,1.6482,1.4271,0.7703,3.1626,-0.09962,-0.52417,-0.02902,-0.027426,-0.025608,-0.5428,-0.24036,0.501,0.12532,0.22977
-0.033456,0.012918,-0.05804,0.0038663,0.018132,0.2733,0.42901,0.2326,-0.11885,1.9505,1.4174,1.5511,0.85146,3.6094,-0.11363,-0.52301,-0.047238,-0.039653,-0.11603,-0.56711,-0.20504,0.40317,0.12482,0.20522
-0.028139,0.014973,-0.061442,0.0054543,0.090451,0.91838,0.50819,0.1859,-0.0305,1.9774,1.0946,1.6398,0.97742,4.053,-0.093598,-0.56923,-0.067055,-0.052632,-0.21611,-0.56491,-0.16727,0.5871,0.15444,0.26242
-0.027735,0.021275,-0.067265,0.0013512,0.19851,1.5375,0.564,0.14192,0.054921,1.9433,0.72021,1.6709,1.1592,4.3085,-0.070865,-0.65751,-0.082623,-0.061949,-0.29011,-0.51969,-0.13856,0.84051,0.18054,0.41569
-0.028707,0.029046,-0.071378,-0.0067609,0.31545,2.1194,0.58657,0.10443,0.14372,1.8231,0.34914,1.6305,1.3754,4.2408,-0.065497,-0.76008,-0.089714,-0.065258,-0.31122,-0.4256,-0.12459,0.93345,0.17532,0.67193
-0.025031,0.035039,-0.071262,-0.016069,0.4116,2.656,0.57372,0.080445,0.24518,1.632,0.030572,1.5269,1.5934,3.8823,-0.066316,-0.8351,-0.088396,-0.063504,-0.2792,-0.28735,-0.1228,0.77893,0.13785,1.0121
-0.012781,0.038022,-0.067765,-0.023834,0.46338,3.1201,0.52943,0.075534,0.35835,1.4055,-0.20566,1.3902,1.7923,3.4232,-0.044842,-0.84819,-0.083024,-0.059415,-0.22278,-0.11908,-0.12584,0.46565,0.0912,1.3776
0.0069219,0.038974,-0.06327,-0.027829,0.4599,3.4617,0.45981,0.087268,0.46729,1.1642,-0.35069,1.2576,1.9713,3.0793,0.01367,-0.7905,-0.079455,-0.055199,-0.18362,0.058451,-0.12785,0.15641,0.059932,1.6827
0.02938,0.039244,-0.05853,-0.026018,0.4075,3.6285,0.37132,0.10404,0.54937,0.89588,-0.41079,1.1556,2.1369,2.9471,0.093749,-0.67873,-0.081207,-0.051736,-0.19181,0.22443,-0.12871,-0.051735,0.048992,1.8572
0.050726,0.038893,-0.0516,-0.016565,0.3292,3.6002,0.27269,0.11225,0.58956,0.56941,-0.4025,1.0925,2.2849,2.9573,0.16352,-0.53879,-0.087122,-0.049538,-0.24956,0.36595,-0.13315,-0.1927,0.042087,1.8885
0.070792,0.036929,-0.040059,0.00096622,0.25605,3.4091,0.17653,0.10665,0.58899,0.16713,-0.35161,1.0635,2.3928,2.9551,0.20437,-0.38994,-0.09228,-0.049772,-0.33375,0.48035,-0.1464,-0.38345,0.019157,1.8275
0.091449,0.032982,-0.024331,0.023811,0.21202,3.1282,0.095758,0.094433,0.56154,-0.29035,-0.29211,1.0601,2.4305,2.8302,0.22679,-0.24364,-0.091743,-0.053755,-0.41457,0.56803,-0.17019,-0.72004,-0.024466,1.7462
0.11219,0.028419,-0.0087329,0.045589,0.2017,2.8326,0.035965,0.088909,0.52217,-0.7457,-0.25902,1.0719,2.3789,2.5883,0.25733,-0.1146,-0.084518,-0.061334,-0.47577,0.62191,-0.20207,-1.21,-0.0748,1.678
0.12785,0.025491,0.0010936,0.058736,0.21033,2.5624,-0.0094963,0.097822,0.4768,-1.1304,-0.27598,1.0811,2.2404,2.3178,0.31009,-0.027465,-0.074699,-0.07013,-0.5222,0.62543,-0.23766,-1.7868,-0.11382,1.5925
0.13162,0.025197,0.002354,0.058902,0.21683,2.3128,-0.055473,0.11676,0.42059,-1.3945,-0.34462,1.0604,2.0311,2.0963,0.37129,-0.0060994,-0.068729,-0.0769,-0.57074,0.56544,-0.27292,-2.3728,-0.13737,1.4273
0.12102,0.025976,-0.0026437,0.048135,0.20945,2.0558,-0.11372,0.13364,0.34428,-1.5219,-0.44416,0.98201,1.7635,1.9264,0.41187,-0.05185,-0.070738,-0.080052,-0.63334,0.45117,-0.30426,-2.9221,-0.15916,1.1514
0.10132,0.024725,-0.0081272,0.033897,0.19084,1.7719,-0.18364,0.14012,0.24234,-1.5238,-0.54276,0.83701,1.4362,1.7502,0.41579,-0.13101,-0.079614,-0.080975,-0.70586,0.3208,-0.32653,-3.4033,-0.1961,0.80533
0.082541,0.019517,-0.0091347,0.024055,0.16929,1.4662,-0.25355,0.13956,0.11742,-1.4214,-0.61434,0.64832,1.0436,1.5156,0.39658,-0.1868,-0.090125,-0.082795,-0.77013,0.22385,-0.33155,-3.7495,-0.24722,0.4825
0.072351,0.01167,-0.0050376,0.021485,0.14604,1.1586,-0.3118,0.14393,-0.019987,-1.2347,-0.65105,0.46257,0.59921,1.2296,0.38681,-0.16999,-0.097072,-0.087608,-0.80624,0.1881,-0.30915,-3.8398,-0.28463,0.2667
0.071103,0.0052368,0.00041591,0.022587,0.11213,0.86467,-0.35767,0.16264,-0.15463,-0.98289,-0.66478,0.32367,0.15393,0.95121,0.41095,-0.065702,-0.098969,-0.094631,-0.80481,0.1963,-0.25117,-3.5477,-0.26655,0.1795
0.073411,0.0040934,0.0024594,0.020931,0.058733,0.58794,-0.40177,0.19317,-0.27006,-0.69248,-0.67795,0.24678,-0.21186,0.73766,0.4668,0.10302,-0.098267,-0.10083,-0.7711,0.19447,-0.15625,-2.8349,-0.16549,0.1791
0.07466,0.0089221,-0.00066078,0.012896,-0.0091411,0.32892,-0.45484,0.22188,-0.35265,-0.39995,-0.70939,0.21231,-0.42182,0.59582,0.53087,0.29438,-0.098379,-0.10331,-0.72041,0.1302,-0.032603,-1.8178,0.0074899,0.20658
0.0762,0.016538,-0.0061199,0.00055515,-0.070138,0.09751,-0.51488,0.23407,-0.3964,-0.14276,-0.76403,0.18304,-0.44246,0.47898,0.58002,0.47213,-0.10051,-0.10136,-0.67051,-0.0065907,0.10324,-0.7489,0.20068,0.23564
0.084326,0.022124,-0.0085178,-0.010438,-0.099838,-0.089272,-0.56402,0.22436,-0.40665,0.054427,-0.83229,0.1281,-0.30043,0.32602,0.60752,0.61725,-0.10321,-0.096623,-0.63676,-0.17265,0.23163,0.091149,0.34598,0.28347
0.10398,0.022559,-0.0037833,-0.015732,-0.089796,-0.22566,-0.57871,0.19851,-0.39931,0.18689,-0.89896,0.035092,-0.066667,0.10586,0.62007,0.72375,-0.10456,-0.091468,-0.63039,-0.30093,0.33631,0.52731,0.39591,0.37882
0.13307,0.018263,0.0079876,-0.015511,-0.05619,-0.33353,-0.54501,0.16605,-0.39359,0.26551,-0.95463,-0.094246,0.17968,-0.16755,0.62198,0.78933,-0.10447,-0.087337,-0.6565,-0.34869,0.40904,0.569,0.34978,0.52156
0.16257,0.012309,0.022667,-0.013506,-0.030422,-0.45724,-0.4666,0.13113,-0.4008,0.30703,-1.0002,-0.25302,0.38197,-0.45458,0.60503,0.81256,-0.10462,-0.084142,-0.7099,-0.32672,0.44963,0.38634,0.25142,0.67201
0.18244,0.0078568,0.034778,-0.013233,-0.038877,-0.63619,-0.36004,0.090021,-0.41676,0.32827,-1.0404,-0.42958,0.51402,-0.72081,0.55518,0.798,-0.10638,-0.080984,-0.7716,-0.28678,0.46225,0.20285,0.15955,0.7782
0.18813,0.0060915,0.040621,-0.015198,-0.08731,-0.87661,-0.24196,0.037035,-0.42374,0.34664,-1.0714,-0.59988,0.56946,-0.95308,0.46931,0.76087,-0.10906,-0.077233,-0.81161,-0.27891,0.45084,0.17389,0.11077,0.81442
0.18239,0.0060964,0.039909,-0.017455,-0.1603,-1.1472,-0.11922,-0.027121,-0.40204,0.37978,-1.0746,-0.72526,0.55017,-1.1528,0.36432,0.72385,-0.11036,-0.073011,-0.80021,-0.31432,0.41732,0.32238,0.10095,0.79631
0.17131,0.0062761,0.035343,-0.018408,-0.23384,-1.4033,0.011541,-0.092404,-0.34354,0.4381,-1.0234,-0.7658,0.46609,-1.3193,0.26792,0.70646,-0.10843,-0.068732,-0.72217,-0.36297,0.36348,0.55972,0.097117,0.76169
0.15854,0.0057675,0.030887,-0.018677,-0.29015,-1.6203,0.15694,-0.14453,-0.25768,0.51389,-0.90088,-0.70305,0.3418,-1.4415,0.19781,0.71504,-0.10316,-0.064221,-0.58428,-0.384,0.29405,0.76318,0.069209,0.73699
0.14264,0.0046783,0.02981,-0.020074,-0.32522,-1.8073,0.31953,-0.17348,-0.16574,0.57883,-0.71424,-0.55383,0.21512,-1.5046,0.14764,0.74002,-0.095681,-0.058293,-0.41074,-0.35954,0.21747,0.85158,0.016323,0.71942
0.11943,0.0033306,0.033284,-0.022866,-0.34683,-1.9923,0.49511,-0.17836,-0.088192,0.5972,-0.49499,-0.36217,0.12146,-1.5039,0.09248,0.76129,-0.086979,-0.049412,-0.22986,-0.30262,0.14315,0.81485,-0.032871,0.68788
0.086845,0.0015879,0.039969,-0.024375,-0.36782,-2.1911,0.67349,-0.16547,-0.034632,0.54829,-0.28429,-0.17531,0.074784,-1.4512,0.010114,0.7565,-0.077574,-0.037149,-0.062215,-0.23604,0.077636,0.69314,-0.044477,0.62889
0.047852,-0.00096371,0.046844,-0.020702,-0.39963,-2.3884,0.8393,-0.14266,-0.002752,0.44104,-0.11403,-0.022487,0.063854,-1.3689,-0.099186,0.708,-0.068492,-0.023337,0.082045,-0.16572,0.023377,0.53563,-0.007626,0.55256
0.0090523,-0.0042735,0.051077,-0.010221,-0.44808,-2.5461,0.97238,-0.11551,0.014987,0.30883,0.0038789,0.089229,0.07026,-1.2792,-0.21058,0.607,-0.06194,-0.01169,0.19763,-0.074868,-0.018494,0.37321,0.056497,0.48561
-0.023641,-0.0074645,0.051933,0.0043879,-0.51095,-2.6305,1.0512,-0.087996,0.024151,0.18817,0.075221,0.16462,0.092744,-1.1995,-0.29211,0.45578,-0.06022,-0.0057082,0.27845,0.0567,-0.044438,0.21731,0.11112,0.44982
