-9.4343e-010,8.8169e-010,2.7261e-009,7.8523e-010,1.7962e-009,1.7306e-009,2.9036e-009,1.5994e-009,3.0657e-009,1.5801e-009,1.1132e-009,-1.4451e-009,2.2515e-009,2.0406e-008,6.2317e-010,7.0941e-009,-1.447e-010,5.3828e-010,1.9158e-009,2.9133e-010,-1.5762e-009,-8.7301e-009,1.3216e-009,-1.2022e-008
-2.5947e-008,2.4415e-008,7.546e-008,2.1749e-008,4.9593e-008,4.6947e-008,8.0226e-008,4.4479e-008,8.4874e-008,4.3687e-008,3.0534e-008,-3.9782e-008,6.1924e-008,5.6219e-007,1.7008e-008,1.9669e-007,-4.2108e-009,1.4701e-008,5.3265e-008,8.1044e-009,-4.4017e-008,-2.4344e-007,3.6682e-008,-3.3073e-007
-3.4677e-007,3.2861e-007,1.0152e-006,2.9271e-007,6.6532e-007,6.1757e-007,1.0782e-006,6.0139e-007,1.1422e-006,5.8727e-007,4.0694e-007,-5.3228e-007,8.2634e-007,7.5247e-006,2.2418e-007,2.652e-006,-5.9802e-008,1.9505e-007,7.2012e-007,1.0982e-007,-5.9814e-007,-3.3023e-006,4.9503e-007,-4.4197e-006
-3.0005e-006,2.8643e-006,8.8423e-006,2.5502e-006,5.7777e-006,5.2456e-006,9.3921e-006,5.267e-006,9.955e-006,5.1136e-006,3.5105e-006,-4.6115e-006,7.1232e-006,6.5178e-005,1.8976e-006,2.3167e-005,-5.5206e-007,1.6751e-006,6.3073e-006,9.6587e-007,-5.2704e-006,-2.9033e-005,4.3277e-006,-3.8218e-005
-1.8892e-005,1.8173e-005,5.6041e-005,1.6163e-005,3.6502e-005,3.2312e-005,5.961e-005,3.3585e-005,6.3147e-005,3.2413e-005,2.2033e-005,-2.9075e-005,4.454e-005,0.00041056,1.1561e-005,0.00014737,-3.7219e-006,1.0465e-005,4.0226e-005,6.1976e-006,-3.3853e-005,-0.00018594,2.7547e-005,-0.00024029
-9.2239e-005,8.9414e-005,0.00027532,7.9397e-005,0.00017874,0.00015364,0.00029376,0.00016613,0.0003106,0.00015935,0.00010719,-0.00014213,0.00021494,0.0020032,5.3789e-005,0.00072725,-1.9517e-005,5.0682e-005,0.00019904,3.0921e-005,-0.00016892,-0.00092432,0.00013604,-0.0011702
-0.00036328,0.00035489,0.0010905,0.00031438,0.00070558,0.00058572,0.0011695,0.00066321,0.0012321,0.00063193,0.00042056,-0.00056034,0.00083109,0.0078723,0.00019751,0.0028959,-8.2782e-005,0.00019791,0.00079491,0.00012482,-0.00068138,-0.0037099,0.00054227,-0.0045902
-0.0011854,0.0011667,0.0035747,0.0010302,0.0023054,0.0018344,0.0038634,0.0021942,0.0040472,0.0020755,0.0013665,-0.001829,0.0026354,0.02557,0.00058112,0.0095527,-0.00029153,0.00063987,0.0026314,0.00041885,-0.0022821,-0.012345,0.0017916,-0.014886
-0.0032649,0.0032357,0.0098762,0.0028448,0.0063495,0.0047916,0.01079,0.006129,0.011211,0.0057492,0.0037465,-0.005034,0.0069461,0.069863,0.0013655,0.026581,-0.00086821,0.0017446,0.0073559,0.0011912,-0.0064678,-0.034689,0.0049989,-0.040638
-0.0076936,0.0076679,0.023288,0.0067057,0.014931,0.010517,0.025825,0.014647,0.026524,0.013604,0.0087857,-0.011831,0.015282,0.16245,0.0024712,0.063174,-0.0022152,0.0040632,0.0176,0.0029123,-0.015722,-0.083386,0.011937,-0.094545
-0.015659,0.015659,0.047262,0.013608,0.03023,0.019378,0.053465,0.030223,0.054063,0.027733,0.017794,-0.023936,0.027843,0.32366,0.0029694,0.12926,-0.004887,0.008152,0.036385,0.0061873,-0.033096,-0.17297,0.024628,-0.18895
-0.027708,0.02769,0.082929,0.023895,0.052951,0.029558,0.096334,0.05416,0.09541,0.048946,0.031341,-0.041863,0.040713,0.55349,0.00025852,0.22857,-0.0093804,0.014154,0.065421,0.011517,-0.060713,-0.31118,0.044187,-0.32571
-0.042785,0.042438,0.12593,0.036382,0.080311,0.035732,0.15154,0.084531,0.14601,0.074903,0.048229,-0.063265,0.043049,0.80879,-0.010337,0.34895,-0.015724,0.021277,0.10272,0.018897,-0.097371,-0.48609,0.069238,-0.48412
-0.057744,0.056176,0.16496,0.04799,0.10507,0.029483,0.20815,0.11487,0.19335,0.09919,0.065034,-0.082076,0.017252,0.99485,-0.034531,0.45639,-0.02305,0.027559,0.14111,0.027466,-0.13652,-0.65701,0.095006,-0.61672
-0.068095,0.063609,0.18477,0.054668,0.11729,0.0026042,0.24885,0.13538,0.22004,0.11302,0.076974,-0.089833,-0.054917,0.99168,-0.076021,0.50134,-0.029532,0.030361,0.16977,0.035499,-0.16663,-0.75998,0.11449,-0.66259
-0.070083,0.060418,0.17406,0.053624,0.10901,-0.047521,0.2571,0.13725,0.21253,0.10987,0.080051,-0.079533,-0.18057,0.71579,-0.13234,0.44048,-0.032997,0.027643,0.17914,0.040968,-0.17513,-0.73306,0.122,-0.57692
-0.063045,0.04635,0.13406,0.045621,0.079558,-0.11392,0.22698,0.11815,0.17084,0.090781,0.073191,-0.050237,-0.34424,0.18544,-0.19233,0.26529,-0.032094,0.019433,0.16703,0.042468,-0.15473,-0.5513,0.11727,-0.35945
-0.050283,0.026579,0.080973,0.035348,0.037312,-0.18143,0.16901,0.084989,0.11193,0.066064,0.05866,-0.0091736,-0.5061,-0.46178,-0.23811,0.018474,-0.027292,0.0084432,0.1412,0.039981,-0.10838,-0.24839,0.10682,-0.058254
-0.037414,0.0096349,0.038148,0.028836,-0.0043807,-0.23457,0.10646,0.051056,0.06171,0.050704,0.040289,0.031072,-0.61588,-1.0282,-0.2521,-0.21798,-0.020855,-0.00089869,0.11543,0.034895,-0.048811,0.09495,0.10043,0.2591
-0.029033,0.0025186,0.021467,0.029239,-0.035267,-0.26749,0.062517,0.028421,0.039211,0.055018,0.020985,0.059362,-0.63799,-1.3633,-0.2255,-0.36123,-0.015552,-0.0046985,0.10066,0.029151,0.0079131,0.39341,0.10419,0.54618
-0.026035,0.0061759,0.028403,0.034175,-0.054469,-0.28869,0.046322,0.020614,0.043953,0.076917,0.0019607,0.072554,-0.57293,-1.4428,-0.16269,-0.36986,-0.012914,-0.0017979,0.097673,0.024029,0.05092,0.60203,0.11524,0.7938
-0.025662,0.014874,0.040039,0.037193,-0.069812,-0.31588,0.048191,0.021125,0.056992,0.10218,-0.015595,0.07704,-0.45947,-1.3557,-0.07819,-0.26174,-0.012379,0.00554,0.097236,0.019433,0.079253,0.72987,0.12272,1.0042
-0.024189,0.020369,0.035663,0.032712,-0.090384,-0.36359,0.047959,0.019025,0.05573,0.11372,-0.028453,0.083952,-0.35337,-1.2077,0.011785,-0.096588,-0.012082,0.012964,0.088127,0.0142,0.099464,0.81303,0.11532,1.1472
-0.01998,0.017927,0.0087345,0.020614,-0.11827,-0.43253,0.030451,0.00738,0.031082,0.10358,-0.031975,0.10143,-0.29557,-1.0263,0.096282,0.061472,-0.010652,0.016518,0.066567,0.0072509,0.11836,0.87207,0.089793,1.146
-0.014425,0.0095103,-0.028896,0.006573,-0.14642,-0.50882,-0.0037784,-0.012137,-0.0069322,0.078506,-0.024039,0.12961,-0.29099,-0.75542,0.16979,0.17258,-0.0084795,0.014682,0.039159,-0.0012535,0.13683,0.8927,0.053854,0.9203
-0.010142,0.0015961,-0.05796,-0.002371,-0.16439,-0.57347,-0.040427,-0.031784,-0.03937,0.054551,-0.0088134,0.16157,-0.31205,-0.3458,0.22644,0.22405,-0.0072993,0.0088223,0.01691,-0.0096134,0.14934,0.84667,0.021311,0.45875
-0.0082766,-0.00048397,-0.068283,-0.0033867,-0.16689,-0.61452,-0.06376,-0.044803,-0.054926,0.04504,0.0041993,0.18903,-0.32298,0.14304,0.25511,0.21499,-0.0084129,0.0020439,0.0057806,-0.015413,0.14882,0.73117,0.003396,-0.14302
-0.0073988,0.0031419,-0.066409,0.00010556,-0.15764,-0.63217,-0.068713,-0.050839,-0.058295,0.051428,0.0067283,0.20767,-0.30635,0.53618,0.24256,0.14448,-0.011139,-0.0026146,0.0021503,-0.016934,0.13227,0.58628,0.0030331,-0.72001
-0.0049331,0.0074996,-0.068112,0.0015493,-0.14532,-0.63353,-0.063152,-0.055364,-0.0637,0.06418,-0.0010429,0.21847,-0.27275,0.65506,0.18412,0.016175,-0.012966,-0.0035899,-0.0030316,-0.014216,0.10277,0.46975,0.015408,-1.1294
0.00026335,0.0075231,-0.083187,-0.0032388,-0.13556,-0.62235,-0.059547,-0.064026,-0.080556,0.072163,-0.0095096,0.22465,-0.24843,0.45953,0.093896,-0.14855,-0.011446,-0.0012459,-0.015569,-0.0090983,0.066812,0.40901,0.032622,-1.3247
0.0065585,0.0025604,-0.10654,-0.012809,-0.12602,-0.5926,-0.06408,-0.076951,-0.1049,0.072142,-0.0071085,0.22791,-0.25193,0.095347,0.0043155,-0.30743,-0.006301,0.0025788,-0.032847,-0.0042227,0.029803,0.3739,0.047652,-1.3548
0.010663,-0.003357,-0.12323,-0.021559,-0.1087,-0.53154,-0.072578,-0.087715,-0.12412,0.070421,0.0094819,0.22707,-0.27766,-0.20227,-0.048008,-0.41322,0.00013155,0.0055607,-0.046619,-0.00168,-0.0066092,0.29791,0.055181,-1.2961
0.010262,-0.0054945,-0.12233,-0.024402,-0.077121,-0.42967,-0.075967,-0.087708,-0.12978,0.076023,0.031626,0.21989,-0.29759,-0.27416,-0.042068,-0.43763,0.0046691,0.0059899,-0.050803,-0.0021138,-0.043855,0.13374,0.050865,-1.1834
0.0059794,-0.002823,-0.10664,-0.020629,-0.03199,-0.29,-0.069521,-0.072439,-0.12628,0.092133,0.045778,0.20573,-0.27841,-0.13748,0.015431,-0.38357,0.0059748,0.00357,-0.047058,-0.0047607,-0.083571,-0.10102,0.031796,-1.0012
0.0011217,0.0011765,-0.09,-0.014066,0.018873,-0.12946,-0.057458,-0.045154,-0.12733,0.11353,0.045919,0.18642,-0.20119,0.055503,0.094391,-0.27667,0.0058995,-0.00041559,-0.043382,-0.008259,-0.12501,-0.32492,-0.0015803,-0.73343
-0.00047295,0.0018613,-0.08527,-0.0098044,0.065727,0.028647,-0.049188,-0.015349,-0.14383,0.13189,0.040409,0.16481,-0.070351,0.15426,0.15911,-0.14628,0.0081455,-0.0036806,-0.047455,-0.011576,-0.1645,-0.43992,-0.044629,-0.41616
0.0032475,-0.0023196,-0.094226,-0.010402,0.10251,0.16609,-0.051095,0.0066299,-0.17423,0.14356,0.046465,0.14296,0.091656,0.12079,0.18718,-0.013941,0.0151,-0.004012,-0.060778,-0.014427,-0.19712,-0.39005,-0.090892,-0.13289
0.011717,-0.0085303,-0.10771,-0.014469,0.1287,0.27739,-0.061317,0.015321,-0.20537,0.15268,0.076197,0.12189,0.25704,0.027253,0.17737,0.1035,0.02539,-0.00034301,-0.078291,-0.01704,-0.2192,-0.19148,-0.13639,0.046633
0.022692,-0.012122,-0.11476,-0.018365,0.14693,0.36894,-0.071742,0.012692,-0.22242,0.16667,0.12584,0.10323,0.40199,-0.039324,0.1435,0.18529,0.034391,0.0066614,-0.093006,-0.019688,-0.22992,0.080846,-0.18193,0.12847
0.033862,-0.010469,-0.11166,-0.019308,0.15909,0.45068,-0.074845,0.0061378,-0.21895,0.18846,0.17745,0.090602,0.50757,-0.066164,0.10162,0.2076,0.037577,0.01474,-0.1012,-0.022495,-0.23096,0.33418,-0.2309,0.19758
0.043739,-0.0046486,-0.10321,-0.017344,0.16435,0.52651,-0.069017,0.0033958,-0.19935,0.21223,0.21159,0.08858,0.55732,-0.11613,0.06137,0.15702,0.034134,0.020855,-0.1041,-0.025632,-0.22441,0.4973,-0.28392,0.35607
0.051346,0.002062,-0.09644,-0.014809,0.16009,0.59043,-0.058096,0.0077197,-0.17341,0.22651,0.22039,0.099121,0.54069,-0.24935,0.026096,0.044932,0.027744,0.022454,-0.10553,-0.029443,-0.21034,0.53831,-0.33516,0.64801
0.055477,0.0069171,-0.093707,-0.014029,0.14455,0.63135,-0.046455,0.016441,-0.14898,0.22188,0.21039,0.11819,0.46479,-0.44687,-0.0016162,-0.092635,0.023698,0.018741,-0.10832,-0.034111,-0.1857,0.46003,-0.37365,1.0301
0.054669,0.0090466,-0.091753,-0.015327,0.11889,0.64287,-0.034909,0.023751,-0.12882,0.19707,0.19391,0.136,0.3643,-0.61027,-0.016781,-0.21221,0.024639,0.011331,-0.11241,-0.039036,-0.1454,0.28587,-0.38898,1.4029
0.048224,0.0087328,-0.086617,-0.016977,0.087133,0.63064,-0.021261,0.025552,-0.1123,0.15865,0.17758,0.14179,0.29441,-0.63596,-0.014777,-0.28503,0.028579,0.00371,-0.11557,-0.042685,-0.084741,0.049605,-0.37698,1.6658
0.037388,0.0061813,-0.078676,-0.017019,0.054437,0.61124,-0.0044244,0.022669,-0.098548,0.11529,0.15809,0.13034,0.30288,-0.49447,0.0032839,-0.308,0.030932,-0.00047908,-0.1155,-0.043371,-0.001827,-0.20558,-0.34121,1.7518
0.025383,0.0014875,-0.072507,-0.015224,0.025053,0.60338,0.012502,0.019963,-0.08724,0.071707,0.12798,0.10522,0.39752,-0.2451,0.028954,-0.29791,0.028795,0.00050627,-0.11161,-0.040489,0.10126,-0.42471,-0.28948,1.6286
0.015891,-0.0043507,-0.071925,-0.013473,0.0013123,0.61762,0.023589,0.02212,-0.077367,0.027243,0.085337,0.075956,0.53609,0.020511,0.051233,-0.27665,0.023656,0.0054818,-0.10543,-0.035089,0.21822,-0.54691,-0.22869,1.291
0.011038,-0.0090636,-0.075504,-0.0142,-0.016061,0.65231,0.024732,0.029557,-0.066594,-0.020355,0.037975,0.051169,0.65244,0.24976,0.063813,-0.25953,0.020097,0.01118,-0.099871,-0.029131,0.33858,-0.52721,-0.16183,0.76537
0.010461,-0.010463,-0.077274,-0.018254,-0.02701,0.69787,0.017151,0.037747,-0.053134,-0.069834,-0.0012403,0.033103,0.7036,0.45153,0.068306,-0.25184,0.021691,0.014476,-0.097696,-0.024032,0.4481,-0.36767,-0.089111,0.12094
0.012125,-0.0084796,-0.07202,-0.023988,-0.031353,0.7456,0.0064061,0.040387,-0.038583,-0.11494,-0.023599,0.017969,0.70095,0.65663,0.070881,-0.25039,0.027797,0.014371,-0.10005,-0.019871,0.53082,-0.13598,-0.011731,-0.54099
0.014021,-0.0056837,-0.060046,-0.028315,-0.028421,0.79377,-0.002136,0.033673,-0.028375,-0.14827,-0.030262,0.0016039,0.69795,0.86017,0.076048,-0.24496,0.034135,0.012229,-0.10569,-0.015987,0.57353,0.051943,0.065264,-1.126
0.015263,-0.0053613,-0.046886,-0.028839,-0.016989,0.84671,-0.0071855,0.018313,-0.02835,-0.16775,-0.03035,-0.014761,0.74136,1.0033,0.083583,-0.21939,0.036517,0.010213,-0.11156,-0.012291,0.57129,0.087699,0.13333,-1.588
0.015951,-0.0087221,-0.038333,-0.025381,0.0043574,0.90824,-0.011374,-0.0019598,-0.039799,-0.1804,-0.03413,-0.023935,0.82608,1.0126,0.090739,-0.15653,0.034295,0.0094012,-0.11447,-0.0098194,0.53005,-0.064904,0.18381,-1.9343
0.016447,-0.01389,-0.035461,-0.019844,0.035931,0.97509,-0.01751,-0.023591,-0.057318,-0.19998,-0.047488,-0.018177,0.89338,0.86212,0.096208,-0.048382,0.030465,0.0092608,-0.11274,-0.009867,0.46329,-0.34251,0.21176,-2.1873
0.017113,-0.017706,-0.034075,-0.014732,0.074742,1.0354,-0.024856,-0.045241,-0.071788,-0.23914,-0.071312,0.003978,0.8771,0.60386,0.10094,0.09445,0.028537,0.0087765,-0.10684,-0.012529,0.38368,-0.61849,0.21741,-2.3398
0.018668,-0.018619,-0.028694,-0.011609,0.11291,1.0733,-0.028701,-0.067278,-0.076439,-0.30093,-0.10405,0.03546,0.76053,0.34018,0.10516,0.24336,0.029269,0.0078676,-0.098575,-0.016198,0.29575,-0.78268,0.20449,-2.3484
0.022337,-0.017901,-0.017237,-0.010592,0.13909,1.0774,-0.023283,-0.089869,-0.071203,-0.37525,-0.14311,0.065129,0.59509,0.15888,0.10593,0.36562,0.030302,0.007488,-0.089747,-0.018639,0.19584,-0.80731,0.17728,-2.1753
0.029143,-0.018099,-0.00242,-0.010943,0.14383,1.0458,-0.0052436,-0.1119,-0.061919,-0.44323,-0.18323,0.085338,0.46277,0.081517,0.09929,0.44359,0.028873,0.0083097,-0.081472,-0.018699,0.080109,-0.74968,0.13902,-1.837
0.038802,-0.020395,0.01076,-0.011963,0.12624,0.9875,0.025349,-0.13171,-0.055281,-0.48732,-0.21481,0.096236,0.41185,0.061289,0.085599,0.48496,0.024792,0.0096058,-0.074261,-0.01708,-0.045964,-0.6913,0.093088,-1.4089
0.049422,-0.023501,0.018755,-0.0133,0.096857,0.91622,0.06685,-0.14864,-0.053936,-0.50112,-0.22631,0.10324,0.41868,0.027078,0.072106,0.51501,0.020744,0.0099724,-0.068306,-0.015496,-0.16537,-0.66533,0.045091,-0.9772
0.05856,-0.025054,0.021325,-0.014577,0.07307,0.84393,0.11866,-0.16318,-0.055744,-0.49307,-0.21134,0.11012,0.40716,-0.062955,0.068261,0.55566,0.019645,0.0095632,-0.063354,-0.015042,-0.25769,-0.6315,0.0029875,-0.57766
0.064773,-0.023933,0.020717,-0.014998,0.068965,0.77599,0.18197,-0.17541,-0.057478,-0.48192,-0.17519,0.11424,0.30943,-0.19701,0.076691,0.60731,0.021734,0.011473,-0.058481,-0.015156,-0.31156,-0.51547,-0.026155,-0.17936
0.06818,-0.021131,0.019691,-0.01363,0.086573,0.71178,0.25761,-0.18314,-0.059414,-0.48687,-0.13438,0.10839,0.11753,-0.32657,0.088128,0.64728,0.024277,0.020129,-0.052545,-0.013928,-0.33104,-0.27461,-0.04068,0.27193
0.069504,-0.018423,0.020188,-0.010311,0.11518,0.64905,0.34255,-0.18227,-0.066612,-0.51843,-0.10748,0.088089,-0.11479,-0.40541,0.08618,0.64581,0.024229,0.037282,-0.045364,-0.0093226,-0.33052,0.066311,-0.046065,0.7888
0.068674,-0.016357,0.023068,-0.0062702,0.13942,0.58813,0.42762,-0.16976,-0.08556,-0.57441,-0.10306,0.057516,-0.3178,-0.41926,0.059242,0.5868,0.021243,0.05899,-0.038546,-0.00039053,-0.32301,0.43356,-0.051457,1.3134
0.06451,-0.013711,0.028195,-0.0036033,0.14996,0.53261,0.49881,-0.14697,-0.1187,-0.64176,-0.11385,0.028447,-0.45816,-0.38754,0.010199,0.47741,0.018113,0.076924,-0.034718,0.012176,-0.31191,0.7525,-0.062889,1.7489
0.055944,-0.0089678,0.034423,-0.003763,0.14876,0.48659,0.54223,-0.12014,-0.16095,-0.70197,-0.12174,0.012285,-0.55472,-0.34249,-0.043801,0.34106,0.018207,0.083808,-0.035306,0.026214,-0.2933,0.98039,-0.078131,2.0227
0.043609,-0.0022792,0.039905,-0.0063158,0.14574,0.45163,0.55059,-0.096809,-0.2007,-0.73668,-0.11021,0.01158,-0.64982,-0.30562,-0.080896,0.20168,0.022326,0.078875,-0.038647,0.03882,-0.26534,1.1035,-0.087287,2.1266
0.030233,0.0041228,0.043194,-0.0092065,0.15062,0.42644,0.52734,-0.080805,-0.22469,-0.7324,-0.074971,0.018058,-0.76672,-0.27819,-0.085878,0.072448,0.027886,0.068596,-0.040358,0.047458,-0.23493,1.116,-0.078969,2.1042
0.01941,0.0076124,0.044599,-0.010452,0.16674,0.4091,0.48561,-0.069746,-0.22372,-0.68385,-0.025452,0.01874,-0.89227,-0.24781,-0.05622,-0.043817,0.031039,0.061619,-0.036119,0.051121,-0.21456,1.0124,-0.047794,2.005
0.01374,0.0074376,0.046402,-0.0097519,0.19074,0.39906,0.44176,-0.057384,-0.19623,-0.59594,0.022833,0.0050182,-0.99627,-0.20116,-0.0014675,-0.14693,0.029669,0.061945,-0.024821,0.050929,-0.21186,0.801,0.0017805,1.849
0.013728,0.0054557,0.051218,-0.0084712,0.21644,0.39631,0.40713,-0.038852,-0.14861,-0.48311,0.058507,-0.022534,-1.0636,-0.1327,0.060604,-0.23394,0.024588,0.066059,-0.0095624,0.049585,-0.2214,0.51765,0.057408,1.6313
0.017944,0.0045827,0.059505,-0.0079928,0.23859,0.39877,0.38306,-0.014545,-0.092478,-0.36519,0.079741,-0.056676,-1.1054,-0.046619,0.10824,-0.30138,0.018216,0.066439,0.0043311,0.049742,-0.22674,0.21646,0.10486,1.3552
0.02393,0.0062636,0.068435,-0.0081425,0.25405,0.40126,0.36231,0.010286,-0.040749,-0.26081,0.092266,-0.09004,-1.1401,0.044146,0.12095,-0.35126,0.012362,0.058302,0.012719,0.052246,-0.21123,-0.059524,0.13422,1.0557
0.029119,0.0091573,0.073468,-0.0073956,0.2613,0.39817,0.33549,0.029386,-0.0036998,-0.18108,0.10321,-0.11963,-1.166,0.11946,0.086943,-0.39296,0.0072999,0.043613,0.014928,0.055562,-0.16884,-0.29773,0.1431,0.78899
0.031642,0.01019,0.071724,-0.0047553,0.26027,0.38766,0.29787,0.039284,0.013611,-0.12717,0.1161,-0.14611,-1.1559,0.15642,0.010545,-0.43708,0.002648,0.028969,0.013461,0.05693,-0.10612,-0.5028,0.13585,0.59838
0.031279,0.0070921,0.064516,-0.0013173,0.25289,0.37293,0.25211,0.040235,0.012176,-0.092994,0.13008,-0.17007,-1.0816,0.13977,-0.086229,-0.48551,-0.0012965,0.019534,0.011691,0.054489,-0.035049,-0.66248,0.1201,0.48816
0.030416,0.00029084,0.056888,0.00035314,0.24251,0.3582,0.20586,0.034571,-0.0018365,-0.071037,0.14221,-0.1898,-0.94382,0.075241,-0.17222,-0.52668,-0.0034153,0.014714,0.011444,0.048789,0.03623,-0.73027,0.10279,0.42779
0.034042,-0.0074068,0.054296,-0.0012916,0.2315,0.34255,0.16675,0.024821,-0.019118,-0.057255,0.15026,-0.20294,-0.77808,-0.004009,-0.223,-0.54126,-0.0029512,0.0094517,0.012063,0.042535,0.1064,-0.64982,0.087873,0.37889
0.047771,-0.013033,0.058841,-0.0048594,0.2188,0.31775,0.138,0.013358,-0.029712,-0.051588,0.15376,-0.20975,-0.63041,-0.046665,-0.2347,-0.51589,-0.00063967,-0.00032275,0.011397,0.038776,0.17619,-0.40506,0.076265,0.31877
0.074176,-0.015719,0.067851,-0.0068296,0.20046,0.27325,0.11662,0.0029778,-0.025386,-0.054171,0.15404,-0.21399,-0.52512,-0.0059581,-0.22647,-0.45565,0.0015351,-0.013409,0.0077944,0.038885,0.24154,-0.051458,0.067746,0.24335
0.10956,-0.017165,0.075822,-0.0046601,0.17356,0.20474,0.09441,-0.0033194,-0.0015201,-0.061086,0.15404,-0.2203,-0.45359,0.1377,-0.22901,-0.38638,0.0017967,-0.024317,0.0016946,0.041786,0.29185,0.30292,0.062977,0.15552
0.14387,-0.020006,0.078289,0.00067205,0.14034,0.11894,0.061056,-0.0038856,0.041866,-0.064314,0.15825,-0.23054,-0.39026,0.36875,-0.26569,-0.34346,-0.00017516,-0.028561,-0.004328,0.044825,0.31536,0.55358,0.06405,0.057722
0.16485,-0.025479,0.074865,0.0052696,0.10813,0.029994,0.0088328,0.00024591,0.10039,-0.057146,0.17145,-0.24316,-0.31519,0.64705,-0.33756,-0.35259,-0.0033477,-0.027225,-0.0071966,0.045516,0.30702,0.64777,0.07298,-0.042286
0.16427,-0.032335,0.06938,0.005724,0.084185,-0.049871,-0.062656,0.0061974,0.16707,-0.041009,0.19566,-0.25639,-0.21893,0.92733,-0.42061,-0.41375,-0.0065066,-0.02648,-0.005616,0.042881,0.27195,0.5898,0.089131,-0.12251
0.1424,-0.037871,0.067174,0.0022633,0.069818,-0.11727,-0.14423,0.012137,0.235,-0.026987,0.22688,-0.27213,-0.087378,1.1748,-0.47699,-0.49887,-0.0092046,-0.032478,-0.001385,0.037594,0.22223,0.4103,0.10764,-0.15045
0.10754,-0.040266,0.071553,-0.0013079,0.059263,-0.17655,-0.2198,0.019654,0.29959,-0.028526,0.25488,-0.29627,0.11108,1.371,-0.47424,-0.56617,-0.011647,-0.046298,0.0013721,0.031044,0.16993,0.13753,0.12051,-0.10195
0.070954,-0.040306,0.08183,-0.00089534,0.044711,-0.23258,-0.27377,0.032915,0.35884,-0.04908,0.26784,-0.33455,0.41281,1.5124,-0.40261,-0.58333,-0.013956,-0.063412,-0.0012543,0.024151,0.12232,-0.19965,0.12031,0.01989
0.040849,-0.041027,0.094085,0.0042888,0.02302,-0.28492,-0.29949,0.05462,0.41139,-0.073975,0.26005,-0.3873,0.82174,1.6076,-0.28179,-0.54491,-0.015896,-0.077895,-0.010286,0.016799,0.081814,-0.54592,0.10432,0.18309
0.019131,-0.045372,0.10377,0.010957,-0.0022196,-0.32968,-0.30327,0.082011,0.45384,-0.074253,0.23688,-0.44759,1.2764,1.67,-0.15339,-0.47271,-0.017424,-0.08732,-0.022882,0.0082487,0.049221,-0.80854,0.076367,0.34437
0.0024546,-0.053604,0.10819,0.014356,-0.025276,-0.36707,-0.30108,0.10674,0.47991,-0.021951,0.21249,-0.5047,1.6544,1.707,-0.062549,-0.39923,-0.019296,-0.094049,-0.033777,-0.0017982,0.026232,-0.8889,0.044836,0.47102
-0.014216,-0.062592,0.10733,0.011926,-0.045016,-0.4066,-0.30964,0.11952,0.48305,0.092767,0.2007,-0.54977,1.8223,1.7078,-0.037614,-0.34676,-0.022751,-0.10226,-0.038256,-0.012366,0.015273,-0.74419,0.018046,0.55086
-0.0344,-0.067817,0.10294,0.0050058,-0.067033,-0.46333,-0.3375,0.11638,0.46107,0.25456,0.20556,-0.57921,1.707,1.6429,-0.077893,-0.3166,-0.028389,-0.1141,-0.034816,-0.021359,0.017738,-0.43317,6.6494e-005,0.58825
-0.058862,-0.066785,0.096993,-0.0025076,-0.098707,-0.54685,-0.38174,0.10149,0.41905,0.43135,0.21892,-0.59331,1.3441,1.4842,-0.15519,-0.29489,-0.035436,-0.12879,-0.025934,-0.026815,0.032942,-0.10453,-0.010334,0.59776
-0.086032,-0.061217,0.090656,-0.0071681,-0.14163,-0.65246,-0.43163,0.084202,0.36747,0.59251,0.2272,-0.59206,0.87259,1.234,-0.22782,-0.26762,-0.042342,-0.14525,-0.016471,-0.028427,0.058668,0.073859,-0.017374,0.60484
-0.11296,-0.056062,0.084116,-0.0082323,-0.18868,-0.76317,-0.4762,0.072266,0.31611,0.72384,0.22193,-0.57229,0.47452,0.93858,-0.25951,-0.23147,-0.0482,-0.1652,-0.010619,-0.028079,0.09212,0.0032949,-0.024825,0.64918
-0.13629,-0.055866,0.07694,-0.0077333,-0.22887,-0.86242,-0.51005,0.066751,0.26842,0.82859,0.20564,-0.52887,0.29194,0.66898,-0.23398,-0.19227,-0.053443,-0.1928,-0.0091052,-0.028722,0.12988,-0.29448,-0.034182,0.77681
-0.15336,-0.061295,0.068595,-0.0087555,-0.25582,-0.94756,-0.5343,0.062634,0.22124,0.91434,0.18834,-0.45906,0.36675,0.47652,-0.15905,-0.15484,-0.058933,-0.23051,-0.0084046,-0.032224,0.16704,-0.69305,-0.045373,1.0156
-0.16347,-0.068698,0.059019,-0.013388,-0.27237,-1.033,-0.55346,0.054505,0.17038,0.97711,0.17794,-0.36619,0.63376,0.3557,-0.05969,-0.11523,-0.064328,-0.27429,-0.0026516,-0.037808,0.19715,-1.0313,-0.058601,1.3479
-0.16833,-0.073145,0.049172,-0.021629,-0.28727,-1.1397,-0.57163,0.042324,0.11723,0.99697,0.17249,-0.25982,0.96632,0.24436,0.03506,-0.063141,-0.067619,-0.3129,0.012616,-0.042501,0.214,-1.194,-0.075119,1.7043
-0.17103,-0.072377,0.041142,-0.031557,-0.30734,-1.2801,-0.59127,0.03206,0.070436,0.95113,0.16019,-0.15226,1.243,0.060624,0.1044,0.0080871,-0.066654,-0.33256,0.037147,-0.043469,0.2142,-1.1588,-0.09608,1.99
-0.17369,-0.068295,0.037256,-0.040289,-0.33223,-1.4483,-0.61431,0.030468,0.040662,0.83557,0.12677,-0.054408,1.3948,-0.25173,0.14163,0.094003,-0.061351,-0.3242,0.065425,-0.0405,0.19864,-0.98977,-0.12063,2.1299
-0.17554,-0.064746,0.03834,-0.045112,-0.3561,-1.6242,-0.64314,0.038538,0.032995,0.67808,0.064134,0.026239,1.4123,-0.69792,0.15226,0.18151,-0.054292,-0.2882,0.089607,-0.036593,0.17162,-0.7889,-0.14517,2.1024
-0.17313,-0.063761,0.042305,-0.044444,-0.37367,-1.7867,-0.67966,0.049482,0.043591,0.53005,-0.025378,0.085024,1.3233,-1.2287,0.14723,0.25925,-0.048814,-0.23345,0.10415,-0.036013,0.1386,-0.63865,-0.1646,1.9389
-0.1629,-0.063784,0.044548,-0.038503,-0.38462,-1.9238,-0.72322,0.05325,0.063574,0.4404,-0.13074,0.11871,1.1686,-1.742,0.13674,0.32605,-0.046206,-0.172,0.10889,-0.041231,0.10445,-0.56565,-0.17461,1.6946
-0.1444,-0.061556,0.040553,-0.029454,-0.39252,-2.0363,-0.77024,0.043798,0.086645,0.42911,-0.23761,0.12524,0.99684,-2.0852,0.12784,0.38958,-0.044693,-0.11344,0.10808,-0.051145,0.072879,-0.54114,-0.17355,1.4154
-0.12161,-0.055831,0.029156,-0.020722,-0.40054,-2.1317,-0.81693,0.023069,0.11348,0.47822,-0.33372,0.10463,0.86489,-2.0828,0.12527,0.45597,-0.041303,-0.062806,0.10621,-0.061921,0.046496,-0.5109,-0.1629,1.1258
-0.1012,-0.049261,0.013958,-0.015465,-0.40908,-2.2168,-0.8631,-0.0012107,0.1489,0.54556,-0.4123,0.059583,0.82423,-1.6156,0.13178,0.51973,-0.034864,-0.022078,0.10377,-0.069575,0.026517,-0.43332,-0.14685,0.83829
-0.088808,-0.046475,0.0013471,-0.014909,-0.41773,-2.2943,-0.91317,-0.021237,0.19433,0.58999,-0.47293,-0.0053319,0.88421,-0.72937,0.14555,0.56274,-0.027223,0.0073272,0.096594,-0.072018,0.012252,-0.30332,-0.13176,0.56648
-0.085868,-0.050014,-0.003816,-0.017664,-0.42863,-2.3627,-0.97247,-0.033034,0.24236,0.59086,-0.51972,-0.084895,0.98027,0.30908,0.15643,0.5631,-0.02146,0.02402,0.079568,-0.068976,0.0013901,-0.15047,-0.12531,0.32486
-0.08923,-0.05794,-0.0018377,-0.020724,-0.44633,-2.4173,-1.0413,-0.035764,0.27887,0.55105,-0.55716,-0.17324,0.98592,1.0921,0.14624,0.50685,-0.018917,0.028272,0.051752,-0.060351,-0.0085223,-0.016172,-0.13449,0.11502
-0.093619,-0.065435,0.0016869,-0.021574,-0.47312,-2.4498,-1.112,-0.028473,0.29143,0.48609,-0.58545,-0.26234,0.77836,1.2808,0.096528,0.3944,-0.018087,0.023621,0.018716,-0.045097,-0.018442,0.074012,-0.16232,-0.083668
-0.095034,-0.068905,-0.00038754,-0.019809,-0.50388,-2.4471,-1.1716,-0.008536,0.27777,0.41003,-0.59845,-0.34106,0.3187,0.8184,0.00091384,0.2392,-0.016536,0.016163,-0.0099063,-0.022022,-0.027563,0.12598,-0.20488,-0.30364
-0.092642,-0.06869,-0.011683,-0.016988,-0.52629,-2.3931,-1.2088,0.026291,0.2472,0.32774,-0.5868,-0.39734,-0.31402,-0.016485,-0.1261,0.062696,-0.013863,0.011547,-0.025845,0.0082309,-0.034785,0.17231,-0.25128,-0.5633
-0.088132,-0.067782,-0.029518,-0.014917,-0.52738,-2.273,-1.2177,0.074507,0.21403,0.23656,-0.545,-0.4231,-0.96405,-0.78132,-0.25122,-0.10925,-0.012468,0.011984,-0.026553,0.042234,-0.040452,0.25116,-0.28802,-0.84755
-0.083443,-0.067879,-0.046513,-0.014055,-0.50145,-2.0779,-1.1977,0.13005,0.18814,0.13325,-0.47754,-0.41843,-1.4829,-1.1546,-0.33576,-0.2481,-0.015081,0.015681,-0.015606,0.075109,-0.046419,0.38117,-0.30592,-1.1143
-0.078833,-0.066783,-0.055557,-0.013541,-0.45304,-1.8085,-1.1492,0.18533,0.17024,0.020463,-0.39873,-0.39085,-1.7904,-1.1241,-0.35294,-0.32668,-0.021397,0.01907,0.00041281,0.10306,-0.05403,0.54553,-0.30546,-1.3253
-0.072671,-0.059916,-0.054692,-0.012691,-0.39246,-1.4744,-1.073,0.23545,0.15536,-0.09162,-0.3257,-0.3497,-1.8715,-0.93806,-0.29875,-0.32842,-0.0274,0.019895,0.015654,0.12463,-0.061761,0.69409,-0.29615,-1.4781
-0.062818,-0.044735,-0.048407,-0.012203,-0.32842,-1.0935,-0.97282,0.27969,0.14052,-0.18919,-0.26943,-0.29974,-1.7329,-0.86986,-0.19099,-0.25845,-0.028463,0.018737,0.026837,0.13953,-0.065057,0.76444,-0.29001,-1.6127
-0.048305,-0.023841,-0.044413,-0.013526,-0.26378,-0.69275,-0.8599,0.31905,0.12908,-0.26224,-0.23065,-0.23939,-1.3767,-0.99749,-0.058558,-0.14756,-0.02355,0.018086,0.033011,0.14642,-0.05929,0.71459,-0.29338,-1.7866
-0.030003,-0.0036741,-0.048209,-0.016862,-0.19706,-0.30719,-0.75134,0.35231,0.12686,-0.3112,-0.20341,-0.16457,-0.82534,-1.1745,0.071133,-0.042012,-0.016436,0.020087,0.034811,0.14257,-0.044081,0.55195,-0.30282,-2.0365
-0.0099728,0.010267,-0.059376,-0.019968,-0.12697,0.025346,-0.66183,0.37457,0.13318,-0.34901,-0.1826,-0.073875,-0.16982,-1.1975,0.17974,0.018022,-0.012519,0.024896,0.034404,0.12629,-0.025662,0.33998,-0.30845,-2.3531
0.0097574,0.017456,-0.07222,-0.019482,-0.055329,0.27626,-0.59328,0.37946,0.13579,-0.39683,-0.16889,0.03022,0.42282,-1.0091,0.25831,0.01885,-0.013975,0.030769,0.035552,0.10017,-0.015028,0.17204,-0.30178,-2.6845
0.027964,0.022143,-0.080037,-0.013959,0.01338,0.43881,-0.53164,0.36326,0.11634,-0.47568,-0.16718,0.14495,0.77645,-0.75651,0.30331,-0.02153,-0.017703,0.035479,0.042441,0.071835,-0.022619,0.12094,-0.282,-2.9617
0.044103,0.029344,-0.079666,-0.0057989,0.073591,0.53132,-0.45483,0.32718,0.063932,-0.59875,-0.18094,0.27031,0.80683,-0.66743,0.31328,-0.067192,-0.018003,0.037761,0.057176,0.050788,-0.052962,0.19319,-0.25546,-3.1276
0.05773,0.040724,-0.073055,0.00012702,0.11899,0.58526,-0.34736,0.27668,-0.013913,-0.76776,-0.20821,0.40587,0.57506,-0.86174,0.28858,-0.087091,-0.011607,0.037827,0.077749,0.043423,-0.10281,0.32084,-0.22887,-3.1554
0.068209,0.0538,-0.065146,0.00030237,0.14197,0.62449,-0.21142,0.21876,-0.093277,-0.97316,-0.24289,0.5423,0.24301,-1.2604,0.23358,-0.070639,-0.00055028,0.036895,0.098633,0.049932,-0.16363,0.4017,-0.20205,-3.053
0.074983,0.064597,-0.060104,-0.0044891,0.13512,0.65049,-0.066913,0.15975,-0.14897,-1.1952,-0.27991,0.65587,-0.037297,-1.6509,0.15799,-0.026642,0.0095153,0.03638,0.11407,0.065165,-0.22616,0.36347,-0.16673,-2.8575
0.077967,0.070955,-0.058775,-0.0098621,0.095919,0.64575,0.05946,0.10453,-0.1714,-1.4043,-0.31927,0.71455,-0.21142,-1.832,0.075145,0.029826,0.013853,0.03733,0.12162,0.082209,-0.28331,0.20629,-0.11323,-2.6226
0.077451,0.073684,-0.058789,-0.011635,0.03146,0.59266,0.14845,0.056391,-0.17154,-1.5621,-0.36516,0.69516,-0.31952,-1.7147,-0.002183,0.089094,0.011992,0.040162,0.12308,0.095645,-0.33002,-0.0075991,-0.039886,-2.4009
0.073515,0.075233,-0.056679,-0.0092982,-0.041877,0.49245,0.19733,0.016656,-0.16999,-1.628,-0.42135,0.59965,-0.41645,-1.3196,-0.065741,0.14751,0.0073377,0.044501,0.12221,0.10248,-0.36149,-0.20665,0.042587,-2.2244
0.065658,0.077651,-0.050294,-0.0060163,-0.10581,0.36815,0.21943,-0.015767,-0.17956,-1.5697,-0.48705,0.45677,-0.49496,-0.71563,-0.1126,0.19986,0.0040129,0.049069,0.12138,0.10135,-0.37302,-0.36092,0.11596,-2.0909
0.053307,0.081585,-0.040063,-0.0052957,-0.14991,0.24988,0.23564,-0.043803,-0.19628,-1.3737,-0.55696,0.30598,-0.48316,0.018112,-0.14249,0.23513,0.0040068,0.051896,0.12013,0.091791,-0.36266,-0.48948,0.16552,-1.9656
0.03697,0.086455,-0.028643,-0.0075442,-0.17612,0.15587,0.26345,-0.070164,-0.20579,-1.0486,-0.6254,0.17538,-0.31432,0.77826,-0.15413,0.24317,0.00675,0.051132,0.11653,0.074772,-0.33458,-0.62185,0.18909,-1.799
0.018977,0.090957,-0.019356,-0.0097434,-0.19382,0.0858,0.30917,-0.09522,-0.19862,-0.62147,-0.69094,0.070527,0.0010048,1.4129,-0.14373,0.22737,0.010595,0.046207,0.10967,0.053515,-0.29928,-0.75144,0.1974,-1.5509
0.0028928,0.093398,-0.014334,-0.0084476,-0.20967,0.030982,0.36683,-0.1167,-0.18014,-0.13243,-0.75788,-0.018337,0.36961,1.748,-0.10729,0.20972,0.014207,0.038571,0.10088,0.032997,-0.26844,-0.82416,0.20597,-1.211
-0.0081385,0.092273,-0.013497,-0.0032277,-0.22073,-0.0093841,0.42346,-0.13178,-0.16625,0.36705,-0.83338,-0.099868,0.68121,1.6689,-0.045118,0.21933,0.016722,0.031253,0.092739,0.017588,-0.24691,-0.77272,0.22489,-0.80541
-0.012834,0.08732,-0.015006,0.0026336,-0.21683,-0.021509,0.46749,-0.13965,-0.1689,0.81424,-0.9223,-0.1723,0.88291,1.1972,0.034846,0.27096,0.017287,0.027255,0.086996,0.0082489,-0.22762,-0.56608,0.25395,-0.38915
-0.011848,0.080294,-0.016912,0.0047846,-0.18989,0.014103,0.49535,-0.14221,-0.18439,1.1429,-1.0233,-0.22936,0.99587,0.49166,0.11794,0.3509,0.015235,0.027648,0.083218,0.001587,-0.19414,-0.23252,0.28547,-0.026827
-0.0065935,0.074299,-0.018662,0.00139,-0.14172,0.10633,0.51264,-0.14198,-0.19516,1.3034,-1.1282,-0.27348,1.0657,-0.23416,0.18807,0.42399,0.011007,0.030672,0.0791,-0.0080715,-0.13075,0.16012,0.311,0.23274
0.0020094,0.071634,-0.021178,-0.0054193,-0.083742,0.24383,0.52996,-0.13949,-0.18392,1.287,-1.2258,-0.32068,1.1006,-0.81532,0.23474,0.45817,0.006625,0.032595,0.072036,-0.024794,-0.034178,0.5466,0.3263,0.37851
0.01378,0.071778,-0.025407,-0.011288,-0.029404,0.39964,0.55629,-0.133,-0.1487,1.1354,-1.3054,-0.38989,1.0608,-1.1811,0.25771,0.44732,0.004664,0.02998,0.060931,-0.048117,0.080952,0.89375,0.33137,0.44436
0.028626,0.07148,-0.030741,-0.01292,0.013659,0.54536,0.59452,-0.12165,-0.10666,0.92409,-1.3592,-0.48555,0.908,-1.3217,0.26631,0.41348,0.006187,0.022022,0.047308,-0.073311,0.18752,1.198,0.32771,0.49328
0.045983,0.067189,-0.034932,-0.010219,0.045248,0.66353,0.64116,-0.10939,-0.08332,0.72725,-1.3812,-0.59076,0.66379,-1.2276,0.27323,0.38619,0.0094813,0.011354,0.035045,-0.094705,0.2595,1.4604,0.3164,0.58244
0.065099,0.057873,-0.035765,-0.0058767,0.067992,0.74986,0.6895,-0.10597,-0.095731,0.58669,-1.365,-0.67888,0.41631,-0.87321,0.28568,0.37645,0.011021,0.00261,0.028485,-0.10953,0.28542,1.6645,0.29888,0.72766
0.08584,0.045823,-0.033066,-0.0031384,0.082221,0.80684,0.73335,-0.12322,-0.14198,0.50576,-1.3022,-0.73464,0.26172,-0.26559,0.29912,0.36761,0.0081739,-0.00049248,0.029505,-0.11941,0.2729,1.7745,0.2785,0.89049
0.109,0.034809,-0.029141,-0.0036167,0.085635,0.83615,0.76883,-0.16894,-0.20435,0.46665,-1.1859,-0.76577,0.23115,0.4943,0.29784,0.33186,0.0014657,0.0023827,0.035249,-0.12845,0.24122,1.7541,0.25997,0.9997
0.13557,0.027285,-0.027148,-0.0065316,0.077557,0.8368,0.79383,-0.24262,-0.26237,0.45189,-1.015,-0.79461,0.2684,1.2124,0.26377,0.25874,-0.0056215,0.0079917,0.038525,-0.1396,0.20736,1.5911,0.24642,0.99645
0.16532,0.023008,-0.028773,-0.0094686,0.062628,0.80966,0.80647,-0.33552,-0.30501,0.45156,-0.79645,-0.83685,0.2791,1.6869,0.18943,0.17173,-0.0093311,0.011817,0.031446,-0.15218,0.17526,1.311,0.23654,0.8748
0.19572,0.019921,-0.03316,-0.009873,0.049505,0.76298,0.80455,-0.43418,-0.33275,0.45681,-0.54408,-0.88663,0.20853,1.8199,0.087197,0.11801,-0.0086328,0.01121,0.010306,-0.16244,0.13586,0.97194,0.22526,0.69005
0.22202,0.016137,-0.037935,-0.0064444,0.045355,0.71287,0.78656,-0.52396,-0.34962,0.45472,-0.2743,-0.9214,0.081413,1.6655,-0.012552,0.13856,-0.005983,0.0070194,-0.021772,-0.16622,0.077193,0.64129,0.20801,0.52819
0.23846,0.011221,-0.041275,0.00012566,0.051289,0.67702,0.75336,-0.59072,-0.35361,0.43562,-0.0038019,-0.92216,-0.02692,1.3717,-0.075593,0.24161,-0.0051396,0.0025341,-0.056685,-0.16163,-0.0037144,0.36711,0.18519,0.45582
0.24036,0.0059387,-0.043189,0.0074167,0.062914,0.66535,0.70917,-0.62146,-0.33496,0.40471,0.24992,-0.89121,-0.05782,1.064,-0.082864,0.39935,-0.0078873,0.00074299,-0.086549,-0.14987,-0.096039,0.1578,0.1626,0.48291
0.22612,0.0011948,-0.044997,0.012595,0.075072,0.67433,0.6605,-0.60673,-0.28395,0.38016,0.46816,-0.85205,-0.014814,0.76561,-0.042188,0.56836,-0.012546,0.0021574,-0.10836,-0.13413,-0.18073,-0.017825,0.1471,0.56221
0.1984,-0.0027186,-0.047671,0.014182,0.085958,0.68945,0.61356,-0.54543,-0.20083,0.37239,0.63514,-0.83135,0.047812,0.41746,0.015687,0.71565,-0.015591,0.004777,-0.12464,-0.11817,-0.24147,-0.21015,0.14074,0.62412
0.16323,-0.006042,-0.050631,0.013043,0.097013,0.69492,0.57161,-0.44942,-0.097761,0.36321,0.74666,-0.83831,0.075066,-0.030327,0.054805,0.82994,-0.014923,0.0058863,-0.13979,-0.10544,-0.27283,-0.46069,0.1382,0.62258
0.12712,-0.0090261,-0.05212,0.011623,0.10978,0.68464,0.53387,-0.34323,0.0098176,0.31119,0.81709,-0.85778,0.050433,-0.54276,0.054045,0.91253,-0.011841,0.0039904,-0.1555,-0.09888,-0.28053,-0.78356,0.12941,0.56176
0.093571,-0.011574,-0.050824,0.011853,0.12396,0.66635,0.49652,-0.25632,0.11536,0.18722,0.87642,-0.86166,-0.008489,-1.0109,0.016675,0.96065,-0.0099566,-0.00055416,-0.16916,-0.10051,-0.27532,-1.1655,0.10525,0.48773
0.061574,-0.013259,-0.04731,0.013515,0.13898,0.65558,0.45535,-0.21066,0.22551,0.01138,0.95579,-0.8283,-0.085952,-1.3388,-0.035713,0.96101,-0.012123,-0.0062656,-0.17618,-0.1107,-0.26583,-1.5782,0.061996,0.45342
0.02776,-0.013534,-0.043967,0.014705,0.15657,0.66284,0.40848,-0.21042,0.35192,-0.14648,1.0692,-0.75504,-0.19506,-1.5258,-0.079201,0.89964,-0.018186,-0.011575,-0.17418,-0.12778,-0.25472,-1.9871,0.0023469,0.48156
-0.0091292,-0.01196,-0.043379,0.014076,0.18012,0.68352,0.35803,-0.24038,0.497,-0.21067,1.2042,-0.65626,-0.36735,-1.6654,-0.10176,0.77708,-0.02543,-0.015253,-0.16479,-0.14866,-0.23881,-2.3461,-0.065831,0.54856
-0.04518,-0.0084666,-0.04639,0.012658,0.21011,0.69892,0.30978,-0.27437,0.64596,-0.15343,1.3291,-0.55143,-0.61478,-1.8551,-0.1066,0.6126,-0.030959,-0.016262,-0.15179,-0.17038,-0.21138,-2.5838,-0.13031,0.59706
-0.072802,-0.0036142,-0.051446,0.013199,0.24027,0.68872,0.27085,-0.28844,0.77215,-0.010745,1.4115,-0.45373,-0.90114,-2.089,-0.10401,0.43232,-0.033578,-0.013777,-0.13715,-0.19135,-0.16523,-2.5994,-0.17436,0.56708
-0.086133,0.0013587,-0.055816,0.017404,0.25993,0.64614,0.24602,-0.27082,0.85156,0.15433,1.4358,-0.36631,-1.1521,-2.2253,-0.099502,0.25219,-0.033636,-0.007768,-0.11926,-0.21135,-0.096093,-2.2848,-0.17867,0.42788
-0.085912,0.0049818,-0.057748,0.023733,0.2623,0.5837,0.23457,-0.22371,0.87468,0.30521,1.4082,-0.28514,-1.2999,-2.069,-0.088385,0.072518,-0.03158,0.00030309,-0.09541,-0.23027,-0.0059812,-1.5748,-0.1288,0.19533
-0.079286,0.006367,-0.057763,0.028172,0.2515,0.52431,0.22985,-0.15806,0.84716,0.44937,1.3495,-0.20266,-1.3292,-1.5166,-0.061968,-0.11099,-0.027243,0.0076405,-0.066976,-0.24664,0.095144,-0.50463,-0.026795,-0.072716
-0.074221,0.0058126,-0.057918,0.027582,0.24091,0.48422,0.22301,-0.086707,0.78076,0.60246,1.2806,-0.10914,-1.2889,-0.6659,-0.020687,-0.29104,-0.020745,0.011514,-0.042426,-0.25714,0.19131,0.75658,0.10103,-0.30192
-0.07316,0.0046397,-0.05961,0.02263,0.24233,0.46103,0.20954,-0.020252,0.68417,0.73756,1.2133,0.0060231,-1.2607,0.19671,0.017708,-0.4445,-0.013762,0.011135,-0.034155,-0.25728,0.26557,1.9278,0.20979,-0.43758
-0.071524,0.004308,-0.061811,0.017464,0.25516,0.43618,0.19447,0.033926,0.56167,0.77762,1.1476,0.14918,-1.3062,0.73321,0.02515,-0.54498,-0.0092273,0.0085407,-0.049872,-0.24296,0.30538,2.7052,0.25731,-0.47353
-0.062546,0.0054844,-0.061413,0.01629,0.26523,0.38965,0.19137,0.071866,0.4192,0.65006,1.0748,0.31406,-1.4292,0.73869,-0.016003,-0.58029,-0.0091764,0.0075426,-0.084413,-0.21219,0.30541,2.8924,0.22957,-0.45442
-0.044246,0.0077399,-0.055625,0.019902,0.2555,0.31479,0.21417,0.094051,0.2703,0.35918,0.9836,0.47745,-1.5778,0.25894,-0.093538,-0.55768,-0.012647,0.011274,-0.11909,-0.16662,0.26789,2.5086,0.15183,-0.44494
-0.022348,0.0099502,-0.044539,0.025199,0.21956,0.22201,0.2663,0.10615,0.13484,0.0071977,0.86745,0.6064,-1.6823,-0.43539,-0.16545,-0.4918,-0.015854,0.020077,-0.13107,-0.1121,0.20275,1.8017,0.074011,-0.4826
-0.006485,0.010953,-0.031723,0.028013,0.16652,0.12952,0.33531,0.1172,0.030625,-0.26494,0.73068,0.67648,-1.7017,-1.0051,-0.18455,-0.38846,-0.014787,0.031367,-0.10756,-0.057639,0.12802,1.1353,0.038126,-0.5477
-0.0029271,0.010072,-0.022213,0.026598,0.11325,0.049766,0.39802,0.13516,-0.035497,-0.37365,0.59105,0.68983,-1.6441,-1.2308,-0.13198,-0.24149,-0.0079968,0.0416,-0.054945,-0.012512,0.067564,0.79692,0.051203,-0.57643
-0.010025,0.0074934,-0.019342,0.022811,0.071181,-0.017654,0.43376,0.16255,-0.070659,-0.34707,0.47384,0.67849,-1.5502,-1.1144,-0.033274,-0.047637,0.0028674,0.048793,0.0046158,0.017197,0.04253,0.84496,0.084725,-0.51116
-0.020004,0.0045271,-0.022674,0.020281,0.039127,-0.082734,0.43638,0.19567,-0.091569,-0.29283,0.3987,0.68711,-1.4535,-0.83252,0.057792,0.17445,0.014967,0.053641,0.047373,0.030557,0.058482,1.0971,0.10081,-0.34983
-0.025217,0.0033976,-0.028376,0.021432,0.0075219,-0.15616,0.41602,0.22802,-0.11646,-0.3084,0.36701,0.74501,-1.3518,-0.58548,0.096931,0.38008,0.026507,0.058467,0.063085,0.030864,0.097286,1.2741,0.083377,-0.15347
-0.023445,0.0061553,-0.031529,0.025886,-0.030987,-0.24289,0.38987,0.25506,-0.15793,-0.40972,0.36001,0.84696,-1.2154,-0.45514,0.079195,0.51577,0.037148,0.065117,0.059971,0.022665,0.12349,1.1965,0.048685,-0.0032592
-0.018172,0.013042,-0.02877,0.031192,-0.074817,-0.34195,0.36973,0.27651,-0.21904,-0.53356,0.35109,0.95711,-1.0238,-0.37233,0.037528,0.54558,0.046664,0.073653,0.056451,0.0093672,0.10522,0.89194,0.027932,0.059559
-0.014436,0.021657,-0.019824,0.03482,-0.11625,-0.44991,0.35627,0.29488,-0.29262,-0.60223,0.32426,1.0339,-0.79915,-0.20446,0.012335,0.46658,0.053878,0.082772,0.066944,-0.006505,0.036671,0.54062,0.038751,0.062476
-0.014419,0.028155,-0.0074441,0.035685,-0.15007,-0.56257,0.34349,0.31232,-0.36403,-0.5887,0.28484,1.0572,-0.60469,0.1181,0.018094,0.30405,0.057451,0.091239,0.093208,-0.020894,-0.05533,0.31503,0.070927,0.076805
-0.016491,0.030031,0.0039567,0.034323,-0.17906,-0.67321,0.32769,0.32856,-0.41725,-0.52766,0.25361,1.0382,-0.50363,0.54043,0.034123,0.093227,0.05774,0.098742,0.12718,-0.026329,-0.12721,0.24924,0.09745,0.16067
-0.017809,0.028221,0.010425,0.032087,-0.21096,-0.77022,0.31191,0.34114,-0.44269,-0.47198,0.24928,1.005,-0.51239,0.92755,0.024949,-0.13668,0.057342,0.10549,0.16119,-0.012896,-0.14613,0.23736,0.098863,0.31598
-0.017433,0.026359,0.010589,0.030303,-0.24994,-0.83846,0.302,0.3469,-0.4425,-0.44155,0.27353,0.97647,-0.58747,1.1657,-0.028918,-0.36711,0.059144,0.1112,0.19556,0.028128,-0.10838,0.14582,0.078201,0.49018
-0.016913,0.027501,0.0067691,0.029882,-0.29096,-0.8654,0.29903,0.34322,-0.42935,-0.41194,0.31065,0.94635,-0.65882,1.2311,-0.11563,-0.58627,0.063446,0.11488,0.23707,0.1004,-0.035581,-0.069028,0.054324,0.61495
-0.018091,0.031196,0.0040584,0.031241,-0.32297,-0.84787,0.29599,0.32855,-0.41828,-0.3477,0.34109,0.88944,-0.68206,1.176,-0.20263,-0.78576,0.067165,0.11563,0.29062,0.20056,0.045737,-0.33847,0.042083,0.64635
-0.020553,0.033813,0.0073546,0.034189,-0.33847,-0.79458,0.28232,0.30293,-0.41728,-0.24364,0.35656,0.785,-0.66525,1.0602,-0.26167,-0.96197,0.066362,0.11369,0.35203,0.31838,0.12236,-0.5609,0.038863,0.5768
-0.021368,0.032065,0.017871,0.037776,-0.34145,-0.72212,0.25173,0.26865,-0.42334,-0.13394,0.3634,0.63826,-0.64841,0.89871,-0.28666,-1.1176,0.060004,0.11044,0.40847,0.43805,0.1955,-0.69978,0.029296,0.41871
-0.01745,0.026513,0.031643,0.040462,-0.34631,-0.64739,0.2056,0.23023,-0.42677,-0.062869,0.37212,0.48346,-0.65621,0.67225,-0.29183,-1.2568,0.05133,0.10733,0.44559,0.54022,0.26653,-0.80892,0.002016,0.18456
-0.0084209,0.021629,0.041581,0.040855,-0.36802,-0.58116,0.14926,0.19293,-0.41989,-0.046702,0.38292,0.3668,-0.66759,0.38138,-0.29475,-1.3739,0.045273,0.10477,0.45511,0.60613,0.32332,-0.96755,-0.038351,-0.11363
0.0025836,0.022138,0.042081,0.038653,-0.41062,-0.52618,0.085596,0.16059,-0.40273,-0.062151,0.381,0.32265,-0.62927,0.086586,-0.3004,-1.4456,0.044126,0.10207,0.43766,0.62425,0.34203,-1.1904,-0.074868,-0.446
0.010832,0.028869,0.032963,0.034981,-0.46266,-0.47968,0.013691,0.13479,-0.38175,-0.069288,0.34641,0.35933,-0.49852,-0.10645,-0.29834,-1.4363,0.045466,0.098484,0.40036,0.59686,0.30442,-1.3956,-0.093024,-0.75074
0.012976,0.03784,0.019653,0.031597,-0.50317,-0.43765,-0.065707,0.11605,-0.36365,-0.045665,0.27049,0.46162,-0.27459,-0.10431,-0.27299,-1.3197,0.044334,0.094239,0.35263,0.54125,0.21579,-1.4565,-0.092083,-0.94706
0.0086674,0.043375,0.0092839,0.029462,-0.51392,-0.39835,-0.14359,0.1056,-0.3504,-0.0012565,0.16527,0.60366,0.008951,0.12218,-0.21675,-1.1019,0.037724,0.090461,0.3034,0.48213,0.10682,-1.2917,-0.083198,-0.9756
-0.00022866,0.042451,0.0056225,0.027935,-0.48992,-0.36329,-0.20325,0.10519,-0.3394,0.035568,0.057343,0.76043,0.31876,0.52815,-0.13516,-0.82891,0.027293,0.088179,0.25998,0.43795,0.016253,-0.9209,-0.077761,-0.83989
-0.011732,0.036616,0.0067945,0.02547,-0.44107,-0.33561,-0.22982,0.11396,-0.32775,0.044583,-0.028972,0.91048,0.6442,1.0234,-0.041644,-0.56972,0.017872,0.087339,0.2272,0.40988,-0.033204,-0.44972,-0.078052,-0.61557
-0.025162,0.030144,0.0075341,0.021352,-0.3846,-0.3169,-0.22161,0.12535,-0.31594,0.028333,-0.086454,1.0328,0.98234,1.5085,0.052139,-0.3811,0.013254,0.086814,0.20597,0.38216,-0.047341,-0.0058286,-0.078321,-0.4141
-0.040809,0.026374,0.0040088,0.016819,-0.33383,-0.30506,-0.19288,0.1279,-0.30776,0.0048459,-0.12705,1.1055,1.3013,1.895,0.1418,-0.27849,0.013142,0.085401,0.19251,0.33456,-0.052502,0.32267,-0.073089,-0.3212
-0.058585,0.025412,-0.0028392,0.014335,-0.2911,-0.29579,-0.16465,0.11124,-0.30707,-0.011177,-0.17107,1.1122,1.526,2.1127,0.22784,-0.23196,0.013875,0.082914,0.17975,0.25836,-0.074457,0.51066,-0.062767,-0.35103
-0.077203,0.024808,-0.0081684,0.015458,-0.24947,-0.28887,-0.15037,0.073725,-0.31476,-0.020803,-0.23288,1.0523,1.5735,2.1223,0.30878,-0.19035,0.011998,0.080392,0.16054,0.16386,-0.12077,0.58139,-0.050896,-0.4478
-0.094706,0.02213,-0.0074503,0.019267,-0.20137,-0.29563,-0.14813,0.025173,-0.32823,-0.038352,-0.3138,0.94689,1.4169,1.9335,0.37678,-0.11584,0.0072483,0.079167,0.1307,0.073564,-0.179,0.57728,-0.037253,-0.53197
-0.10963,0.016978,-0.00034647,0.022931,-0.14773,-0.34104,-0.14544,-0.018364,-0.34326,-0.079694,-0.40551,0.83215,1.122,1.611,0.41984,-0.0044556,0.0023559,0.079546,0.089911,0.0066349,-0.22945,0.53687,-0.015771,-0.55554
-0.12141,0.010914,0.0089998,0.024039,-0.10047,-0.45484,-0.13197,-0.04498,-0.35621,-0.15281,-0.49895,0.74234,0.81438,1.2465,0.42883,0.1201,0.00019249,0.08021,0.040293,-0.033118,-0.26034,0.4844,0.019219,-0.52581
-0.1296,0.005786,0.015308,0.022572,-0.07663,-0.6534,-0.10928,-0.054805,-0.36502,-0.25636,-0.59028,0.69212,0.59558,0.90513,0.40336,0.23064,0.0011344,0.078988,-0.015667,-0.056648,-0.27322,0.42858,0.06455,-0.48362
-0.13271,0.0022459,0.016099,0.020653,-0.088106,-0.92277,-0.089884,-0.059475,-0.36905,-0.38315,-0.67997,0.67029,0.47338,0.58376,0.35192,0.31691,0.0029657,0.074494,-0.076097,-0.07825,-0.2764,0.36749,0.10704,-0.45953
-0.12835,-0.00022285,0.012911,0.02032,-0.13403,-1.2155,-0.087026,-0.073823,-0.3685,-0.52271,-0.76754,0.64928,0.36634,0.21924,0.28624,0.38621,0.0030398,0.067309,-0.13928,-0.10373,-0.27461,0.29786,0.13231,-0.44657
-0.11491,-0.0020762,0.0091155,0.021459,-0.2008,-1.4666,-0.10385,-0.10639,-0.36387,-0.66142,-0.84819,0.6037,0.18102,-0.25349,0.21461,0.44668,0.00041597,0.059611,-0.20274,-0.12802,-0.26492,0.224,0.13616,-0.41069
-0.093565,-0.002738,0.0067102,0.0219,-0.26895,-1.6197,-0.12989,-0.15574,-0.35555,-0.78334,-0.91472,0.52518,-0.10217,-0.83559,0.1392,0.49137,-0.0039022,0.053459,-0.26293,-0.14307,-0.24158,0.15935,0.12796,-0.32523
-0.068498,-0.0010277,0.0051149,0.019569,-0.32181,-1.6493,-0.14643,-0.21426,-0.34364,-0.87422,-0.96321,0.42428,-0.40663,-1.4436,0.05848,0.49913,-0.0083879,0.049196,-0.31588,-0.14798,-0.20408,0.11755,0.1225,-0.19598
-0.044668,0.0033412,0.0027609,0.014605,-0.3502,-1.5633,-0.13563,-0.27492,-0.3282,-0.92627,-0.99698,0.32068,-0.61838,-1.9513,-0.027704,0.45259,-0.012305,0.045436,-0.35818,-0.1521,-0.15999,0.10032,0.12767,-0.054563
-0.024762,0.0087221,-0.00054953,0.0093986,-0.35162,-1.3898,-0.087396,-0.33505,-0.30984,-0.9386,-1.0251,0.23078,-0.67395,-2.2612,-0.11462,0.35672,-0.015617,0.040685,-0.38768,-0.16869,-0.11997,0.094187,0.13883,0.071153
-0.0079356,0.012232,-0.0031546,0.0064498,-0.32608,-1.1569,-0.00070842,-0.39494,-0.28975,-0.91208,-1.056,0.16164,-0.60384,-2.3477,-0.19273,0.24113,-0.017932,0.035064,-0.40349,-0.20506,-0.090035,0.081424,0.14456,0.1804
0.0083943,0.011907,-0.0034141,0.0060703,-0.2729,-0.88143,0.11879,-0.45424,-0.2689,-0.84422,-1.0924,0.11274,-0.50034,-2.2441,-0.2505,0.14289,-0.017974,0.030416,-0.4052,-0.25744,-0.068332,0.056458,0.13783,0.29563
0.025187,0.0085584,-0.0018008,0.0060754,-0.19069,-0.5684,0.2618,-0.51056,-0.2472,-0.73205,-1.129,0.080183,-0.44548,-1.9884,-0.27797,0.084162,-0.014411,0.028634,-0.39167,-0.31383,-0.049187,0.032281,0.12223,0.43799
0.039942,0.0055684,-0.00070493,0.0038019,-0.080193,-0.21866,0.41675,-0.56152,-0.22373,-0.58401,-1.1567,0.058162,-0.46384,-1.5829,-0.26983,0.062087,-0.0072832,0.02977,-0.36034,-0.36144,-0.029938,0.02963,0.10799,0.60763
0.048252,0.0064848,-0.0018936,-0.0013666,0.0526,0.16536,0.56997,-0.60731,-0.19866,-0.43082,-1.1654,0.037516,-0.53396,-1.004,-0.22821,0.057455,0.0015074,0.031832,-0.30825,-0.39255,-0.013858,0.057945,0.10197,0.78716
0.047511,0.012209,-0.0042767,-0.0072707,0.19531,0.57781,0.70639,-0.64978,-0.17463,-0.32089,-1.1447,0.0061966,-0.63422,-0.25471,-0.16418,0.052345,0.0093387,0.032528,-0.2349,-0.40575,-0.0064511,0.10555,0.10109,0.96108
0.03942,0.020092,-0.0046308,-0.010743,0.33137,1.0093,0.8118,-0.68793,-0.15575,-0.29492,-1.0828,-0.045456,-0.77066,0.58537,-0.096035,0.041406,0.014732,0.031336,-0.14508,-0.4039,-0.0089608,0.14834,0.095098,1.1277
0.028931,0.025809,-0.00096436,-0.01033,0.44505,1.4448,0.87593,-0.71429,-0.14367,-0.35284,-0.9674,-0.11759,-0.9597,1.3598,-0.042543,0.02944,0.018267,0.029892,-0.04881,-0.39178,-0.015514,0.16909,0.076053,1.2895
0.02049,0.026596,0.004771,-0.0075348,0.52734,1.8611,0.8944,-0.71691,-0.13445,-0.43777,-0.79222,-0.19845,-1.1886,1.8936,-0.013472,0.021034,0.021701,0.03028,0.042751,-0.3749,-0.016748,0.16975,0.046421,1.4324
0.014956,0.023228,0.0076789,-0.005455,0.57927,2.2287,0.86812,-0.68743,-0.11975,-0.4558,-0.56425,-0.27023,-1.4007,2.0756,-0.0038922,0.013574,0.026094,0.032828,0.12303,-0.35836,-0.0066561,0.16578,0.018885,1.52
0.0098697,0.019126,0.0041678,-0.0060388,0.61045,2.5202,0.80101,-0.62879,-0.093187,-0.32619,-0.30551,-0.31898,-1.5269,1.9131,0.0019301,-0.00051689,0.030632,0.03551,0.19253,-0.34482,0.013447,0.16822,0.0080416,1.513
0.0025433,0.017394,-0.0044004,-0.0084969,0.63291,2.7216,0.69834,-0.55514,-0.056903,-0.032765,-0.045063,-0.34056,-1.5368,1.525,0.018482,-0.026042,0.033215,0.035531,0.25524,-0.33253,0.037016,0.17023,0.020404,1.4013
-0.0071804,0.018343,-0.01228,-0.010406,0.65392,2.8384,0.56742,-0.4817,-0.022456,0.35877,0.19455,-0.33752,-1.4625,1.0813,0.048363,-0.059692,0.032248,0.031605,0.31156,-0.31562,0.058035,0.15027,0.050118,1.2182
-0.017121,0.019586,-0.013925,-0.010495,0.67262,2.8895,0.41971,-0.4115,-0.0036543,0.733,0.40673,-0.31056,-1.3713,0.72551,0.08294,-0.091231,0.02798,0.024811,0.35397,-0.28761,0.075124,0.089088,0.08314,1.0236
-0.02546,0.018483,-0.0085814,-0.010352,0.68246,2.8942,0.27125,-0.33005,-0.0060205,0.98883,0.59916,-0.25318,-1.3143,0.52424,0.11428,-0.10923,0.022155,0.017274,0.37034,-0.24631,0.090852,-0.01385,0.10637,0.86916
-0.03297,0.014644,-0.00079539,-0.013099,0.67706,2.8614,0.13921,-0.21417,-0.020918,1.0949,0.78265,-0.15547,-1.2956,0.46352,0.14645,-0.10703,0.016304,0.01001,0.35294,-0.19709,0.10781,-0.13735,0.11502,0.77493
-0.042331,0.010217,0.0035722,-0.01998,0.65502,2.7885,0.036318,-0.049598,-0.029274,1.1,0.9596,-0.014466,-1.2869,0.48396,0.19308,-0.086224,0.010321,0.0020644,0.30599,-0.15242,0.12563,-0.2502,0.11333,0.7332
-0.055184,0.0078056,0.0022384,-0.028084,0.62028,2.6718,-0.032496,0.15542,-0.012533,1.0916,1.1208,0.15807,-1.2681,0.52512,0.26075,-0.057016,0.0027384,-0.0082296,0.24494,-0.12801,0.14149,-0.32773,0.10913,0.72969
-0.069941,0.0080846,-0.0019021,-0.031808,0.57898,2.5167,-0.068139,0.37116,0.036839,1.1333,1.2524,0.33774,-1.2481,0.55204,0.33358,-0.034469,-0.0075064,-0.021105,0.18754,-0.13722,0.15291,-0.36175,0.10689,0.758
-0.082723,0.0093884,-0.0035555,-0.027258,0.53627,2.3403,-0.071904,0.56141,0.1121,1.2239,1.346,0.49881,-1.2473,0.55399,0.37679,-0.030292,-0.019535,-0.034538,0.14298,-0.18546,0.15967,-0.3595,0.1047,0.81546
-0.090682,0.0095805,0.00056167,-0.015817,0.49517,2.1626,-0.042176,0.70121,0.19728,1.3067,1.4054,0.62639,-1.2599,0.52695,0.36041,-0.043373,-0.030826,-0.04572,0.10718,-0.26641,0.16292,-0.3357,0.096889,0.89054
-0.094591,0.008244,0.0095398,-0.0034478,0.45714,1.9944,0.022726,0.78507,0.27595,1.3201,1.4432,0.72015,-1.2368,0.46003,0.28415,-0.056554,-0.039213,-0.053575,0.066588,-0.3616,0.16287,-0.30442,0.079625,0.96126
-0.098219,0.0069262,0.019823,0.0039324,0.42239,1.8314,0.11763,0.82219,0.33798,1.2483,1.4736,0.78786,-1.1118,0.33884,0.17972,-0.045842,-0.044733,-0.059923,0.0073534,-0.44458,0.15751,-0.27468,0.054806,1.0103
-0.10508,0.0071668,0.028562,0.0049853,0.38909,1.661,0.22618,0.82519,0.38127,1.1343,1.5036,0.83491,-0.85215,0.16156,0.085357,0.00096866,-0.049508,-0.067978,-0.076641,-0.48901,0.14381,-0.24925,0.029442,1.0415
-0.11548,0.008353,0.035495,0.0033317,0.35322,1.4736,0.32422,0.80229,0.4093,1.0461,1.5299,0.85885,-0.49178,-0.048887,0.01337,0.069429,-0.055756,-0.079298,-0.18058,-0.47717,0.12034,-0.22528,0.011563,1.0787
-0.12646,0.0077202,0.041812,0.0035476,0.31024,1.2722,0.38934,0.75727,0.42704,1.0241,1.5411,0.85275,-0.11867,-0.25025,-0.060528,0.12106,-0.063818,-0.091848,-0.2903,-0.40484,0.088973,-0.19614,0.0060262,1.1416
-0.13445,0.0026804,0.047563,0.0066563,0.25818,1.0699,0.40965,0.69401,0.4375,1.0513,1.5241,0.81329,0.17331,-0.40192,-0.17499,0.1149,-0.072089,-0.10104,-0.38638,-0.28062,0.054481,-0.15563,0.012928,1.2203
-0.13818,-0.0067486,0.050566,0.0093958,0.19889,0.87921,0.38582,0.61954,0.44014,1.0667,1.4713,0.74524,0.3322,-0.4847,-0.34585,0.033703,-0.078753,-0.10315,-0.44879,-0.12169,0.022464,-0.10343,0.028756,1.2718
-0.13963,-0.017839,0.048324,0.0078232,0.13596,0.70085,0.32686,0.54231,0.43191,1.0082,1.3851,0.65805,0.36401,-0.50265,-0.54525,-0.1044,-0.083404,-0.098266,-0.46181,0.050753,-0.0027754,-0.04882,0.048521,1.2459
-0.14236,-0.027515,0.041315,0.0016219,0.070862,0.52231,0.24516,0.46828,0.41055,0.85005,1.2769,0.55742,0.31383,-0.46613,-0.71398,-0.25676,-0.086824,-0.090478,-0.41891,0.21483,-0.019397,-0.0093511,0.067287,1.122
-0.14888,-0.03483,0.034375,-0.0051228,0.001629,0.32727,0.15486,0.39889,0.37823,0.60998,1.16,0.43987,0.23375,-0.37309,-0.79638,-0.38015,-0.089219,-0.084783,-0.32633,0.35136,-0.028087,-0.004159,0.080973,0.92795
-0.15876,-0.04112,0.034215,-0.0074001,-0.073554,0.10979,0.072268,0.33281,0.34251,0.3294,1.0419,0.29533,0.16126,-0.20879,-0.77034,-0.44945,-0.088924,-0.083284,-0.2029,0.4488,-0.031451,-0.045449,0.087159,0.72515
-0.16857,-0.047731,0.044574,-0.0036225,-0.15037,-0.11759,0.012794,0.26963,0.31259,0.049668,0.92029,0.11576,0.11586,0.032368,-0.65274,-0.46044,-0.083217,-0.083564,-0.074604,0.50781,-0.033042,-0.13269,0.086085,0.57228
-0.1734,-0.053764,0.062895,0.0032286,-0.21577,-0.32848,-0.017199,0.21202,0.2924,-0.19693,0.78765,-0.097392,0.10526,0.32141,-0.48273,-0.42093,-0.070654,-0.080555,0.03467,0.54081,-0.036171,-0.25175,0.081053,0.49251
-0.16924,-0.05625,0.081536,0.0085158,-0.25257,-0.49738,-0.02812,0.16471,0.27583,-0.38349,0.64124,-0.33282,0.12982,0.59164,-0.30035,-0.34293,-0.052714,-0.070429,0.11211,0.56437,-0.042802,-0.37795,0.077237,0.4664
-0.15518,-0.052745,0.092879,0.0099353,-0.24875,-0.61479,-0.045449,0.13175,0.24865,-0.48661,0.48987,-0.57521,0.18241,0.76719,-0.13521,-0.2433,-0.03305,-0.053518,0.15937,0.5884,-0.053025,-0.48137,0.079051,0.45149
-0.13413,-0.043812,0.094414,0.0088751,-0.20456,-0.69205,-0.095562,0.11447,0.19746,-0.49497,0.35061,-0.81151,0.24854,0.80608,-0.0062229,-0.14807,-0.014948,-0.034117,0.18801,0.61083,-0.065482,-0.53373,0.087497,0.41187
-0.11155,-0.032895,0.089833,0.0082643,-0.13198,-0.75246,-0.18729,0.11175,0.11947,-0.42042,0.23686,-1.0319,0.3105,0.72629,0.076199,-0.089946,0.00069276,-0.017544,0.20961,0.62338,-0.078494,-0.517,0.099246,0.33764
-0.092455,-0.0236,0.085454,0.0094221,-0.047359,-0.81547,-0.30355,0.1215,0.025704,-0.29757,0.14672,-1.2261,0.3538,0.59479,0.11141,-0.094921,0.015114,-0.0068365,0.22708,0.62421,-0.091055,-0.43142,0.10825,0.24449
-0.0786,-0.016954,0.085134,0.01105,0.036258,-0.88573,-0.41133,0.14118,-0.065314,-0.16856,0.061999,-1.3801,0.37068,0.48759,0.11075,-0.166,0.029639,-0.0015186,0.23355,0.62605,-0.10296,-0.29774,0.10918,0.15867
-0.067999,-0.011199,0.087911,0.011056,0.11124,-0.95506,-0.48371,0.16608,-0.13854,-0.065005,-0.040255,-1.4785,0.35934,0.44945,0.094713,-0.27732,0.043924,0.0010612,0.21918,0.6503,-0.1139,-0.14934,0.10074,0.099143
-0.057302,-0.0041926,0.090075,0.0090418,0.17186,-1.0152,-0.5173,0.18708,-0.18907,-0.001053,-0.17194,-1.5123,0.32213,0.47879,0.083886,-0.385,0.056143,0.0033266,0.18045,0.7097,-0.12231,-0.016527,0.086904,0.066989
-0.04511,0.0040775,0.089497,0.006843,0.21041,-1.0702,-0.53165,0.19089,-0.21947,0.021467,-0.32554,-1.4836,0.26625,0.5414,0.089592,-0.44824,0.064697,0.0059946,0.12387,0.79267,-0.12494,0.087446,0.07493,0.044816
-0.033336,0.011387,0.08821,0.0066905,0.21825,-1.1378,-0.55211,0.16503,-0.23124,0.0070192,-0.47888,-1.4032,0.20612,0.59577,0.11135,-0.44686,0.069559,0.0082929,0.06099,0.86301,-0.11792,0.16835,0.070997,0.0041871
-0.025419,0.015595,0.090863,0.008967,0.19143,-1.2373,-0.59108,0.10527,-0.21984,-0.032305,-0.60812,-1.2808,0.16256,0.61002,0.14201,-0.3853,0.071908,0.0091124,-0.0010057,0.8775,-0.098995,0.23938,0.075932,-0.081959
-0.023139,0.016929,0.10034,0.011846,0.13545,-1.3736,-0.64262,0.020078,-0.17934,-0.073519,-0.69823,-1.1174,0.1558,0.56475,0.17473,-0.28419,0.072583,0.0078963,-0.064486,0.80961,-0.069702,0.30592,0.084078,-0.22509
-0.025207,0.017808,0.11436,0.013152,0.063956,-1.5308,-0.69245,-0.072659,-0.11265,-0.0892,-0.74421,-0.90888,0.19527,0.4506,0.20553,-0.16798,0.071129,0.00481,-0.13736,0.66341,-0.035813,0.36006,0.086563,-0.41033
-0.029002,0.020311,0.12612,0.012603,-0.0084961,-1.6798,-0.73195,-0.15587,-0.036395,-0.064595,-0.74534,-0.6595,0.27344,0.27072,0.23053,-0.056988,0.06651,0.00056791,-0.22305,0.4688,-0.0051586,0.38963,0.077201,-0.59662
-0.03364,0.023876,0.1289,0.012276,-0.073699,-1.7962,-0.76311,-0.22367,0.027242,-0.01038,-0.70093,-0.3936,0.36856,0.047094,0.24296,0.034357,0.05878,-0.0036914,-0.31349,0.26315,0.016367,0.39249,0.056922,-0.73228
-0.041042,0.025689,0.12115,0.01479,-0.13103,-1.872,-0.7916,-0.28377,0.066811,0.044436,-0.61315,-0.15236,0.45492,-0.18031,0.23463,0.096692,0.049882,-0.0066493,-0.39202,0.072317,0.028241,0.38171,0.033307,-0.78112
-0.053623,0.023568,0.10789,0.020782,-0.18182,-1.9155,-0.81735,-0.3496,0.091196,0.076012,-0.49404,0.026561,0.51374,-0.36926,0.20165,0.12601,0.042594,-0.0075063,-0.44491,-0.097374,0.035674,0.37604,0.015301,-0.74406
-0.070642,0.018583,0.097153,0.027863,-0.22246,-1.9396,-0.83306,-0.4277,0.12131,0.083271,-0.36824,0.13285,0.53874,-0.49887,0.14882,0.12529,0.038503,-0.0068814,-0.47268,-0.25408,0.046158,0.38484,0.0069342,-0.65976
-0.086823,0.014741,0.093861,0.032001,-0.24298,-1.9511,-0.83232,-0.50973,0.16838,0.0812,-0.26582,0.1915,0.5344,-0.58341,0.088323,0.10482,0.036839,-0.0070056,-0.49208,-0.40801,0.064198,0.40216,0.0047345,-0.58011
-0.094836,0.015773,0.09604,0.030287,-0.23311,-1.949,-0.81861,-0.57511,0.21763,0.077071,-0.20873,0.2465,0.51018,-0.66225,0.033105,0.078959,0.035192,-0.010591,-0.52682,-0.56049,0.087788,0.41561,0.00071658,-0.53485
-0.089676,0.021864,0.096514,0.023014,-0.19075,-1.9307,-0.80584,-0.60184,0.23412,0.057414,-0.20098,0.33096,0.47461,-0.76979,-0.00932,0.060487,0.031272,-0.018941,-0.59368,-0.70036,0.1093,0.42032,-0.011536,-0.51039
-0.07126,0.02934,0.089031,0.013567,-0.12504,-1.8969,-0.80928,-0.57769,0.18904,0.0045569,-0.23012,0.4459,0.43264,-0.90601,-0.03772,0.055883,0.024069,-0.030831,-0.69391,-0.80858,0.12035,0.42301,-0.032432,-0.46016
-0.043443,0.033721,0.073887,0.0062468,-0.050869,-1.8476,-0.83476,-0.50466,0.085468,-0.071147,-0.27837,0.56372,0.38734,-1.0294,-0.052691,0.064919,0.013617,-0.043246,-0.81508,-0.86812,0.11739,0.43154,-0.056807,-0.34178
-0.010943,0.033489,0.058226,0.0036215,0.020967,-1.7734,-0.87526,-0.39543,-0.039323,-0.12038,-0.33366,0.65312,0.34453,-1.0787,-0.052002,0.084797,0.0001853,-0.053518,-0.94034,-0.87344,0.10395,0.44071,-0.078525,-0.15568
0.022701,0.031249,0.050507,0.0051601,0.08907,-1.6526,-0.917,-0.26612,-0.13871,-0.087814,-0.39148,0.70583,0.3173,-1.0104,-0.030765,0.11558,-0.015787,-0.061099,-1.0567,-0.83449,0.088156,0.42986,-0.095413,0.043252
0.054724,0.031222,0.053616,0.0079499,0.15737,-1.4635,-0.9497,-0.13077,-0.18886,0.031331,-0.44757,0.7445,0.32538,-0.8265,0.013429,0.16224,-0.032794,-0.06746,-1.1569,-0.77208,0.077159,0.37592,-0.11079,0.1716
0.081754,0.035286,0.062395,0.0088289,0.22526,-1.2032,-0.97331,-0.00020876,-0.20182,0.16304,-0.49004,0.80654,0.38704,-0.57636,0.075447,0.23094,-0.047693,-0.074269,-1.2353,-0.70689,0.072606,0.27011,-0.13072,0.16547
0.099975,0.041049,0.067676,0.0064167,0.28165,-0.89802,-0.99725,0.11558,-0.20983,0.19144,-0.50026,0.91673,0.5065,-0.33128,0.14309,0.32174,-0.056767,-0.081491,-1.2847,-0.64872,0.070237,0.12191,-0.1594,0.01949
0.10741,0.043731,0.063359,0.0017538,0.30979,-0.5926,-1.0334,0.20478,-0.23627,0.044174,-0.46401,1.0689,0.66545,-0.1486,0.20373,0.42367,-0.058122,-0.087036,-1.2982,-0.59381,0.063609,-0.053612,-0.19622,-0.20895
0.10618,0.040322,0.050618,-0.0026789,0.30048,-0.32175,-1.0876,0.25357,-0.2789,-0.23858,-0.38416,1.2294,0.82726,-0.047226,0.25198,0.51733,-0.053326,-0.088175,-1.2737,-0.53274,0.048942,-0.25292,-0.23634,-0.43327
0.10196,0.032481,0.036108,-0.0047041,0.26266,-0.086087,-1.1535,0.25014,-0.31816,-0.51199,-0.28364,1.3573,0.9547,-0.0077319,0.29154,0.58448,-0.046443,-0.083393,-1.2164,-0.46293,0.027405,-0.48902,-0.27403,-0.58731
0.10035,0.025609,0.026287,-0.0037188,0.22148,0.14964,-1.2119,0.19216,-0.33983,-0.61501,-0.19398,1.427,1.0309,0.0057146,0.3292,0.6183,-0.040809,-0.073169,-1.134,-0.39501,0.0033614,-0.77833,-0.30614,-0.65917
0.10303,0.024748,0.022936,-0.00076926,0.20382,0.43267,-1.2375,0.094071,-0.34985,-0.47752,-0.13592,1.4384,1.0687,0.017685,0.36565,0.62636,-0.036242,-0.059253,-1.0292,-0.34598,-0.019631,-1.1192,-0.33359,-0.68883
0.10689,0.030608,0.023161,0.0023679,0.22167,0.78952,-1.2079,-0.011952,-0.36815,-0.16657,-0.1051,1.4104,1.099,0.025691,0.39111,0.62372,-0.029281,-0.043343,-0.89739,-0.32315,-0.041557,-1.4775,-0.36011,-0.7335
0.10706,0.038989,0.022856,0.0042806,0.26615,1.2069,-1.1145,-0.085694,-0.40896,0.16087,-0.073193,1.3662,1.1455,0.0035263,0.39046,0.62163,-0.016469,-0.02637,-0.73218,-0.31249,-0.065119,-1.7888,-0.38927,-0.82651
0.10107,0.044068,0.01993,0.0044633,0.31677,1.6381,-0.96566,-0.097055,-0.46665,0.35895,-0.0045615,1.3209,1.202,-0.082318,0.35479,0.62064,0.0021893,-0.0087996,-0.5363,-0.28346,-0.092196,-1.9759,-0.42147,-0.95779
0.090581,0.042837,0.014822,0.0031814,0.35815,2.029,-0.78286,-0.042567,-0.5192,0.3699,0.12176,1.2775,1.2313,-0.25519,0.29058,0.61333,0.022705,0.0086532,-0.32698,-0.2097,-0.12081,-1.9733,-0.45265,-1.0863
0.079433,0.037062,0.0089479,0.0010713,0.39102,2.3442,-0.59105,0.051958,-0.54436,0.22603,0.29825,1.2309,1.1904,-0.51732,0.21916,0.59363,0.039945,0.024731,-0.1307,-0.091022,-0.14537,-1.751,-0.47567,-1.1704
0.070288,0.03128,0.0034218,-0.0010829,0.42947,2.5801,-0.4092,0.14697,-0.53363,-0.0087902,0.49125,1.1723,1.0658,-0.84513,0.16599,0.56448,0.05116,0.03799,0.029703,0.041703,-0.16011,-1.3277,-0.48411,-1.192
0.06297,0.028698,-0.00075117,-0.0023628,0.48749,2.7574,-0.24675,0.21383,-0.4935,-0.29774,0.6572,1.0934,0.89623,-1.1889,0.1472,0.53785,0.057,0.047361,0.14582,0.14444,-0.16305,-0.7692,-0.47679,-1.1584
0.05583,0.028575,-0.002008,-0.0018466,0.56579,2.903,-0.10648,0.2513,-0.43698,-0.64019,0.76228,0.98989,0.76177,-1.4794,0.16212,0.52764,0.059427,0.052412,0.22526,0.18831,-0.15728,-0.16997,-0.4596,-1.0869
0.048313,0.027318,0.0013172,0.00092396,0.649,3.0326,0.010227,0.28174,-0.37579,-1.0343,0.79441,0.86528,0.74301,-1.6477,0.19587,0.54167,0.058982,0.053262,0.28501,0.17687,-0.14887,0.3735,-0.44267,-0.99066
0.041918,0.022202,0.009351,0.0054062,0.71501,3.1427,0.10064,0.33005,-0.31916,-1.4386,0.76246,0.73336,0.87183,-1.6547,0.22877,0.57807,0.054322,0.050451,0.34279,0.13907,-0.14312,0.78654,-0.43371,-0.87669
0.038649,0.014315,0.019501,0.01004,0.74909,3.2159,0.16249,0.40217,-0.27538,-1.7744,0.68619,0.61512,1.1065,-1.5155,0.24621,0.62735,0.044399,0.044897,0.41127,0.1044,-0.14184,1.0292,-0.43168,-0.75386
0.038695,0.007991,0.027275,0.01304,0.75311,3.2347,0.19779,0.47945,-0.2489,-1.9675,0.5851,0.52831,1.3492,-1.2989,0.24441,0.67746,0.03076,0.03772,0.49481,0.080264,-0.14336,1.1013,-0.42622,-0.63987
0.039839,0.0071197,0.028793,0.013514,0.74362,3.1948,0.2148,0.53261,-0.23247,-1.9913,0.47263,0.47463,1.4979,-1.0935,0.23088,0.71864,0.017246,0.029782,0.58666,0.048784,-0.14457,1.0452,-0.40425,-0.55877
0.039196,0.011583,0.023079,0.011971,0.74069,3.1112,0.22588,0.54296,-0.2034,-1.874,0.3566,0.43418,1.4986,-0.96128,0.22049,0.74668,0.0070491,0.021276,0.66815,-0.016264,-0.14351,0.94589,-0.35976,-0.53151
0.03558,0.017038,0.012426,0.0097123,0.75511,3.0144,0.24273,0.51434,-0.13314,-1.6682,0.2415,0.3732,1.3666,-0.90853,0.22807,0.7638,-7.3683e-005,0.012003,0.71426,-0.12735,-0.1407,0.91551,-0.29912,-0.56687
0.030322,0.018375,0.0007707,0.0076453,0.78226,2.9373,0.27219,0.46768,-0.0079174,-1.4168,0.12875,0.26158,1.1636,-0.89533,0.25896,0.77633,-0.0075585,0.0023896,0.7068,-0.27274,-0.13839,1.0522,-0.23736,-0.65747
0.026067,0.013919,-0.0085769,0.0056826,0.80683,2.9014,0.31495,0.42453,0.15477,-1.1431,0.014963,0.088631,0.9518,-0.87389,0.30206,0.78907,-0.018733,-0.0055795,0.64818,-0.42324,-0.1381,1.3857,-0.18774,-0.78164
0.024907,0.0067445,-0.014354,0.0033294,0.8148,2.9086,0.36749,0.39323,0.30991,-0.86684,-0.10733,-0.13332,0.76138,-0.82383,0.3318,0.79915,-0.033399,-0.0086939,0.56405,-0.54784,-0.13778,1.8427,-0.15288,-0.91108
0.027418,0.0020135,-0.01737,0.00077989,0.80467,2.9408,0.42611,0.36742,0.41023,-0.61986,-0.24322,-0.37836,0.59139,-0.75683,0.32109,0.79483,-0.047419,-0.0043628,0.48976,-0.62631,-0.13117,2.267,-0.12465,-1.0236
0.03281,0.0026742,-0.019491,-0.00078484,0.78938,2.9699,0.49083,0.33513,0.43583,-0.4361,-0.38603,-0.62058,0.43722,-0.6909,0.25885,0.76231,-0.055712,0.0072376,0.44898,-0.65254,-0.1109,2.4931,-0.092744,-1.1157
0.039408,0.0071823,-0.022292,-0.00021364,0.78683,2.9695,0.56707,0.28893,0.40557,-0.32475,-0.51319,-0.84144,0.31363,-0.6213,0.15851,0.69701,-0.055989,0.022517,0.44093,-0.63172,-0.074166,2.4347,-0.054298,-1.2045
0.044962,0.010948,-0.026042,0.0022635,0.80511,2.9245,0.66309,0.22872,0.36118,-0.25497,-0.59409,-1.0286,0.25082,-0.51615,0.048763,0.60975,-0.05006,0.036117,0.44679,-0.57682,-0.027117,2.128,-0.015963,-1.3098
0.047198,0.0099518,-0.029468,0.0048987,0.83315,2.8323,0.78308,0.15707,0.33654,-0.17473,-0.6078,-1.1717,0.26878,-0.3403,-0.048147,0.52073,-0.041841,0.04384,0.44914,-0.50622,0.016603,1.7019,0.012969,-1.4256
0.04502,0.0033614,-0.030449,0.0059221,0.84493,2.6974,0.91954,0.074006,0.33622,-0.052844,-0.55828,-1.263,0.35719,-0.083261,-0.13247,0.44425,-0.034059,0.044775,0.44695,-0.43953,0.043691,1.2953,0.029835,-1.5037
0.039724,-0.0066837,-0.027386,0.0053151,0.81589,2.5253,1.0515,-0.022347,0.33838,0.092029,-0.4742,-1.3026,0.48294,0.23633,-0.22206,0.37662,-0.026534,0.041245,0.45242,-0.38984,0.050275,0.9817,0.041402,-1.47
0.034828,-0.017246,-0.020525,0.0049726,0.74063,2.3194,1.1534,-0.12929,0.3171,0.20406,-0.39103,-1.3009,0.619,0.59363,-0.32934,0.29917,-0.017232,0.036856,0.47299,-0.35579,0.044807,0.7518,0.057489,-1.2697
0.033945,-0.026391,-0.012375,0.0068287,0.63885,2.0838,1.2118,-0.23415,0.2646,0.23743,-0.32782,-1.2738,0.76576,0.98343,-0.44105,0.19503,-0.0047956,0.03428,0.49594,-0.32074,0.041463,0.55859,0.081196,-0.9074
0.03804,-0.033268,-0.0067611,0.010629,0.54404,1.8265,1.2405,-0.31682,0.1965,0.19957,-0.27709,-1.2321,0.94155,1.4191,-0.52158,0.065722,0.0097886,0.034186,0.49167,-0.26238,0.048779,0.37885,0.1048,-0.44839
0.044374,-0.037214,-0.0068045,0.013623,0.48242,1.5575,1.2789,-0.36041,0.13904,0.15363,-0.21644,-1.1763,1.149,1.9001,-0.53987,-0.068177,0.023726,0.035597,0.43484,-0.16801,0.062991,0.23706,0.11516,0.02074
0.04832,-0.03752,-0.01296,0.012771,0.45703,1.282,1.3713,-0.36218,0.11097,0.17691,-0.13261,-1.1016,1.3501,2.3759,-0.49681,-0.18387,0.034478,0.036851,0.32629,-0.044914,0.072007,0.17281,0.10406,0.43664
0.046811,-0.03434,-0.022448,0.0075811,0.44862,0.99481,1.5363,-0.33584,0.11422,0.30773,-0.037329,-1.0112,1.4772,2.7452,-0.42726,-0.27575,0.041515,0.036297,0.19679,0.082198,0.066604,0.18371,0.074347,0.7692
0.040754,-0.02953,-0.030758,0.00093437,0.43179,0.68376,1.7473,-0.30225,0.1373,0.52058,0.039081,-0.92257,1.4775,2.9013,-0.3726,-0.35855,0.046339,0.032494,0.088444,0.18477,0.04876,0.19921,0.036957,0.99394
0.03459,-0.025905,-0.034477,-0.003041,0.39319,0.34099,1.9402,-0.27506,0.16544,0.74514,0.071559,-0.85915,1.3556,2.7984,-0.34717,-0.44961,0.050865,0.02427,0.028411,0.24509,0.029506,0.11596,0.0016832,1.0657
0.033506,-0.025051,-0.033482,-0.0022481,0.33813,-0.02637,2.048,-0.2521,0.18849,0.91039,0.061001,-0.83253,1.1801,2.4874,-0.32838,-0.54543,0.055525,0.01097,0.015825,0.26174,0.018464,-0.12733,-0.030075,0.93562
0.040494,-0.025704,-0.030707,0.0018202,0.28179,-0.39619,2.0404,-0.21865,0.20273,0.98031,0.033716,-0.83126,1.0441,2.0918,-0.27908,-0.61522,0.058604,-0.0071848,0.0309,0.24377,0.014977,-0.49296,-0.064607,0.60689
0.055204,-0.024572,-0.029519,0.0055509,0.2346,-0.74285,1.9418,-0.15957,0.20909,0.96056,0.019892,-0.82786,1.0083,1.7352,-0.18172,-0.62093,0.057291,-0.028999,0.055945,0.20056,0.0091554,-0.85269,-0.10835,0.17603
0.07488,-0.019272,-0.0308,0.0062779,0.19472,-1.0506,1.8131,-0.070519,0.21091,0.8804,0.029829,-0.79947,1.0658,1.4709,-0.053841,-0.54949,0.049678,-0.052691,0.088075,0.13674,-0.008407,-1.0597,-0.16028,-0.19604
0.096165,-0.010781,-0.032343,0.0041869,0.15278,-1.3172,1.7108,0.039544,0.21276,0.76997,0.048585,-0.74413,1.1497,1.261,0.067615,-0.43032,0.036261,-0.076591,0.13209,0.055816,-0.037675,-1.0347,-0.21052,-0.37923
0.11642,-0.0029788,-0.031162,0.0015414,0.10245,-1.5469,1.6505,0.1551,0.21891,0.64917,0.053429,-0.67839,1.1783,1.0192,0.15658,-0.32101,0.019913,-0.099724,0.18168,-0.03234,-0.069325,-0.80778,-0.24578,-0.36504
0.13405,0.00055501,-0.026663,0.00025088,0.045661,-1.7405,1.6014,0.26305,0.23099,0.52939,0.038535,-0.61885,1.1037,0.68218,0.21459,-0.26967,0.0044199,-0.12192,0.20965,-0.10861,-0.093276,-0.4943,-0.25682,-0.27333
0.14828,-0.00035938,-0.021633,0.00020356,-0.012004,-1.8957,1.5129,0.35672,0.24658,0.41904,0.025328,-0.56553,0.93757,0.26042,0.26059,-0.28228,-0.0073564,-0.14332,0.1813,-0.15051,-0.10681,-0.22982,-0.24216,-0.26
0.15896,-0.0024036,-0.020039,-0.0001602,-0.069697,-2.0142,1.3518,0.43343,0.26027,0.32423,0.049443,-0.50292,0.73952,-0.16601,0.30659,-0.32024,-0.014526,-0.16366,0.083432,-0.1432,-0.11442,-0.11129,-0.20595,-0.39596
0.16665,-0.0018012,-0.023615,-0.001813,-0.1335,-2.1087,1.1224,0.4902,0.26684,0.24467,0.13496,-0.41793,0.57729,-0.49712,0.34398,-0.32984,-0.017964,-0.18168,-0.055374,-0.087429,-0.12015,-0.1752,-0.1535,-0.61522
0.17241,0.0022956,-0.030425,-0.0037809,-0.2092,-2.1964,0.85909,0.52301,0.26415,0.17075,0.27632,-0.31751,0.48377,-0.67064,0.35268,-0.2804,-0.019269,-0.19512,-0.17369,0.0015326,-0.12086,-0.40765,-0.088829,-0.77346
0.17729,0.0071689,-0.036689,-0.0038439,-0.29273,-2.2858,0.59957,0.53043,0.25349,0.086754,0.44091,-0.22873,0.43488,-0.69023,0.32255,-0.18286,-0.019641,-0.20138,-0.21263,0.10278,-0.10788,-0.76219,-0.01661,-0.76561
0.18157,0.0091275,-0.040037,-0.0006362,-0.36878,-2.3677,0.36391,0.5165,0.23777,-0.020028,0.58847,-0.17959,0.36219,-0.61331,0.26491,-0.07785,-0.01926,-0.19845,-0.15186,0.19941,-0.075748,-1.17,0.054292,-0.60437
0.18443,0.0067952,-0.041119,0.0048504,-0.42063,-2.4234,0.15131,0.48806,0.21986,-0.14983,0.69154,-0.17629,0.19389,-0.51441,0.20304,-0.0064501,-0.01729,-0.18574,-0.01852,0.28233,-0.029327,-1.5488,0.11046,-0.39998
0.18444,0.0020384,-0.042239,0.0097904,-0.44312,-2.4434,-0.047619,0.44766,0.2023,-0.28626,0.74296,-0.19608,-0.099861,-0.4502,0.15121,0.01241,-0.012501,-0.16435,0.13688,0.34756,0.018475,-1.8246,0.13907,-0.26797
0.18054,-0.002158,-0.044626,0.011633,-0.44711,-2.4393,-0.23736,0.38912,0.18779,-0.40063,0.74861,-0.20216,-0.48575,-0.44286,0.10279,-0.016052,-0.0043554,-0.13698,0.27629,0.39172,0.057236,-1.9608,0.13589,-0.24716
0.17296,-0.0046476,-0.047139,0.0099633,-0.45115,-2.4344,-0.41383,0.30283,0.17874,-0.4636,0.7144,-0.16899,-0.88483,-0.48287,0.038475,-0.075843,0.0059034,-0.10739,0.39177,0.41132,0.08842,-1.9737,0.10967,-0.29134
0.16319,-0.0070315,-0.04759,0.006597,-0.46742,-2.4384,-0.56965,0.18893,0.17581,-0.45953,0.63931,-0.098689,-1.2171,-0.54293,-0.053241,-0.15284,0.01501,-0.079484,0.49308,0.40639,0.12463,-1.91,0.078646,-0.32737
0.15303,-0.011745,-0.045141,0.0039937,-0.49393,-2.4288,-0.70018,0.067385,0.177,-0.39699,0.51936,-0.016422,-1.4424,-0.59409,-0.16224,-0.23626,0.018994,-0.055938,0.58092,0.38406,0.17854,-1.7973,0.060461,-0.31808
0.14333,-0.019291,-0.041235,0.0034712,-0.51867,-2.3605,-0.80479,-0.0266,0.17891,-0.30946,0.35829,0.050058,-1.5706,-0.61751,-0.26138,-0.31265,0.015706,-0.036631,0.63435,0.35698,0.25075,-1.6095,0.062283,-0.27612
0.13342,-0.027365,-0.038098,0.0046596,-0.53084,-2.199,-0.88476,-0.062413,0.1794,-0.24463,0.17553,0.08992,-1.637,-0.60762,-0.32445,-0.3641,0.0069559,-0.017959,0.62636,0.33675,0.32707,-1.2852,0.078141,-0.22817
0.12192,-0.03272,-0.036413,0.0063578,-0.52894,-1.9538,-0.94295,-0.035534,0.17894,-0.24599,0.0037719,0.11238,-1.6656,-0.56512,-0.34148,-0.37648,-0.0016022,0.0060305,0.55367,0.32729,0.38796,-0.7952,0.094968,-0.17424
0.1082,-0.034011,-0.034641,0.0077123,-0.52009,-1.6839,-0.98632,0.026931,0.17932,-0.3351,-0.12418,0.13222,-1.6498,-0.48416,-0.31974,-0.35112,-0.0032951,0.040627,0.45191,0.32399,0.42229,-0.20741,0.10236,-0.082747
0.093593,-0.032939,-0.030848,0.0085689,-0.51275,-1.4666,-1.027,0.083157,0.18074,-0.5032,-0.19154,0.15147,-1.5606,-0.34411,-0.27293,-0.30764,0.0056601,0.087058,0.37911,0.31874,0.43395,0.31629,0.098776,0.079333
0.08093,-0.032622,-0.025278,0.0088934,-0.51056,-1.3533,-1.078,0.10436,0.18057,-0.71641,-0.20532,0.15437,-1.372,-0.11563,-0.21058,-0.2722,0.02384,0.14094,0.37907,0.3059,0.43611,0.60484,0.090336,0.31646
0.072796,-0.034707,-0.021043,0.0081898,-0.5116,-1.3437,-1.1446,0.092462,0.17531,-0.93255,-0.18914,0.12123,-1.0785,0.21876,-0.13716,-0.25965,0.045536,0.19384,0.45397,0.28376,0.4384,0.59086,0.084553,0.60439
0.069607,-0.037866,-0.021932,0.0058067,-0.51209,-1.3963,-1.2198,0.074586,0.16392,-1.1216,-0.16533,0.049171,-0.69724,0.64186,-0.059073,-0.26418,0.06422,0.237,0.5681,0.25121,0.43851,0.3638,0.084502,0.91443
0.069184,-0.039059,-0.029099,0.0019561,-0.51007,-1.4649,-1.2872,0.080029,0.14912,-1.28,-0.13966,-0.039462,-0.25883,1.0937,0.010203,-0.26686,0.076124,0.26488,0.67703,0.20489,0.42559,0.11428,0.087596,1.2311
0.068191,-0.036419,-0.039562,-0.0016886,-0.50629,-1.5315,-1.3323,0.1186,0.13516,-1.4294,-0.10091,-0.11063,0.19695,1.4862,0.054413,-0.25344,0.081623,0.27617,0.75664,0.14186,0.39234,0.003854,0.088585,1.5419
0.064336,-0.031145,-0.04796,-0.0027453,-0.50281,-1.6111,-1.3513,0.17648,0.12427,-1.5998,-0.035805,-0.14389,0.61813,1.7331,0.065467,-0.22702,0.083893,0.27224,0.80957,0.066884,0.3448,0.056305,0.083307,1.8119
0.057574,-0.026698,-0.050245,0.00010683,-0.50143,-1.729,-1.3522,0.23001,0.11568,-1.8026,0.054362,-0.14765,0.94015,1.7777,0.051057,-0.20504,0.086117,0.25475,0.84922,-0.0029375,0.30032,0.15378,0.069997,1.9764
0.049516,-0.025968,-0.046328,0.0057904,-0.50276,-1.8904,-1.3486,0.26364,0.10842,-2.0074,0.15123,-0.15063,1.0993,1.6064,0.030999,-0.20431,0.08922,0.22461,0.88017,-0.042776,0.27462,0.13986,0.047833,1.9711
0.041793,-0.028939,-0.039671,0.011212,-0.50563,-2.0665,-1.3519,0.27716,0.10523,-2.1384,0.23458,-0.17677,1.0573,1.2465,0.024073,-0.22805,0.091397,0.18305,0.89235,-0.033262,0.2683,-0.053078,0.014956,1.7806
0.034894,-0.03288,-0.034358,0.013262,-0.50656,-2.2084,-1.3679,0.2786,0.11309,-2.0958,0.30186,-0.22548,0.82301,0.75751,0.035328,-0.26622,0.089444,0.13344,0.86981,0.026846,0.26435,-0.35299,-0.03154,1.4634
0.02828,-0.034865,-0.032154,0.010961,-0.50041,-2.2731,-1.3978,0.27212,0.13897,-1.7964,0.3727,-0.27423,0.45377,0.21853,0.053428,-0.30719,0.080925,0.082116,0.80095,0.11866,0.2392,-0.6108,-0.093005,1.1272
0.021253,-0.034289,-0.031785,0.0061145,-0.48286,-2.2442,-1.4387,0.25323,0.18365,-1.2184,0.47175,-0.29961,0.037577,-0.28818,0.059276,-0.34849,0.065887,0.036993,0.67996,0.21427,0.17895,-0.72009,-0.16575,0.86849
0.013419,-0.033122,-0.030697,0.0020269,-0.454,-2.1317,-1.4803,0.21505,0.23846,-0.42805,0.60307,-0.29701,-0.33386,-0.7011,0.038441,-0.39576,0.04716,0.0046682,0.50252,0.29327,0.088566,-0.69244,-0.23957,0.72221
0.0043751,-0.033723,-0.02756,0.0012782,-0.42069,-1.9571,-1.5027,0.15885,0.2881,0.42506,0.7385,-0.2815,-0.58712,-1.001,-0.01187,-0.45099,0.029021,-0.012303,0.26639,0.35275,-0.01215,-0.62774,-0.30041,0.65623
-0.0066257,-0.036358,-0.023491,0.0041461,-0.39556,-1.7376,-1.4799,0.097863,0.31784,1.1518,0.83213,-0.27158,-0.67977,-1.2133,-0.084676,-0.50229,0.014961,-0.016346,-0.019193,0.40487,-0.10151,-0.61033,-0.33654,0.61011
-0.020102,-0.038842,-0.021225,0.008622,-0.39265,-1.4821,-1.3921,0.050168,0.32081,1.5922,0.85045,-0.2731,-0.60622,-1.3824,-0.16945,-0.52657,0.0059376,-0.013553,-0.32473,0.46564,-0.16754,-0.62545,-0.34496,0.5415
-0.035105,-0.038736,-0.023113,0.011779,-0.42179,-1.1994,-1.2395,0.026695,0.30106,1.6819,0.79424,-0.27887,-0.3981,-1.5296,-0.25566,-0.50503,0.00030073,-0.010838,-0.60482,0.54453,-0.21063,-0.57283,-0.33308,0.44411
-0.048764,-0.036013,-0.029453,0.011467,-0.4843,-0.90701,-1.0464,0.024688,0.27077,1.4812,0.695,-0.28243,-0.11552,-1.6248,-0.33084,-0.43915,-0.0044652,-0.012932,-0.81701,0.64146,-0.23771,-0.36907,-0.31378,0.33099
-0.057749,-0.033529,-0.038126,0.0073532,-0.57185,-0.63117,-0.85009,0.032137,0.24342,1.1439,0.58986,-0.28993,0.17332,-1.5942,-0.37749,-0.35337,-0.0094573,-0.020592,-0.94169,0.75001,-0.25434,-0.051791,-0.29621,0.20795
-0.060892,-0.034617,-0.045582,0.00092366,-0.66876,-0.39567,-0.68124,0.038878,0.22668,0.83679,0.49637,-0.31655,0.41716,-1.3628,-0.37551,-0.28086,-0.013358,-0.030823,-0.98761,0.86076,-0.26107,0.20904,-0.27934,0.06602
-0.060596,-0.039868,-0.048609,-0.0053477,-0.75654,-0.20741,-0.54864,0.044504,0.21892,0.65418,0.40684,-0.36984,0.59648,-0.90108,-0.31265,-0.24272,-0.013685,-0.038948,-0.98014,0.9606,-0.25533,0.2137,-0.2539,-0.10166
-0.061313,-0.046143,-0.046167,-0.0092083,-0.8188,-0.049453,-0.44004,0.056599,0.21144,0.5805,0.30408,-0.4362,0.71808,-0.24629,-0.19678,-0.23594,-0.0093943,-0.041443,-0.94444,1.0302,-0.2355,-0.12262,-0.21198,-0.27875
-0.065983,-0.048975,-0.040401,-0.0097156,-0.84441,0.11298,-0.33682,0.081742,0.19483,0.52519,0.18186,-0.48404,0.79488,0.50986,-0.059566,-0.23841,-0.002661,-0.037954,-0.89713,1.0457,-0.20309,-0.69342,-0.15664,-0.42455
-0.073505,-0.046395,-0.035955,-0.0077322,-0.82765,0.31674,-0.2293,0.11805,0.16546,0.40321,0.051019,-0.48132,0.82928,1.2534,0.054778,-0.22616,0.0018931,-0.031358,-0.84847,0.98735,-0.16227,-1.2541,-0.10266,-0.49634
-0.07968,-0.040784,-0.03739,-0.0054664,-0.76606,0.58371,-0.11925,0.1562,0.12779,0.20146,-0.073515,-0.41179,0.81484,1.8781,0.1115,-0.18937,0.00013474,-0.025932,-0.80564,0.85241,-0.1183,-1.5698,-0.066649,-0.47588
-0.080971,-0.036954,-0.045929,-0.0051236,-0.6585,0.91086,-0.0077773,0.1878,0.091011,-0.016122,-0.19161,-0.27734,0.75319,2.3038,0.10433,-0.13623,-0.008782,-0.024869,-0.76911,0.66386,-0.077221,-1.5515,-0.054295,-0.37752
-0.077734,-0.038016,-0.057932,-0.0073965,-0.50632,1.271,0.1195,0.21286,0.06275,-0.16284,-0.32417,-0.088396,0.66747,2.4873,0.058316,-0.083825,-0.022053,-0.02868,-0.72654,0.4677,-0.04605,-1.2877,-0.056007,-0.23314
-0.073966,-0.042627,-0.066868,-0.010905,-0.31752,1.6224,0.2947,0.23873,0.044497,-0.19507,-0.49995,0.14351,0.59591,2.4318,0.013458,-0.044928,-0.035534,-0.03528,-0.65571,0.31862,-0.031645,-0.9577,-0.055344,-0.069913
-0.073785,-0.046037,-0.06801,-0.013224,-0.11095,1.923,0.55255,0.27056,0.03168,-0.13721,-0.73407,0.40105,0.56807,2.1894,-2.0991e-005,-0.021054,-0.046672,-0.041416,-0.5416,0.26012,-0.037108,-0.70008,-0.043402,0.099289
-0.077794,-0.04408,-0.062437,-0.012928,0.084611,2.1423,0.90824,0.30155,0.017675,-0.051403,-1.017,0.65005,0.58364,1.8487,0.021908,-0.0054972,-0.055662,-0.044409,-0.39594,0.30833,-0.058035,-0.53502,-0.026466,0.26751
-0.082524,-0.036692,-0.056788,-0.01102,0.23866,2.269,1.3452,0.31291,-0.0018939,0.014863,-1.3237,0.83839,0.61319,1.5059,0.059539,0.0081011,-0.064247,-0.043275,-0.26001,0.44634,-0.082519,-0.38784,-0.019826,0.41939
-0.083303,-0.028048,-0.05831,-0.010406,0.33111,2.3097,1.822,0.28653,-0.027735,0.055425,-1.6334,0.91491,0.62155,1.2326,0.087318,0.019716,-0.073769,-0.038828,-0.18181,0.63103,-0.096546,-0.17856,-0.03288,0.52693
-0.077976,-0.023288,-0.068835,-0.013585,0.36114,2.282,2.2908,0.22248,-0.058646,0.085585,-1.9429,0.85913,0.59434,1.0593,0.092936,0.024266,-0.084407,-0.032879,-0.18111,0.80932,-0.091804,0.10239,-0.058507,0.56001
-0.068406,-0.024595,-0.082703,-0.020377,0.34623,2.2053,2.7139,0.14745,-0.094082,0.099261,-2.259,0.69895,0.54613,0.97979,0.08396,0.018575,-0.095852,-0.026902,-0.22896,0.93748,-0.070053,0.38951,-0.076128,0.5028
-0.058812,-0.029729,-0.090779,-0.02769,0.31156,2.0932,3.065,0.10495,-0.135,0.048027,-2.5776,0.49945,0.50464,0.9683,0.079088,0.007818,-0.10797,-0.020798,-0.25968,0.99673,-0.04047,0.59964,-0.066062,0.36319
-0.052618,-0.033953,-0.087578,-0.031662,0.27644,1.9539,3.3233,0.13023,-0.18242,-0.1323,-2.8695,0.32752,0.48592,0.99248,0.092878,0.0059055,-0.12022,-0.012467,-0.2085,0.99877,-0.012108,0.69388,-0.023375,0.16999
-0.050324,-0.033605,-0.075692,-0.030464,0.24673,1.795,3.4686,0.2258,-0.23517,-0.46448,-3.0874,0.21642,0.48102,1.0154,0.12618,0.028798,-0.13042,0.0012653,-0.048079,0.97874,0.012203,0.69266,0.039557,-0.038025
-0.049724,-0.028469,-0.063751,-0.025451,0.21717,1.6281,3.4874,0.35507,-0.28854,-0.88829,-3.1914,0.15416,0.46339,0.99537,0.1679,0.084665,-0.13497,0.022557,0.2009,0.9779,0.035654,0.64156,0.10268,-0.22393
-0.047857,-0.021378,-0.059611,-0.019796,0.18075,1.4694,3.3836,0.46099,-0.33427,-1.2714,-3.1736,0.10182,0.40852,0.89476,0.20401,0.16701,-0.13111,0.050347,0.48857,1.0241,0.061895,0.56841,0.15145,-0.3613
-0.043057,-0.01571,-0.064491,-0.016013,0.13771,1.3336,3.1829,0.49913,-0.36148,-1.4703,-3.0604,0.025906,0.30956,0.6989,0.22507,0.25531,-0.11978,0.079514,0.76578,1.1198,0.089821,0.47196,0.18355,-0.43926
-0.035826,-0.012971,-0.072855,-0.014573,0.098208,1.2267,2.9249,0.4634,-0.35845,-1.4011,-2.8907,-0.078564,0.17884,0.42974,0.2277,0.32347,-0.10596,0.10232,1.0027,1.2444,0.11365,0.34552,0.20585,-0.46325
-0.028207,-0.012249,-0.07771,-0.014583,0.078039,1.1444,2.6484,0.38737,-0.31622,-1.0737,-2.6863,-0.18779,0.037353,0.13926,0.21175,0.35168,-0.09538,0.11174,1.1883,1.3678,0.12788,0.20429,0.22618,-0.44947
-0.022269,-0.011597,-0.076344,-0.015379,0.090847,1.0763,2.3819,0.32112,-0.23452,-0.57193,-2.4391,-0.26775,-0.098021,-0.11848,0.1787,0.33497,-0.089929,0.10494,1.3206,1.467,0.13201,0.085202,0.24713,-0.41312
-0.018658,-0.0098917,-0.071593,-0.017169,0.14111,1.0148,2.1421,0.30051,-0.12705,-0.00081374,-2.1236,-0.29662,-0.22184,-0.31863,0.13302,0.28323,-0.08566,0.085026,1.4005,1.5362,0.13055,0.019253,0.26519,-0.35626
-0.016105,-0.0075713,-0.068117,-0.020126,0.22076,0.95858,1.937,0.32946,-0.021161,0.56136,-1.7267,-0.27714,-0.33982,-0.47832,0.083641,0.2131,-0.075489,0.059804,1.4345,1.5836,0.12861,0.0048456,0.2738,-0.2638
-0.012246,-0.0058806,-0.067717,-0.023219,0.31063,0.9107,1.766,0.38411,0.052071,1.0782,-1.2694,-0.23433,-0.46322,-0.64246,0.041373,0.13773,-0.05466,0.038189,1.4367,1.622,0.12778,0.0092937,0.26687,-0.11235
-0.0052505,-0.0055749,-0.068141,-0.024449,0.387,0.87174,1.6158,0.43125,0.074313,1.5398,-0.80548,-0.20284,-0.60094,-0.85372,0.012572,0.062475,-0.024693,0.026196,1.4227,1.6586,0.12602,-0.0027603,0.24112,0.11318
0.0048368,-0.0063056,-0.066041,-0.022541,0.43154,0.83574,1.4624,0.44571,0.052655,1.9392,-0.39753,-0.21208,-0.75192,-1.1264,-0.0058125,-0.010295,0.0072191,0.024629,1.4005,1.6911,0.12118,-0.040949,0.19767,0.40621
0.016029,-0.0070737,-0.06071,-0.018339,0.43995,0.79225,1.2819,0.41679,0.017555,2.2621,-0.088131,-0.27572,-0.90169,-1.4367,-0.024349,-0.071771,0.032732,0.029587,1.3672,1.712,0.11383,-0.086301,0.14349,0.7363
0.025624,-0.0071386,-0.054745,-0.014218,0.42326,0.73251,1.0652,0.34483,0.0042016,2.4948,0.1154,-0.38888,-1.0267,-1.7306,-0.052704,-0.10276,0.047272,0.035185,1.319,1.7144,0.10648,-0.11386,0.091357,1.0578
0.031776,-0.0065359,-0.051167,-0.011894,0.39902,0.65372,0.82414,0.23541,0.028689,2.6361,0.23604,-0.53244,-1.1062,-1.9407,-0.091188,-0.082031,0.05194,0.036727,1.2653,1.6966,0.10013,-0.11715,0.056657,1.3235
0.034329,-0.0059042,-0.050097,-0.010919,0.37727,0.55774,0.57999,0.096579,0.076613,2.7009,0.3109,-0.68101,-1.1357,-2.0101,-0.12944,-0.003536,0.051562,0.032563,1.2311,1.6614,0.092196,-0.11148,0.051104,1.4973
0.034605,-0.0059362,-0.048431,-0.0095977,0.35197,0.44613,0.34473,-0.061563,0.11396,2.7078,0.37827,-0.81007,-1.1307,-1.9167,-0.15351,0.1107,0.050797,0.023978,1.2408,1.611,0.078011,-0.11543,0.076475,1.5656
0.034729,-0.0068977,-0.04284,-0.0075099,0.30576,0.31717,0.11236,-0.22757,0.11305,2.6627,0.47423,-0.90049,-1.1162,-1.6901,-0.1555,0.21524,0.051172,0.013714,1.2976,1.5423,0.054708,-0.13086,0.12285,1.5439
0.037139,-0.0084126,-0.033147,-0.0068639,0.22539,0.16832,-0.12976,-0.3902,0.073542,2.5534,0.63249,-0.94155,-1.107,-1.4057,-0.13779,0.26482,0.050778,0.0042702,1.376,1.4448,0.023723,-0.14164,0.17335,1.4728
0.044215,-0.0095309,-0.022818,-0.010904,0.11541,0.0020717,-0.37925,-0.53921,0.021783,2.3613,0.8771,-0.93524,-1.0948,-1.1507,-0.10913,0.24232,0.04638,-0.0031871,1.4359,1.3039,-0.0098126,-0.13113,0.21287,1.3993
0.057554,-0.0091108,-0.016156,-0.020652,-0.0017896,-0.17059,-0.60855,-0.66463,-0.011035,2.0837,1.2069,-0.90035,-1.0523,-0.97764,-0.077077,0.17031,0.036173,-0.0091184,1.4492,1.1079,-0.039508,-0.099694,0.23523,1.3497
0.076847,-0.0064761,-0.014824,-0.033241,-0.10017,-0.33309,-0.77933,-0.75689,-0.013941,1.7489,1.5838,-0.87092,-0.95416,-0.87691,-0.043995,0.095466,0.021293,-0.015244,1.413,0.8545,-0.059607,-0.063811,0.24412,1.3122
0.099226,-0.0020243,-0.016759,-0.04375,-0.16645,-0.47113,-0.87172,-0.80912,-0.0039412,1.4127,1.9402,-0.88352,-0.79684,-0.79423,-0.0097836,0.055278,0.0051689,-0.023653,1.3424,0.55451,-0.065739,-0.037089,0.24778,1.2465
0.12013,0.0027417,-0.018158,-0.04894,-0.20527,-0.58019,-0.90331,-0.8201,-0.010579,1.1358,2.2068,-0.95632,-0.60316,-0.68105,0.022365,0.051439,-0.0086767,-0.035585,1.2499,0.22998,-0.055868,-0.011592,0.25186,1.1183
0.13569,0.005984,-0.016415,-0.049341,-0.23016,-0.6676,-0.91992,-0.79354,-0.050684,0.95607,2.3461,-1.0727,-0.40651,-0.53822,0.043749,0.050088,-0.018808,-0.050441,1.1355,-0.09163,-0.032094,0.041741,0.25574,0.93203
0.14504,0.0066565,-0.011417,-0.047788,-0.2502,-0.74871,-0.96429,-0.73333,-0.11433,0.87365,2.3684,-1.1838,-0.22906,-0.41391,0.044447,0.0086975,-0.026542,-0.065813,0.99478,-0.38513,-0.0015874,0.1521,0.2542,0.73472
0.15085,0.0051428,-0.0044244,-0.046134,-0.26495,-0.8405,-1.0487,-0.64015,-0.1728,0.85517,2.32,-1.2335,-0.071749,-0.35503,0.020471,-0.091406,-0.034722,-0.078816,0.83596,-0.63465,0.025845,0.32457,0.24226,0.5832
0.15724,0.0029284,0.0038602,-0.043663,-0.27107,-0.9569,-1.1538,-0.5163,-0.2006,0.85401,2.2539,-1.191,0.076695,-0.35336,-0.022859,-0.23181,-0.045511,-0.087919,0.68472,-0.83753,0.043335,0.53321,0.2189,0.50122
0.16665,0.0016527,0.013963,-0.038756,-0.27235,-1.1081,-1.2541,-0.37772,-0.19265,0.83346,2.2017,-1.071,0.22119,-0.33476,-0.074539,-0.37183,-0.058716,-0.09377,0.56796,-1.0036,0.051678,0.73752,0.18746,0.46123
0.17804,0.0023225,0.026514,-0.031781,-0.28229,-1.3027,-1.3465,-0.26168,-0.16298,0.7815,2.1634,-0.92536,0.34963,-0.2051,-0.12509,-0.4774,-0.071728,-0.098138,0.48975,-1.1494,0.058647,0.90874,0.15347,0.40616
0.18791,0.0051274,0.040685,-0.025777,-0.3164,-1.5491,-1.4577,-0.21727,-0.1278,0.71217,2.1168,-0.81323,0.44002,0.081217,-0.17062,-0.54001,-0.081013,-0.10179,0.42254,-1.2907,0.072456,1.045,0.12233,0.2922
0.19326,0.0096319,0.05394,-0.023905,-0.38129,-1.8533,-1.6242,-0.27843,-0.08813,0.65576,2.0366,-0.76937,0.47943,0.4825,-0.21023,-0.57178,-0.084202,-0.10333,0.32383,-1.4365,0.094291,1.1634,0.098103,0.11719
0.19405,0.014916,0.063467,-0.0262,-0.46981,-2.2113,-1.8625,-0.43733,-0.02652,0.64376,1.9121,-0.79007,0.479,0.88846,-0.24,-0.584,-0.081503,-0.10027,0.16529,-1.5888,0.11616,1.2772,0.08305,-0.085647
0.19295,0.019637,0.068013,-0.029139,-0.565,-2.6007,-2.1536,-0.64139,0.079914,0.69462,1.756,-0.84226,0.4717,1.18,-0.25032,-0.57029,-0.075638,-0.091773,-0.050129,-1.7457,0.12604,1.3771,0.076824,-0.27768
0.19255,0.022351,0.068531,-0.028767,-0.64737,-2.9789,-2.4543,-0.82205,0.24087,0.80471,1.599,-0.88534,0.493,1.2872,-0.23067,-0.51007,-0.070327,-0.080339,-0.29585,-1.9042,0.11621,1.432,0.075804,-0.43996
0.19229,0.022225,0.067267,-0.02442,-0.69959,-3.2922,-2.7237,-0.93709,0.44233,0.94638,1.4742,-0.88964,0.55673,1.2126,-0.17849,-0.38943,-0.068207,-0.07075,-0.54404,-2.0579,0.087847,1.4104,0.073781,-0.5759
0.18806,0.019655,0.066315,-0.019352,-0.70715,-3.4937,-2.9423,-0.9945,0.65114,1.0732,1.399,-0.84221,0.64211,1.0144,-0.10474,-0.22057,-0.069394,-0.066705,-0.78105,-2.1913,0.048846,1.3052,0.0646,-0.69826
0.17525,0.016176,0.066862,-0.017604,-0.65915,-3.5594,-3.11,-1.0385,0.83083,1.1318,1.3651,-0.74165,0.70077,0.77106,-0.030352,-0.041783,-0.071598,-0.067935,-1.0044,-2.2796,0.0073215,1.1414,0.045561,-0.81931
0.15292,0.01354,0.069312,-0.020172,-0.55195,-3.4909,-3.228,-1.1092,0.95906,1.0774,1.3451,-0.59035,0.68106,0.5474,0.024224,0.10325,-0.071734,-0.070365,-1.2099,-2.2972,-0.033034,0.96046,0.019393,-0.95076
0.12562,0.012678,0.073549,-0.024223,-0.39346,-3.3015,-3.2835,-1.2091,1.0365,0.89115,1.3121,-0.39086,0.55679,0.37323,0.049215,0.19066,-0.06802,-0.069342,-1.3865,-2.2349,-0.072166,0.79042,-0.0064593,-1.1015
0.10094,0.013351,0.078781,-0.02599,-0.20313,-2.9967,-3.2518,-1.3043,1.082,0.59147,1.2573,-0.14783,0.34401,0.23711,0.04827,0.22646,-0.061185,-0.06331,-1.526,-2.1137,-0.10912,0.62243,-0.02267,-1.2614
0.08441,0.014702,0.083377,-0.024322,-0.0056214,-2.5667,-3.1159,-1.3566,1.117,0.23425,1.1918,0.12813,0.095088,0.094935,0.033084,0.23491,-0.053997,-0.054911,-1.6352,-1.9827,-0.13893,0.40968,-0.021422,-1.3828
0.075741,0.016113,0.085552,-0.021301,0.17746,-1.9984,-2.8868,-1.3568,1.1453,-0.10356,1.1309,0.41876,-0.1285,-0.10704,0.015224,0.23678,-0.049425,-0.048691,-1.7334,-1.898,-0.15432,0.090525,0.0007407,-1.3878
0.069517,0.017574,0.08482,-0.019484,0.33181,-1.3029,-2.6084,-1.3304,1.1446,-0.35218,1.0758,0.70082,-0.28952,-0.40359,0.0013946,0.23629,-0.048649,-0.047414,-1.8314,-1.8933,-0.15116,-0.37675,0.040891,-1.2167
0.059744,0.019308,0.082935,-0.018903,0.44845,-0.53637,-2.3423,-1.3128,1.0756,-0.47677,1.0077,0.95211,-0.39349,-0.79309,-0.0059998,0.22606,-0.050211,-0.050051,-1.9116,-1.9608,-0.13242,-0.98501,0.088869,-0.88546
0.044571,0.021095,0.082955,-0.017163,0.5201,0.20424,-2.1418,-1.3199,0.90897,-0.48952,0.90151,1.1579,-0.47962,-1.2436,-0.0061228,0.2027,-0.050907,-0.053003,-1.9306,-2.0557,-0.10713,-1.6679,0.12887,-0.49834
0.02739,0.021978,0.086703,-0.012653,0.54136,0.81591,-2.0318,-1.3385,0.65302,-0.4387,0.74601,1.3145,-0.59047,-1.716,0.001158,0.1767,-0.047871,-0.053319,-1.8511,-2.1208,-0.084967,-2.3122,0.14478,-0.18704
0.013657,0.020717,0.092678,-0.0073236,0.5133,1.2355,-2.0028,-1.3442,0.36139,-0.38025,0.55285,1.4282,-0.74242,-2.1776,0.013733,0.16663,-0.040552,-0.051121,-1.6799,-2.1165,-0.071159,-2.7899,0.12869,-0.016083
0.0063277,0.016705,0.096552,-0.0056613,0.44675,1.4684,-2.0204,-1.3249,0.11052,-0.34797,0.3468,1.5099,-0.9184,-2.5873,0.026526,0.18317,-0.031246,-0.049227,-1.4785,-2.035,-0.065727,-2.9984,0.088383,0.063966
0.0037589,0.010654,0.094263,-0.010335,0.35889,1.5796,-2.043,-1.2878,-0.040958,-0.33869,0.14709,1.5688,-1.0865,-2.8604,0.034486,0.21783,-0.023761,-0.050392,-1.3352,-1.8938,-0.066864,-2.8959,0.048009,0.16631
0.0016215,0.0044434,0.085324,-0.018766,0.26493,1.6513,-2.0368,-1.2455,-0.083602,-0.31978,-0.042901,1.6073,-1.2272,-2.8573,0.037715,0.24689,-0.020999,-0.054636,-1.3132,-1.7156,-0.074273,-2.5144,0.038177,0.35886
-0.0031438,9.3092e-005,0.0735,-0.02445,0.17291,1.7358,-1.9838,-1.1972,-0.056626,-0.25383,-0.2291,1.6208,-1.3466,-2.4359,0.04323,0.24675,-0.023023,-0.058955,-1.4147,-1.5099,-0.088779,-1.9425,0.078615,0.59424
-0.0098984,-0.0015031,0.064119,-0.022392,0.088012,1.8357,-1.8817,-1.1261,-0.016405,-0.12622,-0.41136,1.6003,-1.4657,-1.5615,0.059343,0.20721,-0.026918,-0.059636,-1.5845,-1.2693,-0.10869,-1.2877,0.16316,0.74639
-0.015418,-0.0011515,0.060141,-0.013795,0.022531,1.9233,-1.7366,-1.0134,0.0018414,0.04092,-0.57567,1.5379,-1.5958,-0.4044,0.085526,0.13233,-0.028595,-0.055189,-1.7492,-0.98026,-0.12728,-0.63746,0.25797,0.72357
-0.017313,-0.00075282,0.060211,-0.005445,-0.00038849,1.9788,-1.5565,-0.85729,0.00081404,0.19753,-0.70259,1.4319,-1.7211,0.66442,0.10678,0.031319,-0.025297,-0.047444,-1.8586,-0.63729,-0.13515,-0.042499,0.31669,0.55403
-0.0165,-0.0019162,0.060238,-0.00401,0.042096,2.015,-1.3471,-0.67829,0.0066503,0.29389,-0.78472,1.2886,-1.8001,1.2185,0.099959,-0.089281,-0.017094,-0.03998,-1.901,-0.25162,-0.12665,0.47308,0.30475,0.36422
-0.016476,-0.0048495,0.057127,-0.010256,0.15154,2.066,-1.1121,-0.50819,0.038702,0.31167,-0.83649,1.1207,-1.7839,1.0023,0.049648,-0.22379,-0.0063738,-0.035313,-1.8868,0.15075,-0.10501,0.88887,0.21769,0.27063
-0.020122,-0.0083891,0.051504,-0.018366,0.2948,2.1517,-0.85739,-0.37344,0.089927,0.27761,-0.88612,0.94135,-1.6396,0.10036,-0.038612,-0.3597,0.0041805,-0.033143,-1.8231,0.53728,-0.081416,1.1757,0.082025,0.28728
-0.02705,-0.011082,0.047219,-0.020987,0.41363,2.2503,-0.59529,-0.28622,0.13259,0.24927,-0.95581,0.75868,-1.3667,-1.0745,-0.14013,-0.47536,0.013518,-0.030966,-1.7042,0.87649,-0.067768,1.3061,-0.060688,0.33428
-0.033936,-0.012342,0.048101,-0.01551,0.45566,2.3059,-0.34622,-0.24613,0.14136,0.28088,-1.0467,0.57304,-1.0031,-1.9932,-0.22814,-0.54969,0.022593,-0.026295,-1.5238,1.1417,-0.068504,1.2785,-0.17467,0.33485
-0.037452,-0.012686,0.054714,-0.0061328,0.40647,2.2677,-0.13461,-0.24472,0.11233,0.39167,-1.1411,0.38112,-0.61825,-2.3023,-0.29247,-0.57727,0.033013,-0.018597,-1.2933,1.3129,-0.077623,1.1348,-0.24227,0.3042
-0.037088,-0.012955,0.063772,-0.00014398,0.2987,2.1302,0.021332,-0.2659,0.062221,0.55661,-1.2184,0.18412,-0.29379,-2.0134,-0.34316,-0.57441,0.045251,-0.0094931,-1.044,1.3802,-0.083076,0.95132,-0.26352,0.34247
-0.035358,-0.013407,0.070615,-0.0018478,0.19033,1.9423,0.12291,-0.28436,0.011036,0.72333,-1.2707,-0.005614,-0.094574,-1.4634,-0.39535,-0.56806,0.058021,-0.0013388,-0.81009,1.3505,-0.075135,0.80616,-0.24896,0.53642
-0.035457,-0.013616,0.072624,-0.0093599,0.12764,1.7773,0.19884,-0.27054,-0.03501,0.84078,-1.3043,-0.16598,-0.039857,-1.0743,-0.44896,-0.57466,0.069333,0.0044547,-0.60682,1.2501,-0.052721,0.74299,-0.21406,0.85984
-0.038722,-0.013257,0.070778,-0.016683,0.11993,1.6873,0.29795,-0.20589,-0.085248,0.87998,-1.3293,-0.27581,-0.09089,-1.0743,-0.48243,-0.58669,0.078129,0.0080311,-0.42502,1.1185,-0.023628,0.75465,-0.17753,1.164
-0.044184,-0.01289,0.068221,-0.018893,0.14295,1.6745,0.46429,-0.099437,-0.15106,0.83772,-1.3487,-0.32896,-0.1662,-1.3674,-0.46759,-0.57908,0.084836,0.010357,-0.24543,0.99265,0.0008344,0.79704,-0.15874,1.2683
-0.050262,-0.013835,0.067301,-0.015872,0.16439,1.6991,0.70546,0.010151,-0.23054,0.72818,-1.3587,-0.34114,-0.18016,-1.6293,-0.39322,-0.531,0.090252,0.011988,-0.059263,0.88906,0.012677,0.82172,-0.17041,1.0752
-0.056549,-0.017178,0.067686,-0.011679,0.1689,1.7118,0.97571,0.074523,-0.30521,0.57375,-1.3583,-0.34222,-0.083243,-1.5444,-0.27638,-0.44473,0.093932,0.012453,0.12376,0.79774,0.011085,0.80402,-0.21001,0.62089
-0.063805,-0.022882,0.067093,-0.010547,0.16305,1.6846,1.1911,0.066725,-0.3511,0.40035,-1.3551,-0.35684,0.12112,-1.0133,-0.15154,-0.34558,0.093952,0.01067,0.28475,0.69204,0.001473,0.74904,-0.2581,0.032865
-0.072318,-0.029831,0.063795,-0.013227,0.16038,1.6177,1.2738,0.00041421,-0.35442,0.23371,-1.3586,-0.38622,0.39235,-0.19304,-0.04705,-0.26317,0.088594,0.0059287,0.41088,0.54857,-0.0087253,0.67664,-0.28837,-0.55651
-0.080598,-0.036675,0.058561,-0.016757,0.16296,1.5237,1.201,-0.07871,-0.31934,0.09145,-1.365,-0.40562,0.68641,0.63145,0.030517,-0.21009,0.07843,-0.0015098,0.5012,0.36291,-0.014225,0.60155,-0.28345,-1.0694
-0.085991,-0.042528,0.054357,-0.017497,0.1571,1.4073,1.0244,-0.12306,-0.26369,-0.027798,-1.3491,-0.38181,0.98007,1.231,0.092174,-0.17594,0.066549,-0.010668,0.55972,0.15094,-0.013374,0.52572,-0.24422,-1.4814
-0.086771,-0.04687,0.054136,-0.01446,0.12544,1.2598,0.84433,-0.11068,-0.2083,-0.14984,-1.2763,-0.29926,1.2683,1.5378,0.14902,-0.14089,0.056251,-0.020664,0.58586,-0.062926,-0.0067197,0.44622,-0.18546,-1.7843
-0.083633,-0.049047,0.058627,-0.0099637,0.06265,1.072,0.7528,-0.048917,-0.16929,-0.31754,-1.1283,-0.17587,1.5419,1.6209,0.19901,-0.095959,0.048186,-0.03129,0.57415,-0.25958,0.0053773,0.36747,-0.12227,-1.9587
-0.079057,-0.048265,0.065862,-0.0072398,-0.020129,0.85133,0.78148,0.044574,-0.1573,-0.57165,-0.92188,-0.055561,1.7689,1.5833,0.22953,-0.051868,0.039736,-0.04282,0.52393,-0.43147,0.023631,0.30415,-0.060009,-1.9819
-0.075096,-0.044353,0.072618,-0.0074534,-0.10522,0.62497,0.88801,0.16191,-0.18022,-0.93017,-0.70305,0.017103,1.9011,1.4775,0.23121,-0.028729,0.027578,-0.055281,0.44901,-0.5797,0.048453,0.27153,0.0038123,-1.8553
-0.071695,-0.038428,0.076451,-0.0089289,-0.18213,0.42527,0.98756,0.30519,-0.2433,-1.3776,-0.51752,0.021446,1.9006,1.297,0.20792,-0.036062,0.011248,-0.067955,0.37721,-0.70854,0.077873,0.27295,0.068964,-1.6236
-0.067051,-0.03243,0.076804,-0.0091523,-0.25228,0.26738,1.0062,0.4678,-0.34449,-1.8694,-0.38144,-0.033387,1.7664,1.0264,0.17331,-0.061259,-0.0056498,-0.079646,0.33991,-0.82354,0.10726,0.29684,0.12501,-1.3647
-0.059615,-0.027614,0.074622,-0.0074462,-0.32173,0.13895,0.92008,0.6191,-0.4694,-2.3484,-0.2762,-0.12326,1.5376,0.68986,0.1376,-0.077374,-0.017886,-0.089466,0.36015,-0.9334,0.13184,0.3258,0.1556,-1.1588
-0.049791,-0.023412,0.071168,-0.0056426,-0.39095,0.010416,0.75886,0.71401,-0.59213,-2.7621,-0.17168,-0.2306,1.2731,0.35176,0.098145,-0.064205,-0.022595,-0.097248,0.44673,-1.0506,0.15009,0.34902,0.1515,-1.0547
-0.039801,-0.01803,0.067131,-0.0060936,-0.4526,-0.14256,0.5763,0.72489,-0.68414,-3.0736,-0.057187,-0.35493,1.0251,0.077344,0.042691,-0.02472,-0.021239,-0.10306,0.59446,-1.1875,0.16475,0.36636,0.12058,-1.0504
-0.031846,-0.010454,0.062693,-0.0089796,-0.49948,-0.32316,0.41418,0.66888,-0.72608,-3.2603,0.047181,-0.50607,0.82629,-0.107,-0.03761,0.017591,-0.017931,-0.1063,0.78545,-1.349,0.17987,0.38162,0.084894,-1.0977
-0.02615,-0.0019451,0.058273,-0.01162,-0.53393,-0.51586,0.28356,0.60344,-0.71436,-3.3054,0.10882,-0.68813,0.69547,-0.21827,-0.13731,0.038615,-0.015943,-0.10549,0.98936,-1.5293,0.19588,0.3932,0.066034,-1.1264
-0.020517,0.0046917,0.055075,-0.010651,-0.56838,-0.70264,0.17173,0.58848,-0.65795,-3.189,0.11385,-0.88904,0.64626,-0.28851,-0.23695,0.033893,-0.015771,-0.099494,1.1657,-1.7147,0.20712,0.39253,0.070392,-1.0799
-0.011809,0.0076452,0.054644,-0.0052438,-0.61555,-0.87684,0.063243,0.64349,-0.56865,-2.89,0.083165,-1.0828,0.68419,-0.33373,-0.31366,0.021637,-0.016322,-0.089312,1.2722,-1.8904,0.2044,0.372,0.085905,-0.94335
0.0016695,0.0080649,0.05748,0.0015961,-0.67727,-1.0431,-0.044432,0.73438,-0.45336,-2.3964,0.058474,-1.2408,0.79087,-0.34738,-0.35288,0.02547,-0.017543,-0.078785,1.2788,-2.0466,0.18109,0.33421,0.092649,-0.74817
0.018552,0.0093563,0.061748,0.0050596,-0.74236,-1.2071,-0.14154,0.80103,-0.31459,-1.7203,0.070366,-1.3411,0.91206,-0.31886,-0.35326,0.051363,-0.021493,-0.073003,1.1795,-2.1781,0.1379,0.2923,0.078506,-0.54951
0.034747,0.014206,0.063412,0.0024383,-0.7959,-1.368,-0.21921,0.80296,-0.15798,-0.90836,0.11584,-1.3721,0.96744,-0.25465,-0.32336,0.078804,-0.030586,-0.075264,0.99621,-2.2795,0.082818,0.26012,0.047713,-0.39165
0.045589,0.022046,0.05832,-0.0043261,-0.83103,-1.5242,-0.28133,0.74647,0.00078349,-0.043081,0.16437,-1.3292,0.88363,-0.18017,-0.27528,0.074696,-0.044782,-0.084803,0.77317,-2.3397,0.02646,0.24105,0.016469,-0.28586
0.048361,0.029413,0.045092,-0.0097572,-0.85275,-1.6837,-0.34418,0.67285,0.13697,0.76211,0.18668,-1.2138,0.63163,-0.12182,-0.22006,0.01963,-0.060615,-0.097119,0.56358,-2.3416,-0.023231,0.22602,0.00015204,-0.21574
0.043424,0.032916,0.026609,-0.0089905,-0.87063,-1.8674,-0.42433,0.62048,0.22626,1.3776,0.18149,-1.0356,0.24414,-0.08715,-0.16598,-0.074219,-0.073139,-0.10668,0.41412,-2.2666,-0.063294,0.20263,0.0026209,-0.1624
0.033159,0.032033,0.0085416,-0.0017471,-0.88833,-2.0958,-0.52535,0.59391,0.25604,1.6868,0.17756,-0.8145,-0.19836,-0.062118,-0.1175,-0.16782,-0.079014,-0.10989,0.35015,-2.1047,-0.094656,0.16691,0.015276,-0.12614
0.019685,0.029128,-0.0044455,0.0070936,-0.9001,-2.371,-0.63422,0.56487,0.23035,1.6316,0.20959,-0.57739,-0.60291,-0.026945,-0.074294,-0.21908,-0.078005,-0.10628,0.36648,-1.863,-0.11991,0.12676,0.025225,-0.12588
0.003339,0.026852,-0.012008,0.010899,-0.89776,-2.6709,-0.72991,0.5015,0.16523,1.2549,0.28763,-0.34784,-0.89932,0.024186,-0.03214,-0.20794,-0.071881,-0.097457,0.42926,-1.5698,-0.14207,0.094046,0.025141,-0.17929
-0.016767,0.025614,-0.018183,0.0060693,-0.88075,-2.965,-0.79677,0.39888,0.078501,0.70796,0.38466,-0.13607,-1.0585,0.076391,0.012676,-0.14512,-0.062259,-0.085313,0.49116,-1.2687,-0.16419,0.073166,0.017307,-0.28368
-0.040708,0.0236,-0.027871,-0.0054575,-0.85913,-3.2376,-0.83225,0.28487,-0.018216,0.19687,0.45226,0.062982,-1.0914,0.10402,0.05766,-0.060601,-0.049673,-0.071149,0.51386,-1.0037,-0.18819,0.056897,0.010037,-0.41595
-0.066279,0.019137,-0.042509,-0.017775,-0.84556,-3.4985,-0.84415,0.19791,-0.11993,-0.11464,0.45289,0.26021,-1.0358,0.086958,0.092428,0.017442,-0.03445,-0.055966,0.48458,-0.80225,-0.21267,0.033558,0.010712,-0.55093
-0.089698,0.012834,-0.058586,-0.025212,-0.84313,-3.7669,-0.84079,0.15712,-0.22209,-0.18857,0.38518,0.45776,-0.94139,0.020092,0.10431,0.077255,-0.017867,-0.040966,0.4166,-0.66644,-0.2314,-0.0011691,0.021206,-0.68014
-0.10803,0.0072927,-0.070434,-0.025885,-0.84009,-4.0437,-0.8227,0.15002,-0.31408,-0.1206,0.28459,0.64034,-0.85582,-0.087879,0.088155,0.12341,-0.0017825,-0.027239,0.33523,-0.58018,-0.23523,-0.038593,0.038198,-0.8134
-0.1212,0.0047168,-0.074984,-0.022156,-0.81683,-4.2954,-0.78178,0.14596,-0.3793,-0.061276,0.20006,0.77999,-0.81269,-0.22004,0.052451,0.16574,0.013097,-0.014812,0.26208,-0.52606,-0.2173,-0.062528,0.056485,-0.96174
-0.13173,0.0048897,-0.074471,-0.01817,-0.75985,-4.4665,-0.70775,0.12183,-0.40322,-0.10588,0.16374,0.85156,-0.82361,-0.35363,0.015989,0.20808,0.028349,-0.0021564,0.21029,-0.49845,-0.17813,-0.060726,0.071916,-1.1175
-0.14237,0.0055419,-0.074772,-0.016732,-0.67153,-4.5109,-0.59635,0.077349,-0.38393,-0.23544,0.17447,0.84847,-0.87739,-0.45952,-0.0032103,0.24479,0.046699,0.01302,0.19149,-0.50119,-0.12639,-0.031748,0.0823,-1.2494
-0.15374,0.004652,-0.080875,-0.017835,-0.56823,-4.4189,-0.45364,0.028522,-0.33651,-0.35116,0.20446,0.78816,-0.94841,-0.50625,0.0014969,0.26561,0.06927,0.032118,0.2228,-0.53169,-0.074028,0.018605,0.087128,-1.3169
-0.16388,0.0023028,-0.093319,-0.019515,-0.46923,-4.2188,-0.29425,-0.012413,-0.28591,-0.36849,0.22207,0.70405,-1.0103,-0.47374,0.022817,0.26337,0.093796,0.054405,0.32183,-0.56673,-0.02924,0.087135,0.087402,-1.2925
-0.16987,0.000238,-0.10833,-0.019856,-0.38593,-3.9544,-0.13564,-0.05173,-0.25232,-0.28972,0.21348,0.62986,-1.0471,-0.37049,0.045758,0.23891,0.11571,0.077138,0.48987,-0.56491,0.0073991,0.17889,0.08552,-1.1756
-0.17006,-0.00035656,-0.12097,-0.018453,-0.31936,-3.6577,0.0078351,-0.111,-0.23938,-0.1967,0.18906,0.58534,-1.056,-0.23885,0.056883,0.2012,0.13137,0.096921,0.69719,-0.48644,0.040564,0.30153,0.084222,-0.99169
-0.16511,-0.00050391,-0.1284,-0.016393,-0.2661,-3.3363,0.12817,-0.20984,-0.23449,-0.17648,0.17216,0.56998,-1.0412,-0.13785,0.05014,0.16363,0.14057,0.11125,0.88656,-0.31584,0.073835,0.45195,0.084481,-0.77929
-0.15733,-0.0027202,-0.13063,-0.015161,-0.22571,-2.9818,0.22408,-0.35018,-0.2212,-0.2481,0.18032,0.56542,-1.0065,-0.10955,0.02747,0.13877,0.14613,0.11935,0.99808,-0.070177,0.1048,0.60688,0.084062,-0.57644
-0.14937,-0.0084979,-0.12928,-0.015542,-0.20284,-2.589,0.29943,-0.51515,-0.1935,-0.3526,0.21194,0.54344,-0.95205,-0.1518,-0.0030526,0.13357,0.15108,0.12202,1.0011,0.21223,0.12566,0.72823,0.078747,-0.41123
-0.14312,-0.016415,-0.12601,-0.017329,-0.20317,-2.171,0.36069,-0.68266,-0.16046,-0.40824,0.24644,0.47576,-0.87809,-0.21965,-0.028875,0.14663,0.15619,0.12112,0.91137,0.4926,0.12877,0.78224,0.066083,-0.29689
-0.13937,-0.022831,-0.12226,-0.019797,-0.22863,-1.7606,0.41378,-0.84177,-0.13768,-0.3772,0.25604,0.34254,-0.79139,-0.25809,-0.035103,0.16889,0.16001,0.11904,0.78043,0.74629,0.11249,0.7599,0.048729,-0.22988
-0.13781,-0.024754,-0.11959,-0.02227,-0.27712,-1.3986,0.46076,-0.99875,-0.13374,-0.28551,0.22071,0.13814,-0.7083,-0.24325,-0.0094384,0.1876,0.1612,0.11836,0.66468,0.96329,0.082765,0.68282,0.033992,-0.1922
-0.13743,-0.022382,-0.11943,-0.024231,-0.34693,-1.1155,0.49762,-1.169,-0.14341,-0.18522,0.13742,-0.12644,-0.65161,-0.20131,0.050631,0.19186,0.16068,0.12127,0.59385,1.1389,0.04966,0.58891,0.02903,-0.15957
-0.13701,-0.019033,-0.12179,-0.025031,-0.44033,-0.91981,0.51591,-1.3615,-0.15293,-0.099638,0.019577,-0.42366,-0.64231,-0.19053,0.13344,0.17717,0.1613,0.1287,0.55919,1.2652,0.021687,0.50733,0.035166,-0.11341
-0.13577,-0.018441,-0.12436,-0.023773,-0.5613,-0.79893,0.50886,-1.5687,-0.15162,-0.0038478,-0.11079,-0.71199,-0.69026,-0.2611,0.21685,0.14753,0.16543,0.13968,0.52615,1.3302,0.0022653,0.44086,0.046162,-0.049408
-0.13363,-0.021707,-0.12344,-0.01979,-0.70826,-0.7321,0.47959,-1.7671,-0.13889,0.1435,-0.23181,-0.9421,-0.7882,-0.42423,0.27962,0.11491,0.17261,0.15161,0.45977,1.3261,-0.009856,0.36822,0.052495,0.02378
-0.13085,-0.026491,-0.11643,-0.013458,-0.86775,-0.70633,0.44519,-1.9301,-0.12126,0.34895,-0.32656,-1.0691,-0.91176,-0.65124,0.31268,0.096363,0.17957,0.16162,0.3443,1.2591,-0.017531,0.2635,0.048708,0.094875
-0.12744,-0.029073,-0.10425,-0.0065767,-1.0157,-0.72204,0.43155,-2.0432,-0.10376,0.56201,-0.3838,-1.0697,-1.0266,-0.89648,0.3217,0.10874,0.18265,0.16825,0.18541,1.1559,-0.022502,0.11634,0.038013,0.16074
-0.12305,-0.027482,-0.091334,-0.0017299,-1.1266,-0.78374,0.45993,-2.1116,-0.084884,0.70384,-0.3987,-0.95692,-1.1001,-1.1187,0.31921,0.16124,0.18053,0.17204,-0.0025652,1.0604,-0.024972,-0.062566,0.03024,0.22859
-0.11778,-0.023078,-0.083171,-0.00086713,-1.1844,-0.88393,0.53349,-2.1549,-0.059504,0.72402,-0.37629,-0.78094,-1.1138,-1.2816,0.31327,0.24873,0.17514,0.17465,-0.21173,1.02,-0.025041,-0.2536,0.034482,0.30833
-0.11304,-0.019392,-0.08291,-0.0040577,-1.1884,-0.99569,0.63418,-2.1914,-0.025817,0.63882,-0.33472,-0.61025,-1.0691,-1.3397,0.30249,0.35037,0.17008,0.17722,-0.44646,1.0679,-0.024076,-0.44591,0.052058,0.40254
-0.11119,-0.019337,-0.089536,-0.0093231,-1.1506,-1.0827,0.73385,-2.2221,0.011559,0.5197,-0.30187,-0.49924,-0.98443,-1.2339,0.27997,0.43655,0.16811,0.17949,-0.71775,1.2081,-0.024432,-0.64507,0.075212,0.50329
-0.11383,-0.023169,-0.098674,-0.013706,-1.0871,-1.1197,0.81208,-2.2245,0.045354,0.44148,-0.30213,-0.46181,-0.88453,-0.91531,0.24032,0.48122,0.1694,0.18039,-1.0337,1.4122,-0.027697,-0.86469,0.092379,0.59807
-0.11991,-0.028684,-0.10536,-0.01489,-1.0113,-1.1042,0.86777,-2.1628,0.0719,0.43114,-0.34008,-0.46885,-0.79006,-0.38869,0.1814,0.47223,0.17175,0.17918,-1.3953,1.6301,-0.033026,-1.1092,0.095823,0.67903
-0.12564,-0.033176,-0.10689,-0.012371,-0.9311,-1.0504,0.91596,-2.0084,0.092974,0.45605,-0.39383,-0.47254,-0.71235,0.25771,0.1001,0.41312,0.17201,0.17598,-1.7984,1.8071,-0.037166,-1.3618,0.086025,0.74748
-0.12693,-0.035295,-0.10403,-0.0075525,-0.85108,-0.96778,0.97378,-1.756,0.11136,0.45829,-0.42606,-0.44047,-0.65533,0.86581,-0.01039,0.31641,0.16773,0.17115,-2.2363,1.8995,-0.036353,-1.5843,0.070248,0.81039
-0.12256,-0.035383,-0.099961,-0.00281,-0.77595,-0.84722,1.0481,-1.4255,0.12523,0.40542,-0.4072,-0.3756,-0.62014,1.268,-0.15417,0.19513,0.15809,0.16427,-2.696,1.8821,-0.028636,-1.7275,0.057369,0.87276
-0.1154,-0.034428,-0.097756,-0.00016276,-0.71108,-0.66534,1.1351,-1.0479,0.12786,0.3171,-0.33424,-0.30893,-0.60768,1.3637,-0.31994,0.059429,0.14372,0.15399,-3.1489,1.7496,-0.014743,-1.7444,0.05334,0.93248
-0.11028,-0.032963,-0.098001,-0.0003338,-0.65975,-0.40542,1.2302,-0.64765,0.11377,0.24842,-0.23161,-0.2725,-0.61818,1.1686,-0.47472,-0.081024,0.12584,0.13897,-3.5481,1.5166,0.0032517,-1.6021,0.059996,0.981
-0.10995,-0.03099,-0.098126,-0.002686,-0.619,-0.075416,1.3382,-0.23503,0.085299,0.24543,-0.13468,-0.2744,-0.64991,0.80781,-0.57529,-0.21416,0.10525,0.11916,-3.8393,1.2163,0.024299,-1.2944,0.076303,1.0085
-0.11254,-0.028722,-0.094139,-0.0059303,-0.57784,0.29255,1.4725,0.1861,0.052849,0.30838,-0.070376,-0.29329,-0.69894,0.45607,-0.5939,-0.32689,0.082082,0.09639,-3.9832,0.89675,0.049532,-0.85415,0.099296,1.0092
-0.11262,-0.027098,-0.083791,-0.0089982,-0.52039,0.66066,1.6454,0.60482,0.027616,0.38869,-0.049379,-0.29326,-0.7584,0.25537,-0.53927,-0.40981,0.056607,0.073707,-3.9745,0.60666,0.080826,-0.35747,0.12346,0.98429
-0.10534,-0.027267,-0.069038,-0.011429,-0.43362,1.0073,1.8592,0.99643,0.012655,0.41717,-0.072324,-0.24498,-0.81549,0.2529,-0.45372,-0.45973,0.030584,0.05406,-3.8423,0.37749,0.11768,0.090784,0.14037,0.94111
-0.090303,-0.029404,-0.055709,-0.013102,-0.31555,1.3367,2.1067,1.3282,-0.00022483,0.33834,-0.13979,-0.138,-0.8482,0.38924,-0.38518,-0.47693,0.0077316,0.039076,-3.6336,0.21038,0.15512,0.39451,0.14124,0.89039
-0.072062,-0.031972,-0.050137,-0.013746,-0.17866,1.6731,2.3811,1.571,-0.025333,0.12687,-0.25447,0.020264,-0.82826,0.54096,-0.35422,-0.46027,-0.0078279,0.028548,-3.3902,0.080191,0.18485,0.51031,0.1224,0.84271
-0.056915,-0.032339,-0.054796,-0.012852,-0.045165,2.0452,2.6834,1.7075,-0.073991,-0.21767,-0.41377,0.21153,-0.73404,0.59272,-0.34226,-0.40629,-0.014504,0.020832,-3.1355,-0.043654,0.19945,0.4704,0.089607,0.80517
-0.048609,-0.028484,-0.066145,-0.010135,0.063985,2.4708,3.0179,1.7316,-0.14819,-0.68172,-0.6019,0.41123,-0.56775,0.49795,-0.3104,-0.31389,-0.015191,0.013935,-2.8738,-0.17291,0.19666,0.36452,0.056552,0.77953
-0.046301,-0.020586,-0.076554,-0.0061034,0.13991,2.9455,3.3768,1.6481,-0.24058,-1.237,-0.79115,0.58979,-0.36316,0.29553,-0.23298,-0.18932,-0.016095,0.0067377,-2.5974,-0.29093,0.18065,0.28794,0.03686,0.76271
-0.046187,-0.011236,-0.079225,-0.0020757,0.18911,3.4367,3.7277,1.4769,-0.33914,-1.8278,-0.95325,0.71693,-0.17274,0.077247,-0.11816,-0.045328,-0.022775,-0.00042982,-2.2923,-0.36555,0.15945,0.289,0.035114,0.74975
-0.045178,-0.0039567,-0.072648,0.00053048,0.22656,3.8874,4.0169,1.2586,-0.43257,-2.3638,-1.0724,0.773,-0.038576,-0.068205,-0.00013873,0.10506,-0.036412,-0.0063681,-1.9431,-0.37431,0.14086,0.35195,0.044148,0.73776
-0.043473,-0.0009622,-0.061321,0.0011331,0.26284,4.2316,4.1908,1.0504,-0.51343,-2.7391,-1.1504,0.76175,0.033403,-0.09765,0.087864,0.25269,-0.053513,-0.010466,-1.541,-0.32198,0.12974,0.42531,0.051303,0.72809
-0.043957,-0.001726,-0.052268,0.00038907,0.29455,4.4199,4.2221,0.90543,-0.57884,-2.8768,-1.2006,0.71218,0.074636,-0.020024,0.13542,0.38847,-0.069357,-0.013908,-1.0955,-0.23665,0.12771,0.47069,0.048694,0.72486
-0.049055,-0.0034132,-0.050022,-0.000277,0.30546,4.4415,4.1226,0.8469,-0.62978,-2.7748,-1.2389,0.66253,0.12635,0.12657,0.15475,0.49535,-0.082108,-0.019451,-0.64076,-0.14882,0.13376,0.49171,0.038897,0.73071
-0.057753,-0.0029178,-0.053793,0.00033225,0.27836,4.3267,3.934,0.85608,-0.66936,-2.5149,-1.2778,0.63435,0.20236,0.30232,0.16271,0.5475,-0.093852,-0.029644,-0.22857,-0.072093,0.14381,0.52029,0.031381,0.74279
-0.06528,0.00096355,-0.058651,0.0024118,0.2097,4.1283,3.7049,0.88808,-0.70046,-2.2181,-1.3271,0.61631,0.27183,0.47715,0.16391,0.52289,-0.10772,-0.044773,0.093603,-0.0015912,0.14982,0.57371,0.033225,0.75254
-0.065821,0.0068235,-0.059409,0.0051392,0.11651,3.8934,3.4699,0.90561,-0.72329,-1.9664,-1.3983,0.57279,0.27848,0.62601,0.14977,0.42172,-0.12401,-0.062301,0.30422,0.069979,0.14068,0.62009,0.042486,0.75014
-0.056232,0.011885,-0.054124,0.0073627,0.03008,3.6478,3.2438,0.9052,-0.73501,-1.7462,-1.5032,0.47394,0.18487,0.72339,0.11132,0.27369,-0.13922,-0.078474,0.41442,0.13448,0.10666,0.58298,0.049831,0.73072
-0.03801,0.014125,-0.044892,0.0084191,-0.019507,3.4003,3.0284,0.91577,-0.73225,-1.4593,-1.6479,0.32471,0.0087223,0.74992,0.051102,0.12386,-0.14907,-0.090929,0.4554,0.16581,0.045593,0.38382,0.046319,0.69797
-0.016165,0.013524,-0.035968,0.0084643,-0.01804,3.1592,2.8223,0.97248,-0.71526,-1.0069,-1.8235,0.16867,-0.17805,0.70817,-0.017096,0.0059213,-0.15278,-0.10019,0.45827,0.13625,-0.03403,-0.0072003,0.030054,0.66236
0.0039738,0.01153,-0.031062,0.0081492,0.02809,2.9404,2.624,1.089,-0.69063,-0.3909,-2.0021,0.060923,-0.29012,0.63216,-0.078451,-0.075533,-0.1545,-0.10886,0.44309,0.03881,-0.11605,-0.54482,0.0063109,0.63538
0.019583,0.0094367,-0.031607,0.0080284,0.098396,2.7577,2.4287,1.2502,-0.66981,0.24276,-2.1419,0.02926,-0.28183,0.57807,-0.12573,-0.13837,-0.16025,-0.11923,0.42398,-0.10237,-0.18425,-1.1188,-0.017657,0.62484
0.030862,0.0073694,-0.036542,0.0082631,0.16988,2.6051,2.2247,1.4281,-0.6646,0.66338,-2.2003,0.054063,-0.17546,0.5982,-0.15845,-0.19828,-0.17297,-0.13152,0.42158,-0.24237,-0.22892,-1.5882,-0.037231,0.63517
0.039272,0.0048405,-0.043106,0.0087862,0.22572,2.4507,1.9965,1.6023,-0.68246,0.68808,-2.1477,0.084155,-0.045336,0.71382,-0.17594,-0.24955,-0.18992,-0.14392,0.46788,-0.3398,-0.24739,-1.8193,-0.050192,0.6728
0.045315,0.0021548,-0.048041,0.0095543,0.25776,2.2533,1.7317,1.7667,-0.72496,0.30131,-1.9757,0.078122,0.029764,0.90364,-0.174,-0.26964,-0.20471,-0.15422,0.59654,-0.37863,-0.23924,-1.7173,-0.053206,0.75081
0.047775,0.00091627,-0.0489,0.010442,0.26502,1.991,1.4287,1.9188,-0.7892,-0.32282,-1.6975,0.039575,0.012773,1.1148,-0.14957,-0.24345,-0.21215,-0.16121,0.82503,-0.37357,-0.2016,-1.2525,-0.040503,0.88636
0.044943,0.0027465,-0.045175,0.01088,0.25248,1.6785,1.0995,2.0467,-0.86967,-0.91499,-1.3412,0.017829,-0.075734,1.2896,-0.10808,-0.18319,-0.21192,-0.16458,1.1415,-0.35657,-0.12999,-0.48204,-0.0080394,1.0886
0.036494,0.0073025,-0.038551,0.0098944,0.23084,1.3579,0.76638,2.131,-0.95826,-1.2597,-0.9405,0.071156,-0.17766,1.3919,-0.063936,-0.1233,-0.20784,-0.16394,1.5043,-0.35446,-0.024859,0.44525,0.039799,1.3437
0.024191,0.01176,-0.031791,0.0069513,0.2149,1.0691,0.45644,2.16,-1.0427,-1.3008,-0.52872,0.21881,-0.23582,1.4188,-0.031726,-0.093215,-0.2037,-0.15825,1.8523,-0.37218,0.10216,1.3186,0.087935,1.6084
0.010724,0.01277,-0.026703,0.0030459,0.21827,0.8233,0.19365,2.1458,-1.1067,-1.1394,-0.13364,0.41803,-0.2251,1.3908,-0.015587,-0.092697,-0.19929,-0.14662,2.1231,-0.39159,0.22903,1.9339,0.11711,1.8226
-0.002237,0.0094074,-0.022718,0.00075891,0.24676,0.60128,-0.0087353,2.1217,-1.1336,-0.94224,0.22562,0.5846,-0.16009,1.328,-0.0068565,-0.09315,-0.19012,-0.12967,2.2719,-0.3845,0.33246,2.1757,0.11578,1.9361
-0.014911,0.0043079,-0.017441,0.0026418,0.29537,0.3751,-0.15403,2.1216,-1.1132,-0.83256,0.54068,0.64354,-0.079548,1.2298,0.0073747,-0.064562,-0.17113,-0.10974,2.2907,-0.32908,0.39973,2.0682,0.088332,1.9367
-0.028392,0.0015756,-0.0089308,0.0089343,0.35215,0.13465,-0.26259,2.1549,-1.0479,-0.83907,0.8123,0.57395,-0.02087,1.0747,0.032563,-0.00393,-0.14108,-0.089489,2.2148,-0.21779,0.43425,1.7575,0.05232,1.8571
-0.04281,0.0031005,0.0021442,0.016691,0.4061,-0.10457,-0.36494,2.1992,-0.95292,-0.91827,1.0438,0.41739,-0.00034892,0.84131,0.062389,0.060646,-0.10383,-0.069777,2.1118,-0.052741,0.45059,1.4281,0.026217,1.755
-0.056564,0.0066769,0.012438,0.021522,0.45309,-0.31786,-0.48977,2.2145,-0.84892,-1.0104,1.2333,0.2463,-0.0095602,0.53338,0.085121,0.093789,-0.065322,-0.048932,2.0486,0.1644,0.46213,1.2028,0.017315,1.6765
-0.067501,0.0078737,0.018121,0.020844,0.4956,-0.49619,-0.6529,2.1692,-0.75123,-1.0754,1.3705,0.11785,-0.027697,0.18787,0.094074,0.083058,-0.028819,-0.024242,2.056,0.43586,0.47069,1.0853,0.019328,1.6278
-0.074863,0.0041251,0.01755,0.015888,0.53822,-0.65626,-0.85338,2.0583,-0.66106,-1.0903,1.4431,0.0454,-0.039967,-0.14258,0.09248,0.049041,0.0072084,0.0054762,2.1142,0.75891,0.4653,0.98133,0.020817,1.5752
-0.079986,-0.0027171,0.012256,0.010611,0.58367,-0.82639,-1.0779,1.9017,-0.56466,-1.031,1.4479,0.0023308,-0.048411,-0.41662,0.089196,0.027679,0.046606,0.03836,2.1725,1.1113,0.43042,0.77554,0.016041,1.473
-0.084898,-0.0078452,0.0056814,0.0083203,0.63257,-1.0207,-1.3098,1.7281,-0.44191,-0.87198,1.3958,-0.052263,-0.066948,-0.61542,0.090487,0.041719,0.09038,0.070225,2.1916,1.4449,0.3568,0.41041,0.0081664,1.2981
-0.090182,-0.0077419,0.00095784,0.0089945,0.68488,-1.2256,-1.5364,1.5566,-0.27993,-0.61266,1.3051,-0.14829,-0.10466,-0.72857,0.096071,0.086062,0.13337,0.096694,2.1754,1.6971,0.24683,-0.086524,0.0023925,1.066
-0.094335,-0.0033498,-0.00042635,0.0096454,0.73892,-1.4133,-1.7527,1.3904,-0.084359,-0.30126,1.1882,-0.29428,-0.15144,-0.73313,0.10247,0.13737,0.16582,0.11478,2.1682,1.8142,0.11158,-0.63587,-0.003648,0.81917
-0.095434,0.00072946,0.0015544,0.0072817,0.78734,-1.5709,-1.9607,1.2226,0.11876,-0.026404,1.045,-0.48001,-0.1794,-0.59604,0.10911,0.17637,0.17886,0.12278,2.2184,1.7723,-0.036785,-1.1662,-0.022366,0.59903
-0.093558,0.00023603,0.0063429,0.0017089,0.81427,-1.7203,-2.1673,1.0476,0.29241,0.12859,0.87133,-0.68218,-0.16112,-0.31026,0.12004,0.20203,0.16962,0.11921,2.3383,1.5824,-0.19048,-1.6523,-0.068583,0.42565
-0.091459,-0.0052025,0.013239,-0.0042856,0.7993,-1.9094,-2.382,0.86905,0.40526,0.13745,0.67556,-0.86769,-0.091011,0.061537,0.13898,0.22725,0.14217,0.10253,2.4905,1.2791,-0.34608,-2.1074,-0.14816,0.29577
-0.092551,-0.012072,0.021187,-0.0072822,0.72839,-2.1762,-2.6132,0.69988,0.44636,0.04843,0.48727,-0.9973,0.0079685,0.38025,0.16261,0.26357,0.10407,0.07242,2.6103,0.90469,-0.50058,-2.5408,-0.25205,0.19476
-0.097837,-0.016256,0.028636,-0.0058135,0.6053,-2.5149,-2.8632,0.55503,0.42931,-0.04774,0.34621,-1.0337,0.099692,0.48383,0.17904,0.31106,0.061704,0.031786,2.6441,0.49918,-0.64796,-2.9164,-0.35903,0.1072
-0.10456,-0.016437,0.034098,-0.0010224,0.45473,-2.8696,-3.1241,0.44251,0.38278,-0.076246,0.27849,-0.95242,0.16161,0.27578,0.17435,0.36164,0.018074,-0.012764,2.5764,0.096993,-0.77882,-3.1407,-0.44295,0.018143
-0.10797,-0.014624,0.037038,0.0046954,0.31344,-3.1615,-3.3765,0.35705,0.33299,-0.020252,0.27959,-0.74987,0.20212,-0.2105,0.14226,0.40954,-0.025966,-0.052993,2.4287,-0.27533,-0.88229,-3.0861,-0.47871,-0.090016
-0.10481,-0.01371,0.038156,0.0093936,0.21457,-3.3304,-3.5943,0.27958,0.28974,0.081767,0.31949,-0.44412,0.25379,-0.81985,0.089393,0.45611,-0.068983,-0.082684,2.236,-0.60446,-0.9477,-2.6387,-0.4466,-0.2345
-0.095693,-0.014616,0.038575,0.012143,0.17507,-3.3597,-3.755,0.18374,0.24572,0.17641,0.36554,-0.071544,0.34616,-1.3535,0.031992,0.50355,-0.10761,-0.10033,2.0231,-0.8929,-0.96578,-1.7514,-0.33922,-0.421
-0.084558,-0.015672,0.038705,0.012584,0.19362,-3.2692,-3.8498,0.047716,0.1901,0.239,0.40301,0.31827,0.47845,-1.665,-0.012807,0.54478,-0.13763,-0.10889,1.7934,-1.1502,-0.93046,-0.48497,-0.17159,-0.63443
-0.075684,-0.014527,0.037998,0.010638,0.2581,-3.0863,-3.8886,-0.13407,0.12611,0.28733,0.43567,0.67058,0.61386,-1.7113,-0.03431,0.56172,-0.15619,-0.11274,1.5358,-1.3738,-0.84215,0.97458,0.013518,-0.84336
-0.07089,-0.010522,0.036038,0.0069826,0.35538,-2.8232,-3.8949,-0.34618,0.07802,0.35926,0.46855,0.93991,0.70114,-1.5362,-0.029758,0.5364,-0.16318,-0.11439,1.2372,-1.5334,-0.71049,2.3399,0.15624,-1.0173
-0.069024,-0.005339,0.033914,0.0035072,0.47607,-2.4777,-3.893,-0.55849,0.079481,0.47662,0.49185,1.1076,0.70832,-1.2154,-0.0015093,0.46609,-0.1609,-0.11333,0.89389,-1.5762,-0.55314,3.295,0.20815,-1.1419
-0.067792,-0.0015769,0.034259,0.0026029,0.61264,-2.0566,-3.894,-0.7405,0.14988,0.62619,0.48357,1.1909,0.64297,-0.81463,0.044997,0.36878,-0.15264,-0.10776,0.51511,-1.4563,-0.38997,3.6064,0.16305,-1.2166
-0.066017,-0.00082222,0.039399,0.0053482,0.75503,-1.5963,-3.8878,-0.87409,0.27623,0.77077,0.42919,1.2313,0.54323,-0.39042,0.099752,0.27312,-0.14162,-0.097512,0.1212,-1.1685,-0.23657,3.2296,0.066074,-1.2372
-0.064305,-0.0029241,0.048904,0.010178,0.88921,-1.1597,-3.8487,-0.95606,0.41623,0.87776,0.33896,1.2663,0.44546,-0.015537,0.14595,0.20052,-0.13048,-0.085376,-0.26064,-0.76181,-0.10213,2.3507,-0.011507,-1.1822
-0.06376,-0.0067177,0.058827,0.013632,1.0004,-0.80559,-3.7493,-0.98971,0.5228,0.93969,0.24468,1.3032,0.35257,0.21555,0.16263,0.15403,-0.12109,-0.07543,-0.60163,-0.31984,0.0067387,1.3194,-0.018184,-1.0247
-0.064272,-0.011055,0.063765,0.012976,1.0781,-0.55434,-3.5771,-0.9745,0.57321,0.97188,0.17687,1.3165,0.22766,0.22518,0.13411,0.12226,-0.11383,-0.069667,-0.87764,0.079893,0.081057,0.49087,0.044133,-0.76533
-0.064239,-0.015057,0.060572,0.0085183,1.118,-0.37644,-3.3417,-0.90458,0.58142,0.99319,0.14197,1.2729,0.019988,0.01309,0.061298,0.093004,-0.10681,-0.065762,-1.0756,0.39841,0.11009,0.058504,0.12519,-0.45836
-0.062036,-0.017682,0.05089,0.0034401,1.1206,-0.21623,-3.0695,-0.7784,0.5845,1.0094,0.1195,1.1624,-0.29178,-0.31352,-0.034514,0.063196,-0.096084,-0.058105,-1.1983,0.63892,0.08942,-0.019721,0.16721,-0.1992
-0.057731,-0.017601,0.040277,0.0010677,1.0877,-0.033549,-2.7879,-0.60982,0.61374,1.013,0.080703,1.0107,-0.66626,-0.57693,-0.12001,0.036616,-0.077498,-0.041659,-1.2642,0.82414,0.03073,0.047448,0.14933,-0.073109
-0.053213,-0.013946,0.034251,0.0019829,1.0208,0.16821,-2.5108,-0.42811,0.67196,0.99611,0.010831,0.8629,-0.99789,-0.61747,-0.16647,0.013597,-0.049523,-0.015808,-1.3003,0.96878,-0.035859,0.047043,0.10053,-0.099881
-0.050431,-0.0073548,0.034139,0.0036552,0.92345,0.34962,-2.2333,-0.26306,0.73232,0.96217,-0.084963,0.75273,-1.1519,-0.37564,-0.16347,-0.014515,-0.015123,0.014705,-1.3289,1.0687,-0.071282,-0.097707,0.072245,-0.21976
-0.049379,-0.00016651,0.035966,0.0030202,0.80416,0.47154,-1.9414,-0.12674,0.75673,0.92469,-0.19592,0.68432,-1.0203,0.087143,-0.12066,-0.057716,0.019019,0.042459,-1.3544,1.1106,-0.044419,-0.30559,0.09522,-0.33536
-0.047879,0.0047386,0.033462,-0.00039825,0.67646,0.53096,-1.6293,-0.0084323,0.71929,0.89648,-0.32431,0.63832,-0.57306,0.63654,-0.057386,-0.11169,0.045816,0.061607,-1.3581,1.0886,0.053811,-0.43661,0.1571,-0.37789
-0.043535,0.0056981,0.023066,-0.0038742,0.55464,0.56749,-1.3121,0.11065,0.62022,0.8806,-0.48836,0.59358,0.11983,1.1401,0.010929,-0.14951,0.061521,0.070695,-1.3087,1.0122,0.20712,-0.42138,0.21721,-0.34561
-0.036151,0.0032775,0.0071327,-0.0041236,0.44726,0.63533,-1.0238,0.23483,0.48593,0.87175,-0.70449,0.54339,0.90605,1.5157,0.079429,-0.13241,0.067369,0.072435,-1.1825,0.89955,0.3817,-0.31475,0.24254,-0.28648
-0.028338,-0.00022685,-0.0072343,-0.00077387,0.35348,0.76258,-0.80024,0.34455,0.35914,0.86535,-0.96385,0.49411,1.6007,1.7345,0.15,-0.035877,0.068146,0.071254,-0.98286,0.76724,0.53911,-0.23909,0.23241,-0.24529
