-1.8425e-009,6.2702e-010,1.3563e-009,8.161e-010,3.2663e-009,8.7012e-010,2.4502e-010,1.2405e-009,-1.7943e-010,1.6264e-009,1.5454e-009,9.5501e-010,-1.4875e-009,5.4214e-010,1.447e-010,1.1711e-009,2.1396e-009,2.6181e-009,-9.2028e-010,1.1335e-008,1.1383e-010,-1.725e-008,1.2714e-009,8.5526e-009
-5.1015e-008,1.7057e-008,3.7673e-008,2.227e-008,8.9878e-008,2.396e-008,6.8982e-009,3.4096e-008,-4.6534e-009,4.472e-008,4.2454e-008,2.5777e-008,-4.0819e-008,1.458e-008,4.3034e-009,3.2346e-008,5.8515e-008,7.2189e-008,-2.5083e-008,3.105e-007,2.2349e-009,-4.766e-007,3.5408e-008,2.372e-007
-6.864e-007,2.253e-007,5.0852e-007,2.9528e-007,1.2019e-006,3.2058e-007,9.4632e-008,4.5559e-007,-5.8016e-008,5.9759e-007,5.6669e-007,3.3712e-007,-5.437e-007,1.903e-007,6.206e-008,4.3422e-007,7.7728e-007,9.6704e-007,-3.3186e-007,4.1297e-006,1.5937e-008,-6.4019e-006,4.7986e-007,3.1991e-006
-5.9786e-006,1.925e-006,4.444e-006,2.5344e-006,1.0407e-005,2.7766e-006,8.4311e-007,3.9432e-006,-4.6182e-007,5.1704e-006,4.8963e-006,2.8443e-006,-4.6815e-006,1.6057e-006,5.7831e-007,3.7745e-006,6.6798e-006,8.3837e-006,-2.8375e-006,3.5518e-005,-2.8386e-009,-5.5699e-005,4.2175e-006,2.7953e-005
-3.7885e-005,1.1957e-005,2.826e-005,1.5826e-005,6.5567e-005,1.7497e-005,5.4851e-006,2.4846e-005,-2.6261e-006,3.2551e-005,3.0773e-005,1.7384e-005,-2.9274e-005,9.8428e-006,3.9142e-006,2.3879e-005,4.173e-005,5.2857e-005,-1.7605e-005,0.00022195,-1.0572e-006,-0.00035279,2.7028e-005,0.00017787
-0.00018606,5.753e-005,0.00013932,7.6611e-005,0.00032028,8.5465e-005,2.7772e-005,0.00012143,-1.1286e-005,0.00015887,0.00014988,8.192e-005,-0.00014155,4.669e-005,2.0504e-005,0.00011714,0.00020183,0.00025814,-8.4319e-005,0.0010731,-1.1149e-005,-0.0017332,0.00013463,0.00087816
-0.00073657,0.000223,0.00055384,0.00029903,0.0012616,0.00033658,0.00011387,0.00047881,-3.7687e-005,0.00062518,0.00058826,0.0003091,-0.00055005,0.00017823,8.6477e-005,0.00046357,0.00078577,0.0010155,-0.00032356,0.0041734,-7.1947e-005,-0.0068707,0.00054253,0.0034997
-0.0024128,0.00071507,0.001823,0.00096634,0.0041149,0.0010972,0.00038828,0.0015641,-9.8201e-005,0.0020365,0.0019102,0.00095686,-0.0017616,0.000562,0.00030151,0.0015196,0.0025264,0.0033025,-0.0010177,0.013393,-0.00034458,-0.022565,0.0018176,0.01156
-0.0066592,0.001932,0.005061,0.0026334,0.011317,0.0030156,0.0011216,0.0043108,-0.00019358,0.0055925,0.0052256,0.0024675,-0.0047275,0.0014905,0.00088514,0.0042034,0.0068253,0.0090369,-0.0026561,0.036078,-0.0013165,-0.062538,0.0051625,0.032243
-0.01568,0.0044559,0.012005,0.0061301,0.026585,0.0070776,0.0027805,0.010154,-0.00025061,0.013112,0.012197,0.0053447,-0.010738,0.0033663,0.0022163,0.0099419,0.015669,0.021055,-0.0057654,0.082479,-0.0041698,-0.14818,0.012613,0.07694
-0.031752,0.0088519,0.024548,0.012297,0.053795,0.014307,0.0059657,0.020618,-3.1207e-005,0.026465,0.024499,0.0097357,-0.020724,0.0065279,0.004774,0.020293,0.030754,0.042067,-0.010277,0.16092,-0.011213,-0.30285,0.026799,0.1585
-0.055517,0.015234,0.043516,0.021373,0.094222,0.025034,0.011131,0.036266,0.00092713,0.046195,0.04256,0.014797,-0.033882,0.010916,0.0088894,0.035967,0.051637,0.072247,-0.014383,0.26792,-0.026029,-0.53679,0.049934,0.28346
-0.083778,0.022781,0.067041,0.032253,0.14301,0.037977,0.01808,0.055319,0.0032226,0.069774,0.064069,0.018329,-0.046228,0.015746,0.014322,0.055545,0.073678,0.10632,-0.013412,0.37743,-0.05278,-0.82709,0.082124,0.44119
-0.10841,0.029624,0.089717,0.042218,0.1875,0.049843,0.025471,0.072937,0.0072789,0.09079,0.083491,0.017394,-0.050549,0.019493,0.01989,0.074849,0.087616,0.13251,8.2975e-006,0.43935,-0.094331,-1.107,0.11981,0.5971
-0.11826,0.033477,0.10392,0.047734,0.21041,0.05622,0.030813,0.082318,0.012928,0.10056,0.093841,0.010224,-0.039026,0.020403,0.023536,0.088018,0.082614,0.13592,0.033165,0.39646,-0.14967,-1.2821,0.15566,0.69934
-0.10442,0.032909,0.10357,0.046302,0.19838,0.053837,0.031313,0.077892,0.019223,0.092318,0.090596,-0.0015379,-0.0081855,0.017363,0.023111,0.09041,0.052521,0.10658,0.087789,0.2179,-0.21207,-1.2782,0.18073,0.70218
-0.066174,0.028465,0.088376,0.038343,0.15136,0.042963,0.025431,0.059068,0.024806,0.06596,0.07543,-0.012233,0.036757,0.010518,0.017628,0.081736,0.0018639,0.047842,0.15431,-0.070114,-0.26995,-1.0957,0.18818,0.59564
-0.013326,0.022653,0.065407,0.027592,0.085885,0.028035,0.01421,0.031804,0.028769,0.029747,0.056505,-0.014771,0.082122,0.0010983,0.0082157,0.066832,-0.053531,-0.021447,0.21019,-0.3828,-0.31084,-0.83172,0.17639,0.42058
0.037924,0.018476,0.045724,0.019255,0.027405,0.015385,0.0012252,0.006075,0.031398,-0.003113,0.043903,-0.0055336,0.11217,-0.0095051,-0.0020803,0.052698,-0.093762,-0.075115,0.22583,-0.61594,-0.32694,-0.63613,0.14952,0.25252
0.07369,0.017424,0.037705,0.016895,-0.0049638,0.0092126,-0.0092547,-0.0097417,0.034023,-0.021565,0.042736,0.011909,0.11847,-0.020614,-0.0097776,0.043405,-0.10641,-0.094691,0.17757,-0.7056,-0.31884,-0.61921,0.1151,0.15889
0.089607,0.018478,0.041654,0.020261,-0.010696,0.0087457,-0.014793,-0.013748,0.037772,-0.02274,0.049213,0.027948,0.10545,-0.032277,-0.012881,0.036909,-0.094285,-0.081073,0.061918,-0.66645,-0.29475,-0.76976,0.080782,0.15733
0.091085,0.019042,0.050025,0.025753,-0.0073271,0.009106,-0.016057,-0.010776,0.042039,-0.012581,0.053353,0.033169,0.087403,-0.044442,-0.011937,0.026864,-0.072938,-0.053478,-0.097134,-0.57705,-0.26581,-0.94868,0.052585,0.20625
0.086659,0.017124,0.053326,0.029182,-0.016675,0.0055412,-0.015665,-0.0075344,0.044053,-0.00083795,0.046791,0.025302,0.078393,-0.056252,-0.0094892,0.0084562,-0.058978,-0.035421,-0.25343,-0.52103,-0.24064,-0.97169,0.035205,0.23693
0.080323,0.012927,0.047059,0.028602,-0.048287,-0.0023419,-0.015492,-0.0065143,0.040298,0.0054034,0.029484,0.011044,0.08277,-0.066382,-0.0083613,-0.016572,-0.058247,-0.038051,-0.3556,-0.52937,-0.2228,-0.72674,0.03236,0.20351
0.069506,0.0084865,0.034183,0.025084,-0.093271,-0.010041,-0.014882,-0.0039126,0.029075,0.0046003,0.0096546,0.00067802,0.093789,-0.074105,-0.0099463,-0.040297,-0.063252,-0.053758,-0.36834,-0.56828,-0.21185,-0.24162,0.04511,0.11252
0.050043,0.005744,0.021494,0.021186,-0.13295,-0.012021,-0.011501,0.006332,0.012298,-0.0014894,-0.0030992,-0.00038247,0.101,-0.079658,-0.013497,-0.054346,-0.061612,-0.064695,-0.28817,-0.57787,-0.20573,0.3448,0.06866,0.0099085
0.022967,0.0048498,0.013535,0.01877,-0.15428,-0.0067628,-0.0041249,0.025646,-0.0050642,-0.012187,-0.0056327,0.0039988,0.099662,-0.08291,-0.016605,-0.056016,-0.047769,-0.058398,-0.14611,-0.52414,-0.20159,0.87953,0.091249,-0.061959
-0.0037007,0.004251,0.0094509,0.018035,-0.15851,0.0014664,0.0053385,0.047205,-0.017814,-0.029942,-0.0033374,0.0041854,0.09393,-0.081307,-0.016419,-0.049442,-0.027603,-0.03723,0.004423,-0.41925,-0.19502,1.2832,0.098436,-0.10059
-0.020227,0.0023753,0.0050219,0.018134,-0.15663,0.0058831,0.012691,0.059324,-0.023649,-0.058189,-0.004908,-0.0068277,0.091556,-0.06966,-0.010984,-0.041106,-0.012325,-0.014441,0.10992,-0.29881,-0.18004,1.5674,0.081728,-0.14365
-0.022876,-0.00080109,-0.002701,0.01826,-0.15712,0.0028266,0.014589,0.053716,-0.024295,-0.097188,-0.014659,-0.027366,0.095539,-0.04342,-0.00027125,-0.034256,-0.0078412,-0.0017,0.13934,-0.18481,-0.15203,1.7848,0.045536,-0.23451
-0.017081,-0.0038389,-0.012748,0.017994,-0.15813,-0.005068,0.011178,0.032088,-0.023868,-0.14166,-0.029174,-0.048384,0.10055,-0.0038178,0.013547,-0.027494,-0.0095874,0.00019432,0.096133,-0.071699,-0.11219,1.9684,0.0059736,-0.38238
-0.013136,-0.0054126,-0.021676,0.016919,-0.15098,-0.010933,0.0058376,0.005515,-0.025811,-0.18228,-0.040897,-0.060536,0.09706,0.039451,0.026874,-0.018357,-0.0072577,-0.00018686,0.013072,0.055211,-0.069148,2.1143,-0.019262,-0.54889
-0.018094,-0.0056973,-0.027091,0.014393,-0.13063,-0.0092366,0.0023376,-0.013199,-0.030729,-0.20975,-0.045007,-0.060658,0.079027,0.071431,0.03641,-0.0077175,0.005479,0.0056428,-0.068193,0.19448,-0.034532,2.2133,-0.023079,-0.67012
-0.030704,-0.0060896,-0.029541,0.010058,-0.10249,-0.00018616,0.0020123,-0.01829,-0.036462,-0.21837,-0.043285,-0.05244,0.048107,0.079901,0.04096,-0.00025503,0.025436,0.018277,-0.12132,0.326,-0.014447,2.2876,-0.013699,-0.69506
-0.043324,-0.0075388,-0.031199,0.0045643,-0.078959,0.010575,0.0033355,-0.01416,-0.03983,-0.20697,-0.041815,-0.041729,0.011478,0.062642,0.042038,-0.00052519,0.043237,0.03107,-0.14861,0.43337,-0.003697,2.3877,-0.0077804,-0.61177
-0.048674,-0.0092799,-0.033209,-0.00057777,-0.069195,0.016458,0.0039095,-0.010733,-0.038392,-0.17739,-0.045086,-0.031424,-0.023796,0.028374,0.042652,-0.0086537,0.051775,0.03736,-0.17467,0.52445,0.011466,2.5461,-0.017294,-0.44606
-0.045478,-0.0094536,-0.034724,-0.0042503,-0.071824,0.014743,0.0027412,-0.015166,-0.031086,-0.13268,-0.052074,-0.020568,-0.054333,-0.0093343,0.044952,-0.019935,0.051759,0.036581,-0.22453,0.6246,0.042801,2.7347,-0.040795,-0.24047
-0.038619,-0.0071795,-0.034609,-0.0070504,-0.077013,0.0079454,0.00074701,-0.026679,-0.018019,-0.076527,-0.05764,-0.007709,-0.079455,-0.040182,0.048517,-0.028558,0.049771,0.033711,-0.30127,0.74695,0.089696,2.8722,-0.066034,-0.034351
-0.034427,-0.004019,-0.033733,-0.011228,-0.075478,0.0011846,-0.00062052,-0.038239,-0.00031537,-0.014038,-0.057567,0.0053726,-0.097984,-0.060904,0.050678,-0.03169,0.051503,0.033642,-0.37926,0.87056,0.13795,2.8848,-0.081207,0.1413
-0.035632,-0.0031298,-0.0351,-0.018917,-0.065924,-0.0018255,-0.00094753,-0.042998,0.019669,0.047726,-0.052398,0.013488,-0.10695,-0.072629,0.048718,-0.030197,0.056879,0.036594,-0.41858,0.95172,0.16983,2.7704,-0.08503,0.25809
-0.040056,-0.0065716,-0.041277,-0.029987,-0.054607,-0.00086138,-0.0010351,-0.039792,0.038485,0.10108,-0.046674,0.011747,-0.10388,-0.075656,0.042216,-0.026041,0.061141,0.038795,-0.39105,0.96135,0.17814,2.6054,-0.087429,0.28836
-0.043386,-0.013134,-0.051548,-0.041441,-0.048338,0.0017855,-0.0017035,-0.033422,0.052787,0.14069,-0.044579,-0.00011052,-0.090292,-0.06741,0.033663,-0.019716,0.059995,0.036896,-0.29947,0.91427,0.17298,2.4801,-0.10106,0.21625
-0.042957,-0.018816,-0.061744,-0.049071,-0.047969,0.0038316,-0.0026655,-0.030237,0.061094,0.16611,-0.046169,-0.016521,-0.072913,-0.045553,0.026833,-0.010666,0.053443,0.031261,-0.17628,0.86269,0.17535,2.416,-0.13143,0.05416
-0.039243,-0.019778,-0.067245,-0.050166,-0.048231,0.0046775,-0.002717,-0.033222,0.064562,0.18135,-0.047554,-0.029127,-0.060952,-0.012697,0.024239,-9.606e-007,0.045039,0.025163,-0.062862,0.85874,0.20215,2.3377,-0.17369,-0.15344
-0.034422,-0.015327,-0.066611,-0.045124,-0.043462,0.0051383,-0.001027,-0.040485,0.065689,0.19141,-0.044648,-0.031765,-0.061427,0.022717,0.025585,0.007873,0.038101,0.021427,0.015849,0.91866,0.2537,2.1309,-0.21729,-0.34951
-0.030019,-0.0083802,-0.062598,-0.03679,-0.03344,0.0060445,0.0018644,-0.047554,0.06577,0.19803,-0.03693,-0.023839,-0.0759,0.05112,0.028259,0.0071757,0.033081,0.020285,0.063624,1.0174,0.31297,1.7408,-0.25335,-0.49655
-0.025921,-0.0030588,-0.059677,-0.028308,-0.023889,0.007273,0.0044301,-0.050796,0.06334,0.19865,-0.027888,-0.0098942,-0.10066,0.068274,0.02922,-0.0049722,0.02843,0.020274,0.10496,1.113,0.3563,1.2251,-0.27827,-0.59589
-0.02126,-0.0015746,-0.060298,-0.021369,-0.02139,0.0079623,0.0056084,-0.049159,0.055245,0.18941,-0.021951,0.0039335,-0.12974,0.077673,0.026809,-0.025702,0.023364,0.020509,0.16446,1.1761,0.36725,0.71469,-0.29217,-0.67523
-0.015777,-0.0030489,-0.063145,-0.016081,-0.027464,0.007398,0.0059296,-0.043641,0.039596,0.16996,-0.020812,0.013893,-0.15825,0.086555,0.02142,-0.047662,0.019125,0.021454,0.24903,1.1988,0.34426,0.31372,-0.29566,-0.75252
-0.010151,-0.0050171,-0.064681,-0.012021,-0.037068,0.0055868,0.0072032,-0.035932,0.018009,0.14553,-0.022331,0.020275,-0.18418,0.098961,0.015074,-0.063463,0.017317,0.023419,0.34398,1.1834,0.29855,0.027483,-0.28912,-0.80808
-0.0051494,-0.005907,-0.062345,-0.0090562,-0.042594,0.003095,0.010983,-0.027686,-0.0048993,0.12399,-0.022736,0.025922,-0.20795,0.11194,0.010473,-0.069726,0.017248,0.024788,0.42268,1.128,0.24598,-0.21982,-0.27456,-0.79381
-0.00071526,-0.0060845,-0.056539,-0.0071356,-0.039658,0.00050482,0.017134,-0.020473,-0.024359,0.11023,-0.019958,0.03312,-0.23087,0.11819,0.0098974,-0.067878,0.015334,0.02239,0.46026,1.0258,0.19905,-0.49779,-0.2567,-0.67751
0.0039813,-0.0066977,-0.049941,-0.0056208,-0.02978,-0.0019342,0.023731,-0.015561,-0.03815,0.10264,-0.015164,0.041521,-0.25376,0.11283,0.013969,-0.061838,0.0074766,0.013946,0.44267,0.8755,0.16342,-0.79721,-0.24077,-0.48499
0.0096193,-0.007825,-0.045173,-0.003331,-0.01814,-0.0042639,0.028391,-0.013249,-0.047018,0.09471,-0.011365,0.048785,-0.2762,0.09837,0.020643,-0.055088,-0.0077584,0.00013482,0.3685,0.68847,0.13899,-1.0427,-0.22824,-0.29807
0.015885,-0.0080546,-0.043087,0.00032795,-0.008984,-0.006595,0.029971,-0.012449,-0.052873,0.080358,-0.010553,0.053225,-0.29601,0.083733,0.025392,-0.04938,-0.028102,-0.016016,0.24669,0.48267,0.12335,-1.1803,-0.21473,-0.20016
0.021468,-0.0060252,-0.042956,0.004157,-0.0028673,-0.0089513,0.029312,-0.01134,-0.056798,0.058423,-0.011947,0.055917,-0.30883,0.078134,0.023324,-0.045261,-0.049441,-0.031895,0.093466,0.26946,0.11575,-1.2579,-0.19261,-0.20849
0.024798,-0.0022883,-0.043873,0.0053265,0.0023078,-0.011236,0.028485,-0.0087874,-0.058714,0.0328,-0.012798,0.060146,-0.30823,0.084845,0.012495,-0.043,-0.068612,-0.047366,-0.071282,0.048427,0.11988,-1.4169,-0.15633,-0.25009
0.024826,0.00061599,-0.045627,0.0012659,0.0082075,-0.01328,0.029157,-0.0052501,-0.058594,0.0088435,-0.010878,0.06847,-0.28732,0.099571,-0.0039407,-0.042713,-0.084608,-0.063871,-0.22873,-0.1827,0.14423,-1.7941,-0.10624,-0.2081
0.021366,0.00021963,-0.048186,-0.0080515,0.014217,-0.014973,0.031344,-0.002281,-0.057553,-0.010338,-0.006408,0.080063,-0.24204,0.11419,-0.018908,-0.043798,-0.097656,-0.081475,-0.36568,-0.41222,0.19864,-2.4093,-0.048061,-0.0072148
0.01503,-0.003558,-0.050587,-0.01942,0.018332,-0.016467,0.033495,-0.001131,-0.057366,-0.024604,-0.0017927,0.090956,-0.17452,0.12233,-0.025784,-0.044753,-0.10775,-0.097157,-0.47574,-0.60943,0.288,-3.134,0.010289,0.32759
0.0070675,-0.0081555,-0.050823,-0.028169,0.019328,-0.018237,0.033802,-0.001858,-0.058734,-0.034729,0.00048493,0.097276,-0.093982,0.12252,-0.023028,-0.044049,-0.1144,-0.10658,-0.55575,-0.73845,0.40656,-3.7667,0.061087,0.68645
-0.00076402,-0.010594,-0.04728,-0.031202,0.017706,-0.02079,0.031655,-0.003689,-0.060073,-0.040424,-0.00012173,0.098727,-0.013927,0.11705,-0.015464,-0.041545,-0.11747,-0.10795,-0.60104,-0.78213,0.53752,-4.1553,0.096819,0.95232
-0.0064197,-0.010189,-0.04051,-0.02896,0.014628,-0.024118,0.028063,-0.0059177,-0.058248,-0.040768,-0.0020228,0.099118,0.053336,0.10854,-0.010951,-0.039088,-0.11771,-0.1041,-0.60444,-0.75765,0.65955,-4.2744,0.11004,1.0798
-0.007967,-0.0091817,-0.033465,-0.024825,0.0105,-0.027414,0.024751,-0.0080527,-0.050907,-0.036528,-0.0031232,0.10323,0.10129,0.097412,-0.014835,-0.03931,-0.1158,-0.10022,-0.5611,-0.71088,0.75641,-4.2069,0.096191,1.1152
-0.0040579,-0.010607,-0.029552,-0.022538,0.0051884,-0.029499,0.022765,-0.0089968,-0.038507,-0.031477,-0.0027041,0.11258,0.13023,0.082048,-0.026382,-0.043124,-0.1109,-0.099012,-0.47494,-0.69255,0.82238,-4.057,0.05924,1.148
0.005717,-0.015269,-0.029991,-0.023809,-0.00020432,-0.029772,0.02183,-0.0065168,-0.024288,-0.030584,-0.0019127,0.12371,0.14465,0.060895,-0.039872,-0.047822,-0.10068,-0.097991,-0.36035,-0.73204,0.8592,-3.8682,0.015371,1.2365
0.02066,-0.020563,-0.032794,-0.027869,-0.0022081,-0.0288,0.02095,0.0016909,-0.012121,-0.03601,-0.0026198,0.13041,0.14974,0.034256,-0.049241,-0.047797,-0.083444,-0.091845,-0.23648,-0.82569,0.86735,-3.605,-0.010461,1.3683
0.039002,-0.022246,-0.034389,-0.032938,0.0035437,-0.02786,0.019576,0.015761,-0.0039679,-0.044488,-0.0058393,0.12806,0.14965,0.0044311,-0.052396,-0.038082,-0.060832,-0.078039,-0.11748,-0.9454,0.84044,-3.1979,0.0041414,1.4782
0.05829,-0.017659,-0.032557,-0.037966,0.018905,-0.027712,0.018151,0.032365,0.0010406,-0.049055,-0.011059,0.11642,0.14809,-0.025554,-0.051855,-0.018378,-0.038172,-0.060356,-0.0059091,-1.0593,0.7696,-2.6098,0.065679,1.5026
0.076322,-0.0077123,-0.028175,-0.043114,0.040861,-0.027795,0.017547,0.046077,0.0052904,-0.044471,-0.016785,0.098722,0.14908,-0.053384,-0.051603,0.0057805,-0.021597,-0.046631,0.10626,-1.1494,0.65543,-1.8775,0.15819,1.4205
0.092336,0.0038815,-0.024309,-0.048808,0.062738,-0.026822,0.01803,0.052736,0.010344,-0.032126,-0.02155,0.078201,0.15616,-0.078074,-0.05328,0.026262,-0.013869,-0.042272,0.22954,-1.2146,0.51658,-1.1094,0.24876,1.2547
0.10753,0.013246,-0.023498,-0.054512,0.078442,-0.024407,0.018874,0.052037,0.015549,-0.020032,-0.024568,0.055318,0.17021,-0.099686,-0.055066,0.037792,-0.012452,-0.045286,0.36715,-1.2622,0.38475,-0.45181,0.30299,1.0407
0.124,0.018597,-0.02556,-0.058454,0.086351,-0.022184,0.018975,0.04711,0.018687,-0.017305,-0.025863,0.028246,0.18838,-0.11851,-0.05404,0.041211,-0.011618,-0.047448,0.50951,-1.2948,0.28672,-0.041207,0.30159,0.79618
0.14242,0.020511,-0.027647,-0.05847,0.089661,-0.022984,0.017729,0.041542,0.018009,-0.027235,-0.026162,-0.0037973,0.20591,-0.1341,-0.049551,0.041641,-0.0068669,-0.040816,0.63663,-1.3073,0.22613,0.039742,0.24865,0.51707
0.16021,0.020526,-0.026343,-0.053252,0.092995,-0.028358,0.01516,0.036594,0.01391,-0.044565,-0.026676,-0.03747,0.21967,-0.14449,-0.044377,0.043165,0.0021223,-0.024059,0.727,-1.2911,0.18027,-0.20657,0.16701,0.19641
0.17229,0.019661,-0.02008,-0.043126,0.098323,-0.03646,0.011219,0.03098,0.0088316,-0.059331,-0.028553,-0.065588,0.23027,-0.14623,-0.042561,0.044927,0.012431,-0.0032284,0.76798,-1.2402,0.11622,-0.68612,0.083927,-0.15551
0.17446,0.018129,-0.010145,-0.030043,0.10363,-0.042465,0.0052249,0.02303,0.0055206,-0.064243,-0.032019,-0.081153,0.24034,-0.1357,-0.045882,0.042486,0.021506,0.013495,0.76122,-1.1533,0.014986,-1.2387,0.016547,-0.50907
0.16695,0.016055,0.00020086,-0.016892,0.10514,-0.041784,-0.0035441,0.012888,0.0051407,-0.059669,-0.035825,-0.082258,0.25042,-0.11165,-0.052086,0.033225,0.029816,0.022393,0.71993,-1.0304,-0.11457,-1.6902,-0.033701,-0.83094
0.15469,0.014047,0.0076662,-0.00641,0.10084,-0.033803,-0.014467,0.0026764,0.0067875,-0.052368,-0.037793,-0.073894,0.25654,-0.077526,-0.056414,0.020493,0.040022,0.026598,0.66028,-0.874,-0.24269,-1.9116,-0.074735,-1.1011
0.1435,0.012814,0.010671,6.8246e-006,0.092079,-0.022952,-0.024926,-0.0052572,0.008681,-0.049465,-0.036419,-0.06497,0.25251,-0.041453,-0.055131,0.011926,0.053648,0.032631,0.59377,-0.69538,-0.34046,-1.8562,-0.11124,-1.3168
0.13512,0.012227,0.0099741,0.0029653,0.082258,-0.015768,-0.03159,-0.01015,0.0098225,-0.052929,-0.032346,-0.062626,0.23557,-0.012762,-0.04814,0.012892,0.068716,0.044418,0.52608,-0.5212,-0.3989,-1.5614,-0.13658,-1.4844
0.12564,0.010985,0.0080153,0.0045609,0.074365,-0.015888,-0.032991,-0.013053,0.010589,-0.058994,-0.028265,-0.068191,0.21044,0.0034151,-0.038747,0.021008,0.080824,0.05995,0.46211,-0.38837,-0.43135,-1.1174,-0.13652,-1.6105
0.10916,0.0075581,0.007381,0.0066821,0.069636,-0.020967,-0.031124,-0.015561,0.011846,-0.062352,-0.027014,-0.077792,0.18773,0.0099246,-0.031008,0.027274,0.086675,0.073062,0.4115,-0.32633,-0.45872,-0.62326,-0.10246,-1.7032
0.08384,0.001774,0.0092188,0.0092651,0.068085,-0.024314,-0.030312,-0.018439,0.013604,-0.06095,-0.029295,-0.086712,0.17737,0.016319,-0.026952,0.023458,0.086641,0.078386,0.38792,-0.33897,-0.4912,-0.1519,-0.042852,-1.7764
0.054719,-0.0044029,0.012498,0.010115,0.0695,-0.020299,-0.033903,-0.021356,0.014619,-0.057123,-0.032975,-0.093521,0.18203,0.032319,-0.025767,0.0093693,0.083925,0.075145,0.40104,-0.40295,-0.52101,0.26118,0.017991,-1.848
0.030282,-0.0078784,0.014668,0.0068662,0.07343,-0.0092731,-0.041567,-0.023711,0.013333,-0.054543,-0.034647,-0.10034,0.19596,0.059929,-0.025212,-0.0066381,0.081286,0.066941,0.44708,-0.48569,-0.53081,0.60636,0.054504,-1.9246
0.015388,-0.006694,0.013437,-0.00032364,0.078375,0.0021757,-0.049633,-0.025579,0.0092071,-0.054263,-0.032176,-0.10923,0.20984,0.08996,-0.023712,-0.014603,0.078606,0.058295,0.50549,-0.56797,-0.5094,0.87658,0.056872,-1.986
0.006783,-0.0018374,0.0085173,-0.0078371,0.081789,0.0061739,-0.054277,-0.027893,0.0031781,-0.053665,-0.026098,-0.11823,0.2172,0.10625,-0.021282,-0.011188,0.073588,0.051153,0.54584,-0.65057,-0.46158,1.0507,0.036421,-1.9874
-0.0045517,0.0029471,0.0020329,-0.010742,0.081678,-8.3248e-005,-0.054739,-0.031765,-0.0031097,-0.049163,-0.018814,-0.12097,0.21708,0.09552,-0.018742,-0.0018342,0.064625,0.044134,0.54136,-0.7388,-0.40518,1.0993,0.014691,-1.8852
-0.025982,0.0034135,-0.0028281,-0.0066368,0.078526,-0.011758,-0.053701,-0.037508,-0.0084706,-0.03997,-0.012445,-0.11066,0.21138,0.056488,-0.016299,0.0049449,0.052811,0.034625,0.48149,-0.82054,-0.35894,1.0125,0.0053717,-1.6701
-0.056977,-0.0023996,-0.0039864,0.0020217,0.075271,-0.019833,-0.054591,-0.04412,-0.012676,-0.029397,-0.0072723,-0.085253,0.20027,0.0017429,-0.013114,0.0056801,0.041058,0.021643,0.37667,-0.86033,-0.33118,0.83056,0.0044139,-1.3791
-0.089226,-0.012828,-0.0018212,0.0093412,0.07472,-0.017949,-0.05841,-0.049649,-0.016016,-0.022553,-0.0019635,-0.049747,0.18073,-0.049057,-0.0083581,0.0049332,0.031404,0.0071141,0.25359,-0.81801,-0.31704,0.6455,-0.0036735,-1.0757
-0.11275,-0.023605,0.0013226,0.010298,0.076493,-0.007186,-0.063003,-0.052285,-0.018584,-0.02252,0.0048551,-0.013684,0.14955,-0.080253,-0.0026966,0.010504,0.023391,-0.0051242,0.14412,-0.677,-0.30447,0.56028,-0.02967,-0.81418
-0.12278,-0.030457,0.003019,0.004465,0.076558,0.004988,-0.065297,-0.051499,-0.020052,-0.028257,0.013144,0.014106,0.10763,-0.088161,0.0014715,0.025445,0.015251,-0.011564,0.073552,-0.45844,-0.28321,0.62494,-0.068448,-0.61676
-0.12216,-0.031477,0.0025237,-0.003893,0.070289,0.010578,-0.064245,-0.048386,-0.020081,-0.035738,0.021272,0.029771,0.060763,-0.081015,0.0016053,0.04429,0.0066834,-0.010863,0.053019,-0.20958,-0.25064,0.79687,-0.10266,-0.48133
-0.11815,-0.027814,0.0011058,-0.0093388,0.056605,0.0069256,-0.061701,-0.044911,-0.018843,-0.041038,0.027107,0.035133,0.015496,-0.07172,-0.0027766,0.056889,0.00025581,-0.0042433,0.078444,0.023618,-0.21181,0.96286,-0.11765,-0.40559
-0.11706,-0.022542,0.00085552,-0.0093709,0.039457,-0.0019632,-0.060603,-0.042613,-0.017108,-0.042733,0.029466,0.035164,-0.026375,-0.068999,-0.0093353,0.056288,-0.00025186,0.0054648,0.13588,0.2184,-0.17531,1.0153,-0.11395,-0.39879
-0.12063,-0.018738,0.0030094,-0.005752,0.025061,-0.0092092,-0.062331,-0.041851,-0.01585,-0.041987,0.028916,0.034607,-0.069226,-0.073007,-0.01454,0.043692,0.0067789,0.015358,0.2104,0.37867,-0.14788,0.92819,-0.10651,-0.46575
-0.12612,-0.018042,0.0070339,-0.0022552,0.017057,-0.010463,-0.065671,-0.042129,-0.015736,-0.040815,0.027423,0.035943,-0.11902,-0.077644,-0.016473,0.026513,0.018872,0.023684,0.29382,0.5233,-0.1303,0.77272,-0.1116,-0.57897
-0.12869,-0.020307,0.010992,-0.0011004,0.013692,-0.0065671,-0.068039,-0.042912,-0.016919,-0.040281,0.027066,0.039309,-0.17635,-0.076887,-0.01637,0.011817,0.030922,0.030245,0.38679,0.67236,-0.11615,0.65915,-0.13336,-0.67074
-0.12408,-0.024139,0.012814,-0.0012687,0.0094504,-0.0019053,-0.06754,-0.043792,-0.019262,-0.039989,0.028597,0.043513,-0.23346,-0.070073,-0.017402,0.0012175,0.038901,0.035938,0.49305,0.83954,-0.094638,0.65047,-0.16132,-0.66261
-0.11051,-0.027778,0.011621,1.6287e-005,-0.00027175,-0.00052059,-0.064027,-0.043705,-0.022836,-0.038898,0.030814,0.047109,-0.2784,-0.062569,-0.021658,-0.0086193,0.042603,0.041852,0.60969,1.0296,-0.056814,0.71819,-0.18039,-0.51589
-0.089584,-0.029894,0.0083812,0.0042181,-0.015345,-0.0034023,-0.058655,-0.04031,-0.028318,-0.036549,0.031378,0.049023,-0.30328,-0.062101,-0.028014,-0.021071,0.045126,0.04849,0.72063,1.2364,-0.002501,0.77394,-0.18378,-0.26487
-0.065909,-0.030142,0.0055346,0.0097237,-0.03104,-0.0086567,-0.052888,-0.031028,-0.036912,-0.033696,0.028643,0.048837,-0.30998,-0.073918,-0.03289,-0.035216,0.049767,0.055551,0.79992,1.4413,0.056974,0.74663,-0.17778,-0.0051489
-0.04527,-0.029362,0.0057367,0.012987,-0.041805,-0.013582,-0.047976,-0.015667,-0.049555,-0.031951,0.023118,0.046878,-0.30842,-0.098131,-0.033332,-0.045957,0.057201,0.062333,0.82438,1.6165,0.10339,0.6387,-0.17504,0.15723
-0.031641,-0.029236,0.010257,0.011553,-0.045447,-0.016517,-0.044964,0.0015157,-0.065694,-0.032664,0.017203,0.044043,-0.30896,-0.13026,-0.029681,-0.048126,0.065295,0.068341,0.78741,1.7366,0.12202,0.51676,-0.18281,0.16214
-0.02483,-0.031359,0.017934,0.0062902,-0.044357,-0.01731,-0.044549,0.012843,-0.082536,-0.035773,0.013255,0.041309,-0.31499,-0.16366,-0.025405,-0.040616,0.071337,0.073577,0.70348,1.7915,0.11123,0.45052,-0.19636,0.022573
-0.020584,-0.036093,0.0255,0.00091066,-0.04309,-0.016853,-0.046513,0.011564,-0.095737,-0.039436,0.011623,0.039067,-0.32135,-0.19171,-0.024167,-0.027009,0.07438,0.078231,0.59989,1.7917,0.084208,0.45589,-0.20248,-0.18857
-0.013376,-0.041934,0.029411,-0.00081559,-0.044527,-0.016592,-0.049372,-0.0033756,-0.10162,-0.04089,0.010548,0.036698,-0.31912,-0.20901,-0.026741,-0.01264,0.075624,0.082058,0.50196,1.761,0.060705,0.48895,-0.18951,-0.3769
0.00011981,-0.046065,0.028185,0.0021952,-0.047824,-0.01822,-0.050997,-0.025955,-0.099655,-0.038077,0.0081155,0.032796,-0.30254,-0.21204,-0.030473,-0.001032,0.07682,0.084053,0.42284,1.7222,0.054264,0.48906,-0.15555,-0.46552
0.019366,-0.046023,0.023555,0.0078085,-0.049542,-0.023044,-0.049984,-0.046508,-0.093225,-0.0308,0.0044122,0.026088,-0.27281,-0.20009,-0.031712,0.0073573,0.078436,0.082867,0.36373,1.6841,0.063864,0.42806,-0.10934,-0.4187
0.040989,-0.041513,0.019313,0.012585,-0.046723,-0.030931,-0.046606,-0.057528,-0.087683,-0.020306,0.0016725,0.016667,-0.23682,-0.17607,-0.02896,0.013727,0.079233,0.077707,0.32078,1.6387,0.075917,0.32371,-0.064118,-0.24778
0.061077,-0.035004,0.018423,0.014405,-0.039228,-0.039649,-0.042339,-0.057589,-0.086825,-0.0075504,0.0021373,0.0066857,-0.20268,-0.14618,-0.02402,0.018849,0.077386,0.068929,0.28991,1.5663,0.074816,0.21203,-0.030016,-0.0034123
0.076756,-0.030358,0.020652,0.013707,-0.029571,-0.045596,-0.038349,-0.050848,-0.090384,0.0082085,0.0057162,-0.00027946,-0.1755,-0.1176,-0.020314,0.022406,0.071874,0.057718,0.26513,1.4463,0.054075,0.10982,-0.0099723,0.24308
0.086468,-0.030187,0.022837,0.012632,-0.020746,-0.045882,-0.034437,-0.043242,-0.094535,0.028733,0.0099103,-0.0013133,-0.1558,-0.095349,-0.020085,0.023956,0.062939,0.045143,0.23501,1.2681,0.020102,0.0017901,-0.00068194,0.42669
0.089976,-0.03377,0.021803,0.013072,-0.014132,-0.040324,-0.029582,-0.038777,-0.095013,0.054102,0.012249,0.0033238,-0.14053,-0.080168,-0.022935,0.024056,0.051556,0.031608,0.18528,1.0392,-0.013405,-0.14041,0.0035846,0.51571
0.089022,-0.037267,0.017483,0.015312,-0.0092187,-0.031738,-0.023596,-0.038429,-0.09032,0.080243,0.01286,0.0090489,-0.12556,-0.069072,-0.026675,0.024106,0.0388,0.017418,0.1089,0.78622,-0.035428,-0.32866,0.0074748,0.52466
0.087917,-0.036386,0.013334,0.018187,-0.0050753,-0.024136,-0.018113,-0.041435,-0.082497,0.099415,0.014436,0.0084963,-0.10825,-0.057864,-0.029321,0.02502,0.025849,0.0039328,0.015607,0.54436,-0.044243,-0.54439,0.013164,0.50299
0.092357,-0.02968,0.013438,0.020338,-0.0018796,-0.020147,-0.01562,-0.046803,-0.075103,0.10418,0.019366,-0.0046725,-0.088854,-0.043779,-0.030284,0.026148,0.014373,-0.0061764,-0.070157,0.33793,-0.046263,-0.74683,0.020945,0.5044
0.10604,-0.019959,0.018765,0.021383,-0.0009372,-0.019569,-0.017213,-0.053468,-0.070296,0.092235,0.02671,-0.031903,-0.070143,-0.026557,-0.02991,0.025711,0.0064453,-0.01044,-0.12526,0.16357,-0.04902,-0.88996,0.03062,0.55616
0.12716,-0.012571,0.026007,0.022038,-0.0032244,-0.02001,-0.021202,-0.059538,-0.067475,0.068364,0.032168,-0.068369,-0.055326,-0.0077891,-0.028257,0.022529,0.0035666,-0.0089217,-0.14715,-0.0091888,-0.054416,-0.93308,0.042504,0.64852
0.14812,-0.011709,0.030131,0.023146,-0.0080275,-0.018958,-0.024105,-0.062256,-0.064345,0.041584,0.03146,-0.10504,-0.045562,0.010338,-0.02467,0.017498,0.0054666,-0.0051299,-0.16068,-0.21497,-0.057549,-0.84444,0.057403,0.74939
0.15961,-0.017461,0.028405,0.024458,-0.013187,-0.015639,-0.023306,-0.059434,-0.059271,0.019655,0.024246,-0.1328,-0.039026,0.025851,-0.018632,0.013357,0.0098801,-0.0041118,-0.20529,-0.46037,-0.051522,-0.60917,0.075578,0.83035
0.1566,-0.025818,0.022307,0.024266,-0.016837,-0.011371,-0.018956,-0.051286,-0.052835,0.0049988,0.014956,-0.14604,-0.032449,0.037252,-0.010922,0.01276,0.013811,-0.0088274,-0.31065,-0.70678,-0.033953,-0.2459,0.095417,0.8844
0.14166,-0.03152,0.015785,0.020375,-0.018972,-0.0083419,-0.013344,-0.040789,-0.047419,-0.0051103,0.0095971,-0.14386,-0.024005,0.04376,-0.0036013,0.016186,0.015431,-0.017746,-0.47814,-0.8848,-0.0099038,0.17979,0.11302,0.92531
0.12289,-0.031513,0.011714,0.011902,-0.021236,-0.0078448,-0.0084326,-0.031924,-0.045223,-0.014865,0.01116,-0.12899,-0.014969,0.04579,0.0014915,0.021386,0.015066,-0.025839,-0.68126,-0.93367,0.010837,0.565,0.12358,0.97416
0.10799,-0.026536,0.0098573,0.00053332,-0.025065,-0.0092977,-0.0041068,-0.0271,-0.046311,-0.026155,0.017561,-0.1057,-0.0085402,0.045232,0.004431,0.024807,0.014398,-0.028298,-0.88335,-0.83956,0.019665,0.8075,0.12429,1.0453
0.099044,-0.019986,0.0079762,-0.0098968,-0.029937,-0.01074,0.001067,-0.02588,-0.0482,-0.037604,0.023747,-0.078248,-0.0067743,0.044996,0.0072957,0.023794,0.014617,-0.023977,-1.0588,-0.64636,0.013619,0.85309,0.11683,1.1395
0.092183,-0.015377,0.0046273,-0.015536,-0.033495,-0.01042,0.007435,-0.025963,-0.047362,-0.046468,0.02596,-0.049946,-0.0084761,0.047847,0.012226,0.01793,0.015173,-0.015943,-1.2032,-0.43339,-0.0046048,0.72054,0.10768,1.2432
0.081722,-0.014382,0.00074803,-0.014935,-0.033501,-0.0082761,0.012934,-0.025365,-0.041571,-0.05114,0.024434,-0.022794,-0.01001,0.055299,0.019021,0.0087775,0.014238,-0.0091145,-1.3267,-0.27772,-0.030174,0.48663,0.10538,1.3313
0.065272,-0.016551,-0.0014557,-0.009919,-0.029832,-0.0061643,0.014585,-0.023776,-0.031292,-0.05206,0.022381,0.0025798,-0.0082411,0.06726,0.024594,-0.0013606,0.010378,-0.007253,-1.4379,-0.22689,-0.059621,0.24237,0.11637,1.3724
0.045594,-0.020224,-0.0010521,-0.0041608,-0.024596,-0.0065394,0.01155,-0.021998,-0.018862,-0.05091,0.022531,0.026247,-0.0028528,0.082468,0.02517,-0.010527,0.0037964,-0.011585,-1.5322,-0.2952,-0.091366,0.050217,0.14192,1.3393
0.028102,-0.023528,0.00030273,-0.00051504,-0.020198,-0.0105,0.0065599,-0.020273,-0.0059598,-0.049622,0.024502,0.047537,0.0039708,0.099061,0.019631,-0.017475,-0.0040728,-0.021385,-1.5907,-0.47729,-0.12358,-0.073877,0.1779,1.2206
0.016482,-0.024897,-0.0003,0.00072247,-0.017077,-0.01666,0.0038914,-0.017349,0.0085566,-0.050441,0.025275,0.063753,0.0098409,0.11482,0.011138,-0.021585,-0.012211,-0.035187,-1.5937,-0.76269,-0.15236,-0.15158,0.21728,1.0261
0.010116,-0.023337,-0.0042062,0.0012684,-0.013182,-0.021762,0.0055203,-0.011384,0.02831,-0.056589,0.0221,0.070427,0.014026,0.12734,0.0054018,-0.022829,-0.021252,-0.051379,-1.5362,-1.1404,-0.17278,-0.22088,0.25328,0.77999
0.0052623,-0.0188,-0.0095594,0.0026456,-0.0057065,-0.02267,0.0092238,-0.0019491,0.056377,-0.071949,0.01501,0.06365,0.017218,0.13471,0.0067477,-0.021811,-0.032915,-0.068187,-1.4374,-1.5949,-0.18228,-0.31572,0.28175,0.50457
-0.0012845,-0.01243,-0.012508,0.0043874,0.0063857,-0.018289,0.010758,0.0088424,0.091866,-0.098979,0.0066502,0.043121,0.019867,0.13675,0.015018,-0.019549,-0.047937,-0.083845,-1.3347,-2.1022,-0.18311,-0.44962,0.30171,0.20894
-0.0091675,-0.0061243,-0.010391,0.004254,0.021175,-0.010082,0.0082303,0.01739,0.12913,-0.13603,-0.00024859,0.013505,0.021133,0.13576,0.025716,-0.016853,-0.064311,-0.097203,-1.2661,-2.6305,-0.18062,-0.60266,0.31469,-0.10785
-0.014612,-0.0013683,-0.0042277,0.00012885,0.034902,-0.00093763,0.0043688,0.021199,0.16069,-0.17648,-0.0053443,-0.017408,0.019634,0.13559,0.033183,-0.013789,-0.077658,-0.10816,-1.2518,-3.1443,-0.17832,-0.71847,0.3235,-0.44147
-0.013677,0.0018195,0.0016733,-0.0082718,0.044397,0.0066252,0.0042331,0.020835,0.18178,-0.21124,-0.010834,-0.042744,0.015113,0.13896,0.034294,-0.0098615,-0.083827,-0.11725,-1.2857,-3.6065,-0.17358,-0.72315,0.33086,-0.77032
-0.0060517,0.0048014,0.0028037,-0.019435,0.048865,0.011598,0.010333,0.019514,0.19279,-0.23344,-0.019268,-0.059962,0.0091745,0.1451,0.030025,-0.0049531,-0.081871,-0.12471,-1.3429,-3.9772,-0.15849,-0.56796,0.33791,-1.0602
0.003731,0.0089944,-0.0021619,-0.031611,0.049789,0.014378,0.019846,0.020602,0.19773,-0.24222,-0.031073,-0.071143,0.0042348,0.15013,0.024119,-0.00017406,-0.074991,-0.12994,-1.396,-4.2144,-0.12601,-0.27479,0.34315,-1.2835
0.0089531,0.014412,-0.010334,-0.04421,0.049328,0.015871,0.02674,0.025137,0.19999,-0.24283,-0.043949,-0.08011,0.0017702,0.15064,0.020275,0.0024143,-0.068489,-0.13202,-1.4288,-4.2809,-0.07734,0.050809,0.34229,-1.4356
0.0054843,0.019445,-0.016696,-0.057657,0.048721,0.016707,0.026914,0.031357,0.19923,-0.24255,-0.05446,-0.088783,0.0016769,0.14805,0.02,0.0013687,-0.06611,-0.13053,-1.4386,-4.1564,-0.024577,0.26103,0.32983,-1.5325
-0.0049815,0.022179,-0.017648,-0.071941,0.047857,0.017103,0.021538,0.036404,0.19196,-0.2456,-0.060263,-0.095659,0.003423,0.14974,0.022353,-0.00236,-0.067411,-0.1258,-1.4271,-3.8483,0.014001,0.24681,0.30177,-1.5917
-0.01598,0.022138,-0.013286,-0.085409,0.046018,0.017171,0.015548,0.038503,0.17534,-0.25056,-0.061107,-0.097476,0.0077407,0.1651,0.025202,-0.0050206,-0.068085,-0.11827,-1.3908,-3.3928,0.023527,0.0099359,0.25818,-1.6125
-0.021108,0.020847,-0.0068009,-0.095066,0.042852,0.017124,0.012944,0.037782,0.15074,-0.25242,-0.058093,-0.092592,0.016855,0.19868,0.026786,-0.0017557,-0.062955,-0.10783,-1.3187,-2.8443,0.00079725,-0.32436,0.20381,-1.5767
-0.018996,0.020657,-0.0016844,-0.098105,0.038699,0.017079,0.013457,0.035362,0.12418,-0.24735,-0.052261,-0.083349,0.032478,0.24541,0.026571,0.010467,-0.049462,-0.094095,-1.2005,-2.2573,-0.044367,-0.56887,0.14613,-1.4713
-0.014475,0.022773,0.00091415,-0.093341,0.034188,0.016701,0.013621,0.031976,0.10338,-0.23641,-0.043939,-0.075594,0.053019,0.2918,0.02518,0.030641,-0.029305,-0.077536,-1.0382,-1.6711,-0.095592,-0.57487,0.092002,-1.3135
-0.01495,0.026202,0.0026503,-0.081519,0.029685,0.015167,0.010855,0.027563,0.093673,-0.22515,-0.033299,-0.075666,0.072612,0.32242,0.023784,0.053874,-0.0074348,-0.060265,-0.85039,-1.1028,-0.13983,-0.30868,0.045335,-1.153
-0.024892,0.028553,0.0061239,-0.064675,0.025151,0.011703,0.0063763,0.022103,0.095673,-0.21964,-0.021315,-0.086946,0.083496,0.32709,0.023436,0.073956,0.010535,-0.045416,-0.66512,-0.55318,-0.17379,0.14305,0.0072434,-1.042
-0.042809,0.028025,0.01245,-0.045486,0.020401,0.0064342,0.0041847,0.016627,0.10575,-0.22213,-0.010027,-0.10814,0.080636,0.30446,0.024614,0.086749,0.02064,-0.035463,-0.50573,-0.017615,-0.20264,0.63815,-0.021766,-0.99259
-0.06288,0.024883,0.0203,-0.02705,0.01541,0.00083151,0.0072838,0.013256,0.11851,-0.22971,-0.0017344,-0.13407,0.065398,0.2605,0.026975,0.092155,0.021396,-0.030923,-0.37791,0.50331,-0.2326,1.0661,-0.039923,-0.9537
-0.079464,0.021152,0.027008,-0.012594,0.010297,-0.002797,0.014888,0.01413,0.12954,-0.23638,0.0022796,-0.158,0.045344,0.20477,0.0294,0.093489,0.013303,-0.030616,-0.26788,1,-0.26422,1.3986,-0.044689,-0.83285
-0.090613,0.01884,0.03052,-0.0045267,0.0050743,-0.0026808,0.023159,0.020163,0.13711,-0.23603,0.0025487,-0.17373,0.029927,0.1474,0.030373,0.094862,-0.0020331,-0.033285,-0.15396,1.4569,-0.29208,1.6758,-0.035453,-0.55296
-0.098005,0.018313,0.030467,-0.0031527,-0.00053652,0.0010739,0.028579,0.030577,0.14222,-0.22413,0.0012471,-0.17641,0.024884,0.097863,0.028732,0.098568,-0.022462,-0.039071,-0.025256,1.8568,-0.31111,1.9512,-0.016013,-0.10655
-0.10415,0.018295,0.027713,-0.0062094,-0.0069409,0.0062931,0.03075,0.043435,0.147,-0.19762,0.0012274,-0.16253,0.029215,0.063954,0.024465,0.10422,-0.045564,-0.049507,0.1043,2.185,-0.32318,2.2461,0.0056841,0.43379
-0.10978,0.017454,0.023322,-0.010024,-0.014244,0.010079,0.032249,0.056576,0.15234,-0.15488,0.0048033,-0.13042,0.036733,0.049652,0.019024,0.10988,-0.069038,-0.065949,0.19738,2.4292,-0.33673,2.5479,0.020922,0.95932
-0.11368,0.015992,0.018192,-0.011614,-0.021903,0.010837,0.036016,0.06833,0.15631,-0.096909,0.012765,-0.081924,0.040809,0.052943,0.01475,0.11391,-0.091223,-0.087674,0.21183,2.5812,-0.3591,2.8427,0.024558,1.3935
-0.11428,0.015609,0.013559,-0.010064,-0.028816,0.0094097,0.042801,0.077799,0.15476,-0.028731,0.023951,-0.024432,0.038738,0.066016,0.013566,0.11579,-0.11126,-0.11114,0.12605,2.641,-0.38824,3.1402,0.017411,1.7355
-0.11118,0.017738,0.011291,-0.0061091,-0.033879,0.0083406,0.050734,0.084809,0.14445,0.041301,0.035592,0.029408,0.032776,0.078912,0.0157,0.11554,-0.12845,-0.13095,-0.045719,2.6212,-0.41229,3.4563,0.0053565,2.0469
-0.10522,0.021711,0.012975,-0.0006164,-0.036645,0.0097721,0.056994,0.089624,0.12617,0.10498,0.044445,0.065626,0.027665,0.084495,0.019363,0.11243,-0.14117,-0.14192,-0.25918,2.5464,-0.41843,3.7681,-0.0040009,2.395
-0.09758,0.024768,0.018257,0.0063314,-0.037552,0.01369,0.059795,0.09244,0.10525,0.15831,0.048319,0.075443,0.027018,0.081079,0.021737,0.1047,-0.14649,-0.14104,-0.4627,2.445,-0.40348,3.9898,-0.0050254,2.7952
-0.089404,0.024215,0.024178,0.014786,-0.037521,0.017953,0.059116,0.092879,0.088262,0.20307,0.047223,0.060399,0.03128,0.070901,0.020741,0.090895,-0.14129,-0.12844,-0.6198,2.3358,-0.37667,4.0082,0.0034725,3.1952
-0.082118,0.01994,0.026772,0.023597,-0.037287,0.020034,0.056072,0.089989,0.078393,0.24446,0.043346,0.032108,0.038285,0.056272,0.016385,0.071786,-0.12451,-0.10701,-0.71517,2.222,-0.35192,3.7618,0.017651,3.5102
-0.077565,0.014902,0.024044,0.03016,-0.037149,0.018982,0.051956,0.08303,0.073562,0.28712,0.039734,0.0059969,0.045269,0.037148,0.01075,0.051205,-0.098786,-0.081043,-0.74301,2.0957,-0.33724,3.2983,0.030073,3.6783
-0.077017,0.012863,0.017819,0.03195,-0.037376,0.016012,0.047908,0.072592,0.0692,0.33241,0.038388,-0.007202,0.050532,0.012168,0.0065489,0.034432,-0.069913,-0.05462,-0.69229,1.9515,-0.33111,2.7569,0.032953,3.6976
-0.079742,0.015117,0.012522,0.028599,-0.038761,0.013409,0.04507,0.060991,0.063402,0.37832,0.039006,-0.0065326,0.053787,-0.01831,0.0052371,0.024821,-0.043954,-0.03028,-0.54626,1.7971,-0.32912,2.2789,0.022199,3.6201
-0.08282,0.019135,0.011629,0.022438,-0.042497,0.012815,0.044529,0.051219,0.05956,0.42076,0.039297,0.00080355,0.055544,-0.05048,0.005995,0.021059,-0.024002,-0.0085323,-0.29891,1.6504,-0.33296,1.9173,0.00019296,3.5118
-0.083052,0.02055,0.014808,0.01682,-0.0492,0.014286,0.046657,0.044954,0.06348,0.45469,0.036764,0.006079,0.05637,-0.078518,0.0062956,0.017485,-0.0090092,0.011622,0.026099,1.5253,-0.35122,1.6167,-0.024739,3.4102
-0.079625,0.017016,0.018383,0.013668,-0.057904,0.016611,0.050394,0.041172,0.076952,0.47493,0.03077,0.0055406,0.056443,-0.09794,0.0036592,0.0078277,0.0042678,0.031346,0.3732,1.4181,-0.38914,1.2773,-0.042337,3.3052
-0.075074,0.010581,0.018803,0.012594,-0.066213,0.018333,0.053333,0.036673,0.093367,0.47761,0.023326,0.0023561,0.055334,-0.10802,-0.0026512,-0.010063,0.017691,0.050465,0.6757,1.308,-0.43641,0.84634,-0.045471,3.155
-0.073373,0.0063076,0.016026,0.012374,-0.071794,0.018534,0.052867,0.028331,0.099759,0.46243,0.017806,0.0035534,0.051994,-0.11153,-0.011178,-0.032123,0.029425,0.066666,0.88715,1.1718,-0.46601,0.36326,-0.032882,2.9216
-0.076645,0.0080795,0.013689,0.013238,-0.074083,0.017057,0.047727,0.015415,0.084435,0.4337,0.016343,0.015117,0.04523,-0.1126,-0.019344,-0.050484,0.034883,0.076119,1.0029,1.0014,-0.44863,-0.067119,-0.0081108,2.6004
-0.083349,0.015139,0.015858,0.01748,-0.074631,0.014355,0.038833,0.00022819,0.044516,0.3989,0.017803,0.038814,0.034789,-0.11445,-0.025222,-0.058736,0.030292,0.075486,1.0593,0.81068,-0.37314,-0.34139,0.023613,2.2259
-0.089569,0.022453,0.023292,0.027452,-0.075713,0.01132,0.028838,-0.013344,-0.012465,0.3652,0.018049,0.071922,0.022466,-0.11842,-0.028689,-0.055961,0.016046,0.064331,1.1131,0.62529,-0.25715,-0.40888,0.057355,1.8498
-0.09217,0.024719,0.0326,0.04263,-0.078395,0.0090651,0.020659,-0.022128,-0.074011,0.33734,0.012474,0.10859,0.012114,-0.12394,-0.031082,-0.046384,-0.0028573,0.04631,1.2144,0.46614,-0.13847,-0.28292,0.087937,1.5116
-0.091005,0.020568,0.039002,0.058604,-0.081816,0.0084699,0.015939,-0.025149,-0.13066,0.3186,-0.00097131,0.14133,0.00796,-0.12882,-0.033648,-0.035164,-0.01963,0.027981,1.3843,0.33856,-0.053098,-0.027138,0.1087,1.2236
-0.088379,0.013372,0.040097,0.069301,-0.084235,0.0096202,0.014347,-0.023532,-0.18017,0.31339,-0.020522,0.16248,0.012015,-0.12988,-0.036037,-0.02416,-0.02954,0.015558,1.6045,0.23374,-0.01568,0.25912,0.11258,0.97973
-0.086569,0.0080894,0.03727,0.070889,-0.084737,0.011659,0.014111,-0.019359,-0.22513,0.3272,-0.041924,0.16642,0.022425,-0.12414,-0.036167,-0.011427,-0.031968,0.01153,1.8213,0.13737,-0.015403,0.45417,0.095976,0.77721
-0.08588,0.0071223,0.033701,0.064174,-0.083883,0.013424,0.013338,-0.014505,-0.26671,0.36193,-0.061128,0.15203,0.034123,-0.11056,-0.031761,0.0052307,-0.029551,0.013483,1.9637,0.036738,-0.027907,0.44218,0.062584,0.62785
-0.084907,0.0088673,0.031124,0.053539,-0.082801,0.014506,0.011212,-0.010098,-0.30051,0.40957,-0.076243,0.12382,0.041466,-0.090925,-0.022529,0.024084,-0.025722,0.015994,1.9716,-0.07806,-0.032574,0.15922,0.022779,0.54512
-0.082382,0.0099538,0.028514,0.043322,-0.081811,0.015703,0.0082712,-0.0065908,-0.3183,0.45079,-0.087532,0.090055,0.041132,-0.068969,-0.011218,0.038833,-0.02283,0.014231,1.8222,-0.21479,-0.022988,-0.3691,-0.012256,0.51856
-0.078577,0.0087551,0.023808,0.03468,-0.080142,0.018174,0.0056491,-0.0041694,-0.31404,0.46185,-0.096023,0.058669,0.03359,-0.047809,-0.0024767,0.042581,-0.021985,0.0066366,1.5391,-0.37706,-0.0058047,-1.033,-0.038021,0.50168
-0.074906,0.0067886,0.016721,0.025382,-0.07706,0.021824,0.0039877,-0.0032547,-0.2891,0.42683,-0.10226,0.033803,0.02275,-0.027727,-7.543e-005,0.033419,-0.023896,-0.0050161,1.1779,-0.56019,0.0078062,-1.6917,-0.05998,0.43143
-0.072369,0.0068873,0.0096828,0.012483,-0.073091,0.024563,0.0029468,-0.004793,-0.25217,0.3469,-0.10614,0.015637,0.014491,-0.0062736,-0.0044275,0.017033,-0.029184,-0.017635,0.79828,-0.75076,0.01057,-2.2388,-0.089632,0.26938
-0.070612,0.01016,0.0058307,-0.0044596,-0.069819,0.023656,0.0016698,-0.0099199,-0.21422,0.23953,-0.10754,0.0031079,0.014769,0.019038,-0.01227,0.0039633,-0.03755,-0.028756,0.44159,-0.933,0.0026206,-2.6328,-0.1358,0.032423
-0.068557,0.014763,0.0059767,-0.022194,-0.068219,0.018455,-0.00030092,-0.01882,-0.18246,0.12831,-0.10677,-0.0033428,0.027464,0.047461,-0.018816,0.0032176,-0.046678,-0.03683,0.12997,-1.0967,-0.0099731,-2.8786,-0.19721,-0.21439
-0.065836,0.017589,0.0075853,-0.035427,-0.067181,0.012091,-0.0025241,-0.029363,-0.15792,0.030091,-0.10447,-0.0017111,0.052236,0.073935,-0.020763,0.016657,-0.052377,-0.040248,-0.11955,-1.2374,-0.01924,-2.9876,-0.26134,-0.40014
-0.063429,0.017149,0.0069192,-0.040014,-0.063979,0.0099735,-0.0039782,-0.036785,-0.13769,-0.051593,-0.10129,0.0090477,0.083473,0.091407,-0.017936,0.03787,-0.050528,-0.0369,-0.28411,-1.3466,-0.019553,-2.9552,-0.30987,-0.49311
-0.062798,0.014885,0.0024361,-0.035468,-0.056582,0.015651,-0.0038014,-0.035378,-0.11914,-0.12376,-0.097868,0.026618,0.11173,0.095078,-0.012488,0.056038,-0.039726,-0.025428,-0.3426,-1.3995,-0.010423,-2.7705,-0.32667,-0.51347
-0.064403,0.013783,-0.0037845,-0.025248,-0.045785,0.027301,-0.0017397,-0.021739,-0.10246,-0.19522,-0.094915,0.045598,0.12771,0.085475,-0.0066805,0.061975,-0.022611,-0.0072376,-0.29699,-1.3569,0.0035581,-2.4351,-0.30386,-0.50558
-0.067037,0.015656,-0.0080223,-0.014834,-0.035075,0.038253,0.001974,0.0024418,-0.089735,-0.26894,-0.092793,0.060422,0.12658,0.068041,-0.0013033,0.052463,-0.0046595,0.012893,-0.18576,-1.1833,0.016168,-1.9704,-0.24366,-0.49596
-0.068562,0.01961,-0.0085005,-0.0088956,-0.028169,0.041769,0.0069334,0.030276,-0.081977,-0.34037,-0.090556,0.068509,0.10988,0.049579,0.0039808,0.030576,0.00896,0.028884,-0.071273,-0.87245,0.024669,-1.409,-0.1574,-0.4741
-0.067355,0.022938,-0.007159,-0.0092557,-0.026359,0.036461,0.01256,0.052882,-0.076752,-0.40147,-0.085413,0.07113,0.083594,0.034241,0.0090419,0.0025758,0.016289,0.036919,-0.0053196,-0.45737,0.032656,-0.79304,-0.063127,-0.41215
-0.063274,0.023504,-0.0078315,-0.014703,-0.027944,0.027701,0.017807,0.064091,-0.068645,-0.44627,-0.073738,0.071507,0.054461,0.021861,0.012314,-0.025925,0.019241,0.037746,0.0017884,0.0038294,0.047327,-0.18648,0.017796,-0.30456
-0.057587,0.021454,-0.012451,-0.022503,-0.030098,0.023527,0.021127,0.063566,-0.052424,-0.47354,-0.053507,0.071669,0.027462,0.0093739,0.011681,-0.051911,0.021664,0.035816,-0.017332,0.45722,0.072077,0.31827,0.066383,-0.19097
-0.05214,0.018887,-0.018868,-0.030378,-0.031269,0.02822,0.021127,0.056237,-0.026983,-0.48541,-0.026419,0.070043,0.0058506,-0.0064179,0.0065731,-0.074332,0.026417,0.035958,-0.018112,0.87383,0.099989,0.62827,0.073234,-0.13984
-0.048408,0.017992,-0.022437,-0.037496,-0.03193,0.038857,0.017597,0.048569,0.0025441,-0.48395,0.0022753,0.060907,-0.0077706,-0.027143,-0.0006927,-0.092363,0.033655,0.04025,0.016728,1.2461,0.11447,0.70875,0.043443,-0.20428
-0.046862,0.019354,-0.019997,-0.043873,-0.0332,0.047672,0.011991,0.044437,0.026227,-0.46888,0.026475,0.035971,-0.011784,-0.053146,-0.0057582,-0.10468,0.041411,0.047372,0.061616,1.5663,0.098283,0.62584,-0.0056086,-0.38638
-0.046876,0.021773,-0.0126,-0.0489,-0.034875,0.048218,0.0067668,0.04345,0.034041,-0.43834,0.042503,-0.012163,-0.0076263,-0.084589,-0.0048259,-0.11054,0.047603,0.054445,0.069268,1.8095,0.045533,0.5218,-0.054249,-0.63978
-0.047197,0.023498,-0.0044886,-0.050522,-0.034743,0.040193,0.0039355,0.0425,0.021324,-0.39175,0.050438,-0.085609,-0.0011051,-0.12161,0.0029395,-0.11149,0.051554,0.059385,0.01137,1.941,-0.032122,0.52278,-0.092228,-0.90825
-0.046779,0.023635,0.00062957,-0.046126,-0.02972,0.029203,0.0039401,0.038831,-0.0084459,-0.332,0.052687,-0.17801,-0.000272,-0.16317,0.014993,-0.11146,0.053756,0.061758,-0.094453,1.9428,-0.1098,0.6455,-0.12301,-1.1672
-0.045461,0.022522,0.0025235,-0.034675,-0.017723,0.022042,0.0056755,0.032059,-0.045669,-0.26476,0.051358,-0.27532,-0.010297,-0.20593,0.027137,-0.11458,0.054365,0.061892,-0.19356,1.8369,-0.16178,0.78326,-0.15631,-1.4329
-0.043966,0.020953,0.0039994,-0.018363,0.0011588,0.021637,0.0074647,0.023817,-0.080401,-0.19507,0.046908,-0.3617,-0.029275,-0.24491,0.035945,-0.12207,0.052111,0.059595,-0.2323,1.6823,-0.1739,0.79177,-0.19436,-1.7334
-0.043137,0.019158,0.0077901,-0.0021013,0.024727,0.025567,0.0080671,0.015841,-0.10797,-0.12395,0.039086,-0.42776,-0.048969,-0.27588,0.040193,-0.13099,0.044888,0.053936,-0.19565,1.5442,-0.14851,0.60864,-0.22381,-2.0684
-0.043077,0.016608,0.013877,0.0091778,0.049531,0.028784,0.0070182,0.0084879,-0.13033,-0.048087,0.028939,-0.47569,-0.06056,-0.29766,0.040628,-0.13644,0.031612,0.044209,-0.11623,1.4589,-0.099978,0.30729,-0.22141,-2.3966
-0.043009,0.012833,0.019625,0.01351,0.071853,0.027761,0.0044159,0.00096099,-0.15204,0.036314,0.019612,-0.51662,-0.06099,-0.31246,0.038713,-0.13584,0.013627,0.030919,-0.049876,1.4201,-0.044909,0.04029,-0.17035,-2.6621
-0.0421,0.0084275,0.022231,0.012838,0.088587,0.022742,0.00071493,-0.0071225,-0.17399,0.12834,0.014851,-0.56151,-0.054849,-0.32416,0.035434,-0.1321,-0.0057241,0.015689,-0.038263,1.3956,0.0063938,-0.07782,-0.074275,-2.8355
-0.040538,0.0051292,0.020913,0.011124,0.098046,0.016843,-0.0032548,-0.014449,-0.18999,0.21993,0.016264,-0.61207,-0.050635,-0.33604,0.030845,-0.13292,-0.02313,0.00014585,-0.086863,1.3575,0.052737,-0.047931,0.042547,-2.9278
-0.039788,0.0046878,0.016967,0.011215,0.10048,0.01337,-0.0063852,-0.01833,-0.18948,0.29864,0.021709,-0.65904,-0.055069,-0.34983,0.024344,-0.14655,-0.037245,-0.015042,-0.17176,1.301,0.098776,0.036544,0.14926,-2.9634
-0.041528,0.0073543,0.012178,0.013092,0.097901,0.013632,-0.0078061,-0.016547,-0.16489,0.35394,0.026408,-0.68919,-0.070306,-0.36602,0.015355,-0.17679,-0.048972,-0.029968,-0.2653,1.2402,0.14903,0.082497,0.2254,-2.9335
-0.045949,0.011327,0.0075614,0.01482,0.093047,0.016518,-0.0074844,-0.0092878,-0.11856,0.3825,0.026287,-0.69468,-0.095442,-0.38424,0.0040626,-0.22067,-0.060025,-0.044334,-0.35735,1.1893,0.20349,0.071487,0.2678,-2.7799
-0.050867,0.013786,0.003577,0.015033,0.088051,0.019612,-0.0062053,0.00044616,-0.063814,0.38862,0.021196,-0.67661,-0.12938,-0.40257,-0.0081461,-0.26979,-0.071096,-0.056563,-0.4555,1.1492,0.25729,0.053029,0.28407,-2.4297
-0.052696,0.012832,0.0010634,0.014524,0.083585,0.020828,-0.0047699,0.008468,-0.018796,0.38007,0.015515,-0.63994,-0.17126,-0.41666,-0.018845,-0.31379,-0.081058,-0.064249,-0.56717,1.111,0.30421,0.074473,0.28099,-1.8592
-0.048985,0.008862,0.0013076,0.015479,0.078951,0.019693,-0.0031945,0.011993,0.0035139,0.36281,0.015406,-0.58534,-0.21812,-0.42036,-0.025427,-0.34347,-0.087569,-0.065719,-0.68123,1.0693,0.34074,0.12205,0.25912,-1.134
-0.040708,0.004289,0.004853,0.019257,0.072838,0.017696,-0.00088993,0.011295,0.0026957,0.33861,0.024435,-0.50691,-0.26325,-0.40896,-0.026252,-0.35241,-0.088339,-0.061334,-0.76618,1.0299,0.36799,0.13012,0.21787,-0.38904
-0.032318,0.0017852,0.010364,0.02494,0.06417,0.017447,0.0022036,0.0091371,-0.0091028,0.30678,0.040706,-0.3989,-0.29893,-0.38308,-0.021346,-0.33739,-0.082178,-0.053321,-0.78649,1.0033,0.38993,0.045696,0.1641,0.23715
-0.02904,0.0023739,0.0151,0.030069,0.052697,0.020853,0.0047683,0.008361,-0.014654,0.26762,0.057797,-0.26584,-0.32257,-0.3501,-0.012144,-0.29877,-0.069417,-0.044169,-0.72355,0.98974,0.40995,-0.11727,0.11408,0.6672
-0.033165,0.0047894,0.016957,0.032829,0.039289,0.02735,0.0047753,0.0095076,-0.0018566,0.2243,0.069051,-0.12618,-0.3411,-0.32103,-0.00050362,-0.24098,-0.051811,-0.034884,-0.58459,0.97103,0.42836,-0.28633,0.085281,0.90364
-0.042248,0.006556,0.016215,0.033635,0.025851,0.033639,0.0014082,0.010443,0.029736,0.18165,0.072092,-0.0046391,-0.36831,-0.30404,0.01225,-0.17244,-0.032047,-0.024421,-0.39448,0.91822,0.4429,-0.39223,0.08451,0.99966
-0.050854,0.0059349,0.01522,0.034683,0.014686,0.035608,-0.0035361,0.0084289,0.06972,0.14318,0.07005,0.081615,-0.41483,-0.29892,0.025533,-0.10386,-0.012859,-0.010616,-0.17892,0.80979,0.45114,-0.42534,0.1031,1.0147
-0.054581,0.0032485,0.016119,0.037952,0.0073575,0.031374,-0.0064036,0.0030247,0.10363,0.1094,0.068505,0.13218,-0.47694,-0.29624,0.038912,-0.045498,0.0040781,0.0082341,0.04692,0.6463,0.4526,-0.43696,0.12372,0.98961
-0.053078,0.00059426,0.018747,0.043476,0.0037627,0.023085,-0.0043105,-0.0027108,0.12077,0.07909,0.070684,0.16107,-0.53277,-0.28162,0.051282,-0.0043635,0.018855,0.03218,0.27776,0.45055,0.44864,-0.48967,0.13336,0.94853
-0.049516,0.00021472,0.020691,0.049342,0.002293,0.015779,0.0025377,-0.0040082,0.11852,0.052602,0.075012,0.18534,-0.55061,-0.24203,0.060567,0.017333,0.032991,0.059297,0.51019,0.25446,0.44069,-0.6057,0.13166,0.90842
-0.04714,0.0028125,0.019455,0.053268,0.0012107,0.013886,0.010935,0.0020253,0.10168,0.034301,0.077068,0.21387,-0.50641,-0.1699,0.064346,0.022112,0.047953,0.086057,0.73633,0.08315,0.42874,-0.75883,0.12817,0.87854
-0.046123,0.0070921,0.014698,0.054292,0.00017254,0.018049,0.017157,0.013948,0.079015,0.031481,0.074066,0.24447,-0.40049,-0.063879,0.061206,0.015979,0.063439,0.10813,0.94417,-0.053258,0.41166,-0.91011,0.13168,0.85231
-0.043645,0.010794,0.0084932,0.053163,0.00045732,0.024808,0.019658,0.026864,0.059622,0.049924,0.067644,0.26951,-0.26247,0.071344,0.052077,0.0065588,0.076701,0.12155,1.1216,-0.1576,0.38867,-1.0482,0.14136,0.8085
-0.037055,0.012323,0.0034934,0.051321,0.0035214,0.029355,0.019673,0.036114,0.050453,0.089219,0.062329,0.28382,-0.13921,0.22332,0.040586,0.00091854,0.083706,0.12411,1.2591,-0.23844,0.36024,-1.1961,0.14697,0.72978
-0.026991,0.011706,0.00079048,0.049553,0.0091201,0.029042,0.019411,0.040748,0.054745,0.14171,0.061129,0.2883,-0.071007,0.36908,0.031797,0.0034389,0.081587,0.11649,1.349,-0.30395,0.32724,-1.3811,0.13726,0.62433
-0.017351,0.010271,-0.00069633,0.047563,0.014762,0.02483,0.019728,0.043832,0.071223,0.19642,0.062501,0.28766,-0.069526,0.47678,0.029719,0.014419,0.0708,0.10214,1.3854,-0.3598,0.28953,-1.6013,0.10899,0.52733
-0.011984,0.0094925,-0.0030107,0.044719,0.017092,0.019778,0.019455,0.049291,0.094769,0.24508,0.061682,0.28616,-0.11134,0.51654,0.035038,0.030244,0.055331,0.085802,1.368,-0.40993,0.24614,-1.8192,0.068876,0.47504
-0.011139,0.0099768,-0.0073767,0.041166,0.014043,0.016237,0.016854,0.058062,0.11903,0.28544,0.055197,0.28564,-0.15161,0.47762,0.044749,0.045322,0.040537,0.071285,1.3073,-0.45829,0.19762,-1.9876,0.027955,0.47182
-0.01111,0.011277,-0.013264,0.038202,0.0059786,0.01428,0.011676,0.066923,0.13977,0.31863,0.044278,0.28687,-0.14949,0.38086,0.054218,0.054897,0.029909,0.060135,1.2271,-0.51022,0.14844,-2.0834,-0.0064255,0.481
-0.0075643,0.012487,-0.018739,0.037552,-0.0049226,0.01248,0.00582,0.071076,0.1566,0.34302,0.033899,0.2914,-0.089351,0.2739,0.060285,0.057131,0.023029,0.051954,1.1571,-0.57298,0.10647,-2.1195,-0.03438,0.45141
0.00033522,0.013022,-0.021597,0.040171,-0.016216,0.0099315,0.002015,0.068257,0.1716,0.34997,0.028297,0.30111,0.014609,0.20799,0.062993,0.053298,0.016355,0.045914,1.1203,-0.6548,0.078442,-2.1297,-0.061242,0.35932
0.0087694,0.013012,-0.020557,0.045596,-0.026322,0.0073948,0.0017079,0.060823,0.18644,0.32645,0.027152,0.31565,0.13094,0.20944,0.064557,0.046153,0.0064669,0.042002,1.1213,-0.76223,0.064593,-2.1426,-0.092532,0.23049
0.01215,0.013125,-0.016055,0.052376,-0.034665,0.0065365,0.0039495,0.054044,0.20052,0.26326,0.025981,0.33038,0.23034,0.26542,0.066541,0.037723,-0.0065481,0.041016,1.1433,-0.89721,0.057189,-2.1643,-0.13048,0.12302
0.0075536,0.01404,-0.010321,0.059162,-0.04125,0.008187,0.0061124,0.052025,0.21206,0.16293,0.02032,0.33738,0.2992,0.3343,0.067933,0.027951,-0.018201,0.043639,1.1578,-1.0554,0.045297,-2.1795,-0.17351,0.084989
-0.0031113,0.015926,-0.0064428,0.065495,-0.04635,0.01141,0.0057669,0.054621,0.22013,0.041163,0.0097594,0.32924,0.34096,0.37274,0.066004,0.014946,-0.022128,0.049747,1.1392,-1.2262,0.022762,-2.1628,-0.21709,0.12019
-0.01486,0.018236,-0.0065489,0.071589,-0.050402,0.014239,0.0022491,0.057696,0.22514,-0.079423,-0.0018746,0.30292,0.36849,0.35979,0.059208,-0.0034377,-0.014435,0.05858,1.0758,-1.3947,-0.0068947,-2.09,-0.25393,0.18661
-0.02345,0.019932,-0.010103,0.07736,-0.053797,0.015243,-0.003141,0.05627,0.22698,-0.17831,-0.010182,0.26134,0.39461,0.30229,0.049326,-0.027668,0.0031805,0.069257,0.97189,-1.5427,-0.033068,-1.9434,-0.27456,0.22513
-0.027785,0.02006,-0.01373,0.081665,-0.056494,0.014345,-0.0082705,0.047887,0.22331,-0.24283,-0.014124,0.21204,0.42624,0.22204,0.040574,-0.055383,0.023747,0.08066,0.83982,-1.6514,-0.046604,-1.7139,-0.27014,0.19628
-0.029115,0.018399,-0.013234,0.082628,-0.057798,0.012305,-0.011677,0.033779,0.21119,-0.26814,-0.016495,0.16431,0.46292,0.13847,0.036264,-0.081784,0.038652,0.090603,0.69055,-1.705,-0.047549,-1.4026,-0.23804,0.10357
-0.028382,0.015808,-0.0067336,0.07902,-0.056638,0.0096887,-0.013339,0.017497,0.19144,-0.25433,-0.020626,0.12608,0.49795,0.060608,0.035939,-0.10158,0.042246,0.095505,0.52921,-1.6938,-0.045677,-1.0213,-0.18679,-0.0049119
-0.024672,0.013992,0.0034981,0.071664,-0.052093,0.0065933,-0.014228,0.0026328,0.17141,-0.20487,-0.026681,0.10129,0.52116,-0.0090241,0.03567,-0.11152,0.034591,0.091802,0.35842,-1.6162,-0.053037,-0.59254,-0.13533,-0.054373
-0.0163,0.014626,0.012241,0.063558,-0.043606,0.0033461,-0.01511,-0.0085087,0.16203,-0.12808,-0.031327,0.088511,0.52303,-0.067618,0.031329,-0.11198,0.020932,0.078773,0.18512,-1.4744,-0.07437,-0.1513,-0.10474,0.024377
-0.0032481,0.018215,0.015053,0.058243,-0.030621,0.0011399,-0.015613,-0.01485,0.17009,-0.038971,-0.03128,0.081609,0.49965,-0.11145,0.022039,-0.10646,0.0085037,0.060555,0.023522,-1.271,-0.10295,0.25392,-0.10645,0.25602
0.011739,0.023344,0.0117,0.057327,-0.012126,0.00156,-0.014412,-0.015973,0.19204,0.04234,-0.027382,0.073226,0.45618,-0.14183,0.010864,-0.099148,0.0027879,0.045068,-0.11005,-1.0082,-0.12499,0.5649,-0.13471,0.59225
0.024712,0.027026,0.0064384,0.058984,0.013171,0.0052144,-0.010411,-0.012016,0.21558,0.097129,-0.025055,0.059631,0.40578,-0.16944,0.0022909,-0.092164,0.0053013,0.039806,-0.20739,-0.69305,-0.12872,0.7311,-0.16915,0.9167
0.033375,0.026294,0.0046869,0.058871,0.045863,0.01084,-0.0039588,-0.0040262,0.22891,0.11635,-0.030181,0.043858,0.36403,-0.20999,-0.0012276,-0.084236,0.013876,0.047306,-0.27493,-0.34394,-0.11116,0.73874,-0.18676,1.0944
0.038588,0.020271,0.0086978,0.053171,0.084766,0.015977,0.0030285,0.0059752,0.23029,0.10565,-0.043675,0.034245,0.34139,-0.27301,-0.0008786,-0.071764,0.02487,0.063814,-0.32942,0.0088743,-0.077999,0.63333,-0.17583,1.0453
0.0432,0.011279,0.015807,0.04172,0.12674,0.018774,0.008224,0.015674,0.2296,0.083606,-0.059437,0.038716,0.33842,-0.35377,-0.00027834,-0.051359,0.035735,0.082303,-0.38392,0.33228,-0.038384,0.51183,-0.14246,0.7943
0.049398,0.0038549,0.020781,0.028684,0.16768,0.019295,0.01044,0.023439,0.23977,0.073706,-0.067637,0.058761,0.34599,-0.43654,-0.0028385,-0.022124,0.046285,0.097434,-0.43446,0.60306,0.0002346,0.47742,-0.10546,0.45644
0.057082,0.0019523,0.020277,0.019938,0.20396,0.019087,0.010294,0.028758,0.26545,0.094517,-0.060855,0.087765,0.35011,-0.50724,-0.0098935,0.013589,0.057974,0.10844,-0.45911,0.81483,0.033615,0.58105,-0.083096,0.16079
0.064559,0.006167,0.015566,0.018847,0.23308,0.019438,0.0095197,0.031815,0.29819,0.15302,-0.038369,0.11518,0.33862,-0.56448,-0.020645,0.051044,0.071783,0.11776,-0.43296,0.97414,0.059293,0.79141,-0.081073,-0.034114
0.070552,0.01312,0.011187,0.023709,0.25317,0.020057,0.0095987,0.032736,0.32249,0.24384,-0.0056196,0.13344,0.30694,-0.6191,-0.033281,0.084786,0.08633,0.12705,-0.34966,1.0897,0.075396,1.0185,-0.089957,-0.16819
0.075359,0.017688,0.010805,0.029051,0.262,0.01952,0.010906,0.031269,0.32708,0.35339,0.030105,0.1425,0.26122,-0.68214,-0.045916,0.11026,0.097715,0.13437,-0.23344,1.1645,0.08126,1.1752,-0.093472,-0.32965
0.080137,0.016525,0.014041,0.029961,0.25712,0.017096,0.012915,0.027063,0.31183,0.46532,0.06395,0.14908,0.21756,-0.75211,-0.056714,0.12496,0.10144,0.13518,-0.13112,1.1967,0.0783,1.2299,-0.081078,-0.56959
0.085365,0.010237,0.017137,0.026081,0.23749,0.014113,0.014993,0.020073,0.28489,0.56433,0.094592,0.16201,0.19679,-0.81303,-0.063684,0.12893,0.095276,0.12633,-0.087791,1.1867,0.068979,1.2108,-0.055157,-0.85417
0.090391,0.0026168,0.016759,0.021972,0.2055,0.013349,0.016898,0.01055,0.25354,0.63765,0.12209,0.18743,0.21571,-0.84539,-0.065048,0.12436,0.081093,0.10949,-0.12242,1.1425,0.0543,1.1625,-0.027484,-1.0945
0.094697,-0.0022884,0.013314,0.023452,0.16738,0.016762,0.018569,-0.0013086,0.21748,0.67555,0.14518,0.22691,0.27814,-0.84088,-0.060314,0.11447,0.064313,0.091003,-0.2194,1.0786,0.032896,1.0976,-0.0082365,-1.2262
0.099412,-0.0028553,0.010645,0.032835,0.13075,0.023526,0.019613,-0.01558,0.17056,0.67283,0.16076,0.27824,0.37086,-0.80836,-0.051098,0.10204,0.051165,0.078062,-0.34063,1.0095,0.0038221,0.98393,0.0031207,-1.2682
0.10701,-0.00039052,0.012337,0.046981,0.10091,0.03026,0.019178,-0.032285,0.10873,0.63098,0.16606,0.33677,0.46782,-0.76599,-0.040581,0.088639,0.045504,0.074281,-0.4477,0.94489,-0.028886,0.77849,0.017337,-1.3077
0.11885,0.0024896,0.01814,0.059724,0.078647,0.033441,0.016413,-0.050711,0.036464,0.55911,0.16148,0.39575,0.54129,-0.72631,-0.031551,0.074985,0.047229,0.077841,-0.51782,0.89022,-0.05466,0.47513,0.045679,-1.4267
0.13268,0.0039158,0.023939,0.066568,0.061334,0.032059,0.011171,-0.068896,-0.034432,0.47174,0.15121,0.44631,0.57415,-0.68656,-0.024484,0.062042,0.053179,0.083455,-0.54431,0.85055,-0.060786,0.12504,0.089321,-1.6324
0.14292,0.0036378,0.025405,0.067636,0.046371,0.028251,0.0043538,-0.08374,-0.092481,0.3837,0.14096,0.4787,0.56631,-0.6316,-0.017369,0.051823,0.059588,0.086366,-0.52604,0.83246,-0.040243,-0.18636,0.13691,-1.8501
0.14455,0.0024735,0.021936,0.066523,0.033461,0.025393,-0.0023213,-0.091825,-0.13395,0.30477,0.13436,0.48522,0.53223,-0.54566,-0.0076052,0.046965,0.064198,0.085332,-0.45836,0.84058,0.0031913,-0.3863,0.17228,-1.9822
0.13765,0.0013081,0.01723,0.06637,0.023493,0.025318,-0.0069383,-0.090782,-0.16379,0.23739,0.13104,0.4633,0.49185,-0.42202,0.0056442,0.049223,0.066675,0.082616,-0.335,0.87118,0.056971,-0.4503,0.18546,-1.9817
0.12871,0.0006083,0.01593,0.066925,0.015232,0.027028,-0.0080486,-0.080796,-0.1899,0.17832,0.12797,0.41626,0.4611,-0.26199,0.020789,0.057943,0.06752,0.081426,-0.15859,0.90924,0.10731,-0.40606,0.17778,-1.8813
0.12667,0.00055013,0.019479,0.065286,0.003615,0.027883,-0.0051811,-0.065458,-0.21615,0.12274,0.12276,0.35146,0.44657,-0.06515,0.035409,0.069692,0.066831,0.083039,0.051552,0.93308,0.14601,-0.3113,0.15735,-1.7613
0.13631,0.0012205,0.02496,0.05949,-0.017591,0.026045,0.00088874,-0.050976,-0.23979,0.067798,0.11598,0.27742,0.44551,0.17834,0.04844,0.079522,0.064104,0.085803,0.26341,0.9241,0.17136,-0.22571,0.13008,-1.6891
0.15427,0.002525,0.027809,0.051383,-0.050212,0.021991,0.0082376,-0.043322,-0.25454,0.013905,0.11042,0.20236,0.44896,0.48275,0.060637,0.083228,0.059018,0.086572,0.44654,0.87494,0.18392,-0.19159,0.095167,-1.6794
0.17127,0.0039893,0.025707,0.045856,-0.088012,0.017889,0.014398,-0.044535,-0.25593,-0.036075,0.10779,0.13425,0.44573,0.84897,0.072726,0.07933,0.052166,0.08327,0.58502,0.79012,0.18246,-0.22399,0.048935,-1.7024
0.17909,0.0048312,0.020107,0.046888,-0.11897,0.015609,0.017369,-0.050761,-0.24449,-0.078527,0.10602,0.080488,0.42639,1.246,0.083175,0.069591,0.044859,0.076565,0.67815,0.67955,0.16495,-0.30552,-0.0070872,-1.7223
0.17676,0.0043445,0.014369,0.053833,-0.1328,0.015241,0.016536,-0.054197,-0.22522,-0.11094,0.099637,0.045899,0.38698,1.6089,0.088225,0.057778,0.038197,0.069402,0.72893,0.55116,0.13375,-0.38612,-0.062276,-1.7313
0.17089,0.0022668,0.010675,0.061288,-0.12833,0.015307,0.012921,-0.048337,-0.20476,-0.13368,0.083326,0.029826,0.33163,1.86,0.084787,0.047431,0.032417,0.064794,0.73159,0.40901,0.099448,-0.39441,-0.1018,-1.7529
0.16996,-0.0011367,0.0087186,0.062838,-0.11501,0.014248,0.0085559,-0.032894,-0.18876,-0.15103,0.05567,0.02557,0.27188,1.946,0.073904,0.040107,0.027225,0.063542,0.67074,0.2576,0.078436,-0.26375,-0.11672,-1.8186
0.17735,-0.0052088,0.0069719,0.055703,-0.10711,0.011735,0.0054552,-0.014341,-0.18036,-0.17022,0.02009,0.023894,0.22163,1.8669,0.061435,0.035245,0.022712,0.063585,0.53417,0.10693,0.08485,0.035643,-0.1107,-1.9406
0.18887,-0.0090436,0.0046792,0.04262,-0.11463,0.0087211,0.0048513,-0.001185,-0.17946,-0.19785,-0.017786,0.01862,0.18947,1.6781,0.054735,0.031742,0.019736,0.061497,0.32852,-0.02804,0.12279,0.47594,-0.097315,-2.1015
0.19654,-0.011639,0.0022968,0.029572,-0.13745,0.0064079,0.0070197,0.0024809,-0.18293,-0.23562,-0.05405,0.0096902,0.17287,1.4607,0.05764,0.029968,0.019179,0.055044,0.083343,-0.13464,0.18473,0.97603,-0.089742,-2.2644
0.19504,-0.012261,0.0001319,0.02123,-0.16647,0.005127,0.011426,-7.3572e-005,-0.18613,-0.27902,-0.08846,0.00078366,0.15867,1.2793,0.067782,0.03257,0.020732,0.044903,-0.16054,-0.21065,0.25674,1.4303,-0.09074,-2.3911
0.1855,-0.011016,-0.0029254,0.017639,-0.19048,0.0040501,0.016827,-0.0012543,-0.18609,-0.32157,-0.12301,-0.0065493,0.13064,1.153,0.078539,0.043135,0.022565,0.034308,-0.3691,-0.26602,0.32594,1.7471,-0.090526,-2.4575
0.17369,-0.0091759,-0.0087598,0.014579,-0.20358,0.0018289,0.021378,0.0044171,-0.18429,-0.36236,-0.15862,-0.01671,0.080151,1.0593,0.084068,0.063486,0.022533,0.026938,-0.52487,-0.31578,0.38435,1.8788,-0.073791,-2.4575
0.16486,-0.0086953,-0.017836,0.0072459,-0.20803,-0.0023983,0.023113,0.015913,-0.1864,-0.41105,-0.19299,-0.03786,0.012845,0.96343,0.083295,0.091553,0.020025,0.024638,-0.62283,-0.36962,0.42793,1.8317,-0.03028,-2.3978
0.15965,-0.010948,-0.027718,-0.0055458,-0.21124,-0.0083274,0.020905,0.026951,-0.19823,-0.48491,-0.22134,-0.075246,-0.053604,0.85054,0.079721,0.12163,0.016741,0.026576,-0.66052,-0.42643,0.45371,1.6557,0.038773,-2.2884
0.15449,-0.015552,-0.034119,-0.019814,-0.2195,-0.01451,0.015293,0.031547,-0.22043,-0.59801,-0.23925,-0.12603,-0.1004,0.73628,0.077591,0.14711,0.015445,0.030155,-0.63562,-0.47825,0.4594,1.4208,0.12227,-2.1315
0.14534,-0.020369,-0.033929,-0.028844,-0.23315,-0.019029,0.0083599,0.028954,-0.24632,-0.74963,-0.245,-0.18054,-0.1204,0.65027,0.078033,0.16398,0.017523,0.032723,-0.55519,-0.52013,0.446,1.1912,0.20651,-1.9171
0.13137,-0.022906,-0.027642,-0.028014,-0.24628,-0.020477,0.0024962,0.023898,-0.26511,-0.92076,-0.23973,-0.22907,-0.12384,0.60903,0.078547,0.17257,0.021373,0.032753,-0.44589,-0.55771,0.42037,1.0065,0.28196,-1.6283
0.11522,-0.022088,-0.01907,-0.018522,-0.2509,-0.018736,-0.0010671,0.022321,-0.26827,-1.0823,-0.22574,-0.26807,-0.13189,0.60197,0.075949,0.17634,0.023097,0.02995,-0.35036,-0.60663,0.39381,0.87459,0.34447,-1.2591
0.1,-0.018895,-0.012583,-0.0070472,-0.2423,-0.01513,-0.0027459,0.026653,-0.25441,-1.2101,-0.20497,-0.29974,-0.16181,0.60038,0.06977,0.17873,0.01915,0.024711,-0.30686,-0.68447,0.37601,0.78016,0.39136,-0.83059
0.086199,-0.015299,-0.010245,-0.0013075,-0.22207,-0.011809,-0.0037288,0.034582,-0.22897,-1.2968,-0.17894,-0.32471,-0.21403,0.57961,0.062836,0.18045,0.0090277,0.017656,-0.32673,-0.80147,0.3684,0.70181,0.41668,-0.39276
0.071266,-0.012458,-0.011074,-0.0047082,-0.19662,-0.010644,-0.0046133,0.041898,-0.19986,-1.3519,-0.14965,-0.33441,-0.27123,0.53391,0.058611,0.17934,-0.0039727,0.0095079,-0.38957,-0.95559,0.36224,0.62848,0.41111,-0.0044099
0.052388,-0.0098776,-0.012636,-0.014211,-0.17272,-0.012282,-0.0048754,0.046353,-0.17284,-1.3914,-0.11999,-0.31089,-0.31082,0.47282,0.05794,0.17263,-0.0145,0.0010867,-0.46215,-1.1337,0.34396,0.56475,0.36726,0.29626
0.029544,-0.0063372,-0.013247,-0.023101,-0.15323,-0.015911,-0.0036348,0.049,-0.14995,-1.4247,-0.092458,-0.23657,-0.32158,0.40535,0.058287,0.15974,-0.018252,-0.006789,-0.52551,-1.3155,0.30468,0.52236,0.28659,0.5084
0.0058673,-0.0016541,-0.012887,-0.026288,-0.13598,-0.019893,-0.00084186,0.052135,-0.13072,-1.4484,-0.067466,-0.10831,-0.31142,0.32899,0.056062,0.14343,-0.014437,-0.013384,-0.58643,-1.4772,0.24746,0.50572,0.18208,0.65959
-0.015161,0.0025224,-0.012488,-0.023656,-0.11638,-0.022789,0.0024594,0.056223,-0.11412,-1.4508,-0.042881,0.054538,-0.30014,0.23404,0.049766,0.1283,-0.0060997,-0.017918,-0.66293,-1.594,0.18682,0.50361,0.073799,0.78049
-0.033032,0.0038479,-0.012749,-0.018766,-0.091413,-0.02411,0.0051939,0.058878,-0.098956,-1.4238,-0.015897,0.2155,-0.30294,0.11813,0.04103,0.11807,0.0017717,-0.019419,-0.75755,-1.6448,0.14036,0.49438,-0.019727,0.88567
-0.050802,0.0014293,-0.013703,-0.014543,-0.061927,-0.024308,0.0075949,0.056842,-0.083422,-1.3715,0.014191,0.33813,-0.31822,-0.0039742,0.032786,0.11356,0.0050876,-0.017112,-0.84368,-1.6202,0.11832,0.46036,-0.088418,0.97496
-0.0723,-0.0030321,-0.015156,-0.010305,-0.031904,-0.024168,0.011299,0.048927,-0.065159,-1.3099,0.044827,0.40477,-0.32972,-0.10604,0.026524,0.11261,0.0026923,-0.011451,-0.87869,-1.5311,0.11826,0.39943,-0.13108,1.0477
-0.098578,-0.0063301,-0.017089,-0.0031237,-0.0056284,-0.024122,0.017784,0.037052,-0.042501,-1.2565,0.072011,0.42465,-0.32101,-0.16739,0.021194,0.11165,-0.0035481,-0.0050009,-0.83335,-1.4112,0.12859,0.32446,-0.15029,1.1101
-0.12688,-0.0062894,-0.019367,0.0079374,0.014646,-0.02399,0.026438,0.024342,-0.01573,-1.2148,0.093781,0.42553,-0.29003,-0.18722,0.014572,0.10739,-0.010419,-0.0019288,-0.71199,-1.3061,0.13779,0.25172,-0.14714,1.1674
-0.15292,-0.0035695,-0.021143,0.019154,0.028941,-0.023227,0.034164,0.012139,0.013058,-1.1652,0.11229,0.43432,-0.25158,-0.18466,0.0055148,0.097725,-0.015502,-0.0057281,-0.54665,-1.2531,0.14204,0.18876,-0.12106,1.2111
-0.1741,-0.0011255,-0.020944,0.0242,0.038169,-0.021331,0.037263,-0.0011333,0.041472,-1.0684,0.13233,0.45956,-0.22565,-0.18499,-0.0050139,0.081961,-0.018339,-0.016532,-0.37106,-1.2617,0.14551,0.13172,-0.074911,1.2207
-0.19051,-0.001764,-0.017801,0.01946,0.042963,-0.018097,0.034253,-0.017991,0.06822,-0.8852,0.15722,0.48755,-0.22148,-0.20357,-0.0148,0.061106,-0.020043,-0.030277,-0.19703,-1.3086,0.15351,0.072787,-0.020073,1.1848
-0.20307,-0.0059145,-0.012481,0.0077005,0.043916,-0.013621,0.0273,-0.038481,0.093169,-0.60273,0.18526,0.49452,-0.23049,-0.23907,-0.021947,0.038324,-0.02198,-0.040914,-0.012137,-1.3527,0.16506,0.0094611,0.024751,1.1193
-0.21118,-0.011498,-0.0074685,-0.0035734,0.042683,-0.0082435,0.020885,-0.058567,0.11638,-0.25246,0.20979,0.46586,-0.23339,-0.27897,-0.025679,0.01888,-0.024723,-0.044397,0.20201,-1.3597,0.17158,-0.053426,0.042241,1.0644
-0.21248,-0.015834,-0.0052936,-0.007992,0.042272,-0.0025088,0.018626,-0.072152,0.13746,0.095241,0.22291,0.40849,-0.21535,-0.31063,-0.026085,0.0086689,-0.02802,-0.041458,0.44786,-1.3206,0.16309,-0.11035,0.027082,1.0556
-0.2051,-0.017709,-0.0064766,-0.0053903,0.045643,0.0029021,0.020781,-0.075362,0.15583,0.3612,0.22004,0.34781,-0.17656,-0.3285,-0.023686,0.011601,-0.03151,-0.036933,0.7038,-1.2502,0.13666,-0.16335,-0.0098682,1.094
-0.19018,-0.017756,-0.0089857,-0.0017569,0.053634,0.0073712,0.024443,-0.069604,0.17129,0.49652,0.20213,0.31162,-0.13051,-0.33379,-0.019563,0.027386,-0.035318,-0.036076,0.93377,-1.1706,0.099727,-0.22322,-0.04791,1.1435
-0.17186,-0.017042,-0.0099534,-0.0043114,0.064207,0.010586,0.026222,-0.060676,0.1836,0.50616,0.17453,0.31277,-0.0926,-0.32972,-0.015661,0.051395,-0.039941,-0.040803,1.1051,-1.0928,0.06517,-0.30141,-0.069294,1.1588
-0.15482,-0.015548,-0.0083494,-0.016122,0.074028,0.012593,0.025103,-0.054436,0.19156,0.44097,0.14383,0.3427,-0.069326,-0.31834,-0.014377,0.076879,-0.045656,-0.048732,1.2013,-1.0128,0.042264,-0.3981,-0.069201,1.1219
-0.14133,-0.012224,-0.0062326,-0.034629,0.081226,0.013556,0.023042,-0.052424,0.19279,0.36366,0.11535,0.3798,-0.056302,-0.30145,-0.017267,0.098088,-0.052174,-0.055527,1.2248,-0.92102,0.031044,-0.49599,-0.055947,1.0543
-0.13049,-0.0065409,-0.0072402,-0.054563,0.086956,0.013423,0.022882,-0.050914,0.18509,0.3125,0.092372,0.40564,-0.044928,-0.28293,-0.023882,0.11224,-0.058912,-0.058379,1.1909,-0.81479,0.024561,-0.56537,-0.042336,0.99724
-0.11989,0.00020398,-0.013359,-0.071928,0.094343,0.011805,0.025574,-0.044139,0.16853,0.2869,0.076604,0.41722,-0.030435,-0.26842,-0.031965,0.11932,-0.06551,-0.057785,1.1197,-0.70109,0.016601,-0.57917,-0.035895,0.97629
-0.1079,0.0054277,-0.022713,-0.085445,0.1057,0.0082109,0.029299,-0.029087,0.14586,0.26094,0.0687,0.42678,-0.014306,-0.26144,-0.039019,0.1205,-0.071901,-0.056492,1.0284,-0.5879,0.0078307,-0.52952,-0.03571,0.98005
-0.094504,0.0073614,-0.030461,-0.09502,0.12047,0.0024412,0.031269,-0.008082,0.1204,0.21019,0.068163,0.45041,-0.00052551,-0.25961,-0.043947,0.11667,-0.077701,-0.056882,0.92629,-0.47502,0.0050577,-0.43572,-0.037166,0.96536
-0.080259,0.0067126,-0.032347,-0.09984,0.13563,-0.0051401,0.030443,0.012745,0.092961,0.13011,0.073006,0.49406,0.009142,-0.25539,-0.047364,0.10845,-0.081549,-0.059039,0.81468,-0.35502,0.014606,-0.33721,-0.039094,0.88163
-0.065051,0.006142,-0.028056,-0.098689,0.14809,-0.013554,0.02849,0.027656,0.060614,0.035276,0.07979,0.54686,0.015888,-0.24198,-0.050439,0.097318,-0.081243,-0.060825,0.69193,-0.22438,0.035924,-0.27412,-0.046569,0.69611
-0.048244,0.0078708,-0.021506,-0.092228,0.1569,-0.021321,0.028041,0.034767,0.018943,-0.054238,0.084289,0.58577,0.020785,-0.21968,-0.05352,0.08656,-0.074899,-0.059486,0.56183,-0.093583,0.061119,-0.26638,-0.06743,0.4081
-0.030163,0.011613,-0.017746,-0.084448,0.16342,-0.026742,0.02992,0.036181,-0.033683,-0.12507,0.082569,0.58782,0.022297,-0.19681,-0.055844,0.080702,-0.06233,-0.053359,0.43768,0.015139,0.080714,-0.30496,-0.10642,0.049869
-0.013142,0.014853,-0.018996,-0.081011,0.16946,-0.028441,0.032106,0.035178,-0.093237,-0.17305,0.072264,0.54199,0.017718,-0.18359,-0.056468,0.083165,-0.045489,-0.042602,0.33714,0.082484,0.090538,-0.36155,-0.16207,-0.32308
-0.00051567,0.01533,-0.023182,-0.085275,0.17528,-0.026145,0.031524,0.033232,-0.15096,-0.19911,0.053809,0.45412,0.0070777,-0.18361,-0.055366,0.093592,-0.027459,-0.0289,0.27024,0.10742,0.094039,-0.40989,-0.22782,-0.65001
0.0060186,0.013494,-0.026116,-0.095333,0.17927,-0.02121,0.027032,0.029512,-0.19759,-0.20647,0.03113,0.3431,-0.005129,-0.19031,-0.053575,0.10708,-0.010642,-0.014625,0.2312,0.11023,0.098569,-0.44297,-0.29442,-0.88619
0.0083817,0.012575,-0.025266,-0.10486,0.17935,-0.016287,0.020782,0.023058,-0.228,-0.20196,0.010943,0.23189,-0.013033,-0.19178,-0.052308,0.11662,0.0044556,-0.0018946,0.20273,0.12046,0.10931,-0.47344,-0.35075,-1.0174
0.011381,0.016027,-0.021713,-0.1074,0.17496,-0.013943,0.016604,0.015199,-0.24323,-0.19656,0.00016677,0.13847,-0.014887,-0.18024,-0.051939,0.11757,0.018927,0.0082873,0.17102,0.1594,0.12594,-0.51794,-0.38373,-1.059
0.019564,0.024454,-0.018668,-0.10081,0.16761,-0.015069,0.016807,0.0095543,-0.24894,-0.20038,0.0023663,0.070814,-0.015643,-0.15836,-0.051791,0.11108,0.0339,0.016551,0.13859,0.23028,0.14409,-0.57945,-0.38062,-1.0401
0.034217,0.034697,-0.018131,-0.088689,0.16001,-0.018308,0.020204,0.0092504,-0.25146,-0.21368,0.015433,0.026993,-0.023719,-0.13707,-0.050882,0.10338,0.049031,0.024866,0.12273,0.32209,0.15927,-0.64271,-0.33516,-0.98697
0.052981,0.041963,-0.019026,-0.077936,0.1544,-0.021123,0.023052,0.013841,-0.25401,-0.22267,0.032592,-0.00080286,-0.044461,-0.12675,-0.048913,0.10094,0.06234,0.035259,0.13974,0.42161,0.16946,-0.68626,-0.25352,-0.91605
0.072195,0.043313,-0.018586,-0.07453,0.15168,-0.02173,0.022039,0.018986,-0.25519,-0.20615,0.046618,-0.021222,-0.075869,-0.12919,-0.046653,0.10513,0.071596,0.048169,0.18846,0.52239,0.17469,-0.69992,-0.15417,-0.83708
0.089654,0.039712,-0.015589,-0.08027,0.15145,-0.020304,0.016797,0.019628,-0.25044,-0.14977,0.054516,-0.04049,-0.11009,-0.13697,-0.045401,0.11076,0.076172,0.061695,0.24776,0.62377,0.17502,-0.6926,-0.059433,-0.75444
0.1054,0.035053,-0.012093,-0.092044,0.15252,-0.01847,0.0099925,0.014147,-0.2356,-0.056904,0.05914,-0.062477,-0.13902,-0.14034,-0.045957,0.11011,0.077769,0.072579,0.29017,0.72266,0.16982,-0.68481,0.015872,-0.66118
0.12033,0.033056,-0.011734,-0.1035,0.15326,-0.017644,0.0050727,0.0058498,-0.21008,0.05298,0.066479,-0.091199,-0.15914,-0.13541,-0.047897,0.099307,0.079244,0.078332,0.29961,0.80747,0.159,-0.69385,0.069921,-0.53494
0.13442,0.034538,-0.015984,-0.10801,0.15184,-0.017811,0.0035899,0.00032263,-0.1779,0.15679,0.080836,-0.13286,-0.17214,-0.12671,-0.049704,0.081686,0.082291,0.078823,0.27814,0.86202,0.14452,-0.72492,0.10931,-0.35004
0.14652,0.037081,-0.021969,-0.10173,0.147,-0.017836,0.0041233,0.00077083,-0.14565,0.24071,0.10187,-0.19464,-0.18193,-0.12232,-0.049707,0.065276,0.085788,0.075943,0.23784,0.87806,0.12988,-0.77374,0.13905,-0.10489
0.15573,0.037113,-0.024184,-0.085457,0.13917,-0.016922,0.0034843,0.0053037,-0.11901,0.30353,0.12569,-0.28011,-0.1914,-0.12649,-0.047137,0.056392,0.086246,0.071652,0.18737,0.86617,0.11738,-0.83442,0.15643,0.15801
0.16276,0.032662,-0.018948,-0.064414,0.13092,-0.015731,-0.00080164,0.0085048,-0.10005,0.34989,0.14858,-0.38471,-0.20157,-0.13649,-0.042577,0.054851,0.080251,0.066216,0.12634,0.85417,0.10566,-0.90193,0.15414,0.36372
0.17007,0.024799,-0.0077696,-0.045629,0.12577,-0.016087,-0.008571,0.0059589,-0.087054,0.38164,0.16941,-0.49547,-0.21259,-0.14611,-0.037499,0.054787,0.067183,0.058323,0.051608,0.87107,0.090118,-0.96656,0.12896,0.44712
0.1808,0.017006,0.0034204,-0.034236,0.1256,-0.019501,-0.017028,-0.0020896,-0.076707,0.39586,0.1887,-0.59632,-0.22475,-0.15219,-0.033309,0.050129,0.05016,0.046928,-0.032634,0.92704,0.066268,-1.0086,0.086992,0.39426
0.1979,0.013157,0.0087028,-0.030873,0.12865,-0.025829,-0.022698,-0.010974,-0.066682,0.39027,0.20535,-0.67586,-0.23824,-0.15778,-0.030587,0.03985,0.034446,0.033022,-0.11202,1.0049,0.033391,-1.0038,0.040424,0.24832
0.22378,0.015455,0.006673,-0.031886,0.13005,-0.03322,-0.023969,-0.015423,-0.056701,0.36948,0.21503,-0.73198,-0.25234,-0.16876,-0.028989,0.028539,0.024347,0.019489,-0.17001,1.0713,-0.0047257,-0.93994,-0.0010744,0.075515
0.25974,0.023352,0.0013579,-0.032121,0.12486,-0.039382,-0.022383,-0.013706,-0.047664,0.34523,0.21232,-0.76983,-0.26573,-0.187,-0.027766,0.02214,0.020632,0.0090058,-0.19954,1.1003,-0.04252,-0.83079,-0.035681,-0.07824
0.3046,0.033795,-0.0011045,-0.028236,0.1117,-0.043114,-0.021592,-0.0087161,-0.040091,0.33027,0.19508,-0.79508,-0.27771,-0.20635,-0.02648,0.022789,0.020022,0.0017298,-0.20803,1.0921,-0.076381,-0.71364,-0.066602,-0.20318
0.35298,0.042575,0.0027223,-0.020278,0.093817,-0.044882,-0.024596,-0.0053349,-0.033518,0.33165,0.16681,-0.80772,-0.28917,-0.21541,-0.025464,0.027113,0.016918,-0.0051865,-0.21172,1.071,-0.10618,-0.62749,-0.094486,-0.30695
0.39516,0.046198,0.011031,-0.010765,0.077005,-0.046024,-0.031204,-0.0064696,-0.027251,0.34869,0.1342,-0.80106,-0.30182,-0.2052,-0.025711,0.029094,0.0063595,-0.01578,-0.22489,1.0656,-0.13367,-0.58807,-0.11333,-0.38804
0.41992,0.043484,0.018299,-0.002437,0.065678,-0.047258,-0.037714,-0.011042,-0.021442,0.37562,0.10171,-0.76635,-0.31624,-0.17599,-0.028188,0.024791,-0.013252,-0.032486,-0.25332,1.0858,-0.15982,-0.57987,-0.1146,-0.43212
0.41924,0.036061,0.019524,0.0035243,0.060273,-0.047781,-0.03928,-0.015311,-0.017107,0.40446,0.068149,-0.699,-0.33087,-0.13802,-0.032885,0.015101,-0.038889,-0.054359,-0.2963,1.1151,-0.18367,-0.57206,-0.096039,-0.43296
0.392,0.027334,0.013946,0.00775,0.057699,-0.045803,-0.033408,-0.016054,-0.014847,0.42543,0.02882,-0.60213,-0.34303,-0.10602,-0.038248,0.0048048,-0.06385,-0.077366,-0.35357,1.1237,-0.20368,-0.54493,-0.066415,-0.41026
0.34433,0.020416,0.0055964,0.011684,0.054172,-0.040174,-0.022078,-0.012849,-0.013531,0.42676,-0.01845,-0.48519,-0.35134,-0.091426,-0.041595,-0.00085902,-0.080825,-0.096371,-0.42908,1.0897,-0.21966,-0.50423,-0.041277,-0.39855
0.28649,0.016278,0.00042939,0.01628,0.047958,-0.031774,-0.010824,-0.0078238,-0.010418,0.39767,-0.068995,-0.3596,-0.35714,-0.097355,-0.040524,0.00055896,-0.085744,-0.10751,-0.52722,1.0103,-0.23317,-0.47166,-0.032803,-0.41386
0.22856,0.013406,0.0021605,0.021198,0.039916,-0.023379,-0.0052724,-0.0036131,-0.0029606,0.33468,-0.11319,-0.23474,-0.36348,-0.11861,-0.034503,0.0075641,-0.080153,-0.10974,-0.64516,0.89681,-0.24611,-0.46089,-0.042451,-0.43258
0.17738,0.0092598,0.0097531,0.024765,0.031786,-0.017932,-0.0074989,-0.001533,0.0090712,0.24612,-0.14327,-0.11698,-0.37251,-0.14543,-0.025485,0.015819,-0.070192,-0.10489,-0.76934,0.7592,-0.25928,-0.46083,-0.062271,-0.41014
0.13562,0.0024519,0.01828,0.024659,0.024122,-0.016576,-0.014776,-0.0013256,0.022982,0.14951,-0.15905,-0.011947,-0.38369,-0.16815,-0.016971,0.020496,-0.062454,-0.096525,-0.88127,0.59674,-0.27253,-0.44079,-0.082705,-0.32936
0.10231,-0.0060264,0.022461,0.019093,0.015833,-0.018096,-0.021581,-0.0020987,0.034655,0.062392,-0.16697,0.072837,-0.39428,-0.1808,-0.012097,0.018621,-0.059533,-0.088045,-0.96901,0.40273,-0.28617,-0.37285,-0.099186,-0.23657
0.074006,-0.013521,0.02025,0.008047,0.0056524,-0.020253,-0.023389,-0.0031483,0.041078,-0.0058442,-0.17307,0.12831,-0.40144,-0.18282,-0.012053,0.010386,-0.05876,-0.081286,-1.0346,0.17776,-0.3015,-0.25279,-0.11189,-0.22888
0.046485,-0.017773,0.013877,-0.0061178,-0.00604,-0.021818,-0.019503,-0.003946,0.042015,-0.053815,-0.17594,0.14882,-0.40409,-0.17909,-0.015857,-0.0012213,-0.055314,-0.076267,-1.0894,-0.0624,-0.31929,-0.1036,-0.12031,-0.39438
0.016802,-0.018627,0.0077641,-0.019315,-0.016994,-0.023495,-0.012956,-0.0038025,0.039761,-0.079945,-0.16578,0.13871,-0.40325,-0.17799,-0.021409,-0.012397,-0.047195,-0.07225,-1.1395,-0.29249,-0.33742,0.039137,-0.11937,-0.74506
-0.01492,-0.018017,0.0051941,-0.027574,-0.024835,-0.026902,-0.0078534,-0.0021145,0.037382,-0.074943,-0.1307,0.11426,-0.40121,-0.18788,-0.026809,-0.020947,-0.037742,-0.069108,-1.1718,-0.49245,-0.35038,0.14754,-0.10211,-1.189
-0.045445,-0.018359,0.0064642,-0.029109,-0.029232,-0.032571,-0.0064099,0.00077404,0.036864,-0.024139,-0.065079,0.096516,-0.40045,-0.21275,-0.030992,-0.027431,-0.033303,-0.067663,-1.1541,-0.65847,-0.35204,0.21414,-0.066696,-1.5619
-0.070631,-0.020744,0.0096918,-0.025264,-0.032381,-0.038775,-0.0079771,0.0031448,0.038354,0.079913,0.026129,0.097554,-0.40296,-0.24952,-0.03352,-0.03404,-0.037883,-0.068584,-1.0515,-0.80182,-0.33967,0.25222,-0.020728,-1.7011
-0.088539,-0.024356,0.013018,-0.019606,-0.03721,-0.042302,-0.010488,0.0028636,0.040722,0.2247,0.12945,0.11014,-0.4095,-0.28901,-0.034195,-0.042135,-0.049381,-0.070899,-0.85091,-0.93873,-0.31581,0.28775,0.022195,-1.5249
-0.1009,-0.027351,0.015892,-0.015702,-0.04483,-0.040623,-0.012653,-0.0007164,0.042836,0.37743,0.22888,0.11078,-0.41874,-0.32051,-0.033078,-0.050694,-0.060757,-0.071882,-0.57557,-1.0813,-0.28595,0.34835,0.051423,-1.0756
-0.11156,-0.028278,0.018443,-0.015103,-0.05355,-0.033737,-0.014782,-0.0056502,0.044611,0.50089,0.31136,0.07682,-0.4272,-0.33745,-0.030844,-0.057251,-0.065236,-0.068926,-0.28044,-1.236,-0.25431,0.4521,0.065843,-0.50514
-0.12323,-0.026926,0.020145,-0.016873,-0.060375,-0.024297,-0.017651,-0.0084811,0.04716,0.57593,0.36953,0.0060811,-0.43099,-0.34055,-0.028795,-0.06056,-0.061141,-0.061965,-0.028623,-1.4056,-0.22157,0.59824,0.07194,-0.0011336
-0.13553,-0.024225,0.019733,-0.018858,-0.063603,-0.015919,-0.020801,-0.0069239,0.051904,0.61433,0.40178,-0.07695,-0.42856,-0.33644,-0.028194,-0.062458,-0.05235,-0.05405,0.13674,-1.5861,-0.18699,0.76335,0.074957,0.3106
-0.14609,-0.021577,0.016726,-0.019519,-0.064105,-0.010938,-0.022242,-0.0018145,0.059152,0.6514,0.41096,-0.1352,-0.42234,-0.33289,-0.029396,-0.066941,-0.044212,-0.04904,0.20874,-1.7571,-0.15266,0.90746,0.071531,0.43372
-0.15362,-0.020147,0.012799,-0.018851,-0.064156,-0.0091098,-0.020066,0.0036228,0.067112,0.72269,0.40228,-0.14409,-0.41714,-0.33398,-0.031653,-0.077049,-0.038633,-0.048085,0.21218,-1.8757,-0.12526,0.98956,0.051355,0.48997
-0.15974,-0.020343,0.011035,-0.017766,-0.065035,-0.0080803,-0.014495,0.0066967,0.072214,0.84117,0.38058,-0.10844,-0.41617,-0.33828,-0.033923,-0.092175,-0.03256,-0.047991,0.18268,-1.8875,-0.11271,0.98485,0.0072705,0.62776
-0.16765,-0.021565,0.013226,-0.016754,-0.065797,-0.0051933,-0.008272,0.007639,0.070764,0.99131,0.34807,-0.058062,-0.41784,-0.3407,-0.035948,-0.10814,-0.020934,-0.043248,0.14386,-1.7566,-0.1178,0.8937,-0.055066,0.91052
-0.17889,-0.022399,0.017772,-0.01521,-0.064395,0.00057966,-0.0047636,0.0090758,0.060841,1.1436,0.30392,-0.025592,-0.41664,-0.33596,-0.038471,-0.11995,-0.0013268,-0.030288,0.097398,-1.4964,-0.13437,0.7376,-0.11731,1.2687
-0.19134,-0.021449,0.020597,-0.012148,-0.059998,0.0078616,-0.0053214,0.012989,0.043037,1.2769,0.2465,-0.024447,-0.40747,-0.32117,-0.042309,-0.12497,0.023784,-0.010489,0.031084,-1.1763,-0.14985,0.54693,-0.15945,1.5568
-0.20064,-0.018466,0.018687,-0.0075672,-0.054168,0.013739,-0.0082305,0.018151,0.019594,1.3898,0.17647,-0.0437,-0.38987,-0.29652,-0.047201,-0.12432,0.048774,0.010587,-0.062661,-0.89225,-0.15258,0.34963,-0.17304,1.672
-0.20363,-0.014902,0.013078,-0.0030079,-0.049697,0.015678,-0.010254,0.020716,-0.0069937,1.4904,0.098405,-0.061649,-0.36823,-0.26451,-0.051692,-0.12168,0.068795,0.027015,-0.17232,-0.71646,-0.13845,0.16645,-0.16516,1.6376
-0.20059,-0.013127,0.0082922,-0.00053283,-0.04822,0.013158,-0.009501,0.017615,-0.03425,1.5741,0.019688,-0.064398,-0.34783,-0.22924,-0.054272,-0.12084,0.082328,0.036143,-0.26807,-0.65965,-0.11182,0.011231,-0.14984,1.5813
-0.19404,-0.014597,0.0084614,-0.00089266,-0.048885,0.0078594,-0.0072063,0.0095716,-0.058476,1.6101,-0.052058,-0.053235,-0.33046,-0.1958,-0.054697,-0.12361,0.0905,0.03923,-0.3174,-0.67312,-0.080756,-0.109,-0.13456,1.6281
-0.18532,-0.018416,0.013642,-0.0025512,-0.049353,0.0023059,-0.0069508,0.00079604,-0.073663,1.5533,-0.11084,-0.036678,-0.31367,-0.16962,-0.054141,-0.12902,0.094405,0.039054,-0.30467,-0.68895,-0.051356,-0.19609,-0.11431,1.801
-0.1722,-0.021675,0.019796,-0.0026097,-0.048187,-0.001989,-0.011973,-0.0044248,-0.072912,1.3777,-0.15278,-0.017892,-0.29406,-0.15484,-0.054024,-0.13417,0.093372,0.037051,-0.24106,-0.6691,-0.025651,-0.26232,-0.078808,2.0126
-0.15008,-0.021533,0.022493,0.00097523,-0.046428,-0.0054054,-0.022656,-0.005094,-0.052746,1.106,-0.17649,0.008188,-0.27139,-0.15265,-0.05468,-0.13606,0.085847,0.032509,-0.15874,-0.62849,-0.0038737,-0.32727,-0.026629,2.1475
-0.11597,-0.017395,0.020823,0.0076744,-0.046901,-0.0094569,-0.035966,-0.0037593,-0.017455,0.80963,-0.18457,0.044438,-0.24937,-0.16056,-0.055168,-0.13357,0.071787,0.024132,-0.0942,-0.61783,0.012423,-0.40959,0.02725,2.1565
-0.071787,-0.011326,0.017793,0.014611,-0.051738,-0.015061,-0.047108,-0.0036205,0.020798,0.57406,-0.18506,0.078751,-0.23243,-0.17348,-0.05427,-0.12835,0.053854,0.012064,-0.071753,-0.68189,0.02013,-0.51776,0.058638,2.0825
-0.02444,-0.0063509,0.016917,0.018585,-0.060129,-0.021328,-0.05215,-0.0053923,0.047913,0.45201,-0.19014,0.083872,-0.22155,-0.18581,-0.051557,-0.12373,0.035935,-0.0017022,-0.096891,-0.82509,0.01751,-0.64465,0.051561,2.005
0.017527,-0.0041414,0.01844,0.018314,-0.068138,-0.025913,-0.050025,-0.0068721,0.056584,0.43901,-0.2105,0.033921,-0.21318,-0.19333,-0.047432,-0.12219,0.020267,-0.014813,-0.1611,-1.0075,0.0070401,-0.76773,0.011971,1.9647
0.047903,-0.0040337,0.018946,0.015186,-0.070911,-0.026657,-0.042852,-0.0054221,0.051347,0.48795,-0.24799,-0.07442,-0.20228,-0.19406,-0.042333,-0.12327,0.0059692,-0.026384,-0.25216,-1.1702,-0.0051673,-0.8532,-0.033973,1.9363
0.064693,-0.0040054,0.014779,0.012088,-0.06589,-0.023131,-0.034592,-0.00080645,0.045391,0.54854,-0.292,-0.21428,-0.18642,-0.18811,-0.036221,-0.12385,-0.0094251,-0.037426,-0.36171,-1.2677,-0.013315,-0.86249,-0.056554,1.8639
0.069287,-0.002477,0.0059158,0.011382,-0.054812,-0.016825,-0.028893,0.0043354,0.05081,0.59896,-0.32358,-0.34259,-0.16737,-0.17736,-0.029092,-0.12075,-0.026813,-0.049574,-0.48525,-1.285,-0.015819,-0.76135,-0.041721,1.7144
0.064502,0.00068366,-0.0035495,0.013584,-0.042986,-0.0099224,-0.027318,0.0067009,0.069593,0.64678,-0.32582,-0.42577,-0.14878,-0.16493,-0.021924,-0.11363,-0.043802,-0.063361,-0.6164,-1.232,-0.015667,-0.53311,0.0011965,1.4977
0.053358,0.0045152,-0.0088138,0.017563,-0.036037,-0.003792,-0.028921,0.0050447,0.092533,0.70516,-0.29404,-0.45732,-0.13258,-0.15404,-0.016744,-0.10538,-0.056266,-0.077583,-0.74129,-1.1251,-0.01698,-0.19365,0.047979,1.2484
0.03902,0.0078839,-0.008448,0.021695,-0.036175,0.0015591,-0.031271,0.00098027,0.10706,0.77061,-0.2391,-0.45476,-0.11768,-0.1466,-0.015288,-0.099505,-0.061851,-0.090179,-0.83902,-0.97587,-0.02091,0.20039,0.076521,0.99969
0.024918,0.0099298,-0.005331,0.024795,-0.040621,0.0068061,-0.032168,-0.0025909,0.10782,0.82307,-0.18221,-0.44096,-0.10207,-0.1421,-0.017331,-0.096858,-0.062164,-0.099739,-0.8892,-0.7926,-0.024474,0.56117,0.079391,0.78132
0.014177,0.0098954,-0.0037226,0.026117,-0.04352,0.012247,-0.030861,-0.0037683,0.10137,0.84447,-0.14548,-0.42737,-0.086001,-0.13809,-0.020395,-0.09482,-0.061463,-0.10633,-0.88203,-0.59052,-0.023215,0.80106,0.064184,0.63156
0.0086446,0.0070323,-0.0054298,0.024804,-0.040178,0.017386,-0.028079,-0.0026933,0.10116,0.8339,-0.14442,-0.41247,-0.072786,-0.13193,-0.021453,-0.089879,-0.063015,-0.11104,-0.82392,-0.39552,-0.01531,0.87444,0.044269,0.59255
0.0085712,0.0010849,-0.0086959,0.01974,-0.030537,0.021398,-0.025094,-0.00081547,0.11668,0.80303,-0.18547,-0.39329,-0.066053,-0.12258,-0.019325,-0.081247,-0.066489,-0.11481,-0.73412,-0.2358,-0.0036575,0.80558,0.029025,0.67711
0.013356,-0.0070656,-0.010613,0.01032,-0.019199,0.023835,-0.022731,0.00057427,0.14525,0.75772,-0.26684,-0.37546,-0.065697,-0.11082,-0.015603,-0.071988,-0.068827,-0.11766,-0.63426,-0.12772,0.0057075,0.68036,0.020788,0.83686
0.022534,-0.015457,-0.010419,-0.0024817,-0.011911,0.024842,-0.021066,0.001203,0.17285,0.6868,-0.37959,-0.36985,-0.066338,-0.09787,-0.013185,-0.066371,-0.067626,-0.11889,-0.53778,-0.068992,0.0076269,0.60071,0.018389,0.97462
0.035854,-0.022039,-0.010361,-0.015885,-0.011254,0.024788,-0.019823,0.0016061,0.18392,0.57127,-0.50834,-0.37891,-0.060045,-0.083924,-0.013644,-0.06578,-0.063681,-0.11809,-0.44649,-0.045811,0.0012733,0.62787,0.021559,1.0073
0.05238,-0.025824,-0.013344,-0.026514,-0.014947,0.023838,-0.018897,0.0023357,0.17274,0.40458,-0.63385,-0.38754,-0.041433,-0.068001,-0.01583,-0.067027,-0.060201,-0.11576,-0.3557,-0.047006,-0.0093311,0.75179,0.031134,0.9317
0.069793,-0.027182,-0.019774,-0.032309,-0.01804,0.021965,-0.018466,0.0033103,0.14856,0.20191,-0.7392,-0.37016,-0.011123,-0.049277,-0.016984,-0.064744,-0.059559,-0.11315,-0.26322,-0.071668,-0.017919,0.9077,0.045391,0.83128
0.085005,-0.027072,-0.026697,-0.033643,-0.017061,0.019304,-0.018701,0.0036799,0.13027,-0.013429,-0.81654,-0.3099,0.025156,-0.028384,-0.015352,-0.055796,-0.060908,-0.11128,-0.17471,-0.12298,-0.019803,1.0265,0.057266,0.80591
0.095701,-0.026052,-0.030055,-0.03267,-0.012663,0.016335,-0.01949,0.0022088,0.13413,-0.23389,-0.86883,-0.21341,0.060963,-0.0072366,-0.011856,-0.041772,-0.061141,-0.11029,-0.10165,-0.19495,-0.014464,1.0798,0.056546,0.87865
0.10124,-0.024019,-0.027985,-0.031367,-0.0087114,0.013556,-0.020512,-0.0020042,0.16298,-0.47588,-0.90381,-0.10749,0.093365,0.012535,-0.0092613,-0.027489,-0.058321,-0.10951,-0.054464,-0.26649,-0.0055453,1.087,0.036255,0.95965
0.10189,-0.020839,-0.022269,-0.029907,-0.0088045,0.010914,-0.02154,-0.0087983,0.20425,-0.75878,-0.9245,-0.020019,0.12366,0.030909,-0.0096163,-0.017074,-0.054144,-0.10819,-0.036885,-0.31154,0.0012655,1.0831,-0.0018407,0.90512
0.097327,-0.017064,-0.01684,-0.026717,-0.013292,0.0076059,-0.02261,-0.01671,0.23834,-1.0694,-0.92512,0.038119,0.15449,0.049032,-0.012333,-0.01117,-0.052849,-0.10606,-0.045638,-0.31863,0.00090441,1.0777,-0.047354,0.62917
0.086253,-0.013953,-0.014806,-0.020176,-0.019259,0.0026429,-0.023807,-0.023597,0.25148,-1.344,-0.89725,0.075038,0.18635,0.067134,-0.01464,-0.007425,-0.057403,-0.10321,-0.07429,-0.30373,-0.009273,1.0421,-0.087254,0.17899
0.067995,-0.012709,-0.016471,-0.010515,-0.023297,-0.0041654,-0.024923,-0.027917,0.24426,-1.4904,-0.84156,0.10415,0.21679,0.082631,-0.013901,-0.0032275,-0.066471,-0.09962,-0.11653,-0.30374,-0.029004,0.93329,-0.1132,-0.28848
0.044448,-0.013657,-0.019672,-0.00026897,-0.024521,-0.011639,-0.025412,-0.029802,0.22995,-1.4403,-0.7739,0.12961,0.24287,0.090411,-0.0096104,0.0021205,-0.075074,-0.094918,-0.16569,-0.35343,-0.055621,0.73211,-0.12495,-0.61171
0.019955,-0.016042,-0.02175,0.0071376,-0.025191,-0.017718,-0.024851,-0.030955,0.22452,-1.198,-0.71855,0.14521,0.26413,0.085625,-0.0033812,0.0075666,-0.078509,-0.088779,-0.21191,-0.46148,-0.085144,0.46152,-0.12795,-0.73083
-0.0014023,-0.018539,-0.021438,0.009616,-0.028459,-0.020839,-0.023523,-0.033277,0.23577,-0.84766,-0.69237,0.14655,0.28303,0.067227,0.0027191,0.012043,-0.07612,-0.081516,-0.24173,-0.60258,-0.11376,0.16985,-0.12802,-0.71765
-0.018802,-0.020002,-0.019388,0.0077528,-0.035287,-0.02121,-0.022559,-0.03724,0.25933,-0.51401,-0.69254,0.14266,0.30244,0.039717,0.0076439,0.015669,-0.071671,-0.074298,-0.24269,-0.73077,-0.13932,-0.10498,-0.12771,-0.71447
-0.034872,-0.019959,-0.01732,0.0043114,-0.043343,-0.020954,-0.023363,-0.041396,0.28366,-0.30071,-0.69848,0.15327,0.32284,0.011698,0.011304,0.01926,-0.070026,-0.068747,-0.21067,-0.80457,-0.1621,-0.35894,-0.12672,-0.83412
-0.052511,-0.018692,-0.016717,0.0023573,-0.048968,-0.022883,-0.026695,-0.043567,0.2993,-0.24575,-0.68665,0.19235,0.34205,-0.0079349,0.01347,0.022938,-0.072951,-0.066178,-0.15377,-0.80727,-0.18396,-0.61402,-0.12517,-1.0936
-0.071209,-0.017003,-0.017985,0.0034104,-0.050527,-0.028725,-0.03211,-0.04277,0.30467,-0.31889,-0.64639,0.25225,0.35784,-0.0138,0.013257,0.025535,-0.077486,-0.066903,-0.088276,-0.75066,-0.20618,-0.88766,-0.12578,-1.4185
-0.086565,-0.015744,-0.020402,0.0068376,-0.050148,-0.038013,-0.038212,-0.040211,0.30425,-0.45513,-0.58445,0.30385,0.37031,-0.0056655,0.010023,0.025537,-0.078076,-0.069924,-0.028821,-0.66215,-0.22731,-1.1665,-0.13255,-1.7005
-0.093782,-0.015251,-0.02267,0.010681,-0.052099,-0.048314,-0.043524,-0.038462,0.30153,-0.5964,-0.51627,0.31449,0.38179,0.012647,0.0046733,0.022639,-0.070665,-0.073153,0.019833,-0.56567,-0.24306,-1.4063,-0.14669,-1.8601
-0.092063,-0.014985,-0.023632,0.013132,-0.059102,-0.056531,-0.047321,-0.039529,0.29334,-0.71357,-0.45265,0.27041,0.39399,0.035932,-0.00035371,0.018346,-0.055606,-0.074212,0.062494,-0.46893,-0.24876,-1.5568,-0.16365,-1.8763
-0.085813,-0.013871,-0.022847,0.013596,-0.06979,-0.060395,-0.049852,-0.043581,0.27065,-0.80098,-0.39329,0.18668,0.40587,0.060085,-0.0028906,0.014937,-0.037381,-0.071607,0.105,-0.36447,-0.24285,-1.5902,-0.17426,-1.7743
-0.081559,-0.011394,-0.020794,0.012773,-0.079667,-0.059411,-0.051879,-0.049413,0.22535,-0.85673,-0.33099,0.097813,0.41433,0.083218,-0.0030848,0.013667,-0.021565,-0.06565,0.14524,-0.24206,-0.22863,-1.5108,-0.17018,-1.5922
-0.083406,-0.0087028,-0.018596,0.011897,-0.084776,-0.054972,-0.054025,-0.056032,0.15744,-0.86981,-0.26079,0.036384,0.41718,0.10533,-0.0035302,0.013735,-0.011318,-0.058321,0.17263,-0.10298,-0.21247,-1.341,-0.14966,-1.3556
-0.091013,-0.008523,-0.017336,0.011782,-0.084872,-0.049728,-0.056435,-0.063599,0.076557,-0.82491,-0.18537,0.014957,0.41516,0.12712,-0.0069902,0.012874,-0.0057455,-0.051817,0.17779,0.03408,-0.19967,-1.1021,-0.11925,-1.0761
-0.10128,-0.013384,-0.017291,0.01231,-0.083344,-0.046376,-0.058933,-0.072673,-0.0033334,-0.71908,-0.11294,0.021928,0.41062,0.14879,-0.013591,0.0090513,-0.00097791,-0.046656,0.16431,0.14002,-0.1911,-0.80789,-0.089744,-0.76982
-0.11138,-0.023235,-0.017577,0.012639,-0.084157,-0.04627,-0.061339,-0.082577,-0.071653,-0.57385,-0.051554,0.03165,0.40427,0.16944,-0.020111,0.0019386,0.0069898,-0.040918,0.15117,0.1911,-0.18341,-0.47917,-0.069206,-0.47295
-0.11984,-0.034548,-0.01659,0.011931,-0.088711,-0.048522,-0.063603,-0.090833,-0.12537,-0.43013,-0.0059914,0.020616,0.39377,0.18743,-0.022246,-0.0068614,0.01966,-0.031586,0.16131,0.1835,-0.17262,-0.16105,-0.058256,-0.23233
-0.12506,-0.04215,-0.013116,0.010061,-0.095357,-0.050365,-0.065735,-0.094712,-0.16688,-0.32676,0.020997,-0.020064,0.37643,0.2015,-0.018084,-0.014782,0.035223,-0.017234,0.20459,0.13753,-0.15809,0.081446,-0.050943,-0.070179
-0.12368,-0.042761,-0.0074432,0.0077428,-0.1016,-0.048857,-0.067806,-0.093705,-0.19841,-0.27711,0.026278,-0.081407,0.35377,0.21203,-0.0098319,-0.01959,0.049921,0.00018867,0.26948,0.088904,-0.14327,0.1959,-0.040057,0.049744
-0.11149,-0.037435,-0.0015841,0.0059365,-0.10651,-0.042935,-0.070114,-0.090458,-0.21871,-0.26119,0.007238,-0.14222,0.33328,0.2212,-0.0023447,-0.020132,0.060506,0.01636,0.33192,0.07245,-0.1329,0.18151,-0.022431,0.21841
-0.086764,-0.03075,0.0017668,0.0049463,-0.11104,-0.034282,-0.073162,-0.088862,-0.22487,-0.24056,-0.033947,-0.17944,0.32443,0.23176,0.00035554,-0.016299,0.066156,0.028025,0.3755,0.10817,-0.12877,0.098901,-0.00030448,0.52909
-0.052922,-0.027278,0.00095038,0.0039549,-0.11613,-0.026201,-0.077118,-0.090712,-0.21742,-0.18674,-0.087234,-0.1779,0.33133,0.24489,-0.0022329,-0.0085951,0.068634,0.036147,0.40625,0.19692,-0.12818,0.033904,0.021585,1.0073
-0.017655,-0.028246,-0.0035743,0.0014981,-0.12085,-0.021282,-0.081078,-0.093923,-0.20304,-0.10286,-0.1373,-0.13569,0.34839,0.25903,-0.0071456,0.0021253,0.070793,0.045755,0.44938,0.32658,-0.12607,0.037328,0.040104,1.5763
0.011387,-0.031154,-0.0097499,-0.0033531,-0.12259,-0.019703,-0.083061,-0.094134,-0.19186,-0.022619,-0.17131,-0.063819,0.36303,0.27083,-0.010368,0.014584,0.074563,0.06198,0.52924,0.4831,-0.11914,0.087949,0.055511,2.0896
0.03089,-0.032461,-0.015682,-0.010001,-0.11909,-0.01947,-0.0813,-0.088477,-0.19134,0.012779,-0.18608,0.01859,0.36422,0.27795,-0.0094885,0.026906,0.079794,0.085154,0.64821,0.65914,-0.10832,0.11185,0.069867,2.4101
0.042698,-0.030823,-0.021061,-0.016403,-0.11049,-0.018267,-0.075944,-0.078243,-0.2023,-0.017986,-0.18888,0.090843,0.34985,0.2819,-0.0046989,0.036764,0.084546,0.10914,0.78047,0.85548,-0.097865,0.045631,0.083907,2.4812
0.050768,-0.028027,-0.026839,-0.020315,-0.099525,-0.015294,-0.069423,-0.06799,-0.22065,-0.10469,-0.19099,0.13657,0.32731,0.28859,0.0020856,0.042065,0.086412,0.12478,0.88526,1.0763,-0.092044,-0.10738,0.095225,2.3426
0.057131,-0.02704,-0.033413,-0.020776,-0.089813,-0.011666,-0.064602,-0.061831,-0.2428,-0.21624,-0.19928,0.14751,0.30709,0.30604,0.0087286,0.042025,0.083968,0.12623,0.92935,1.322,-0.092457,-0.27522,0.099275,2.0886
0.060274,-0.029146,-0.039187,-0.01864,-0.083615,-0.0093461,-0.06214,-0.060117,-0.2687,-0.32233,-0.21237,0.12483,0.29516,0.34039,0.013761,0.03813,0.077592,0.11526,0.90396,1.5851,-0.097709,-0.3717,0.092442,1.8077
0.05687,-0.032774,-0.041242,-0.015667,-0.080827,-0.0097284,-0.059737,-0.059412,-0.2992,-0.40785,-0.22385,0.077821,0.29029,0.39254,0.016501,0.034319,0.069484,0.10026,0.82768,1.8491,-0.10503,-0.3616,0.074983,1.5455
0.044844,-0.034925,-0.03786,-0.012991,-0.079609,-0.012977,-0.05447,-0.055707,-0.33002,-0.47094,-0.22898,0.020032,0.28779,0.45691,0.017092,0.035878,0.062906,0.090532,0.73708,2.0921,-0.11197,-0.28248,0.051824,1.3047
0.025071,-0.033761,-0.030604,-0.010363,-0.077913,-0.018249,-0.046273,-0.048002,-0.34941,-0.51094,-0.22892,-0.036336,0.28518,0.52267,0.016825,0.04715,0.060803,0.090363,0.67228,2.2907,-0.11705,-0.20723,0.030621,1.0687
0.00072634,-0.030091,-0.023738,-0.0068817,-0.07476,-0.024198,-0.038988,-0.039148,-0.34322,-0.51997,-0.22928,-0.085362,0.28441,0.57674,0.018201,0.06905,0.064146,0.096979,0.66366,2.4245,-0.11953,-0.18209,0.018158,0.82198
-0.024507,-0.026636,-0.021146,-0.0024747,-0.070579,-0.029287,-0.037376,-0.033363,-0.30465,-0.48553,-0.23462,-0.1289,0.28891,0.60775,0.023903,0.097961,0.070872,0.10348,0.7224,2.4803,-0.11924,-0.19343,0.017164,0.55877
-0.047729,-0.025894,-0.023318,0.0014615,-0.066597,-0.032093,-0.042476,-0.032705,-0.24041,-0.40022,-0.24386,-0.17346,0.29883,0.61009,0.034871,0.12717,0.076434,0.10395,0.8373,2.4561,-0.11677,-0.1884,0.025426,0.28334
-0.067107,-0.028416,-0.027116,0.0030946,-0.0638,-0.031952,-0.049762,-0.035513,-0.16774,-0.26926,-0.24996,-0.22459,0.30913,0.58639,0.048892,0.15045,0.076164,0.096839,0.98069,2.3644,-0.1135,-0.12703,0.03768,0.010009
-0.081821,-0.032734,-0.028579,0.0020172,-0.062121,-0.029647,-0.052342,-0.037916,-0.10434,-0.11062,-0.24381,-0.28268,0.31219,0.54669,0.061267,0.16559,0.068172,0.084861,1.1231,2.2346,-0.11103,-0.018662,0.04902,-0.23695
-0.092207,-0.03669,-0.02629,7.9395e-005,-0.060399,-0.027258,-0.046762,-0.036864,-0.059355,0.04918,-0.21936,-0.34318,0.30241,0.50387,0.067573,0.17528,0.054645,0.072155,1.2494,2.1096,-0.11036,0.086294,0.057555,-0.42837
-0.09974,-0.038915,-0.022367,0.00015712,-0.057215,-0.026701,-0.036329,-0.032139,-0.032158,0.17945,-0.17676,-0.40066,0.27895,0.46751,0.066675,0.18451,0.040346,0.06146,1.3656,2.0347,-0.11152,0.13777,0.064622,-0.54193
-0.10619,-0.039355,-0.020312,0.0037865,-0.052067,-0.027825,-0.028811,-0.026033,-0.018465,0.24939,-0.12204,-0.45305,0.24496,0.44017,0.061561,0.19596,0.0293,0.053008,1.4881,2.0397,-0.11386,0.12276,0.072617,-0.57508
-0.11225,-0.038717,-0.021766,0.0098017,-0.04598,-0.02783,-0.03027,-0.021382,-0.01689,0.23554,-0.063776,-0.50279,0.20489,0.41878,0.057173,0.20706,0.022251,0.045181,1.6233,2.1194,-0.11642,0.069068,0.082351,-0.55197
-0.11683,-0.037609,-0.025005,0.015286,-0.040962,-0.023032,-0.040107,-0.019659,-0.029521,0.13309,-0.0086406,-0.55417,0.16269,0.39968,0.056749,0.21085,0.016813,0.035782,1.7536,2.2268,-0.11806,0.01923,0.092153,-0.52168
-0.11807,-0.036158,-0.026356,0.017997,-0.038611,-0.011914,-0.051354,-0.020299,-0.056663,-0.03563,0.042254,-0.60917,0.12157,0.38252,0.05954,0.2004,0.0099102,0.022956,1.8425,2.2875,-0.11734,0.0011494,0.099514,-0.55027
-0.1155,-0.034296,-0.023178,0.018044,-0.038959,0.003087,-0.055781,-0.021307,-0.091859,-0.22462,0.094084,-0.66473,0.084291,0.36905,0.061721,0.17384,0.00018252,0.0056952,1.8564,2.2333,-0.11294,0.018258,0.10382,-0.70729
-0.11131,-0.032232,-0.01593,0.017327,-0.040518,0.016793,-0.049654,-0.020566,-0.12318,-0.38212,0.15544,-0.713,0.052191,0.35763,0.059796,0.13662,-0.0116,-0.015727,1.7868,2.0382,-0.10486,0.059597,0.10757,-1.0448
-0.10931,-0.030605,-0.0078366,0.01745,-0.041427,0.024758,-0.035826,-0.017212,-0.14063,-0.47419,0.23308,-0.74422,0.023508,0.33893,0.053732,0.099536,-0.024025,-0.03946,1.6525,1.7324,-0.095429,0.11326,0.11456,-1.5695
-0.112,-0.030203,-0.0026507,0.018226,-0.040676,0.026188,-0.021094,-0.01249,-0.14356,-0.49913,0.32729,-0.75117,-0.0069328,0.29821,0.047244,0.073603,-0.036628,-0.062519,1.4843,1.384,-0.088954,0.16957,0.12597,-2.2211
-0.11815,-0.031552,-0.0023078,0.018223,-0.038319,0.02394,-0.011364,-0.0094884,-0.14153,-0.48371,0.43098,-0.73368,-0.044971,0.22373,0.044925,0.064438,-0.050033,-0.082284,1.3055,1.0592,-0.089453,0.21611,0.13765,-2.8771
-0.12311,-0.034647,-0.0060284,0.016647,-0.034614,0.021802,-0.0083227,-0.011494,-0.14773,-0.46435,0.53285,-0.70143,-0.09241,0.11529,0.048466,0.068807,-0.064819,-0.098257,1.127,0.78925,-0.097848,0.23674,0.14138,-3.3941
-0.12198,-0.038876,-0.011148,0.014554,-0.029003,0.021562,-0.0095682,-0.019651,-0.17005,-0.46586,0.6224,-0.67275,-0.14376,-0.014477,0.054897,0.075117,-0.080501,-0.11255,0.9568,0.56576,-0.11078,0.2209,0.13002,-3.6686
-0.11341,-0.043016,-0.014787,0.014095,-0.020002,0.022281,-0.011342,-0.03152,-0.2066,-0.48979,0.69326,-0.66829,-0.1873,-0.14761,0.058159,0.067859,-0.09568,-0.12824,0.80923,0.36283,-0.12234,0.1753,0.10334,-3.6768
-0.10083,-0.045395,-0.015203,0.016566,-0.0061544,0.022019,-0.01137,-0.041926,-0.24819,-0.5167,0.74339,-0.70149,-0.21033,-0.27132,0.05277,0.034194,-0.10902,-0.14654,0.69937,0.16295,-0.1278,0.12442,0.069826,-3.4643
-0.090119,-0.044468,-0.012228,0.02124,0.012687,0.019988,-0.0098401,-0.045939,-0.28494,-0.51816,0.77337,-0.77087,-0.20548,-0.38319,0.036957,-0.030446,-0.11999,-0.16519,0.62457,-0.036328,-0.12655,0.095445,0.042761,-3.0915
-0.085447,-0.039815,-0.0069873,0.02604,0.034774,0.017051,-0.0083276,-0.042076,-0.31165,-0.47132,0.78514,-0.85956,-0.1745,-0.48734,0.013382,-0.12065,-0.12868,-0.17966,0.55383,-0.23718,-0.12216,0.098622,0.032869,-2.5845
-0.086631,-0.032963,-0.0013664,0.029206,0.056943,0.014357,-0.0080153,-0.033373,-0.32885,-0.37018,0.78169,-0.94341,-0.12816,-0.586,-0.012508,-0.22392,-0.13524,-0.18652,0.44216,-0.45889,-0.11947,0.11976,0.042594,-1.9338
-0.090068,-0.027131,0.0025183,0.030174,0.075771,0.011808,-0.0087269,-0.025466,-0.3403,-0.22999,0.76667,-1.0028,-0.083211,-0.67491,-0.035042,-0.3259,-0.13958,-0.18621,0.26389,-0.73704,-0.12106,0.13198,0.065981,-1.1465
-0.092219,-0.025508,0.0029488,0.028876,0.088664,0.0080627,-0.009331,-0.022991,-0.34979,-0.083373,0.74278,-1.0303,-0.057742,-0.74689,-0.050334,-0.41455,-0.14156,-0.18261,0.036782,-1.1027,-0.12583,0.11682,0.093865,-0.30056
-0.092479,-0.028964,-0.00063627,0.024505,0.09439,0.0020623,-0.0088782,-0.026824,-0.35922,0.031443,0.71035,-1.0289,-0.065726,-0.79969,-0.057158,-0.48129,-0.14114,-0.17983,-0.18796,-1.5601,-0.1302,0.077024,0.12017,0.45549
-0.092994,-0.034989,-0.007137,0.015329,0.093072,-0.0055962,-0.007382,-0.033962,-0.36809,0.085816,0.66835,-1.0036,-0.11125,-0.83922,-0.056818,-0.5205,-0.13818,-0.17875,-0.36647,-2.0838,-0.13061,0.031116,0.14469,0.97052
-0.095847,-0.039118,-0.014103,6.6899e-006,0.085895,-0.012901,-0.0056514,-0.039877,-0.37338,0.071653,0.61814,-0.95381,-0.18477,-0.87372,-0.052218,-0.52978,-0.13225,-0.17649,-0.50019,-2.6352,-0.12502,-0.0039934,0.17082,1.1779
-0.1005,-0.03814,-0.018957,-0.020819,0.07478,-0.018052,-0.0044699,-0.04153,-0.36989,0.0010752,0.56678,-0.8732,-0.26514,-0.90359,-0.046338,-0.51197,-0.12292,-0.16926,-0.63617,-3.1831,-0.11293,-0.025986,0.20082,1.1327
-0.10394,-0.032622,-0.020432,-0.044219,0.062001,-0.020809,-0.0039014,-0.038974,-0.35176,-0.10551,0.52582,-0.75801,-0.32888,-0.91741,-0.040659,-0.47651,-0.11075,-0.1561,-0.82632,-3.7056,-0.09496,-0.044631,0.23277,0.96884
-0.10335,-0.026466,-0.019158,-0.066317,0.049687,-0.022241,-0.003249,-0.034666,-0.31555,-0.2348,0.50495,-0.61507,-0.3632,-0.89966,-0.034478,-0.43673,-0.097993,-0.14043,-1.0793,-4.1746,-0.073243,-0.067425,0.26109,0.81372
-0.098547,-0.023615,-0.016983,-0.084179,0.039236,-0.023273,-0.001539,-0.031245,-0.26337,-0.38805,0.50555,-0.46178,-0.37422,-0.84466,-0.025827,-0.40324,-0.088051,-0.12808,-1.3481,-4.5403,-0.052365,-0.087926,0.2797,0.72641
-0.092001,-0.024668,-0.015631,-0.096864,0.030859,-0.023675,0.0019634,-0.029492,-0.20343,-0.57507,0.51987,-0.31573,-0.38344,-0.76383,-0.013488,-0.37751,-0.083837,-0.12376,-1.5657,-4.7389,-0.039055,-0.088447,0.28455,0.69942
-0.086259,-0.026478,-0.015856,-0.10519,0.023583,-0.022573,0.0075146,-0.027927,-0.14657,-0.79963,0.53719,-0.1817,-0.41329,-0.6781,0.0014542,-0.35164,-0.086208,-0.12865,-1.7,-4.7249,-0.039265,-0.055294,0.2741,0.7047
-0.081548,-0.02524,-0.017652,-0.11081,0.015885,-0.019867,0.014823,-0.024199,-0.10029,-1.048,0.55154,-0.047491,-0.47143,-0.6006,0.015881,-0.31562,-0.093829,-0.14077,-1.7807,-4.5079,-0.053743,0.0068468,0.2483,0.7322
-0.075809,-0.020291,-0.020968,-0.11528,0.0067321,-0.016803,0.022964,-0.017123,-0.064132,-1.2893,0.56373,0.10574,-0.54538,-0.52478,0.026577,-0.26745,-0.10449,-0.15705,-1.8747,-4.1635,-0.075401,0.074132,0.20826,0.78818
-0.06714,-0.014999,-0.025942,-0.11946,-0.003505,-0.014793,0.03042,-0.0077215,-0.029831,-1.4869,0.576,0.28502,-0.6113,-0.4297,0.032116,-0.2178,-0.11667,-0.17508,-2.0321,-3.8052,-0.091436,0.11769,0.15738,0.86661
-0.05619,-0.013737,-0.032263,-0.12308,-0.012898,-0.013469,0.035582,0.0015291,0.013467,-1.6125,0.58533,0.47367,-0.65024,-0.3001,0.033056,-0.18466,-0.12996,-0.19329,-2.2454,-3.5311,-0.089956,0.12247,0.10243,0.93282
-0.046044,-0.017653,-0.038436,-0.12468,-0.018815,-0.010072,0.037684,0.0086499,0.072274,-1.6544,0.58321,0.63733,-0.65908,-0.14575,0.030413,-0.18135,-0.14413,-0.20995,-2.4528,-3.376,-0.067122,0.098591,0.052531,0.94195
-0.039556,-0.023231,-0.042032,-0.12209,-0.019435,-0.0012882,0.037481,0.013737,0.14446,-1.6185,0.56317,0.74557,-0.64887,-0.0045445,0.02404,-0.20662,-0.15782,-0.22264,-2.5798,-3.2966,-0.029748,0.079613,0.015394,0.87637
-0.036559,-0.025086,-0.041105,-0.11364,-0.015079,0.013648,0.036898,0.018899,0.22011,-1.5237,0.52916,0.7935,-0.63351,0.073962,0.012534,-0.24468,-0.168,-0.22854,-2.5831,-3.1938,0.0088327,0.10996,-0.0068497,0.76583
-0.033605,-0.020487,-0.035677,-0.09921,-0.0084812,0.03126,0.037681,0.026562,0.28674,-1.3934,0.49555,0.80674,-0.61896,0.05377,-0.005269,-0.27508,-0.1706,-0.22534,-2.4682,-2.9598,0.036982,0.22708,-0.019388,0.66943
-0.02665,-0.011484,-0.02794,-0.08062,-0.003698,0.045313,0.04009,0.037403,0.33544,-1.2445,0.47703,0.8248,-0.60104,-0.069256,-0.028725,-0.28525,-0.16173,-0.21175,-2.2735,-2.5243,0.051357,0.44391,-0.032478,0.6322
-0.014354,-0.0028211,-0.02091,-0.060864,-0.0041385,0.050683,0.042799,0.049396,0.36451,-1.0768,0.47638,0.87504,-0.5715,-0.26479,-0.055216,-0.2762,-0.13891,-0.18741,-2.0426,-1.882,0.05736,0.7383,-0.056552,0.64977
0.00083695,0.0022177,-0.016676,-0.04299,-0.010752,0.046676,0.04408,0.058664,0.3791,-0.87194,0.48112,0.95578,-0.5257,-0.47948,-0.081405,-0.25827,-0.10196,-0.15287,-1.8042,-1.0957,0.063576,1.0558,-0.097426,0.66736
0.014695,0.0041417,-0.015668,-0.029323,-0.021402,0.037185,0.043178,0.061656,0.3874,-0.6084,0.47254,1.0403,-0.46559,-0.65495,-0.10457,-0.24132,-0.053424,-0.10996,-1.569,-0.27646,0.074721,1.3276,-0.15379,0.61338
0.024405,0.0058422,-0.017225,-0.021245,-0.031859,0.02757,0.040692,0.057286,0.39585,-0.28847,0.43982,1.0966,-0.3975,-0.74553,-0.12281,-0.22778,0.0016052,-0.062359,-1.3353,0.45269,0.088428,1.4951,-0.21743,0.44547
0.030157,0.0091822,-0.02053,-0.019071,-0.038,0.02078,0.037889,0.047736,0.40574,0.043825,0.38733,1.1079,-0.32856,-0.73141,-0.13424,-0.21355,0.056737,-0.015244,-1.0945,0.99833,0.097832,1.5264,-0.27542,0.17963
0.033997,0.013047,-0.024858,-0.021757,-0.038022,0.0158,0.035911,0.037328,0.41293,0.31414,0.32986,1.0795,-0.26483,-0.62385,-0.13657,-0.19431,0.10628,0.026169,-0.83522,1.3295,0.097323,1.4153,-0.31349,-0.11623
0.037388,0.014619,-0.029172,-0.026787,-0.03334,0.0095371,0.035705,0.030072,0.41047,0.4596,0.2809,1.0302,-0.21066,-0.45944,-0.12801,-0.17064,0.14693,0.058609,-0.55053,1.486,0.086617,1.1679,-0.31992,-0.3634
0.039961,0.012394,-0.031989,-0.030878,-0.027468,0.00047117,0.03834,0.027429,0.39281,0.47344,0.2445,0.97843,-0.16712,-0.28399,-0.10908,-0.14714,0.17792,0.081771,-0.2516,1.5552,0.070114,0.79396,-0.28934,-0.52494
0.040573,0.0079075,-0.032081,-0.031443,-0.02346,-0.0089656,0.044734,0.027814,0.35935,0.41594,0.2168,0.93369,-0.1295,-0.13353,-0.08365,-0.12703,0.19948,0.09751,0.022334,1.6268,0.052506,0.31316,-0.22541,-0.6347
0.039403,0.0045621,-0.029437,-0.027821,-0.021618,-0.0132,0.054507,0.028236,0.31565,0.37782,0.19384,0.898,-0.086885,-0.022961,-0.057904,-0.10838,0.21102,0.10783,0.20976,1.749,0.034534,-0.23205,-0.1412,-0.77648
0.038824,0.0047667,-0.025374,-0.021218,-0.019171,-0.0069258,0.065021,0.026845,0.2714,0.42063,0.17726,0.87183,-0.02615,0.051466,-0.037491,-0.085878,0.21088,0.11328,0.25276,1.9114,0.012293,-0.77459,-0.056702,-1.0189
0.042046,0.0080612,-0.021495,-0.013409,-0.012326,0.011394,0.072081,0.024455,0.23615,0.53969,0.17273,0.85756,0.060987,0.10083,-0.024664,-0.056668,0.19811,0.11302,0.1311,2.0623,-0.019646,-1.2437,0.0062839,-1.3483
0.050699,0.011786,-0.018523,-0.0054096,0.00069532,0.038321,0.072435,0.023854,0.21467,0.67752,0.1834,0.8574,0.17292,0.13519,-0.017327,-0.024322,0.1749,0.10649,-0.11801,2.1483,-0.064069,-1.5981,0.030334,-1.6544
0.06353,0.013481,-0.016229,0.0026341,0.0179,0.067191,0.066349,0.027492,0.20432,0.77402,0.20519,0.86918,0.29921,0.16638,-0.010602,0.0031316,0.14695,0.095101,-0.41033,2.148,-0.11905,-1.8459,0.0079626,-1.7896
0.077294,0.0128,-0.014448,0.010376,0.034401,0.091526,0.057982,0.035384,0.19638,0.81055,0.22816,0.88501,0.42699,0.21745,0.00018675,0.019341,0.12117,0.082354,-0.652,2.0806,-0.17887,-2.0315,-0.055408,-1.6683
0.088948,0.011397,-0.013841,0.016367,0.04534,0.108,0.052845,0.044863,0.1811,0.81367,0.24209,0.89451,0.54748,0.32568,0.016974,0.024124,0.10196,0.072244,-0.7819,1.9881,-0.2362,-2.1956,-0.14224,-1.33
0.097292,0.011154,-0.015247,0.018572,0.048734,0.11745,0.054048,0.052279,0.15404,0.82167,0.24108,0.88969,0.6577,0.52925,0.038197,0.022346,0.08919,0.067031,-0.79377,1.9062,-0.28361,-2.3324,-0.22722,-0.91477
0.10292,0.012489,-0.018125,0.016081,0.046332,0.12368,0.060218,0.055371,0.11971,0.84818,0.22395,0.86728,0.7571,0.84251,0.059816,0.018785,0.079249,0.066183,-0.72723,1.8457,-0.31411,-2.3726,-0.28367,-0.56283
0.107,0.014183,-0.019977,0.010382,0.042156,0.13089,0.06676,0.05457,0.089339,0.87481,0.19178,0.82755,0.84305,1.237,0.07716,0.014375,0.068422,0.067192,-0.63747,1.793,-0.32248,-2.2025,-0.29,-0.31758
0.11012,0.014726,-0.017949,0.0047236,0.040049,0.14119,0.069476,0.052396,0.073645,0.87467,0.1464,0.77199,0.90966,1.6441,0.086596,0.0072594,0.055621,0.067502,-0.56509,1.7247,-0.30803,-1.7085,-0.23529,-0.10622
0.11221,0.013825,-0.011589,0.0018284,0.04199,0.15349,0.067686,0.051421,0.075195,0.84021,0.09163,0.70273,0.95068,1.9811,0.086614,-0.0031548,0.042624,0.066016,-0.52311,1.624,-0.277,-0.8293,-0.12404,0.18793
0.11335,0.012682,-0.004142,0.001861,0.047963,0.16431,0.064469,0.052292,0.086251,0.78903,0.035226,0.62378,0.9636,2.184,0.078387,-0.014102,0.032083,0.063207,-0.50334,1.4895,-0.24095,0.40014,0.021071,0.6243
0.11435,0.012812,-0.0007097,0.0024753,0.056924,0.17007,0.064027,0.053277,0.094076,0.74518,-0.011918,0.54183,0.95097,2.2294,0.065712,-0.021961,0.025345,0.060083,-0.49115,1.332,-0.21031,1.8248,0.16131,1.1579
0.11661,0.014518,-0.0044039,0.00092106,0.067813,0.16926,0.068493,0.051745,0.089979,0.71755,-0.040255,0.46443,0.91797,2.1332,0.053908,-0.026802,0.021761,0.057075,-0.47644,1.1665,-0.1867,3.1812,0.25305,1.6797
0.1211,0.016424,-0.013647,-0.0036661,0.079937,0.16326,0.076746,0.046501,0.075124,0.69693,-0.046749,0.3967,0.86828,1.9342,0.047552,-0.033777,0.019569,0.053703,-0.45577,1.0053,-0.16062,4.1602,0.26694,2.1035
0.12742,0.016511,-0.023026,-0.0097752,0.09274,0.15503,0.085879,0.039093,0.058617,0.67272,-0.036234,0.33916,0.80147,1.6747,0.047929,-0.04893,0.017143,0.049064,-0.4296,0.85555,-0.11816,4.5194,0.20588,2.425
0.13375,0.013747,-0.027123,-0.015086,0.10538,0.14711,0.093646,0.03285,0.049679,0.65003,-0.017232,0.28921,0.71351,1.3904,0.052009,-0.072648,0.013547,0.042492,-0.40028,0.72095,-0.053169,4.2052,0.10802,2.7084
0.13803,0.0089253,-0.024289,-0.018498,0.11644,0.14011,0.099621,0.030289,0.050515,0.64819,0.0046345,0.24481,0.59974,1.1091,0.054132,-0.096976,0.0083355,0.033824,-0.37268,0.60375,0.02442,3.4083,0.027472,3.0226
0.13964,0.0040832,-0.017445,-0.020818,0.12395,0.13275,0.10433,0.031019,0.055509,0.68083,0.030056,0.2074,0.45861,0.85171,0.049647,-0.11023,0.0012466,0.023231,-0.35434,0.50349,0.091781,2.4976,0.0018901,3.3826
0.14006,0.0011271,-0.011572,-0.023735,0.12574,0.12303,0.10763,0.032064,0.056773,0.73697,0.063084,0.18135,0.29477,0.63224,0.037898,-0.10604,-0.0077834,0.011044,-0.35259,0.41423,0.12724,1.8422,0.02903,3.7408
0.14192,0.00081728,-0.010139,-0.028318,0.12023,0.10937,0.10828,0.03051,0.050743,0.78256,0.10427,0.17054,0.12093,0.45612,0.022236,-0.089656,-0.018422,-0.0021232,-0.36947,0.32432,0.1257,1.6232,0.071101,4.0236
0.14693,0.0027281,-0.013187,-0.034412,0.10735,0.091256,0.10504,0.02625,0.040188,0.78318,0.14633,0.17481,-0.042262,0.3218,0.0071186,-0.07571,-0.029926,-0.015137,-0.39903,0.22174,0.10376,1.7558,0.085268,4.1751
0.15443,0.0058344,-0.01814,-0.041145,0.08904,0.069371,0.098153,0.022315,0.030529,0.72937,0.17701,0.18879,-0.16922,0.22577,-0.0050931,-0.078233,-0.041377,-0.026482,-0.43005,0.10276,0.089743,1.9764,0.057039,4.1776
0.16203,0.0090136,-0.022156,-0.047656,0.068741,0.045623,0.089448,0.022284,0.024384,0.64295,0.1876,0.20325,-0.23587,0.16667,-0.014933,-0.10004,-0.051895,-0.03497,-0.4526,-0.022736,0.10505,2.0271,0.00996,4.0426
0.16794,0.011203,-0.023984,-0.053252,0.049928,0.022836,0.080894,0.026841,0.019359,0.55982,0.17997,0.20751,-0.22803,0.14411,-0.023957,-0.12956,-0.060642,-0.040534,-0.46341,-0.13504,0.1495,1.8004,-0.015654,3.7944
0.17282,0.011526,-0.02411,-0.057137,0.034525,0.0037958,0.073114,0.032533,0.010727,0.50486,0.1657,0.19173,-0.14817,0.15324,-0.032552,-0.14786,-0.066732,-0.044279,-0.46588,-0.21583,0.20094,1.3486,0.0035906,3.4604
0.17939,0.0096704,-0.023548,-0.058454,0.022277,-0.010152,0.065348,0.034048,-0.0038669,0.47992,0.15796,0.14905,-0.016857,0.18169,-0.039946,-0.14105,-0.069378,-0.04746,-0.465,-0.25871,0.22912,0.7816,0.056267,3.0718
0.18969,0.0062415,-0.022543,-0.056839,0.011599,-0.019964,0.056825,0.028372,-0.022084,0.47263,0.16304,0.077928,0.13313,0.21449,-0.046328,-0.10877,-0.068272,-0.050064,-0.46172,-0.27085,0.21424,0.16346,0.10736,2.661
0.20231,0.0025678,-0.020252,-0.052805,0.0013204,-0.028235,0.047979,0.017431,-0.038901,0.47431,0.17898,-0.016013,0.268,0.24475,-0.054441,-0.062703,-0.063918,-0.050273,-0.45121,-0.26472,0.15793,-0.49843,0.12665,2.2548
0.21201,-0.0001276,-0.015493,-0.047213,-0.0080014,-0.037221,0.040093,0.0068823,-0.050924,0.48836,0.20169,-0.12016,0.36476,0.28073,-0.068168,-0.016593,-0.057488,-0.045573,-0.42595,-0.24765,0.080512,-1.1838,0.1093,1.8691
0.21252,-0.0015178,-0.0078498,-0.040108,-0.014269,-0.047092,0.033697,0.0018845,-0.059043,0.52163,0.23141,-0.21792,0.41817,0.3409,-0.08868,0.024025,-0.050217,-0.034875,-0.38047,-0.21818,0.007813,-1.8017,0.073342,1.5142
0.20048,-0.0021702,0.0017537,-0.030219,-0.01554,-0.056049,0.027535,0.0032435,-0.067147,0.5691,0.27239,-0.29323,0.43975,0.43801,-0.11165,0.064314,-0.042731,-0.019978,-0.31371,-0.17177,-0.042821,-2.218,0.040827,1.2065
0.17788,-0.0027563,0.011416,-0.016118,-0.012045,-0.062363,0.019489,0.0071687,-0.078198,0.60944,0.32552,-0.33396,0.44981,0.56377,-0.12875,0.11326,-0.03481,-0.0049499,-0.22794,-0.10963,-0.068469,-2.3483,0.021772,0.97113
0.15128,-0.00331,0.019269,0.001571,-0.0069675,-0.066576,0.0088605,0.0088942,-0.091324,0.61827,0.38166,-0.33305,0.46671,0.68679,-0.13297,0.17352,-0.025757,0.0063902,-0.12654,-0.04191,-0.076483,-2.2211,0.014083,0.8265
0.12843,-0.0033096,0.024421,0.018959,-0.0051251,-0.071759,-0.0021221,0.0071274,-0.1026,0.58848,0.42341,-0.28889,0.4986,0.76711,-0.12371,0.23662,-0.01512,0.013067,-0.01347,0.017838,-0.07537,-1.9468,0.014874,0.75838
0.11457,-0.0024385,0.027209,0.030347,-0.010159,-0.081349,-0.0092288,0.0054906,-0.10879,0.53889,0.43557,-0.20681,0.54105,0.77745,-0.10712,0.28736,-0.0033105,0.017495,0.10501,0.061793,-0.068466,-1.62,0.028262,0.70724
0.11033,-0.0011194,0.028621,0.031868,-0.022008,-0.0963,-0.0090875,0.0096089,-0.11066,0.50211,0.41588,-0.10151,0.58085,0.71611,-0.091184,0.31394,0.008249,0.023359,0.21906,0.0921,-0.054741,-1.2542,0.060521,0.58687
0.11191,-0.00018158,0.02939,0.024648,-0.036441,-0.11399,-0.0016759,0.022224,-0.11258,0.50084,0.37695,0.0032923,0.60345,0.60336,-0.07937,0.31593,0.01756,0.032423,0.31703,0.11658,-0.034571,-0.81019,0.10835,0.32832
0.11313,-2.3606e-005,0.029453,0.014687,-0.047119,-0.12981,0.0095945,0.040461,-0.11864,0.532,0.33786,0.081213,0.60043,0.46627,-0.068382,0.30441,0.022909,0.042884,0.39023,0.14018,-0.014083,-0.28531,0.15433,-0.078951
0.10818,-0.00024868,0.028221,0.0090474,-0.04893,-0.14017,0.02021,0.057607,-0.1287,0.57086,0.31264,0.11468,0.57366,0.32506,-0.05198,0.29501,0.023821,0.050751,0.43725,0.16024,-0.0030619,0.2348,0.17696,-0.57742
0.09416,-0.00024319,0.025409,0.011001,-0.040534,-0.14436,0.027365,0.067966,-0.13794,0.59071,0.30449,0.10467,0.53444,0.19031,-0.027791,0.29927,0.021623,0.053164,0.46445,0.16999,-0.0073635,0.62251,0.16789,-1.0694
0.072404,-7.8804e-005,0.02169,0.017864,-0.024681,-0.1443,0.031139,0.070784,-0.1408,0.58118,0.30862,0.071217,0.49787,0.069733,-0.0012385,0.31998,0.019212,0.050917,0.48235,0.16697,-0.022296,0.81084,0.14097,-1.4619
0.047799,-0.0006368,0.01852,0.023298,-0.0063967,-0.14272,0.033558,0.070131,-0.13597,0.55177,0.31882,0.042498,0.4754,-0.025296,0.017069,0.35199,0.01991,0.048026,0.50067,0.15847,-0.03362,0.85024,0.12367,-1.7
0.026204,-0.0025863,0.017205,0.022275,0.0096696,-0.14156,0.036828,0.071044,-0.1281,0.52069,0.33097,0.039073,0.46943,-0.081378,0.018771,0.38584,0.025886,0.048725,0.52555,0.15885,-0.027013,0.85846,0.13738,-1.7728
0.011141,-0.0051236,0.017994,0.01472,0.021302,-0.14162,0.042495,0.075308,-0.12445,0.50053,0.34132,0.063635,0.47287,-0.091438,0.0042455,0.41114,0.036962,0.054392,0.55951,0.18048,0.00044405,0.9074,0.18212,-1.7
0.0018501,-0.0058881,0.019978,0.0049927,0.029359,-0.14271,0.052066,0.080296,-0.12914,0.49208,0.34307,0.10305,0.47368,-0.060807,-0.017,0.41843,0.050605,0.062841,0.60267,0.22577,0.035799,0.95487,0.23783,-1.5161
-0.0058433,-0.0025531,0.021882,-0.0021127,0.036954,-0.14368,0.068043,0.081501,-0.13974,0.48839,0.32615,0.14022,0.46142,-0.0037316,-0.032458,0.40057,0.063181,0.070298,0.6534,0.28673,0.057124,0.88846,0.27963,-1.2642
-0.016366,0.0050375,0.023015,-0.005267,0.047628,-0.14212,0.093763,0.076301,-0.14893,0.48255,0.28138,0.16631,0.43214,0.067564,-0.03474,0.3549,0.071781,0.074205,0.70861,0.35189,0.047492,0.64206,0.29382,-0.99553
-0.031304,0.014128,0.023547,-0.0070848,0.063281,-0.13494,0.1314,0.06579,-0.14996,0.47171,0.20604,0.18445,0.38997,0.15125,-0.025837,0.28554,0.075511,0.074647,0.76524,0.41437,0.0061531,0.27584,0.2825,-0.76442
-0.048779,0.020694,0.023978,-0.010993,0.082825,-0.12014,0.17923,0.05347,-0.14146,0.45593,0.10651,0.20349,0.34548,0.25321,-0.01484,0.20338,0.075541,0.073655,0.82335,0.47467,-0.051026,-0.055841,0.25583,-0.614
-0.065595,0.022394,0.024452,-0.01749,0.10235,-0.099027,0.23018,0.042383,-0.12778,0.43545,-0.0032115,0.22814,0.31213,0.37494,-0.011298,0.12263,0.074043,0.073414,0.88853,0.53667,-0.10176,-0.22025,0.22105,-0.55819
-0.080076,0.020384,0.024653,-0.023229,0.11686,-0.077073,0.27341,0.033182,-0.11505,0.40989,-0.10589,0.25399,0.30155,0.5032,-0.019221,0.054848,0.072876,0.075019,0.97036,0.60164,-0.13051,-0.20296,0.17815,-0.57294
-0.092987,0.018318,0.024343,-0.023676,0.12255,-0.062213,0.29835,0.024379,-0.10631,0.37875,-0.18599,0.2712,0.31841,0.61196,-0.035619,0.003705,0.072911,0.07855,1.0762,0.6662,-0.13552,-0.10362,0.12373,-0.60562
-0.10588,0.019263,0.023921,-0.016869,0.11837,-0.061503,0.29937,0.013918,-0.099729,0.34071,-0.23377,0.27303,0.35675,0.67674,-0.053792,-0.036474,0.074248,0.083983,1.2035,0.72597,-0.12616,-0.042812,0.056706,-0.60053
-0.11869,0.023171,0.024346,-0.004886,0.10579,-0.078077,0.27804,0.00047103,-0.090881,0.29109,-0.24785,0.26194,0.40032,0.69002,-0.068262,-0.077245,0.076887,0.091839,1.3373,0.78071,-0.11433,-0.06719,-0.020435,-0.52782
-0.1292,0.027144,0.026423,0.008165,0.087217,-0.11005,0.2416,-0.016284,-0.076871,0.22084,-0.23535,0.24833,0.42852,0.66499,-0.077655,-0.12936,0.081117,0.10291,1.4543,0.83553,-0.10706,-0.13182,-0.10536,-0.39908
-0.13503,0.028195,0.030124,0.01966,0.064404,-0.15145,0.19886,-0.035835,-0.058835,0.12028,-0.20866,0.24323,0.42614,0.62458,-0.083954,-0.19625,0.087299,0.11732,1.5332,0.89646,-0.10511,-0.16169,-0.19865,-0.25962
-0.13639,0.025933,0.034588,0.030305,0.038062,-0.19412,0.15608,-0.056694,-0.041127,-0.013578,-0.17981,0.25116,0.39145,0.58499,-0.089491,-0.27109,0.095313,0.13382,1.5642,0.96427,-0.10663,-0.12547,-0.30085,-0.1614
-0.13675,0.022753,0.038798,0.042818,0.008974,-0.22981,0.11566,-0.076063,-0.028274,-0.17187,-0.15549,0.26851,0.33745,0.54683,-0.094463,-0.3394,0.10428,0.15005,1.5522,1.0323,-0.11107,-0.05467,-0.40528,-0.13334
-0.14061,0.021483,0.042344,0.058858,-0.020455,-0.25202,0.077929,-0.090212,-0.022223,-0.33613,-0.1363,0.28805,0.28455,0.49942,-0.09685,-0.38634,0.11292,0.16378,1.5118,1.0902,-0.11946,-0.0013768,-0.49364,-0.16757
