-2.0644e-010,9.2414e-010,1.1016e-009,7.042e-010,2.0644e-010,-6.3667e-011,1.3505e-011,6.0773e-010,-1.7364e-011,1.3023e-009,3.2818e-009,7.5822e-010,-8.296e-011,9.4343e-010,3.0425e-009,6.4632e-010,1.9293e-012,1.256e-009,1.7885e-009,8.2767e-010,2.3345e-010,4.2638e-010,3.6078e-010,8.5082e-010
-5.4113e-009,2.5402e-008,3.0465e-008,1.9413e-008,5.5309e-009,-1.4159e-009,1.7641e-010,1.7122e-008,-6.1102e-010,3.6145e-008,9.0606e-008,2.0605e-008,-2.0185e-009,2.6132e-008,8.3821e-008,1.8053e-008,1.4978e-010,3.4792e-008,4.9337e-008,2.2887e-008,6.3622e-009,1.1775e-008,1.0035e-008,2.3673e-008
-6.8837e-008,3.3929e-007,4.0956e-007,2.6017e-007,7.1953e-008,-1.4356e-008,-1.9319e-010,2.3479e-007,-9.8125e-009,4.8742e-007,1.2159e-006,2.7212e-007,-2.3164e-008,3.5177e-007,1.1222e-006,2.4519e-007,3.4166e-009,4.6854e-007,6.6196e-007,3.0783e-007,8.4333e-008,1.5812e-007,1.3607e-007,3.2034e-007
-5.6647e-007,2.9334e-006,3.566e-006,2.2583e-006,6.0569e-007,-8.3845e-008,-2.3157e-008,2.0878e-006,-9.777e-008,4.2544e-006,1.0566e-005,2.3268e-006,-1.6479e-007,3.0656e-006,9.7261e-006,2.1572e-006,4.3007e-008,4.0866e-006,5.7555e-006,2.6831e-006,7.246e-007,1.3758e-006,1.1982e-006,2.8086e-006
-3.3921e-006,1.8449e-005,2.2602e-005,1.4271e-005,3.7095e-006,-2.6745e-007,-2.7655e-007,1.3533e-005,-6.8683e-007,2.7012e-005,6.6817e-005,1.448e-005,-7.9649e-007,1.9435e-005,6.1332e-005,1.3818e-005,3.6383e-007,2.5945e-005,3.6451e-005,1.7034e-005,4.5377e-006,8.7181e-006,7.7016e-006,1.7934e-005
-1.5765e-005,8.9911e-005,0.00011111,6.9955e-005,1.7622e-005,2.5178e-009,-1.9609e-006,6.8136e-005,-3.6488e-006,0.00013292,0.00032762,6.987e-005,-2.6318e-006,9.5482e-005,0.00029979,6.8665e-005,2.2742e-006,0.00012774,0.00017918,8.3922e-005,2.2077e-005,4.2873e-005,3.8488e-005,8.8858e-005
-5.9246e-005,0.00035315,0.00044071,0.0002767,6.7606e-005,5.3398e-006,-9.9916e-006,0.00027719,-1.5317e-005,0.00052719,0.0012955,0.00027195,-5.1231e-006,0.00037803,0.0011815,0.00027534,1.109e-005,0.00050737,0.00071122,0.0003338,8.6852e-005,0.00017023,0.00015553,0.00035541
-0.00018519,0.0011476,0.0014481,0.00090681,0.00021534,3.5547e-005,-3.9438e-005,0.00093573,-5.2351e-005,0.0017304,0.0042417,0.0008766,1.1948e-006,0.0012379,0.003854,0.00091491,4.3663e-005,0.0016691,0.0023411,0.0011006,0.00028387,0.00056044,0.00052154,0.0011784
-0.00049153,0.0031424,0.0040158,0.0025081,0.00058109,0.00015045,-0.00012547,0.0026705,-0.00014888,0.004787,0.011711,0.0023834,5.4141e-005,0.0034139,0.010599,0.0025665,0.00014189,0.0046326,0.0065112,0.0030647,0.00078575,0.0015587,0.0014775,0.0032993
-0.001125,0.0073431,0.0095212,0.0059308,0.0013489,0.00048659,-0.00032944,0.0065291,-0.00035835,0.011304,0.027615,0.0055358,0.00024824,0.0080269,0.02489,0.0061591,0.0003859,0.010989,0.015507,0.0073015,0.0018675,0.0037112,0.0035784,0.0079038
-0.0022459,0.014773,0.019476,0.012095,0.0027261,0.001282,-0.0007242,0.013802,-0.00074109,0.022984,0.056094,0.011077,0.00074349,0.016221,0.050347,0.012763,0.00088461,0.022479,0.03192,0.015019,0.0038486,0.0076334,0.0074634,0.016349
-0.0039405,0.025724,0.034566,0.02138,0.0048424,0.0028412,-0.001344,0.025374,-0.0013379,0.040436,0.098639,0.019181,0.001698,0.028294,0.088178,0.022976,0.0017087,0.039869,0.057153,0.026826,0.0069207,0.013641,0.013441,0.029368
-0.0060977,0.038875,0.053381,0.032817,0.0076183,0.0053968,-0.002115,0.040692,-0.0021522,0.061654,0.15038,0.028764,0.0030867,0.042631,0.13397,0.036058,0.0027518,0.06146,0.089324,0.04171,0.010893,0.021223,0.020844,0.045939
-0.0083112,0.050997,0.071731,0.043645,0.010678,0.0088948,-0.0028318,0.056908,-0.0031749,0.081312,0.1983,0.03721,0.0044763,0.055311,0.17634,0.049376,0.0035821,0.082288,0.122,0.05642,0.014998,0.028691,0.027528,0.062561
-0.0098988,0.05802,0.083677,0.049953,0.01339,0.012829,-0.0032604,0.069158,-0.004458,0.092184,0.22462,0.041103,0.0049789,0.061339,0.2001,0.058922,0.0034422,0.09533,0.14553,0.066108,0.017971,0.033416,0.030118,0.073936
-0.010117,0.057351,0.084439,0.048569,0.015062,0.0163,-0.0033573,0.072483,-0.0061658,0.08887,0.21578,0.037997,0.0036285,0.057504,0.19416,0.061146,0.0015611,0.094932,0.15142,0.066527,0.018526,0.032847,0.025396,0.075397
-0.0085527,0.050077,0.073729,0.039297,0.015222,0.018367,-0.0034338,0.064779,-0.008489,0.071847,0.17246,0.028315,0.0001497,0.045222,0.1598,0.055237,-0.0022559,0.080763,0.1379,0.056759,0.016096,0.025876,0.012404,0.065997
-0.0054958,0.041087,0.056887,0.025819,0.013876,0.01854,-0.0040145,0.048843,-0.011378,0.048622,0.11271,0.015893,-0.0043683,0.030867,0.1127,0.04417,-0.0071185,0.059199,0.11241,0.040547,0.011421,0.013727,-0.006041,0.050001
-0.0019962,0.0363,0.042188,0.014071,0.011605,0.017095,-0.0053263,0.031576,-0.014253,0.030032,0.063271,0.0062609,-0.0076045,0.022388,0.0749,0.033275,-0.011152,0.04018,0.088365,0.02472,0.0064956,-0.00035203,-0.02385,0.035019
0.00062174,0.038529,0.035563,0.008709,0.0094189,0.014959,-0.0067583,0.020156,-0.016009,0.023448,0.043062,0.003398,-0.0072308,0.02399,0.060811,0.026855,-0.012434,0.03094,0.077066,0.015287,0.0036652,-0.012511,-0.034478,0.027363
0.0016015,0.045174,0.036546,0.010045,0.0083402,0.013208,-0.0068785,0.017476,-0.01554,0.027746,0.050325,0.0071379,-0.002582,0.032958,0.067472,0.025258,-0.0103,0.031126,0.08045,0.013796,0.0042512,-0.019974,-0.034468,0.02779
0.0013501,0.049948,0.038904,0.013973,0.0088268,0.01248,-0.0043023,0.020302,-0.012588,0.034314,0.064376,0.013286,0.0045226,0.04166,0.07731,0.024835,-0.0060447,0.033439,0.090244,0.016755,0.0075669,-0.021943,-0.025212,0.031128
0.0011647,0.047662,0.035788,0.015194,0.010326,0.012658,0.0010561,0.021892,-0.0083076,0.033817,0.061788,0.016598,0.010688,0.0436,0.072002,0.021118,-0.0022834,0.029748,0.094694,0.018669,0.011146,-0.019377,-0.011405,0.030511
0.0021036,0.038295,0.025313,0.011327,0.011361,0.012977,0.0074099,0.017337,-0.0048963,0.023462,0.034669,0.014503,0.013117,0.0386,0.046357,0.012713,-0.0012876,0.017811,0.087748,0.016301,0.012267,-0.014112,0.0027302,0.023038
0.0038804,0.02691,0.01191,0.004532,0.01036,0.012456,0.011967,0.0074302,-0.0042457,0.0088428,-0.0038263,0.0087399,0.011412,0.03251,0.010742,0.0025533,-0.0035124,0.0029598,0.07331,0.010731,0.009834,-0.0080389,0.016428,0.01216
0.0048913,0.019409,0.0023649,-0.00069456,0.0068628,0.010431,0.012856,-0.0021563,-0.0064302,-0.0011251,-0.031232,0.003733,0.0075383,0.031573,-0.019507,-0.0047033,-0.0074736,-0.0067018,0.061163,0.0056992,0.0051692,-0.0026883,0.032063,0.0046187
0.0036175,0.017791,0.00014606,-0.0015908,0.0022473,0.0069806,0.010639,-0.0057575,-0.0092448,-0.0017561,-0.034497,0.0030525,0.0040003,0.036447,-0.0378,-0.0069364,-0.010996,-0.0072799,0.058208,0.003946,0.0009618,0.0009925,0.051834,0.004497
0.00028771,0.018961,0.0029924,0.00054228,-0.0008585,0.0030443,0.008038,-0.002505,-0.0094316,0.0037925,-0.019748,0.0067789,0.0018213,0.041394,-0.050832,-0.0066218,-0.012698,-0.0020682,0.062563,0.0048309,-0.00091636,0.0029057,0.07446,0.0095538
-0.0028437,0.017951,0.0055625,0.001779,-0.00038665,0.0001123,0.0078757,0.0030732,-0.004955,0.0076396,-0.0054946,0.011697,6.7553e-005,0.039428,-0.070549,-0.0086934,-0.012514,0.0019103,0.065407,0.0051881,-0.00090614,0.00397,0.09495,0.013135
-0.0031883,0.012439,0.004271,-0.00063888,0.0033691,-0.00050245,0.010824,0.0050704,0.0033032,0.0039406,-0.0064121,0.013946,-0.0027673,0.028744,-0.10181,-0.016006,-0.011097,0.00032143,0.058641,0.0023702,-0.0011875,0.0057455,0.1078,0.0099679
-0.00019698,0.004453,-0.00026836,-0.005669,0.0075352,0.0015326,0.014866,0.0011993,0.011835,-0.0066273,-0.022348,0.01193,-0.0068776,0.014638,-0.1375,-0.026474,-0.0090198,-0.0050722,0.041626,-0.0033769,-0.0034685,0.0093751,0.11087,0.00068503
0.0037863,-0.0020527,-0.0050703,-0.009371,0.0085378,0.0052293,0.017015,-0.0056168,0.016765,-0.018085,-0.041258,0.0072902,-0.010509,0.005334,-0.16508,-0.034525,-0.0066304,-0.0088527,0.021488,-0.0092152,-0.0071784,0.014429,0.10656,-0.0089214
0.0052558,-0.0051765,-0.0084902,-0.008456,0.0048216,0.0087647,0.015853,-0.010244,0.016506,-0.024363,-0.051669,0.0034164,-0.011129,0.0055914,-0.17771,-0.035623,-0.0044529,-0.0075002,0.0073408,-0.012201,-0.0098775,0.018674,0.099455,-0.013101
0.0025846,-0.0067174,-0.011859,-0.0032454,-0.0017884,0.010575,0.012726,-0.0099816,0.012856,-0.023743,-0.052505,0.0028328,-0.0073508,0.013588,-0.17909,-0.029842,-0.003271,-0.0026464,0.0037233,-0.011679,-0.0096332,0.019349,0.092758,-0.011039
-0.0023033,-0.010059,-0.017537,0.002545,-0.0073612,0.010293,0.010558,-0.0066476,0.009698,-0.019163,-0.052162,0.0054889,-2.1793e-005,0.023206,-0.17791,-0.021411,-0.0034576,0.00082586,0.0084927,-0.0096576,-0.0071021,0.015315,0.086532,-0.0071169
-0.0052914,-0.016535,-0.025687,0.0048637,-0.0088831,0.0088137,0.011361,-0.0045498,0.010297,-0.014994,-0.059506,0.0091203,0.0082602,0.029029,-0.17774,-0.014858,-0.0042028,-0.00034605,0.015959,-0.0091282,-0.0051564,0.0084689,0.079084,-0.0066038
-0.0034735,-0.023913,-0.033319,0.0024632,-0.0065962,0.0074473,0.01463,-0.0065592,0.015124,-0.013642,-0.076304,0.011186,0.01463,0.029575,-0.17247,-0.011396,-0.0037294,-0.0047635,0.021625,-0.01184,-0.0062165,0.003008,0.069617,-0.010927
0.002311,-0.028445,-0.036726,-0.0024853,-0.0037222,0.0069293,0.017973,-0.011929,0.021676,-0.014674,-0.097618,0.010745,0.017288,0.026669,-0.15186,-0.0087844,-0.00067264,-0.0079018,0.024318,-0.01718,-0.0098039,0.0027008,0.059461,-0.01682
0.0080767,-0.028464,-0.034936,-0.0065186,-0.0038199,0.0071233,0.019296,-0.017461,0.026243,-0.016443,-0.1181,0.0088401,0.016018,0.02255,-0.11185,-0.0045169,0.004538,-0.0065116,0.024637,-0.022699,-0.012808,0.0080699,0.050839,-0.019813
0.0099968,-0.026027,-0.030731,-0.0076473,-0.0079699,0.0075687,0.018518,-0.020424,0.026279,-0.018067,-0.13679,0.0072573,0.011962,0.01781,-0.060305,0.00096302,0.0097192,-0.0016469,0.022144,-0.02566,-0.012395,0.015798,0.044648,-0.018553
0.0076053,-0.025073,-0.028229,-0.0064192,-0.014016,0.0081775,0.017399,-0.020419,0.021826,-0.019957,-0.15564,0.0068386,0.0070423,0.011705,-0.012707,0.0042176,0.012532,0.0023611,0.014448,-0.024549,-0.0088155,0.021073,0.039527,-0.015921
0.0041614,-0.027893,-0.029354,-0.0047371,-0.018306,0.0092977,0.017861,-0.018878,0.015285,-0.022864,-0.17429,0.0068011,0.0032155,0.0038042,0.018323,0.0020591,0.01222,0.0018027,-0.00089883,-0.019792,-0.0053137,0.021171,0.033089,-0.016137
0.0038612,-0.033219,-0.03254,-0.0038799,-0.01839,0.011119,0.020501,-0.017313,0.0098719,-0.026796,-0.18726,0.0055617,0.001642,-0.0050076,0.030922,-0.0050262,0.0099002,-0.0033023,-0.023594,-0.013476,-0.0050788,0.017374,0.024056,-0.020777
0.0082385,-0.037572,-0.034726,-0.0035985,-0.014622,0.013187,0.024577,-0.016244,0.0078171,-0.03094,-0.18711,0.0022848,0.0021093,-0.013078,0.033061,-0.012652,0.0072856,-0.0095538,-0.049545,-0.0083454,-0.0081047,0.013627,0.01335,-0.027391
0.014722,-0.038412,-0.034551,-0.0028794,-0.0097065,0.014708,0.029133,-0.015522,0.0093064,-0.034475,-0.17078,-0.0021922,0.0032172,-0.019329,0.034507,-0.015944,0.0052577,-0.013388,-0.072719,-0.0065885,-0.011031,0.013035,0.0033565,-0.031763
0.018513,-0.036114,-0.033611,-0.0013819,-0.006811,0.015407,0.033865,-0.015168,0.01266,-0.037328,-0.14292,-0.0058304,0.0034311,-0.024035,0.038955,-0.013606,0.0036827,-0.014119,-0.088574,-0.0089432,-0.010225,0.015221,-0.0037829,-0.031514
0.016293,-0.033159,-0.034716,-0.00010436,-0.0076624,0.015961,0.038785,-0.015553,0.015519,-0.040088,-0.11293,-0.006875,0.0022964,-0.028433,0.042575,-0.0089631,0.0023768,-0.014161,-0.096529,-0.014458,-0.005247,0.016808,-0.0073757,-0.02782
0.008869,-0.031683,-0.03902,-0.00070874,-0.011693,0.017368,0.043208,-0.016806,0.016245,-0.0432,-0.088386,-0.0051821,0.000746,-0.033638,0.039082,-0.0069725,0.0018496,-0.016423,-0.099709,-0.020912,0.0005621,0.014599,-0.0081908,-0.024032
0.00076478,-0.031919,-0.044864,-0.0041403,-0.016499,0.019743,0.045442,-0.018363,0.014621,-0.046251,-0.070533,-0.0023644,0.00011964,-0.039754,0.025988,-0.0098676,0.0028285,-0.021326,-0.10223,-0.025672,0.0029822,0.0086566,-0.0076882,-0.02284
-0.0029648,-0.032827,-0.049335,-0.0096678,-0.019216,0.021744,0.043793,-0.019353,0.011501,-0.048015,-0.055515,-0.00063966,0.00075102,-0.045749,0.0065932,-0.015292,0.005112,-0.026095,-0.10607,-0.026724,0.00066007,0.0026127,-0.0072698,-0.02454
-0.00034694,-0.03386,-0.050882,-0.015025,-0.018109,0.02133,0.038062,-0.019463,0.0078284,-0.047314,-0.039608,-0.0012338,0.0015418,-0.050049,-0.013347,-0.018517,0.0072146,-0.026936,-0.10979,-0.023572,-0.003678,0.00092118,-0.0079479,-0.027496
0.0061024,-0.035776,-0.050435,-0.017523,-0.013613,0.017285,0.03003,-0.019328,0.0039787,-0.044068,-0.023389,-0.0035266,0.0010895,-0.051478,-0.030602,-0.016643,0.0074669,-0.022231,-0.11,-0.017635,-0.0056086,0.0054024,-0.010322,-0.029735
0.011225,-0.039574,-0.050093,-0.015479,-0.0082115,0.0102,0.02237,-0.019932,-1.8982e-005,-0.039696,-0.011233,-0.0056048,-0.0006426,-0.050021,-0.046585,-0.010976,0.0056,-0.01406,-0.1044,-0.011711,-0.002848,0.013927,-0.014678,-0.030039
0.010984,-0.044785,-0.050817,-0.0092037,-0.0050472,0.0021486,0.016888,-0.021597,-0.0037249,-0.036451,-0.0069926,-0.0058462,-0.0018712,-0.046958,-0.065145,-0.0055386,0.0031909,-0.0068246,-0.093921,-0.0084926,0.0027986,0.022158,-0.021216,-0.027983
0.0053744,-0.049054,-0.05144,-0.0010316,-0.0059891,-0.0045485,0.01361,-0.023538,-0.0059712,-0.035975,-0.010118,-0.0043391,-0.00050826,-0.044209,-0.088467,-0.0032616,0.0024219,-0.0041367,-0.082398,-0.0088977,0.00698,0.026669,-0.03039,-0.023715
-0.0016812,-0.04969,-0.049849,0.0057202,-0.010382,-0.0084734,0.01135,-0.024398,-0.0055519,-0.038049,-0.015709,-0.0029804,0.0035701,-0.043239,-0.11479,-0.0034484,0.004272,-0.0064889,-0.073829,-0.011479,0.0064341,0.026786,-0.043091,-0.018196
-0.005329,-0.04588,-0.045109,0.008442,-0.015418,-0.009542,0.0090443,-0.023259,-0.0024105,-0.040536,-0.018248,-0.004062,0.0077528,-0.044301,-0.1396,-0.0028136,0.007769,-0.011434,-0.069492,-0.013586,0.0016371,0.023925,-0.060301,-0.013489
-0.0033356,-0.039562,-0.038473,0.006655,-0.017961,-0.0088033,0.0065811,-0.020303,0.0018566,-0.040762,-0.015494,-0.0083691,0.00856,-0.046578,-0.15876,0.001047,0.010839,-0.01583,-0.067137,-0.013544,-0.003664,0.019562,-0.082283,-0.012053
0.0025147,-0.034154,-0.032399,0.0022177,-0.016588,-0.0079074,0.004565,-0.016695,0.0048483,-0.037495,-0.0091753,-0.0143,0.0048286,-0.049033,-0.17058,0.007186,0.011809,-0.018084,-0.062905,-0.012035,-0.0055512,0.014041,-0.10791,-0.014947
0.0081075,-0.032171,-0.028608,-0.0019524,-0.012423,-0.0083065,0.0034889,-0.013962,0.0049683,-0.032027,-0.0023269,-0.018803,-0.00065251,-0.051097,-0.17525,0.012238,0.010237,-0.018616,-0.054493,-0.011381,-0.0030906,0.007262,-0.13488,-0.020451
0.010219,-0.033603,-0.027006,-0.0038449,-0.0082552,-0.010275,0.0032117,-0.013315,0.0024339,-0.027402,0.003835,-0.019498,-0.0029078,-0.052526,-0.17278,0.013778,0.0066847,-0.018563,-0.043076,-0.013273,0.00098191,0.00015528,-0.16086,-0.024808
0.0086332,-0.036162,-0.026291,-0.0035912,-0.0066688,-0.01233,0.0031568,-0.015149,-0.0011363,-0.026193,0.010479,-0.016405,0.001146,-0.052762,-0.16208,0.012692,0.0020874,-0.018325,-0.032555,-0.017016,0.0025369,-0.0050193,-0.18461,-0.025055
0.0056392,-0.037054,-0.025414,-0.003025,-0.0084997,-0.011883,0.002904,-0.018807,-0.0040757,-0.02844,0.018897,-0.01195,0.0096826,-0.050796,-0.14256,0.012091,-0.0024982,-0.017497,-0.026764,-0.019983,-0.00059426,-0.0062725,-0.20608,-0.021637
0.0037112,-0.034889,-0.024362,-0.0039448,-0.012531,-0.0071515,0.0025585,-0.022696,-0.0057123,-0.031366,0.027964,-0.0092602,0.016811,-0.046039,-0.11664,0.013823,-0.0058258,-0.016117,-0.026816,-0.019955,-0.0069092,-0.0039523,-0.22502,-0.01824
0.0035444,-0.030498,-0.023648,-0.0065346,-0.016384,0.0009939,0.0025992,-0.024944,-0.0063369,-0.031216,0.034069,-0.010036,0.016914,-0.039383,-0.090366,0.01619,-0.006691,-0.01569,-0.030572,-0.017182,-0.012551,-0.0010951,-0.23926,-0.01863
0.00402,-0.026231,-0.02331,-0.0092684,-0.017886,0.0090234,0.003399,-0.024433,-0.0064615,-0.025943,0.033734,-0.013534,0.0090439,-0.033074,-0.070519,0.01543,-0.0047155,-0.018567,-0.034563,-0.014162,-0.014549,-0.0013673,-0.24425,-0.023212
0.0037498,-0.024311,-0.022698,-0.010325,-0.016137,0.013062,0.0048274,-0.021618,-0.0062831,-0.016798,0.026459,-0.017326,-0.00226,-0.028967,-0.060132,0.0097167,-0.001029,-0.025925,-0.036841,-0.013289,-0.013259,-0.006221,-0.23487,-0.028533
0.002502,-0.025307,-0.021304,-0.0092185,-0.011844,0.011846,0.0062007,-0.018408,-0.0057793,-0.0076417,0.01512,-0.019162,-0.010433,-0.026594,-0.056286,0.0016599,0.0020907,-0.036154,-0.038567,-0.01455,-0.01189,-0.01372,-0.20849,-0.030373
0.0011997,-0.027719,-0.019588,-0.0072007,-0.0068937,0.0078002,0.0065814,-0.016972,-0.0050434,-0.0024503,0.0035697,-0.018544,-0.01177,-0.023068,-0.052463,-0.0035111,0.0027186,-0.045359,-0.043116,-0.015491,-0.013487,-0.020011,-0.16741,-0.027644
0.00075282,-0.028952,-0.018631,-0.006118,-0.0033659,0.0051619,0.0052617,-0.018231,-0.0043218,-0.0027714,-0.0062159,-0.016892,-0.0078005,-0.015435,-0.043857,-0.0027049,0.00079114,-0.049898,-0.053398,-0.013557,-0.017957,-0.022069,-0.11857,-0.02344
0.001086,-0.027073,-0.018768,-0.0068195,-0.002422,0.0065997,0.002211,-0.021165,-0.0037849,-0.006901,-0.014815,-0.016275,-0.0034506,-0.0036418,-0.031177,0.001826,-0.0018062,-0.04903,-0.069534,-0.0086383,-0.021833,-0.019381,-0.070594,-0.022219
0.0013265,-0.022113,-0.0187,-0.008543,-0.0036381,0.011101,-0.001761,-0.023519,-0.0034976,-0.011278,-0.023377,-0.017689,-0.0028597,0.0085249,-0.019551,0.0041183,-0.0028771,-0.045508,-0.088816,-0.003444,-0.021114,-0.013503,-0.030077,-0.025726
0.00079108,-0.015997,-0.01631,-0.0097524,-0.0052616,0.014804,-0.0053277,-0.023431,-0.0037142,-0.012984,-0.031121,-0.020227,-0.0064069,0.015545,-0.013388,-0.00025733,-0.0019569,-0.04365,-0.10811,-0.0013229,-0.0148,-0.0064157,0.00055119,-0.03144
-0.00037164,-0.011171,-0.010693,-0.0095664,-0.005357,0.013997,-0.0074118,-0.020751,-0.0049726,-0.011471,-0.034979,-0.021824,-0.011146,0.013597,-0.011763,-0.010094,-0.00087629,-0.046365,-0.1267,-0.0035614,-0.0060218,0.00051766,0.022585,-0.034852
-0.0014972,-0.0090279,-0.0033921,-0.0084669,-0.0031449,0.0078666,-0.0079607,-0.017079,-0.0075107,-0.0083229,-0.031986,-0.021065,-0.01379,0.0024327,-0.0085562,-0.019418,-0.0021289,-0.053368,-0.14705,-0.0085714,0.00032,0.0062844,0.038837,-0.033291
-0.0021591,-0.0093075,0.0025648,-0.0077597,0.00043547,-0.0010352,-0.0081266,-0.014531,-0.010431,-0.0054394,-0.022328,-0.018662,-0.013431,-0.015593,0.0025355,-0.022612,-0.0063118,-0.061697,-0.17233,-0.013503,0.0013952,0.0095449,0.051492,-0.027799
-0.002418,-0.01074,0.0051149,-0.0084348,0.0034261,-0.0087348,-0.0095961,-0.014214,-0.011758,-0.0033253,-0.010159,-0.01729,-0.011815,-0.037975,0.022427,-0.019179,-0.010926,-0.067864,-0.20274,-0.016527,-0.001527,0.0088487,0.061236,-0.021731
-0.0023431,-0.012138,0.0047492,-0.010503,0.0043374,-0.012569,-0.013505,-0.01555,-0.0098922,-0.00098086,-0.0011515,-0.019667,-0.011363,-0.063426,0.045397,-0.013947,-0.011853,-0.070005,-0.23351,-0.017642,-0.004546,0.0038465,0.067625,-0.0179
-0.0015453,-0.012912,0.0036538,-0.01326,0.0032775,-0.012755,-0.019761,-0.016874,-0.0053995,0.0025873,0.0014261,-0.026183,-0.013,-0.091037,0.063317,-0.012718,-0.0065471,-0.06868,-0.25707,-0.017615,-0.0046445,-0.0038254,0.069913,-0.017035
0.00049574,-0.012774,0.003275,-0.015977,0.0018222,-0.011899,-0.027235,-0.016725,-0.0011955,0.0067729,-0.0010587,-0.034019,-0.015708,-0.11855,0.071745,-0.017351,0.003621,-0.066106,-0.26782,-0.016625,-0.0020441,-0.01131,0.067668,-0.018402
0.0035002,-0.011263,0.0028395,-0.018255,0.0017281,-0.013032,-0.034482,-0.014835,-0.00041123,0.0093962,-0.003872,-0.03874,-0.017921,-0.14207,0.072708,-0.024556,0.013949,-0.064555,-0.266,-0.014279,0.00060101,-0.016659,0.061094,-0.021098
0.0059238,-0.0078733,0.00042041,-0.019817,0.0035322,-0.017655,-0.040284,-0.012131,-0.0035577,0.008555,-0.0026676,-0.037434,-0.019215,-0.15792,0.072039,-0.029116,0.019632,-0.064961,-0.25718,-0.010841,0.0011655,-0.020421,0.051172,-0.024282
0.0057642,-0.0027296,-0.0045055,-0.020282,0.006149,-0.025025,-0.04371,-0.0098856,-0.0077187,0.0046669,0.0032091,-0.031013,-0.020631,-0.16521,0.073953,-0.028415,0.019115,-0.066515,-0.24754,-0.0079522,0.00019556,-0.024954,0.039614,-0.026496
0.0021913,0.002932,-0.0097133,-0.019427,0.0077457,-0.032944,-0.044101,-0.0087761,-0.0088906,0.00065628,0.010322,-0.023734,-0.023424,-0.16643,0.077772,-0.024356,0.014858,-0.067412,-0.23878,-0.0075804,0.00016745,-0.031759,0.028473,-0.025721
-0.0034338,0.0071896,-0.011695,-0.017814,0.0071601,-0.039294,-0.041464,-0.0085471,-0.0055661,-0.00019949,0.013768,-0.020065,-0.02752,-0.16535,0.079471,-0.021375,0.010974,-0.06625,-0.2268,-0.0099867,0.002667,-0.039203,0.019424,-0.020978
-0.0082342,0.0085833,-0.0087346,-0.016977,0.0047638,-0.043167,-0.03705,-0.0084572,-0.0002102,0.0029594,0.010707,-0.021293,-0.031218,-0.16374,0.076253,-0.022689,0.0098413,-0.063124,-0.20569,-0.012885,0.00635,-0.043008,0.01308,-0.014083
-0.0098245,0.0070892,-0.0026779,-0.018615,0.0021813,-0.044958,-0.033252,-0.0080379,0.0029248,0.0076642,0.0022128,-0.024635,-0.032392,-0.15978,0.06977,-0.028055,0.010652,-0.05957,-0.17343,-0.013028,0.0077998,-0.039545,0.008801,-0.0092249
-0.0080708,0.0041452,0.0023728,-0.023194,0.0011491,-0.045565,-0.032372,-0.0075061,0.0017079,0.010015,-0.0077052,-0.025674,-0.030074,-0.14944,0.065082,-0.034561,0.011049,-0.057301,-0.13488,-0.0090371,0.0046002,-0.029311,0.0051805,-0.0098914
-0.0051547,0.0017667,0.0033673,-0.029155,0.0023661,-0.045521,-0.034969,-0.0075008,-0.0019418,0.0078301,-0.014967,-0.022154,-0.024976,-0.12979,0.066497,-0.039204,0.010134,-0.05665,-0.099258,-0.0028845,-0.0022143,-0.017469,0.0009544,-0.015566
-0.0038803,0.0014616,0.00067028,-0.033655,0.0051027,-0.044715,-0.039289,-0.0084019,-0.0039985,0.0023312,-0.018037,-0.015982,-0.018684,-0.10148,0.074075,-0.04084,0.0098148,-0.056042,-0.07435,0.0014671,-0.0086241,-0.010675,-0.0041974,-0.021459
-0.005574,0.0036037,-0.0025563,-0.034494,0.0077783,-0.042834,-0.042555,-0.0098357,-0.0023,-0.0030583,-0.018583,-0.011724,-0.01248,-0.068748,0.083764,-0.040175,0.013014,-0.053096,-0.061938,0.0011465,-0.010627,-0.012528,-0.0094189,-0.022061
-0.009178,0.0073956,-0.0032525,-0.031779,0.0090832,-0.040014,-0.043253,-0.010822,0.0013055,-0.0056236,-0.019976,-0.012795,-0.0069728,-0.037121,0.09076,-0.03844,0.020317,-0.046643,-0.057759,-0.0034881,-0.0071606,-0.02122,-0.013188,-0.015726
-0.012111,0.011203,-0.00097034,-0.027933,0.0088682,-0.037089,-0.042501,-0.010479,0.0027555,-0.0053508,-0.024903,-0.018539,-0.0025966,-0.010791,0.09305,-0.0363,0.028344,-0.038031,-0.055277,-0.0093758,-0.00055281,-0.031119,-0.014339,-0.0062361
-0.012097,0.013144,0.0021421,-0.025936,0.0081503,-0.035207,-0.043238,-0.0087388,-0.00020526,-0.0043669,-0.033744,-0.024632,-3.9794e-005,0.008585,0.092364,-0.033823,0.031753,-0.030524,-0.049742,-0.013227,0.0055837,-0.036831,-0.013014,0.00017064
-0.008576,0.011972,0.003619,-0.02713,0.008186,-0.035119,-0.04779,-0.0064899,-0.0056941,-0.0046347,-0.044594,-0.026516,0.00020864,0.021455,0.092244,-0.031074,0.027457,-0.027121,-0.039545,-0.013678,0.0089662,-0.036516,-0.010866,-0.00016285
-0.0028455,0.0079966,0.0029806,-0.030291,0.0093054,-0.03673,-0.055769,-0.0050171,-0.0093573,-0.0062225,-0.054616,-0.023065,-0.0012023,0.029278,0.095254,-0.028394,0.017403,-0.028475,-0.024891,-0.011536,0.0096389,-0.032225,-0.010219,-0.005536
0.0028571,0.0033542,0.0019929,-0.032636,0.010509,-0.039276,-0.063985,-0.0051338,-0.0084742,-0.0076756,-0.061648,-0.017498,-0.0023019,0.033773,0.1015,-0.026095,0.0073683,-0.032518,-0.0061617,-0.0084473,0.0089822,-0.027652,-0.012618,-0.010685
0.0064747,0.00097787,0.0028007,-0.031936,0.010299,-0.041949,-0.068422,-0.0066313,-0.0045484,-0.0078351,-0.065069,-0.014814,-0.0010148,0.036682,0.10909,-0.024128,0.0026379,-0.036031,0.016028,-0.0056185,0.0081011,-0.025505,-0.017796,-0.011446
0.0067916,0.0026184,0.0057654,-0.028115,0.008119,-0.044424,-0.066801,-0.0084118,-0.0018622,-0.0071169,-0.065607,-0.01779,0.0031086,0.039536,0.11554,-0.022271,0.0042028,-0.036827,0.039519,-0.0036391,0.0071327,-0.026383,-0.023874,-0.0081797
0.0036242,0.0073555,0.0090132,-0.023223,0.0050641,-0.046811,-0.059942,-0.0091742,-0.0033424,-0.0070235,-0.064511,-0.024751,0.0083429,0.043118,0.11883,-0.020669,0.0085742,-0.034846,0.060168,-0.0030507,0.0057618,-0.029333,-0.028701,-0.0050879
-0.0021109,0.012039,0.010107,-0.019934,0.0030354,-0.049128,-0.051151,-0.0081748,-0.0076847,-0.0085686,-0.062749,-0.030845,0.012153,0.046956,0.1178,-0.020027,0.011097,-0.031535,0.073628,-0.0045539,0.0040016,-0.032983,-0.031302,-0.0062349
-0.008385,0.013619,0.0083395,-0.01981,0.0029624,-0.050867,-0.04423,-0.0056149,-0.010507,-0.011323,-0.060679,-0.031747,0.0133,0.049515,0.11225,-0.021021,0.0096858,-0.028342,0.078213,-0.0083946,0.002277,-0.036236,-0.032334,-0.011892
-0.012506,0.011552,0.0055743,-0.022529,0.0037923,-0.051173,-0.041447,-0.0024993,-0.0084814,-0.013967,-0.058257,-0.026851,0.012651,0.049305,0.10306,-0.023405,0.0058721,-0.025704,0.076197,-0.013632,0.00084154,-0.0384,-0.033324,-0.018371
-0.012341,0.0081753,0.0047521,-0.026437,0.0034259,-0.049566,-0.042571,-0.00011121,-0.0025883,-0.015586,-0.055466,-0.019515,0.011855,0.04619,0.092273,-0.025735,0.0027024,-0.023216,0.072004,-0.018301,-0.00061633,-0.039219,-0.035398,-0.021328
-0.007805,0.0066438,0.007222,-0.029737,0.00093794,-0.046553,-0.045335,0.0006138,0.0025457,-0.016282,-0.052658,-0.014385,0.011259,0.041804,0.08239,-0.026184,0.0018222,-0.020491,0.068578,-0.020607,-0.0025531,-0.038986,-0.038451,-0.019477
-0.0013823,0.0082404,0.011192,-0.031333,-0.002037,-0.043502,-0.046914,-0.00047873,0.0025942,-0.016562,-0.050641,-0.014085,0.0093593,0.038496,0.074999,-0.023902,0.0024269,-0.017706,0.065007,-0.020152,-0.0047182,-0.038463,-0.041177,-0.015393
0.003188,0.011509,0.012842,-0.030907,-0.0023585,-0.041764,-0.045593,-0.0027499,-0.0028246,-0.016377,-0.05049,-0.017837,0.0045661,0.037475,0.069576,-0.019801,0.0026852,-0.015329,0.057516,-0.018098,-0.0059052,-0.038374,-0.041796,-0.012784
0.0034439,0.013945,0.0094539,-0.028598,0.0017506,-0.041705,-0.041737,-0.0052266,-0.0099936,-0.015035,-0.053166,-0.022702,-0.0023626,0.037641,0.063597,-0.016063,0.0018765,-0.013471,0.043006,-0.016134,-0.0048684,-0.038821,-0.039095,-0.012868
1.4476e-007,0.014537,0.0020182,-0.024878,0.0085732,-0.042414,-0.037497,-0.0072691,-0.014348,-0.01218,-0.05893,-0.02603,-0.0078797,0.036274,0.054279,-0.014714,0.0010545,-0.011689,0.022124,-0.015274,-0.0017444,-0.039241,-0.033361,-0.013282
-0.0040215,0.01466,-0.0050575,-0.020728,0.013699,-0.042332,-0.035382,-0.0089341,-0.014075,-0.0087673,-0.066691,-0.027011,-0.0081122,0.031293,0.040861,-0.016376,0.0017235,-0.0095432,-0.00065356,-0.015533,0.0014449,-0.039082,-0.026695,-0.010606
-0.0056129,0.016447,-0.0072109,-0.017593,0.013417,-0.040333,-0.036543,-0.010667,-0.010982,-0.0068492,-0.073662,-0.026409,-0.0022857,0.023361,0.025563,-0.020068,0.004019,-0.0073303,-0.019867,-0.016555,0.0020324,-0.038499,-0.022163,-0.0041186
-0.0043283,0.020282,-0.0033711,-0.016662,0.0078867,-0.036482,-0.039994,-0.012547,-0.0082646,-0.0080575,-0.075909,-0.025291,0.0060564,0.015985,0.012243,-0.024035,0.0062797,-0.0060868,-0.032465,-0.018294,-0.0010768,-0.03825,-0.021886,0.0028915
-0.0023907,0.023972,0.0031692,-0.017849,0.0012163,-0.031959,-0.043359,-0.01385,-0.007544,-0.01202,-0.069996,-0.024149,0.011429,0.013241,0.0036257,-0.026804,0.0064335,-0.0066524,-0.039204,-0.020933,-0.0061254,-0.038752,-0.025221,0.005718
-0.0023942,0.024556,0.0075413,-0.019544,-0.0017929,-0.028261,-0.044656,-0.013524,-0.0078323,-0.016162,-0.055066,-0.023042,0.010545,0.01674,-0.00067964,-0.027684,0.0038241,-0.0086256,-0.043408,-0.024237,-0.0095519,-0.039345,-0.028701,0.002481
-0.0047773,0.02116,0.007385,-0.019748,0.00047361,-0.026287,-0.043704,-0.011289,-0.0070273,-0.017294,-0.033912,-0.022183,0.0047106,0.02427,-0.0037091,-0.026645,-0.00027276,-0.010362,-0.048456,-0.02727,-0.0087899,-0.038762,-0.028271,-0.0039531
-0.0074321,0.016184,0.0046181,-0.017889,0.005278,-0.025918,-0.041991,-0.0082716,-0.0041967,-0.013902,-0.011889,-0.022048,-0.0015301,0.031416,-0.008649,-0.024043,-0.0038603,-0.010274,-0.055964,-0.028999,-0.0045185,-0.036598,-0.022332,-0.0082844
-0.0077441,0.013594,0.0033414,-0.015631,0.0080319,-0.026298,-0.041089,-0.0063551,-0.00048421,-0.0074368,0.0059806,-0.022802,-0.0041796,0.035017,-0.016467,-0.020574,-0.005901,-0.0083523,-0.065575,-0.029228,-0.00028308,-0.03424,-0.012966,-0.0072637
-0.0050545,0.015695,0.0058806,-0.015662,0.0061886,-0.026462,-0.040993,-0.0066379,0.0019795,-0.001571,0.017774,-0.023736,-0.0026544,0.035707,-0.025599,-0.017284,-0.0068689,-0.0063952,-0.075844,-0.028769,0.0003973,-0.03398,-0.0040976,-0.0022342
-0.0012236,0.021203,0.010668,-0.019266,0.0011117,-0.025772,-0.039882,-0.0084494,0.0019204,0.0001163,0.025182,-0.023524,0.00056933,0.037309,-0.033651,-0.015217,-0.0078254,-0.0065058,-0.085101,-0.028531,-0.0029888,-0.036784,0.0018656,0.0025032
0.0011053,0.026263,0.013873,-0.024846,-0.0035302,-0.023936,-0.035665,-0.0099946,-0.00016642,-0.0035825,0.031348,-0.021249,0.0027616,0.043434,-0.03927,-0.014686,-0.0091768,-0.0091033,-0.091661,-0.028429,-0.0075265,-0.040864,0.0057517,0.0037415
0.00076866,0.027508,0.013108,-0.028952,-0.0051117,-0.02083,-0.028083,-0.01015,-0.0026205,-0.010797,0.037876,-0.017334,0.0033362,0.054087,-0.042445,-0.01481,-0.010471,-0.012308,-0.093706,-0.027386,-0.0094558,-0.042767,0.010002,0.0018948
-0.0012267,0.024532,0.009646,-0.029092,-0.0039931,-0.016562,-0.019569,-0.0096754,-0.0039252,-0.01782,0.043565,-0.013437,0.0037215,0.065259,-0.043352,-0.013987,-0.011329,-0.013404,-0.089503,-0.024553,-0.007472,-0.040358,0.015348,-0.0002077
-0.0029938,0.019779,0.007102,-0.025878,-0.002493,-0.011789,-0.013917,-0.010533,-0.0035347,-0.021322,0.045865,-0.011305,0.0052367,0.072038,-0.041403,-0.011202,-0.012292,-0.011147,-0.078255,-0.020518,-0.0037846,-0.034981,0.019308,-0.00066774
-0.0035718,0.016185,0.007987,-0.02246,-0.0022541,-0.0078411,-0.013628,-0.013821,-0.0017699,-0.020051,0.043591,-0.011531,0.0073625,0.072623,-0.035878,-0.0071522,-0.014439,-0.0068322,-0.061013,-0.017145,-0.0020283,-0.030541,0.018363,-0.00041185
-0.0035355,0.014782,0.011465,-0.021625,-0.0027637,-0.0061649,-0.017969,-0.018305,0.00074094,-0.01514,0.038357,-0.013231,0.0081606,0.06973,-0.027597,-0.0040762,-0.018039,-0.0031448,-0.040741,-0.016036,-0.0040095,-0.030068,0.01192,-0.0017987
-0.0040956,0.014283,0.014316,-0.023128,-0.0023792,-0.0072477,-0.02344,-0.021112,0.0034082,-0.0092099,0.033512,-0.014816,0.0063156,0.068065,-0.019623,-0.0041884,-0.021708,-0.0018441,-0.021135,-0.017143,-0.0082723,-0.032897,0.0040838,-0.0056709
-0.0058163,0.012759,0.013951,-0.023758,-0.00054784,-0.0098951,-0.026457,-0.020121,0.0056557,-0.0050985,0.031677,-0.015108,0.0026937,0.070051,-0.015649,-0.0078742,-0.023203,-0.0023542,-0.0048332,-0.018923,-0.011668,-0.035136,0.0011067,-0.010187
-0.0081814,0.00965,0.010508,-0.020276,0.0012699,-0.011709,-0.026182,-0.01593,0.0068741,-0.0048221,0.03311,-0.013895,-0.00013131,0.07362,-0.017056,-0.013132,-0.02131,-0.0024313,0.0076999,-0.019886,-0.012277,-0.033098,0.0065011,-0.012754
-0.010182,0.0062021,0.0062026,-0.012712,0.0010132,-0.010686,-0.025088,-0.011506,0.0066403,-0.0088713,0.036082,-0.011671,4.6041e-005,0.074055,-0.021323,-0.016809,-0.017039,-0.00016367,0.017802,-0.01988,-0.010894,-0.026508,0.018174,-0.01293
-0.011156,0.0040607,0.0029266,-0.0049685,-0.0017006,-0.0067946,-0.026629,-0.0097459,0.0050415,-0.015795,0.038509,-0.0090768,0.0032446,0.068295,-0.023678,-0.016725,-0.012869,0.0045202,0.027136,-0.019773,-0.0098007,-0.018583,0.030156,-0.013012
-0.011142,0.0034821,0.00063236,-0.0018977,-0.0048391,-0.0022063,-0.031923,-0.011096,0.0027187,-0.022392,0.039227,-0.0065861,0.0072566,0.057961,-0.021065,-0.013083,-0.010648,0.010014,0.036385,-0.01997,-0.010221,-0.013126,0.037274,-0.015422
-0.010656,0.0029357,-0.0020349,-0.0051475,-0.0056022,0.00013005,-0.038409,-0.013335,0.00051114,-0.025013,0.038062,-0.0044941,0.0092964,0.048578,-0.015154,-0.0081257,-0.010121,0.014469,0.045175,-0.01953,-0.011006,-0.011531,0.038565,-0.01957
-0.01024,0.00047995,-0.0058159,-0.01135,-0.0028904,-0.0014539,-0.041863,-0.013656,-0.0010023,-0.021775,0.035276,-0.0029122,0.0078981,0.045734,-0.011571,-0.0044086,-0.0095017,0.017139,0.053076,-0.017078,-0.0097908,-0.012361,0.036711,-0.021677
-0.01006,-0.0043892,-0.0097917,-0.014429,0.0017421,-0.0062096,-0.0401,-0.011134,-0.0016974,-0.014332,0.031333,-0.0016367,0.0036119,0.051284,-0.015622,-0.0030343,-0.0074769,0.018641,0.060534,-0.012661,-0.0054578,-0.013375,0.034678,-0.018159
-0.0096817,-0.010134,-0.012269,-0.010301,0.0054371,-0.011557,-0.035023,-0.0073881,-0.0017823,-0.0074394,0.027169,-0.00015584,-0.0018039,0.062342,-0.027859,-0.0031653,-0.0046449,0.020232,0.068745,-0.0084403,0.00047017,-0.013536,0.033162,-0.0094086
-0.0082331,-0.014344,-0.012542,-0.00012942,0.0062887,-0.014841,-0.031008,-0.004977,-0.0015853,-0.0059139,0.024203,0.0019549,-0.0067903,0.073344,-0.043211,-0.0030469,-0.0029299,0.022895,0.078564,-0.0070846,0.0048357,-0.013007,0.031122,-8.24e-005
-0.0051089,-0.015628,-0.011629,0.010621,0.004483,-0.014909,-0.031008,-0.0050922,-0.0014027,-0.010907,0.023565,0.0044886,-0.010787,0.079344,-0.054536,-0.0016108,-0.0035701,0.02685,0.089641,-0.0090953,0.005372,-0.011667,0.028307,0.0047367
-0.00090966,-0.014627,-0.011223,0.016496,0.001644,-0.012446,-0.034,-0.0066259,-0.0013437,-0.018598,0.025011,0.006531,-0.013928,0.078367,-0.057809,0.00066006,-0.0057268,0.03156,0.10079,-0.011706,0.0025453,-0.0083372,0.026659,0.0040017
0.0022978,-0.013469,-0.012006,0.016104,-0.00058237,-0.0090854,-0.036216,-0.0073193,-0.0011393,-0.022866,0.026696,0.0071608,-0.016176,0.071838,-0.054764,0.0022471,-0.0071837,0.035978,0.11137,-0.010778,-0.00081898,-0.0019039,0.028872,0.0014999
0.0021092,-0.014295,-0.013035,0.012593,-0.0013161,-0.0061259,-0.035005,-0.0058361,-0.00016609,-0.02017,0.026399,0.0064308,-0.016876,0.063388,-0.050934,0.0019661,-0.0065245,0.038938,0.12229,-0.00431,-0.0017296,0.0068947,0.035489,0.0021277
-0.0022149,-0.018089,-0.012749,0.010431,-0.0002727,-0.0038483,-0.031517,-0.0028966,0.0020332,-0.012598,0.023381,0.0056794,-0.015268,0.056891,-0.050815,-1.9697e-006,-0.0046545,0.039677,0.13529,0.0055288,0.0008055,0.015278,0.043582,0.0071678
-0.0085775,-0.024448,-0.010494,0.011521,0.0026216,-0.0017931,-0.029456,-0.00054063,0.0049565,-0.0062282,0.019301,0.0066855,-0.011503,0.054606,-0.054145,-0.0022288,-0.0040882,0.038383,0.15081,0.013797,0.0052981,0.020415,0.0486,0.013094
-0.013126,-0.032067,-0.0070386,0.014037,0.0071493,0.00039994,-0.031024,-0.0002199,0.006894,-0.0059056,0.017242,0.01023,-0.0071134,0.056184,-0.056211,-0.0030569,-0.0065717,0.036415,0.16632,0.016525,0.0091332,0.021702,0.047884,0.015015
-0.013109,-0.039344,-0.0037297,0.014716,0.012456,0.0024067,-0.034138,-0.001362,0.0058832,-0.010853,0.019508,0.015276,-0.0042325,0.059124,-0.051679,-0.0015544,-0.011273,0.035817,0.17705,0.013609,0.010476,0.020954,0.042734,0.011392
-0.0091848,-0.044802,-0.0013441,0.012203,0.01713,0.0034726,-0.034002,-0.0016374,0.001445,-0.015086,0.025907,0.019565,-0.0039836,0.060519,-0.03866,0.002288,-0.015319,0.038208,0.1792,0.0084521,0.0092431,0.020281,0.037133,0.0054933
-0.00499,-0.047466,0.00012669,0.0083404,0.019928,0.0033545,-0.027872,0.0011969,-0.0043738,-0.012505,0.033867,0.021244,-0.0053345,0.058965,-0.019867,0.0079276,-0.016242,0.043639,0.17317,0.0049076,0.00665,0.019947,0.03424,0.0023383
-0.004101,-0.047265,0.00069807,0.0063894,0.020535,0.0030725,-0.018425,0.0072714,-0.0079225,-0.0023372,0.040247,0.020254,-0.0055788,0.055151,-0.00036892,0.014524,-0.014055,0.050288,0.16389,0.0043706,0.0040511,0.018555,0.033612,0.0042206
-0.0069379,-0.045189,-0.00023178,0.0080726,0.019603,0.0045384,-0.012197,0.014049,-0.0065128,0.0098657,0.043436,0.018328,-0.0023268,0.050571,0.015752,0.020816,-0.01102,0.055392,0.15737,0.005503,0.0021752,0.01533,0.031403,0.0091329
-0.010387,-0.042821,-0.0033595,0.012225,0.018066,0.0089906,-0.014129,0.017883,-0.00068215,0.016672,0.044229,0.017602,0.004453,0.045508,0.027067,0.025131,-0.0093548,0.05697,0.15593,0.0064426,0.0012305,0.011928,0.023214,0.01333
-0.01057,-0.041329,-0.0082095,0.016146,0.01645,0.015376,-0.023181,0.016699,0.0058434,0.014905,0.044988,0.018963,0.012044,0.038297,0.033942,0.026103,-0.0091465,0.055161,0.15629,0.0070625,0.001418,0.011517,0.0072293,0.015163
-0.0063534,-0.040622,-0.012631,0.018167,0.014868,0.020252,-0.033154,0.011738,0.0087073,0.008219,0.047834,0.021439,0.016733,0.026895,0.036602,0.023806,-0.008484,0.052124,0.15236,0.0089937,0.0030567,0.015785,-0.014708,0.01628
-0.00050206,-0.039479,-0.014029,0.018948,0.013579,0.019805,-0.037997,0.0068415,0.0060972,0.0039425,0.053153,0.023097,0.01647,0.011581,0.034271,0.020139,-0.0056673,0.050454,0.1408,0.013467,0.0060725,0.022883,-0.038498,0.019177
0.0025912,-0.036723,-0.011509,0.020372,0.013306,0.012744,-0.036654,0.0056451,4.6901e-005,0.0069814,0.059337,0.022675,0.012382,-0.0037352,0.026163,0.017672,-0.001287,0.051276,0.12467,0.019269,0.009449,0.028583,-0.06019,0.023909
0.00065409,-0.032526,-0.0069136,0.023258,0.014751,0.0017977,-0.033046,0.0088449,-0.0051482,0.015968,0.063844,0.020632,0.0079142,-0.013231,0.013252,0.01764,0.0019074,0.053504,0.11191,0.023085,0.011471,0.029795,-0.077395,0.02752
-0.0044583,-0.028647,-0.0035542,0.026194,0.017665,-0.0076952,-0.031551,0.013775,-0.0061242,0.024779,0.064871,0.01883,0.0062231,-0.012941,-0.00089274,0.018908,0.0013143,0.054892,0.10961,0.022209,0.010859,0.02716,-0.088943,0.026887
-0.0082121,-0.027129,-0.003595,0.026707,0.020471,-0.011347,-0.032541,0.016657,-0.002781,0.02787,0.062614,0.019111,0.0078229,-0.0036294,-0.011038,0.019083,-0.0031532,0.053968,0.1189,0.017232,0.0078754,0.024245,-0.09363,0.022103
-0.007073,-0.028396,-0.0064125,0.023783,0.02107,-0.0088233,-0.032208,0.015627,0.0019341,0.024757,0.059301,0.021905,0.010363,0.0097403,-0.012371,0.016981,-0.008806,0.051252,0.13421,0.012069,0.0042561,0.024131,-0.0896,0.016933
-0.0013617,-0.0304,-0.0093298,0.019385,0.018383,-0.0040107,-0.026493,0.012027,0.0044556,0.019977,0.057879,0.025881,0.010733,0.021701,-0.002464,0.01412,-0.01224,0.048758,0.14745,0.010983,0.0018153,0.026631,-0.075164,0.01575
0.005003,-0.029849,-0.0098843,0.017359,0.013341,-0.00195,-0.015026,0.0090075,0.003285,0.018931,0.060084,0.028874,0.0078151,0.030224,0.017866,0.013676,-0.01188,0.048261,0.15334,0.015012,0.00091639,0.028672,-0.050391,0.019801
0.0075482,-0.024861,-0.0074698,0.020365,0.0084072,-0.0048141,-0.0013128,0.0088414,-7.7547e-005,0.023396,0.065215,0.029348,0.0036126,0.037722,0.044996,0.017662,-0.008852,0.049851,0.15182,0.020977,0.00029665,0.027247,-0.018072,0.026238
0.004552,-0.016981,-0.0030961,0.027333,0.0058771,-0.010064,0.010666,0.011292,-0.0025193,0.030496,0.070603,0.027347,0.0017072,0.048361,0.073898,0.024902,-0.0056721,0.05194,0.14644,0.02411,-0.0014901,0.021982,0.016889,0.030691
-0.0019455,-0.010721,0.0019914,0.033749,0.0062772,-0.012304,0.019859,0.014243,-0.001829,0.035609,0.073604,0.024324,0.0042321,0.064067,0.09992,0.031722,-0.0040747,0.052617,0.14082,0.022163,-0.0043985,0.01498,0.049278,0.030845
-0.0079885,-0.010582,0.0071561,0.034886,0.0081133,-0.0074643,0.028411,0.015727,0.0016287,0.036372,0.073672,0.02208,0.0098876,0.082627,0.12022,0.0348,-0.0038769,0.051134,0.13638,0.017456,-0.0067225,0.0084784,0.075309,0.027863
-0.010719,-0.017604,0.011997,0.029533,0.0091015,0.0039743,0.039029,0.015409,0.0053057,0.034286,0.072782,0.021632,0.01479,0.099402,0.13423,0.033677,-0.0036106,0.048297,0.13256,0.014991,-0.0067167,0.0029702,0.093387,0.024729
-0.010169,-0.028104,0.015683,0.021141,0.0078506,0.017272,0.052391,0.014367,0.0065182,0.032893,0.073672,0.022744,0.015589,0.11095,0.14293,0.03082,-0.0021026,0.045602,0.12829,0.018209,-0.0044158,-0.0022726,0.10393,0.023476
-0.0086539,-0.035747,0.017225,0.015316,0.0047069,0.027006,0.066943,0.013721,0.0044776,0.034478,0.077258,0.02429,0.012282,0.11737,0.14754,0.029373,0.0004435,0.043966,0.12306,0.026044,-0.001735,-0.0070273,0.10885,0.023901
-0.008545,-0.035634,0.016619,0.015581,0.0012646,0.031025,0.080668,0.013623,0.00072746,0.038271,0.08147,0.025055,0.0083321,0.12154,0.14861,0.030658,0.0026698,0.043174,0.11713,0.033831,-0.00062314,-0.0089425,0.11098,0.024562
-0.010334,-0.027529,0.015447,0.020887,-0.00090874,0.031583,0.092516,0.013499,-0.0022411,0.04144,0.082699,0.024414,0.0078953,0.12623,0.14605,0.033415,0.0032506,0.042376,0.1113,0.037205,-0.0010902,-0.0050828,0.11314,0.024616
-0.012472,-0.015919,0.015854,0.026846,-0.0013323,0.03286,0.10214,0.013044,-0.0029394,0.041633,0.078781,0.022554,0.012446,0.13199,0.1398,0.035066,0.0020357,0.041065,0.10695,0.035553,-0.0011723,0.0049342,0.11674,0.024549
-0.012921,-0.0069323,0.018574,0.029499,-0.00080965,0.037076,0.10876,0.012645,-0.00177,0.038781,0.07095,0.020249,0.01953,0.13732,0.13014,0.033703,0.00030357,0.039595,0.10584,0.032059,0.0010181,0.017285,0.12082,0.025296
-0.011039,-0.0043313,0.022014,0.028286,-0.00080513,0.042548,0.11105,0.012695,-0.00025246,0.034829,0.063012,0.018395,0.024595,0.14049,0.11729,0.029318,-4.3741e-005,0.038807,0.10911,0.030505,0.0051789,0.025839,0.12252,0.026913
-0.0081743,-0.0073716,0.023609,0.02581,-0.0025007,0.04525,0.10852,0.012594,0.00053402,0.032001,0.0584,0.017549,0.024307,0.14095,0.10099,0.023732,0.0021813,0.039182,0.11594,0.031873,0.0088242,0.026481,0.11928,0.02824
-0.0065252,-0.011857,0.022416,0.024957,-0.0060851,0.042421,0.10305,0.010848,0.00080206,0.031244,0.057686,0.017702,0.018711,0.1389,0.080884,0.019599,0.0064655,0.040351,0.12333,0.033785,0.0094994,0.020337,0.11123,0.027861
-0.0072574,-0.013381,0.020388,0.026216,-0.010628,0.035091,0.098545,0.0066354,0.0014941,0.031972,0.058646,0.018386,0.01074,0.1339,0.057748,0.019143,0.010709,0.041453,0.12773,0.033084,0.007047,0.013043,0.10165,0.025397
-0.0095386,-0.010243,0.020787,0.027603,-0.014591,0.027503,0.098674,0.0014529,0.0029978,0.032942,0.058594,0.019059,0.0038203,0.12433,0.034241,0.023051,0.012523,0.042023,0.12754,0.028914,0.0036724,0.010517,0.094827,0.021954
-0.011332,-0.0039336,0.024951,0.026932,-0.016698,0.024067,0.10447,-0.0010646,0.0045075,0.033292,0.056715,0.019537,-0.00031735,0.10825,0.013951,0.02989,0.010915,0.042528,0.1243,0.0234,0.0017657,0.014635,0.092843,0.019367
-0.011216,0.0028709,0.030443,0.024034,-0.016602,0.026424,0.11385,0.0023481,0.0047304,0.032945,0.054337,0.020122,-0.0020479,0.084655,-0.00096516,0.036471,0.0070869,0.043884,0.12142,0.019455,0.0017132,0.022272,0.094106,0.018881
-0.0095477,0.0088791,0.032611,0.020824,-0.014889,0.032745,0.12348,0.011608,0.0032745,0.032366,0.053148,0.021287,-0.0026245,0.053644,-0.011639,0.0393,0.0035889,0.046257,0.12169,0.018049,0.0019297,0.02825,0.094772,0.020269
-0.0079169,0.014996,0.028465,0.019343,-0.012419,0.039379,0.13113,0.022588,0.0013236,0.032059,0.053257,0.023114,-0.0028139,0.015207,-0.021967,0.036546,0.0023873,0.048236,0.12575,0.017651,0.0010245,0.029478,0.091821,0.022008
-0.0074109,0.022745,0.019505,0.019844,-0.0096378,0.043218,0.13677,0.02978,0.00081677,0.032185,0.05286,0.024931,-0.0026851,-0.031925,-0.035757,0.029267,0.003396,0.047431,0.1327,0.016268,-0.00025543,0.026859,0.085088,0.022393
-0.0073814,0.03192,0.010884,0.020725,-0.0065215,0.04311,0.14181,0.030401,0.002759,0.032389,0.049609,0.025563,-0.0024785,-0.089742,-0.053794,0.020873,0.0047587,0.042364,0.14141,0.013863,0.00050203,0.023718,0.076707,0.020827
-0.0059439,0.039912,0.0075253,0.020231,-0.0032187,0.039841,0.1476,0.026484,0.0061775,0.031881,0.042245,0.02412,-0.0033231,-0.15875,-0.073375,0.014975,0.0046402,0.034192,0.15071,0.012623,0.0048083,0.022567,0.068886,0.018387
-0.0018339,0.043599,0.01049,0.0182,-0.00061951,0.035346,0.15467,0.023061,0.0087374,0.029861,0.031186,0.02078,-0.0067659,-0.23605,-0.090883,0.013082,0.0028896,0.026593,0.15809,0.014771,0.011259,0.023195,0.0623,0.017155
0.0040719,0.042176,0.016606,0.016249,-3.1946e-005,0.031878,0.1629,0.023887,0.00856,0.026196,0.017993,0.016903,-0.013385,-0.31587,-0.10531,0.013807,0.0010339,0.02341,0.15903,0.020124,0.016397,0.023528,0.056407,0.018654
0.0090457,0.038225,0.021402,0.016325,-0.0020235,0.031281,0.17167,0.028406,0.0056759,0.021848,0.0046092,0.014256,-0.021844,-0.39272,-0.11966,0.01418,0.00064159,0.025709,0.14918,0.025856,0.017986,0.022066,0.050918,0.022484
0.01052,0.035826,0.02256,0.018972,-0.0055003,0.034258,0.1795,0.032548,0.0018387,0.018492,-0.0069625,0.013828,-0.029486,-0.46493,-0.13886,0.012042,0.0016765,0.030681,0.12836,0.028752,0.017693,0.019488,0.046529,0.026289
0.008193,0.037263,0.020977,0.022784,-0.0081103,0.039808,0.1836,0.032546,-0.0010932,0.017361,-0.014749,0.015108,-0.03411,-0.53529,-0.16578,0.0077074,0.0024708,0.03361,0.10299,0.027835,0.020422,0.01802,0.04409,0.027266
0.0044483,0.041264,0.018938,0.025411,-0.0078867,0.045474,0.18056,0.028297,-0.0026933,0.018235,-0.017187,0.016465,-0.035415,-0.60751,-0.19857,0.0036895,0.001349,0.031532,0.083096,0.024947,0.030533,0.019396,0.043221,0.02424
0.0026668,0.04433,0.017618,0.025287,-0.0047887,0.048689,0.16834,0.023329,-0.0040022,0.019568,-0.013816,0.016398,-0.034836,-0.68023,-0.23134,0.0027402,-0.0017105,0.025633,0.075364,0.022899,0.048056,0.023374,0.042107,0.018739
0.0047645,0.043884,0.016369,0.02273,-0.00075907,0.048515,0.14833,0.021561,-0.0060918,0.019821,-0.0056992,0.014719,-0.033997,-0.74311,-0.25754,0.0056894,-0.0050312,0.020294,0.077342,0.023038,0.068159,0.028066,0.038982,0.014184
0.009898,0.040365,0.014194,0.019647,0.0017683,0.046402,0.12536,0.023903,-0.0086235,0.01883,0.0049389,0.01268,-0.033287,-0.77876,-0.27302,0.010673,-0.0068544,0.01953,0.078543,0.024471,0.084331,0.031519,0.033905,0.01366
0.01529,0.036515,0.011478,0.018097,0.0015837,0.045149,0.10509,0.027668,-0.0098993,0.017883,0.015637,0.011881,-0.03185,-0.77079,-0.27666,0.014317,-0.007003,0.023797,0.068432,0.025428,0.092643,0.032985,0.028971,0.017817
0.018375,0.034754,0.0099075,0.018766,-0.00080194,0.046776,0.09044,0.029067,-0.0084536,0.018396,0.024527,0.012864,-0.028869,-0.71355,-0.26882,0.014038,-0.0069421,0.029865,0.045108,0.025217,0.0937,0.032899,0.026551,0.024341
0.018466,0.035158,0.010582,0.020494,-0.0040707,0.051068,0.079779,0.026362,-0.0046826,0.020454,0.030669,0.01463,-0.024748,-0.61746,-0.24971,0.0098369,-0.0081926,0.033665,0.017284,0.024829,0.091059,0.031955,0.027131,0.029342
0.016707,0.035779,0.012423,0.021177,-0.0073117,0.056053,0.068596,0.020982,-0.00087218,0.022636,0.034043,0.015574,-0.020988,-0.50536,-0.21937,0.0042929,-0.010708,0.033435,-0.002394,0.025753,0.087882,0.030481,0.028875,0.029797
0.014639,0.034732,0.012863,0.019374,-0.01035,0.059858,0.05335,0.01605,0.00055592,0.023241,0.035479,0.015009,-0.018851,-0.40158,-0.17911,0.00076894,-0.012863,0.030422,-0.0071308,0.028318,0.084776,0.028712,0.02941,0.025545
0.012811,0.031935,0.010415,0.015382,-0.013129,0.062092,0.034676,0.014008,-0.00093275,0.02168,0.036362,0.013865,-0.018116,-0.32007,-0.13252,0.0011232,-0.013097,0.026856,-0.00064146,0.03128,0.080331,0.027508,0.028188,0.019575
0.010634,0.028959,0.0066,0.010989,-0.015117,0.063433,0.017493,0.015328,-0.0035098,0.018759,0.037839,0.013821,-0.017108,-0.25926,-0.084908,0.0045864,-0.011593,0.023527,0.006911,0.032994,0.07338,0.028465,0.027096,0.016299
0.0074305,0.02732,0.0050423,0.0081519,-0.015619,0.063998,0.00799,0.018857,-0.004507,0.015834,0.039766,0.015626,-0.014001,-0.2065,-0.041617,0.0085781,-0.010288,0.01946,0.007637,0.032935,0.064653,0.033025,0.028576,0.018703
0.0035499,0.026954,0.0082449,0.0076677,-0.014704,0.062459,0.0096961,0.022834,-0.0026228,0.013862,0.040429,0.018217,-0.0082677,-0.14826,-0.0065079,0.010753,-0.011117,0.013827,0.0015621,0.031995,0.056371,0.041165,0.032853,0.02611
0.00047697,0.026296,0.014971,0.008837,-0.013675,0.057156,0.021326,0.025609,0.0010476,0.013183,0.037785,0.019562,-0.001124,-0.078794,0.018576,0.010652,-0.014129,0.007858,-0.005155,0.031255,0.050358,0.050789,0.036844,0.034237
-0.00018159,0.023823,0.020823,0.010224,-0.014333,0.048275,0.037657,0.025988,0.0039204,0.013811,0.031633,0.018533,0.0053326,-0.0015325,0.033776,0.009736,-0.017269,0.004473,-0.0068465,0.030498,0.046529,0.058442,0.035968,0.037841
0.0020475,0.019592,0.021697,0.010766,-0.017565,0.038766,0.052606,0.023666,0.003882,0.01547,0.024747,0.016032,0.0095818,0.075926,0.04122,0.0099334,-0.018143,0.005769,-0.0033135,0.028063,0.043056,0.060991,0.027516,0.034377
0.0060647,0.015403,0.017101,0.010355,-0.022543,0.032622,0.062409,0.019703,0.00069837,0.01725,0.021475,0.014223,0.011716,0.14786,0.044832,0.012025,-0.016159,0.010784,0.00098129,0.022365,0.037883,0.057184,0.012892,0.025977
0.0099421,0.013387,0.010406,0.0095992,-0.027299,0.031712,0.066967,0.016313,-0.0040421,0.017598,0.024436,0.014493,0.013408,0.21241,0.049157,0.015196,-0.013091,0.015807,0.0018285,0.013719,0.030116,0.048144,-0.0031327,0.018032
0.012275,0.014231,0.005925,0.0091634,-0.030126,0.034004,0.068808,0.01557,-0.0081053,0.015246,0.032002,0.016037,0.01683,0.26901,0.057165,0.017979,-0.011503,0.017097,-0.00092917,0.0047012,0.020176,0.036548,-0.015519,0.015187
0.01309,0.016497,0.0055232,0.0092875,-0.030517,0.035048,0.070617,0.01778,-0.0098846,0.010522,0.03895,0.016502,0.023132,0.31537,0.068412,0.019606,-0.01243,0.013583,-0.0041721,-0.0014847,0.0089087,0.025145,-0.021973,0.0178
0.013612,0.017647,0.0076413,0.0097162,-0.028921,0.031707,0.073154,0.021013,-0.0090263,0.0056908,0.040157,0.014167,0.031354,0.34768,0.079265,0.020566,-0.014405,0.0072845,-0.0054715,-0.003288,-0.0032026,0.015605,-0.023669,0.021774
0.015076,0.015944,0.009214,0.009921,-0.0259,0.024986,0.074978,0.0225,-0.0063256,0.0035933,0.034459,0.0097166,0.038607,0.36425,0.085389,0.021931,-0.014716,0.0013681,-0.0058634,-0.0017449,-0.015926,0.008327,-0.023493,0.022
0.017567,0.011739,0.0084114,0.0094139,-0.02178,0.01945,0.074035,0.020902,-0.0031812,0.0055408,0.025572,0.0059324,0.041685,0.36853,0.084648,0.024145,-0.011797,-0.0021349,-0.0085863,0.00074757,-0.02857,0.0030791,-0.023603,0.016621
0.019891,0.0071417,0.0057969,0.0080781,-0.017165,0.019609,0.069768,0.017446,-0.00087198,0.010312,0.019286,0.0055212,0.039285,0.36806,0.078106,0.026357,-0.0066702,-0.0030229,-0.01517,0.0026459,-0.039705,-0.00029316,-0.024378,0.0085756
0.020618,0.0044076,0.0033534,0.0064323,-0.013459,0.026247,0.063955,0.014815,0.00011588,0.015207,0.019164,0.0089297,0.033285,0.3694,0.068531,0.026899,-0.0022457,-0.0019159,-0.022925,0.0043871,-0.047876,-0.0017459,-0.025247,0.0031599
0.019419,0.0043906,0.0027738,0.0055755,-0.012353,0.035714,0.059518,0.014714,0.00036827,0.0182,0.024023,0.013961,0.027902,0.37358,0.058082,0.024557,-0.0011085,0.00093597,-0.026519,0.00739,-0.052775,-0.0015085,-0.026111,0.0037153
0.017434,0.0062599,0.0046047,0.00659,-0.014381,0.042701,0.058208,0.016245,0.0011016,0.019207,0.028928,0.017426,0.027023,0.37596,0.047347,0.019663,-0.0036496,0.0056602,-0.022406,0.011938,-0.055719,-0.00050782,-0.027699,0.0090944
0.016232,0.0085085,0.0084957,0.0096126,-0.017978,0.044154,0.05914,0.016594,0.0031302,0.01944,0.028777,0.017414,0.031538,0.37094,0.03626,0.014142,-0.0079411,0.011745,-0.012165,0.016092,-0.058818,-0.00012375,-0.030552,0.014895
0.01624,0.01021,0.013661,0.013303,-0.020323,0.041216,0.059458,0.013479,0.0059922,0.019716,0.021803,0.014474,0.038704,0.3575,0.025467,0.010428,-0.011232,0.017362,-0.0017228,0.016917,-0.063469,-0.0013322,-0.033932,0.017187
0.016154,0.011434,0.018888,0.015392,-0.019576,0.037858,0.056656,0.0072591,0.0080836,0.019549,0.010673,0.010982,0.044054,0.3408,0.01644,0.0099701,-0.011724,0.020076,0.0029923,0.013157,-0.069505,-0.0039604,-0.036118,0.01544
0.014067,0.012646,0.022457,0.014182,-0.016474,0.037579,0.050606,0.00093125,0.0078996,0.017928,0.00062753,0.0093814,0.04441,0.32846,0.010321,0.012411,-0.0093319,0.018573,0.00036213,0.0069492,-0.075717,-0.0067692,-0.036057,0.012314
0.009439,0.013883,0.022716,0.0099369,-0.013553,0.040913,0.043633,-0.0019821,0.0054386,0.014872,-0.0039643,0.010578,0.039759,0.32465,0.0070071,0.016014,-0.0052155,0.013927,-0.0061268,0.0027942,-0.081205,-0.0083645,-0.034695,0.010816
0.0040836,0.014535,0.01928,0.0049805,-0.012518,0.045509,0.038642,4.9794e-005,0.0024939,0.012024,-0.002386,0.013485,0.032805,0.32698,0.0057493,0.018965,-0.00083158,0.0091789,-0.01109,0.0042411,-0.086173,-0.0082093,-0.034382,0.011532
0.0010591,0.013891,0.013742,0.0022441,-0.012336,0.048343,0.036958,0.0055822,0.0014013,0.011526,0.0020643,0.015848,0.026864,0.32841,0.0067626,0.020468,0.0026513,0.0073649,-0.01163,0.010907,-0.091402,-0.0069245,-0.036559,0.012347
0.0022097,0.011902,0.0089295,0.0032826,-0.010212,0.048072,0.037592,0.011357,0.0031703,0.014105,0.0043142,0.015753,0.023804,0.32257,0.01211,0.020747,0.0044132,0.0094083,-0.0092505,0.018417,-0.096969,-0.0056805,-0.039836,0.010689
0.0064394,0.0095308,0.0069643,0.0072315,-0.0047856,0.045733,0.038312,0.014561,0.0065771,0.018139,0.00089854,0.01288,0.023338,0.30805,0.024791,0.020118,0.0039632,0.013495,-0.0078995,0.021575,-0.1016,-0.0051904,-0.040538,0.0061336
0.010301,0.0084601,0.0076883,0.011463,0.0016488,0.043557,0.037335,0.014438,0.0090627,0.020611,-0.0077404,0.0087493,0.023716,0.28857,0.046796,0.018197,0.0013983,0.016456,-0.01007,0.018346,-0.1035,-0.0050632,-0.035662,0.0010026
0.010537,0.010323,0.008874,0.013415,0.004587,0.043078,0.034196,0.01223,0.0087487,0.0192,-0.017565,0.0057999,0.023026,0.26925,0.077794,0.014211,-0.0022946,0.016158,-0.014438,0.011435,-0.10197,-0.0039658,-0.025859,-0.0015135
0.0065396,0.015747,0.0081499,0.012244,0.0016041,0.04403,0.0294,0.0098119,0.0059032,0.013848,-0.023645,0.0058786,0.020259,0.25249,0.11527,0.0082086,-0.005456,0.013078,-0.017047,0.0061497,-0.098272,-0.00051026,-0.015693,-2.1157e-005
0.00077365,0.023642,0.0050411,0.0092116,-0.0045025,0.04466,0.023622,0.0083183,0.0026445,0.0066591,-0.023404,0.0091119,0.015743,0.23656,0.15526,0.0018905,-0.0066466,0.0098742,-0.01487,0.0063006,-0.094885,0.0056462,-0.010596,0.0039257
-0.0030815,0.031302,0.0013797,0.0066241,-0.0072302,0.043,0.017397,0.0077952,0.0011825,0.00037313,-0.018164,0.013909,0.01089,0.21797,0.19254,-0.0020737,-0.0055855,0.0093372,-0.0085926,0.011433,-0.093488,0.013193,-0.01278,0.007093
-0.0027161,0.03565,-0.00027466,0.006179,-0.0018812,0.038133,0.011383,0.0078694,0.0021144,-0.0033243,-0.012027,0.01807,0.0073583,0.19538,0.22053,-0.0019751,-0.0032374,0.012377,-0.0022742,0.017479,-0.0935,0.019601,-0.019417,0.0070793
0.0014355,0.035223,0.0011378,0.0078447,0.0096822,0.030728,0.006492,0.008504,0.0041711,-0.0044876,-0.0089515,0.020201,0.0059997,0.17204,0.23243,0.0013707,-0.00084964,0.017554,-0.00035367,0.02005,-0.0923,0.022571,-0.024706,0.0039596
0.0068262,0.031518,0.0041847,0.010009,0.019691,0.022689,0.0033598,0.0099798,0.0054925,-0.004332,-0.010194,0.020432,0.0061752,0.15464,0.22441,0.0049619,0.0011947,0.02227,-0.0046263,0.017581,-0.087044,0.021638,-0.024297,-0.0001429
0.01067,0.028367,0.0060149,0.010733,0.02056,0.016212,0.0015575,0.012167,0.0052187,-0.0040395,-0.013864,0.019974,0.0060237,0.14927,0.19916,0.0057912,0.003535,0.024384,-0.01353,0.012012,-0.076732,0.018628,-0.018593,-0.0029297
0.011598,0.029309,0.0045942,0.0092181,0.011373,0.012715,-0.00048977,0.01401,0.0040288,-0.0038834,-0.016751,0.019913,0.0036435,0.15706,0.16617,0.0031358,0.0067527,0.022976,-0.023849,0.0069058,-0.063089,0.016328,-0.012283,-0.0035204
0.010119,0.034741,0.00026366,0.0064517,-0.001023,0.012178,-0.004449,0.014057,0.0032958,-0.003208,-0.016891,0.020209,-0.0016037,0.17256,0.13704,-0.00096564,0.010124,0.018105,-0.032977,0.0048381,-0.049734,0.016179,-0.010499,-0.0025615
0.0078987,0.0412,-0.0045986,0.0046006,-0.0074984,0.013284,-0.010642,0.011802,0.0037496,-0.0011577,-0.014879,0.019693,-0.0086646,0.18618,0.11833,-0.0034425,0.011618,0.010428,-0.039916,0.0060217,-0.040204,0.016927,-0.014701,-0.0011372
0.0065842,0.043694,-0.0074205,0.0055936,-0.0040591,0.014319,-0.017574,0.0086107,0.0048689,0.0024196,-0.013015,0.017101,-0.015569,0.18906,0.1073,-0.0026524,0.0094254,0.0013425,-0.04471,0.0087398,-0.036003,0.015657,-0.021576,0.00023287
0.0069335,0.039531,-0.0071923,0.0098538,0.0052254,0.014236,-0.023061,0.0071375,0.005444,0.0065379,-0.013153,0.012312,-0.02073,0.17751,0.094634,0.00046217,0.0037445,-0.0067875,-0.047494,0.010765,-0.035796,0.010573,-0.025781,0.0015962
0.008624,0.030644,-0.0047554,0.015978,0.012186,0.013054,-0.026103,0.0093896,0.0046647,0.0094483,-0.015166,0.0067609,-0.02369,0.15385,0.072419,0.0033739,-0.0028576,-0.011286,-0.048242,0.010624,-0.036236,0.0031623,-0.024159,0.0028834
0.010695,0.022423,-0.0016052,0.0215,0.011681,0.011268,-0.027853,0.014966,0.002687,0.0096471,-0.0173,0.0025995,-0.024804,0.12365,0.041,0.0041688,-0.0069916,-0.010854,-0.047238,0.0081716,-0.033969,-0.0023639,-0.017924,0.0035948
0.012269,0.019783,0.0015425,0.024241,0.0055202,0.0089149,-0.030678,0.021048,0.00023963,0.0068842,-0.017985,0.0012295,-0.024419,0.091588,0.0089827,0.0031053,-0.0067063,-0.0069663,-0.045404,0.0045415,-0.027588,-0.0021257,-0.0111,0.0033989
0.013084,0.023478,0.0051089,0.023474,-2.8452e-006,0.0052954,-0.036037,0.024342,-0.0021887,0.0024449,-0.017265,0.0024247,-0.022512,0.059153,-0.013819,0.0023723,-0.0026876,-0.0033413,-0.043888,0.0016266,-0.018213,0.0043933,-0.0067089,0.0029921
0.013494,0.029586,0.0097274,0.020321,-0.00024155,-0.0002164,-0.043034,0.023484,-0.0046534,-0.0015941,-0.016432,0.0047616,-0.019197,0.025421,-0.024544,0.0043838,0.0024008,-0.0033233,-0.043249,0.00114,-0.0082962,0.013929,-0.0041062,0.0040441
0.013973,0.032608,0.01504,0.017129,0.0038427,-0.0070714,-0.049005,0.019957,-0.0072082,-0.0036873,-0.016278,0.0068987,-0.015456,-0.01068,-0.029663,0.0099792,0.005721,-0.0071389,-0.043088,0.0035302,0.00035967,0.021948,0.0002217,0.0078721
0.014592,0.029796,0.019457,0.01611,0.0072984,-0.013382,-0.051709,0.016793,-0.0091587,-0.0037646,-0.01592,0.0084688,-0.013124,-0.049346,-0.039568,0.017768,0.0058172,-0.011498,-0.042593,0.0074549,0.0077149,0.025856,0.0091609,0.0139
0.014962,0.023313,0.021206,0.017953,0.0063897,-0.017116,-0.051198,0.016188,-0.0091216,-0.0030519,-0.013697,0.009788,-0.013833,-0.091168,-0.059953,0.024906,0.0030591,-0.012186,-0.041493,0.010483,0.014865,0.026251,0.021903,0.019483
0.01471,0.018519,0.01981,0.021255,0.0022166,-0.01769,-0.049724,0.017987,-0.0061507,-0.0029028,-0.0093975,0.010865,-0.017776,-0.13887,-0.087058,0.028674,-0.00092009,-0.0076101,-0.04045,0.010823,0.022441,0.025491,0.034023,0.021605
0.014002,0.01974,0.016671,0.023286,-0.00056943,-0.016507,-0.049851,0.020177,-0.00099016,-0.0036194,-0.0053741,0.010983,-0.023486,-0.19666,-0.11041,0.027904,-0.0041778,-0.00028109,-0.040422,0.0088177,0.029717,0.025289,0.040629,0.019202
0.0135,0.026925,0.014159,0.021744,0.00156,-0.015902,-0.052547,0.020789,0.0039089,-0.0042723,-0.0048299,0.0095062,-0.028926,-0.26638,-0.12045,0.023538,-0.0053193,0.0051221,-0.04153,0.0068003,0.035337,0.025606,0.039904,0.014117
0.013754,0.035877,0.013857,0.016396,0.0075462,-0.017418,-0.056966,0.019506,0.0060031,-0.0036458,-0.0084915,0.0070988,-0.032933,-0.34352,-0.11485,0.018078,-0.0040421,0.0054816,-0.042597,0.0071864,0.038806,0.025551,0.034139,0.0097627
0.014627,0.041829,0.0154,0.0094438,0.012677,-0.020871,-0.061827,0.017685,0.0047112,-0.0013986,-0.012967,0.0058025,-0.035766,-0.41708,-0.09897,0.014178,-0.0012156,0.0016406,-0.041978,0.010294,0.041019,0.024936,0.027653,0.0085667
0.01539,0.043332,0.016942,0.0042411,0.012838,-0.024851,-0.066767,0.01699,0.0020597,0.0016519,-0.012993,0.0074243,-0.038406,-0.47496,-0.081118,0.013104,0.0016384,-0.0024642,-0.039083,0.01386,0.043164,0.024631,0.023543,0.010352
0.015462,0.043128,0.016943,0.0032199,0.0080501,-0.027952,-0.072228,0.017947,0.0011507,0.0043456,-0.0061026,0.011538,-0.041489,-0.51142,-0.067113,0.014011,0.0032992,-0.0030882,-0.035166,0.01487,0.045179,0.025346,0.02193,0.012913
0.015068,0.045343,0.015776,0.0064799,0.0022085,-0.029567,-0.07819,0.019661,0.003636,0.0062247,0.0044904,0.015202,-0.044982,-0.53102,-0.058267,0.014616,0.0036353,0.00038618,-0.032449,0.012255,0.045689,0.026244,0.02078,0.014114
0.015089,0.051569,0.015667,0.012016,-0.00040804,-0.02973,-0.083429,0.020782,0.0083604,0.0077329,0.011805,0.015149,-0.048661,-0.54525,-0.053251,0.012916,0.0035681,0.0051646,-0.032185,0.0080733,0.043807,0.025141,0.018155,0.013561
0.0162,0.059428,0.018861,0.017298,0.0014864,-0.02854,-0.086368,0.020689,0.012338,0.0094111,0.010569,0.010781,-0.052503,-0.56391,-0.050966,0.0087168,0.0041633,0.0074543,-0.033396,0.0060328,0.041023,0.020467,0.013835,0.012534
0.01809,0.064879,0.025533,0.02091,0.0057677,-0.02593,-0.086747,0.019819,0.013138,0.011018,0.0016144,0.0051977,-0.056244,-0.58757,-0.05147,0.0037579,0.0056079,0.0055474,-0.033598,0.0084438,0.040893,0.013275,0.0091253,0.012496
0.019557,0.066023,0.033333,0.023035,0.0093355,-0.02198,-0.086201,0.01895,0.010554,0.011591,-0.0086733,0.0030091,-0.058633,-0.6065,-0.054613,0.00034931,0.0070231,0.0012179,-0.031077,0.014158,0.046241,0.0072242,0.0053928,0.013713
0.019439,0.064756,0.039155,0.024597,0.010824,-0.017254,-0.086862,0.018288,0.0062768,0.010456,-0.013371,0.0065822,-0.057615,-0.60664,-0.058526,-0.00027236,0.007346,-0.0015188,-0.026696,0.019271,0.05629,0.0060936,0.0028151,0.015152
0.017584,0.064696,0.041652,0.025978,0.011177,-0.012671,-0.089264,0.01734,0.0022005,0.0081156,-0.01019,0.013984,-0.051912,-0.57798,-0.060034,0.0015471,0.0065006,0.00067317,-0.023502,0.020099,0.066626,0.010696,0.00044865,0.015556
0.014997,0.067467,0.042229,0.026443,0.012002,-0.008965,-0.091728,0.015723,-0.00084919,0.006065,-0.0026201,0.020483,-0.042697,-0.51939,-0.056809,0.0047682,0.0057382,0.0078805,-0.024243,0.01606,0.072452,0.017858,-0.0025606,0.014594
0.013097,0.071006,0.04349,0.024703,0.013646,-0.0063068,-0.091999,0.014038,-0.0029191,0.0056859,0.0034128,0.022317,-0.033407,-0.43769,-0.049173,0.0088074,0.0067276,0.016463,-0.028922,0.010164,0.072435,0.022568,-0.005836,0.013158
0.012701,0.071601,0.046426,0.02008,0.014947,-0.0044172,-0.089586,0.013772,-0.003902,0.0073267,0.0041262,0.019387,-0.027244,-0.34334,-0.039762,0.013627,0.01009,0.021081,-0.034538,0.0067891,0.069628,0.021739,-0.0078709,0.01266
0.013537,0.067671,0.048998,0.013354,0.014686,-0.0029647,-0.086452,0.016087,-0.0031418,0.010402,-2.2791e-005,0.014653,-0.024342,-0.24704,-0.031409,0.018733,0.014612,0.018068,-0.037334,0.0085218,0.06855,0.01651,-0.0074505,0.013971
0.014507,0.061596,0.047599,0.0066012,0.013098,-0.0017779,-0.085305,0.020475,-0.00027832,0.014186,-0.0057616,0.011073,-0.021451,-0.15916,-0.025243,0.022439,0.017862,0.0080187,-0.035635,0.014452,0.071022,0.011157,-0.0051878,0.016723
0.014389,0.057717,0.040338,0.0021125,0.01181,-0.00072833,-0.087128,0.024597,0.0036248,0.018285,-0.0099756,0.0091606,-0.014864,-0.09008,-0.020553,0.022684,0.017847,-0.0042425,-0.030889,0.021017,0.074501,0.0094915,-0.0036353,0.019429
0.012472,0.058354,0.029255,0.0010394,0.012271,0.00040671,-0.090329,0.025699,0.006165,0.022305,-0.011571,0.007379,-0.0041668,-0.048611,-0.016072,0.019008,0.01448,-0.012544,-0.026166,0.024515,0.074327,0.011803,-0.0055184,0.020377
0.0088662,0.061568,0.01932,0.002658,0.014256,0.0017799,-0.092285,0.022604,0.0052797,0.025353,-0.01123,0.0046911,0.0067447,-0.038044,-0.01106,0.013744,0.0097521,-0.013303,-0.023627,0.023368,0.067831,0.014904,-0.011366,0.018797
0.0044518,0.062785,0.014859,0.0047977,0.015983,0.003135,-0.091808,0.016676,0.0011977,0.02631,-0.010077,0.0023953,0.012641,-0.053069,-0.0052335,0.010825,0.0064059,-0.0077405,-0.023201,0.018742,0.056716,0.015155,-0.018627,0.015494
0.0005161,0.058777,0.016321,0.0052468,0.01574,0.0037636,-0.090238,0.010914,-0.0032082,0.024847,-0.0087731,0.0031643,0.011413,-0.081219,0.0018362,0.01278,0.0060265,-0.00068802,-0.023382,0.013484,0.045869,0.011757,-0.02332,0.012332
-0.0018404,0.050367,0.020136,0.0032307,0.01345,0.0030052,-0.090257,0.0078842,-0.0042887,0.022074,-0.0076061,0.0080866,0.0059496,-0.10892,0.010539,0.018435,0.0079616,0.0031453,-0.023035,0.010326,0.039798,0.0073885,-0.023026,0.010782
-0.0022997,0.041549,0.021786,-9.577e-005,0.010671,0.00092836,-0.093536,0.0081084,-0.00036295,0.019818,-0.0069651,0.014704,0.0016077,-0.12776,0.020105,0.023522,0.0099301,0.002527,-0.022345,0.01044,0.039603,0.0057095,-0.018717,0.01064
-0.0015372,0.036054,0.019468,-0.0025414,0.0091173,-0.0014947,-0.099276,0.010071,0.0068876,0.018966,-0.0074144,0.018313,0.001489,-0.13613,0.027912,0.023898,0.0098836,6.1528e-005,-0.022149,0.012978,0.042519,0.0080358,-0.013743,0.010143
-0.000809,0.034602,0.015289,-0.0025164,0.0092329,-0.0030505,-0.10485,0.01161,0.013555,0.018517,-0.0092456,0.015768,0.0037433,-0.13533,0.030636,0.018705,0.0076357,-0.00054623,-0.022606,0.015677,0.043921,0.012249,-0.010854,0.0075736
-0.0011326,0.035083,0.013095,-0.00017458,0.010195,-0.0033448,-0.10798,0.01139,0.016265,0.01655,-0.012042,0.0084877,0.0033184,-0.12468,0.026804,0.010809,0.004899,0.0021677,-0.022749,0.016205,0.040139,0.014914,-0.0099305,0.0030471
-0.0026584,0.035034,0.014908,0.0027913,0.011152,-0.0033645,-0.10858,0.0093737,0.01436,0.012387,-0.014797,0.0017906,-0.0033895,-0.10074,0.018528,0.0042632,0.0037068,0.0063556,-0.021455,0.013542,0.03033,0.014595,-0.0084779,-0.0012048
-0.0047192,0.033743,0.019065,0.0044799,0.012207,-0.0049448,-0.10877,0.0063044,0.0098978,0.0078248,-0.016566,0.00082575,-0.015053,-0.061391,0.01049,0.0011139,0.0046229,0.00879,-0.018845,0.0085922,0.016569,0.013206,-0.0043485,-0.0024756
-0.0064871,0.032164,0.021537,0.0041524,0.014002,-0.0093914,-0.1109,0.0030371,0.0057369,0.0059422,-0.017145,0.0064298,-0.026089,-0.010149,0.0066323,0.00027165,0.006341,0.0078381,-0.016643,0.003575,0.0023188,0.01405,0.0019586,0.00019521
-0.0076599,0.031203,0.019234,0.0026067,0.016412,-0.01623,-0.11517,0.00037436,0.0034852,0.0082787,-0.017196,0.014459,-0.030895,0.044552,0.0072901,-0.00087501,0.006976,0.0047273,-0.016998,0.00063365,-0.0098131,0.018369,0.007678,0.0051476
-0.0086127,0.030494,0.012468,0.0013658,0.017954,-0.023091,-0.11905,-0.00080411,0.0029128,0.012959,-0.017711,0.019203,-0.028126,0.095328,0.0092638,-0.003846,0.0057665,0.0020932,-0.020704,0.00067489,-0.019707,0.023717,0.010544,0.0093014
-0.0099463,0.028879,0.0046544,0.0014144,0.016869,-0.027011,-0.11914,0.00023139,0.002953,0.015724,-0.019228,0.017962,-0.021559,0.14155,0.0087393,-0.0078536,0.0035926,0.0013677,-0.026357,0.0031979,-0.029584,0.02585,0.011336,0.010336
-0.011873,0.025842,-0.00033661,0.0024926,0.013038,-0.026412,-0.1142,0.003345,0.0030385,0.013273,-0.021426,0.012896,-0.017005,0.18891,0.0044191,-0.010841,0.0019546,0.0015574,-0.031177,0.0069361,-0.041928,0.022467,0.013703,0.0080303
-0.013972,0.022082,-0.00087313,0.0034364,0.0087617,-0.022373,-0.10669,0.007072,0.0034797,0.0061333,-0.023401,0.0087223,-0.017822,0.24269,-0.0018446,-0.011534,0.0015804,0.00050796,-0.032885,0.010508,-0.05685,0.015316,0.021209,0.0038912
-0.015485,0.018538,0.0017511,0.0032185,0.0073536,-0.018093,-0.10119,0.0092623,0.0047319,-0.0014844,-0.024398,0.0084608,-0.022555,0.30109,-0.0071787,-0.010526,0.0020739,-0.0026822,-0.031173,0.012597,-0.07107,0.0086947,0.03404,-0.00025108
-0.015868,0.01496,0.0048524,0.0018217,0.010508,-0.016678,-0.1008,0.0086906,0.0065106,-0.0048526,-0.024356,0.011058,-0.026344,0.3552,-0.010273,-0.0095555,0.0028044,-0.0065347,-0.027697,0.012004,-0.079752,0.0057737,0.048189,-0.0033163
-0.015116,0.0097546,0.0065015,0.00026311,0.0167,-0.018794,-0.10457,0.0063189,0.0077539,-0.0023316,-0.023838,0.012826,-0.024813,0.39634,-0.011867,-0.0098474,0.0038983,-0.0084949,-0.024674,0.0081592,-0.080078,0.0062272,0.057887,-0.0050272
-0.013624,0.0015331,0.0064531,-0.00021315,0.022102,-0.02212,-0.10832,0.0048563,0.007479,0.0035201,-0.023425,0.011139,-0.017332,0.42413,-0.012828,-0.011135,0.0061549,-0.0074096,-0.023212,0.0019511,-0.073704,0.0072705,0.059414,-0.0053825
-0.011732,-0.0090438,0.0054263,0.0009097,0.023358,-0.023336,-0.10817,0.0066416,0.0056672,0.0081221,-0.023097,0.0068726,-0.0072127,0.44763,-0.011999,-0.012155,0.0099371,-0.0047246,-0.022611,-0.004088,-0.065799,0.0068381,0.053447,-0.0044178
-0.0094375,-0.01906,0.0038671,0.0030832,0.01996,-0.021188,-0.10382,0.011486,0.0033144,0.0084144,-0.022156,0.003399,0.0011961,0.47808,-0.0063286,-0.011987,0.014253,-0.003158,-0.021084,-0.0069812,-0.061214,0.005595,0.044361,-0.0025364
-0.0065973,-0.025277,0.0015844,0.0051914,0.014353,-0.017956,-0.09852,0.016389,0.0016255,0.0048673,-0.019778,0.0032353,0.0061378,0.51953,0.0063572,-0.0109,0.017111,-0.0040791,-0.017254,-0.0053342,-0.060914,0.0057992,0.037179,-0.00086161
-0.0034547,-0.026695,-0.0015049,0.0064091,0.0098349,-0.017752,-0.096074,0.017565,0.00113,0.00054431,-0.015836,0.0055706,0.0099335,0.56542,0.024288,-0.0099053,0.01698,-0.0061518,-0.011267,-0.00054938,-0.061786,0.0083291,0.034387,-0.00091913
-0.00090628,-0.025492,-0.0045825,0.0067029,0.0081248,-0.022835,-0.097433,0.013246,0.0014956,-0.0016739,-0.011391,0.0069958,0.017094,0.60384,0.041358,-0.0094995,0.014083,-0.0066433,-0.0047057,0.0040024,-0.059995,0.011108,0.034625,-0.003653
-3.2175e-005,-0.025405,-0.0062145,0.006641,0.0085731,-0.03119,-0.10001,0.0050246,0.0020877,-0.0012185,-0.0084307,0.0047333,0.030487,0.62634,0.050383,-0.0088355,0.010358,-0.0042074,0.00054109,0.0053776,-0.054828,0.010758,0.033804,-0.0085604
-0.0011164,-0.028834,-0.0056229,0.0067796,0.0094091,-0.037764,-0.10004,-0.0033152,0.0026304,0.00033036,-0.0088844,-0.00063535,0.048558,0.63235,0.047898,-0.006217,0.0080861,-0.00043512,0.0035396,0.0031225,-0.049449,0.0060057,0.027733,-0.013778
-0.0030615,-0.035065,-0.0036679,0.0071898,0.0096518,-0.038548,-0.095748,-0.0084668,0.0033304,0.0011919,-0.013376,-0.0054542,0.065879,0.62611,0.036919,-0.00061996,0.0082836,0.0014405,0.0047674,-0.0006546,-0.047802,-0.00052116,0.014656,-0.017192
-0.003984,-0.041088,-0.0024181,0.0074647,0.0098573,-0.033964,-0.088543,-0.0096247,0.0044431,0.0011178,-0.020481,-0.0060593,0.076677,0.61041,0.025415,0.0070447,0.010107,-0.00042416,0.0055178,-0.0031588,-0.050515,-0.0040732,-0.0036413,-0.017784
-0.0027576,-0.044232,-0.0035697,0.0071187,0.011105,-0.028537,-0.081571,-0.0084284,0.0058318,0.0013386,-0.027117,-0.0019401,0.078683,0.58375,0.021455,0.014131,0.011639,-0.0045798,0.0068138,-0.0030945,-0.053681,-0.0016946,-0.022665,-0.01623
-0.00021922,-0.044348,-0.0071649,0.0060257,0.013347,-0.027125,-0.077146,-0.0071917,0.0070236,0.002973,-0.030077,0.0037214,0.07439,0.54376,0.028455,0.017972,0.011336,-0.0074123,0.0086978,-0.0014269,-0.051782,0.0052234,-0.037525,-0.014353
0.0012109,-0.04372,-0.011778,0.0045861,0.014891,-0.031067,-0.075323,-0.0070853,0.0076813,0.0055989,-0.027931,0.0065552,0.068921,0.49246,0.04374,0.017841,0.0089966,-0.006378,0.010392,-0.00031681,-0.042201,0.012069,-0.045517,-0.013832
-0.00055911,-0.044918,-0.015862,0.003512,0.013722,-0.037533,-0.074427,-0.0076937,0.0079299,0.0074294,-0.022022,0.0044321,0.066345,0.43749,0.061011,0.015562,0.0056069,-0.0023821,0.011118,-0.0013001,-0.027299,0.014816,-0.047551,-0.015065
-0.0053837,-0.048575,-0.01884,0.0033309,0.0095539,-0.042322,-0.072629,-0.0079718,0.0081083,0.0069137,-0.015683,-0.00096132,0.067275,0.3872,0.0744,0.014155,0.0024202,0.00093591,0.010866,-0.0041882,-0.012259,0.013158,-0.047611,-0.016901
-0.010703,-0.052975,-0.020932,0.0038877,0.0046255,-0.043356,-0.06905,-0.0074426,0.0081663,0.0041922,-0.012024,-0.0055595,0.069275,0.34438,0.081042,0.015527,0.00019063,0.00040849,0.010418,-0.0073821,-0.00073654,0.010319,-0.050541,-0.017454
-0.013418,-0.055703,-0.022204,0.0042269,0.0022086,-0.041863,-0.063746,-0.0065131,0.0074196,0.0010248,-0.011807,-0.0061089,0.069301,0.3045,0.080854,0.019057,-0.00081307,-0.0038694,0.010524,-0.0091685,0.0077847,0.0099135,-0.059541,-0.01549
-0.012318,-0.055765,-0.022178,0.0030987,0.0038884,-0.040657,-0.05712,-0.0058421,0.0051379,-0.00067951,-0.013074,-0.0025895,0.066018,0.26035,0.07471,0.022241,-0.00028625,-0.0086591,0.010855,-0.008985,0.016743,0.012715,-0.074907,-0.011457
-0.0089946,-0.054304,-0.020608,-0.00010531,0.0079866,-0.041499,-0.049597,-0.0056292,0.001591,-0.00028431,-0.012921,0.0019103,0.060403,0.20877,0.063183,0.022859,0.002293,-0.010396,0.0097258,-0.0078358,0.028733,0.0161,-0.094639,-0.0073176
-0.0064343,-0.053402,-0.018495,-0.0046574,0.01073,-0.043851,-0.041825,-0.0056308,-0.0014969,0.0014845,-0.010091,0.0036266,0.054635,0.15338,0.046774,0.020823,0.0070465,-0.0080761,0.0051189,-0.0076578,0.042723,0.016393,-0.11613,-0.0051549
-0.0064803,-0.054117,-0.017865,-0.0087203,0.0094028,-0.045719,-0.034854,-0.0057971,-0.0018591,0.0036542,-0.0062084,0.00093405,0.050476,0.10148,0.026681,0.018174,0.012829,-0.0037158,-0.0035477,-0.010022,0.054651,0.011908,-0.13744,-0.0055246
-0.0083369,-0.055505,-0.020084,-0.010516,0.004828,-0.045368,-0.02977,-0.0066915,0.0014408,0.0060039,-0.0044979,-0.0045568,0.048357,0.058365,0.0046269,0.017273,0.017224,-0.00029475,-0.014389,-0.014915,0.060678,0.0041323,-0.15723,-0.0069764
-0.0094164,-0.055438,-0.024222,-0.0095974,0.00089274,-0.042369,-0.026871,-0.0090718,0.0066855,0.0088619,-0.0069186,-0.0093523,0.047508,0.024278,-0.018483,0.018772,0.017877,0.00060647,-0.023922,-0.020386,0.060192,-0.0036166,-0.17386,-0.0073207
-0.0077958,-0.052516,-0.027348,-0.007146,0.0013166,-0.03744,-0.025182,-0.012952,0.010159,0.012004,-0.012122,-0.010775,0.046676,-0.0039959,-0.043673,0.02107,0.014308,-0.00068685,-0.029433,-0.023482,0.056096,-0.0086144,-0.18483,-0.0056761
-0.004117,-0.047507,-0.026896,-0.0049672,0.006344,-0.031713,-0.022972,-0.017126,0.0087188,0.014036,-0.016101,-0.008928,0.044837,-0.02907,-0.073254,0.021637,0.0085824,-0.0033314,-0.030905,-0.02213,0.052435,-0.010185,-0.18771,-0.0034239
-0.0011939,-0.043172,-0.023095,-0.0040089,0.012257,-0.026258,-0.019087,-0.019775,0.0024678,0.013234,-0.01519,-0.0064378,0.041567,-0.050523,-0.10843,0.019072,0.004002,-0.0073409,-0.030686,-0.016775,0.051513,-0.0094197,-0.18178,-0.0030131
-0.0015794,-0.042527,-0.019104,-0.0037202,0.01425,-0.022079,-0.013994,-0.019741,-0.0047975,0.0093083,-0.009051,-0.0061968,0.03709,-0.065901,-0.147,0.014265,0.0026989,-0.013264,-0.0311,-0.010455,0.05279,-0.0079571,-0.16891,-0.0055624
-0.0052228,-0.046707,-0.01847,-0.0028487,0.010324,-0.02015,-0.0094686,-0.017372,-0.0081274,0.0043883,-0.0011702,-0.0089385,0.032106,-0.073642,-0.1832,0.0098633,0.0041198,-0.020544,-0.032335,-0.0069146,0.054087,-0.0070737,-0.15269,-0.0095403
-0.0093939,-0.053916,-0.021983,-0.0009381,0.0029576,-0.021062,-0.0069413,-0.014213,-0.0052548,0.001983,0.0035927,-0.012636,0.027515,-0.074937,-0.21038,0.0084964,0.005744,-0.026584,-0.032876,-0.0079294,0.053732,-0.007484,-0.13629,-0.011986
-0.011072,-0.060232,-0.026703,0.00092902,-0.0027589,-0.024402,-0.0058697,-0.011922,0.0013532,0.0044069,0.0024953,-0.014267,0.024076,-0.072943,-0.22484,0.010992,0.0054405,-0.028032,-0.032201,-0.011907,0.051844,-0.0093659,-0.12092,-0.011329
-0.0096872,-0.061876,-0.028084,0.00095579,-0.0029228,-0.028474,-0.0037429,-0.011381,0.0061466,0.010646,-0.0032552,-0.012474,0.02212,-0.070339,-0.22831,0.015707,0.0033895,-0.023486,-0.032823,-0.015044,0.049913,-0.012151,-0.1062,-0.009156
-0.0076142,-0.057518,-0.023509,-0.0016318,0.0025203,-0.030903,0.0019501,-0.012626,0.0047892,0.016531,-0.0096288,-0.0088324,0.021417,-0.067574,-0.22715,0.019392,0.0018681,-0.015175,-0.038994,-0.014296,0.04937,-0.014387,-0.091764,-0.0090345
-0.0078357,-0.049085,-0.014392,-0.0055452,0.010118,-0.029943,0.011318,-0.015245,-0.0023215,0.017376,-0.012824,-0.0065637,0.021289,-0.063275,-0.22837,0.019143,0.0031327,-0.0078319,-0.052677,-0.0097584,0.050451,-0.01432,-0.078318,-0.01326
-0.010905,-0.040452,-0.0052524,-0.0081868,0.015583,-0.025659,0.021445,-0.018552,-0.01031,0.011273,-0.011851,-0.0077627,0.020988,-0.056326,-0.23504,0.014289,0.0073399,-0.0054293,-0.070654,-0.0044623,0.052186,-0.011181,-0.066836,-0.020437
-0.014197,-0.034859,-0.00055501,-0.0076922,0.016496,-0.019978,0.028416,-0.021389,-0.013784,0.0005976,-0.0088257,-0.011571,0.02016,-0.047654,-0.24387,0.0069639,0.012357,-0.008494,-0.0862,-0.0017319,0.053295,-0.0061288,-0.056897,-0.0262
-0.014342,-0.032866,-0.0017149,-0.0045088,0.013212,-0.015394,0.030457,-0.022205,-0.011234,-0.0094857,-0.0070184,-0.014911,0.019055,-0.040089,-0.24704,0.00075565,0.015543,-0.014218,-0.094614,-0.0024268,0.053085,-0.0016952,-0.046197,-0.026545
-0.01061,-0.032318,-0.0063937,-0.0010698,0.0078886,-0.013195,0.029465,-0.019967,-0.0061589,-0.014522,-0.0083401,-0.015092,0.018179,-0.036345,-0.23747,-0.0018103,0.015826,-0.019159,-0.097762,-0.0044812,0.051653,0.00014004,-0.032384,-0.020912
-0.005852,-0.030304,-0.010455,0.00019875,0.002871,-0.012613,0.029399,-0.01541,-0.003947,-0.013726,-0.012151,-0.011944,0.017513,-0.036879,-0.21427,-0.0011363,0.01427,-0.022088,-0.10312,-0.0050695,0.049422,-0.00031444,-0.015788,-0.012449
-0.0038623,-0.025538,-0.011064,-0.0012278,-0.00037449,-0.011696,0.032828,-0.011276,-0.0072334,-0.010221,-0.016086,-0.0076378,0.015977,-0.039584,-0.18444,-0.0002003,0.012824,-0.024557,-0.11766,-0.003336,0.046644,-0.00063001,-0.00026817,-0.0055097
-0.005534,-0.019266,-0.008656,-0.0038587,-0.0014998,-0.0092044,0.038683,-0.010713,-0.013732,-0.0084367,-0.018008,-0.0045847,0.011901,-0.041698,-0.1593,-0.0020858,0.012545,-0.028919,-0.14186,-0.0011477,0.043469,0.0015638,0.0092227,-0.0027093
-0.0076306,-0.014059,-0.0063273,-0.0058596,-0.0010716,-0.0058542,0.043309,-0.014747,-0.018332,-0.010737,-0.017492,-0.0035694,0.0045151,-0.042239,-0.14753,-0.0073251,0.012893,-0.035769,-0.16921,-0.0012191,0.040512,0.0062036,0.010666,-0.0038929
-0.0056549,-0.011623,-0.0071068,-0.006817,-0.00025935,-0.00366,0.043921,-0.020994,-0.017489,-0.015943,-0.015786,-0.0038197,-0.0046265,-0.042575,-0.14976,-0.013307,0.012529,-0.043138,-0.19165,-0.0044333,0.039228,0.010401,0.0070524,-0.0073089
0.0016481,-0.011506,-0.011256,-0.0078528,-0.00040673,-0.0039198,0.041331,-0.025134,-0.012036,-0.020844,-0.014527,-0.00462,-0.011793,-0.04434,-0.15831,-0.016335,0.010719,-0.048061,-0.20594,-0.0089172,0.041346,0.010551,0.0043678,-0.011368
0.010381,-0.011729,-0.015843,-0.010039,-0.0024342,-0.0057648,0.039412,-0.02428,-0.0061268,-0.023295,-0.014418,-0.0064592,-0.013203,-0.046507,-0.16267,-0.01466,0.0080388,-0.049003,-0.21519,-0.011747,0.047401,0.0052182,0.0069282,-0.015315
0.014178,-0.010604,-0.017071,-0.012825,-0.0063126,-0.006802,0.041749,-0.019469,-0.0035412,-0.024154,-0.014898,-0.010309,-0.0077479,-0.044645,-0.15652,-0.009967,0.0058528,-0.047004,-0.2246,-0.011656,0.055447,-0.0036346,0.013967,-0.018659
0.0092956,-0.0080699,-0.013526,-0.014226,-0.011002,-0.005348,0.048515,-0.014945,-0.0047832,-0.026336,-0.014905,-0.01582,0.0019416,-0.033675,-0.14143,-0.0061327,0.0051147,-0.044661,-0.23579,-0.010163,0.061333,-0.012062,0.020419,-0.020523
-0.0022544,-0.0054197,-0.00754,-0.012749,-0.014967,-0.0020543,0.056353,-0.014623,-0.0073789,-0.031825,-0.013899,-0.020629,0.011223,-0.012244,-0.12445,-0.0063572,0.0055302,-0.043991,-0.24506,-0.010064,0.060969,-0.016896,0.021207,-0.01992
-0.014151,-0.0038608,-0.0034276,-0.0091708,-0.016933,0.00080894,0.061267,-0.018688,-0.0086833,-0.039321,-0.012281,-0.021974,0.016689,0.015056,-0.11186,-0.010978,0.0057746,-0.045033,-0.24693,-0.0127,0.053235,-0.017538,0.015339,-0.016723
-0.02039,-0.0033394,-0.0040241,-0.0063137,-0.016371,0.0018009,0.061833,-0.023354,-0.0083296,-0.04476,-0.010984,-0.019333,0.018225,0.03986,-0.10393,-0.017505,0.0046224,-0.04626,-0.23919,-0.016591,0.04124,-0.015566,0.006368,-0.012205
-0.019197,-0.0027101,-0.0085202,-0.0068288,-0.013531,0.0019802,0.059958,-0.024094,-0.0081107,-0.044421,-0.010741,-0.015381,0.018134,0.055098,-0.095003,-0.022557,0.0021406,-0.046164,-0.22454,-0.018676,0.030571,-0.01292,-0.00094749,-0.0084052
-0.013377,-0.00099114,-0.013414,-0.010947,-0.0092292,0.0039106,0.058787,-0.019573,-0.0097244,-0.038031,-0.011674,-0.013973,0.018244,0.058852,-0.078458,-0.024074,-3.9411e-005,-0.044494,-0.20756,-0.016926,0.025511,-0.010519,-0.0046773,-0.0067601
-0.0074735,0.0015488,-0.015609,-0.016227,-0.0046515,0.0088044,0.059937,-0.012852,-0.012809,-0.029223,-0.013438,-0.016761,0.017806,0.05392,-0.052369,-0.022337,0.0002227,-0.042106,-0.19015,-0.011921,0.026096,-0.0083166,-0.0068872,-0.0071501
-0.0045119,0.0035146,-0.014833,-0.019503,-0.00122,0.014681,0.062526,-0.008774,-0.015224,-0.022909,-0.015648,-0.021558,0.014232,0.043875,-0.021045,-0.01944,0.0037938,-0.039806,-0.17017,-0.0060795,0.028343,-0.0062888,-0.011105,-0.0081593
-0.0047875,0.0036092,-0.013327,-0.019297,-0.0002889,0.01763,0.0645,-0.0098551,-0.0152,-0.021783,-0.018171,-0.024119,0.0060302,0.029575,0.0086651,-0.017894,0.0091271,-0.037484,-0.14444,-0.001559,0.027487,-0.0049968,-0.01858,-0.0082816
-0.0068937,0.0018553,-0.01338,-0.016678,-0.0025769,0.015254,0.064639,-0.014237,-0.013132,-0.02482,-0.02106,-0.02176,-0.004924,0.0095209,0.032948,-0.019309,0.012918,-0.034433,-0.11313,0.0010703,0.021568,-0.0051372,-0.026813,-0.00706
-0.0093979,-0.00026296,-0.015166,-0.014089,-0.0075937,0.0090546,0.063329,-0.017427,-0.011183,-0.028802,-0.024223,-0.015583,-0.014107,-0.016388,0.053567,-0.023727,0.012407,-0.030422,-0.081207,0.0023528,0.01257,-0.0067005,-0.031626,-0.0052823
-0.011604,-0.00087021,-0.016818,-0.013368,-0.01354,0.0034086,0.061749,-0.01618,-0.011056,-0.031274,-0.027093,-0.0093829,-0.01766,-0.04371,0.075256,-0.029736,0.0076911,-0.026268,-0.055407,0.0026001,0.0044656,-0.0087713,-0.030771,-0.0041622
-0.013214,0.00087676,-0.016404,-0.014644,-0.017963,0.0019581,0.06067,-0.011105,-0.012157,-0.032218,-0.028606,-0.0064307,-0.015432,-0.064673,0.1004,-0.03516,0.0020462,-0.023126,-0.039548,0.0013426,9.2188e-005,-0.010217,-0.025706,-0.0042233
-0.013811,0.0041183,-0.013775,-0.016727,-0.018943,0.0047565,0.060092,-0.0058398,-0.01209,-0.03316,-0.027648,-0.0071013,-0.011051,-0.073434,0.12572,-0.038028,-0.00028518,-0.021179,-0.03229,-0.0018996,-0.0005339,-0.010536,-0.020007,-0.0048135
-0.012939,0.0068676,-0.010595,-0.018321,-0.016137,0.0087418,0.059737,-0.0037332,-0.0091741,-0.034886,-0.023819,-0.0092309,-0.0089604,-0.070904,0.14372,-0.037442,0.0027174,-0.019196,-0.029182,-0.0066095,0.00057385,-0.01006,-0.016056,-0.0046864
-0.010668,0.0074126,-0.0087846,-0.01892,-0.011013,0.01091,0.05947,-0.0050913,-0.0045764,-0.036194,-0.018044,-0.010438,-0.011021,-0.06452,0.14753,-0.033972,0.0092677,-0.015668,-0.026814,-0.011328,0.0014617,-0.009482,-0.013179,-0.0032322
-0.0078861,0.0055534,-0.009034,-0.01891,-0.0060753,0.01105,0.059146,-0.0073526,-0.0017958,-0.034927,-0.01242,-0.01006,-0.015575,-0.062631,0.13517,-0.029346,0.015128,-0.010535,-0.025248,-0.014743,0.0015708,-0.0093479,-0.0088444,-0.0013333
-0.0058582,0.0027966,-0.010695,-0.019118,-0.0035167,0.011509,0.058302,-0.0078047,-0.0036311,-0.030265,-0.0091748,-0.0091637,-0.019527,-0.068165,0.1103,-0.025573,0.016777,-0.0056715,-0.026806,-0.016553,0.0013277,-0.0099317,-0.001533,-0.00097349
-0.0053517,0.0013141,-0.012842,-0.020301,-0.0041299,0.014457,0.056451,-0.0062132,-0.0093302,-0.023952,-0.0093475,-0.0091019,-0.021281,-0.077198,0.079677,-0.023958,0.01375,-0.0034056,-0.032787,-0.017134,0.00080294,-0.01131,0.0076126,-0.0036831
-0.0060885,0.0023313,-0.015152,-0.022706,-0.0071328,0.019457,0.053863,-0.0049493,-0.014796,-0.019219,-0.012199,-0.010281,-0.021802,-0.083849,0.050081,-0.024567,0.0083975,-0.004302,-0.041499,-0.016571,-0.00093941,-0.013253,0.015845,-0.0089833
-0.0069972,0.0050821,-0.017649,-0.025653,-0.010902,0.023713,0.051872,-0.0065974,-0.01608,-0.018339,-0.015886,-0.012134,-0.023068,-0.087123,0.026564,-0.026432,0.0036037,-0.0064018,-0.049463,-0.014379,-0.0050251,-0.015065,0.021281,-0.014217
-0.00705,0.0071641,-0.019745,-0.0274,-0.013967,0.024622,0.051979,-0.011331,-0.013171,-0.021016,-0.018863,-0.013906,-0.025737,-0.093391,0.012323,-0.028306,0.00069544,-0.0068221,-0.054536,-0.010411,-0.011315,-0.015865,0.02417,-0.016164
-0.0060034,0.0061408,-0.019891,-0.025811,-0.015536,0.022176,0.054306,-0.016487,-0.010417,-0.024964,-0.020817,-0.015224,-0.028484,-0.11197,0.0089658,-0.02939,-0.00082302,-0.0043619,-0.057809,-0.0058437,-0.017901,-0.015383,0.02577,-0.013326
-0.0044877,0.0012449,-0.016585,-0.019913,-0.015333,0.018969,0.056903,-0.01871,-0.01274,-0.027981,-0.02241,-0.016033,-0.029654,-0.14756,0.016708,-0.029551,-0.0019874,-0.00069701,-0.062304,-0.002773,-0.022317,-0.014519,0.026188,-0.0071259
-0.0034497,-0.0061277,-0.010018,-0.011379,-0.013257,0.01791,0.056888,-0.016695,-0.020816,-0.029573,-0.024233,-0.016321,-0.029395,-0.19619,0.035001,-0.028985,-0.0031586,0.0010087,-0.069585,-0.002492,-0.023523,-0.01477,0.023665,-0.0010404
-0.0034552,-0.013538,-0.0027276,-0.0043635,-0.0094457,0.019692,0.052733,-0.01212,-0.02974,-0.030832,-0.026101,-0.016206,-0.029895,-0.24807,0.063968,-0.027798,-0.0040148,-0.001116,-0.077496,-0.0042035,-0.022856,-0.016745,0.016215,0.0016583
-0.0044089,-0.01934,0.0016752,-0.0030735,-0.0047536,0.022207,0.04584,-0.0080698,-0.032839,-0.032989,-0.027338,-0.016213,-0.033232,-0.29448,0.10559,-0.025947,-0.0043841,-0.0059381,-0.081407,-0.0058104,-0.02291,-0.019173,0.0040457,-0.00012399
-0.0058268,-0.023735,0.00094493,-0.0085027,-0.00094837,0.022354,0.03996,-0.0064979,-0.027519,-0.03619,-0.02758,-0.017142,-0.038857,-0.33206,0.16287,-0.023575,-0.0047237,-0.010173,-0.078137,-0.0062763,-0.025221,-0.019723,-0.0097868,-0.0049019
-0.0073003,-0.028216,-0.0041586,-0.017042,1.333e-005,0.018739,0.03874,-0.0069912,-0.017864,-0.039556,-0.027094,-0.01929,-0.043268,-0.36071,0.23654,-0.021214,-0.0056629,-0.011038,-0.069063,-0.0070957,-0.028812,-0.01724,-0.021356,-0.0097817
-0.0086585,-0.033929,-0.010447,-0.022618,-0.0026218,0.013107,0.043217,-0.007727,-0.011378,-0.042179,-0.026202,-0.021723,-0.042434,-0.37777,0.32181,-0.019448,-0.0072111,-0.0084542,-0.059399,-0.010963,-0.030969,-0.013411,-0.028739,-0.012215
-0.0097026,-0.040401,-0.014664,-0.021128,-0.0074979,0.0093035,0.051088,-0.0074733,-0.012575,-0.043876,-0.024537,-0.022555,-0.034859,-0.37503,0.40837,-0.018171,-0.0086063,-0.0049927,-0.053972,-0.01855,-0.029643,-0.012029,-0.033088,-0.011294
-0.0098894,-0.045709,-0.015669,-0.013698,-0.011764,0.010453,0.058216,-0.0066703,-0.019127,-0.044997,-0.021157,-0.020337,-0.022517,-0.34273,0.48518,-0.016247,-0.0090211,-0.0037184,-0.053131,-0.026607,-0.025323,-0.016171,-0.036922,-0.0081012
-0.0084569,-0.047925,-0.014698,-0.0059894,-0.013011,0.016396,0.061209,-0.0066935,-0.02408,-0.045695,-0.015667,-0.015468,-0.0089313,-0.27806,0.54674,-0.012168,-0.0083797,-0.0057419,-0.052503,-0.029784,-0.020655,-0.02559,-0.041374,-0.0050931
-0.0050408,-0.046588,-0.013724,-0.0039258,-0.01109,0.02338,0.059327,-0.0082002,-0.022144,-0.045583,-0.0093024,-0.010203,0.0036201,-0.19035,0.59558,-0.0054599,-0.0074506,-0.0094571,-0.046909,-0.025048,-0.018121,-0.036611,-0.045106,-0.0047194
-0.0002536,-0.043032,-0.013597,-0.0092649,-0.0082596,0.026387,0.054598,-0.010268,-0.014347,-0.044132,-0.0047209,-0.007033,0.015059,-0.097582,0.63788,0.002311,-0.0071676,-0.012004,-0.034963,-0.014736,-0.017894,-0.044656,-0.045892,-0.007808
0.0043932,-0.039386,-0.013655,-0.018485,-0.0074591,0.02251,0.050291,-0.01118,-0.006897,-0.041254,-0.0043677,-0.006784,0.025942,-0.015951,0.67523,0.0080095,-0.0078792,-0.011706,-0.020197,-0.0051499,-0.017793,-0.047308,-0.043135,-0.012677
0.0072894,-0.037177,-0.012936,-0.025658,-0.010011,0.012861,0.048791,-0.010091,-0.0054302,-0.037328,-0.0086702,-0.0082014,0.035391,0.049349,0.69956,0.0088607,-0.0091882,-0.0094783,-0.0077701,-0.0016422,-0.01535,-0.045511,-0.038629,-0.015916
0.0076307,-0.03665,-0.011463,-0.026766,-0.014566,0.0015773,0.050192,-0.0079834,-0.0099341,-0.032659,-0.015617,-0.0094267,0.041119,0.10476,0.69691,0.0045156,-0.010392,-0.0080608,8.6547e-005,-0.0045531,-0.010048,-0.042239,-0.034702,-0.014762
0.0056957,-0.037143,-0.010182,-0.022102,-0.018075,-0.0072463,0.052351,-0.0069761,-0.014862,-0.027096,-0.02213,-0.0099063,0.041929,0.16029,0.65829,-0.0023917,-0.011036,-0.009742,0.0057042,-0.0096297,-0.0036842,-0.039989,-0.031682,-0.0094666
0.0023515,-0.037944,-0.0096795,-0.015299,-0.018001,-0.012219,0.052372,-0.0085399,-0.014134,-0.020374,-0.026111,-0.010757,0.04019,0.22027,0.58951,-0.0077839,-0.011175,-0.014496,0.013368,-0.012347,0.0013731,-0.03914,-0.027469,-0.0035959
-0.0016508,-0.038753,-0.0092671,-0.010365,-0.014083,-0.014838,0.048604,-0.012148,-0.0064403,-0.012879,-0.027526,-0.013142,0.041336,0.28099,0.51093,-0.0087249,-0.011295,-0.020127,0.025175,-0.0119,0.0042786,-0.03819,-0.019952,-0.0015889
-0.0058991,-0.039464,-0.0076701,-0.0092071,-0.008419,-0.017344,0.041905,-0.015529,0.0037507,-0.0059402,-0.027801,-0.016335,0.050049,0.33681,0.44589,-0.0051404,-0.012026,-0.024254,0.039313,-0.011186,0.0061924,-0.035378,-0.0099119,-0.0052992
-0.0099483,-0.039745,-0.0047445,-0.01122,-0.0039786,-0.020435,0.035235,-0.01636,0.010087,-0.0011772,-0.028263,-0.017666,0.066152,0.3879,0.40556,0.00055582,-0.013747,-0.026272,0.05213,-0.013232,0.0088214,-0.030334,-0.001255,-0.012413
-0.012916,-0.039088,-0.0023243,-0.014528,-0.0027133,-0.023011,0.031754,-0.014071,0.0095446,0.00061012,-0.029056,-0.014776,0.084021,0.44151,0.38183,0.0054721,-0.016175,-0.027419,0.061644,-0.017945,0.012606,-0.024601,0.0021705,-0.018221
-0.013705,-0.037433,-0.002998,-0.017458,-0.0045958,-0.024047,0.032667,-0.010354,0.0045569,-2.8263e-006,-0.029333,-0.0081531,0.096426,0.50454,0.3542,0.0081792,-0.018261,-0.028869,0.068951,-0.022427,0.016396,-0.020726,0.00039718,-0.019341
-0.011885,-0.035705,-0.0077602,-0.019154,-0.0080595,-0.024494,0.036382,-0.0080069,0.00059035,-0.00156,-0.028387,-0.0013707,0.099757,0.57428,0.30581,0.009118,-0.01872,-0.029817,0.076348,-0.024161,0.018878,-0.020545,-0.0020074,-0.016217
-0.0085125,-0.035575,-0.014829,-0.019357,-0.011253,-0.026988,0.039632,-0.0090065,0.0015639,-0.0027755,-0.026605,0.0015373,0.096211,0.63627,0.23624,0.0094788,-0.016997,-0.027778,0.084373,-0.023443,0.020205,-0.023777,0.00045046,-0.012357
-0.0059507,-0.03839,-0.020952,-0.018072,-0.013056,-0.033336,0.039682,-0.013215,0.0070243,-0.0031895,-0.025402,-0.00064987,0.09118,0.67274,0.16114,0.0098711,-0.013881,-0.021226,0.090927,-0.022492,0.02209,-0.027946,0.0093011,-0.011156
-0.0064986,-0.044119,-0.024108,-0.015608,-0.013235,-0.042131,0.035922,-0.018554,0.013174,-0.0029667,-0.026209,-0.0054003,0.088354,0.67496,0.099598,0.010065,-0.011041,-0.01219,0.093398,-0.02245,0.026166,-0.02984,0.020428,-0.013181
-0.010667,-0.051209,-0.025091,-0.012863,-0.011984,-0.049055,0.029713,-0.022379,0.016495,-0.0022514,-0.029295,-0.0087,0.086987,0.64946,0.059696,0.0098254,-0.00971,-0.0058837,0.091588,-0.021828,0.032231,-0.027629,0.027363,-0.016159
-0.016504,-0.057547,-0.026468,-0.011267,-0.0095543,-0.050041,0.022867,-0.023048,0.016691,-0.00085501,-0.033331,-0.0084341,0.083534,0.61264,0.034081,0.0096939,-0.0097028,-0.0069603,0.088472,-0.018321,0.038103,-0.022168,0.026815,-0.017314
-0.020759,-0.061759,-0.029928,-0.01208,-0.0063867,-0.0447,0.016203,-0.020721,0.016523,0.0014055,-0.036072,-0.0058172,0.075717,0.57846,0.0082642,0.010672,-0.0097967,-0.015308,0.088004,-0.0121,0.04127,-0.016467,0.021572,-0.015751
-0.021241,-0.063833,-0.034526,-0.015383,-0.0033848,-0.036916,0.009306,-0.017065,0.018924,0.0041575,-0.035753,-0.0037716,0.064948,0.54927,-0.026209,0.013026,-0.0091565,-0.025303,0.092101,-0.0068213,0.04077,-0.013632,0.018258,-0.012897
-0.018609,-0.064726,-0.037446,-0.019606,-0.0017272,-0.031925,0.0013916,-0.014219,0.024109,0.00641,-0.032307,-0.0040475,0.054899,0.51688,-0.065197,0.015496,-0.0082957,-0.029739,0.099557,-0.0067432,0.037545,-0.014745,0.02204,-0.011003
-0.016022,-0.065444,-0.036538,-0.022193,-0.0020971,-0.032315,-0.0077641,-0.013626,0.029285,0.0071986,-0.02749,-0.005874,0.047838,0.47195,-0.09693,0.015944,-0.0084038,-0.025403,0.10762,-0.012468,0.033018,-0.018218,0.032937,-0.011338
-0.016693,-0.066381,-0.032311,-0.021161,-0.0039945,-0.036361,-0.017601,-0.015316,0.031179,0.0064129,-0.023681,-0.007177,0.042502,0.41292,-0.11312,0.013103,-0.0095818,-0.015542,0.11437,-0.019554,0.027391,-0.021001,0.046643,-0.013545
-0.021184,-0.067198,-0.027649,-0.0165,-0.0059396,-0.039991,-0.027131,-0.017997,0.029078,0.0050137,-0.022097,-0.006819,0.035614,0.34745,-0.1159,0.0078995,-0.0098878,-0.0069664,0.11963,-0.021778,0.019355,-0.020608,0.058567,-0.016291
-0.026673,-0.067044,-0.025565,-0.01031,-0.0066143,-0.04049,-0.035259,-0.019925,0.025596,0.0043476,-0.021771,-0.0055219,0.025464,0.28588,-0.11494,0.003083,-0.0065693,-0.0043431,0.12379,-0.016432,0.0075373,-0.016465,0.067181,-0.018244
-0.028956,-0.064856,-0.026937,-0.0054828,-0.0060211,-0.038625,-0.040838,-0.020123,0.024432,0.0050936,-0.020272,-0.0047642,0.013929,0.23323,-0.11817,0.0012821,0.0012636,-0.0066841,0.12649,-0.0069213,-0.0077289,-0.0098098,0.073994,-0.018603
-0.025692,-0.059801,-0.030023,-0.0038756,-0.0055708,-0.03746,-0.042792,-0.019149,0.027037,0.0067517,-0.015807,-0.0051283,0.0048093,0.18628,-0.12507,0.0029544,0.010953,-0.0089835,0.12657,-0.00023758,-0.024024,-0.0026001,0.080978,-0.017175
-0.018251,-0.051969,-0.031988,-0.0053372,-0.0068846,-0.039141,-0.04061,-0.018778,0.031157,0.0081153,-0.0091029,-0.0059705,1.7882e-005,0.13707,-0.12824,0.0058135,0.017492,-0.0071892,0.12349,-0.0014212,-0.038228,0.0035615,0.088473,-0.014396
-0.010641,-0.042921,-0.031114,-0.0082294,-0.010256,-0.042653,-0.034818,-0.020684,0.032569,0.0082537,-0.0033732,-0.0066105,-0.0026401,0.078841,-0.12123,0.0061939,0.017026,-0.0018364,0.11837,-0.0097315,-0.048356,0.0078884,0.095473,-0.011342
-0.006372,-0.035388,-0.027967,-0.010851,-0.014097,-0.044478,-0.026745,-0.024998,0.02857,0.0070552,-0.0021241,-0.007433,-0.00779,0.0093603,-0.10496,0.001416,0.0098589,0.0027496,0.11327,-0.01964,-0.054171,0.010384,0.10139,-0.0093634
-0.0059133,-0.031828,-0.024781,-0.012517,-0.015931,-0.041484,-0.017511,-0.029924,0.020297,0.0048383,-0.0064281,-0.0094099,-0.01834,-0.069943,-0.087316,-0.0084317,0.00035686,0.0024825,0.10932,-0.025498,-0.056178,0.011686,0.10693,-0.0092594
-0.0067804,-0.032674,-0.023693,-0.01353,-0.014242,-0.033514,-0.0071155,-0.032802,0.011989,0.0015341,-0.013916,-0.012475,-0.032783,-0.15659,-0.076806,-0.020429,-0.0063302,-0.0031789,0.10546,-0.025724,-0.054321,0.012804,0.11309,-0.01055
-0.0060525,-0.035767,-0.025254,-0.014362,-0.0097626,-0.023652,0.0053796,-0.031863,0.0078917,-0.0035428,-0.020446,-0.014737,-0.04662,-0.24813,-0.076373,-0.030485,-0.0080544,-0.011395,0.099084,-0.02315,-0.04801,0.014568,0.11949,-0.011667
-0.0030282,-0.037712,-0.028266,-0.014995,-0.0051826,-0.016191,0.020571,-0.027313,0.0093391,-0.010872,-0.023174,-0.013838,-0.056641,-0.34084,-0.082407,-0.035657,-0.0068438,-0.018731,0.088047,-0.021761,-0.037722,0.016942,0.12419,-0.011194
0.00026612,-0.036267,-0.030886,-0.015002,-0.0034207,-0.014071,0.037495,-0.02096,0.014175,-0.019558,-0.02254,-0.0094451,-0.063971,-0.42804,-0.088915,-0.035694,-0.0065878,-0.023489,0.072191,-0.023126,-0.026549,0.018865,0.12545,-0.009204
0.0010346,-0.03184,-0.031999,-0.014123,-0.005648,-0.017543,0.0536,-0.014871,0.018614,-0.027091,-0.021539,-0.0042943,-0.072866,-0.50068,-0.092424,-0.032914,-0.0093481,-0.025628,0.053452,-0.025621,-0.019685,0.019033,0.12343,-0.0074718
-0.0016935,-0.026845,-0.0318,-0.012623,-0.010457,-0.024537,0.065869,-0.010305,0.019825,-0.030656,-0.022977,-0.0023401,-0.086314,-0.55043,-0.093457,-0.030636,-0.013507,-0.025189,0.034773,-0.026666,-0.021561,0.017099,0.12017,-0.0081575
-0.0061321,-0.023547,-0.031294,-0.011061,-0.014767,-0.031957,0.072,-0.0077023,0.017337,-0.029123,-0.027092,-0.005356,-0.1027,-0.57363,-0.094291,-0.031259,-0.015241,-0.021596,0.018864,-0.02541,-0.032657,0.014033,0.11745,-0.011973
-0.0092312,-0.022361,-0.031305,-0.0097824,-0.015851,-0.036955,0.070769,-0.007329,0.01264,-0.024074,-0.031565,-0.011124,-0.11685,-0.57312,-0.096025,-0.035179,-0.01188,-0.014784,0.0073766,-0.02327,-0.048764,0.010983,0.1148,-0.017384
-0.0092318,-0.022053,-0.031865,-0.0086925,-0.013066,-0.037842,0.061811,-0.0095594,0.0078159,-0.018872,-0.033763,-0.015119,-0.12461,-0.55691,-0.09791,-0.040979,-0.0041584,-0.0066663,0.0003443,-0.022098,-0.063704,0.0075472,0.10965,-0.021586
-0.0070461,-0.021428,-0.032343,-0.0075011,-0.0080759,-0.034693,0.045738,-0.01432,0.0044032,-0.016402,-0.033064,-0.014403,-0.12651,-0.53432,-0.098964,-0.046464,0.0044379,-0.00076807,-0.0041152,-0.022166,-0.073627,0.0013313,0.099828,-0.02246
-0.0052961,-0.020695,-0.032022,-0.0061377,-0.0034628,-0.029518,0.02481,-0.020354,0.0030703,-0.017249,-0.031133,-0.010265,-0.127,-0.51171,-0.099504,-0.049755,0.01042,0.00021929,-0.0093541,-0.022093,-0.079483,-0.010284,0.086121,-0.019932
-0.0058782,-0.02111,-0.030535,-0.0048894,-0.0008563,-0.025526,0.00324,-0.025365,0.0038469,-0.01968,-0.029989,-0.0071584,-0.12991,-0.48986,-0.10064,-0.049931,0.012611,-0.0032154,-0.018594,-0.020652,-0.085628,-0.027393,0.072683,-0.015731
-0.008171,-0.023237,-0.027886,-0.0041488,-6.2375e-005,-0.025352,-0.013986,-0.027297,0.0063786,-0.021289,-0.029891,-0.0088123,-0.13445,-0.46412,-0.10226,-0.047209,0.012233,-0.0075917,-0.032808,-0.018344,-0.095655,-0.046331,0.064499,-0.012019
-0.009432,-0.025637,-0.024267,-0.0040524,0.00017568,-0.029129,-0.023552,-0.025783,0.0099856,-0.020873,-0.029154,-0.014946,-0.13576,-0.42763,-0.10202,-0.04279,0.011161,-0.0092688,-0.049656,-0.01695,-0.10889,-0.061386,0.063777,-0.010156
-0.0070492,-0.025458,-0.019963,-0.0043461,0.00060457,-0.033947,-0.025763,-0.0225,0.013681,-0.019125,-0.026113,-0.021478,-0.12934,-0.37624,-0.09696,-0.038403,0.010272,-0.0074292,-0.064629,-0.017511,-0.12047,-0.06829,0.068025,-0.01047
-0.00074765,-0.020615,-0.015358,-0.00456,0.00064904,-0.035569,-0.024229,-0.020011,0.016351,-0.017826,-0.021161,-0.023982,-0.11542,-0.31247,-0.086897,-0.035571,0.0093466,-0.0045101,-0.073808,-0.018979,-0.12502,-0.066698,0.071464,-0.012701
0.0070871,-0.011712,-0.010816,-0.0043075,-0.00078466,-0.031464,-0.023331,-0.020015,0.017078,-0.018375,-0.016714,-0.021298,-0.099026,-0.24587,-0.07651,-0.034839,0.0081545,-0.0037853,-0.076199,-0.019126,-0.12087,-0.059769,0.068973,-0.016278
0.013182,-0.0019239,-0.0063671,-0.0034966,-0.0036729,-0.022833,-0.025423,-0.022318,0.015442,-0.020749,-0.015031,-0.01621,-0.086015,-0.18845,-0.073846,-0.035457,0.0072077,-0.0064594,-0.073886,-0.016891,-0.11163,-0.051556,0.059802,-0.020111
0.015706,0.0051769,-0.0015444,-0.0023943,-0.0061843,-0.013829,-0.029975,-0.025199,0.01168,-0.02349,-0.016091,-0.012826,-0.078643,-0.14766,-0.085864,-0.035812,0.0072172,-0.010962,-0.070083,-0.01371,-0.10373,-0.044615,0.04823,-0.022525
0.015238,0.0080872,0.0041911,-0.0015806,-0.0059468,-0.0084289,-0.035101,-0.026724,0.0066846,-0.024528,-0.017767,-0.013165,-0.074627,-0.12155,-0.11432,-0.034424,0.0079154,-0.014911,-0.066862,-0.012315,-0.10215,-0.0396,0.040536,-0.022023
0.013729,0.0080986,0.010545,-0.0017823,-0.002311,-0.0075342,-0.039822,-0.02606,0.0018842,-0.022294,-0.018143,-0.015948,-0.070094,-0.09996,-0.15527,-0.030851,0.007766,-0.017669,-0.064328,-0.014089,-0.10733,-0.036381,0.040421,-0.018602
0.012583,0.0077585,0.015829,-0.0035312,0.0026104,-0.008784,-0.044963,-0.023984,-0.0011203,-0.016585,-0.017553,-0.018413,-0.06337,-0.071438,-0.20271,-0.025915,0.0052095,-0.020946,-0.061532,-0.017602,-0.11546,-0.034892,0.046376,-0.014326
0.011611,0.0084881,0.017602,-0.006721,0.0054498,-0.0091756,-0.051944,-0.022376,-0.0012245,-0.0087742,-0.018057,-0.019204,-0.056182,-0.031187,-0.2532,-0.021123,0.00036553,-0.02688,-0.057892,-0.019829,-0.12124,-0.034721,0.053013,-0.012205
0.0097088,0.0094802,0.014394,-0.010383,0.0045348,-0.0080404,-0.060625,-0.022973,0.0013846,-0.0012096,-0.020795,-0.019589,-0.05159,0.015672,-0.30779,-0.017666,-0.0046078,-0.035453,-0.053764,-0.018937,-0.12087,-0.034273,0.055244,-0.013959
0.0064587,0.0088274,0.0072388,-0.013039,0.0015411,-0.0075941,-0.068097,-0.026064,0.004877,0.0040073,-0.024003,-0.021942,-0.05091,0.057508,-0.36961,-0.015673,-0.0071136,-0.043744,-0.04988,-0.015968,-0.11323,-0.031108,0.051852,-0.018602
0.0030606,0.0057959,-0.00045138,-0.013605,7.7008e-005,-0.010555,-0.069572,-0.029985,0.006469,0.0061901,-0.024054,-0.02702,-0.052476,0.083083,-0.43924,-0.0142,-0.0062991,-0.04786,-0.046433,-0.013846,-0.09914,-0.023758,0.045647,-0.023273
0.0016424,0.0020573,-0.0049158,-0.012274,0.0023088,-0.017066,-0.060991,-0.03198,0.0041286,0.0063627,-0.0189,-0.032636,-0.053099,0.086458,-0.51174,-0.011985,-0.0037223,-0.045993,-0.042734,-0.014625,-0.080023,-0.013413,0.04043,-0.025722
0.0034778,0.00054996,-0.0045476,-0.010603,0.0068024,-0.02379,-0.04184,-0.030057,-0.0017029,0.0063633,-0.010663,-0.035059,-0.050669,0.066841,-0.57779,-0.0084657,-0.0018095,-0.040044,-0.03762,-0.017545,-0.05737,-0.0035512,0.037703,-0.026163
0.0076351,0.0028165,-0.0009037,-0.010558,0.0098212,-0.026038,-0.016384,-0.024547,-0.0078376,0.0073623,-0.0046469,-0.032026,-0.045694,0.025028,-0.62791,-0.0043452,-0.0016069,-0.034431,-0.030143,-0.019614,-0.033102,0.0026108,0.036032,-0.026676
0.011274,0.0072255,0.0026148,-0.013134,0.0090649,-0.021099,0.0077917,-0.018024,-0.0102,0.0089557,-0.0052806,-0.024832,-0.04078,-0.039293,-0.65662,-0.0012327,-0.0020512,-0.033039,-0.020031,-0.018203,-0.0099719,0.0046939,0.033254,-0.028696
0.011489,0.0099089,0.003358,-0.017604,0.006311,-0.010068,0.023571,-0.01346,-0.0067911,0.0095952,-0.012437,-0.017677,-0.038828,-0.12681,-0.66372,-0.00058518,-0.0014231,-0.036676,-0.0078244,-0.013383,0.0088791,0.0053254,0.029049,-0.031109
0.0073257,0.0078788,0.0012474,-0.021999,0.0062062,0.0030582,0.028459,-0.012065,0.00050823,0.0080133,-0.021382,-0.014707,-0.041401,-0.23589,-0.65269,-0.0027756,0.00061351,-0.042889,0.0051433,-0.0080536,0.021171,0.0075914,0.025263,-0.031008
0.00045012,0.001696,-0.0015125,-0.0244,0.012008,0.013927,0.02634,-0.012596,0.0070106,0.0044725,-0.026466,-0.017,-0.048172,-0.36153,-0.62777,-0.0070678,0.0025757,-0.048016,0.016937,-0.0057651,0.026614,0.012066,0.023803,-0.026571
-0.0060527,-0.0047246,-0.0024149,-0.024022,0.022112,0.019979,0.025199,-0.012713,0.008629,0.00084276,-0.025426,-0.02178,-0.057402,-0.49771,-0.59207,-0.01252,0.0027981,-0.049747,0.025549,-0.0079851,0.027024,0.016208,0.024393,-0.019303
-0.0097773,-0.0071336,-0.0006148,-0.021376,0.03076,0.020985,0.031855,-0.01113,0.0049857,-0.00050778,-0.020749,-0.024413,-0.066935,-0.64103,-0.54739,-0.018969,0.001379,-0.048265,0.029742,-0.012963,0.025347,0.01673,0.024562,-0.013308
-0.010375,-0.0042282,0.0026494,-0.017657,0.032566,0.018251,0.047221,-0.0086823,-0.0003891,0.0018575,-0.017133,-0.021716,-0.075253,-0.79184,-0.49521,-0.027087,0.00029076,-0.045427,0.029695,-0.01704,0.024276,0.012763,0.021954,-0.012029
-0.0092457,0.0015915,0.0053309,-0.014084,0.026958,0.013554,0.065552,-0.0074744,-0.0030011,0.0076538,-0.017414,-0.014222,-0.082229,-0.95122,-0.43803,-0.03733,0.0014236,-0.042963,0.026835,-0.017359,0.025257,0.0068698,0.016659,-0.015396
-0.0080296,0.0064922,0.0063244,-0.011656,0.018484,0.008469,0.078292,-0.0089795,-0.00099419,0.015087,-0.020426,-0.0058788,-0.089197,-1.1161,-0.38008,-0.048673,0.0045495,-0.04123,0.022789,-0.013884,0.028206,0.0029726,0.01124,-0.020015
-0.0073199,0.0083512,0.0062104,-0.011157,0.012671,0.0041315,0.079529,-0.012728,0.0036566,0.021766,-0.022415,-0.0014459,-0.098015,-1.2766,-0.32699,-0.05843,0.0073892,-0.039373,0.018273,-0.0092227,0.031728,0.0030991,0.008329,-0.022236
-0.0066586,0.0080337,0.0064812,-0.012974,0.011206,0.0012186,0.068953,-0.016559,0.0072611,0.025749,-0.020557,-0.0033833,-0.1094,-1.4179,-0.2841,-0.063543,0.0078636,-0.036513,0.012949,-0.0065026,0.033628,0.0058134,0.0080635,-0.02123
-0.0055694,0.0079614,0.008063,-0.01667,0.010864,8.8052e-005,0.050448,-0.018081,0.0077784,0.02628,-0.015444,-0.010291,-0.12163,-1.5251,-0.25382,-0.062473,0.0063286,-0.032831,0.0064685,-0.0070129,0.031671,0.0075615,0.0078185,-0.019269
-0.004419,0.0095874,0.010478,-0.020832,0.0071681,0.0010721,0.028215,-0.016158,0.0063373,0.024001,-0.01046,-0.017904,-0.13076,-1.5873,-0.23351,-0.056161,0.0054578,-0.02967,-0.00028012,-0.009432,0.024532,0.0055287,0.0046134,-0.019162
-0.0041779,0.012149,0.012323,-0.023613,-0.0007352,0.0046925,0.0040928,-0.011462,0.0056595,0.02058,-0.0087299,-0.021964,-0.13266,-1.5998,-0.21567,-0.047312,0.0076802,-0.028563,-0.0050768,-0.011078,0.012528,-0.00051242,-0.0019284,-0.02148
-0.0053338,0.01363,0.012515,-0.023785,-0.0086641,0.01144,-0.021781,-0.005855,0.0070698,0.017887,-0.010374,-0.021023,-0.12553,-1.5637,-0.19103,-0.038656,0.012551,-0.029964,-0.0058018,-0.010012,-0.0024731,-0.0086401,-0.0087858,-0.024242
-0.0071093,0.012778,0.011111,-0.021506,-0.010921,0.021117,-0.048164,-0.0011119,0.0090454,0.017075,-0.012473,-0.017248,-0.11106,-1.4849,-0.1531,-0.031566,0.016682,-0.032657,-0.002251,-0.0062911,-0.018103,-0.016623,-0.011821,-0.025148
-0.0078503,0.01022,0.0090528,-0.018143,-0.0055333,0.032336,-0.07085,0.0022149,0.0087045,0.01804,-0.011698,-0.014594,-0.093293,-1.3717,-0.10124,-0.025974,0.016545,-0.034356,0.0033715,-0.0015721,-0.032844,-0.023292,-0.0093628,-0.023932
-0.006316,0.0077932,0.0072888,-0.015301,0.0036732,0.04289,-0.083758,0.0050269,0.0047908,0.019609,-0.0072695,-0.015588,-0.076053,-1.2332,-0.040002,-0.021249,0.011673,-0.033165,0.0079365,0.0022912,-0.046535,-0.028505,-0.0040614,-0.02244
-0.0027262,0.0068888,0.0062686,-0.013868,0.010118,0.051007,-0.082086,0.0087598,-0.00072058,0.020346,-0.0016614,-0.019123,-0.060947,-1.0755,0.02453,-0.017022,0.0052712,-0.028883,0.009727,0.0043255,-0.05952,-0.032338,-0.0012577,-0.022463
0.0013594,0.007404,0.0062668,-0.013782,0.0098271,0.056555,-0.064782,0.013848,-0.0039846,0.019494,0.0015025,-0.021145,-0.04738,-0.90134,0.088308,-0.013295,0.0015022,-0.02316,0.0096818,0.0044308,-0.071118,-0.034699,-0.0049368,-0.023674
0.0042156,0.0081455,0.0079214,-0.014504,0.0042377,0.061048,-0.034347,0.018761,-0.0024486,0.01745,0.00048118,-0.017973,-0.034174,-0.71243,0.15009,-0.01002,0.0018165,-0.01831,0.010526,0.0026978,-0.078846,-0.035697,-0.014419,-0.023799
0.005178,0.0081451,0.012048,-0.015567,-0.0018667,0.066257,0.0055252,0.020637,0.0030064,0.015447,-0.0032038,-0.0098097,-0.021102,-0.51427,0.20927,-0.0068402,0.0036804,-0.015617,0.014619,-0.00093195,-0.079337,-0.03601,-0.024525,-0.020829
0.0049397,0.0075902,0.018597,-0.016688,-0.0050279,0.072545,0.052209,0.017404,0.0088425,0.014694,-0.0060535,-0.0014207,-0.0089696,-0.31813,0.26338,-0.0033681,0.002918,-0.014425,0.022379,-0.0061629,-0.070478,-0.036491,-0.029246,-0.015027
0.0047686,0.0075569,0.025745,-0.017526,-0.0058911,0.078424,0.10454,0.0098735,0.011842,0.015557,-0.0052395,0.0010613,0.0015853,-0.13751,0.30811,0.00025766,-0.0024225,-0.012753,0.032474,-0.011577,-0.053242,-0.037283,-0.02616,-0.008771
0.0053661,0.0089,0.030327,-0.017618,-0.0077601,0.081806,0.16158,0.0019035,0.011645,0.017369,-0.00034978,-0.004954,0.011139,0.01908,0.33993,0.0030979,-0.010194,-0.0088968,0.043267,-0.014709,-0.031832,-0.037497,-0.018159,-0.0045097
0.0063188,0.011403,0.029683,-0.016729,-0.012812,0.081846,0.22135,-0.0019282,0.010642,0.019009,0.0069258,-0.015869,0.021178,0.15315,0.35891,0.0037499,-0.015937,-0.0027057,0.053984,-0.013433,-0.011914,-0.036058,-0.011196,-0.0028589
0.0065615,0.013968,0.023626,-0.015255,-0.019916,0.079731,0.28084,0.00034083,0.011417,0.019796,0.014393,-0.024086,0.032697,0.27398,0.36889,0.0011503,-0.016638,0.0045368,0.064627,-0.0078084,0.0020054,-0.033047,-0.0098974,-0.0025415
0.0054427,0.015606,0.0149,-0.014055,-0.026056,0.077743,0.33685,0.0063494,0.01408,0.019987,0.02058,-0.023729,0.045074,0.39038,0.37465,-0.0046312,-0.013026,0.011424,0.075091,-0.00076541,0.0085296,-0.030134,-0.014447,-0.001914
0.0034999,0.016205,0.007611,-0.013635,-0.029581,0.0775,0.38642,0.010914,0.01594,0.020437,0.024785,-0.015373,0.056374,0.50336,0.37883,-0.012112,-0.0084921,0.017656,0.084732,0.0033344,0.0095965,-0.029462,-0.020971,-0.00040623
0.0022752,0.016364,0.004728,-0.013421,-0.031815,0.078969,0.42618,0.0098096,0.013861,0.021674,0.026564,-0.0057399,0.064784,0.60555,0.38094,-0.018916,-0.00593,0.024009,0.092962,0.0015482,0.0089125,-0.031814,-0.024767,0.0013763
0.0032528,0.016516,0.0064632,-0.012029,-0.035451,0.080955,0.45166,0.0029525,0.0072735,0.023187,0.025744,-0.0023542,0.069876,0.68765,0.37935,-0.022962,-0.0055925,0.031035,0.10014,-0.0054512,0.0095482,-0.035739,-0.023658,0.0025786
0.0067205,0.016375,0.010586,-0.0085815,-0.041549,0.082374,0.45795,-0.0055301,-0.00085091,0.023619,0.023116,-0.0075283,0.072635,0.74535,0.37354,-0.023686,-0.0057845,0.037774,0.1075,-0.013644,0.012169,-0.038516,-0.019013,0.0028394
0.01145,0.01541,0.014272,-0.0039541,-0.048277,0.083001,0.44204,-0.010448,-0.0060547,0.021819,0.02081,-0.016731,0.074464,0.78095,0.36462,-0.022447,-0.0052859,0.041784,0.11587,-0.01839,0.015034,-0.038217,-0.014137,0.0022162
0.015468,0.013949,0.01607,-0.0005794,-0.052657,0.083095,0.4052,-0.0094485,-0.0058726,0.017932,0.021424,-0.022681,0.076221,0.79934,0.35371,-0.021629,-0.0048242,0.040658,0.12428,-0.017653,0.015735,-0.035125,-0.01172,0.00080406
0.017334,0.013652,0.016645,-0.00060124,-0.053449,0.082566,0.35349,-0.0046492,-0.0018694,0.013581,0.026238,-0.021534,0.078083,0.80332,0.34043,-0.022873,-0.0061744,0.033805,0.13007,-0.013262,0.013322,-0.031347,-0.012356,-0.0011765
0.016971,0.016507,0.017937,-0.0038313,-0.052259,0.080758,0.29577,-0.00082074,0.001492,0.010848,0.034046,-0.015789,0.079983,0.79318,0.32353,-0.025732,-0.010075,0.023041,0.13064,-0.0093106,0.0091376,-0.029028,-0.014839,-0.0029125
0.015497,0.022913,0.021429,-0.0074824,-0.051823,0.077183,0.24048,-0.0016885,0.00027195,0.010771,0.041799,-0.01154,0.081885,0.77014,0.30302,-0.027889,-0.015304,0.011535,0.12538,-0.0090093,0.0057057,-0.028753,-0.017404,-0.003041
0.014342,0.030595,0.02672,-0.0082785,-0.053291,0.072441,0.19341,-0.0073004,-0.0059863,0.012532,0.046687,-0.012749,0.083569,0.73894,0.28165,-0.02697,-0.019825,0.0020315,0.11616,-0.012501,0.0047128,-0.029414,-0.018728,-0.00067904
0.014394,0.035713,0.031405,-0.005328,-0.05521,0.068252,0.15717,-0.014387,-0.014086,0.014075,0.047945,-0.017697,0.084374,0.70617,0.26373,-0.022552,-0.022628,-0.0043416,0.10576,-0.017221,0.0058582,-0.029479,-0.018216,0.0033691
0.015718,0.035673,0.032459,-0.001165,-0.055165,0.066412,0.13178,-0.019132,-0.019768,0.013745,0.04688,-0.020671,0.083476,0.67587,0.25218,-0.01669,-0.024227,-0.0080668,0.095721,-0.020214,0.0074688,-0.02834,-0.015965,0.0066485
0.017764,0.0314,0.028327,0.00024065,-0.052326,0.067608,0.11506,-0.019919,-0.020793,0.011672,0.045227,-0.017261,0.080643,0.64736,0.24626,-0.012396,-0.02545,-0.010434,0.085586,-0.020334,0.0080998,-0.026487,-0.012831,0.0067659
0.019672,0.026933,0.020312,-0.0030142,-0.048334,0.071211,0.10285,-0.017927,-0.017998,0.0096983,0.043374,-0.0086011,0.076738,0.61772,0.24194,-0.011289,-0.026101,-0.012669,0.074036,-0.018605,0.0075499,-0.024508,-0.010416,0.0034595
0.020466,0.02633,0.012129,-0.0088462,-0.04562,0.076196,0.090087,-0.015486,-0.013782,0.0097543,0.039998,-0.00091128,0.073357,0.58626,0.23431,-0.012434,-0.025135,-0.01536,0.060891,-0.016808,0.0065177,-0.022071,-0.010451,-0.00091692
0.01932,0.030354,0.0076878,-0.012737,-0.044792,0.082206,0.07296,-0.013987,-0.0097713,0.011936,0.033374,-0.00065736,0.071786,0.55593,0.22,-0.013381,-0.022136,-0.018197,0.048001,-0.015859,0.0055848,-0.018079,-0.01353,-0.0031235
0.016074,0.035836,0.0085347,-0.011565,-0.043649,0.089699,0.050878,-0.013202,-0.0059821,0.013946,0.023185,-0.0092234,0.072119,0.52997,0.19796,-0.01247,-0.018271,-0.020049,0.038088,-0.015429,0.0047501,-0.011935,-0.018169,-0.0015418
0.011743,0.038442,0.012844,-0.0063429,-0.038861,0.099129,0.026234,-0.01229,-0.0020635,0.012589,0.011405,-0.021348,0.073255,0.50749,0.16882,-0.010305,-0.015483,-0.019573,0.032313,-0.014865,0.003891,-0.0046532,-0.021337,0.002713
0.0084037,0.036512,0.016799,-0.0013317,-0.028852,0.11012,0.0016025,-0.011091,0.0010574,0.0063055,0.0015705,-0.02868,0.073684,0.48325,0.1341,-0.009023,-0.014691,-0.016232,0.028314,-0.014211,0.0033566,0.001436,-0.02057,0.0069193
0.00819,0.032529,0.017368,-0.000257,-0.015314,0.12144,-0.023385,-0.010289,0.0012877,-0.0033181,-0.0030918,-0.02589,0.072395,0.45248,0.095862,-0.010048,-0.015007,-0.011026,0.020167,-0.014222,0.0037774,0.0043017,-0.016214,0.0089149
0.011882,0.030815,0.014338,-0.0030425,-0.0019967,0.13171,-0.052387,-0.010384,-0.0024958,-0.012482,-0.0016078,-0.01475,0.069291,0.41627,0.056445,-0.012478,-0.014962,-0.0061118,0.00052575,-0.0155,0.0052176,0.0037779,-0.011747,0.0083628
0.018167,0.033463,0.010099,-0.0060741,0.0081164,0.1397,-0.089017,-0.010762,-0.0084407,-0.01803,0.0038403,-0.0029953,0.065052,0.38162,0.017596,-0.0137,-0.014454,-0.0033278,-0.035937,-0.01777,0.0067439,0.0016696,-0.011486,0.0063255
0.024265,0.038207,0.0075154,-0.0057617,0.01475,0.14413,-0.13239,-0.010037,-0.012338,-0.020008,0.0086746,0.001346,0.060771,0.35561,-0.020599,-0.011769,-0.01524,-0.0027465,-0.08922,-0.020122,0.0071621,0.00033639,-0.017221,0.0040231
0.027608,0.040279,0.0077064,-0.0020919,0.019797,0.14345,-0.17552,-0.0074184,-0.010978,-0.021783,0.0081783,-0.0040895,0.057598,0.33898,-0.059811,-0.0073399,-0.019158,-0.0026011,-0.15235,-0.021888,0.0063408,0.0010443,-0.026568,0.002132
0.027358,0.0367,0.0094478,0.0011701,0.024993,0.13653,-0.20842,-0.0037068,-0.0053937,-0.027493,0.00015855,-0.014386,0.056351,0.32522,-0.10199,-0.0032609,-0.025703,-0.00080233,-0.21259,-0.023164,0.0056844,0.0034721,-0.03468,0.00099576
0.024671,0.02917,0.010408,-0.00010814,0.030078,0.12423,-0.22374,-0.00080183,-0.00070878,-0.038807,-0.013616,-0.02137,0.057061,0.30622,-0.14724,-0.0020817,-0.031471,0.0032137,-0.25585,-0.024426,0.0069869,0.0065467,-0.038183,0.00098854
0.021571,0.022922,0.0089667,-0.0064741,0.033114,0.11013,-0.22072,-7.119e-005,-0.0021085,-0.053598,-0.028333,-0.020041,0.058684,0.27923,-0.19293,-0.0037333,-0.032369,0.0079465,-0.27284,-0.025754,0.010548,0.0095384,-0.0381,0.0022686
0.019408,0.022445,0.0051825,-0.013994,0.032574,0.099029,-0.20477,-0.0010943,-0.010197,-0.06755,-0.039013,-0.012178,0.059435,0.24885,-0.23497,-0.0056059,-0.026915,0.011084,-0.26407,-0.02657,0.014381,0.012303,-0.039135,0.0041518
0.018113,0.027745,0.00043137,-0.017261,0.029171,0.093711,-0.18366,-0.0019678,-0.019972,-0.077293,-0.043392,-0.0043115,0.057746,0.22248,-0.27032,-0.0050617,-0.017746,0.011398,-0.24062,-0.026186,0.015512,0.014645,-0.045701,0.0050409
0.016735,0.034272,-0.0036541,-0.013695,0.025771,0.092472,-0.16354,-0.00090508,-0.024692,-0.082473,-0.042757,-0.0020464,0.053262,0.2037,-0.29864,-0.002086,-0.0098925,0.0095895,-0.21937,-0.024439,0.012478,0.015774,-0.057962,0.0033836
0.014634,0.03649,-0.0060454,-0.0054416,0.025489,0.089913,-0.14757,0.0023017,-0.021509,-0.085211,-0.040247,-0.0057142,0.047039,0.18951,-0.32182,0.00047743,-0.0071003,0.007425,-0.2149,-0.021641,0.006889,0.014679,-0.071357,-0.0010135
0.012182,0.031976,-0.0065624,0.0025828,0.029561,0.080978,-0.13685,0.0061958,-0.013943,-0.087714,-0.038194,-0.010878,0.040678,0.17325,-0.34197,-0.000529,-0.0091578,0.0061098,-0.23248,-0.017908,0.0025968,0.011134,-0.08013,-0.0065432
0.010354,0.022799,-0.0056784,0.0066286,0.036578,0.065245,-0.13196,0.0089141,-0.0089458,-0.090315,-0.036699,-0.012703,0.035128,0.15005,-0.35988,-0.005524,-0.012322,0.0054802,-0.26597,-0.012816,0.0029928,0.0062486,-0.081956,-0.010777
0.0096735,0.013454,-0.0042158,0.0065995,0.043422,0.047865,-0.13317,0.0096303,-0.011055,-0.091619,-0.034351,-0.0099458,0.030227,0.12003,-0.37494,-0.011487,-0.012383,0.0047128,-0.30186,-0.0060328,0.0085157,0.0018593,-0.0797,-0.012138
0.009649,0.0074757,-0.0030696,0.0052328,0.047092,0.036007,-0.13982,0.0089909,-0.018779,-0.090389,-0.030039,-0.0051867,0.025417,0.087199,-0.38621,-0.014367,-0.0078298,0.0037215,-0.3267,0.0016386,0.016299,-0.00074834,-0.078873,-0.01091
0.0093526,0.0055387,-0.0029274,0.0051313,0.046306,0.033429,-0.15013,0.0082969,-0.026283,-0.087241,-0.024027,-0.0018063,0.020832,0.055962,-0.39306,-0.012504,-0.00066182,0.0037337,-0.33371,0.0081338,0.022191,-0.00159,-0.083064,-0.0088024
0.0086263,0.0060571,-0.004016,0.0065126,0.042146,0.037501,-0.16219,0.0082238,-0.028706,-0.084466,-0.017511,-0.0010693,0.017549,0.028544,-0.39481,-0.0080336,0.0055152,0.0063375,-0.3252,0.011503,0.023592,-0.0015274,-0.091303,-0.0075365
0.0086029,0.0070483,-0.0060182,0.0075352,0.037493,0.04117,-0.17534,0.008191,-0.02621,-0.084113,-0.011455,-0.001958,0.016552,0.0048334,-0.39016,-0.0050832,0.0083039,0.011811,-0.3098,0.011727,0.021066,-0.0011538,-0.099433,-0.0076619
0.010763,0.0073669,-0.0082788,0.0064974,0.035414,0.038393,-0.19067,0.0069143,-0.023237,-0.086141,-0.0060358,-0.0032072,0.017354,-0.016264,-0.37735,-0.0064457,0.0079363,0.018332,-0.29665,0.011093,0.017688,-0.00021977,-0.10391,-0.0085042
0.015203,0.0066164,-0.010231,0.003587,0.037217,0.028744,-0.20987,0.0036847,-0.023913,-0.088378,-0.0011385,-0.0048847,0.017761,-0.035712,-0.35527,-0.011593,0.0064442,0.022984,-0.28973,0.012381,0.016778,0.001793,-0.10454,-0.0090906
0.019793,0.004556,-0.01181,0.00059289,0.041414,0.017589,-0.2338,-0.00073752,-0.028045,-0.088392,0.0028811,-0.0078466,0.015288,-0.054125,-0.32433,-0.017494,0.0056738,0.023859,-0.28574,0.016292,0.019713,0.0045749,-0.10384,-0.0091108
0.02132,0.0010586,-0.013592,-0.00085907,0.044547,0.011848,-0.26174,-0.0044852,-0.031372,-0.085593,0.0051582,-0.012044,0.0091317,-0.071865,-0.28608,-0.021146,0.0059806,0.021573,-0.27673,0.020534,0.025312,0.0066155,-0.10425,-0.0090797
0.017941,-0.0033684,-0.016495,-0.00062463,0.043584,0.014825,-0.29215,-0.0060368,-0.029724,-0.081638,0.0051377,-0.015896,0.00095937,-0.088848,-0.24214,-0.021491,0.0064992,0.018832,-0.25595,0.021659,0.031055,0.006154,-0.10594,-0.0096928
0.010913,-0.007423,-0.021119,0.00030307,0.038104,0.024129,-0.32359,-0.0055578,-0.023105,-0.07876,0.0033924,-0.017524,-0.006258,-0.10426,-0.19373,-0.019368,0.006334,0.018313,-0.22304,0.018119,0.035093,0.0027312,-0.10734,-0.011105
0.0039482,-0.0098115,-0.027055,0.0011626,0.030403,0.034028,-0.35463,-0.0048643,-0.015958,-0.077532,0.0015196,-0.016389,-0.01035,-0.11676,-0.14285,-0.016168,0.0053334,0.020504,-0.18474,0.011723,0.037499,-0.0021064,-0.10744,-0.012839
0.00057157,-0.010405,-0.032704,0.0021854,0.023339,0.039995,-0.38247,-0.0058794,-0.013422,-0.076122,0.001032,-0.0134,-0.01118,-0.12525,-0.093982,-0.012772,0.0038083,0.023261,-0.15023,0.0060576,0.039887,-0.0057892,-0.10719,-0.014322
0.0015823,-0.010473,-0.035958,0.0039619,0.01784,0.041739,-0.40168,-0.008875,-0.016962,-0.071797,0.0021087,-0.009426,-0.010103,-0.12949,-0.053989,-0.0096069,0.0017719,0.023528,-0.12433,0.0032565,0.043794,-0.006744,-0.10862,-0.015387
0.0047302,-0.011511,-0.035505,0.0062753,0.012449,0.042661,-0.40471,-0.012134,-0.023134,-0.06337,0.003309,-0.0040866,-0.0084389,-0.12989,-0.029309,-0.007181,-0.0012517,0.0199,-0.10391,0.0021502,0.049172,-0.0057555,-0.11273,-0.016181
0.0068393,-0.013669,-0.031914,0.0078602,0.0053489,0.046729,-0.3845,-0.013465,-0.026365,-0.052437,0.0027122,0.0035401,-0.0065126,-0.12689,-0.021818,-0.0060318,-0.0055045,0.013967,-0.080576,-0.00046324,0.05425,-0.0053602,-0.11835,-0.01661
0.0065446,-0.015449,-0.027599,0.0074717,-0.0031404,0.055633,-0.3375,-0.012272,-0.02325,-0.042312,-0.00014715,0.012895,-0.0040463,-0.12056,-0.026621,-0.0059519,-0.010114,0.0092743,-0.047681,-0.0065741,0.056889,-0.0075865,-0.1234,-0.016091
0.0053178,-0.015186,-0.025485,0.005149,-0.010172,0.068257,-0.26511,-0.010247,-0.014905,-0.035602,-0.0029909,0.020967,-0.0011706,-0.11104,-0.033808,-0.0055124,-0.01313,0.0086595,-0.0061414,-0.01475,0.056378,-0.011885,-0.12696,-0.014094
0.0059386,-0.01304,-0.027237,0.0023157,-0.012628,0.082117,-0.17287,-0.0099437,-0.0058473,-0.032504,-0.0014852,0.023933,0.0012551,-0.099119,-0.03329,-0.0028502,-0.012747,0.012128,0.035806,-0.020999,0.054198,-0.015154,-0.13013,-0.011036
0.0097402,-0.011464,-0.032266,0.00059664,-0.0099308,0.094741,-0.068502,-0.012408,-0.00067323,-0.03117,0.0080204,0.020292,0.0024892,-0.086156,-0.019468,0.0026469,-0.0087904,0.016988,0.068622,-0.021937,0.053065,-0.014118,-0.13455,-0.008492
0.015006,-0.013425,-0.038192,0.00054578,-0.004726,0.10356,0.039476,-0.016013,-0.0011582,-0.029566,0.025343,0.012597,0.0030481,-0.073122,0.0072484,0.0093361,-0.0031518,0.020105,0.08831,-0.017466,0.054933,-0.0082506,-0.14037,-0.0081664
0.017965,-0.019806,-0.04231,0.0014584,-0.00085855,0.10482,0.14229,-0.017652,-0.0055753,-0.027012,0.045379,0.0059522,0.004829,-0.059771,0.042562,0.014244,0.0013151,0.020346,0.098594,-0.010701,0.059488,-0.00069814,-0.14563,-0.010351
0.015701,-0.028341,-0.043012,0.0022337,-0.00065042,0.093501,0.23163,-0.015407,-0.010196,-0.024085,0.060455,0.0043923,0.0098473,-0.044972,0.081998,0.015413,0.0026616,0.019166,0.10702,-0.0053837,0.064346,0.0038062,-0.14782,-0.013373
0.008623,-0.035183,-0.040295,0.0022765,-0.0039813,0.065293,0.30142,-0.010448,-0.011658,-0.021246,0.064954,0.0081707,0.01859,-0.028135,0.12343,0.013658,0.0010441,0.018974,0.11859,-0.0030552,0.066866,0.0025214,-0.14597,-0.014805
0.0004186,-0.037802,-0.035357,0.0016743,-0.0096237,0.019716,0.34955,-0.0064598,-0.0087776,-0.017817,0.058986,0.014094,0.029441,-0.010429,0.16697,0.012055,-0.0016001,0.020811,0.13205,-0.002277,0.066219,-0.0032205,-0.14121,-0.013526
-0.0046166,-0.036742,-0.02982,0.00084842,-0.016947,-0.038118,0.37764,-0.0069416,-0.002986,-0.012487,0.048314,0.018236,0.039711,0.0055283,0.21289,0.013488,-0.003048,0.023387,0.14148,-0.00028141,0.064077,-0.0092667,-0.13539,-0.01072
-0.0047818,-0.034812,-0.025142,0.00031709,-0.025962,-0.098966,0.38798,-0.01253,0.0026863,-0.0048838,0.040475,0.018493,0.047408,0.017427,0.25922,0.018385,-0.0022641,0.024172,0.14121,0.0045142,0.063351,-0.012188,-0.12935,-0.0087735
-0.0020783,-0.034618,-0.02232,0.00070374,-0.035795,-0.15358,0.38,-0.020545,0.0055132,0.0034267,0.040026,0.015103,0.052275,0.024989,0.30092,0.024606,0.00016546,0.02146,0.13001,0.01116,0.0659,-0.011977,-0.1225,-0.0090626
