7.1384e-011,1.1595e-009,5.9616e-010,6.6947e-010,-2.7589e-010,9.7044e-010,1.3486e-009,4.6882e-010,4.8426e-010,8.8941e-010,9.8202e-010,1.0553e-009,9.4536e-011,-1.3505e-011,-2.1222e-011,8.0452e-010,-5.595e-011,8.7012e-010,9.2028e-010,8.8169e-010,1.2483e-009,3.8393e-010,5.4599e-010,5.4599e-010
2.0498e-009,3.1656e-008,1.6212e-008,1.8484e-008,-7.5969e-009,2.6828e-008,3.6803e-008,1.3171e-008,1.3227e-008,2.452e-008,2.7044e-008,2.8885e-008,2.7127e-009,-1.6483e-010,-5.8645e-010,2.2139e-008,-1.6078e-009,2.433e-008,2.535e-008,2.4179e-008,3.407e-008,1.0459e-008,1.4744e-008,1.5466e-008
2.8678e-008,4.2012e-007,2.1414e-007,2.4812e-007,-1.0154e-007,3.6032e-007,4.8827e-007,1.8032e-007,1.7557e-007,3.2828e-007,3.6173e-007,3.8406e-007,3.785e-008,8.2177e-010,-7.6156e-009,2.9611e-007,-2.224e-008,3.3066e-007,3.3956e-007,3.2218e-007,4.5158e-007,1.3847e-007,1.9322e-007,2.1282e-007
2.6051e-007,3.6108e-006,1.8304e-006,2.1572e-006,-8.7769e-007,3.132e-006,4.1957e-006,1.6028e-006,1.5086e-006,2.843e-006,3.1301e-006,3.305e-006,3.4199e-007,3.6065e-008,-6.1482e-008,2.5643e-006,-1.9729e-007,2.9098e-006,2.9469e-006,2.7789e-006,3.8719e-006,1.1871e-006,1.6366e-006,1.8952e-006
1.7277e-006,2.2589e-005,1.138e-005,1.3654e-005,-5.5127e-006,1.9803e-005,2.6246e-005,1.0395e-005,9.4281e-006,1.7896e-005,1.969e-005,2.0686e-005,2.2481e-006,4.3091e-007,-3.4204e-007,1.6162e-005,-1.2613e-006,1.8635e-005,1.8623e-005,1.7438e-005,2.4134e-005,7.4073e-006,1.0066e-005,1.2274e-005
8.9165e-006,0.00010958,5.4837e-005,6.703e-005,-2.6803e-005,9.7028e-005,0.00012734,5.2412e-005,4.5652e-005,8.7207e-005,9.5899e-005,0.00010033,1.1452e-005,3.2288e-006,-1.3576e-006,7.8971e-005,-6.1903e-006,9.2535e-005,9.131e-005,8.4832e-005,0.00011648,3.5848e-005,4.7872e-005,6.1601e-005
3.7273e-005,0.00042868,0.00021303,0.00026551,-0.00010492,0.00038322,0.00049849,0.00021368,0.00017808,0.00034209,0.00037602,0.00039219,4.7005e-005,1.7782e-005,-3.7254e-006,0.00031118,-2.425e-005,0.00037058,0.00036132,0.0003328,0.00045271,0.00014,0.000183,0.00024917
0.00012967,0.0013884,0.0006852,0.00087133,-0.0003394,0.0012527,0.0016166,0.00072315,0.00057432,0.0011086,0.0012181,0.0012685,0.00015958,7.7136e-005,-5.5073e-006,0.0010151,-7.7813e-005,0.0012289,0.0011849,0.0010812,0.0014543,0.00045313,0.00057678,0.00083404
0.00038267,0.003791,0.0018589,0.0024132,-0.00092382,0.003452,0.0044236,0.0020691,0.0015588,0.0030211,0.0033175,0.0034568,0.00045634,0.0002741,7.0286e-006,0.002792,-0.00020821,0.0034373,0.0032799,0.0029637,0.003932,0.0012387,0.0015245,0.0023532
0.00097134,0.0088353,0.00431,0.0057151,-0.0021421,0.008124,0.010346,0.00507,0.0036037,0.0070071,0.007687,0.0080381,0.0011132,0.00081812,7.8112e-005,0.0065556,-0.00047035,0.008214,0.0077648,0.0069466,0.0090585,0.0028995,0.0034157,0.0056697
0.0021412,0.017717,0.0086189,0.011678,-0.004264,0.016473,0.020862,0.010731,0.007151,0.013937,0.015259,0.016081,0.0023367,0.0020865,0.00030246,0.01325,-0.00090485,0.016918,0.015862,0.014053,0.017927,0.0058702,0.0065239,0.011769
0.0041241,0.030695,0.014952,0.020704,-0.0073135,0.028935,0.036454,0.019724,0.012224,0.023855,0.026015,0.02781,0.0042414,0.0046014,0.00081815,0.023158,-0.0014917,0.030188,0.028119,0.024695,0.030608,0.010357,0.010623,0.021164
0.0069592,0.045945,0.022566,0.031935,-0.010799,0.044127,0.055286,0.03155,0.017995,0.0351,0.037981,0.041613,0.0066672,0.008849,0.0017366,0.035021,-0.0021194,0.046757,0.043365,0.037831,0.045109,0.016021,0.014644,0.033053
0.010277,0.059122,0.02962,0.042828,-0.01364,0.058369,0.072608,0.043876,0.022696,0.044094,0.046986,0.053728,0.0090518,0.014926,0.0030146,0.045659,-0.0026171,0.062756,0.05815,0.050588,0.05716,0.021855,0.016774,0.044805
0.013196,0.06463,0.033708,0.049733,-0.014524,0.06668,0.082002,0.052825,0.024246,0.046525,0.048057,0.059427,0.010525,0.02217,0.004365,0.050861,-0.0028576,0.072555,0.067556,0.059018,0.06165,0.02651,0.015285,0.052515
0.014527,0.058644,0.03308,0.049594,-0.012674,0.065316,0.078598,0.054683,0.021488,0.039762,0.038333,0.055655,0.010302,0.029095,0.0053623,0.047625,-0.0028491,0.071459,0.067561,0.06001,0.055456,0.029029,0.0098453,0.052879
0.013311,0.0423,0.027898,0.041929,-0.0086068,0.054547,0.062672,0.048379,0.015258,0.025038,0.019813,0.04362,0.0082093,0.033904,0.0058032,0.036607,-0.0026906,0.05898,0.057803,0.05333,0.039901,0.029543,0.002401,0.045473
0.0094956,0.022436,0.020562,0.029639,-0.0041959,0.039488,0.040881,0.037027,0.0082914,0.0074301,-0.00049656,0.029112,0.0050007,0.035467,0.0061182,0.022792,-0.0023585,0.040239,0.042627,0.042206,0.020624,0.029294,-0.0033477,0.033739
0.0042538,0.0083488,0.014565,0.017697,-0.0017151,0.027694,0.023394,0.026815,0.003641,-0.0069632,-0.014139,0.019484,0.0021215,0.034163,0.007412,0.013144,-0.001511,0.02369,0.029011,0.031583,0.0042716,0.029769,-0.0039706,0.023421
-0.00044298,0.0059867,0.01246,0.01033,-0.0022975,0.02462,0.018047,0.023277,0.0026189,-0.014892,-0.016581,0.018846,0.0009542,0.031807,0.010854,0.012219,0.00038891,0.015977,0.022206,0.02499,-0.0058726,0.031514,0.001404,0.019079
-0.0029527,0.013611,0.01428,0.0086967,-0.0049322,0.030058,0.025348,0.027304,0.003945,-0.017736,-0.010411,0.025031,0.0019659,0.030418,0.016678,0.01879,0.0035294,0.017452,0.022143,0.022264,-0.011751,0.033639,0.010349,0.021094
-0.0031145,0.022653,0.017631,0.010803,-0.0069596,0.038388,0.038114,0.034126,0.005009,-0.019502,-0.0033931,0.031084,0.0043317,0.030581,0.02358,0.026371,0.0071525,0.022052,0.023573,0.020022,-0.018115,0.034617,0.018763,0.02562
-0.0025099,0.023764,0.019409,0.013595,-0.0059349,0.042627,0.04627,0.036557,0.0042774,-0.022706,-0.0024356,0.030582,0.0063327,0.030758,0.029182,0.027783,0.0095807,0.022123,0.020227,0.014628,-0.027797,0.033815,0.023734,0.027676
-0.0034232,0.013699,0.017875,0.015295,-0.0015125,0.039212,0.043389,0.030326,0.0026549,-0.025933,-0.0082253,0.022664,0.0063206,0.028364,0.031458,0.02046,0.0092276,0.014617,0.0098914,0.0052754,-0.03897,0.032381,0.025316,0.024918
-0.0071052,-0.0024175,0.013582,0.015958,0.0042016,0.02982,0.030169,0.017329,0.0024047,-0.025504,-0.015081,0.012564,0.0036726,0.02196,0.030086,0.0082741,0.0060578,0.0035764,-0.0037419,-0.0053598,-0.047004,0.032498,0.02576,0.018978
-0.012664,-0.015411,0.0085905,0.016071,0.0082145,0.019071,0.012651,0.0040743,0.0045376,-0.019697,-0.016228,0.0070506,-0.00082181,0.012799,0.026612,-0.0016996,0.0022387,-0.003309,-0.014065,-0.013389,-0.049157,0.03544,0.02693,0.013397
-0.017576,-0.01947,0.0047494,0.014995,0.0088832,0.010448,-0.0027824,-0.0033945,0.0072206,-0.011288,-0.0098959,0.0085931,-0.0053526,0.0042697,0.023239,-0.0048316,0.0010374,-0.0012885,-0.016963,-0.01686,-0.04749,0.040115,0.028301,0.010209
-0.019542,-0.01654,0.0024422,0.011134,0.0069731,0.0040065,-0.013304,-0.0038906,0.0069756,-0.0056159,-0.00087334,0.013242,-0.0080373,-0.00043681,0.021244,-0.0022562,0.0044018,0.0072936,-0.014118,-0.016994,-0.047006,0.043529,0.02735,0.0083698
-0.018229,-0.014162,0.00066042,0.0037876,0.0047219,-0.0024272,-0.019712,-0.0012645,0.001787,-0.0057571,0.0038013,0.014063,-0.0079287,-0.00052023,0.020319,0.00081468,0.011047,0.014773,-0.011465,-0.016539,-0.050734,0.042986,0.021896,0.0053322
-0.015449,-0.018809,-0.0018009,-0.0052728,0.0038508,-0.010169,-0.023668,-0.00058341,-0.0067356,-0.0094456,0.0010273,0.0071427,-0.0055562,0.0022097,0.019332,4.5378e-005,0.016849,0.014238,-0.014222,-0.016926,-0.056576,0.038209,0.012188,3.448e-005
-0.013627,-0.030468,-0.0050303,-0.012414,0.0043154,-0.017837,-0.025433,-0.0038595,-0.014276,-0.0109,-0.0058531,-0.0049883,-0.0026799,0.0050998,0.017666,-0.0043379,0.017653,0.0046777,-0.022734,-0.017011,-0.059148,0.031513,0.00083133,-0.0056987
-0.013883,-0.04293,-0.0075824,-0.014682,0.0047882,-0.022471,-0.024263,-0.008906,-0.017117,-0.0060574,-0.010309,-0.015364,-0.0013056,0.0066426,0.015829,-0.0083052,0.012491,-0.0089089,-0.032534,-0.014607,-0.054966,0.025813,-0.0092831,-0.0087003
-0.015337,-0.049162,-0.0073024,-0.012031,0.0042372,-0.022436,-0.020546,-0.011869,-0.014905,0.0036274,-0.0084489,-0.01818,-0.0024503,0.0069213,0.01483,-0.0082082,0.0046046,-0.019974,-0.03826,-0.0092639,-0.046042,0.022176,-0.017069,-0.0074131
-0.016101,-0.046904,-0.0028791,-0.0071609,0.0030591,-0.019332,-0.016873,-0.010827,-0.01052,0.012337,-0.0020889,-0.013212,-0.0054198,0.0064813,0.015011,-0.0043098,-0.00072546,-0.025258,-0.037958,-0.0034571,-0.038389,0.019051,-0.023488,-0.0034057
-0.014917,-0.039855,0.004957,-0.0031735,0.0027784,-0.01709,-0.016505,-0.0073241,-0.0074063,0.014874,0.0034601,-0.0055627,-0.0081982,0.0052249,0.015602,-0.00042428,9.275e-006,-0.02612,-0.034249,-0.00083288,-0.036757,0.013808,-0.029836,-7.1786e-005
-0.011968,-0.033877,0.013574,-0.0012588,0.0046769,-0.019003,-0.02058,-0.0048949,-0.0069676,0.010856,0.0044624,-0.0013685,-0.0088645,0.0027196,0.015463,-0.00024899,0.0060476,-0.026077,-0.031781,-0.0029818,-0.040473,0.0051598,-0.035779,0.00018201
-0.0083231,-0.031901,0.020044,-0.0004633,0.0085967,-0.025174,-0.026913,-0.0062124,-0.0082537,0.0044621,0.0018468,-0.003305,-0.0071224,-0.00047988,0.014237,-0.0040208,0.01311,-0.027456,-0.033441,-0.0077559,-0.044224,-0.0056401,-0.039,-0.0023531
-0.0048262,-0.031926,0.023166,0.00057148,0.012893,-0.032419,-0.031748,-0.011282,-0.009723,0.00040102,-0.00031277,-0.0094368,-0.0047321,-0.0022817,0.012675,-0.0085831,0.016762,-0.030105,-0.038471,-0.010833,-0.04303,-0.015775,-0.036872,-0.005468
-0.0016044,-0.029417,0.024281,0.0018831,0.015515,-0.036619,-0.032912,-0.017777,-0.010952,0.00010916,0.00093203,-0.015695,-0.0043056,-0.00041773,0.011745,-0.010516,0.015703,-0.032491,-0.04361,-0.0092678,-0.036806,-0.022979,-0.028781,-0.0073036
0.0014404,-0.0216,0.025971,0.0022174,0.015346,-0.035619,-0.031463,-0.022817,-0.012555,0.0015289,0.0046503,-0.019263,-0.0072171,0.0052643,0.011431,-0.0091086,0.012448,-0.033361,-0.045843,-0.0039242,-0.030379,-0.026903,-0.017083,-0.007878
0.0039038,-0.0098825,0.029498,0.0006029,0.012883,-0.030548,-0.030408,-0.024689,-0.014695,0.0021008,0.007257,-0.019963,-0.012255,0.011915,0.010533,-0.0063941,0.010961,-0.032241,-0.044337,0.0013245,-0.029018,-0.028722,-0.0057798,-0.0086202
0.0048875,0.0013567,0.033144,-0.0023061,0.0098395,-0.024775,-0.031808,-0.023531,-0.016124,0.0016155,0.0061686,-0.019084,-0.016235,0.015504,0.0078044,-0.0045881,0.013234,-0.028934,-0.040327,0.0028546,-0.033616,-0.02967,0.0021817,-0.010674
0.0038652,0.0081563,0.033168,-0.0045452,0.0080639,-0.021531,-0.035001,-0.020893,-0.015053,0.0021201,0.0021445,-0.017511,-0.016281,0.014033,0.0033466,-0.0038516,0.01754,-0.023316,-0.035602,0.00013242,-0.039895,-0.030009,0.0068627,-0.013773
0.0015171,0.0095763,0.026907,-0.0044891,0.0084695,-0.022004,-0.037409,-0.018654,-0.011127,0.0053012,-0.0018096,-0.01519,-0.012036,0.0092037,-0.0011351,-0.0027148,0.01974,-0.016042,-0.031187,-0.0041931,-0.042294,-0.029278,0.010949,-0.016688
-0.00046606,0.0076558,0.015508,-0.0022267,0.010625,-0.025098,-0.037012,-0.017915,-0.0064008,0.010297,-0.0035312,-0.012164,-0.0060282,0.0047976,-0.0035482,-0.00049197,0.0166,-0.0092226,-0.027129,-0.0067386,-0.038923,-0.027292,0.017259,-0.018569
-0.00064802,0.0052868,0.0037984,0.00054959,0.013143,-0.028642,-0.034189,-0.018398,-0.0040394,0.014284,-0.0034939,-0.0095935,-0.001857,0.0030925,-0.0029894,0.001209,0.0085012,-0.0057439,-0.023096,-0.0060512,-0.033067,-0.024727,0.026136,-0.019695
0.00088988,0.004092,-0.0028887,0.0018638,0.01453,-0.030883,-0.031438,-0.018721,-0.0056282,0.015222,-0.0036278,-0.0093149,-0.0016157,0.0026748,-0.00026586,-0.00017738,-0.00056663,-0.0072629,-0.018897,-0.0033046,-0.029947,-0.022736,0.03492,-0.020891
0.0025108,0.0039588,-0.0024838,0.00070657,0.014013,-0.03115,-0.031412,-0.01743,-0.0095202,0.013908,-0.0046757,-0.012159,-0.0045679,-0.00012152,0.0029565,-0.0052103,-0.0057741,-0.012581,-0.014492,-0.00082823,-0.031767,-0.022106,0.040041,-0.022309
0.0023817,0.0041887,0.0025197,-0.0027088,0.011945,-0.02959,-0.034979,-0.014122,-0.01192,0.013189,-0.0050277,-0.01677,-0.0079912,-0.00732,0.0053869,-0.011068,-0.0048944,-0.01815,-0.00981,-0.0001111,-0.035586,-0.022861,0.04007,-0.02291
7.4055e-005,0.0048708,0.0072381,-0.0074865,0.0096801,-0.026598,-0.040728,-0.0098089,-0.010029,0.015067,-0.0022895,-0.02033,-0.0093348,-0.016606,0.0065767,-0.013565,0.00015193,-0.020624,-0.0048434,-0.0010151,-0.035857,-0.0246,0.037132,-0.021293
-0.0030657,0.0071236,0.008151,-0.012562,0.0089403,-0.022615,-0.046033,-0.0062061,-0.0046306,0.018601,0.0040495,-0.020799,-0.0079064,-0.022579,0.0065081,-0.010871,0.00476,-0.019352,4.4093e-005,-0.0025131,-0.029215,-0.026982,0.03537,-0.017112
-0.0051455,0.012026,0.0053386,-0.016766,0.010875,-0.018243,-0.048678,-0.0045069,0.00022596,0.020766,0.011604,-0.018713,-0.0049022,-0.021126,0.0051744,-0.0053002,0.0049522,-0.016578,0.0041056,-0.0038842,-0.017217,-0.02973,0.037628,-0.011701
-0.0053961,0.019266,0.001599,-0.01881,0.01523,-0.014188,-0.047981,-0.0045774,0.00036686,0.019492,0.016817,-0.016822,-0.002074,-0.013088,0.0028179,-0.0012644,5.8561e-005,-0.015142,0.006756,-0.005185,-0.0047608,-0.032181,0.043094,-0.007172
-0.0046606,0.02679,-0.00041177,-0.017741,0.020213,-0.010781,-0.044932,-0.0051432,-0.005064,0.015885,0.017848,-0.017675,-0.00035271,-0.0039051,0.00040786,-0.0012864,-0.0071113,-0.01577,0.0082028,-0.0067955,0.0041655,-0.033136,0.047893,-0.0046506
-0.0042485,0.0319,-0.00032753,-0.013774,0.023365,-0.0075365,-0.041558,-0.0047438,-0.012762,0.013321,0.015997,-0.021176,0.00045336,0.00059468,-0.00064985,-0.0039376,-0.012508,-0.016498,0.009388,-0.0087608,0.0096058,-0.031532,0.048192,-0.003151
-0.0043585,0.033052,0.00022834,-0.0086814,0.023071,-0.0034597,-0.039914,-0.002747,-0.017769,0.014172,0.014461,-0.024292,0.00086218,-0.0013487,0.0001871,-0.005677,-0.013643,-0.014757,0.011071,-0.01066,0.015177,-0.027535,0.043263,-0.00010545
-0.0037454,0.031024,-0.00027615,-0.0050572,0.019638,0.0018557,-0.041081,0.00018441,-0.017249,0.017279,0.015597,-0.023408,0.00076728,-0.0064859,0.0014164,-0.0046748,-0.010897,-0.010129,0.012868,-0.012031,0.024829,-0.022907,0.036047,0.0068004
-0.0010412,0.028493,-0.0016662,-0.0047603,0.015067,0.00725,-0.044492,0.0023798,-0.012391,0.018695,0.019037,-0.017543,-0.00067853,-0.009784,-7.4152e-005,-0.0027399,-0.0066496,-0.0050963,0.013348,-0.012802,0.039745,-0.019909,0.030893,0.017887
0.0035864,0.028229,-0.0024995,-0.0077209,0.0116,0.010289,-0.048007,0.0020432,-0.0069723,0.015076,0.02214,-0.0097417,-0.0041839,-0.0088794,-0.0067778,-0.0034154,-0.0032741,-0.0029363,0.011394,-0.013269,0.057658,-0.019298,0.030439,0.031104
0.0081528,0.031075,-0.0020074,-0.012142,0.010209,0.008988,-0.048978,-0.0016633,-0.0040341,0.0065604,0.02223,-0.0052235,-0.0092373,-0.0059476,-0.018232,-0.0081718,-0.001692,-0.0046753,0.0077467,-0.013701,0.074559,-0.01908,0.034109,0.043199
0.010307,0.035122,-0.0014725,-0.015936,0.010263,0.0037134,-0.045888,-0.0078975,-0.0036722,-0.0035594,0.018697,-0.0074741,-0.013879,-0.0055986,-0.030744,-0.014544,-0.0014381,-0.007974,0.0051877,-0.01402,0.087043,-0.015387,0.039139,0.051511
0.0091573,0.036679,-0.0035307,-0.018158,0.010478,-0.0024769,-0.039468,-0.014318,-0.0037609,-0.011954,0.013291,-0.015276,-0.015727,-0.010838,-0.03975,-0.018147,-0.0017528,-0.0091164,0.0068286,-0.013875,0.093614,-0.0052481,0.042884,0.055226
0.0058092,0.032471,-0.0099166,-0.019232,0.010124,-0.0056769,-0.032246,-0.018284,-0.0026729,-0.018115,0.0085304,-0.023175,-0.013592,-0.020578,-0.043015,-0.016708,-0.0024615,-0.0063669,0.013634,-0.013031,0.094607,0.010685,0.044368,0.055482
0.0022584,0.021667,-0.019691,-0.019991,0.0093019,-0.0039032,-0.026617,-0.018468,-0.0012639,-0.024232,0.0056215,-0.025291,-0.0084741,-0.030607,-0.04201,-0.012277,-0.0038509,-0.0016027,0.023181,-0.011726,0.091401,0.027684,0.044069,0.054424
-0.00015762,0.0064606,-0.029575,-0.02061,0.0082036,0.0014349,-0.022929,-0.015787,-0.0021913,-0.032296,0.0036252,-0.01969,-0.0031138,-0.036974,-0.040301,-0.0095108,-0.0058908,0.0013494,0.030869,-0.010691,0.085677,0.039375,0.042624,0.053806
-0.0013556,-0.0091436,-0.036119,-0.020532,0.0064035,0.0066673,-0.019326,-0.012878,-0.0071961,-0.04136,0.00044498,-0.0099647,-0.00036436,-0.038882,-0.040379,-0.011599,-0.0078093,0.00021313,0.032913,-0.010775,0.078884,0.041472,0.039912,0.053834
-0.0019,-0.021531,-0.037915,-0.019328,0.0031688,0.0087594,-0.013672,-0.012321,-0.014903,-0.047655,-0.0052695,-0.0027513,-0.0015008,-0.038846,-0.041706,-0.01754,-0.0085957,-0.0035947,0.028955,-0.012365,0.07179,0.034138,0.035273,0.052892
-0.0021197,-0.029252,-0.036179,-0.017471,-0.0014086,0.007633,-0.0059378,-0.014834,-0.021249,-0.047539,-0.012888,-0.0030598,-0.0055582,-0.040213,-0.041625,-0.02316,-0.007953,-0.0061601,0.022306,-0.014937,0.064199,0.021401,0.028378,0.048466
-0.0018758,-0.033271,-0.033565,-0.016125,-0.0057391,0.0060442,0.0011889,-0.018742,-0.022312,-0.040561,-0.020138,-0.010893,-0.010004,-0.044159,-0.038152,-0.024828,-0.0066804,-0.0045501,0.017552,-0.017124,0.055161,0.0082494,0.019743,0.038932
-0.00096214,-0.035636,-0.032387,-0.016155,-0.0075327,0.0072068,0.0042173,-0.0212,-0.01725,-0.029925,-0.02462,-0.02153,-0.012189,-0.048558,-0.032021,-0.022446,-0.0060303,0.00053731,0.017218,-0.017417,0.043891,-0.0023492,0.010402,0.025128
0.00057878,-0.037606,-0.033548,-0.017434,-0.0056248,0.012183,0.0017648,-0.020333,-0.008981,-0.020098,-0.025293,-0.028959,-0.010704,-0.049547,-0.026067,-0.019145,-0.0066644,0.0052552,0.019957,-0.015183,0.0309,-0.01053,0.0011855,0.010461
0.0026345,-0.038659,-0.036567,-0.019168,-0.0012048,0.019102,-0.0040244,-0.016745,-0.0021214,-0.013854,-0.023002,-0.029769,-0.0060091,-0.044529,-0.022572,-0.018178,-0.0082565,0.0056829,0.021579,-0.011236,0.018383,-0.018378,-0.0076441,-0.00084613
0.00532,-0.037101,-0.04022,-0.02083,0.0028147,0.024606,-0.0087602,-0.013222,0.00014318,-0.011243,-0.019935,-0.024816,-0.00014255,-0.034279,-0.021161,-0.020014,-0.010063,0.00074482,0.018196,-0.0073792,0.0092207,-0.027736,-0.016144,-0.0063637
0.0087945,-0.031796,-0.043241,-0.022606,0.0038806,0.026095,-0.0087118,-0.012719,-0.0020904,-0.010903,-0.018497,-0.017972,0.0043297,-0.02256,-0.019315,-0.022228,-0.011713,-0.0073981,0.009176,-0.0051301,0.0050307,-0.038588,-0.024277,-0.0070502
0.012652,-0.023581,-0.044889,-0.024781,0.0015707,0.023016,-0.003044,-0.016043,-0.0060507,-0.01195,-0.020146,-0.013336,0.0056856,-0.013568,-0.015128,-0.022129,-0.013257,-0.01544,-0.0022328,-0.0046798,0.0047476,-0.048889,-0.031916,-0.0065647
0.015652,-0.01518,-0.045357,-0.026725,-0.0024269,0.016603,0.0061109,-0.021007,-0.0086284,-0.014485,-0.02453,-0.012926,0.004042,-0.0092427,-0.0096335,-0.019513,-0.014479,-0.021367,-0.011037,-0.0050969,0.0051013,-0.055791,-0.03929,-0.0087358
0.016409,-0.0096044,-0.045761,-0.026734,-0.005941,0.0088532,0.015395,-0.023847,-0.008555,-0.018506,-0.029332,-0.01605,0.0013037,-0.0084718,-0.0063252,-0.016934,-0.014472,-0.025188,-0.01379,-0.0056529,0.0029533,-0.057498,-0.047201,-0.01508
0.014635,-0.0082539,-0.047418,-0.023214,-0.0079725,0.0018266,0.022237,-0.021969,-0.0069033,-0.022765,-0.031223,-0.020249,-6.1994e-005,-0.008647,-0.008065,-0.017281,-0.012311,-0.027808,-0.010696,-0.0069395,-0.0022238,-0.054669,-0.056441,-0.024203
0.011777,-0.010204,-0.05066,-0.016329,-0.0089891,-0.0025509,0.025864,-0.015942,-0.0058049,-0.025109,-0.027873,-0.022929,0.0013319,-0.0080233,-0.014179,-0.02098,-0.0083606,-0.029603,-0.0051381,-0.010457,-0.0078349,-0.050361,-0.066655,-0.033343
0.010221,-0.013158,-0.054191,-0.0085517,-0.0099176,-0.0028068,0.02712,-0.0091423,-0.0065985,-0.024197,-0.01993,-0.022753,0.0049659,-0.0068013,-0.020577,-0.02547,-0.0047625,-0.030206,-0.0012347,-0.016832,-0.010249,-0.048184,-0.075783,-0.040619
0.011535,-0.015206,-0.05588,-0.0034283,-0.011049,0.001227,0.027653,-0.005317,-0.0088673,-0.020931,-0.011343,-0.020223,0.0091162,-0.0061491,-0.023052,-0.027485,-0.0041538,-0.029463,-0.0013151,-0.024379,-0.007866,-0.049635,-0.081041,-0.046092
0.015177,-0.015967,-0.054662,-0.0033236,-0.01186,0.0076132,0.029029,-0.0060305,-0.010943,-0.018049,-0.0071721,-0.017226,0.012508,-0.0063766,-0.020949,-0.026007,-0.0074452,-0.028262,-0.0050327,-0.029706,-0.0025503,-0.052627,-0.081085,-0.050988
0.018875,-0.016328,-0.051837,-0.0078504,-0.011629,0.01265,0.031948,-0.0099493,-0.011242,-0.017945,-0.010042,-0.015771,0.01541,-0.0062508,-0.017878,-0.023157,-0.012672,-0.028094,-0.010358,-0.030199,0.001879,-0.052769,-0.077614,-0.056114
0.020413,-0.017246,-0.050266,-0.014122,-0.01002,0.012675,0.035715,-0.014261,-0.0092368,-0.020494,-0.017889,-0.016605,0.019065,-0.0042416,-0.018688,-0.022157,-0.016265,-0.029679,-0.015294,-0.026269,0.0028289,-0.046872,-0.074703,-0.061117
0.019359,-0.018816,-0.051813,-0.018583,-0.0071989,0.0062484,0.038313,-0.016746,-0.0054141,-0.022828,-0.025112,-0.018652,0.023929,-0.00046334,-0.025215,-0.024251,-0.015955,-0.032004,-0.018897,-0.021211,0.0010157,-0.03597,-0.075876,-0.065293
0.017248,-0.020386,-0.055341,-0.019076,-0.003776,-0.0049852,0.037394,-0.016802,-0.00054406,-0.02148,-0.02657,-0.019801,0.028489,0.0027669,-0.034432,-0.027448,-0.012898,-0.032867,-0.021103,-0.018614,-0.0003215,-0.025068,-0.081129,-0.068984
0.016121,-0.021455,-0.057394,-0.015824,-0.00095157,-0.017481,0.031873,-0.01504,0.0048066,-0.015319,-0.021369,-0.018598,0.030119,0.0025773,-0.040555,-0.028279,-0.011037,-0.030558,-0.022024,-0.019521,0.0017503,-0.01942,-0.086568,-0.073881
0.016757,-0.022355,-0.055243,-0.010881,-0.00057372,-0.028081,0.023124,-0.012456,0.010061,-0.0068692,-0.013288,-0.015528,0.027501,-0.0019898,-0.039364,-0.02498,-0.013968,-0.025235,-0.021661,-0.021839,0.0075605,-0.020299,-0.087358,-0.081567
0.018164,-0.023955,-0.049549,-0.0066596,-0.0044331,-0.035603,0.014696,-0.010109,0.014186,-0.00072412,-0.0074756,-0.012717,0.022368,-0.0090413,-0.031272,-0.019212,-0.021783,-0.018828,-0.020291,-0.022409,0.014937,-0.023974,-0.081723,-0.091433
0.018692,-0.026598,-0.043974,-0.0045752,-0.0128,-0.040684,0.010418,-0.0092127,0.01589,-9.4173e-005,-0.0062568,-0.012142,0.018592,-0.01544,-0.020898,-0.014757,-0.030511,-0.013608,-0.018825,-0.019831,0.02123,-0.024927,-0.072576,-0.10009
0.017607,-0.029263,-0.041868,-0.0046043,-0.023372,-0.044445,0.01205,-0.010838,0.014657,-0.0041456,-0.0076435,-0.013823,0.01899,-0.019514,-0.013744,-0.014354,-0.034807,-0.010696,-0.018396,-0.015535,0.025163,-0.020566,-0.065188,-0.10337
0.015614,-0.02987,-0.043024,-0.0058254,-0.031998,-0.047384,0.018126,-0.015041,0.011733,-0.0083833,-0.0076874,-0.015646,0.022615,-0.022275,-0.012624,-0.017409,-0.031846,-0.0096985,-0.019307,-0.012363,0.026996,-0.013283,-0.062821,-0.099714
0.013941,-0.026702,-0.04362,-0.0073827,-0.035216,-0.049382,0.024873,-0.020307,0.0097937,-0.0079754,-0.0043589,-0.015169,0.025238,-0.025941,-0.016305,-0.020508,-0.023328,-0.0094923,-0.020455,-0.012105,0.02742,-0.0081479,-0.064144,-0.092362
0.013011,-0.01996,-0.039543,-0.009101,-0.03279,-0.050483,0.028563,-0.024266,0.011147,-0.0014777,0.00061807,-0.011928,0.022983,-0.031207,-0.020904,-0.020171,-0.01395,-0.0092106,-0.02016,-0.014234,0.026736,-0.0084754,-0.064722,-0.088249
0.012103,-0.012166,-0.030177,-0.011332,-0.028057,-0.051402,0.027624,-0.025395,0.015776,0.0080454,0.0035032,-0.0081815,0.015984,-0.035986,-0.022717,-0.015529,-0.0075855,-0.008517,-0.017957,-0.016782,0.025166,-0.013281,-0.061221,-0.094016
0.010285,-0.0069042,-0.019238,-0.014257,-0.025519,-0.053161,0.023158,-0.024182,0.021047,0.015463,0.002033,-0.0072849,0.0086896,-0.036956,-0.020478,-0.0088201,-0.0043259,-0.0071806,-0.015657,-0.018338,0.023559,-0.018631,-0.054498,-0.11179
0.0075975,-0.0065755,-0.011886,-0.01731,-0.027489,-0.056237,0.017749,-0.022509,0.02359,0.017606,-0.0026415,-0.010979,0.0062955,-0.03249,-0.015763,-0.0035315,-0.00087012,-0.0047425,-0.016284,-0.019203,0.023321,-0.02124,-0.048876,-0.13762
0.0052345,-0.01071,-0.010611,-0.019297,-0.032484,-0.060065,0.013632,-0.021716,0.021888,0.01557,-0.0072347,-0.017882,0.010425,-0.024223,-0.011573,-0.0018302,0.0060844,-0.00088286,-0.021405,-0.020686,0.025376,-0.020868,-0.048366,-0.16347
0.0045174,-0.016123,-0.013378,-0.019187,-0.036614,-0.063402,0.011528,-0.021244,0.017362,0.013464,-0.0093959,-0.024473,0.017893,-0.015877,-0.010208,-0.0032747,0.016363,0.0037959,-0.029213,-0.023338,0.029337,-0.019683,-0.053313,-0.18135
0.0057093,-0.018989,-0.015476,-0.01697,-0.036681,-0.065266,0.010664,-0.019317,0.013029,0.014811,-0.0095783,-0.027691,0.0236,-0.010578,-0.011926,-0.0055667,0.025781,0.0074816,-0.035411,-0.025966,0.033905,-0.019782,-0.060274,-0.18669
0.0078176,-0.017453,-0.013376,-0.013893,-0.032405,-0.065693,0.0096512,-0.01513,0.011024,0.019726,-0.010057,-0.026983,0.024803,-0.0091659,-0.015206,-0.0065081,0.029091,0.0079363,-0.036578,-0.026558,0.038175,-0.021504,-0.064894,-0.17926
0.0095097,-0.012893,-0.0073675,-0.011827,-0.026172,-0.065749,0.0074703,-0.010329,0.011219,0.0252,-0.012265,-0.024255,0.022848,-0.01072,-0.018271,-0.0055796,0.02399,0.0039287,-0.033204,-0.024347,0.042421,-0.023861,-0.065027,-0.16156
0.010176,-0.008774,-0.00095501,-0.012178,-0.020944,-0.066792,0.0040241,-0.0080682,0.012017,0.027948,-0.015157,-0.022052,0.021033,-0.014202,-0.020492,-0.0040612,0.012889,-0.0037895,-0.029521,-0.020986,0.047451,-0.026091,-0.061592,-0.13651
0.010123,-0.0078995,0.0022464,-0.01506,-0.018302,-0.06945,0.00016218,-0.010183,0.012266,0.027159,-0.016217,-0.021688,0.020944,-0.019241,-0.022482,-0.0037968,0.0011355,-0.012772,-0.029983,-0.019447,0.053207,-0.028508,-0.057026,-0.10627
0.0098241,-0.010171,0.0014009,-0.01926,-0.018025,-0.072965,-0.0026951,-0.01506,0.012307,0.024793,-0.014081,-0.022723,0.020964,-0.025356,-0.024906,-0.0056282,-0.0067087,-0.020234,-0.035273,-0.021393,0.058144,-0.031974,-0.053204,-0.072778
0.0091109,-0.012705,-0.0012041,-0.022951,-0.018958,-0.075341,-0.0031637,-0.018452,0.013221,0.023493,-0.010183,-0.023796,0.018302,-0.030883,-0.027289,-0.0086444,-0.0094743,-0.024483,-0.041359,-0.025439,0.060098,-0.036906,-0.050601,-0.03912
0.0071941,-0.012287,-0.0024233,-0.024666,-0.019915,-0.074278,-0.00056095,-0.0169,0.015264,0.024287,-0.0077236,-0.023745,0.012288,-0.033305,-0.028151,-0.01076,-0.0091241,-0.025448,-0.042521,-0.028151,0.057814,-0.042918,-0.048844,-0.010002
0.0035281,-0.0081736,-0.00099463,-0.023968,-0.019877,-0.068431,0.0046173,-0.010878,0.017249,0.026153,-0.0088107,-0.02212,0.0054564,-0.031106,-0.026428,-0.010244,-0.0083944,-0.024149,-0.035889,-0.027145,0.051667,-0.049195,-0.047499,0.0096872
-0.0013167,-0.002859,0.0016442,-0.021504,-0.017868,-0.058236,0.01069,-0.0047239,0.017545,0.027549,-0.012387,-0.019084,0.0012249,-0.025395,-0.02279,-0.0071626,-0.0086294,-0.021704,-0.023717,-0.023491,0.043092,-0.054852,-0.046154,0.017597
-0.0056784,-0.00010819,0.0030243,-0.018517,-0.013267,-0.045742,0.015365,-0.0031544,0.015667,0.02817,-0.014933,-0.01524,0.00048664,-0.019442,-0.019374,-0.0036915,-0.0094101,-0.018708,-0.011693,-0.02102,0.033617,-0.058858,-0.044007,0.015948
-0.0078501,-0.0019129,0.0020866,-0.016156,-0.0065719,-0.033521,0.016683,-0.0072766,0.012814,0.029169,-0.013468,-0.011591,0.00064577,-0.016222,-0.017987,-0.0028632,-0.0096844,-0.015363,-0.0048483,-0.02288,0.024606,-0.059947,-0.039849,0.010913
-0.0073721,-0.0069748,6.2367e-005,-0.014923,0.00025776,-0.023368,0.013861,-0.013619,0.010792,0.03176,-0.0082568,-0.0093611,-0.0017994,-0.016126,-0.018393,-0.0064124,-0.0089247,-0.012049,-0.004398,-0.028392,0.01772,-0.057117,-0.032846,0.0091426
-0.0055073,-0.011955,-0.0009537,-0.014525,0.0045857,-0.015664,0.0076075,-0.017104,0.010381,0.035692,-0.0028347,-0.0093923,-0.007599,-0.016958,-0.0184,-0.013172,-0.0073008,-0.0096589,-0.0076694,-0.033178,0.014986,-0.050496,-0.023531,0.013569
-0.0044139,-0.014265,-0.00021708,-0.014204,0.0046702,-0.0097313,-0.00023707,-0.015369,0.01072,0.039105,-0.0012648,-0.011481,-0.013674,-0.016231,-0.015828,-0.019371,-0.0051311,-0.0092339,-0.010591,-0.032673,0.017676,-0.041708,-0.013995,0.0216
-0.0055323,-0.013888,0.0009232,-0.013359,0.00078624,-0.0047333,-0.0075298,-0.010628,0.010225,0.039888,-0.0049504,-0.014322,-0.015804,-0.013529,-0.01062,-0.020964,-0.002508,-0.011106,-0.010454,-0.026028,0.024705,-0.033158,-0.0068573,0.02737
-0.008387,-0.012758,0.00049568,-0.012052,-0.0049988,-0.00034605,-0.012756,-0.0075141,0.0081132,0.037284,-0.011688,-0.016288,-0.012561,-0.010682,-0.0050997,-0.016541,0.00051491,-0.014266,-0.0070377,-0.016942,0.032268,-0.026718,-0.0036647,0.026561
-0.010819,-0.012589,-0.0019189,-0.01095,-0.010125,0.0031813,-0.015679,-0.0089435,0.0050952,0.032368,-0.017636,-0.016448,-0.0067001,-0.0097326,-0.0020219,-0.0086051,0.0036029,-0.01663,-0.0018995,-0.010699,0.035637,-0.022875,-0.0038773,0.020042
-0.01064,-0.013369,-0.0045606,-0.010665,-0.01284,0.0053402,-0.017405,-0.013722,0.0027078,0.027108,-0.020332,-0.01492,-0.0026659,-0.010828,-0.002142,-0.0020193,0.0062122,-0.016208,0.0030575,-0.0099968,0.032036,-0.020891,-0.0051821,0.013291
-0.0075135,-0.013878,-0.0051386,-0.011008,-0.012701,0.0056407,-0.019734,-0.017901,0.0020407,0.022938,-0.020123,-0.012346,-0.0026149,-0.012241,-0.0035501,-0.00053962,0.0079587,-0.012434,0.0066022,-0.013125,0.022221,-0.019612,-0.0049207,0.011967
-0.0035123,-0.013417,-0.0031977,-0.010907,-0.010359,0.0038038,-0.023965,-0.018468,0.0030236,0.019978,-0.019014,-0.009155,-0.0047751,-0.01246,-0.0034734,-0.0040795,0.008756,-0.0067,0.008408,-0.015848,0.0094165,-0.018145,-0.0016535,0.017323
-0.0017012,-0.012783,-0.00086833,-0.0092665,-0.007138,0.00010438,-0.02977,-0.015954,0.0047182,0.017378,-0.018373,-0.0054335,-0.005633,-0.012146,-0.00096036,-0.0089683,0.0085554,-0.0016994,0.0087689,-0.015115,-0.0033801,-0.016051,0.0041385,0.025329
-0.0037235,-0.013445,-0.0011537,-0.0061444,-0.0046158,-0.0042008,-0.035017,-0.013721,0.0060993,0.014288,-0.017797,-0.0014703,-0.0037104,-0.013818,0.0020418,-0.011113,0.0071768,1.3476e-005,0.0081609,-0.011366,-0.01518,-0.013242,0.010597,0.030178
-0.0083913,-0.015854,-0.0052312,-0.0031153,-0.0040249,-0.0069762,-0.036992,-0.014752,0.0065646,0.010583,-0.01606,0.0017889,-0.0011958,-0.019364,0.0023277,-0.0094624,0.0047099,-0.0026661,0.0068645,-0.0077554,-0.026374,-0.0098396,0.015856,0.029029
-0.0126,-0.018764,-0.011191,-0.0022645,-0.0055167,-0.0063772,-0.034469,-0.018933,0.0059499,0.0068018,-0.012842,0.0030883,-0.0018442,-0.027738,-0.0015703,-0.0067781,0.0021498,-0.0089516,0.0047911,-0.0073371,-0.036704,-0.0059699,0.019319,0.023893
-0.01392,-0.020349,-0.015342,-0.004473,-0.0078773,-0.0025925,-0.029107,-0.023186,0.0043844,0.0034196,-0.0092881,0.0018526,-0.0072095,-0.035153,-0.0077154,-0.0070227,0.0012897,-0.016716,0.0016305,-0.010715,-0.044309,-0.0014715,0.021969,0.019307
-0.01261,-0.020009,-0.01495,-0.0084883,-0.0092812,0.0013671,-0.024771,-0.024181,0.0022825,0.00015348,-0.0068218,-0.0011059,-0.014868,-0.03782,-0.012023,-0.011671,0.0034045,-0.023573,-0.0027509,-0.015842,-0.047149,0.0042042,0.02544,0.018198
-0.01121,-0.019007,-0.010117,-0.01176,-0.008756,0.0010844,-0.024856,-0.021156,0.00033493,-0.0040519,-0.0056369,-0.0039266,-0.020344,-0.034887,-0.011452,-0.018283,0.0076507,-0.027864,-0.00798,-0.019669,-0.04542,0.011468,0.030456,0.01971
-0.012012,-0.019234,-0.0034274,-0.012499,-0.0071084,-0.0061874,-0.029533,-0.016438,-0.00080457,-0.010229,-0.0046388,-0.004919,-0.020898,-0.028992,-0.0063883,-0.022591,0.010882,-0.02912,-0.013231,-0.020076,-0.042249,0.019553,0.035848,0.020626
-0.014774,-0.021308,0.0020651,-0.011195,-0.0062895,-0.019113,-0.035325,-0.013408,-0.0010727,-0.018411,-0.0029935,-0.0037042,-0.017654,-0.023998,-0.0001474,-0.02214,0.0096665,-0.028003,-0.017642,-0.016777,-0.041488,0.025878,0.039083,0.018648
-0.016894,-0.023864,0.0047535,-0.01017,-0.0075978,-0.032753,-0.037741,-0.013772,-0.0012664,-0.02738,-0.0015909,-0.001396,-0.014183,-0.021956,0.0039125,-0.018104,0.0032254,-0.025895,-0.020708,-0.010988,-0.044399,0.026819,0.038159,0.014384
-0.01594,-0.024722,0.0050034,-0.011408,-0.01036,-0.041877,-0.035043,-0.016378,-0.0025761,-0.035505,-0.0026653,0.00026733,-0.013085,-0.021932,0.0051105,-0.01377,-0.0052152,-0.024315,-0.022331,-0.0045149,-0.048477,0.019864,0.033421,0.010467
-0.012158,-0.022795,0.0043795,-0.014539,-0.01242,-0.044544,-0.029881,-0.01831,-0.0055758,-0.042006,-0.0076714,0.00015503,-0.013837,-0.021495,0.0056367,-0.011313,-0.010255,-0.024289,-0.02256,0.0010607,-0.049841,0.005721,0.027631,0.0090211
-0.0084882,-0.01896,0.0044967,-0.016862,-0.012071,-0.042967,-0.027093,-0.017108,-0.0094644,-0.047413,-0.015409,-0.0015252,-0.013845,-0.019259,0.0081959,-0.010051,-0.0083152,-0.025807,-0.021409,0.0048537,-0.047202,-0.011399,0.023926,0.0099588
-0.0079908,-0.015176,0.0062076,-0.015573,-0.0096582,-0.041,-0.029343,-0.012354,-0.01229,-0.052662,-0.022339,-0.0034202,-0.011425,-0.016085,0.013352,-0.0077025,-0.0007645,-0.027703,-0.018954,0.0068275,-0.043664,-0.02583,0.023216,0.01149
-0.011061,-0.012788,0.0092237,-0.01036,-0.0073246,-0.040551,-0.034436,-0.0056919,-0.012131,-0.057592,-0.025027,-0.0039373,-0.007664,-0.013985,0.019003,-0.0032063,0.006487,-0.028184,-0.015577,0.007671,-0.044334,-0.033465,0.02336,0.012037
-0.015084,-0.011616,0.012133,-0.004034,-0.0071279,-0.040122,-0.036928,0.00033391,-0.008407,-0.060405,-0.022631,-0.0022438,-0.00534,-0.013968,0.022387,0.0017808,0.0068829,-0.025865,-0.011986,0.0083973,-0.051526,-0.033557,0.021117,0.011661
-0.016866,-0.010519,0.013031,-0.0005109,-0.0092063,-0.036708,-0.032921,0.0035932,-0.002341,-0.058882,-0.017277,0.001259,-0.0060626,-0.014917,0.022676,0.0041703,-0.0022281,-0.020679,-0.008903,0.0097959,-0.061759,-0.028177,0.015345,0.011805
-0.015554,-0.0086927,0.010858,-0.0017424,-0.011587,-0.029183,-0.023859,0.0031662,0.0037554,-0.052473,-0.012088,0.0052568,-0.0085853,-0.014516,0.021733,0.0022435,-0.017824,-0.013928,-0.0066817,0.012035,-0.067443,-0.020095,0.0085194,0.013749
-0.013294,-0.006372,0.0067121,-0.0061965,-0.011732,-0.02001,-0.015825,-0.00045327,0.0078172,-0.043307,-0.0087299,0.0084089,-0.010024,-0.011281,0.022331,-0.0026608,-0.033505,-0.0073361,-0.0051948,0.014645,-0.062271,-0.010945,0.0049285,0.017192
-0.013072,-0.0043441,0.0038269,-0.01018,-0.0084863,-0.013713,-0.014689,-0.005558,0.0090218,-0.035006,-0.0066299,0.010201,-0.0087581,-0.0058594,0.02549,-0.0070531,-0.044008,-0.0017905,-0.0040312,0.016815,-0.046111,-0.00092808,0.0069036,0.020127
-0.01582,-0.0029222,0.0055601,-0.010834,-0.0029368,-0.01347,-0.021145,-0.0097683,0.0078767,-0.030114,-0.0043455,0.011167,-0.0060554,-0.0004469,0.029354,-0.007909,-0.048521,0.0031526,-0.0027385,0.017764,-0.025517,0.010217,0.012474,0.020097
-0.019537,-0.0015199,0.012542,-0.0082318,0.0023457,-0.01878,-0.029882,-0.010934,0.0055935,-0.028357,-0.0015251,0.012315,-0.0046914,0.0031036,0.030636,-0.0047728,-0.0505,0.0085019,-0.00089083,0.016996,-0.0094044,0.022198,0.016767,0.015944
-0.021181,0.00070672,0.021396,-0.0048682,0.004993,-0.026027,-0.033603,-0.0081708,0.0033923,-0.027256,0.00053953,0.014193,-0.0059181,0.0048642,0.02739,0.00019093,-0.054496,0.014429,0.0019241,0.014532,-0.0031853,0.034,0.016151,0.0088568
-0.019448,0.0038132,0.026629,-0.0032371,0.0042976,-0.031159,-0.028527,-0.0024567,0.0021801,-0.024586,0.00029978,0.016338,-0.0079024,0.0067746,0.020803,0.0039498,-0.062519,0.019573,0.0059506,0.011158,-0.0056813,0.044418,0.011495,0.0019771
-0.015823,0.0067412,0.024696,-0.0037811,0.0015939,-0.032095,-0.016972,0.003759,0.0025287,-0.020486,-0.0021389,0.017625,-0.0074268,0.010996,0.014548,0.0046732,-0.07248,0.021886,0.010941,0.0084562,-0.010811,0.052556,0.0075838,-0.0012768
-0.013004,0.00816,0.017102,-0.0049697,-0.00057408,-0.029136,-0.0051961,0.0079217,0.0046096,-0.017346,-0.0045387,0.017285,-0.0033784,0.018024,0.012283,0.002726,-0.079441,0.020456,0.016032,0.0082309,-0.012408,0.057857,0.0090896,0.00078157
-0.012344,0.0077694,0.0098215,-0.0051192,2.3173e-005,-0.023743,0.0013644,0.0089295,0.007975,-0.017591,-0.0040911,0.015783,0.0014354,0.026102,0.015209,0.00017834,-0.07853,0.01666,0.020182,0.011379,-0.0084405,0.059952,0.016539,0.0069745
-0.012752,0.0068387,0.0091394,-0.003964,0.003955,-0.017335,0.0016204,0.0077974,0.011486,-0.021308,0.00032171,0.014742,0.0022614,0.032464,0.021405,-0.00063124,-0.067636,0.01341,0.022974,0.016944,-0.0017443,0.058808,0.025696,0.01376
-0.011999,0.0073959,0.017031,-0.0024328,0.0097476,-0.011182,-0.001277,0.0068732,0.013764,-0.025801,0.0072146,0.015831,-0.0032832,0.035407,0.027255,0.0014403,-0.048501,0.012975,0.025069,0.022336,0.0027181,0.055176,0.030761,0.017196
-0.0090362,0.010697,0.029668,-0.0010647,0.014704,-0.0068669,-0.0029411,0.0081197,0.014101,-0.027429,0.013783,0.019383,-0.012453,0.035513,0.029846,0.0056473,-0.0259,0.015251,0.027712,0.024921,0.0016349,0.050738,0.028611,0.015297
-0.0051223,0.016265,0.040185,0.001028,0.016432,-0.0060533,-0.00094488,0.011734,0.013187,-0.024181,0.018249,0.023887,-0.018978,0.035008,0.028732,0.0097998,-0.0054759,0.018145,0.031543,0.023925,-0.0046233,0.047456,0.020717,0.0093761
-0.0027619,0.022268,0.043503,0.0053042,0.014163,-0.0092001,0.0040641,0.016139,0.012861,-0.016944,0.021183,0.026928,-0.018019,0.035878,0.025988,0.011627,0.0086901,0.019762,0.03574,0.021054,-0.012756,0.04642,0.011578,0.0033913
-0.0035343,0.026831,0.039491,0.011768,0.0091027,-0.014392,0.0095943,0.01927,0.014768,-0.0086645,0.024656,0.027032,-0.010318,0.038455,0.024638,0.010271,0.015657,0.020386,0.038382,0.01915,-0.018974,0.047174,0.0053938,0.0015117
-0.0067322,0.029072,0.0323,0.017954,0.0037581,-0.017766,0.013439,0.020082,0.018801,-0.002322,0.030019,0.025046,-0.0018635,0.041717,0.026522,0.0069278,0.017576,0.022275,0.037832,0.019864,-0.021153,0.048276,0.0036545,0.0053208
-0.0098461,0.029068,0.026771,0.020372,0.00068554,-0.015674,0.015017,0.019083,0.022707,0.00061427,0.036314,0.023826,0.00082925,0.044831,0.031029,0.0041075,0.018044,0.027359,0.033968,0.022312,-0.019463,0.048713,0.0051047,0.012594
-0.010311,0.027027,0.024953,0.017453,0.0013069,-0.0070285,0.015258,0.017637,0.023515,0.00035282,0.040736,0.026224,-0.004093,0.048197,0.03557,0.0039248,0.019791,0.034905,0.028169,0.023882,-0.015595,0.048903,0.0074324,0.018729
-0.0070985,0.022758,0.025273,0.011345,0.0052473,0.0060331,0.015573,0.016826,0.019876,-0.0020726,0.040777,0.032763,-0.012532,0.052772,0.037439,0.006588,0.02311,0.04143,0.022168,0.022487,-0.011532,0.050282,0.0090257,0.020052
-0.0011562,0.016164,0.024528,0.0066307,0.010488,0.019658,0.016925,0.016895,0.013392,-0.0056805,0.0362,0.040857,-0.018083,0.058319,0.035684,0.01023,0.026074,0.043145,0.016907,0.018294,-0.0086784,0.053765,0.009635,0.016629
0.0052971,0.0083094,0.020688,0.0067813,0.014416,0.030678,0.019573,0.017624,0.0075786,-0.0098531,0.029183,0.046384,-0.017426,0.062591,0.031542,0.012298,0.026397,0.038953,0.012454,0.013477,-0.0076023,0.058512,0.0099249,0.012301
0.0099721,0.0017872,0.014227,0.011362,0.015406,0.038163,0.023369,0.019048,0.0050973,-0.014237,0.022544,0.046544,-0.012845,0.062683,0.027162,0.011526,0.023609,0.031447,0.0088231,0.01038,-0.0082037,0.06222,0.010613,0.011709
0.011528,-0.00049305,0.0073171,0.01651,0.013984,0.043301,0.028035,0.021618,0.0055351,-0.018649,0.017576,0.041809,-0.0098458,0.057567,0.023793,0.0089971,0.019853,0.025051,0.0065839,0.009816,-0.010086,0.062801,0.011858,0.016556
0.010015,0.002527,0.002045,0.018356,0.012544,0.048137,0.033146,0.025513,0.0057,-0.023093,0.013375,0.035397,-0.012134,0.049375,0.02111,0.0073586,0.018538,0.022838,0.006405,0.010981,-0.012896,0.059957,0.013165,0.0242
0.0066024,0.008733,-0.00069952,0.016343,0.013506,0.054128,0.037955,0.029773,0.0022924,-0.027639,0.0082031,0.03073,-0.018392,0.041969,0.01824,0.0087045,0.021731,0.024583,0.0079109,0.012773,-0.0164,0.055255,0.013791,0.029846
0.0027662,0.013831,-0.0010883,0.013502,0.017184,0.061212,0.041483,0.032247,-0.0052734,-0.03207,0.0016457,0.028981,-0.02357,0.037924,0.015355,0.012766,0.028298,0.027471,0.0091604,0.015001,-0.020248,0.050602,0.013378,0.030529
-0.00059743,0.014282,0.00032417,0.013439,0.021224,0.067653,0.042988,0.030776,-0.014273,-0.035569,-0.0044383,0.028645,-0.023362,0.036667,0.014044,0.016966,0.034404,0.028582,0.0076193,0.0182,-0.023661,0.046461,0.012406,0.027483
-0.0035039,0.0099786,0.0028668,0.016856,0.022285,0.070813,0.042471,0.02484,-0.020757,-0.03688,-0.0071872,0.027282,-0.017799,0.035497,0.015833,0.018448,0.036194,0.02699,0.0020774,0.022286,-0.025575,0.041423,0.012005,0.024858
-0.0064018,0.0043995,0.0055208,0.02081,0.01871,0.068775,0.040763,0.016304,-0.022516,-0.034981,-0.005279,0.023717,-0.010899,0.03245,0.020176,0.016459,0.032634,0.02391,-0.0060844,0.025619,-0.025378,0.033595,0.013071,0.026021
-0.0093135,0.0019321,0.0069369,0.021397,0.011856,0.062073,0.039052,0.0084362,-0.020536,-0.029863,-0.00053959,0.018829,-0.0069323,0.028246,0.024037,0.013033,0.026255,0.021204,-0.013481,0.025786,-0.023697,0.022732,0.015256,0.03081
-0.011425,0.0044391,0.0062046,0.017378,0.00493,0.054221,0.038177,0.003813,-0.017936,-0.022843,0.0029717,0.014504,-0.0068052,0.025472,0.023869,0.011263,0.021146,0.019865,-0.016858,0.021701,-0.022309,0.011346,0.016746,0.036145
-0.011585,0.0098607,0.0038278,0.011418,0.00044858,0.050149,0.038221,0.0027314,-0.017475,-0.016147,0.0019091,0.011994,-0.0077339,0.025877,0.018517,0.012595,0.019837,0.019739,-0.015168,0.015161,-0.022863,0.0037412,0.015311,0.039233
-0.009301,0.013962,0.0017621,0.0078381,-0.0013156,0.053191,0.038639,0.0034417,-0.019628,-0.011934,-0.0036855,0.011184,-0.0061849,0.02843,0.010469,0.01555,0.021598,0.020326,-0.010056,0.010115,-0.025316,0.0034875,0.010007,0.040241
-0.0053064,0.013714,0.0020561,0.0089942,-0.0016288,0.062708,0.038739,0.0039635,-0.022553,-0.011219,-0.010218,0.011146,-0.0011702,0.030032,0.0041947,0.017103,0.023432,0.02147,-0.0044825,0.0098885,-0.027545,0.011088,0.0021898,0.041927
-0.0011324,0.009535,0.0050451,0.01354,-0.0013861,0.074288,0.038136,0.0038806,-0.023703,-0.013219,-0.013138,0.011103,0.0050662,0.028242,0.0028181,0.015553,0.022726,0.023154,-0.00065289,0.014577,-0.026819,0.023524,-0.005142,0.046725
0.0019193,0.0047041,0.0087257,0.01797,-0.00018071,0.082598,0.036899,0.0045456,-0.02178,-0.015564,-0.010284,0.010758,0.0092656,0.023509,0.0058997,0.012271,0.019224,0.024798,0.0012462,0.020935,-0.022096,0.036019,-0.0093023,0.054113
0.0034765,0.0026637,0.010081,0.019764,0.0026951,0.08483,0.035359,0.0075854,-0.017712,-0.015461,-0.0033677,0.0099392,0.0099117,0.01893,0.010144,0.01065,0.014823,0.025093,0.0027631,0.025007,-0.015197,0.044747,-0.0096776,0.060778
0.0039156,0.004449,0.0074407,0.019157,0.006613,0.082221,0.033773,0.013122,-0.014108,-0.011347,0.0034121,0.0083259,0.0080019,0.017741,0.012325,0.013114,0.011724,0.022861,0.0057944,0.025254,-0.0096824,0.048601,-0.0078979,0.063375
0.0036621,0.0080856,0.0019714,0.018128,0.0094251,0.078623,0.032129,0.019317,-0.013534,-0.0040563,0.0063449,0.0058189,0.0055382,0.020703,0.011894,0.018847,0.01077,0.018226,0.011162,0.023459,-0.0082252,0.048987,-0.0063646,0.061339
0.0028039,0.010103,-0.0029302,0.01803,0.0092482,0.077397,0.030207,0.023572,-0.016692,0.0033972,0.0043791,0.0031694,0.0036365,0.025534,0.011152,0.024295,0.011328,0.012964,0.018014,0.022693,-0.010622,0.048132,-0.0064318,0.05729
0.0014007,0.007886,-0.0039304,0.01846,0.006463,0.079021,0.027856,0.024268,-0.021674,0.0075109,-0.00088407,0.001947,0.0021568,0.028762,0.013025,0.026053,0.012409,0.0095695,0.024255,0.024357,-0.014119,0.047373,-0.0076784,0.054804
8.9709e-006,0.0013499,-3.093e-005,0.018397,0.0037305,0.081096,0.025173,0.021591,-0.024987,0.0064569,-0.006812,0.0035106,0.00082121,0.028411,0.018366,0.023606,0.01369,0.0097143,0.027661,0.027072,-0.015773,0.046561,-0.0085935,0.055616
-0.00037345,-0.006923,0.0067556,0.018088,0.0037635,0.080512,0.022342,0.017021,-0.023883,0.0012249,-0.011342,0.007749,0.00017713,0.025327,0.024911,0.019565,0.01545,0.01324,0.027088,0.028284,-0.014852,0.044662,-0.0077634,0.05857
0.0008898,-0.013042,0.012689,0.019265,0.0069204,0.075967,0.019238,0.012234,-0.01842,-0.005093,-0.013504,0.012773,0.001151,0.022147,0.028558,0.017264,0.017729,0.018313,0.023181,0.026837,-0.013269,0.040784,-0.0044792,0.060942
0.003275,-0.013947,0.014616,0.023155,0.010944,0.068929,0.01522,0.0084152,-0.011572,-0.0093659,-0.013113,0.015984,0.0037424,0.020858,0.025991,0.01786,0.019765,0.022453,0.018199,0.023935,-0.013727,0.034917,0.001407,0.060768
0.0052516,-0.0091801,0.011869,0.028375,0.013071,0.062397,0.009542,0.0062478,-0.0070523,-0.010339,-0.010508,0.015766,0.0064913,0.021036,0.016915,0.019434,0.020358,0.02369,0.014902,0.021763,-0.017151,0.028089,0.0096599,0.058231
0.0054873,-0.001192,0.0067048,0.031318,0.012446,0.058573,0.0022431,0.0061097,-0.0064184,-0.0090941,-0.0066316,0.012515,0.0075163,0.020268,0.0045822,0.018825,0.018803,0.021299,0.015005,0.021366,-0.021636,0.02202,0.019325,0.055197
0.004096,0.0061482,0.0030831,0.029196,0.010586,0.057376,-0.0052459,0.0079793,-0.0078877,-0.0079121,-0.0029537,0.0083563,0.0061656,0.01639,-0.0057316,0.014576,0.015465,0.015971,0.018056,0.021976,-0.023872,0.018415,0.028334,0.053583
0.002695,0.0099358,0.0044491,0.022981,0.0096516,0.056908,-0.010545,0.0112,-0.008017,-0.0085502,-0.00079194,0.0058593,0.0036079,0.0095381,-0.0095629,0.0085153,0.011492,0.0094742,0.021559,0.022213,-0.021945,0.018053,0.034053,0.054006
0.0030408,0.009825,0.011734,0.017129,0.010377,0.055325,-0.011792,0.014607,-0.0048978,-0.011167,-0.00041908,0.0066292,0.0017862,0.0021679,-0.0059167,0.0046274,0.0080185,0.0039006,0.022492,0.021643,-0.017174,0.020149,0.034994,0.055646
0.0053696,0.0076908,0.022718,0.01594,0.011662,0.0523,-0.0091351,0.017181,-3.0817e-006,-0.014443,-0.00092022,0.010499,0.0018014,-0.0030201,0.0018887,0.0060695,0.0056091,0.00071021,0.019446,0.020953,-0.01333,0.02257,0.032399,0.057156
0.007963,0.0057789,0.033185,0.019818,0.012029,0.048784,-0.0049756,0.018739,0.0030958,-0.016556,-0.0011485,0.015602,0.0032401,-0.0053651,0.0080038,0.012638,0.0043021,8.7354e-005,0.014006,0.020777,-0.013713,0.023038,0.02991,0.057703
0.0084469,0.0049907,0.039237,0.025,0.011353,0.045461,-0.0025694,0.019958,0.0020656,-0.016297,-0.00091046,0.019284,0.004869,-0.0066368,0.0076672,0.020674,0.0039462,0.0010906,0.010217,0.020719,-0.018454,0.020637,0.030988,0.057323
0.0057723,0.0046891,0.039376,0.027097,0.01115,0.04162,-0.0038962,0.021612,-0.0018687,-0.013759,-0.0010796,0.019543,0.0057782,-0.0091627,0.00041924,0.025551,0.0043044,0.0025614,0.012146,0.01981,-0.024325,0.016452,0.036052,0.05653
0.0011786,0.0039081,0.035108,0.025074,0.01321,0.035718,-0.0083976,0.023672,-0.0048119,-0.010357,-0.0023692,0.01631,0.0058672,-0.013429,-0.0094191,0.024929,0.0048617,0.004065,0.02096,0.017891,-0.027295,0.012766,0.042025,0.055761
-0.0027009,0.0025866,0.029791,0.021858,0.017911,0.027157,-0.01357,0.025138,-0.003493,-0.008098,-0.004029,0.011673,0.0055002,-0.017392,-0.01562,0.020332,0.0048068,0.0060205,0.033627,0.016222,-0.025669,0.011417,0.045062,0.055228
-0.0038484,0.0016193,0.02659,0.021099,0.02368,0.017429,-0.016945,0.024877,0.0020524,-0.0083066,-0.0040611,0.0085834,0.0050147,-0.018156,-0.014417,0.015822,0.0035623,0.0089066,0.044483,0.016417,-0.02112,0.012702,0.044208,0.055229
-0.0023414,0.0018536,0.026842,0.023347,0.027962,0.0093443,-0.017872,0.022799,0.0087309,-0.010459,-0.0011281,0.0087368,0.0046472,-0.014492,-0.00718,0.014791,0.0015208,0.01237,0.048907,0.018658,-0.016828,0.015631,0.042571,0.05636
-0.00017128,0.0032375,0.029713,0.02544,0.028836,0.0049787,-0.017712,0.020358,0.013048,-0.012107,0.0035406,0.011229,0.0046745,-0.0079629,0.00073144,0.017403,0.0001303,0.015241,0.046541,0.021087,-0.014527,0.019074,0.044698,0.059157
0.00037065,0.0050665,0.033103,0.023691,0.026096,0.0042498,-0.018379,0.019821,0.013554,-0.010392,0.0063016,0.013255,0.0052512,-0.0017058,0.0041631,0.020753,0.00090954,0.016589,0.04152,0.021214,-0.013253,0.022525,0.052402,0.063337
-0.0015379,0.0070236,0.035072,0.017731,0.021286,0.0054215,-0.020559,0.022759,0.011082,-0.0044014,0.0036587,0.012475,0.0059383,0.0019891,0.0021601,0.021535,0.0040798,0.01685,0.039284,0.018145,-0.010862,0.025765,0.062866,0.067425
-0.0046107,0.0098012,0.034917,0.011256,0.016876,0.0068959,-0.023156,0.02887,0.0072098,0.0034172,-0.0047037,0.0090982,0.0055922,0.0032175,-0.001483,0.018926,0.0081176,0.017853,0.042313,0.013466,-0.0067252,0.02799,0.070793,0.06935
-0.0063755,0.014495,0.03341,0.0089291,0.015121,0.0084556,-0.024366,0.035966,0.0029782,0.0082644,-0.015061,0.0057854,0.0031296,0.0039253,-0.0016228,0.015185,0.010824,0.021521,0.048202,0.0098556,-0.002834,0.027573,0.072683,0.067782
-0.0050344,0.02126,0.032182,0.012313,0.017043,0.01084,-0.023314,0.041115,-0.00093622,0.0061199,-0.021965,0.0053733,-0.0012856,0.0059458,0.0036946,0.013552,0.011035,0.028275,0.051737,0.0086306,-0.0021082,0.022987,0.069369,0.063124
-0.00099089,0.028603,0.032651,0.01855,0.021878,0.014343,-0.020687,0.042104,-0.0033726,-0.0031819,-0.022106,0.0083963,-0.0058188,0.0093841,0.011443,0.01541,0.0093646,0.036499,0.049323,0.0085812,-0.0054575,0.014095,0.064685,0.057263
0.0031382,0.034199,0.035099,0.022897,0.0273,0.018093,-0.017843,0.038426,-0.0028007,-0.015342,-0.016736,0.012656,-0.0080132,0.012684,0.016186,0.019277,0.0073081,0.043513,0.042025,0.0072718,-0.010439,0.00253,0.061736,0.052221
0.0042916,0.036689,0.038451,0.022741,0.030564,0.020829,-0.015309,0.031507,0.0012499,-0.024095,-0.01073,0.015226,-0.0066352,0.014201,0.014823,0.022409,0.0056856,0.047241,0.034583,0.0036394,-0.012939,-0.0092943,0.060311,0.048816
0.0014327,0.036906,0.040935,0.01954,0.030132,0.022337,-0.012226,0.024358,0.0069606,-0.025079,-0.0089964,0.015059,-0.0027282,0.013831,0.0093084,0.023341,0.0041356,0.047318,0.031231,-0.00064117,-0.010479,-0.01969,0.057703,0.046447
-0.0032124,0.037334,0.041262,0.017166,0.026755,0.023972,-0.0073363,0.020747,0.010937,-0.018403,-0.012951,0.013807,0.0011319,0.013247,0.0048865,0.022895,0.0022018,0.044991,0.031991,-0.0025198,-0.0042239,-0.028394,0.051938,0.044059
-0.0054792,0.040126,0.039509,0.0183,0.023062,0.02759,-0.0005887,0.023781,0.010737,-0.0082728,-0.019686,0.014133,0.0027768,0.014458,0.0053983,0.022837,0.00073978,0.042196,0.032704,-0.00058187,0.0020976,-0.035942,0.044223,0.041282
-0.0025054,0.045284,0.037059,0.022102,0.021687,0.033851,0.0062421,0.034062,0.0070328,-0.0002362,-0.024313,0.017054,0.0019139,0.017913,0.0099088,0.023733,0.0018459,0.040609,0.028718,0.003099,0.0053426,-0.042427,0.038289,0.038707
0.0046036,0.05049,0.035605,0.025025,0.023258,0.041515,0.010632,0.048479,0.0032014,0.002022,-0.023572,0.020725,-3.0976e-005,0.021815,0.013708,0.024288,0.0069749,0.041137,0.018944,0.0042284,0.0053832,-0.046861,0.037217,0.037158
0.011083,0.052773,0.035968,0.023908,0.025869,0.048416,0.011204,0.061016,0.0024291,-0.0015335,-0.01797,0.021754,-0.0013135,0.023458,0.012697,0.022836,0.01493,0.043792,0.0067333,-0.0001515,0.0047645,-0.047717,0.040573,0.036787
0.01187,0.050696,0.037586,0.018637,0.026588,0.053239,0.008783,0.065901,0.004844,-0.0076592,-0.010994,0.017951,-0.0011174,0.021625,0.0070725,0.019342,0.021864,0.047701,-0.002992,-0.0088586,0.0060967,-0.044126,0.044356,0.036898
0.0054502,0.045436,0.038986,0.01224,0.023805,0.056435,0.0056945,0.061339,0.0073333,-0.011889,-0.0062664,0.010197,0.00031639,0.018016,0.00093729,0.015697,0.023712,0.05129,-0.0076354,-0.017098,0.0096369,-0.036717,0.043813,0.036547
-0.0049561,0.040034,0.038771,0.0084988,0.018451,0.059447,0.0039931,0.050924,0.0063189,-0.011104,-0.004992,0.0019321,0.0023901,0.016206,-0.0016058,0.013863,0.019237,0.052816,-0.0084116,-0.020055,0.013169,-0.027445,0.036764,0.03526
-0.013797,0.037453,0.036397,0.0091078,0.013111,0.063091,0.0042016,0.041172,0.0010162,-0.0052714,-0.0056129,-0.0032572,0.0046799,0.018698,-8.4073e-005,0.013753,0.011173,0.051205,-0.0084354,-0.016574,0.014074,-0.018593,0.024855,0.033148
-0.017148,0.03882,0.032329,0.012586,0.0098906,0.066731,0.0055699,0.036759,-0.0057812,0.0025801,-0.0056252,-0.0039613,0.0067865,0.02446,0.0023947,0.013164,0.0045171,0.046818,-0.0095414,-0.0098424,0.01152,-0.011694,0.011975,0.030476
-0.01503,0.042903,0.027684,0.01561,0.0089678,0.069122,0.0074064,0.037228,-0.010092,0.0082385,-0.0037834,-0.0014185,0.0079844,0.02925,0.0026164,0.010049,0.0032752,0.041556,-0.010874,-0.0045511,0.0067379,-0.0070152,0.0013794,0.027304
-0.010525,0.046979,0.023691,0.015523,0.0089957,0.069995,0.010074,0.037923,-0.010116,0.0089476,-0.0008028,0.001999,0.0074709,0.028808,0.00061176,0.0049824,0.0080513,0.038045,-0.010318,-0.0030624,0.0012787,-0.0038095,-0.0061552,0.023664
-0.0068511,0.048403,0.021237,0.012061,0.0087567,0.070605,0.014641,0.034276,-0.0075236,0.0051213,0.0018084,0.0047825,0.0052787,0.022433,-0.00043743,0.0012502,0.015975,0.038174,-0.0070702,-0.0038666,-0.0049435,-0.0010494,-0.011943,0.020039
-0.0050366,0.045965,0.020574,0.0071294,0.0083835,0.072397,0.021497,0.025711,-0.00561,-5.0189e-005,0.0034388,0.0070272,0.0029396,0.013885,0.0024007,0.0022063,0.02272,0.041802,-0.0027117,-0.0035361,-0.013843,0.0018314,-0.017493,0.017444
-0.0038831,0.040341,0.021242,0.0031471,0.0090077,0.074987,0.029237,0.015852,-0.006136,-0.0028112,0.0048921,0.0094674,0.0028935,0.008674,0.0085238,0.0081825,0.02511,0.046562,0.00018556,-0.00027886,-0.027292,0.0045839,-0.022933,0.016738
-0.0018055,0.033519,0.02226,0.0014311,0.011258,0.075686,0.034931,0.0091583,-0.0078519,-0.0012601,0.0073091,0.011973,0.0066973,0.0098933,0.013957,0.015818,0.022809,0.049149,0.0004025,0.0041714,-0.044802,0.0063297,-0.02704,0.017681
0.0013149,0.027574,0.022518,0.0018167,0.014104,0.071514,0.035786,0.0072026,-0.0080264,0.0037054,0.010685,0.013142,0.013374,0.016008,0.014922,0.020557,0.018302,0.047443,-0.0010303,0.0060436,-0.062821,0.0061456,-0.028669,0.018697
0.0038413,0.023491,0.021192,0.0034503,0.015186,0.062178,0.031039,0.0078189,-0.0054407,0.0093723,0.013568,0.011494,0.01948,0.022379,0.011404,0.020206,0.015328,0.041893,-0.0023056,0.0030332,-0.076278,0.0037036,-0.028129,0.017825
0.0037728,0.020733,0.017962,0.0057378,0.012464,0.051172,0.022748,0.0075167,-0.0019166,0.01314,0.014331,0.0071428,0.021226,0.025121,0.007252,0.016488,0.016597,0.034825,-0.0032803,-0.0033889,-0.081234,-0.00039392,-0.027165,0.014224
0.00059109,0.017836,0.013031,0.0085559,0.0058695,0.043528,0.014858,0.0046845,-0.00081629,0.013935,0.012822,0.0022051,0.017202,0.02402,0.0066323,0.013316,0.022025,0.027905,-0.0065288,-0.0090117,-0.076715,-0.0047555,-0.02747,0.0089172
-0.0039427,0.013612,0.0070164,0.011743,-0.0023452,0.041806,0.011048,0.00078526,-0.0038332,0.012392,0.010772,-0.00063469,0.0095391,0.022199,0.010164,0.013387,0.028602,0.019861,-0.015863,-0.01037,-0.064688,-0.0077147,-0.029028,0.003999
-0.0067316,0.0080924,0.00077139,0.014616,-0.0088833,0.04376,0.012648,-0.0011559,-0.0090839,0.010138,0.010475,-0.00024209,0.0024069,0.023077,0.014357,0.016082,0.0322,0.0069093,-0.033352,-0.0075246,-0.04855,-0.0079323,-0.029832,0.00088176
-0.0054681,0.0025028,-0.0049052,0.016131,-0.011469,0.043936,0.017909,0.00085905,-0.012412,0.0089348,0.012902,0.0020946,-0.0010647,0.027352,0.014802,0.018369,0.030371,-0.013691,-0.057089,-0.0036115,-0.031375,-0.0048054,-0.027378,-0.00087752
-0.00048619,-0.0017202,-0.0096212,0.015588,-0.010295,0.038109,0.023097,0.0063256,-0.010875,0.010098,0.016924,0.0038603,-0.00097183,0.032434,0.010024,0.017728,0.024288,-0.039551,-0.081369,-0.0016141,-0.014899,0.0014378,-0.020772,-0.0030436
0.0050813,-0.0040579,-0.013548,0.013269,-0.0078592,0.026842,0.024824,0.012775,-0.0053014,0.014071,0.020297,0.003501,-0.00014004,0.034522,0.0024384,0.014396,0.018333,-0.06238,-0.0992,-0.0014109,0.0004867,0.0099015,-0.011661,-0.0068701
0.0072225,-0.0052728,-0.017134,0.010501,-0.0072636,0.015133,0.022119,0.017545,0.0004167,0.0201,0.021519,0.001634,-0.0014049,0.031328,-0.0042189,0.01104,0.017334,-0.072194,-0.10561,0.00010084,0.015086,0.019299,-0.0032002,-0.01165
0.0039193,-0.0067332,-0.020499,0.0090775,-0.010116,0.0084326,0.016847,0.019304,0.0026805,0.026294,0.020958,0.00027513,-0.0050154,0.023266,-0.0082742,0.010308,0.023265,-0.063983,-0.099907,0.0058998,0.029077,0.028232,0.0020706,-0.0151
-0.003088,-0.0092862,-0.023044,0.010369,-0.015474,0.0083986,0.012163,0.018382,0.0011573,0.030491,0.020419,0.00092931,-0.0083602,0.012572,-0.011074,0.012534,0.033767,-0.04175,-0.08569,0.015689,0.042005,0.035475,0.0036976,-0.015386
-0.0091798,-0.012587,-0.023755,0.014522,-0.020572,0.01193,0.010119,0.015996,-0.0012959,0.031662,0.021615,0.0033328,-0.0081832,0.0016099,-0.014952,0.015597,0.043663,-0.016445,-0.068812,0.02573,0.052883,0.040263,0.003082,-0.012994
-0.010031,-0.015335,-0.022052,0.020171,-0.022776,0.014073,0.010259,0.013202,-0.0015569,0.030854,0.024804,0.0058606,-0.0033668,-0.0080858,-0.020583,0.016879,0.048442,0.00091343,-0.054424,0.031923,0.060856,0.042556,0.0020313,-0.010655
-0.0048156,-0.016127,-0.018422,0.024952,-0.021312,0.012146,0.010309,0.010402,0.00081795,0.030686,0.028563,0.0070142,0.0039885,-0.015618,-0.026402,0.015512,0.047147,0.0057938,-0.044855,0.03336,0.065867,0.043091,0.0014628,-0.011194
0.0030945,-0.014265,-0.014201,0.026755,-0.017534,0.0075817,0.0083192,0.0076539,0.003396,0.03348,0.030794,0.0065643,0.0099275,-0.020231,-0.030346,0.012949,0.042576,0.0016112,-0.039436,0.033096,0.068633,0.043084,0.0012051,-0.01511
0.0086372,-0.010067,-0.010592,0.025083,-0.013666,0.0042433,0.0043559,0.0052978,0.0034991,0.039417,0.030236,0.0054868,0.011258,-0.021393,-0.031796,0.011536,0.038815,-0.0043976,-0.036146,0.03541,0.069779,0.043647,0.00070321,-0.020007
0.0088698,-0.0046692,-0.0077879,0.021497,-0.011153,0.0049968,0.00026416,0.0041677,0.001038,0.046295,0.027434,0.0050209,0.0074891,-0.0194,-0.031646,0.012453,0.038212,-0.0070699,-0.03364,0.041972,0.068936,0.045268,-0.00024769,-0.022428
0.0050498,0.00044235,-0.0050273,0.018638,-0.0098836,0.0095644,-0.0021796,0.0050481,-0.0012335,0.051189,0.024443,0.005779,0.0009279,-0.015603,-0.030692,0.014817,0.040111,-0.006394,-0.032063,0.050236,0.064913,0.047707,-0.0013506,-0.020565
0.0013464,0.0039837,-0.0015188,0.018371,-0.0087074,0.015162,-0.0028492,0.0078478,-0.00031223,0.05268,0.023348,0.0075064,-0.0048417,-0.011708,-0.028372,0.016574,0.041987,-0.0061569,-0.032108,0.055354,0.057204,0.050385,-0.0021377,-0.015581
0.0013455,0.005362,0.0026102,0.020481,-0.0065525,0.018902,-0.0030188,0.011336,0.0040873,0.051782,0.024601,0.0094262,-0.0069868,-0.0086144,-0.023391,0.016232,0.041577,-0.010204,-0.033386,0.053904,0.047577,0.052889,-0.0023214,-0.010602
0.0052983,0.0049177,0.0062448,0.02304,-0.0031618,0.019709,-0.0036344,0.013821,0.0090277,0.050916,0.02658,0.0108,-0.0047955,-0.0058285,-0.015596,0.013891,0.038112,-0.019572,-0.033776,0.04639,0.039987,0.055136,-0.0019032,-0.0083825
0.010299,0.0036934,0.0081635,0.024159,0.00096163,0.018408,-0.004054,0.014237,0.010804,0.051931,0.026973,0.011407,0.000226,-0.002078,-0.0070029,0.010826,0.032005,-0.032112,-0.030589,0.036812,0.03823,0.057054,-0.001124,-0.009602
0.01299,0.0027234,0.0080514,0.023583,0.0050235,0.01648,-0.0027334,0.012698,0.0080971,0.054863,0.025026,0.011717,0.0054246,0.0033809,-0.00065944,0.0082588,0.023964,-0.043955,-0.022667,0.03,0.042923,0.058224,-0.00039457,-0.012939
0.012292,0.0022423,0.0067142,0.022682,0.0082598,0.014884,0.00081295,0.010121,0.0029719,0.058204,0.022663,0.01255,0.0085338,0.0098777,0.0017335,0.0065742,0.014742,-0.051271,-0.011568,0.028868,0.050394,0.058034,-0.00013973,-0.016433
0.0098775,0.0014419,0.0053233,0.022882,0.009999,0.013823,0.0049924,0.0074753,-0.0010566,0.060058,0.023132,0.01429,0.0087424,0.015617,0.0012191,0.005604,0.0056105,-0.051568,-0.00065396,0.033276,0.054831,0.056389,-0.00042928,-0.018767
0.0082931,-0.00086565,0.0044299,0.024105,0.0097963,0.013158,0.0074254,0.0054556,-0.0019743,0.059061,0.028051,0.016194,0.0067184,0.018888,0.00063066,0.0054555,-0.0014576,-0.044539,0.0073172,0.040684,0.052271,0.054219,-0.00053097,-0.0196
0.0087033,-0.0050086,0.0036835,0.02479,0.0078392,0.012692,0.0074046,0.0047047,-0.00054255,0.054656,0.035402,0.016619,0.0037719,0.019212,0.002089,0.0068196,-0.0046789,-0.032434,0.012178,0.047759,0.04326,0.052821,0.0011445,-0.019183
0.010333,-0.0095613,0.0024855,0.023519,0.005291,0.012061,0.0068756,0.0058855,0.0010379,0.04717,0.040533,0.014281,0.00094975,0.01755,0.0051613,0.01033,-0.0039094,-0.019396,0.016246,0.051931,0.031975,0.052048,0.0063011,-0.018055
0.011837,-0.011668,0.0008925,0.020651,0.0039818,0.010578,0.0085872,0.0090674,0.0015144,0.038095,0.039662,0.0096343,-0.0012446,0.015479,0.0072689,0.015615,-0.0012274,-0.0094925,0.022196,0.052293,0.022578,0.048779,0.01542,-0.017122
0.012941,-0.0086691,-0.000173,0.018264,0.0053164,0.0075302,0.01302,0.01292,0.0016437,0.030169,0.032998,0.0049617,-0.0025356,0.014059,0.0059651,0.021078,0.00020883,-0.0043471,0.030612,0.049582,0.016011,0.037604,0.026763,-0.017679
0.014581,-7.8123e-005,0.00031811,0.018307,0.0091022,0.0028762,0.017241,0.014897,0.0030503,0.026476,0.02476,0.002818,-0.0026112,0.013255,0.0011512,0.024754,-0.0016761,-0.0021593,0.039217,0.045298,0.010018,0.014224,0.036783,-0.020805
0.017433,0.011533,0.0024517,0.020643,0.013345,-0.00224,0.017177,0.012897,0.0062335,0.0286,0.020009,0.0040177,-0.0014007,0.012272,-0.0045688,0.025552,-0.0064213,0.00081043,0.04439,0.04045,0.0021581,-0.020384,0.042173,-0.026364
0.020457,0.021617,0.0050467,0.022886,0.015439,-0.0057807,0.011432,0.007304,0.0098155,0.035156,0.020933,0.0070167,0.00038765,0.010387,-0.0076562,0.023836,-0.011487,0.0071849,0.043806,0.03479,-0.0071877,-0.058396,0.042386,-0.032539
0.021128,0.026227,0.0064366,0.02231,0.014012,-0.0059835,0.0030748,0.001472,0.011775,0.042268,0.025593,0.0093505,0.0012697,0.007531,-0.0061589,0.020888,-0.014212,0.016266,0.038184,0.027174,-0.014751,-0.088132,0.040657,-0.036653
0.017377,0.024432,0.0057076,0.018195,0.0099543,-0.0027691,-0.0024425,-0.00023736,0.011398,0.046104,0.029913,0.0098506,-8.3143e-005,0.0042108,-0.0011153,0.017796,-0.013643,0.02457,0.030851,0.016816,-0.017308,-0.1002,0.042243,-0.036889
0.0095167,0.018846,0.0033086,0.012518,0.0057125,0.0016395,-0.0015125,0.0043609,0.010012,0.045653,0.030998,0.0095825,-0.0036145,0.00099124,0.0041541,0.014732,-0.010863,0.028708,0.025542,0.0044147,-0.014721,-0.09271,0.050628,-0.03357
0.00038239,0.01382,0.00055233,0.0083683,0.0032812,0.0036213,0.0049053,0.013357,0.0098042,0.043462,0.029066,0.010665,-0.007545,-0.001854,0.0063404,0.011211,-0.0077908,0.028185,0.024123,-0.0078,-0.010119,-0.071867,0.06431,-0.028869
-0.0065182,0.012541,-0.001419,0.0074953,0.0025358,0.0003529,0.012286,0.021726,0.011861,0.043632,0.026746,0.014172,-0.0094944,-0.0042077,0.0043952,0.0070735,-0.0056889,0.025737,0.025861,-0.017186,-0.0070716,-0.047812,0.076862,-0.025095
-0.0092903,0.015124,-0.0021916,0.009102,0.0013745,-0.0080458,0.016179,0.024574,0.015239,0.048696,0.02673,0.01913,-0.0083064,-0.0057496,0.0001679,0.0033039,-0.0046156,0.024977,0.028595,-0.022122,-0.0065423,-0.028791,0.080762,-0.022971
-0.0085602,0.019023,-0.0017737,0.010846,-0.0023003,-0.018099,0.015366,0.020312,0.017823,0.057864,0.029785,0.023439,-0.0050466,-0.0059036,-0.0029695,0.0017771,-0.0040213,0.027381,0.030639,-0.022797,-0.0065702,-0.017696,0.07257,-0.0213
-0.0064927,0.021323,-3.6006e-005,0.011021,-0.0083584,-0.024983,0.012216,0.011579,0.018066,0.06784,0.034468,0.025631,-0.0022548,-0.0042785,-0.0024515,0.0038506,-0.0036423,0.031156,0.031803,-0.020995,-0.0048535,-0.012549,0.055719,-0.018246
-0.004966,0.021066,0.0032459,0.0099383,-0.013954,-0.025789,0.010517,0.0034601,0.016057,0.075229,0.038356,0.0257,-0.0020248,-0.0011956,0.0019164,0.0087841,-0.0037431,0.032815,0.03286,-0.019128,-0.00158,-0.0094587,0.038735,-0.013061
-0.004407,0.019834,0.0077129,0.0093989,-0.015448,-0.021625,0.012825,0.00033925,0.01314,0.078475,0.039633,0.024433,-0.0044882,0.0022849,0.0082118,0.013522,-0.0045739,0.030033,0.034213,-0.019024,0.00033338,-0.0053101,0.029988,-0.0067806
-0.003975,0.020286,0.01201,0.010884,-0.011368,-0.016787,0.019154,0.003365,0.010671,0.078078,0.03795,0.022315,-0.0078688,0.0049573,0.014035,0.01459,-0.005759,0.023443,0.035215,-0.020957,-0.00215,0.0013064,0.032645,-0.0013849
-0.0026261,0.023922,0.014454,0.014156,-0.0040083,-0.015504,0.027356,0.0099482,0.0091048,0.07551,0.034273,0.019401,-0.0098791,0.006145,0.018051,0.011025,-0.0063624,0.016053,0.034855,-0.023438,-0.0091985,0.010443,0.043277,0.0016886
-7.0607e-005,0.029871,0.014439,0.017391,0.0018576,-0.018817,0.034379,0.015455,0.0080172,0.07219,0.030176,0.016198,-0.0091946,0.0058074,0.020237,0.0058819,-0.0056228,0.010995,0.033069,-0.024102,-0.017519,0.021194,0.054809,0.002353
0.0030469,0.03555,0.013229,0.018556,0.0023487,-0.024133,0.037612,0.01609,0.0067381,0.069293,0.027192,0.014265,-0.005942,0.0040276,0.020965,0.0045179,-0.0036254,0.009481,0.031235,-0.021464,-0.0227,0.031719,0.061366,0.0014326
0.0057308,0.03856,0.013138,0.016795,-0.0026206,-0.027717,0.035984,0.011292,0.0049083,0.068054,0.026451,0.015362,-0.0012098,0.00053554,0.020117,0.01047,-0.0012365,0.010449,0.031193,-0.016375,-0.022488,0.039498,0.061493,-0.00033546
0.0074415,0.038341,0.015607,0.012841,-0.009258,-0.027886,0.030613,0.0041014,0.002648,0.069648,0.028435,0.019671,0.0036537,-0.0050947,0.017259,0.022153,0.00061408,0.011857,0.03362,-0.011827,-0.018353,0.042334,0.057763,-0.0027201
0.0084717,0.036406,0.019843,0.0084376,-0.012791,-0.026158,0.024552,-0.00088801,0.00050107,0.074325,0.032658,0.024877,0.0073954,-0.012725,0.01265,0.033393,0.0015706,0.012353,0.037332,-0.010862,-0.014284,0.039632,0.053719,-0.0054705
0.0095547,0.035091,0.023288,0.005362,-0.011118,-0.025564,0.021278,-0.00074854,-0.00071657,0.080495,0.037478,0.02741,0.0090091,-0.021287,0.0079157,0.037762,0.0018194,0.011958,0.040212,-0.014062,-0.013924,0.032844,0.050875,-0.0076396
0.010974,0.035753,0.023588,0.0045943,-0.0063228,-0.027868,0.022492,0.0036912,-0.00032793,0.084841,0.040555,0.025088,0.0080542,-0.0294,0.0054517,0.033311,0.0015407,0.011382,0.040871,-0.01883,-0.018184,0.02458,0.048073,-0.0078111
0.011971,0.037654,0.020412,0.0058785,-0.0028572,-0.03225,0.02676,0.0085835,0.0014528,0.083869,0.040072,0.018939,0.0050258,-0.036491,0.0068881,0.023819,0.00051627,0.010752,0.039438,-0.021297,-0.024884,0.017098,0.04327,-0.0052868
0.011179,0.038262,0.015649,0.0078144,-0.0038797,-0.036397,0.030342,0.010183,0.0029348,0.076059,0.036076,0.012514,0.0011992,-0.043169,0.011882,0.015618,-0.0016746,0.0089753,0.03677,-0.019384,-0.030429,0.011416,0.035917,-0.0010699
0.0079405,0.034829,0.012003,0.0086164,-0.0087392,-0.038672,0.029914,0.0078693,0.0013915,0.063053,0.030779,0.0091691,-0.0022617,-0.050145,0.018262,0.012778,-0.0051224,0.0044126,0.033074,-0.014356,-0.032247,0.0075807,0.027874,0.0025748
0.0033862,0.026267,0.011229,0.0073327,-0.013667,-0.039237,0.025142,0.0044954,-0.005227,0.048799,0.027262,0.0095475,-0.0052093,-0.05653,0.023388,0.014653,-0.009314,-0.0035412,0.027519,-0.0095495,-0.030359,0.0054556,0.022257,0.003865
4.0424e-005,0.014108,0.013306,0.0047229,-0.015078,-0.039292,0.018867,0.0037019,-0.016358,0.03705,0.027315,0.011261,-0.0083718,-0.059333,0.025645,0.017399,-0.013387,-0.013204,0.019415,-0.0075336,-0.027078,0.0050387,0.021334,0.003008
-0.00010432,0.0017914,0.016811,0.0028732,-0.012658,-0.039568,0.014601,0.0065015,-0.028378,0.028973,0.030083,0.010882,-0.012042,-0.055123,0.025049,0.017623,-0.016611,-0.020873,0.0097975,-0.0083125,-0.02509,0.0060813,0.025163,0.0019797
0.0024863,-0.0073797,0.019878,0.0035075,-0.0095653,-0.039736,0.013439,0.010173,-0.036454,0.02274,0.032673,0.0065742,-0.014887,-0.042837,0.022809,0.014772,-0.018642,-0.022788,0.0016768,-0.0099819,-0.025299,0.0076881,0.031745,0.0026888
0.0048487,-0.012241,0.021015,0.006268,-0.0095007,-0.039217,0.013146,0.010484,-0.037595,0.015536,0.032319,-0.00058311,-0.01443,-0.025332,0.02043,0.010622,-0.019456,-0.017617,-0.001607,-0.01081,-0.025978,0.0086294,0.03822,0.0052401
0.0037737,-0.014305,0.019592,0.0086374,-0.013202,-0.03824,0.010317,0.0052874,-0.032598,0.0064617,0.028402,-0.0073144,-0.0092637,-0.0080871,0.019015,0.0070042,-0.01924,-0.0076452,0.0013033,-0.010508,-0.023897,0.008215,0.042053,0.0079478
-0.0013958,-0.016421,0.016088,0.0079238,-0.01755,-0.037798,0.0037547,-0.0036546,-0.025332,-0.002066,0.022743,-0.010194,-0.0010732,0.0041424,0.018997,0.0042835,-0.018475,0.002411,0.0087085,-0.0096208,-0.016558,0.00683,0.041664,0.0090388
-0.0079275,-0.020622,0.012064,0.0037547,-0.018267,-0.038445,-0.0039622,-0.012108,-0.01995,-0.0057366,0.018105,-0.0076571,0.0057682,0.010127,0.020151,0.0018142,-0.018042,0.0083457,0.016867,-0.0081118,-0.0039158,0.0054955,0.036707,0.0083351
-0.011769,-0.026806,0.0095719,-0.0012438,-0.013897,-0.039339,-0.0082312,-0.016631,-0.01823,-0.0016369,0.016219,-0.00090314,0.0072382,0.012261,0.021765,-0.00056467,-0.019011,0.0090522,0.022248,-0.005022,0.011612,0.0048363,0.028313,0.0072883
-0.010882,-0.033188,0.010003,-0.003473,-0.0074276,-0.038787,-0.0060745,-0.016791,-0.018983,0.0091557,0.016905,0.0066921,0.0029446,0.014117,0.022965,-0.0018585,-0.022029,0.0068132,0.023349,0.00031575,0.026615,0.0044966,0.019093,0.0074331
-0.0069756,-0.037926,0.01304,-0.0014801,-0.0038601,-0.035987,0.0013663,-0.014692,-0.019618,0.021768,0.018715,0.011345,-0.0033535,0.017669,0.023138,-0.00082466,-0.026729,0.0050935,0.021052,0.0069516,0.038415,0.003588,0.012351,0.0088868
-0.0040684,-0.04046,0.016626,0.0026336,-0.0057607,-0.032245,0.0095305,-0.012723,-0.018318,0.030406,0.020244,0.010951,-0.0067068,0.022394,0.022211,0.0025465,-0.031685,0.0056567,0.017672,0.012641,0.045927,0.0016747,0.010401,0.010366
-0.0050872,-0.04154,0.018253,0.0049006,-0.010817,-0.03024,0.013659,-0.011814,-0.015094,0.031737,0.020905,0.0063307,-0.0049793,0.026535,0.020508,0.0065679,-0.035098,0.0073686,0.015579,0.015826,0.049497,-0.00073905,0.012953,0.010572
-0.0093582,-0.042169,0.016724,0.0028485,-0.013751,-0.031787,0.011871,-0.011549,-0.011284,0.026408,0.020753,0.00075032,-0.00040292,0.02897,0.01829,0.0089245,-0.035794,0.0075881,0.016143,0.017353,0.050267,-0.0026802,0.016972,0.0094404
-0.013075,-0.042592,0.013,-0.0024477,-0.010961,-0.036128,0.0058057,-0.011518,-0.0083026,0.017992,0.019893,-0.0021389,0.0026497,0.029934,0.015445,0.0082644,-0.033857,0.0048172,0.019291,0.020055,0.049566,-0.0035442,0.018534,0.0080381
-0.012318,-0.042215,0.0094443,-0.0073988,-0.003734,-0.040438,-0.0012199,-0.012193,-0.0067542,0.010625,0.018278,-0.00067236,0.0015983,0.030353,0.011748,0.0048754,-0.030504,0.00022157,0.023702,0.026401,0.048388,-0.0033454,0.015523,0.0073975
-0.0061732,-0.040341,0.0080964,-0.0089673,0.0028679,-0.042202,-0.0066137,-0.014417,-0.0063384,0.0071353,0.016036,0.0037883,-0.0022465,0.030962,0.0075489,1.7343e-005,-0.02736,-0.003315,0.027572,0.036409,0.046913,-0.0021499,0.0091022,0.0076524
0.0024331,-0.036909,0.0094388,-0.006963,0.0043639,-0.0413,-0.0094838,-0.018175,-0.0062286,0.0084673,0.01381,0.0078706,-0.0051598,0.032255,0.004206,-0.0051867,-0.02565,-0.0037267,0.029629,0.047848,0.044391,0.00053129,0.002737,0.0083362
0.0086886,-0.032553,0.01255,-0.003668,0.000508,-0.03991,-0.0099162,-0.02209,-0.0054568,0.013885,0.01252,0.0084823,-0.0044954,0.035052,0.0036675,-0.01012,-0.025777,-0.0016144,0.029776,0.058449,0.039722,0.0054719,-0.00047597,0.0092933
0.0090808,-0.028058,0.01622,-0.0014537,-0.0048912,-0.040378,-0.0079603,-0.024322,-0.003182,0.021185,0.012677,0.0047408,-0.0009353,0.040512,0.0073169,-0.014133,-0.027392,0.00022966,0.028873,0.067935,0.032537,0.012636,1.7313e-006,0.010956
0.0035663,-0.023811,0.019788,-0.00076392,-0.0075198,-0.043072,-0.0037199,-0.024076,0.0010031,0.026945,0.013889,-0.001654,0.0024053,0.049019,0.014867,-0.016081,-0.029737,-0.00082207,0.027782,0.077866,0.023842,0.020413,0.0021266,0.013539
-0.0045638,-0.019724,0.022931,-0.00020152,-0.0060972,-0.046141,0.0016297,-0.02227,0.0066811,0.027449,0.01509,-0.0075686,0.0029467,0.058917,0.024133,-0.014932,-0.031967,-0.0050679,0.026496,0.089526,0.015465,0.026307,0.0032084,0.016093
-0.010772,-0.015568,0.02487,0.0016795,-0.002898,-0.047227,0.0054815,-0.020651,0.012398,0.020457,0.015327,-0.01017,0.00085611,0.066692,0.031894,-0.011141,-0.03331,-0.01034,0.024136,0.10195,0.0086345,0.028848,0.0020247,0.016711
-0.011865,-0.011295,0.024121,0.0047678,-0.001246,-0.045391,0.0052548,-0.020143,0.015993,0.0068188,0.014401,-0.008284,-0.0013808,0.069081,0.035333,-0.0072546,-0.033096,-0.013903,0.019854,0.11195,0.0030509,0.029057,-0.0005676,0.014022
-0.007605,-0.0070773,0.019392,0.0074264,-0.0025968,-0.041545,0.00084602,-0.019983,0.015554,-0.0095353,0.012832,-0.0029012,-0.0013651,0.065574,0.033278,-0.0065425,-0.030822,-0.014663,0.013831,0.11599,-0.0025174,0.029835,-0.0027153,0.0086335
-0.00061994,-0.003142,0.010967,0.0079281,-0.0057541,-0.03728,-0.004281,-0.018537,0.010571,-0.023681,0.011303,0.0032466,0.0011833,0.059027,0.026704,-0.010322,-0.026377,-0.013832,0.0075013,0.11235,-0.0085944,0.033383,-0.0031611,0.0030155
0.0051717,0.00034916,0.0012094,0.0058552,-0.0084457,-0.033447,-0.0049709,-0.015091,0.0025703,-0.032608,0.010178,0.0069762,0.0045051,0.053546,0.018306,-0.016304,-0.020399,-0.013681,0.0028298,0.10178,-0.013998,0.038803,-0.0020587,-0.00025675
0.0067535,0.0032957,-0.0065408,0.0023041,-0.0093675,-0.029781,0.001794,-0.010935,-0.0053596,-0.036845,0.0094757,0.0064137,0.0066131,0.051262,0.011289,-0.019884,-0.014474,-0.015674,0.0012314,0.086647,-0.016677,0.042215,-0.00070088,-0.00041234
0.0036733,0.0056325,-0.01001,-0.001031,-0.008791,-0.025649,0.014205,-0.0086374,-0.010069,-0.039651,0.0091011,0.0022948,0.0069347,0.050794,0.0078163,-0.017779,-0.010784,-0.019621,0.0028935,0.06952,-0.015758,0.039727,-0.00073544,0.0011106
-0.0017358,0.0073583,-0.0093926,-0.0029463,-0.0075635,-0.020944,0.026568,-0.010081,-0.010054,-0.044438,0.0088903,-0.002288,0.0062933,0.048751,0.0078778,-0.011036,-0.011053,-0.024354,0.0068505,0.052244,-0.01281,0.030872,-0.003485,0.0020192
-0.0057711,0.0085387,-0.00698,-0.0031987,-0.0058856,-0.016246,0.033384,-0.014987,-0.0062558,-0.052345,0.0083934,-0.0039369,0.0055143,0.042944,0.0093611,-0.0045948,-0.015292,-0.028938,0.01162,0.035695,-0.010906,0.019492,-0.0094811,0.0010009
-0.0056332,0.0092101,-0.0053658,-0.0023325,-0.003184,-0.01231,0.033345,-0.021198,-0.0013669,-0.061556,0.0068607,-0.0015382,0.0042934,0.034388,0.0094842,-0.0034524,-0.021299,-0.033098,0.015956,0.020044,-0.012116,0.011076,-0.018105,-0.0014742
-0.0011485,0.0092958,-0.0057444,-0.001293,0.00093628,-0.0095037,0.03002,-0.026313,0.0018912,-0.06857,0.0038314,0.0026744,0.0016038,0.026339,0.0067536,-0.0085605,-0.025619,-0.036512,0.019335,0.0052682,-0.015662,0.0087209,-0.027523,-0.0037964
0.0051961,0.008728,-0.0076557,-0.0010975,0.005785,-0.0076826,0.028737,-0.029149,0.0023134,-0.070409,-2.9785e-005,0.0046984,-0.0027309,0.021327,0.0020035,-0.016016,-0.025591,-0.038007,0.021967,-0.0082465,-0.018493,0.011132,-0.035318,-0.0045222
0.0099173,0.0077339,-0.010165,-0.0024847,0.0097053,-0.0064244,0.032284,-0.029875,0.00053873,-0.066367,-0.0028322,0.0019158,-0.0069886,0.018975,-0.0023717,-0.020269,-0.021072,-0.035864,0.024398,-0.019391,-0.017915,0.014241,-0.039788,-0.0033266
0.010718,0.0069543,-0.013162,-0.0054763,0.011129,-0.0053362,0.038832,-0.029145,-0.0018912,-0.058409,-0.002671,-0.0047522,-0.0083638,0.016576,-0.0044475,-0.018567,-0.01446,-0.029328,0.027006,-0.026783,-0.014044,0.014818,-0.041093,-0.0012035
0.0076892,0.0071288,-0.017432,-0.0091272,0.0096261,-0.0042687,0.043483,-0.027423,-0.0038509,-0.050072,0.0005877,-0.011565,-0.0052234,0.011734,-0.0043885,-0.01285,-0.0089393,-0.019948,0.029745,-0.029914,-0.0098905,0.01281,-0.041199,-7.1433e-005
0.0028744,0.008552,-0.023407,-0.011877,0.0061033,-0.0034366,0.041942,-0.025166,-0.005289,-0.044476,0.0046315,-0.014988,0.0011579,0.0044589,-0.0042564,-0.0076596,-0.0063211,-0.011184,0.03232,-0.030057,-0.0089205,0.010532,-0.042414,-0.0019719
-0.0012278,0.010849,-0.029933,-0.012524,0.0021092,-0.0033757,0.033393,-0.023298,-0.0068683,-0.042555,0.0061813,-0.014437,0.0071319,-0.0032513,-0.0061548,-0.0061719,-0.0061981,-0.0061536,0.034529,-0.029878,-0.012056,0.0098623,-0.045546,-0.0079498
-0.0029963,0.013365,-0.03447,-0.011187,-0.0011151,-0.0046082,0.020699,-0.023009,-0.0090765,-0.042645,0.0037261,-0.012399,0.0093043,-0.0097464,-0.010337,-0.0078869,-0.0068926,-0.0052429,0.036389,-0.031708,-0.016623,0.010257,-0.049174,-0.017021
-0.0020944,0.01579,-0.034892,-0.009438,-0.003158,-0.0071068,0.0082464,-0.024767,-0.011621,-0.041829,-0.00085659,-0.011952,0.0071337,-0.015442,-0.014946,-0.0097633,-0.0071104,-0.0057124,0.037847,-0.035809,-0.018153,0.0093901,-0.050704,-0.026086
0.00087329,0.018309,-0.031403,-0.0092971,-0.0043254,-0.0099772,-0.00069789,-0.027596,-0.013567,-0.038214,-0.003529,-0.013985,0.0032531,-0.022048,-0.017607,-0.0093988,-0.0067385,-0.003877,0.038385,-0.040216,-0.013635,0.0055692,-0.048441,-0.031399
0.0047891,0.021015,-0.026802,-0.011748,-0.0051671,-0.011788,-0.005397,-0.029624,-0.014043,-0.032505,-0.001435,-0.016575,0.0011939,-0.030076,-0.017403,-0.0072247,-0.006252,0.0018419,0.037011,-0.042403,-0.0036433,-0.00053114,-0.04309,-0.030968
0.0082105,0.02317,-0.024646,-0.015921,-0.0060537,-0.011477,-0.0073756,-0.029626,-0.012932,-0.027575,0.0044684,-0.016963,0.0024725,-0.03735,-0.015518,-0.0058767,-0.0056295,0.0095446,0.032847,-0.041368,0.0083134,-0.0064781,-0.03758,-0.026129
0.0096229,0.023201,-0.026697,-0.019665,-0.0070363,-0.0091839,-0.0091092,-0.028112,-0.01101,-0.026302,0.0099261,-0.01424,0.0055473,-0.040382,-0.014035,-0.0075845,-0.0040904,0.015294,0.025919,-0.038354,0.018554,-0.010401,-0.035333,-0.020761
0.0081446,0.019674,-0.031687,-0.021136,-0.00798,-0.0062991,-0.012562,-0.026786,-0.0094404,-0.02938,0.010757,-0.010328,0.0074469,-0.037589,-0.014125,-0.012072,-0.001002,0.016078,0.017419,-0.035699,0.02577,-0.012821,-0.038195,-0.018521
0.0044321,0.012525,-0.036361,-0.020178,-0.0088033,-0.0046184,-0.018158,-0.026795,-0.0090036,-0.034842,0.0061961,-0.0084288,0.0064957,-0.031235,-0.015269,-0.016758,0.0029985,0.011776,0.0090391,-0.034987,0.031274,-0.016311,-0.045371,-0.020301
0.00087333,0.0034572,-0.037912,-0.01834,-0.009624,-0.005232,-0.024506,-0.027496,-0.009667,-0.03963,-0.00067853,-0.010346,0.0036907,-0.025947,-0.016083,-0.018905,0.0059377,0.0046732,0.0017792,-0.036117,0.03693,-0.023275,-0.053967,-0.024059
0.00037439,-0.004882,-0.035887,-0.017532,-0.010668,-0.0080064,-0.029098,-0.027026,-0.010807,-0.041797,-0.0056755,-0.014966,0.0016356,-0.024934,-0.015759,-0.017729,0.0057925,-0.0026961,-0.0047801,-0.037832,0.042804,-0.033761,-0.060711,-0.027086
0.0042218,-0.010315,-0.032228,-0.018452,-0.011947,-0.011996,-0.029825,-0.0242,-0.011877,-0.041544,-0.0068271,-0.019124,0.0021615,-0.02734,-0.014662,-0.014758,0.0021282,-0.009302,-0.01192,-0.038902,0.046765,-0.045106,-0.06376,-0.02852
0.010642,-0.012068,-0.02962,-0.020136,-0.012929,-0.016325,-0.026514,-0.019906,-0.012904,-0.040452,-0.0054665,-0.020058,0.0048075,-0.029277,-0.013614,-0.012309,-0.0033047,-0.015563,-0.020171,-0.038782,0.046489,-0.053673,-0.063552,-0.029742
0.015557,-0.010688,-0.029497,-0.02098,-0.012552,-0.020717,-0.021285,-0.016553,-0.014361,-0.039896,-0.0044853,-0.017447,0.0073852,-0.027596,-0.012723,-0.011522,-0.007558,-0.021932,-0.027962,-0.037395,0.041946,-0.057312,-0.0623,-0.03243
0.015403,-0.007294,-0.031117,-0.020242,-0.0097811,-0.025199,-0.017195,-0.016027,-0.01653,-0.04015,-0.0057636,-0.013488,0.0079438,-0.022862,-0.011061,-0.011592,-0.0083363,-0.027724,-0.03194,-0.034665,0.035943,-0.056691,-0.06252,-0.036397
0.010019,-0.0029119,-0.032223,-0.018588,-0.0045268,-0.029377,-0.016058,-0.018039,-0.018973,-0.040827,-0.0091405,-0.011066,0.0063638,-0.018743,-0.0075121,-0.010742,-0.0053829,-0.031288,-0.029172,-0.030505,0.031966,-0.054595,-0.065511,-0.039492
0.003192,0.0016735,-0.030714,-0.017238,0.0017533,-0.032086,-0.017237,-0.020394,-0.02066,-0.041848,-0.013379,-0.011534,0.0043497,-0.018458,-0.0019661,-0.0080207,-0.00052451,-0.031212,-0.019686,-0.025258,0.031156,-0.053822,-0.07061,-0.039771
0.00015169,0.0057628,-0.026165,-0.01664,0.0064178,-0.031966,-0.018476,-0.020889,-0.020704,-0.043739,-0.017585,-0.01381,0.0040577,-0.021779,0.0043288,-0.0043955,0.0035323,-0.027342,-0.0071736,-0.019886,0.031154,-0.055276,-0.0756,-0.03773
0.0038022,0.0087215,-0.020125,-0.016109,0.0070582,-0.02858,-0.017979,-0.019025,-0.019063,-0.046807,-0.02148,-0.015392,0.006612,-0.025514,0.009546,-0.0022348,0.0048135,-0.020788,0.0030754,-0.0154,0.02795,-0.057685,-0.077953,-0.036236
0.012632,0.010254,-0.014984,-0.014791,0.003152,-0.023065,-0.015749,-0.016,-0.016615,-0.050051,-0.024614,-0.01442,0.011562,-0.026976,0.012411,-0.0035505,0.003138,-0.013152,0.0075734,-0.01194,0.019129,-0.059053,-0.076204,-0.038025
0.021924,0.010685,-0.012158,-0.012891,-0.0033056,-0.017628,-0.013022,-0.013204,-0.0145,-0.05107,-0.025941,-0.011177,0.01736,-0.027071,0.012657,-0.008324,5.1058e-005,-0.0058031,0.0066747,-0.0085127,0.005652,-0.058627,-0.070709,-0.043035
0.027214,0.010867,-0.010991,-0.0117,-0.0088878,-0.014196,-0.010661,-0.010884,-0.013246,-0.047385,-0.024687,-0.0079016,0.022197,-0.029891,0.010597,-0.014171,-0.0022965,0.00034651,0.0036104,-0.0039457,-0.0092329,-0.057664,-0.063466,-0.048156
0.027178,0.011682,-0.0093553,-0.012238,-0.010946,-0.013318,-0.0084303,-0.0083891,-0.012308,-0.038282,-0.021682,-0.0070757,0.024578,-0.039082,0.0065365,-0.017654,-0.0026145,0.0048092,0.0015175,0.0015937,-0.022679,-0.058276,-0.05716,-0.04977
0.023789,0.013511,-0.0056523,-0.013904,-0.0093389,-0.014163,-0.0059609,-0.0055973,-0.010343,-0.025657,-0.019433,-0.0095132,0.02363,-0.054278,0.00082178,-0.016432,-0.0012924,0.0076751,0.0011642,0.0059754,-0.033866,-0.061289,-0.053968,-0.046844
0.020003,0.016079,-0.00061388,-0.014723,-0.0063151,-0.015454,-0.0040686,-0.0037833,-0.0060787,-0.013073,-0.02032,-0.013735,0.019433,-0.070866,-0.0055963,-0.01086,4.1894e-005,0.0098725,0.0011852,0.0062715,-0.043212,-0.065078,-0.054688,-0.041816
0.017186,0.018724,0.0027693,-0.013278,-0.0046137,-0.016394,-0.0045064,-0.0046432,0.00072265,-0.0036628,-0.024333,-0.017144,0.013366,-0.083259,-0.010969,-0.0039497,-9.8715e-005,0.012963,3.9038e-005,0.0010353,-0.050379,-0.066636,-0.058502,-0.038477
0.014474,0.020787,0.0014661,-0.010517,-0.0052956,-0.016835,-0.0079575,-0.0081934,0.008791,0.0015582,-0.028571,-0.018091,0.0079742,-0.088677,-0.013568,0.00043492,-0.0018635,0.018158,-0.002715,-0.0081549,-0.05351,-0.064194,-0.06338,-0.038785
0.010283,0.021802,-0.0048468,-0.009467,-0.0070366,-0.016807,-0.012376,-0.011721,0.01575,0.0038338,-0.029305,-0.017149,0.0058876,-0.088175,-0.012986,7.2211e-005,-0.0040525,0.025114,-0.007176,-0.017316,-0.050757,-0.05913,-0.066952,-0.041409
0.0043286,0.02152,-0.012842,-0.012732,-0.0073741,-0.016147,-0.013925,-0.01128,0.019317,0.005386,-0.025013,-0.016461,0.0081623,-0.084378,-0.010627,-0.0041025,-0.0052609,0.031638,-0.014673,-0.02251,-0.042656,-0.055301,-0.067543,-0.043234
-0.0018031,0.020007,-0.017502,-0.019855,-0.0047947,-0.014673,-0.010225,-0.0048632,0.018637,0.0078584,-0.017759,-0.017621,0.013237,-0.078486,-0.0086755,-0.0086601,-0.0051171,0.034859,-0.027701,-0.022239,-0.032804,-0.0561,-0.064982,-0.042315
-0.0059091,0.017849,-0.015735,-0.02705,4.0602e-005,-0.012659,-0.0029724,0.0054474,0.014837,0.011573,-0.011638,-0.01994,0.017617,-0.069548,-0.0083549,-0.010202,-0.0045255,0.033175,-0.04743,-0.017994,-0.025812,-0.061667,-0.060741,-0.039586
-0.0069549,0.016148,-0.0088783,-0.02985,0.0047871,-0.010965,0.0029426,0.014466,0.010364,0.015814,-0.0095689,-0.020801,0.01816,-0.056538,-0.0091058,-0.0079314,-0.0048147,0.027435,-0.070894,-0.012787,-0.02416,-0.068672,-0.057173,-0.037759
-0.0057107,0.01597,-0.001969,-0.026597,0.007047,-0.010584,0.0034752,0.017508,0.0075416,0.019586,-0.011192,-0.018,0.014396,-0.040855,-0.0094838,-0.0042366,-0.0066894,0.020382,-0.091049,-0.0091139,-0.026689,-0.072911,-0.056094,-0.038492
-0.003827,0.017522,-9.7978e-005,-0.019836,0.0058154,-0.01198,-0.00093184,0.01379,0.0074282,0.022241,-0.013608,-0.012075,0.0090133,-0.026397,-0.0088396,-0.0027543,-0.0099132,0.014884,-0.10061,-0.0079793,-0.02996,-0.072501,-0.057543,-0.040443
-0.0024492,0.019844,-0.0045734,-0.014356,0.0018415,-0.014832,-0.0056282,0.0068655,0.0096633,0.023755,-0.014232,-0.0063724,0.0059368,-0.016807,-0.0080042,-0.0054282,-0.013798,0.012437,-0.096969,-0.0092972,-0.031014,-0.068967,-0.059659,-0.040135
-0.0017281,0.02156,-0.011908,-0.013502,-0.0030102,-0.018369,-0.0059672,0.0018334,0.013114,0.02472,-0.013148,-0.004533,0.0073547,-0.012357,-0.0082344,-0.010973,-0.017822,0.013021,-0.084122,-0.012624,-0.028893,-0.065489,-0.059946,-0.035038
-0.0014344,0.02216,-0.016523,-0.016772,-0.0067271,-0.021924,-0.0017126,0.0016735,0.016535,0.026043,-0.012889,-0.0074895,0.012037,-0.0094962,-0.0095569,-0.015959,-0.021777,0.015918,-0.069783,-0.017179,-0.023685,-0.064087,-0.057133,-0.026232
-0.00165,0.022496,-0.01508,-0.020586,-0.0079252,-0.025191,0.0024421,0.0055704,0.018814,0.028332,-0.015825,-0.012618,0.016333,-0.0036598,-0.010383,-0.017514,-0.025536,0.020324,-0.060002,-0.021302,-0.014517,-0.064292,-0.052227,-0.018211
-0.0025591,0.023741,-0.0089801,-0.021414,-0.0063257,-0.028056,0.00085309,0.010206,0.019116,0.031252,-0.021528,-0.015822,0.017063,0.0070475,-0.0089966,-0.015328,-0.028902,0.025124,-0.055633,-0.022523,0.00097494,-0.064287,-0.047863,-0.015695
-0.0036086,0.025658,-0.00301,-0.018578,-0.0029094,-0.030322,-0.0080666,0.012514,0.017381,0.033425,-0.026522,-0.014725,0.013933,0.020464,-0.0055251,-0.011456,-0.031746,0.028464,-0.053271,-0.018953,0.024622,-0.063161,-0.046358,-0.019911
-0.0032834,0.026108,-0.0013426,-0.014499,0.00045392,-0.031737,-0.020191,0.011543,0.014896,0.03327,-0.026805,-0.010272,0.0094805,0.032295,-0.002356,-0.0084106,-0.034143,0.028221,-0.04928,-0.011163,0.054759,-0.062049,-0.047977,-0.027412
-0.00022265,0.022783,-0.0042686,-0.012425,0.0020176,-0.032319,-0.028738,0.0083217,0.01403,0.030332,-0.021106,-0.0056393,0.0066882,0.039434,-0.0024541,-0.0073882,-0.036214,0.023465,-0.043129,-0.0027212,0.085249,-0.063075,-0.050737,-0.032543
0.0051746,0.015857,-0.0083792,-0.013689,0.0013424,-0.032579,-0.02933,0.0045493,0.0167,0.026024,-0.01218,-0.0037053,0.0064675,0.041743,-0.0070785,-0.0080104,-0.037809,0.015611,-0.037275,0.0015752,0.10794,-0.067142,-0.051931,-0.031688
0.010386,0.0088763,-0.0098711,-0.016724,-0.00032735,-0.03326,-0.022845,0.0016122,0.02251,0.022907,-0.005041,-0.0053145,0.0072419,0.041122,-0.014971,-0.0093109,-0.038468,0.007822,-0.034224,-0.0013453,0.1171,-0.072614,-0.05017,-0.025895
0.012413,0.0064046,-0.0079405,-0.018434,-0.0011025,-0.034707,-0.014059,0.00049741,0.028369,0.022845,-0.003511,-0.0094082,0.0068708,0.039232,-0.023601,-0.010665,-0.037757,0.0027379,-0.033844,-0.011119,0.11247,-0.076161,-0.046406,-0.01977
0.010205,0.010078,-0.0052733,-0.016609,-0.00027094,-0.036415,-0.0076969,0.0019071,0.030433,0.025419,-0.0077728,-0.014324,0.0049144,0.036243,-0.031111,-0.011793,-0.035556,0.00041554,-0.033409,-0.024989,0.098653,-0.075169,-0.043181,-0.017616
0.0056161,0.016616,-0.0053465,-0.011444,0.00070985,-0.037267,-0.0053059,0.0057863,0.027096,0.028067,-0.014665,-0.018852,0.0029559,0.031561,-0.037153,-0.012247,-0.0319,-0.0015238,-0.030114,-0.040628,0.081493,-0.069809,-0.042659,-0.020071
0.0018562,0.020016,-0.0091484,-0.0051605,-0.00079726,-0.036398,-0.0051569,0.010577,0.020485,0.028063,-0.020215,-0.022365,0.0026911,0.025377,-0.042147,-0.011389,-0.026598,-0.0054549,-0.0236,-0.058063,0.064452,-0.063092,-0.044865,-0.02398
0.00073643,0.016374,-0.014356,-0.00029891,-0.0062359,-0.03404,-0.0045734,0.013393,0.014955,0.024884,-0.022295,-0.024439,0.0038239,0.019179,-0.046052,-0.0091784,-0.019324,-0.0112,-0.016229,-0.078776,0.047888,-0.058761,-0.047476,-0.025392
0.0012479,0.0071388,-0.017636,0.0018879,-0.014162,-0.031611,-0.0023771,0.01172,0.013684,0.020972,-0.021502,-0.024685,0.0040847,0.014635,-0.048044,-0.00693,-0.010469,-0.015869,-0.011044,-0.10267,0.031401,-0.058569,-0.047408,-0.022879
0.00080116,-0.0022608,-0.017812,0.0018248,-0.020914,-0.030851,0.00038465,0.0055717,0.016287,0.020018,-0.020028,-0.022996,0.0015503,0.012081,-0.047345,-0.0069081,-0.0019378,-0.016458,-0.0093198,-0.12574,0.016665,-0.060948,-0.043144,-0.018305
-0.002069,-0.0073254,-0.016918,0.00076578,-0.023265,-0.032511,0.0014917,-0.0018959,0.019486,0.023913,-0.019768,-0.019884,-0.0030173,0.010185,-0.044297,-0.010688,0.0033289,-0.01289,-0.009691,-0.14094,0.0077174,-0.06207,-0.036043,-0.014638
-0.0061492,-0.0085035,-0.018176,-0.00042531,-0.020839,-0.035572,-0.00085768,-0.0063405,0.020172,0.030811,-0.021142,-0.01649,-0.0063281,0.0071211,-0.040584,-0.017544,0.0033358,-0.0085767,-0.0093397,-0.14222,0.0080322,-0.058519,-0.029503,-0.013157
-0.0086579,-0.010609,-0.022846,-0.0018789,-0.01621,-0.037709,-0.0070952,-0.0055022,0.018085,0.036101,-0.023191,-0.014167,-0.0053739,0.0020529,-0.038372,-0.024381,-0.00090796,-0.0077463,-0.006057,-0.12887,0.016838,-0.049596,-0.026455,-0.012758
-0.0079649,-0.018168,-0.028882,-0.0043399,-0.012713,-0.036912,-0.01626,-0.0011055,0.01578,0.035833,-0.024532,-0.013815,-0.00036426,-0.0044946,-0.039015,-0.027563,-0.0053027,-0.011826,0.0004091,-0.10682,0.028205,-0.03761,-0.027107,-0.011815
-0.0052945,-0.031012,-0.032631,-0.0082317,-0.011957,-0.033195,-0.026515,0.0023713,0.016068,0.029984,-0.024377,-0.015279,0.0050558,-0.011558,-0.04222,-0.025386,-0.0052086,-0.018163,0.0084375,-0.085533,0.034288,-0.026138,-0.028788,-0.010395
-0.003745,-0.044198,-0.032016,-0.012988,-0.01311,-0.029023,-0.035806,0.0012174,0.019311,0.022817,-0.02307,-0.01724,0.0066845,-0.018885,-0.046199,-0.019359,0.0010663,-0.022349,0.015627,-0.072442,0.030552,-0.017726,-0.028124,-0.010278
-0.0055043,-0.052185,-0.028363,-0.017213,-0.014182,-0.027769,-0.042506,-0.0045477,0.022936,0.019768,-0.021916,-0.017903,0.0031996,-0.027158,-0.04869,-0.013316,0.010697,-0.02215,0.020004,-0.068652,0.018848,-0.012799,-0.023764,-0.012637
-0.0098444,-0.053299,-0.025278,-0.019548,-0.013764,-0.031072,-0.045975,-0.0112,0.023511,0.023188,-0.022376,-0.016262,-0.0029501,-0.037177,-0.048256,-0.010957,0.018224,-0.019631,0.020751,-0.069002,0.0057922,-0.01031,-0.017432,-0.015862
-0.013733,-0.050406,-0.025607,-0.01956,-0.011642,-0.037067,-0.04677,-0.014255,0.01957,0.030382,-0.025003,-0.013053,-0.0079482,-0.048867,-0.04503,-0.013462,0.019594,-0.019622,0.018382,-0.066318,-0.0023448,-0.0091613,-0.012485,-0.016185
-0.014452,-0.047567,-0.029073,-0.01795,-0.0081988,-0.041117,-0.046295,-0.011869,0.012905,0.035666,-0.028864,-0.010379,-0.0099963,-0.060976,-0.040375,-0.018767,0.015165,-0.025886,0.014445,-0.056707,-0.0041472,-0.0089614,-0.011269,-0.011033
-0.011823,-0.046248,-0.032506,-0.015965,-0.0037931,-0.038837,-0.046016,-0.0059691,0.0073497,0.034825,-0.032049,-0.0099917,-0.010507,-0.071534,-0.035651,-0.022947,0.0092711,-0.038176,0.010824,-0.042091,-0.0034463,-0.0095449,-0.013461,-0.0020356
-0.0080849,-0.04481,-0.032353,-0.014514,0.0010147,-0.029264,-0.04676,-0.00041337,0.0060544,0.028335,-0.033071,-0.011544,-0.012065,-0.078565,-0.031032,-0.022851,0.0067587,-0.052415,0.0087958,-0.028379,-0.0055359,-0.010067,-0.016534,0.0055006
-0.0057348,-0.041437,-0.027398,-0.013731,0.0048857,-0.015715,-0.048544,0.0021012,0.0092621,0.020703,-0.032096,-0.012565,-0.015232,-0.08057,-0.025452,-0.018249,0.0093693,-0.063478,0.0083386,-0.021028,-0.012575,-0.0089186,-0.017677,0.0066955
-0.0054227,-0.037176,-0.019637,-0.013261,0.0059638,-0.0036364,-0.050937,0.0017969,0.014198,0.016612,-0.030829,-0.010527,-0.017406,-0.076782,-0.017866,-0.011966,0.014834,-0.068159,0.0083222,-0.021447,-0.022017,-0.0048591,-0.01554,0.0013395
-0.0057721,-0.03577,-0.012873,-0.012876,0.0032776,0.0029132,-0.053533,0.0010064,0.017135,0.017213,-0.031048,-0.0053768,-0.015002,-0.067378,-0.0088226,-0.0078009,0.019151,-0.066239,0.0076561,-0.026683,-0.029124,0.0016208,-0.010687,-0.0056331
-0.0050428,-0.040295,-0.01023,-0.01275,-0.0019285,0.0034629,-0.056167,0.0017582,0.016129,0.019661,-0.033028,-8.9912e-005,-0.0069953,-0.053645,-0.0008357,-0.0076822,0.019874,-0.059555,0.0065702,-0.031992,-0.031107,0.0081454,-0.0048567,-0.0081191
-0.0028502,-0.049902,-0.012289,-0.013114,-0.0065192,0.00055355,-0.058892,0.0039294,0.012387,0.020005,-0.035334,0.0016154,0.0035564,-0.037847,0.003066,-0.010267,0.017645,-0.050514,0.0067982,-0.03398,-0.029217,0.01201,0.00013707,-0.0039657
-0.00030635,-0.059872,-0.016888,-0.013682,-0.0076353,-0.0027935,-0.061925,0.0054462,0.0091697,0.016639,-0.036145,-0.0013869,0.011591,-0.022646,0.0016205,-0.012149,0.015009,-0.041367,0.010177,-0.032064,-0.027179,0.012332,0.0032214,0.0031668
0.0013259,-0.065011,-0.020502,-0.013618,-0.0050275,-0.0053286,-0.065677,0.0041848,0.0090309,0.011251,-0.034839,-0.0062911,0.013985,-0.010268,-0.0034212,-0.010693,0.013984,-0.03421,0.016634,-0.027854,-0.027699,0.010939,0.0043754,0.0068053
0.0018892,-0.063337,-0.020357,-0.012269,-0.0014643,-0.0078865,-0.070687,-0.0001367,0.011646,0.0067196,-0.032345,-0.0085023,0.011853,-0.0017694,-0.0082079,-0.0060635,0.014699,-0.030796,0.023392,-0.023527,-0.030317,0.01105,0.0044768,0.0029872
0.0021792,-0.056925,-0.016144,-0.010061,-0.00068488,-0.011921,-0.0773,-0.0056226,0.0141,0.0042465,-0.030088,-0.0056106,0.0092214,0.0032958,-0.009179,-0.0007428,0.016101,-0.031638,0.026503,-0.020542,-0.032312,0.014655,0.0047265,-0.0064875
0.0027006,-0.049588,-0.010355,-0.0085437,-0.0045129,-0.017818,-0.085209,-0.0095852,0.013465,0.0025413,-0.028706,0.00029163,0.0094488,0.0067172,-0.0050345,0.0028839,0.017612,-0.035084,0.023856,-0.019192,-0.031434,0.020724,0.0058542,-0.015388
0.0028655,-0.043851,-0.0068855,-0.0092719,-0.011495,-0.024406,-0.093293,-0.010482,0.0094356,-0.00034641,-0.027842,0.0041425,0.012727,0.010886,0.0031377,0.0045437,0.019879,-0.037533,0.017304,-0.018803,-0.027706,0.02575,0.007588,-0.017684
0.0016291,-0.039895,-0.0085764,-0.012395,-0.018112,-0.029814,-0.10003,-0.0089705,0.0046197,-0.0046203,-0.026955,0.0021173,0.016745,0.017526,0.01329,0.0058879,0.023846,-0.035147,0.011867,-0.018226,-0.02285,0.026291,0.0088639,-0.011759
-0.0011258,-0.0369,-0.015247,-0.016351,-0.021465,-0.032683,-0.1043,-0.0074468,0.0022281,-0.0083153,-0.026047,-0.0050943,0.019444,0.026357,0.023837,0.0085084,0.029248,-0.026065,0.012215,-0.016482,-0.018392,0.021494,0.0087167,-0.0011765
-0.0040952,-0.034892,-0.023692,-0.019148,-0.02124,-0.032656,-0.10594,-0.0084906,0.0033,-0.0092995,-0.025433,-0.012794,0.020875,0.034622,0.033863,0.01225,0.034188,-0.01157,0.018967,-0.01336,-0.014674,0.013679,0.0071475,0.0081174
-0.0056857,-0.035035,-0.029807,-0.020179,-0.019506,-0.029912,-0.10566,-0.013207,0.006058,-0.0076086,-0.024995,-0.016146,0.022329,0.038264,0.042362,0.01542,0.036397,0.0045357,0.027784,-0.0096035,-0.011595,0.0066428,0.0052172,0.011742
-0.0056882,-0.038156,-0.031337,-0.02077,-0.018734,-0.024397,-0.10431,-0.020392,0.0079068,-0.0056631,-0.024086,-0.014096,0.023942,0.034472,0.047822,0.016475,0.034988,0.017736,0.032185,-0.0064031,-0.0097932,0.0031502,0.0042942,0.0091988
-0.0056711,-0.043155,-0.029208,-0.022808,-0.019752,-0.015628,-0.10222,-0.02702,0.0080197,-0.0060834,-0.022472,-0.010049,0.023606,0.023968,0.048904,0.015356,0.031031,0.024543,0.028125,-0.0044447,-0.010441,0.0034745,0.0051319,0.0033953
-0.0075076,-0.047083,-0.026465,-0.026653,-0.021197,-0.0033358,-0.099101,-0.02991,0.007927,-0.0092668,-0.021284,-0.0088505,0.018711,0.011103,0.045619,0.013188,0.026452,0.023429,0.016897,-0.0032911,-0.013606,0.0058195,0.0074959,-0.0017304
-0.011416,-0.047032,-0.025824,-0.030454,-0.020746,0.01159,-0.094671,-0.027758,0.0095722,-0.013117,-0.02259,-0.012741,0.009144,0.001234,0.039609,0.010895,0.022425,0.015024,0.0042098,-0.0017244,-0.017109,0.0079091,0.01041,-0.0036724
-0.015511,-0.042337,-0.027837,-0.031702,-0.017049,0.026782,-0.089233,-0.022218,0.012881,-0.015135,-0.027469,-0.019683,-0.0015899,-0.0029371,0.032984,0.0082941,0.018834,0.0019235,-0.0037963,0.0011131,-0.017614,0.0083802,0.01253,-0.0024993
-0.017414,-0.035329,-0.031051,-0.029678,-0.010894,0.039168,-0.083505,-0.017107,0.015411,-0.01475,-0.034253,-0.025263,-0.0086416,-0.003261,0.026698,0.0046196,0.015152,-0.011964,-0.0046296,0.0047056,-0.013381,0.0071587,0.012313,-0.00035008
-0.01642,-0.030024,-0.033699,-0.02641,-0.0047626,0.04643,-0.077693,-0.015989,0.014568,-0.013653,-0.038844,-0.026339,-0.0097261,-0.004654,0.020029,-0.00021869,0.011501,-0.022747,-0.00077612,0.0071876,-0.0060354,0.0049974,0.0082251,0.00016347
-0.014123,-0.029704,-0.035283,-0.025097,-0.0011457,0.048092,-0.070685,-0.019768,0.01028,-0.013968,-0.037325,-0.02325,-0.0071522,-0.011285,0.01178,-0.0050699,0.0085432,-0.028306,0.0023887,0.0064764,0.00059969,0.0028551,-0.00060663,-0.0022983
-0.0129,-0.034977,-0.036692,-0.027358,-0.00083475,0.04544,-0.060395,-0.026125,0.0054923,-0.016182,-0.028932,-0.018958,-0.0060238,-0.023414,0.0020951,-0.0083491,0.0063264,-0.02938,0.00037996,0.0016803,0.0037268,0.0015321,-0.013453,-0.0068351
-0.013775,-0.043502,-0.038926,-0.03182,-0.0023829,0.040456,-0.0454,-0.031274,0.0039022,-0.018815,-0.016929,-0.016172,-0.010084,-0.037305,-0.006839,-0.0094438,0.0036288,-0.02893,-0.0075827,-0.0062274,0.0038477,0.0014988,-0.02761,-0.010697
-0.015711,-0.051394,-0.041761,-0.035253,-0.0031327,0.034741,-0.026658,-0.032643,0.0069811,-0.019952,-0.0065501,-0.01518,-0.018759,-0.048092,-0.011992,-0.00933,-0.00099615,-0.029859,-0.018443,-0.014833,0.00394,0.0027321,-0.039315,-0.010934
-0.016938,-0.055363,-0.043558,-0.035128,-0.0011217,0.02931,-0.007681,-0.03035,0.012906,-0.019027,-0.0015996,-0.014171,-0.027817,-0.053121,-0.011612,-0.0097803,-0.0072479,-0.032668,-0.027661,-0.021387,0.0064538,0.0046137,-0.045676,-0.006385
-0.016833,-0.054241,-0.042371,-0.031263,0.0034823,0.025134,0.0073979,-0.026479,0.018161,-0.017256,-0.0022507,-0.011437,-0.03288,-0.053198,-0.0064723,-0.011877,-0.012377,-0.034899,-0.03229,-0.023894,0.011144,0.0061091,-0.046336,0.0012933
-0.016367,-0.049074,-0.037353,-0.025358,0.0085204,0.023495,0.016578,-0.023088,0.020145,-0.016524,-0.0055125,-0.0072032,-0.032689,-0.051091,0.00075059,-0.015144,-0.013059,-0.032861,-0.032702,-0.021816,0.015777,0.0062508,-0.043585,0.008396
-0.016691,-0.041948,-0.029314,-0.019267,0.011564,0.025451,0.021333,-0.02082,0.018523,-0.017873,-0.0076874,-0.0033775,-0.029527,-0.048913,0.0073668,-0.017982,-0.0085287,-0.024292,-0.031905,-0.016333,0.018768,0.0046318,-0.040745,0.011339
-0.017426,-0.034594,-0.020141,-0.013814,0.011938,0.03076,0.025283,-0.019135,0.014606,-0.020812,-0.0068404,-0.0016852,-0.026827,-0.046568,0.012193,-0.018926,-0.001949,-0.0098731,-0.033038,-0.010088,0.020935,0.0015689,-0.039919,0.0088034
-0.016588,-0.027798,-0.011679,-0.0090349,0.011307,0.037407,0.03122,-0.017505,0.0099183,-0.023749,-0.0036347,-0.0021713,-0.026303,-0.042288,0.015573,-0.017652,0.0017057,0.007353,-0.036916,-0.0062739,0.0246,-0.0021081,-0.040682,0.002409
-0.012406,-0.021795,-0.004995,-0.0050967,0.012089,0.042471,0.038987,-0.016153,0.005488,-0.024987,-0.00029577,-0.0035542,-0.02696,-0.034487,0.018187,-0.015032,-0.00031086,0.023754,-0.04142,-0.0071394,0.031036,-0.0054112,-0.040604,-0.0044743
-0.0052697,-0.016877,-0.00036697,-0.0026109,0.014883,0.043836,0.045998,-0.015624,0.0021211,-0.023583,0.0012789,-0.0048877,-0.02645,-0.023336,0.01993,-0.012423,-0.0062568,0.036442,-0.043147,-0.012635,0.038875,-0.0074949,-0.037184,-0.0088539
0.0021949,-0.013398,0.0023558,-0.0019868,0.017277,0.041412,0.049796,-0.015861,0.00070347,-0.01968,0.00090628,-0.0065937,-0.023227,-0.010914,0.01996,-0.010881,-0.011714,0.043414,-0.040006,-0.020198,0.04501,-0.0079146,-0.029825,-0.009721
0.0070641,-0.011199,0.0035543,-0.0026879,0.015539,0.036924,0.05024,-0.015967,0.0017507,-0.014375,0.0001686,-0.0096314,-0.017609,4.7996e-005,0.017786,-0.010758,-0.013922,0.043247,-0.032736,-0.026124,0.047039,-0.0068929,-0.020412,-0.0082042
0.0082105,-0.0093326,0.0039216,-0.0033921,0.0081068,0.032543,0.049414,-0.015006,0.0046421,-0.009271,0.001201,-0.013665,-0.0112,0.007876,0.014311,-0.011687,-0.014482,0.035454,-0.024222,-0.027798,0.044986,-0.0054219,-0.012053,-0.0064179
0.0066519,-0.0067438,0.0044606,-0.0030224,-0.0022193,0.02944,0.049591,-0.013046,0.0076517,-0.0059069,0.005065,-0.016358,-0.0055928,0.012946,0.01176,-0.012758,-0.017649,0.021535,-0.017301,-0.025262,0.040953,-0.0048905,-0.0068553,-0.0059473
0.0041388,-0.003481,0.0060646,-0.0016184,-0.0097422,0.027224,0.051375,-0.011353,0.0091481,-0.005198,0.010827,-0.014946,-0.0015775,0.017319,0.012421,-0.012842,-0.025663,0.0054672,-0.012848,-0.02092,0.037383,-0.0062253,-0.0044271,-0.0069701
0.0017299,-0.0011512,0.0088554,-0.00015159,-0.010188,0.024433,0.053724,-0.011467,0.0089645,-0.007046,0.016049,-0.0088609,0.00077417,0.023259,0.017091,-0.01111,-0.035694,-0.0075268,-0.0095417,-0.017564,0.035647,-0.0090947,-0.0023127,-0.0084459
-0.00018468,-0.0018252,0.01186,0.00051869,-0.0042598,0.019626,0.055519,-0.013989,0.0085162,-0.010251,0.01843,-0.00089787,0.001735,0.031644,0.024425,-0.0076054,-0.041672,-0.013589,-0.0051903,-0.016184,0.03586,-0.011936,0.0018816,-0.0090818
-0.00088082,-0.006091,0.01344,0.0004786,0.0027987,0.012463,0.056863,-0.018089,0.0093657,-0.012827,0.017452,0.0044874,0.0018156,0.041334,0.031686,-0.0034648,-0.039639,-0.01235,0.0016181,-0.015298,0.037492,-0.013015,0.0083705,-0.0083384
0.00092871,-0.012001,0.012286,0.00054961,0.0053924,0.0042066,0.058814,-0.022087,0.011513,-0.01275,0.014729,0.004513,0.0018286,0.049912,0.036411,-0.00046926,-0.031623,-0.0068543,0.010735,-0.012374,0.039786,-0.011784,0.014911,-0.0067984
0.0057432,-0.016089,0.0083153,0.0012774,0.0018915,-0.0027269,0.062089,-0.024571,0.013091,-0.0089747,0.01271,0.00020972,0.0026586,0.055226,0.037888,-0.00011025,-0.024081,-0.0012806,0.020764,-0.0062913,0.041781,-0.009413,0.018739,-0.0056977
0.01171,-0.015829,0.0028753,0.0021622,-0.00459,-0.0061542,0.066348,-0.025222,0.011904,-0.0022617,0.012705,-0.0045174,0.0046884,0.056616,0.037445,-0.0027774,-0.022025,0.0017452,0.029872,0.0012135,0.04247,-0.0079759,0.019134,-0.0059988
0.015046,-0.011549,-0.0018944,0.0019204,-0.0093203,-0.0056755,0.070866,-0.024858,0.0074774,0.0047943,0.013837,-0.0061345,0.007429,0.055005,0.037387,-0.0075952,-0.024277,0.0022689,0.036468,0.0064836,0.041425,-0.00895,0.018294,-0.007683
0.012881,-0.0061543,-0.0041848,-0.00045195,-0.0098956,-0.0031846,0.075654,-0.02475,0.001758,0.0088902,0.013839,-0.0043055,0.009824,0.051952,0.039292,-0.012964,-0.02455,0.0020533,0.039621,0.0067522,0.039344,-0.012258,0.019533,-0.0097446
0.0062035,-0.0028853,-0.0035253,-0.0048053,-0.007547,-0.0016878,0.081492,-0.025607,-0.0022605,0.0078572,0.011063,-0.002002,0.010966,0.048438,0.042825,-0.017435,-0.017671,0.0027851,0.03938,0.0026211,0.037665,-0.016514,0.024172,-0.010855
-0.00014843,-0.0030013,-0.0011137,-0.0099326,-0.0051589,-0.0031809,0.088559,-0.026857,-0.0028706,0.0020527,0.0059547,-0.0029287,0.010477,0.044275,0.045844,-0.020456,-0.0051838,0.0050982,0.037015,-0.0019687,0.03725,-0.020037,0.02987,-0.010214
-0.0011014,-0.0052596,0.00077501,-0.014473,-0.0043846,-0.0073147,0.09515,-0.026747,-0.00098934,-0.0058066,0.00069181,-0.0084633,0.0082491,0.038472,0.04572,-0.022616,0.0052038,0.0089367,0.034849,-0.0025182,0.037339,-0.021709,0.032078,-0.0080263
0.004261,-0.0074397,2.5194e-005,-0.017734,-0.0046372,-0.011985,0.098212,-0.023484,0.00057982,-0.012407,-0.002708,-0.01654,0.0041229,0.030262,0.040959,-0.0252,0.0062406,0.014337,0.035401,0.0025848,0.036007,-0.021267,0.027646,-0.0053607
0.011508,-0.0083959,-0.0041614,-0.019719,-0.0044612,-0.015222,0.095696,-0.016829,-0.00069357,-0.015923,-0.0040754,-0.023195,-0.0017626,0.020116,0.032107,-0.029121,-0.0020672,0.021386,0.040044,0.010718,0.031965,-0.019304,0.017635,-0.0035464
0.014274,-0.0087975,-0.010906,-0.020529,-0.0034153,-0.016551,0.088664,-0.0089461,-0.0052372,-0.016805,-0.0049751,-0.025372,-0.0081402,0.010015,0.021448,-0.033829,-0.011857,0.029185,0.047957,0.016829,0.026069,-0.017267,0.0068856,-0.0035043
0.0095799,-0.01005,-0.018264,-0.019936,-0.0024347,-0.016675,0.081013,-0.0034895,-0.011219,-0.016774,-0.0068897,-0.022818,-0.012458,0.0026352,0.011763,-0.037127,-0.013852,0.034989,0.056151,0.0168,0.020975,-0.0171,0.00060247,-0.005364
0.00047522,-0.012597,-0.024288,-0.017718,-0.0025279,-0.016161,0.076802,-0.0031753,-0.015987,-0.01708,-0.0095009,-0.017825,-0.012224,-0.00027889,0.0048942,-0.036427,-0.0052438,0.034848,0.060798,0.0096138,0.019094,-0.02013,0.00070747,-0.0084895
-0.0063387,-0.015323,-0.027844,-0.014385,-0.003422,-0.014807,0.077445,-0.007565,-0.017873,-0.017703,-0.010889,-0.013373,-0.007073,0.00069028,0.00085611,-0.030839,0.0079737,0.025755,0.05915,-0.0031079,0.020745,-0.02568,0.0048827,-0.011798
-0.0059259,-0.016658,-0.028809,-0.0114,-0.0036605,-0.012429,0.081193,-0.013029,-0.017061,-0.018061,-0.0096315,-0.011284,0.00038358,0.0026364,-0.0020813,-0.022434,0.016191,0.0077708,0.050883,-0.019085,0.024205,-0.030815,0.0088725,-0.014165
0.0010344,-0.016312,-0.027847,-0.01035,-0.0020312,-0.0099666,0.085096,-0.015311,-0.015152,-0.018237,-0.0067868,-0.011675,0.0061697,0.0021003,-0.0063323,-0.015287,0.014189,-0.015676,0.037968,-0.036598,0.02754,-0.032145,0.0098867,-0.014782
0.0090974,-0.015889,-0.026033,-0.01165,0.0011359,-0.0092583,0.087342,-0.01287,-0.013961,-0.019222,-0.0056137,-0.013688,0.0079617,-0.0024683,-0.013401,-0.012675,0.0049704,-0.039688,0.023173,-0.053928,0.0303,-0.028575,0.0082335,-0.013429
0.012606,-0.017626,-0.02441,-0.014033,0.0040324,-0.011303,0.087778,-0.0082115,-0.014421,-0.021909,-0.0089387,-0.016504,0.0069249,-0.0094833,-0.022623,-0.014559,-0.0035435,-0.060484,0.0083488,-0.068266,0.033404,-0.022523,0.0061418,-0.010664
0.0099096,-0.022236,-0.023476,-0.015489,0.0046747,-0.014769,0.086551,-0.0058968,-0.016145,-0.026057,-0.016446,-0.019668,0.0066288,-0.015415,-0.031194,-0.017583,-0.0055279,-0.07663,-0.0061647,-0.076131,0.03749,-0.018059,0.0053135,-0.0077902
0.0038661,-0.027775,-0.022854,-0.014977,0.0022846,-0.016637,0.082819,-0.0086714,-0.017711,-0.030579,-0.024493,-0.022692,0.0099168,-0.017612,-0.035803,-0.017832,-0.0016352,-0.088176,-0.020499,-0.075635,0.041639,-0.017362,0.005681,-0.0064065
-0.001238,-0.030687,-0.021582,-0.013376,-0.00227,-0.014847,0.075297,-0.014931,-0.017472,-0.034915,-0.028875,-0.024689,0.016446,-0.016437,-0.035006,-0.014157,0.0026928,-0.09492,-0.033557,-0.068582,0.043965,-0.018784,0.0063843,-0.007583
-0.003211,-0.028343,-0.019101,-0.012692,-0.0070695,-0.010545,0.06417,-0.019764,-0.014525,-0.039808,-0.028221,-0.024663,0.022922,-0.014883,-0.030577,-0.0092347,0.002781,-0.095738,-0.042354,-0.059937,0.043531,-0.018585,0.0076625,-0.011079
-0.0028921,-0.021067,-0.016195,-0.014136,-0.01017,-0.0075711,0.052211,-0.018863,-0.009422,-0.046237,-0.025046,-0.022306,0.025578,-0.015996,-0.026527,-0.0073725,-0.0011956,-0.089745,-0.043421,-0.054528,0.041539,-0.014803,0.011452,-0.015236
-0.0022581,-0.011981,-0.014815,-0.01678,-0.010461,-0.0092592,0.04355,-0.012133,-0.0041371,-0.053429,-0.023524,-0.018455,0.02265,-0.020394,-0.026245,-0.010901,-0.0050207,-0.078113,-0.035434,-0.053593,0.040369,-0.009473,0.019813,-0.017814
-0.0020484,-0.0047432,-0.016475,-0.018057,-0.0080909,-0.015316,0.04098,-0.0039985,-0.001116,-0.05832,-0.025953,-0.014616,0.015031,-0.026005,-0.029916,-0.018202,-0.0048101,-0.064586,-0.02092,-0.054308,0.041228,-0.0068219,0.03251,-0.01733
-0.0012625,-0.0009551,-0.020395,-0.015759,-0.0043983,-0.021711,0.04431,-0.00011023,-0.0017999,-0.057721,-0.030973,-0.011859,0.0051909,-0.030051,-0.034406,-0.024988,-0.00058558,-0.053797,-0.0052531,-0.052791,0.0427,-0.0090556,0.046051,-0.013938
0.0013477,0.0006991,-0.023236,-0.009898,-0.0012806,-0.023906,0.051316,-0.0030977,-0.0055501,-0.051564,-0.034934,-0.010068,-0.0042616,-0.031318,-0.035812,-0.027642,0.0040886,-0.048503,0.0066503,-0.047872,0.041795,-0.013901,0.055328,-0.0092111
0.0056803,0.0029762,-0.021238,-0.0029106,-0.00015242,-0.020672,0.060259,-0.010724,-0.0098221,-0.04392,-0.035022,-0.0082953,-0.011313,-0.030701,-0.032611,-0.02575,0.0056126,-0.047891,0.013539,-0.042162,0.036753,-0.016506,0.056823,-0.0050313
0.010273,0.0075337,-0.01338,0.0018777,-0.0010651,-0.015111,0.071316,-0.017786,-0.011653,-0.040189,-0.031394,-0.0059049,-0.014732,-0.029823,-0.026761,-0.021858,0.0034331,-0.048276,0.018278,-0.03949,0.029114,-0.014021,0.051067,-0.0025102
0.013639,0.013414,-0.0028552,0.0023085,-0.0027029,-0.011914,0.08544,-0.020097,-0.0095419,-0.042595,-0.026711,-0.0034472,-0.014332,-0.029325,-0.02194,-0.018969,-4.8898e-005,-0.045645,0.024937,-0.041205,0.023099,-0.0084218,0.042574,-0.0017122
0.015282,0.017699,0.0047818,-0.0014548,-0.0034064,-0.01326,0.10195,-0.017343,-0.0044271,-0.048167,-0.023824,-0.002332,-0.011361,-0.028459,-0.020592,-0.018146,-0.002224,-0.038121,0.034591,-0.04487,0.022702,-0.0046639,0.037284,-0.0021969
0.015311,0.017674,0.0056746,-0.0072147,-0.0024464,-0.016971,0.11771,-0.012761,0.0009486,-0.0514,-0.023791,-0.0034718,-0.0083019,-0.026136,-0.022321,-0.018183,-0.0027356,-0.02672,0.043108,-0.046566,0.028954,-0.0058062,0.039119,-0.0037036
0.013391,0.012683,0.00071556,-0.012013,-0.00043087,-0.018535,0.12938,-0.010193,0.003824,-0.049353,-0.025705,-0.0060543,-0.0076989,-0.022195,-0.024783,-0.017311,-0.0033577,-0.014249,0.042908,-0.044592,0.03966,-0.0097654,0.047685,-0.0063249
0.0086459,0.0043127,-0.0050303,-0.013562,0.0015133,-0.015176,0.13688,-0.011068,0.0031192,-0.044449,-0.028027,-0.0076273,-0.010628,-0.017701,-0.025876,-0.015174,-0.0057674,-0.003491,0.027818,-0.041033,0.051644,-0.010945,0.058381,-0.010106
0.0010043,-0.0049532,-0.0061878,-0.01123,0.0029169,-0.0083917,0.14454,-0.013679,-5.7624e-005,-0.042191,-0.029908,-0.0056673,-0.016085,-0.014209,-0.025104,-0.013282,-0.0096975,0.0040075,-0.0022088,-0.039721,0.063277,-0.005353,0.064885,-0.014543
-0.0074427,-0.013303,-0.0011257,-0.0063147,0.0042445,-0.002828,0.15801,-0.015022,-0.0033081,-0.04586,-0.031405,0.00042978,-0.02188,-0.012815,-0.023083,-0.013704,-0.013309,0.0080769,-0.039852,-0.0425,0.074882,0.0055432,0.062719,-0.01848
-0.012964,-0.020158,0.0070252,-0.001494,0.0059663,-0.00258,0.17898,-0.013424,-0.0045352,-0.053174,-0.03271,0.0084426,-0.026254,-0.013656,-0.02012,-0.01724,-0.015189,0.009449,-0.07366,-0.047313,0.086757,0.015835,0.051919,-0.020532
-0.012775,-0.025597,0.013038,0.0004553,0.0075152,-0.0081322,0.20246,-0.0097297,-0.0031716,-0.058141,-0.033375,0.014321,-0.028815,-0.015853,-0.015595,-0.022621,-0.015754,0.0092967,-0.093758,-0.049885,0.096983,0.020119,0.037194,-0.019781
-0.0075886,-0.029522,0.013613,-0.0018217,0.007499,-0.016295,0.2193,-0.006256,-0.000334,-0.056434,-0.032282,0.014569,-0.030171,-0.017712,-0.008868,-0.027277,-0.016634,0.0089457,-0.096371,-0.047436,0.10154,0.017858,0.025266,-0.016385
-0.0015972,-0.031448,0.009563,-0.0073275,0.0052427,-0.022756,0.22249,-0.0046815,0.002084,-0.049293,-0.028348,0.0084707,-0.030976,-0.017341,-0.00074528,-0.029013,-0.018791,0.0094941,-0.084585,-0.040982,0.0971,0.013327,0.020907,-0.011746
0.00051541,-0.031004,0.0047694,-0.013059,0.0021274,-0.024821,0.21177,-0.004804,0.00273,-0.042352,-0.02138,-0.0013318,-0.031527,-0.013902,0.0061026,-0.027388,-0.021455,0.011222,-0.065563,-0.034117,0.084059,0.011526,0.024149,-0.0080562
-0.0027982,-0.028442,0.0031448,-0.015587,0.0010598,-0.022344,0.19278,-0.0051272,0.0016501,-0.04055,-0.012477,-0.010367,-0.032136,-0.0089408,0.0084157,-0.023956,-0.022963,0.013195,-0.046767,-0.029409,0.066983,0.013974,0.030509,-0.0072718
-0.0087873,-0.024505,0.0061124,-0.012988,0.0041336,-0.016836,0.17169,-0.0045037,0.00014117,-0.043847,-0.0037067,-0.014986,-0.033405,-0.0064221,0.0043677,-0.021324,-0.022525,0.013662,-0.033778,-0.025691,0.051622,0.018034,0.034037,-0.010021
-0.012726,-0.019742,0.012183,-0.006007,0.010507,-0.010252,0.15034,-0.0032103,-0.00027176,-0.047588,0.0028333,-0.014398,-0.035618,-0.010606,-0.0052753,-0.021601,-0.02094,0.0113,-0.030218,-0.018617,0.040935,0.019908,0.031022,-0.015207
-0.011702,-0.014007,0.018353,0.0022311,0.016645,-0.0045502,0.12627,-0.0025511,0.0010125,-0.047006,0.0061197,-0.010773,-0.037789,-0.022798,-0.017689,-0.025102,-0.019502,0.0065104,-0.038239,-0.0038788,0.033472,0.018214,0.021877,-0.020762
-0.006631,-0.0067989,0.021935,0.0078065,0.019008,-0.0017098,0.097188,-0.0035735,0.0032308,-0.041579,0.0067956,-0.0074554,-0.037787,-0.039567,-0.029634,-0.03007,-0.018377,0.0015894,-0.05799,0.019724,0.025399,0.014986,0.010171,-0.025131
-0.00096889,0.0017623,0.021714,0.0080768,0.016928,-0.0032776,0.064958,-0.0062444,0.0048386,-0.035335,0.0067625,-0.0066415,-0.034166,-0.05434,-0.038874,-0.033722,-0.016399,-0.00062831,-0.086249,0.049679,0.014172,0.013676,-8.977e-005,-0.028336
0.0024464,0.010256,0.01825,0.0031862,0.013095,-0.0093136,0.035103,-0.0097932,0.0046349,-0.03301,0.0079056,-0.0081823,-0.028277,-0.061521,-0.044526,-0.034115,-0.012653,0.0011968,-0.11613,0.081477,0.00054971,0.016356,-0.0067896,-0.031634
0.0034702,0.016419,0.013565,-0.0038831,0.011211,-0.017771,0.012152,-0.013643,0.0025259,-0.035709,0.010809,-0.010243,-0.02425,-0.059946,-0.046549,-0.031615,-0.0080925,0.0058064,-0.13934,0.11078,-0.012676,0.022544,-0.010159,-0.035947
0.0039434,0.01864,0.010319,-0.0089768,0.012927,-0.025321,-0.0044794,-0.01779,-0.00064678,-0.040007,0.014443,-0.011096,-0.026034,-0.05291,-0.045226,-0.02874,-0.0051095,0.010163,-0.15011,0.1347,-0.023694,0.0302,-0.011513,-0.040397
0.0052076,0.017347,0.010469,-0.0093846,0.016771,-0.029317,-0.019884,-0.022195,-0.0039638,-0.041165,0.017082,-0.010543,-0.033651,-0.045026,-0.041216,-0.028229,-0.0050971,0.011635,-0.14814,0.15251,-0.033481,0.037485,-0.01164,-0.042346
0.0064356,0.015037,0.013874,-0.0057352,0.01983,-0.029358,-0.038789,-0.025963,-0.0071334,-0.037484,0.017654,-0.0098938,-0.042299,-0.038875,-0.035924,-0.030698,-0.0063979,0.0098336,-0.13813,0.16669,-0.044873,0.043662,-0.010189,-0.039135
0.0054441,0.01466,0.017896,-0.001611,0.02045,-0.027177,-0.061038,-0.027427,-0.010424,-0.03194,0.0164,-0.010707,-0.045798,-0.034239,-0.031516,-0.033838,-0.0050908,0.0066564,-0.12619,0.18336,-0.060086,0.04873,-0.0063513,-0.030202
0.0011713,0.017469,0.018775,-0.00084298,0.019446,-0.025063,-0.081752,-0.025394,-0.014026,-0.029748,0.014336,-0.013476,-0.041817,-0.029967,-0.030155,-0.034056,0.0016127,0.0046105,-0.11617,0.21001,-0.079169,0.052602,-9.9952e-005,-0.017872
-0.0046451,0.022027,0.014225,-0.0044216,0.018915,-0.024243,-0.096032,-0.020476,-0.017637,-0.034027,0.012145,-0.017319,-0.034179,-0.026056,-0.032838,-0.029382,0.012387,0.0048647,-0.10852,0.24959,-0.10064,0.054778,0.0071162,-0.0061143
-0.0083635,0.025262,0.0053961,-0.0096104,0.020019,-0.024493,-0.10388,-0.015148,-0.020781,-0.043286,0.0095413,-0.020759,-0.029745,-0.023696,-0.038649,-0.02123,0.022233,0.0065728,-0.10228,0.2946,-0.12336,0.054678,0.012826,0.0018086
-0.0072894,0.024841,-0.0035544,-0.012202,0.021926,-0.024919,-0.11093,-0.012224,-0.023473,-0.052773,0.0055994,-0.02273,-0.032322,-0.023418,-0.045056,-0.013482,0.026274,0.007799,-0.097582,0.32709,-0.14764,0.052211,0.014891,0.005039
-0.0019933,0.021039,-0.008232,-0.010104,0.022819,-0.024918,-0.12436,-0.012958,-0.026371,-0.058457,-0.00042531,-0.022953,-0.039054,-0.023511,-0.049119,-0.0096322,0.023623,0.0070614,-0.096188,0.32756,-0.17465,0.048043,0.012884,0.0050193
0.0040278,0.016616,-0.007055,-0.0051144,0.021851,-0.024429,-0.14769,-0.016366,-0.030064,-0.06021,-0.0085886,-0.021637,-0.042775,-0.020496,-0.048894,-0.01039,0.017884,0.0042083,-0.099552,0.28819,-0.2048,0.043428,0.0085941,0.0038889
0.0071558,0.014827,-0.0021421,-0.0012541,0.020124,-0.023515,-0.17851,-0.020294,-0.034186,-0.061529,-0.018361,-0.01913,-0.038391,-0.011379,-0.04427,-0.01364,0.013964,0.0001446,-0.10654,0.22027,-0.23641,0.039713,0.0052985,0.002824
0.0065311,0.017147,0.0026211,-0.0011747,0.019739,-0.021892,-0.21061,-0.02316,-0.037396,-0.066098,-0.028898,-0.016036,-0.027517,0.0041982,-0.036967,-0.016533,0.014221,-0.0040583,-0.11339,0.14839,-0.26569,0.037754,0.0062054,0.0016652
0.0045122,0.022457,0.0046227,-0.0039188,0.02179,-0.018944,-0.23821,-0.024781,-0.038422,-0.07423,-0.038947,-0.013517,-0.017075,0.023439,-0.029843,-0.017715,0.01731,-0.0077986,-0.11628,0.094587,-0.28749,0.03752,0.012906,-1.1058e-005
0.0043423,0.028161,0.0041429,-0.0060268,0.025131,-0.01417,-0.2588,-0.025687,-0.037168,-0.082314,-0.046511,-0.013054,-0.013089,0.041484,-0.025866,-0.017844,0.02027,-0.01092,-0.11422,0.064418,-0.29671,0.038212,0.024609,-0.0015079
0.0071403,0.032163,0.0034527,-0.0048392,0.027055,-0.0076953,-0.27304,-0.025835,-0.034695,-0.085813,-0.049021,-0.015441,-0.015378,0.053125,-0.027065,-0.018297,0.021323,-0.013319,-0.11015,0.046373,-0.28983,0.038992,0.038434,-0.000756
0.010926,0.034078,0.0045394,-0.00087895,0.025393,-0.00047439,-0.28247,-0.024155,-0.032088,-0.083205,-0.04453,-0.019787,-0.01802,0.054396,-0.033778,-0.019555,0.020611,-0.014756,-0.10931,0.024773,-0.26668,0.039839,0.050497,0.0043228
0.012532,0.03486,0.0075597,0.0027901,0.020345,0.0059346,-0.2876,-0.019423,-0.029462,-0.077411,-0.033365,-0.023655,-0.015076,0.043944,-0.044605,-0.020772,0.018685,-0.015146,-0.11672,-0.0052854,-0.23145,0.041725,0.057295,0.013829
0.010588,0.035421,0.011078,0.0034473,0.014542,0.0099667,-0.28789,-0.011607,-0.026308,-0.073431,-0.018849,-0.024609,-0.0061908,0.024023,-0.057192,-0.020716,0.015024,-0.015052,-0.13546,-0.033956,-0.19199,0.04568,0.056897,0.024996
0.0067878,0.035553,0.013381,0.0010943,0.011199,0.010799,-0.28337,-0.0023578,-0.02286,-0.074193,-0.0060022,-0.022039,0.003096,0.00031973,-0.069468,-0.018994,0.0086399,-0.015768,-0.16597,-0.046467,-0.15703,0.051402,0.049554,0.033389
0.0042246,0.034061,0.013448,-0.0017437,0.01174,0.0088837,-0.27618,0.0058462,-0.020815,-0.078192,0.0012575,-0.017673,0.0065056,-0.020129,-0.080443,-0.01641,0.00016268,-0.018649,-0.20592,-0.03707,-0.13262,0.056752,0.037527,0.03553
0.0044064,0.029901,0.010971,-0.0024127,0.014714,0.0058659,-0.27016,0.011187,-0.02219,-0.080815,0.0024881,-0.01422,0.0027082,-0.032335,-0.089924,-0.014248,-0.0072035,-0.023976,-0.25016,-0.014239,-0.12004,0.058914,0.024157,0.031106
0.0058043,0.023305,0.0059996,-0.00047262,0.016913,0.0037918,-0.26851,0.01344,-0.027035,-0.078108,0.00076637,-0.013241,-0.0037081,-0.035963,-0.097402,-0.013247,-0.0095589,-0.030258,-0.29173,0.0069607,-0.1168,0.056461,0.012599,0.023132
0.0053816,0.015915,-0.0009851,0.001984,0.015862,0.0039453,-0.27104,0.01377,-0.032293,-0.069752,0.00022436,-0.014062,-0.006668,-0.035016,-0.10126,-0.013118,-0.0056927,-0.034742,-0.32448,0.017397,-0.12002,0.050516,0.0048453,0.015999
0.0016657,0.0098102,-0.008655,0.0021142,0.011757,0.0060126,-0.27347,0.013765,-0.033405,-0.058993,0.0029536,-0.01458,-0.0040722,-0.034571,-0.099344,-0.01287,0.0013198,-0.035035,-0.34624,0.019469,-0.12943,0.043821,0.0014551,0.012821
-0.0036242,0.0062137,-0.014862,-0.0014098,0.0072328,0.008141,-0.26988,0.014537,-0.027816,-0.049924,0.0077112,-0.013164,0.00079471,-0.036996,-0.090635,-0.011591,0.0062435,-0.030707,-0.35985,0.021469,-0.1475,0.038404,0.0018801,0.013897
-0.0070652,0.0049277,-0.017591,-0.007419,0.0051392,0.0079253,-0.25693,0.016395,-0.017453,-0.044576,0.011376,-0.0099755,0.0028836,-0.040665,-0.076747,-0.0091558,0.0059433,-0.02356,-0.37058,0.027324,-0.17623,0.033931,0.0048894,0.017149
-0.0068126,0.0049523,-0.01625,-0.013093,0.0061544,0.0037586,-0.23662,0.019022,-0.0078098,-0.04197,0.011799,-0.0066933,0.00019034,-0.042089,-0.061683,-0.0064888,0.0019546,-0.016232,-0.38148,0.032158,-0.21325,0.028333,0.0088127,0.019949
-0.0045327,0.0056979,-0.012123,-0.015804,0.0083081,-0.004263,-0.21527,0.021813,-0.0040119,-0.03942,0.0096082,-0.0050742,-0.0049018,-0.039436,-0.049817,-0.0052226,-0.0010612,-0.010164,-0.39045,0.027506,-0.25033,0.020232,0.011818,0.020866
-0.0040043,0.0076339,-0.007487,-0.01464,0.0088237,-0.01442,-0.19923,0.024188,-0.0069641,-0.034623,0.0075476,-0.0056114,-0.0086419,-0.03429,-0.043503,-0.0068435,0.00040483,-0.0045891,-0.39185,0.010278,-0.27607,0.01097,0.012578,0.020082
-0.0075401,0.011661,-0.0041353,-0.010784,0.0066189,-0.024356,-0.19083,0.025919,-0.012753,-0.026949,0.0081524,-0.0072602,-0.0097886,-0.030192,-0.042119,-0.011711,0.0056545,0.0026297,-0.38165,-0.013818,-0.28115,0.0042759,0.011129,0.018355
-0.01353,0.017697,-0.0025992,-0.0067394,0.0031695,-0.032329,-0.18766,0.027422,-0.015802,-0.017366,0.011892,-0.0081937,-0.010241,-0.02949,-0.043154,-0.018561,0.010737,0.013071,-0.36145,-0.035616,-0.26282,0.0036441,0.0091028,0.015607
-0.017506,0.023866,-0.0026135,-0.0049534,0.00095438,-0.03792,-0.18553,0.029768,-0.013139,-0.0075622,0.017267,-0.0068723,-0.011988,-0.03141,-0.04419,-0.024929,0.012387,0.026326,-0.33794,-0.05095,-0.22573,0.009524,0.0087107,0.0106
-0.015926,0.027297,-0.0040776,-0.006537,0.00098439,-0.041783,-0.18204,0.034143,-0.0063084,0.00089415,0.022448,-0.0027794,-0.013957,-0.032996,-0.044047,-0.028305,0.01111,0.040103,-0.31792,-0.063588,-0.17919,0.018677,0.010955,0.0022892
-0.0093317,0.026146,-0.0073139,-0.0107,0.0018044,-0.04467,-0.17757,0.040948,0.00042583,0.00696,0.026704,0.0033624,-0.012508,-0.031853,-0.042349,-0.027313,0.010494,0.051415,-0.30356,-0.079682,-0.13278,0.026291,0.014593,-0.0080475
-0.0020365,0.021158,-0.01228,-0.015221,0.0009436,-0.04654,-0.17306,0.049189,0.0037504,0.010164,0.030352,0.0098048,-0.005422,-0.028077,-0.038474,-0.022241,0.013503,0.057621,-0.29182,-0.099197,-0.093091,0.029158,0.016993,-0.015953
0.0014031,0.015347,-0.017665,-0.017751,-0.0025927,-0.046504,-0.16732,0.056763,0.0036196,0.010516,0.033581,0.01437,0.0046625,-0.023741,-0.031475,-0.014817,0.019427,0.056605,-0.27833,-0.11282,-0.06275,0.027374,0.016402,-0.015659
-0.00020082,0.011923,-0.021106,-0.017172,-0.0072198,-0.043738,-0.15696,0.061631,0.0024978,0.0083754,0.035621,0.015392,0.011268,-0.020636,-0.021373,-0.0075841,0.024487,0.046713,-0.26146,-0.1079,-0.041239,0.023308,0.013623,-0.0040553
-0.0040921,0.012153,-0.020705,-0.014069,-0.010147,-0.03865,-0.13917,0.063099,0.0026649,0.0043242,0.035245,0.012675,0.0091709,-0.018541,-0.010455,-0.0031144,0.025497,0.027448,-0.24254,-0.078711,-0.026297,0.018927,0.011454,0.016011
