2.6046e-010,4.5339e-010,4.9969e-010,7.5436e-010,2.6046e-010,5.1512e-010,4.1094e-010,6.9262e-010,4.6496e-010,4.9969e-010,5.8072e-010,8.9327e-010,-1.6785e-010,5.3828e-010,6.9648e-010,8.0452e-010,-1.254e-010,4.7654e-010,8.0838e-010,6.2317e-010,-3.4149e-010,2.7975e-010,7.1191e-010,7.9294e-010
6.9118e-009,1.2482e-008,1.4055e-008,2.1039e-008,7.1009e-009,1.4146e-008,1.1379e-008,1.929e-008,1.2991e-008,1.3546e-008,1.5862e-008,2.4773e-008,-4.5573e-009,1.4975e-008,1.9354e-008,2.202e-008,-3.5271e-009,1.3238e-008,2.235e-008,1.7251e-008,-9.2436e-009,7.3794e-009,1.9688e-008,2.2182e-008
8.9099e-008,1.6686e-007,1.9229e-007,2.8511e-007,9.3915e-008,1.8856e-007,1.5353e-007,2.6098e-007,1.7659e-007,1.7857e-007,2.1068e-007,3.3395e-007,-6.02e-008,2.0255e-007,2.6138e-007,2.9305e-007,-4.83e-008,1.7906e-007,3.004e-007,2.3229e-007,-1.2167e-007,9.4379e-008,2.6475e-007,3.0161e-007
7.4335e-007,1.4427e-006,1.7044e-006,2.5011e-006,8.0279e-007,1.6253e-006,1.345e-006,2.2851e-006,1.5554e-006,1.5254e-006,1.8129e-006,2.9151e-006,-5.1547e-007,1.7746e-006,2.2853e-006,2.5266e-006,-4.2894e-007,1.5714e-006,2.6152e-006,2.0269e-006,-1.0377e-006,7.7985e-007,2.3062e-006,2.6556e-006
4.5114e-006,9.0657e-006,1.1001e-005,1.5964e-005,4.9851e-006,1.0181e-005,8.6012e-006,1.4555e-005,9.9743e-006,9.4916e-006,1.1363e-005,1.8518e-005,-3.2154e-006,1.132e-005,1.4539e-005,1.5861e-005,-2.776e-006,1.0056e-005,1.6575e-005,1.2882e-005,-6.4441e-006,4.681e-006,1.4626e-005,1.7017e-005
2.1222e-005,4.4107e-005,5.5075e-005,7.898e-005,2.3964e-005,4.9376e-005,4.2782e-005,7.1857e-005,4.9598e-005,4.5848e-005,5.5282e-005,9.1205e-005,-1.5565e-005,5.6018e-005,7.1702e-005,7.7245e-005,-1.3947e-005,5.0004e-005,8.1491e-005,6.354e-005,-3.1048e-005,2.1763e-005,7.1945e-005,8.4553e-005
8.0494e-005,0.00017279,0.00022244,0.00031507,9.2777e-005,0.00019286,0.0001722,0.00028604,0.00019881,0.00017888,0.00021723,0.00036222,-6.08e-005,0.00022371,0.00028509,0.00030356,-5.6583e-005,0.00020098,0.00032333,0.00025299,-0.00012069,8.1619e-005,0.00028552,0.00033887
0.0002528,0.00055948,0.00074402,0.0010405,0.00029715,0.00062285,0.00057602,0.00094275,0.00065917,0.00057908,0.00070823,0.0011909,-0.00019666,0.00074024,0.00093827,0.00098833,-0.00019032,0.00067056,0.0010631,0.00083484,-0.00038841,0.00025405,0.00093852,0.0011248
0.00066974,0.0015248,0.0020987,0.0028979,0.00080237,0.0016941,0.0016312,0.0026209,0.0018395,0.0015852,0.0019525,0.0033008,-0.000536,0.0020673,0.0026029,0.0027152,-0.00054076,0.0018921,0.0029513,0.0023256,-0.0010532,0.00067057,0.0026024,0.0031498
0.001517,0.003542,0.0050556,0.0068946,0.0018519,0.003931,0.0039623,0.0062273,0.0043711,0.00372,0.0046149,0.0078122,-0.0012452,0.0049357,0.0061645,0.0063755,-0.0013152,0.0045756,0.007008,0.0055398,-0.0024335,0.0015276,0.0061652,0.0075384
0.0029663,0.0070724,0.010488,0.014137,0.0036897,0.0078491,0.0083312,0.012762,0.0089063,0.0075583,0.0094444,0.015924,-0.0024816,0.01016,0.012569,0.012905,-0.002764,0.0095736,0.014364,0.011383,-0.0048179,0.0030507,0.012586,0.015558
0.0050424,0.012197,0.018826,0.025114,0.0063914,0.013555,0.01525,0.022693,0.015599,0.01339,0.016851,0.028096,-0.0042475,0.018115,0.022172,0.022636,-0.0050509,0.017444,0.025558,0.020282,-0.0081689,0.0054202,0.022254,0.027838
0.0074926,0.018196,0.029269,0.038737,0.0096699,0.02028,0.024368,0.035116,0.023426,0.020785,0.026331,0.042989,-0.006207,0.027997,0.033886,0.034467,-0.0080541,0.027793,0.039579,0.031398,-0.011745,0.0086918,0.034138,0.043281
0.0097854,0.023429,0.039294,0.051807,0.012812,0.026218,0.033989,0.047314,0.029879,0.028365,0.036112,0.05696,-0.0076027,0.037353,0.044778,0.045494,-0.011216,0.038806,0.053317,0.04218,-0.013912,0.012753,0.045352,0.05839
0.011331,0.025874,0.045175,0.059773,0.014879,0.029068,0.041263,0.055412,0.031682,0.034147,0.043493,0.065041,-0.0074333,0.042532,0.050863,0.051805,-0.013615,0.047551,0.062249,0.048927,-0.012486,0.017314,0.051886,0.067988
0.011853,0.024243,0.043784,0.058959,0.01515,0.027221,0.043379,0.056271,0.026639,0.036499,0.045998,0.06351,-0.0049223,0.040344,0.049233,0.050537,-0.014351,0.051288,0.06257,0.04857,-0.0056945,0.021904,0.050639,0.067616
0.011653,0.019021,0.034868,0.049188,0.013543,0.02095,0.039326,0.049651,0.015641,0.035213,0.042804,0.052679,-7.1067e-005,0.030226,0.040411,0.042094,-0.013098,0.049244,0.053762,0.040796,0.0066331,0.025875,0.041735,0.056549
0.01151,0.012537,0.022115,0.034795,0.010723,0.012666,0.03104,0.038942,0.0031483,0.031865,0.035462,0.037606,0.0060886,0.015427,0.029019,0.030747,-0.010453,0.043587,0.039674,0.028896,0.022485,0.028509,0.029288,0.039226
0.012159,0.007751,0.011658,0.022666,0.0077582,0.0057562,0.022757,0.029408,-0.0049664,0.028913,0.027167,0.025424,0.011818,0.0018933,0.02153,0.022507,-0.0077564,0.038546,0.026755,0.018215,0.038358,0.029336,0.019446,0.023438
0.013679,0.0064885,0.0084421,0.018066,0.0055631,0.0026044,0.018544,0.024769,-0.0052418,0.027971,0.020865,0.020619,0.015488,-0.004982,0.022037,0.021234,-0.0063472,0.037902,0.020121,0.012846,0.051072,0.028565,0.016545,0.015833
0.015249,0.0084417,0.012863,0.021136,0.0045015,0.0031435,0.019541,0.024624,0.00064259,0.028531,0.01752,0.021851,0.016425,-0.0037269,0.028994,0.025794,-0.0066809,0.04248,0.020195,0.012962,0.059535,0.027219,0.020079,0.017699
0.015517,0.011729,0.020375,0.026946,0.0043702,0.0050585,0.023095,0.024949,0.0067792,0.028331,0.015872,0.023232,0.015251,0.0022647,0.035803,0.030785,-0.0079267,0.04958,0.022677,0.015031,0.065057,0.026628,0.025073,0.024269
0.013438,0.014473,0.024744,0.029371,0.00466,0.0055719,0.024718,0.021567,0.0073845,0.025352,0.013949,0.019445,0.013482,0.0071819,0.035368,0.030703,-0.008395,0.054924,0.022122,0.014968,0.06979,0.027398,0.025877,0.028313
0.0090633,0.016003,0.022622,0.025852,0.0048287,0.0035154,0.021523,0.0138,0.0013071,0.01988,0.011052,0.010501,0.012618,0.0069213,0.025394,0.02437,-0.0065976,0.0557,0.016301,0.011612,0.074448,0.028596,0.020489,0.025367
0.0037539,0.016719,0.015862,0.019124,0.0044606,0.00015251,0.014408,0.0051702,-0.0071101,0.014744,0.0084782,0.0018263,0.01325,0.0016918,0.010206,0.015841,-0.0022924,0.052393,0.0077233,0.0074752,0.077324,0.028003,0.011844,0.016522
-0.0004119,0.017041,0.0097061,0.014428,0.0033953,-0.0018276,0.0071328,0.00041329,-0.011677,0.013174,0.0082513,-0.00066346,0.014746,-0.0048836,-0.0025293,0.010863,0.0031556,0.048049,0.0010913,0.0060442,0.075698,0.023502,0.0049642,0.0067561
-0.0018019,0.016685,0.0083777,0.014631,0.0018902,-0.00033018,0.0030851,0.001342,-0.0094201,0.015864,0.010944,0.0038258,0.01568,-0.0091487,-0.0076346,0.011848,0.0073682,0.04571,-0.00087707,0.0081069,0.068575,0.014675,0.0024677,0.00049789
-0.00029949,0.015064,0.011766,0.017569,0.00065825,0.0046454,0.0025551,0.0051675,-0.0026826,0.019858,0.014606,0.0098516,0.014804,-0.010184,-0.0059979,0.015792,0.0082143,0.046053,0.00054507,0.010571,0.05826,0.0033305,0.0024016,-0.0016697
0.0024845,0.01228,0.015857,0.017991,0.00053068,0.011068,0.0028965,0.0067725,0.0034163,0.02055,0.015945,0.010349,0.01193,-0.0096795,-0.0030173,0.017018,0.0050613,0.046947,0.0018935,0.0090217,0.04896,-0.0074967,0.00033669,-0.0026086
0.0041896,0.0095376,0.016322,0.012351,0.0018037,0.016288,0.0013313,0.0029624,0.0055686,0.015427,0.012938,0.0028954,0.0081314,-0.0095054,-0.0034379,0.012249,-0.0007047,0.045023,0.0010566,0.0017976,0.043313,-0.015283,-0.0061741,-0.0053828
0.0033651,0.0083653,0.012075,0.0020999,0.0037767,0.018608,-0.0022547,-0.0049457,0.0045836,0.0064309,0.0066049,-0.0080917,0.0050542,-0.0096984,-0.0072192,0.0034439,-0.0062752,0.037961,-0.0010442,-0.0081029,0.039911,-0.019151,-0.01482,-0.010403
0.0006182,0.0093153,0.005886,-0.0074765,0.0050394,0.017886,-0.005152,-0.012284,0.0035008,-0.0012439,0.00034282,-0.015262,0.0037724,-0.0088364,-0.010052,-0.0040548,-0.0089179,0.025934,-0.0021629,-0.015113,0.034408,-0.019709,-0.020057,-0.015432
-0.0017772,0.011332,0.0018036,-0.011803,0.0044738,0.015007,-0.0044719,-0.014777,0.0037716,-0.0031328,-0.002736,-0.014792,0.0040172,-0.0061101,-0.0078894,-0.0061759,-0.0075649,0.011471,-0.0017934,-0.015485,0.023662,-0.018096,-0.017768,-0.018041
-0.0017238,0.012374,0.0018038,-0.010799,0.002192,0.010997,-0.00012593,-0.011685,0.0035759,0.0009495,-0.0021757,-0.0095381,0.004415,-0.0026257,-0.0011974,-0.0033047,-0.0034804,-0.0019913,-0.0021689,-0.010276,0.0093102,-0.015272,-0.0090793,-0.017944
0.00076155,0.010759,0.0044161,-0.0085472,-0.00047675,0.0066641,0.0046951,-0.0059651,1.5402e-005,0.0067185,-0.00023845,-0.0061275,0.003623,-0.00043618,0.0050719,0.00062654,0.00052953,-0.011893,-0.0059858,-0.0044544,-0.0027484,-0.012052,-6.8354e-006,-0.017066
0.0031735,0.0062035,0.0061559,-0.0093424,-0.0020496,0.0028482,0.0061132,-0.0017392,-0.0071486,0.0087299,0.00030377,-0.008829,0.001521,-0.00036964,0.0058369,0.0018703,0.0019541,-0.017681,-0.013173,-0.0029207,-0.0069787,-0.0094077,0.0029231,-0.017558
0.0022494,-8.2062e-005,0.0042791,-0.013816,-0.0021003,0.00064769,0.0029623,-0.0013579,-0.014248,0.0044804,-0.0014185,-0.015851,-0.00050316,-0.0010708,0.00057288,-0.0002063,0.00023965,-0.020707,-0.020214,-0.0067431,-0.0030464,-0.0082946,-0.0024557,-0.019814
-0.0033861,-0.006123,-0.0013613,-0.018613,-0.0015173,0.0010061,-0.0020749,-0.0042558,-0.016555,-0.0039305,-0.003902,-0.021307,-0.00049597,-0.00036842,-0.0060202,-0.0034111,-0.0029127,-0.023023,-0.023078,-0.012584,0.0035527,-0.0089266,-0.012481,-0.022286
-0.011759,-0.010169,-0.0084757,-0.01968,-0.0015879,0.0038419,-0.004687,-0.0080076,-0.012668,-0.011692,-0.0050015,-0.020802,0.002505,0.0024299,-0.0080603,-0.0054126,-0.0048451,-0.02592,-0.021098,-0.015599,0.0058518,-0.010285,-0.020658,-0.02306
-0.018592,-0.011431,-0.013979,-0.016005,-0.0028079,0.0075864,-0.0026093,-0.010345,-0.0061627,-0.014988,-0.0040792,-0.015406,0.0074393,0.0057187,-0.003618,-0.0059785,-0.0038537,-0.029201,-0.017971,-0.013307,0.00094953,-0.01068,-0.022581,-0.021573
-0.020243,-0.0103,-0.015769,-0.01052,-0.0045318,0.0098034,0.0024579,-0.010556,-0.002747,-0.013534,-0.0025244,-0.010501,0.011556,0.0071122,0.0036586,-0.0068181,-0.00024525,-0.031722,-0.01867,-0.0073163,-0.0082572,-0.009178,-0.018887,-0.018946
-0.016374,-0.0080106,-0.013653,-0.0076261,-0.0056827,0.008634,0.0063441,-0.0095536,-0.0054447,-0.010161,-0.0022818,-0.010762,0.012017,0.0057508,0.0078217,-0.009608,0.0042245,-0.032691,-0.02496,-0.0017357,-0.016613,-0.0066731,-0.014142,-0.016788
-0.010267,-0.005942,-0.0092005,-0.0097662,-0.0056988,0.0040188,0.0059417,-0.0089472,-0.012241,-0.008127,-0.0039575,-0.015958,0.0077639,0.0031042,0.0057923,-0.01433,0.0079455,-0.032634,-0.033671,0.0001653,-0.022051,-0.0054293,-0.012927,-0.0157
-0.0064413,-0.0049685,-0.0048478,-0.015921,-0.0048103,-0.0022425,0.0016345,-0.0099385,-0.018239,-0.0085405,-0.0063917,-0.021265,0.00036775,0.0015724,-0.00017102,-0.019343,0.010629,-0.033171,-0.039352,-0.0017872,-0.027663,-0.0071861,-0.016347,-0.014852
-0.0073176,-0.0052296,-0.0026866,-0.022844,-0.0036032,-0.007621,-0.0034444,-0.012662,-0.020108,-0.009942,-0.00804,-0.021581,-0.0067882,0.0023634,-0.004723,-0.022765,0.01303,-0.035753,-0.038933,-0.0051452,-0.038667,-0.011342,-0.021532,-0.012988
-0.011428,-0.0063675,-0.0034581,-0.027483,-0.0025728,-0.010314,-0.0064603,-0.016185,-0.018613,-0.010125,-0.0086874,-0.015899,-0.010547,0.0046563,-0.0041902,-0.0237,0.015561,-0.040404,-0.034229,-0.0072463,-0.057315,-0.014892,-0.024111,-0.0099288
-0.014595,-0.0078711,-0.006262,-0.028512,-0.0021393,-0.010024,-0.007294,-0.019044,-0.017076,-0.0084064,-0.0097014,-0.0080416,-0.009922,0.0066004,0.00042159,-0.022423,0.017277,-0.045516,-0.030175,-0.0072505,-0.080532,-0.014424,-0.021447,-0.007199
-0.013235,-0.0091532,-0.0092365,-0.026238,-0.0028007,-0.0076968,-0.0080934,-0.02004,-0.017635,-0.0062925,-0.012521,-0.0034607,-0.0066412,0.00693,0.0046248,-0.019857,0.016446,-0.048892,-0.030515,-0.0061736,-0.10211,-0.0086725,-0.014235,-0.0070667
-0.0073297,-0.0094395,-0.010847,-0.021796,-0.0048472,-0.0046619,-0.010541,-0.018922,-0.019124,-0.0060231,-0.016872,-0.0050639,-0.0038778,0.005686,0.0044919,-0.017113,0.012385,-0.049227,-0.034754,-0.0053059,-0.11682,0.00044742,-0.00558,-0.010625
-0.00074815,-0.0079362,-0.010908,-0.016711,-0.0077649,-0.0019116,-0.013668,-0.016607,-0.018529,-0.0084044,-0.020533,-0.011445,-0.0039911,0.0037359,-0.00015368,-0.015335,0.0068271,-0.04694,-0.038845,-0.0048134,-0.12255,0.0092246,0.0013313,-0.016453
0.0014194,-0.0045078,-0.010568,-0.012915,-0.010201,7.6261e-005,-0.014526,-0.014702,-0.01435,-0.011962,-0.021021,-0.01847,-0.0068234,0.0019756,-0.0060424,-0.015436,0.0032207,-0.043797,-0.038763,-0.0038646,-0.1191,0.014812,0.0051198,-0.021117
-0.0033963,-0.00035829,-0.011266,-0.012373,-0.011002,0.00112,-0.01124,-0.01452,-0.0084255,-0.014182,-0.017707,-0.022412,-0.0098029,0.0010488,-0.0096443,-0.017505,0.0041819,-0.041691,-0.033827,-0.0019476,-0.10633,0.017001,0.006449,-0.021368
-0.013228,0.0021817,-0.013467,-0.015916,-0.010552,0.0011393,-0.005469,-0.016179,-0.0044733,-0.013658,-0.012448,-0.022069,-0.0099048,0.0014852,-0.010183,-0.020354,0.0092389,-0.041514,-0.027109,0.00014531,-0.084393,0.017791,0.0068298,-0.016484
-0.022837,0.0010661,-0.016194,-0.022139,-0.010873,0.00021515,-0.0017195,-0.018497,-0.004907,-0.011122,-0.0081757,-0.018711,-0.0061514,0.0036288,-0.009868,-0.02193,0.015034,-0.042863,-0.02288,0.00076682,-0.056002,0.01936,0.007198,-0.0089264
-0.027335,-0.0037575,-0.017706,-0.027695,-0.013915,-0.0012399,-0.003814,-0.019869,-0.0090261,-0.0084628,-0.0067438,-0.014646,-0.00076012,0.0071998,-0.011417,-0.020633,0.018072,-0.044684,-0.023293,-0.0010852,-0.027341,0.02232,0.0073871,-0.0027224
-0.025433,-0.0098399,-0.016838,-0.029305,-0.019358,-0.0025074,-0.011586,-0.019516,-0.014078,-0.0067646,-0.007918,-0.011847,0.0021604,0.011095,-0.015351,-0.016601,0.017668,-0.046224,-0.026915,-0.004665,-0.0053226,0.025598,0.0066858,-0.00075357
-0.019921,-0.013639,-0.014003,-0.026036,-0.024162,-0.0029043,-0.020781,-0.01803,-0.017766,-0.0053396,-0.010171,-0.011367,-0.00032745,0.013983,-0.019509,-0.011837,0.016381,-0.04754,-0.03003,-0.0078664,0.0073207,0.027718,0.0047612,-0.0030027
-0.015151,-0.012945,-0.011067,-0.019888,-0.02471,-0.0022301,-0.026288,-0.016681,-0.019561,-0.0027219,-0.01225,-0.013283,-0.0074149,0.015339,-0.021062,-0.0089688,0.017411,-0.049142,-0.02953,-0.008836,0.0145,0.028079,0.0020778,-0.0070116
-0.013658,-0.0084375,-0.010121,-0.0141,-0.019912,-0.0009622,-0.025919,-0.016064,-0.019827,0.0013817,-0.013944,-0.016736,-0.014649,0.015858,-0.019051,-0.0095731,0.021314,-0.051143,-0.025134,-0.0074669,0.023767,0.027221,-0.00042309,-0.010038
-0.014565,-0.0031462,-0.011944,-0.010708,-0.01245,-6.9815e-006,-0.021578,-0.015421,-0.018303,0.0051948,-0.015515,-0.020137,-0.016996,0.016659,-0.015208,-0.013302,0.025137,-0.052706,-0.019315,-0.0055528,0.039836,0.026275,-0.0019007,-0.011116
-0.014899,-0.0002647,-0.015327,-0.0095436,-0.0068651,-0.00013874,-0.017217,-0.01342,-0.014114,0.0060867,-0.016769,-0.021886,-0.012691,0.017956,-0.012498,-0.018304,0.024905,-0.052419,-0.015157,-0.005499,0.060206,0.026465,-0.0018546,-0.011475
-0.01253,-0.0010623,-0.017869,-0.0093808,-0.0059844,-0.0014835,-0.015692,-0.0097347,-0.0075372,0.0029406,-0.016963,-0.021423,-0.0048085,0.018606,-0.01281,-0.022417,0.019243,-0.049417,-0.013901,-0.0085909,0.076865,0.028977,2.8061e-005,-0.0132
-0.0081911,-0.0043831,-0.017796,-0.0097879,-0.0087834,-0.0033787,-0.017256,-0.0058344,-0.0013481,-0.0024717,-0.015714,-0.01979,0.00091719,0.017227,-0.01576,-0.024232,0.010859,-0.044312,-0.014142,-0.014054,0.082624,0.034646,0.0039295,-0.017427
-0.0049017,-0.0078268,-0.015415,-0.011627,-0.011475,-0.0047066,-0.020421,-0.0040113,0.00039806,-0.0064739,-0.01378,-0.018924,0.00044662,0.013943,-0.019371,-0.023533,0.0045266,-0.039027,-0.013272,-0.019467,0.076398,0.042939,0.0094787,-0.023564
-0.0052698,-0.0094455,-0.012967,-0.015703,-0.010791,-0.0045173,-0.023717,-0.0054067,-0.0043245,-0.0061546,-0.012672,-0.020016,-0.005509,0.010949,-0.021809,-0.021199,0.00341,-0.035505,-0.0099066,-0.022163,0.062894,0.05091,0.015154,-0.029992
-0.0089676,-0.0086766,-0.012846,-0.021114,-0.0065736,-0.0025825,-0.026448,-0.0088967,-0.01312,-0.0015743,-0.01333,-0.022303,-0.012222,0.010973,-0.022697,-0.018805,0.0068954,-0.034277,-0.0051942,-0.02068,0.047471,0.053707,0.018334,-0.035438
-0.012601,-0.0061256,-0.015601,-0.025253,-0.0016064,0.00044875,-0.028123,-0.01199,-0.020353,0.0042779,-0.015201,-0.023552,-0.014843,0.014698,-0.023099,-0.018015,0.01159,-0.034077,-0.0018298,-0.015461,0.031386,0.047329,0.016499,-0.039786
-0.01226,-0.0027655,-0.019418,-0.025704,0.00091103,0.0033831,-0.027827,-0.012971,-0.021339,0.0077174,-0.016662,-0.02203,-0.01221,0.019473,-0.024458,-0.019789,0.014261,-0.032809,-0.0015966,-0.0084937,0.011991,0.032081,0.0090063,-0.043738
-0.0067467,0.00065698,-0.021583,-0.022311,-0.00010774,0.0050935,-0.024741,-0.012295,-0.016007,0.0069877,-0.016391,-0.018249,-0.0074625,0.020827,-0.027419,-0.023685,0.014047,-0.029061,-0.003598,-0.0022278,-0.012606,0.013624,-0.0019473,-0.047813
0.0012606,0.0036973,-0.020666,-0.017417,-0.0031623,0.0050214,-0.019456,-0.01197,-0.0087471,0.0032487,-0.014313,-0.01479,-0.0051297,0.015931,-0.031364,-0.027793,0.012328,-0.022973,-0.0048068,0.0015552,-0.039364,-0.00013481,-0.012276,-0.051669
0.0072256,0.006041,-0.01753,-0.014015,-0.0058353,0.0032976,-0.01451,-0.013603,-0.0045613,-0.00070582,-0.011351,-0.014134,-0.0072932,0.0062574,-0.034847,-0.029633,0.010971,-0.015966,-0.0025252,0.0023018,-0.061191,-0.0046405,-0.018499,-0.05435
0.0083537,0.0074757,-0.014328,-0.013484,-0.0068853,0.00051139,-0.013104,-0.016984,-0.0049897,-0.0028204,-0.0085123,-0.016384,-0.012029,-0.0029542,-0.036558,-0.027655,0.010877,-0.0098118,0.0033821,0.00052286,-0.072489,-0.0023708,-0.020021,-0.055175
0.0056728,0.0080761,-0.012556,-0.014888,-0.0069286,-0.0026188,-0.016764,-0.020398,-0.0073706,-0.0032797,-0.0063505,-0.01897,-0.015231,-0.0063088,-0.036196,-0.02239,0.011988,-0.0058314,0.010437,-0.0027572,-0.074222,-0.0011984,-0.019348,-0.054462
0.0027405,0.0083131,-0.012036,-0.016255,-0.0073509,-0.0054687,-0.023955,-0.022159,-0.0078359,-0.0040016,-0.0051478,-0.01876,-0.014027,-0.0022319,-0.034734,-0.016323,0.014151,-0.0045761,0.015666,-0.0064563,-0.073514,-0.008294,-0.019984,-0.053445
0.0021466,0.0088128,-0.011703,-0.016457,-0.0087075,-0.0076365,-0.030972,-0.021835,-0.00501,-0.0066848,-0.0051189,-0.014775,-0.0088719,0.0058746,-0.033856,-0.012403,0.017445,-0.0057698,0.017904,-0.0096167,-0.077674,-0.024412,-0.023707,-0.053419
0.0030658,0.0098597,-0.011203,-0.01597,-0.010189,-0.0090634,-0.034522,-0.02024,-0.0009397,-0.011137,-0.0060353,-0.0091187,-0.0027651,0.012274,-0.034838,-0.012089,0.021466,-0.0082973,0.018216,-0.011519,-0.087869,-0.043361,-0.029492,-0.054767
0.0022214,0.011087,-0.011484,-0.016005,-0.010565,-0.010059,-0.033884,-0.018569,0.0014037,-0.015283,-0.0066989,-0.0052833,0.0013784,0.013216,-0.037559,-0.014291,0.024488,-0.010424,0.01819,-0.011951,-0.098143,-0.057141,-0.034931,-0.05655
-0.0025768,0.011725,-0.0137,-0.01704,-0.0095552,-0.011009,-0.030986,-0.017603,0.0014201,-0.016749,-0.0052982,-0.0053132,0.0027943,0.0094368,-0.040432,-0.016088,0.023852,-0.010536,0.017919,-0.011482,-0.10077,-0.0623,-0.038757,-0.056926
-0.0096928,0.011279,-0.017602,-0.018204,-0.0081822,-0.011795,-0.028515,-0.017494,0.0016942,-0.0146,-0.0008635,-0.0082347,0.0027706,0.0048676,-0.041444,-0.01486,0.017775,-0.0082032,0.015751,-0.011307,-0.093192,-0.062017,-0.042045,-0.054093
-0.014492,0.010034,-0.021269,-0.018028,-0.0077497,-0.011452,-0.027776,-0.017872,0.005535,-0.0097798,0.0054268,-0.010988,0.0028941,0.0028304,-0.039643,-0.010398,0.0071582,-0.0047816,0.010119,-0.012518,-0.080466,-0.062252,-0.046901,-0.047182
-0.013224,0.008828,-0.0227,-0.015829,-0.0084981,-0.0087278,-0.027999,-0.018016,0.013588,-0.0040773,0.010637,-0.010929,0.0035226,0.0031292,-0.035912,-0.005337,-0.0043529,-0.0028828,0.0016515,-0.015247,-0.071075,-0.065646,-0.053803,-0.036654
-0.0065289,0.008201,-0.021782,-0.012466,-0.00936,-0.0034693,-0.027362,-0.017175,0.022704,0.0011921,0.012196,-0.0077892,0.0038319,0.0025969,-0.032354,-0.0033786,-0.012501,-0.0048391,-0.006613,-0.018458,-0.070008,-0.068822,-0.060081,-0.024107
0.00065032,0.007678,-0.020566,-0.0098463,-0.0090882,0.0022983,-0.024616,-0.015181,0.028115,0.0054823,0.0098807,-0.0036365,0.0030631,-0.0014969,-0.030743,-0.0064795,-0.015219,-0.011151,-0.011356,-0.020665,-0.075073,-0.065619,-0.061149,-0.011696
0.0028265,0.0059803,-0.021363,-0.0095933,-0.0075472,0.0049854,-0.019913,-0.012957,0.027018,0.0080798,0.0056391,-0.0011575,0.0014592,-0.0084296,-0.031285,-0.013187,-0.013855,-0.019977,-0.011612,-0.021009,-0.079338,-0.053295,-0.053773,-0.0014397
-0.0017057,0.0021383,-0.024412,-0.011912,-0.0057172,0.0018615,-0.014448,-0.012205,0.020544,0.007044,0.0012419,-0.0017899,-0.00010236,-0.014338,-0.032635,-0.019608,-0.011778,-0.028007,-0.0094879,-0.019786,-0.077215,-0.036076,-0.038873,0.0053304
-0.0094968,-0.0034303,-0.027451,-0.015456,-0.004336,-0.0064475,-0.0095722,-0.014123,0.012692,-0.00062031,-0.0040172,-0.0050825,-0.0012589,-0.015688,-0.033039,-0.022407,-0.011543,-0.032182,-0.0082257,-0.018032,-0.068873,-0.022778,-0.021626,0.0082701
-0.014489,-0.0089352,-0.027798,-0.018228,-0.0026999,-0.015732,-0.0062776,-0.018098,0.0073773,-0.01725,-0.013183,-0.0094587,-0.0027205,-0.012675,-0.03161,-0.02142,-0.013024,-0.031275,-0.0093454,-0.016701,-0.059724,-0.020521,-0.0086567,0.0080014
-0.012333,-0.012456,-0.024998,-0.018852,0.00082556,-0.020971,-0.005259,-0.02173,0.0060438,-0.042381,-0.028905,-0.013478,-0.0055467,-0.0092518,-0.028765,-0.019656,-0.014107,-0.026478,-0.011455,-0.016206,-0.0561,-0.029831,-0.004252,0.005809
-0.0032408,-0.013387,-0.021421,-0.017381,0.0068184,-0.020176,-0.0070667,-0.022486,0.0074495,-0.071867,-0.050433,-0.016533,-0.009897,-0.0095982,-0.025689,-0.020626,-0.013194,-0.020636,-0.011778,-0.016597,-0.061033,-0.044972,-0.00819,0.0031602
0.0084023,-0.012793,-0.020057,-0.015178,0.013383,-0.016146,-0.011881,-0.019725,0.0092705,-0.099148,-0.073033,-0.018632,-0.014633,-0.014297,-0.02341,-0.025293,-0.01111,-0.016473,-0.0088961,-0.017888,-0.073066,-0.058704,-0.016531,0.0012104
0.016972,-0.012363,-0.021567,-0.013959,0.017134,-0.014497,-0.019056,-0.01529,0.0099609,-0.11809,-0.09041,-0.019752,-0.018276,-0.019883,-0.022231,-0.031262,-0.010497,-0.014815,-0.0040995,-0.019988,-0.087949,-0.067112,-0.024528,0.00046611
0.018908,-0.012954,-0.023504,-0.014629,0.016086,-0.019406,-0.02702,-0.012059,0.0095346,-0.12564,-0.098234,-0.019536,-0.020379,-0.022299,-0.021785,-0.034825,-0.013169,-0.014101,-0.00012828,-0.022339,-0.10102,-0.07078,-0.029394,0.00072574
0.014432,-0.01409,-0.022653,-0.016666,0.011795,-0.030399,-0.033838,-0.011703,0.0090685,-0.12276,-0.096107,-0.017672,-0.021902,-0.02103,-0.021476,-0.033992,-0.01794,-0.011779,0.0013893,-0.023887,-0.10859,-0.07225,-0.031108,0.0013252
0.0069837,-0.014803,-0.018322,-0.018516,0.0084422,-0.042604,-0.038042,-0.013588,0.0096308,-0.11316,-0.086867,-0.01456,-0.024151,-0.019925,-0.020873,-0.029905,-0.021178,-0.0067528,0.0013126,-0.023745,-0.10833,-0.072841,-0.031195,0.0015917
0.0010138,-0.014861,-0.013327,-0.018817,0.0093788,-0.050023,-0.039042,-0.01568,0.011463,-0.10097,-0.074313,-0.011548,-0.027316,-0.023768,-0.019811,-0.025683,-0.019824,-0.00089287,0.0019165,-0.022037,-0.099557,-0.071786,-0.031024,0.0013033
-0.00052354,-0.015074,-0.011511,-0.017596,0.014231,-0.049226,-0.036885,-0.016429,0.013828,-0.088905,-0.061306,-0.01031,-0.030032,-0.033675,-0.018293,-0.023954,-0.014233,0.0019854,0.004498,-0.020034,-0.08358,-0.067921,-0.031162,0.00093848
0.0023948,-0.016385,-0.014046,-0.016442,0.019325,-0.040973,-0.031863,-0.015867,0.015477,-0.077954,-0.04938,-0.011713,-0.030424,-0.045604,-0.016421,-0.025142,-0.0081375,-0.00075887,0.0079734,-0.019252,-0.063315,-0.061716,-0.031864,0.0016007
0.0072665,-0.018753,-0.018166,-0.01734,0.021077,-0.029188,-0.024576,-0.015078,0.015435,-0.068312,-0.039378,-0.015051,-0.027708,-0.053424,-0.014485,-0.027559,-0.0056183,-0.0078621,0.0097126,-0.020264,-0.041887,-0.055482,-0.033521,0.0046369
0.011003,-0.021135,-0.019768,-0.020915,0.01915,-0.018526,-0.016403,-0.014822,0.013688,-0.060264,-0.031943,-0.018347,-0.022929,-0.053873,-0.013071,-0.028775,-0.0077042,-0.014412,0.0077229,-0.022362,-0.021024,-0.051641,-0.036163,0.011062
0.012094,-0.022681,-0.017563,-0.0255,0.016367,-0.012215,-0.0096186,-0.014768,0.011342,-0.054137,-0.027236,-0.019623,-0.018207,-0.049059,-0.012932,-0.027088,-0.011641,-0.015362,0.0021841,-0.024421,-0.00075337,-0.050774,-0.038644,0.020952
0.011466,-0.023932,-0.014735,-0.027967,0.015598,-0.011072,-0.0065268,-0.014013,0.010002,-0.049513,-0.02433,-0.018227,-0.015138,-0.044446,-0.014535,-0.022363,-0.013456,-0.009658,-0.00483,-0.026087,0.019268,-0.051223,-0.038946,0.033087
0.011414,-0.026657,-0.016238,-0.025885,0.016782,-0.01369,-0.0079989,-0.01218,0.01063,-0.044824,-0.021247,-0.015199,-0.013695,-0.044342,-0.017547,-0.016109,-0.011484,-0.0014359,-0.010887,-0.028043,0.038153,-0.050473,-0.035969,0.045197
0.013473,-0.032241,-0.023983,-0.019422,0.017086,-0.017409,-0.012634,-0.0099413,0.012631,-0.038236,-0.016028,-0.012422,-0.012474,-0.048904,-0.020737,-0.01085,-0.0077164,0.0030308,-0.014531,-0.031003,0.053738,-0.047109,-0.031185,0.055026
0.016974,-0.040051,-0.034379,-0.01149,0.014069,-0.019699,-0.017483,-0.008474,0.013976,-0.029384,-0.0082083,-0.011282,-0.010061,-0.055005,-0.022546,-0.008867,-0.0058721,0.00036429,-0.015537,-0.03444,0.064353,-0.041828,-0.027993,0.061811
0.019524,-0.047401,-0.040754,-0.005957,0.0086728,-0.019435,-0.019965,-0.0084576,0.012499,-0.020398,0.00047671,-0.011875,-0.0063704,-0.059645,-0.022089,-0.010785,-0.008022,-0.0070461,-0.014409,-0.036391,0.070633,-0.036894,-0.028742,0.067142
0.019035,-0.051339,-0.038754,-0.0052274,0.0049888,-0.017485,-0.019529,-0.0095671,0.0075506,-0.014919,0.0069016,-0.013232,-0.0028344,-0.06245,-0.019861,-0.014972,-0.012754,-0.012862,-0.011918,-0.034753,0.075296,-0.034529,-0.032107,0.074114
0.015581,-0.050831,-0.030031,-0.0088913,0.0067713,-0.016172,-0.017786,-0.010827,0.00073127,-0.015473,0.0084959,-0.014139,-0.0012105,-0.065065,-0.017529,-0.018478,-0.016357,-0.011952,-0.0090158,-0.028998,0.080754,-0.035371,-0.033829,0.08483
0.011452,-0.047474,-0.020943,-0.01426,0.013829,-0.017846,-0.01718,-0.011382,-0.0050019,-0.021239,0.0049991,-0.01382,-0.0019403,-0.068506,-0.016745,-0.019077,-0.015831,-0.0046814,-0.0067652,-0.020821,0.086692,-0.037995,-0.030721,0.097846
0.0093041,-0.044206,-0.017424,-0.018207,0.021616,-0.02339,-0.019382,-0.010991,-0.0072654,-0.028232,-0.001273,-0.012161,-0.0034567,-0.071447,-0.017778,-0.016824,-0.011143,0.0032101,-0.0059032,-0.013128,0.090035,-0.039755,-0.024212,0.10782
0.0099782,-0.043154,-0.02049,-0.018961,0.024512,-0.031619,-0.024537,-0.0099373,-0.0057508,-0.031997,-0.006916,-0.0097063,-0.0031706,-0.071322,-0.019065,-0.013764,-0.0050113,0.0050806,-0.0062705,-0.0082423,0.087592,-0.038426,-0.01957,0.10829
0.011869,-0.044419,-0.026151,-0.016806,0.020046,-0.039924,-0.031523,-0.0086143,-0.0021529,-0.030723,-0.0096251,-0.0076001,0.00051585,-0.067105,-0.01824,-0.011976,-0.0006701,-0.0014117,-0.0067384,-0.0067598,0.079089,-0.033557,-0.020899,0.09596
0.012414,-0.046633,-0.029416,-0.0135,0.010586,-0.045719,-0.038549,-0.0072159,0.0012977,-0.026157,-0.0094749,-0.0072437,0.0067834,-0.060862,-0.014059,-0.011731,0.00045408,-0.012502,-0.005925,-0.0077594,0.067864,-0.026627,-0.026559,0.073349
0.010383,-0.048524,-0.028559,-0.010997,0.0012945,-0.047792,-0.04366,-0.0057616,0.0033746,-0.02162,-0.0083767,-0.009392,0.012813,-0.056378,-0.0077073,-0.011454,-0.0005525,-0.021203,-0.0032232,-0.0098356,0.058603,-0.019889,-0.029809,0.047474
0.0069679,-0.050009,-0.025914,-0.0103,-0.0037092,-0.046801,-0.045238,-0.0043777,0.0042239,-0.01893,-0.00823,-0.013149,0.015814,-0.056099,-0.0022347,-0.0094692,-0.00127,-0.022446,0.00069381,-0.011889,0.054117,-0.014737,-0.024709,0.025417
0.0047075,-0.05192,-0.024955,-0.011004,-0.0038315,-0.04467,-0.042749,-0.0035452,0.0045139,-0.017028,-0.0093051,-0.015968,0.015067,-0.0593,-0.00032858,-0.0057994,8.9962e-005,-0.016448,0.0042807,-0.013163,0.053851,-0.010804,-0.011975,0.010147
0.0052212,-0.054789,-0.026777,-0.011699,-0.0014702,-0.043309,-0.037348,-0.0040307,0.0044469,-0.013449,-0.010138,-0.015288,0.012334,-0.063149,-0.0021394,-0.0022565,0.0033962,-0.0079158,0.006064,-0.012956,0.055039,-0.0064356,0.00095951,-0.00019437
0.0077447,-0.057898,-0.029287,-0.010985,0.00053249,-0.043455,-0.031561,-0.0064084,0.0036806,-0.0071474,-0.0089298,-0.010852,0.010342,-0.065453,-0.0050814,-0.00075879,0.0068015,-0.0020581,0.0054056,-0.010718,0.055098,-9.3202e-005,0.0062223,-0.0092881
0.009775,-0.059542,-0.029519,-0.008487,0.0010328,-0.044354,-0.027789,-0.010418,0.0021013,3.5352e-005,-0.0051941,-0.0055975,0.010631,-0.066295,-0.0059633,-0.0015512,0.0081834,-0.00073564,0.0026981,-0.0066892,0.053122,0.0084742,0.0025878,-0.018793
0.0092812,-0.058331,-0.026526,-0.0052498,0.00070873,-0.044427,-0.026597,-0.014684,0.00041438,0.0046406,-0.00029358,-0.0037953,0.012503,-0.067113,-0.0037381,-0.0030508,0.0067512,-0.0016728,-0.00087471,-0.0023904,0.049644,0.018126,-0.0031787,-0.02709
0.0065679,-0.054448,-0.022073,-0.0031483,0.00056655,-0.042372,-0.026248,-0.01724,-0.00029031,0.0044352,0.0035091,-0.0075428,0.013822,-0.068503,-0.00046949,-0.0034058,0.0036475,-0.0010496,-0.0037285,-0.00021697,0.045566,0.027174,-0.0021005,-0.031506
0.0041443,-0.049675,-0.018755,-0.0036145,0.00056046,-0.037867,-0.02411,-0.016749,0.00033523,0.00026133,0.0046005,-0.014593,0.012853,-0.069292,0.00041967,-0.0021969,0.0010704,0.002897,-0.0043616,-0.0020588,0.041525,0.034322,0.009214,-0.031651
0.0046307,-0.045977,-0.017598,-0.0065142,-0.00034393,-0.031456,-0.018865,-0.013605,0.0012944,-0.0046766,0.0029107,-0.019736,0.0096035,-0.06792,-0.0028486,-0.00066208,0.00054173,0.0082981,-0.0020043,-0.0078335,0.037984,0.03899,0.025614,-0.030479
0.0084287,-0.04372,-0.017432,-0.010028,-0.0028834,-0.023988,-0.011622,-0.009941,0.00097131,-0.0073289,-0.00040267,-0.018919,0.0056244,-0.064531,-0.0087711,-0.00036932,0.0016563,0.011346,0.0027336,-0.015079,0.035363,0.041075,0.037671,-0.03193
0.013159,-0.041141,-0.016303,-0.011746,-0.0064059,-0.016303,-0.0049225,-0.0082556,-0.0013718,-0.006876,-0.0039542,-0.012656,0.0026076,-0.061293,-0.013721,-0.0017689,0.0023384,0.0097526,0.0077261,-0.020115,0.033745,0.040693,0.039191,-0.037306
0.015425,-0.035806,-0.013285,-0.010281,-0.0091702,-0.0094192,-0.00048853,-0.0095257,-0.0047854,-0.0047242,-0.006842,-0.0056809,0.001052,-0.060346,-0.014852,-0.0040306,0.00044991,0.0050198,0.010113,-0.020189,0.032578,0.038245,0.03159,-0.043879
0.013488,-0.02701,-0.0089616,-0.0062481,-0.0098535,-0.00467,0.0022875,-0.012347,-0.0074007,-0.0027544,-0.0086003,-0.0030731,0.00010792,-0.061434,-0.012204,-0.0061176,-0.0045113,0.0015548,0.0077788,-0.015256,0.031066,0.03465,0.021994,-0.047162
0.0085948,-0.01696,-0.0044864,-0.0018789,-0.0088612,-0.0031294,0.0057392,-0.014001,-0.0081106,-0.0016115,-0.0088078,-0.0061771,-0.0013933,-0.061812,-0.0082781,-0.0077695,-0.010956,0.0032891,0.00066541,-0.008187,0.029068,0.031289,0.017433,-0.044875
0.0038289,-0.0094197,-0.00051405,0.00043261,-0.0081163,-0.0044928,0.011721,-0.012779,-0.0075252,-0.00051838,-0.007081,-0.011813,-0.0037663,-0.058739,-0.0056119,-0.0093155,-0.016307,0.010499,-0.0089834,-0.0031363,0.027439,0.029543,0.020157,-0.038944
0.0014694,-0.0067755,0.0028694,-0.00046219,-0.0093723,-0.0065689,0.019719,-0.0096361,-0.0072084,0.0014916,-0.0036264,-0.015218,-0.0062433,-0.052138,-0.0045887,-0.010677,-0.018751,0.019361,-0.017667,-0.0030411,0.027118,0.030121,0.027212,-0.033683
0.0011561,-0.0081306,0.0054556,-0.0040754,-0.012505,-0.0063966,0.026903,-0.0075843,-0.0078948,0.0043207,0.00030393,-0.013924,-0.0078084,-0.044668,-0.0033095,-0.010919,-0.018315,0.024574,-0.022353,-0.0078565,0.027684,0.032558,0.033513,-0.031858
0.0004042,-0.010251,0.006621,-0.0089484,-0.015368,-0.002548,0.030119,-0.0090856,-0.0084585,0.0067714,0.0028418,-0.009221,-0.0081598,-0.039028,0.00056186,-0.0090995,-0.016607,0.023047,-0.02188,-0.014737,0.027048,0.035132,0.035353,-0.032313
-0.0030506,-0.010546,0.0060453,-0.013562,-0.015481,0.0032892,0.028211,-0.013603,-0.0067698,0.0076644,0.0027832,-0.0043612,-0.0077859,-0.035135,0.0077344,-0.0056183,-0.015572,0.015909,-0.017354,-0.020052,0.023016,0.035384,0.032027,-0.031353
-0.0091372,-0.0092609,0.0047002,-0.016718,-0.01218,0.007174,0.022932,-0.017592,-0.0018057,0.0069507,0.00068399,-0.0015571,-0.0071269,-0.030125,0.016736,-0.0024727,-0.016239,0.0075304,-0.011446,-0.021792,0.015517,0.031286,0.025399,-0.026539
-0.0153,-0.0087785,0.0047724,-0.017425,-0.007413,0.0059329,0.017841,-0.017239,0.0048711,0.0057841,-0.001349,-0.00054859,-0.0058193,-0.021322,0.025104,-0.0018252,-0.018219,0.0024482,-0.0071006,-0.020642,0.0072937,0.022698,0.018468,-0.019283
-0.018309,-0.01081,0.0081316,-0.014959,-0.0044325,-4.4849e-005,0.016114,-0.011735,0.009705,0.0056105,-0.0012197,0.00037395,-0.0029649,-0.0093479,0.031081,-0.0040488,-0.020135,0.0024596,-0.006305,-0.018987,0.0021147,0.012183,0.013854,-0.013813
-0.016514,-0.014375,0.014549,-0.0094481,-0.005379,-0.0067246,0.018813,-0.004175,0.0095274,0.0072014,0.0014688,0.002336,0.0017452,0.001802,0.034358,-0.0071245,-0.020608,0.005842,-0.0094507,-0.018773,0.0019083,0.0041422,0.01257,-0.013472
-0.010895,-0.01669,0.021423,-0.002432,-0.0096459,-0.0093328,0.024666,0.00089357,0.0039224,0.010407,0.0050516,0.0048787,0.0072177,0.0080543,0.035555,-0.0080944,-0.019201,0.0090228,-0.015424,-0.019952,0.0053495,0.0022531,0.013437,-0.01778
-0.0044139,-0.016082,0.02556,0.0035429,-0.014288,-0.0059165,0.031263,0.0012617,-0.0042566,0.01455,0.0071146,0.0066698,0.011391,0.0089955,0.035262,-0.0053708,-0.016747,0.0093582,-0.022241,-0.020705,0.0091323,0.0067426,0.013691,-0.02287
-0.0002731,-0.013892,0.025635,0.0064592,-0.016152,0.0013877,0.036644,-0.0011405,-0.010644,0.018836,0.0063925,0.0069006,0.012602,0.0085147,0.033727,6.6308e-005,-0.014778,0.0070172,-0.02787,-0.019097,0.010703,0.013761,0.010812,-0.024721
-0.0002183,-0.013259,0.023184,0.0063503,-0.014116,0.0083318,0.040158,-0.002087,-0.012121,0.022414,0.0037046,0.0059478,0.010643,0.011562,0.031338,0.0054941,-0.014297,0.0046857,-0.030936,-0.014702,0.0099961,0.017889,0.0045216,-0.022164
-0.0037078,-0.015822,0.021222,0.0053032,-0.0097887,0.011953,0.042127,0.0010482,-0.0086339,0.024375,0.001265,0.0048724,0.0066327,0.01981,0.029108,0.0084346,-0.01473,0.0053729,-0.03116,-0.0089162,0.0088214,0.016256,-0.0026988,-0.017106
-0.008299,-0.019605,0.021689,0.0056533,-0.0062195,0.012475,0.042871,0.00681,-0.0029253,0.024105,0.0010665,0.004475,0.0020485,0.030092,0.028313,0.0081456,-0.014041,0.0099616,-0.029434,-0.0039186,0.0088107,0.011018,-0.0072979,-0.012215
-0.011056,-0.020358,0.02399,0.007871,-0.0056177,0.012297,0.042148,0.010836,0.0014565,0.021885,0.003667,0.0048214,-0.0019751,0.037062,0.029391,0.0056864,-0.010255,0.016321,-0.02742,-0.0012924,0.010007,0.0079206,-0.0073693,-0.008596
-0.010269,-0.015363,0.025851,0.010148,-0.0077992,0.013295,0.039647,0.0096852,0.0023756,0.019109,0.0081699,0.0054655,-0.004541,0.037779,0.031177,0.0029424,-0.0034087,0.020648,-0.026675,-0.0013462,0.011281,0.011749,-0.0041363,-0.0056101
-0.0064797,-0.0062329,0.025543,0.01019,-0.010488,0.015004,0.036045,0.0039661,0.00015384,0.017627,0.013103,0.0059336,-0.0046408,0.034226,0.031465,0.0016001,0.0037828,0.020029,-0.027637,-0.0032883,0.01187,0.022246,-0.00086185,-0.0025604
-0.0021033,0.0019331,0.023358,0.0075593,-0.011217,0.015228,0.033391,-0.0019783,-0.0029758,0.018541,0.017293,0.0060154,-0.001465,0.031643,0.028721,0.0026271,0.0074899,0.014337,-0.029178,-0.0056958,0.012331,0.033898,-0.00010203,-8.0249e-005
0.00017877,0.0044037,0.021057,0.0042751,-0.0093562,0.0123,0.034013,-0.0035842,-0.004379,0.021362,0.020128,0.0058182,0.0046275,0.034185,0.023561,0.0061067,0.0057024,0.0061497,-0.029271,-0.0068514,0.01399,0.039904,-0.0017576,0.00044864
-0.00086434,0.00039584,0.020048,0.0030329,-0.0066784,0.0067986,0.03856,0.000223,-0.0024842,0.024238,0.021359,0.0057513,0.011568,0.04161,0.018624,0.011134,0.00019959,-0.0010569,-0.026517,-0.0051558,0.017514,0.037216,-0.0036449,-0.0011935
-0.0044083,-0.0065745,0.0202,0.0047948,-0.0059759,0.0011948,0.044942,0.0062665,0.0024955,0.025132,0.020996,0.0064382,0.016467,0.049649,0.016747,0.015901,-0.0043395,-0.0050087,-0.021412,2.6396e-005,0.022047,0.028656,-0.003919,-0.0030644
-0.0084315,-0.011618,0.020377,0.0081205,-0.0087969,-0.0021139,0.049483,0.0099058,0.0087398,0.023126,0.019512,0.0083862,0.017537,0.05351,0.018844,0.018344,-0.0037566,-0.0055821,-0.01619,0.0074232,0.025727,0.020562,-0.0028937,-0.0023881
-0.011222,-0.012008,0.019922,0.010823,-0.014138,-0.0025738,0.049716,0.008956,0.013685,0.019034,0.017943,0.011467,0.015425,0.051496,0.023193,0.017343,0.0022318,-0.0042491,-0.01312,0.013893,0.027089,0.017999,-0.0024208,0.0018129
-0.012306,-0.0085012,0.019347,0.012143,-0.019193,-0.0016057,0.046577,0.0053921,0.015192,0.01501,0.017418,0.014665,0.012594,0.045938,0.026698,0.013688,0.0095904,-0.0027461,-0.012585,0.016153,0.026164,0.021306,-0.0034783,0.0073514
-0.012219,-0.0038315,0.019474,0.013179,-0.021523,-0.0012322,0.043934,0.0034398,0.012552,0.013424,0.018262,0.016534,0.011197,0.041031,0.027077,0.0098923,0.013048,-0.001991,-0.012656,0.013365,0.024444,0.026409,-0.0045417,0.010338
-0.011622,-0.0001734,0.020082,0.015236,-0.020792,-0.002545,0.045563,0.005782,0.0068328,0.015583,0.019558,0.016205,0.011323,0.039606,0.024332,0.0086469,0.01035,-0.0017829,-0.010686,0.0083994,0.023838,0.028223,-0.0026481,0.008387
-0.010707,0.0021748,0.019809,0.018057,-0.018594,-0.0052174,0.051938,0.011221,0.00034801,0.020923,0.019835,0.01412,0.011205,0.041381,0.020514,0.010917,0.004168,-0.0011731,-0.0056343,0.0061801,0.025441,0.024305,0.0036526,0.002761
-0.0093727,0.0041732,0.017699,0.019989,-0.016697,-0.0081613,0.059584,0.015822,-0.0044908,0.027155,0.018462,0.011777,0.0091186,0.043722,0.018184,0.015189,-3.8054e-005,0.00090789,0.0010066,0.0099137,0.028863,0.016151,0.012353,-0.0024796
-0.0077542,0.0066147,0.014819,0.019973,-0.015507,-0.010484,0.063684,0.016478,-0.0062755,0.031466,0.016354,0.01062,0.0051386,0.043939,0.018783,0.018606,0.0015169,0.0051164,0.006595,0.018237,0.032471,0.0076609,0.019203,-0.0035958
-0.0063679,0.0094548,0.013935,0.019104,-0.014255,-0.011887,0.061901,0.013682,-0.0050341,0.032211,0.015087,0.011042,0.0011246,0.041194,0.021934,0.019203,0.0079186,0.011439,0.0098287,0.026024,0.034378,0.0023156,0.021227,9.2998e-005
-0.0056133,0.012354,0.0171,0.019822,-0.012562,-0.012337,0.056307,0.011042,-0.0018814,0.030062,0.015101,0.012377,-0.00093286,0.036767,0.025877,0.017475,0.014572,0.019278,0.012019,0.028556,0.033685,0.0011702,0.019341,0.006023
-0.0051732,0.015534,0.023328,0.023346,-0.011484,-0.011538,0.051815,0.012018,0.0017166,0.027709,0.014878,0.013785,-0.00058389,0.032851,0.02858,0.015963,0.017335,0.027793,0.015906,0.025616,0.031251,0.0027534,0.017552,0.010618
-0.0040775,0.019815,0.028892,0.028033,-0.012585,-0.0088208,0.052369,0.016873,0.0045662,0.02816,0.012256,0.015039,0.00090748,0.031022,0.028824,0.017154,0.016056,0.036266,0.023089,0.021786,0.029313,0.0045209,0.019403,0.011863
-0.0015833,0.025661,0.030411,0.030616,-0.015739,-0.0036398,0.057945,0.022583,0.0060441,0.032718,0.0069234,0.016402,0.0018854,0.031445,0.02681,0.021412,0.014357,0.044207,0.032457,0.022491,0.029956,0.0046835,0.02496,0.010225
0.0018577,0.032233,0.028045,0.029318,-0.018048,0.0037156,0.064688,0.025684,0.0061455,0.040035,0.0016135,0.017807,0.0017484,0.03306,0.024028,0.02662,0.015912,0.051177,0.041103,0.029185,0.033369,0.003302,0.031095,0.0076325
0.0045451,0.03757,0.025638,0.025774,-0.015541,0.011866,0.067971,0.025342,0.0053795,0.046926,0.00046488,0.018418,0.0011937,0.034293,0.022424,0.029785,0.020754,0.05662,0.046772,0.037982,0.03739,0.0021536,0.034692,0.0058782
0.0046933,0.040005,0.027335,0.023645,-0.0066768,0.018906,0.065842,0.023815,0.0044734,0.050384,0.005633,0.017309,0.0012166,0.033769,0.023261,0.029253,0.025073,0.059968,0.049485,0.042943,0.039071,0.0035421,0.035609,0.0058391
0.0020024,0.039659,0.033612,0.025105,0.0054519,0.023472,0.060199,0.024025,0.0038939,0.049437,0.015125,0.014737,0.0020139,0.030841,0.026349,0.025752,0.024747,0.060919,0.050781,0.04104,0.037313,0.0087359,0.036576,0.0077176
-0.0017014,0.038611,0.040429,0.028583,0.014586,0.025508,0.054987,0.026687,0.0034447,0.045625,0.023964,0.012606,0.0029012,0.025946,0.03023,0.021602,0.019294,0.059468,0.051441,0.034416,0.034316,0.016958,0.040164,0.011404
-0.0034755,0.039365,0.042506,0.030045,0.015687,0.026064,0.053092,0.029708,0.0023564,0.041831,0.027861,0.01326,0.0032324,0.020661,0.033229,0.018943,0.012543,0.055503,0.050133,0.028149,0.034231,0.02565,0.045835,0.01625
-0.001308,0.042748,0.03787,0.026737,0.0087797,0.026307,0.054419,0.030306,-1.9712e-005,0.040225,0.026284,0.017385,0.0032727,0.017162,0.034587,0.018527,0.0093557,0.048473,0.04459,0.025855,0.039795,0.032001,0.049937,0.020635
0.0043557,0.047056,0.029601,0.019916,-0.00095893,0.02665,0.056413,0.027647,-0.0033945,0.040695,0.02236,0.022929,0.0040594,0.017081,0.034703,0.019852,0.011353,0.037828,0.034389,0.027165,0.049827,0.034773,0.048766,0.022329
0.010846,0.049329,0.023247,0.014054,-0.0069965,0.026795,0.056244,0.023502,-0.0063974,0.040871,0.019863,0.026325,0.0063443,0.02037,0.034343,0.022172,0.01548,0.024244,0.022629,0.028998,0.060104,0.035052,0.041922,0.01997
0.01513,0.047849,0.022338,0.013235,-0.0060594,0.026562,0.052779,0.020497,-0.007452,0.037874,0.020045,0.025263,0.0096732,0.025116,0.033665,0.025196,0.016601,0.010476,0.014529,0.028957,0.067197,0.035216,0.032937,0.014571
0.015846,0.043796,0.025973,0.017956,8.8278e-006,0.026525,0.046957,0.019864,-0.0060662,0.030688,0.021004,0.020685,0.012562,0.028683,0.032125,0.028814,0.011772,0.00054315,0.013778,0.027444,0.071854,0.036823,0.026621,0.0094432
0.013943,0.040522,0.030332,0.02497,0.0063016,0.027672,0.04065,0.020847,-0.0033576,0.021363,0.019881,0.016173,0.013686,0.029436,0.029434,0.03235,0.0025633,-0.0027226,0.019605,0.026745,0.078506,0.039115,0.02543,0.0080355
0.011525,0.040907,0.032261,0.030011,0.0088368,0.030326,0.035087,0.021999,-0.0011462,0.013949,0.015709,0.015151,0.013016,0.0277,0.026511,0.034348,-0.0062841,6.7932e-005,0.027183,0.028359,0.090838,0.039439,0.027915,0.011192
0.0099794,0.044921,0.031499,0.030858,0.007254,0.033459,0.030005,0.022713,-0.00025623,0.011709,0.010416,0.01827,0.011867,0.025165,0.025194,0.033443,-0.010447,0.0049749,0.031142,0.031382,0.10731,0.035334,0.030371,0.016173
0.0089896,0.049495,0.029883,0.02835,0.0043854,0.035248,0.023972,0.023334,0.00041022,0.01475,0.0072828,0.023166,0.011802,0.023323,0.02664,0.029637,-0.008905,0.0075127,0.029386,0.033417,0.12103,0.026549,0.030051,0.018547
0.0072111,0.050856,0.028945,0.025019,0.0034627,0.034514,0.015562,0.023972,0.0029702,0.020072,0.0083653,0.026623,0.013364,0.022384,0.029839,0.024745,-0.0041871,0.0058995,0.02416,0.032907,0.1248,0.015325,0.027161,0.015613
0.0039048,0.047463,0.028597,0.022982,0.0053971,0.031762,0.0046219,0.023652,0.0084313,0.024125,0.013032,0.027101,0.01572,0.021583,0.031899,0.021342,-0.00035123,0.0018998,0.019747,0.030521,0.11713,0.0047159,0.024079,0.008527
2.1337e-005,0.041114,0.027969,0.022844,0.0082156,0.028811,-0.0072131,0.020954,0.015257,0.025723,0.01862,0.025434,0.017405,0.020388,0.030282,0.020914,-0.00047606,-0.0015113,0.018908,0.028322,0.104,-0.0035673,0.022773,0.0013308
-0.0022889,0.035431,0.027032,0.024016,0.008878,0.027302,-0.017187,0.015607,0.020132,0.026695,0.022434,0.023424,0.017409,0.019274,0.025236,0.02275,-0.0052339,-0.0034124,0.021001,0.027707,0.094274,-0.0099381,0.022847,-0.0022688
-0.0013774,0.033112,0.026916,0.025588,0.0058704,0.027382,-0.022973,0.0092949,0.020469,0.029664,0.023479,0.022003,0.015622,0.019235,0.020191,0.02463,-0.01294,-0.0059052,0.023003,0.028184,0.09267,-0.015773,0.021994,-0.0015996
0.0024472,0.034235,0.028517,0.026834,0.00049439,0.027714,-0.024063,0.0047109,0.01649,0.03502,0.022789,0.020791,0.012484,0.020613,0.019404,0.024781,-0.020596,-0.01177,0.022196,0.028119,0.096304,-0.021468,0.018388,0.0010303
0.0070137,0.036798,0.030987,0.027241,-0.004108,0.026716,-0.021923,0.0036747,0.010964,0.04006,0.022357,0.019236,0.0084277,0.02258,0.024571,0.023438,-0.025277,-0.021114,0.018107,0.026543,0.097774,-0.02557,0.01277,0.0028207
0.0099294,0.038581,0.031944,0.026511,-0.0053435,0.02389,-0.018691,0.0060053,0.0068435,0.041249,0.023573,0.017808,0.0038227,0.023924,0.033121,0.022574,-0.025383,-0.030445,0.012324,0.02418,0.091984,-0.025831,0.008201,0.0029404
0.010398,0.038506,0.029414,0.024783,-0.0030455,0.020091,-0.015482,0.010022,0.0050174,0.037564,0.026171,0.017728,-0.00063131,0.024373,0.039714,0.023947,-0.021308,-0.035308,0.006779,0.02275,0.080542,-0.02132,0.0075123,0.0027116
0.0096557,0.036494,0.023645,0.022755,0.00061076,0.016604,-0.011814,0.013949,0.0042857,0.031699,0.028326,0.019438,-0.0037465,0.025063,0.039917,0.027167,-0.015148,-0.034099,0.0022522,0.023407,0.069868,-0.013737,0.010642,0.0035738
0.0096592,0.032555,0.017021,0.021345,0.0029848,0.013976,-0.0067595,0.016873,0.0033998,0.027861,0.027832,0.021549,-0.0044201,0.027487,0.03325,0.029575,-0.0094973,-0.029432,-0.0016842,0.025887,0.0649,-0.0067428,0.014346,0.0050375
0.011214,0.026519,0.01218,0.021021,0.0030489,0.011684,-0.00075875,0.018689,0.0028918,0.028122,0.023681,0.021734,-0.0025926,0.031839,0.023321,0.028231,-0.005985,-0.025743,-0.0055591,0.029064,0.064243,-0.0038034,0.014748,0.0047759
0.013191,0.018899,0.010147,0.02141,0.0020162,0.0088666,0.0037495,0.019587,0.004612,0.030693,0.017055,0.019038,0.00033546,0.03632,0.015024,0.022492,-0.0045825,-0.025451,-0.0090451,0.03206,0.061216,-0.0062057,0.01063,0.00085159
0.01348,0.011768,0.010168,0.021611,0.0021562,0.0053855,0.0038322,0.019806,0.0093363,0.03167,0.011009,0.015388,0.0022135,0.038237,0.011038,0.015029,-0.0041452,-0.027252,-0.01115,0.034628,0.049801,-0.012685,0.0045063,-0.0060722
0.010754,0.0082298,0.011117,0.02095,0.0049103,0.0021532,-0.0013645,0.019693,0.01503,0.028571,0.0088896,0.014516,0.0015767,0.036125,0.010296,0.010305,-0.0036801,-0.02794,-0.011327,0.036589,0.030117,-0.020654,0.00046997,-0.012743
0.0055202,0.010335,0.01278,0.019458,0.0098385,0.00041422,-0.0092501,0.019582,0.01794,0.022456,0.012412,0.018804,-0.0012816,0.031149,0.0094639,0.011515,-0.0032065,-0.025712,-0.010339,0.037318,0.0085007,-0.027794,0.00067084,-0.0157
-0.00031441,0.017088,0.015661,0.017678,0.015072,0.00061493,-0.015117,0.019404,0.01585,0.016895,0.020555,0.026678,-0.0044535,0.026558,0.00609,0.018211,-0.0034753,-0.021647,-0.009882,0.036196,-0.0077315,-0.032711,0.0036485,-0.013968
-0.0047843,0.024466,0.019579,0.016083,0.018687,0.0018985,-0.015378,0.018565,0.010413,0.015035,0.029922,0.033042,-0.0057109,0.025474,0.00083513,0.02638,-0.0048941,-0.018174,-0.011179,0.033633,-0.016082,-0.034529,0.0060116,-0.0097205
-0.0069624,0.027859,0.02277,0.014755,0.01984,0.0026815,-0.010173,0.016582,0.0060517,0.017451,0.036351,0.032762,-0.00405,0.028653,-0.0029971,0.030965,-0.0067538,-0.016411,-0.013756,0.031303,-0.020168,-0.032321,0.0058245,-0.0063781
-0.007156,0.025179,0.02273,0.013623,0.018979,0.0017752,-0.0031903,0.01402,0.0061696,0.022327,0.03692,0.024607,-0.00044615,0.033897,-0.002205,0.029104,-0.0075833,-0.015261,-0.015641,0.030881,-0.025722,-0.025381,0.0044393,-0.005841
-0.0064269,0.018232,0.018312,0.012873,0.017307,-0.00095523,0.0012256,0.012634,0.010178,0.027214,0.031401,0.012485,0.00268,0.037595,0.0035166,0.021905,-0.0064041,-0.013079,-0.014997,0.032304,-0.035278,-0.014265,0.0050118,-0.0071465
-0.0059749,0.011257,0.011152,0.012941,0.016146,-0.0048842,0.0013591,0.014195,0.014205,0.030547,0.02247,0.0029046,0.0029819,0.037306,0.01097,0.013583,-0.0038024,-0.00995,-0.011912,0.033411,-0.046428,-0.0014813,0.0091579,-0.0075053
-0.0066212,0.0078497,0.0049296,0.013956,0.016586,-0.0093779,-0.00081103,0.018831,0.014838,0.031991,0.014471,0.00055608,-0.00021994,0.033473,0.015525,0.0086269,-0.0018153,-0.0079895,-0.0087437,0.031633,-0.054928,0.0092817,0.015029,-0.0046904
-0.0083507,0.0086669,0.0028255,0.015221,0.019335,-0.014092,-0.0015287,0.024463,0.012288,0.032077,0.011154,0.0053121,-0.0052929,0.029016,0.014293,0.0089603,-0.002575,-0.0092284,-0.008553,0.026338,-0.059301,0.015304,0.018757,0.0011562
-0.010065,0.011541,0.0052251,0.015434,0.024454,-0.018531,0.0014889,0.028066,0.0098877,0.031928,0.013519,0.012744,-0.0091409,0.027104,0.0080346,0.012979,-0.006664,-0.013251,-0.012817,0.019548,-0.062352,0.016848,0.017995,0.0075331
-0.0099852,0.013625,0.0095942,0.013709,0.03103,-0.021578,0.0071207,0.027846,0.010482,0.033068,0.019132,0.017519,-0.0091758,0.028779,0.0004685,0.01699,-0.012431,-0.017091,-0.020272,0.014236,-0.068162,0.017306,0.01427,0.011182
-0.0068442,0.013674,0.012639,0.010577,0.037206,-0.021918,0.011733,0.024548,0.013363,0.036741,0.023641,0.01699,-0.0051826,0.032221,-0.0043769,0.017886,-0.016886,-0.01762,-0.027842,0.011737,-0.077557,0.021046,0.011926,0.010066
-0.0011567,0.012698,0.012902,0.0079707,0.040862,-0.019277,0.012109,0.020859,0.014905,0.042812,0.023697,0.012441,0.00031405,0.034192,-0.0047744,0.015128,-0.017662,-0.014138,-0.032841,0.010716,-0.086558,0.030434,0.014607,0.0045158
0.0046504,0.01273,0.011594,0.0079328,0.040721,-0.015256,0.0080531,0.01949,0.012383,0.049269,0.019294,0.0074607,0.0036831,0.032579,-0.002038,0.010734,-0.014714,-0.0086774,-0.034617,0.0086217,-0.089511,0.044281,0.022385,-0.0029609
0.007767,0.014903,0.011049,0.010973,0.037075,-0.012589,0.0025991,0.021475,0.007136,0.053271,0.013725,0.0050317,0.0028423,0.028081,0.00093177,0.0075195,-0.01048,-0.00384,-0.034449,0.0042014,-0.084149,0.058894,0.031976,-0.0089587
0.007179,0.018376,0.012272,0.015452,0.031557,-0.01311,-0.00033543,0.025787,0.0037296,0.053251,0.011101,0.0056197,-0.0010163,0.023792,0.0019871,0.0070648,-0.0082687,-0.00038194,-0.034086,-0.0012965,-0.073993,0.070746,0.039564,-0.010834
0.0045806,0.020803,0.013783,0.018626,0.026043,-0.016159,0.00097177,0.030182,0.0055807,0.05031,0.013339,0.0074449,-0.0040964,0.022951,0.0010871,0.0088896,-0.0099792,0.0031463,-0.034335,-0.0052627,-0.065827,0.078494,0.043498,-0.0079476
0.0029544,0.019809,0.012776,0.018639,0.021566,-0.018969,0.0046419,0.032396,0.01116,0.047479,0.018965,0.0083292,-0.0027622,0.02657,-0.00028662,0.011247,-0.01482,0.0086272,-0.034745,-0.0060177,-0.064425,0.082782,0.044524,-0.0018985
0.0038499,0.01443,0.0075124,0.015832,0.018044,-0.018812,0.006548,0.030997,0.014653,0.047266,0.024519,0.0074569,0.0036417,0.032718,-0.00096517,0.012665,-0.019993,0.016549,-0.034177,-0.004144,-0.069153,0.084392,0.043721,0.0043415
0.0057958,0.0057051,-0.0011236,0.012349,0.014941,-0.015013,0.0033211,0.025768,0.010898,0.049514,0.027162,0.0057262,0.012149,0.038032,-0.0014456,0.012926,-0.022721,0.026053,-0.031419,-0.0018199,-0.07541,0.08273,0.040491,0.0079463
0.005499,-0.0037046,-0.010167,0.010407,0.012158,-0.0091193,-0.0054117,0.017815,0.00026502,0.051337,0.026258,0.0046623,0.018306,0.040263,-0.0034816,0.012817,-0.021927,0.036605,-0.025395,-0.00097105,-0.079484,0.076111,0.032774,0.0075738
0.00099318,-0.010526,-0.016594,0.010771,0.010283,-0.003304,-0.017277,0.0093419,-0.011139,0.049211,0.022899,0.005004,0.019456,0.039802,-0.0082363,0.013117,-0.018341,0.049185,-0.01538,-0.0019149,-0.082298,0.063435,0.01936,0.0037952
-0.0060458,-0.012058,-0.019032,0.012649,0.0099676,0.0013718,-0.02942,0.0029071,-0.016453,0.041523,0.018375,0.0061899,0.01662,0.038921,-0.0147,0.013824,-0.013297,0.065387,-0.0016389,-0.0034625,-0.088407,0.045484,0.0020332,-0.0015585
-0.011084,-0.0071729,-0.017873,0.014836,0.011032,0.0053463,-0.040544,0.00024268,-0.013966,0.02974,0.013358,0.0070614,0.013535,0.03939,-0.01994,0.014298,-0.0077132,0.085165,0.013882,-0.0040939,-0.10091,0.024646,-0.014676,-0.0066314
-0.010195,0.0031871,-0.014133,0.016768,0.012203,0.0096213,-0.050809,0.0013038,-0.0086492,0.017493,0.0084524,0.006979,0.013743,0.040648,-0.021133,0.014003,-0.002284,0.10558,0.027839,-0.0031008,-0.11694,0.0035557,-0.026249,-0.010514
-0.0033303,0.016237,-0.0084385,0.018458,0.01184,0.014701,-0.059878,0.004337,-0.0078164,0.0083617,0.0050142,0.0062261,0.01806,0.040348,-0.017689,0.013013,0.0016475,0.12215,0.037205,-0.00090401,-0.12824,-0.015878,-0.031219,-0.01335
0.0054481,0.028332,-0.0011869,0.019616,0.009097,0.02038,-0.065423,0.0071064,-0.014701,0.0038285,0.0047464,0.0053526,0.024328,0.036877,-0.01164,0.01177,0.002051,0.13182,0.041354,0.0014657,-0.12718,-0.032264,-0.031926,-0.015668
0.011025,0.03638,0.0065507,0.01927,0.0045484,0.026234,-0.064144,0.0084336,-0.025645,0.0025815,0.0080223,0.004254,0.029318,0.031444,-0.0060631,0.010453,-0.0022732,0.13493,0.042621,0.0031978,-0.11329,-0.044059,-0.032306,-0.01763
0.010988,0.039054,0.01271,0.016602,-0.00022149,0.032045,-0.054817,0.0088203,-0.033383,0.0014926,0.012666,0.0021414,0.03105,0.027465,-0.0030272,0.0088037,-0.0098241,0.13442,0.044449,0.0042513,-0.094436,-0.049706,-0.034578,-0.018902
0.0069711,0.037225,0.015284,0.012238,-0.0036736,0.037699,-0.040516,0.0096175,-0.03342,-0.0023052,0.014933,-0.0013499,0.029713,0.027462,-0.0027997,0.0067275,-0.016341,0.133,0.048431,0.0052699,-0.081132,-0.048827,-0.037587,-0.019242
0.0027128,0.033393,0.01398,0.0083989,-0.0051102,0.0429,-0.027393,0.011469,-0.027731,-0.009443,0.012399,-0.0050113,0.026862,0.030372,-0.0046347,0.0050411,-0.017399,0.13108,0.052877,0.0069064,-0.078543,-0.043257,-0.038079,-0.019138
0.00081518,0.030452,0.010779,0.0073285,-0.004699,0.047189,-0.020379,0.01345,-0.022562,-0.017714,0.0063401,-0.0063432,0.023956,0.032132,-0.0079225,0.0053125,-0.011912,0.12727,0.054387,0.0090357,-0.08308,-0.036525,-0.033574,-0.019665
0.0011401,0.030424,0.0084508,0.0092919,-0.0030124,0.050314,-0.019232,0.013756,-0.022546,-0.023429,0.0011641,-0.0035143,0.021562,0.029415,-0.012405,0.0085382,-0.0034781,0.12084,0.051181,0.010553,-0.086656,-0.031771,-0.024292,-0.021428
0.0019852,0.033737,0.0080127,0.012169,-0.00073375,0.052514,-0.018514,0.011355,-0.026665,-0.024035,0.00097817,0.0025544,0.019572,0.023158,-0.017477,0.013727,0.001967,0.11349,0.045114,0.01011,-0.084678,-0.029707,-0.012578,-0.023458
0.0024901,0.03924,0.0074407,0.013268,0.0012511,0.054356,-0.011842,0.0070905,-0.029692,-0.020237,0.0061072,0.0081116,0.017828,0.018282,-0.021744,0.017949,0.00052502,0.10838,0.040361,0.0073121,-0.080407,-0.028396,-0.00074276,-0.023245
0.0036882,0.044787,0.0031548,0.011752,0.0018044,0.056291,0.0029645,0.0031219,-0.027522,-0.015896,0.012664,0.0091243,0.016403,0.019457,-0.023683,0.018313,-0.0068515,0.10707,0.039883,0.0033264,-0.081588,-0.025107,0.010378,-0.018367
0.0071453,0.04805,-0.0066087,0.0092995,8.4885e-006,0.058372,0.02214,0.0011789,-0.021183,-0.015463,0.015673,0.0046391,0.015433,0.026662,-0.022895,0.014479,-0.015448,0.10724,0.042954,0.00018856,-0.092466,-0.018718,0.020783,-0.0086884
0.012633,0.047361,-0.019381,0.0083174,-0.0040411,0.060381,0.038958,0.0012313,-0.015824,-0.020662,0.013055,-0.0019678,0.014924,0.034783,-0.020572,0.0094193,-0.020739,0.10349,0.046093,-0.00072332,-0.10857,-0.010638,0.029478,0.0027052
0.017324,0.042412,-0.029389,0.0094713,-0.0089314,0.062192,0.04872,0.0018455,-0.01586,-0.028981,0.0070268,-0.0052732,0.014803,0.037862,-0.018499,0.0074144,-0.021733,0.09115,0.046491,0.00029709,-0.11917,-0.0035958,0.033772,0.011022
0.017587,0.034603,-0.031478,0.011041,-0.012663,0.063966,0.051498,0.001845,-0.021048,-0.03534,0.0018411,-0.0020291,0.015048,0.034184,-0.017451,0.010649,-0.02096,0.070085,0.044612,0.0017443,-0.1152,0.00057876,0.030947,0.013022
0.011943,0.026709,-0.024954,0.010767,-0.013962,0.065981,0.050698,0.0015726,-0.027084,-0.035844,0.00014695,0.0061435,0.015573,0.027549,-0.016562,0.017258,-0.02148,0.045293,0.04348,0.0024021,-0.095843,0.00221,0.021054,0.0095945
0.0026042,0.021745,-0.014102,0.0082966,-0.013056,0.068205,0.049387,0.0024132,-0.029805,-0.030748,0.0012909,0.013964,0.015918,0.023617,-0.014386,0.022623,-0.023854,0.023624,0.045487,0.0024203,-0.068457,0.0030759,0.0081128,0.0053936
-0.0058454,0.021437,-0.0048534,0.0056887,-0.011223,0.069969,0.048056,0.0050336,-0.028727,-0.024283,0.0028177,0.016704,0.015198,0.024829,-0.010639,0.022968,-0.025838,0.0091082,0.049954,0.0029163,-0.042631,0.0044909,-0.0018644,0.0054224
-0.0095443,0.025195,-0.00039292,0.005411,-0.0096187,0.070039,0.045609,0.0082267,-0.02669,-0.021475,0.0032855,0.013908,0.012609,0.028613,-0.0068809,0.018257,-0.02485,0.0005062,0.053826,0.004537,-0.023918,0.005973,-0.0047437,0.011136
-0.0077379,0.030397,0.00057466,0.0078349,-0.0085193,0.067177,0.041943,0.0097704,-0.026375,-0.024502,0.0034398,0.009519,0.0081756,0.030354,-0.0052871,0.011953,-0.02073,-0.0071377,0.054643,0.0064624,-0.011933,0.0057418,-0.00091655,0.019341
-0.0027036,0.03397,0.001609,0.010783,-0.0075841,0.060934,0.038989,0.008657,-0.027477,-0.031442,0.0047292,0.0084402,0.0030268,0.028076,-0.0065395,0.0079559,-0.016134,-0.018384,0.052685,0.0068788,-0.0029346,0.0026409,0.0054369,0.025034
0.0023431,0.034275,0.0046392,0.011612,-0.0065771,0.052169,0.038892,0.0064653,-0.027296,-0.038191,0.007024,0.012563,-0.0012257,0.024288,-0.0088283,0.0074359,-0.014223,-0.034012,0.050229,0.0044925,0.0066215,-0.0022569,0.009706,0.025879
0.0053859,0.031973,0.0081127,0.009748,-0.0055956,0.042834,0.041212,0.0062544,-0.023948,-0.041731,0.0082234,0.019556,-0.003577,0.023326,-0.0090691,0.0082859,-0.015807,-0.050734,0.048914,-0.00031471,0.018551,-0.0059508,0.0099248,0.024411
0.0061853,0.029257,0.0088517,0.0071259,-0.0045997,0.035011,0.042255,0.0097486,-0.018741,-0.042019,0.0063767,0.025116,-0.0042945,0.026784,-0.0054442,0.0074998,-0.018602,-0.063772,0.048128,-0.0056664,0.033299,-0.0057539,0.0072162,0.025855
0.0054014,0.02806,0.0056704,0.0061303,-0.0030326,0.029735,0.037662,0.01542,-0.015268,-0.041189,0.0021651,0.026396,-0.0046018,0.031458,0.00091233,0.0042122,-0.019271,-0.070002,0.046027,-0.0094208,0.050103,-0.0018026,0.0038286,0.033379
0.0036252,0.028607,0.0011021,0.0071577,-0.00028708,0.026424,0.026109,0.019456,-0.016068,-0.041103,-0.00099706,0.023679,-0.0057011,0.031806,0.0066206,0.00065903,-0.016422,-0.069503,0.041897,-0.010363,0.066097,0.0022671,0.001023,0.044976
0.0013478,0.029383,-0.00057174,0.0083038,0.0033378,0.023379,0.010661,0.018941,-0.02009,-0.041567,0.00031634,0.019308,-0.0079816,0.024837,0.0086443,0.00026171,-0.011848,-0.064919,0.037151,-0.0085812,0.075851,0.0013143,-0.0012678,0.054816
-0.00049282,0.028447,0.002816,0.0074909,0.0064127,0.019076,-0.0036707,0.014437,-0.023399,-0.040714,0.0064411,0.015466,-0.01097,0.013067,0.006619,0.0045829,-0.0089586,-0.0596,0.033856,-0.0051285,0.073334,-0.0078353,-0.0032,0.057885
-0.00055994,0.025037,0.0092369,0.0048214,0.0075286,0.013336,-0.014164,0.0095527,-0.022425,-0.037064,0.014109,0.012953,-0.013839,0.0029089,0.0029986,0.011818,-0.0098307,-0.055809,0.032447,-0.0014952,0.055819,-0.023868,-0.0040278,0.053812
0.0017638,0.020242,0.014168,0.0026752,0.0068703,0.0075038,-0.022627,0.0078385,-0.016795,-0.031327,0.019074,0.01166,-0.015908,-0.00026845,0.00097071,0.018059,-0.013513,-0.053769,0.031207,0.00082436,0.026642,-0.041308,-0.0027136,0.046611
0.0051859,0.016265,0.0145,0.0033625,0.0064524,0.0034491,-0.033543,0.009811,-0.0093145,-0.026287,0.019454,0.011584,-0.016801,0.0036513,0.0019575,0.020172,-0.016956,-0.051784,0.028155,0.0008086,-0.0061466,-0.053623,0.00046552,0.040903
0.0067879,0.014828,0.011065,0.0066988,0.0083965,0.0020981,-0.049576,0.01281,-0.0034291,-0.024722,0.016777,0.013006,-0.016427,0.0094599,0.0047648,0.017859,-0.017566,-0.047398,0.023382,-0.0015308,-0.034801,-0.057096,0.0032463,0.038267
0.0041232,0.01587,0.007564,0.010037,0.012745,0.0026538,-0.068326,0.01379,-0.00066675,-0.027055,0.014046,0.015782,-0.015005,0.010672,0.0069157,0.01338,-0.015015,-0.039169,0.019296,-0.0049067,-0.056721,-0.05287,0.0028239,0.036932
-0.0024596,0.017563,0.007072,0.010826,0.017112,0.0032032,-0.083239,0.012402,-0.00021947,-0.030718,0.012946,0.018829,-0.013057,0.0044089,0.0068329,0.0095285,-0.010889,-0.028021,0.018428,-0.0073198,-0.075046,-0.04584,-0.0015623,0.034636
-0.0095153,0.017685,0.009391,0.0091502,0.01884,0.0023328,-0.088122,0.011413,-0.00051004,-0.031907,0.012874,0.020626,-0.011165,-0.0066803,0.0049616,0.0077676,-0.006841,-0.016974,0.020974,-0.0072954,-0.0944,-0.041223,-0.0072969,0.031489
-0.012916,0.015417,0.011579,0.0076303,0.017727,0.00046327,-0.081682,0.013959,-0.00074762,-0.028381,0.012325,0.020299,-0.0095424,-0.016746,0.0030527,0.0079591,-0.0032369,-0.0090407,0.02455,-0.004875,-0.11536,-0.041181,-0.0098749,0.029972
-0.01116,0.012098,0.010961,0.0087048,0.01656,-0.00028843,-0.068425,0.020134,-0.00088241,-0.021004,0.010824,0.018172,-0.0078935,-0.021247,0.0025035,0.0093729,0.00048896,-0.0047236,0.026394,-0.0014489,-0.13239,-0.043735,-0.0062994,0.032242
-0.0066683,0.010173,0.0077556,0.012033,0.018664,0.0022634,-0.055304,0.026236,-0.00041841,-0.012711,0.0092986,0.015327,-0.0059146,-0.020054,0.0033303,0.01157,0.004442,-0.0012975,0.025843,0.0014963,-0.13714,-0.04454,0.0023913,0.037573
-0.0037391,0.011029,0.0049361,0.014721,0.024656,0.008555,-0.046883,0.027669,0.0020586,-0.0058533,0.0087798,0.012753,-0.0040659,-0.016953,0.0045439,0.014239,0.0075402,0.0051173,0.024676,0.0035618,-0.12467,-0.040063,0.01171,0.042557
-0.0047659,0.013503,0.0054946,0.014263,0.031532,0.016804,-0.042871,0.023101,0.0075998,-0.00034344,0.009125,0.010945,-0.0037207,-0.016299,0.0053288,0.016503,0.0083506,0.016123,0.025087,0.0054096,-0.097656,-0.029909,0.017051,0.043907
-0.008015,0.014544,0.0095831,0.011288,0.035075,0.024271,-0.039674,0.016091,0.015018,0.0057023,0.0092557,0.010102,-0.0061667,-0.01968,0.0057971,0.016923,0.0066451,0.029149,0.02737,0.0075932,-0.065218,-0.016803,0.016992,0.041243
-0.0089927,0.011749,0.014094,0.0092269,0.03343,0.029086,-0.034243,0.012419,0.020707,0.013495,0.0085645,0.010357,-0.011083,-0.025103,0.0066759,0.01463,0.0040183,0.038959,0.029578,0.0095441,-0.037331,-0.0045784,0.013845,0.037331
-0.0043308,0.0057252,0.015155,0.011043,0.028595,0.031073,-0.026774,0.015222,0.021044,0.021772,0.0078114,0.01162,-0.015943,-0.029,0.0083876,0.010594,0.0028405,0.041531,0.029439,0.0099134,-0.018998,0.0041151,0.011163,0.035658
0.0051191,0.00014522,0.011505,0.016093,0.024577,0.031085,-0.020165,0.022167,0.015543,0.027569,0.0084588,0.013281,-0.017317,-0.029134,0.010529,0.0075142,0.0044983,0.037154,0.026621,0.0080512,-0.0084982,0.0087754,0.010644,0.037585
0.014657,-0.00080634,0.0058943,0.020288,0.024061,0.029879,-0.017084,0.027293,0.0077251,0.028958,0.011151,0.01432,-0.013422,-0.02607,0.012303,0.0080211,0.0085601,0.030086,0.023175,0.0050972,-0.00051858,0.010392,0.011218,0.041473
0.019308,0.0044035,0.0032008,0.019631,0.026593,0.027842,-0.017462,0.026041,0.0025436,0.027142,0.014951,0.013882,-0.0059356,-0.022323,0.013482,0.012517,0.013537,0.025045,0.021738,0.0034017,0.0088622,0.010233,0.010867,0.044316
0.01764,0.013512,0.0066472,0.013981,0.029618,0.025702,-0.018542,0.019139,0.0024921,0.025762,0.01807,0.011754,0.00065729,-0.020249,0.014876,0.018568,0.018338,0.023518,0.023207,0.0046336,0.01951,0.0093037,0.0090628,0.044295
0.012692,0.022295,0.015166,0.0075482,0.030993,0.025023,-0.017223,0.011918,0.0059702,0.027887,0.019247,0.0083455,0.0020225,-0.02052,0.017661,0.022507,0.022954,0.022975,0.025976,0.0083254,0.028609,0.0086901,0.0072546,0.042083
0.0092917,0.027787,0.024108,0.0055553,0.030477,0.027402,-0.012519,0.0097075,0.0093814,0.033408,0.018385,0.0043615,-0.0029085,-0.022196,0.022008,0.022007,0.02782,0.019539,0.027381,0.012274,0.034128,0.0099086,0.0070304,0.039987
0.010032,0.030164,0.0288,0.0099337,0.029102,0.032838,-0.0061479,0.013377,0.010783,0.039212,0.016029,0.0007353,-0.011111,-0.023886,0.026273,0.017593,0.03273,0.011699,0.025993,0.014444,0.036872,0.014404,0.0081051,0.039818
0.013206,0.031867,0.028106,0.017746,0.027497,0.038993,-0.0010591,0.01884,0.011384,0.041952,0.012556,-0.0011272,-0.017606,-0.02477,0.027792,0.011982,0.036556,0.0019034,0.022721,0.014573,0.039397,0.022399,0.0085117,0.041311
0.0144,0.034988,0.025144,0.023536,0.025097,0.04252,0.00064548,0.020731,0.013455,0.040834,0.0081283,0.00054462,-0.018869,-0.024733,0.024946,0.0080056,0.038131,-0.0051645,0.019806,0.014025,0.043277,0.032276,0.0069671,0.042362
0.010432,0.039373,0.024616,0.023478,0.020968,0.041549,-0.001224,0.016799,0.016989,0.037932,0.0034066,0.0068587,-0.014892,-0.023909,0.018855,0.0068375,0.037391,-0.006011,0.01864,0.014173,0.047682,0.041334,0.0048626,0.040852
0.0023962,0.04295,0.028965,0.01791,0.015156,0.03706,-0.005406,0.0092297,0.01888,0.035964,1.224e-006,0.016796,-0.0085347,-0.022357,0.013064,0.0077561,0.035583,-0.00063982,0.018323,0.014992,0.050627,0.047488,0.0054295,0.036553
-0.0047696,0.043617,0.036382,0.010577,0.0090069,0.031752,-0.010443,0.0021217,0.015833,0.03576,-0.00020816,0.026736,-0.0030905,-0.020198,0.011166,0.0092124,0.034277,0.007859,0.01624,0.015212,0.051426,0.050442,0.010437,0.031548
-0.0059996,0.040658,0.04209,0.0056261,0.0040337,0.027469,-0.015638,-0.0021491,0.0082706,0.03577,0.0034348,0.031992,-0.00020271,-0.017856,0.01421,0.010045,0.034083,0.015692,0.010245,0.013759,0.0517,0.051333,0.017529,0.028783
-0.00022457,0.034439,0.041689,0.0048905,0.00052737,0.023765,-0.021151,-0.0042984,0.0011435,0.03378,0.0093575,0.029728,0.00041929,-0.015954,0.020032,0.0099016,0.034252,0.020619,0.00069103,0.010987,0.053864,0.051312,0.021119,0.029843
0.0084167,0.025025,0.033934,0.0072001,-0.0025994,0.019072,-0.027428,-0.0063529,0.00031777,0.028975,0.014303,0.021134,-0.00016968,-0.014873,0.025107,0.0088929,0.033486,0.02255,-0.0093967,0.0085007,0.058632,0.0505,0.016558,0.033673
0.013349,0.01155,0.021024,0.0096689,-0.0065189,0.013225,-0.034599,-0.0089412,0.0074756,0.022402,0.015239,0.011007,-0.0013411,-0.014388,0.027283,0.0071681,0.031206,0.022642,-0.016255,0.0077665,0.064053,0.048255,0.0041276,0.037185
0.010221,-0.0067152,0.0066702,0.0096923,-0.011074,0.0085771,-0.042302,-0.010554,0.01813,0.015786,0.011314,0.0047632,-0.0030758,-0.013724,0.027098,0.0049288,0.028168,0.022127,-0.017997,0.0088306,0.067079,0.044297,-0.010731,0.037223
-0.00012169,-0.028514,-0.0062226,0.0063824,-0.014775,0.0083038,-0.049946,-0.0094349,0.024734,0.010196,0.0044805,0.0049973,-0.0053329,-0.01199,0.026692,0.0027071,0.025922,0.021906,-0.015881,0.010262,0.066189,0.039406,-0.021307,0.032431
-0.012528,-0.049917,-0.016522,0.00085993,-0.016318,0.013358,-0.056989,-0.0059671,0.022397,0.0059272,-0.0016577,0.010057,-0.0075284,-0.0086698,0.027501,0.0013531,0.025597,0.022779,-0.013217,0.01028,0.062674,0.034991,-0.024385,0.023881
-0.021326,-0.065814,-0.024191,-0.0045112,-0.016113,0.02107,-0.062765,-0.0028994,0.012441,0.0033061,-0.0039952,0.015569,-0.0087256,-0.0039649,0.028846,0.0014841,0.026946,0.025519,-0.012789,0.008041,0.059528,0.032099,-0.021958,0.014337
-0.023886,-0.072623,-0.029111,-0.007455,-0.016137,0.026902,-0.065897,-0.0029556,0.00099459,0.0030733,-0.0017507,0.01761,-0.008307,0.001127,0.02857,0.0028205,0.028377,0.030346,-0.014821,0.0041075,0.059077,0.030961,-0.018711,0.0068277
-0.021377,-0.070151,-0.030663,-0.0069819,-0.018068,0.027874,-0.063984,-0.006119,-0.0059232,0.0056045,0.0031039,0.015172,-0.0064533,0.0050841,0.025047,0.0041296,0.027956,0.036263,-0.017075,-8.9365e-005,0.061473,0.031442,-0.017794,0.0032963
-0.016764,-0.0613,-0.028391,-0.0038048,-0.021488,0.024606,-0.054383,-0.0093652,-0.0066151,0.0097669,0.007036,0.010298,-0.0040235,0.0065537,0.018778,0.0040428,0.024768,0.041125,-0.016908,-0.0031668,0.065141,0.033691,-0.018591,0.0037542
-0.012283,-0.050113,-0.022907,0.00022807,-0.024052,0.020296,-0.036067,-0.0093245,-0.003971,0.012888,0.0070723,0.0061775,-0.0019926,0.0052244,0.012319,0.0021749,0.01973,0.042774,-0.013543,-0.004384,0.068408,0.038093,-0.018088,0.0062338
-0.0085587,-0.039799,-0.016084,0.0032245,-0.023653,0.01779,-0.011289,-0.0054777,-0.0021318,0.012315,0.0025991,0.0048125,-0.00092229,0.0022755,0.0086726,-0.00045564,0.015217,0.040489,-0.0087027,-0.0036838,0.070663,0.044551,-0.014126,0.0077022
-0.0055554,-0.031953,-0.01023,0.0040922,-0.020561,0.017463,0.014626,-0.00083762,-0.0027981,0.0074026,-0.0042948,0.0059161,-0.00079681,-0.00012185,0.0093923,-0.002219,0.013552,0.035611,-0.0051991,-0.001439,0.07214,0.051993,-0.0073936,0.0057256
-0.003708,-0.026895,-0.0068946,0.0027155,-0.017369,0.017584,0.035865,0.00065216,-0.0042931,0.00016377,-0.010224,0.0075341,-0.0012101,-8.3191e-005,0.013713,-0.0023229,0.015333,0.030796,-0.0047393,0.0017758,0.072942,0.058866,-0.00056475,2.077e-005
-0.0037617,-0.024203,-0.0061827,-0.00029052,-0.016662,0.016421,0.049534,-0.0023023,-0.0037658,-0.0060596,-0.012772,0.0076818,-0.0016612,0.0028411,0.019155,-0.0016551,0.018934,0.028506,-0.0067685,0.0053121,0.07258,0.064228,0.0041949,-0.0072195
-0.0055314,-0.02287,-0.0069621,-0.0037852,-0.018636,0.013923,0.057295,-0.0070572,-0.00020139,-0.0088731,-0.012016,0.0057799,-0.0017425,0.0075524,0.023081,-0.0021465,0.021836,0.029825,-0.0091566,0.0085648,0.070549,0.068309,0.0068073,-0.012668
-0.0071963,-0.021366,-0.0076804,-0.0062226,-0.020987,0.011596,0.063836,-0.0092407,0.004516,-0.0082792,-0.010128,0.0030148,-0.0011931,0.012357,0.024145,-0.0050538,0.022887,0.034266,-0.0099588,0.011092,0.067187,0.071848,0.0086269,-0.014068
-0.0063149,-0.018203,-0.0071692,-0.0061021,-0.021172,0.010987,0.073306,-0.0064873,0.0072608,-0.0063299,-0.009332,0.0014795,6.7877e-005,0.016088,0.022767,-0.0096219,0.023483,0.040289,-0.0087108,0.012638,0.063711,0.074884,0.010577,-0.011737
-0.0019319,-0.012955,-0.0050297,-0.0029158,-0.01876,0.012336,0.08649,-0.00037633,0.0063635,-0.0054768,-0.0098562,0.0026365,0.0018447,0.018457,0.020476,-0.013402,0.026311,0.04587,-0.0063398,0.013048,0.061204,0.076303,0.012163,-0.0082647
0.004167,-0.006851,-0.0015956,0.0020341,-0.015545,0.014482,0.10068,0.0050639,0.0028984,-0.0069613,-0.0096618,0.006045,0.0035834,0.019565,0.018675,-0.014106,0.032469,0.048863,-0.0040766,0.012273,0.059588,0.074751,0.012292,-0.006652
0.0084311,-0.0021111,0.0023125,0.0059257,-0.013442,0.015832,0.11186,0.0068148,-0.00044255,-0.010285,-0.0063183,0.0092731,0.0044911,0.019386,0.017731,-0.011447,0.039638,0.047447,-0.0025289,0.010587,0.057702,0.070044,0.010786,-0.0082231
0.0081435,-0.00027418,0.0056807,0.0060369,-0.012476,0.015435,0.11714,0.0051541,-0.0016703,-0.01385,0.00047544,0.0093243,0.0039367,0.017905,0.016995,-0.0073622,0.043433,0.040862,-0.0017103,0.0087904,0.054497,0.063614,0.0087427,-0.011772
0.0035175,-0.0009119,0.0076145,0.0016165,-0.011008,0.013418,0.11567,0.0028635,-0.00081734,-0.016098,0.0079459,0.0048781,0.0019377,0.015702,0.015598,-0.0043946,0.041175,0.03,-0.0017851,0.0079364,0.050117,0.057428,0.0072262,-0.014478
-0.0024543,-0.0019918,0.0076348,-0.0055308,-0.0079179,0.010747,0.1082,0.0023342,0.00083569,-0.016343,0.011922,-0.0022066,-0.00065548,0.014071,0.013332,-0.0037272,0.034728,0.017162,-0.0036004,0.0084765,0.045746,0.052353,0.005726,-0.013948
-0.0062058,-0.0017098,0.005838,-0.012294,-0.004339,0.0086311,0.096269,0.0033694,0.0026373,-0.014884,0.0099715,-0.0075283,-0.0025422,0.014149,0.010891,-0.004616,0.029406,0.0048278,-0.0083154,0.0095203,0.042385,0.047514,0.0023249,-0.010034
-0.0059807,-0.0001529,0.0028031,-0.016305,-0.0030061,0.0078321,0.081906,0.0036458,0.0054835,-0.012452,0.0034496,-0.0069232,-0.0027619,0.015712,0.0093382,-0.0055953,0.02945,-0.0056907,-0.016322,0.0091782,0.039878,0.041256,-0.0041753,-0.0051541
-0.00256,0.00080309,-0.00069755,-0.017129,-0.0057982,0.0080838,0.067305,0.0011983,0.0107,-0.0095147,-0.0033761,0.00037838,-0.0013426,0.016909,0.009259,-0.0061006,0.034044,-0.014609,-0.026364,0.006157,0.037218,0.032764,-0.012138,-0.0027966
0.0018967,-0.00069598,-0.0039687,-0.015848,-0.011929,0.0079272,0.054007,-0.00354,0.017941,-0.005977,-0.0065366,0.010654,0.000711,0.015554,0.010257,-0.006838,0.037762,-0.022806,-0.035703,0.0013999,0.033707,0.022851,-0.017374,-0.0051123
0.0055423,-0.0047035,-0.0064732,-0.013775,-0.018505,0.0053379,0.041925,-0.0080307,0.024343,-0.0015506,-0.005278,0.017802,0.0021162,0.011045,0.011107,-0.0086263,0.035463,-0.030657,-0.041385,-0.0019494,0.029658,0.013281,-0.01614,-0.01129
0.0075787,-0.0094646,-0.0077905,-0.011581,-0.022738,-0.0009017,0.029407,-0.0098246,0.026222,0.0034975,-0.0021982,0.017389,0.0021508,0.0051997,0.010444,-0.011078,0.027316,-0.037689,-0.041819,-0.0007757,0.025884,0.0054149,-0.0084284,-0.017984
0.0077935,-0.013153,-0.0076675,-0.0094175,-0.02359,-0.00986,0.014888,-0.0084882,0.022129,0.0079389,-0.0005277,0.0096606,0.00097014,0.0010463,0.0075897,-0.012634,0.019188,-0.043245,-0.037595,0.0051463,0.022682,-0.00045881,0.001567,-0.021585
0.0058999,-0.01554,-0.0062297,-0.0074936,-0.021587,-0.018283,-0.0010792,-0.0055443,0.014573,0.010071,-0.0010758,-0.00078288,-0.00077803,0.00047816,0.0031412,-0.012005,0.017688,-0.047244,-0.031033,0.012206,0.019684,-0.0045118,0.0086374,-0.020639
0.0016847,-0.017817,-0.0041193,-0.0062999,-0.017597,-0.022188,-0.015481,-0.0027728,0.0085192,0.0089164,-0.0017286,-0.0084132,-0.0025715,0.0028001,-0.0010313,-0.009529,0.024172,-0.050171,-0.024843,0.015178,0.016898,-0.0062294,0.010886,-0.016595
-0.0041598,-0.020728,-0.0022372,-0.0062668,-0.012292,-0.019596,-0.025067,-0.00075379,0.0075643,0.0052165,-2.4333e-006,-0.010602,-0.0042223,0.0054942,-0.0025573,-0.007015,0.033258,-0.052395,-0.020804,0.011174,0.015795,-0.0040628,0.011396,-0.012408
-0.0096323,-0.023,-0.0011129,-0.0073488,-0.0067818,-0.012665,-0.029486,0.00093969,0.010914,0.0012638,0.0038513,-0.0088964,-0.005545,0.006521,4.1116e-005,-0.0061554,0.0374,-0.053751,-0.019204,0.0021679,0.019005,0.003473,0.015589,-0.010286
-0.012287,-0.021972,-0.00041113,-0.0090171,-0.0031795,-0.0075303,-0.032358,0.0023772,0.013865,-0.00052754,0.0064129,-0.0069792,-0.0060271,0.0060465,0.0060463,-0.0070243,0.033526,-0.053958,-0.019164,-0.0061309,0.028516,0.01601,0.026372,-0.010418
-0.010925,-0.016135,0.0008305,-0.010612,-0.0037585,-0.011396,-0.038797,0.0024788,0.011628,0.00067232,0.0041014,-0.0073126,-0.0051107,0.0060202,0.01235,-0.0080845,0.02568,-0.053338,-0.019396,-0.0083989,0.043878,0.030453,0.041214,-0.011457
-0.0066775,-0.0072542,0.0032238,-0.011661,-0.0090092,-0.028287,-0.051133,-0.00012881,0.0033864,0.0034882,-0.0030525,-0.0094003,-0.0029845,0.0080464,0.014901,-0.0076647,0.021215,-0.052822,-0.018926,-0.0036449,0.062002,0.042099,0.05363,-0.011944
-0.0024141,0.00017831,0.0061078,-0.011943,-0.016503,-0.056048,-0.066527,-0.0053952,-0.0068258,0.0053928,-0.010599,-0.010959,-0.0010105,0.011586,0.011141,-0.0055208,0.023999,-0.052985,-0.017504,0.0041145,0.078723,0.047258,0.057833,-0.011301
-0.00083427,0.0020647,0.0076697,-0.011467,-0.022073,-0.086689,-0.078837,-0.011137,-0.013227,0.0046701,-0.013002,-0.010592,-0.0010138,0.014174,0.0017443,-0.0030897,0.030884,-0.053128,-0.015639,0.0089728,0.090809,0.045516,0.052631,-0.0097467
-0.002728,-0.0021222,0.0062945,-0.01052,-0.022682,-0.11015,-0.083366,-0.014329,-0.012779,0.0017404,-0.008377,-0.0092787,-0.0037454,0.013414,-0.0097427,-0.0022651,0.034699,-0.051659,-0.014239,0.007583,0.096997,0.039876,0.041559,-0.0076941
-0.0067139,-0.008829,0.0021195,-0.0096967,-0.018609,-0.11933,-0.080463,-0.013433,-0.0073504,-0.0011885,-0.00034722,-0.0092861,-0.007871,0.0089035,-0.019235,-0.0038028,0.030991,-0.047675,-0.01395,0.0014973,0.097771,0.034523,0.029594,-0.005467
-0.010476,-0.013078,-0.0026589,-0.0096668,-0.012998,-0.11325,-0.074862,-0.0097056,-0.0018959,-0.0017925,0.0047985,-0.011666,-0.010647,0.0023915,-0.024607,-0.0066948,0.022284,-0.042188,-0.014526,-0.0042978,0.094593,0.031794,0.019591,-0.0035083
-0.012381,-0.012136,-0.0052367,-0.010696,-0.0091575,-0.096739,-0.071381,-0.0063001,-0.00041673,0.00078427,0.0032505,-0.0149,-0.0099806,-0.0037906,-0.026376,-0.0089725,0.015932,-0.037422,-0.014766,-0.0053464,0.08929,0.030559,0.011348,-0.0025338
-0.012317,-0.0072905,-0.004326,-0.012344,-0.0079403,-0.077096,-0.070868,-0.0059268,-0.0031793,0.0056287,-0.0033686,-0.016146,-0.0061456,-0.0084591,-0.026196,-0.0092096,0.017548,-0.034534,-0.013236,-0.0010315,0.083665,0.027182,0.0034592,-0.0031838
-0.011451,-0.0025398,-0.0011234,-0.013694,-0.0074371,-0.06031,-0.069919,-0.0090071,-0.0072648,0.011027,-0.0097021,-0.013973,-0.0015623,-0.011972,-0.024802,-0.0074811,0.025974,-0.032009,-0.0093476,0.0052524,0.079059,0.018322,-0.0043944,-0.005427
-0.011415,-0.0014612,0.0017594,-0.01401,-0.0051127,-0.049056,-0.064431,-0.013677,-0.0094629,0.01566,-0.011271,-0.00997,0.0012591,-0.015251,-0.021511,-0.0050615,0.034286,-0.026744,-0.0039284,0.0089801,0.075905,0.0035855,-0.011025,-0.0083563
-0.013486,-0.004765,0.0024492,-0.01325,-0.00040972,-0.043061,-0.053635,-0.017355,-0.0086712,0.019051,-0.007816,-0.0075414,0.0017638,-0.018683,-0.015752,-0.0032358,0.035809,-0.017311,0.0012576,0.0079961,0.073672,-0.013808,-0.01526,-0.010615
-0.017963,-0.010147,0.0011077,-0.012008,0.0044739,-0.040689,-0.041048,-0.018443,-0.0058977,0.021233,-0.0026376,-0.0089021,0.0015263,-0.02203,-0.0089518,-0.0023351,0.02975,-0.0063865,0.0046187,0.0038822,0.071411,-0.028741,-0.017424,-0.011047
-0.023768,-0.014149,-0.00072387,-0.010999,0.0062709,-0.040314,-0.031714,-0.016963,-0.0025072,0.022355,0.00095476,-0.012991,0.0024707,-0.025156,-0.0045338,-0.0018461,0.021595,0.00047525,0.0054722,0.00030615,0.068535,-0.037151,-0.019007,-0.0090653
-0.028568,-0.014429,-0.0019379,-0.010589,0.0033228,-0.040848,-0.028417,-0.01402,0.0011013,0.022713,0.0025059,-0.016287,0.0049265,-0.028453,-0.005595,-0.0014108,0.01822,-0.00071557,0.0038246,-6.1898e-005,0.065146,-0.038264,-0.020822,-0.004742
-0.029763,-0.010921,-0.0029563,-0.01072,-0.0030048,-0.041798,-0.030128,-0.010868,0.0050801,0.022971,0.0040415,-0.015851,0.0073966,-0.032211,-0.012208,-0.0016461,0.0222,-0.0084598,-0.00030537,0.0025651,0.061613,-0.034711,-0.021675,0.0010873
-0.026111,-0.0054904,-0.0050134,-0.011107,-0.009296,-0.043265,-0.033611,-0.0083398,0.0088483,0.023948,0.0072605,-0.011838,0.0081346,-0.035593,-0.020941,-0.0038308,0.030119,-0.016225,-0.0069776,0.0058284,0.057877,-0.030518,-0.019178,0.0067119
-0.018885,-0.00063702,-0.0083986,-0.011393,-0.012579,-0.045798,-0.036231,-0.0068294,0.010854,0.025901,0.011391,-0.0072171,0.0068161,-0.036549,-0.027255,-0.0085861,0.035892,-0.017465,-0.015512,0.0076469,0.053217,-0.028415,-0.012164,0.009952
-0.011396,0.0018533,-0.011534,-0.011217,-0.012284,-0.049821,-0.037275,-0.0065077,0.010081,0.027996,0.013913,-0.0049993,0.004601,-0.033232,-0.028792,-0.014737,0.035796,-0.01114,-0.023741,0.0079815,0.046801,-0.028376,-0.0024834,0.0093542
-0.0068611,0.0017298,-0.012001,-0.010399,-0.010185,-0.054862,-0.036935,-0.0074049,0.0078306,0.028741,0.013311,-0.005579,0.0026736,-0.025878,-0.02675,-0.019556,0.030923,-0.0028674,-0.028669,0.0083917,0.038593,-0.028359,0.0056835,0.0054694
-0.0061639,0.00033508,-0.008722,-0.0092752,-0.0085646,-0.059363,-0.034533,-0.0092774,0.0075544,0.027225,0.010929,-0.0066588,0.00097576,-0.017349,-0.024304,-0.02045,0.025466,-0.00045364,-0.028588,0.010037,0.029778,-0.026541,0.0086892,0.00089102
-0.0073767,-0.0001221,-0.003305,-0.0088003,-0.0082848,-0.061587,-0.028143,-0.01145,0.012232,0.024082,0.0098978,-0.0057639,-0.001432,-0.011544,-0.023736,-0.016818,0.022913,-0.007491,-0.024888,0.012255,0.022262,-0.023146,0.0061743,-0.0014879
-0.0075523,0.0021284,0.00079293,-0.0099592,-0.0083594,-0.061106,-0.016189,-0.012893,0.021305,0.021144,0.012055,-0.0028957,-0.0048121,-0.010707,-0.024809,-0.010564,0.02355,-0.020423,-0.021506,0.013163,0.017453,-0.020282,0.0014519,-0.00081031
-0.0052735,0.0071377,0.00073045,-0.012721,-0.0072234,-0.059556,0.00057966,-0.012656,0.030098,0.01988,0.015854,-0.00074343,-0.007824,-0.013776,-0.025553,-0.004781,0.024971,-0.03148,-0.021892,0.011588,0.015157,-0.019919,-0.00084253,0.00094742
-0.0017269,0.012864,-0.0036017,-0.015495,-0.0044389,-0.059821,0.018791,-0.010457,0.032745,0.019986,0.017377,-0.0022049,-0.0084358,-0.017125,-0.02432,-0.001647,0.024509,-0.034847,-0.025899,0.00831,0.013327,-0.021759,0.0019793,0.00074983
0.00061156,0.016251,-0.0094757,-0.015929,-0.0012724,-0.064093,0.034264,-0.0070284,0.026623,0.01947,0.013653,-0.0075421,-0.0058678,-0.017122,-0.02111,-0.0011628,0.021265,-0.03085,-0.029585,0.0053246,0.0089835,-0.022997,0.0089173,-0.0025159
0.00040004,0.015267,-0.013241,-0.012771,0.00037043,-0.072304,0.044316,-0.0038331,0.014709,0.016338,0.0053181,-0.013867,-0.0015408,-0.012504,-0.017195,-0.0016164,0.016339,-0.02495,-0.028505,0.0039762,-0.00011505,-0.020433,0.016211,-0.0066296
-0.0013214,0.010474,-0.012745,-0.0073048,-0.00028092,-0.082113,0.048472,-0.0022069,0.0037953,0.01049,-0.0037341,-0.017452,0.0020637,-0.004811,-0.013743,-0.0012173,0.011674,-0.022885,-0.02182,0.0039344,-0.013939,-0.013393,0.02001,-0.0077938
-0.0021994,0.0047633,-0.0085605,-0.0029291,-0.0019304,-0.090353,0.047137,-0.0024968,-0.00020883,0.0041024,-0.009323,-0.016717,0.0035758,0.0032337,-0.010806,0.00050328,0.0087796,-0.026296,-0.013504,0.0040453,-0.029803,-0.0050468,0.018698,-0.0041976
-0.00087884,0.00127,-0.0033968,-0.0028875,-0.0019881,-0.094752,0.039853,-0.0038784,0.0037159,3.1416e-005,-0.0099666,-0.013156,0.0037787,0.0098538,-0.0074598,0.0025566,0.0081404,-0.032314,-0.0093762,0.0040243,-0.04363,-0.00080128,0.013363,0.0019414
0.0016873,0.0010323,-0.00036902,-0.0077619,0.0014886,-0.09479,0.025198,-0.0050214,0.011426,-0.0005309,-0.0075002,-0.0095293,0.0044913,0.01506,-0.0028067,0.0035073,0.009229,-0.036856,-0.012421,0.0050319,-0.05235,-0.0047186,0.0064868,0.0060753
0.0031934,0.0023169,-0.0013265,-0.014738,0.0081784,-0.091463,0.0027575,-0.0050302,0.017093,0.00082646,-0.0051817,-0.0072395,0.0064709,0.019605,0.0029463,0.0026378,0.010751,-0.038348,-0.02045,0.0083627,-0.055979,-0.016518,0.00019149,0.0055189
0.0022793,0.0021754,-0.0060879,-0.019361,0.01548,-0.086495,-0.024603,-0.0038679,0.017518,0.00086693,-0.0051743,-0.0054964,0.0085119,0.023128,0.008008,0.00032898,0.011088,-0.038615,-0.028034,0.013547,-0.057812,-0.031408,-0.0046401,0.0022734
-3.8352e-005,-0.0010961,-0.012729,-0.018599,0.020171,-0.081622,-0.050415,-0.0020187,0.013943,-0.0027299,-0.0074168,-0.0029586,0.0086553,0.023258,0.0094443,-0.0024969,0.0090891,-0.04051,-0.030828,0.017921,-0.062345,-0.042937,-0.0080916,0.0015229
-0.0011767,-0.0066692,-0.018592,-0.012992,0.020567,-0.078031,-0.066967,9.5565e-005,0.010294,-0.0093972,-0.010346,3.4734e-005,0.0062251,0.016658,0.0044977,-0.0052576,0.004929,-0.044798,-0.0285,0.018369,-0.072261,-0.046809,-0.010481,0.0067769
0.00072063,-0.012051,-0.02152,-0.0062942,0.017649,-0.075877,-0.068836,0.0022883,0.0097415,-0.01589,-0.012386,0.0011575,0.0025526,0.0014264,-0.0077156,-0.0081254,0.00027203,-0.049297,-0.024039,0.013794,-0.086752,-0.043017,-0.011996,0.016018
0.0051393,-0.015192,-0.02081,-0.0028134,0.014358,-0.074034,-0.055177,0.004332,0.012548,-0.018562,-0.012884,-0.0017229,-0.00037769,-0.020898,-0.025093,-0.011643,-0.0027763,-0.05109,-0.020636,0.0061192,-0.1026,-0.035032,-0.012888,0.022682
0.0096574,-0.015954,-0.017428,-0.0043558,0.013546,-0.070554,-0.029475,0.0058175,0.016617,-0.016016,-0.012094,-0.00794,-0.0019649,-0.045321,-0.042965,-0.015877,-0.0033583,-0.049657,-0.019238,-0.0010547,-0.11729,-0.027117,-0.013832,0.021016
0.011973,-0.015814,-0.013336,-0.0090121,0.016003,-0.063973,0.0026142,0.0065516,0.019677,-0.010168,-0.010753,-0.013717,-0.00359,-0.065601,-0.056144,-0.019867,-0.0027517,-0.047878,-0.018722,-0.0049224,-0.13165,-0.022033,-0.015909,0.011196
0.011584,-0.016348,-0.010287,-0.012733,0.019902,-0.054784,0.035669,0.0070917,0.020879,-0.0049723,-0.0098022,-0.014834,-0.0071159,-0.077365,-0.061509,-0.021959,-0.0034438,-0.049771,-0.017917,-0.0050219,-0.14983,-0.020646,-0.020145,-0.00048779
0.0097285,-0.017993,-0.0088931,-0.012542,0.022067,-0.04578,0.065901,0.0085887,0.020647,-0.0037143,-0.010299,-0.010121,-0.012768,-0.080117,-0.059405,-0.020947,-0.0069791,-0.056937,-0.017087,-0.0028634,-0.17638,-0.023009,-0.026834,-0.0066885
0.0079477,-0.020126,-0.0085629,-0.0088941,0.020215,-0.040574,0.091501,0.011742,0.019561,-0.0067647,-0.013106,-0.0026996,-0.01853,-0.076853,-0.052966,-0.017209,-0.012469,-0.066993,-0.017487,-0.00040805,-0.21229,-0.029191,-0.035087,-0.0048702
0.0068445,-0.02215,-0.0082373,-0.0052832,0.014692,-0.04098,0.11248,0.015774,0.017809,-0.011331,-0.018299,0.002205,-0.021726,-0.07166,-0.045932,-0.012783,-0.017242,-0.075523,-0.01978,0.0011036,-0.25274,-0.038763,-0.042897,0.0011602
0.0061274,-0.024409,-0.0071889,-0.0053559,0.0084816,-0.045195,0.13023,0.018609,0.015709,-0.013376,-0.024775,0.0011355,-0.021319,-0.067067,-0.040617,-0.010056,-0.019178,-0.079724,-0.023192,0.0012562,-0.2878,-0.049602,-0.047864,0.0051558
0.0055413,-0.028023,-0.0052654,-0.0098598,0.0054214,-0.048438,0.14662,0.018387,0.014295,-0.010391,-0.030672,-0.0051901,-0.018815,-0.06305,-0.037309,-0.0099376,-0.018562,-0.080317,-0.026265,1.4323e-005,-0.30563,-0.057792,-0.048398,0.0039405
0.0054132,-0.033798,-0.0026428,-0.015918,0.00771,-0.045969,0.16246,0.015034,0.01482,-0.0031251,-0.034563,-0.012708,-0.016931,-0.058211,-0.035071,-0.011047,-0.017646,-0.079978,-0.028282,-0.0024136,-0.29684,-0.059513,-0.044811,-0.00045101
0.0061582,-0.041169,0.00034478,-0.019177,0.01432,-0.036402,0.17619,0.010375,0.017398,0.0049326,-0.036553,-0.017146,-0.017296,-0.051911,-0.032914,-0.010834,-0.018242,-0.080007,-0.029768,-0.0052807,-0.25841,-0.053766,-0.039451,-0.0034915
0.0074256,-0.048062,0.0030155,-0.016995,0.021421,-0.022759,0.18407,0.0066272,0.020297,0.0099073,-0.038276,-0.016855,-0.019226,-0.045465,-0.030381,-0.007864,-0.019717,-0.07868,-0.031611,-0.0072472,-0.19604,-0.043532,-0.035482,-0.0026623
0.008075,-0.051845,0.0042053,-0.010131,0.024666,-0.010293,0.18217,0.0046729,0.021034,0.0099843,-0.041572,-0.01334,-0.020545,-0.041352,-0.027426,-0.0033018,-0.019534,-0.072958,-0.033859,-0.0070944,-0.12324,-0.033972,-0.034842,0.00059192
0.007236,-0.050757,0.0028029,-0.0018415,0.021949,-0.0027107,0.169,0.003704,0.018523,0.0061985,-0.046832,-0.0095585,-0.019589,-0.041207,-0.024138,-0.00014947,-0.016037,-0.061736,-0.035555,-0.0047908,-0.05673,-0.028817,-0.036781,0.0028755
0.0053492,-0.044956,-0.0011432,0.0045169,0.014813,0.00023361,0.14674,0.0024025,0.014194,0.0011904,-0.052399,-0.0077161,-0.016539,-0.044346,-0.020722,-0.00075638,-0.010846,-0.047277,-0.035756,-0.0018481,-0.0090843,-0.027785,-0.038206,0.0023655
0.0038719,-0.036589,-0.0057465,0.0073326,0.0074414,0.0019154,0.11996,0.00028578,0.01079,-0.002829,-0.055659,-0.0082459,-0.013041,-0.048118,-0.017589,-0.0047831,-0.0082675,-0.033358,-0.034544,-0.00038268,0.017309,-0.027126,-0.035743,0.00031024
0.0036876,-0.028819,-0.0080328,0.0069278,0.0038018,0.0056344,0.092849,-0.0021479,0.0098333,-0.0052266,-0.055057,-0.010328,-0.010699,-0.049749,-0.01523,-0.009493,-0.011808,-0.022094,-0.032877,-0.0015132,0.030764,-0.022795,-0.028115,-0.00064328
0.0038263,-0.024241,-0.0059552,0.004573,0.0048833,0.011852,0.067395,-0.0043805,0.010204,-0.0066068,-0.051412,-0.013004,-0.0099356,-0.048144,-0.013819,-0.012138,-0.020757,-0.012684,-0.031395,-0.0044741,0.044042,-0.013569,-0.017089,0.00070401
0.0021056,-0.023532,-0.00017848,0.0015249,0.0080831,0.01817,0.044069,-0.0066114,0.009286,-0.0078303,-0.047372,-0.015728,-0.010182,-0.044282,-0.012927,-0.012263,-0.030079,-0.0032924,-0.029496,-0.0072745,0.065101,-0.001686,-0.0063463,0.002931
-0.0025475,-0.025115,0.0060051,-0.0012932,0.0092518,0.021857,0.023967,-0.0093327,0.005573,-0.0095685,-0.045368,-0.018078,-0.010879,-0.040125,-0.011691,-0.011846,-0.034065,0.0059938,-0.025756,-0.0083594,0.09135,0.0091906,0.0008106,0.003435
-0.0082918,-0.026208,0.0088902,-0.0032661,0.0058367,0.022527,0.0098957,-0.012335,0.00015165,-0.012536,-0.045691,-0.019306,-0.012047,-0.037125,-0.0094094,-0.01325,-0.030819,0.012242,-0.019417,-0.0078215,0.11166,0.016642,0.0032499,0.00090583
-0.011199,-0.024678,0.0071413,-0.004214,-0.0013643,0.022642,0.0047623,-0.014556,-0.0043846,-0.017473,-0.046297,-0.018562,-0.0138,-0.035502,-0.0061279,-0.016954,-0.023711,0.011799,-0.011491,-0.0071417,0.1145,0.02062,0.0022028,-0.0034961
-0.008455,-0.020487,0.0029118,-0.0046139,-0.00917,0.025573,0.008487,-0.015228,-0.0064497,-0.024242,-0.044524,-0.015803,-0.01547,-0.034564,-0.0027905,-0.021125,-0.018541,0.0034185,-0.004365,-0.0077744,0.096141,0.022519,-5.3509e-006,-0.0071893
-0.0011861,-0.015618,0.00024081,-0.0054049,-0.014709,0.033035,0.016555,-0.015075,-0.0068439,-0.030842,-0.039345,-0.012454,-0.015568,-0.033479,-0.00081353,-0.023249,-0.018865,-0.010584,-0.00013962,-0.0098901,0.063097,0.023502,-0.0016151,-0.0083612
0.0059066,-0.012502,0.0018356,-0.007189,-0.017406,0.044007,0.022225,-0.015973,-0.0076417,-0.033928,-0.032298,-0.010821,-0.012901,-0.031766,-0.0012359,-0.022214,-0.023511,-0.026181,0.0008739,-0.012337,0.027825,0.023702,-0.0023739,-0.0073729
0.0081423,-0.012156,0.0067557,-0.0094294,-0.018622,0.055748,0.021105,-0.019055,-0.0098048,-0.031249,-0.02635,-0.012364,-0.0078665,-0.0293,-0.0038722,-0.019042,-0.028202,-0.040808,0.00027966,-0.013729,0.001563,0.022729,-0.0032982,-0.0062879
0.0046628,-0.013604,0.010933,-0.010568,-0.019598,0.06579,0.014399,-0.023137,-0.012052,-0.024196,-0.023655,-0.016228,-0.0025693,-0.026164,-0.007056,-0.015898,-0.029554,-0.055161,0.00036202,-0.013609,-0.010652,0.020586,-0.0055876,-0.0070458
-0.00098934,-0.015007,0.010245,-0.0092956,-0.019894,0.07331,0.0080944,-0.025341,-0.012248,-0.017787,-0.024066,-0.019544,0.00051907,-0.022636,-0.0084192,-0.014496,-0.027756,-0.07232,0.0025664,-0.012731,-0.010349,0.01794,-0.0095136,-0.0098384
-0.0041043,-0.015403,0.0037629,-0.0060446,-0.017916,0.079079,0.0088587,-0.023626,-0.0099708,-0.017306,-0.025512,-0.019626,0.00026133,-0.019241,-0.0064935,-0.015171,-0.025803,-0.095095,0.0067618,-0.012389,-0.002608,0.015513,-0.014082,-0.012976
-0.0029417,-0.015334,-0.0054506,-0.0032594,-0.012965,0.084446,0.020153,-0.01889,-0.0076046,-0.024,-0.025781,-0.016347,-0.0024992,-0.016599,-0.0020416,-0.017025,-0.02644,-0.12356,0.011513,-0.013513,0.0074489,0.01339,-0.017729,-0.014287
-2.3238e-005,-0.015778,-0.012674,-0.0038327,-0.0067088,0.0903,0.041405,-0.014518,-0.0085866,-0.03357,-0.024105,-0.012533,-0.0057273,-0.014992,0.0021782,-0.018626,-0.029918,-0.15427,0.014867,-0.016241,0.016636,0.011018,-0.019519,-0.012866
0.00051979,-0.01657,-0.015118,-0.0087036,-0.0025172,0.096664,0.069837,-0.013721,-0.014193,-0.039121,-0.021259,-0.011793,-0.0075543,-0.013952,0.0034549,-0.01871,-0.034465,-0.18148,0.015128,-0.020087,0.023944,0.0079464,-0.019856,-0.0097675
-0.0030142,-0.016119,-0.013856,-0.015612,-0.003103,0.10295,0.10213,-0.017087,-0.02182,-0.036412,-0.018269,-0.015463,-0.0070885,-0.012316,0.0015044,-0.016722,-0.038533,-0.19957,0.011412,-0.024275,0.029854,0.0045326,-0.020029,-0.0071601
-0.008256,-0.012954,-0.012594,-0.020325,-0.0084594,0.10847,0.13407,-0.022489,-0.026569,-0.02715,-0.015062,-0.021343,-0.0043671,-0.0088792,-0.0009944,-0.013163,-0.04226,-0.20566,0.0039988,-0.027964,0.03542,0.0017829,-0.020937,-0.006722
-0.010995,-0.007579,-0.014384,-0.019675,-0.015797,0.1128,0.15929,-0.027118,-0.025012,-0.017641,-0.010358,-0.025413,9.327e-006,-0.0033177,-0.000549,-0.0095078,-0.046683,-0.20082,-0.005678,-0.030426,0.041364,0.00036288,-0.022186,-0.0086408
-0.0091254,-0.0025436,-0.019101,-0.0141,-0.021442,0.11584,0.1704,-0.029535,-0.017976,-0.013985,-0.0029497,-0.025102,0.005017,0.0032667,0.0039516,-0.0074651,-0.05178,-0.18917,-0.015522,-0.031386,0.047322,-0.00032269,-0.022506,-0.011905
-0.0046351,-0.00030715,-0.023721,-0.0075739,-0.023112,0.11769,0.16327,-0.029991,-0.0098932,-0.017707,0.0067479,-0.021276,0.0092203,0.0086877,0.0099102,-0.0078458,-0.055673,-0.17491,-0.023596,-0.031324,0.051588,-0.0019691,-0.021229,-0.015382
-0.0018735,-0.00082049,-0.025021,-0.0048596,-0.020924,0.11864,0.14193,-0.029286,-0.0052356,-0.025153,0.016281,-0.017231,0.01115,0.01086,0.013032,-0.0099251,-0.056103,-0.15903,-0.028786,-0.031281,0.051702,-0.006026,-0.019384,-0.018554
-0.0037944,-0.0013477,-0.022302,-0.0081926,-0.016696,0.11925,0.11898,-0.027762,-0.0050982,-0.030757,0.02236,-0.015644,0.010146,0.0091492,0.011067,-0.011974,-0.052774,-0.13817,-0.030937,-0.032001,0.045782,-0.012222,-0.019131,-0.021331
-0.0095886,0.00097629,-0.017903,-0.015928,-0.012458,0.12041,0.10954,-0.025478,-0.0068718,-0.031322,0.022907,-0.016326,0.0070614,0.0049266,0.0058721,-0.012645,-0.048109,-0.10713,-0.030558,-0.033065,0.033834,-0.018329,-0.021804,-0.023402
-0.015645,0.006124,-0.015224,-0.024,-0.0093514,0.12306,0.12195,-0.022987,-0.0071529,-0.027997,0.018485,-0.016802,0.004022,0.0008282,0.0017678,-0.012015,-0.04536,-0.063661,-0.028442,-0.033008,0.018074,-0.021589,-0.026327,-0.024095
-0.018659,0.01069,-0.016072,-0.028787,-0.0074555,0.12764,0.1522,-0.02145,-0.005136,-0.024781,0.012103,-0.015134,0.0031692,-0.00085703,0.0015916,-0.011314,-0.045653,-0.012278,-0.025437,-0.030663,0.001745,-0.020781,-0.029667,-0.02303
-0.017966,0.010714,-0.019462,-0.029097,-0.0062189,0.13356,0.18652,-0.021696,-0.0033429,-0.025141,0.0074044,-0.012219,0.005184,0.00049253,0.0040756,-0.011582,-0.046746,0.036429,-0.022227,-0.026677,-0.013022,-0.017225,-0.029232,-0.020895
-0.015275,0.0053777,-0.022608,-0.026078,-0.0049429,0.13944,0.21069,-0.023232,-0.0050627,-0.029553,0.0063787,-0.011219,0.0087116,0.0037573,0.0050258,-0.012562,-0.044841,0.071228,-0.01909,-0.023608,-0.026843,-0.013881,-0.02517,-0.019337
-0.012595,-0.001889,-0.023057,-0.021728,-0.0031258,0.14386,0.21884,-0.024419,-0.010957,-0.035687,0.0081071,-0.014426,0.011165,0.0071766,0.0012461,-0.012896,-0.037981,0.087099,-0.015861,-0.024115,-0.042782,-0.013228,-0.020475,-0.019878
-0.010621,-0.0061439,-0.020295,-0.017555,-0.00076508,0.14621,0.21529,-0.023885,-0.018059,-0.040688,0.0095485,-0.020474,0.01039,0.0095954,-0.0063966,-0.011462,-0.028016,0.088497,-0.012362,-0.028582,-0.06396,-0.015662,-0.018661,-0.022761
-0.0089172,-0.0051647,-0.015886,-0.014331,0.0014205,0.14672,0.20836,-0.021907,-0.022158,-0.043422,0.0079932,-0.024697,0.0060924,0.01085,-0.013542,-0.0085722,-0.019331,0.086302,-0.009014,-0.034341,-0.090619,-0.01958,-0.020982,-0.026858
-0.0071534,-0.0013328,-0.01236,-0.012575,0.0021842,0.14569,0.20193,-0.020454,-0.021427,-0.044847,0.0034319,-0.022772,9.5366e-005,0.011225,-0.015958,-0.0059353,-0.015335,0.090333,-0.0069225,-0.03744,-0.11899,-0.022884,-0.025559,-0.030698
-0.0057054,0.00061979,-0.011733,-0.012809,0.0005586,0.14276,0.19163,-0.02175,-0.018033,-0.046483,-0.0011759,-0.014662,-0.0047363,0.010811,-0.012912,-0.0054348,-0.015741,0.1028,-0.007091,-0.035674,-0.1432,-0.024529,-0.02908,-0.033628
-0.0049868,-0.0020292,-0.014388,-0.015134,-0.0031731,0.13716,0.16881,-0.026551,-0.016327,-0.048588,-0.0022673,-0.0053158,-0.0062799,0.0095146,-0.0074207,-0.0078351,-0.01693,0.1175,-0.0093745,-0.030358,-0.1592,-0.024908,-0.029533,-0.035977
-0.0045645,-0.0075522,-0.018792,-0.018627,-0.0072789,0.12877,0.12831,-0.033535,-0.019242,-0.049823,0.0011078,-0.0011587,-0.004539,0.0075992,-0.0034457,-0.01243,-0.015083,0.12518,-0.01227,-0.025298,-0.1677,-0.025045,-0.027643,-0.038231
-0.0034244,-0.011516,-0.022189,-0.021402,-0.0096818,0.11882,0.073425,-0.040262,-0.025984,-0.048672,0.0061048,-0.0050498,-0.0016762,0.0059219,-0.0027549,-0.017693,-0.0093427,0.12082,-0.013908,-0.0238,-0.17391,-0.025579,-0.025942,-0.040211
-0.0013219,-0.011041,-0.02212,-0.021662,-0.009709,0.10946,0.014071,-0.044909,-0.032855,-0.045243,0.0083325,-0.013846,-0.00053003,0.0053706,-0.0041448,-0.022144,-0.0023477,0.10734,-0.013356,-0.026155,-0.18369,-0.026429,-0.026384,-0.041199
0.00037718,-0.007518,-0.018037,-0.019064,-0.0089587,0.10218,-0.039948,-0.047443,-0.03634,-0.041691,0.0058095,-0.020723,-0.002539,0.0059608,-0.0052824,-0.02474,0.0021926,0.093077,-0.010944,-0.029596,-0.19914,-0.027234,-0.028499,-0.040845
-0.00030482,-0.0052211,-0.011904,-0.015294,-0.010235,0.096738,-0.084848,-0.049367,-0.035807,-0.04076,0.0010272,-0.020517,-0.0066097,0.0066098,-0.0050718,-0.024818,0.0026443,0.08547,-0.0074028,-0.030636,-0.21686,-0.027898,-0.029564,-0.039761
-0.0037621,-0.0072013,-0.0071212,-0.013168,-0.015155,0.091514,-0.12336,-0.052262,-0.033666,-0.043621,-0.0010477,-0.013815,-0.0099452,0.0060167,-0.0042979,-0.02213,0.00056647,0.085888,-0.0029344,-0.027789,-0.23034,-0.028626,-0.026658,-0.038976
-0.0076651,-0.012475,-0.0062785,-0.014674,-0.022405,0.08505,-0.16009,-0.05622,-0.03306,-0.0488,0.0025355,-0.0064947,-0.010333,0.0039264,-0.0042534,-0.01726,-0.00099933,0.089375,0.0026078,-0.022526,-0.23475,-0.029506,-0.019072,-0.038733
-0.0084369,-0.017196,-0.0093287,-0.019276,-0.02835,0.077159,-0.19611,-0.059418,-0.035137,-0.053057,0.009843,-0.0050635,-0.008046,0.0015244,-0.0050548,-0.011983,-0.00030533,0.088991,0.0086142,-0.017844,-0.2303,-0.030207,-0.009227,-0.037929
-0.0043515,-0.018537,-0.013666,-0.023853,-0.02972,0.068397,-0.22748,-0.059279,-0.038221,-0.053502,0.015629,-0.01154,-0.0056553,0.0004433,-0.0054885,-0.0088637,0.0018342,0.081054,0.013159,-0.015774,-0.22173,-0.0302,-0.001281,-0.035081
0.0026287,-0.017352,-0.016137,-0.024571,-0.026217,0.058453,-0.24855,-0.054461,-0.039518,-0.049346,0.016028,-0.021941,-0.005782,0.0011888,-0.0045051,-0.0099433,0.0032306,0.067335,0.014053,-0.015933,-0.21429,-0.029319,0.0016874,-0.030099
0.0082559,-0.01697,-0.015406,-0.019608,-0.020799,0.045329,-0.25692,-0.046191,-0.037838,-0.042119,0.011997,-0.029494,-0.0087294,0.0024554,-0.0027129,-0.015309,0.0025393,0.053008,0.010813,-0.016267,-0.20973,-0.028044,-0.0001509,-0.025129
0.0095939,-0.019433,-0.012756,-0.010735,-0.017383,0.026667,-0.25578,-0.037794,-0.034871,-0.03444,0.0082171,-0.029888,-0.012166,0.00211,-0.0021796,-0.022733,0.00029408,0.042503,0.0055909,-0.015286,-0.20548,-0.02717,-0.0036049,-0.023308
0.0075337,-0.023084,-0.010755,-0.002438,-0.017947,0.0025048,-0.25148,-0.032584,-0.033717,-0.028379,0.0085322,-0.024333,-0.013217,-0.00085197,-0.004575,-0.028901,-0.0019927,0.036667,0.001889,-0.013769,-0.19729,-0.027113,-0.0050357,-0.026191
0.0058341,-0.02404,-0.011042,0.0010563,-0.021479,-0.022947,-0.24839,-0.03164,-0.035796,-0.024562,0.012288,-0.018134,-0.011074,-0.0050378,-0.0094423,-0.031477,-0.0033793,0.033151,0.0020183,-0.014298,-0.18275,-0.027539,-0.0032522,-0.032051
0.007548,-0.020125,-0.013209,-0.0012491,-0.025403,-0.042506,-0.24524,-0.033183,-0.03894,-0.02239,0.015072,-0.016202,-0.0076652,-0.0073257,-0.014397,-0.030534,-0.0039489,0.029112,0.0055381,-0.018832,-0.1625,-0.02774,-0.00031933,-0.03678
0.012177,-0.013347,-0.015631,-0.0064199,-0.027816,-0.049856,-0.23619,-0.034073,-0.038695,-0.020881,0.012991,-0.01934,-0.005785,-0.0051786,-0.01722,-0.028259,-0.0039249,0.023599,0.01003,-0.026343,-0.13858,-0.027471,0.00042091,-0.036883
0.016193,-0.0084274,-0.017233,-0.0098164,-0.02839,-0.043429,-0.21603,-0.032222,-0.032102,-0.01932,0.006249,-0.024239,-0.0064736,0.0011324,-0.017905,-0.027181,-0.0028541,0.017684,0.013324,-0.032749,-0.11217,-0.027448,-0.0026191,-0.032103
0.016365,-0.0086988,-0.018371,-0.0086246,-0.027404,-0.02753,-0.18564,-0.027953,-0.020759,-0.01728,-0.0014093,-0.026787,-0.0081947,0.0082754,-0.018626,-0.028318,-0.00014369,0.012599,0.015008,-0.033579,-0.083185,-0.028925,-0.0078722,-0.025397
0.012748,-0.013215,-0.020002,-0.0039874,-0.024492,-0.0099019,-0.15325,-0.023222,-0.010172,-0.014307,-0.006577,-0.025566,-0.008573,0.012034,-0.021531,-0.030654,0.0035352,0.0079232,0.01596,-0.027437,-0.052158,-0.032565,-0.012035,-0.020287
0.008619,-0.01763,-0.022167,-8.0981e-005,-0.018847,0.0025335,-0.12999,-0.019479,-0.0055261,-0.0098788,-0.0093338,-0.022501,-0.006932,0.010399,-0.026403,-0.032241,0.0058132,0.0016232,0.016729,-0.017386,-0.021813,-0.037562,-0.012893,-0.017982
0.0075279,-0.017884,-0.02357,-0.00086809,-0.010857,0.006941,-0.12288,-0.016128,-0.0073682,-0.0039468,-0.0125,-0.020456,-0.0050814,0.0051302,-0.030483,-0.031881,0.0042197,-0.0080755,0.016673,-0.0089299,0.0039122,-0.041846,-0.010921,-0.016857
0.010209,-0.013321,-0.022873,-0.0070603,-0.0031918,0.0050461,-0.13012,-0.011024,-0.011125,0.0023775,-0.017957,-0.020325,-0.005542,0.00037293,-0.030801,-0.029961,-0.0013849,-0.020734,0.014794,-0.0061121,0.02294,-0.043332,-0.0083262,-0.014663
0.014011,-0.0067145,-0.020432,-0.015583,0.00038325,0.0010698,-0.14256,-0.0025715,-0.011182,0.0068233,-0.024061,-0.020418,-0.0089544,-0.00071728,-0.026983,-0.027855,-0.0080315,-0.033478,0.01128,-0.0088578,0.037166,-0.041266,-0.006753,-0.011274
0.015147,-0.0016284,-0.018478,-0.021828,-0.0020716,-0.0011503,-0.15015,0.0084726,-0.0060497,0.0070525,-0.027081,-0.018597,-0.013266,0.0013736,-0.021954,-0.026618,-0.011725,-0.042817,0.0079581,-0.013659,0.051071,-0.036596,-0.0060384,-0.0092369
0.011725,0.00024806,-0.019234,-0.022839,-0.0086067,-7.3205e-005,-0.14897,0.019168,8.0539e-005,0.0022426,-0.025373,-0.014909,-0.015561,0.0029019,-0.019787,-0.02625,-0.01079,-0.047123,0.00698,-0.016768,0.06768,-0.03114,-0.005158,-0.011533
0.0051178,-0.00038187,-0.022613,-0.019032,-0.014389,0.0033619,-0.14361,0.026414,0.0010689,-0.0060994,-0.022,-0.01205,-0.014806,0.00011409,-0.022449,-0.026118,-0.007399,-0.047966,0.008928,-0.016992,0.085521,-0.026289,-0.0041078,-0.018584
-0.0011407,-0.0019379,-0.025817,-0.013398,-0.01528,0.0069167,-0.1435,0.029021,-0.0053303,-0.014941,-0.022766,-0.013066,-0.012809,-0.007315,-0.028165,-0.025915,-0.0056981,-0.049451,0.012188,-0.015789,0.099626,-0.022266,-0.0044964,-0.027357
-0.0038349,-0.0036297,-0.025538,-0.0091285,-0.010975,0.0086488,-0.15604,0.028074,-0.014801,-0.021707,-0.031089,-0.018377,-0.012403,-0.015617,-0.032662,-0.02603,-0.0081387,-0.056141,0.014253,-0.015041,0.10585,-0.018427,-0.0080473,-0.033489
-0.0020881,-0.0056699,-0.020928,-0.0076894,-0.0049158,0.008016,-0.18159,0.025491,-0.019615,-0.025936,-0.044424,-0.024893,-0.014497,-0.019691,-0.03221,-0.026934,-0.013427,-0.070868,0.013772,-0.014995,0.1046,-0.014192,-0.014524,-0.034567
0.0022609,-0.0081762,-0.014618,-0.008615,-0.001001,0.0059806,-0.21376,0.022392,-0.015061,-0.029247,-0.055787,-0.028185,-0.016847,-0.016976,-0.026018,-0.028271,-0.017995,-0.09347,0.011455,-0.014392,0.10048,-0.0097888,-0.021325,-0.031679
0.0058976,-0.010233,-0.010712,-0.010694,-0.00010491,0.0041337,-0.24465,0.018854,-0.0035387,-0.033631,-0.059301,-0.025951,-0.015849,-0.0091819,-0.016402,-0.028768,-0.01952,-0.12078,0.0090807,-0.012409,0.098233,-0.006244,-0.025367,-0.028028
0.0059952,-0.010257,-0.011454,-0.013132,0.00038893,0.0033727,-0.271,0.015006,0.007304,-0.039489,-0.054863,-0.019882,-0.0098723,-0.00051021,-0.0069786,-0.027218,-0.019001,-0.14765,0.0076415,-0.010133,0.098882,-0.0046916,-0.025508,-0.026094
0.001789,-0.0073315,-0.015463,-0.015668,0.0036379,0.0029683,-0.29712,0.011902,0.010828,-0.045042,-0.047753,-0.014386,-0.0011802,0.0058808,-0.00048336,-0.023661,-0.019359,-0.16855,0.0063952,-0.0098743,0.099502,-0.0055269,-0.023221,-0.025971
-0.0050472,-0.0021681,-0.019048,-0.017918,0.0098227,0.00069564,-0.33248,0.010857,0.0066424,-0.047592,-0.043618,-0.013222,0.0054059,0.010002,0.0023442,-0.019637,-0.022007,-0.17925,0.0036985,-0.012893,0.096789,-0.0079948,-0.020947,-0.026109
-0.01139,0.0032239,-0.019307,-0.019016,0.01551,-0.0059737,-0.38586,0.011774,0.00044833,-0.045529,-0.043519,-0.016761,0.0060962,0.014044,0.0024931,-0.017183,-0.024945,-0.1781,-0.0011991,-0.017832,0.090771,-0.010485,-0.019886,-0.025299
-0.014447,0.0067721,-0.016263,-0.018182,0.016631,-0.01839,-0.45973,0.012422,-0.0010951,-0.039467,-0.043575,-0.021902,0.0010692,0.0195,0.0016481,-0.017399,-0.024468,-0.16623,-0.0070697,-0.021493,0.085138,-0.011368,-0.0194,-0.02372
-0.013273,0.0073175,-0.012372,-0.015697,0.012313,-0.035995,-0.5483,0.0099221,0.0042083,-0.031706,-0.039377,-0.024503,-0.0056087,0.025313,0.0011873,-0.019697,-0.018946,-0.14679,-0.011346,-0.021309,0.083973,-0.009865,-0.018363,-0.022168
-0.0091008,0.0046843,-0.010188,-0.013137,0.0058631,-0.056833,-0.64019,0.0034344,0.012977,-0.024636,-0.030818,-0.022272,-0.0089615,0.028745,0.0016374,-0.022254,-0.010938,-0.12341,-0.012002,-0.017312,0.088103,-0.0063905,-0.016726,-0.020618
-0.0043629,-0.00073143,-0.010502,-0.01238,0.0018403,-0.078864,-0.72367,-0.0045505,0.019962,-0.019409,-0.022652,-0.01603,-0.0066147,0.027989,0.0026527,-0.023202,-0.0054062,-0.098872,-0.0091551,-0.011939,0.094485,-0.0021084,-0.015461,-0.017921
-0.0011123,-0.0080532,-0.012393,-0.014078,0.0018582,-0.10102,-0.79125,-0.0098933,0.022841,-0.015749,-0.020179,-0.0087563,-0.00024621,0.023849,0.0034331,-0.021741,-0.005554,-0.074426,-0.0050961,-0.0080827,0.099026,0.0020429,-0.014973,-0.013069
9.7196e-005,-0.01563,-0.014623,-0.01694,0.0030579,-0.12325,-0.84139,-0.010254,0.023752,-0.012698,-0.024154,-0.0034843,0.0058632,0.018852,0.0033984,-0.018506,-0.01013,-0.050154,-0.0026887,-0.0072003,0.10001,0.006158,-0.013938,-0.0066608
0.00023938,-0.021151,-0.0167,-0.018542,0.00076316,-0.14564,-0.877,-0.0071954,0.026476,-0.0094432,-0.029776,-0.001625,0.0078609,0.014802,0.0027537,-0.015118,-0.014641,-0.02591,-0.0032832,-0.0088846,0.099035,0.011303,-0.010196,-0.00085381
0.00088735,-0.022768,-0.018661,-0.017146,-0.0070383,-0.16743,-0.90218,-0.0048688,0.032208,-0.0056139,-0.030819,-0.002565,0.0047078,0.01135,0.0025007,-0.013219,-0.015226,-0.0022485,-0.0056809,-0.011735,0.09889,0.018422,-0.0031524,0.0023404
0.0030329,-0.020583,-0.02026,-0.013129,-0.017443,-0.1868,-0.91944,-0.0063564,0.037951,-0.0011468,-0.025157,-0.0043751,-0.0015331,0.0070636,0.0037146,-0.013524,-0.011568,0.019248,-0.0069467,-0.014369,0.10076,0.026836,0.004643,0.0028337
0.0064213,-0.016973,-0.020743,-0.0089048,-0.024635,-0.20157,-0.92842,-0.010959,0.038985,0.0038414,-0.016695,-0.004996,-0.0073423,0.0017924,0.006502,-0.015414,-0.0064139,0.036538,-0.0045683,-0.015827,0.10334,0.033501,0.0084998,0.0025289
0.0097899,-0.014942,-0.019531,-0.0073056,-0.024367,-0.21027,-0.92641,-0.014863,0.033188,0.0089659,-0.012036,-0.0033656,-0.00997,-0.0023456,0.0094916,-0.017319,-0.0026101,0.048361,0.0015417,-0.015642,0.1044,0.033875,0.0045926,0.0035302
0.011822,-0.015596,-0.016921,-0.0095433,-0.017096,-0.21299,-0.90958,-0.014466,0.023393,0.013547,-0.014943,-8.6662e-005,-0.0087987,-0.0027065,0.010495,-0.017736,-0.00072997,0.055439,0.0086792,-0.014085,0.1028,0.024272,-0.0074779,0.0061517
0.012152,-0.017031,-0.013944,-0.014241,-0.0073497,-0.21133,-0.87423,-0.0092878,0.015722,0.016974,-0.023435,0.002766,-0.0052309,0.00092569,0.0080669,-0.01624,0.00064754,0.060674,0.012976,-0.012413,0.099033,0.0044084,-0.024528,0.0086119
0.011666,-0.015967,-0.011545,-0.018331,-0.00025457,-0.20773,-0.81755,-0.0019899,0.015196,0.019306,-0.031805,0.0028783,-0.0015151,0.0052025,0.0027889,-0.013811,0.0028087,0.067861,0.011925,-0.012379,0.093946,-0.021548,-0.041806,0.0087297
0.011776,-0.010916,-0.010099,-0.019236,0.0017073,-0.20445,-0.73832,0.004118,0.022042,0.021438,-0.035483,-0.00058003,0.00055118,0.0053787,-0.0029061,-0.012214,0.0054147,0.079444,0.006035,-0.014845,0.08764,-0.04635,-0.055269,0.0060526
0.013169,-0.0040552,-0.0097395,-0.016694,-0.00058638,-0.20261,-0.63799,0.0075176,0.031454,0.024366,-0.0345,-0.0060066,0.00029013,-0.00090611,-0.0064567,-0.012825,0.0071013,0.094823,-0.0015389,-0.018557,0.079782,-0.062879,-0.062548,0.0024109
0.015047,6.6423e-005,-0.010922,-0.012783,-0.0044812,-0.2019,-0.52176,0.0087754,0.036859,0.02789,-0.032947,-0.010238,-0.0019415,-0.011618,-0.0071202,-0.015635,0.0072069,0.11059,-0.0069988,-0.020536,0.071046,-0.067422,-0.062745,0.00031828
0.015638,-0.0019687,-0.01426,-0.010105,-0.0075125,-0.20092,-0.39847,0.0090011,0.034274,0.029924,-0.035377,-0.010896,-0.0052026,-0.021955,-0.00645,-0.019079,0.0065419,0.12273,-0.0080922,-0.018259,0.063716,-0.061149,-0.056244,0.00065018
0.013769,-0.0097601,-0.019586,-0.0096542,-0.0082896,-0.19812,-0.27831,0.0085057,0.024683,0.027334,-0.043351,-0.0083903,-0.0083478,-0.028163,-0.0067776,-0.020812,0.0063489,0.12923,-0.005083,-0.011977,0.060322,-0.049041,-0.045074,0.0017913
0.010249,-0.019517,-0.025322,-0.010209,-0.0064434,-0.19284,-0.16896,0.0070737,0.012976,0.018088,-0.05466,-0.0057557,-0.010242,-0.030177,-0.0089724,-0.019059,0.0067169,0.13109,-0.00017292,-0.0049751,0.061326,-0.037001,-0.032969,0.0011925
0.007758,-0.027078,-0.029171,-0.0097099,-0.0025858,-0.18577,-0.072539,0.0051628,0.0044195,0.0031935,-0.065245,-0.0062381,-0.010015,-0.030913,-0.01151,-0.013832,0.006351,0.13106,0.0039389,-0.0012549,0.064247,-0.028886,-0.024026,-0.0019677
0.0090212,-0.030762,-0.029819,-0.007311,0.0014567,-0.17859,0.014184,0.0041819,0.0012327,-0.013238,-0.071898,-0.010624,-0.0074823,-0.033169,-0.011783,-0.0072845,0.0040972,0.1313,0.0053974,-0.0024369,0.065466,-0.025064,-0.020275,-0.0055299
0.014517,-0.031729,-0.028161,-0.0041956,0.0029091,-0.17307,0.09601,0.0050719,0.0016051,-0.026181,-0.073791,-0.01665,-0.0034875,-0.037048,-0.0085477,-0.0027597,0.00063057,0.13208,0.0038507,-0.0066107,0.063315,-0.023149,-0.020102,-0.0059377
0.021599,-0.032022,-0.026774,-0.0024583,-0.00053674,-0.17023,0.17458,0.0065702,0.0016421,-0.032732,-0.072204,-0.020987,0.00027686,-0.040058,-0.0032966,-0.0028358,-0.0016154,0.13229,0.00031962,-0.010186,0.059616,-0.020225,-0.019324,-0.0014942
0.025974,-0.0325,-0.027914,-0.0031638,-0.008839,-0.17016,0.2465,0.0053656,-0.0013745,-0.033752,-0.069094,-0.021954,0.0020917,-0.039463,0.00074101,-0.0074658,-0.00047667,0.13109,-0.0035474,-0.011084,0.058096,-0.015061,-0.014525,0.0056537
0.024647,-0.032584,-0.031636,-0.005376,-0.018938,-0.1724,0.3058,-0.0012801,-0.0068937,-0.032872,-0.06563,-0.02047,0.0012405,-0.034625,0.0011597,-0.013629,0.0037893,0.12881,-0.0064538,-0.010342,0.060998,-0.0088426,-0.0060009,0.010869
0.018155,-0.031586,-0.035552,-0.0069412,-0.026312,-0.1762,0.34875,-0.012466,-0.01171,-0.033611,-0.061517,-0.018553,-0.0014951,-0.027448,-0.0017101,-0.0171,0.008344,0.12653,-0.0081076,-0.010657,0.066931,-0.0040277,0.0023707,0.010811
0.010326,-0.029853,-0.036429,-0.0062022,-0.027812,-0.1804,0.37682,-0.023094,-0.012743,-0.036913,-0.055449,-0.017058,-0.0042601,-0.02092,-0.0051597,-0.015348,0.009921,0.12492,-0.0090743,-0.013313,0.071841,-0.0022229,0.0064672,0.0063622
0.0056774,-0.0284,-0.032431,-0.0031653,-0.023507,-0.18303,0.39537,-0.026861,-0.0097824,-0.040974,-0.046422,-0.015046,-0.0051689,-0.017174,-0.0063623,-0.0094316,0.0074431,0.12379,-0.0099166,-0.016554,0.072149,-0.0027729,0.0056985,0.0019333
0.0063922,-0.02761,-0.024489,0.00063264,-0.016029,-0.18147,0.40944,-0.020693,-0.0059613,-0.043331,-0.035035,-0.011378,-0.0032551,-0.016526,-0.0045859,-0.0032485,0.0027791,0.12263,-0.010382,-0.017118,0.067265,-0.0032357,0.0038599,0.0016083
0.011092,-0.026648,-0.015951,0.0031495,-0.0081765,-0.17367,0.42052,-0.0070478,-0.0054862,-0.043245,-0.023653,-0.006795,0.0011922,-0.017779,-0.0015766,-0.00053453,-0.001005,0.12132,-0.0094882,-0.013568,0.059491,-0.0014232,0.0061376,0.0054868
0.016143,-0.024399,-0.01074,0.0028773,-0.0010556,-0.15987,0.4271,0.0078194,-0.010287,-0.042231,-0.014955,-0.0040658,0.0068996,-0.019231,3.5894e-005,-0.0019887,-0.0022641,0.12011,-0.0065707,-0.0081868,0.05186,0.0026922,0.014702,0.009504
0.018279,-0.020959,-0.011097,-0.00058736,0.0056457,-0.14326,0.428,0.018219,-0.018242,-0.042349,-0.0098188,-0.0057386,0.012158,-0.01964,-0.0011305,-0.0049604,-0.0018858,0.1189,-0.0023507,-0.005399,0.04611,0.0069101,0.026639,0.0089298
0.016514,-0.017979,-0.016204,-0.0064154,0.011938,-0.12876,0.42505,0.022534,-0.024502,-0.043949,-0.0064223,-0.011515,0.015378,-0.018781,-0.0042257,-0.0059972,-0.0020055,0.11691,0.001127,-0.0080042,0.042424,0.0087587,0.03603,0.0025066
0.012129,-0.017283,-0.022629,-0.012772,0.016544,-0.12006,0.42228,0.023357,-0.025067,-0.045072,-0.0017269,-0.017904,0.015597,-0.017506,-0.0069326,-0.0039954,-0.0037444,0.11339,0.0019012,-0.014654,0.04053,0.0078136,0.038495,-0.0063031
0.0072188,-0.019022,-0.026443,-0.017485,0.017931,-0.11715,0.42237,0.024649,-0.01985,-0.043177,0.0056879,-0.020785,0.012869,-0.017264,-0.007236,-0.0010923,-0.006288,0.10871,-0.00021057,-0.020933,0.040531,0.0062525,0.034472,-0.011929
0.0032303,-0.02117,-0.025713,-0.019096,0.016248,-0.11646,0.42374,0.028531,-0.012795,-0.037598,0.014049,-0.018716,0.0083684,-0.019161,-0.0048785,-0.00047558,-0.0082105,0.10466,-0.0030939,-0.023072,0.042482,0.0070069,0.028636,-0.010908
0.00058537,-0.020949,-0.021561,-0.017729,0.013802,-0.11366,0.42107,0.034081,-0.0088684,-0.0304,0.019841,-0.014017,0.003986,-0.023035,-0.0015784,-0.0031647,-0.0095966,0.10334,-0.003567,-0.02093,0.045433,0.011082,0.026111,-0.0043356
-0.00075139,-0.016987,-0.016955,-0.015018,0.013023,-0.10729,0.40893,0.038495,-0.010315,-0.024745,0.021187,-0.010627,0.0014973,-0.02726,6.6541e-005,-0.0068263,-0.01259,0.1055,0.00049318,-0.017696,0.047397,0.016497,0.028659,0.0031526
-0.00070907,-0.010366,-0.014131,-0.012926,0.013691,-0.10017,0.38543,0.039161,-0.015192,-0.022242,0.019927,-0.010703,0.0017163,-0.029693,-0.001682,-0.0078045,-0.019517,0.10982,0.0086971,-0.016845,0.046702,0.019905,0.033834,0.0067745
0.00076567,-0.0037608,-0.012807,-0.01228,0.012391,-0.097676,0.35286,0.035047,-0.019315,-0.021754,0.020121,-0.013022,0.0041345,-0.029244,-0.0063708,-0.0045164,-0.030241,0.11378,0.018377,-0.01928,0.04353,0.019472,0.037438,0.0046931
0.0031774,0.00051975,-0.010697,-0.012284,0.0052942,-0.10406,0.3155,0.026865,-0.019852,-0.020741,0.024134,-0.014492,0.0072593,-0.026864,-0.011363,0.00094209,-0.041369,0.11541,0.026243,-0.023062,0.040015,0.016374,0.036979,-0.0012492
0.005387,0.0020156,-0.0058773,-0.0115,-0.007995,-0.11966,0.2769,0.016481,-0.017467,-0.01782,0.030064,-0.013151,0.0094415,-0.024949,-0.013419,0.0044813,-0.04831,0.1143,0.03024,-0.025546,0.038614,0.013535,0.033298,-0.007255
0.0063358,0.0021257,0.0011229,-0.0095005,-0.023218,-0.14085,0.23912,0.0061708,-0.015255,-0.014034,0.033239,-0.0097951,0.0097268,-0.025437,-0.010994,0.0034634,-0.048484,0.11146,0.030416,-0.025664,0.040195,0.012836,0.029347,-0.010201
0.0059685,0.0028636,0.0074148,-0.0076616,-0.034409,-0.16215,0.2041,-0.0020709,-0.015586,-0.011578,0.030647,-0.0068731,0.0082978,-0.028063,-0.0056134,-0.0011708,-0.04291,0.10835,0.028424,-0.024339,0.043571,0.013494,0.027535,-0.0093542
0.0053171,0.0053443,0.009977,-0.0082646,-0.038619,-0.17855,0.17508,-0.0071066,-0.017767,-0.011222,0.024128,-0.0059968,0.0063028,-0.03034,-0.0010693,-0.0058761,-0.034951,0.10604,0.026171,-0.023115,0.046765,0.01318,0.027971,-0.0063361
0.0054447,0.0089284,0.0081183,-0.012507,-0.038146,-0.18665,0.15605,-0.008957,-0.018606,-0.011012,0.019161,-0.0065807,0.0051642,-0.029478,-0.00074719,-0.007537,-0.027616,0.10479,0.024548,-0.022647,0.04863,0.010719,0.028855,-0.0037351
0.0061781,0.011398,0.0041134,-0.019082,-0.038112,-0.18464,0.14934,-0.0085738,-0.015313,-0.0076892,0.020139,-0.0067623,0.0057358,-0.02476,-0.0050259,-0.0058074,-0.021904,0.10359,0.022922,-0.02248,0.049289,0.0076459,0.028309,-0.0034689
0.0059672,0.010032,0.0015488,-0.024633,-0.041519,-0.17239,0.15335,-0.0071542,-0.0081357,0.00029145,0.02645,-0.0054026,0.0078046,-0.018365,-0.010889,-0.0028554,-0.017381,0.099921,0.019544,-0.021992,0.049245,0.0069006,0.025864,-0.0058381
0.003236,0.0031271,0.0027493,-0.025928,-0.046316,-0.15175,0.16245,-0.0054786,-0.00042664,0.010817,0.032997,-0.0030595,0.010279,-0.013823,-0.014219,-0.0010506,-0.013834,0.090265,0.012511,-0.021266,0.048422,0.0097943,0.022486,-0.0096191
-0.0019291,-0.0086975,0.0072041,-0.022176,-0.047215,-0.12678,0.16941,-0.0037763,0.0038841,0.019086,0.034708,-0.001144,0.011952,-0.013273,-0.013003,-0.00087419,-0.01205,0.072131,0.00077842,-0.020964,0.046258,0.014157,0.019476,-0.01294
-0.0074208,-0.022207,0.011958,-0.01566,-0.040655,-0.10252,0.16831,-0.0021655,0.0032557,0.020846,0.030911,-0.00042636,0.01228,-0.015816,-0.0087903,-0.00090122,-0.012987,0.046611,-0.015188,-0.021467,0.042668,0.015641,0.017485,-0.014358
-0.010624,-0.032762,0.013512,-0.010121,-0.028404,-0.08288,0.15625,-0.0011821,-0.00049979,0.015327,0.025627,-0.00055575,0.011566,-0.018371,-0.0052094,0.0003226,-0.01646,0.019288,-0.033295,-0.022291,0.038665,0.011261,0.016451,-0.013545
-0.010554,-0.036671,0.0099547,-0.0080774,-0.016548,-0.068931,0.13335,-0.001816,-0.0039481,0.005612,0.0237,-0.00091489,0.010467,-0.018327,-0.0048384,0.0024142,-0.020907,-0.0021704,-0.050266,-0.022342,0.035823,0.0021013,0.016115,-0.011269
-0.0086698,-0.033361,0.00215,-0.0091646,-0.010777,-0.058904,0.10234,-0.0048992,-0.0049279,-0.0037286,0.026409,-0.001591,0.0093777,-0.015678,-0.0071717,0.0031309,-0.024481,-0.012744,-0.062629,-0.020706,0.035092,-0.0072407,0.01628,-0.0087764
-0.0075327,-0.025822,-0.0066241,-0.010767,-0.012103,-0.049946,0.068442,-0.010282,-0.0041947,-0.0097752,0.030543,-0.0032375,0.0083655,-0.012766,-0.0093885,0.00032408,-0.026254,-0.013631,-0.068005,-0.017213,0.03615,-0.012084,0.016507,-0.0070391
-0.0084942,-0.018773,-0.01241,-0.010335,-0.016561,-0.040086,0.039196,-0.016498,-0.0045084,-0.012847,0.031547,-0.0060287,0.0076999,-0.011881,-0.0091057,-0.0058135,-0.026327,-0.011509,-0.066184,-0.012484,0.037871,-0.011118,0.015844,-0.0063489
-0.010547,-0.01565,-0.012787,-0.007388,-0.018805,-0.028949,0.022726,-0.021319,-0.0079982,-0.015585,0.027691,-0.0090462,0.0082623,-0.012926,-0.0065563,-0.012258,-0.024984,-0.013613,-0.05931,-0.0076787,0.039296,-0.0071014,0.013309,-0.0064303
-0.01145,-0.016497,-0.0082422,-0.0035728,-0.016254,-0.017067,0.024383,-0.022942,-0.014056,-0.020503,0.021506,-0.010948,0.011045,-0.01336,-0.0042442,-0.015076,-0.022133,-0.022363,-0.050829,-0.004208,0.040093,-0.0044601,0.0088703,-0.006857
-0.010107,-0.018322,-0.0016876,-0.00096449,-0.01042,-0.0048658,0.04375,-0.021002,-0.019553,-0.02788,0.017401,-0.011225,0.015869,-0.010588,-0.0044836,-0.012384,-0.017766,-0.033883,-0.043651,-0.0033128,0.040236,-0.0059741,0.0038863,-0.0074194
-0.0079286,-0.017638,0.0036493,-0.00034371,-0.0048607,0.007574,0.074638,-0.016642,-0.021209,-0.035345,0.017809,-0.010571,0.020525,-0.0046434,-0.0071302,-0.0059755,-0.012803,-0.041577,-0.038684,-0.0053073,0.039535,-0.011223,0.00023051,-0.008238
-0.0077623,-0.013255,0.0064368,-0.0010126,-0.0020908,0.019956,0.10864,-0.011605,-0.018143,-0.039182,0.021301,-0.0098317,0.021576,0.0013667,-0.0095494,-0.00017188,-0.0089857,-0.041721,-0.034739,-0.0088585,0.03772,-0.017657,-0.0012848,-0.0096337
-0.011228,-0.0072218,0.0078096,-0.002044,-0.0021355,0.031318,0.13976,-0.0070985,-0.012488,-0.036404,0.024107,-0.0086993,0.016742,0.0036296,-0.0087876,0.0013565,-0.00753,-0.036372,-0.029844,-0.011187,0.034988,-0.022933,-0.0016707,-0.011867
-0.016889,-0.0032265,0.0098607,-0.0034209,-0.0034389,0.040383,0.16658,-0.0033777,-0.0076156,-0.026424,0.02348,-0.0057542,0.0071209,0.00082091,-0.0039908,-0.0016582,-0.0077857,-0.031262,-0.022899,-0.0096669,0.032243,-0.02638,-0.0028073,-0.014859
-0.021069,-0.003777,0.013413,-0.0057888,-0.0046764,0.046403,0.19053,-0.00030864,-0.0055428,-0.011556,0.019934,-0.00011293,-0.0028275,-0.0046977,0.0029596,-0.0059777,-0.0074582,-0.030688,-0.014409,-0.0039931,0.030573,-0.02865,-0.0055545,-0.018042
-0.020786,-0.0083545,0.017079,-0.0091798,-0.0056965,0.04952,0.21242,0.0017767,-0.005676,0.0038891,0.016647,0.0069508,-0.0080205,-0.0087516,0.0089361,-0.0075215,-0.0044822,-0.033854,-0.0058828,0.0029502,0.030346,-0.030311,-0.0087332,-0.020477
-0.0163,-0.01395,0.018466,-0.012293,-0.0071416,0.05018,0.23043,0.0019182,-0.0057952,0.015585,0.016767,0.012301,-0.0063431,-0.0086436,0.01173,-0.0046431,0.0011326,-0.035783,0.0013382,0.0067637,0.030841,-0.030941,-0.01002,-0.021274
-0.011058,-0.017494,0.01644,-0.013368,-0.0096196,0.048246,0.24144,-0.00066355,-0.0042121,0.021345,0.020953,0.013253,-0.00022417,-0.005001,0.011109,0.00065083,0.0072904,-0.031892,0.006739,0.0049299,0.030811,-0.029521,-0.0079449,-0.020085
-0.0090418,-0.018239,0.012418,-0.011939,-0.013306,0.042949,0.24408,-0.0055364,-0.0011444,0.022195,0.026949,0.0098959,0.0052343,-0.00073077,0.0082153,0.0044947,0.011683,-0.022238,0.010414,-0.000733,0.029525,-0.025651,-0.0031308,-0.017367
-0.011791,-0.018245,0.0094961,-0.0096225,-0.017948,0.034066,0.24061,-0.010879,0.0017726,0.021543,0.031204,0.0051409,0.0061909,0.0017181,0.0042617,0.0044043,0.013735,-0.01179,0.012558,-0.0049267,0.027375,-0.020395,0.0023197,-0.014217
-0.017504,-0.020625,0.010091,-0.0089068,-0.022729,0.02333,0.23613,-0.014477,0.0031734,0.022824,0.031093,0.0022927,0.0028861,0.0021941,-0.00014122,0.0012311,0.014774,-0.0065718,0.013388,-0.0028376,0.025596,-0.015972,0.006525,-0.011932
-0.022714,-0.026975,0.014018,-0.010881,-0.025938,0.014491,0.23591,-0.015111,0.0031807,0.027244,0.026224,0.0022877,-0.00095836,0.0022863,-0.004584,-0.0017451,0.016393,-0.0090011,0.01347,0.0057836,0.025405,-0.014489,0.0089095,-0.011518
-0.024875,-0.035905,0.018543,-0.014026,-0.025143,0.011415,0.24317,-0.013164,0.0030628,0.033288,0.018297,0.0031302,-0.001595,0.003259,-0.0081632,-0.0017093,0.018775,-0.01634,0.013745,0.015892,0.027197,-0.016593,0.0097896,-0.013279
-0.023719,-0.043722,0.020382,-0.015359,-0.018391,0.015352,0.25847,-0.010015,0.0037693,0.038289,0.009984,0.0019932,0.0014441,0.0046753,-0.009547,0.0013268,0.020701,-0.023372,0.014847,0.020674,0.030235,-0.020974,0.0092565,-0.016566
-0.020699,-0.046647,0.018132,-0.013074,-0.0058946,0.023592,0.28049,-0.0068982,0.0048462,0.04063,0.0035823,-0.0020362,0.0050582,0.0049785,-0.0079882,0.0046722,0.021078,-0.026819,0.016293,0.016678,0.032875,-0.024994,0.0068478,-0.019825
-0.017539,-0.042973,0.01335,-0.0083228,0.0092261,0.030959,0.3071,-0.0043383,0.0048612,0.040675,3.9896e-006,-0.007107,0.005525,0.0032271,-0.0043567,0.005415,0.020254,-0.027699,0.016599,0.0063931,0.03322,-0.026116,0.002467,-0.02124
-0.015324,-0.033831,0.0094688,-0.0044466,0.022148,0.03345,0.33602,-0.0025925,0.0030295,0.039843,-0.0015725,-0.010316,0.0020323,0.00011876,-0.0010331,0.0030418,0.019586,-0.029838,0.014551,-0.0037989,0.030047,-0.023324,-0.0025877,-0.019834
