-8.6819e-011,1.0322e-009,1.2328e-009,5.3056e-010,2.4502e-010,1.3409e-009,5.2284e-010,4.5725e-010,2.566e-010,2.0354e-009,1.3717e-009,9.1256e-010,-2.1029e-010,1.4296e-009,1.4566e-009,5.6143e-010,-5.7879e-012,5.4214e-010,2.7184e-009,5.8844e-010,1.8714e-010,4.2638e-010,9.5115e-010,9.3571e-010
-2.4956e-009,2.8654e-008,3.3855e-008,1.5063e-008,7.0564e-009,3.7288e-008,1.461e-008,1.2917e-008,7.0251e-009,5.5968e-008,3.7763e-008,2.519e-008,-5.8382e-009,3.9644e-008,4.014e-008,1.5445e-008,-5.6124e-010,1.5109e-008,7.5158e-008,1.613e-008,5.0827e-009,1.1844e-008,2.6087e-008,2.5842e-008
-3.4744e-008,3.8659e-007,4.5169e-007,2.0778e-007,9.853e-008,5.0397e-007,1.9843e-007,1.7747e-007,9.3556e-008,7.4789e-007,5.0536e-007,3.3787e-007,-7.8672e-008,5.344e-007,5.3762e-007,2.0689e-007,-1.3165e-008,2.0471e-007,1.0101e-006,2.1487e-007,6.684e-008,1.5984e-007,3.4771e-007,3.4698e-007
-3.1207e-007,3.377e-006,3.9004e-006,1.8555e-006,8.886e-007,4.4102e-006,1.7449e-006,1.5801e-006,8.0744e-007,6.4705e-006,4.3804e-006,2.9333e-006,-6.8559e-007,4.6648e-006,4.6625e-006,1.7981e-006,-1.6537e-007,1.7964e-006,8.7924e-006,1.8534e-006,5.6642e-007,1.3961e-006,3.0008e-006,3.0176e-006
-2.0321e-006,2.1467e-005,2.4499e-005,1.2056e-005,5.8168e-006,2.8084e-005,1.1165e-005,1.0247e-005,5.0761e-006,4.0735e-005,2.7643e-005,1.8525e-005,-4.3431e-006,2.9635e-005,2.9426e-005,1.1399e-005,-1.38e-006,1.1474e-005,5.5704e-005,1.1635e-005,3.4718e-006,8.8691e-006,1.8849e-005,1.9105e-005
-1.0217e-005,0.00010581,0.00011926,6.0729e-005,2.9443e-005,0.00013865,5.5382e-005,5.1584e-005,2.4768e-005,0.00019881,0.00013534,9.0665e-005,-2.131e-005,0.00014598,0.00014398,5.6167e-005,-8.4555e-006,5.6812e-005,0.00027367,5.6639e-005,1.637e-005,4.3665e-005,9.1826e-005,9.3804e-005
-4.1238e-005,0.00042062,0.00046794,0.0002467,0.00011984,0.00055196,0.00022151,0.0002097,9.757e-005,0.00078249,0.0005348,0.00035764,-8.4261e-005,0.00057986,0.0005681,0.00022382,-4.0279e-005,0.0002268,0.0010844,0.00022243,6.1614e-005,0.00017331,0.00036096,0.00037153
-0.0001371,0.0013847,0.0015196,0.00082985,0.00040266,0.0018193,0.0007335,0.00070712,0.00031865,0.0025499,0.0017515,0.0011673,-0.00027572,0.001907,0.0018559,0.0007408,-0.00015466,0.00074925,0.003558,0.00072367,0.00018945,0.00056954,0.001176,0.0012186
-0.00038203,0.0038459,0.0041598,0.0023546,0.0011372,0.0050573,0.0020484,0.0020153,0.00087883,0.0070066,0.0048436,0.0032102,-0.00076083,0.0052879,0.0051129,0.0020751,-0.00049038,0.0020855,0.0098447,0.0019876,0.00048229,0.0015789,0.0032354,0.0033709
-0.00090261,0.0091298,0.0097237,0.0057093,0.002733,0.01201,0.0048879,0.0049207,0.0020736,0.016443,0.011457,0.0075334,-0.0017944,0.012521,0.012033,0.0049855,-0.0013052,0.0049518,0.023263,0.0046714,0.0010219,0.0037431,0.007619,0.0079638
-0.0018208,0.018694,0.019581,0.011935,0.0056349,0.024581,0.010056,0.010392,0.0042226,0.033238,0.023388,0.015213,-0.0036529,0.025529,0.024408,0.010371,-0.0029477,0.010111,0.047342,0.0094868,0.0017936,0.0076625,0.015504,0.016204
-0.003145,0.033208,0.034151,0.021625,0.010008,0.043599,0.017936,0.019106,0.0074603,0.058138,0.041418,0.026567,-0.0064635,0.045036,0.042901,0.018794,-0.0056832,0.017829,0.083363,0.016765,0.002554,0.01364,0.027429,0.028527
-0.0046466,0.051328,0.051693,0.034031,0.015309,0.06716,0.027806,0.030687,0.011455,0.088059,0.063739,0.040179,-0.0099904,0.068816,0.065497,0.029771,-0.0093686,0.02717,0.12713,0.025906,0.0027768,0.021215,0.042325,0.043494
-0.0058477,0.069041,0.067816,0.046445,0.020073,0.089754,0.037437,0.0431,0.015249,0.11502,0.085063,0.052521,-0.013543,0.090805,0.086792,0.041255,-0.013159,0.035658,0.16734,0.035133,0.0018341,0.028923,0.056964,0.05724
-0.0062406,0.080624,0.07669,0.054662,0.022285,0.10358,0.04357,0.052831,0.017462,0.12804,0.097762,0.058991,-0.016172,0.10262,0.099454,0.049911,-0.015593,0.039971,0.18834,0.041962,-0.0005542,0.034664,0.066622,0.064446
-0.0057013,0.081395,0.073972,0.054896,0.020453,0.1023,0.043419,0.056248,0.0169,0.11837,0.095442,0.05638,-0.017142,0.09782,0.097965,0.052497,-0.015295,0.037758,0.17791,0.044398,-0.0038539,0.036703,0.067164,0.061014
-0.0047964,0.07086,0.059869,0.046356,0.014813,0.085442,0.036489,0.051672,0.013288,0.085401,0.077324,0.045358,-0.016385,0.076751,0.082715,0.047778,-0.012039,0.029633,0.13604,0.042157,-0.0066886,0.034779,0.057605,0.047134
-0.0045905,0.053836,0.039923,0.032655,0.0076982,0.059869,0.025351,0.040824,0.0075576,0.038903,0.050228,0.030875,-0.014534,0.048324,0.061244,0.037717,-0.0073506,0.019686,0.07827,0.036911,-0.0075275,0.030457,0.041427,0.028368
-0.0058619,0.038067,0.022286,0.020466,0.002436,0.036457,0.014451,0.028363,0.0013057,-0.0053311,0.025769,0.019456,-0.012404,0.026052,0.044766,0.026784,-0.0038478,0.013481,0.028654,0.031146,-0.0057848,0.02626,0.025291,0.013181
-0.0082243,0.029477,0.012853,0.015616,0.0012598,0.023302,0.007424,0.019376,-0.004347,-0.034628,0.013618,0.014878,-0.01029,0.019929,0.041573,0.019485,-0.0033923,0.014393,0.0056272,0.02637,-0.002502,0.024042,0.01549,0.007897
-0.010002,0.028484,0.011708,0.019081,0.0037524,0.020395,0.0047887,0.016319,-0.0096647,-0.047223,0.01527,0.015586,-0.0077167,0.029632,0.051823,0.017721,-0.0054136,0.020867,0.010265,0.022122,9.5546e-005,0.023768,0.014262,0.012519
-0.0092931,0.030355,0.013635,0.026019,0.0071952,0.02022,0.00391,0.01764,-0.016105,-0.052623,0.023219,0.016229,-0.003951,0.044557,0.067731,0.019957,-0.0070607,0.027014,0.026421,0.016716,2.921e-005,0.023688,0.018575,0.020749
-0.0056034,0.029411,0.012357,0.029043,0.0087117,0.01419,0.0014262,0.019185,-0.024942,-0.063814,0.026704,0.012364,0.0011062,0.051342,0.079174,0.022851,-0.0055412,0.026529,0.033285,0.0091341,-0.0030418,0.021808,0.02241,0.024556
-0.00064578,0.023599,0.0051844,0.023665,0.0074706,-0.00013909,-0.003745,0.017419,-0.035693,-0.087067,0.019831,0.0043144,0.0065118,0.043415,0.08046,0.023953,-0.00090255,0.017145,0.020598,0.00038364,-0.0075691,0.017539,0.021069,0.01992
0.0026802,0.015635,-0.0054798,0.011781,0.0050246,-0.017151,-0.0093618,0.01201,-0.045735,-0.1172,0.0056379,-0.0032895,0.010845,0.025129,0.073239,0.023144,0.0033813,0.0021656,-0.0056673,-0.0069582,-0.01119,0.012254,0.014405,0.0093472
0.0025891,0.0099877,-0.014592,0.00032896,0.0034972,-0.028158,-0.011753,0.0058011,-0.051749,-0.14173,-0.0071503,-0.0059355,0.013339,0.007327,0.063896,0.021705,0.0030717,-0.012145,-0.031098,-0.010671,-0.012231,0.0083831,0.0065518,-0.00061697
9.2573e-005,0.008643,-0.018487,-0.0040179,0.0033439,-0.028962,-0.0090882,0.002354,-0.052114,-0.15032,-0.011732,-0.0035116,0.014553,-0.0017139,0.05823,0.02017,-0.0028673,-0.021171,-0.046275,-0.010617,-0.010469,0.0077361,0.0024278,-0.0045885
-0.001588,0.0094821,-0.017195,1.9572e-006,0.0028492,-0.023403,-0.003197,0.003107,-0.048381,-0.14177,-0.0086261,-0.00038554,0.015859,-0.002304,0.057799,0.017308,-0.010578,-0.024937,-0.053552,-0.0087879,-0.0068034,0.010307,0.0038184,-0.00199
0.00035426,0.0084794,-0.013652,0.0073902,-0.00013704,-0.019985,0.0016881,0.0063811,-0.044446,-0.1237,-0.0044483,-0.0012164,0.018121,-0.0016506,0.060145,0.011437,-0.01386,-0.02735,-0.061846,-0.0076865,-0.0024136,0.014318,0.0082007,0.0033745
0.005813,0.003436,-0.011092,0.011033,-0.0059051,-0.024743,0.0022122,0.0088262,-0.043797,-0.106,-0.0056722,-0.0065323,0.020735,-0.0066195,0.061519,0.0028391,-0.0091782,-0.032675,-0.075666,-0.0084743,0.0017073,0.017388,0.011165,0.0067743
0.011655,-0.0041926,-0.010972,0.0074387,-0.012268,-0.036592,-0.0015758,0.0079517,-0.046868,-0.094099,-0.013214,-0.012302,0.022006,-0.017684,0.059308,-0.0053107,0.0011637,-0.042207,-0.08971,-0.010379,0.0046718,0.018002,0.010223,0.0058412
0.014239,-0.010782,-0.012726,-0.00063714,-0.01624,-0.048855,-0.0064927,0.0037308,-0.050602,-0.086722,-0.022349,-0.013816,0.02065,-0.029169,0.052671,-0.0089109,0.010656,-0.053558,-0.094287,-0.011676,0.0055783,0.016334,0.0066412,0.0013516
0.012436,-0.01369,-0.014861,-0.0067842,-0.016435,-0.055113,-0.0088553,-0.0017672,-0.050648,-0.078963,-0.027237,-0.010036,0.017148,-0.034931,0.042059,-0.0064312,0.013822,-0.062702,-0.085881,-0.011272,0.0038617,0.013983,0.0037724,-0.0043087
0.008518,-0.013218,-0.016122,-0.0064639,-0.014001,-0.05411,-0.0071401,-0.0061425,-0.044521,-0.066886,-0.025384,-0.0042824,0.013696,-0.033926,0.02885,-0.00083798,0.010583,-0.066917,-0.07209,-0.0095885,-7.1611e-005,0.01284,0.0036001,-0.00912
0.00615,-0.011958,-0.015963,-0.00078807,-0.011349,-0.049831,-0.0026312,-0.0083246,-0.033317,-0.049999,-0.018315,-0.00081182,0.012627,-0.030728,0.015189,0.0021287,0.0060038,-0.066415,-0.065813,-0.0081757,-0.004642,0.01385,0.0048125,-0.012319
0.0073197,-0.012536,-0.014492,0.0045543,-0.010023,-0.047356,0.0020025,-0.0089446,-0.02075,-0.030558,-0.008914,-0.00084176,0.014497,-0.030995,0.0032259,-0.0016768,0.0057247,-0.063677,-0.074073,-0.0085256,-0.0077884,0.016431,0.0042324,-0.014126
0.010888,-0.015854,-0.012334,0.004146,-0.0096654,-0.048496,0.0046,-0.0093722,-0.010425,-0.011362,0.0010733,-0.0018666,0.017403,-0.036353,-0.0063809,-0.01125,0.011219,-0.061248,-0.09201,-0.01105,-0.0081934,0.018899,0.0001736,-0.015114
0.013881,-0.021025,-0.010512,-0.0027454,-0.0088785,-0.050781,0.0043781,-0.010379,-0.0035319,0.0057543,0.010962,-0.00067825,0.01822,-0.043261,-0.015402,-0.020749,0.01896,-0.059759,-0.10755,-0.014934,-0.0061324,0.019556,-0.0055925,-0.01578
0.014156,-0.026496,-0.01011,-0.011842,-0.0069337,-0.050124,0.0016906,-0.01158,0.0013798,0.020039,0.019443,0.0031522,0.014982,-0.046492,-0.026999,-0.02369,0.023961,-0.057677,-0.11218,-0.018846,-0.003295,0.017653,-0.0092818,-0.016265
0.011987,-0.031065,-0.011659,-0.017626,-0.0046483,-0.044494,-0.0023799,-0.012065,0.0066793,0.031266,0.024084,0.0068178,0.0086977,-0.043766,-0.043097,-0.017865,0.02425,-0.052933,-0.10793,-0.021898,-0.0017142,0.013597,-0.008702,-0.01616
0.0093673,-0.034138,-0.014625,-0.017761,-0.0036296,-0.035565,-0.0060135,-0.011602,0.013585,0.03946,0.023164,0.0071166,0.0031547,-0.03741,-0.062466,-0.0071451,0.022252,-0.045062,-0.10456,-0.024088,-0.0025418,0.0083175,-0.005632,-0.014645
0.0079504,-0.035594,-0.017487,-0.014419,-0.0046526,-0.027347,-0.00672,-0.011182,0.021411,0.045048,0.017916,0.0035701,0.0025751,-0.03195,-0.081479,0.0012331,0.022073,-0.036014,-0.11028,-0.025898,-0.0053969,0.002405,-0.0046331,-0.011248
0.0076752,-0.035864,-0.01851,-0.011731,-0.006704,-0.023225,-0.0022978,-0.012236,0.028522,0.048966,0.012303,-0.0013042,0.0085427,-0.030122,-0.096971,0.0017944,0.025444,-0.028845,-0.12469,-0.027392,-0.0085694,-0.0042031,-0.0092093,-0.0067844
0.0072244,-0.03615,-0.016727,-0.011974,-0.0076303,-0.023711,0.0074993,-0.015063,0.033938,0.052304,0.0098622,-0.0046533,0.018389,-0.030907,-0.10835,-0.0055225,0.030141,-0.025289,-0.13993,-0.02765,-0.0099098,-0.011678,-0.018686,-0.0034866
0.0056649,-0.038093,-0.012497,-0.013979,-0.0059169,-0.026353,0.020014,-0.017979,0.038193,0.05572,0.010402,-0.0060084,0.026485,-0.030996,-0.11678,-0.015777,0.032241,-0.024261,-0.14802,-0.025203,-0.0079837,-0.019396,-0.02857,-0.0037272
0.0036119,-0.04256,-0.0073081,-0.014905,-0.002119,-0.027561,0.030812,-0.018268,0.042777,0.059165,0.0099426,-0.0072861,0.027896,-0.02803,-0.12221,-0.022869,0.030011,-0.022607,-0.1473,-0.019283,-0.0029523,-0.025615,-0.034086,-0.0080861
0.0028254,-0.048397,-0.0030279,-0.013409,0.0013161,-0.024975,0.036547,-0.014461,0.048787,0.062199,0.0043752,-0.010236,0.021942,-0.022585,-0.12168,-0.023677,0.025781,-0.017564,-0.14257,-0.010883,0.0033507,-0.028305,-0.033863,-0.014418
0.0046218,-0.052545,-0.0010565,-0.011066,0.0017945,-0.018885,0.037428,-0.007982,0.055893,0.06462,-0.0063684,-0.014174,0.012908,-0.017301,-0.11098,-0.019485,0.024066,-0.0089162,-0.1398,-0.0025842,0.0083614,-0.026628,-0.030713,-0.018999
0.0085065,-0.05203,-0.0017782,-0.010765,-0.001473,-0.01193,0.037081,-0.00253,0.06238,0.066736,-0.017649,-0.016489,0.0070631,-0.014165,-0.088611,-0.014111,0.027598,0.00082893,-0.14097,0.0028982,0.010315,-0.021838,-0.029032,-0.019087
0.01222,-0.046505,-0.0044641,-0.013733,-0.0069057,-0.0073398,0.039669,-0.0014359,0.066104,0.069025,-0.023861,-0.015441,0.0080517,-0.012523,-0.05809,-0.010732,0.034807,0.0082867,-0.14358,0.0043435,0.0093573,-0.016676,-0.031176,-0.014898
0.013236,-0.039096,-0.0076127,-0.018062,-0.011828,-0.0068552,0.046522,-0.0052119,0.065675,0.071514,-0.023345,-0.012299,0.014151,-0.0096306,-0.026048,-0.010059,0.040945,0.011485,-0.14428,0.0024942,0.0073399,-0.01361,-0.035805,-0.0094331
0.010621,-0.034386,-0.0096327,-0.020179,-0.014482,-0.0096976,0.055078,-0.011433,0.061197,0.073606,-0.019964,-0.010429,0.01962,-0.0032888,0.0023896,-0.010927,0.041853,0.010884,-0.14256,-0.00093852,0.0063579,-0.013376,-0.039302,-0.00634
0.0058695,-0.034899,-0.0096439,-0.017918,-0.015063,-0.013292,0.060957,-0.016979,0.054285,0.074614,-0.019751,-0.012086,0.019131,0.0057155,0.026698,-0.012168,0.037079,0.0086182,-0.14082,-0.0047016,0.0071244,-0.015033,-0.038825,-0.0075382
0.0020505,-0.038971,-0.008014,-0.012469,-0.014991,-0.015207,0.061293,-0.020455,0.047428,0.074468,-0.02549,-0.016048,0.011807,0.013604,0.049496,-0.013765,0.029759,0.0069047,-0.14131,-0.0084984,0.008522,-0.017314,-0.034393,-0.012277
0.0018274,-0.041955,-0.006221,-0.0075289,-0.015247,-0.01478,0.056483,-0.022528,0.042911,0.073773,-0.034043,-0.01852,0.0017309,0.016303,0.071892,-0.01637,0.023619,0.00699,-0.14318,-0.012204,0.0087283,-0.019826,-0.028582,-0.01796
0.0056975,-0.039904,-0.0059501,-0.0064679,-0.015432,-0.01313,0.04914,-0.02414,0.041737,0.073024,-0.038842,-0.016566,-0.005357,0.012828,0.090219,-0.020021,0.019931,0.0092643,-0.14244,-0.014784,0.0069818,-0.022921,-0.024447,-0.021787
0.01167,-0.032641,-0.0078963,-0.0098943,-0.014422,-0.011667,0.041595,-0.024778,0.043055,0.07176,-0.035478,-0.010837,-0.0064714,0.0065342,0.097615,-0.023641,0.017099,0.014041,-0.13466,-0.014224,0.0044975,-0.026549,-0.023565,-0.022111
0.016567,-0.023673,-0.011133,-0.015473,-0.0119,-0.010571,0.034437,-0.022873,0.044538,0.068682,-0.025632,-0.0050665,-0.0034643,0.0029459,0.08944,-0.025944,0.012955,0.021971,-0.11779,-0.0087893,0.0037446,-0.029597,-0.025572,-0.019031
0.018016,-0.01717,-0.01366,-0.019841,-0.0091474,-0.008791,0.027181,-0.018006,0.043626,0.062861,-0.016086,-0.0028827,-0.0013203,0.005624,0.067827,-0.026768,0.0073641,0.033535,-0.092936,0.0014301,0.0066438,-0.03067,-0.029066,-0.014307
0.015764,-0.014797,-0.013872,-0.020862,-0.0082085,-0.0056226,0.019894,-0.012454,0.038964,0.054954,-0.013735,-0.0049264,-0.0041482,0.013356,0.041279,-0.027343,0.0025607,0.04798,-0.062825,0.014089,0.01308,-0.029667,-0.03273,-0.01064
0.011543,-0.015093,-0.011841,-0.018555,-0.010128,-0.0022714,0.013751,-0.0099851,0.031139,0.04714,-0.020776,-0.0087791,-0.011999,0.021117,0.019525,-0.029043,0.0009578,0.062752,-0.029843,0.025772,0.02082,-0.028403,-0.035723,-0.010317
0.0077281,-0.015551,-0.0093075,-0.014428,-0.01393,-0.0016684,0.0098546,-0.01262,0.022226,0.041632,-0.033851,-0.011463,-0.020853,0.024238,0.0078355,-0.031773,0.0025636,0.074206,0.0048582,0.033891,0.026819,-0.029376,-0.037439,-0.013705
0.0057925,-0.015107,-0.0082705,-0.010222,-0.017344,-0.0063548,0.0077217,-0.018387,0.014473,0.03902,-0.047387,-0.011986,-0.025677,0.022393,0.0051004,-0.033648,0.0044943,0.079416,0.040837,0.03781,0.028938,-0.033594,-0.037374,-0.018671
0.0055617,-0.014594,-0.0093446,-0.0071344,-0.018677,-0.016153,0.0053091,-0.022513,0.0090276,0.037922,-0.057921,-0.011693,-0.024164,0.02001,0.0063867,-0.032431,0.0030585,0.07794,0.077328,0.038395,0.026971,-0.03947,-0.035475,-0.021823
0.0056161,-0.015014,-0.011341,-0.0057114,-0.018164,-0.027734,0.00082038,-0.021324,0.005526,0.036239,-0.065735,-0.012452,-0.01836,0.022563,0.0069711,-0.02751,-0.0034567,0.072168,0.11268,0.03656,0.022478,-0.043846,-0.032552,-0.021028
0.0044361,-0.015699,-0.012502,-0.0059213,-0.017609,-0.036627,-0.005459,-0.015441,0.0027042,0.032812,-0.072954,-0.0147,-0.013004,0.031766,0.0043905,-0.020604,-0.013684,0.065812,0.14459,0.032269,0.017763,-0.044332,-0.029985,-0.017235
0.0014638,-0.014471,-0.012246,-0.0071231,-0.018647,-0.040078,-0.011239,-0.0093194,-0.00050423,0.028015,-0.080597,-0.017177,-0.01192,0.043668,-0.0021584,-0.014555,-0.024478,0.061491,0.17099,0.024998,0.014723,-0.040996,-0.028696,-0.013793
-0.0025859,-0.0097562,-0.01171,-0.0082393,-0.021179,-0.038424,-0.014252,-0.0074672,-0.0041858,0.022961,-0.087908,-0.018344,-0.015292,0.051308,-0.012918,-0.011292,-0.033201,0.059208,0.1911,0.015213,0.014153,-0.036112,-0.02828,-0.013492
-0.0062618,-0.0025179,-0.012461,-0.0084571,-0.023336,-0.033987,-0.014258,-0.010748,-0.0074796,0.018272,-0.094699,-0.017889,-0.019881,0.049791,-0.027112,-0.010721,-0.038942,0.056931,0.20624,0.0053161,0.015643,-0.032385,-0.027315,-0.015841
-0.0082787,0.0040174,-0.014566,-0.0080458,-0.023002,-0.028692,-0.013067,-0.016013,-0.0093319,0.013591,-0.10402,-0.016819,-0.02186,0.039728,-0.041563,-0.011345,-0.041968,0.052804,0.21954,-0.0012778,0.01788,-0.031188,-0.024773,-0.017216
-0.0081384,0.0067627,-0.01602,-0.0083321,-0.019571,-0.022682,-0.012673,-0.019162,-0.0093938,0.0080909,-0.12147,-0.016248,-0.019851,0.026434,-0.050967,-0.011817,-0.042466,0.04712,0.23419,-0.0025404,0.019165,-0.03202,-0.021252,-0.014102
-0.0061625,0.0051744,-0.014349,-0.01046,-0.014503,-0.015097,-0.01351,-0.018622,-0.0084001,0.0012935,-0.15047,-0.016216,-0.015746,0.015827,-0.051144,-0.011918,-0.040162,0.042305,0.25076,0.00025096,0.018096,-0.033275,-0.018656,-0.0067011
-0.003149,0.0015421,-0.0090707,-0.013911,-0.010208,-0.0060161,-0.014523,-0.01608,-0.0077439,-0.0065442,-0.1869,-0.015738,-0.012864,0.010455,-0.043033,-0.012245,-0.035193,0.040857,0.2655,0.0030219,0.014325,-0.033426,-0.018382,0.00049975
-6.4962e-005,-0.00099154,-0.0026709,-0.016389,-0.0081977,0.0026006,-0.014721,-0.014194,-0.0085595,-0.014544,-0.21819,-0.013929,-0.013225,0.0086464,-0.033338,-0.013178,-0.029118,0.043032,0.27146,0.0018524,0.0090314,-0.031789,-0.019656,0.0020295
0.0020698,-0.00085267,0.0010617,-0.015625,-0.0079487,0.0081547,-0.014276,-0.013869,-0.011003,-0.021454,-0.22924,-0.010995,-0.016218,0.0069467,-0.030068,-0.014334,-0.024643,0.046383,0.26249,-0.0038509,0.004552,-0.028583,-0.019799,-0.0040328
0.0023296,0.0011456,8.2489e-006,-0.011691,-0.0073879,0.0097759,-0.013981,-0.013803,-0.014254,-0.025852,-0.21166,-0.0081156,-0.01947,0.0033485,-0.036065,-0.015021,-0.023917,0.047613,0.23774,-0.010653,0.0030009,-0.024589,-0.016524,-0.014235
0.00029179,0.0030309,-0.0046117,-0.0075591,-0.004656,0.0094595,-0.013948,-0.012473,-0.017162,-0.026532,-0.16989,-0.0063724,-0.020823,-0.001447,-0.046148,-0.015144,-0.026774,0.04518,0.20324,-0.01363,0.004623,-0.020751,-0.010327,-0.022309
-0.0034722,0.0035861,-0.0093554,-0.0069996,0.0001729,0.010634,-0.013455,-0.010177,-0.018977,-0.023232,-0.11934,-0.0058352,-0.019664,-0.0054343,-0.050841,-0.015479,-0.030549,0.040351,0.16872,-0.010175,0.0072364,-0.017852,-0.0046285,-0.023964
-0.0073552,0.0032024,-0.011385,-0.011407,0.0047865,0.015259,-0.012396,-0.0089253,-0.01962,-0.017308,-0.077547,-0.0056628,-0.016819,-0.0076404,-0.043838,-0.016926,-0.031848,0.035882,0.14176,-0.001981,0.0076095,-0.016229,-0.0031718,-0.019876
-0.0094565,0.0031216,-0.010466,-0.018366,0.0061496,0.022073,-0.01263,-0.010334,-0.019447,-0.011657,-0.054432,-0.0050807,-0.013562,-0.0090508,-0.026882,-0.019391,-0.028962,0.03356,0.12319,0.0063726,0.0040294,-0.015586,-0.0067549,-0.014504
-0.0087683,0.0040501,-0.0085525,-0.023431,0.0028453,0.027702,-0.017094,-0.013863,-0.018856,-0.0095873,-0.048315,-0.0042731,-0.010801,-0.011372,-0.007973,-0.021436,-0.023042,0.032825,0.10702,0.01092,-0.0020032,-0.015118,-0.012217,-0.012062
-0.0059383,0.0055649,-0.0077308,-0.023687,-0.0035522,0.029667,-0.026847,-0.017304,-0.018087,-0.013131,-0.049641,-0.0043663,-0.0089323,-0.015058,0.0052168,-0.021178,-0.017145,0.031561,0.084659,0.010931,-0.0066327,-0.014001,-0.014819,-0.013284
-0.0029363,0.0067895,-0.0086467,-0.020035,-0.0093176,0.02858,-0.038803,-0.019007,-0.01722,-0.021833,-0.048803,-0.0065264,-0.0080578,-0.018711,0.01077,-0.017756,-0.013968,0.028184,0.050194,0.0086485,-0.0066337,-0.011996,-0.012119,-0.015564
-0.0017595,0.0074923,-0.010687,-0.016176,-0.011158,0.027502,-0.046866,-0.019438,-0.016205,-0.032777,-0.041995,-0.010942,-0.008056,-0.020537,0.012399,-0.012092,-0.014081,0.023118,0.0032982,0.006739,-0.0020655,-0.0096711,-0.0060072,-0.01587
-0.0030824,0.0083427,-0.013217,-0.015305,-0.0085332,0.029077,-0.046226,-0.020332,-0.01489,-0.041883,-0.031417,-0.016493,-0.0084481,-0.020472,0.014701,-0.0062542,-0.015969,0.018431,-0.05117,0.0059173,0.0037749,-0.0079871,-0.0010562,-0.013524
-0.0058228,0.0099285,-0.016212,-0.01752,-0.0037658,0.033072,-0.037367,-0.022293,-0.013146,-0.045862,-0.020936,-0.021314,-0.0084174,-0.020807,0.018621,-0.0019995,-0.017644,0.016063,-0.10549,0.0047568,0.0071077,-0.0075503,-0.00063599,-0.010465
-0.0079296,0.011478,-0.019586,-0.020221,0.00013288,0.036509,-0.026246,-0.023517,-0.011114,-0.043886,-0.011483,-0.023808,-0.0072407,-0.024511,0.021026,0.00024394,-0.018317,0.01622,-0.1514,0.001524,0.0066252,-0.0081852,-0.0042323,-0.0091793
-0.0078253,0.01073,-0.022225,-0.020931,0.0019573,0.036182,-0.0203,-0.021295,-0.009322,-0.038155,4.7754e-005,-0.023445,-0.0048964,-0.032578,0.017883,0.0011105,-0.018718,0.017198,-0.18191,-0.003916,0.0039682,-0.0091794,-0.0082714,-0.010506
-0.0055027,0.005501,-0.022239,-0.019755,0.0028453,0.031292,-0.023438,-0.015095,-0.008365,-0.03289,0.017937,-0.020935,-0.0022812,-0.042799,0.0074166,0.0011869,-0.01996,0.016688,-0.19307,-0.0099221,0.0014755,-0.0099022,-0.0095241,-0.013252
-0.0025393,-0.0041084,-0.018613,-0.01913,0.0044928,0.023987,-0.03386,-0.0080637,-0.0082782,-0.032052,0.043486,-0.017778,-0.00071577,-0.051213,-0.0095475,0.00027512,-0.022201,0.013485,-0.18584,-0.014651,-0.00037101,-0.010135,-0.0078616,-0.015587
-0.0010305,-0.0148,-0.012745,-0.021211,0.0069954,0.017605,-0.045919,-0.0050106,-0.0081406,-0.036956,0.072956,-0.015494,-0.0010386,-0.055198,-0.03142,-0.0021962,-0.024423,0.0083147,-0.16671,-0.017768,-0.0031711,-0.0098096,-0.0059127,-0.016582
-0.0021577,-0.021619,-0.0080982,-0.025512,0.0086511,0.014281,-0.054033,-0.0083265,-0.006472,-0.045362,0.099139,-0.014938,-0.0030013,-0.055649,-0.057127,-0.0061036,-0.025478,0.0031871,-0.14567,-0.020642,-0.008344,-0.0085799,-0.0062004,-0.016511
-0.0053706,-0.02115,-0.0078527,-0.029188,0.008011,0.013875,-0.055633,-0.01557,-0.0023503,-0.052905,0.11542,-0.01597,-0.0054788,-0.056327,-0.08532,-0.010175,-0.025235,-0.00024517,-0.13169,-0.02486,-0.014853,-0.0058982,-0.0086707,-0.01598
-0.0087869,-0.014036,-0.01245,-0.029729,0.0059928,0.014724,-0.051664,-0.021222,0.0035573,-0.056112,0.11951,-0.017658,-0.0073473,-0.060747,-0.11292,-0.012861,-0.02459,-0.0021263,-0.12821,-0.030432,-0.01945,-0.0017643,-0.010955,-0.015116
-0.010596,-0.0047571,-0.019197,-0.027446,0.0055939,0.015153,-0.045327,-0.021286,0.0090089,-0.054882,0.11439,-0.018938,-0.0083386,-0.069082,-0.13546,-0.013813,-0.024341,-0.0044742,-0.13191,-0.035302,-0.01939,0.0025526,-0.010914,-0.01371
-0.010481,0.0013425,-0.024359,-0.025259,0.0091155,0.014334,-0.040472,-0.016617,0.011496,-0.05245,0.10599,-0.019402,-0.0092154,-0.077733,-0.14995,-0.014432,-0.024175,-0.0096282,-0.13557,-0.036672,-0.014986,0.0047543,-0.0088024,-0.011992
-0.0099465,0.0016254,-0.025956,-0.025871,0.015529,0.012053,-0.040379,-0.011919,0.010039,-0.052725,0.099072,-0.019663,-0.011159,-0.082114,-0.15776,-0.016694,-0.022903,-0.018062,-0.133,-0.033083,-0.0094767,0.0029075,-0.0069079,-0.010972
-0.011154,-0.0023353,-0.024902,-0.029026,0.02081,0.0080973,-0.046836,-0.011335,0.0061158,-0.056962,0.094285,-0.020921,-0.014848,-0.080552,-0.16471,-0.021185,-0.01977,-0.027309,-0.12238,-0.02565,-0.0063317,-0.0029342,-0.0071579,-0.011782
-0.015103,-0.0063635,-0.023683,-0.031555,0.021301,0.0021938,-0.059481,-0.014774,0.0028897,-0.062389,0.088113,-0.023938,-0.019902,-0.076137,-0.17757,-0.026268,-0.015427,-0.033209,-0.1059,-0.017519,-0.0065815,-0.010256,-0.0091935,-0.014571
-0.020632,-0.0070189,-0.023998,-0.030296,0.01708,-0.0054395,-0.075896,-0.018377,0.0031353,-0.063961,0.075901,-0.028175,-0.025032,-0.074859,-0.19955,-0.029384,-0.011436,-0.032929,-0.086782,-0.011982,-0.0085835,-0.015385,-0.010845,-0.018098
-0.02523,-0.0040413,-0.025494,-0.025151,0.012038,-0.013722,-0.0928,-0.018543,0.0072698,-0.058059,0.055802,-0.031904,-0.028787,-0.081373,-0.22855,-0.029444,-0.0087443,-0.027561,-0.066784,-0.010621,-0.010088,-0.015801,-0.010422,-0.020522
-0.027079,-0.00015355,-0.026539,-0.019353,0.01044,-0.021231,-0.1078,-0.01553,0.012903,-0.045441,0.030892,-0.03334,-0.030362,-0.095641,-0.25938,-0.028023,-0.0067643,-0.021992,-0.046285,-0.012735,-0.010281,-0.011813,-0.0084016,-0.020772
-0.026583,0.0013468,-0.026014,-0.016621,0.013104,-0.027326,-0.12044,-0.013156,0.016242,-0.03129,0.0078591,-0.031954,-0.029944,-0.11302,-0.28785,-0.028035,-0.0041862,-0.021737,-0.026503,-0.016273,-0.0098454,-0.0063353,-0.0067876,-0.019276
-0.0259,-0.000885,-0.024357,-0.017854,0.016824,-0.03277,-0.13177,-0.014946,0.01439,-0.0222,-0.0069683,-0.028869,-0.028367,-0.12753,-0.31315,-0.030983,-0.0008173,-0.028978,-0.011204,-0.019416,-0.0094191,-0.0028988,-0.0068706,-0.017443
-0.026779,-0.0055482,-0.02305,-0.020462,0.017513,-0.039038,-0.1429,-0.020551,0.006997,-0.022083,-0.011636,-0.026002,-0.026334,-0.13565,-0.33659,-0.035379,0.0015213,-0.04095,-0.0057872,-0.02161,-0.0085559,-0.0033308,-0.0077901,-0.016414
-0.028723,-0.010136,-0.023289,-0.020908,0.014063,-0.046754,-0.15402,-0.025931,-0.0037103,-0.029726,-0.009879,-0.024723,-0.023819,-0.13766,-0.35852,-0.037953,0.00028656,-0.052036,-0.013996,-0.023471,-0.0065101,-0.0067613,-0.0074704,-0.016258
-0.029365,-0.013074,-0.025219,-0.018026,0.0092972,-0.05466,-0.16448,-0.0271,-0.014328,-0.039644,-0.0088043,-0.025147,-0.020207,-0.13602,-0.37655,-0.036635,-0.0052479,-0.057847,-0.034583,-0.025911,-0.0038845,-0.010576,-0.0050363,-0.01626
-0.026978,-0.014731,-0.028297,-0.01404,0.0073365,-0.060152,-0.1735,-0.023785,-0.022021,-0.045646,-0.014383,-0.026511,-0.015127,-0.13268,-0.38703,-0.032501,-0.012645,-0.057895,-0.060392,-0.029336,-0.0029489,-0.012489,-0.0021888,-0.015906
-0.022781,-0.016613,-0.032115,-0.012424,0.010053,-0.061021,-0.18043,-0.019495,-0.025579,-0.04461,-0.027614,-0.028046,-0.0092337,-0.1277,-0.38836,-0.028742,-0.01776,-0.054829,-0.080661,-0.033458,-0.0057544,-0.012118,-0.0019309,-0.015531
-0.020641,-0.019668,-0.036588,-0.014732,0.015891,-0.056955,-0.18421,-0.017979,-0.025446,-0.037855,-0.043709,-0.029407,-0.0040162,-0.12021,-0.38274,-0.027552,-0.018031,-0.051338,-0.085443,-0.037574,-0.011714,-0.010921,-0.0056313,-0.016019
-0.023986,-0.023295,-0.041244,-0.019298,0.021761,-0.049569,-0.18298,-0.019525,-0.023092,-0.029327,-0.054692,-0.030385,-0.00049566,-0.11018,-0.37465,-0.027862,-0.01474,-0.047872,-0.070135,-0.040845,-0.017306,-0.010694,-0.011201,-0.017876
-0.032535,-0.025907,-0.044512,-0.022845,0.025756,-0.041102,-0.17497,-0.02061,-0.020248,-0.022304,-0.053784,-0.030485,0.0021388,-0.099168,-0.36718,-0.02618,-0.012067,-0.043283,-0.038246,-0.042427,-0.018709,-0.01195,-0.014337,-0.020591
-0.041922,-0.02645,-0.044172,-0.023307,0.02805,-0.033037,-0.1603,-0.017239,-0.018274,-0.017411,-0.038962,-0.029071,0.0064529,-0.089339,-0.35984,-0.019829,-0.013579,-0.037444,-0.0010638,-0.041704,-0.015201,-0.01356,-0.012027,-0.02285
-0.046893,-0.025447,-0.039045,-0.021275,0.029533,-0.025797,-0.14221,-0.0088803,-0.017698,-0.013335,-0.013777,-0.026071,0.01478,-0.081898,-0.34976,-0.0096031,-0.019215,-0.032827,0.02631,-0.038812,-0.010049,-0.013872,-0.005293,-0.023363
-0.045466,-0.0246,-0.03057,-0.018994,0.030152,-0.019474,-0.12593,0.00060899,-0.018055,-0.0091342,0.014832,-0.022472,0.02671,-0.076555,-0.33495,0.00068567,-0.025455,-0.03304,0.031626,-0.035063,-0.0077946,-0.012286,0.0013568,-0.021584
-0.040397,-0.025326,-0.022551,-0.018175,0.028937,-0.01458,-0.11556,0.0058947,-0.018242,-0.0055917,0.040214,-0.019901,0.038389,-0.072523,-0.31601,0.0073621,-0.028486,-0.039423,0.011958,-0.032557,-0.010241,-0.0098532,0.0035097,-0.017829
-0.03658,-0.027492,-0.018691,-0.018768,0.025663,-0.011889,-0.11127,0.0044092,-0.017306,-0.0042055,0.058885,-0.019467,0.04478,-0.069897,-0.29465,0.0097983,-0.027397,-0.049009,-0.023986,-0.032892,-0.014854,-0.0083962,0.00046703,-0.012934
-0.036614,-0.02943,-0.019663,-0.019577,0.022124,-0.011511,-0.109,-0.0016417,-0.015142,-0.0049354,0.070944,-0.0208,0.043449,-0.069936,-0.2705,0.010396,-0.024474,-0.056061,-0.06014,-0.035856,-0.017117,-0.0089696,-0.0042508,-0.0078867
-0.038479,-0.029196,-0.022291,-0.019711,0.021306,-0.012178,-0.10319,-0.0070496,-0.012429,-0.0052138,0.078109,-0.022167,0.036711,-0.073918,-0.24023,0.01181,-0.022424,-0.056134,-0.082263,-0.039354,-0.014663,-0.01102,-0.0060136,-0.0036893
-0.03739,-0.02604,-0.021997,-0.019214,0.02491,-0.011646,-0.090458,-0.0075691,-0.0097963,-0.0015648,0.081083,-0.021661,0.029994,-0.081736,-0.2004,0.014221,-0.021375,-0.049168,-0.086311,-0.040846,-0.0093534,-0.012909,-0.003123,-0.0012964
-0.030184,-0.021006,-0.016727,-0.018379,0.031488,-0.0080285,-0.071554,-0.0028943,-0.0069916,0.0074258,0.078393,-0.018571,0.027492,-0.091634,-0.1519,0.015361,-0.018641,-0.038993,-0.079965,-0.039152,-0.0054079,-0.013217,0.0017663,-0.0014046
-0.01837,-0.016338,-0.0089429,-0.016846,0.03709,-0.0010317,-0.05036,0.0034748,-0.003038,0.019478,0.067609,-0.013878,0.028789,-0.10129,-0.10135,0.013161,-0.011528,-0.029869,-0.075789,-0.035046,-0.0054641,-0.011685,0.0041018,-0.0041052
-0.0071809,-0.014238,-0.0036053,-0.013841,0.038083,0.0079106,-0.031069,0.0070468,0.0026083,0.029872,0.04794,-0.0095409,0.029504,-0.10915,-0.057407,0.0082821,-0.00040619,-0.023184,-0.080811,-0.030193,-0.008331,-0.0091282,0.0015607,-0.0086727
-0.0014744,-0.01583,-0.0036524,-0.0095108,0.033829,0.016655,-0.015828,0.005494,0.0089806,0.034572,0.02213,-0.0071289,0.025526,-0.11485,-0.024697,0.0038485,0.011006,-0.016998,-0.090361,-0.025569,-0.010463,-0.0067153,-0.0038596,-0.013697
-0.0020041,-0.020828,-0.0070611,-0.005783,0.026998,0.023609,-0.004302,-9.7327e-005,0.013841,0.032651,-0.0038794,-0.0068105,0.017025,-0.11873,-0.00074066,0.0025495,0.018505,-0.0083235,-0.090813,-0.020915,-0.0095519,-0.0053572,-0.0076337,-0.017504
-0.0050881,-0.027894,-0.0084453,-0.0053384,0.021352,0.028234,0.0051238,-0.00642,0.015297,0.026313,-0.023403,-0.0073624,0.0084853,-0.12135,0.021154,0.0039366,0.020757,0.0042115,-0.068864,-0.01561,-0.0066547,-0.0055436,-0.0067016,-0.01867
-0.0057411,-0.035332,-0.0040402,-0.0091767,0.01893,0.030585,0.013925,-0.010314,0.013456,0.018968,-0.032109,-0.0070954,0.0046518,-0.1238,0.045464,0.0046793,0.02013,0.019457,-0.019945,-0.0098621,-0.0048484,-0.0072755,-0.0020228,-0.016492
-0.0015258,-0.041697,0.0044512,-0.015037,0.018887,0.030607,0.022864,-0.010489,0.010574,0.013249,-0.030175,-0.0049724,0.0061217,-0.12802,0.070324,0.0017186,0.020442,0.034641,0.050305,-0.0048643,-0.0058896,-0.009755,0.0025471,-0.011367
0.0059341,-0.046072,0.010932,-0.018541,0.018685,0.02805,0.032197,-0.0076661,0.009454,0.010317,-0.022711,-0.0011785,0.008768,-0.13617,0.089554,-0.0045734,0.023906,0.046557,0.13119,-0.0017847,-0.0083475,-0.011139,0.0038952,-0.0049347
0.012678,-0.047998,0.010228,-0.016484,0.016376,0.023185,0.041899,-0.0035629,0.011386,0.010282,-0.018406,0.0031137,0.0076123,-0.14875,0.09907,-0.010248,0.02992,0.051866,0.21293,-0.00071127,-0.0091747,-0.0090878,0.0023943,0.00034277
0.015674,-0.047298,0.0028957,-0.0094869,0.012041,0.017538,0.051446,0.00016137,0.015317,0.012682,-0.026692,0.0064894,0.0015522,-0.16301,0.10176,-0.010963,0.036269,0.046978,0.28794,-0.00067293,-0.0071749,-0.0022925,0.0012789,0.002265
0.014975,-0.044068,-0.0049728,-0.0015518,0.0074363,0.013691,0.059545,0.002304,0.018821,0.016427,-0.053955,0.0080361,-0.005516,-0.17327,0.10616,-0.0057974,0.041072,0.028855,0.34784,-0.00064843,-0.004778,0.0080105,0.0033284,0.00021762
0.013291,-0.038854,-0.0069142,0.0031573,0.0044234,0.013896,0.064537,0.0020891,0.019953,0.01967,-0.099983,0.0077221,-0.0082804,-0.17372,0.11974,0.0016434,0.043576,-0.0028093,0.38173,-0.0004401,-0.0060453,0.018005,0.007978,-0.0041805
0.013598,-0.032707,-0.0016061,0.00347,0.0035958,0.018442,0.065568,-0.00066514,0.018513,0.020321,-0.15658,0.0063022,-0.004982,-0.16174,0.14265,0.0058896,0.043626,-0.043334,0.38043,-0.00051774,-0.012535,0.023285,0.011533,-0.0078272
0.016744,-0.026807,0.0062236,0.0015511,0.0040989,0.025127,0.063645,-0.0050629,0.015908,0.017144,-0.20992,0.0048396,0.00085955,-0.13938,0.16728,0.0039209,0.041111,-0.082936,0.34473,-0.0011107,-0.020999,0.02168,0.010338,-0.0080675
0.020862,-0.021803,0.010186,0.00036953,0.0045659,0.030499,0.061411,-0.008993,0.013911,0.010559,-0.24642,0.0040698,0.0035836,-0.11207,0.18426,-0.0023515,0.036391,-0.10989,0.28979,-0.0016356,-0.025465,0.014776,0.0040994,-0.0045567
0.022908,-0.017501,0.0077999,0.00086392,0.004267,0.032086,0.06145,-0.010039,0.013265,0.0023198,-0.25911,0.0039735,0.00052079,-0.085435,0.18959,-0.0074579,0.031104,-0.11586,0.23937,-0.0011446,-0.022214,0.0069342,-0.0035462,0.0003867
0.021099,-0.013308,0.0022184,0.0014532,0.0035331,0.029954,0.064338,-0.0071688,0.013024,-0.0056911,-0.25065,0.0039081,-0.0055435,-0.062686,0.18719,-0.0065461,0.027913,-0.10036,0.21174,0.00065693,-0.013277,0.0025085,-0.0077289,0.0033935
0.016384,-0.0091238,-0.0011706,0.00013487,0.00318,0.026363,0.068163,-0.0018642,0.011042,-0.012494,-0.23078,0.0033108,-0.0087698,-0.043821,0.18476,0.0009043,0.028729,-0.071626,0.20796,0.0029255,-0.0050915,0.0033698,-0.0060052,0.0025407
0.011834,-0.0057156,0.00016618,-0.003044,0.0034995,0.023865,0.070143,0.0026038,0.0054444,-0.018047,-0.20983,0.0024492,-0.0053501,-0.026863,0.18704,0.010711,0.032784,-0.042696,0.21258,0.0043133,-0.003227,0.0083531,6.1817e-005,-0.0011833
0.010428,-0.0040407,0.0038755,-0.0055663,0.0037692,0.023437,0.069033,0.003579,-0.0037186,-0.022498,-0.19278,0.0024732,0.0031964,-0.0098658,0.19225,0.017203,0.036554,-0.024928,0.20708,0.0041714,-0.0077051,0.0146,0.0065431,-0.0046728
0.012926,-0.0040619,0.0053507,-0.0044358,0.0028226,0.024148,0.06616,0.0012846,-0.013794,-0.025641,-0.17795,0.0045009,0.011265,0.0076413,0.19462,0.017429,0.036108,-0.022457,0.18529,0.003159,-0.013101,0.019432,0.010355,-0.0051877
0.017435,-0.0043139,0.0022294,0.0012838,0.00025659,0.024434,0.064027,-0.001098,-0.020642,-0.027166,-0.16075,0.0083953,0.013679,0.024539,0.19025,0.013063,0.030186,-0.030951,0.15758,0.0026246,-0.013428,0.021429,0.011192,-0.0024944
0.02093,-0.0028936,-0.0035342,0.009611,-0.0028451,0.023643,0.063736,9.1764e-005,-0.021159,-0.027303,-0.1388,0.012381,0.0095329,0.039218,0.18095,0.0086219,0.021419,-0.041282,0.14057,0.0033006,-0.0074923,0.020457,0.010737,0.0011475
0.021493,0.00085328,-0.0076981,0.017072,-0.0045017,0.022418,0.063686,0.0058511,-0.015537,-0.026913,-0.11417,0.014085,0.0023482,0.051031,0.17261,0.0076896,0.01457,-0.045582,0.14176,0.0045484,7.0544e-005,0.017221,0.010305,0.003138
0.019555,0.0054981,-0.0075818,0.021068,-0.0033941,0.021745,0.060963,0.0134,-0.0074276,-0.026712,-0.091154,0.012322,-0.0031388,0.060968,0.16994,0.010352,0.013205,-0.041645,0.15312,0.0049342,0.0030158,0.012903,0.0094619,0.0029013
0.017336,0.0084436,-0.0040028,0.02127,-4.0597e-005,0.021797,0.054248,0.018235,-0.0016492,-0.026423,-0.072019,0.0081269,-0.0044953,0.070956,0.1724,0.013808,0.017472,-0.032962,0.1593,0.0036717,-0.00087961,0.008878,0.0069482,0.0023107
0.017019,0.0079143,0.00021435,0.019208,0.0035374,0.021781,0.045521,0.017779,-0.001032,-0.025002,-0.054802,0.0040639,-0.002613,0.082231,0.17493,0.015256,0.024639,-0.024901,0.15282,0.0015814,-0.0079215,0.0062921,0.002836,0.0037757
0.019118,0.0043745,0.0032386,0.016775,0.0054152,0.020892,0.038743,0.013567,-0.0048052,-0.02206,-0.034926,0.0023141,-1.2728e-005,0.094113,0.17271,0.014259,0.031593,-0.020205,0.14219,0.00055232,-0.012029,0.0055762,-0.00053065,0.0077966
0.022194,0.00022843,0.0056104,0.015004,0.0051668,0.019302,0.036469,0.010044,-0.0096763,-0.019161,-0.0088554,0.0031345,0.0014656,0.10431,0.16541,0.012609,0.03698,-0.017176,0.14584,0.0018581,-0.010329,0.0063026,-5.745e-005,0.01235
0.024049,-0.001867,0.0088718,0.013934,0.0037939,0.01813,0.03731,0.010919,-0.012561,-0.019355,0.023563,0.0049589,0.001495,0.11061,0.15729,0.012201,0.041276,-0.011579,0.17751,0.0048638,-0.0055224,0.0075762,0.0053754,0.014774
0.023448,-0.00067855,0.013264,0.013276,0.0023797,0.018438,0.036553,0.016126,-0.012695,-0.024697,0.059758,0.0059377,0.0004626,0.11269,0.15342,0.013229,0.04516,-0.00039098,0.23569,0.0075004,-0.002845,0.0086357,0.013599,0.014383
0.021056,0.0031323,0.017127,0.013032,0.00092915,0.020264,0.029522,0.021962,-0.01159,-0.033624,0.096756,0.0054806,-0.0014594,0.11243,0.15544,0.014377,0.048081,0.015647,0.30521,0.0083635,-0.0046403,0.0091402,0.020643,0.01326
0.018843,0.0078215,0.018648,0.013478,-0.0014026,0.022635,0.014908,0.024194,-0.011229,-0.040768,0.13261,0.0044883,-0.0041658,0.11263,0.16054,0.014503,0.048499,0.032536,0.36807,0.0087119,-0.0079036,0.0090192,0.023784,0.014305
0.018392,0.011773,0.017996,0.014694,-0.0050077,0.024416,-0.0045541,0.021481,-0.012219,-0.040112,0.16583,0.0042649,-0.0068423,0.11516,0.16417,0.013862,0.045451,0.045932,0.4138,0.012526,-0.0072679,0.0082827,0.023399,0.018332
0.019467,0.014169,0.017465,0.01627,-0.0089276,0.025088,-0.024335,0.016277,-0.01341,-0.029485,0.19413,0.0053073,-0.0079827,0.11991,0.1636,0.013646,0.039757,0.054067,0.44233,0.02435,-0.00053762,0.007168,0.022032,0.023022
0.020108,0.014885,0.0193,0.017608,-0.011405,0.024708,-0.041069,0.012654,-0.013057,-0.012721,0.21433,0.0071407,-0.0067033,0.12526,0.15944,0.01453,0.033522,0.05847,0.45993,0.046561,0.0087223,0.0064455,0.021702,0.024908
0.018349,0.014088,0.023372,0.018563,-0.011372,0.023278,-0.053758,0.013084,-0.010385,0.0027223,0.22396,0.009208,-0.0040806,0.12942,0.15425,0.015933,0.028362,0.062056,0.47377,0.078165,0.014247,0.007303,0.022089,0.022643
0.01422,0.012103,0.027079,0.019712,-0.0093727,0.020403,-0.062691,0.016857,-0.0062528,0.011202,0.22324,0.011717,-0.0027502,0.13158,0.15026,0.016802,0.02409,0.066173,0.48904,0.11583,0.012941,0.010551,0.021223,0.018468
0.010253,0.0096913,0.027687,0.021808,-0.0069964,0.015754,-0.067757,0.021165,-0.0025222,0.013069,0.2155,0.015421,-0.0046346,0.13242,0.14819,0.016964,0.019181,0.068935,0.50804,0.15593,0.0078665,0.015682,0.017795,0.016397
0.0097835,0.0082605,0.024912,0.02476,-0.0054702,0.0099193,-0.068198,0.02353,-0.00076637,0.013931,0.20596,0.02048,-0.0088435,0.1338,0.14776,0.017455,0.012581,0.066225,0.52897,0.19557,0.0053489,0.020707,0.012712,0.018694
0.014217,0.0094893,0.02131,0.027171,-0.0048238,0.0046754,-0.064026,0.023362,-0.0013991,0.019429,0.19992,0.025671,-0.012058,0.13786,0.14853,0.019374,0.0050649,0.054775,0.54458,0.23203,0.0089376,0.023184,0.0083593,0.023895
0.021487,0.014319,0.020131,0.027179,-0.0043276,0.0021215,-0.057346,0.021589,-0.0038241,0.02992,0.20188,0.029029,-0.011459,0.14581,0.15013,0.022488,-0.0012637,0.035125,0.5437,0.26147,0.016034,0.021798,0.006437,0.02818
0.027185,0.022001,0.022628,0.0242,-0.0035069,0.0031707,-0.051634,0.0192,-0.0073048,0.039832,0.21569,0.029574,-0.0076014,0.15685,0.15174,0.025187,-0.0049375,0.012207,0.51734,0.27903,0.020456,0.017309,0.0065804,0.028805
0.027738,0.030132,0.027225,0.020102,-0.0025331,0.006597,-0.049064,0.01636,-0.01166,0.042399,0.24474,0.028516,-0.0043253,0.16812,0.15225,0.025955,-0.0066841,-0.007081,0.46589,0.28076,0.018397,0.012124,0.0070885,0.026376
0.023183,0.035993,0.031113,0.018427,-0.0016442,0.0095325,-0.048221,0.012854,-0.017112,0.035678,0.29097,0.028498,-0.0054666,0.1762,0.15119,0.024893,-0.0090151,-0.017751,0.40112,0.26632,0.011977,0.0088089,0.0068955,0.023939
0.017225,0.038417,0.032656,0.021818,-0.00043826,0.0092388,-0.044721,0.0091297,-0.023476,0.024378,0.35269,0.031227,-0.011253,0.17923,0.1496,0.023636,-0.014086,-0.019404,0.3392,0.2399,0.0069707,0.0086315,0.0066881,0.023899
0.014356,0.038741,0.032424,0.029537,0.0019441,0.0049664,-0.034886,0.0066089,-0.029572,0.01577,0.42267,0.035578,-0.017783,0.1783,0.14946,0.023656,-0.021682,-0.015911,0.2891,0.20849,0.0070942,0.011072,0.0080296,0.025783
0.016246,0.039901,0.032146,0.037339,0.0057567,-0.0014323,-0.01962,0.0068162,-0.033621,0.013351,0.4886,0.038106,-0.020219,0.17663,0.15185,0.024682,-0.029148,-0.012529,0.24532,0.17822,0.010557,0.01446,0.011442,0.026947
0.020372,0.044184,0.032779,0.040253,0.0097961,-0.0066409,-0.0048679,0.010125,-0.034424,0.014049,0.53691,0.035832,-0.016864,0.17709,0.15565,0.02494,-0.033397,-0.012707,0.19202,0.15172,0.012246,0.017117,0.015483,0.025443
0.022111,0.051338,0.033564,0.036392,0.011816,-0.0080347,0.0024836,0.015346,-0.0323,0.011547,0.55873,0.028928,-0.010448,0.18015,0.15826,0.023132,-0.033384,-0.016803,0.11584,0.12812,0.0092168,0.018207,0.01783,0.022172
0.018672,0.05859,0.032881,0.028716,0.010104,-0.005385,0.00049769,0.020508,-0.028897,0.002611,0.55487,0.020799,-0.0055479,0.18406,0.15807,0.020159,-0.030995,-0.023224,0.017453,0.1055,0.0038846,0.017837,0.01736,0.020177
0.01163,0.062614,0.030002,0.023062,0.0049665,-0.00094675,-0.0049628,0.024065,-0.026,-0.0094175,0.5363,0.015344,-0.0045978,0.18691,0.15623,0.018685,-0.029609,-0.030536,-0.087687,0.083661,0.0016808,0.016517,0.015194,0.021716
0.0058882,0.061868,0.026082,0.023755,-0.0011817,0.0020833,-0.0032902,0.025454,-0.024414,-0.017183,0.51891,0.013829,-0.0061038,0.18858,0.15573,0.020666,-0.031416,-0.038613,-0.17976,0.064768,0.005542,0.014537,0.013707,0.025888
0.0058186,0.057433,0.023473,0.030221,-0.0053188,0.0016128,0.013724,0.02474,-0.023834,-0.015542,0.51513,0.014237,-0.0064578,0.19046,0.15843,0.025122,-0.035601,-0.048083,-0.24749,0.051472,0.012793,0.011846,0.014478,0.029122
0.011671,0.051774,0.023969,0.037374,-0.0058482,-0.0021907,0.04611,0.022029,-0.023584,-0.0058958,0.52728,0.013649,-0.0034102,0.19323,0.16287,0.028451,-0.038827,-0.058998,-0.29326,0.044216,0.017569,0.0085976,0.017111,0.028142
0.019203,0.046597,0.027491,0.039552,-0.0036549,-0.0072821,0.086012,0.017397,-0.02328,0.0050253,0.54684,0.011285,0.0020551,0.1951,0.16531,0.027357,-0.037692,-0.070233,-0.32754,0.040043,0.016359,0.0058428,0.019913,0.022778
0.02288,0.041681,0.032306,0.034849,-0.0014089,-0.011181,0.1239,0.011377,-0.022772,0.010499,0.56011,0.0091778,0.0069168,0.19261,0.16332,0.021908,-0.031306,-0.08022,-0.35901,0.033963,0.01119,0.0054682,0.021607,0.016147
0.020155,0.035588,0.036474,0.026394,-0.0015987,-0.012387,0.15552,0.00534,-0.021742,0.008509,0.55647,0.0098284,0.0089033,0.18334,0.15856,0.015845,-0.021998,-0.088172,-0.38919,0.021825,0.0073528,0.0089556,0.022361,0.012134
0.013459,0.027455,0.03917,0.019682,-0.004682,-0.010913,0.18377,0.0012113,-0.01979,0.002143,0.53379,0.013218,0.0081419,0.1681,0.15582,0.013602,-0.013637,-0.09446,-0.41497,0.0024468,0.008068,0.015718,0.023241,0.012488
0.0083484,0.018214,0.040727,0.018293,-0.0086586,-0.0077935,0.21409,0.00062121,-0.017174,-0.0038133,0.49793,0.016317,0.0063873,0.15024,0.15878,0.016519,-0.0088971,-0.099663,-0.4347,-0.022512,0.011453,0.022621,0.024802,0.015943
0.009226,0.010198,0.041574,0.021484,-0.01038,-0.0040784,0.24778,0.00412,-0.015256,-0.0065327,0.45738,0.015812,0.0050243,0.13291,0.16636,0.021626,-0.0075748,-0.10321,-0.45091,-0.050563,0.012766,0.025701,0.026354,0.019824
0.015917,0.0055728,0.041352,0.02537,-0.0076915,-1.179e-005,0.27961,0.010933,-0.015677,-0.0060129,0.41729,0.011525,0.0040402,0.11682,0.17314,0.024211,-0.0071344,-0.10301,-0.4674,-0.080442,0.0095543,0.023207,0.026648,0.022402
0.023685,0.0049364,0.039271,0.026339,-0.00090884,0.0050545,0.30167,0.01927,-0.018578,-0.0032435,0.37674,0.0071248,0.0028599,0.10056,0.17372,0.021941,-0.0047853,-0.096678,-0.48435,-0.11249,0.004436,0.017475,0.025223,0.023836
0.026635,0.0070555,0.035409,0.023708,0.0073475,0.0119,0.31008,0.026913,-0.021591,0.0017605,0.33056,0.0072115,0.0018343,0.082842,0.16736,0.016852,0.00070277,-0.083373,-0.49701,-0.14722,0.0026216,0.013638,0.022953,0.025144
0.02187,0.0096358,0.031482,0.01961,0.013747,0.020276,0.30801,0.031878,-0.021055,0.0098456,0.27351,0.013268,0.0025004,0.064046,0.15864,0.013402,0.0087386,-0.06482,-0.4993,-0.18353,0.0065737,0.015749,0.021128,0.026533
0.011312,0.010364,0.029953,0.016691,0.016038,0.028218,0.30249,0.033064,-0.014938,0.020796,0.20403,0.022179,0.0061109,0.045746,0.15385,0.014384,0.017946,-0.044629,-0.48898,-0.21834,0.013123,0.023352,0.020017,0.026866
-2.3568e-005,0.0076923,0.032012,0.015927,0.01383,0.032601,0.29828,0.030688,-0.0050247,0.031876,0.12521,0.028719,0.01191,0.029267,0.1562,0.018413,0.027199,-0.026549,-0.46942,-0.24812,0.016057,0.031556,0.0185,0.024789
-0.007743,0.0013734,0.03629,0.016395,0.008121,0.030903,0.29493,0.02618,0.0037948,0.038765,0.043033,0.029859,0.017101,0.015401,0.16413,0.021231,0.035737,-0.012988,-0.44674,-0.27111,0.011873,0.034805,0.015364,0.020355
-0.010845,-0.0071892,0.039719,0.016753,0.0003414,0.023085,0.28955,0.021363,0.0069166,0.03849,-0.036545,0.02709,0.018892,0.0056521,0.17355,0.019551,0.042649,-0.0046119,-0.42512,-0.28813,0.0032317,0.031314,0.011045,0.01547
-0.011622,-0.015142,0.039951,0.016666,-0.0081812,0.012117,0.28222,0.01731,0.0033976,0.031956,-0.10974,0.024828,0.016864,0.0030245,0.1817,0.013889,0.046724,-0.00073419,-0.40436,-0.30124,-0.0032751,0.024448,0.0078628,0.012642
-0.013226,-0.019388,0.037174,0.016759,-0.016131,0.0024781,0.27778,0.013723,-0.0034911,0.023751,-0.17514,0.026412,0.013409,0.010344,0.18881,0.0078923,0.047125,0.00023298,-0.38133,-0.31106,-0.0030742,0.019903,0.0081105,0.013088
-0.017189,-0.01848,0.033624,0.017419,-0.02208,-0.0024872,0.28172,0.0094712,-0.0089416,0.019122,-0.23206,0.031286,0.011672,0.026996,0.19654,0.0049563,0.04424,0.00053631,-0.35356,-0.31519,0.0022737,0.021094,0.011624,0.015851
-0.022864,-0.013905,0.031288,0.01802,-0.024901,-0.0024736,0.29381,0.003993,-0.010198,0.0204,-0.27856,0.035704,0.012777,0.047501,0.20519,0.0053173,0.039707,0.0026048,-0.32178,-0.30937,0.0066594,0.026596,0.015309,0.018653
-0.028854,-0.0094032,0.030112,0.01755,-0.024522,1.701e-005,0.30618,-0.0016043,-0.008123,0.025659,-0.31103,0.036102,0.014883,0.06437,0.21281,0.006203,0.035353,0.0079905,-0.28966,-0.29098,0.005237,0.031609,0.01551,0.019648
-0.034711,-0.0084173,0.028528,0.015974,-0.022218,0.0017807,0.30881,-0.00489,-0.0057476,0.030567,-0.326,0.032033,0.014963,0.073617,0.21699,0.004687,0.031948,0.016216,-0.2613,-0.26238,-0.00099824,0.03201,0.011345,0.018545
-0.041239,-0.011485,0.025792,0.014635,-0.01988,0.001171,0.29818,-0.0038958,-0.0054002,0.03182,-0.32319,0.0262,0.011678,0.078097,0.21765,0.00047476,0.028883,0.024597,-0.23845,-0.23115,-0.0061758,0.02754,0.0058903,0.016306
-0.04918,-0.015768,0.023636,0.015001,-0.018692,-0.0011789,0.2813,0.0010407,-0.0069594,0.029352,-0.30715,0.021924,0.006675,0.085268,0.21784,-0.0038974,0.025002,0.029583,-0.21963,-0.20674,-0.0051478,0.021654,0.003857,0.013976
-0.057714,-0.01727,0.025272,0.016881,-0.018347,-0.0034566,0.27088,0.0070681,-0.00844,0.025796,-0.28583,0.020551,0.0031272,0.10092,0.22151,-0.0054511,0.019688,0.028856,-0.20163,-0.19523,0.0015521,0.018492,0.0075889,0.011897
-0.064297,-0.013986,0.032372,0.018124,-0.01757,-0.0044005,0.27483,0.01069,-0.0079659,0.024024,-0.26646,0.021048,0.0028557,0.12423,0.23001,-0.0034241,0.013141,0.022663,-0.18227,-0.19599,0.0080568,0.019648,0.014887,0.0099731
-0.06614,-0.0073354,0.042805,0.016435,-0.015533,-0.0042066,0.28899,0.010294,-0.0051932,0.025093,-0.25193,0.021674,0.0047046,0.14845,0.24027,0.00015091,0.0057537,0.013487,-0.16246,-0.20242,0.0085027,0.023302,0.020639,0.0084692
-0.062106,-0.00064614,0.051513,0.011753,-0.012879,-0.0041398,0.29917,0.0071789,-0.0011162,0.028196,-0.24039,0.021778,0.0056309,0.1663,0.24622,0.0022404,-0.0024687,0.0045532,-0.14576,-0.2063,0.0023903,0.026107,0.020891,0.0082478
-0.053481,0.0039295,0.054095,0.0068021,-0.011352,-0.0055157,0.29138,0.0041003,0.0031531,0.032163,-0.22846,0.021977,0.0034994,0.1751,0.2427,0.0012104,-0.01154,-0.0014992,-0.13552,-0.20281,-0.0049706,0.025989,0.015863,0.0099947
-0.043064,0.0073339,0.050139,0.0050271,-0.012336,-0.0089651,0.26192,0.0026317,0.00722,0.03671,-0.21524,0.022908,-0.00094244,0.17765,0.22901,-0.002164,-0.020483,-0.0029869,-0.13176,-0.19303,-0.0072649,0.023542,0.0094714,0.013135
-0.033408,0.01266,0.043444,0.0076685,-0.015655,-0.014288,0.21981,0.0017972,0.011117,0.042194,-0.20356,0.024175,-0.0046364,0.17877,0.20984,-0.00558,-0.027018,0.00098362,-0.13042,-0.18254,-0.0027637,0.021071,0.0059604,0.015659
-0.025565,0.022209,0.038954,0.012697,-0.019771,-0.020604,0.17978,-0.00065085,0.014471,0.04836,-0.19732,0.02466,-0.0047826,0.18159,0.193,-0.0068938,-0.028895,0.010346,-0.12595,-0.17758,0.0043131,0.020377,0.0066486,0.015337
-0.019084,0.035178,0.039019,0.016646,-0.023189,-0.026521,0.15185,-0.0054832,0.016284,0.053738,-0.19757,0.023722,-0.0011607,0.18666,0.18534,-0.0052483,-0.026103,0.023454,-0.11541,-0.18136,0.0076616,0.021218,0.009399,0.011458
-0.012948,0.048005,0.04205,0.017638,-0.025712,-0.030469,0.1354,-0.010536,0.015794,0.056599,-0.20074,0.021822,0.0037168,0.19359,0.18929,-0.0011806,-0.021836,0.036931,-0.10061,-0.19253,0.00428,0.021705,0.010929,0.0055766
-0.0065328,0.057051,0.044393,0.016777,-0.028331,-0.031366,0.12145,-0.01226,0.013615,0.056639,-0.20098,0.019876,0.0066307,0.2024,0.20194,0.003862,-0.02075,0.04687,-0.086633,-0.20623,-0.0033933,0.020136,0.0097227,0.00049213
5.1646e-005,0.061281,0.043485,0.016646,-0.031915,-0.029374,0.10046,-0.00908,0.011883,0.055575,-0.19447,0.018146,0.0060817,0.21276,0.21695,0.0080961,-0.025465,0.050951,-0.07766,-0.21654,-0.010093,0.016656,0.0070897,-0.0017708
0.0061999,0.062739,0.039587,0.018478,-0.036037,-0.026055,0.06928,-0.0033581,0.012926,0.055735,-0.18208,0.016031,0.0031569,0.2224,0.22786,0.0099958,-0.03425,0.04987,-0.073996,-0.21909,-0.012285,0.013256,0.0057125,-0.0012901
0.011228,0.06458,0.034951,0.020768,-0.039147,-0.023531,0.032341,0.00026448,0.017393,0.05779,-0.16839,0.013078,0.00029144,0.22712,0.23078,0.008971,-0.042198,0.046723,-0.072507,-0.21263,-0.01051,0.012098,0.0071912,0.00020935
0.014665,0.068509,0.031643,0.020719,-0.039908,-0.02315,-0.002998,-0.001049,0.023455,0.05984,-0.15809,0.010108,-0.00086699,0.22322,0.22514,0.0058338,-0.045193,0.04474,-0.069849,-0.19911,-0.0078682,0.013542,0.010734,0.0010833
0.016437,0.073801,0.030079,0.017103,-0.038346,-0.024726,-0.032802,-0.0055725,0.027952,0.058983,-0.15291,0.0090463,-0.00064408,0.21044,0.21251,0.0025129,-0.043266,0.045264,-0.065213,-0.18218,-0.0066899,0.015559,0.013954,0.0011417
0.017045,0.078552,0.029268,0.01177,-0.035701,-0.027067,-0.05993,-0.0084216,0.028693,0.054087,-0.1513,0.011382,-0.00064154,0.19249,0.19486,0.00091686,-0.040239,0.047613,-0.060102,-0.16464,-0.0067615,0.015133,0.014853,0.0014847
0.017592,0.081782,0.027986,0.0083255,-0.033208,-0.029348,-0.092263,-0.00609,0.02608,0.047174,-0.15038,0.016607,-0.0018635,0.17476,0.17332,0.0016778,-0.039905,0.050657,-0.055723,-0.14619,-0.0064918,0.010583,0.013194,0.003145
0.0194,0.084401,0.025572,0.0091562,-0.031131,-0.032069,-0.13726,8.3533e-005,0.022679,0.041944,-0.14808,0.022212,-0.0033821,0.16099,0.14795,0.003827,-0.042282,0.054321,-0.050976,-0.12309,-0.0053206,0.0029509,0.010206,0.0059848
0.023238,0.088154,0.021848,0.013509,-0.02902,-0.03663,-0.19652,0.0049514,0.02111,0.040672,-0.14373,0.025419,-0.0028011,0.15187,0.11819,0.0057484,-0.043526,0.059462,-0.043352,-0.090571,-0.004611,-0.0046893,0.0072085,0.0088861
0.028649,0.093559,0.016778,0.018254,-0.026799,-0.043816,-0.26382,0.0043134,0.022096,0.04234,-0.13744,0.025242,0.0017716,0.14587,0.083439,0.006606,-0.039672,0.066317,-0.031952,-0.046513,-0.0060859,-0.0094773,0.0046118,0.010851
0.034035,0.09879,0.010588,0.020475,-0.025348,-0.052537,-0.32755,-0.0010536,0.024306,0.043782,-0.12959,0.023116,0.0098779,0.141,0.044075,0.0069609,-0.030687,0.073245,-0.019508,0.0060588,-0.0095518,-0.010748,0.0021724,0.011722
0.037636,0.10064,0.0041888,0.019517,-0.025751,-0.060006,-0.37618,-0.0059775,0.02597,0.04272,-0.12105,0.021574,0.018607,0.1356,0.0023045,0.0080165,-0.020941,0.07719,-0.011134,0.059911,-0.012456,-0.010188,-1.1279e-005,0.01181
0.038714,0.096911,-0.00090864,0.016874,-0.027858,-0.063315,-0.40337,-0.0055852,0.026573,0.039746,-0.11365,0.022134,0.024427,0.12809,-0.037672,0.010221,-0.015574,0.075661,-0.010658,0.10744,-0.011951,-0.010139,-0.0010207,0.01107
0.037986,0.08826,-0.0035387,0.014443,-0.029691,-0.061134,-0.40998,0.00037282,0.027016,0.037342,-0.1095,0.024167,0.025517,0.11703,-0.071021,0.012598,-0.016095,0.068549,-0.01787,0.14461,-0.0075491,-0.011587,0.00021,0.0090438
0.0369,0.077991,-0.0039385,0.013032,-0.028568,-0.054131,-0.40194,0.007699,0.028239,0.037007,-0.10949,0.025633,0.022725,0.10215,-0.09483,0.013513,-0.019314,0.058325,-0.029127,0.17203,-0.0017661,-0.013543,0.0037131,0.005827
0.036386,0.069824,-0.003756,0.012363,-0.02313,-0.043908,-0.38566,0.012203,0.029932,0.037429,-0.11235,0.024953,0.018515,0.08556,-0.1101,0.012241,-0.020495,0.048573,-0.040634,0.19277,0.0019373,-0.014237,0.0080079,0.002902
0.036183,0.065414,-0.0047386,0.012111,-0.014473,-0.031506,-0.36388,0.014077,0.03079,0.035596,-0.11548,0.022359,0.014985,0.071274,-0.12138,0.0098489,-0.017672,0.04206,-0.051227,0.20896,0.0020114,-0.012899,0.010858,0.0024824
0.035292,0.063514,-0.0072112,0.012551,-0.005276,-0.01689,-0.33466,0.017926,0.030051,0.029779,-0.11723,0.019603,0.012708,0.06283,-0.13373,0.0084584,-0.013063,0.039614,-0.062291,0.22034,-0.00016565,-0.010472,0.010654,0.0055264
0.03306,0.061349,-0.0098186,0.014035,0.0022764,0.00016819,-0.29405,0.028372,0.028562,0.021419,-0.11857,0.018361,0.011197,0.060506,-0.14928,0.0093951,-0.01045,0.040214,-0.075433,0.22538,-0.0019113,-0.0086426,0.0073454,0.010282
0.029848,0.056978,-0.010866,0.016011,0.0078502,0.018666,-0.24035,0.045314,0.028049,0.014013,-0.12241,0.018745,0.010106,0.060601,-0.1657,0.011863,-0.011297,0.041882,-0.090656,0.22352,-0.0017825,-0.0082083,0.0023845,0.013168
0.026731,0.050653,-0.010017,0.016914,0.012366,0.035825,-0.17698,0.06319,0.029211,0.010007,-0.13099,0.019191,0.0096872,0.057555,-0.17784,0.013449,-0.013511,0.042735,-0.10692,0.21618,-0.000579,-0.008353,-0.002026,0.011684
0.024652,0.044181,-0.0087238,0.015343,0.016225,0.048118,-0.11172,0.074862,0.030669,0.0085877,-0.14356,0.017791,0.010056,0.047443,-0.1807,0.012163,-0.013986,0.041795,-0.12414,0.20585,-3.3957e-005,-0.0075169,-0.0038027,0.0068887
0.023901,0.039017,-0.0089619,0.011508,0.018353,0.053286,-0.053077,0.076632,0.030049,0.0063653,-0.15663,0.0139,0.010326,0.030301,-0.17146,0.0082411,-0.012161,0.039357,-0.14402,0.19447,-0.00075631,-0.005003,-0.0017015,0.0029485
0.02428,0.034875,-0.011498,0.0074474,0.017227,0.051896,-0.0063392,0.070187,0.026301,0.00026185,-0.16654,0.0087014,0.0089654,0.0097529,-0.1496,0.0039968,-0.010777,0.036764,-0.16842,0.18282,-0.0016351,-0.0017718,0.0041032,0.0037967
0.025459,0.030036,-0.015322,0.0055977,0.012882,0.047195,0.027712,0.060333,0.020963,-0.0099949,-0.17212,0.0042804,0.0053342,-0.0095076,-0.11623,0.0017445,-0.012845,0.035632,-0.19668,0.17101,-0.0012817,0.00035588,0.011736,0.0096714
0.026911,0.02295,-0.018688,0.0068594,0.0076188,0.043145,0.050653,0.051034,0.017014,-0.021805,-0.17513,0.002038,0.00076825,-0.024504,-0.07428,0.0017028,-0.017872,0.036874,-0.22475,0.15922,0.0001067,0.00037783,0.018093,0.01666
0.027529,0.013606,-0.020629,0.009855,0.0042794,0.041847,0.062748,0.043294,0.016331,-0.031872,-0.17824,0.0017586,-0.0022748,-0.035267,-0.029418,0.0019468,-0.021427,0.040085,-0.24729,0.14749,0.00057524,-0.00086723,0.020302,0.019834
0.025757,0.0035633,-0.021451,0.012062,0.0034658,0.0421,0.060913,0.036082,0.018118,-0.038616,-0.18254,0.0020864,-0.0025543,-0.04409,0.010312,0.00057799,-0.018998,0.043678,-0.26106,0.1351,-0.0016776,-0.0013018,0.017583,0.017338
0.020723,-0.0051497,-0.021859,0.011851,0.0025059,0.040257,0.040222,0.028602,0.019724,-0.042921,-0.18672,0.0019368,-0.0015956,-0.053546,0.037328,-0.0019591,-0.010674,0.045703,-0.2668,0.12067,-0.0061439,0.00064507,0.012143,0.011878
0.013605,-0.011112,-0.021852,0.0096884,-0.0024088,0.032955,-0.0019259,0.021378,0.018965,-0.04684,-0.18835,0.0015585,-0.0025966,-0.064649,0.048549,-0.0028271,-0.0019623,0.044847,-0.26795,0.10348,-0.0098892,0.0046586,0.0080602,0.0082803
0.007624,-0.013791,-0.020706,0.0075178,-0.012529,0.019871,-0.062052,0.01539,0.015717,-0.05153,-0.18597,0.0022556,-0.0073593,-0.07632,0.047157,0.00064547,0.00057292,0.041043,-0.26791,0.084985,-0.0098796,0.0087392,0.0085558,0.0092803
0.0059435,-0.013293,-0.018128,0.0069546,-0.024713,0.0044075,-0.13019,0.010693,0.011477,-0.056098,-0.17997,0.0050024,-0.014089,-0.086404,0.039914,0.0080407,-0.004809,0.035422,-0.26808,0.068896,-0.0057101,0.010838,0.013563,0.013212
0.008812,-0.010361,-0.015268,0.0079206,-0.033471,-0.0083715,-0.19345,0.0062981,0.0076488,-0.058233,-0.17204,0.0092668,-0.018388,-0.093415,0.031712,0.015379,-0.013038,0.029707,-0.2683,0.059103,-0.00011874,0.010547,0.019614,0.015583
0.012574,-0.0067269,-0.014247,0.0089079,-0.035379,-0.015203,-0.24141,0.0014636,0.0044367,-0.05611,-0.16397,0.013247,-0.016849,-0.097719,0.021942,0.017804,-0.016254,0.025418,-0.2685,0.056748,0.0033428,0.0093974,0.02236,0.013097
0.012053,-0.0050217,-0.016349,0.0085629,-0.031961,-0.016942,-0.27002,-0.0030907,0.0013305,-0.050139,-0.15699,0.015399,-0.010076,-0.10125,0.0060357,0.013269,-0.010511,0.023264,-0.26968,0.058899,0.0033837,0.0095332,0.019824,0.0066246
0.0048357,-0.0075051,-0.020517,0.0070743,-0.028277,-0.017927,-0.28206,-0.0054817,-0.0016217,-0.043159,-0.1518,0.015811,-0.0023495,-0.10602,-0.019104,0.0041591,0.00070648,0.022923,-0.27301,0.060201,0.0018845,0.011861,0.013731,0.00063891
-0.0061248,-0.014106,-0.023781,0.0060265,-0.028307,-0.02274,-0.28424,-0.0042997,-0.0033606,-0.038796,-0.14878,0.015996,0.0018448,-0.11261,-0.050777,-0.0044133,0.0092723,0.023214,-0.27832,0.056548,0.0017559,0.015257,0.0078821,-0.00031483
-0.014254,-0.021503,-0.023551,0.0068121,-0.031293,-0.032688,-0.28331,-3.4786e-005,-0.0028186,-0.039033,-0.14776,0.017229,0.0013638,-0.11984,-0.081418,-0.0080736,0.0090843,0.022621,-0.2836,0.048,0.0038404,0.017487,0.0050803,0.0048657
-0.014471,-0.024667,-0.019873,0.0091144,-0.032495,-0.04457,-0.28319,0.0050585,-0.00036008,-0.04279,-0.14776,0.019074,-0.0010112,-0.12578,-0.10405,-0.0056182,0.00084334,0.020016,-0.2863,0.038587,0.0059787,0.017081,0.005326,0.013078
-0.0075381,-0.020318,-0.015641,0.011,-0.027794,-0.052659,-0.28421,0.0085575,0.0019504,-0.046641,-0.14723,0.019716,-0.0012383,-0.12933,-0.1173,0.0011305,-0.0089886,0.015372,-0.28536,0.033052,0.0052993,0.014617,0.0066511,0.019363
0.00017833,-0.0097882,-0.014431,0.010693,-0.017898,-0.052428,-0.28385,0.0095744,0.0017767,-0.047232,-0.1449,0.017918,0.0026022,-0.13094,-0.12539,0.0092749,-0.013789,0.010045,-0.28213,0.033066,0.0015453,0.012385,0.0074405,0.020318
0.0016203,0.001268,-0.017718,0.0084156,-0.0080839,-0.043337,-0.27817,0.0092245,-0.001515,-0.0436,-0.14057,0.014627,0.0090728,-0.13222,-0.13357,0.016621,-0.011865,0.0062469,-0.27943,0.035951,-0.0019822,0.012708,0.007852,0.016057
-0.0053941,0.0065283,-0.023795,0.0064778,-0.0034895,-0.028738,-0.26304,0.0095902,-0.0061129,-0.037691,-0.13507,0.012475,0.014969,-0.13492,-0.14367,0.022063,-0.006836,0.0057872,-0.2796,0.03693,-0.0011488,0.016221,0.0091254,0.0096177
-0.016615,0.0033854,-0.029241,0.0073182,-0.0042472,-0.013219,-0.23521,0.012053,-0.009009,-0.032779,-0.1296,0.013421,0.017931,-0.14032,-0.15442,0.024994,-0.0035868,0.0088021,-0.28314,0.033031,0.0049362,0.021387,0.011834,0.0046952
-0.025091,-0.00542,-0.031675,0.011202,-0.0051011,0.00043167,-0.19348,0.016266,-0.0082843,-0.031111,-0.12504,0.016811,0.017762,-0.14935,-0.16604,0.02495,-0.0038862,0.01344,-0.2886,0.025411,0.012379,0.025521,0.015081,0.0034577
-0.026909,-0.01424,-0.031566,0.015736,-9.9748e-005,0.012336,-0.1397,0.020534,-0.0045934,-0.03254,-0.12186,0.019824,0.015731,-0.16275,-0.18363,0.022111,-0.0055796,0.01691,-0.29327,0.018177,0.015271,0.026505,0.017402,0.0057254
-0.024068,-0.018958,-0.031772,0.017781,0.011821,0.024118,-0.079392,0.023313,-0.00067583,-0.035012,-0.12046,0.019972,0.013081,-0.18039,-0.21483,0.017997,-0.005538,0.017193,-0.29367,0.014785,0.010594,0.023998,0.018205,0.0096178
-0.022228,-0.019692,-0.035352,0.016107,0.025513,0.036463,-0.020972,0.024645,0.00070018,-0.036291,-0.12111,0.017235,0.01042,-0.2,-0.26228,0.015285,-0.0030744,0.014092,-0.28572,0.015102,0.00094509,0.01942,0.018052,0.01292
-0.025599,-0.019634,-0.043372,0.012396,0.033836,0.047819,0.026602,0.026203,-0.0012383,-0.035535,-0.12333,0.013737,0.0083427,-0.21672,-0.31774,0.016399,-0.00049659,0.0087798,-0.26563,0.015677,-0.007389,0.01488,0.017545,0.01426
-0.033521,-0.021361,-0.054161,0.0096873,0.033622,0.055281,0.05727,0.029667,-0.0047866,-0.033731,-0.12534,0.011372,0.0081536,-0.22466,-0.3642,0.021769,-0.00058202,0.0024008,-0.23174,0.012945,-0.0094383,0.011847,0.016254,0.013566
-0.041429,-0.024117,-0.064229,0.0097233,0.02801,0.056857,0.070673,0.034645,-0.0071299,-0.032907,-0.12463,0.0098936,0.011356,-0.22026,-0.38605,0.029223,-0.0037607,-0.0048386,-0.18657,0.0065556,-0.0053347,0.010477,0.013161,0.011748
-0.044903,-0.024488,-0.070027,0.011629,0.023186,0.053194,0.072523,0.038131,-0.0064952,-0.034848,-0.11966,0.0074679,0.018007,-0.20501,-0.38018,0.035214,-0.0077804,-0.013126,-0.13685,-9.4496e-005,0.00025737,0.0099446,0.008323,0.009968
-0.042999,-0.0197,-0.069491,0.013055,0.022707,0.047435,0.071951,0.036423,-0.0034801,-0.040174,-0.11159,0.0031019,0.02553,-0.18522,-0.35888,0.037125,-0.009911,-0.021594,-0.090656,-0.0026028,0.0023686,0.0094126,0.0039051,0.0089728
-0.038215,-0.010381,-0.062763,0.012548,0.024602,0.043286,0.077177,0.028246,-0.00060159,-0.04825,-0.10406,-0.0017151,0.029602,-0.16836,-0.34167,0.034923,-0.0092647,-0.027582,-0.052911,0.00082046,-0.00013706,0.0088293,0.0030535,0.0088676
-0.033793,-0.00028252,-0.051976,0.010827,0.023654,0.042695,0.091971,0.016407,-0.00044584,-0.057824,-0.10095,-0.0040769,0.02698,-0.15879,-0.34189,0.03086,-0.0069914,-0.027666,-0.02256,0.007991,-0.003917,0.0088951,0.0072147,0.0093654
-0.03123,0.0067077,-0.040291,0.0097649,0.016443,0.044696,0.11482,0.0062332,-0.0038407,-0.06785,-0.10334,-0.0025161,0.01812,-0.15601,-0.35822,0.027436,-0.0044938,-0.019794,0.0066304,0.01477,-0.0042253,0.010256,0.014287,0.010188
-0.030063,0.0095389,-0.030566,0.01016,0.0044594,0.046213,0.14085,0.0018023,-0.0094043,-0.077827,-0.10828,0.0012792,0.007219,-0.15668,-0.37716,0.025339,-0.0017604,-0.0046936,0.042352,0.018628,0.0011123,0.01265,0.019571,0.011229
-0.029367,0.010442,-0.024204,0.010572,-0.0072279,0.044346,0.1648,0.0030716,-0.014705,-0.087395,-0.11037,0.003829,-0.0006882,-0.15838,-0.38395,0.023129,0.0024815,0.01473,0.090163,0.020643,0.010032,0.014802,0.019102,0.012379
-0.028841,0.012695,-0.020782,0.0085076,-0.014091,0.038661,0.18323,0.0063712,-0.017995,-0.095581,-0.10523,0.0031194,-0.0033463,-0.16161,-0.37308,0.018952,0.0091579,0.035447,0.15231,0.024295,0.017859,0.015261,0.012738,0.013269
-0.02838,0.017817,-0.018696,0.0029875,-0.015189,0.031835,0.19516,0.0077797,-0.019115,-0.10053,-0.092206,0.00050261,-0.0026137,-0.16857,-0.35073,0.012729,0.017601,0.055944,0.2284,0.032242,0.02059,0.013496,0.0043839,0.013347
-0.027083,0.024487,-0.01642,-0.0038576,-0.01285,0.027947,0.20152,0.0063382,-0.018981,-0.1002,-0.074365,-0.00079637,-0.0024275,-0.1801,-0.32823,0.0067527,0.025907,0.076066,0.31535,0.043926,0.017305,0.010349,-0.00094126,0.01234
-0.023427,0.029812,-0.013498,-0.0077907,-0.010046,0.02943,0.20437,0.0043309,-0.018334,-0.093766,-0.056167,0.00081906,-0.0052708,-0.19386,-0.31277,0.0039964,0.032385,0.095477,0.40527,0.055977,0.010324,0.0074261,-0.0008803,0.010733
-0.016844,0.031573,-0.010575,-0.0054605,-0.0082267,0.034962,0.20626,0.0046678,-0.016977,-0.082407,-0.040703,0.0033648,-0.01027,-0.20538,-0.30283,0.005595,0.036555,0.11242,0.48322,0.064948,0.0034596,0.0059477,0.0027047,0.0097638
-0.0090276,0.029577,-0.0084991,0.0029701,-0.007226,0.040189,0.20954,0.0080315,-0.014156,-0.068851,-0.028621,0.0030329,-0.014417,-0.21095,-0.29102,0.0098273,0.038855,0.12415,0.52892,0.07002,-0.00020559,0.0060342,0.0056062,0.01073
-0.003175,0.025313,-0.0072814,0.013676,-0.0064391,0.041073,0.21535,0.012416,-0.0095936,-0.055712,-0.019171,-0.0018935,-0.015477,-0.20996,-0.27117,0.013641,0.039659,0.12864,0.52462,0.073506,0.00024767,0.0069721,0.0049551,0.013971
-0.001446,0.020595,-0.0058051,0.021621,-0.0055526,0.037303,0.22281,0.01519,-0.0041414,-0.043956,-0.012145,-0.0088437,-0.013683,-0.20481,-0.24337,0.015371,0.038857,0.12618,0.46646,0.078923,0.003496,0.0080724,0.0016032,0.01823
-0.0029219,0.016507,-0.0025714,0.023706,-0.0042421,0.032818,0.22895,0.015448,0.00056483,-0.032704,-0.0090781,-0.012839,-0.01079,-0.19915,-0.21346,0.016068,0.036418,0.11923,0.37186,0.088243,0.0070667,0.0091758,-0.0007808,0.020959
-0.0041433,0.013364,0.0030895,0.020283,-0.0018154,0.032691,0.22982,0.014414,0.0031274,-0.0205,-0.01291,-0.010842,-0.0077887,-0.19584,-0.18806,0.018105,0.033123,0.1108,0.27619,0.10044,0.0088859,0.010276,0.00092324,0.01965
-0.0019062,0.011286,0.010313,0.014198,0.002185,0.038752,0.22235,0.013821,0.003216,-0.0069392,-0.02653,-0.0044581,-0.0039304,-0.19606,-0.1699,0.02235,0.03038,0.10248,0.21786,0.11223,0.0083576,0.010737,0.006411,0.01359
0.0041747,0.010509,0.017109,0.0084498,0.0068654,0.047708,0.20588,0.014132,0.0016258,0.0066715,-0.051132,0.0015908,0.0018476,-0.19931,-0.1569,0.02671,0.029029,0.09375,0.2191,0.12026,0.0063402,0.0091565,0.012101,0.0049111
0.011587,0.011006,0.021631,0.0044186,0.0098817,0.053587,0.18267,0.014358,-0.00031245,0.018081,-0.085044,0.0037403,0.0086809,-0.20383,-0.14531,0.027677,0.028378,0.082906,0.274,0.12317,0.0041499,0.0043421,0.014178,-0.002062
0.017214,0.011931,0.023381,0.0018058,0.0091208,0.052639,0.15711,0.013382,-0.0014327,0.025577,-0.12334,0.0024907,0.013397,-0.20711,-0.13333,0.02359,0.026706,0.069007,0.35202,0.12222,0.002469,-0.0033366,0.011825,-0.0032531
0.019783,0.011735,0.023409,-0.0001636,0.0049379,0.046586,0.13407,0.011228,-0.0011472,0.029074,-0.15849,0.0012955,0.012842,-0.20687,-0.12212,0.016495,0.023106,0.053212,0.41545,0.12039,0.0010873,-0.011625,0.0077303,0.0022727
0.02035,0.0091901,0.02333,-0.0016268,0.00066689,0.041332,0.1168,0.0090132,0.00043775,0.030154,-0.18239,0.002763,0.0068627,-0.20211,-0.11359,0.010633,0.019015,0.038528,0.43969,0.12066,-0.0003859,-0.017691,0.0054655,0.011121
0.020767,0.0045302,0.023904,-0.0020148,0.00036911,0.042067,0.10526,0.0078257,0.0025754,0.031211,-0.18963,0.0060336,-0.0010506,-0.19386,-0.10747,0.0087996,0.017686,0.027984,0.42354,0.12469,-0.0016491,-0.020107,0.006211,0.017432
0.021835,-0.00046994,0.024358,-0.00085461,0.0053785,0.048824,0.095787,0.007828,0.0041271,0.034226,-0.18064,0.0078254,-0.00636,-0.18442,-0.10075,0.0099648,0.021646,0.022432,0.38383,0.13231,-0.0016752,-0.019694,0.0079271,0.016907
0.022882,-0.0038017,0.023131,0.0015042,0.012675,0.056216,0.082784,0.0084291,0.0041321,0.039758,-0.16256,0.0058969,-0.007041,-0.17565,-0.089989,0.01049,0.030175,0.019602,0.34023,0.14202,0.00029922,-0.018392,0.0077397,0.010093
0.022851,-0.0049094,0.019569,0.0039785,0.01686,0.057645,0.061887,0.0090979,0.0025618,0.046537,-0.14625,0.0013756,-0.0048296,-0.1673,-0.074481,0.0078275,0.039222,0.015332,0.3022,0.15203,0.0036473,-0.017207,0.0051723,0.002191
0.021622,-0.0052188,0.015183,0.0055571,0.014439,0.050531,0.032674,0.009784,0.00071115,0.051996,-0.14048,-0.00228,-0.0030756,-0.15712,-0.057196,0.0031436,0.044207,0.0063743,0.26711,0.1613,0.0062589,-0.015319,0.0029601,-0.00079161
0.020299,-0.0068959,0.013154,0.0060612,0.0068884,0.038346,-0.0013036,0.010526,0.00064611,0.053704,-0.14696,-0.0025096,-0.0033902,-0.14275,-0.042505,0.000269,0.043572,-0.0071674,0.22827,0.16996,0.0058348,-0.011367,0.0044614,0.0033607
0.02032,-0.010853,0.016091,0.0061722,-0.00021276,0.027851,-0.03556,0.010879,0.0037871,0.051044,-0.15968,0.00012853,-0.0043507,-0.12389,-0.032635,0.001957,0.040001,-0.021686,0.18442,0.17897,0.0016838,-0.0056722,0.010031,0.011425
0.022324,-0.015804,0.023605,0.0067025,-0.001515,0.023872,-0.06853,0.010028,0.009598,0.045945,-0.16928,0.0027365,-0.0033622,-0.10299,-0.025871,0.007089,0.038126,-0.03255,0.14228,0.18904,-0.0044249,-0.00096232,0.015902,0.017411
0.025698,-0.019295,0.031794,0.0077493,0.0038151,0.025814,-0.10289,0.0076066,0.015587,0.041823,-0.16938,0.0028663,0.00038415,-0.08373,-0.01803,0.011569,0.040574,-0.037449,0.11129,0.19965,-0.0091803,-0.00045224,0.016909,0.01727
0.029043,-0.019851,0.03548,0.0084799,0.011435,0.028568,-0.14282,0.0043118,0.01892,0.041173,-0.16019,0.00059089,0.0049007,-0.068506,-0.0058514,0.012046,0.045793,-0.037988,0.096444,0.209,-0.0098876,-0.0048014,0.010819,0.011693
0.031052,-0.018354,0.031809,0.0077692,0.015394,0.026826,-0.18913,0.0014744,0.018502,0.043495,-0.14705,-0.0018864,0.0072687,-0.057066,0.010503,0.0088402,0.049561,-0.03822,0.09585,0.21495,-0.0063162,-0.010923,0.00044023,0.004817
0.031145,-0.017433,0.022448,0.0051771,0.012949,0.019163,-0.23634,-0.0001307,0.015733,0.04537,-0.1358,-0.0023971,0.0063616,-0.047327,0.027688,0.0052828,0.048761,-0.041362,0.10395,0.21639,-0.00082552,-0.014156,-0.0083976,0.00035555
0.029544,-0.01939,0.012498,0.0014268,0.0066132,0.0086741,-0.2745,-0.0010138,0.01313,0.042896,-0.12893,-0.00062728,0.0036488,-0.0376,0.041617,0.0042171,0.043989,-0.047485,0.11606,0.21405,0.0033843,-0.01214,-0.011242,-0.0011716
0.026888,-0.024422,0.0068206,-0.0020588,0.0018169,-9.6509e-006,-0.29474,-0.0023466,0.011935,0.034763,-0.12515,0.0018425,0.0014159,-0.028233,0.050001,0.0051561,0.03868,-0.054088,0.12961,0.21003,0.0046078,-0.0069184,-0.0080762,-0.0017879
0.02374,-0.030533,0.0066756,-0.0041892,0.0023425,-0.0045222,-0.29467,-0.004502,0.01092,0.023503,-0.12165,0.0029388,0.00040852,-0.021291,0.053274,0.0048412,0.035741,-0.058853,0.14212,0.20651,0.0037632,-0.0032179,-0.0026587,-0.0031138
0.020337,-0.035053,0.0093278,-0.0049252,0.0074982,-0.0061551,-0.27969,-0.0063064,0.0076836,0.013791,-0.11637,0.0015332,-0.00063703,-0.018634,0.053772,0.00054041,0.035017,-0.061883,0.14956,0.20455,0.0034234,-0.0044046,0.00085444,-0.0044175
0.016776,-0.036442,0.010794,-0.0050958,0.013265,-0.0079839,-0.2595,-0.0059991,0.0013663,0.0090287,-0.10829,-0.0020964,-0.0032482,-0.020139,0.054249,-0.0072046,0.033978,-0.065279,0.14822,0.20384,0.0055077,-0.0097609,0.00086516,-0.0037041
0.013482,-0.035059,0.0092801,-0.0055745,0.016034,-0.011781,-0.24225,-0.0031471,-0.0057865,0.0088996,-0.096628,-0.0067248,-0.0072976,-0.023633,0.056784,-0.014993,0.030816,-0.070434,0.13827,0.20317,0.0094861,-0.015492,-0.0014479,-0.00055641
0.011491,-0.032568,0.0064232,-0.006647,0.015375,-0.016623,-0.23042,0.00041614,-0.0097575,0.0098498,-0.080482,-0.010905,-0.011047,-0.026573,0.062336,-0.019561,0.026733,-0.075646,0.1248,0.20118,0.01257,-0.018324,-0.0041524,0.0025337
0.012109,-0.030686,0.0054612,-0.0081042,0.013493,-0.020247,-0.22079,0.0018199,-0.0080808,0.0081251,-0.059844,-0.013521,-0.013085,-0.028053,0.070717,-0.020332,0.025036,-0.076439,0.11386,0.19699,0.011785,-0.01819,-0.0064055,0.0021303
0.015915,-0.030199,0.0081086,-0.0097457,0.012335,-0.021587,-0.2078,-0.00035599,-0.0022529,0.0029556,-0.036349,-0.01415,-0.013975,-0.029461,0.080761,-0.019171,0.027808,-0.068582,0.10665,0.1904,0.0063191,-0.01759,-0.0083739,-0.0025813
0.021785,-0.030731,0.012875,-0.011539,0.011477,-0.021934,-0.18792,-0.0046599,0.0030827,-0.0026481,-0.01237,-0.013252,-0.01571,-0.033274,0.090742,-0.017951,0.03343,-0.051443,0.097299,0.18192,-0.0016694,-0.018513,-0.0098317,-0.0082641
0.026882,-0.031191,0.016196,-0.013186,0.0089211,-0.023712,-0.16186,-0.007929,0.0037143,-0.0041373,0.01112,-0.011999,-0.019395,-0.041033,0.098948,-0.016665,0.037462,-0.028986,0.077197,0.17249,-0.0083455,-0.020169,-0.0095022,-0.0098609
0.02806,-0.030536,0.015331,-0.013751,0.0038589,-0.028205,-0.1337,-0.0081423,-0.00074915,0.001031,0.035554,-0.011589,-0.023575,-0.05214,0.1041,-0.014035,0.036209,-0.0076568,0.042254,0.16282,-0.010557,-0.019808,-0.0062503,-0.0050841
0.023983,-0.028486,0.0106,-0.012135,-0.0016215,-0.03445,-0.10795,-0.0063675,-0.0065731,0.011308,0.062929,-0.012392,-0.025155,-0.064426,0.10537,-0.0097744,0.029719,0.0071752,-0.0033195,0.1529,-0.0075403,-0.015764,-0.00093305,0.0031585
0.016429,-0.025812,0.0051741,-0.0082861,-0.0038393,-0.040185,-0.086948,-0.0059023,-0.0089785,0.02205,0.092375,-0.013628,-0.022274,-0.075853,0.10222,-0.0058175,0.02148,0.013625,-0.050283,0.14206,-0.00097821,-0.0096448,0.0033749,0.0088512
0.009494,-0.023902,0.0026619,-0.0039249,-0.0007683,-0.043755,-0.070396,-0.0092612,-0.0060603,0.028809,0.1186,-0.013998,-0.016482,-0.085758,0.094547,-0.0049427,0.015194,0.013052,-0.091719,0.12994,0.0062607,-0.0054087,0.0035886,0.0078191
0.0068999,-0.023736,0.0044388,-0.0017065,0.0058865,-0.045096,-0.056961,-0.015694,-0.00033474,0.030309,0.13448,-0.01282,-0.012007,-0.09447,0.083366,-0.0080176,0.01167,0.0078386,-0.12774,0.1174,0.011622,-0.0060664,-0.00058536,0.0012068
0.0092249,-0.024938,0.0087628,-0.0032031,0.011892,-0.045134,-0.046064,-0.021522,0.003276,0.028787,0.13627,-0.010689,-0.012547,-0.10167,0.071239,-0.012732,0.0086671,-0.00076167,-0.16346,0.10656,0.013792,-0.011021,-0.0060855,-0.005563
0.01326,-0.025779,0.012243,-0.0074821,0.013998,-0.044556,-0.038157,-0.023091,0.0013048,0.02755,0.12688,-0.0090615,-0.018303,-0.10522,0.061676,-0.015338,0.0035997,-0.012998,-0.20256,0.099434,0.012962,-0.016449,-0.0090519,-0.0073414
0.014255,-0.024369,0.012422,-0.01177,0.012588,-0.043335,-0.03333,-0.019807,-0.0056251,0.027939,0.11393,-0.0091331,-0.025745,-0.10185,0.057303,-0.01395,-0.0037049,-0.029259,-0.24299,0.096292,0.010643,-0.018378,-0.0082637,-0.0032671
0.0095359,-0.02018,0.0095053,-0.01377,0.011063,-0.041311,-0.029897,-0.014643,-0.013309,0.028387,0.10401,-0.01101,-0.030234,-0.0896,0.058046,-0.010292,-0.010952,-0.048585,-0.2791,0.095168,0.0090765,-0.01576,-0.0061275,0.003095
0.00069031,-0.014556,0.006042,-0.013509,0.012557,-0.038876,-0.024712,-0.011704,-0.017002,0.026382,0.098163,-0.01378,-0.029205,-0.069913,0.060961,-0.0081962,-0.016056,-0.068663,-0.30789,0.093251,0.010151,-0.011028,-0.0061445,0.0071865
-0.0074781,-0.00966,0.0049482,-0.012914,0.01702,-0.036781,-0.015227,-0.012935,-0.014586,0.021507,0.092606,-0.016234,-0.02343,-0.047352,0.062298,-0.010161,-0.019776,-0.087367,-0.3327,0.089025,0.014177,-0.0078963,-0.0092882,0.0070847
-0.010455,-0.0067329,0.0073808,-0.013576,0.021333,-0.035243,-0.0015062,-0.01669,-0.0076619,0.01661,0.084156,-0.017522,-0.015764,-0.026921,0.060387,-0.015101,-0.025447,-0.10419,-0.35938,0.083312,0.019422,-0.0084307,-0.012928,0.0042072
-0.0071905,-0.0052742,0.011927,-0.014989,0.022301,-0.033461,0.013797,-0.019274,-9.6417e-005,0.015768,0.075205,-0.017365,-0.0089146,-0.011004,0.05699,-0.019285,-0.035673,-0.11988,-0.38702,0.078261,0.023111,-0.011705,-0.013491,0.0010239
-0.00049178,-0.003888,0.015582,-0.015124,0.019717,-0.030251,0.027595,-0.018058,0.0046151,0.020698,0.073422,-0.01606,-0.0041846,0.0015169,0.055799,-0.019563,-0.048943,-0.13451,-0.40138,0.075166,0.023432,-0.014803,-0.010299,-0.0015328
0.0054301,-0.0019017,0.015806,-0.012775,0.016644,-0.025239,0.038803,-0.013605,0.0053091,0.028861,0.086076,-0.01448,-0.0017791,0.013368,0.059159,-0.016002,-0.059446,-0.14594,-0.37845,0.073122,0.021001,-0.015049,-0.0066976,-0.0043749
0.0079954,-0.00010257,0.012305,-0.0091912,0.016647,-0.019331,0.048941,-0.0091531,0.0033414,0.035215,0.11385,-0.013892,-0.0016644,0.026063,0.065715,-0.011703,-0.060697,-0.15072,-0.29824,0.06973,0.01837,-0.01175,-0.007129,-0.0083083
0.0074352,0.00012896,0.0073275,-0.0071938,0.02057,-0.013887,0.060542,-0.0080123,0.0012613,0.036282,0.1496,-0.015191,-0.0037474,0.038761,0.071018,-0.010101,-0.050131,-0.14708,-0.16032,0.063272,0.017837,-0.0064668,-0.012805,-0.012216
0.0056004,-0.0016498,0.0041676,-0.0085281,0.025804,-0.0094459,0.074957,-0.011049,0.0010898,0.03301,0.18321,-0.017866,-0.0072716,0.049629,0.070637,-0.012127,-0.030985,-0.13728,0.010329,0.054408,0.019435,-0.0019533,-0.020108,-0.013549
0.0039578,-0.0043453,0.0047737,-0.012123,0.028652,-0.0053936,0.091526,-0.016221,0.0032742,0.029846,0.2084,-0.019721,-0.010452,0.058074,0.063248,-0.015599,-0.01009,-0.12684,0.17227,0.045831,0.020958,-0.000567,-0.023415,-0.01081
0.0026503,-0.0062505,0.0081986,-0.015062,0.027506,-0.00097017,0.10862,-0.02037,0.0067027,0.030809,0.22587,-0.018203,-0.011221,0.065382,0.051259,-0.017209,0.006413,-0.12082,0.28661,0.04006,0.020089,-0.0029122,-0.019924,-0.0055101
0.0010526,-0.0065172,0.011256,-0.015363,0.023919,0.0034478,0.12535,-0.021662,0.0094609,0.036056,0.24044,-0.012695,-0.0087093,0.073072,0.038703,-0.015364,0.016106,-0.11999,0.33424,0.03712,0.01664,-0.0073259,-0.012167,-0.0014296
-0.0012436,-0.0057295,0.011166,-0.013805,0.020823,0.0062916,0.14229,-0.020706,0.0097583,0.041932,0.2551,-0.0058086,-0.0040952,0.080701,0.0284,-0.011504,0.020325,-0.12029,0.3212,0.034084,0.012741,-0.010589,-0.0059424,-0.0015617
-0.0041413,-0.0051417,0.0081701,-0.013043,0.019823,0.0062721,0.16064,-0.019638,0.0066413,0.044345,0.26743,-0.0020667,0.00010609,0.085572,0.020704,-0.0088664,0.022122,-0.11575,0.27041,0.027044,0.010753,-0.0097641,-0.0054683,-0.0055027
-0.0074306,-0.0054789,0.0057483,-0.014916,0.020142,0.0040535,0.18068,-0.020201,0.00038956,0.042303,0.27127,-0.0045578,0.0018073,0.084971,0.014516,-0.0097635,0.024247,-0.1024,0.20657,0.014139,0.010909,-0.0042162,-0.0099253,-0.0097896
-0.011013,-0.0064693,0.0078545,-0.018624,0.0199,0.0023849,0.20074,-0.022519,-0.0074384,0.038475,0.26206,-0.012192,0.000647,0.078999,0.0091182,-0.013697,0.028281,-0.0802,0.1439,-0.0027083,0.011054,0.0036572,-0.014275,-0.010997
-0.014529,-0.0073631,0.015252,-0.021462,0.018082,0.004252,0.2175,-0.025386,-0.01443,0.036455,0.24139,-0.020054,-0.0022378,0.071308,0.0048904,-0.017909,0.034485,-0.051931,0.082978,-0.018868,0.0088372,0.0098881,-0.013572,-0.0087729
-0.016977,-0.0077023,0.02421,-0.021262,0.015224,0.010463,0.22756,-0.027473,-0.018269,0.037354,0.21721,-0.02285,-0.0055416,0.066854,0.0023352,-0.019876,0.041609,-0.020996,0.017052,-0.030295,0.0042683,0.011786,-0.0071475,-0.0059713
-0.017162,-0.0075538,0.029068,-0.01818,0.012479,0.018758,0.22926,-0.028181,-0.0179,0.038844,0.19985,-0.018756,-0.00881,0.068465,0.00070416,-0.019534,0.046882,0.0098059,-0.05736,-0.036594,6.4135e-005,0.0099443,0.00074466,-0.0057843
-0.014826,-0.0071743,0.026806,-0.014297,0.010488,0.025351,0.22391,-0.027597,-0.014199,0.037409,0.19659,-0.010584,-0.012205,0.075063,-0.0019973,-0.019189,0.047091,0.038113,-0.13256,-0.041394,-0.00073474,0.0075779,0.0042521,-0.00865
-0.011308,-0.0066775,0.019718,-0.011733,0.0092879,0.027753,0.21536,-0.026044,-0.0095408,0.031684,0.20811,-0.0034712,-0.015461,0.082908,-0.0072581,-0.021142,0.04078,0.061743,-0.19029,-0.049614,0.0022537,0.0075942,0.00053852,-0.011952
-0.0088208,-0.0060962,0.013684,-0.011189,0.0090038,0.026595,0.20788,-0.024008,-0.0063732,0.023874,0.22832,-0.0011246,-0.017327,0.088627,-0.014173,-0.025192,0.029971,0.07942,-0.21195,-0.063726,0.0060099,0.0099536,-0.0079287,-0.012771
-0.0088483,-0.0056289,0.013333,-0.012098,0.010045,0.024928,0.20354,-0.022455,-0.0057019,0.018037,0.24724,-0.0036206,-0.016261,0.091442,-0.019543,-0.028415,0.01945,0.091789,-0.193,-0.082061,0.0064667,0.011768,-0.015133,-0.010892
-0.011157,-0.0056185,0.018179,-0.013758,0.012309,0.025572,0.20078,-0.02274,-0.0066099,0.016755,0.25557,-0.0081331,-0.011817,0.092934,-0.020398,-0.027576,0.013464,0.10105,-0.15124,-0.10045,0.0019756,0.0101,-0.015906,-0.0089795
-0.01432,-0.0061988,0.023054,-0.015961,0.014439,0.028733,0.19564,-0.025664,-0.0071489,0.01903,0.24916,-0.0115,-0.0053977,0.094879,-0.016934,-0.022082,0.012287,0.10887,-0.12091,-0.11565,-0.0051661,0.0048376,-0.0096137,-0.0097167
-0.017052,-0.007038,0.022487,-0.018443,0.014462,0.031908,0.18511,-0.030305,-0.0058721,0.021163,0.23128,-0.012375,0.00041302,0.097309,-0.013,-0.014801,0.01177,0.11426,-0.13381,-0.12751,-0.0105,-0.001106,-0.00043897,-0.012849
-0.018873,-0.0075656,0.015249,-0.02002,0.011635,0.032091,0.17005,-0.033986,-0.0028061,0.019826,0.21108,-0.011556,0.0034676,0.098547,-0.013261,-0.0099821,0.0066516,0.11409,-0.19911,-0.13803,-0.01098,-0.0044641,0.0057906,-0.015301
-0.019583,-0.0075139,0.0053109,-0.018816,0.0076334,0.028303,0.15508,-0.033906,0.00078639,0.014759,0.19856,-0.010787,0.0033387,0.097102,-0.019278,-0.010072,-0.0050126,0.10613,-0.29661,-0.14857,-0.0073028,-0.0045835,0.0057144,-0.01441
-0.018555,-0.0071893,-0.0014168,-0.013888,0.0054798,0.022153,0.14527,-0.029333,0.0034555,0.0089362,0.19857,-0.01135,0.0013122,0.093575,-0.028106,-0.014103,-0.020208,0.092253,-0.38906,-0.15807,-0.0030898,-0.0038589,0.0004296,-0.011008
-0.015127,-0.0071288,-0.0016277,-0.0068686,0.0068115,0.016022,0.14223,-0.022406,0.0044559,0.0061701,0.20785,-0.013459,-0.00077584,0.090652,-0.03498,-0.018767,-0.033611,0.078295,-0.44498,-0.16407,-0.0017317,-0.0053037,-0.0058965,-0.0090513
-0.0099299,-0.0074775,0.0032643,-0.0017434,0.010081,0.010749,0.14299,-0.016649,0.0038667,0.0082095,0.21732,-0.016518,-0.0018442,0.090924,-0.037861,-0.020933,-0.042053,0.070478,-0.45539,-0.16536,-0.0036188,-0.0096966,-0.0094258,-0.01187
-0.0054897,-0.0077599,0.0088327,-0.0022813,0.011705,0.0051835,0.14262,-0.01439,0.0021377,0.013672,0.21837,-0.019697,-0.0019982,0.09437,-0.039709,-0.019471,-0.046609,0.071425,-0.43321,-0.16341,-0.0060269,-0.01506,-0.0093246,-0.018629
-0.0048365,-0.0073265,0.011346,-0.0088853,0.0093851,-0.0019197,0.13841,-0.015324,-0.00030129,0.019462,0.20879,-0.022298,-0.0018833,0.097913,-0.046203,-0.015326,-0.050453,0.079603,-0.39841,-0.16103,-0.0056326,-0.01885,-0.0078118,-0.024566
-0.0089014,-0.0060192,0.01033,-0.01759,0.0044746,-0.0097288,0.13179,-0.017437,-0.0030299,0.023226,0.19408,-0.023829,-0.001672,0.0979,-0.06081,-0.01053,-0.054796,0.092558,-0.3623,-0.15968,-0.0014886,-0.020574,-0.0078851,-0.02503
-0.015153,-0.0043481,0.0082098,-0.022497,0.00097016,-0.015419,0.12642,-0.019229,-0.0054775,0.024724,0.18315,-0.023998,-0.00068392,0.093665,-0.081544,-0.0072984,-0.057162,0.11039,-0.32333,-0.15818,0.0039937,-0.022209,-0.010766,-0.019613
-0.019163,-0.0029971,0.0078373,-0.020071,0.0018675,-0.016804,0.12453,-0.020993,-0.0070348,0.025225,0.18137,-0.02279,0.0019378,0.089031,-0.10229,-0.0075268,-0.053871,0.13561,-0.27484,-0.15435,0.0068331,-0.026002,-0.015079,-0.012534
-0.018128,-0.0022167,0.01016,-0.011907,0.0063135,-0.014982,0.12476,-0.023906,-0.0074486,0.025892,0.18633,-0.020604,0.0060674,0.089952,-0.11748,-0.012132,-0.044287,0.16932,-0.21557,-0.1479,0.0046237,-0.031794,-0.018191,-0.0089201
-0.013306,-0.0017748,0.013779,-0.0035751,0.010374,-0.014055,0.12346,-0.027977,-0.0070567,0.026848,0.18946,-0.018248,0.010078,0.099774,-0.12603,-0.020026,-0.032436,0.20781,-0.1524,-0.14162,-0.0014032,-0.036484,-0.018412,-0.010436
-0.0090675,-0.0014844,0.016356,-0.00036415,0.010809,-0.017725,0.11775,-0.031132,-0.0065096,0.027616,0.1826,-0.016632,0.011649,0.11588,-0.13155,-0.027668,-0.024089,0.24368,-0.094231,-0.13953,-0.0070279,-0.036237,-0.016192,-0.014193
-0.0092113,-0.0016322,0.016464,-0.0033786,0.0082683,-0.025769,0.1074,-0.03066,-0.0062014,0.028091,0.16481,-0.016261,0.0094182,0.13065,-0.13904,-0.030381,-0.021917,0.27114,-0.043892,-0.14364,-0.0080251,-0.029579,-0.013454,-0.015707
-0.01375,-0.002719,0.014426,-0.0091582,0.0067403,-0.033852,0.093879,-0.025857,-0.0060029,0.028751,0.14411,-0.016832,0.0041638,0.13615,-0.15118,-0.025258,-0.023372,0.29064,0.0034151,-0.15222,-0.0033506,-0.018756,-0.011763,-0.012972
-0.019014,-0.0047433,0.011735,-0.012952,0.0096253,-0.037093,0.07805,-0.019297,-0.0055804,0.029838,0.13262,-0.017318,-0.0015693,0.12882,-0.16703,-0.013599,-0.023442,0.30799,0.053792,-0.16124,0.0038675,-0.0082833,-0.010975,-0.0079063
-0.020956,-0.0068889,0.0097983,-0.012678,0.016122,-0.034268,0.059233,-0.015209,-0.004914,0.03055,0.13844,-0.016591,-0.005171,0.11076,-0.18322,-0.00059204,-0.019741,0.32808,0.10657,-0.16728,0.0084428,-0.0019035,-0.0095294,-0.0041476
-0.018651,-0.008128,0.0091166,-0.010202,0.021508,-0.028894,0.036579,-0.016112,-0.0043894,0.029433,0.16007,-0.014211,-0.0056375,0.087145,-0.1961,0.0079695,-0.015098,0.34867,0.15182,-0.16944,0.0069507,-0.00033813,-0.0061425,-0.0036244
-0.014832,-0.0082186,0.0094357,-0.0091163,0.021333,-0.026359,0.011161,-0.020601,-0.004347,0.02585,0.18751,-0.010835,-0.0038784,0.062632,-0.20303,0.0095357,-0.01514,0.35967,0.17526,-0.16871,0.00040898,-0.0014008,-0.0014094,-0.0052213
-0.013087,-0.0079908,0.010444,-0.011279,0.015803,-0.029816,-0.013888,-0.02436,-0.0046393,0.021099,0.20881,-0.0078924,-0.0015421,0.040046,-0.20302,0.0061324,-0.023056,0.3488,0.16583,-0.16615,-0.0063576,-0.0021206,0.0021804,-0.006551
-0.014428,-0.0084496,0.01213,-0.015228,0.010221,-0.038395,-0.035873,-0.02365,-0.0047529,0.017824,0.21698,-0.0067492,0.00047858,0.021611,-0.19703,0.0022432,-0.036371,0.30891,0.11999,-0.16172,-0.0083527,-0.0010633,0.0020115,-0.0067255
-0.016476,-0.0095123,0.014394,-0.017663,0.010775,-0.048858,-0.055385,-0.01826,-0.0043592,0.017956,0.21234,-0.0079426,0.0025394,0.010444,-0.18819,0.0012652,-0.048699,0.2412,0.040984,-0.15498,-0.0042819,0.00092662,-0.002466,-0.0072037
-0.015973,-0.0097622,0.016449,-0.016439,0.019228,-0.058635,-0.07639,-0.011345,-0.0036043,0.020973,0.19928,-0.010962,0.005462,0.0098648,-0.18094,0.0035913,-0.054889,0.1527,-0.063585,-0.14651,0.0024214,0.0019688,-0.0089744,-0.009931
-0.012145,-0.0076961,0.01693,-0.012405,0.031187,-0.067361,-0.10278,-0.0064157,-0.0027571,0.024162,0.18127,-0.014591,0.0094054,0.020821,-0.17862,0.0075665,-0.055044,0.051156,-0.18178,-0.13836,0.0062888,0.0011827,-0.013835,-0.014812
-0.0076628,-0.0033846,0.01492,-0.0086799,0.039557,-0.075858,-0.1342,-0.0043324,-0.0016819,0.024844,0.15861,-0.017479,0.013548,0.040099,-0.1807,0.011811,-0.054034,-0.057968,-0.29537,-0.13283,0.0040892,-0.00028277,-0.014534,-0.019212
-0.0062565,0.0011373,0.010951,-0.0081898,0.040162,-0.08413,-0.16513,-0.0030925,6.3271e-005,0.022656,0.13048,-0.018619,0.01686,0.061624,-0.18204,0.016402,-0.057195,-0.17102,-0.3807,-0.13086,-0.0027319,-0.00016175,-0.011404,-0.020081
-0.0092587,0.0033244,0.0067741,-0.011546,0.034634,-0.090564,-0.1887,-0.00045414,0.0023997,0.019845,0.098522,-0.017627,0.019169,0.080171,-0.17534,0.021942,-0.066079,-0.28426,-0.41673,-0.13137,-0.0093206,0.0028147,-0.0071166,-0.016634
-0.014296,0.0021812,0.0038449,-0.01677,0.028148,-0.093116,-0.20246,0.0033511,0.0040907,0.019269,0.067951,-0.014846,0.02147,0.094385,-0.15572,0.027891,-0.077728,-0.39354,-0.3985,-0.13235,-0.011245,0.0074733,-0.0045348,-0.01098
-0.0173,-0.00099718,0.0019432,-0.020804,0.024278,-0.091165,-0.21097,0.0056351,0.0033126,0.021856,0.044628,-0.011182,0.02513,0.10648,-0.12394,0.032214,-0.087682,-0.4958,-0.34674,-0.13254,-0.0077753,0.010847,-0.0047397,-0.006178
-0.015933,-0.0039173,-0.00052525,-0.021501,0.021743,-0.086226,-0.22274,0.0040577,-0.00068341,0.025796,0.030691,-0.0076048,0.030602,0.11909,-0.085967,0.032884,-0.09377,-0.59026,-0.30342,-0.13235,-0.0021404,0.010571,-0.006735,-0.0037254
-0.011352,-0.0053659,-0.004637,-0.018767,0.015919,-0.080874,-0.24351,-0.00060789,-0.0062469,0.028219,0.022888,-0.0045298,0.036673,0.13227,-0.048969,0.02972,-0.097445,-0.67717,-0.31095,-0.13325,0.0012037,0.0070471,-0.0087195,-0.0028938
-0.0069366,-0.0060681,-0.0093937,-0.014326,0.0035321,-0.076893,-0.27147,-0.0046448,-0.0098385,0.027827,0.015322,-0.0015756,0.040899,0.14332,-0.016731,0.024655,-0.10187,-0.75498,-0.38596,-0.13617,-3.4806e-005,0.0034126,-0.009541,-0.0023191
-0.0053741,-0.0075718,-0.012365,-0.010552,-0.01381,-0.074177,-0.29835,-0.0044978,-0.00842,0.026093,0.0042404,0.0019741,0.040993,0.1493,0.01209,0.020101,-0.10881,-0.81872,-0.50611,-0.14056,-0.0045167,0.0031736,-0.0091006,-0.001903
-0.0067339,-0.010405,-0.012207,-0.0091845,-0.030337,-0.071078,-0.31538,0.00014804,-0.0020101,0.025879,-0.009441,0.0062916,0.036309,0.14955,0.041718,0.017017,-0.11708,-0.86155,-0.62225,-0.14481,-0.0086128,0.0074692,-0.0077515,-0.002895
-0.0089764,-0.013458,-0.010555,-0.010563,-0.040232,-0.065665,-0.31909,0.0062679,0.0057656,0.028654,-0.022035,0.010511,0.02842,0.14573,0.074736,0.014501,-0.12364,-0.87818,-0.69038,-0.14769,-0.0092652,0.014346,-0.0056992,-0.0061173
-0.010021,-0.015214,-0.011015,-0.013588,-0.041484,-0.056917,-0.31239,0.010338,0.0099247,0.032828,-0.031379,0.013192,0.020316,0.13951,0.10872,0.011146,-0.12604,-0.86731,-0.70119,-0.14951,-0.0061258,0.020645,-0.0031008,-0.010416
-0.0093218,-0.015456,-0.015811,-0.016309,-0.036506,-0.045282,-0.30076,0.011175,0.0077519,0.034822,-0.039244,0.013438,0.014655,0.13018,0.13662,0.0065723,-0.12377,-0.83088,-0.68404,-0.15169,-0.0015362,0.024701,-0.00049131,-0.013245
-0.0077403,-0.015553,-0.02321,-0.0169,-0.029644,-0.032607,-0.2876,0.010046,0.0010661,0.032034,-0.04947,0.011666,0.012174,0.11483,0.1509,0.0015673,-0.11763,-0.77149,-0.68102,-0.15491,0.001349,0.027292,0.0013253,-0.012978
-0.0062535,-0.016975,-0.028546,-0.014626,-0.024144,-0.021581,-0.27325,0.0083525,-0.0048462,0.025164,-0.063617,0.009239,0.011389,0.091107,0.14871,-0.0031522,-0.10809,-0.69058,-0.7109,-0.15755,0.00072557,0.030067,0.0020687,-0.010545
-0.0050046,-0.01964,-0.028294,-0.010322,-0.0209,-0.014708,-0.2578,0.0057619,-0.0051444,0.017798,-0.07843,0.0072006,0.0098101,0.060419,0.1345,-0.0079304,-0.094534,-0.58924,-0.75193,-0.1559,-0.0029249,0.033233,0.0025512,-0.0085851
-0.0035237,-0.021996,-0.023539,-0.0060186,-0.019219,-0.012982,-0.2443,0.00098062,0.00068031,0.013562,-0.087754,0.0052193,0.0058503,0.02859,0.11833,-0.01361,-0.076235,-0.47055,-0.75815,-0.14643,-0.0075259,0.035079,0.0040761,-0.0088545
-0.0016085,-0.022884,-0.019398,-0.0037697,-0.018137,-0.015006,-0.23842,-0.0057776,0.0081411,0.013265,-0.087347,0.0017887,2.6136e-005,0.0031977,0.11077,-0.019963,-0.054235,-0.34101,-0.69577,-0.1284,-0.01095,0.034029,0.0069482,-0.010562
0.00025544,-0.023187,-0.020653,-0.0043685,-0.017007,-0.017455,-0.24433,-0.01171,0.011162,0.014435,-0.078272,-0.0043448,-0.0054041,-0.010662,0.11766,-0.025042,-0.031966,-0.20992,-0.56975,-0.10484,-0.012265,0.031093,0.0095948,-0.01138
0.0013945,-0.025253,-0.027475,-0.0068396,-0.015411,-0.017005,-0.26077,-0.013436,0.0070218,0.013528,-0.065875,-0.012665,-0.0080824,-0.013152,0.13789,-0.026598,-0.01368,-0.087126,-0.41902,-0.080993,-0.012,0.029875,0.0095305,-0.010124
0.001744,-0.030377,-0.035186,-0.0091334,-0.01317,-0.012548,-0.28133,-0.010333,-0.0012531,0.0087763,-0.055414,-0.020631,-0.0072761,-0.0091403,0.165,-0.024445,-0.001713,0.019182,-0.28531,-0.061221,-0.011502,0.03361,0.0056546,-0.0082793
0.0020178,-0.036836,-0.038367,-0.0095698,-0.010714,-0.0058868,-0.29917,-0.0056643,-0.0072567,0.0012414,-0.048353,-0.025109,-0.0044891,-0.0049318,0.19119,-0.021297,0.0051025,0.10376,-0.18169,-0.04677,-0.011927,0.041833,-0.000189,-0.0087086
0.0030604,-0.0408,-0.035573,-0.0079749,-0.0091531,-0.00012235,-0.31242,-0.0039423,-0.0064866,-0.006544,-0.042435,-0.024545,-0.0025786,-0.0047503,0.21126,-0.020808,0.010324,0.16491,-0.085054,-0.035635,-0.013454,0.050043,-0.0041688,-0.012771
0.0050776,-0.039685,-0.030438,-0.0056847,-0.009415,0.0031359,-0.32535,-0.0068242,-5.2073e-005,-0.01282,-0.034922,-0.020243,-0.0039852,-0.0093003,0.22466,-0.024328,0.016877,0.20458,0.044459,-0.024368,-0.015163,0.052988,-0.0035928,-0.018778
0.0075152,-0.03489,-0.028297,-0.0044755,-0.010992,0.0053934,-0.34412,-0.011498,0.0064378,-0.017614,-0.02556,-0.015663,-0.0091971,-0.016926,0.23495,-0.02943,0.024689,0.22784,0.23555,-0.01036,-0.015686,0.048622,0.00024482,-0.0234
0.0095997,-0.031088,-0.031511,-0.0052953,-0.011689,0.010208,-0.37074,-0.013202,0.0077964,-0.021861,-0.016449,-0.014136,-0.016391,-0.025951,0.2473,-0.031817,0.0311,0.24099,0.49027,0.0067993,-0.014346,0.038966,0.002066,-0.024677
0.010893,-0.032374,-0.037728,-0.0077297,-0.0091508,0.020167,-0.4001,-0.0094954,0.0035834,-0.025864,-0.0093298,-0.01661,-0.022492,-0.036156,0.26484,-0.029047,0.033646,0.24894,0.78733,0.025272,-0.011999,0.027094,-0.0041004,-0.023667
0.011345,-0.038683,-0.042408,-0.010452,-0.0031169,0.034401,-0.42242,-0.0022415,-0.0019541,-0.028776,-0.0033057,-0.021073,-0.025049,-0.048315,0.28586,-0.022695,0.032614,0.25314,1.0941,0.041851,-0.010785,0.013481,-0.020555,-0.02316
0.011011,-0.045831,-0.043046,-0.012136,0.0037713,0.048768,-0.42875,0.0044028,-0.0040156,-0.029552,0.0045431,-0.024086,-0.023788,-0.062335,0.30349,-0.016931,0.030917,0.2516,1.375,0.053223,-0.012661,-0.004222,-0.043694,-0.024801
0.0099638,-0.049253,-0.041142,-0.012118,0.0077398,0.058662,-0.41494,0.0078112,-0.0014665,-0.028214,0.01625,-0.023256,-0.020781,-0.075562,0.30891,-0.014851,0.0314,0.24115,1.5943,0.057289,-0.017644,-0.027309,-0.065638,-0.027545
0.0085457,-0.048005,-0.040311,-0.010512,0.0069272,0.062153,-0.3813,0.008745,0.0026741,-0.026003,0.030661,-0.018835,-0.019021,-0.082741,0.29645,-0.016005,0.034192,0.22032,1.7212,0.054193,-0.023242,-0.051844,-0.078667,-0.028913
0.007554,-0.045349,-0.042543,-0.0080474,0.0029549,0.060932,-0.32938,0.0096551,0.0045606,-0.024251,0.044029,-0.013366,-0.020305,-0.078045,0.26717,-0.017367,0.03671,0.191,1.7427,0.046482,-0.025854,-0.068968,-0.079485,-0.027719
0.0078818,-0.045434,-0.046281,-0.0058982,-0.00054643,0.058412,-0.25983,0.011451,0.0031813,-0.023132,0.052996,-0.0098096,-0.023938,-0.0583,0.22818,-0.016663,0.036269,0.15777,1.6763,0.03792,-0.023322,-0.07055,-0.070575,-0.02545
0.0097782,-0.049312,-0.048069,-0.0054665,-0.0011915,0.05675,-0.17373,0.012199,0.00085733,-0.021604,0.057219,-0.0096825,-0.027306,-0.02566,0.18756,-0.014754,0.032634,0.12572,1.5688,0.031393,-0.016677,-0.055802,-0.058021,-0.024867
0.012439,-0.054059,-0.046116,-0.0078079,0.00012385,0.055389,-0.076017,0.0091515,0.00043411,-0.018576,0.0594,-0.012509,-0.027896,0.011994,0.14875,-0.014693,0.027868,0.098307,1.4736,0.027276,-0.009566,-0.0329,-0.04758,-0.027177
0.014448,-0.055777,-0.042257,-0.012768,0.00028904,0.052251,0.02292,0.0020784,0.0022503,-0.014155,0.062927,-0.016677,-0.025167,0.043648,0.1087,-0.018361,0.023684,0.076656,1.4216,0.023643,-0.0056351,-0.013711,-0.041751,-0.030583
0.014803,-0.053485,-0.040393,-0.018514,-0.0028958,0.046271,0.10996,-0.0055329,0.0039429,-0.0097456,0.069401,-0.020645,-0.020762,0.059747,0.061261,-0.023994,0.019198,0.060311,1.4048,0.01834,-0.0058977,-0.0057105,-0.039566,-0.031692
0.013627,-0.05013,-0.042769,-0.022239,-0.0084895,0.038785,0.17498,-0.0088969,0.0030911,-0.0069484,0.078036,-0.02344,-0.016987,0.056332,0.0031638,-0.027132,0.011744,0.048482,1.39,0.011254,-0.0081385,-0.0076672,-0.03869,-0.028552
0.011935,-0.049749,-0.047606,-0.021956,-0.013122,0.032392,0.21524,-0.0060196,-0.00015928,-0.0062624,0.086943,-0.024335,-0.015024,0.036196,-0.062459,-0.024325,0.0002527,0.040796,1.3498,0.0046941,-0.008756,-0.012288,-0.037771,-0.02253
0.010621,-0.053491,-0.05036,-0.018132,-0.013927,0.028409,0.23516,0.00020306,-0.0031737,-0.0067419,0.094657,-0.022563,-0.014522,0.0062542,-0.12749,-0.016288,-0.012309,0.037205,1.2878,0.0013721,-0.0054929,-0.012988,-0.037066,-0.017277
0.0095719,-0.058286,-0.047612,-0.013624,-0.010982,0.02548,0.24196,0.0039179,-0.0034355,-0.006833,0.10052,-0.017826,-0.014718,-0.02715,-0.18379,-0.0075674,-0.020398,0.037556,1.2353,0.0017005,0.0010508,-0.008761,-0.037119,-0.015733
0.0077006,-0.059433,-0.040196,-0.011629,-0.0071462,0.02084,0.24125,0.00080718,-0.00096798,-0.0056539,0.10412,-0.011282,-0.015668,-0.061694,-0.22756,-0.0029304,-0.020463,0.041468,1.2255,0.0029787,0.0080442,-0.0034718,-0.03709,-0.017832
0.0039651,-0.054723,-0.032797,-0.013144,-0.0055935,0.01316,0.23584,-0.0085917,0.0018228,-0.0037397,0.10498,-0.0058145,-0.018052,-0.09895,-0.26006,-0.0036378,-0.014384,0.048672,1.2634,0.0014654,0.012385,-0.0012044,-0.034721,-0.020871
-0.0014288,-0.046375,-0.030392,-0.016134,-0.0073137,0.0041681,0.22789,-0.019476,0.0025726,-0.0027914,0.10327,-0.0046729,-0.021699,-0.14113,-0.28503,-0.0068422,-0.0081525,0.059322,1.3181,-0.0043328,0.012428,-0.0024947,-0.028337,-0.022052
-0.0066763,-0.039103,-0.034495,-0.017298,-0.010654,-0.0027299,0.22126,-0.026652,0.0010858,-0.004673,0.10075,-0.0091596,-0.024591,-0.18758,-0.30555,-0.008519,-0.0065921,0.073631,1.3403,-0.01213,0.0085179,-0.0047081,-0.019084,-0.020852
-0.0093602,-0.036132,-0.042195,-0.014979,-0.013027,-0.0056727,0.2209,-0.028315,-0.00094564,-0.010265,0.10043,-0.017239,-0.023907,-0.234,-0.32274,-0.0071659,-0.0089633,0.090798,1.2915,-0.01764,0.0024756,-0.0054626,-0.010982,-0.01916
-0.0082208,-0.036693,-0.04848,-0.010635,-0.013086,-0.0062691,0.22977,-0.026628,-0.0021565,-0.018751,0.10466,-0.024564,-0.018586,-0.27479,-0.3361,-0.0049214,-0.0097981,0.10807,1.1649,-0.018242,-0.0032714,-0.0052438,-0.0081119,-0.01927
-0.0043913,-0.037078,-0.049754,-0.0075451,-0.011481,-0.0081356,0.24614,-0.024959,-0.0031711,-0.027691,0.113,-0.027435,-0.011037,-0.30648,-0.34416,-0.0052199,-0.0043983,0.1212,0.9864,-0.015331,-0.0064843,-0.006634,-0.011085,-0.021663
-0.00096277,-0.034146,-0.045829,-0.0079158,-0.0097838,-0.013201,0.26414,-0.024595,-0.0058505,-0.033975,0.12183,-0.025378,-0.0060365,-0.32925,-0.34448,-0.0092927,0.0061888,0.1268,0.79972,-0.013219,-0.0058197,-0.011242,-0.016098,-0.024561
-0.00092792,-0.028108,-0.039298,-0.011087,-0.0087508,-0.019266,0.27721,-0.023965,-0.010829,-0.03537,0.12641,-0.0212,-0.0073273,-0.34573,-0.33387,-0.014823,0.015595,0.12531,0.64581,-0.015555,-0.0014279,-0.017681,-0.017877,-0.025521
-0.0049289,-0.022236,-0.033275,-0.014407,-0.007602,-0.02134,0.28165,-0.020853,-0.015932,-0.031908,0.12402,-0.018488,-0.014664,-0.35831,-0.31006,-0.017994,0.01773,0.12218,0.54461,-0.022381,0.0048974,-0.022692,-0.014227,-0.02353
-0.010617,-0.019911,-0.029449,-0.015817,-0.0049193,-0.01581,0.27765,-0.0152,-0.017328,-0.026187,0.11573,-0.018747,-0.023797,-0.36729,-0.27435,-0.017018,0.012342,0.12555,0.48472,-0.03034,0.010409,-0.024228,-0.0081258,-0.019804
-0.014324,-0.021687,-0.027687,-0.01559,-0.00029418,-0.0037993,0.26784,-0.0096232,-0.012624,-0.022082,0.10544,-0.02058,-0.02941,-0.37095,-0.23306,-0.013852,0.005379,0.14117,0.42482,-0.035636,0.01281,-0.023365,-0.0052272,-0.016758
-0.013868,-0.024907,-0.027025,-0.015662,0.0048515,0.0092787,0.25548,-0.0071708,-0.0031208,-0.022411,0.097077,-0.021385,-0.028619,-0.367,-0.19531,-0.012512,0.0039254,0.16811,0.30962,-0.037016,0.011554,-0.023154,-0.0088465,-0.016181
-0.010297,-0.026066,-0.026869,-0.017397,0.0081397,0.017637,0.2436,-0.0085618,0.0069052,-0.027058,0.092181,-0.019788,-0.022442,-0.35384,-0.1681,-0.015485,0.010523,0.19892,0.097624,-0.036296,0.0080811,-0.02563,-0.016957,-0.018112
-0.0070978,-0.023745,-0.027352,-0.020098,0.0081852,0.019193,0.23492,-0.011658,0.013331,-0.032987,0.089492,-0.016618,-0.0146,-0.33115,-0.15184,-0.021503,0.021931,0.22466,-0.2116,-0.036421,0.0047254,-0.029972,-0.02396,-0.021067
-0.007464,-0.019579,-0.028646,-0.021679,0.0059822,0.016579,0.231,-0.013609,0.015016,-0.036402,0.086559,-0.01387,-0.0090002,-0.29983,-0.14051,-0.026682,0.032896,0.24127,-0.56812,-0.039184,0.0030636,-0.033558,-0.025576,-0.023091
-0.011819,-0.016608,-0.03001,-0.020689,0.0044502,0.014618,0.2306,-0.013426,0.013994,-0.035591,0.081871,-0.012972,-0.0077895,-0.26196,-0.12648,-0.02798,0.040866,0.25186,-0.89062,-0.044614,0.0029962,-0.034732,-0.022307,-0.022726
-0.017578,-0.016632,-0.02968,-0.017648,0.0063555,0.016645,0.22888,-0.012378,0.013154,-0.032275,0.075944,-0.014089,-0.010808,-0.22063,-0.10626,-0.025812,0.047207,0.26322,-1.106,-0.051985,0.0032649,-0.034386,-0.018413,-0.019457
-0.021283,-0.018941,-0.026046,-0.01449,0.012218,0.022563,0.21942,-0.011944,0.01374,-0.030247,0.070758,-0.01681,-0.016145,-0.17924,-0.082225,-0.023496,0.05438,0.27934,-1.186,-0.060829,0.0028823,-0.034744,-0.017637,-0.013864
-0.021284,-0.02131,-0.01933,-0.012847,0.019897,0.029686,0.19827,-0.011662,0.014851,-0.032181,0.068129,-0.021116,-0.021198,-0.14015,-0.058851,-0.024106,0.062496,0.29772,-1.1568,-0.070688,0.002133,-0.036616,-0.01989,-0.0076956
-0.018789,-0.022102,-0.012216,-0.012876,0.026189,0.035133,0.16716,-0.0094093,0.014972,-0.037179,0.068175,-0.027413,-0.023884,-0.1037,-0.037117,-0.027702,0.068911,0.31152,-1.0744,-0.080135,0.0021946,-0.03803,-0.021917,-0.00356
-0.016517,-0.021479,-0.0084783,-0.013574,0.029076,0.0377,0.13273,-0.0040224,0.013662,-0.04126,0.068914,-0.035644,-0.023705,-0.068394,-0.012422,-0.031465,0.071028,0.31532,-0.98499,-0.086611,0.0037582,-0.03583,-0.020928,-0.0037952
-0.016231,-0.020811,-0.010288,-0.013987,0.028797,0.038072,0.10224,0.0024203,0.011705,-0.040712,0.067312,-0.044563,-0.022053,-0.032423,0.021884,-0.032533,0.069148,0.30935,-0.89702,-0.08775,0.0060445,-0.028838,-0.017437,-0.0087872
-0.017308,-0.021102,-0.016323,-0.014016,0.027007,0.037773,0.079011,0.0053613,0.0098919,-0.03568,0.06119,-0.052086,-0.021265,0.0049651,0.068587,-0.030782,0.066267,0.29874,-0.78367,-0.083071,0.0072887,-0.019474,-0.014556,-0.016038
-0.01753,-0.022015,-0.022423,-0.014221,0.025027,0.037956,0.061369,0.0013755,0.0080833,-0.030822,0.050776,-0.056466,-0.022791,0.043396,0.12381,-0.028919,0.065026,0.2889,-0.60952,-0.074306,0.0063174,-0.012101,-0.014652,-0.021255
-0.015352,-0.022265,-0.024542,-0.015083,0.022917,0.038893,0.045645,-0.0084878,0.0057274,-0.032034,0.038807,-0.05723,-0.025886,0.082601,0.1798,-0.029839,0.06493,0.28167,-0.35824,-0.06395,0.0036802,-0.0094708,-0.016819,-0.021213
-0.011613,-0.020821,-0.021706,-0.016542,0.020116,0.04022,0.030258,-0.018833,0.0031492,-0.041589,0.029001,-0.055106,-0.028117,0.12326,0.2304,-0.033812,0.062673,0.27491,-0.041886,-0.053599,0.0011502,-0.010574,-0.017677,-0.016272
-0.0091294,-0.017759,-0.016529,-0.018083,0.016747,0.041521,0.01711,-0.023737,0.0018893,-0.055683,0.023921,-0.051228,-0.027454,0.16598,0.27409,-0.038218,0.055321,0.26498,0.30986,-0.043913,2.9228e-005,-0.011877,-0.01473,-0.010241
-0.010436,-0.01416,-0.012914,-0.01902,0.014039,0.042773,0.0092069,-0.021165,0.0033351,-0.066738,0.023719,-0.046461,-0.024125,0.20891,0.31211,-0.040048,0.043311,0.24927,0.6667,-0.036309,-4.3907e-005,-0.010714,-0.0090687,-0.0073479
-0.015597,-0.011345,-0.012946,-0.018669,0.013303,0.044379,0.0070075,-0.014341,0.0069092,-0.068956,0.026574,-0.041346,-0.020374,0.24668,0.34438,-0.038743,0.030541,0.22684,1.0068,-0.034311,-0.00052322,-0.0075476,-0.0047994,-0.008788
-0.021983,-0.010117,-0.015606,-0.016561,0.014529,0.046786,0.0070681,-0.0090323,0.0098885,-0.062801,0.030288,-0.036387,-0.018182,0.27246,0.36793,-0.036612,0.021531,0.19806,1.3164,-0.042392,-0.0021732,-0.0049594,-0.0056285,-0.011947
-0.026254,-0.010414,-0.018207,-0.012924,0.016116,0.04993,0.0043762,-0.0091334,0.0094834,-0.054715,0.033649,-0.032092,-0.017113,0.28249,0.37914,-0.0365,0.018195,0.16456,1.5874,-0.062518,-0.0039634,-0.0045362,-0.011519,-0.013077
-0.026876,-0.011414,-0.018976,-0.0091197,0.016157,0.052971,-0.0036524,-0.014163,0.0054498,-0.052169,0.036511,-0.028627,-0.014566,0.27925,0.37719,-0.039008,0.018831,0.12981,1.8179,-0.09124,-0.0039446,-0.0049606,-0.018307,-0.010918
-0.025067,-0.011982,-0.018366,-0.0073313,0.014053,0.054655,-0.015022,-0.020385,0.00068452,-0.057961,0.038842,-0.025516,-0.0084962,0.27024,0.36406,-0.041984,0.019805,0.098635,2.012,-0.12033,-0.0013862,-0.003425,-0.02065,-0.0077823
-0.023522,-0.011361,-0.018067,-0.0092533,0.010932,0.054151,-0.024732,-0.024163,-0.0010213,-0.068259,0.03993,-0.021906,-7.7443e-005,0.2627,0.3407,-0.042673,0.018267,0.075244,2.172,-0.14114,0.0019776,0.00095108,-0.015935,-0.0070444
-0.024179,-0.0097844,-0.018915,-0.014621,0.0085522,0.051669,-0.028762,-0.024575,0.0018109,-0.075813,0.038586,-0.017334,0.006516,0.25851,0.3034,-0.040346,0.013781,0.060894,2.2856,-0.1495,0.0030476,0.0052959,-0.0060946,-0.0095281
-0.027006,-0.0085375,-0.019815,-0.020964,0.00785,0.048158,-0.027174,-0.023357,0.0070925,-0.075538,0.033963,-0.012355,0.0074767,0.25349,0.24525,-0.036841,0.0080265,0.053611,2.3227,-0.14739,9.1093e-006,0.0050314,0.0040016,-0.012459
-0.030554,-0.0091878,-0.018637,-0.025129,0.0084597,0.04415,-0.023842,-0.022841,0.011054,-0.067919,0.025859,-0.0083794,0.0030179,0.24163,0.1631,-0.034614,0.0032124,0.050501,2.2522,-0.14024,-0.005871,-0.001757,0.0101,-0.012139
-0.033346,-0.012355,-0.014172,-0.02551,0.0093134,0.038764,-0.023153,-0.024079,0.011559,-0.05776,0.01407,-0.0066911,-0.0022297,0.22042,0.064256,-0.034325,0.00059843,0.050513,2.0713,-0.1324,-0.011048,-0.0118,0.011171,-0.0077923
-0.03462,-0.016935,-0.0073634,-0.023084,0.0093563,0.029967,-0.026477,-0.026778,0.0098184,-0.049792,-0.0022756,-0.0074027,-0.0028995,0.19268,-0.033644,-0.034342,0.00010254,0.054909,1.8245,-0.12453,-0.012508,-0.018804,0.0091414,-0.0027488
-0.034028,-0.020495,-0.00086239,-0.020324,0.0076315,0.016214,-0.031278,-0.030579,0.0089989,-0.045097,-0.024038,-0.0092204,0.0023325,0.16375,-0.11125,-0.032513,0.0010845,0.065062,1.5916,-0.11456,-0.010163,-0.018824,0.0063491,-0.0016655
-0.031175,-0.020692,0.0026013,-0.018911,0.00313,-0.0017776,-0.033453,-0.035934,0.011116,-0.041272,-0.050146,-0.010287,0.0091732,0.13692,-0.15888,-0.028387,0.0035442,0.080071,1.4465,-0.10075,-0.0068156,-0.0141,0.003235,-0.0062941
-0.025952,-0.016747,0.0017898,-0.018356,-0.004684,-0.0207,-0.030652,-0.043354,0.015148,-0.035721,-0.076506,-0.0094525,0.011053,0.11176,-0.18167,-0.023696,0.0086228,0.096917,1.4156,-0.083775,-0.0058234,-0.011653,-0.0016223,-0.013735
-0.019377,-0.0099462,-0.0024143,-0.01674,-0.014658,-0.03627,-0.023524,-0.051785,0.018071,-0.028781,-0.097972,-0.0069287,0.0047482,0.086358,-0.19431,-0.02075,0.01772,0.11306,1.4657,-0.066342,-0.0085328,-0.017499,-0.0093245,-0.018792
-0.013745,-0.0028859,-0.0074675,-0.01286,-0.023346,-0.045624,-0.0138,-0.058018,0.017753,-0.023734,-0.11307,-0.0038102,-0.0065377,0.061042,-0.2091,-0.020369,0.03066,0.12858,1.5297,-0.05134,-0.013518,-0.031389,-0.018616,-0.018251
-0.011375,0.001982,-0.010408,-0.0077227,-0.02633,-0.048647,-0.0013663,-0.058329,0.014942,-0.023751,-0.12801,-0.00096933,-0.01538,0.039422,-0.22693,-0.021313,0.044433,0.14524,1.5509,-0.040454,-0.01797,-0.046674,-0.026172,-0.013258
-0.012844,0.0035659,-0.0094019,-0.0039522,-0.021119,-0.047359,0.016136,-0.051334,0.012532,-0.028581,-0.1559,0.0016139,-0.015855,0.025572,-0.23809,-0.021568,0.054054,0.1633,1.5127,-0.03429,-0.01984,-0.055497,-0.029136,-0.0078972
-0.016339,0.0024857,-0.0049024,-0.0036388,-0.009466,-0.044169,0.039823,-0.039576,0.012909,-0.03402,-0.21005,0.0044971,-0.007981,0.020027,-0.23164,-0.020107,0.055554,0.17968,1.4357,-0.033184,-0.019007,-0.054926,-0.027588,-0.0055459
-0.018913,0.00050766,0.00038996,-0.0065947,0.0030663,-0.040629,0.065086,-0.028148,0.0159,-0.034706,-0.29501,0.0078739,0.0027279,0.018546,-0.2053,-0.017401,0.049117,0.19015,1.3477,-0.037307,-0.016878,-0.048915,-0.024532,-0.0063823
-0.018606,-0.00050543,0.0030895,-0.010574,0.010331,-0.037532,0.081193,-0.021155,0.019181,-0.027976,-0.40125,0.011162,0.0099875,0.015041,-0.16728,-0.014361,0.039667,0.19397,1.2528,-0.045743,-0.015123,-0.044634,-0.023302,-0.0080001
-0.01563,0.00047475,0.0014128,-0.013184,0.0093214,-0.03572,0.077376,-0.01887,0.02057,-0.015737,-0.50781,0.013576,0.011617,0.0061104,-0.12926,-0.011032,0.033913,0.19605,1.1221,-0.055694,-0.014664,-0.046509,-0.024743,-0.0081123
-0.011802,0.0032914,-0.0034617,-0.013689,0.0016199,-0.036266,0.051782,-0.018039,0.019908,-0.0029925,-0.5919,0.015061,0.010596,-0.0068533,-0.096825,-0.0065672,0.035702,0.20306,0.91191,-0.063128,-0.015444,-0.052981,-0.026759,-0.0066409
-0.0090451,0.0069297,-0.008164,-0.013138,-0.0083097,-0.039486,0.015765,-0.015092,0.018752,0.0056454,-0.64038,0.016525,0.011788,-0.019712,-0.066257,-0.00061234,0.043226,0.21568,0.5943,-0.064909,-0.01675,-0.058432,-0.026604,-0.005461
-0.0084045,0.010217,-0.0095763,-0.012912,-0.016379,-0.043732,-0.011371,-0.0094597,0.018374,0.0088145,-0.65648,0.018982,0.017441,-0.029658,-0.029895,0.005399,0.050313,0.22383,0.17726,-0.06085,-0.017611,-0.058263,-0.023625,-0.0064247
-0.010082,0.012411,-0.0070265,-0.01326,-0.021109,-0.045409,-0.014359,-0.0040993,0.018161,0.008695,-0.65796,0.022407,0.025278,-0.037469,0.015049,0.0087283,0.050823,0.21085,-0.29861,-0.053883,-0.01715,-0.052695,-0.019826,-0.0096841
-0.013808,0.013359,-0.0024858,-0.013269,-0.023516,-0.040821,0.0083508,-0.0028041,0.016088,0.0088684,-0.6674,0.02545,0.030535,-0.046021,0.062542,0.0075997,0.042702,0.16519,-0.78355,-0.047939,-0.01502,-0.046244,-0.017725,-0.013668
-0.018744,0.013329,0.0012428,-0.012139,-0.02539,-0.028725,0.044913,-0.0067785,0.01081,0.011534,-0.69988,0.026356,0.029968,-0.056767,0.10205,0.0032848,0.028742,0.091243,-1.244,-0.045085,-0.011833,-0.043671,-0.017662,-0.016374
-0.023102,0.0128,0.0026553,-0.010309,-0.027787,-0.011698,0.079873,-0.013509,0.0033256,0.016061,-0.75467,0.024292,0.024437,-0.067755,0.12681,-0.00023515,0.014012,0.010152,-1.6706,-0.044141,-0.0091146,-0.046011,-0.017255,-0.016656
-0.024425,0.012412,0.0022227,-0.0091814,-0.030768,0.0049154,0.10496,-0.018816,-0.0034317,0.019685,-0.81551,0.019982,0.018097,-0.075115,0.1382,0.00073398,0.0025501,-0.051221,-2.0635,-0.041798,-0.0084577,-0.049951,-0.013641,-0.014644
-0.020954,0.01293,0.0013536,-0.0096923,-0.033993,0.015949,0.12211,-0.020154,-0.006803,0.019633,-0.85939,0.015324,0.015104,-0.076557,0.14247,0.0062997,-0.0039951,-0.075635,-2.4084,-0.035241,-0.010249,-0.050791,-0.0064769,-0.01139
-0.013215,0.014956,0.00094077,-0.011201,-0.037044,0.019351,0.13731,-0.018346,-0.0064773,0.015165,-0.86905,0.012585,0.016592,-0.073508,0.14335,0.012416,-0.0054418,-0.064108,-2.6633,-0.024092,-0.013052,-0.046289,0.0011734,-0.0083032
-0.0043173,0.018442,0.00091387,-0.011862,-0.039095,0.017141,0.15238,-0.016572,-0.0046581,0.0082711,-0.84216,0.013776,0.020211,-0.069897,0.13799,0.013937,-0.0017222,-0.032333,-2.7726,-0.010233,-0.014429,-0.038233,0.0050978,-0.0065883
0.0016793,0.022404,0.0009372,-0.010212,-0.038613,0.013799,0.16281,-0.017821,-0.0042414,0.0026932,-0.79219,0.020183,0.022306,-0.068797,0.12024,0.0089422,0.0070699,0.0011872,-2.6996,0.0040396,-0.01283,-0.030732,0.0035447,-0.0066747
0.0023178,0.025257,0.0011516,-0.0065281,-0.034048,0.013228,0.16335,-0.022937,-0.006594,0.0018964,-0.74056,0.031649,0.020816,-0.070098,0.088374,0.00061374,0.01949,0.025982,-2.4571,0.017706,-0.0090372,-0.02696,-0.0009207,-0.0078332
-0.0016664,0.025712,0.0019477,-0.0028012,-0.025351,0.016422,0.15513,-0.030436,-0.010736,0.0070624,-0.70475,0.045728,0.016624,-0.07122,0.050041,-0.0051205,0.032377,0.042747,-2.1097,0.031129,-0.0058235,-0.027077,-0.0030742,-0.008481
-0.0069055,0.0236,0.0030093,-0.0013705,-0.014963,0.021367,0.14638,-0.037628,-0.014434,0.016184,-0.68915,0.057704,0.012578,-0.069909,0.019529,-0.0043464,0.042608,0.059168,-1.7444,0.044736,-0.0058943,-0.028724,0.00094578,-0.0073128
-0.0096446,0.019927,0.0028763,-0.0033394,-0.0069501,0.024966,0.14531,-0.041982,-0.016123,0.024878,-0.68377,0.062358,0.011209,-0.066262,0.0091347,0.0016684,0.049857,0.083637,-1.4258,0.057838,-0.0096884,-0.029214,0.010451,-0.0045006
-0.0080298,0.016079,-0.00011868,-0.0078578,-0.0045235,0.025277,0.15154,-0.042092,-0.016024,0.028704,-0.67121,0.056917,0.01301,-0.062124,0.021368,0.007567,0.057639,0.12124,-1.1683,0.068891,-0.014837,-0.027434,0.020496,-0.0017936
-0.0029541,0.012804,-0.0061502,-0.012588,-0.0078021,0.022246,0.15443,-0.038206,-0.015688,0.025816,-0.6371,0.04314,0.016362,-0.058721,0.047953,0.0083012,0.071098,0.17256,-0.94252,0.076992,-0.017764,-0.024084,0.025536,-0.0011587
0.0028642,0.0098449,-0.013079,-0.014942,-0.013776,0.016639,0.14059,-0.032269,-0.01657,0.018202,-0.57735,0.02657,0.018845,-0.055133,0.076074,0.0031222,0.092964,0.23341,-0.71226,0.083003,-0.016203,-0.020531,0.023577,-0.0030385
0.0067389,0.0065064,-0.017579,-0.013427,-0.018616,0.0085858,0.10449,-0.027166,-0.018915,0.01043,-0.49819,0.013082,0.018818,-0.049184,0.096865,-0.0040579,0.12097,0.29502,-0.47226,0.088952,-0.010719,-0.017522,0.017548,-0.0058704
0.007583,0.0026089,-0.017518,-0.008497,-0.020402,-0.0025048,0.053225,-0.025151,-0.021793,0.0065109,-0.41008,0.0052061,0.01623,-0.039803,0.10998,-0.0079915,0.14884,0.3456,-0.25972,0.096077,-0.004205,-0.014776,0.012884,-0.0074359
0.0063463,-0.0010616,-0.013592,-0.0024648,-0.019946,-0.016372,0.0017897,-0.026259,-0.023968,0.0071439,-0.32088,0.0011604,0.012397,-0.02837,0.12163,-0.0061734,0.16993,0.37406,-0.13159,0.10338,0.00011398,-0.011503,0.013423,-0.0068261
0.0052046,-0.0032037,-0.008765,0.0017073,-0.01915,-0.030307,-0.036892,-0.028017,-0.024699,0.0095658,-0.23362,-0.0026871,0.0090759,-0.017646,0.13845,-0.00042679,0.18051,0.37456,-0.12577,0.10835,0.00067148,-0.0072047,0.018908,-0.0051299
0.0060276,-0.0029228,-0.0059788,0.002237,-0.018615,-0.039624,-0.058992,-0.027044,-0.023833,0.010222,-0.14969,-0.0081227,0.0074648,-0.0093716,0.16225,0.0048879,0.18049,0.34865,-0.23416,0.1093,-0.0017564,-0.002116,0.025856,-0.0041715
0.0090414,-0.00032352,-0.0061785,-0.00020536,-0.016873,-0.040555,-0.069129,-0.021635,-0.021449,0.0080141,-0.073715,-0.013432,0.0076719,-0.0029011,0.1893,0.0061866,0.172,0.30372,-0.40551,0.10723,-0.0048951,0.0029301,0.030601,-0.0045728
0.012571,0.0036112,-0.0083147,-0.0029387,-0.011993,-0.033517,-0.074428,-0.013358,-0.017729,0.0052281,-0.014426,-0.015194,0.0089252,0.0038581,0.21397,0.0028262,0.15772,0.24906,-0.57332,0.10496,-0.006593,0.0070567,0.03179,-0.0051154
0.014165,0.0075324,-0.011035,-0.0034047,-0.0039737,-0.023865,-0.079484,-0.0062518,-0.013363,0.0052416,0.02023,-0.011786,0.010341,0.012353,0.23321,-0.0031252,0.14016,0.19252,-0.68886,0.10416,-0.0061355,0.0099845,0.030559,-0.0040809
0.012428,0.010072,-0.014141,-0.0013986,0.0045306,-0.019029,-0.086155,-0.0040406,-0.010042,0.009018,0.030232,-0.0053272,0.011652,0.02235,0.24789,-0.00871,0.12148,0.13913,-0.73946,0.103,-0.0045103,0.012378,0.02891,-0.0012405
0.008237,0.009921,-0.018256,0.00065336,0.010038,-0.023943,-0.096485,-0.0074228,-0.010253,0.013631,0.02654,-0.00021805,0.01327,0.032904,0.26014,-0.011826,0.1029,0.091008,-0.74568,0.09691,-0.0035424,0.015576,0.028179,0.0015174
0.0042959,0.0060513,-0.023185,-7.0016e-005,0.011117,-0.038272,-0.11411,-0.013479,-0.016128,0.01432,0.026467,0.00041017,0.015619,0.044071,0.26906,-0.011899,0.083909,0.047335,-0.74433,0.082302,-0.0044697,0.020713,0.028762,0.0016279
0.0032724,-0.0016089,-0.026973,-0.0038575,0.0097025,-0.057555,-0.14179,-0.017609,-0.027959,0.008437,0.044071,-0.0028551,0.018339,0.057267,0.26917,-0.0096169,0.062578,0.0045526,-0.76915,0.060028,-0.0068826,0.027747,0.03068,-0.0019237
0.0059594,-0.011487,-0.027113,-0.0076714,0.0095581,-0.077124,-0.17767,-0.016462,-0.043456,-0.002093,0.082735,-0.0065227,0.020228,0.073721,0.25369,-0.0063317,0.037628,-0.041882,-0.83697,0.035579,-0.0088031,0.035183,0.033841,-0.007591
0.010903,-0.020558,-0.022985,-0.0076169,0.013094,-0.095365,-0.21478,-0.0097153,-0.058391,-0.011923,0.13567,-0.0074331,0.020112,0.092548,0.2207,-0.0034077,0.010634,-0.094132,-0.94094,0.015643,-0.0079844,0.040914,0.037676,-0.012315
0.015676,-0.025795,-0.017072,-0.0026859,0.019194,-0.11357,-0.24539,0.00033542,-0.068417,-0.016104,0.19346,-0.0054232,0.01799,0.11061,0.17699,-0.0015328,-0.014088,-0.1492,-1.0505,0.0039099,-0.0036125,0.043693,0.040885,-0.013651
0.018609,-0.026049,-0.013344,0.0037753,0.023829,-0.13273,-0.26675,0.010642,-0.071067,-0.01341,0.2519,-0.0030886,0.015384,0.12458,0.13606,-0.00021183,-0.03256,-0.19957,-1.1196,-0.0004206,0.0028465,0.044101,0.042067,-0.011229
0.019544,-0.022852,-0.013987,0.0066031,0.02287,-0.15037,-0.28259,0.019108,-0.066924,-0.0065907,0.31305,-0.0030692,0.014472,0.13347,0.11065,0.0019995,-0.044609,-0.23753,-1.1031,-0.0004874,0.0084131,0.044091,0.040841,-0.0066181
0.019274,-0.019342,-0.017487,0.0033344,0.014793,-0.16075,-0.29866,0.025057,-0.059381,0.00038828,0.37939,-0.0055183,0.016586,0.13918,0.10531,0.0062704,-0.054133,-0.25995,-0.97737,0.0017635,0.010543,0.045329,0.038257,-0.0020742
0.018524,-0.018061,-0.020037,-0.0034168,0.0012559,-0.15858,-0.31607,0.028665,-0.053174,0.0055385,0.44736,-0.0080542,0.021264,0.14464,0.11436,0.012016,-0.065291,-0.26922,-0.75442,0.0071455,0.0088446,0.047638,0.035847,0.00068373
0.0175,-0.019387,-0.01913,-0.0080536,-0.014556,-0.14363,-0.32862,0.030291,-0.05236,0.0097757,0.50811,-0.0080281,0.026598,0.15107,0.12641,0.016572,-0.077918,-0.26949,-0.47783,0.017422,0.0052691,0.048923,0.034158,0.00097538
0.016246,-0.021769,-0.016008,-0.0067596,-0.030121,-0.122,-0.32663,0.030377,-0.058591,0.01503,0.55608,-0.0048053,0.030564,0.15692,0.13188,0.016803,-0.086788,-0.2617,-0.2017,0.031852,0.0026548,0.04677,0.032306,-0.00095759
0.015113,-0.023348,-0.014511,-0.00063441,-0.044525,-0.10274,-0.30393,0.029733,-0.070316,0.021522,0.59807,3.766e-005,0.032264,0.15936,0.12759,0.011722,-0.086005,-0.24262,0.035795,0.04543,0.0027893,0.040502,0.029075,-0.0042404
0.014698,-0.023428,-0.017298,0.0055207,-0.057697,-0.09188,-0.26184,0.029583,-0.083209,0.02687,0.65317,0.0045157,0.032209,0.15701,0.11624,0.0039379,-0.074774,-0.20936,0.22634,0.050901,0.0054452,0.031943,0.024435,-0.0076165
0.01532,-0.022603,-0.022947,0.0074081,-0.069066,-0.088318,-0.20725,0.031047,-0.091709,0.02793,0.74134,0.0080547,0.031617,0.15163,0.10272,-0.001646,-0.059118,-0.16556,0.38462,0.043452,0.0089357,0.024236,0.019729,-0.0097559
0.01669,-0.02175,-0.026783,0.0044986,-0.077114,-0.084937,-0.14757,0.034374,-0.091201,0.023687,0.86822,0.011558,0.031507,0.14727,0.091182,-0.001209,-0.047657,-0.12324,0.52823,0.024551,0.01149,0.01966,0.016176,-0.009698
0.018159,-0.021071,-0.024889,-0.00029396,-0.080326,-0.074206,-0.087302,0.038572,-0.080025,0.016432,1.0186,0.01589,0.032325,0.14769,0.084895,0.0051486,-0.045152,-0.097814,0.66103,0.0016669,0.012266,0.018276,0.013192,-0.0072786
0.019273,-0.0201,-0.017682,-0.0036006,-0.078704,-0.054192,-0.02885,0.041849,-0.060351,0.010001,1.1645,0.020538,0.03418,0.15406,0.087019,0.013483,-0.049612,-0.1002,0.77122,-0.016388,0.01142,0.018469,0.0085476,-0.0032739
0.019992,-0.018463,-0.0097739,-0.0041118,-0.074459,-0.030397,0.025011,0.042585,-0.037259,0.0065998,1.2818,0.023889,0.037122,0.16448,0.099739,0.018984,-0.055302,-0.13251,0.84107,-0.025218,0.0095777,0.018759,0.00058697,0.00088095
0.020382,-0.016405,-0.0061104,-0.0026042,-0.071124,-0.011971,0.070403,0.040122,-0.016284,0.0051759,1.3636,0.024757,0.040961,0.17544,0.12158,0.019396,-0.058433,-0.19091,0.85534,-0.027362,0.0074228,0.019162,-0.009435,0.0036961
0.020235,-0.014472,-0.0078261,-0.00030023,-0.07151,-0.0051718,0.10433,0.034831,-0.00072973,0.0028795,1.4204,0.023495,0.044803,0.18392,0.14573,0.016125,-0.060092,-0.27219,0.79916,-0.029565,0.0056328,0.020889,-0.01737,0.0042775
0.019187,-0.012709,-0.011508,0.0021984,-0.075866,-0.0090332,0.12672,0.027502,0.0095664,-0.0018464,1.4686,0.021483,0.047034,0.18881,0.16205,0.012405,-0.064065,-0.37752,0.64883,-0.037013,0.0048283,0.024734,-0.019001,0.0027122
0.017278,-0.010329,-0.012489,0.0044314,-0.081541,-0.016494,0.13977,0.01874,0.017204,-0.00768,1.518,0.01952,0.046201,0.19084,0.16245,0.010436,-0.072306,-0.50911,0.36863,-0.049202,0.0052435,0.029749,-0.013472,-5.3555e-006
0.015259,-0.0063613,-0.0091319,0.0052556,-0.084522,-0.019951,0.14497,0.0089702,0.024649,-0.01203,1.568,0.01677,0.042292,0.19155,0.14551,0.010057,-0.08282,-0.66276,-0.075935,-0.060827,0.0063851,0.033508,-0.0043024,-0.0024716
0.014126,-0.00078503,-0.004182,0.0033278,-0.081937,-0.016834,0.14115,-0.00097117,0.032018,-0.014251,1.6117,0.011418,0.037233,0.19188,0.11699,0.009815,-0.091814,-0.82326,-0.69118,-0.066877,0.0072498,0.033838,0.0030776,-0.0035356
0.014199,0.004933,-0.0020186,-0.0012143,-0.073872,-0.010932,0.12594,-0.0093641,0.036898,-0.017031,1.6422,0.0025247,0.033835,0.19154,0.085827,0.0090032,-0.097464,-0.96743,-1.4307,-0.067709,0.0071771,0.030539,0.0053114,-0.0028015
0.014703,0.0085696,-0.0044185,-0.0058331,-0.063208,-0.0087224,0.099358,-0.013989,0.036382,-0.024163,1.6528,-0.0086289,0.033782,0.18909,0.059074,0.0085076,-0.10122,-1.0733,-2.1927,-0.069957,0.0065925,0.025561,0.0033003,-0.00077231
0.014441,0.0087679,-0.0088154,-0.0070333,-0.053575,-0.013883,0.065581,-0.013359,0.029846,-0.036501,1.6331,-0.018989,0.036278,0.183,0.039247,0.0097238,-0.10537,-1.1283,-2.8489,-0.082586,0.0067418,0.021432,0.00078685,0.0013801
0.013011,0.0063453,-0.010676,-0.0033463,-0.04699,-0.024347,0.030703,-0.0079147,0.020394,-0.049965,1.5675,-0.025669,0.03858,0.17258,0.024837,0.012826,-0.1097,-1.1323,-3.2945,-0.11114,0.0084125,0.019225,0.00065021,0.0023314
0.011361,0.0041649,-0.0077438,0.00291,-0.043006,-0.033956,-0.0016037,-0.00012351,0.013684,-0.057771,1.444,-0.027754,0.038097,0.15847,0.012084,0.01629,-0.11095,-1.0929,-3.4943,-0.15427,0.010782,0.017803,0.0021953,0.0012714
0.01096,0.0054344,-0.0021659,0.0071062,-0.040012,-0.037044,-0.032215,0.0067825,0.014668,-0.05524,1.2658,-0.026461,0.034296,0.14211,-0.0038121,0.018243,-0.1058,-1.0201,-3.496,-0.20443,0.011684,0.014964,0.0018419,-0.0015428
0.012258,0.011489,0.0014779,0.0060652,-0.037469,-0.032302,-0.064231,0.010576,0.024285,-0.043247,1.0574,-0.02363,0.02883,0.12487,-0.027779,0.018332,-0.094512,-0.92272,-3.4002,-0.25151,0.0093941,0.0095108,-0.0033687,-0.0047397
0.013935,0.020645,0.00035952,0.00083954,-0.03698,-0.023288,-0.098498,0.010987,0.038452,-0.027703,0.85366,-0.019956,0.023894,0.10755,-0.062924,0.018205,-0.081362,-0.8078,-3.3026,-0.28675,0.0044879,0.0024215,-0.012563,-0.006546
0.013805,0.029083,-0.0040997,-0.0040953,-0.041081,-0.015755,-0.13162,0.0091575,0.050316,-0.015898,0.67917,-0.014618,0.020373,0.090881,-0.10772,0.020027,-0.071363,-0.68167,-3.2442,-0.3049,-1.9175e-005,-0.003867,-0.021086,-0.0059771
0.010717,0.033286,-0.0076557,-0.0046509,-0.050637,-0.014104,-0.15875,0.0061919,0.054484,-0.012812,0.53252,-0.0066001,0.017453,0.076222,-0.15486,0.024363,-0.066098,-0.54986,-3.2007,-0.30463,-0.00073062,-0.0074018,-0.023992,-0.0036663
