6.7526e-011,1.1518e-009,6.1931e-010,1.1364e-009,2.0644e-010,1.8232e-009,1.3505e-011,-7.1963e-010,-3.2798e-011,1.1827e-009,5.8458e-010,-1.3698e-010,3.8007e-010,1.0901e-009,6.4632e-010,1.6785e-010,2.3345e-010,9.1642e-010,8.9713e-010,2.1975e-009,4.7268e-010,1.7036e-009,5.1127e-010,3.5306e-010
1.9702e-009,3.1782e-008,1.7253e-008,3.1244e-008,5.9322e-009,5.0574e-008,8.5166e-010,-1.9751e-008,-7.2498e-010,3.238e-008,1.5811e-008,-3.6618e-009,1.0264e-008,3.0088e-008,1.8173e-008,4.4454e-009,6.3622e-009,2.5347e-008,2.4629e-008,6.0435e-008,1.3066e-008,4.6953e-008,1.4294e-008,9.9764e-009
2.8107e-008,4.2624e-007,2.3361e-007,4.1777e-007,8.2595e-008,6.8203e-007,1.8023e-008,-2.6309e-007,-7.1675e-009,4.3077e-007,2.0768e-007,-4.7491e-008,1.3459e-007,4.0353e-007,2.4847e-007,5.7011e-008,8.4491e-008,3.4072e-007,3.2863e-007,8.0785e-007,1.7565e-007,6.2912e-007,1.9419e-007,1.3637e-007
2.6141e-007,3.7016e-006,2.0483e-006,3.6193e-006,7.4211e-007,5.9567e-006,2.1563e-007,-2.2654e-006,-3.8903e-008,3.7096e-006,1.7653e-006,-3.9826e-007,1.1419e-006,3.5034e-006,2.2007e-006,4.7146e-007,7.2902e-007,2.9653e-006,2.8395e-006,6.9923e-006,1.53e-006,5.46e-006,1.7079e-006,1.2009e-006
1.7822e-006,2.3397e-005,1.3069e-005,2.2834e-005,4.8344e-006,3.7866e-005,1.7497e-006,-1.4168e-005,-9.1914e-008,2.3241e-005,1.0914e-005,-2.4286e-006,7.0433e-006,2.2128e-005,1.4189e-005,2.8234e-006,4.5974e-006,1.8778e-005,1.7854e-005,4.4041e-005,9.7063e-006,3.4499e-005,1.0929e-005,7.6545e-006
9.4936e-006,0.00011469,6.4648e-005,0.00011176,2.4316e-005,0.00018665,1.0546e-005,-6.8552e-005,3.2963e-007,0.00011286,5.2302e-005,-1.1483e-005,3.3652e-005,0.00010832,7.0934e-005,1.3033e-005,2.26e-005,9.2173e-005,8.7046e-005,0.00021504,4.7785e-005,0.0001691,5.4218e-005,3.7598e-005
4.1106e-005,0.00045358,0.00025787,0.00044137,9.8168e-005,0.00074202,4.9824e-005,-0.00026682,4.4538e-006,0.00044186,0.00020213,-4.384e-005,0.00012954,0.00042747,0.00028595,4.8169e-005,9.0179e-005,0.00036476,0.00034224,0.00084655,0.00018991,0.00066885,0.00021691,0.0001479
0.00014853,0.0014863,0.00085162,0.0014438,0.00032631,0.0024424,0.00019103,-0.00085746,2.4966e-005,0.0014317,0.00064702,-0.00013895,0.00041241,0.0013962,0.00095406,0.00014606,0.00030028,0.0011947,0.0011141,0.0027583,0.00062567,0.0021923,0.00071861,0.00047776
0.00045616,0.0041119,0.0023719,0.0039833,0.00090851,0.0067786,0.00060856,-0.0023164,9.7256e-005,0.0039096,0.001748,-0.00037303,0.0011058,0.0038437,0.0026821,0.00036892,0.00085109,0.0032984,0.0030584,0.0075741,0.0017407,0.0060655,0.0020085,0.0012885
0.0012057,0.0097334,0.0056445,0.0093839,0.0021421,0.016067,0.0016374,-0.005326,0.00029363,0.0091124,0.0040391,-0.00086087,0.0025288,0.0090342,0.0064314,0.00078253,0.0020837,0.007774,0.0071706,0.017748,0.0041433,0.014353,0.0047994,0.00293
0.0027662,0.019904,0.011581,0.019028,0.0043022,0.032799,0.0037616,-0.010511,0.000717,0.018278,0.0080575,-0.001726,0.0049715,0.018285,0.013256,0.0013948,0.0044558,0.015777,0.014482,0.035777,0.0085139,0.029307,0.0098959,0.0056415
0.0055366,0.035396,0.020607,0.033344,0.0073635,0.057948,0.0074254,-0.017896,0.0014418,0.031696,0.013959,-0.0030258,0.0084354,0.032032,0.02357,0.0020693,0.0083932,0.027716,0.025324,0.062314,0.015186,0.05193,0.017716,0.0091713
0.0096866,0.054967,0.031895,0.050495,0.010668,0.088721,0.01262,-0.026352,0.0023927,0.047554,0.021056,-0.0046448,0.012346,0.048663,0.036116,0.0024829,0.014023,0.042233,0.038404,0.093808,0.023562,0.08004,0.027634,0.012423
0.014796,0.074707,0.042958,0.065767,0.012838,0.11739,0.018414,-0.033598,0.0032229,0.061513,0.027636,-0.0062027,0.015483,0.064041,0.047356,0.0022182,0.020915,0.055773,0.050418,0.12155,0.031756,0.10723,0.037603,0.013545
0.019636,0.088953,0.050251,0.072835,0.012238,0.13314,0.02284,-0.037178,0.0033256,0.067978,0.031422,-0.0070482,0.016362,0.072726,0.052242,0.0010095,0.028052,0.063621,0.05698,0.13415,0.036948,0.12431,0.044611,0.010774
0.022429,0.092929,0.050893,0.067128,0.0079667,0.12737,0.023581,-0.036137,0.0020916,0.063063,0.030697,-0.0063994,0.014023,0.070944,0.04671,-0.0010042,0.034217,0.062428,0.05492,0.12362,0.036615,0.12367,0.046103,0.0037916
0.021718,0.085725,0.044625,0.049577,0.00077911,0.099776,0.019385,-0.032195,-0.00065401,0.047607,0.025541,-0.0036414,0.0087992,0.059631,0.030811,-0.003274,0.03867,0.052833,0.044716,0.091821,0.03008,0.10435,0.041628,-0.0053629
0.017481,0.071372,0.034467,0.027715,-0.0069418,0.060586,0.011383,-0.029106,-0.0043303,0.027763,0.018267,0.001298,0.0024403,0.044936,0.010165,-0.0052256,0.041699,0.039956,0.031085,0.052016,0.019253,0.073988,0.03345,-0.012891
0.011654,0.056716,0.025182,0.012112,-0.012501,0.025932,0.0030553,-0.030133,-0.0077316,0.011878,0.012447,0.0076791,-0.0026907,0.034764,-0.006151,-0.0068156,0.044506,0.030633,0.020628,0.022512,0.007751,0.045134,0.025305,-0.015423
0.0073646,0.047258,0.020282,0.0095755,-0.014734,0.0082915,-0.0016875,-0.03535,-0.0096681,0.0052667,0.010841,0.014012,-0.0049663,0.033087,-0.010765,-0.0087289,0.048302,0.028848,0.01767,0.015292,-0.0012896,0.027488,0.019934,-0.012415
0.0070633,0.044013,0.019777,0.017912,-0.014871,0.0086602,-0.0012835,-0.041154,-0.0097232,0.0067368,0.01351,0.01856,-0.0044634,0.036361,-0.0029173,-0.011818,0.053162,0.032838,0.021265,0.027703,-0.0071674,0.021563,0.017274,-0.0067759
0.010783,0.043851,0.02053,0.026907,-0.015458,0.016723,0.0020724,-0.042848,-0.0085294,0.0098298,0.017539,0.020109,-0.0027973,0.035622,0.010764,-0.016033,0.057594,0.036485,0.025904,0.044275,-0.011715,0.019101,0.014931,-0.0028474
0.015955,0.042834,0.019025,0.025724,-0.018058,0.019275,0.0039825,-0.038465,-0.0072852,0.0080743,0.018862,0.018549,-0.0018873,0.02348,0.020804,-0.01976,0.059361,0.034189,0.025624,0.048225,-0.01729,0.010398,0.01072,-0.00314
0.019136,0.039487,0.014271,0.011367,-0.021729,0.010286,0.0015827,-0.030572,-0.0068683,-4.1647e-006,0.01513,0.014864,-0.00258,0.00066531,0.021639,-0.020449,0.057116,0.025269,0.018371,0.033924,-0.024225,-0.0072539,0.0050881,-0.0065151
0.018387,0.035166,0.0083862,-0.008735,-0.023795,-0.0055069,-0.0035432,-0.024255,-0.0072916,-0.010289,0.007615,0.010511,-0.0042043,-0.02365,0.015358,-0.016427,0.051541,0.014177,0.0071561,0.010235,-0.029977,-0.027143,0.0011261,-0.0094908
0.014421,0.031606,0.0044777,-0.022535,-0.022371,-0.018025,-0.0060836,-0.022824,-0.0079603,-0.017205,0.00058044,0.0066979,-0.0053843,-0.038634,0.0093781,-0.0085639,0.044949,0.0065234,-0.0027259,-0.0079526,-0.0309,-0.038878,0.0018928,-0.0096235
0.0096611,0.02849,0.0038188,-0.023022,-0.018305,-0.021088,-0.0012564,-0.024942,-0.0084526,-0.018688,-0.0016227,0.0041369,-0.0053944,-0.04027,0.0099389,-0.00020427,0.039498,0.0047056,-0.007814,-0.01258,-0.025315,-0.037243,0.0072926,-0.0079148
0.0061972,0.023705,0.0048891,-0.013724,-0.014608,-0.017311,0.010752,-0.025754,-0.0090454,-0.017556,0.0022986,0.0033712,-0.0048927,-0.034208,0.016847,0.0049928,0.035444,0.0070429,-0.008474,-0.0085757,-0.015325,-0.02644,0.01338,-0.0079137
0.0044912,0.016046,0.0050011,-0.0055251,-0.013735,-0.014886,0.024079,-0.021062,-0.010468,-0.018408,0.0095824,0.0051331,-0.0053992,-0.030375,0.023819,0.0057874,0.030968,0.01074,-0.007525,-0.0083373,-0.0057552,-0.016268,0.014974,-0.012166
0.003779,0.0074456,0.0028436,-0.0076264,-0.015264,-0.019812,0.031142,-0.010846,-0.01315,-0.023382,0.015395,0.010106,-0.0079495,-0.034086,0.023928,0.0043681,0.023823,0.015177,-0.0073305,-0.019951,-0.0010178,-0.014097,0.0095811,-0.019229
0.0033616,0.0021307,-0.00045949,-0.020346,-0.016256,-0.030789,0.028187,0.00094324,-0.016728,-0.030839,0.016301,0.018078,-0.012055,-0.041609,0.015352,0.0045655,0.013469,0.021907,-0.0081816,-0.039828,-0.0023952,-0.019937,-0.00060643,-0.024156
0.0032423,0.0031312,-0.002654,-0.03547,-0.01405,-0.040846,0.017882,0.0099979,-0.020286,-0.037761,0.012516,0.027256,-0.015862,-0.044105,0.0026319,0.0085954,0.0018485,0.031403,-0.0090458,-0.056016,-0.0077511,-0.028439,-0.010264,-0.02228
0.0035271,0.00928,-0.0026652,-0.043254,-0.0089111,-0.043553,0.0069383,0.015314,-0.02301,-0.042929,0.0072453,0.034584,-0.017461,-0.036159,-0.0072443,0.015086,-0.00789,0.040276,-0.009307,-0.058749,-0.013568,-0.034993,-0.014757,-0.013071
0.0035502,0.015554,-0.0017121,-0.039867,-0.0039157,-0.038036,0.00095151,0.019614,-0.024512,-0.047397,0.0038186,0.037175,-0.016348,-0.021022,-0.010161,0.020179,-0.013674,0.042531,-0.0094568,-0.048679,-0.017413,-0.039648,-0.01319,-0.00065522
0.0020368,0.016592,-0.0022307,-0.029458,-0.0021076,-0.028908,0.00082235,0.026319,-0.02456,-0.052015,0.0031137,0.033959,-0.013926,-0.0079408,-0.0070809,0.020857,-0.015848,0.034395,-0.010215,-0.035896,-0.018981,-0.045469,-0.0084684,0.009451
-0.0016267,0.010384,-0.0056424,-0.020085,-0.0035465,-0.022057,0.0033734,0.036006,-0.022708,-0.05512,0.0033616,0.026407,-0.012553,-0.0043868,-0.0018519,0.017662,-0.016507,0.01839,-0.011394,-0.031257,-0.019407,-0.053809,-0.0046867,0.014526
-0.0063982,-0.00089163,-0.010991,-0.017616,-0.0050802,-0.02034,0.0049573,0.045602,-0.018505,-0.053463,0.0022207,0.017813,-0.013786,-0.010408,0.0026956,0.01447,-0.017561,0.002513,-0.011994,-0.037935,-0.019921,-0.061813,-0.0041342,0.016131
-0.010198,-0.013246,-0.015639,-0.022415,-0.0031575,-0.022359,0.0045006,0.050922,-0.012285,-0.045886,-0.00093832,0.011606,-0.017103,-0.019883,0.0065813,0.01553,-0.019317,-0.0053505,-0.011464,-0.050097,-0.020996,-0.064785,-0.0061595,0.017857
-0.011829,-0.024078,-0.017369,-0.030518,0.0028323,-0.02439,0.0035055,0.050134,-0.0056701,-0.035912,-0.0045474,0.0097419,-0.020148,-0.026745,0.011161,0.022254,-0.020826,-0.0032273,-0.010646,-0.05889,-0.022251,-0.06087,-0.0083712,0.021594
-0.012338,-0.033425,-0.016066,-0.037275,0.0097108,-0.023333,0.0036677,0.045094,-0.00095266,-0.029937,-0.0063269,0.012014,-0.020454,-0.02999,0.01634,0.032306,-0.021482,0.0038255,-0.011165,-0.059801,-0.022734,-0.053128,-0.0088164,0.025749
-0.014266,-0.042584,-0.013567,-0.040259,0.012903,-0.018669,0.0048486,0.039709,0.00042953,-0.031922,-0.0051518,0.016504,-0.017386,-0.03309,0.019586,0.041421,-0.022195,0.0081606,-0.013668,-0.055247,-0.021307,-0.046844,-0.0073274,0.026876
-0.019229,-0.051811,-0.011928,-0.039796,0.0099431,-0.012789,0.0053542,0.03716,-0.00094076,-0.039349,-0.0016662,0.020791,-0.012724,-0.039194,0.01777,0.046226,-0.024836,0.005711,-0.016703,-0.05116,-0.017246,-0.044769,-0.0052513,0.023112
-0.026067,-0.059392,-0.011733,-0.037644,0.0021155,-0.0099434,0.0039152,0.038417,-0.0027985,-0.044584,0.0025334,0.02325,-0.0093446,-0.047242,0.010007,0.045888,-0.030328,-0.0011915,-0.01757,-0.051549,-0.011023,-0.045069,-0.0041803,0.016379
-0.031454,-0.062872,-0.011947,-0.035439,-0.0069134,-0.014205,0.0010965,0.042767,-0.002914,-0.041046,0.0060171,0.023763,-0.0090151,-0.052716,-0.0012242,0.041801,-0.037143,-0.0063509,-0.014659,-0.055922,-0.0046892,-0.043984,-0.0048812,0.011508
-0.032618,-0.061221,-0.011334,-0.033982,-0.013951,-0.026964,-0.0013528,0.048983,-0.00077767,-0.02891,0.0079002,0.023524,-0.011171,-0.05192,-0.011679,0.036173,-0.041779,-0.0051257,-0.0092382,-0.060999,-0.0011717,-0.040495,-0.0070899,0.01307
-0.029758,-0.055982,-0.0099436,-0.033397,-0.018052,-0.045188,-0.0024491,0.055647,0.002192,-0.015208,0.0075293,0.024054,-0.013711,-0.045452,-0.018196,0.03087,-0.041136,0.0017795,-0.0049293,-0.064155,-0.0025625,-0.038159,-0.0099337,0.022346
-0.025886,-0.050464,-0.0091309,-0.033534,-0.019979,-0.062015,-0.0030962,0.060714,0.0040704,-0.0080212,0.0042847,0.026044,-0.015011,-0.03762,-0.020443,0.027078,-0.035017,0.0089201,-0.0050318,-0.065114,-0.0085534,-0.041986,-0.01238,0.03649
-0.024146,-0.04769,-0.010084,-0.034085,-0.020393,-0.070206,-0.0051141,0.06179,0.0041943,-0.0097767,-0.0020336,0.028755,-0.015222,-0.03259,-0.020439,0.025414,-0.026681,0.010234,-0.0097943,-0.064835,-0.016348,-0.053072,-0.013471,0.050151
-0.024984,-0.048676,-0.012401,-0.034381,-0.018834,-0.066764,-0.0090712,0.05785,0.003723,-0.015389,-0.010612,0.030423,-0.015602,-0.031014,-0.020673,0.025919,-0.020878,0.0032999,-0.01598,-0.063484,-0.022328,-0.066122,-0.012587,0.058274
-0.025738,-0.052244,-0.014302,-0.033276,-0.014476,-0.055431,-0.013098,0.051043,0.0045646,-0.016677,-0.019537,0.029455,-0.016641,-0.030131,-0.022455,0.027865,-0.020765,-0.0093323,-0.019248,-0.059989,-0.024302,-0.072637,-0.0099078,0.058421
-0.023108,-0.056267,-0.014427,-0.029527,-0.0077689,-0.044691,-0.014007,0.046253,0.0077169,-0.0089999,-0.026467,0.025649,-0.017002,-0.026931,-0.025501,0.029823,-0.02599,-0.022376,-0.01751,-0.053677,-0.022636,-0.06744,-0.0067006,0.051642
-0.01636,-0.059261,-0.013431,-0.022675,-0.00109,-0.042097,-0.0098733,0.047785,0.01256,0.0055778,-0.02965,0.020541,-0.014569,-0.021293,-0.028515,0.030292,-0.033271,-0.03169,-0.012516,-0.046111,-0.019466,-0.053098,-0.0048501,0.041724
-0.0084616,-0.061155,-0.013607,-0.01381,0.0025067,-0.04881,-0.0018358,0.055596,0.0177,0.020887,-0.028692,0.016522,-0.0087447,-0.016277,-0.030037,0.028671,-0.038897,-0.036953,-0.0083825,-0.040913,-0.016724,-0.038356,-0.0056051,0.033249
-0.0041175,-0.062842,-0.016651,-0.0054177,0.0015466,-0.058567,0.0065017,0.064665,0.022479,0.032138,-0.024739,0.015292,-0.0017166,-0.015575,-0.029103,0.025835,-0.041218,-0.041299,-0.0083279,-0.041252,-0.014631,-0.03168,-0.0084606,0.029256
-0.0063118,-0.065055,-0.021643,-5.0271e-005,-0.002563,-0.06217,0.011647,0.06869,0.02759,0.039233,-0.020046,0.016796,0.0027912,-0.020571,-0.025668,0.02368,-0.04138,-0.048327,-0.012313,-0.047021,-0.011841,-0.035092,-0.011306,0.029637
-0.014164,-0.067545,-0.025347,0.0014123,-0.006414,-0.054365,0.012702,0.065306,0.034075,0.045342,-0.017028,0.019525,0.002436,-0.029514,-0.020772,0.023741,-0.041997,-0.058759,-0.017362,-0.05428,-0.0070657,-0.04313,-0.011984,0.031323
-0.023648,-0.069148,-0.024831,0.00056174,-0.0070512,-0.03799,0.011816,0.058203,0.041587,0.052731,-0.017065,0.021937,-0.0016715,-0.039135,-0.016224,0.025857,-0.044931,-0.06938,-0.02001,-0.057755,-0.00072551,-0.047576,-0.010007,0.030443
-0.030316,-0.068587,-0.020119,0.00046876,-0.0040397,-0.022164,0.012323,0.054007,0.047686,0.060167,-0.019672,0.023761,-0.0056005,-0.046871,-0.013689,0.028061,-0.049778,-0.075223,-0.018684,-0.054588,0.004855,-0.0439,-0.0068735,0.025229
-0.031724,-0.065315,-0.014348,0.0034409,0.00049344,-0.015726,0.016088,0.056518,0.04915,0.064291,-0.022691,0.02597,-0.0054365,-0.051687,-0.013632,0.028026,-0.054024,-0.073433,-0.014283,-0.046386,0.0070137,-0.034302,-0.0046081,0.017635
-0.028002,-0.059812,-0.011129,0.0092211,0.0037876,-0.02073,0.022078,0.06339,0.044475,0.063319,-0.023641,0.02939,7.2625e-005,-0.053227,-0.014895,0.025023,-0.054687,-0.065779,-0.0089755,-0.03792,0.0048675,-0.02523,-0.0039013,0.012274
-0.020848,-0.05331,-0.011429,0.015142,0.0046796,-0.030816,0.027178,0.068179,0.035497,0.0592,-0.021389,0.033248,0.0091673,-0.050722,-0.015382,0.020707,-0.05035,-0.057664,-0.004635,-0.0335,0.0001991,-0.021828,-0.0036255,0.013262
-0.012385,-0.047337,-0.012846,0.018243,0.0043215,-0.035716,0.028563,0.065846,0.026596,0.055976,-0.016882,0.035156,0.019009,-0.043059,-0.013393,0.017929,-0.042312,-0.054281,-0.0021158,-0.033886,-0.0036961,-0.023978,-0.0021647,0.021237
-0.004784,-0.043439,-0.011999,0.017707,0.0049623,-0.028595,0.025827,0.056811,0.021874,0.055892,-0.012329,0.032765,0.027929,-0.02989,-0.0086521,0.018484,-0.034076,-0.056976,-0.0014486,-0.036017,-0.0042897,-0.026892,0.00083347,0.032818
-0.00026047,-0.043,-0.007871,0.015618,0.0080311,-0.010827,0.021284,0.04619,0.022372,0.057039,-0.0095482,0.025693,0.035975,-0.012394,-0.0023293,0.021729,-0.029314,-0.062716,-0.0022762,-0.035506,-0.0013553,-0.025321,0.0040755,0.042912
-0.00052355,-0.04684,-0.0029931,0.015351,0.013207,0.0093001,0.018287,0.039372,0.025431,0.054865,-0.0089435,0.015913,0.043547,0.007303,0.0037199,0.025235,-0.029463,-0.066969,-0.0040768,-0.029753,0.0033938,-0.017629,0.0059413,0.048101
-0.0056403,-0.054483,-0.0013199,0.018849,0.019086,0.022841,0.018847,0.038133,0.026683,0.046264,-0.0099185,0.0060954,0.049774,0.027485,0.0077828,0.026788,-0.032587,-0.067394,-0.006307,-0.019369,0.0080154,-0.006513,0.0060534,0.048544
-0.01339,-0.06365,-0.0046889,0.025005,0.024557,0.026563,0.022376,0.040438,0.023188,0.03257,-0.012069,-0.0026367,0.052514,0.047497,0.0086936,0.02593,-0.034548,-0.065262,-0.0086628,-0.0072735,0.011773,0.0038581,0.0054285,0.047115
-0.020172,-0.070758,-0.011081,0.030465,0.029514,0.024577,0.026383,0.043289,0.015443,0.01883,-0.015731,-0.011397,0.050202,0.067021,0.0059339,0.023845,-0.032007,-0.063689,-0.011228,0.0033346,0.015192,0.011588,0.0051216,0.046715
-0.023156,-0.07265,-0.016244,0.032235,0.034391,0.024202,0.028397,0.045339,0.0068963,0.010148,-0.021195,-0.02188,0.043795,0.084905,-0.00023228,0.022046,-0.02521,-0.064568,-0.014125,0.010508,0.019079,0.018542,0.004919,0.048031
-0.022021,-0.06862,-0.017192,0.030013,0.039262,0.029636,0.027469,0.046904,0.001454,0.0082535,-0.027447,-0.033826,0.036739,0.099054,-0.0085893,0.021291,-0.018313,-0.066967,-0.016846,0.013919,0.023687,0.02843,0.0035629,0.049434
-0.018767,-0.061097,-0.014471,0.026441,0.043522,0.038627,0.024156,0.048077,0.00089053,0.010954,-0.031996,-0.04416,0.032569,0.10766,-0.017131,0.021498,-0.016551,-0.068108,-0.018058,0.014501,0.028714,0.04313,0.0002714,0.048837
-0.015762,-0.054093,-0.011319,0.025096,0.046448,0.044709,0.019361,0.047564,0.0040221,0.014358,-0.032377,-0.048989,0.032028,0.11041,-0.02377,0.022178,-0.022094,-0.065739,-0.016463,0.013947,0.033756,0.060206,-0.0041487,0.045783
-0.01381,-0.05027,-0.01069,0.027782,0.047887,0.042861,0.013411,0.043752,0.0080411,0.015604,-0.028177,-0.047014,0.032334,0.1083,-0.027282,0.022443,-0.031773,-0.059773,-0.012154,0.014116,0.038432,0.073721,-0.0078912,0.042054
-0.011976,-0.048926,-0.012864,0.033138,0.048281,0.033691,0.006327,0.036829,0.010721,0.013975,-0.021717,-0.041312,0.029489,0.10223,-0.027846,0.02059,-0.038775,-0.052138,-0.007131,0.016175,0.042071,0.077987,-0.0098783,0.040377
-0.0091546,-0.046723,-0.015595,0.037539,0.047964,0.022673,-0.0011753,0.029408,0.011658,0.010246,-0.016591,-0.037585,0.021888,0.092126,-0.026825,0.014242,-0.037379,-0.04543,-0.0041547,0.019792,0.043596,0.071668,-0.010781,0.04231
-0.0056491,-0.040793,-0.016348,0.037597,0.046499,0.015267,-0.0073046,0.024556,0.011741,0.0055697,-0.015197,-0.040005,0.012135,0.077931,-0.025976,0.0017936,-0.027276,-0.041617,-0.0047099,0.023184,0.042099,0.059196,-0.012203,0.046878
-0.0030762,-0.031648,-0.014467,0.032524,0.042803,0.012251,-0.010237,0.022814,0.011715,0.001072,-0.017255,-0.048035,0.005354,0.061526,-0.026625,-0.015621,-0.014076,-0.041456,-0.0078541,0.024428,0.037688,0.048166,-0.014866,0.050851
-0.0026699,-0.023235,-0.011491,0.024819,0.036126,0.0093002,-0.0098304,0.021028,0.01141,-0.0020466,-0.020416,-0.056979,0.0052606,0.047149,-0.029159,-0.033562,-0.0054859,-0.044517,-0.011053,0.023197,0.031655,0.044307,-0.017718,0.050442
-0.0037988,-0.01986,-0.0096533,0.018894,0.027127,0.0011504,-0.008313,0.014364,0.010334,-0.0027744,-0.022235,-0.061886,0.01118,0.039041,-0.032933,-0.04634,-0.0060242,-0.049451,-0.012293,0.021363,0.025569,0.047604,-0.018962,0.043329
-0.0043622,-0.022474,-0.010053,0.018445,0.018148,-0.013256,-0.0089929,9.0723e-005,0.0087932,-0.0011272,-0.021772,-0.061548,0.018467,0.037927,-0.036554,-0.050606,-0.014223,-0.054473,-0.011603,0.02164,0.02013,0.052545,-0.017964,0.029815
-0.0028089,-0.027567,-0.011972,0.024093,0.012277,-0.029073,-0.013819,-0.019923,0.0080495,0.0013897,-0.019716,-0.059201,0.021955,0.039686,-0.038502,-0.047702,-0.024223,-0.058056,-0.010721,0.025252,0.014991,0.052466,-0.016085,0.012498
0.0002245,-0.029735,-0.01361,0.032614,0.011624,-0.038795,-0.021834,-0.040054,0.0091,0.0026918,-0.017296,-0.059354,0.019593,0.038023,-0.037942,-0.042607,-0.0302,-0.059539,-0.011362,0.030682,0.0098874,0.044736,-0.015536,-0.005247
0.0024024,-0.025834,-0.013447,0.038405,0.015846,-0.0378,-0.029876,-0.054552,0.01128,0.0019809,-0.015192,-0.063531,0.013422,0.029324,-0.035283,-0.040145,-0.030095,-0.059227,-0.013722,0.034809,0.0058844,0.032732,-0.017342,-0.020964
0.001974,-0.017238,-0.011197,0.036615,0.022037,-0.027652,-0.034953,-0.061193,0.012369,0.00075339,-0.0133,-0.06863,0.0073842,0.015601,-0.031991,-0.041538,-0.026119,-0.057886,-0.016444,0.035574,0.0052229,0.023055,-0.020408,-0.033875
-0.00029918,-0.0083911,-0.0078821,0.026291,0.026312,-0.014595,-0.036232,-0.062285,0.010499,0.0015355,-0.01126,-0.069374,0.0040609,0.002851,-0.029578,-0.04422,-0.022261,-0.056135,-0.017846,0.033822,0.0094464,0.020261,-0.02258,-0.044318
-0.0014405,-0.0029555,-0.0051431,0.011474,0.026203,-0.0047175,-0.035061,-0.06244,0.0062226,0.0051315,-0.0090007,-0.062863,0.0030751,-0.0037828,-0.02841,-0.044937,-0.021164,-0.054228,-0.017237,0.032562,0.017312,0.023366,-0.022716,-0.052539
0.0014576,-0.00078169,-0.0042484,-0.0008133,0.022123,9.3778e-005,-0.033295,-0.065021,0.0025977,0.0090536,-0.0067923,-0.051432,0.0022353,-0.0038583,-0.027284,-0.043203,-0.02262,-0.052182,-0.015296,0.03418,0.024569,0.026904,-0.0218,-0.057997
0.0090336,0.001931,-0.0053238,-0.0047602,0.016683,0.0022217,-0.031743,-0.070046,0.0028133,0.009158,-0.0049554,-0.041431,6.3009e-005,-0.0012197,-0.024249,-0.041904,-0.02428,-0.049824,-0.013413,0.038058,0.026329,0.025532,-0.02205,-0.05988
0.019398,0.0095722,-0.0072643,0.00056182,0.012336,0.0048689,-0.030208,-0.074992,0.0072553,0.0035106,-0.0037223,-0.038812,-0.0026602,3.4638e-006,-0.018174,-0.044516,-0.023554,-0.046618,-0.012655,0.040773,0.020483,0.018292,-0.02475,-0.058334
0.029739,0.023608,-0.0085034,0.010651,0.0093807,0.0085496,-0.028815,-0.07754,0.012708,-0.0050676,-0.0034068,-0.044908,-0.0035904,-0.00088833,-0.0099107,-0.051617,-0.019313,-0.041751,-0.01309,0.038843,0.0095028,0.0090572,-0.02875,-0.055169
0.038061,0.041153,-0.0082489,0.018651,0.0061658,0.01077,-0.02891,-0.077816,0.014653,-0.010671,-0.0045089,-0.05558,-0.00097097,-0.0011609,-0.0021222,-0.060021,-0.012582,-0.034918,-0.013858,0.031715,-0.00098954,0.0029497,-0.031074,-0.053213
0.043564,0.056452,-0.0072702,0.019913,0.001284,0.0089951,-0.032235,-0.078296,0.010861,-0.0093456,-0.00732,-0.064209,0.0047097,0.0018374,0.0021682,-0.065369,-0.0060488,-0.027408,-0.013895,0.022456,-0.0059423,0.0019346,-0.029314,-0.054692
0.045833,0.06412,-0.0074329,0.014788,-0.0044561,0.003872,-0.038996,-0.081684,0.0032227,-0.0031265,-0.011193,-0.066211,0.010884,0.0071911,0.0013479,-0.065781,-0.0026763,-0.022219,-0.012839,0.015563,-0.0040981,0.0033794,-0.023927,-0.05994
0.044286,0.062076,-0.010109,0.0078163,-0.0084337,-0.00053782,-0.046847,-0.088687,-0.0037506,0.00098326,-0.01428,-0.061772,0.014588,0.010482,-0.0038562,-0.063272,-0.0039559,-0.022376,-0.011427,0.013716,0.0017253,0.0027715,-0.01843,-0.067491
0.038762,0.052506,-0.014689,0.0041386,-0.0088118,4.3914e-006,-0.052174,-0.097492,-0.0064387,-0.0031038,-0.014379,-0.055089,0.014208,0.0075398,-0.010814,-0.061786,-0.0087632,-0.028197,-0.01093,0.016105,0.0073518,-0.0018502,-0.017074,-0.075384
0.030556,0.040434,-0.018609,0.0058844,-0.006789,0.0060053,-0.052871,-0.10511,-0.0046247,-0.014672,-0.010545,-0.050993,0.01005,-0.0015241,-0.016417,-0.063752,-0.013729,-0.035759,-0.011932,0.019477,0.010579,-0.0077119,-0.021635,-0.082497
0.022329,0.030757,-0.019178,0.011023,-0.0060583,0.013189,-0.050134,-0.10929,-0.0010209,-0.025757,-0.004118,-0.051568,0.003633,-0.011828,-0.018596,-0.068186,-0.015214,-0.038417,-0.013521,0.020796,0.012333,-0.0094231,-0.029842,-0.08877
0.016411,0.025515,-0.015872,0.01511,-0.0096644,0.01543,-0.047529,-0.10957,0.0014589,-0.027194,0.0019726,-0.055088,-0.003398,-0.017434,-0.017121,-0.071692,-0.011678,-0.030996,-0.013845,0.019214,0.014832,-0.0037374,-0.036812,-0.09436
0.012933,0.023101,-0.011137,0.014287,-0.017131,0.0093532,-0.04802,-0.10711,0.0020449,-0.016427,0.0053438,-0.057771,-0.0098529,-0.016134,-0.013405,-0.071196,-0.0046771,-0.013726,-0.011843,0.015967,0.018652,0.0070533,-0.038521,-0.098829
0.0098224,0.020014,-0.0088506,0.0073328,-0.02472,-0.0031341,-0.051598,-0.10372,0.0020464,-0.00038838,0.0059936,-0.056851,-0.014871,-0.011147,-0.009551,-0.066117,0.0024129,0.007384,-0.008588,0.012764,0.021549,0.016065,-0.034712,-0.10145
0.005079,0.014011,-0.011457,-0.0043014,-0.028812,-0.016413,-0.055613,-0.10083,0.0027542,0.0093793,0.0061008,-0.052664,-0.017614,-0.0082846,-0.0071936,-0.058638,0.006979,0.024613,-0.006743,0.010431,0.020266,0.01654,-0.029044,-0.10252
-0.00070555,0.0063317,-0.018006,-0.017878,-0.029309,-0.025406,-0.057374,-0.098676,0.0035852,0.0055718,0.0077936,-0.048267,-0.017323,-0.011054,-0.0067585,-0.052387,0.0089957,0.034238,-0.0082673,0.0089394,0.013716,0.0067019,-0.026402,-0.1042
-0.0042619,0.0010679,-0.024624,-0.030791,-0.029748,-0.028961,-0.056496,-0.096081,0.0023734,-0.0093476,0.010864,-0.046916,-0.01377,-0.017829,-0.0075247,-0.050606,0.01064,0.039284,-0.012384,0.0083365,0.0045313,-0.0089576,-0.029435,-0.10962
-0.0025347,0.0018922,-0.027147,-0.041159,-0.033709,-0.029718,-0.054888,-0.09108,-0.002483,-0.025541,0.012675,-0.049362,-0.0076611,-0.023302,-0.0084428,-0.054632,0.01416,0.0467,-0.015903,0.0091867,-0.0026217,-0.022807,-0.0368,-0.12036
0.0039455,0.008589,-0.024007,-0.047795,-0.040657,-0.030842,-0.054584,-0.082375,-0.010164,-0.034011,0.010571,-0.053079,-0.00055879,-0.022759,-0.0091079,-0.063096,0.019898,0.060859,-0.015913,0.011868,-0.0046052,-0.029118,-0.044191,-0.13437
0.010582,0.016364,-0.01738,-0.050259,-0.045128,-0.03264,-0.05567,-0.070722,-0.017734,-0.033696,0.0046825,-0.054096,0.0056462,-0.015629,-0.010071,-0.07218,0.026112,0.078738,-0.012485,0.015553,-0.0021227,-0.027338,-0.047242,-0.14629
0.012051,0.018911,-0.011816,-0.049211,-0.040397,-0.031997,-0.056296,-0.059004,-0.022378,-0.031624,-0.0016004,-0.05007,0.0093593,-0.0057135,-0.012116,-0.077234,0.03055,0.091186,-0.008783,0.018279,0.001249,-0.021548,-0.044188,-0.15043
0.0067447,0.013102,-0.011303,-0.046556,-0.02384,-0.025009,-0.054609,-0.050539,-0.023478,-0.03632,-0.0041705,-0.042175,0.009686,0.0015593,-0.015067,-0.075273,0.032202,0.089815,-0.0083215,0.018437,0.0023706,-0.01697,-0.03663,-0.14432
-0.0016588,0.0015848,-0.016681,-0.044746,0.00042247,-0.01048,-0.050599,-0.046754,-0.022648,-0.050236,-0.0016266,-0.034303,0.0065955,0.0024205,-0.017321,-0.066902,0.031663,0.074029,-0.011797,0.016328,0.001197,-0.016262,-0.028158,-0.13005
-0.0070621,-0.0090114,-0.025068,-0.045388,0.023848,0.0087074,-0.046071,-0.046172,-0.021866,-0.067469,0.0035118,-0.03025,0.00095226,-0.0036795,-0.016829,-0.056119,0.029918,0.052196,-0.016424,0.014077,0.0004784,-0.018078,-0.021974,-0.11263
-0.0057828,-0.012984,-0.031665,-0.048117,0.038989,0.027366,-0.042805,-0.045697,-0.021652,-0.078329,0.0069617,-0.031168,-0.0056381,-0.014632,-0.01291,-0.047813,0.026914,0.035624,-0.01836,0.01363,0.0029303,-0.018547,-0.019135,-0.096709
0.00085288,-0.0096465,-0.032778,-0.05079,0.0439,0.041316,-0.040752,-0.043161,-0.021048,-0.076718,0.0063076,-0.035248,-0.011363,-0.027218,-0.00726,-0.044651,0.021476,0.03017,-0.015959,0.014537,0.0084981,-0.014409,-0.018429,-0.084195
0.0082613,-0.0032373,-0.028076,-0.051089,0.042241,0.049491,-0.037987,-0.03891,-0.019179,-0.064411,0.0028903,-0.039629,-0.015077,-0.038441,-0.0029747,-0.045698,0.012839,0.03243,-0.010923,0.013685,0.014108,-0.0056444,-0.017726,-0.074223
0.012827,0.0011813,-0.020551,-0.048435,0.039421,0.053356,-0.032503,-0.035133,-0.01659,-0.049302,0.00036709,-0.042684,-0.016976,-0.046329,-0.0021818,-0.047732,0.0023734,0.033648,-0.0065014,0.0075553,0.016015,0.0041079,-0.01567,-0.064881
0.014657,0.0022098,-0.014238,-0.044701,0.038128,0.054549,-0.02424,-0.033714,-0.014866,-0.039587,0.0013645,-0.044683,-0.018378,-0.050414,-0.0043089,-0.048042,-0.0063711,0.027816,-0.0046411,-0.0047524,0.012672,0.0096626,-0.012506,-0.055072
0.016545,0.0029886,-0.011362,-0.043035,0.036683,0.053028,-0.015568,-0.034732,-0.01498,-0.038626,0.0052278,-0.046461,-0.020503,-0.051835,-0.0066043,-0.046407,-0.0097756,0.016845,-0.0047618,-0.020259,0.005748,0.0076027,-0.009578,-0.045289
0.020479,0.0076822,-0.011109,-0.045544,0.031081,0.047304,-0.0097854,-0.036938,-0.016199,-0.04397,0.0086945,-0.047553,-0.023138,-0.052641,-0.0065616,-0.044813,-0.0068554,0.0084208,-0.0050607,-0.033759,-0.0013957,-0.0014004,-0.0081085,-0.037126
0.025187,0.01678,-0.010936,-0.051572,0.018702,0.036334,-0.0088209,-0.039531,-0.016839,-0.05043,0.0086532,-0.045696,-0.024474,-0.054362,-0.0041584,-0.045476,-0.0001988,0.0086775,-0.004787,-0.041152,-0.0063952,-0.012956,-0.0082652,-0.032184
0.02703,0.025624,-0.0092627,-0.057943,0.00071127,0.021217,-0.011912,-0.043304,-0.016112,-0.05418,0.0044914,-0.038343,-0.022554,-0.056814,-0.0019729,-0.048922,0.0058326,0.01643,-0.0051289,-0.041923,-0.009563,-0.0219,-0.0091784,-0.031099
0.023338,0.027794,-0.0071185,-0.061047,-0.018417,0.0051822,-0.016213,-0.049941,-0.015146,-0.054793,-0.0017734,-0.025017,-0.017312,-0.058332,-0.0031072,-0.053528,0.0081905,0.024127,-0.0078504,-0.039023,-0.013289,-0.025751,-0.0096881,-0.033202
0.015041,0.020574,-0.0071415,-0.059218,-0.033552,-0.0080275,-0.01882,-0.060147,-0.01599,-0.054252,-0.0072758,-0.0085445,-0.01133,-0.057442,-0.0086797,-0.056568,0.006896,0.024533,-0.013062,-0.036457,-0.019704,-0.026087,-0.0090908,-0.036946
0.0061738,0.0077163,-0.010735,-0.053589,-0.041683,-0.016009,-0.018758,-0.072469,-0.019541,-0.054416,-0.010214,0.0060467,-0.0083366,-0.054495,-0.016881,-0.055741,0.0040992,0.017016,-0.018383,-0.036504,-0.028443,-0.02673,-0.0073265,-0.040864
0.00071542,-0.0030751,-0.016043,-0.04686,-0.043098,-0.018542,-0.017539,-0.084038,-0.024419,-0.055211,-0.010429,0.014423,-0.01039,-0.051556,-0.024204,-0.050193,0.0016024,0.0078239,-0.020491,-0.038519,-0.036288,-0.030186,-0.0046581,-0.044327
-0.00044344,-0.0058969,-0.018899,-0.041109,-0.040599,-0.0172,-0.017996,-0.092609,-0.027927,-0.054839,-0.0086641,0.015674,-0.016096,-0.05051,-0.027787,-0.040726,-0.00065145,0.0043108,-0.017824,-0.039917,-0.039098,-0.035299,-0.0013278,-0.04747
0.00023744,-0.00080657,-0.016203,-0.036498,-0.037601,-0.014371,-0.022252,-0.09803,-0.028185,-0.051534,-0.0056265,0.012874,-0.021536,-0.05119,-0.027122,-0.029421,-0.0037537,0.0085195,-0.012056,-0.038418,-0.034752,-0.03816,0.0024247,-0.050331
-0.00037139,0.0069945,-0.0087915,-0.031876,-0.03638,-0.012257,-0.030279,-0.10177,-0.025488,-0.045304,-0.0017481,0.010887,-0.023346,-0.051533,-0.024051,-0.018904,-0.0077332,0.015871,-0.0069243,-0.033886,-0.025008,-0.035603,0.0060533,-0.052141
-0.0028516,0.011938,-0.0010675,-0.026581,-0.037371,-0.012101,-0.04,-0.10489,-0.021785,-0.038262,0.0024513,0.01289,-0.021397,-0.04979,-0.021259,-0.01137,-0.010542,0.019874,-0.0052839,-0.028525,-0.01479,-0.028342,0.0085399,-0.051734
-0.0043763,0.012518,0.0024759,-0.021716,-0.039682,-0.013706,-0.048742,-0.10646,-0.019012,-0.033337,0.0061497,0.018227,-0.018689,-0.046646,-0.020478,-0.0076254,-0.0093617,0.018275,-0.006884,-0.02531,-0.0092316,-0.020951,0.0087431,-0.04884
-0.0010839,0.011724,0.00080412,-0.019671,-0.04227,-0.015576,-0.054792,-0.10392,-0.017869,-0.032363,0.008603,0.02335,-0.018435,-0.044967,-0.021645,-0.0067219,-0.0031105,0.014939,-0.0088111,-0.02564,-0.010403,-0.018511,0.0061851,-0.044845
0.0082457,0.013617,-0.0031701,-0.02225,-0.044856,-0.01585,-0.057824,-0.095453,-0.017931,-0.035008,0.009768,0.025217,-0.020852,-0.047133,-0.023415,-0.0066323,0.0062199,0.015861,-0.0082144,-0.027817,-0.01605,-0.022567,0.001726,-0.041789
0.020369,0.019488,-0.0054731,-0.028999,-0.047846,-0.013575,-0.057966,-0.082228,-0.018568,-0.039292,0.010443,0.024272,-0.022599,-0.052411,-0.024333,-0.0056737,0.014697,0.023123,-0.0048721,-0.027561,-0.021282,-0.029745,-0.002534,-0.040207
0.029312,0.026969,-0.0045691,-0.037162,-0.051336,-0.0093715,-0.054572,-0.068339,-0.019585,-0.043215,0.011637,0.024256,-0.019584,-0.056995,-0.023588,-0.003601,0.019099,0.032448,-0.0012681,-0.02058,-0.02211,-0.034249,-0.0043247,-0.037968
0.030424,0.032443,-0.0023016,-0.043301,-0.054106,-0.0048413,-0.046151,-0.058106,-0.021086,-0.046099,0.013674,0.028701,-0.010859,-0.056941,-0.02091,-0.0013967,0.018855,0.036647,-0.0001194,-0.0056446,-0.018284,-0.032286,-0.0026757,-0.031666
0.023571,0.034111,-0.0016642,-0.045313,-0.053679,-0.0011714,-0.031941,-0.052753,-0.023005,-0.048538,0.015845,0.037105,-0.00019488,-0.05146,-0.016169,7.9844e-005,0.015848,0.031905,-0.0016675,0.014035,-0.013334,-0.02487,0.0013015,-0.019615
0.012981,0.032888,-0.0037399,-0.043377,-0.047715,0.0018554,-0.013952,-0.049393,-0.024958,-0.051099,0.016994,0.044497,0.0062024,-0.043604,-0.0094812,0.001257,0.012613,0.021317,-0.0033037,0.032493,-0.011654,-0.016829,0.0050954,-0.0035595
0.0040161,0.030673,-0.0067113,-0.03938,-0.035811,0.005607,0.0025093,-0.043515,-0.026562,-0.05314,0.016563,0.045337,0.0041578,-0.037795,-0.0018541,0.003563,0.010629,0.012497,-0.0019424,0.044814,-0.014773,-0.012913,0.0066254,0.012812
-0.00043277,0.028003,-0.00767,-0.035508,-0.020279,0.01144,0.011003,-0.033115,-0.027753,-0.053054,0.015196,0.038672,-0.0053697,-0.036513,0.0046226,0.0078598,0.0099296,0.011304,0.003025,0.050266,-0.019764,-0.01418,0.005847,0.027292
-0.0011579,0.023453,-0.0053099,-0.033046,-0.0051539,0.01975,0.007823,-0.020921,-0.028706,-0.049845,0.014335,0.029822,-0.016992,-0.039076,0.0078571,0.013228,0.0098381,0.017056,0.0089529,0.052152,-0.021274,-0.017525,0.004733,0.041063
-0.00091309,0.015281,-0.00096598,-0.031963,0.0059245,0.030014,-0.0051448,-0.012515,-0.029436,-0.044478,0.01506,0.026577,-0.024773,-0.043249,0.007574,0.017584,0.0098264,0.02326,0.012123,0.054398,-0.015837,-0.018507,0.0054947,0.056904
-0.0016621,0.0037055,0.0027929,-0.031183,0.011463,0.041568,-0.020965,-0.0117,-0.02951,-0.039423,0.017131,0.032729,-0.026223,-0.047647,0.0061218,0.019749,0.0097931,0.023144,0.010961,0.057795,-0.0050472,-0.015037,0.0084944,0.075254
-0.0032523,-0.008238,0.004516,-0.029325,0.012374,0.054179,-0.031636,-0.017001,-0.028219,-0.036537,0.019048,0.044454,-0.023434,-0.052381,0.0069937,0.020847,0.0098989,0.015334,0.0074226,0.059265,0.0051564,-0.0089136,0.01174,0.092187
-0.0043164,-0.016056,0.0049574,-0.025689,0.010829,0.067798,-0.032842,-0.022428,-0.025089,-0.035262,0.019167,0.052925,-0.02081,-0.057518,0.011853,0.023221,0.010403,0.0050579,0.0053462,0.054903,0.0087725,-0.0041563,0.012576,0.10189
-0.0040749,-0.0164,0.0060025,-0.021105,0.0087459,0.081728,-0.026047,-0.021963,-0.020367,-0.033093,0.016999,0.051175,-0.021433,-0.061364,0.018601,0.027567,0.01162,9.8447e-005,0.0072695,0.044023,0.004157,-0.0037255,0.010191,0.10191
-0.0030966,-0.0091609,0.008541,-0.017932,0.006957,0.094011,-0.016491,-0.014004,-0.015135,-0.028135,0.013574,0.039596,-0.024904,-0.060891,0.022547,0.031203,0.013773,0.0048506,0.01246,0.030468,-0.0050968,-0.0074189,0.00668,0.096415
-0.002413,0.002236,0.011293,-0.018689,0.0053303,0.10174,-0.0088738,-0.0021558,-0.010948,-0.021356,0.010525,0.025564,-0.028058,-0.054277,0.020128,0.029842,0.016718,0.017077,0.017712,0.019921,-0.013488,-0.012553,0.0055431,0.094105
-0.0021838,0.012514,0.011723,-0.023898,0.0033933,0.10233,-0.0042466,0.0079655,-0.0091444,-0.016147,0.0086479,0.017697,-0.027677,-0.043188,0.012181,0.021904,0.01987,0.029554,0.019998,0.015679,-0.018096,-0.016598,0.0087696,0.10203
-0.0015392,0.017283,0.0083542,-0.030841,0.00090007,0.095004,-0.00040338,0.012903,-0.010131,-0.015292,0.0072329,0.01956,-0.022982,-0.0323,0.003784,0.011378,0.022615,0.035062,0.018638,0.016622,-0.020191,-0.019303,0.014997,0.1201
0.00013055,0.015333,0.0025126,-0.034715,-0.0018879,0.081545,0.0050588,0.013179,-0.013001,-0.018076,0.0048374,0.027704,-0.016125,-0.026063,0.0005024,0.005859,0.024882,0.030939,0.015356,0.018925,-0.022666,-0.022372,0.020403,0.14072
0.0018629,0.0091367,-0.0021081,-0.031764,-0.0041625,0.065517,0.012089,0.012015,-0.015766,-0.020343,0.00087758,0.035037,-0.010585,-0.025307,0.0039809,0.010642,0.027234,0.020105,0.012592,0.019583,-0.026062,-0.027,0.021665,0.15368
0.00145,0.0031649,-0.0019744,-0.022013,-0.0047585,0.05031,0.018389,0.012876,-0.016224,-0.017677,-0.0034349,0.036348,-0.0088498,-0.026591,0.010629,0.023861,0.030221,0.0082275,0.011751,0.018436,-0.027301,-0.031647,0.01851,0.15257
-0.0025337,0.0010191,0.0035503,-0.0091804,-0.0026519,0.037252,0.022076,0.018021,-0.013053,-0.0089285,-0.0057997,0.031586,-0.011012,-0.024911,0.014655,0.037358,0.033611,-0.00061189,0.01271,0.017221,-0.022647,-0.032399,0.013749,0.13825
-0.0088385,0.0032855,0.011495,0.0022832,0.0023239,0.025314,0.024048,0.028403,-0.0064995,0.0030544,-0.0047085,0.024885,-0.015074,-0.017568,0.013031,0.043055,0.036338,-0.0064314,0.014482,0.01712,-0.012121,-0.026073,0.010806,0.11755
-0.013839,0.0076075,0.017334,0.010457,0.0089998,0.012757,0.027587,0.043769,0.0018638,0.014056,-0.00086915,0.020778,-0.018442,-0.0061604,0.0082501,0.039461,0.037325,-0.012226,0.016039,0.017452,-0.00089425,-0.013566,0.010868,0.098869
-0.014202,0.010837,0.018288,0.016577,0.015165,-0.00061194,0.035433,0.062266,0.010174,0.02205,0.0032007,0.020888,-0.019456,0.00477,0.0064545,0.0325,0.036361,-0.020153,0.016553,0.016634,0.0042044,-0.00026606,0.012043,0.087625
-0.0097563,0.011501,0.015233,0.022615,0.01868,-0.012709,0.047046,0.080378,0.017392,0.028517,0.0052258,0.023424,-0.017995,0.011259,0.012357,0.029876,0.034177,-0.028191,0.015244,0.014103,0.00024178,0.0073853,0.011182,0.084018
-0.0039141,0.010607,0.011668,0.028334,0.018722,-0.02093,0.058688,0.094346,0.023657,0.036547,0.0051549,0.025359,-0.015022,0.012912,0.02507,0.034047,0.031729,-0.030309,0.011466,0.011003,-0.0091792,0.00668,0.0067432,0.083767
-0.00098514,0.010281,0.010678,0.03089,0.016223,-0.025031,0.066405,0.10264,0.029671,0.047613,0.0052683,0.02519,-0.011639,0.013208,0.038276,0.040199,0.029587,-0.020569,0.0051873,0.0088411,-0.016741,0.00071608,0.00027117,0.081196
-0.0025431,0.011631,0.012546,0.027529,0.013138,-0.028322,0.069253,0.10732,0.035662,0.059891,0.0081463,0.024062,-0.0083878,0.016954,0.044666,0.040996,0.028097,0.0017019,-0.0026045,0.0074208,-0.017319,-0.0042664,-0.0047223,0.073033
-0.0060287,0.013828,0.01504,0.018804,0.011193,-0.035471,0.069896,0.11245,0.040827,0.069412,0.014127,0.024612,-0.0051422,0.026757,0.041144,0.03368,0.027984,0.029842,-0.010137,0.0041454,-0.011827,-0.004204,-0.0054882,0.060739
-0.0069447,0.015166,0.015953,0.009145,0.011143,-0.0482,0.072057,0.12039,0.043669,0.072854,0.020466,0.02869,-0.0014635,0.041017,0.030775,0.023058,0.030407,0.053005,-0.015675,-0.0044469,-0.0057733,-0.00057172,-0.0020967,0.049622
-0.0028765,0.014945,0.015417,0.0040108,0.013007,-0.062444,0.077169,0.1291,0.042944,0.069643,0.023083,0.035829,0.0029682,0.054903,0.020123,0.017717,0.036015,0.062631,-0.018325,-0.020037,-0.0041177,0.0012763,0.0027786,0.044826
0.0040749,0.014202,0.015754,0.0060674,0.016716,-0.069914,0.08315,0.13318,0.038451,0.061968,0.019635,0.043533,0.0081043,0.063632,0.014314,0.022937,0.043797,0.057532,-0.018291,-0.040877,-0.0071722,-0.0026045,0.0059761,0.046822
0.0085681,0.014501,0.018998,0.013642,0.022285,-0.063542,0.08622,0.12822,0.031138,0.053103,0.011478,0.048935,0.013495,0.065708,0.013782,0.03651,0.050998,0.043802,-0.01656,-0.06246,-0.011002,-0.010582,0.005987,0.0501
0.006029,0.01596,0.024459,0.022588,0.029274,-0.042868,0.083897,0.11474,0.02254,0.045479,0.0029119,0.050396,0.01841,0.06372,0.015077,0.050797,0.054582,0.029802,-0.014373,-0.080024,-0.011451,-0.016245,0.0034729,0.046713
-0.0037999,0.016589,0.028773,0.029671,0.036342,-0.015125,0.076513,0.098203,0.01401,0.039736,-0.0017548,0.047944,0.02208,0.062125,0.014695,0.05882,0.053284,0.02036,-0.012739,-0.09112,-0.0077359,-0.013553,0.00010892,0.032348
-0.016502,0.013893,0.02861,0.034456,0.041706,0.0089326,0.066207,0.084925,0.0062957,0.035044,-0.0011107,0.042575,0.024036,0.063748,0.012499,0.059021,0.048618,0.014737,-0.012049,-0.096543,-0.0024008,-0.0017761,-0.0028928,0.0099712
-0.025963,0.0074391,0.023767,0.038358,0.044374,0.021234,0.054754,0.077409,-0.00031267,0.030291,0.0025864,0.035358,0.024402,0.067756,0.011822,0.055112,0.043949,0.0095061,-0.011833,-0.09928,0.0018586,0.014123,-0.0052454,-0.01227
-0.028315,-4.3006e-006,0.017818,0.042187,0.044937,0.019918,0.042419,0.073125,-0.0055457,0.025387,0.0051966,0.027165,0.023878,0.070622,0.016268,0.052022,0.042249,0.0032249,-0.010961,-0.10246,0.0050357,0.027833,-0.0069479,-0.027383
-0.024018,-0.0040773,0.015561,0.044773,0.044926,0.0080014,0.028621,0.067562,-0.0089664,0.021813,0.0036264,0.019009,0.023292,0.069148,0.026043,0.05191,0.044164,-0.0016132,-0.0084422,-0.10783,0.0094752,0.036745,-0.0075768,-0.034739
-0.016899,-0.0020578,0.019194,0.043991,0.045116,-0.010804,0.013331,0.058491,-0.010354,0.021797,-0.0021533,0.012263,0.022957,0.062975,0.036987,0.053379,0.047746,-0.0010825,-0.0044602,-0.11549,0.016845,0.043243,-0.0064314,-0.039754
-0.011218,0.0049496,0.026358,0.039114,0.04436,-0.035039,-0.0024617,0.047526,-0.010327,0.026337,-0.0092318,0.0082349,0.022315,0.054566,0.043214,0.053679,0.049988,0.0057642,-0.0007772,-0.12471,0.025605,0.051426,-0.0033675,-0.04861
-0.0090148,0.012727,0.031768,0.032134,0.040214,-0.064846,-0.017631,0.037934,-0.010434,0.033477,-0.013768,0.0073522,0.020279,0.046892,0.041243,0.051285,0.048944,0.015017,0.0001206,-0.13472,0.031657,0.06256,0.00068993,-0.063055
-0.0093724,0.016989,0.031235,0.026618,0.031001,-0.099066,-0.032084,0.031281,-0.012264,0.038621,-0.013505,0.0088144,0.016131,0.040995,0.032358,0.046651,0.044884,0.020632,-0.0032247,-0.14499,0.031722,0.07348,0.0042389,-0.079965
-0.009673,0.016279,0.024934,0.024995,0.017559,-0.13356,-0.046944,0.026301,-0.016144,0.037372,-0.0091991,0.011175,0.010331,0.035531,0.021494,0.041113,0.039673,0.019408,-0.0098406,-0.1549,0.026338,0.079163,0.0062793,-0.095551
-0.0076457,0.012513,0.017242,0.02664,0.0031148,-0.16277,-0.0636,0.020814,-0.020643,0.029068,-0.0041032,0.013426,0.0045287,0.028558,0.013749,0.035549,0.034972,0.01359,-0.016449,-0.16337,0.019655,0.076917,0.0068958,-0.10961
-0.0027982,0.0090166,0.013252,0.028522,-0.0086311,-0.18328,-0.082621,0.014345,-0.023563,0.017977,-0.0017887,0.015575,0.00057886,0.019816,0.011334,0.030044,0.030824,0.008611,-0.019215,-0.1687,0.016131,0.068405,0.0067798,-0.12547
0.0034179,0.0079074,0.014783,0.027957,-0.015619,-0.19601,-0.10346,0.0085948,-0.023695,0.010623,-0.0037061,0.018142,-0.00081767,0.01137,0.01306,0.024496,0.02584,0.0080044,-0.015994,-0.16869,0.017043,0.058015,0.0062629,-0.14574
0.0084508,0.0089199,0.019192,0.025118,-0.018111,-0.20493,-0.12489,0.0054615,-0.021717,0.011045,-0.0081483,0.021012,-0.00080012,0.0060538,0.016188,0.019168,0.018798,0.010213,-0.0076056,-0.161,0.019746,0.049318,0.0049489,-0.16843
0.0098493,0.01028,0.021947,0.023065,-0.017693,-0.21343,-0.1454,0.0049348,-0.019289,0.01791,-0.011444,0.0228,-0.0016359,0.0051508,0.018772,0.014629,0.010149,0.01022,0.002645,-0.14395,0.020116,0.042791,0.0023537,-0.18744
0.006343,0.010528,0.020647,0.02511,-0.015753,-0.22174,-0.16324,0.0052697,-0.017216,0.02602,-0.010634,0.021502,-0.0049324,0.0074501,0.020687,0.011385,0.001969,0.0044217,0.01076,-0.11786,0.01584,0.03648,-0.0011678,-0.19719
-0.0014021,0.009665,0.016947,0.031619,-0.01279,-0.22749,-0.17635,0.0052729,-0.014572,0.03087,-0.0056888,0.01611,-0.010096,0.010494,0.023052,0.0097415,-0.0036521,-0.0057756,0.01402,-0.086223,0.007841,0.028638,-0.0042687,-0.19669
-0.010578,0.0089237,0.014737,0.039023,-0.0088663,-0.22886,-0.18289,0.00622,-0.009835,0.032127,0.00040171,0.0079497,-0.014413,0.012782,0.027048,0.0099661,-0.006265,-0.014858,0.012089,-0.055592,-0.00093016,0.019863,-0.0054736,-0.18927
-0.016971,0.0096956,0.016384,0.042121,-0.0044034,-0.22722,-0.18213,0.011249,-0.003006,0.032895,0.0037224,0.00054139,-0.014966,0.01477,0.03317,0.012299,-0.0071368,-0.017645,0.0068889,-0.033043,-0.0077471,0.012925,-0.0042222,-0.17842
-0.016771,0.012676,0.020567,0.038054,-0.00036597,-0.22663,-0.17469,0.022666,0.0035085,0.035712,0.0020604,-0.0022233,-0.010984,0.017712,0.041128,0.016547,-0.0076894,-0.013272,0.0015711,-0.022138,-0.011356,0.010524,-0.0010828,-0.16411
-0.0087817,0.017755,0.023642,0.028771,0.002316,-0.23042,-0.16186,0.039736,0.0064086,0.03932,-0.0038889,0.0014898,-0.0046575,0.021586,0.049991,0.021664,-0.0079047,-0.0054183,-0.00088126,-0.020086,-0.011686,0.012861,0.0029795,-0.14353
0.0044105,0.02441,0.023083,0.019836,0.0033976,-0.23795,-0.14439,0.059053,0.0042321,0.039509,-0.011372,0.010076,0.00046896,0.024425,0.058279,0.025966,-0.0063934,0.00097788,0.0011011,-0.018848,-0.0091416,0.017014,0.0074177,-0.11535
0.017522,0.032074,0.019626,0.016389,0.0033387,-0.24424,-0.1222,0.077031,-0.0012221,0.033323,-0.017434,0.01926,0.0023488,0.024094,0.064252,0.028038,-0.0021606,0.003394,0.0069749,-0.010325,-0.0046304,0.018712,0.012131,-0.083079
0.025603,0.040255,0.016224,0.019453,0.0027317,-0.24314,-0.095247,0.092037,-0.0062062,0.022575,-0.020214,0.024684,0.0021533,0.020986,0.066645,0.027585,0.00367,0.0028221,0.014291,0.0077875,-9.8824e-005,0.015254,0.016773,-0.053726
0.02705,0.048572,0.015086,0.0256,0.0018381,-0.23147,-0.064783,0.10425,-0.0079385,0.01316,-0.019066,0.024633,0.0033248,0.01877,0.065477,0.025402,0.0079953,0.0019584,0.019926,0.030117,0.001673,0.0073732,0.02027,-0.03276
0.024315,0.056795,0.015871,0.030185,0.0007918,-0.21089,-0.033338,0.11377,-0.0064663,0.010538,-0.014198,0.021002,0.0086624,0.021799,0.062091,0.022579,0.0078081,0.0025946,0.02187,0.047605,-0.0013749,-0.0013985,0.021296,-0.019932
0.021625,0.064749,0.016682,0.03136,0.00023478,-0.18607,-0.0030428,0.11936,-0.0038764,0.015377,-0.0066768,0.017794,0.017834,0.030951,0.058042,0.019887,0.0024092,0.0044922,0.020475,0.054507,-0.008738,-0.0074135,0.019444,-0.0099783
0.021474,0.071919,0.016515,0.03146,0.0015406,-0.16096,0.026253,0.11964,-0.0018615,0.023149,0.0012503,0.018255,0.027358,0.0416,0.053547,0.018045,-0.0061944,0.0062329,0.018126,0.052782,-0.01703,-0.0094879,0.015956,0.0024406
0.022706,0.077029,0.016374,0.034637,0.0060549,-0.13622,0.057101,0.11574,-0.00018938,0.027948,0.0064928,0.022668,0.033019,0.046095,0.046969,0.018311,-0.014958,0.0067618,0.017336,0.05027,-0.021867,-0.009302,0.013141,0.018043
0.021782,0.078211,0.017837,0.042875,0.013772,-0.10977,0.09222,0.11265,0.0024681,0.02709,0.0066573,0.028293,0.032742,0.039333,0.036138,0.022079,-0.021916,0.0061277,0.018649,0.054232,-0.020626,-0.009365,0.012779,0.032563
0.016101,0.074044,0.020715,0.053831,0.02265,-0.079609,0.13156,0.11715,0.0064688,0.022672,0.0018966,0.031245,0.027713,0.023113,0.020628,0.029057,-0.026898,0.0051032,0.020156,0.065756,-0.013908,-0.010391,0.014827,0.040697
0.0064675,0.064845,0.022506,0.062274,0.029482,-0.046444,0.1713,0.13346,0.010352,0.019216,-0.0047042,0.028927,0.021134,0.0055949,0.0030439,0.035566,-0.030543,0.0044818,0.019226,0.079625,-0.0047246,-0.010459,0.017559,0.040543
-0.0034017,0.053027,0.02049,0.06382,0.032004,-0.013868,0.20589,0.16004,0.012301,0.019869,-0.0090671,0.021561,0.015857,-0.0040686,-0.012058,0.035302,-0.032954,0.0048679,0.015062,0.089433,0.0036034,-0.0067576,0.019074,0.034735
-0.0098426,0.041875,0.014488,0.057807,0.030715,0.013687,0.23174,0.19039,0.012381,0.024437,-0.0091234,0.012171,0.012815,-0.0019307,-0.020971,0.023197,-0.0335,0.0069298,0.0097725,0.093231,0.0089862,0.0015701,0.01888,0.027816
-0.011992,0.033504,0.007441,0.047154,0.028835,0.033412,0.24948,0.21737,0.012945,0.030391,-0.0063399,0.005199,0.011223,0.0083822,-0.023142,-9.927e-005,-0.031809,0.011465,0.0068102,0.094831,0.010631,0.01197,0.018195,0.02274
-0.011964,0.02766,0.0030822,0.035694,0.030194,0.045127,0.26279,0.23755,0.016435,0.035295,-0.0042859,0.0042878,0.0099627,0.018807,-0.021148,-0.027104,-0.028567,0.018896,0.0080659,0.099949,0.0083527,0.019743,0.018759,0.019604
-0.01251,0.022459,0.002828,0.025526,0.036506,0.050463,0.27471,0.25186,0.022602,0.038312,-0.0054007,0.010114,0.0087676,0.022901,-0.018429,-0.047576,-0.024952,0.028586,0.012231,0.11093,0.002375,0.021127,0.021264,0.017104
-0.014477,0.016403,0.0048169,0.016505,0.046086,0.051365,0.28455,0.26243,0.028053,0.039816,-0.0088716,0.019466,0.0082461,0.020163,-0.01678,-0.055257,-0.021094,0.038771,0.015988,0.12481,-0.0060498,0.015869,0.02481,0.014661
-0.016385,0.0098075,0.0059271,0.0078398,0.055028,0.049203,0.28802,0.26867,0.02887,0.040066,-0.011583,0.026575,0.0089782,0.015566,-0.015602,-0.052,-0.015327,0.047383,0.016965,0.13611,-0.014205,0.0073775,0.027794,0.012975
-0.016307,0.0042824,0.004752,-8.0343e-005,0.059896,0.044869,0.28075,0.26641,0.023953,0.038438,-0.011211,0.026434,0.010689,0.015094,-0.013227,-0.045774,-0.0054495,0.053179,0.015725,0.14173,-0.018763,0.00044977,0.029373,0.012837
-0.014058,0.00084688,0.0027003,-0.0054832,0.059861,0.039232,0.26238,0.25101,0.015955,0.033885,-0.0084838,0.018113,0.012293,0.020988,-0.0088612,-0.044003,0.0087673,0.056211,0.015,0.14332,-0.01778,-0.0017613,0.030132,0.013825
-0.011527,-0.0013428,0.0023228,-0.0066925,0.056754,0.033194,0.23784,0.22169,0.0089971,0.026049,-0.0064359,0.0055146,0.012704,0.030298,-0.0033561,-0.047728,0.024198,0.057239,0.016992,0.1452,-0.012273,0.00053551,0.031384,0.014433
-0.010892,-0.0042402,0.004682,-0.0037305,0.053262,0.027314,0.21466,0.18332,0.0054158,0.016031,-0.0074497,-0.0053355,0.011631,0.037515,0.0016075,-0.051403,0.03582,0.056684,0.021354,0.15009,-0.0058001,0.0043894,0.033786,0.0135
-0.012505,-0.008767,0.0084107,0.0015431,0.050895,0.021518,0.19826,0.14409,0.0046021,0.0062681,-0.011034,-0.010613,0.0096877,0.038868,0.0048389,-0.048268,0.040266,0.054168,0.02569,0.15645,-0.0020097,0.0064815,0.036587,0.011453
-0.014456,-0.013435,0.011314,0.0068304,0.049242,0.015347,0.18876,0.11102,0.0046845,-0.00041814,-0.014512,-0.011234,0.0078326,0.034871,0.0061471,-0.036507,0.038579,0.049104,0.027884,0.15993,-0.0019336,0.0055854,0.038214,0.01018
-0.014208,-0.015291,0.012769,0.01093,0.046751,0.0085378,0.18165,0.08691,0.0049635,-0.0021018,-0.015829,-0.011579,0.0066662,0.029348,0.0058301,-0.02089,0.035627,0.041737,0.027894,0.15723,-0.0032322,0.0034703,0.03771,0.011714
-0.010722,-0.012531,0.014354,0.013991,0.042061,0.0013504,0.17161,0.070537,0.0064583,0.0012461,-0.015598,-0.015535,0.0061123,0.026032,0.0040607,-0.0087249,0.036361,0.033515,0.027348,0.14888,-0.0021191,0.0036571,0.035734,0.016936
-0.005208,-0.006414,0.017916,0.016444,0.034837,-0.005658,0.15639,0.05904,0.01014,0.00762,-0.016268,-0.023225,0.0055649,0.025604,0.0010032,-0.0039181,0.041908,0.02627,0.027575,0.13823,0.0034719,0.0088608,0.034172,0.02528
2.5533e-005,-0.0005857,0.022982,0.017865,0.025789,-0.012043,0.1379,0.049962,0.014962,0.013935,-0.019321,-0.031048,0.0042803,0.025424,-0.0025973,-0.0043186,0.048789,0.020873,0.02824,0.128,0.011999,0.018875,0.034611,0.035375
0.0034434,0.0017712,0.026296,0.017025,0.016236,-0.017492,0.11999,0.041597,0.017993,0.017616,-0.023359,-0.034679,0.001783,0.021948,-0.0053489,-0.0043123,0.052007,0.016644,0.027978,0.11788,0.019265,0.03042,0.036961,0.045871
0.0052491,0.00052541,0.024354,0.013067,0.0075626,-0.021391,0.10513,0.032395,0.016732,0.017777,-0.025112,-0.032254,-0.0018206,0.013776,-0.0061183,0.00010738,0.049343,0.012181,0.026294,0.10562,0.021502,0.039115,0.03951,0.05583
0.0068319,-0.0014302,0.01682,0.0066829,0.00065556,-0.022604,0.092648,0.020993,0.011371,0.015174,-0.022411,-0.025154,-0.0057246,0.002952,-0.0051009,0.0084293,0.043132,0.0068742,0.024615,0.090657,0.018149,0.042209,0.040477,0.064659
0.0093959,-0.00093345,0.0075521,0.00016506,-0.0045806,-0.020164,0.079844,0.0072457,0.0048061,0.01114,-0.016249,-0.016228,-0.0086497,-0.0063407,-0.0037983,0.017061,0.037935,0.0016556,0.025224,0.076641,0.01212,0.040065,0.039761,0.07192
0.012954,0.0023074,0.00197,-0.0037063,-0.0091766,-0.014627,0.064765,-0.006914,0.00038339,0.0066704,-0.0099131,-0.0075183,-0.009443,-0.010528,-0.0036606,0.023112,0.036245,-0.0018364,0.028946,0.070061,0.0074595,0.035374,0.039219,0.077239
0.016329,0.0050505,0.0028691,-0.0030945,-0.014188,-0.008795,0.048323,-0.018103,-0.0005214,0.0025824,-0.0060785,0.00043944,-0.0077552,-0.0087763,-0.0046278,0.026656,0.036158,-0.0029087,0.03385,0.075771,0.0063657,0.030777,0.041009,0.080261
0.017958,0.0031923,0.0083575,0.0020242,-0.01939,-0.0065782,0.034002,-0.023423,0.00097946,0.00028829,-0.0046188,0.0075575,-0.0042969,-0.0031081,-0.0050794,0.029572,0.033183,-0.002625,0.036445,0.09308,0.0079829,0.026845,0.045305,0.080595
0.016876,-0.0043224,0.013718,0.0098397,-0.022819,-0.010251,0.025448,-0.022096,0.0028044,0.0017669,-0.0031339,0.012978,-0.00039196,0.0032788,-0.0033473,0.032727,0.024569,-0.002884,0.034569,0.11565,0.0096983,0.022,0.049517,0.077866
0.013301,-0.013801,0.015449,0.01738,-0.022066,-0.018143,0.023784,-0.015394,0.0037705,0.0079917,0.00044097,0.015234,0.0028898,0.0080625,0.00066296,0.034749,0.01211,-0.0046411,0.029521,0.13515,0.009522,0.014428,0.049985,0.072028
0.0085474,-0.019146,0.013823,0.021669,-0.016581,-0.024977,0.02667,-0.0051112,0.0041148,0.017033,0.0056395,0.013672,0.005326,0.010785,0.0053439,0.033754,0.00078645,-0.0071219,0.025416,0.1457,0.0074153,0.0043884,0.044982,0.063811
0.0043304,-0.016619,0.011858,0.021103,-0.0089362,-0.025185,0.029739,0.0077986,0.0045324,0.024135,0.0096383,0.0095848,0.0073535,0.01234,0.0088357,0.030066,-0.0054756,-0.0089064,0.026093,0.14577,0.0046791,-0.0050405,0.036482,0.054896
0.0018555,-0.0080549,0.012003,0.016427,-0.0034673,-0.016924,0.029333,0.023065,0.0050343,0.024683,0.009554,0.0057026,0.0092782,0.013659,0.010551,0.026881,-0.006966,-0.0097308,0.032017,0.13718,0.0023957,-0.0096076,0.029037,0.047448
0.0012851,0.00042197,0.013856,0.010497,-0.0031113,-0.003667,0.0246,0.039712,0.0048752,0.018093,0.004861,0.0043235,0.010647,0.014713,0.011286,0.027904,-0.0073336,-0.01091,0.039712,0.12297,0.00058807,-0.0068554,0.026513,0.043099
0.0019441,0.0033548,0.014984,0.0065919,-0.0072407,0.007987,0.017579,0.054969,0.0035162,0.0090631,-0.0019661,0.0057462,0.01045,0.014547,0.011978,0.034141,-0.009667,-0.013635,0.04421,0.10634,-0.0012605,0.0018284,0.029322,0.042022
0.0030503,0.00044551,0.01375,0.0062494,-0.012745,0.012573,0.011373,0.06478,0.0014564,0.0044281,-0.0069328,0.0084598,0.008053,0.01221,0.012584,0.042952,-0.013375,-0.016817,0.042559,0.090733,-0.0031859,0.011797,0.034377,0.042786
0.0042797,-0.0033213,0.011146,0.0083342,-0.017575,0.00878,0.0078116,0.06568,-7.3422e-005,0.0077094,-0.0069607,0.010946,0.0040189,0.007806,0.01233,0.050257,-0.014899,-0.017067,0.035707,0.079738,-0.0044641,0.018119,0.037707,0.04322
0.005645,-0.0020832,0.0097799,0.010235,-0.023305,-0.00086462,0.0061464,0.056683,-0.00034322,0.01586,-0.0016839,0.013438,-3.7143e-005,0.0028235,0.010984,0.053797,-0.011546,-0.011498,0.027525,0.075604,-0.0043315,0.018748,0.037422,0.041751
0.0069037,0.0057958,0.011114,0.010264,-0.033794,-0.012791,0.0034733,0.03984,-3.1397e-005,0.021212,0.006374,0.017935,-0.0025536,-0.00055444,0.0096765,0.054517,-0.0047623,-0.0010226,0.02206,0.077445,-0.0028127,0.015454,0.034646,0.0383
0.007273,0.016358,0.013845,0.0091342,-0.050745,-0.024832,-0.0035924,0.019174,-0.00075152,0.017316,0.013224,0.026239,-0.0031657,-0.00070284,0.01022,0.055116,0.00032009,0.0092704,0.021227,0.081049,-0.00072718,0.011877,0.031925,0.034132
0.0059702,0.023507,0.015118,0.0091732,-0.070273,-0.036144,-0.017028,-0.0012335,-0.0034412,0.0040456,0.015591,0.037552,-0.0028332,0.002533,0.013492,0.057464,-0.0012599,0.013667,0.02436,0.081165,0.0010468,0.010447,0.03081,0.030873
0.0031828,0.024089,0.013373,0.012016,-0.084309,-0.045061,-0.036181,-0.01893,-0.00706,-0.012097,0.012639,0.047729,-0.0027912,0.0079624,0.018469,0.061336,-0.010362,0.010542,0.029381,0.074771,0.0021504,0.010806,0.030774,0.02952
0.00043124,0.020088,0.0099368,0.016951,-0.086356,-0.047477,-0.057614,-0.033721,-0.0089719,-0.022611,0.006226,0.051231,-0.0032751,0.014103,0.022927,0.065278,-0.022976,0.0039611,0.034286,0.062712,0.0025718,0.010898,0.030123,0.030127
-0.0003212,0.016157,0.0077232,0.021379,-0.07691,-0.038028,-0.076076,-0.046978,-0.0069759,-0.022866,-0.0004404,0.044769,-0.0032383,0.020256,0.025174,0.068348,-0.033029,0.00044808,0.037945,0.048431,0.0021416,0.0094354,0.027781,0.032189
0.0017093,0.014999,0.0083369,0.022803,-0.063614,-0.013709,-0.086427,-0.059992,-0.001386,-0.014824,-0.004809,0.030152,-0.0014052,0.026614,0.025217,0.070936,-0.036331,0.0035891,0.040089,0.034994,0.00055768,0.0072923,0.024266,0.03511
0.0051546,0.014924,0.010478,0.020481,-0.055635,0.022887,-0.085898,-0.07238,0.0047099,-0.0049586,-0.0062208,0.014027,0.0022558,0.033204,0.024329,0.074076,-0.032747,0.011241,0.040952,0.022993,-0.0019081,0.0065419,0.021212,0.03826
0.0071933,0.011788,0.011248,0.015492,-0.05686,0.063734,-0.075555,-0.081743,0.0074726,0.000632,-0.0055811,0.0042539,0.0060258,0.038649,0.023583,0.07817,-0.0255,0.017789,0.040923,0.010828,-0.0039104,0.0082171,0.020116,0.04071
0.0055634,0.003425,0.0090415,0.0096447,-0.063612,0.099338,-0.059823,-0.085132,0.0051184,0.00018336,-0.004024,0.0051091,0.0074975,0.040146,0.022886,0.08232,-0.018668,0.019282,0.040306,-0.0032798,-0.0036773,0.011098,0.021438,0.04123
0.00032416,-0.0075965,0.0051645,0.0044992,-0.068668,0.1238,-0.043993,-0.081414,-0.00076379,-0.0033033,-0.0019412,0.014644,0.005438,0.035209,0.021513,0.084701,-0.014788,0.016762,0.03921,-0.019544,-0.00055625,0.012776,0.024528,0.038902
-0.0060995,-0.015494,0.0025799,0.0011002,-0.067871,0.13725,-0.031222,-0.072639,-0.0064916,-0.0049794,0.00079004,0.026188,0.00090596,0.024069,0.019538,0.08344,-0.01381,0.014944,0.037616,-0.036452,0.0039861,0.011975,0.028103,0.033973
-0.010661,-0.01581,0.0030628,-5.5639e-005,-0.06351,0.14411,-0.021257,-0.063011,-0.0090987,-0.0019871,0.0039095,0.032987,-0.0033955,0.010612,0.018584,0.077454,-0.013602,0.017806,0.035615,-0.051841,0.0071253,0.0098253,0.030769,0.028151
-0.0118,-0.0090255,0.0055472,0.00062276,-0.061725,0.14895,-0.011869,-0.056091,-0.008351,0.0045259,0.006474,0.032623,-0.0051255,0.00048441,0.020885,0.067003,-0.011506,0.02528,0.033545,-0.063892,0.0068001,0.0087308,0.031438,0.023919
-0.010241,-0.00016346,0.0072412,0.0015092,-0.066544,0.15362,-0.0016598,-0.052685,-0.0064001,0.01042,0.0076981,0.028025,-0.0041042,-0.0026719,0.027359,0.053961,-0.0061754,0.033775,0.031837,-0.071237,0.0033472,0.0098017,0.029722,0.02326
-0.0079813,0.0051663,0.0063742,0.00042365,-0.075981,0.15772,0.0084636,-0.051489,-0.0055678,0.011654,0.0080528,0.024579,-0.0024315,5.8641e-005,0.036487,0.041468,0.0012555,0.039474,0.030665,-0.072603,-0.00089503,0.011304,0.026232,0.026702
-0.0065545,0.0048534,0.0039304,-0.003634,-0.083553,0.16128,0.01661,-0.051964,-0.0062785,0.007177,0.0092324,0.025768,-0.0027591,0.0037328,0.045159,0.032624,0.0075578,0.041024,0.029755,-0.066965,-0.0036883,0.0098252,0.022508,0.033218
-0.0061032,0.0011931,0.0027775,-0.0090507,-0.083709,0.16643,0.022606,-0.056444,-0.0068344,-0.00035057,0.012685,0.030736,-0.0060258,0.0037004,0.050875,0.028564,0.0094255,0.039446,0.028569,-0.05449,-0.0047261,0.0034009,0.020329,0.040801
-0.0058976,-0.0017565,0.0050896,-0.012163,-0.076411,0.17603,0.029009,-0.068776,-0.005008,-0.0063765,0.018015,0.035376,-0.01042,-0.00032536,0.053307,0.027262,0.0059318,0.036204,0.026681,-0.037448,-0.0054688,-0.0061111,0.020657,0.047167
-0.005515,-0.0017337,0.010436,-0.0099204,-0.067126,0.19044,0.038862,-0.090107,8.0238e-005,-0.0073772,0.022916,0.035737,-0.012422,-0.003982,0.053824,0.024438,-0.00050336,0.031933,0.024013,-0.019935,-0.0072184,-0.013743,0.022917,0.050432
-0.0054005,0.00033044,0.016116,-0.0026077,-0.062645,0.20572,0.05208,-0.11572,0.0073499,-0.0027669,0.024941,0.030927,-0.0092603,-0.002337,0.05344,0.016511,-0.0056924,0.027018,0.020836,-0.0061915,-0.0094315,-0.015007,0.025249,0.049935
-0.0063044,0.0018973,0.019208,0.0059147,-0.06644,0.21567,0.064294,-0.13664,0.01468,0.0054324,0.023572,0.023417,-0.0011337,0.0051121,0.051163,0.0036129,-0.0067836,0.022725,0.017708,0.0014123,-0.010059,-0.0095453,0.025709,0.047116
-0.0082821,0.0015083,0.018484,0.011012,-0.077136,0.21636,0.070082,-0.1457,0.020338,0.014613,0.020722,0.016909,0.0083077,0.013121,0.04439,-0.0098404,-0.004356,0.020859,0.015415,0.0032308,-0.0076698,-0.0017223,0.023652,0.045603
-0.010347,1.6666e-007,0.014791,0.010939,-0.090516,0.20945,0.068206,-0.1431,0.023715,0.023515,0.019205,0.013726,0.013714,0.014605,0.03118,-0.017899,-0.001636,0.02185,0.014757,0.0014011,-0.0032492,0.0026136,0.020234,0.049663
-0.011165,-0.00060829,0.010065,0.0082342,-0.10256,0.20118,0.063988,-0.13651,0.025043,0.032556,0.020567,0.013754,0.011196,0.0066169,0.0125,-0.017288,-0.001457,0.023385,0.015994,-0.0021135,0.00026375,0.00073268,0.017553,0.061417
-0.010139,0.00086264,0.0060741,0.0075733,-0.11077,0.19774,0.066003,-0.13496,0.024735,0.042522,0.024164,0.015421,0.0011192,-0.0067773,-0.0074645,-0.0098932,-0.0036897,0.021702,0.018263,-0.0069828,0.00048262,-0.0047454,0.017016,0.078794
-0.0078798,0.0038877,0.0038112,0.011879,-0.11332,0.2008,0.079271,-0.14159,0.023123,0.052977,0.028099,0.017467,-0.011401,-0.01733,-0.023346,-0.0015507,-0.0055141,0.014979,0.019597,-0.014445,-0.0021539,-0.007933,0.018203,0.096291
-0.0056458,0.0071689,0.0035325,0.019955,-0.10791,0.20701,0.10059,-0.15169,0.020692,0.061847,0.030971,0.019833,-0.019127,-0.018815,-0.031519,0.0019184,-0.00428,0.0057317,0.017949,-0.025912,-0.0045678,-0.0045194,0.019221,0.1085
-0.0042627,0.010107,0.0050263,0.02756,-0.0922,0.21177,0.12015,-0.15783,0.018282,0.066576,0.032778,0.023059,-0.017225,-0.011421,-0.031906,-0.0015625,-0.00023106,-0.00050182,0.012706,-0.04138,-0.0036965,0.0044866,0.018338,0.11387
-0.0034478,0.013119,0.0078086,0.030852,-0.06565,0.21366,0.12825,-0.15736,0.016796,0.065872,0.034341,0.027044,-0.0066572,-0.00083028,-0.027534,-0.0094731,0.0035681,0.00042083,0.005522,-0.058846,0.00069515,0.01319,0.015572,0.11546
-0.0021281,0.016488,0.011257,0.029262,-0.030909,0.21579,0.12179,-0.15541,0.016564,0.060681,0.03602,0.030525,0.0063731,0.0069506,-0.022374,-0.017005,0.0041422,0.007496,-0.00040883,-0.075145,0.0055863,0.015209,0.012839,0.11799
0.00045659,0.019129,0.014706,0.02552,0.0070798,0.22281,0.10542,-0.16021,0.017008,0.053607,0.037061,0.031793,0.014987,0.01047,-0.019023,-0.02053,0.001662,0.015047,-0.0023242,-0.087676,0.0071038,0.0086711,0.012404,0.12358
0.0037155,0.018862,0.017444,0.023136,0.043732,0.23654,0.086859,-0.175,0.016977,0.047188,0.036226,0.029845,0.016864,0.013402,-0.017728,-0.019705,-0.00029241,0.017297,0.00027253,-0.095942,0.0037108,-0.0020926,0.014888,0.1299
0.0056423,0.014233,0.018673,0.023657,0.076924,0.25405,0.070703,-0.19385,0.015489,0.042178,0.033067,0.024832,0.015807,0.020619,-0.017112,-0.017081,0.0023034,0.01313,0.0053003,-0.10198,-0.0025097,-0.0095202,0.018522,0.13234
0.0040077,0.0062259,0.017695,0.025923,0.10664,0.26992,0.055755,-0.20549,0.012268,0.037054,0.028654,0.01744,0.018042,0.0333,-0.015824,-0.015947,0.010253,0.0068262,0.0095312,-0.10951,-0.0074588,-0.0082211,0.020396,0.12811
-0.0018783,-0.0019372,0.014444,0.027588,0.13267,0.28034,0.037725,-0.20195,0.0077585,0.029224,0.025023,0.0080475,0.026237,0.047205,-0.013775,-0.018125,0.019998,0.0041626,0.010657,-0.12233,-0.0080481,0.0013091,0.018783,0.11858
-0.010152,-0.0069902,0.0099592,0.027258,0.15282,0.28548,0.014466,-0.18467,0.0027906,0.017308,0.023738,-0.0032989,0.036437,0.05544,-0.012147,-0.023076,0.026041,0.0074233,0.0084986,-0.14279,-0.0041414,0.013463,0.014667,0.10796
-0.017138,-0.0079817,0.0060963,0.025316,0.16349,0.2881,-0.010912,-0.16316,-0.0017376,0.0029463,0.024701,-0.015997,0.0408,0.053327,-0.012316,-0.028566,0.024937,0.013742,0.0046848,-0.17109,0.0019564,0.022086,0.011166,0.099727
-0.019595,-0.0067289,0.0043696,0.023002,0.16201,0.28996,-0.031681,-0.14793,-0.0050761,-0.0094011,0.02622,-0.028124,0.034017,0.041472,-0.014677,-0.03221,0.017597,0.018025,0.0013348,-0.20512,0.0076789,0.025177,0.01124,0.094225
-0.016941,-0.0060141,0.004809,0.020976,0.14817,0.28953,-0.042437,-0.14388,-0.0068829,-0.015012,0.02635,-0.036888,0.01793,0.024741,-0.018311,-0.032924,0.0082477,0.017535,-0.00014107,-0.24101,0.012008,0.02602,0.01542,0.089353
-0.011667,-0.007215,0.0060247,0.018908,0.12345,0.28323,-0.043161,-0.14913,-0.0075356,-0.012299,0.024516,-0.04021,0.00036621,0.0082579,-0.021676,-0.031525,0.0011983,0.013918,0.00054689,-0.27381,0.01549,0.02993,0.021299,0.083225
-0.0074626,-0.0094593,0.006628,0.016374,0.089252,0.26916,-0.038996,-0.15887,-0.0081733,-0.0045213,0.022102,-0.038196,-0.010816,-0.0062214,-0.02371,-0.030214,-0.0018481,0.011089,0.0028126,-0.29846,0.018805,0.039332,0.025209,0.076025
-0.0063974,-0.010828,0.0066616,0.013853,0.046762,0.24981,-0.035888,-0.16952,-0.010141,0.001858,0.021394,-0.033198,-0.013423,-0.020703,-0.024426,-0.03128,-0.002072,0.011303,0.0056128,-0.31071,0.021502,0.051231,0.024828,0.069488
-0.0074381,-0.010187,0.0074396,0.012487,-0.00071717,0.23114,-0.035716,-0.17982,-0.014005,0.0013355,0.023592,-0.028358,-0.011667,-0.038006,-0.024626,-0.035799,-0.0017759,0.013185,0.0078476,-0.30778,0.022195,0.059149,0.020786,0.065013
-0.0075865,-0.0078163,0.0097578,0.012656,-0.045643,0.21857,-0.035029,-0.18882,-0.018843,-0.0068991,0.027478,-0.02582,-0.011679,-0.058034,-0.0251,-0.043148,-0.0024525,0.013361,0.0088849,-0.28855,0.019946,0.057994,0.016085,0.062641
-0.0047309,-0.0044785,0.012338,0.012932,-0.077806,0.2131,-0.028565,-0.1941,-0.022504,-0.018504,0.029973,-0.025942,-0.015964,-0.076401,-0.02602,-0.05159,-0.0041743,0.0098429,0.0091525,-0.25341,0.015358,0.047962,0.01379,0.061859
0.00024077,-0.00028005,0.012459,0.010874,-0.089922,0.21099,-0.014596,-0.19263,-0.022837,-0.027159,0.028324,-0.027837,-0.021618,-0.086585,-0.026942,-0.05938,-0.0062454,0.0038568,0.010229,-0.20445,0.010164,0.034341,0.014759,0.063083
0.0039651,0.0051217,0.0085741,0.0053479,-0.082997,0.20734,0.0025214,-0.18329,-0.019138,-0.028882,0.022237,-0.030474,-0.023592,-0.084044,-0.027248,-0.065474,-0.0080025,-0.0014644,0.013864,-0.14609,0.0056645,0.023409,0.017174,0.067856
0.0033693,0.011039,0.0023585,-0.0017525,-0.066352,0.20071,0.015012,-0.16825,-0.012769,-0.024235,0.014209,-0.033276,-0.019803,-0.069171,-0.026556,-0.069363,-0.0089521,-0.0040266,0.020251,-0.085661,0.0016005,0.017729,0.018197,0.077242
-0.0017261,0.014792,-0.0021907,-0.0063619,-0.051429,0.19475,0.017488,-0.15139,-0.0064473,-0.017056,0.0078328,-0.035912,-0.013404,-0.046958,-0.024826,-0.070457,-0.0084946,-0.0044604,0.026936,-0.03257,-0.0032871,0.014585,0.016358,0.089847
-0.0084323,0.012936,-0.0022047,-0.005441,-0.044232,0.19516,0.011073,-0.13518,-0.0026,-0.011202,0.0055091,-0.037794,-0.010209,-0.023734,-0.022259,-0.06784,-0.0060261,-0.0050847,0.029732,0.0045733,-0.0094825,0.0088203,0.012671,0.10153
-0.013103,0.004283,0.0012742,9.2257e-005,-0.042704,0.20443,0.0024157,-0.11884,-0.0018685,-0.0080846,0.0073798,-0.037981,-0.013595,-0.0036183,-0.019169,-0.060703,-0.0016651,-0.0073863,0.02548,0.021856,-0.015537,-0.0022612,0.0095419,0.10749
-0.013978,-0.0078898,0.0041118,0.0054615,-0.040838,0.21888,-0.0014229,-0.099616,-0.0028306,-0.0066728,0.01199,-0.035658,-0.021395,0.012617,-0.015869,-0.048936,0.0031056,-0.010565,0.014691,0.022626,-0.018891,-0.015955,0.0085037,0.10532
-0.011863,-0.016914,0.0030403,0.0054916,-0.035123,0.23069,0.0021899,-0.075915,-0.003209,-0.0053015,0.017636,-0.030729,-0.027467,0.025699,-0.012407,-0.033216,0.00584,-0.012466,0.0018071,0.0165,-0.018109,-0.025739,0.0088474,0.096804
-0.0085323,-0.016955,-0.00097074,-0.0012227,-0.027125,0.23371,0.010726,-0.049378,-0.0017315,-0.0033706,0.023048,-0.023974,-0.026634,0.03505,-0.0082283,-0.014555,0.0046743,-0.011791,-0.0074556,0.014678,-0.014407,-0.026283,0.0084313,0.087007
-0.0046833,-0.0072448,-0.0033696,-0.010905,-0.020315,0.22818,0.019757,-0.023981,0.00081515,-0.0015636,0.027186,-0.016664,-0.018815,0.037906,-0.0021638,0.0059845,-9.5865e-005,-0.009332,-0.0097904,0.024035,-0.0109,-0.017935,0.0059172,0.081229
0.00052445,0.0072762,-0.00033757,-0.017215,-0.015264,0.22017,0.02661,-0.0031013,0.0023083,-0.00080496,0.029035,-0.0099424,-0.008986,0.031492,0.0068754,0.026937,-0.0058633,-0.0070679,-0.0061775,0.043603,-0.010088,-0.0069427,0.0022943,0.081919
0.008049,0.019689,0.0072682,-0.015848,-0.0088029,0.21615,0.030958,0.012611,0.0013344,-0.0011643,0.028155,-0.004379,-0.0030975,0.016408,0.018692,0.045904,-0.009419,-0.0062299,-0.00061406,0.065663,-0.011839,-0.0010725,0.00013583,0.087595
0.017268,0.026199,0.014208,-0.0074731,0.0017465,0.21709,0.032347,0.024542,-0.0011623,-0.0016475,0.025491,0.00014655,-0.003387,-0.0020816,0.031073,0.059897,-0.0093322,-0.0063934,0.0030944,0.080702,-0.013707,-0.004037,0.0011465,0.094314
0.025773,0.028335,0.015275,0.0031086,0.013958,0.21722,0.02786,0.033275,-0.002243,-0.00087449,0.023248,0.0042652,-0.006877,-0.016648,0.040589,0.0669,-0.007038,-0.0064788,0.0038698,0.083009,-0.013303,-0.013154,0.0042621,0.098454
0.030892,0.030447,0.0097859,0.010624,0.020934,0.20876,0.013067,0.036396,0.00067046,0.0019778,0.023367,0.0087143,-0.0081545,-0.022779,0.04488,0.067607,-0.0056071,-0.0064649,0.0034677,0.073497,-0.010545,-0.021977,0.0062164,0.098707
0.03153,0.034878,0.0020019,0.012781,0.017628,0.18863,-0.013974,0.029245,0.0073355,0.0065577,0.02575,0.013789,-0.0040595,-0.022045,0.0449,0.065651,-0.0071599,-0.007853,0.0045174,0.058329,-0.0077589,-0.025512,0.0042819,0.095963
0.028777,0.039258,-0.0027701,0.011107,0.0071537,0.16174,-0.049163,0.0082938,0.014364,0.011324,0.027995,0.018874,0.0035492,-0.020865,0.044981,0.065601,-0.011169,-0.012237,0.0083072,0.044645,-0.0075604,-0.023609,-0.0011997,0.091494
0.024886,0.038414,-0.0026731,0.0091447,0.00059948,0.13792,-0.082914,-0.025509,0.017595,0.014196,0.02719,0.022424,0.0091467,-0.025459,0.049961,0.069947,-0.015162,-0.019345,0.013887,0.036262,-0.010407,-0.019975,-0.0068842,0.085158
0.02161,0.029191,-0.00032048,0.009796,0.0096335,0.12513,-0.10516,-0.066222,0.015372,0.013749,0.022362,0.022682,0.0079006,-0.036902,0.061128,0.077384,-0.017154,-0.026538,0.018757,0.031965,-0.013953,-0.018158,-0.0092377,0.075227
0.019137,0.013789,0.00023064,0.013685,0.038088,0.12436,-0.11133,-0.10573,0.010011,0.010437,0.015434,0.018924,-0.00043265,-0.05016,0.07426,0.083853,-0.017448,-0.030401,0.020369,0.02728,-0.014755,-0.018319,-0.0077232,0.06008
0.016244,-0.001503,-0.0026532,0.019065,0.079913,0.12999,-0.10492,-0.13773,0.006177,0.0069126,0.0098621,0.012483,-0.011113,-0.057843,0.08188,0.085649,-0.018055,-0.029068,0.01749,0.018437,-0.010923,-0.017596,-0.0054983,0.040458
0.011355,-0.011154,-0.0071392,0.02275,0.12504,0.13488,-0.094629,-0.16007,0.0074192,0.0067414,0.0082009,0.0066636,-0.017784,-0.05566,0.078547,0.0822,-0.020266,-0.023297,0.010873,0.0058067,-0.0036285,-0.013422,-0.0068757,0.020491
0.0037984,-0.014584,-0.01031,0.02148,0.16729,0.13554,-0.088549,-0.1738,0.013583,0.011943,0.010638,0.0051951,-0.01695,-0.045353,0.065171,0.076319,-0.022815,-0.015487,0.003003,-0.005674,0.0036163,-0.0065643,-0.013678,0.0064628
-0.0054488,-0.016021,-0.011213,0.013478,0.20684,0.13353,-0.089698,-0.18042,0.021026,0.021039,0.015429,0.0099355,-0.010154,-0.033024,0.048695,0.071734,-0.022597,-0.0076415,-0.0030722,-0.0096284,0.0072854,-0.0010321,-0.023651,0.0038106
-0.013952,-0.020201,-0.011462,-0.0001683,0.24518,0.13227,-0.095852,-0.17968,0.025298,0.029395,0.020381,0.019302,-0.0023603,-0.024396,0.037015,0.069862,-0.017451,-9.2578e-005,-0.0053893,-0.0028392,0.0060638,-0.00087748,-0.032297,0.014121
-0.018992,-0.027787,-0.01301,-0.015239,0.27845,0.13279,-0.10303,-0.16997,0.024142,0.032069,0.023922,0.028689,0.0020007,-0.020727,0.033004,0.068419,-0.0084695,0.008056,-0.0043009,0.012046,0.0015216,-0.006647,-0.036425,0.034125
-0.019178,-0.034661,-0.015637,-0.026115,0.29656,0.13217,-0.10918,-0.15063,0.018728,0.027215,0.025165,0.032888,0.0021138,-0.018294,0.03242,0.063062,0.00042277,0.017317,-0.0023739,0.027864,-0.0030592,-0.014548,-0.036266,0.057577
-0.015508,-0.03578,-0.016852,-0.029038,0.29021,0.12595,-0.115,-0.12392,0.012485,0.017372,0.023548,0.029055,0.00070655,-0.011487,0.027468,0.050848,0.0053621,0.026523,-0.0028196,0.037457,-0.0048105,-0.019143,-0.03444,0.078932
-0.010985,-0.030202,-0.014317,-0.024762,0.25964,0.11229,-0.12182,-0.094397,0.0086192,0.007504,0.01887,0.018302,0.0011616,0.0029706,0.013197,0.032851,0.005391,0.032976,-0.0074093,0.03804,-0.0029662,-0.017472,-0.033033,0.09623
-0.0088014,-0.022695,-0.008347,-0.018233,0.21662,0.094074,-0.12888,-0.066184,0.0080754,0.0013726,0.011743,0.0049238,0.0044088,0.023652,-0.0083931,0.0139,0.0027588,0.03402,-0.015293,0.032222,0.00091668,-0.011303,-0.031758,0.11092
-0.010244,-0.020278,-0.0019874,-0.015017,0.17703,0.077262,-0.13307,-0.040527,0.0092044,-0.00078775,0.00383,-0.0060853,0.0082226,0.045355,-0.029709,-0.00035463,0.0005098,0.028915,-0.023522,0.025216,0.004276,-0.0056613,-0.028876,0.12476
-0.013897,-0.026462,0.0013748,-0.017051,0.14968,0.06674,-0.13116,-0.016151,0.0091808,-0.0014737,-0.0026004,-0.011509,0.0094231,0.062465,-0.043107,-0.0068116,-0.0003741,0.019635,-0.028875,0.020686,0.0054755,-0.0047777,-0.023794,0.1365
-0.01684,-0.038142,0.0005682,-0.021231,0.13102,0.063091,-0.1227,0.0077547,0.006136,-0.0029792,-0.0055764,-0.010972,0.0069986,0.072456,-0.046121,-0.0062563,-0.0016976,0.0098508,-0.029733,0.018501,0.0049821,-0.0086698,-0.018555,0.14153
-0.016965,-0.047892,-0.0029236,-0.022181,0.1101,0.062683,-0.11091,0.028834,0.00053341,-0.0051239,-0.0042325,-0.0063987,0.003403,0.07723,-0.042415,-0.0019726,-0.0061026,0.0025696,-0.026851,0.015737,0.0049121,-0.013075,-0.016613,0.13525
-0.014561,-0.049839,-0.0067282,-0.016956,0.079337,0.060759,-0.10093,0.042126,-0.0051669,-0.0056721,0.00083066,-0.00073054,0.0028296,0.081387,-0.038196,0.0029137,-0.014358,-0.0019994,-0.022711,0.0095841,0.0072526,-0.012762,-0.019991,0.11725
-0.011891,-0.044168,-0.0095761,-0.007687,0.04185,0.054886,-0.09707,0.043813,-0.0083077,-0.0028615,0.0076418,0.0031996,0.0078116,0.088485,-0.037352,0.0071111,-0.024404,-0.0066805,-0.019974,-0.00047934,0.012121,-0.0055475,-0.027504,0.092494
-0.011142,-0.036485,-0.011627,2.629e-005,0.0092801,0.046105,-0.10114,0.034746,-0.0079417,0.0024814,0.013393,0.0033679,0.01691,0.097793,-0.039173,0.010794,-0.032915,-0.015147,-0.020055,-0.012768,0.017481,0.0060803,-0.035659,0.067952
-0.012497,-0.032733,-0.013211,0.0014793,-0.0075258,0.037121,-0.11277,0.02009,-0.0053609,0.0072554,0.015463,-0.00087246,0.025406,0.10403,-0.039934,0.014097,-0.037822,-0.028677,-0.022563,-0.025093,0.020629,0.016796,-0.041315,0.047214
-0.013966,-0.034131,-0.013748,-0.003737,-0.006904,0.029246,-0.13065,0.0050181,-0.0028609,0.0084853,0.0127,-0.0082745,0.028529,0.10069,-0.036424,0.016297,-0.03944,-0.044368,-0.025813,-0.036192,0.020326,0.022025,-0.043715,0.027575
-0.013047,-0.036521,-0.012252,-0.011868,0.0029298,0.02059,-0.15335,-0.0096197,-0.0018325,0.0055771,0.0062326,-0.015749,0.024773,0.084863,-0.028291,0.01664,-0.039389,-0.056529,-0.02795,-0.045682,0.017821,0.020492,-0.044353,0.0020402
-0.0088384,-0.034497,-0.0088849,-0.018016,0.010715,0.006931,-0.17894,-0.027286,-0.0018378,0.0005326,-0.00097204,-0.019639,0.01681,0.060056,-0.017587,0.015918,-0.038686,-0.060544,-0.027959,-0.053036,0.015847,0.014164,-0.045306,-0.03544
-0.0028304,-0.026525,-0.0056663,-0.01924,0.010285,-0.015353,-0.20441,-0.051004,-0.0013956,-0.0037612,-0.0058018,-0.018021,0.009409,0.034481,-0.0065037,0.016936,-0.037055,-0.056293,-0.026063,-0.05711,0.016316,0.0062439,-0.047816,-0.085756
0.0021676,-0.016509,-0.0051815,-0.015549,0.0034811,-0.046242,-0.22585,-0.078243,0.00040624,-0.0054518,-0.0068205,-0.012616,0.0060096,0.015745,0.0044258,0.022832,-0.034077,-0.048354,-0.02348,-0.05701,0.018596,-0.00087769,-0.052167,-0.14446
0.0040373,-0.010509,-0.0082501,-0.00886,-0.0036216,-0.080905,-0.23974,-0.10064,0.0030751,-0.0043844,-0.0048682,-0.0085437,0.0065933,0.0058351,0.016177,0.034243,-0.030706,-0.042698,-0.021816,-0.053506,0.019908,-0.0063831,-0.058272,-0.20496
0.0026708,-0.011617,-0.012789,-0.0014984,-0.0070613,-0.11122,-0.24462,-0.10952,0.0053917,-0.0015506,-0.0020585,-0.011446,0.0083048,0.00036346,0.029643,0.047688,-0.029195,-0.04254,-0.022379,-0.049297,0.017674,-0.010551,-0.065794,-0.26162
-0.00032006,-0.017491,-0.015157,0.0046328,-0.0083391,-0.12933,-0.24189,-0.10266,0.0067476,0.0016566,-0.00014611,-0.023636,0.0080735,-0.0072812,0.044288,0.057021,-0.031148,-0.046622,-0.025591,-0.047392,0.011948,-0.013923,-0.073592,-0.31038
-0.0030493,-0.022565,-0.012984,0.0083447,-0.012499,-0.13152,-0.23509,-0.086196,0.0076379,0.0037825,0.00036384,-0.042114,0.0049453,-0.020281,0.058321,0.057468,-0.035567,-0.05104,-0.030696,-0.048754,0.0058357,-0.016764,-0.079467,-0.34707
-0.0046377,-0.022811,-0.007116,0.0094839,-0.023301,-0.1205,-0.22791,-0.069647,0.0087888,0.003618,-0.00013204,-0.060174,0.00028117,-0.035905,0.070093,0.049477,-0.039092,-0.052708,-0.036013,-0.051333,0.0033934,-0.018842,-0.081185,-0.36657
-0.0053619,-0.018823,-0.0010512,0.0091496,-0.039876,-0.10467,-0.22176,-0.05816,0.0099626,0.0009439,-0.0012132,-0.071609,-0.0040194,-0.048108,0.07934,0.039252,-0.038648,-0.051379,-0.039797,-0.051583,0.0065996,-0.019406,-0.078289,-0.36475
-0.0058462,-0.014687,0.0015735,0.0091212,-0.057417,-0.094624,-0.21451,-0.048534,0.0099075,-0.0027516,-0.0028305,-0.07438,-0.0073682,-0.05274,0.087057,0.035025,-0.0342,-0.048821,-0.041266,-0.047353,0.013838,-0.017458,-0.073027,-0.34212
-0.0062794,-0.013901,-0.00055684,0.010424,-0.070891,-0.098403,-0.20133,-0.032486,0.0076881,-0.004694,-0.0049592,-0.071033,-0.010635,-0.050791,0.094016,0.041374,-0.028955,-0.04642,-0.041091,-0.039666,0.021086,-0.012471,-0.069179,-0.30573
-0.0063754,-0.016106,-0.0057806,0.012179,-0.078538,-0.11805,-0.17774,-0.0043601,0.0040318,-0.0027132,-0.0071199,-0.065815,-0.014661,-0.047142,0.099162,0.055647,-0.026588,-0.043741,-0.040895,-0.031782,0.024751,-0.0051901,-0.069386,-0.2667
-0.0058559,-0.017478,-0.010818,0.012118,-0.082559,-0.14926,-0.14334,0.033121,0.0011355,0.00271,-0.008439,-0.061094,-0.018929,-0.046347,0.09928,0.069328,-0.027939,-0.039359,-0.042095,-0.02633,0.023827,0.002245,-0.073112,-0.23405
-0.0047084,-0.014247,-0.012971,0.0087556,-0.086932,-0.18419,-0.10379,0.069707,0.00088141,0.0082092,-0.00825,-0.056057,-0.021995,-0.049405,0.090481,0.073619,-0.030277,-0.032976,-0.044953,-0.022955,0.019874,0.007288,-0.076967,-0.20939
-0.0029161,-0.0061453,-0.011685,0.0033891,-0.094398,-0.21545,-0.069084,0.09425,0.0030956,0.0097264,-0.0066685,-0.04849,-0.023319,-0.054108,0.070693,0.065453,-0.029908,-0.026648,-0.048445,-0.018519,0.015348,0.0085525,-0.077145,-0.18673
-0.00018005,0.003188,-0.0086207,-0.00017892,-0.10494,-0.23891,-0.048542,0.10193,0.0055621,0.0055169,-0.0046539,-0.037732,-0.024468,-0.058006,0.041577,0.049737,-0.025694,-0.023756,-0.050865,-0.0096715,0.012059,0.0067466,-0.071997,-0.15797
0.0037284,0.0090241,-0.006373,0.0015385,-0.11659,-0.25405,-0.045398,0.096794,0.0058609,-0.0025326,-0.0035596,-0.026068,-0.028134,-0.06075,0.0084745,0.036355,-0.020166,-0.026378,-0.050638,0.0043671,0.010924,0.0041815,-0.062761,-0.12019
0.0081669,0.0090801,-0.0067064,0.0085313,-0.12746,-0.26228,-0.054784,0.088327,0.0033625,-0.010329,-0.0044881,-0.017351,-0.035649,-0.063506,-0.021875,0.034069,-0.017123,-0.033192,-0.04693,0.02103,0.012534,0.0032392,-0.052189,-0.079078
0.011349,0.0048866,-0.0094074,0.016611,-0.13737,-0.26521,-0.066802,0.085017,-0.00040241,-0.014423,-0.0077206,-0.01411,-0.045418,-0.066168,-0.044717,0.045342,-0.018021,-0.039731,-0.04006,0.036188,0.017237,0.0050112,-0.042515,-0.045576
0.011274,0.00012888,-0.012495,0.020162,-0.14769,-0.26417,-0.072803,0.089657,-0.0032126,-0.013957,-0.012406,-0.015612,-0.054001,-0.065284,-0.059776,0.065178,-0.020624,-0.04113,-0.03171,0.04704,0.024319,0.0090249,-0.03449,-0.028014
0.0072947,-0.002413,-0.013662,0.016292,-0.15989,-0.26071,-0.07051,0.099149,-0.0040148,-0.010517,-0.016732,-0.018477,-0.058985,-0.055114,-0.071204,0.084241,-0.021221,-0.035541,-0.024612,0.053946,0.031372,0.013948,-0.027943,-0.025795
0.00087648,-0.0028111,-0.011972,0.0070211,-0.17399,-0.25702,-0.064386,0.10817,-0.0035264,-0.0066171,-0.01875,-0.019297,-0.060942,-0.031482,-0.084726,0.093975,-0.018259,-0.025663,-0.02138,0.059944,0.03521,0.018465,-0.022836,-0.029751
-0.0053141,-0.0034737,-0.0085762,-0.0022858,-0.18813,-0.25513,-0.061272,0.11359,-0.0032667,-0.0042952,-0.017576,-0.017117,-0.062496,0.004373,-0.10349,0.090729,-0.013873,-0.017062,-0.022897,0.068399,0.03418,0.021722,-0.019508,-0.02922
-0.0092753,-0.006825,-0.0058809,-0.0069112,-0.19957,-0.25558,-0.064872,0.11659,-0.0041502,-0.0045373,-0.014134,-0.013793,-0.065279,0.045078,-0.12521,0.077042,-0.011814,-0.014266,-0.027432,0.080464,0.029925,0.0234,-0.017889,-0.020536
-0.010815,-0.01307,-0.0057245,-0.0059538,-0.20644,-0.25671,-0.07336,0.12126,-0.0059653,-0.0071921,-0.010673,-0.011942,-0.067607,0.08055,-0.14249,0.060078,-0.013779,-0.017492,-0.031551,0.094076,0.026599,0.023708,-0.016723,-0.010158
-0.010973,-0.019668,-0.0079158,-0.0023376,-0.20899,-0.25578,-0.081607,0.13105,-0.0079716,-0.010989,-0.0091849,-0.012179,-0.065148,0.10353,-0.14671,0.048576,-0.017607,-0.022481,-0.032465,0.10517,0.027624,0.02332,-0.014004,-0.0097146
-0.010439,-0.022821,-0.010296,-0.00010796,-0.21007,-0.25139,-0.085847,0.14551,-0.0097248,-0.013927,-0.0099259,-0.011945,-0.054191,0.11347,-0.13305,0.049755,-0.019048,-0.023587,-0.03001,0.11029,0.032582,0.022951,-0.0085779,-0.026641
-0.0086565,-0.019937,-0.010396,-0.0015348,-0.2145,-0.24531,-0.086828,0.15955,-0.011207,-0.014435,-0.011338,-0.0070219,-0.034859,0.11588,-0.10378,0.066986,-0.015418,-0.017744,-0.02649,0.109,0.037101,0.022648,-0.0015154,-0.057821
-0.0045929,-0.011431,-0.0075108,-0.0062079,-0.22773,-0.24207,-0.08905,0.16576,-0.012315,-0.012806,-0.011484,0.0053076,-0.011709,0.11759,-0.067381,0.098346,-0.0078474,-0.0063734,-0.024413,0.10436,0.036202,0.021412,0.0042835,-0.091307
0.0016381,-0.00069215,-0.0035448,-0.012198,-0.25353,-0.24621,-0.096891,0.15866,-0.012555,-0.011505,-0.0096848,0.023862,0.0086824,0.12136,-0.034045,0.13625,-0.00025566,0.005924,-0.024156,0.10139,0.028492,0.017823,0.0062656,-0.11466
0.0080356,0.0078159,-0.0017709,-0.017653,-0.29122,-0.25892,-0.11074,0.13848,-0.011511,-0.013482,-0.0068544,0.043781,0.021287,0.12414,-0.010361,0.16888,0.0038058,0.014542,-0.023786,0.1042,0.017591,0.011452,0.0044224,-0.12311
0.011793,0.011122,-0.0042307,-0.021389,-0.33366,-0.27643,-0.12595,0.11218,-0.0095971,-0.019499,-0.0043037,0.059226,0.024976,0.12043,0.0031958,0.18394,0.0036434,0.017468,-0.021266,0.11382,0.0094522,0.0038658,0.0014304,-0.12123
0.011332,0.0093328,-0.0097707,-0.022554,-0.36782,-0.29144,-0.13533,0.090817,-0.0080456,-0.02684,-0.0023177,0.066617,0.02246,0.10776,0.010548,0.17419,0.0013509,0.015771,-0.016934,0.12768,0.0076956,-0.001933,0.00035914,-0.11729
0.0074451,0.0052435,-0.014482,-0.020457,-0.37922,-0.29663,-0.13313,0.084309,-0.007824,-0.030951,7.2844e-006,0.066231,0.018321,0.089671,0.015747,0.14179,-0.00035178,0.012187,-0.013689,0.14124,0.010831,-0.0035079,0.0018747,-0.11577
0.0025227,0.0023233,-0.014527,-0.015169,-0.35873,-0.28809,-0.11806,0.096599,-0.0084288,-0.028895,0.0035446,0.061392,0.016495,0.073189,0.019713,0.098325,-0.00034986,0.0091134,-0.014483,0.15049,0.013623,-0.00090802,0.0035437,-0.11423
-0.0013478,0.0025159,-0.0092864,-0.0082175,-0.30811,-0.26657,-0.093378,0.12432,-0.0079463,-0.021602,0.0079003,0.056222,0.018492,0.063132,0.020402,0.059278,0.00023458,0.0072495,-0.019323,0.15406,0.011381,0.0031587,0.0020552,-0.10661
-0.0035958,0.00531,-0.0022038,-0.0022546,-0.24033,-0.23623,-0.064328,0.15987,-0.0046401,-0.012782,0.011564,0.053625,0.02305,0.058121,0.015753,0.035548,-0.0008405,0.005462,-0.024679,0.15361,0.0036011,0.0051938,-0.0035557,-0.08921
-0.004655,0.0085401,0.0016132,0.00041944,-0.1737,-0.20228,-0.03484,0.1967,0.0013072,-0.0054908,0.01338,0.054577,0.027278,0.052101,0.0064207,0.027494,-0.0051394,0.0018277,-0.02604,0.15248,-0.005903,0.0033921,-0.010682,-0.064074
-0.0044609,0.010168,-0.00070287,-0.00068153,-0.12299,-0.16933,-0.005808,0.2327,0.0076588,0.00037748,0.013813,0.0586,0.028702,0.040162,-0.0042508,0.025605,-0.012301,-0.0047037,-0.021473,0.15347,-0.012273,-0.0012259,-0.015174,-0.037143
-0.001714,0.0097417,-0.0075046,-0.0041129,-0.092855,-0.14105,0.024009,0.26924,0.01192,0.0072132,0.014606,0.064667,0.027055,0.023534,-0.012726,0.017379,-0.019989,-0.013031,-0.013065,0.15713,-0.013474,-0.0058676,-0.014866,-0.013715
0.0051002,0.0086189,-0.013902,-0.0078231,-0.077737,-0.12035,0.055337,0.30704,0.013439,0.016294,0.017033,0.071856,0.02455,0.0092229,-0.017693,-0.0044922,-0.025008,-0.020059,-0.0050691,0.16175,-0.011683,-0.0082526,-0.011372,0.0045393
0.015768,0.0089278,-0.015578,-0.010692,-0.067443,-0.10898,0.086139,0.34296,0.013753,0.02527,0.020439,0.079578,0.024235,0.0044155,-0.020155,-0.038364,-0.025043,-0.022537,-0.00053982,0.16484,-0.011265,-0.0082537,-0.0084894,0.018814
0.027394,0.012035,-0.012023,-0.012985,-0.054128,-0.10647,0.11159,0.37117,0.014777,0.029206,0.022566,0.087467,0.027495,0.010398,-0.021512,-0.076424,-0.020158,-0.019455,0.00057783,0.16495,-0.015093,-0.0076996,-0.0086395,0.030281
0.035599,0.017482,-0.006627,-0.015559,-0.035777,-0.10959,0.12644,0.38778,0.016635,0.024471,0.021457,0.09508,0.032686,0.021223,-0.021961,-0.11114,-0.013088,-0.013067,0.00050755,0.16238,-0.02217,-0.0087139,-0.010607,0.03841
0.037125,0.023008,-0.0037441,-0.018753,-0.014767,-0.11344,0.12814,0.39457,0.017386,0.01202,0.017191,0.10155,0.036203,0.028291,-0.020928,-0.14009,-0.0078854,-0.0074517,0.0011472,0.15852,-0.028339,-0.012041,-0.010604,0.042068
0.031833,0.025633,-0.0052999,-0.02191,0.0058994,-0.11404,0.11862,0.39781,0.015039,-0.0029979,0.011848,0.10551,0.035336,0.026947,-0.01879,-0.16585,-0.0075104,-0.0055377,0.0024889,0.15462,-0.029499,-0.016576,-0.0056934,0.04184
0.022577,0.023199,-0.0096644,-0.023678,0.024757,-0.11051,0.10366,0.40283,0.0098631,-0.01508,0.0078094,0.10551,0.030577,0.019522,-0.0176,-0.19204,-0.011913,-0.0070542,0.0031586,0.15142,-0.024791,-0.020197,0.003506,0.040808
0.013235,0.015513,-0.013374,-0.022607,0.040917,-0.10505,0.090445,0.4089,0.0044698,-0.022427,0.0060573,0.10094,0.025349,0.01237,-0.019696,-0.2196,-0.018066,-0.0091775,0.0021034,0.14972,-0.017269,-0.02107,0.013205,0.04271
0.0065397,0.0044814,-0.013944,-0.017746,0.051964,-0.10058,0.084753,0.40948,0.0013327,-0.027796,0.0059815,0.092772,0.023224,0.0096123,-0.025684,-0.24668,-0.022089,-0.00929,-0.0004067,0.15105,-0.011538,-0.01854,0.019522,0.049196
0.003207,-0.0067995,-0.011426,-0.0093308,0.053919,-0.098192,0.088957,0.39802,0.00010726,-0.035477,0.006606,0.083515,0.024933,0.0091093,-0.034293,-0.27178,-0.021933,-0.0072896,-0.0032303,0.15703,-0.010196,-0.013243,0.02153,0.058844
0.0025117,-0.015416,-0.0077891,0.0004949,0.044216,-0.096616,0.10138,0.37443,-0.0023472,-0.046978,0.0077385,0.075987,0.02768,0.0042296,-0.044633,-0.29679,-0.018566,-0.0052932,-0.0054311,0.16775,-0.011925,-0.0066279,0.02164,0.068842
0.003359,-0.019716,-0.0050998,0.0076241,0.025176,-0.094356,0.11694,0.34686,-0.0088479,-0.05901,0.0098043,0.071696,0.027288,-0.010089,-0.058403,-0.32626,-0.01474,-0.0050766,-0.0067619,0.18067,-0.012796,-0.00019101,0.023103,0.077684
0.0048755,-0.019658,-0.0041655,0.0075002,0.0043814,-0.092247,0.12919,0.32694,-0.018507,-0.065483,0.012694,0.069907,0.021329,-0.032252,-0.078976,-0.36288,-0.012499,-0.0058127,-0.0073218,0.19171,-0.0097447,0.005231,0.026962,0.086289
0.0063978,-0.016547,-0.0044931,-0.0020206,-0.0092361,-0.093671,0.13327,0.32271,-0.026582,-0.062026,0.015113,0.06819,0.010672,-0.054466,-0.10725,-0.40278,-0.011619,-0.0044338,-0.0071697,0.19782,-0.0033704,0.0097544,0.031201,0.096588
0.0073845,-0.012525,-0.0051038,-0.01834,-0.010907,-0.10168,0.12879,0.3345,-0.028181,-0.04957,0.015389,0.064139,-0.0015594,-0.068586,-0.13792,-0.43486,-0.01031,0.0015597,-0.0065197,0.19892,0.002294,0.01404,0.032819,0.10898
0.007623,-0.0099637,-0.0052415,-0.03466,-0.0028108,-0.11537,0.12045,0.35636,-0.022631,-0.034225,0.01304,0.05709,-0.012404,-0.072534,-0.16056,-0.44594,-0.0073693,0.0114,-0.0061349,0.19718,0.0029275,0.018346,0.030792,0.12102
0.0074809,-0.010656,-0.0045221,-0.043897,0.0080575,-0.12903,0.11549,0.38049,-0.014397,-0.023456,0.0093883,0.048572,-0.020723,-0.071848,-0.16592,-0.42865,-0.0036355,0.020987,-0.0070389,0.19435,-0.0025357,0.021798,0.027076,0.12848
0.0076825,-0.014829,-0.0028311,-0.043518,0.015124,-0.1355,0.11889,0.40069,-0.0094886,-0.021342,0.0063999,0.04119,-0.026985,-0.074932,-0.15306,-0.38669,-0.001298,0.025619,-0.0094362,0.18979,-0.010823,0.022662,0.024658,0.12776
0.0085578,-0.020568,-0.00041488,-0.037407,0.016328,-0.13153,0.12958,0.41267,-0.010559,-0.026322,0.0047855,0.036681,-0.031842,-0.085924,-0.13111,-0.33343,-0.0017481,0.023232,-0.011917,0.18143,-0.016573,0.019671,0.02456,0.11781
0.0094122,-0.024498,0.0019013,-0.032837,0.014062,-0.12064,0.14062,0.41284,-0.015117,-0.0329,0.0033778,0.034526,-0.035011,-0.10106,-0.1135,-0.28451,-0.0041539,0.015555,-0.012127,0.16877,-0.016146,0.013318,0.024813,0.10025
0.0087905,-0.023845,0.0028708,-0.034569,0.011628,-0.11103,0.14331,0.39835,-0.018324,-0.035777,0.00061683,0.032042,-0.035313,-0.11148,-0.10889,-0.24954,-0.0062828,0.006508,-0.0087096,0.15475,-0.010106,0.0058281,0.022499,0.077999
0.0056783,-0.018684,0.0015843,-0.040849,0.0097225,-0.1098,0.13238,0.36887,-0.017535,-0.033144,-0.0032498,0.025934,-0.031458,-0.10985,-0.11591,-0.22828,-0.0068533,-0.00060044,-0.0028132,0.14412,-0.0026194,-0.00044976,0.016864,0.053587
0.00071168,-0.012463,-0.0016971,-0.044789,0.0060843,-0.11788,0.1084,0.32845,-0.014299,-0.026848,-0.005673,0.014331,-0.022663,-0.095549,-0.12593,-0.21365,-0.0070525,-0.0048046,0.0024639,0.13949,0.0015575,-0.0049368,0.01028,0.028215
-0.0037829,-0.0098916,-0.0054989,-0.040275,-0.0016742,-0.12954,0.076145,0.28473,-0.012247,-0.019855,-0.0039657,-0.0019726,-0.0087382,-0.074386,-0.13105,-0.19862,-0.009525,-0.0071249,0.0044487,0.13851,0.00016037,-0.0092301,0.0058976,0.0017808
-0.005236,-0.013404,-0.0081415,-0.027606,-0.013069,-0.13659,0.040671,0.24566,-0.013268,-0.013621,0.0016571,-0.019838,0.0098652,-0.054062,-0.13041,-0.18142,-0.015605,-0.0088658,0.0030149,0.13534,-0.0055415,-0.015482,0.0042526,-0.026501
-0.0027819,-0.020973,-0.009013,-0.014108,-0.024725,-0.13418,0.0045137,0.21568,-0.015748,-0.0076952,0.0072397,-0.035481,0.031568,-0.039603,-0.12948,-0.16533,-0.023445,-0.010196,0.0004699,0.12523,-0.012139,-0.024136,0.0023887,-0.05726
0.0018824,-0.027262,-0.0089446,-0.0089572,-0.03363,-0.12396,-0.03233,0.19393,-0.016346,-0.0015743,0.0078271,-0.046496,0.053118,-0.032177,-0.13356,-0.15385,-0.029049,-0.010133,-0.00067633,0.10837,-0.016549,-0.033135,-0.0032537,-0.090094
0.0055838,-0.027444,-0.0093149,-0.016213,-0.040697,-0.11277,-0.070259,0.1752,-0.013282,0.0034022,0.0017907,-0.052926,0.070044,-0.030997,-0.14191,-0.14599,-0.029486,-0.0078017,8.6635e-005,0.089586,-0.017713,-0.03944,-0.012777,-0.12287
0.0060363,-0.020669,-0.01074,-0.031555,-0.051094,-0.10818,-0.1079,0.15242,-0.0079112,0.0042901,-0.0071441,-0.056735,0.078555,-0.035234,-0.14781,-0.13615,-0.02539,-0.0038263,0.0011449,0.074197,-0.016594,-0.041516,-0.0217,-0.15167
0.0037195,-0.010344,-0.012602,-0.04529,-0.070569,-0.1141,-0.14162,0.11943,-0.0033568,-0.0010546,-0.012405,-0.060091,0.077865,-0.043683,-0.14444,-0.11902,-0.020398,-0.00059925,0.0006436,0.063639,-0.014924,-0.040537,-0.02436,-0.17184
0.0017752,-0.0010544,-0.013779,-0.049242,-0.10069,-0.12919,-0.16706,0.07317,-0.0017947,-0.011617,-0.0098855,-0.063665,0.071016,-0.052989,-0.13093,-0.095251,-0.018027,-0.0010086,-0.0016485,0.054557,-0.013916,-0.039274,-0.019125,-0.17997
0.0038554,0.0051244,-0.013713,-0.042199,-0.13709,-0.14849,-0.18174,0.015094,-0.0030124,-0.023269,-0.0016004,-0.066118,0.063278,-0.057172,-0.11326,-0.072619,-0.018898,-0.0064184,-0.0043288,0.041917,-0.013789,-0.039823,-0.010668,-0.17586
0.011384,0.009727,-0.012699,-0.029957,-0.17222,-0.16664,-0.18711,-0.048875,-0.0052498,-0.031475,0.0056149,-0.065117,0.059269,-0.049974,-0.099299,-0.060901,-0.020786,-0.015444,-0.0059992,0.023341,-0.014122,-0.042287,-0.006902,-0.16299
0.022196,0.015566,-0.011232,-0.020322,-0.20037,-0.18035,-0.18848,-0.11062,-0.0070685,-0.034443,0.005472,-0.059149,0.061206,-0.028559,-0.09284,-0.064027,-0.021178,-0.024649,-0.0066586,0.001103,-0.014441,-0.045382,-0.01291,-0.14699
0.031604,0.023234,-0.0093981,-0.017281,-0.2206,-0.18875,-0.19216,-0.16396,-0.0082928,-0.034065,-0.0027902,-0.048877,0.069536,0.0044678,-0.091718,-0.075893,-0.019669,-0.030876,-0.0073739,-0.019586,-0.014507,-0.047985,-0.026956,-0.13294
0.035268,0.029748,-0.0071809,-0.018805,-0.23551,-0.19207,-0.20101,-0.20836,-0.0093575,-0.03385,-0.013946,-0.037086,0.084781,0.042359,-0.09101,-0.083762,-0.017912,-0.033468,-0.0087176,-0.034328,-0.014254,-0.049882,-0.04195,-0.1234
0.031917,0.030676,-0.0053389,-0.019544,-0.24723,-0.19019,-0.21142,-0.24934,-0.010127,-0.035693,-0.021059,-0.027312,0.10816,0.07765,-0.087745,-0.077397,-0.017482,-0.034531,-0.0098089,-0.042339,-0.013652,-0.051111,-0.05108,-0.11821
0.023968,0.02395,-0.0055256,-0.015724,-0.25453,-0.18255,-0.21464,-0.29448,-0.0096251,-0.038221,-0.020728,-0.02217,0.13999,0.10497,-0.08267,-0.057398,-0.018026,-0.036792,-0.0090962,-0.046413,-0.012693,-0.050976,-0.05283,-0.11612
0.015557,0.011944,-0.0089353,-0.0081335,-0.25364,-0.16935,-0.20223,-0.34717,-0.0069374,-0.038026,-0.014994,-0.02255,0.17743,0.12162,-0.078,-0.036375,-0.017613,-0.040724,-0.0060944,-0.050586,-0.011472,-0.048174,-0.05132,-0.11625
0.0094399,-0.00011375,-0.014517,-0.0010562,-0.24182,-0.15276,-0.17225,-0.4027,-0.0022525,-0.032602,-0.0088408,-0.028089,0.21423,0.12652,-0.074085,-0.031499,-0.014765,-0.043459,-0.0022375,-0.05754,-0.010256,-0.042181,-0.052043,-0.11816
0.0051895,-0.0081634,-0.01882,0.001444,-0.22046,-0.13633,-0.13108,-0.44964,0.0030734,-0.022504,-0.0060204,-0.038229,0.24331,0.11935,-0.068659,-0.053049,-0.0099885,-0.040775,7.8205e-005,-0.067594,-0.009508,-0.034493,-0.056889,-0.12053
0.00020771,-0.012382,-0.018354,-0.0014979,-0.19476,-0.12257,-0.089147,-0.47627,0.0074251,-0.011127,-0.0069159,-0.052727,0.25993,0.10068,-0.059376,-0.096463,-0.0053006,-0.030849,-0.00066159,-0.079535,-0.0098919,-0.028273,-0.062711,-0.12002
-0.0072646,-0.016654,-0.012822,-0.0076141,-0.17033,-0.11012,-0.053706,-0.47738,0.0098539,-0.002522,-0.0096915,-0.071127,0.26268,0.072809,-0.046793,-0.14316,-0.0023499,-0.016606,-0.0040938,-0.092142,-0.01214,-0.026398,-0.064405,-0.11207
-0.0158,-0.024837,-0.0061617,-0.014011,-0.14948,-0.093348,-0.024256,-0.45687,0.010253,0.00090991,-0.012794,-0.091742,0.25173,0.039754,-0.03443,-0.1698,-0.0010291,-0.0042791,-0.0085852,-0.10494,-0.016598,-0.029439,-0.059629,-0.093645
-0.021411,-0.036987,-0.0039113,-0.01948,-0.1304,-0.065364,0.0057306,-0.42429,0.0089823,-0.00072853,-0.016062,-0.11129,0.22655,0.0063475,-0.025545,-0.16064,0.00022688,0.0011554,-0.012594,-0.11776,-0.022518,-0.035215,-0.051012,-0.066252
-0.020916,-0.048777,-0.0087664,-0.024578,-0.10976,-0.023318,0.042539,-0.38829,0.0066284,-0.0056029,-0.019728,-0.12582,0.18606,-0.023077,-0.019719,-0.11582,0.0029834,7.2217e-005,-0.015434,-0.12971,-0.027698,-0.040224,-0.044011,-0.036651
-0.015216,-0.054727,-0.018189,-0.029808,-0.086366,0.027764,0.086709,-0.35181,0.0040999,-0.011567,-0.023037,-0.13239,0.13111,-0.045477,-0.012813,-0.051501,0.0076226,-0.0018934,-0.017045,-0.13904,-0.029207,-0.041817,-0.042293,-0.014123
-0.0093621,-0.052668,-0.026368,-0.034081,-0.062775,0.075769,0.13263,-0.31207,0.0025003,-0.017151,-0.024434,-0.13048,0.066582,-0.059296,-0.00070395,0.0079403,0.013278,0.0014262,-0.017541,-0.14415,-0.025204,-0.039591,-0.044584,-0.0054738
-0.0089658,-0.045762,-0.028899,-0.035168,-0.043388,0.10728,0.17301,-0.26472,0.0023794,-0.02174,-0.023233,-0.12192,0.00019388,-0.064637,0.01654,0.040781,0.01855,0.011037,-0.017291,-0.14518,-0.016665,-0.035262,-0.045673,-0.010957
-0.015766,-0.040398,-0.026011,-0.031718,-0.030769,0.11505,0.20407,-0.20829,0.0029263,-0.025282,-0.020734,-0.10971,-0.061604,-0.063683,0.034028,0.03632,0.022181,0.021125,-0.017285,-0.14453,-0.0074297,-0.03135,-0.040815,-0.02417
-0.026164,-0.041589,-0.021525,-0.024817,-0.023258,0.10242,0.22716,-0.14607,0.0022126,-0.027917,-0.019208,-0.096384,-0.11703,-0.060708,0.045774,-0.0032392,0.02331,0.023392,-0.018865,-0.14546,-0.0020396,-0.029621,-0.029992,-0.036503
-0.034089,-0.04949,-0.018825,-0.017448,-0.015837,0.081463,0.24601,-0.084847,-0.0012417,-0.02974,-0.019528,-0.083204,-0.16847,-0.060805,0.049506,-0.067333,0.021529,0.014107,-0.022595,-0.14963,-0.0027595,-0.030157,-0.01853,-0.043344
-0.035801,-0.059668,-0.017869,-0.012276,-0.0034835,0.065981,0.26236,-0.032418,-0.0068252,-0.030674,-0.019974,-0.070441,-0.21838,-0.067411,0.048233,-0.14427,0.016996,-0.0021949,-0.027264,-0.15564,-0.0080843,-0.031483,-0.01342,-0.047451
-0.032522,-0.066667,-0.0161,-0.0097586,0.015644,0.063703,0.27383,0.004529,-0.011821,-0.030493,-0.017798,-0.058294,-0.26536,-0.08017,0.047269,-0.22603,0.010495,-0.01601,-0.030296,-0.16014,-0.013957,-0.031588,-0.018082,-0.05655
-0.02871,-0.067871,-0.012034,-0.0082987,0.039431,0.072582,0.27554,0.021766,-0.013335,-0.029026,-0.012305,-0.047454,-0.30405,-0.094976,0.049588,-0.30775,0.0031689,-0.020746,-0.029587,-0.16087,-0.016682,-0.029211,-0.029607,-0.076497
-0.027699,-0.064642,-0.0076429,-0.0062209,0.063642,0.083262,0.26407,0.018606,-0.010531,-0.026383,-0.0063429,-0.038778,-0.32884,-0.10657,0.053829,-0.38338,-0.0039884,-0.018416,-0.025234,-0.15914,-0.015198,-0.024575,-0.04067,-0.10511
-0.028709,-0.06017,-0.0068639,-0.0036714,0.084689,0.085619,0.24032,-0.0016116,-0.0051137,-0.022889,-0.0043536,-0.03243,-0.33786,-0.11191,0.056527,-0.44249,-0.01046,-0.017851,-0.019529,-0.15942,-0.011114,-0.0191,-0.044756,-0.13186
-0.027873,-0.056243,-0.011616,-0.0026304,0.10135,0.074809,0.20933,-0.032693,0.00029579,-0.018691,-0.008416,-0.027442,-0.33376,-0.1119,0.056058,-0.47274,-0.01605,-0.026632,-0.015176,-0.16594,-0.0069702,-0.01439,-0.040727,-0.14411
-0.022187,-0.051878,-0.019309,-0.0049441,0.11462,0.053068,0.17729,-0.068726,0.004184,-0.013424,-0.015928,-0.02241,-0.32071,-0.11012,0.054297,-0.46722,-0.020459,-0.043761,-0.013398,-0.1791,-0.0044452,-0.011313,-0.03322,-0.13547
-0.012663,-0.044943,-0.024511,-0.010084,0.12634,0.026873,0.1484,-0.10732,0.0066366,-0.0064538,-0.02134,-0.016967,-0.30069,-0.11001,0.054429,-0.4311,-0.023135,-0.059808,-0.013571,-0.19469,-0.0038834,-0.0099059,-0.028601,-0.10961
-0.0038187,-0.035136,-0.023418,-0.014681,0.13788,0.0023206,0.12369,-0.1501,0.0081673,0.0023503,-0.020668,-0.012792,-0.27264,-0.11271,0.05721,-0.3814,-0.023655,-0.064751,-0.01444,-0.20672,-0.0050075,-0.0099869,-0.029762,-0.076744
-7.5291e-005,-0.025439,-0.017048,-0.014491,0.14995,-0.017673,0.10261,-0.19938,0.0085758,0.012086,-0.014837,-0.013049,-0.23511,-0.11713,0.059456,-0.33834,-0.022278,-0.056736,-0.01542,-0.21165,-0.0077372,-0.011694,-0.034015,-0.045788
-0.0023794,-0.020478,-0.01028,-0.0075093,0.16337,-0.032847,0.085511,-0.25352,0.0073192,0.021231,-0.0087754,-0.020275,-0.18999,-0.1214,0.0563,-0.31421,-0.020077,-0.043939,-0.016691,-0.21057,-0.012259,-0.015254,-0.035769,-0.018887
-0.0079102,-0.023006,-0.0077163,0.0041351,0.1802,-0.04317,0.074949,-0.30526,0.0049365,0.02881,-0.0070306,-0.034134,-0.14399,-0.12416,0.045189,-0.30746,-0.01844,-0.03773,-0.018293,-0.20773,-0.018427,-0.020171,-0.031585,0.0074135
-0.012766,-0.03144,-0.01012,0.015122,0.20384,-0.047235,0.074629,-0.34524,0.0036302,0.035186,-0.0098069,-0.050812,-0.10644,-0.12446,0.028111,-0.30609,-0.018321,-0.043124,-0.019562,-0.20674,-0.025204,-0.024776,-0.023193,0.035959
-0.014943,-0.040583,-0.014381,0.020356,0.23761,-0.043002,0.086948,-0.36805,0.0058685,0.041534,-0.013011,-0.064748,-0.084871,-0.12121,0.010322,-0.29703,-0.019809,-0.054899,-0.019697,-0.20781,-0.030758,-0.026854,-0.01591,0.063727
-0.015068,-0.045014,-0.016585,0.018521,0.2822,-0.030006,0.11114,-0.37589,0.012068,0.04835,-0.012269,-0.071654,-0.0812,-0.11329,-0.0029299,-0.27411,-0.022193,-0.062637,-0.018808,-0.20802,-0.033264,-0.025012,-0.014034,0.082398
-0.01474,-0.042478,-0.01515,0.013049,0.33361,-0.010814,0.14337,-0.37636,0.019664,0.054492,-0.0073108,-0.070707,-0.09093,-0.10082,-0.008779,-0.23943,-0.024251,-0.059974,-0.018046,-0.20426,-0.031935,-0.019624,-0.017421,0.08431
-0.014523,-0.034769,-0.01144,0.0095789,0.38336,0.009718,0.17865,-0.37647,0.024762,0.057916,-0.0027845,-0.064297,-0.1056,-0.086005,-0.0066275,-0.199,-0.02455,-0.049758,-0.018459,-0.19595,-0.027585,-0.012481,-0.022155,0.068653
-0.013537,-0.02581,-0.0079313,0.011659,0.42157,0.026828,0.21292,-0.37797,0.02515,0.057643,-0.0046508,-0.055634,-0.11708,-0.072308,0.0034048,-0.15764,-0.021865,-0.040787,-0.019677,-0.18569,-0.022215,-0.005462,-0.024329,0.042743
-0.010734,-0.018772,-0.0061432,0.018044,0.4413,0.037952,0.24414,-0.37786,0.022066,0.054999,-0.015136,-0.046141,-0.12142,-0.061763,0.021192,-0.11736,-0.015882,-0.039459,-0.019975,-0.17731,-0.017702,0.00057004,-0.023202,0.017593
-0.0062655,-0.014455,-0.0061715,0.023805,0.44186,0.043129,0.27193,-0.37274,0.019134,0.052637,-0.030401,-0.034719,-0.12006,-0.052721,0.045441,-0.079139,-0.0078585,-0.044035,-0.017904,-0.17334,-0.014437,0.0057763,-0.021008,0.0015965
-0.0015085,-0.011649,-0.0076416,0.024405,0.42898,0.043879,0.29654,-0.36249,0.01929,0.051861,-0.0428,-0.019311,-0.11791,-0.040259,0.072015,-0.044954,-0.00045665,-0.046537,-0.013995,-0.17346,-0.011039,0.010472,-0.020126,-0.0028392
0.0021452,-0.0085508,-0.010469,0.019434,0.41201,0.041936,0.318,-0.34975,0.022211,0.050719,-0.045936,0.00080695,-0.1194,-0.019578,0.094193,-0.017326,0.0036758,-0.040272,-0.010778,-0.17498,-0.0056294,0.014388,-0.020751,0.0021088
0.0043715,-0.0039289,-0.014424,0.012973,0.39969,0.038874,0.33569,-0.3364,0.024359,0.045063,-0.038671,0.024058,-0.12529,0.0099614,0.10582,0.0031968,0.0038407,-0.026121,-0.010868,-0.17444,0.002211,0.016756,-0.021235,0.013627
0.0057791,0.0025041,-0.018208,0.010388,0.39663,0.036341,0.34811,-0.3212,0.02171,0.032257,-0.025366,0.047585,-0.13237,0.043379,0.10543,0.020047,0.0021257,-0.012153,-0.014729,-0.16928,0.010519,0.016993,-0.020289,0.030985
0.0068348,0.010119,-0.019575,0.014245,0.40188,0.035825,0.35262,-0.30141,0.013155,0.014601,-0.012637,0.068965,-0.1362,0.072597,0.097994,0.039936,0.0020664,-0.0071596,-0.02009,-0.15896,0.016124,0.015226,-0.018408,0.054982
0.0071067,0.017427,-0.016905,0.022569,0.40982,0.03746,0.34557,-0.27688,0.0019866,-0.00079429,-0.0053385,0.086812,-0.13456,0.091314,0.092115,0.069618,0.0058583,-0.01377,-0.023539,-0.14496,0.017124,0.012252,-0.017026,0.085209
0.0056903,0.022327,-0.010907,0.030505,0.41302,0.038837,0.32338,-0.25223,-0.0058065,-0.006271,-0.0045358,0.099893,-0.1286,0.098755,0.094515,0.11226,0.012336,-0.026749,-0.022924,-0.1299,0.014518,0.0091514,-0.016528,0.11788
0.0023905,0.022928,-0.0046144,0.033723,0.40603,0.03541,0.28457,-0.23448,-0.0054743,0.00088242,-0.0083131,0.10622,-0.12099,0.099674,0.10575,0.16555,0.017589,-0.037352,-0.018619,-0.11604,0.011366,0.0069979,-0.015487,0.14617
-0.0015965,0.018766,-0.0013361,0.030823,0.38828,0.023037,0.23198,-0.22787,0.003056,0.015982,-0.014127,0.10377,-0.11302,0.10068,0.12053,0.22234,0.017966,-0.03973,-0.012806,-0.10405,0.01012,0.0067626,-0.01213,0.16279
-0.0042872,0.011534,-0.0022319,0.023278,0.36426,0.0012093,0.1735,-0.23049,0.014793,0.029667,-0.020687,0.092465,-0.10386,0.1055,0.13231,0.27306,0.013093,-0.034252,-0.0076143,-0.092855,0.010537,0.0091406,-0.0065627,0.16288
-0.0043219,0.0045089,-0.0056393,0.013638,0.34044,-0.025581,0.12005,-0.23609,0.022835,0.033903,-0.02823,0.075407,-0.092816,0.11251,0.13824,0.30887,0.0064466,-0.025743,-0.0037409,-0.081099,0.010211,0.014146,-0.0013805,0.14555
-0.0019256,0.00080752,-0.0087036,0.0039066,0.3205,-0.049835,0.081293,-0.23949,0.022907,0.026834,-0.037517,0.057394,-0.081971,0.116,0.14057,0.32455,0.0029669,-0.018856,-0.0005064,-0.068864,0.0073353,0.020725,0.00022076,0.11385
0.0013862,0.001624,-0.0097616,-0.0047247,0.30253,-0.065425,0.060921,-0.24103,0.015992,0.013034,-0.048638,0.041584,-0.075945,0.11027,0.14377,0.32045,0.0056506,-0.014638,0.002953,-0.058113,0.0030518,0.026832,-0.0027157,0.07397
0.0040036,0.0057178,-0.0093581,-0.011216,0.28059,-0.071423,0.054348,-0.24587,0.007095,-0.0006226,-0.060446,0.027303,-0.077897,0.093544,0.15029,0.30259,0.013761,-0.010673,0.0065251,-0.05108,0.00098361,0.030112,-0.007676,0.034253
0.0052484,0.010455,-0.0091924,-0.014431,0.25001,-0.072693,0.050624,-0.25852,0.0012051,-0.0099678,-0.070699,0.01141,-0.08528,0.069003,0.15872,0.28036,0.023796,-0.0039796,0.0089906,-0.047864,0.0040565,0.028884,-0.010285,0.0038191
0.0054972,0.013545,-0.010216,-0.013968,0.21235,-0.07679,0.037823,-0.27739,-0.00034222,-0.015678,-0.076652,-0.0076965,-0.089918,0.042285,0.16562,0.26246,0.032102,0.0061547,0.009029,-0.045597,0.011382,0.022917,-0.0075557,-0.010073
0.0055698,0.014258,-0.011709,-0.011232,0.17561,-0.089194,0.0089155,-0.29413,-0.00028378,-0.021447,-0.075935,-0.027236,-0.083426,0.017569,0.16896,0.25281,0.036917,0.017607,0.006554,-0.040328,0.018167,0.013624,-0.00018247,-0.0055755
0.0060795,0.013489,-0.012044,-0.009217,0.14915,-0.10984,-0.035281,-0.29883,-0.0025377,-0.030222,-0.067658,-0.041478,-0.063767,-0.0046716,0.16983,0.24902,0.038527,0.027098,0.0032587,-0.030282,0.019102,0.0035981,0.0079173,0.01124
0.0072026,0.012917,-0.010265,-0.010548,0.13707,-0.13291,-0.087575,-0.28721,-0.0085994,-0.041635,-0.053351,-0.046684,-0.036907,-0.026574,0.17074,0.24431,0.037971,0.032387,0.0017515,-0.017636,0.012565,-0.004384,0.012374,0.027369
0.0087749,0.01392,-0.0069992,-0.015193,0.13556,-0.14966,-0.13877,-0.26375,-0.016243,-0.052268,-0.036873,-0.045184,-0.011596,-0.04964,0.17242,0.23201,0.035775,0.033238,0.003716,-0.007113,0.0021402,-0.0085513,0.011214,0.028044
0.010411,0.016742,-0.004002,-0.02006,0.13651,-0.15269,-0.18168,-0.23804,-0.021425,-0.058043,-0.022773,-0.044506,0.008269,-0.07231,0.17181,0.21027,0.031787,0.030838,0.0084109,-0.0024316,-0.0059598,-0.0089669,0.0056625,0.0037184
0.011585,0.020231,-0.0028575,-0.021279,0.13443,-0.13912,-0.2125,-0.21686,-0.02154,-0.056727,-0.013745,-0.051718,0.026474,-0.090412,0.16338,0.18427,0.025894,0.026599,0.012803,-0.0035736,-0.0075847,-0.0074731,-0.0014352,-0.045281
0.011834,0.022328,-0.0039419,-0.01744,0.13083,-0.11137,-0.22959,-0.19853,-0.017232,-0.048981,-0.009017,-0.067572,0.049438,-0.099845,0.14275,0.16469,0.018689,0.021485,0.013513,-0.007078,-0.0037306,-0.0066524,-0.0080199,-0.10938
0.011114,0.021292,-0.0063643,-0.010926,0.13224,-0.075358,-0.23202,-0.17416,-0.011418,-0.037692,-0.0051652,-0.085603,0.077799,-0.098907,0.11014,0.16266,0.011423,0.016169,0.0092699,-0.0089076,0.00039907,-0.0083864,-0.014052,-0.17506
0.0099856,0.017101,-0.0087398,-0.0060012,0.14385,-0.037566,-0.21988,-0.13576,-0.006673,-0.026347,0.0010028,-0.097244,0.1031,-0.088401,0.071015,0.1832,0.0054367,0.01145,0.0019829,-0.0073338,-0.00047532,-0.012953,-0.020792,-0.23106
0.0092889,0.011951,-0.010086,-0.0052579,0.16402,-0.0026837,-0.19598,-0.084682,-0.0033386,-0.017427,0.0097838,-0.09883,0.11402,-0.070044,0.033433,0.22065,0.0017192,0.0082357,-0.0045423,-0.0035371,-0.0077013,-0.01923,-0.029029,-0.27168
0.0094554,0.0091251,-0.010213,-0.0076143,0.18477,0.026881,-0.16677,-0.03375,0.0001946,-0.011528,0.018427,-0.094567,0.1077,-0.045282,0.0037001,0.25919,0.00089064,0.0070322,-0.0073311,0.00018576,-0.017881,-0.025714,-0.037887,-0.29597
0.010064,0.010692,-0.0095075,-0.0096362,0.1976,0.049973,-0.14018,-0.00046157,0.0055794,-0.0075494,0.023621,-0.092843,0.096097,-0.015762,-0.016825,0.2797,0.003278,0.0074833,-0.0062843,0.002688,-0.025642,-0.031442,-0.045117,-0.30466
0.010169,0.015747,-0.0084779,-0.0088976,0.19996,0.065558,-0.12098,0.0043714,0.012797,-0.0038661,0.024317,-0.09894,0.10052,0.01549,-0.031621,0.27006,0.0086602,0.0085253,-0.003927,0.0046816,-0.027556,-0.036134,-0.04844,-0.29774
0.0091921,0.02081,-0.0074904,-0.0062333,0.19672,0.072745,-0.10702,-0.015734,0.020013,0.0001342,0.022303,-0.11037,0.1377,0.044145,-0.04546,0.23296,0.015801,0.0091239,-0.0031433,0.0075428,-0.024077,-0.039694,-0.04673,-0.27441
0.007532,0.022386,-0.0067937,-0.0048493,0.19542,0.071961,-0.090119,-0.044885,0.024912,0.003171,0.020103,-0.11901,0.20835,0.066465,-0.059756,0.18578,0.022441,0.0090054,-0.0048123,0.01166,-0.018267,-0.041861,-0.040205,-0.23461
0.0062192,0.019795,-0.0065883,-0.0071997,0.19938,0.066066,-0.062117,-0.065262,0.026305,0.0026624,0.018344,-0.11833,0.29797,0.081391,-0.070215,0.15139,0.026211,0.0087857,-0.0072325,0.016033,-0.012851,-0.042526,-0.029854,-0.18071
0.005879,0.015857,-0.006909,-0.012543,0.20471,0.060141,-0.022056,-0.068552,0.024778,-0.0034199,0.01517,-0.10975,0.38897,0.09056,-0.068963,0.14487,0.026041,0.0094086,-0.0076335,0.019456,-0.0083133,-0.042403,-0.01692,-0.11829
0.0060312,0.014648,-0.0074243,-0.017365,0.20379,0.059778,0.021391,-0.060071,0.022053,-0.014782,0.0081569,-0.10238,0.4739,0.095905,-0.050102,0.16469,0.022929,0.011335,-0.00438,0.022005,-0.0035458,-0.04304,-0.0029906,-0.055648
0.005502,0.01795,-0.0075041,-0.018236,0.19239,0.06891,0.054892,-0.052892,0.019611,-0.028657,-0.0032503,-0.10626,0.5583,0.096996,-0.014816,0.19434,0.019279,0.01407,0.0018842,0.025198,0.00197,-0.045716,0.0096456,-0.0022099
0.0036152,0.023269,-0.0067159,-0.014567,0.17432,0.088437,0.069555,-0.056914,0.017534,-0.041575,-0.017125,-0.12476,0.65137,0.090833,0.027952,0.21368,0.017214,0.016344,0.0088129,0.03053,0.006835,-0.049932,0.018122,0.033847
0.00098422,0.025235,-0.0054041,-0.0090172,0.15906,0.11613,0.067078,-0.071398,0.014366,-0.051642,-0.03067,-0.15271,0.75306,0.074652,0.066185,0.21245,0.01726,0.016895,0.013913,0.037748,0.0087301,-0.053046,0.01985,0.048337
-0.00093566,0.019555,-0.0047532,-0.0053944,0.15422,0.1474,0.057888,-0.086324,0.0081355,-0.059309,-0.042249,-0.18167,0.84919,0.049384,0.091668,0.19657,0.018466,0.015414,0.01584,0.044663,0.0068598,-0.051799,0.013505,0.042788
-0.0011361,0.0066196,-0.0060827,-0.0059307,0.15862,0.17635,0.052735,-0.090732,-0.0020121,-0.065938,-0.051815,-0.20767,0.91833,0.020618,0.10407,0.18293,0.019734,0.013055,0.014755,0.048899,0.0034496,-0.044728,-0.00059335,0.023786
7.5094e-005,-0.0080715,-0.0098088,-0.010035,0.16191,0.1968,0.054758,-0.080979,-0.014669,-0.071583,-0.059595,-0.23399,0.94383,-0.0040041,0.10933,0.18666,0.020985,0.011995,0.011906,0.050025,0.0026543,-0.03334,-0.02073,-0.00017501
0.0014551,-0.017231,-0.014882,-0.01515,0.15124,0.20368,0.058529,-0.062614,-0.026455,-0.074312,-0.06474,-0.26661,0.9205,-0.019022,0.11376,0.21007,0.023041,0.014063,0.0089399,0.049932,0.0075792,-0.020806,-0.043943,-0.022614
0.0019989,-0.016656,-0.019178,-0.018687,0.11981,0.19459,0.056546,-0.045194,-0.033787,-0.071957,-0.065621,-0.30633,0.85195,-0.023864,0.11855,0.24113,0.026394,0.019259,0.007219,0.050883,0.01787,-0.0092748,-0.065769,-0.041198
0.0016766,-0.0081789,-0.020604,-0.019538,0.071359,0.17099,0.047137,-0.034902,-0.035019,-0.064756,-0.061552,-0.3453,0.74378,-0.022389,0.11882,0.26217,0.030208,0.025364,0.0072863,0.052956,0.029888,0.0016121,-0.0805,-0.056857
0.0010625,0.00151,-0.018187,-0.018394,0.017819,0.13808,0.036763,-0.030861,-0.031394,-0.056184,-0.054085,-0.37124,0.60141,-0.020223,0.10776,0.26198,0.032655,0.029245,0.0086388,0.05348,0.039287,0.013402,-0.08322,-0.071068
0.00043341,0.0054604,-0.012541,-0.017117,-0.027166,0.10292,0.034829,-0.027363,-0.026039,-0.050765,-0.046283,-0.37605,0.4346,-0.022064,0.082285,0.2425,0.032387,0.029067,0.010081,0.049333,0.043849,0.025914,-0.073303,-0.083892
-0.00054635,0.0012252,-0.0055524,-0.017763,-0.054203,0.071601,0.045693,-0.019388,-0.02175,-0.050471,-0.040406,-0.36097,0.26252,-0.030311,0.046099,0.21578,0.029745,0.025656,0.010595,0.04024,0.044395,0.035805,-0.056653,-0.094404
-0.0021951,-0.007684,0.00042664,-0.021623,-0.060598,0.046718,0.064709,-0.0067874,-0.019286,-0.052865,-0.036117,-0.33391,0.11072,-0.044785,0.0079037,0.19454,0.02652,0.021766,0.010141,0.029993,0.043397,0.038539,-0.043685,-0.10279
-0.0040545,-0.014726,0.003497,-0.028477,-0.04945,0.026538,0.081332,0.0056766,-0.017457,-0.052849,-0.030981,-0.30166,-0.00066856,-0.062805,-0.023469,0.18423,0.024417,0.01973,0.0097134,0.024146,0.042711,0.032359,-0.043024,-0.11181
-0.0050397,-0.015424,0.0028837,-0.036354,-0.027168,0.0064187,0.086307,0.01178,-0.014721,-0.046799,-0.022919,-0.26447,-0.068652,-0.079618,-0.043462,0.18234,0.023627,0.019457,0.010544,0.025886,0.042342,0.020544,-0.055173,-0.12598
-0.004509,-0.010715,-0.00086098,-0.042209,-0.00074189,-0.018206,0.07713,0.0078913,-0.010775,-0.035729,-0.0124,-0.21797,-0.10849,-0.089787,-0.052946,0.18465,0.022793,0.018447,0.013146,0.033466,0.040904,0.0094245,-0.071513,-0.14892
-0.003117,-0.0060144,-0.0061962,-0.04348,0.024711,-0.04888,0.058231,-0.0049296,-0.00681,-0.024807,-0.0023255,-0.16049,-0.14195,-0.089644,-0.056028,0.19224,0.020342,0.013825,0.016998,0.041326,0.037082,0.0035866,-0.080259,-0.18097
-0.0023831,-0.0067541,-0.011309,-0.039733,0.047436,-0.082999,0.036958,-0.021535,-0.0044556,-0.019534,0.0043596,-0.09852,-0.18188,-0.079581,-0.056698,0.21274,0.015866,0.004664,0.020978,0.043953,0.03083,0.0024928,-0.075098,-0.21872
-0.003211,-0.013965,-0.014838,-0.033202,0.06852,-0.11533,0.019165,-0.035137,-0.0045957,-0.021596,0.0071791,-0.044754,-0.22577,-0.064496,-0.056817,0.25435,0.010296,-0.007211,0.023958,0.039331,0.023634,0.0016845,-0.059603,-0.2563
-0.0047838,-0.023349,-0.016261,-0.027647,0.089211,-0.14119,0.007289,-0.040183,-0.0071373,-0.027687,0.008464,-0.0098605,-0.26279,-0.051686,-0.056444,0.31709,0.0048822,-0.018354,0.025001,0.029472,0.017946,-0.0025265,-0.04378,-0.28708
-0.0050381,-0.028522,-0.015841,-0.026166,0.10803,-0.15895,0.00095765,-0.034526,-0.011637,-0.032163,0.011177,0.0052213,-0.28716,-0.047335,-0.05557,0.38864,0.00019014,-0.025688,0.023341,0.018119,0.016216,-0.009285,-0.035582,-0.30456
-0.0024277,-0.025793,-0.014316,-0.029435,0.12055,-0.1699,-0.0015937,-0.020209,-0.017812,-0.031379,0.016182,0.0099447,-0.30535,-0.053694,-0.055472,0.44873,-0.0038247,-0.027935,0.018725,0.007922,0.019829,-0.01387,-0.034278,-0.30284
0.0025985,-0.01672,-0.012535,-0.035542,0.12278,-0.17575,-0.0026147,-0.002565,-0.025273,-0.026277,0.021438,0.017186,-0.33094,-0.068529,-0.058522,0.47983,-0.0069382,-0.02583,0.012131,-0.00068892,0.028192,-0.012094,-0.030719,-0.2777
0.007787,-0.0065317,-0.011127,-0.041326,0.11546,-0.17615,-0.0043015,0.012175,-0.03291,-0.02117,0.023887,0.034252,-0.37241,-0.086839,-0.066601,0.47687,-0.0082473,-0.021431,0.0059873,-0.0085812,0.038444,-0.0041929,-0.013866,-0.22873
0.010818,0.00016557,-0.010177,-0.044103,0.10498,-0.16884,-0.0078712,0.019992,-0.038916,-0.01971,0.022299,0.058797,-0.42497,-0.10365,-0.079321,0.4492,-0.0070069,-0.017095,0.0030141,-0.016377,0.046324,0.0053337,0.021684,-0.16106
0.011087,0.0028594,-0.0090895,-0.042635,0.099339,-0.15244,-0.012236,0.021553,-0.041773,-0.021248,0.018462,0.082297,-0.47364,-0.11641,-0.093294,0.41335,-0.0039324,-0.014526,0.0041337,-0.023835,0.048103,0.011449,0.072409,-0.084653
0.01001,0.0050369,-0.0069116,-0.037111,0.10227,-0.12909,-0.013347,0.022685,-0.041319,-0.020617,0.015564,0.097689,-0.50422,-0.12598,-0.10309,0.38216,-0.0013374,-0.014102,0.0072181,-0.030419,0.042576,0.012092,0.12825,-0.010477
0.0096454,0.01073,-0.0031896,-0.028728,0.11096,-0.10409,-0.0053732,0.032225,-0.038718,-0.011766,0.015191,0.10491,-0.51244,-0.13596,-0.10352,0.3583,-0.0014724,-0.014828,0.0081996,-0.036111,0.031674,0.0083651,0.17807,0.054334
0.010837,0.020628,0.0011625,-0.019389,0.11957,-0.082461,0.016315,0.057953,-0.035205,0.0073025,0.015686,0.11033,-0.5044,-0.15052,-0.092173,0.33685,-0.0044077,-0.015113,0.0040806,-0.041517,0.019102,0.0019669,0.21442,0.10885
0.012423,0.030962,0.0038501,-0.011429,0.12523,-0.06546,0.05195,0.10258,-0.030835,0.032006,0.013427,0.12115,-0.4893,-0.17177,-0.070909,0.31369,-0.0076294,-0.014046,-0.0045809,-0.047268,0.0078936,-0.0068421,0.23518,0.15626
0.012131,0.036063,0.0024636,-0.0068363,0.13043,-0.050485,0.096174,0.16204,-0.024637,0.053105,0.0060334,0.13979,-0.47215,-0.19799,-0.045409,0.29167,-0.0080754,-0.012224,-0.013996,-0.053431,-0.001282,-0.018454,0.24244,0.19905
0.0084184,0.032518,-0.0036492,-0.0060353,0.13904,-0.034514,0.13994,0.22738,-0.016155,0.061902,-0.0052484,0.16266,-0.45219,-0.22407,-0.022909,0.2781,-0.0048991,-0.01127,-0.020192,-0.059529,-0.0097844,-0.031445,0.24011,0.23536
0.0017737,0.021655,-0.012368,-0.0071672,0.14991,-0.017771,0.1745,0.28918,-0.0067571,0.055233,-0.015993,0.18378,-0.42676,-0.24406,-0.0092366,0.27507,-0.00031986,-0.012252,-0.022171,-0.065052,-0.01906,-0.04165,0.23179,0.25978
-0.0055722,0.0084711,-0.019692,-0.0069819,0.15453,-0.0040057,0.19486,0.342,0.00088158,0.036983,-0.021571,0.19984,-0.39555,-0.25457,-0.006677,0.27163,0.0023885,-0.014332,-0.022345,-0.069875,-0.02884,-0.044511,0.21981,0.26784
-0.011304,-0.0020548,-0.022131,-0.003239,0.14204,0.0029552,0.20042,0.38572,0.0049592,0.015412,-0.020309,0.21214,-0.36082,-0.25673,-0.013651,0.24636,0.0019583,-0.014996,-0.023821,-0.074254,-0.037085,-0.038923,0.20524,0.2601
-0.014712,-0.0083606,-0.018861,0.0030855,0.10772,0.0030992,0.19296,0.42281,0.0063353,-0.0016986,-0.01448,0.22417,-0.32428,-0.25557,-0.026058,0.18121,0.00033469,-0.011904,-0.027018,-0.078549,-0.041737,-0.02898,0.18871,0.24232
-0.017003,-0.012845,-0.012043,0.0078571,0.0575,0.00085823,0.1744,0.45364,0.0079416,-0.010924,-0.0085412,0.2371,-0.28464,-0.2574,-0.039308,0.076648,0.00085275,-0.0048385,-0.028786,-0.082998,-0.042754,-0.021689,0.17157,0.22165
-0.019969,-0.019265,-0.0051514,0.0065695,0.0045804,0.0018861,0.14668,0.47377,0.012019,-0.01404,-0.0060084,0.24742,-0.23851,-0.26682,-0.049971,-0.043834,0.0050854,0.0040458,-0.024986,-0.087664,-0.042582,-0.022271,0.15692,0.20242
-0.024177,-0.029112,-0.00073916,-0.0020847,-0.039342,0.0089135,0.11361,0.47615,0.017661,-0.015908,-0.007179,0.24883,-0.18381,-0.28493,-0.056577,-0.14504,0.011295,0.011996,-0.014316,-0.092339,-0.044467,-0.030705,0.14976,0.18511
-0.02834,-0.039897,0.00067233,-0.014779,-0.070785,0.020238,0.081865,0.4572,0.021148,-0.021145,-0.0091006,0.23696,-0.12226,-0.30881,-0.05974,-0.20007,0.01586,0.017956,4.095e-005,-0.096376,-0.049845,-0.042042,0.15583,0.16896
-0.030473,-0.046757,5.0295e-005,-0.025622,-0.094126,0.031797,0.058531,0.42214,0.019047,-0.031605,-0.0076738,0.21304,-0.059022,-0.33221,-0.061908,-0.20525,0.016265,0.023302,0.012472,-0.0987,-0.056923,-0.049932,0.17904,0.15486
-0.029762,-0.046242,-0.0014673,-0.030188,-0.11533,0.040627,0.045916,0.38462,0.011342,-0.045798,-0.00047882,0.18373,-0.00038259,-0.34681,-0.066709,-0.18,0.01294,0.0303,0.01897,-0.098303,-0.061754,-0.050569,0.21836,0.14529
-0.02738,-0.039341,-0.0033905,-0.028318,-0.1357,0.046681,0.038083,0.35974,0.001619,-0.060114,0.01145,0.15711,0.048088,-0.34451,-0.077551,-0.15267,0.0084741,0.039545,0.019674,-0.095019,-0.06109,-0.044384,0.26598,0.14085
-0.025415,-0.03128,-0.0057159,-0.023527,-0.15091,0.051927,0.023145,0.35503,-0.0059687,-0.070789,0.02401,0.13782,0.081797,-0.32043,-0.095555,-0.14279,0.0051884,0.048547,0.01789,-0.089925,-0.054795,-0.034809,0.30856,0.13687
-0.024946,-0.028096,-0.008326,-0.019746,-0.15566,0.058128,-0.009198,0.36599,-0.010151,-0.0755,0.032344,0.12492,0.097016,-0.27526,-0.11787,-0.15121,0.00336,0.052669,0.016701,-0.084807,-0.045818,-0.025455,0.33178,0.1241
-0.02515,-0.032522,-0.010737,-0.018239,-0.14938,0.065514,-0.0603,0.37955,-0.013149,-0.073908,0.033579,0.11365,0.092063,-0.2151,-0.13801,-0.16324,0.0015289,0.047795,0.016351,-0.081004,-0.037716,-0.017778,0.32642,0.093901
-0.024353,-0.04229,-0.012394,-0.017136,-0.13817,0.073156,-0.12121,0.38282,-0.017877,-0.067256,0.028122,0.099595,0.06962,-0.14805,-0.14896,-0.16084,-0.001708,0.032852,0.014612,-0.078648,-0.031778,-0.010644,0.29259,0.04451
-0.021996,-0.052034,-0.013052,-0.013658,-0.13126,0.080051,-0.17832,0.37072,-0.024497,-0.057498,0.018601,0.081956,0.037977,-0.079473,-0.14764,-0.13512,-0.0062093,0.010554,0.0094749,-0.07708,-0.026219,-0.0017481,0.23931,-0.016812
-0.019493,-0.057128,-0.012785,-0.0068901,-0.13495,0.085445,-0.22134,0.34738,-0.029746,-0.046491,0.0073342,0.063751,0.0089673,-0.0096247,-0.13752,-0.091398,-0.010388,-0.013957,0.001397,-0.07609,-0.018094,0.010315,0.17939,-0.077549
-0.018996,-0.056435,-0.011657,0.0012371,-0.14873,0.088134,-0.24753,0.32143,-0.029806,-0.035528,-0.0056137,0.049164,-0.0070603,0.063964,-0.12676,-0.044286,-0.012646,-0.035545,-0.0070205,-0.076714,-0.0062784,0.024786,0.12297,-0.12679
-0.021101,-0.052084,-0.0095495,0.0073619,-0.16619,0.085896,-0.25998,0.29977,-0.02405,-0.0253,-0.022097,0.040607,-0.0061142,0.14075,-0.12252,-0.0067188,-0.012811,-0.050976,-0.013484,-0.080584,0.0071433,0.03906,0.073751,-0.15986
-0.023704,-0.046949,-0.0063988,0.0091255,-0.17973,0.076253,-0.26314,0.28436,-0.016114,-0.016325,-0.043518,0.037907,0.0083074,0.21317,-0.12538,0.019759,-0.012402,-0.059241,-0.018142,-0.088221,0.018262,0.050218,0.030083,-0.17746
-0.023268,-0.042267,-0.0026248,0.0066504,-0.18531,0.058358,-0.26002,0.27338,-0.011194,-0.0096471,-0.068495,0.039903,0.028836,0.26867,-0.1285,0.046719,-0.013613,-0.060502,-0.023367,-0.097846,0.02428,0.056616,-0.010642,-0.18112
-0.017608,-0.03734,0.0007911,0.0021641,-0.18387,0.034327,-0.25264,0.26437,-0.01193,-0.0071959,-0.092821,0.046445,0.05006,0.29748,-0.12254,0.090937,-0.017831,-0.054982,-0.031433,-0.10599,0.025428,0.058504,-0.048174,-0.1696
-0.0078855,-0.031192,0.002788,-0.0015832,-0.17907,0.0085235,-0.24344,0.25619,-0.016456,-0.011,-0.11203,0.058504,0.072415,0.30007,-0.10295,0.16181,-0.024718,-0.043071,-0.042236,-0.10964,0.024296,0.057462,-0.079166,-0.14005
0.0019352,-0.024329,0.0029146,-0.0027731,-0.17335,-0.014824,-0.23469,0.24883,-0.020165,-0.021079,-0.12453,0.076214,0.10162,0.28786,-0.073939,0.2528,-0.032359,-0.02664,-0.053055,-0.10813,0.023339,0.055224,-0.1002,-0.092653
0.007809,-0.018829,0.0016186,-0.0010173,-0.16561,-0.033639,-0.22609,0.24245,-0.019468,-0.0332,-0.13241,0.096983,0.14456,0.27569,-0.046043,0.34353,-0.038276,-0.010068,-0.060439,-0.10339,0.022887,0.052664,-0.11107,-0.034215
