7.7751e-010,2.811e-009,1.1094e-009,2.7647e-009,-1.7364e-011,4.804e-010,6.7719e-010,2.155e-009,2.1801e-010,-2.5274e-010,1.063e-009,2.2091e-009,-4.3409e-010,-1.7152e-009,1.0322e-009,2.2959e-010,-4.8426e-010,-1.2483e-009,5.3828e-010,4.5339e-010,4.8811e-010,3.494e-009,1.2328e-009,3.2509e-009
2.1482e-008,7.7497e-008,3.0544e-008,7.6495e-008,-2.7146e-010,1.3788e-008,1.8675e-008,5.966e-008,5.9511e-009,-6.7835e-009,2.926e-008,6.1353e-008,-1.2216e-008,-4.7685e-008,2.8272e-008,6.0009e-009,-1.3405e-008,-3.4834e-008,1.4824e-008,1.2409e-008,1.3311e-008,9.6455e-008,3.3971e-008,8.9807e-008
2.8851e-007,1.0386e-006,4.0836e-007,1.0287e-006,-7.4565e-010,1.9294e-007,2.507e-007,8.0291e-007,7.8976e-008,-8.8005e-008,3.9151e-007,8.2862e-007,-1.674e-007,-6.4458e-007,3.7631e-007,7.6041e-008,-1.8017e-007,-4.7233e-007,1.9856e-007,1.6493e-007,1.7626e-007,1.294e-006,4.5491e-007,1.2064e-006
2.5095e-006,9.0145e-006,3.5317e-006,8.9569e-006,1.9836e-008,1.7544e-006,2.1831e-006,6.9987e-006,6.7905e-007,-7.3406e-007,3.3929e-006,7.2503e-006,-1.4887e-006,-5.6438e-006,3.2427e-006,6.2248e-007,-1.5661e-006,-4.1459e-006,1.7235e-006,1.4186e-006,1.5096e-006,1.1239e-005,3.944e-006,1.0499e-005
1.5889e-005,5.6953e-005,2.2204e-005,5.6751e-005,3.0123e-007,1.1656e-005,1.3861e-005,4.4412e-005,4.2536e-006,-4.4139e-006,2.1404e-005,4.6192e-005,-9.6583e-006,-3.5976e-005,2.0329e-005,3.7012e-006,-9.8922e-006,-2.6474e-005,1.09e-005,8.8784e-006,9.3971e-006,7.1026e-005,2.4879e-005,6.6527e-005
7.8019e-005,0.00027906,0.00010811,0.00027876,2.4012e-006,6.0318e-005,6.8384e-005,0.00021861,2.0694e-005,-2.0312e-005,0.00010474,0.0002283,-4.8716e-005,-0.00017787,9.8787e-005,1.7039e-005,-4.8358e-005,-0.00013101,5.3532e-005,4.3111e-005,4.5282e-005,0.00034793,0.00012165,0.00032702
0.00030905,0.0011031,0.00042397,0.001104,1.3495e-005,0.00025311,0.00027271,0.00086831,8.1406e-005,-7.3975e-005,0.00041353,0.00091055,-0.00019877,-0.00070957,0.00038696,6.3227e-005,-0.00019023,-0.00052262,0.00021247,0.00016912,0.00017563,0.0013741,0.00047957,0.001297
0.001014,0.0036118,0.0013749,0.0036196,5.8899e-005,0.0008851,0.00090285,0.002858,0.0002662,-0.00021675,0.0013528,0.0030089,-0.00067376,-0.0023449,0.0012543,0.00019439,-0.00061796,-0.0017251,0.00070016,0.00055116,0.00056267,0.0044916,0.0015649,0.0042619
0.0028071,0.0099779,0.0037546,0.010004,0.0002098,0.0026306,0.0025283,0.0079418,0.00073834,-0.0005106,0.0037356,0.0083911,-0.0019331,-0.0065385,0.0034257,0.00050532,-0.0016872,-0.0047988,0.0019528,0.0015232,0.0015154,0.012376,0.0043044,0.011815
0.0066414,0.023561,0.008746,0.02361,0.00062902,0.0067431,0.0060693,0.01888,0.0017644,-0.00093857,0.0088217,0.020008,-0.0047573,-0.015583,0.0079824,0.0011285,-0.0039176,-0.011392,0.0046746,0.0036273,0.0034722,0.029113,0.010108,0.027992
0.013547,0.047977,0.017528,0.04798,0.001622,0.015075,0.012608,0.03876,0.0036793,-0.0011939,0.017978,0.041157,-0.010133,-0.032021,0.015998,0.002195,-0.007791,-0.023277,0.0097019,0.0075398,0.0068163,0.058962,0.020437,0.057156
0.023948,0.084699,0.030382,0.084373,0.0036545,0.029644,0.022811,0.069142,0.0067733,-0.00037953,0.031798,0.073458,-0.018785,-0.057026,0.027695,0.0037717,-0.013303,-0.041127,0.017584,0.01383,0.011496,0.10331,0.035745,0.10107
0.036755,0.12992,0.045639,0.12855,0.0072829,0.051628,0.036077,0.10756,0.011136,0.0031917,0.048937,0.11408,-0.030379,-0.088168,0.04143,0.005824,-0.019443,-0.062909,0.027965,0.022597,0.016615,0.15683,0.05414,0.15497
0.048879,0.17295,0.059353,0.16926,0.012959,0.080065,0.049947,0.14612,0.016563,0.011784,0.065506,0.1542,-0.042788,-0.11812,0.053327,0.008274,-0.024038,-0.083049,0.039131,0.033155,0.020379,0.20575,0.070781,0.20543
0.055957,0.19882,0.066567,0.19111,0.020741,0.1111,0.060499,0.17331,0.02264,0.027405,0.075993,0.1811,-0.052145,-0.13622,0.058425,0.011158,-0.024426,-0.093798,0.048235,0.043967,0.020723,0.23159,0.079162,0.23347
0.05445,0.19555,0.064037,0.18234,0.030023,0.13864,0.064026,0.1795,0.028953,0.050543,0.075929,0.18442,-0.054194,-0.13355,0.0533,0.014765,-0.0189,-0.089029,0.052425,0.052925,0.016523,0.22077,0.074405,0.2238
0.044105,0.16251,0.052823,0.14349,0.039473,0.15668,0.059277,0.16337,0.035263,0.079183,0.064974,0.16357,-0.046618,-0.10907,0.038727,0.019527,-0.0081449,-0.068553,0.050432,0.057947,0.0086376,0.17478,0.056858,0.17569
0.028908,0.11345,0.038485,0.090137,0.047296,0.16216,0.048717,0.1344,0.041389,0.10889,0.048118,0.13036,-0.030964,-0.072319,0.020154,0.025565,0.004516,-0.039607,0.043559,0.05777,-0.00014992,0.11303,0.033183,0.10747
0.015279,0.070101,0.027964,0.045568,0.051811,0.1567,0.037523,0.10828,0.04685,0.13428,0.033415,0.10321,-0.012527,-0.039238,0.0049522,0.032052,0.014615,-0.013416,0.035158,0.052794,-0.0065853,0.063299,0.013207,0.04859
0.0082077,0.049299,0.02493,0.026438,0.052102,0.14563,0.030564,0.097321,0.050623,0.15111,0.027168,0.095438,0.0023077,-0.022592,-0.0021002,0.036963,0.019017,0.0015583,0.028644,0.045615,-0.0089442,0.044442,0.0039182,0.022134
0.0080158,0.05234,0.027146,0.031513,0.048392,0.13477,0.029355,0.10262,0.05148,0.15797,0.029834,0.10596,0.0097762,-0.02345,-0.0017366,0.037746,0.017641,0.0048667,0.025356,0.040652,-0.0080783,0.053672,0.0048127,0.029715
0.01041,0.065212,0.028338,0.04274,0.041901,0.12689,0.031272,0.11415,0.048908,0.15644,0.035915,0.12044,0.010821,-0.030612,0.00097597,0.032895,0.013105,0.00357,0.023941,0.04236,-0.006618,0.069221,0.0084312,0.050777
0.010078,0.069895,0.023406,0.038962,0.034246,0.12045,0.031752,0.11895,0.043933,0.14989,0.038221,0.1228,0.0098143,-0.029231,0.0011271,0.023566,0.0085909,0.0062432,0.021899,0.052471,-0.0069321,0.067464,0.0061677,0.058337
0.0050509,0.057882,0.012805,0.012074,0.02677,0.11122,0.027835,0.11064,0.038957,0.14177,0.033343,0.10794,0.010818,-0.012297,-0.001977,0.013882,0.0057062,0.016453,0.018105,0.067985,-0.0094811,0.041264,-0.0049852,0.039497
-0.0018413,0.035061,0.002293,-0.027227,0.020227,0.095815,0.020317,0.092512,0.036298,0.13422,0.02401,0.084932,0.014449,0.014201,-0.0046785,0.0091594,0.0040846,0.031114,0.014125,0.081904,-0.012779,0.0045234,-0.020161,0.0043273
-0.0057745,0.014564,-0.001913,-0.058654,0.014908,0.0744,0.012903,0.072434,0.036328,0.12739,0.01648,0.067831,0.017999,0.036656,-0.0027803,0.012718,0.0028398,0.044634,0.012994,0.08715,-0.014676,-0.020619,-0.030715,-0.02412
-0.0045852,0.0046162,0.0015392,-0.068662,0.010943,0.050914,0.0091792,0.05492,0.03678,0.11949,0.015193,0.062535,0.018606,0.045216,0.004239,0.023339,0.0022782,0.054562,0.016331,0.081383,-0.013578,-0.022624,-0.031311,-0.030009
-0.0010638,0.0022255,0.0079117,-0.060303,0.0084167,0.030769,0.0098752,0.038049,0.034122,0.10763,0.019061,0.06163,0.016462,0.041622,0.012466,0.035425,0.0040885,0.063426,0.022347,0.069005,-0.0086115,-0.0091655,-0.024135,-0.017866
-0.0006513,-0.0023869,0.010305,-0.048972,0.0072237,0.017783,0.012503,0.01756,0.02625,0.089518,0.022325,0.051906,0.014971,0.037225,0.016839,0.042245,0.0097722,0.075556,0.026724,0.058304,0.0009219,0.0011609,-0.016906,-0.0078143
-0.0064616,-0.015726,0.0052894,-0.048614,0.0069214,0.012316,0.01347,-0.0066034,0.014435,0.065417,0.01904,0.02731,0.017658,0.043512,0.015343,0.040356,0.018896,0.092625,0.025871,0.055545,0.015624,-0.0043654,-0.016604,-0.017762
-0.016128,-0.035056,-0.0046064,-0.060683,0.0068489,0.011509,0.010854,-0.028291,0.0027661,0.039178,0.0075201,-0.0049035,0.02477,0.063612,0.010291,0.032143,0.029025,0.11245,0.019842,0.060645,0.0351,-0.022556,-0.024266,-0.04829
-0.023497,-0.051626,-0.013471,-0.074819,0.0064345,0.011123,0.0056947,-0.03998,-0.004708,0.016871,-0.0085548,-0.030486,0.032935,0.091727,0.0057727,0.024548,0.037566,0.13177,0.012265,0.067921,0.056947,-0.039168,-0.034886,-0.082752
-0.023868,-0.059239,-0.017128,-0.079537,0.0053741,0.0076587,0.0010058,-0.039872,-0.0069935,0.0032572,-0.022809,-0.040871,0.03833,0.11993,0.0039162,0.024712,0.043776,0.14942,0.007267,0.071171,0.076992,-0.042927,-0.041955,-0.1013
-0.0182,-0.059704,-0.016262,-0.072782,0.0035008,-0.00033388,-0.0005441,-0.034296,-0.0068517,-0.0016389,-0.030289,-0.040261,0.040381,0.14538,0.0034881,0.035456,0.048878,0.16625,0.006069,0.068599,0.091065,-0.035433,-0.042518,-0.096031
-0.012494,-0.060321,-0.015103,-0.063322,0.0005548,-0.01209,0.0015573,-0.032902,-0.0085196,-0.0029577,-0.030118,-0.04085,0.042338,0.17124,0.0018867,0.053617,0.054022,0.18202,0.0062799,0.063459,0.096996,-0.028584,-0.038799,-0.0749
-0.012746,-0.066403,-0.017296,-0.062582,-0.0037752,-0.025301,0.0055692,-0.040861,-0.014237,-0.0074897,-0.025292,-0.051205,0.047934,0.20096,-0.0017131,0.07217,0.058141,0.19315,0.0044466,0.06031,0.0951,-0.033086,-0.035712,-0.052841
-0.019763,-0.07626,-0.022807,-0.074785,-0.0094617,-0.037127,0.008928,-0.05515,-0.02241,-0.018603,-0.020335,-0.068928,0.057144,0.23184,-0.0052366,0.084519,0.058074,0.19473,-0.00056457,0.060712,0.08681,-0.049149,-0.036849,-0.039356
-0.028321,-0.083231,-0.028378,-0.093858,-0.015772,-0.045215,0.0099488,-0.068128,-0.028944,-0.033688,-0.01862,-0.084006,0.065157,0.25447,-0.0056402,0.088058,0.051201,0.18518,-0.0064984,0.062319,0.072968,-0.067319,-0.042117,-0.033227
-0.031419,-0.082413,-0.030635,-0.10902,-0.02139,-0.048552,0.0085526,-0.074952,-0.030636,-0.046409,-0.02093,-0.08887,0.065915,0.25898,-0.0019291,0.084961,0.038223,0.16889,-0.0098769,0.061663,0.053624,-0.077607,-0.048333,-0.027313
-0.026129,-0.075527,-0.028835,-0.11351,-0.025092,-0.047932,0.0057023,-0.077906,-0.027801,-0.052006,-0.025759,-0.085285,0.057394,0.24301,0.0036844,0.080175,0.023226,0.15334,-0.0093021,0.057316,0.029633,-0.077978,-0.051754,-0.017389
-0.016203,-0.069518,-0.025048,-0.10889,-0.026498,-0.045765,0.002257,-0.083682,-0.023939,-0.051166,-0.030767,-0.082045,0.043931,0.21432,0.0075566,0.078215,0.010661,0.14268,-0.0068118,0.050088,0.0042634,-0.074904,-0.050599,-0.0066403
-0.00936,-0.070546,-0.022149,-0.10229,-0.026317,-0.045107,-0.001706,-0.096128,-0.022776,-0.049149,-0.034289,-0.086617,0.033232,0.18563,0.0076028,0.080722,0.001942,0.13371,-0.0060957,0.040414,-0.017294,-0.076462,-0.046108,-0.0026524
-0.011462,-0.079163,-0.021776,-0.09973,-0.0259,-0.048276,-0.0065942,-0.11126,-0.025229,-0.051039,-0.035961,-0.099121,0.030268,0.16567,0.0047295,0.085871,-0.0050597,0.11857,-0.0092861,0.026379,-0.030779,-0.084881,-0.041759,-0.010694
-0.022208,-0.09091,-0.023836,-0.10184,-0.026446,-0.055798,-0.012428,-0.11939,-0.028898,-0.05741,-0.036294,-0.11379,0.033128,0.15349,0.0015299,0.089543,-0.013083,0.092274,-0.015234,0.0052779,-0.035908,-0.095041,-0.041057,-0.029522
-0.035598,-0.10125,-0.027337,-0.10496,-0.028397,-0.066323,-0.018297,-0.11303,-0.030425,-0.064213,-0.035828,-0.12522,0.034479,0.1403,-0.00032826,0.087421,-0.022007,0.058355,-0.020688,-0.022325,-0.036862,-0.099565,-0.044873,-0.052579
-0.04457,-0.1098,-0.031207,-0.10567,-0.031322,-0.077515,-0.022734,-0.093856,-0.028637,-0.066869,-0.034741,-0.13267,0.02765,0.1171,-0.0014664,0.077003,-0.028442,0.027169,-0.023133,-0.050341,-0.039507,-0.095462,-0.049817,-0.072487
-0.046078,-0.11994,-0.034361,-0.10412,-0.034241,-0.087255,-0.024742,-0.072566,-0.025726,-0.064727,-0.033193,-0.13844,0.012372,0.082045,-0.0037018,0.058733,-0.029016,0.0079656,-0.022706,-0.069913,-0.047349,-0.086618,-0.049116,-0.084773
-0.042768,-0.13437,-0.035534,-0.1032,-0.036145,-0.094348,-0.024592,-0.061235,-0.025495,-0.061887,-0.031826,-0.14338,-0.0046364,0.042187,-0.0077109,0.035834,-0.024194,0.0015288,-0.021639,-0.075661,-0.059401,-0.080527,-0.036333,-0.088775
-0.040318,-0.15128,-0.033775,-0.1048,-0.036494,-0.098487,-0.023643,-0.064264,-0.03015,-0.063678,-0.031586,-0.145,-0.014819,0.0084693,-0.011809,0.012969,-0.018689,-0.00010725,-0.021999,-0.070102,-0.071445,-0.082479,-0.010274,-0.086623
-0.042841,-0.16487,-0.029486,-0.10714,-0.03551,-0.099839,-0.023264,-0.075299,-0.038324,-0.071947,-0.032795,-0.14063,-0.01446,-0.011833,-0.013058,-0.0056126,-0.017697,-0.0066727,-0.02385,-0.062018,-0.079434,-0.092008,0.022146,-0.082082
-0.050018,-0.16987,-0.024859,-0.10607,-0.034054,-0.09887,-0.023738,-0.082697,-0.045934,-0.083287,-0.034385,-0.13193,-0.0074209,-0.019613,-0.0096404,-0.01743,-0.022326,-0.021685,-0.025393,-0.059817,-0.082229,-0.10398,0.047812,-0.079697
-0.057861,-0.16587,-0.022762,-0.099163,-0.033022,-0.096513,-0.024111,-0.078982,-0.049162,-0.091676,-0.034396,-0.1253,-0.001772,-0.022236,-0.0023017,-0.021942,-0.028576,-0.04045,-0.02471,-0.065475,-0.081783,-0.11295,0.053974,-0.083458
-0.062013,-0.15761,-0.024602,-0.088816,-0.032548,-0.094209,-0.02319,-0.066578,-0.047247,-0.093276,-0.03171,-0.12678,-0.0032423,-0.027264,0.0064047,-0.01965,-0.030968,-0.055366,-0.021459,-0.074132,-0.081137,-0.11713,0.035883,-0.094768
-0.060702,-0.15097,-0.028957,-0.081054,-0.031678,-0.093324,-0.02089,-0.055382,-0.042948,-0.089397,-0.027542,-0.13614,-0.01091,-0.036542,0.014219,-0.011073,-0.027509,-0.063226,-0.017151,-0.079363,-0.082164,-0.11928,0.0004625,-0.11105
-0.055221,-0.1483,-0.032329,-0.080623,-0.029033,-0.094131,-0.018683,-0.054603,-0.040422,-0.085271,-0.025046,-0.14611,-0.018457,-0.045134,0.020632,0.0033705,-0.02137,-0.067654,-0.01402,-0.079191,-0.084687,-0.12413,-0.037071,-0.12662
-0.048228,-0.14715,-0.031624,-0.086412,-0.024166,-0.095279,-0.018558,-0.065788,-0.042153,-0.085755,-0.026889,-0.14818,-0.019607,-0.045689,0.026473,0.022388,-0.017739,-0.074658,-0.013593,-0.077656,-0.087162,-0.13437,-0.062145,-0.13587
-0.041793,-0.14325,-0.026393,-0.091294,-0.01852,-0.094581,-0.021225,-0.082412,-0.047222,-0.091486,-0.032694,-0.13998,-0.013081,-0.034704,0.0322,0.042728,-0.018862,-0.085817,-0.015989,-0.080943,-0.087908,-0.1483,-0.069837,-0.13641
-0.03678,-0.13471,-0.01909,-0.086908,-0.014929,-0.090877,-0.025163,-0.09563,-0.052109,-0.098532,-0.038734,-0.1275,-0.0032289,-0.015806,0.036655,0.059347,-0.021944,-0.095717,-0.020154,-0.091862,-0.085967,-0.16046,-0.067851,-0.12995
-0.033407,-0.12383,-0.013222,-0.069748,-0.015733,-0.085539,-0.027622,-0.10097,-0.053294,-0.10174,-0.040534,-0.11999,0.003671,0.0022701,0.037478,0.067295,-0.021911,-0.096153,-0.024585,-0.10738,-0.081365,-0.16513,-0.071028,-0.12039
-0.031684,-0.11484,-0.010977,-0.043784,-0.020933,-0.082099,-0.027005,-0.10075,-0.04967,-0.099003,-0.036405,-0.12195,0.0040359,0.011228,0.032829,0.064176,-0.016446,-0.083295,-0.028114,-0.1209,-0.075119,-0.16015,-0.090682,-0.11096
-0.031022,-0.10995,-0.012051,-0.017567,-0.028035,-0.083934,-0.024517,-0.10126,-0.043056,-0.092998,-0.028944,-0.12936,-0.001138,0.0079623,0.022936,0.051313,-0.0085885,-0.061385,-0.030544,-0.12684,-0.06908,-0.14857,-0.12593,-0.1026
-0.029729,-0.10712,-0.014253,0.0017584,-0.033934,-0.091723,-0.023309,-0.10784,-0.03665,-0.089077,-0.023111,-0.13327,-0.0080678,-0.0047693,0.010108,0.032699,-0.0043585,-0.039779,-0.032892,-0.124,-0.065318,-0.1368,-0.16321,-0.094303
-0.025613,-0.10145,-0.015099,0.012827,-0.037378,-0.10293,-0.025541,-0.122,-0.032823,-0.091105,-0.022442,-0.12733,-0.013548,-0.021627,-0.0028339,0.012653,-0.0074298,-0.026154,-0.03682,-0.1156,-0.064949,-0.13053,-0.18463,-0.084318
-0.01773,-0.089015,-0.013198,0.01962,-0.039842,-0.11397,-0.029988,-0.14182,-0.031961,-0.098711,-0.026534,-0.11285,-0.01696,-0.038845,-0.014499,-0.0058935,-0.015579,-0.021827,-0.043206,-0.10678,-0.067004,-0.13119,-0.17961,-0.071177
-0.007732,-0.069962,-0.008773,0.027095,-0.043918,-0.12321,-0.032722,-0.16404,-0.033058,-0.10813,-0.031739,-0.09752,-0.019688,-0.055911,-0.025641,-0.02147,-0.022167,-0.022829,-0.050722,-0.1018,-0.068399,-0.13549,-0.15168,-0.054361
0.00080498,-0.048658,-0.0033238,0.036793,-0.050492,-0.13212,-0.030666,-0.18539,-0.035188,-0.11568,-0.034239,-0.08951,-0.023093,-0.07382,-0.03794,-0.033286,-0.021519,-0.025051,-0.055855,-0.10219,-0.065509,-0.13823,-0.11591,-0.035127
0.0049054,-0.030805,0.001189,0.045985,-0.057174,-0.14315,-0.024826,-0.2025,-0.038412,-0.12081,-0.032792,-0.092071,-0.027108,-0.091908,-0.051685,-0.041091,-0.013676,-0.028402,-0.055001,-0.10654,-0.056497,-0.13605,-0.08921,-0.01721
0.0044998,-0.019821,0.003319,0.050737,-0.0596,-0.1562,-0.019837,-0.21184,-0.043326,-0.12594,-0.029083,-0.10231,-0.030516,-0.10641,-0.064249,-0.046012,-0.0044991,-0.036281,-0.047401,-0.11163,-0.042691,-0.12925,-0.08089,-0.0062345
0.0024088,-0.015052,0.002872,0.049999,-0.054799,-0.16709,-0.019805,-0.21071,-0.049772,-0.13357,-0.025875,-0.11397,-0.032278,-0.11236,-0.070937,-0.05099,-0.0010559,-0.051262,-0.036442,-0.11432,-0.02777,-0.12055,-0.090069,-0.0072407
0.0019783,-0.012896,0.00097293,0.047194,-0.043966,-0.16993,-0.024189,-0.19914,-0.056069,-0.14336,-0.024872,-0.12117,-0.032476,-0.10755,-0.067994,-0.059421,-0.0060646,-0.071298,-0.027744,-0.11357,-0.015257,-0.11202,-0.11097,-0.021643
0.0044852,-0.0098117,-0.000711,0.048072,-0.032262,-0.16194,-0.027905,-0.18086,-0.059643,-0.15192,-0.025999,-0.12076,-0.032117,-0.095259,-0.055628,-0.072504,-0.015856,-0.090075,-0.025171,-0.11123,-0.0061862,-0.1033,-0.14061,-0.046094
0.0085497,-0.0048814,-0.0011509,0.056672,-0.025513,-0.14644,-0.026014,-0.16194,-0.058734,-0.15556,-0.028173,-0.11269,-0.032214,-0.083231,-0.038465,-0.08773,-0.023305,-0.10127,-0.027931,-0.11075,0.0011897,-0.092367,-0.18189,-0.074524
0.011811,-3.1371e-005,-0.00064756,0.072541,-0.026225,-0.13142,-0.01873,-0.14766,-0.053855,-0.1534,-0.030393,-0.099634,-0.033146,-0.078955,-0.022718,-0.10044,-0.023238,-0.10301,-0.03137,-0.11444,0.0094467,-0.078211,-0.23921,-0.10176
0.013077,0.0022071,-0.00042393,0.091104,-0.031966,-0.1243,-0.011789,-0.13978,-0.047756,-0.14825,-0.032113,-0.085996,-0.034714,-0.084612,-0.012116,-0.1076,-0.016079,-0.098777,-0.03093,-0.12121,0.019409,-0.062638,-0.31054,-0.12561
0.012986,0.0015621,-0.0014129,0.10652,-0.037362,-0.12715,-0.011457,-0.1358,-0.043748,-0.1443,-0.032903,-0.076366,-0.036517,-0.09547,-0.0058713,-0.11034,-0.0071437,-0.094254,-0.025979,-0.12681,0.029108,-0.049365,-0.38283,-0.14563
0.012915,0.0010643,-0.0032563,0.11482,-0.038098,-0.1359,-0.018723,-0.13086,-0.043488,-0.14387,-0.032176,-0.073218,-0.037998,-0.10323,-0.00040209,-0.11276,-0.0024732,-0.092946,-0.020181,-0.12675,0.035183,-0.04109,-0.43563,-0.16046
0.013523,0.0051447,-0.0043783,0.11544,-0.033771,-0.14378,-0.028318,-0.12079,-0.045846,-0.14579,-0.029443,-0.075095,-0.038181,-0.10207,0.0067729,-0.11771,-0.0045612,-0.094346,-0.018084,-0.11976,0.035608,-0.037202,-0.45078,-0.16681
0.014371,0.016075,-0.0030851,0.11072,-0.027464,-0.14583,-0.033637,-0.10433,-0.047686,-0.14661,-0.02486,-0.076984,-0.035734,-0.092761,0.014465,-0.12357,-0.011105,-0.095799,-0.020948,-0.1091,0.03149,-0.034313,-0.42173,-0.16167
0.014764,0.031631,0.0011872,0.10426,-0.022683,-0.14122,-0.032865,-0.083532,-0.046008,-0.14329,-0.019433,-0.073284,-0.029829,-0.081911,0.01889,-0.12555,-0.017386,-0.096019,-0.025556,-0.10054,0.026434,-0.029267,-0.35628,-0.14563
0.014749,0.046143,0.0074,0.099187,-0.020386,-0.1322,-0.030288,-0.062177,-0.03986,-0.13522,-0.014613,-0.061606,-0.021312,-0.076742,0.017321,-0.12057,-0.020144,-0.096974,-0.027114,-0.098437,0.023966,-0.021894,-0.2715,-0.1236
0.015293,0.054415,0.013447,0.097022,-0.018582,-0.12175,-0.031537,-0.043311,-0.030643,-0.12404,-0.011558,-0.044505,-0.012962,-0.07986,0.010822,-0.11142,-0.019902,-0.10253,-0.023694,-0.10293,0.025157,-0.014953,-0.18489,-0.10158
0.017584,0.055502,0.017196,0.097295,-0.014617,-0.11185,-0.037549,-0.02738,-0.0208,-0.11202,-0.010567,-0.027574,-0.0081898,-0.088061,0.0034355,-0.10567,-0.020095,-0.11514,-0.01823,-0.11023,0.028404,-0.011211,-0.10763,-0.082347
0.022136,0.053238,0.017339,0.098207,-0.0079262,-0.10314,-0.043423,-0.01201,-0.012132,-0.10047,-0.010952,-0.015245,-0.0089546,-0.095965,-0.0014198,-0.10978,-0.023927,-0.13346,-0.016176,-0.11555,0.031488,-0.010319,-0.042875,-0.063901
0.028294,0.053027,0.013713,0.098047,-0.00074943,-0.095068,-0.043389,0.0063503,-0.0051566,-0.089415,-0.011395,-0.0076191,-0.014612,-0.10113,-0.003881,-0.12337,-0.031564,-0.15268,-0.020712,-0.11621,0.034009,-0.0084548,0.01131,-0.042435
0.034333,0.057544,0.0072082,0.096671,0.0037786,-0.086089,-0.036859,0.029859,0.0002468,-0.078392,-0.010652,-0.00093723,-0.02275,-0.10621,-0.0070046,-0.13865,-0.039855,-0.16721,-0.029613,-0.11273,0.037888,-0.0013023,0.05786,-0.016846
0.038124,0.064888,-0.00050762,0.095873,0.004374,-0.074178,-0.02929,0.057427,0.0039022,-0.06735,-0.0083448,0.0087193,-0.031176,-0.11643,-0.013101,-0.14609,-0.044685,-0.17356,-0.036586,-0.10754,0.045304,0.01212,0.098335,0.0093839
0.038228,0.070632,-0.0073385,0.098029,0.0026675,-0.058291,-0.026752,0.084918,0.0053291,-0.056844,-0.0053654,0.021642,-0.039102,-0.13472,-0.020594,-0.14148,-0.044012,-0.17172,-0.036127,-0.10277,0.055862,0.028188,0.13356,0.030603
0.035035,0.071877,-0.011285,0.10374,0.001625,-0.040011,-0.029586,0.10739,0.0047221,-0.047453,-0.0034495,0.033864,-0.046427,-0.15873,-0.024633,-0.12863,-0.039166,-0.16452,-0.027989,-0.099137,0.065741,0.041236,0.16632,0.04322
0.031056,0.069838,-0.011152,0.11035,0.0027856,-0.023671,-0.031654,0.12182,0.0037269,-0.03907,-0.0039628,0.040227,-0.052144,-0.18218,-0.021184,-0.11593,-0.033503,-0.15591,-0.017577,-0.096239,0.070067,0.047904,0.20375,0.04785
0.029697,0.068885,-0.0071823,0.11302,0.0048875,-0.01398,-0.026271,0.12847,0.0048071,-0.030802,-0.0067093,0.038584,-0.054028,-0.19888,-0.010941,-0.10993,-0.029601,-0.14917,-0.011856,-0.093403,0.066845,0.049542,0.25692,0.047884
0.032924,0.073047,-0.0011986,0.10791,0.005206,-0.012544,-0.013203,0.12985,0.0093896,-0.021732,-0.0098101,0.031611,-0.050425,-0.20609,0.0006413,-0.11161,-0.027329,-0.14572,-0.013984,-0.089847,0.059121,0.050634,0.33648,0.046511
0.039546,0.083004,0.0040929,0.09524,0.0024137,-0.016174,0.0001457,0.12853,0.016411,-0.012027,-0.010975,0.024846,-0.042507,-0.20449,0.0074158,-0.11763,-0.024246,-0.14489,-0.020891,-0.084184,0.05327,0.054698,0.44604,0.045264
0.04586,0.095984,0.006438,0.079724,-0.0016962,-0.018743,0.0047422,0.12576,0.022815,-0.0034493,-0.0092738,0.022673,-0.034294,-0.19545,0.0071914,-0.12449,-0.017894,-0.1446,-0.025752,-0.074399,0.054564,0.061369,0.57697,0.044937
0.048581,0.10839,0.0052751,0.067553,-0.0033271,-0.015367,-0.0023661,0.12197,0.025846,0.0014615,-0.0059217,0.025566,-0.029736,-0.1786,0.0028568,-0.13105,-0.0080204,-0.14246,-0.023403,-0.059101,0.063572,0.067283,0.70844,0.046923
0.047796,0.11877,0.0019699,0.062343,0.00023091,-0.0055777,-0.015763,0.11844,0.025239,0.0012478,-0.0033145,0.030557,-0.029261,-0.15196,-0.00093452,-0.13768,0.0030222,-0.13682,-0.014476,-0.039343,0.076214,0.069805,0.81365,0.05272
0.047179,0.12872,-0.0012664,0.063073,0.0082224,0.0069522,-0.026737,0.11784,0.023353,-0.0028552,-0.0030239,0.034126,-0.029215,-0.11457,-0.0024432,-0.14393,0.011883,-0.12718,-0.004981,-0.019142,0.087078,0.069986,0.86924,0.061875
0.05088,0.1409,-0.0030406,0.065524,0.016834,0.017604,-0.030798,0.12245,0.023119,-0.0070246,-0.0044279,0.034903,-0.025117,-0.069238,-0.0046311,-0.14789,0.016395,-0.11395,-0.0016499,-0.00353,0.092865,0.071872,0.86336,0.070999
0.059503,0.15616,-0.003668,0.065741,0.022007,0.024063,-0.030728,0.13141,0.025642,-0.006985,-0.0051758,0.034187,-0.015847,-0.022987,-0.012439,-0.14809,0.016648,-0.098033,-0.0066673,0.0047815,0.09316,0.078764,0.79881,0.075863
0.068786,0.1719,-0.0044866,0.062599,0.022229,0.027166,-0.032777,0.13973,0.029577,-0.00079307,-0.0031533,0.034389,-0.0046983,0.015507,-0.027959,-0.14515,0.014388,-0.080631,-0.015912,0.0074611,0.088613,0.090098,0.69109,0.075349
0.072486,0.18317,-0.006224,0.057675,0.019094,0.029314,-0.040124,0.14097,0.032673,0.0098863,0.0016738,0.037094,0.0038704,0.039944,-0.047723,-0.14033,0.01157,-0.063223,-0.022061,0.0093694,0.079103,0.10209,0.56325,0.073477
0.067327,0.18563,-0.0080406,0.053157,0.0155,0.03237,-0.04993,0.1319,0.033923,0.02112,0.0070989,0.04226,0.0086361,0.049309,-0.06446,-0.13185,0.0092921,-0.047427,-0.02011,0.014831,0.06411,0.11171,0.43981,0.076936
0.055865,0.17826,-0.0083148,0.050002,0.013351,0.036841,-0.056449,0.11552,0.034329,0.029631,0.010384,0.048727,0.012726,0.047845,-0.071849,-0.11347,0.0076812,-0.034573,-0.011002,0.024363,0.044824,0.12028,0.34092,0.089735
0.044665,0.16389,-0.0064863,0.047721,0.012702,0.042449,-0.056735,0.099099,0.035745,0.034942,0.010456,0.055157,0.020168,0.042168,-0.068488,-0.07854,0.0063562,-0.025307,-0.00065372,0.034589,0.025326,0.13297,0.27812,0.10971
0.039121,0.1473,-0.0040582,0.04536,0.012707,0.048942,-0.053244,0.088622,0.039034,0.039095,0.0087494,0.060662,0.031223,0.037399,-0.058197,-0.027583,0.0048617,-0.01957,0.004672,0.041416,0.010906,0.15418,0.25285,0.13033
0.039172,0.13222,-0.0035485,0.042207,0.013052,0.056242,-0.051066,0.083863,0.043243,0.04447,0.0079568,0.065061,0.041244,0.034769,-0.04698,0.027655,0.0028791,-0.016871,0.002907,0.043739,0.0044639,0.18263,0.25899,0.14634
0.039555,0.11918,-0.0062514,0.037549,0.014412,0.06416,-0.052814,0.078329,0.046395,0.05175,0.009694,0.069017,0.044386,0.032024,-0.039453,0.068717,0.00039873,-0.016466,-0.0027911,0.044579,0.0041044,0.21043,0.28809,0.15818
0.034431,0.10571,-0.011005,0.030122,0.017655,0.072446,-0.056318,0.064162,0.047023,0.059692,0.013099,0.074042,0.038697,0.025955,-0.037378,0.081541,-0.0020963,-0.017259,-0.0069642,0.048715,0.0043342,0.22737,0.33405,0.17077
0.022529,0.088788,-0.015281,0.01837,0.022792,0.081304,-0.057205,0.037998,0.045128,0.066509,0.015638,0.081963,0.027673,0.014904,-0.040625,0.065625,-0.0037203,-0.017807,-0.0060842,0.058799,0.00017109,0.22737,0.3937,0.18785
0.0084434,0.067792,-0.01759,0.0016633,0.028738,0.091657,-0.053534,0.0031751,0.041955,0.071397,0.015483,0.093757,0.016828,-0.00060195,-0.048787,0.033677,-0.0037577,-0.016848,-0.00074177,0.073055,-0.0090619,0.21235,0.46256,0.20726
-0.0010322,0.045877,-0.018774,-0.018528,0.034068,0.10452,-0.047784,-0.032853,0.039063,0.074976,0.013375,0.1084,0.0087241,-0.019126,-0.061572,0.0020281,-0.0023663,-0.014147,0.0055301,0.086301,-0.0193,0.1908,0.52972,0.22171
-0.0024364,0.028386,-0.020871,-0.038696,0.037995,0.11992,-0.044252,-0.062956,0.037569,0.078721,0.012246,0.12275,0.001288,-0.039813,-0.07785,-0.020196,-0.0006678,-0.010811,0.009345,0.093488,-0.024975,0.17224,0.57704,0.22455
0.001642,0.019115,-0.024671,-0.054807,0.04077,0.13648,-0.04453,-0.082761,0.037996,0.084183,0.014839,0.13287,-0.0090929,-0.062303,-0.094816,-0.034574,0.00011473,-0.0084853,0.0098182,0.09318,-0.023355,0.16153,0.58504,0.21502
0.0048711,0.017102,-0.028507,-0.064275,0.043332,0.15249,-0.045534,-0.090001,0.04049,0.092509,0.02139,0.13626,-0.022979,-0.085068,-0.10864,-0.04783,-0.00014419,-0.0079626,0.0086407,0.088546,-0.016668,0.15683,0.54249,0.19809
0.0024155,0.016727,-0.029583,-0.067098,0.046661,0.16741,-0.042051,-0.083127,0.044917,0.10409,0.0294,0.13332,-0.0364,-0.10408,-0.11638,-0.063191,-0.00010506,-0.0084724,0.0083965,0.085217,-0.010456,0.15206,0.45314,0.17912
-0.0053747,0.011535,-0.0266,-0.065547,0.051291,0.18223,-0.031425,-0.061931,0.050708,0.11822,0.035626,0.12729,-0.04385,-0.1139,-0.11752,-0.07639,0.0019852,-0.0084021,0.010812,0.087414,-0.0094512,0.14192,0.33426,0.15881
-0.013753,-0.00085927,-0.021108,-0.062812,0.057113,0.19788,-0.016063,-0.029962,0.056793,0.13309,0.038451,0.1224,-0.04272,-0.11119,-0.11367,-0.079044,0.0065647,-0.0067746,0.016154,0.094964,-0.013993,0.12576,0.20767,0.13374
-0.017793,-0.016731,-0.016295,-0.061528,0.063332,0.21286,-0.0016033,0.004458,0.062031,0.14674,0.038571,0.12159,-0.03492,-0.097995,-0.10671,-0.065688,0.011917,-0.0040404,0.02369,0.1033,-0.019637,0.10798,0.088929,0.10194
-0.0162,-0.028947,-0.014417,-0.062936,0.068588,0.22261,0.0074039,0.031276,0.06597,0.15835,0.037667,0.12511,-0.024512,-0.081648,-0.097253,-0.038488,0.015173,-0.001488,0.032339,0.10662,-0.020303,0.09472,-0.018393,0.068222
-0.011617,-0.032437,-0.015295,-0.066869,0.071374,0.22195,0.010384,0.044519,0.069254,0.16873,0.036579,0.13076,-0.014111,-0.070495,-0.084643,-0.006619,0.014482,-3.0266e-005,0.040886,0.10211,-0.012781,0.089284,-0.12047,0.043046
-0.0076888,-0.02802,-0.0171,-0.07232,0.070771,0.20912,0.0099551,0.046181,0.072983,0.17913,0.034704,0.13549,-0.003639,-0.068367,-0.068652,0.018213,0.010511,0.00032529,0.047912,0.092242,0.00064859,0.08962,-0.22555,0.035277
-0.0058726,-0.021467,-0.01835,-0.078187,0.067073,0.18811,0.0087779,0.044385,0.077295,0.18914,0.030938,0.13734,0.0077779,-0.07221,-0.050879,0.02667,0.0059518,-2.5627e-005,0.051957,0.083291,0.013482,0.089577,-0.33628,0.044799
-0.0048173,-0.018722,-0.019056,-0.083815,0.061734,0.1666,0.0073082,0.046838,0.08038,0.19587,0.02491,0.13655,0.019347,-0.075105,-0.034353,0.014859,0.0035053,-0.00084462,0.052086,0.081145,0.019322,0.083154,-0.44634,0.061921
-0.0024649,-0.021389,-0.020078,-0.089081,0.056463,0.1506,0.0044218,0.054895,0.079146,0.19567,0.017295,0.13534,0.028475,-0.072416,-0.021399,-0.014641,0.0041838,-0.0016256,0.048415,0.08733,0.016124,0.068648,-0.54207,0.074644
0.0013993,-0.026206,-0.021704,-0.093958,0.05208,0.13991,-0.00015424,0.063051,0.071433,0.1872,0.0091952,0.13638,0.033093,-0.065951,-0.011557,-0.0534,0.0073791,-0.00050005,0.041996,0.098183,0.0072275,0.049704,-0.60744,0.077829
0.0045661,-0.028626,-0.023094,-0.097871,0.048044,0.12831,-0.0044101,0.063875,0.058077,0.17296,0.0015341,0.14088,0.033801,-0.062478,-0.0014979,-0.089599,0.012307,0.0059684,0.034063,0.10761,-0.0014694,0.032609,-0.62963,0.076318
0.0041979,-0.027135,-0.02311,-0.099448,0.043092,0.10904,-0.00529,0.053799,0.04286,0.15747,-0.0048926,0.14752,0.033449,-0.067627,0.012714,-0.1124,0.019062,0.021037,0.025255,0.11121,-0.005808,0.022077,-0.60361,0.079174
-0.00069129,-0.024513,-0.021527,-0.097179,0.036457,0.081291,-0.0015199,0.035008,0.030019,0.14341,-0.0091481,0.15276,0.034576,-0.080159,0.032601,-0.11678,0.028044,0.045059,0.015578,0.10857,-0.0057195,0.018798,-0.53451,0.08995
-0.0081853,-0.025178,-0.019283,-0.090775,0.028577,0.052141,0.0046982,0.012736,0.021263,0.1295,-0.010477,0.15264,0.037425,-0.091267,0.055775,-0.10586,0.038442,0.074293,0.0051258,0.10252,-0.0040052,0.020349,-0.43688,0.10151
-0.014629,-0.031128,-0.017567,-0.082181,0.020743,0.03174,0.0088689,-0.0086872,0.014924,0.11209,-0.0092001,0.14489,0.040565,-0.089508,0.07711,-0.088371,0.047747,0.10296,-0.0051834,0.096276,-0.003031,0.024069,-0.33056,0.10015
-0.017042,-0.040003,-0.016755,-0.075012,0.014084,0.025245,0.0073792,-0.027433,0.0081183,0.08959,-0.0071541,0.13013,0.043246,-0.06751,0.0917,-0.072524,0.0534,0.12738,-0.013704,0.091202,-0.0025118,0.029002,-0.23438,0.075867
-0.015015,-0.046733,-0.016215,-0.072302,0.0088935,0.028114,-2.0551e-006,-0.043026,-7.3863e-005,0.065245,-0.0067639,0.11138,0.04679,-0.025627,0.097418,-0.060448,0.055327,0.14878,-0.019034,0.086759,-0.00036062,0.035222,-0.16048,0.030386
-0.010814,-0.047248,-0.015049,-0.074075,0.0048308,0.029093,-0.010324,-0.054915,-0.0075108,0.045605,-0.0092054,0.092295,0.05337,0.029551,0.09529,-0.047706,0.056728,0.17179,-0.021057,0.082198,0.0043818,0.041681,-0.112,-0.023697
-0.0076664,-0.041302,-0.01293,-0.076967,0.0015891,0.018928,-0.019962,-0.06285,-0.011221,0.0355,-0.013287,0.075441,0.063482,0.089972,0.08767,-0.028378,0.061758,0.19949,-0.021144,0.078056,0.0095338,0.045235,-0.084945,-0.071876
-0.0074506,-0.032469,-0.010348,-0.076808,-0.00077886,-0.0021574,-0.027129,-0.068352,-0.010922,0.033992,-0.016301,0.061728,0.074874,0.15033,0.075822,-0.0015623,0.071668,0.22892,-0.021324,0.076057,0.010859,0.042291,-0.072604,-0.10757
-0.0094084,-0.025643,-0.008255,-0.072427,-0.0021906,-0.024504,-0.032333,-0.07471,-0.010266,0.035017,-0.01631,0.051244,0.084199,0.20892,0.058897,0.026143,0.082893,0.25146,-0.023062,0.077736,0.0055133,0.031747,-0.069539,-0.13506
-0.010912,-0.02394,-0.0075547,-0.067352,-0.002989,-0.036733,-0.036805,-0.084317,-0.014153,0.032295,-0.013865,0.044478,0.089714,0.2652,0.035042,0.044269,0.08925,0.25839,-0.02647,0.083295,-0.0052387,0.016368,-0.073246,-0.16375
-0.0097946,-0.026941,-0.0086854,-0.067272,-0.0038252,-0.034818,-0.040704,-0.095337,-0.024254,0.02428,-0.011486,0.042644,0.092163,0.31641,0.0037816,0.045208,0.086799,0.24764,-0.030356,0.091696,-0.016639,0.001055,-0.083332,-0.19884
-0.0064294,-0.03115,-0.011255,-0.074731,-0.0049701,-0.024972,-0.042871,-0.10122,-0.036798,0.014865,-0.011235,0.046621,0.092927,0.35619,-0.032128,0.028658,0.07724,0.22592,-0.032985,0.10157,-0.024055,-0.010604,-0.099474,-0.23627
-0.0037038,-0.032219,-0.01385,-0.085511,-0.0058146,-0.018072,-0.042184,-0.094498,-0.044924,0.0094486,-0.012525,0.055405,0.091602,0.37668,-0.066717,0.0007098,0.066617,0.20428,-0.033162,0.11163,-0.026488,-0.01848,-0.1196,-0.26576
-0.0046673,-0.027703,-0.014429,-0.090455,-0.0052256,-0.020615,-0.038959,-0.072421,-0.043761,0.010058,-0.012257,0.065594,0.085896,0.37287,-0.092779,-0.030908,0.060113,0.19011,-0.031102,0.12013,-0.026892,-0.024979,-0.13912,-0.2791
-0.0097016,-0.018768,-0.011503,-0.082192,-0.00252,-0.030047,-0.034924,-0.039796,-0.033959,0.013853,-0.0073484,0.072756,0.074296,0.3462,-0.10472,-0.061139,0.057405,0.18214,-0.028488,0.12405,-0.02908,-0.032145,-0.15151,-0.27677
-0.015738,-0.0097591,-0.0054322,-0.061648,0.0019027,-0.038221,-0.031799,-0.0063687,-0.020748,0.016087,0.0023586,0.073897,0.058714,0.30436,-0.10075,-0.088414,0.052852,0.17229,-0.027368,0.11972,-0.034062,-0.039621,-0.15011,-0.26771
-0.018465,-0.0056818,0.0013639,-0.038719,0.0069242,-0.039389,-0.029862,0.019477,-0.0095794,0.014596,0.013302,0.069212,0.043943,0.25699,-0.083445,-0.11243,0.040744,0.15287,-0.028382,0.10494,-0.039137,-0.045209,-0.13076,-0.26293
-0.015863,-0.0090973,0.0057917,-0.025883,0.011668,-0.035241,-0.027852,0.035736,-0.0022505,0.011727,0.020292,0.061713,0.033867,0.21028,-0.058428,-0.13174,0.021192,0.12333,-0.029662,0.081263,-0.040414,-0.047159,-0.094585,-0.26849
-0.010089,-0.018584,0.0061069,-0.029421,0.015991,-0.032522,-0.024181,0.046534,0.003344,0.012158,0.019974,0.055059,0.027926,0.16502,-0.032024,-0.14338,0.0013501,0.091046,-0.027699,0.054234,-0.036343,-0.045784,-0.050056,-0.28308
-0.0060237,-0.030014,0.0028455,-0.045126,0.019964,-0.035861,-0.018236,0.057101,0.010122,0.018678,0.013105,0.051323,0.021512,0.11981,-0.0090185,-0.1443,-0.009523,0.065589,-0.019949,0.030861,-0.029038,-0.04302,-0.01309,-0.30101
-0.0076186,-0.039758,-0.0021057,-0.061809,0.022937,-0.042873,-0.010615,0.068599,0.0185,0.029557,0.0040137,0.050329,0.010252,0.07658,0.0084794,-0.13274,-0.0073122,0.051469,-0.0072716,0.01587,-0.022448,-0.040755,-0.0041456,-0.31672
-0.014996,-0.047234,-0.0072181,-0.069568,0.023395,-0.046243,-0.0022253,0.077497,0.025819,0.039549,-0.0022448,0.050671,-0.0057494,0.042907,0.020737,-0.10844,0.003438,0.04502,0.0060191,0.0094025,-0.019334,-0.039846,-0.041519,-0.32639
-0.02456,-0.05461,-0.01198,-0.066184,0.020018,-0.040761,0.0067113,0.079982,0.028754,0.043545,-0.0029515,0.051085,-0.021781,0.027954,0.029093,-0.072069,0.012736,0.037865,0.014912,0.0078082,-0.019863,-0.040604,-0.13188,-0.32599
-0.031821,-0.0639,-0.015951,-0.057013,0.013083,-0.028524,0.016791,0.077102,0.026365,0.04001,0.0010415,0.050877,-0.032639,0.034679,0.034575,-0.025342,0.012469,0.023868,0.01725,0.0067854,-0.02269,-0.04368,-0.26191,-0.30936
-0.034538,-0.074123,-0.017627,-0.049444,0.0047806,-0.017359,0.028652,0.075299,0.021101,0.031855,0.0065022,0.049409,-0.037019,0.055073,0.037265,0.027983,0.0018859,0.0039212,0.015256,0.0043778,-0.026905,-0.049877,-0.39688,-0.27032
-0.033807,-0.0813,-0.014941,-0.047137,-0.0020439,-0.013943,0.042137,0.08107,0.017053,0.024384,0.010318,0.045762,-0.038039,0.073311,0.036632,0.081611,-0.012914,-0.01506,0.013815,0.0016723,-0.032625,-0.058923,-0.49016,-0.20837
-0.032573,-0.081578,-0.0073723,-0.048557,-0.005712,-0.017933,0.056218,0.094154,0.017066,0.021984,0.01145,0.039373,-0.039656,0.075177,0.032339,0.12832,-0.024461,-0.0257,0.016907,0.0009868,-0.0398,-0.068847,-0.50188,-0.13325
-0.033009,-0.074746,0.0025212,-0.049938,-0.0064985,-0.022265,0.069684,0.10573,0.021046,0.025736,0.011114,0.031086,-0.042732,0.056581,0.02477,0.16345,-0.029425,-0.025536,0.024939,0.0032448,-0.046917,-0.07723,-0.41798,-0.062893
-0.034847,-0.064851,0.010277,-0.049062,-0.0057152,-0.018925,0.081898,0.10424,0.026605,0.033343,0.011397,0.023185,-0.044692,0.024593,0.014891,0.18795,-0.029804,-0.018074,0.034808,0.0066337,-0.051462,-0.083441,-0.25871,-0.014202
-0.035748,-0.057158,0.012912,-0.046332,-0.0040391,-0.0048551,0.092972,0.084778,0.031248,0.041096,0.013557,0.017752,-0.042885,-0.0092134,0.0037417,0.20802,-0.029641,-0.0092451,0.04233,0.0074524,-0.052031,-0.0894,-0.070745,0.0072617
-0.033239,-0.054063,0.011469,-0.042906,-0.00074101,0.01685,0.10332,0.05419,0.034212,0.046375,0.017289,0.014509,-0.038003,-0.036994,-0.0078342,0.23086,-0.030901,-0.002713,0.045055,0.0024125,-0.049958,-0.097495,0.093437,0.010946
-0.026709,-0.053604,0.010034,-0.038536,0.0054011,0.040506,0.11309,0.027221,0.036615,0.048904,0.021281,0.010341,-0.033857,-0.057664,-0.018933,0.25909,-0.032264,0.0020852,0.043585,-0.0092088,-0.048441,-0.1073,0.19754,0.014813
-0.017985,-0.051805,0.01185,-0.031572,0.014341,0.062149,0.12181,0.016362,0.040014,0.05007,0.024346,0.0015625,-0.033547,-0.073318,-0.028204,0.2878,-0.031356,0.0079899,0.040838,-0.024845,-0.049578,-0.11452,0.23328,0.032943
-0.010096,-0.046528,0.016162,-0.020966,0.02385,0.080742,0.12834,0.023468,0.044751,0.05106,0.026138,-0.012508,-0.03581,-0.083785,-0.034002,0.30674,-0.02775,0.016411,0.040093,-0.03964,-0.051968,-0.11392,0.21706,0.066164
-0.0051289,-0.039169,0.018954,-0.0079205,0.030437,0.096099,0.13095,0.039692,0.049504,0.051471,0.026985,-0.027819,-0.035348,-0.085285,-0.035239,0.30648,-0.023698,0.025111,0.043171,-0.048566,-0.051375,-0.10409,0.17521,0.10249
-0.0028141,-0.03273,0.017021,0.0046653,0.031483,0.1065,0.12774,0.053201,0.052357,0.049596,0.027213,-0.037827,-0.027267,-0.074571,-0.032338,0.28452,-0.022089,0.029161,0.049678,-0.048638,-0.044144,-0.089627,0.12696,0.12688
-0.00097269,-0.028383,0.011457,0.0144,0.026894,0.10881,0.11761,0.057807,0.052394,0.044061,0.02669,-0.038578,-0.011855,-0.054244,-0.027338,0.24705,-0.023766,0.024148,0.057425,-0.040227,-0.030307,-0.078177,0.07381,0.13295
0.0024545,-0.024035,0.0071213,0.021023,0.018951,0.10097,0.10161,0.05564,0.050398,0.035298,0.024998,-0.032589,0.0045532,-0.033521,-0.022845,0.20529,-0.0268,0.0092248,0.063591,-0.026832,-0.013364,-0.07444,-0.00016227,0.12795
0.0074489,-0.016376,0.0084722,0.025928,0.010544,0.084415,0.083685,0.052812,0.047994,0.025373,0.022037,-0.027905,0.013623,-0.022841,-0.020478,0.16866,-0.028253,-0.012089,0.066058,-0.013333,0.0031943,-0.076326,-0.11835,0.12746
0.01175,-0.0043575,0.015631,0.030278,0.0032684,0.064072,0.069715,0.053052,0.045952,0.016183,0.018417,-0.032402,0.010813,-0.026431,-0.01995,0.13965,-0.026695,-0.03381,0.064367,-0.0035613,0.019313,-0.07671,-0.29699,0.14404
0.01278,0.0093204,0.024265,0.033771,-0.0030824,0.045854,0.064545,0.055115,0.04318,0.0076053,0.015207,-0.047624,-0.0015509,-0.038935,-0.019461,0.11377,-0.023152,-0.050855,0.059892,0.0014187,0.038241,-0.069273,-0.53264,0.17836
0.010099,0.020185,0.029236,0.035272,-0.0093281,0.033772,0.068823,0.055294,0.037455,-0.0025753,0.013143,-0.067278,-0.016117,-0.04896,-0.017089,0.084674,-0.01973,-0.061704,0.054973,0.0032397,0.062629,-0.053333,-0.79738,0.21957
0.0062245,0.025511,0.02862,0.034487,-0.015235,0.028633,0.077984,0.051439,0.027479,-0.016513,0.011954,-0.081958,-0.025553,-0.046827,-0.012254,0.050674,-0.01729,-0.068582,0.051292,0.0044389,0.090434,-0.033631,-1.0444,0.25429
0.0048842,0.026084,0.024696,0.032869,-0.01903,0.028761,0.084656,0.044241,0.01465,-0.033557,0.010464,-0.086438,-0.02687,-0.030787,-0.0063171,0.017624,-0.014308,-0.074981,0.048429,0.0062704,0.11472,-0.01573,-1.2225,0.27685
0.0080344,0.024757,0.021515,0.032824,-0.01873,0.031623,0.083182,0.035173,0.0029311,-0.049363,0.0074939,-0.083605,-0.022044,-0.007469,-0.0020583,-0.0043372,-0.0080494,-0.082308,0.043837,0.0077683,0.12803,-0.0014545,-1.2941,0.29303
0.014121,0.023502,0.021609,0.036064,-0.014254,0.035024,0.073106,0.024216,-0.0034417,-0.058118,0.002881,-0.081854,-0.015026,0.013179,-0.0022981,-0.0080826,0.0028407,-0.088311,0.03472,0.0067611,0.1276,0.011648,-1.2489,0.31457
0.019152,0.021917,0.024634,0.042608,-0.0083505,0.037438,0.059027,0.010379,-0.0029477,-0.056588,-0.0023038,-0.088287,-0.0079346,0.024553,-0.0083427,0.0046159,0.016421,-0.088787,0.020764,0.0020048,0.11684,0.02684,-1.1066,0.34972
0.019778,0.018483,0.028508,0.051054,-0.0051912,0.037961,0.047044,-0.0054504,0.0017151,-0.046971,-0.0066123,-0.10346,0.00046987,0.027205,-0.018994,0.023376,0.027898,-0.081437,0.0055286,-0.0053042,0.1016,0.044273,-0.90712,0.39742
0.015873,0.012996,0.031416,0.059449,-0.0074155,0.036443,0.040608,-0.018834,0.0049426,-0.036066,-0.0094226,-0.12169,0.012947,0.027706,-0.030729,0.035805,0.032333,-0.068705,-0.0051698,-0.011921,0.084862,0.060149,-0.69388,0.44858
0.010506,0.0075151,0.032795,0.06591,-0.013925,0.033758,0.038972,-0.023883,0.0017185,-0.031035,-0.011353,-0.13594,0.030264,0.033691,-0.03916,0.035507,0.027771,-0.056961,-0.0072891,-0.014649,0.064584,0.069389,-0.49772,0.49157
0.0073999,0.0047944,0.032944,0.068949,-0.02039,0.031717,0.039079,-0.017834,-0.0090068,-0.034741,-0.013401,-0.14241,0.049029,0.048407,-0.041111,0.02533,0.016527,-0.052244,-0.0020643,-0.012562,0.03686,0.069158,-0.33095,0.51596
0.0080414,0.0057699,0.032278,0.067971,-0.022367,0.032358,0.038833,-0.0038626,-0.023442,-0.044129,-0.015546,-0.1413,0.062904,0.068206,-0.036087,0.013458,0.0036331,-0.055713,0.0041264,-0.0075796,0.0010821,0.060275,-0.19161,0.51203
0.010808,0.0086487,0.03118,0.063866,-0.018765,0.036931,0.038735,0.010858,-0.035301,-0.05278,-0.016191,-0.13393,0.066556,0.084607,-0.02609,0.005888,-0.0064057,-0.062307,0.0040305,-0.0029073,-0.037827,0.04582,-0.072344,0.46988
0.012643,0.010566,0.030274,0.058853,-0.012898,0.045326,0.04061,0.020473,-0.039752,-0.055479,-0.013171,-0.12034,0.059492,0.089679,-0.013873,0.0018127,-0.012169,-0.063587,-0.005098,-0.00055788,-0.072328,0.028713,0.034131,0.38259
0.011676,0.010271,0.030308,0.055084,-0.010125,0.05638,0.044981,0.024504,-0.03614,-0.051186,-0.0056358,-0.099689,0.046794,0.081157,-0.00097121,-0.0042542,-0.01533,-0.052487,-0.019364,-2.1963e-005,-0.097517,0.010551,0.13623,0.25356
0.0084997,0.0092945,0.031365,0.052918,-0.013734,0.068792,0.049883,0.027081,-0.027543,-0.042458,0.0048076,-0.073003,0.036015,0.063665,0.012886,-0.015836,-0.018297,-0.026566,-0.031337,0.00081052,-0.11373,-0.0075837,0.24732,0.10127
0.0051975,0.010477,0.032298,0.050646,-0.022204,0.081887,0.05245,0.032254,-0.017732,-0.03248,0.014773,-0.044629,0.03232,0.045058,0.028448,-0.02968,-0.021511,0.011947,-0.036038,0.0033473,-0.12421,-0.023592,0.38534,-0.045394
0.0031913,0.01519,0.031376,0.046381,-0.030032,0.095668,0.051812,0.039888,-0.0080892,-0.022684,0.021108,-0.020474,0.035341,0.03064,0.044886,-0.037446,-0.022693,0.058266,-0.034817,0.0067597,-0.13036,-0.033954,0.56554,-0.16086
0.0019432,0.021771,0.027994,0.040586,-0.031575,0.11026,0.050398,0.045983,0.002978,-0.012869,0.022609,-0.0043777,0.039915,0.019868,0.058978,-0.032606,-0.018716,0.10694,-0.033728,0.008673,-0.12964,-0.035198,0.7905,-0.23603
-0.00040432,0.026611,0.02381,0.036641,-0.024973,0.12534,0.052129,0.047009,0.017834,-0.0030357,0.020131,0.0039891,0.040041,0.0082946,0.06662,-0.016439,-0.0087081,0.15221,-0.037651,0.0074008,-0.11817,-0.026208,1.0451,-0.28018
-0.005135,0.026999,0.021819,0.038379,-0.013166,0.13998,0.058922,0.044117,0.036641,0.005413,0.015269,0.0077467,0.033124,-0.0069179,0.065754,0.0022372,0.004073,0.1876,-0.045193,0.0034728,-0.095585,-0.0094673,1.3004,-0.30967
-0.01152,0.023362,0.023682,0.046479,-0.0013853,0.1529,0.068649,0.043273,0.056195,0.010518,0.0090304,0.0093793,0.021493,-0.022805,0.058464,0.013313,0.013219,0.20642,-0.048897,-0.0011427,-0.06717,0.0099969,1.5227,-0.33295
-0.017025,0.019089,0.027685,0.05703,0.0066272,0.16251,0.076484,0.051118,0.071415,0.011706,0.0016944,0.0086048,0.010259,-0.031744,0.05041,0.012082,0.012578,0.20391,-0.04086,-0.0053575,-0.040997,0.027392,1.6836,-0.34495
-0.018928,0.018119,0.029591,0.063901,0.010488,0.16688,0.078473,0.070044,0.078147,0.010633,-0.0062495,0.0035248,0.003251,-0.027446,0.047768,0.00074632,-9.8333e-005,0.17989,-0.01921,-0.0103,-0.022529,0.040674,1.7647,-0.33545
-0.016088,0.022227,0.026188,0.063142,0.011827,0.16384,0.074185,0.096342,0.075083,0.0098476,-0.013358,-0.0061874,1.1609e-005,-0.010983,0.053728,-0.015931,-0.021726,0.13988,0.0099016,-0.01796,-0.011661,0.050906,1.7584,-0.30293
-0.0096243,0.030067,0.018552,0.0557,0.011415,0.15186,0.066165,0.1224,0.063738,0.010461,-0.017707,-0.017304,-0.0039871,0.0083284,0.066877,-0.036138,-0.045664,0.093312,0.036423,-0.02824,-0.0046373,0.060227,1.6666,-0.26051
-0.0021471,0.038641,0.011842,0.046216,0.0078067,0.13137,0.056923,0.14084,0.047125,0.011043,-0.018303,-0.024462,-0.014106,0.018286,0.082345,-0.062228,-0.065513,0.049564,0.053235,-0.037542,0.0014272,0.069169,1.4995,-0.22772
0.0038889,0.046013,0.011343,0.039183,-0.0010945,0.10552,0.046388,0.14769,0.028445,0.0088719,-0.016102,-0.024095,-0.032645,0.011544,0.094617,-0.096551,-0.078395,0.013895,0.060183,-0.040932,0.006001,0.075624,1.2717,-0.2157
0.0076744,0.053084,0.018017,0.035924,-0.015174,0.079154,0.032215,0.14332,0.010454,0.0024633,-0.013567,-0.017664,-0.057106,-0.0099122,0.1001,-0.13626,-0.085639,-0.014128,0.062369,-0.036478,0.0067525,0.076377,1.0004,-0.21949
0.010451,0.062902,0.027517,0.034798,-0.031012,0.056292,0.012642,0.13146,-0.0048106,-0.0068132,-0.013011,-0.011343,-0.081812,-0.036469,0.098141,-0.17282,-0.090627,-0.038805,0.064627,-0.027726,0.0031073,0.069897,0.70426,-0.22456
0.014517,0.077761,0.033668,0.033823,-0.04395,0.037703,-0.010823,0.1173,-0.016426,-0.015371,-0.015079,-0.012068,-0.10161,-0.056927,0.090594,-0.19767,-0.095528,-0.064223,0.067118,-0.021494,-0.0024049,0.057896,0.40707,-0.22144
0.021393,0.096277,0.033363,0.032801,-0.051523,0.020649,-0.033384,0.1051,-0.024926,-0.019781,-0.018594,-0.022678,-0.1148,-0.064307,0.080599,-0.20959,-0.099268,-0.090598,0.065641,-0.022291,-0.0066197,0.044193,0.14068,-0.21476
0.030321,0.11297,0.028595,0.032979,-0.054955,0.0012969,-0.049758,0.095996,-0.031982,-0.019085,-0.021756,-0.039617,-0.12328,-0.057948,0.071444,-0.21653,-0.098107,-0.11345,0.05596,-0.028153,-0.0093621,0.031819,-0.058148,-0.21882
0.038255,0.12122,0.024052,0.035036,-0.057263,-0.021853,-0.057483,0.087205,-0.039261,-0.015432,-0.023564,-0.054884,-0.12987,-0.041808,0.065636,-0.22905,-0.088341,-0.12602,0.038015,-0.031815,-0.014075,0.020922,-0.16042,-0.24436
0.041529,0.11781,0.022756,0.037882,-0.059886,-0.046259,-0.058067,0.073866,-0.047221,-0.012649,-0.02429,-0.060951,-0.13538,-0.021476,0.064283,-0.2499,-0.069296,-0.12308,0.016294,-0.026622,-0.024253,0.0094171,-0.1608,-0.28882
0.038203,0.10549,0.023776,0.03969,-0.061281,-0.066869,-0.055273,0.053127,-0.054917,-0.013674,-0.02476,-0.055358,-0.13787,-0.0022576,0.066945,-0.26904,-0.044626,-0.10336,-0.0036617,-0.012201,-0.03893,-0.0041034,-0.0846,-0.33823
0.029441,0.091338,0.023794,0.040038,-0.058986,-0.079799,-0.052159,0.027766,-0.061057,-0.018475,-0.02528,-0.041968,-0.13455,0.011316,0.072155,-0.26976,-0.020982,-0.069406,-0.0192,0.0050093,-0.051786,-0.017753,0.022253,-0.37729
0.018837,0.081685,0.020597,0.040677,-0.053048,-0.085227,-0.049311,0.0061619,-0.065342,-0.023836,-0.025232,-0.028163,-0.12465,0.015716,0.078443,-0.24268,-0.0046641,-0.025691,-0.031367,0.016915,-0.055227,-0.026429,0.1158,-0.39759
0.0101,0.07746,0.015033,0.043722,-0.047158,-0.08708,-0.045374,-0.0022694,-0.068836,-0.025379,-0.023649,-0.019999,-0.11053,0.0093328,0.085324,-0.19629,0.001874,0.022743,-0.042194,0.020237,-0.045955,-0.02474,0.17418,-0.39734
0.0047023,0.073593,0.0098369,0.048739,-0.045908,-0.089673,-0.038957,0.0066242,-0.073029,-0.020701,-0.020156,-0.018648,-0.096156,-0.0064508,0.093627,-0.15405,0.0015506,0.070266,-0.051444,0.018906,-0.026992,-0.010505,0.20168,-0.37559
0.0012575,0.063125,0.0068477,0.051584,-0.050437,-0.093995,-0.030083,0.028369,-0.078528,-0.011517,-0.01538,-0.020393,-0.084238,-0.027348,0.10503,-0.13847,0.0010383,0.11029,-0.056165,0.020634,-0.0043473,0.013876,0.21541,-0.32913
-0.0029343,0.042881,0.0055415,0.046601,-0.056608,-0.096713,-0.020092,0.052348,-0.084585,-0.0029894,-0.010446,-0.019874,-0.074692,-0.048057,0.12113,-0.1536,0.0067499,0.13643,-0.053512,0.030737,0.018456,0.043068,0.22578,-0.25617
-0.0093701,0.016347,0.0041384,0.03089,-0.057785,-0.092818,-0.01049,0.06871,-0.089779,-0.00030436,-0.0060765,-0.014069,-0.065677,-0.064968,0.14267,-0.18043,0.020894,0.14538,-0.044033,0.048214,0.042806,0.071884,0.22497,-0.16245
-0.016874,-0.0084293,0.0018713,0.0073587,-0.050133,-0.079837,-0.0019665,0.074804,-0.092995,-0.0047217,-0.0021271,-0.0042151,-0.056163,-0.077729,0.16915,-0.18981,0.040287,0.13939,-0.032136,0.066769,0.072162,0.097227,0.18934,-0.061699
-0.02239,-0.024249,-7.8575e-005,-0.016052,-0.035925,-0.060203,0.0056872,0.076445,-0.093739,-0.012162,0.0020352,0.005344,-0.047596,-0.088331,0.19881,-0.16384,0.058769,0.12534,-0.023181,0.079354,0.10683,0.11761,0.092193,0.032211
-0.023436,-0.029372,5.6268e-005,-0.030754,-0.021879,-0.039711,0.013007,0.083061,-0.091718,-0.01574,0.0067171,0.010174,-0.043081,-0.098128,0.22861,-0.10923,0.07136,0.11017,-0.019811,0.082516,0.14157,0.13125,-0.081495,0.11516
-0.020226,-0.028055,0.0024594,-0.032564,-0.013808,-0.023193,0.020314,0.10035,-0.086416,-0.010596,0.011441,0.0083894,-0.044754,-0.10492,0.25409,-0.052305,0.076903,0.095626,-0.020755,0.07764,0.16873,0.13513,-0.32498,0.19499
-0.015695,-0.026952,0.005117,-0.023926,-0.012006,-0.010897,0.027482,0.12583,-0.077341,0.0026581,0.015244,0.0013971,-0.051576,-0.10254,0.26938,-0.019755,0.077304,0.077012,-0.022947,0.068948,0.18443,0.12628,-0.60794,0.28295
-0.01339,-0.030339,0.005568,-0.011861,-0.011241,0.0013057,0.03381,0.15045,-0.064673,0.018664,0.017411,-0.007219,-0.059348,-0.084078,0.2681,-0.019771,0.074495,0.047654,-0.024718,0.060258,0.19232,0.10482,-0.88416,0.38116
-0.014953,-0.037715,0.0033943,-0.0032284,-0.0053726,0.017784,0.037868,0.16493,-0.049583,0.031703,0.017953,-0.013669,-0.062897,-0.047131,0.24554,-0.037374,0.068267,0.0061713,-0.02711,0.052833,0.20173,0.075795,-1.1073,0.4774
-0.019207,-0.045138,0.00094965,-0.00067092,0.0071855,0.038277,0.037685,0.16592,-0.033783,0.040157,0.017494,-0.015756,-0.058774,0.0023854,0.20149,-0.045881,0.057082,-0.039467,-0.032317,0.045441,0.22127,0.047905,-1.2484,0.55219
-0.023418,-0.048789,0.0014063,-0.0019593,0.021631,0.056413,0.031676,0.15751,-0.018757,0.047377,0.016778,-0.013933,-0.046679,0.051332,0.14197,-0.024637,0.04092,-0.075185,-0.040943,0.036239,0.25284,0.028996,-1.3046,0.59241
-0.025424,-0.047779,0.0057571,-0.0028587,0.030097,0.06327,0.020082,0.14705,-0.0053732,0.058253,0.016253,-0.011297,-0.028926,0.085828,0.077977,0.02999,0.023061,-0.089761,-0.050644,0.025025,0.29001,0.021202,-1.2946,0.60009
-0.024767,-0.0442,0.011525,-0.0010782,0.027536,0.053602,0.0057832,0.13879,0.005902,0.074372,0.015967,-0.012239,-0.0085831,0.099541,0.02119,0.10625,0.0086886,-0.082933,-0.0572,0.014306,0.32086,0.019305,-1.2416,0.58963
-0.022126,-0.04084,0.014506,0.0017938,0.015556,0.029948,-0.0065287,0.13046,0.014639,0.091801,0.015707,-0.019993,0.012438,0.098062,-0.021256,0.18706,0.0013238,-0.066159,-0.056924,0.0082921,0.33281,0.013982,-1.1601,0.57672
-0.018025,-0.038712,0.012189,0.0017671,0.0012229,0.0012423,-0.012741,0.11543,0.020431,0.10338,0.015278,-0.034169,0.034195,0.09565,-0.049372,0.25914,0.0003703,-0.054949,-0.04845,0.01024,0.31684,-0.0019094,-1.0537,0.56859
-0.012367,-0.036455,0.0059823,-0.0039747,-0.008103,-0.02322,-0.011782,0.08848,0.023168,0.10372,0.014882,-0.05001,0.057919,0.10598,-0.068363,0.31522,0.0020752,-0.058306,-0.03288,0.019814,0.27042,-0.028367,-0.92654,0.56231
-0.0052484,-0.031944,0.00035227,-0.014326,-0.0097499,-0.039772,-0.0063428,0.050285,0.023057,0.093037,0.015406,-0.060345,0.084015,0.13322,-0.083485,0.35059,0.0029992,-0.073146,-0.01275,0.032381,0.19935,-0.058235,-0.79465,0.54998
0.0019993,-0.024612,-0.00046288,-0.024523,-0.00665,-0.05154,-0.0011379,0.0069669,0.020173,0.076725,0.018229,-0.059494,0.11014,0.1699,-0.095694,0.35978,0.002711,-0.087728,0.009159,0.041107,0.1177,-0.082211,-0.68411,0.52453
0.0069086,-0.016462,0.0044226,-0.029165,-0.0037895,-0.063919,0.00025942,-0.034611,0.013988,0.061064,0.024274,-0.046766,0.13088,0.20291,-0.10158,0.33796,0.0032208,-0.091045,0.030579,0.040761,0.044007,-0.095131,-0.6165,0.48182
0.0073627,-0.010842,0.011917,-0.025642,-0.0035084,-0.07826,-0.0021377,-0.071347,0.0036691,0.048338,0.03278,-0.027268,0.13971,0.22271,-0.097582,0.28627,0.0058847,-0.080659,0.050133,0.030781,-0.0064151,-0.098839,-0.59271,0.42052
0.003241,-0.0098922,0.017147,-0.015447,-0.0037641,-0.089374,-0.0047768,-0.10425,-0.010726,0.035303,0.040885,-0.0094863,0.13237,0.22858,-0.084643,0.21574,0.009033,-0.063137,0.067441,0.015466,-0.029201,-0.099742,-0.58988,0.34341
-0.0032492,-0.012685,0.016776,-0.0026794,-0.00068362,-0.089307,-0.0032118,-0.1349,-0.027099,0.016425,0.044859,-0.0011233,0.10944,0.22627,-0.069059,0.14527,0.0089643,-0.047448,0.082765,0.0012315,-0.033046,-0.10333,-0.57454,0.26079
-0.0088934,-0.01563,0.011136,0.0088067,0.0071342,-0.074473,0.0044372,-0.16194,-0.041494,-0.010483,0.042479,-0.0055931,0.076377,0.22145,-0.058241,0.093638,0.0036925,-0.037276,0.096067,-0.007064,-0.033479,-0.11011,-0.52226,0.19162
-0.011394,-0.014932,0.0039524,0.017399,0.016587,-0.05012,0.015754,-0.18169,-0.049978,-0.04079,0.03484,-0.020831,0.040808,0.21535,-0.054853,0.070337,-0.0040281,-0.028534,0.10602,-0.008115,-0.042115,-0.11601,-0.42913,0.15831
-0.010491,-0.0092518,-3.8796e-006,0.023657,0.022142,-0.028025,0.02547,-0.1923,-0.051039,-0.064988,0.025983,-0.040641,0.0088543,0.20651,-0.054483,0.071688,-0.0076128,-0.013623,0.11001,-0.0034339,-0.059382,-0.1162,-0.3087,0.17586
-0.0076774,-0.00051854,0.0021932,0.028733,0.020105,-0.018864,0.029134,-0.19733,-0.046561,-0.075013,0.020365,-0.057641,-0.017019,0.19574,-0.049293,0.084664,-0.0013565,0.011591,0.10557,0.0049076,-0.076266,-0.10886,-0.17958,0.24266
-0.0049737,0.0076924,0.0098397,0.032835,0.011324,-0.025078,0.026196,-0.20462,-0.040437,-0.070133,0.019986,-0.066406,-0.037532,0.18812,-0.03496,0.095707,0.014722,0.043954,0.092474,0.015799,-0.083062,-0.095722,-0.054421,0.33976
-0.0036786,0.012881,0.018924,0.034932,0.00021086,-0.039677,0.020002,-0.22039,-0.035795,-0.057481,0.023317,-0.06556,-0.054288,0.18863,-0.015156,0.098302,0.034094,0.075132,0.0736,0.028648,-0.077389,-0.079425,0.06308,0.43967
-0.0037294,0.015321,0.024424,0.0337,-0.0086568,-0.051529,0.014711,-0.24338,-0.033059,-0.046508,0.026709,-0.057983,-0.067714,0.1949,0.00044158,0.094531,0.047991,0.097502,0.053493,0.041825,-0.064905,-0.060586,0.17457,0.51884
-0.0038696,0.01754,0.023338,0.02881,-0.013173,-0.052563,0.011818,-0.26396,-0.030325,-0.041761,0.027006,-0.049112,-0.076852,0.19471,0.0032308,0.090616,0.051491,0.10902,0.035364,0.052013,-0.053198,-0.037636,0.28278,0.56602
-0.0025039,0.022159,0.0166,0.021595,-0.013597,-0.04128,0.0093897,-0.26929,-0.025547,-0.039967,0.023305,-0.044223,-0.080895,0.17251,-0.0078601,0.090842,0.046454,0.11359,0.018987,0.055578,-0.045291,-0.0096922,0.39035,0.58292
0.0011328,0.029833,0.0085367,0.01471,-0.010589,-0.020624,0.0046683,-0.25088,-0.018483,-0.033832,0.016801,-0.046172,-0.08088,0.12083,-0.025901,0.0947,0.038973,0.11699,0.0014698,0.051001,-0.038692,0.020244,0.50043,0.57917
0.0061638,0.038745,0.0040159,0.011024,-0.0039178,0.0067746,-0.0023391,-0.20922,-0.010743,-0.019144,0.0093218,-0.054745,-0.079911,0.047507,-0.04186,0.098516,0.033653,0.12184,-0.019417,0.040144,-0.029928,0.04517,0.61557,0.56566
0.010331,0.045858,0.0051512,0.012313,0.0067015,0.041147,-0.0076701,-0.15271,-0.0041089,0.0010624,0.001996,-0.067685,-0.081595,-0.028146,-0.051936,0.098817,0.029819,0.12492,-0.04205,0.026963,-0.019223,0.057899,0.7334,0.54941
0.011443,0.04888,0.0099561,0.018342,0.019753,0.08372,-0.0058504,-0.092524,0.0011725,0.018795,-0.0049636,-0.082367,-0.087961,-0.087864,-0.060227,0.093743,0.023002,0.119,-0.060741,0.014603,-0.010447,0.056166,0.84214,0.53109
0.0091024,0.047589,0.014029,0.026813,0.031485,0.1327,0.0060249,-0.037386,0.0065287,0.027552,-0.011566,-0.096813,-0.098574,-0.12627,-0.074631,0.081794,0.010218,0.097697,-0.069025,0.0034308,-0.006807,0.044842,0.92068,0.50535
0.0052167,0.043674,0.014008,0.034297,0.038063,0.18149,0.026004,0.0084363,0.01354,0.027058,-0.01731,-0.10947,-0.11145,-0.15305,-0.099564,0.060695,-0.0060158,0.060435,-0.064005,-0.0081412,-0.0070753,0.033152,0.94569,0.46436
0.0025958,0.039252,0.010072,0.037804,0.038738,0.22129,0.048616,0.043594,0.022127,0.022304,-0.021098,-0.1183,-0.12482,-0.18425,-0.13165,0.029376,-0.018931,0.014035,-0.048313,-0.020731,-0.006385,0.02876,0.90311,0.40343
0.0025753,0.035096,0.0055202,0.036179,0.03705,0.24632,0.068579,0.066873,0.029993,0.018301,-0.021858,-0.12028,-0.13792,-0.23008,-0.16186,-0.0076561,-0.023204,-0.030303,-0.028131,-0.031794,-0.00068418,0.033169,0.7973,0.32551
0.0037678,0.029892,0.0039063,0.030498,0.038535,0.25713,0.083804,0.075985,0.033813,0.015757,-0.019363,-0.11242,-0.15013,-0.28819,-0.18204,-0.038167,-0.020008,-0.062854,-0.0089132,-0.036592,0.0097437,0.041846,0.65172,0.24089
0.0032905,0.021337,0.0062482,0.023176,0.046491,0.2593,0.095444,0.069043,0.031354,0.011545,-0.014679,-0.09379,-0.15918,-0.34677,-0.19043,-0.046292,-0.016694,-0.080164,0.0077592,-0.031969,0.021082,0.048626,0.49971,0.16155
-0.00041805,0.0085709,0.010591,0.016394,0.059369,0.25881,0.10535,0.047287,0.023124,0.0030477,-0.009787,-0.067327,-0.16044,-0.39366,-0.19187,-0.021515,-0.021095,-0.085504,0.023868,-0.019781,0.029858,0.050654,0.37049,0.094151
-0.0057909,-0.0058963,0.014015,0.010918,0.072053,0.25801,0.11332,0.016273,0.01246,-0.0081633,-0.0064075,-0.039688,-0.14865,-0.42399,-0.19311,0.034262,-0.035271,-0.084905,0.041875,-0.0066733,0.035557,0.049974,0.27888,0.037083
-0.0092729,-0.016724,0.015058,0.0061031,0.079974,0.25529,0.11639,-0.016131,0.0038975,-0.016836,-0.0046536,-0.018499,-0.12113,-0.44085,-0.19747,0.10789,-0.05401,-0.082065,0.061769,0.00016327,0.039275,0.050858,0.22471,-0.015862
-0.0086338,-0.019073,0.014389,0.00093764,0.082519,0.24796,0.11085,-0.043829,0.00073383,-0.018071,-0.0025764,-0.0084033,-0.080356,-0.44974,-0.2028,0.18393,-0.069216,-0.076144,0.080774,-0.0019295,0.040247,0.055432,0.20134,-0.068447
-0.0053909,-0.012535,0.013473,-0.0048222,0.082954,0.23531,0.095161,-0.065413,0.0032804,-0.010971,0.0027004,-0.008475,-0.033596,-0.45199,-0.20355,0.25404,-0.076243,-0.0639,0.09572,-0.0093694,0.034588,0.061299,0.20617,-0.11757
-0.0038058,-0.002311,0.012874,-0.010347,0.085278,0.21914,0.07169,-0.083275,0.0090543,0.0012438,0.012751,-0.012994,0.010289,-0.44266,-0.19444,0.31878,-0.076844,-0.043927,0.10571,-0.015563,0.01834,0.063023,0.24496,-0.15498
-0.007038,0.0039928,0.011974,-0.014344,0.090999,0.20186,0.045758,-0.099495,0.014887,0.014234,0.02618,-0.015263,0.044737,-0.41445,-0.17263,0.38144,-0.076635,-0.019189,0.11262,-0.016485,-0.0078311,0.056233,0.32687,-0.1733
-0.013898,0.0019617,0.010208,-0.015847,0.098446,0.18432,0.02275,-0.11204,0.019447,0.025551,0.03908,-0.011879,0.067541,-0.36409,-0.13788,0.44073,-0.079706,0.0041855,0.1191,-0.013997,-0.037232,0.041191,0.45381,-0.17095
-0.019372,-0.0060943,0.0082777,-0.014463,0.10456,0.16555,0.0052191,-0.1149,0.024135,0.035158,0.04752,-0.0044748,0.080094,-0.29607,-0.091849,0.49002,-0.085149,0.020541,0.12584,-0.014159,-0.061144,0.023116,0.61171,-0.1523
-0.018727,-0.012872,0.0078636,-0.010094,0.10706,0.14404,-0.0080693,-0.10264,0.031486,0.043753,0.050153,0.002196,0.085056,-0.22068,-0.038113,0.52374,-0.088128,0.027666,0.13063,-0.021993,-0.075095,0.0089993,0.76903,-0.12375
-0.011653,-0.011965,0.010009,-0.0027917,0.10507,0.1191,-0.020699,-0.075715,0.042283,0.05114,0.048746,0.0042082,0.084531,-0.1481,0.017426,0.54382,-0.084109,0.027119,0.12961,-0.037013,-0.081734,0.0030866,0.88397,-0.090187
-0.0027093,-0.0031005,0.01385,0.0068253,0.098585,0.090808,-0.036011,-0.042425,0.053878,0.056255,0.046236,0.001445,0.0799,-0.083396,0.067296,0.559,-0.072383,0.022643,0.11967,-0.052982,-0.087565,0.0042054,0.91794,-0.054989
0.0023592,0.0077415,0.017102,0.01701,0.087916,0.059165,-0.05522,-0.015297,0.061369,0.058402,0.044177,-0.0024795,0.072764,-0.026169,0.10512,0.57724,-0.056075,0.018799,0.099961,-0.061849,-0.096469,0.0068875,0.85174,-0.023227
0.0012378,0.013452,0.017948,0.025051,0.074046,0.023555,-0.077259,-0.0044375,0.06091,0.058082,0.04198,-0.002956,0.065581,0.025605,0.12886,0.59851,-0.03909,0.020902,0.071841,-0.058627,-0.10594,0.0055897,0.69889,-0.0038648
-0.0033385,0.011733,0.016569,0.028504,0.058944,-0.016566,-0.099922,-0.012321,0.052513,0.056578,0.038525,0.0025911,0.061132,0.071412,0.14203,0.61561,-0.022918,0.035208,0.03793,-0.043749,-0.10946,-0.00097384,0.50811,-0.0074667
-0.006145,0.0067537,0.014821,0.026742,0.044924,-0.060465,-0.121,-0.033467,0.040019,0.054892,0.034376,0.013667,0.061218,0.10758,0.15141,0.62253,-0.0059617,0.067531,0.0014217,-0.021787,-0.10273,-0.0086024,0.34741,-0.039873
-0.0038069,0.005221,0.01437,0.021578,0.033302,-0.10552,-0.1385,-0.058985,0.028224,0.053083,0.032169,0.028015,0.065753,0.13053,0.16258,0.6221,0.014416,0.12012,-0.033955,0.0018382,-0.087923,-0.01048,0.27037,-0.096502
0.0027263,0.010474,0.015095,0.016307,0.023724,-0.14769,-0.15028,-0.082871,0.019515,0.050335,0.034566,0.043611,0.073099,0.14068,0.17633,0.62522,0.03921,0.1888,-0.063897,0.023617,-0.072024,-0.0019914,0.28018,-0.16231
0.0093036,0.019772,0.015257,0.013753,0.015003,-0.1826,-0.15396,-0.10596,0.012689,0.045306,0.041612,0.059422,0.08145,0.14331,0.1888,0.64137,0.066738,0.26301,-0.084155,0.04267,-0.060888,0.016295,0.31641,-0.21841
0.011944,0.026952,0.013254,0.014664,0.0065443,-0.20669,-0.14793,-0.13496,0.0047699,0.036535,0.050056,0.074618,0.090144,0.1457,0.19497,0.66871,0.093722,0.32914,-0.091898,0.059632,-0.054307,0.039805,0.28211,-0.251
0.0095618,0.027807,0.0092961,0.01757,-0.0013144,-0.21836,-0.13287,-0.17718,-0.0058792,0.023211,0.055432,0.087701,0.099718,0.15285,0.19291,0.6928,0.1171,0.37541,-0.087011,0.074924,-0.046469,0.064138,0.10291,-0.25663
0.0041443,0.023275,0.0054483,0.020139,-0.0085617,-0.21899,-0.11258,-0.23423,-0.017785,0.0064034,0.055251,0.097125,0.11042,0.16507,0.18526,0.69562,0.13486,0.39519,-0.072311,0.087537,-0.031249,0.088415,-0.21783,-0.24078
-0.001211,0.017758,0.0040448,0.021066,-0.016844,-0.2135,-0.092847,-0.29927,-0.027375,-0.010186,0.050664,0.10316,0.12025,0.17853,0.17726,0.66761,0.14558,0.38751,-0.052222,0.094926,-0.0077269,0.11459,-0.58843,-0.21246
-0.0044844,0.014428,0.0059161,0.021141,-0.028915,-0.20925,-0.078739,-0.36026,-0.031853,-0.021342,0.045396,0.10888,0.12427,0.18761,0.17281,0.61304,0.14773,0.35546,-0.030541,0.094035,0.018539,0.1432,-0.8769,-0.17996
-0.0055123,0.012121,0.0099225,0.022633,-0.046091,-0.21308,-0.071755,-0.40709,-0.031581,-0.023397,0.043008,0.11859,0.11666,0.18726,0.17196,0.54504,0.13984,0.30405,-0.0086665,0.083039,0.03911,0.16956,-0.98931,-0.15047
-0.0052186,0.0068339,0.013984,0.027262,-0.065939,-0.22763,-0.069042,-0.43722,-0.03003,-0.017201,0.04473,0.13423,0.094665,0.17457,0.17139,0.47493,0.12172,0.23888,0.014408,0.062969,0.047931,0.18438,-0.92524,-0.13186
-0.0044006,-0.0036113,0.016483,0.034157,-0.082745,-0.24947,-0.065529,-0.45491,-0.031341,-0.0082648,0.049267,0.15294,0.062071,0.14976,0.16742,0.40512,0.095636,0.16528,0.040163,0.038199,0.044304,0.17915,-0.7718,-0.13212
-0.0032172,-0.016302,0.016812,0.039578,-0.090927,-0.2708,-0.057784,-0.46445,-0.037324,-0.0033543,0.054276,0.16835,0.029211,0.11651,0.15881,0.33084,0.066416,0.088012,0.067974,0.015231,0.032078,0.1524,-0.64218,-0.15498
-0.001602,-0.024852,0.014933,0.039099,-0.088754,-0.28387,-0.046865,-0.46353,-0.046121,-0.0059402,0.058091,0.17528,0.0086608,0.080969,0.14741,0.24845,0.040276,0.011269,0.093867,0.00023692,0.016529,0.1115,-0.60491,-0.1951
9.657e-005,-0.024857,0.010885,0.031017,-0.079191,-0.28542,-0.03785,-0.44347,-0.05349,-0.014153,0.060501,0.17399,0.0090629,0.049248,0.13627,0.16263,0.022984,-0.060868,0.11189,-0.0032972,0.0014804,0.068463,-0.65381,-0.23798
0.0010372,-0.018323,0.0050856,0.018301,-0.067175,-0.27807,-0.036171,-0.39703,-0.055715,-0.022827,0.062353,0.17035,0.031297,0.024688,0.12711,0.086431,0.018048,-0.12393,0.11747,0.0044054,-0.011823,0.03281,-0.73386,-0.26704
0.00046927,-0.012764,-0.00089974,0.0070596,-0.055826,-0.26813,-0.04344,-0.32734,-0.052002,-0.027671,0.064531,0.17144,0.069839,0.0071519,0.11919,0.03421,0.025366,-0.17335,0.11045,0.019955,-0.024257,0.0067667,-0.79493,-0.27359
-0.0016468,-0.015253,-0.0043888,0.0021894,-0.044987,-0.2613,-0.056056,-0.24902,-0.044674,-0.027928,0.067076,0.1802,0.11824,-0.0047914,0.11042,0.013359,0.040706,-0.2058,0.095579,0.038115,-0.037695,-0.013886,-0.82789,-0.26286
-0.0046402,-0.026385,-0.0031692,0.003541,-0.033218,-0.25953,-0.067714,-0.17933,-0.037209,-0.025594,0.068951,0.19348,0.17439,-0.01076,0.099541,0.021216,0.056551,-0.22084,0.079673,0.05303,-0.053918,-0.034804,-0.85843,-0.25099
-0.0077404,-0.039414,0.0022956,0.0059831,-0.021063,-0.26085,-0.073791,-0.12587,-0.031765,-0.0226,0.068597,0.20491,0.24132,-0.0078612,0.087418,0.048973,0.0646,-0.22138,0.067326,0.059251,-0.07381,-0.058257,-0.91156,-0.25493
-0.010634,-0.045513,0.0081609,0.0037113,-0.012157,-0.26174,-0.07408,-0.081268,-0.028108,-0.019002,0.064993,0.20974,0.32307,0.0062099,0.076138,0.088655,0.059287,-0.21254,0.058023,0.053012,-0.097069,-0.082119,-0.98167,-0.282
-0.013365,-0.040808,0.0093223,-0.0046201,-0.010842,-0.26028,-0.071872,-0.029847,-0.024574,-0.01375,0.058525,0.20751,0.41901,0.028834,0.066704,0.13714,0.040508,-0.19971,0.046747,0.033819,-0.12258,-0.10274,-1.0335,-0.3259
-0.01572,-0.029353,0.0032451,-0.014407,-0.018335,-0.25755,-0.070518,0.039302,-0.019997,-0.0067927,0.051023,0.20096,0.52131,0.051444,0.057547,0.19426,0.01366,-0.18755,0.027675,0.0054043,-0.14931,-0.11876,-1.0297,-0.37119
-0.016863,-0.019741,-0.0075289,-0.018782,-0.030983,-0.25662,-0.070503,0.12357,-0.014846,2.3368e-005,0.044787,0.19309,0.61738,0.063994,0.045496,0.25739,-0.013468,-0.18057,-0.0016521,-0.025265,-0.17697,-0.13259,-0.95896,-0.40271
-0.015817,-0.018366,-0.016619,-0.014499,-0.042317,-0.25978,-0.069259,0.2093,-0.010717,0.0043163,0.041247,0.1857,0.69518,0.062043,0.028665,0.31811,-0.035137,-0.18388,-0.03861,-0.05112,-0.20575,-0.14854,-0.84181,-0.41385
-0.012475,-0.02488,-0.01825,-0.0049443,-0.047135,-0.26618,-0.063339,0.28275,-0.0088353,0.005368,0.040246,0.18029,0.74732,0.050491,0.0087731,0.36448,-0.050423,-0.20228,-0.077312,-0.068534,-0.23509,-0.16949,-0.7114,-0.4093
-0.0081089,-0.033163,-0.011543,0.0023751,-0.044116,-0.2716,-0.050841,0.33975,-0.0090153,0.0047951,0.040413,0.17946,0.77143,0.040279,-0.0094202,0.38757,-0.062339,-0.23691,-0.11245,-0.078654,-0.26246,-0.19452,-0.58847,-0.40149
-0.004665,-0.036457,-0.0012101,0.0017498,-0.035034,-0.27074,-0.032289,0.38662,-0.0099044,0.0048759,0.040242,0.18616,0.76767,0.040252,-0.021476,0.38664,-0.074108,-0.282,-0.14229,-0.085228,-0.28343,-0.2194,-0.46966,-0.40323
-0.0032038,-0.032207,0.005953,-0.0065027,-0.021904,-0.26046,-0.009948,0.43238,-0.010121,0.0060852,0.038892,0.20081,0.73643,0.050687,-0.026833,0.36872,-0.085742,-0.32512,-0.16867,-0.090486,-0.29344,-0.23907,-0.33554,-0.42039
-0.0028118,-0.02301,0.0059691,-0.016954,-0.005107,-0.24154,0.013271,0.47969,-0.009201,0.0062086,0.036177,0.2191,0.67838,0.063687,-0.029616,0.34298,-0.093824,-0.35254,-0.19431,-0.092559,-0.29023,-0.25041,-0.16877,-0.44811
-0.0010862,-0.013571,0.00017312,-0.023957,0.015873,-0.21782,0.03446,0.52243,-0.0076856,0.0019463,0.031991,0.23323,0.59677,0.069725,-0.035971,0.3152,-0.094661,-0.35725,-0.21927,-0.086943,-0.27533,-0.25313,0.031865,-0.47244
0.0039669,-0.0066126,-0.006355,-0.025947,0.04036,-0.19332,0.051067,0.5513,-0.0065386,-0.0083386,0.025992,0.23639,0.49968,0.064555,-0.050028,0.28701,-0.087941,-0.34389,-0.23938,-0.071083,-0.25333,-0.24841,0.24812,-0.47692
0.012055,-0.0010328,-0.0087625,-0.025491,0.065577,-0.16982,0.061489,0.56257,-0.0065054,-0.023011,0.01798,0.22697,0.39981,0.050869,-0.071458,0.25987,-0.077495,-0.32648,-0.24751,-0.048167,-0.22913,-0.2365,0.4472,-0.45092
0.020327,0.006575,-0.0055193,-0.025562,0.087893,-0.14683,0.0659,0.56209,-0.0077717,-0.037901,0.0086233,0.20911,0.31109,0.034191,-0.096035,0.23916,-0.068364,-0.31963,-0.2374,-0.026489,-0.2051,-0.21546,0.58894,-0.3954
0.025117,0.018539,0.0014158,-0.025978,0.1047,-0.12348,0.066577,0.5612,-0.0098848,-0.048678,-0.00026431,0.18949,0.24376,0.017686,-0.11811,0.23348,-0.06275,-0.32927,-0.20762,-0.014313,-0.17997,-0.18229,0.63326,-0.32262
0.024512,0.033564,0.0087575,-0.023472,0.1148,-0.10038,0.067165,0.5678,-0.011856,-0.05309,-0.0064221,0.17331,0.20058,0.00098833,-0.13287,0.24917,-0.058534,-0.34941,-0.16323,-0.014149,-0.15039,-0.13612,0.54963,-0.24979
0.019819,0.046932,0.014128,-0.015223,0.11708,-0.07956,0.071131,0.58008,-0.012536,-0.051755,-0.0084638,0.16261,0.17653,-0.016179,-0.13733,0.28458,-0.051687,-0.36699,-0.11399,-0.021105,-0.11419,-0.080941,0.3292,-0.19048
0.014766,0.053332,0.016693,-0.0023236,0.10964,-0.062734,0.080273,0.58821,-0.011288,-0.04743,-0.0068732,0.15704,0.16219,-0.029874,-0.13049,0.32892,-0.040338,-0.37079,-0.069524,-0.026813,-0.073086,-0.025268,-0.0047693,-0.14912
0.012932,0.050389,0.016401,0.010191,0.091064,-0.050191,0.093961,0.58258,-0.0085649,-0.043534,-0.0038467,0.15475,0.14863,-0.032345,-0.11366,0.36636,-0.026743,-0.35741,-0.034787,-0.025822,-0.032729,0.021516,-0.39617,-0.12163
0.015238,0.040337,0.01325,0.016901,0.063111,-0.041669,0.10915,0.56114,-0.005799,-0.042755,-0.0019783,0.15178,0.1307,-0.017843,-0.091042,0.38144,-0.015459,-0.33048,-0.0085599,-0.019414,-5.6167e-005,0.053955,-0.76981,-0.10078
0.019252,0.028455,0.0075271,0.016026,0.031922,-0.038308,0.12099,0.52926,-0.0044736,-0.046165,-0.0026844,0.14149,0.10712,0.010673,-0.069236,0.36213,-0.0095439,-0.29518,0.013733,-0.013979,0.020425,0.072807,-1.0567,-0.082003
0.020712,0.01916,0.00053005,0.010425,0.0057839,-0.043018,0.12393,0.49252,-0.0050524,-0.05301,-0.0055054,0.11669,0.078262,0.040112,-0.054814,0.30034,-0.008355,-0.25381,0.035222,-0.015574,0.028786,0.083121,-1.2203,-0.06556
0.016185,0.012625,-0.0054646,0.0048216,-0.0092175,-0.057816,0.11373,0.44966,-0.0067594,-0.061187,-0.0087733,0.074887,0.044127,0.053376,-0.050732,0.19321,-0.0088133,-0.20649,0.054729,-0.02514,0.028875,0.089731,-1.2713,-0.054689
0.0051553,0.0047412,-0.008474,0.0017516,-0.012161,-0.079928,0.089773,0.39347,-0.0084991,-0.068271,-0.011071,0.022726,0.0043559,0.039195,-0.054081,0.046607,-0.0086646,-0.15571,0.068243,-0.037892,0.02538,0.093894,-1.2616,-0.052484
-0.0095552,-0.0091239,-0.0083602,-0.00029999,-0.0065314,-0.10055,0.056664,0.31963,-0.010078,-0.072596,-0.012306,-0.025171,-0.040488,-0.0014237,-0.057492,-0.12159,-0.0084558,-0.10925,0.07339,-0.046911,0.021106,0.093598,-1.261,-0.060753
-0.023098,-0.029416,-0.0071126,-0.0051058,0.0031286,-0.1086,0.02338,0.2355,-0.01247,-0.073796,-0.013587,-0.053956,-0.088327,-0.056638,-0.05405,-0.28378,-0.010388,-0.077563,0.072794,-0.047863,0.016316,0.086701,-1.3248,-0.081427
-0.03087,-0.050806,-0.0073279,-0.014899,0.013933,-0.097463,-0.00042229,0.15954,-0.016723,-0.072497,-0.01614,-0.057821,-0.13665,-0.11146,-0.042633,-0.41267,-0.015381,-0.06672,0.073149,-0.041569,0.0099887,0.073631,-1.4706,-0.11801
-0.03071,-0.065612,-0.010057,-0.027855,0.024673,-0.069577,-0.0092893,0.11005,-0.022456,-0.069493,-0.020289,-0.043607,-0.18396,-0.1554,-0.029599,-0.49443,-0.021446,-0.072882,0.080632,-0.033165,0.0012162,0.057017,-1.6739,-0.17422
-0.024003,-0.069773,-0.013917,-0.038988,0.034121,-0.034688,-0.0049112,0.091879,-0.027426,-0.065016,-0.025356,-0.025735,-0.22958,-0.18444,-0.024935,-0.53631,-0.025147,-0.083491,0.096529,-0.028947,-0.010767,0.038764,-1.8832,-0.24962
-0.015049,-0.066321,-0.016308,-0.04373,0.040099,-0.0027971,0.0052613,0.092182,-0.02875,-0.058519,-0.030429,-0.016541,-0.27187,-0.19727,-0.035026,-0.56221,-0.024776,-0.084906,0.11663,-0.03301,-0.027544,0.017635,-2.0447,-0.33567
-0.0088125,-0.062999,-0.015699,-0.041243,0.040464,0.022793,0.013249,0.089063,-0.02485,-0.04894,-0.035128,-0.019606,-0.30711,-0.19059,-0.057114,-0.59804,-0.022125,-0.070526,0.13449,-0.045382,-0.051616,-0.0099277,-2.1203,-0.41642
-0.0082132,-0.06576,-0.012939,-0.034742,0.034731,0.046683,0.01612,0.066028,-0.01652,-0.035177,-0.03957,-0.030525,-0.33152,-0.1592,-0.07971,-0.65598,-0.020982,-0.042917,0.14542,-0.062389,-0.084461,-0.046003,-2.0937,-0.47505
-0.012641,-0.073735,-0.010499,-0.028636,0.024378,0.075981,0.017784,0.020641,-0.0062768,-0.01666,-0.043625,-0.042899,-0.34515,-0.10167,-0.08914,-0.72794,-0.023643,-0.0087296,0.148,-0.078956,-0.12382,-0.087618,-1.9663,-0.50278
-0.018766,-0.080266,-0.01042,-0.024985,0.011533,0.11296,0.025527,-0.038294,0.0033499,0.0059865,-0.046347,-0.053469,-0.35395,-0.026873,-0.077804,-0.79199,-0.028681,0.028281,0.14257,-0.091543,-0.16308,-0.1269,-1.7542,-0.50422
-0.023054,-0.07919,-0.012862,-0.022317,-0.0023354,0.15209,0.043871,-0.1005,0.011177,0.030416,-0.046401,-0.062466,-0.36674,0.045404,-0.048319,-0.82698,-0.032026,0.069162,0.12926,-0.099807,-0.19428,-0.15557,-1.4883,-0.49512
-0.024057,-0.07069,-0.016401,-0.01777,-0.016263,0.18387,0.07054,-0.16126,0.01745,0.052649,-0.043325,-0.070544,-0.38861,0.092085,-0.010739,-0.82521,-0.030339,0.11453,0.10771,-0.10559,-0.21321,-0.17078,-1.2133,-0.49329
-0.022755,-0.061241,-0.019484,-0.010527,-0.028692,0.20235,0.097705,-0.22027,0.022883,0.068123,-0.038488,-0.076535,-0.41606,0.098584,0.024722,-0.79509,-0.02355,0.15755,0.078756,-0.10975,-0.22214,-0.17759,-0.97427,-0.50812
-0.020904,-0.057567,-0.02146,-0.0032877,-0.037331,0.2098,0.11744,-0.27545,0.027625,0.073428,-0.034619,-0.078191,-0.43894,0.066473,0.053762,-0.75277,-0.014324,0.18322,0.046125,-0.10951,-0.22767,-0.18578,-0.79347,-0.53486
-0.019044,-0.060107,-0.022302,-0.00027642,-0.040914,0.21461,0.12704,-0.31956,0.030946,0.067854,-0.033971,-0.074121,-0.44816,0.011446,0.078495,-0.70928,-0.0051551,0.17738,0.016217,-0.099107,-0.23506,-0.20277,-0.6513,-0.55661
-0.016047,-0.062146,-0.021714,-0.0034244,-0.041346,0.22406,0.13003,-0.3436,0.031685,0.053824,-0.036496,-0.064034,-0.44337,-0.046914,0.10285,-0.66273,0.0041057,0.13987,-0.0042462,-0.074317,-0.2437,-0.2279,-0.49054,-0.55281
-0.010579,-0.055658,-0.018941,-0.01012,-0.043549,0.23789,0.13244,-0.34394,0.028987,0.035874,-0.039725,-0.047202,-0.43389,-0.095941,0.12752,-0.60201,0.015988,0.091053,-0.011135,-0.037474,-0.24782,-0.25236,-0.24957,-0.50977
-0.0030224,-0.03875,-0.013683,-0.014628,-0.05209,0.24794,0.13752,-0.3261,0.0228,0.018589,-0.040719,-0.02211,-0.43187,-0.1336,0.14907,-0.52008,0.032705,0.064592,-0.0047229,0.001372,-0.24158,-0.26502,0.094192,-0.42829
0.0041094,-0.018033,-0.0071123,-0.012134,-0.066786,0.24439,0.14303,-0.30159,0.013874,0.004404,-0.038624,0.010675,-0.44307,-0.16348,0.16366,-0.42752,0.053432,0.089582,0.0103,0.029124,-0.22412,-0.2598,0.5012,-0.32497
0.0078489,-0.0036535,-0.0017024,-0.0021812,-0.081181,0.22356,0.14308,-0.28076,0.003381,-0.0075823,-0.035577,0.044782,-0.46244,-0.18662,0.17146,-0.35432,0.073928,0.17407,0.026369,0.037338,-0.20019,-0.23905,0.88618,-0.22642
0.0072248,-0.0012041,0.00020035,0.011176,-0.085886,0.19101,0.13246,-0.26795,-0.0075434,-0.020881,-0.034921,0.068589,-0.47798,-0.1978,0.17729,-0.33504,0.088844,0.30162,0.035532,0.027323,-0.1762,-0.21088,1.1648,-0.15863
0.0043154,-0.0073763,-0.0021901,0.022457,-0.074951,0.15734,0.11,-0.2624,-0.018016,-0.038975,-0.03804,0.07219,-0.47943,-0.18949,0.18661,-0.3853,0.09503,0.44335,0.032185,0.0088256,-0.15566,-0.183,1.2994,-0.13606
0.0028466,-0.012883,-0.007889,0.028571,-0.050656,0.13027,0.078608,-0.26267,-0.027285,-0.062138,-0.042516,0.056167,-0.46512,-0.15962,0.20042,-0.4867,0.093485,0.57616,0.015086,-0.0066016,-0.1377,-0.1583,1.314,-0.15608
0.0053688,-0.0099267,-0.015072,0.030529,-0.022993,0.10956,0.042609,-0.26951,-0.034517,-0.086041,-0.043405,0.033888,-0.44201,-0.11551,0.21394,-0.59369,0.08863,0.69386,-0.012407,-0.01248,-0.1195,-0.13512,1.2752,-0.20165
0.01131,0.0021214,-0.022001,0.032073,-0.0039665,0.089003,0.0050384,-0.28414,-0.038882,-0.10375,-0.036805,0.023301,-0.4198,-0.069924,0.2202,-0.66016,0.085323,0.80403,-0.04418,-0.0098394,-0.099328,-0.11108,1.2569,-0.25059
0.01751,0.017218,-0.027156,0.036543,-0.00064975,0.063444,-0.032923,-0.30413,-0.04006,-0.11029,-0.022874,0.033547,-0.40418,-0.03198,0.2156,-0.66701,0.085497,0.91462,-0.074287,-0.0044742,-0.077307,-0.086522,1.3163,-0.28551
0.020796,0.028265,-0.029016,0.044413,-0.011766,0.034363,-0.070267,-0.32139,-0.038752,-0.10659,-0.0058065,0.057414,-0.39432,-0.00040514,0.20259,-0.62964,0.086621,1.022,-0.099012,-0.0021413,-0.053345,-0.064679,1.489,-0.29848
0.020454,0.03276,-0.026459,0.053084,-0.029835,0.0089158,-0.10419,-0.32483,-0.036564,-0.099421,0.0092255,0.076701,-0.38571,0.035104,0.18726,-0.58038,0.083208,1.11,-0.11687,-0.0054461,-0.024918,-0.048813,1.7941,-0.28873
0.018645,0.034013,-0.019855,0.058805,-0.046844,-0.0066812,-0.12993,-0.30609,-0.035057,-0.097047,0.019635,0.076576,-0.37519,0.085366,0.1743,-0.54195,0.070671,1.1595,-0.12706,-0.013699,0.012654,-0.039419,2.2332,-0.25742
0.018495,0.037628,-0.01166,0.059136,-0.059057,-0.013166,-0.14275,-0.26425,-0.034573,-0.10356,0.026683,0.056968,-0.36378,0.1525,0.16377,-0.5151,0.049092,1.1611,-0.1282,-0.024355,0.063121,-0.034007,2.7786,-0.20497
0.021551,0.046789,-0.0053276,0.054307,-0.067653,-0.017883,-0.14081,-0.20622,-0.033811,-0.11638,0.033647,0.031444,-0.35538,0.22668,0.15212,-0.48992,0.024202,1.1212,-0.11894,-0.03422,0.12559,-0.029427,3.3651,-0.13358
0.02662,0.060166,-0.0029842,0.04685,-0.075315,-0.028258,-0.12657,-0.14302,-0.030665,-0.1287,0.042622,0.014988,-0.35299,0.29056,0.13621,-0.46695,0.0045417,1.0565,-0.10007,-0.040067,0.19296,-0.024349,3.9005,-0.05139
0.030827,0.073478,-0.003844,0.040052,-0.082044,-0.045093,-0.10577,-0.084736,-0.023834,-0.13466,0.052616,0.011669,-0.35599,0.32786,0.11663,-0.46455,-0.0035053,0.98379,-0.076222,-0.039557,0.25359,-0.019504,4.2998,0.027
0.031884,0.082678,-0.0050034,0.036334,-0.083946,-0.061849,-0.084428,-0.037216,-0.014014,-0.13285,0.060269,0.012699,-0.36067,0.33047,0.097551,-0.50232,0.00060378,0.91006,-0.055371,-0.03271,0.29554,-0.015469,4.5243,0.086164
0.029759,0.08607,-0.0040812,0.036336,-0.076195,-0.07047,-0.065838,-0.0017948,-0.0037582,-0.12579,0.062298,0.0055633,-0.36342,0.30059,0.083763,-0.57485,0.011802,0.83021,-0.045872,-0.022716,0.3111,-0.010072,4.5977,0.11813
0.026545,0.084251,-0.0012787,0.038909,-0.057833,-0.068339,-0.049381,0.022763,0.0039972,-0.11647,0.057511,-0.014814,-0.36406,0.24812,0.077356,-0.64282,0.023319,0.73211,-0.052733,-0.014643,0.29954,0.0020085,4.5844,0.12699
0.024761,0.078806,0.0011222,0.041806,-0.034188,-0.0602,-0.032025,0.037971,0.0077338,-0.10548,0.046907,-0.042804,-0.36666,0.18549,0.076494,-0.65471,0.031158,0.60521,-0.075348,-0.012329,0.26698,0.026519,4.5414,0.12614
0.025398,0.07121,0.0013023,0.042734,-0.014285,-0.053851,-0.01152,0.044615,0.0082197,-0.091131,0.032102,-0.068498,-0.37717,0.12282,0.076561,-0.58463,0.035637,0.44747,-0.10795,-0.015837,0.22344,0.065272,4.4752,0.12999
0.027102,0.062527,-0.00012192,0.040417,-0.0045373,-0.054,0.010779,0.043536,0.0078107,-0.071788,0.013719,-0.0867,-0.3992,0.065355,0.072433,-0.45514,0.038901,0.267,-0.14223,-0.021746,0.1788,0.11301,4.3375,0.14599
0.027012,0.053517,-0.00076837,0.035219,-0.0034305,-0.059785,0.029506,0.037308,0.0086664,-0.047758,-0.008804,-0.10012,-0.43046,0.013755,0.060523,-0.32438,0.040855,0.077656,-0.17034,-0.026146,0.13981,0.15785,4.0617,0.17168
0.022739,0.044646,0.00086232,0.028936,-0.0017716,-0.067411,0.03785,0.030984,0.011187,-0.02107,-0.03589,-0.1151,-0.46237,-0.033273,0.040067,-0.24689,0.03744,-0.10836,-0.18679,-0.027671,0.10969,0.18554,3.6155,0.19745
0.014216,0.036089,0.0035675,0.023728,0.010956,-0.074525,0.031597,0.03049,0.01385,0.0061776,-0.066246,-0.13556,-0.48372,-0.075932,0.013577,-0.239,0.023254,-0.28618,-0.18885,-0.027913,0.089632,0.18586,3.03,0.21214
0.0041894,0.028026,0.0045035,0.020706,0.038584,-0.081922,0.011891,0.039073,0.014561,0.032808,-0.09651,-0.16158,-0.48683,-0.11216,-0.0138,-0.27505,-0.0033989,-0.45805,-0.17646,-0.02911,0.080344,0.15796,2.3845,0.20817
-0.003133,0.021131,0.0021677,0.019029,0.074881,-0.091402,-0.015338,0.054278,0.012434,0.05789,-0.12258,-0.19293,-0.47261,-0.13925,-0.036311,-0.31379,-0.037462,-0.62737,-0.15226,-0.031657,0.081988,0.11195,1.7631,0.18441
-0.0045797,0.01667,-0.001824,0.016173,0.10778,-0.10258,-0.043039,0.068316,0.0085448,0.079421,-0.14163,-0.23185,-0.45077,-0.15701,-0.050499,-0.32996,-0.069179,-0.79162,-0.12153,-0.033907,0.092811,0.065576,1.2145,0.14673
-9.0315e-005,0.015807,-0.004228,0.0093926,0.12815,-0.11221,-0.067204,0.072391,0.0051287,0.094281,-0.15331,-0.28041,-0.43449,-0.16942,-0.057367,-0.3258,-0.090071,-0.94013,-0.091019,-0.034271,0.10849,0.03681,0.74437,0.10633
0.0071056,0.018528,-0.0036117,-0.0023646,0.13616,-0.11689,-0.088522,0.062291,0.0039772,0.10007,-0.15919,-0.33409,-0.43253,-0.18311,-0.062158,-0.31828,-0.098161,-1.0587,-0.066415,-0.033234,0.12364,0.035798,0.33806,0.076183
0.012459,0.023175,-0.0021797,-0.017193,0.14026,-0.11662,-0.11046,0.041103,0.0054418,0.097408,-0.16088,-0.37895,-0.44427,-0.20311,-0.07158,-0.31977,-0.098239,-1.1373,-0.049721,-0.033092,0.13475,0.06023,-0.0136,0.066431
0.012907,0.027164,-0.0037959,-0.03053,0.14953,-0.1157,-0.13549,0.01693,0.0087542,0.09048,-0.15844,-0.39766,-0.4607,-0.22935,-0.090293,-0.33193,-0.097156,-1.1742,-0.038684,-0.035663,0.14195,0.097057,-0.30786,0.080476
0.0085329,0.028438,-0.0098397,-0.037198,0.16585,-0.12014,-0.16247,-0.0025257,0.013102,0.084865,-0.15038,-0.38112,-0.4702,-0.25651,-0.11892,-0.35493,-0.098337,-1.174,-0.02915,-0.040346,0.14794,0.13003,-0.54539,0.11351
0.0020047,0.026554,-0.016994,-0.034301,0.18187,-0.13333,-0.18706,-0.014372,0.018259,0.084079,-0.13526,-0.33644,-0.46419,-0.2776,-0.15445,-0.39655,-0.10011,-1.1423,-0.018716,-0.044443,0.15492,0.14875,-0.74645,0.15428
-0.0035499,0.02266,-0.019504,-0.02329,0.18594,-0.15342,-0.20438,-0.02092,0.024182,0.087379,-0.11367,-0.28337,-0.43922,-0.28827,-0.1918,-0.46669,-0.098815,-1.0842,-0.008686,-0.045235,0.16248,0.15366,-0.947,0.18939
-0.006423,0.018573,-0.014189,-0.0096188,0.16956,-0.17433,-0.21174,-0.026534,0.030132,0.090487,-0.088785,-0.24149,-0.39587,-0.28842,-0.22496,-0.56022,-0.093288,-1.0076,-0.0025853,-0.041607,0.16858,0.15399,-1.1744,0.20847
-0.0066456,0.015836,-0.0036256,0.00023086,0.13166,-0.18954,-0.2096,-0.033917,0.034458,0.088668,-0.064987,-0.21824,-0.33753,-0.28035,-0.24739,-0.64738,-0.086355,-0.92772,-0.0024956,-0.033761,0.17294,0.16035,-1.4238,0.2087
-0.0049665,0.015355,0.0056029,0.0026549,0.077385,-0.1961,-0.20077,-0.042514,0.035519,0.079885,-0.045441,-0.20744,-0.27054,-0.26544,-0.25317,-0.6863,-0.082059,-0.86249,-0.0065157,-0.021965,0.17944,0.17758,-1.6579,0.19689
-0.0018136,0.01749,0.0081963,-0.00096908,0.013873,-0.19631,-0.18914,-0.049515,0.032997,0.065861,-0.030624,-0.19835,-0.20374,-0.24256,-0.23981,-0.6508,-0.08147,-0.82131,-0.0097144,-0.006313,0.19491,0.2024,-1.8322,0.1878
0.002741,0.022087,0.0042635,-0.005691,-0.053068,-0.19631,-0.17854,-0.052046,0.028352,0.050586,-0.018947,-0.18609,-0.14419,-0.20969,-0.21147,-0.5496,-0.081185,-0.79464,-0.0077863,0.011923,0.22449,0.22694,-1.9262,0.19783
0.0082214,0.028259,-0.0013408,-0.0070344,-0.11926,-0.20269,-0.17179,-0.048955,0.02382,0.037619,-0.0088216,-0.1737,-0.089739,-0.16693,-0.17941,-0.41796,-0.075987,-0.75679,-0.00015931,0.029204,0.26685,0.24431,-1.9556,0.23588
0.013238,0.03429,-0.0036706,-0.0046175,-0.18064,-0.21918,-0.16961,-0.041417,0.020685,0.028142,-0.00029397,-0.16517,-0.024655,-0.11783,-0.1575,-0.2878,-0.063249,-0.68407,0.010144,0.041085,0.31298,0.25214,-1.9598,0.29573
0.015954,0.038153,-0.0019508,-0.0024483,-0.23245,-0.24491,-0.17006,-0.032306,0.018287,0.020861,0.0052235,-0.15749,0.075546,-0.067525,-0.15452,-0.16261,-0.045225,-0.57558,0.019554,0.045674,0.34984,0.25224,-1.9787,0.35509
0.015223,0.038485,0.00034417,-0.0055694,-0.27013,-0.27437,-0.16957,-0.024584,0.01471,0.013498,0.0067419,-0.14079,0.2299,-0.019032,-0.16823,-0.020462,-0.027425,-0.45936,0.026976,0.046042,0.36663,0.24802,-2.0402,0.38373
0.011449,0.035291,-0.00067612,-0.015678,-0.29132,-0.29887,-0.16531,-0.019326,0.0086708,0.0047335,0.0051761,-0.10696,0.4371,0.029047,-0.18614,0.15756,-0.014776,-0.37653,0.03411,0.048538,0.35976,0.24247,-2.1644,0.35725
0.0064494,0.029685,-0.0054326,-0.029204,-0.29702,-0.30874,-0.1574,-0.014536,0.0011191,-0.0044777,0.0029831,-0.058191,0.67108,0.08131,-0.19315,0.35945,-0.0088483,-0.35424,0.043159,0.057641,0.3337,0.23749,-2.3696,0.26886
0.0024024,0.022842,-0.010586,-0.0394,-0.29109,-0.29616,-0.14859,-0.0058388,-0.004868,-0.010855,0.002246,-0.0069624,0.89135,0.14156,-0.18138,0.54099,-0.0080439,-0.38819,0.054446,0.071618,0.29756,0.23386,-2.6643,0.13246
0.00057887,0.015093,-0.012364,-0.040851,-0.27833,-0.25804,-0.14166,0.0111,-0.0060042,-0.010108,0.0030262,0.033009,1.0613,0.2091,-0.15515,0.65292,-0.0098377,-0.44777,0.066224,0.083232,0.25983,0.23062,-3.0254,-0.024441
0.00063456,0.0060033,-0.010118,-0.033113,-0.26216,-0.19778,-0.13652,0.038153,-0.0012193,0.00074205,0.0035451,0.056226,1.1619,0.27823,-0.12749,0.67291,-0.0127,-0.49855,0.076459,0.085465,0.22467,0.22437,-3.3823,-0.17242
0.00087687,-0.0046945,-0.0067222,-0.021022,-0.24289,-0.12453,-0.12997,0.074174,0.0072422,0.021036,0.001965,0.066613,1.1934,0.34132,-0.11051,0.61531,-0.016205,-0.52365,0.084292,0.077604,0.19155,0.21004,-3.6313,-0.28938
-0.00060213,-0.016227,-0.0056749,-0.011756,-0.21731,-0.04974,-0.11835,0.1163,0.015014,0.045636,-0.0019578,0.070101,1.1672,0.39321,-0.10626,0.51304,-0.019866,-0.52887,0.089412,0.066377,0.15786,0.18346,-3.6789,-0.36329
-0.0045541,-0.026844,-0.0079046,-0.010855,-0.17961,0.017609,-0.10068,0.16111,0.018367,0.066697,-0.006808,0.066741,1.0978,0.43365,-0.10467,0.391,-0.022375,-0.53158,0.090078,0.060997,0.12233,0.14435,-3.4884,-0.38999
-0.0098831,-0.034761,-0.011333,-0.019602,-0.12328,0.07413,-0.079325,0.20371,0.016569,0.077583,-0.010828,0.050725,1.0008,0.46612,-0.0897,0.25611,-0.022207,-0.54602,0.082389,0.066148,0.086772,0.097032,-3.0971,-0.37051
-0.01429,-0.039203,-0.01334,-0.034884,-0.0433,0.12168,-0.057713,0.23599,0.012111,0.076651,-0.013133,0.018451,0.89421,0.49373,-0.049791,0.11034,-0.019068,-0.57653,0.062505,0.078557,0.055362,0.047992,-2.5899,-0.31075
-0.015997,-0.040773,-0.013442,-0.051092,0.061917,0.16384,-0.037353,0.24718,0.0087203,0.068125,-0.013725,-0.023612,0.7977,0.51517,0.01459,-0.030323,-0.014748,-0.61911,0.030628,0.089578,0.032368,0.0022334,-2.0508,-0.22219
-0.015288,-0.041078,-0.013516,-0.06288,0.18866,0.20208,-0.017052,0.22928,0.0088048,0.059097,-0.012698,-0.059748,0.72428,0.52379,0.09065,-0.134,-0.012485,-0.66356,-0.0065836,0.091211,0.020077,-0.038572,-1.5257,-0.12084
-0.01447,-0.042012,-0.015581,-0.06757,0.32615,0.23442,0.0052121,0.18422,0.012284,0.054679,-0.0099093,-0.07483,0.6728,0.51094,0.15992,-0.17376,-0.015149,-0.69099,-0.037684,0.080678,0.018226,-0.074595,-1.0192,-0.023138
-0.016015,-0.045029,-0.019621,-0.066238,0.45556,0.25762,0.029775,0.12676,0.017405,0.054942,-0.0056684,-0.064931,0.62941,0.47196,0.20714,-0.15341,-0.023381,-0.67161,-0.051499,0.060668,0.02471,-0.10474,-0.52084,0.059341
-0.020334,-0.050517,-0.023679,-0.062857,0.55187,0.27065,0.054525,0.078187,0.022359,0.055977,-0.0015853,-0.039642,0.58068,0.41082,0.22587,-0.11384,-0.034789,-0.57119,-0.042129,0.036333,0.036528,-0.12534,-0.032063,0.12285
-0.025198,-0.05746,-0.02596,-0.061664,0.59012,0.27645,0.076301,0.053733,0.02609,0.053957,-0.00021257,-0.014547,0.52899,0.33928,0.21831,-0.11196,-0.044585,-0.36765,-0.01062,0.012271,0.050256,-0.13245,0.42588,0.17057
-0.027559,-0.06378,-0.026564,-0.064192,0.55525,0.28011,0.092833,0.052825,0.027909,0.048582,-0.0032942,-0.00084619,0.4964,0.27037,0.19071,-0.18737,-0.047451,-0.06739,0.037082,-0.0083927,0.06237,-0.12605,0.82504,0.20899
-0.026288,-0.067553,-0.026994,-0.068103,0.451,0.28529,0.1035,0.060383,0.026984,0.042883,-0.010064,-0.00078431,0.51088,0.21028,0.14853,-0.34084,-0.039919,0.29216,0.093368,-0.02343,0.070237,-0.11183,1.1479,0.24444
-0.02333,-0.068494,-0.028089,-0.069044,0.30166,0.29187,0.10871,0.059063,0.022814,0.039795,-0.017373,-0.011335,0.58421,0.15554,0.094948,-0.53693,-0.022304,0.65727,0.1506,-0.031358,0.073768,-0.098033,1.3925,0.28136
-0.022008,-0.06842,-0.028763,-0.064398,0.14374,0.29732,0.10924,0.04308,0.016327,0.038906,-0.021924,-0.030911,0.69804,0.098795,0.033333,-0.72377,0.00086322,0.97947,0.20083,-0.032472,0.07651,-0.089003,1.5647,0.32216
-0.023866,-0.069934,-0.027097,-0.055959,0.010755,0.30041,0.10641,0.022517,0.010112,0.036626,-0.022896,-0.061921,0.80949,0.039627,-0.029104,-0.85395,0.022526,1.2293,0.23581,-0.02978,0.084553,-0.080806,1.6689,0.36729
-0.026938,-0.074075,-0.022718,-0.049113,-0.080317,0.30388,0.10289,0.014686,0.0068883,0.029696,-0.022718,-0.10704,0.87214,-0.0089131,-0.080523,-0.89664,0.036523,1.3965,0.2494,-0.028015,0.10306,-0.063212,1.7068,0.41488
-0.027215,-0.078925,-0.017922,-0.048911,-0.13279,0.31347,0.10271,0.029692,0.0073292,0.018623,-0.025225,-0.16354,0.85778,-0.024956,-0.10842,-0.84254,0.041068,1.4843,0.24158,-0.030627,0.13226,-0.027456,1.6849,0.46057
-0.022171,-0.080633,-0.016111,-0.056199,-0.16261,0.33384,0.10969,0.061859,0.0094153,0.0074919,-0.032707,-0.22191,0.76619,0.008275,-0.10625,-0.70589,0.040137,1.5056,0.2205,-0.036802,0.1658,0.026006,1.6189,0.49828
-0.013224,-0.076271,-0.018879,-0.066991,-0.18537,0.36524,0.12499,0.093441,0.010273,5.1647e-005,-0.044272,-0.27052,0.6204,0.089666,-0.077795,-0.52269,0.041488,1.484,0.1995,-0.041087,0.19304,0.086109,1.5296,0.52249
-0.0048377,-0.066099,-0.024488,-0.075521,-0.20739,0.40366,0.14562,0.10688,0.0089184,-0.0042807,-0.056776,-0.30247,0.45502,0.19875,-0.035608,-0.3402,0.052085,1.449,0.19005,-0.036353,0.20426,0.13767,1.433,0.53095
-0.0009691,-0.053205,-0.029237,-0.078298,-0.22611,0.44397,0.16541,0.095664,0.007203,-0.010417,-0.067327,-0.31904,0.30497,0.30666,0.0058656,-0.19825,0.073618,1.4216,0.19523,-0.018303,0.19562,0.17099,1.3336,0.52621
-0.0019464,-0.040792,-0.030437,-0.075839,-0.23715,0.48281,0.17822,0.06605,0.0078726,-0.023134,-0.07517,-0.32743,0.19757,0.39044,0.037481,-0.11307,0.10105,1.3973,0.20884,0.011353,0.17069,0.18731,1.2272,0.51482
-0.0044576,-0.029638,-0.028263,-0.071038,-0.24094,0.51833,0.18136,0.030276,0.011576,-0.042058,-0.08154,-0.33514,0.14624,0.43993,0.057785,-0.075865,0.1253,1.3451,0.22051,0.044911,0.13808,0.19609,1.1104,0.50444
-0.004545,-0.018211,-0.024948,-0.066078,-0.24273,0.54789,0.17671,-0.0021307,0.015828,-0.060961,-0.088018,-0.34558,0.14597,0.45439,0.069576,-0.067225,0.13858,1.231,0.2229,0.071682,0.10675,0.20678,0.98737,0.50041
-0.00091289,-0.0053954,-0.022362,-0.060759,-0.24704,0.56685,0.16886,-0.028413,0.017075,-0.072517,-0.095159,-0.35713,0.1738,0.43579,0.074561,-0.074036,0.13889,1.0519,0.21526,0.082426,0.082188,0.22172,0.86936,0.50372
0.0042378,0.006836,-0.020455,-0.053459,-0.25248,0.57059,0.16158,-0.050952,0.01389,-0.074595,-0.10252,-0.36511,0.19728,0.38699,0.071181,-0.09311,0.13114,0.85181,0.20128,0.073321,0.065384,0.23542,0.76912,0.51128
0.0073209,0.013724,-0.017938,-0.043462,-0.25228,0.55804,0.15562,-0.073566,0.0081684,-0.072404,-0.1096,-0.36458,0.18827,0.31607,0.057147,-0.1198,0.1244,0.70118,0.18389,0.047934,0.054504,0.2401,0.69561,0.51773
0.0063873,0.011273,-0.014283,-0.032315,-0.24047,0.53298,0.14924,-0.099427,0.0031443,-0.074279,-0.11629,-0.35249,0.13442,0.23917,0.033396,-0.13622,0.12709,0.6502,0.1621,0.016202,0.04752,0.23237,0.65183,0.51766
0.0024707,0.00010107,-0.010827,-0.022984,-0.21816,0.50114,0.14087,-0.13096,0.0002473,-0.08456,-0.12217,-0.3291,0.041304,0.17508,0.0048501,-0.11549,0.14302,0.69245,0.13239,-0.0095903,0.043906,0.21571,0.63424,0.50737
-0.0016771,-0.014165,-0.0097939,-0.017641,-0.19409,0.46553,0.13118,-0.16966,-0.0020455,-0.099776,-0.12562,-0.29822,-0.075257,0.13341,-0.023192,-0.041596,0.16998,0.76989,0.092991,-0.020285,0.044603,0.19703,0.63142,0.48589
-0.0041608,-0.024946,-0.012205,-0.016084,-0.17859,0.42436,0.12264,-0.21484,-0.006239,-0.11154,-0.12406,-0.26589,-0.1999,0.10683,-0.04959,0.073394,0.20114,0.81626,0.047213,-0.013805,0.050803,0.18081,0.62382,0.45496
-0.0055683,-0.030168,-0.016759,-0.016197,-0.17596,0.3739,0.11721,-0.2626,-0.012739,-0.11369,-0.1156,-0.23744,-0.32352,0.076175,-0.078253,0.19391,0.22807,0.80292,0.0028585,0.0048905,0.062688,0.16562,0.58904,0.4178
-0.0083233,-0.034331,-0.020811,-0.016055,-0.1814,0.31381,0.11467,-0.30725,-0.018796,-0.10745,-0.10087,-0.21452,-0.44148,0.02581,-0.11443,0.28654,0.24409,0.74809,-0.031587,0.027765,0.078996,0.14588,0.5136,0.37706
-0.014338,-0.04485,-0.022535,-0.015829,-0.18491,0.24993,0.11342,-0.34451,-0.020626,-0.10023,-0.083242,-0.19451,-0.54835,-0.043207,-0.16002,0.34455,0.24642,0.68379,-0.051224,0.048537,0.097482,0.11686,0.40483,0.33325
-0.022923,-0.065296,-0.022252,-0.01776,-0.17866,0.19199,0.11293,-0.37348,-0.016785,-0.099395,-0.067065,-0.17309,-0.63571,-0.11376,-0.2124,0.38817,0.23651,0.61329,-0.056772,0.064775,0.11565,0.078753,0.29236,0.28496
-0.030732,-0.091189,-0.0218,-0.024001,-0.16204,0.14811,0.11484,-0.39512,-0.0096524,-0.10634,-0.055208,-0.14847,-0.69577,-0.16661,-0.26758,0.43942,0.21859,0.50101,-0.053573,0.076312,0.13108,0.036449,0.21417,0.23019
-0.03398,-0.11231,-0.022647,-0.034072,-0.1407,0.12113,0.12097,-0.40868,-0.0036468,-0.11593,-0.0478,-0.12349,-0.7273,-0.1955,-0.32393,0.49496,0.19736,0.30615,-0.048503,0.082443,0.14105,-0.0046155,0.19398,0.16704
-0.031301,-0.1201,-0.024542,-0.044165,-0.12119,0.10954,0.12961,-0.41011,-0.0017703,-0.12111,-0.04291,-0.10373,-0.7379,-0.21051,-0.38216,0.52388,0.17593,0.028869,-0.046516,0.081276,0.14213,-0.042825,0.22535,0.092246
-0.024985,-0.11416,-0.025829,-0.04921,-0.10618,0.11134,0.13377,-0.39493,-0.0035049,-0.11841,-0.038378,-0.09275,-0.73953,-0.2278,-0.44131,0.49427,0.155,-0.27585,-0.048441,0.071892,0.13052,-0.08121,0.27478,-0.001022
-0.019429,-0.10245,-0.024936,-0.046299,-0.093985,0.12602,0.12427,-0.36295,-0.0057587,-0.10957,-0.033243,-0.088616,-0.74045,-0.25526,-0.49475,0.40536,0.13342,-0.5331,-0.051153,0.056576,0.10386,-0.12383,0.30265,-0.12245
-0.017858,-0.095003,-0.021595,-0.036745,-0.08199,0.1521,0.096006,-0.31999,-0.0058261,-0.098767,-0.027833,-0.084847,-0.73977,-0.28658,-0.53105,0.29551,0.10949,-0.70283,-0.05018,0.039949,0.063499,-0.17067,0.28748,-0.27926
-0.019891,-0.096272,-0.016801,-0.025075,-0.070368,0.18253,0.052923,-0.27424,-0.0036541,-0.088428,-0.022796,-0.075212,-0.72916,-0.30741,-0.53985,0.2174,0.082235,-0.80617,-0.043377,0.025096,0.015707,-0.21544,0.23614,-0.46877
-0.02197,-0.10255,-0.011816,-0.015734,-0.06256,0.20357,0.0071353,-0.23097,-0.0014904,-0.07764,-0.018093,-0.058502,-0.69984,-0.30677,-0.5187,0.20087,0.052079,-0.89975,-0.033188,0.010376,-0.029972,-0.24891,0.17305,-0.67484
-0.020411,-0.10603,-0.0073654,-0.010226,-0.062312,0.19979,-0.027834,-0.19101,-0.0014131,-0.063942,-0.012825,-0.039413,-0.64924,-0.28406,-0.47518,0.23401,0.020683,-1.0213,-0.025554,-0.0094469,-0.064964,-0.26584,0.11627,-0.87197
-0.014569,-0.10162,-0.0037608,-0.0069281,-0.070069,0.16254,-0.04525,-0.15505,-0.0031304,-0.046374,-0.0059512,-0.025177,-0.58223,-0.24733,-0.42271,0.2769,-0.009845,-1.1546,-0.02582,-0.038094,-0.086228,-0.27043,0.057673,-1.035
-0.0074422,-0.090495,-0.0015781,-0.0034557,-0.081754,0.094717,-0.049134,-0.12879,-0.0041451,-0.026929,0.0027019,-0.021194,-0.50686,-0.20719,-0.37342,0.29407,-0.037968,-1.244,-0.034504,-0.073115,-0.098029,-0.27553,-0.038478,-1.1481
-0.0031439,-0.077869,-0.0018725,0.00074735,-0.090663,0.0075211,-0.051507,-0.12209,-0.0021792,-0.0096093,0.011894,-0.029424,-0.42895,-0.17263,-0.33324,0.27812,-0.063339,-1.2419,-0.046216,-0.10617,-0.10934,-0.29527,-0.21565,-1.2064
-0.0033492,-0.067701,-0.0053758,0.0039182,-0.090718,-0.088545,-0.065227,-0.14077,0.002389,0.0015756,0.01924,-0.050199,-0.34998,-0.15108,-0.30222,0.24701,-0.086484,-1.1476,-0.052777,-0.12845,-0.12821,-0.33555,-0.49505,-1.2127
-0.00575,-0.059555,-0.011272,0.0039,-0.078836,-0.19077,-0.097443,-0.1775,0.0064208,0.0040162,0.022113,-0.084567,-0.2692,-0.14926,-0.27829,0.222,-0.10764,-1.0031,-0.04834,-0.13677,-0.15662,-0.38918,-0.85402,-1.1718
-0.0058995,-0.050182,-0.016829,0.0006625,-0.055488,-0.30325,-0.14748,-0.21096,0.0064706,-0.0030842,0.018674,-0.13366,-0.18731,-0.17091,-0.26033,0.2086,-0.12569,-0.85728,-0.032849,-0.13537,-0.18896,-0.43905,-1.2281,-1.0902
-0.00096948,-0.037675,-0.018629,-0.0028337,-0.024032,-0.42863,-0.20935,-0.21644,0.001592,-0.018663,0.008632,-0.19482,-0.10835,-0.21171,-0.24773,0.19773,-0.13832,-0.73246,-0.01165,-0.13221,-0.21511,-0.46735,-1.5384,-0.97869
0.0076891,-0.023817,-0.014802,-0.0022347,0.010261,-0.5599,-0.27595,-0.18091,-0.0061082,-0.039794,-0.0064334,-0.25801,-0.038597,-0.25682,-0.23757,0.18371,-0.1437,-0.62439,0.0078963,-0.13311,-0.22598,-0.4646,-1.7299,-0.85352
0.015317,-0.012417,-0.006582,0.0052853,0.041259,-0.6796,-0.34185,-0.1111,-0.013621,-0.06221,-0.023169,-0.30732,0.016086,-0.28548,-0.22301,0.18,-0.14261,-0.52841,0.020144,-0.13872,-0.21837,-0.43283,-1.7962,-0.73197
0.017274,-0.0055626,0.0021525,0.018874,0.063301,-0.76788,-0.40321,-0.027725,-0.019678,-0.081785,-0.037058,-0.32821,0.052486,-0.28164,-0.19574,0.21552,-0.13886,-0.46052,0.023004,-0.14615,-0.19633,-0.38205,-1.776,-0.62405
0.012584,-0.0016531,0.0072952,0.034169,0.072788,-0.81332,-0.45584,0.049962,-0.025202,-0.096319,-0.043671,-0.31655,0.070738,-0.24373,-0.15152,0.31259,-0.13732,-0.44855,0.017611,-0.15295,-0.16873,-0.32348,-1.724,-0.52702
0.0048176,0.0029516,0.0072336,0.045821,0.069429,-0.81867,-0.49385,0.11748,-0.031199,-0.10621,-0.040421,-0.28228,0.073846,-0.18655,-0.094381,0.46464,-0.14053,-0.50083,0.0068821,-0.15958,-0.14458,-0.26445,-1.6792,-0.42858
-0.00018859,0.010468,0.0038689,0.050854,0.056541,-0.79746,-0.5104,0.18617,-0.036556,-0.1133,-0.028067,-0.24425,0.066648,-0.13318,-0.035073,0.63326,-0.1469,-0.58429,-0.005938,-0.16808,-0.12882,-0.2074,-1.654,-0.31769
0.0019942,0.01984,0.001107,0.050674,0.040357,-0.76464,-0.50084,0.27132,-0.038445,-0.11891,-0.010886,-0.21883,0.054503,-0.10218,0.01599,0.76807,-0.15185,-0.63679,-0.018303,-0.17875,-0.12104,-0.1523,-1.6466,-0.19507
0.011864,0.028097,0.0018944,0.050151,0.028721,-0.72826,-0.46624,0.37668,-0.035271,-0.1228,0.0051171,-0.21021,0.041848,-0.098194,0.056325,0.8341,-0.15139,-0.60681,-0.028909,-0.18816,-0.11742,-0.099811,-1.6628,-0.075035
0.02601,0.033364,0.0060218,0.054085,0.029487,-0.68781,-0.41486,0.48704,-0.029066,-0.12391,0.015262,-0.209,0.031028,-0.11114,0.092996,0.82589,-0.14514,-0.48819,-0.037708,-0.19074,-0.11433,-0.052868,-1.7205,0.023291
0.039232,0.036597,0.01037,0.063368,0.048565,-0.63934,-0.35966,0.57502,-0.024377,-0.12195,0.018677,-0.19984,0.022072,-0.12374,0.13597,0.76004,-0.13657,-0.32173,-0.045453,-0.18275,-0.11091,-0.015933,-1.8316,0.089041
0.047218,0.040675,0.011395,0.073775,0.087725,-0.58276,-0.31262,0.61754,-0.024155,-0.11803,0.018426,-0.17183,0.01365,-0.12179,0.18768,0.65631,-0.13041,-0.164,-0.053221,-0.16544,-0.10915,0.0074359,-1.9771,0.12721
0.048335,0.047998,0.0079077,0.078701,0.14305,-0.5249,-0.27921,0.61081,-0.026593,-0.11369,0.019095,-0.12405,0.0047366,-0.10133,0.23713,0.52504,-0.12948,-0.050424,-0.062364,-0.14452,-0.11165,0.017114,-2.1027,0.15554
0.04395,0.058824,0.0020093,0.074174,0.20541,-0.47567,-0.25654,0.57381,-0.026417,-0.10961,0.023556,-0.063046,-0.0040212,-0.069171,0.26412,0.37036,-0.13313,0.019272,-0.074672,-0.12628,-0.11939,0.017129,-2.1455,0.19331
0.03745,0.071486,-0.0024903,0.062379,0.26371,-0.4399,-0.23659,0.53767,-0.019956,-0.10536,0.03125,0.0041487,-0.0098866,-0.037557,0.25155,0.20217,-0.138,0.06659,-0.091859,-0.11328,-0.1311,0.013517,-2.0751,0.24976
0.032529,0.083742,-0.0028718,0.05068,0.30967,-0.41146,-0.21188,0.52805,-0.0092983,-0.10059,0.039098,0.074769,-0.008588,-0.01656,0.19732,0.042868,-0.13999,0.10831,-0.11389,-0.10291,-0.14445,0.010264,-1.9173,0.31926
0.031448,0.093863,0.00063324,0.046511,0.34131,-0.37508,-0.17954,0.55115,-0.0012664,-0.09636,0.044069,0.1491,0.004614,-0.0086421,0.1171,-0.079057,-0.13606,0.14227,-0.13713,-0.089965,-0.15763,0.0064304,-1.7372,0.38538
0.033984,0.1008,0.0052402,0.051898,0.36256,-0.31604,-0.14099,0.59163,-0.0016278,-0.094768,0.045316,0.2256,0.033746,-0.0085331,0.036159,-0.14263,-0.12518,0.15443,-0.15443,-0.071189,-0.16987,-0.0025939,-1.5928,0.43121
0.037642,0.1039,0.0077886,0.061921,0.37867,-0.23149,-0.098732,0.62222,-0.0096349,-0.097067,0.044431,0.29809,0.080973,-0.0083958,-0.024029,-0.14271,-0.10833,0.13806,-0.15812,-0.048131,-0.18055,-0.019808,-1.4934,0.45065
0.039113,0.10298,0.0069233,0.068373,0.3907,-0.13482,-0.053795,0.61833,-0.018028,-0.1018,0.044066,0.35823,0.14556,-0.0046752,-0.055208,-0.086532,-0.087776,0.10739,-0.14436,-0.026128,-0.18814,-0.041506,-1.3946,0.45482
0.03627,0.098521,0.0036624,0.065756,0.39304,-0.049128,-0.0063796,0.56871,-0.018838,-0.105,0.046271,0.40098,0.22316,-0.0014112,-0.062383,0.01656,-0.065913,0.095186,-0.11551,-0.010198,-0.19057,-0.05754,-1.2344,0.46921
0.029491,0.091609,0.00012143,0.054903,0.37639,0.0064924,0.041544,0.47722,-0.010077,-0.10275,0.051728,0.42737,0.3057,-0.0069434,-0.056093,0.16097,-0.044337,0.13643,-0.078183,-0.0012235,-0.18688,-0.05813,-0.98089,0.52079
0.021423,0.083128,-0.0023683,0.041659,0.33422,0.028034,0.085118,0.35702,0.0025027,-0.093966,0.059993,0.44148,0.38207,-0.026122,-0.043542,0.34068,-0.023831,0.24994,-0.038491,0.00448,-0.17883,-0.042254,-0.65811,0.62063
0.015306,0.073065,-0.004135,0.032117,0.26798,0.027334,0.11907,0.22275,0.010091,-0.081094,0.070058,0.44467,0.43964,-0.054444,-0.024857,0.53976,-0.0052285,0.42906,0.0015281,0.011997,-0.17073,-0.020052,-0.3301,0.75255
0.013013,0.06097,-0.0063888,0.028485,0.18689,0.022297,0.14205,0.086068,0.0079159,-0.067609,0.080601,0.43344,0.46684,-0.079792,0.0039899,0.72797,0.0098822,0.64535,0.043172,0.02383,-0.1668,-0.0060095,-0.0582,0.87746
0.014198,0.047608,-0.0096258,0.028533,0.10228,0.024399,0.1586,-0.043901,-0.0012073,-0.054417,0.089933,0.40434,0.4566,-0.09135,0.045049,0.86826,0.0198,0.86108,0.087016,0.038442,-0.1681,-0.00774,0.13765,0.95333
0.017044,0.0362,-0.012767,0.028273,0.020826,0.032873,0.17621,-0.15803,-0.0096196,-0.038313,0.096094,0.36175,0.41,-0.088644,0.094363,0.93312,0.024631,1.0432,0.12973,0.052261,-0.17112,-0.019801,0.28731,0.9593
0.019818,0.031346,-0.013907,0.025025,-0.058184,0.039174,0.19916,-0.24704,-0.011274,-0.014365,0.097411,0.32034,0.33808,-0.082692,0.14313,0.91934,0.027709,1.1729,0.16513,0.062991,-0.16983,-0.028226,0.44623,0.90705
0.021822,0.035587,-0.012053,0.018467,-0.1394,0.037119,0.22456,-0.30538,-0.0064414,0.019112,0.093334,0.29751,0.25982,-0.087525,0.18289,0.85111,0.034566,1.2498,0.1885,0.071078,-0.15939,-0.022145,0.6577,0.83082
0.023077,0.046245,-0.0082869,0.0096683,-0.2249,0.030012,0.24411,-0.33629,-0.0010354,0.05682,0.084952,0.30052,0.19556,-0.1088,0.21065,0.76865,0.04944,1.2919,0.19978,0.07818,-0.13899,-0.0023762,0.92686,0.76344
0.023359,0.055873,-0.0052033,-0.00012567,-0.3099,0.029191,0.25084,-0.35276,-0.0015132,0.087415,0.074717,0.31947,0.15838,-0.1392,0.22989,0.70867,0.071785,1.3303,0.20218,0.084362,-0.11145,0.020604,1.22,0.71615
0.021884,0.057016,-0.0050268,-0.0096482,-0.38432,0.045587,0.24516,-0.37112,-0.0097544,0.099342,0.065399,0.33358,0.14827,-0.16456,0.24707,0.68754,0.095761,1.3984,0.19769,0.086856,-0.080359,0.037296,1.4846,0.67712
0.018176,0.047963,-0.0079343,-0.017153,-0.43859,0.081271,0.23502,-0.40019,-0.021843,0.088101,0.058893,0.32698,0.15341,-0.17549,0.26629,0.6964,0.1134,1.5143,0.18423,0.081626,-0.047475,0.048494,1.6752,0.62779
0.013216,0.03452,-0.011951,-0.020734,-0.46936,0.12752,0.22979,-0.43375,-0.031171,0.060023,0.055568,0.30077,0.1587,-0.17419,0.28638,0.70955,0.11903,1.6642,0.15813,0.066389,-0.012907,0.064586,1.771,0.56196
0.0094223,0.025749,-0.014428,-0.019786,-0.48083,0.1706,0.23275,-0.45317,-0.032896,0.029794,0.054516,0.27056,0.15612,-0.17079,0.30208,0.69996,0.11156,1.7976,0.12011,0.042614,0.022399,0.095357,1.7808,0.49128
0.0090329,0.026818,-0.013856,-0.016254,-0.48153,0.20056,0.23844,-0.44026,-0.026327,0.013079,0.054392,0.25085,0.14926,-0.17296,0.30769,0.65203,0.093283,1.8443,0.078594,0.015139,0.054602,0.13962,1.7389,0.43355
0.012163,0.034964,-0.010701,-0.013899,-0.47957,0.21647,0.23733,-0.39202,-0.014089,0.018898,0.054195,0.24034,0.14808,-0.1785,0.29957,0.56495,0.067219,1.7476,0.046213,-0.0099879,0.077976,0.18414,1.6943,0.39525
0.016398,0.042126,-0.0068786,-0.015574,-0.47969,0.22465,0.22394,-0.32621,0.00029149,0.046386,0.053473,0.22191,0.15725,-0.17766,0.2758,0.44689,0.035885,1.4964,0.031016,-0.027728,0.0887,0.21304,1.6948,0.36448
0.018544,0.041969,-0.0045271,-0.020677,-0.48287,0.23193,0.2018,-0.27248,0.014047,0.087353,0.051993,0.17869,0.1678,-0.16284,0.2344,0.30589,0.0027062,1.1356,0.029718,-0.03518,0.088358,0.21951,1.7686,0.32057
0.017106,0.035167,-0.0049536,-0.025316,-0.48726,0.23959,0.18096,-0.25438,0.025199,0.13208,0.049324,0.11229,0.16036,-0.1364,0.17312,0.14388,-0.026037,0.74663,0.029134,-0.031584,0.083886,0.21042,1.9097,0.25182
0.013325,0.028373,-0.0081524,-0.025499,-0.48898,0.24286,0.17025,-0.27472,0.031963,0.17395,0.044874,0.04684,0.11946,-0.10928,0.092297,-0.043159,-0.041776,0.41228,0.015486,-0.017849,0.083522,0.2005,2.079,0.16597
0.0098442,0.028048,-0.012839,-0.020853,-0.48292,0.23587,0.17056,-0.31501,0.032908,0.21008,0.03852,0.01363,0.048062,-0.091315,-0.0014271,-0.2601,-0.037631,0.18682,-0.015465,0.0038392,0.09162,0.2022,2.2234,0.084306
0.0082974,0.03476,-0.016893,-0.01554,-0.46444,0.21784,0.17469,-0.34923,0.027969,0.2387,0.031405,0.028647,-0.030041,-0.081945,-0.094212,-0.50565,-0.013232,0.088157,-0.055365,0.03027,0.10612,0.21922,2.304,0.025005
0.0080413,0.042837,-0.018237,-0.015273,-0.43191,0.19508,0.17358,-0.36157,0.019111,0.25655,0.026178,0.08131,-0.083881,-0.069662,-0.16908,-0.76661,0.02368,0.10896,-0.089561,0.057514,0.12046,0.24772,2.3145,-0.0095223
0.0071077,0.045282,-0.015962,-0.022662,-0.3884,0.17716,0.16351,-0.35498,0.0095491,0.25932,0.026078,0.14359,-0.095288,-0.040922,-0.21285,-1.0165,0.060861,0.23232,-0.10764,0.081498,0.12839,0.28159,2.2764,-0.030526
0.0043216,0.039299,-0.011086,-0.034702,-0.3407,0.17016,0.14825,-0.34483,0.00183,0.24501,0.033051,0.19133,-0.069816,0.0089406,-0.22148,-1.2216,0.088336,0.43875,-0.11025,0.09889,0.1283,0.31615,2.2174,-0.048494
0.00049409,0.027778,-0.0061948,-0.044566,-0.29583,0.17251,0.13479,-0.34392,-0.0036293,0.21729,0.046025,0.21986,-0.030357,0.071729,-0.20047,-1.3536,0.10359,0.70295,-0.10769,0.10808,0.12425,0.34748,2.1478,-0.060181
-0.0024043,0.01604,-0.003933,-0.046386,-0.25745,0.17665,0.12702,-0.3511,-0.0082373,0.18532,0.060754,0.242,0.00034477,0.13208,-0.16079,-1.4041,0.11148,0.98876,-0.11229,0.1098,0.12326,0.37002,2.0533,-0.049855
-0.0031989,0.0073056,-0.0053165,-0.039425,-0.22484,0.17489,0.12295,-0.35235,-0.0134,0.15916,0.071844,0.27198,0.01332,0.17737,-0.11373,-1.3905,0.11913,1.2508,-0.1308,0.10694,0.1307,0.37659,1.9034,-0.0049901
-0.00267,0.00085774,-0.0091946,-0.028632,-0.19512,0.16494,0.11768,-0.33196,-0.018826,0.14381,0.075866,0.31046,0.012926,0.20344,-0.068066,-1.3466,0.12983,1.4444,-0.16171,0.10336,0.14647,0.36178,1.6676,0.066604
-0.0028429,-0.0060555,-0.013342,-0.021422,-0.1665,0.15088,0.10865,-0.28392,-0.022514,0.13622,0.0734,0.34323,0.0055228,0.21221,-0.029844,-1.3021,0.14054,1.5382,-0.19808,0.10229,0.16405,0.32568,1.3284,0.1335
-0.0051613,-0.014941,-0.016244,-0.023152,-0.13973,0.13933,0.098018,-0.21445,-0.022465,0.12786,0.068426,0.35359,-0.010322,0.20485,-0.0030438,-1.263,0.14457,1.5222,-0.23247,0.10484,0.173,0.27403,0.8919,0.15559
-0.0092964,-0.024591,-0.018002,-0.034215,-0.11679,0.13432,0.089928,-0.13533,-0.018589,0.11119,0.065488,0.33681,-0.042976,0.17778,0.010671,-1.209,0.13688,1.4078,-0.26029,0.1095,0.16373,0.21434,0.39306,0.10679
-0.013606,-0.032508,-0.019612,-0.050161,-0.097995,0.13476,0.085687,-0.055143,-0.013171,0.08521,0.066828,0.30443,-0.098731,0.12575,0.012739,-1.1081,0.11741,1.22,-0.28041,0.11258,0.13223,0.15135,-0.10494,-0.010248
-0.016609,-0.037607,-0.021444,-0.064313,-0.080178,0.13599,0.08181,0.023907,-0.0094705,0.055979,0.07152,0.27593,-0.17506,0.049106,0.0072145,-0.93948,0.090075,0.98451,-0.29426,0.10939,0.082258,0.085634,-0.52754,-0.16624
-0.01796,-0.041535,-0.022529,-0.071287,-0.05701,0.13382,0.073191,0.1024,-0.0096509,0.032126,0.076909,0.26539,-0.26316,-0.04155,-0.0017935,-0.70713,0.058567,0.71613,-0.30503,0.095608,0.023743,0.016172,-0.81895,-0.31956
-0.018109,-0.047407,-0.021448,-0.069752,-0.021037,0.12783,0.058542,0.17827,-0.013615,0.019033,0.080814,0.27402,-0.3565,-0.12837,-0.012991,-0.438,0.023135,0.41454,-0.3172,0.068627,-0.032161,-0.05625,-0.96971,-0.43198
-0.01731,-0.05701,-0.017998,-0.063175,0.034104,0.12172,0.042866,0.24501,-0.019417,0.016296,0.082761,0.29304,-0.45565,-0.19528,-0.028155,-0.16904,-0.018669,0.071982,-0.33508,0.02874,-0.078679,-0.12824,-1.0191,-0.47883
-0.01531,-0.068863,-0.013894,-0.057942,0.11213,0.12082,0.034258,0.29455,-0.024566,0.01987,0.083664,0.31309,-0.56424,-0.23632,-0.048773,0.065212,-0.067881,-0.31066,-0.36015,-0.02015,-0.11647,-0.19624,-1.0253,-0.45431
-0.012194,-0.078845,-0.011645,-0.05946,0.21301,0.12832,0.037457,0.32125,-0.027072,0.026359,0.084719,0.33174,-0.68066,-0.25719,-0.071722,0.23803,-0.12048,-0.71039,-0.3884,-0.070893,-0.15216,-0.25934,-1.0206,-0.37403
-0.0093936,-0.083104,-0.012444,-0.0684,0.33196,0.14275,0.049599,0.32384,-0.025686,0.035403,0.086462,0.35371,-0.79494,-0.26927,-0.088481,0.33108,-0.16787,-1.0838,-0.41051,-0.11504,-0.19312,-0.31917,-0.98308,-0.27227
-0.0094151,-0.081062,-0.015014,-0.079793,0.45881,0.15808,0.061774,0.30526,-0.01975,0.048328,0.088296,0.38421,-0.89514,-0.28137,-0.089998,0.33577,-0.20167,-1.3864,-0.41621,-0.14604,-0.24163,-0.37643,-0.84579,-0.18844
-0.014049,-0.076149,-0.016592,-0.086224,0.57907,0.16654,0.065153,0.27258,-0.0092622,0.064877,0.088313,0.42163,-0.97708,-0.29555,-0.074327,0.2564,-0.21897,-1.5981,-0.40094,-0.16199,-0.29228,-0.42734,-0.53861,-0.14502
-0.022499,-0.073447,-0.015352,-0.08327,0.67748,0.16264,0.056816,0.23738,0.0049018,0.08148,0.083443,0.45547,-1.0474,-0.30952,-0.050835,0.11108,-0.22371,-1.7352,-0.37057,-0.16599,-0.3341,-0.46345,-0.036968,-0.13072
-0.031349,-0.075868,-0.012222,-0.073111,0.74391,0.14592,0.04108,0.21454,0.021231,0.092851,0.070375,0.47196,-1.1162,-0.32235,-0.036583,-0.073877,-0.22261,-1.8369,-0.3398,-0.16339,-0.35653,-0.47589,0.6109,-0.10613
-0.036778,-0.081821,-0.010406,-0.063179,0.77875,0.12086,0.025964,0.21686,0.038554,0.095384,0.047362,0.46384,-1.1853,-0.33713,-0.046344,-0.274,-0.219,-1.9353,-0.32397,-0.1575,-0.35521,-0.46091,1.2927,-0.034181
-0.037322,-0.086317,-0.012855,-0.060572,0.79451,0.094059,0.017996,0.24742,0.056999,0.089189,0.016014,0.43731,-1.2427,-0.35742,-0.083039,-0.47448,-0.20958,-2.0289,-0.32932,-0.14706,-0.33447,-0.42285,1.8727,0.084335
-0.034756,-0.08476,-0.019676,-0.066628,0.8112,0.070773,0.01907,0.29509,0.077714,0.077058,-0.01849,0.41033,-1.2692,-0.3798,-0.1354,-0.67039,-0.18702,-2.0826,-0.34834,-0.1277,-0.30486,-0.37255,2.2448,0.19989
-0.03222,-0.07641,-0.027578,-0.076122,0.84649,0.0531,0.026771,0.33837,0.10115,0.061653,-0.049613,0.40219,-1.2496,-0.38928,-0.18435,-0.86003,-0.14628,-2.0533,-0.36439,-0.096469,-0.27754,-0.32278,2.3721,0.24165
-0.03121,-0.064668,-0.031914,-0.081761,0.90577,0.040411,0.036915,0.35664,0.12524,0.043768,-0.072993,0.42082,-1.1812,-0.36331,-0.21315,-1.0369,-0.089328,-1.9234,-0.36269,-0.05565,-0.25855,-0.28367,2.2906,0.1661
-0.030174,-0.054001,-0.02979,-0.080088,0.97806,0.030818,0.046118,0.34159,0.14556,0.023154,-0.08871,0.45718,-1.0732,-0.28388,-0.21412,-1.1857,-0.024475,-1.7179,-0.3396,-0.012313,-0.24662,-0.26006,2.0739,-0.0098713
-0.026061,-0.046246,-0.021945,-0.073783,1.0411,0.022038,0.053103,0.30074,0.15771,0.00073665,-0.10021,0.49144,-0.94239,-0.15071,-0.18815,-1.2853,0.038873,-1.4914,-0.30327,0.026352,-0.23532,-0.25088,1.7814,-0.2181
-0.017483,-0.039533,-0.012124,-0.068588,1.073,0.011385,0.058691,0.25061,0.16032,-0.020337,-0.11031,0.5068,-0.8093,0.013574,-0.13945,-1.3176,0.095289,-1.2982,-0.26546,0.057943,-0.2181,-0.24976,1.4247,-0.3837
-0.0065912,-0.030689,-0.0046178,-0.067861,1.0631,-0.0040105,0.064975,0.20485,0.15578,-0.036128,-0.11742,0.50013,-0.69766,0.1707,-0.071236,-1.2821,0.1439,-1.1676,-0.23176,0.085387,-0.19302,-0.24682,0.97919,-0.4706
0.0021216,-0.01881,-0.0018779,-0.069679,1.0159,-0.025885,0.074022,0.16626,0.14787,-0.044583,-0.11515,0.4808,-0.63174,0.28287,0.013617,-1.207,0.18475,-1.0985,-0.19845,0.11235,-0.16394,-0.2322,0.43049,-0.49417
0.005156,-0.0067036,-0.00375,-0.068837,0.94437,-0.053211,0.086351,0.12793,0.13837,-0.046943,-0.096359,0.45863,-0.62743,0.32825,0.10829,-1.1487,0.21538,-1.0736,-0.15815,0.13772,-0.13769,-0.20067,-0.18043,-0.49551
0.0026244,0.0011006,-0.0083257,-0.061583,0.8599,-0.08211,0.099891,0.081494,0.12554,-0.046493,-0.058746,0.43195,-0.68095,0.30715,0.19905,-1.1709,0.23181,-1.0762,-0.1081,0.1547,-0.1194,-0.15475,-0.75311,-0.50273
-0.0020954,0.0018688,-0.013259,-0.048621,0.76402,-0.10813,0.11046,0.025263,0.10624,-0.045722,-0.0079467,0.38701,-0.76492,0.23695,0.26804,-1.3079,0.23339,-1.0967,-0.053118,0.15613,-0.10911,-0.10371,-1.1695,-0.5112
-0.0053239,-0.0034634,-0.016521,-0.033914,0.64948,-0.12938,0.11417,-0.034184,0.079705,-0.044427,0.044335,0.31041,-0.83858,0.14124,0.3011,-1.5348,0.22632,-1.1272,-9.2854e-005,0.14163,-0.10217,-0.058151,-1.3524,-0.4949
-0.0060893,-0.0116,-0.016617,-0.020933,0.50881,-0.14773,0.11069,-0.087414,0.049777,-0.040457,0.085793,0.20434,-0.86766,0.040878,0.29552,-1.7667,0.22126,-1.1523,0.050193,0.11974,-0.092592,-0.023663,-1.3007,-0.43302
-0.0066538,-0.019969,-0.012939,-0.010293,0.3438,-0.16693,0.10481,-0.12948,0.023663,-0.032518,0.10878,0.091323,-0.84016,-0.049055,0.26167,-1.8971,0.22572,-1.1482,0.10564,0.10269,-0.076791,0.0018247,-1.0834,-0.32646
-0.010222,-0.02873,-0.0064,-0.00098551,0.16863,-0.18891,0.10441,-0.16288,0.0081705,-0.022742,0.11212,0.0035971,-0.7667,-0.11809,0.2168,-1.8535,0.23761,-1.0899,0.17648,0.097515,-0.055163,0.024918,-0.80463,-0.19203
-0.01785,-0.040039,0.00041375,0.0064484,0.0043839,-0.21153,0.1152,-0.19397,0.0063635,-0.016929,0.0992,-0.034624,-0.6664,-0.15956,0.17513,-1.6325,0.246,-0.9617,0.26512,0.10146,-0.030803,0.050404,-0.5632,-0.044504
-0.027146,-0.055428,0.0043943,0.0085666,-0.13107,-0.22951,0.13584,-0.22623,0.016847,-0.02216,0.074621,-0.018935,-0.55057,-0.17203,0.1414,-1.2925,0.23955,-0.76259,0.36119,0.10526,-0.0069773,0.076812,-0.42332,0.11448
-0.03379,-0.073649,0.0039248,0.0014574,-0.23067,-0.23793,0.1573,-0.25655,0.035621,-0.043167,0.042136,0.03635,-0.41668,-0.16079,0.11231,-0.9103,0.2156,-0.50291,0.44605,0.10138,0.014468,0.097277,-0.39746,0.29116
-0.034612,-0.09074,9.2647e-005,-0.01501,-0.29873,-0.23544,0.16801,-0.278,0.058676,-0.079479,0.0046657,0.10789,-0.25521,-0.13597,0.08408,-0.53801,0.18238,-0.19676,0.50277,0.089523,0.032741,0.10456,-0.4434,0.48591
-0.029812,-0.10215,-0.0042007,-0.035237,-0.34548,-0.22507,0.16146,-0.28714,0.083418,-0.12473,-0.034655,0.17252,-0.061383,-0.10721,0.059475,-0.19201,0.15227,0.14428,0.52362,0.07493,0.046507,0.095775,-0.48264,0.68565
-0.02269,-0.10538,-0.0066293,-0.050559,-0.38023,-0.21228,0.14076,-0.2898,0.10834,-0.16846,-0.071998,0.21138,0.15794,-0.078786,0.047753,0.1256,0.13186,0.51019,0.51005,0.061631,0.052829,0.073087,-0.4429,0.86907
-0.017209,-0.10132,-0.0071549,-0.054677,-0.40773,-0.20184,0.11649,-0.30037,0.13175,-0.19983,-0.1035,0.21199,0.38611,-0.049708,0.056993,0.39945,0.11719,0.88424,0.46778,0.047664,0.047982,0.04081,-0.30762,1.018
-0.015351,-0.093621,-0.0074278,-0.047494,-0.42885,-0.19549,0.099273,-0.33436,0.15104,-0.21172,-0.12638,0.17232,0.60339,-0.019067,0.084822,0.59682,0.097868,1.2337,0.40298,0.026993,0.030109,0.0025499,-0.13836,1.1244
-0.016268,-0.086505,-0.0085351,-0.034315,-0.44349,-0.19148,0.09276,-0.39936,0.16332,-0.20347,-0.13944,0.10551,0.79318,0.0082061,0.1157,0.69118,0.066235,1.5096,0.32293,-0.0038069,0.0022186,-0.03826,-0.044928,1.1879
-0.017705,-0.082322,-0.0094776,-0.021385,-0.45281,-0.18594,0.092365,-0.49022,0.1673,-0.18054,-0.14265,0.038189,0.94542,0.020807,0.12844,0.69024,0.023696,1.6625,0.23849,-0.040806,-0.026717,-0.075063,-0.11431,1.2115
-0.018306,-0.080372,-0.0080422,-0.011623,-0.45933,-0.17536,0.090329,-0.59121,0.16486,-0.15117,-0.13642,-0.0010789,1.0582,0.0071988,0.10953,0.63979,-0.020725,1.6681,0.16333,-0.074798,-0.044195,-0.096471,-0.3454,1.1997
-0.018736,-0.077744,-0.0032333,-0.0038282,-0.4654,-0.15855,0.082555,-0.68327,0.16075,-0.12182,-0.12134,0.001947,1.1389,-0.035846,0.062834,0.59674,-0.057577,1.5464,0.10843,-0.09852,-0.0398,-0.09004,-0.63856,1.1624
-0.020635,-0.071692,0.0032796,0.0046023,-0.47154,-0.1372,0.071545,-0.75182,0.16012,-0.094476,-0.098569,0.038239,1.2034,-0.098715,0.00798,0.59148,-0.083324,1.3576,0.075685,-0.11228,-0.011212,-0.050557,-0.85122,1.1159
-0.024396,-0.06182,0.008336,0.0143,-0.4759,-0.11438,0.063369,-0.7916,0.16518,-0.067473,-0.070343,0.081399,1.2725,-0.16187,-0.032032,0.60986,-0.10073,1.1717,0.056631,-0.12258,0.033415,0.013323,-0.88182,1.0774
-0.027907,-0.050335,0.010065,0.022901,-0.47541,-0.092437,0.061657,-0.80692,0.17352,-0.039209,-0.039821,0.10447,1.3641,-0.20443,-0.045503,0.60911,-0.11399,1.0315,0.03781,-0.13498,0.079111,0.080634,-0.72448,1.0575
-0.027612,-0.040012,0.0095713,0.027032,-0.46798,-0.071798,0.063785,-0.80822,0.17945,-0.011431,-0.010218,0.095073,1.4848,-0.21325,-0.038522,0.55579,-0.12395,0.9319,0.0089075,-0.14773,0.11227,0.12865,-0.46142,1.0548
-0.021196,-0.03155,0.0098158,0.0254,-0.45442,-0.052016,0.062186,-0.80638,0.17732,0.010763,0.01611,0.058379,1.6234,-0.18795,-0.029012,0.45775,-0.12815,0.83149,-0.032319,-0.15255,0.12813,0.14567,-0.20642,1.061
-0.009646,-0.022756,0.012707,0.020391,-0.43865,-0.034108,0.049387,-0.8072,0.16455,0.022486,0.03777,0.0080004,1.7516,-0.14001,-0.033412,0.36741,-0.12524,0.68389,-0.080696,-0.14215,0.13224,0.13661,-0.043266,1.069
0.0031213,-0.01063,0.017136,0.016933,-0.42564,-0.021899,0.022687,-0.80841,0.14192,0.023265,0.053564,-0.046025,1.8331,-0.087387,-0.056226,0.3543,-0.11902,0.46571,-0.12736,-0.1179,0.13475,0.11712,0.0040253,1.0798
0.012857,0.0052766,0.019814,0.019485,-0.41782,-0.020591,-0.01467,-0.80076,0.11171,0.018135,0.061651,-0.10244,1.8388,-0.047307,-0.08955,0.46517,-0.11748,0.18284,-0.16272,-0.090617,0.14195,0.10117,-0.035887,1.1009
0.017695,0.021342,0.018135,0.029239,-0.41229,-0.033161,-0.055922,-0.77287,0.075768,0.014233,0.059706,-0.16479,1.7617,-0.030276,-0.1212,0.69669,-0.12692,-0.14245,-0.17767,-0.07329,0.15186,0.092253,-0.10575,1.1418
0.018884,0.032058,0.012505,0.04332,-0.40134,-0.057394,-0.094391,-0.71728,0.035395,0.015365,0.046323,-0.23364,1.6215,-0.037748,-0.14373,0.99671,-0.1464,-0.48697,-0.16542,-0.071676,0.15711,0.084728,-0.14068,1.2101
0.019173,0.034474,0.0061101,0.056514,-0.37676,-0.086238,-0.12582,-0.6343,-0.0070986,0.019017,0.022736,-0.30214,1.4552,-0.064112,-0.15748,1.2918,-0.16737,-0.83056,-0.12541,-0.080517,0.15249,0.072858,-0.082815,1.3094
0.020459,0.031106,0.0024595,0.064475,-0.33561,-0.11155,-0.14879,-0.53184,-0.047304,0.018609,-0.006549,-0.35831,1.2971,-0.10129,-0.16743,1.5234,-0.17944,-1.1502,-0.067347,-0.088309,0.14021,0.058236,0.10332,1.4394
0.022642,0.028452,0.0028256,0.066475,-0.28368,-0.12843,-0.16408,-0.42182,-0.079827,0.0095032,-0.034942,-0.39112,1.1633,-0.14238,-0.17863,1.6712,-0.17748,-1.4166,-0.010368,-0.086265,0.12818,0.048391,0.41395,1.5922
0.024342,0.032032,0.005652,0.065885,-0.23367,-0.13672,-0.17405,-0.31553,-0.10112,-0.0060862,-0.056149,-0.39555,1.0501,-0.18133,-0.19469,1.7508,-0.16458,-1.6034,0.024937,-0.07399,0.12297,0.048086,0.80078,1.7497
0.024489,0.042115,0.0081807,0.067883,-0.19886,-0.13868,-0.18211,-0.22017,-0.1117,-0.019607,-0.066285,-0.37272,0.94862,-0.20942,-0.21842,1.7919,-0.14892,-1.704,0.027963,-0.057798,0.12377,0.052237,1.1898,1.8848
0.023278,0.053943,0.008766,0.075748,-0.18599,-0.13502,-0.19145,-0.13791,-0.11555,-0.022159,-0.064604,-0.32587,0.86094,-0.21286,-0.25107,1.813,-0.13783,-1.7426,0.0050916,-0.04425,0.1231,0.048268,1.5189,1.9699
0.021911,0.062342,0.0079718,0.088249,-0.19215,-0.12301,-0.20329,-0.066982,-0.11722,-0.011402,-0.052904,-0.25597,0.80192,-0.17642,-0.28893,1.8133,-0.1342,-1.7687,-0.023676,-0.035171,0.11352,0.026979,1.7682,1.9884
0.021701,0.066599,0.0077282,0.10009,-0.20729,-0.098249,-0.21553,-0.0040005,-0.11862,0.0062444,-0.034473,-0.16137,0.78458,-0.093524,-0.32094,1.7839,-0.13737,-1.8352,-0.037131,-0.028143,0.094407,-0.007389,1.9584,1.9394
0.023447,0.071106,0.0094533,0.10527,-0.22034,-0.058347,-0.22333,0.053883,-0.11836,0.020164,-0.013319,-0.042634,0.80195,0.023286,-0.33199,1.7295,-0.14644,-1.9736,-0.026292,-0.020911,0.072415,-0.037285,2.1164,1.8336
0.027364,0.081063,0.012796,0.10103,-0.2246,-0.0052732,-0.22178,0.10806,-0.1137,0.023462,0.0064039,0.090912,0.82449,0.14045,-0.31146,1.6788,-0.16194,-2.1813,8.4092e-005,-0.014667,0.055385,-0.043073,2.2356,1.6826
0.033149,0.097141,0.015991,0.089697,-0.21941,0.055572,-0.20906,0.15904,-0.10365,0.018062,0.021246,0.21921,0.81842,0.21532,-0.2605,1.6744,-0.18435,-2.4266,0.021212,-0.012962,0.04523,-0.016672,2.2659,1.4915
0.039864,0.11408,0.017389,0.077202,-0.20782,0.11826,-0.18777,0.20766,-0.090643,0.012946,0.029612,0.31785,0.77084,0.21774,-0.19112,1.7471,-0.21176,-2.6677,0.016791,-0.0178,0.036405,0.033117,2.1426,1.2617
0.045849,0.1247,0.016733,0.069461,-0.19303,0.17832,-0.16344,0.25569,-0.079838,0.017043,0.032433,0.37058,0.69949,0.14921,-0.11713,1.8946,-0.23991,-2.8746,-0.02221,-0.027328,0.021265,0.08733,1.8328,0.99964
0.049195,0.1259,0.015107,0.069176,-0.17619,0.23237,-0.14128,0.30496,-0.076577,0.032484,0.032561,0.3797,0.63744,0.046284,-0.044706,2.078,-0.26539,-3.0411,-0.090842,-0.037647,-0.0027871,0.1296,1.3623,0.72143
